#t		Qconv[W]	Ri[Rp]		R*[Rp]		Qc[W]		Qm[W]		Qr[W]		Tcmb[K]		Tl[K]		Tup[K]		RiFlag		Bs[T]
0.000000e+00	4.575541e+13	0.000000e+00	6.395347e-01	6.292610e+14	9.426657e+13	2.080302e+14	9.514985e+03	4.579439e+03	2.392551e+03	0	1.098632e-03
1.000000e+07	4.510578e+13	0.000000e+00	6.395347e-01	6.213948e+14	9.944875e+13	2.068776e+14	9.483938e+03	4.616766e+03	2.412053e+03	0	1.093407e-03
2.000000e+07	4.445680e+13	0.000000e+00	6.395347e-01	6.135403e+14	1.047379e+14	2.057336e+14	9.453278e+03	4.653374e+03	2.431179e+03	0	1.088138e-03
3.000000e+07	4.380900e+13	0.000000e+00	6.395347e-01	6.057034e+14	1.101266e+14	2.045981e+14	9.423004e+03	4.689259e+03	2.449927e+03	0	1.082827e-03
4.000000e+07	4.316289e+13	0.000000e+00	6.395347e-01	5.978900e+14	1.156068e+14	2.034711e+14	9.393115e+03	4.724417e+03	2.468295e+03	0	1.077477e-03
5.000000e+07	4.251895e+13	0.000000e+00	6.395347e-01	5.901058e+14	1.211705e+14	2.023525e+14	9.363610e+03	4.758845e+03	2.486283e+03	0	1.072092e-03
6.000000e+07	4.187766e+13	0.000000e+00	6.395347e-01	5.823563e+14	1.268092e+14	2.012423e+14	9.334487e+03	4.792542e+03	2.503888e+03	0	1.066675e-03
7.000000e+07	4.123947e+13	0.000000e+00	6.395347e-01	5.746468e+14	1.325144e+14	2.001403e+14	9.305746e+03	4.825506e+03	2.521110e+03	0	1.061229e-03
8.000000e+07	4.060483e+13	0.000000e+00	6.395347e-01	5.669824e+14	1.382774e+14	1.990465e+14	9.277383e+03	4.857737e+03	2.537949e+03	0	1.055757e-03
9.000000e+07	3.997415e+13	0.000000e+00	6.395347e-01	5.593679e+14	1.440893e+14	1.979609e+14	9.249398e+03	4.889233e+03	2.554405e+03	0	1.050262e-03
1.000000e+08	3.934784e+13	0.000000e+00	6.395347e-01	5.518080e+14	1.499414e+14	1.968833e+14	9.221786e+03	4.919997e+03	2.570477e+03	0	1.044748e-03
1.100000e+08	3.872628e+13	0.000000e+00	6.395347e-01	5.443070e+14	1.558246e+14	1.958137e+14	9.194547e+03	4.950029e+03	2.586168e+03	0	1.039218e-03
1.200000e+08	3.810983e+13	0.000000e+00	6.395347e-01	5.368693e+14	1.617302e+14	1.947520e+14	9.167676e+03	4.979332e+03	2.601477e+03	0	1.033674e-03
1.300000e+08	3.749884e+13	0.000000e+00	6.395347e-01	5.294986e+14	1.676493e+14	1.936982e+14	9.141172e+03	5.007907e+03	2.616407e+03	0	1.028120e-03
1.400000e+08	3.689361e+13	0.000000e+00	6.395347e-01	5.221988e+14	1.735732e+14	1.926522e+14	9.115029e+03	5.035759e+03	2.630958e+03	0	1.022559e-03
1.500000e+08	3.629447e+13	0.000000e+00	6.395347e-01	5.149732e+14	1.794933e+14	1.916139e+14	9.089246e+03	5.062892e+03	2.645133e+03	0	1.016993e-03
1.600000e+08	3.570168e+13	0.000000e+00	6.395347e-01	5.078252e+14	1.854012e+14	1.905833e+14	9.063818e+03	5.089309e+03	2.658935e+03	0	1.011426e-03
1.700000e+08	3.511551e+13	0.000000e+00	6.395347e-01	5.007576e+14	1.912886e+14	1.895603e+14	9.038742e+03	5.115016e+03	2.672366e+03	0	1.005860e-03
1.800000e+08	3.453620e+13	0.000000e+00	6.395347e-01	4.937733e+14	1.971476e+14	1.885449e+14	9.014014e+03	5.140019e+03	2.685429e+03	0	1.000298e-03
1.900000e+08	3.396396e+13	0.000000e+00	6.395347e-01	4.868747e+14	2.029703e+14	1.875369e+14	8.989630e+03	5.164324e+03	2.698127e+03	0	9.947425e-04
2.000000e+08	3.339900e+13	0.000000e+00	6.395347e-01	4.800642e+14	2.087493e+14	1.865363e+14	8.965585e+03	5.187938e+03	2.710464e+03	0	9.891961e-04
2.100000e+08	3.284149e+13	0.000000e+00	6.395347e-01	4.733437e+14	2.144773e+14	1.855431e+14	8.941875e+03	5.210867e+03	2.722444e+03	0	9.836612e-04
2.200000e+08	3.229160e+13	0.000000e+00	6.395347e-01	4.667150e+14	2.201474e+14	1.845572e+14	8.918495e+03	5.233120e+03	2.734070e+03	0	9.781402e-04
2.300000e+08	3.174947e+13	0.000000e+00	6.395347e-01	4.601799e+14	2.257530e+14	1.835785e+14	8.895443e+03	5.254704e+03	2.745347e+03	0	9.726353e-04
2.400000e+08	3.121522e+13	0.000000e+00	6.395347e-01	4.537396e+14	2.312880e+14	1.826070e+14	8.872712e+03	5.275629e+03	2.756279e+03	0	9.671489e-04
2.500000e+08	3.068895e+13	0.000000e+00	6.395347e-01	4.473954e+14	2.367464e+14	1.816426e+14	8.850297e+03	5.295902e+03	2.766871e+03	0	9.616830e-04
2.600000e+08	3.017077e+13	0.000000e+00	6.395347e-01	4.411482e+14	2.421226e+14	1.806853e+14	8.828196e+03	5.315534e+03	2.777127e+03	0	9.562395e-04
2.700000e+08	2.966073e+13	0.000000e+00	6.395347e-01	4.349989e+14	2.474114e+14	1.797350e+14	8.806402e+03	5.334533e+03	2.787054e+03	0	9.508204e-04
2.800000e+08	2.915890e+13	0.000000e+00	6.395347e-01	4.289479e+14	2.526081e+14	1.787916e+14	8.784910e+03	5.352909e+03	2.796654e+03	0	9.454276e-04
2.900000e+08	2.866531e+13	0.000000e+00	6.395347e-01	4.229959e+14	2.577081e+14	1.778551e+14	8.763717e+03	5.370673e+03	2.805935e+03	0	9.400626e-04
3.000000e+08	2.818000e+13	0.000000e+00	6.395347e-01	4.171430e+14	2.627075e+14	1.769254e+14	8.742817e+03	5.387835e+03	2.814902e+03	0	9.347272e-04
3.100000e+08	2.770298e+13	0.000000e+00	6.395347e-01	4.113893e+14	2.676023e+14	1.760025e+14	8.722205e+03	5.404406e+03	2.823559e+03	0	9.294229e-04
3.200000e+08	2.723424e+13	0.000000e+00	6.395347e-01	4.057349e+14	2.723893e+14	1.750863e+14	8.701876e+03	5.420395e+03	2.831913e+03	0	9.241511e-04
3.300000e+08	2.677378e+13	0.000000e+00	6.395347e-01	4.001794e+14	2.770654e+14	1.741768e+14	8.681826e+03	5.435815e+03	2.839969e+03	0	9.189131e-04
3.400000e+08	2.632157e+13	0.000000e+00	6.395347e-01	3.947226e+14	2.816280e+14	1.732739e+14	8.662049e+03	5.450675e+03	2.847733e+03	0	9.137103e-04
3.500000e+08	2.587758e+13	0.000000e+00	6.395347e-01	3.893641e+14	2.860746e+14	1.723775e+14	8.642542e+03	5.464988e+03	2.855210e+03	0	9.085436e-04
3.600000e+08	2.544176e+13	0.000000e+00	6.395347e-01	3.841032e+14	2.904034e+14	1.714876e+14	8.623298e+03	5.478763e+03	2.862408e+03	0	9.034143e-04
3.700000e+08	2.501406e+13	0.000000e+00	6.395347e-01	3.789393e+14	2.946125e+14	1.706042e+14	8.604314e+03	5.492014e+03	2.869330e+03	0	8.983233e-04
3.800000e+08	2.459442e+13	0.000000e+00	6.395347e-01	3.738717e+14	2.987006e+14	1.697272e+14	8.585584e+03	5.504749e+03	2.875984e+03	0	8.932714e-04
3.900000e+08	2.418277e+13	0.000000e+00	6.395347e-01	3.688994e+14	3.026667e+14	1.688565e+14	8.567104e+03	5.516982e+03	2.882375e+03	0	8.882596e-04
4.000000e+08	2.377902e+13	0.000000e+00	6.395347e-01	3.640215e+14	3.065098e+14	1.679921e+14	8.548868e+03	5.528724e+03	2.888510e+03	0	8.832885e-04
4.100000e+08	2.338310e+13	0.000000e+00	6.395347e-01	3.592369e+14	3.102294e+14	1.671339e+14	8.530874e+03	5.539985e+03	2.894393e+03	0	8.783588e-04
4.200000e+08	2.299492e+13	0.000000e+00	6.395347e-01	3.545446e+14	3.138253e+14	1.662819e+14	8.513114e+03	5.550777e+03	2.900031e+03	0	8.734710e-04
4.300000e+08	2.261436e+13	0.000000e+00	6.395347e-01	3.499435e+14	3.172974e+14	1.654361e+14	8.495587e+03	5.561111e+03	2.905431e+03	0	8.686257e-04
4.400000e+08	2.224135e+13	0.000000e+00	6.395347e-01	3.454322e+14	3.206458e+14	1.645963e+14	8.478286e+03	5.570999e+03	2.910596e+03	0	8.638234e-04
4.500000e+08	2.187576e+13	0.000000e+00	6.395347e-01	3.410095e+14	3.238711e+14	1.637626e+14	8.461207e+03	5.580450e+03	2.915534e+03	0	8.590642e-04
4.600000e+08	2.151750e+13	0.000000e+00	6.395347e-01	3.366740e+14	3.269736e+14	1.629348e+14	8.444346e+03	5.589477e+03	2.920251e+03	0	8.543487e-04
4.700000e+08	2.116644e+13	0.000000e+00	6.395347e-01	3.324246e+14	3.299544e+14	1.621130e+14	8.427699e+03	5.598091e+03	2.924751e+03	0	8.496769e-04
4.800000e+08	2.082247e+13	0.000000e+00	6.395347e-01	3.282596e+14	3.328143e+14	1.612971e+14	8.411262e+03	5.606301e+03	2.929040e+03	0	8.450492e-04
4.900000e+08	2.048548e+13	0.000000e+00	6.395347e-01	3.241778e+14	3.355544e+14	1.604870e+14	8.395030e+03	5.614119e+03	2.933125e+03	0	8.404656e-04
5.000000e+08	2.015533e+13	0.000000e+00	6.395347e-01	3.201776e+14	3.381761e+14	1.596827e+14	8.378999e+03	5.621555e+03	2.937010e+03	0	8.359261e-04
5.100000e+08	1.983192e+13	0.000000e+00	6.395347e-01	3.162576e+14	3.406808e+14	1.588842e+14	8.363165e+03	5.628620e+03	2.940701e+03	0	8.314309e-04
5.200000e+08	1.951511e+13	0.000000e+00	6.395347e-01	3.124164e+14	3.430699e+14	1.580914e+14	8.347525e+03	5.635323e+03	2.944203e+03	0	8.269798e-04
5.300000e+08	1.920479e+13	0.000000e+00	6.395347e-01	3.086524e+14	3.453452e+14	1.573042e+14	8.332074e+03	5.641675e+03	2.947521e+03	0	8.225729e-04
5.400000e+08	1.890082e+13	0.000000e+00	6.395347e-01	3.049642e+14	3.475085e+14	1.565226e+14	8.316809e+03	5.647685e+03	2.950662e+03	0	8.182100e-04
5.500000e+08	1.860308e+13	0.000000e+00	6.395347e-01	3.013502e+14	3.495614e+14	1.557466e+14	8.301726e+03	5.653364e+03	2.953628e+03	0	8.138909e-04
5.600000e+08	1.831145e+13	0.000000e+00	6.395347e-01	2.978090e+14	3.515061e+14	1.549761e+14	8.286820e+03	5.658720e+03	2.956427e+03	0	8.096154e-04
5.700000e+08	1.802579e+13	0.000000e+00	6.395347e-01	2.943391e+14	3.533445e+14	1.542110e+14	8.272090e+03	5.663764e+03	2.959062e+03	0	8.053834e-04
5.800000e+08	1.774599e+13	0.000000e+00	6.395347e-01	2.909389e+14	3.550786e+14	1.534514e+14	8.257530e+03	5.668504e+03	2.961539e+03	0	8.011946e-04
5.900000e+08	1.747192e+13	0.000000e+00	6.395347e-01	2.876071e+14	3.567107e+14	1.526972e+14	8.243139e+03	5.672949e+03	2.963861e+03	0	7.970486e-04
6.000000e+08	1.720346e+13	0.000000e+00	6.395347e-01	2.843420e+14	3.582428e+14	1.519483e+14	8.228911e+03	5.677109e+03	2.966034e+03	0	7.929452e-04
6.100000e+08	1.694048e+13	0.000000e+00	6.395347e-01	2.811423e+14	3.596771e+14	1.512048e+14	8.214845e+03	5.680991e+03	2.968063e+03	0	7.888840e-04
6.200000e+08	1.668287e+13	0.000000e+00	6.395347e-01	2.780065e+14	3.610160e+14	1.504664e+14	8.200937e+03	5.684605e+03	2.969951e+03	0	7.848647e-04
6.300000e+08	1.643049e+13	0.000000e+00	6.395347e-01	2.749333e+14	3.622617e+14	1.497333e+14	8.187183e+03	5.687958e+03	2.971702e+03	0	7.808868e-04
6.400000e+08	1.618324e+13	0.000000e+00	6.395347e-01	2.719211e+14	3.634163e+14	1.490054e+14	8.173581e+03	5.691059e+03	2.973322e+03	0	7.769500e-04
6.500000e+08	1.594099e+13	0.000000e+00	6.395347e-01	2.689686e+14	3.644823e+14	1.482826e+14	8.160127e+03	5.693915e+03	2.974815e+03	0	7.730538e-04
6.600000e+08	1.570364e+13	0.000000e+00	6.395347e-01	2.660743e+14	3.654619e+14	1.475648e+14	8.146819e+03	5.696534e+03	2.976183e+03	0	7.691977e-04
6.700000e+08	1.547106e+13	0.000000e+00	6.395347e-01	2.632371e+14	3.663574e+14	1.468521e+14	8.133654e+03	5.698924e+03	2.977432e+03	0	7.653814e-04
6.800000e+08	1.524315e+13	0.000000e+00	6.395347e-01	2.604555e+14	3.671711e+14	1.461445e+14	8.120629e+03	5.701092e+03	2.978564e+03	0	7.616044e-04
6.900000e+08	1.501979e+13	0.000000e+00	6.395347e-01	2.577282e+14	3.679052e+14	1.454417e+14	8.107742e+03	5.703045e+03	2.979585e+03	0	7.578661e-04
7.000000e+08	1.480087e+13	0.000000e+00	6.395347e-01	2.550539e+14	3.685620e+14	1.447440e+14	8.094988e+03	5.704790e+03	2.980496e+03	0	7.541661e-04
7.100000e+08	1.458630e+13	0.000000e+00	6.395347e-01	2.524314e+14	3.691438e+14	1.440511e+14	8.082367e+03	5.706333e+03	2.981303e+03	0	7.505038e-04
7.200000e+08	1.437596e+13	0.000000e+00	6.395347e-01	2.498595e+14	3.696528e+14	1.433630e+14	8.069875e+03	5.707682e+03	2.982007e+03	0	7.468789e-04
7.300000e+08	1.416975e+13	0.000000e+00	6.395347e-01	2.473368e+14	3.700912e+14	1.426797e+14	8.057510e+03	5.708843e+03	2.982614e+03	0	7.432906e-04
7.400000e+08	1.396758e+13	0.000000e+00	6.395347e-01	2.448623e+14	3.704611e+14	1.420013e+14	8.045270e+03	5.709821e+03	2.983125e+03	0	7.397386e-04
7.500000e+08	1.376934e+13	0.000000e+00	6.395347e-01	2.424348e+14	3.707647e+14	1.413275e+14	8.033152e+03	5.710624e+03	2.983544e+03	0	7.362223e-04
7.600000e+08	1.357494e+13	0.000000e+00	6.395347e-01	2.400531e+14	3.710042e+14	1.406585e+14	8.021153e+03	5.711257e+03	2.983875e+03	0	7.327411e-04
7.700000e+08	1.338429e+13	0.000000e+00	6.395347e-01	2.377161e+14	3.711816e+14	1.399941e+14	8.009272e+03	5.711725e+03	2.984120e+03	0	7.292946e-04
7.800000e+08	1.319728e+13	0.000000e+00	6.395347e-01	2.354227e+14	3.712988e+14	1.393343e+14	7.997506e+03	5.712035e+03	2.984282e+03	0	7.258821e-04
7.900000e+08	1.301385e+13	0.000000e+00	6.395347e-01	2.331719e+14	3.713580e+14	1.386791e+14	7.985854e+03	5.712191e+03	2.984363e+03	0	7.225032e-04
8.000000e+08	1.283388e+13	0.000000e+00	6.395347e-01	2.309627e+14	3.713612e+14	1.380284e+14	7.974313e+03	5.712200e+03	2.984368e+03	0	7.191574e-04
8.100000e+08	1.265731e+13	0.000000e+00	6.395347e-01	2.287939e+14	3.713102e+14	1.373823e+14	7.962881e+03	5.712065e+03	2.984297e+03	0	7.158440e-04
8.200000e+08	1.248405e+13	0.000000e+00	6.395347e-01	2.266646e+14	3.712069e+14	1.367406e+14	7.951555e+03	5.711792e+03	2.984155e+03	0	7.125626e-04
8.300000e+08	1.231401e+13	0.000000e+00	6.395347e-01	2.245739e+14	3.710532e+14	1.361033e+14	7.940335e+03	5.711387e+03	2.983943e+03	0	7.093127e-04
8.400000e+08	1.214711e+13	0.000000e+00	6.395347e-01	2.225208e+14	3.708510e+14	1.354705e+14	7.929218e+03	5.710852e+03	2.983664e+03	0	7.060936e-04
8.500000e+08	1.198329e+13	0.000000e+00	6.395347e-01	2.205044e+14	3.706019e+14	1.348420e+14	7.918203e+03	5.710194e+03	2.983320e+03	0	7.029049e-04
8.600000e+08	1.182246e+13	0.000000e+00	6.395347e-01	2.185238e+14	3.703077e+14	1.342179e+14	7.907287e+03	5.709416e+03	2.982913e+03	0	6.997461e-04
8.700000e+08	1.166454e+13	0.000000e+00	6.395347e-01	2.165781e+14	3.699701e+14	1.335980e+14	7.896469e+03	5.708522e+03	2.982446e+03	0	6.966166e-04
8.800000e+08	1.150948e+13	0.000000e+00	6.395347e-01	2.146665e+14	3.695908e+14	1.329825e+14	7.885747e+03	5.707518e+03	2.981921e+03	0	6.935159e-04
8.900000e+08	1.135719e+13	0.000000e+00	6.395347e-01	2.127881e+14	3.691713e+14	1.323711e+14	7.875119e+03	5.706406e+03	2.981341e+03	0	6.904435e-04
9.000000e+08	1.120761e+13	0.000000e+00	6.395347e-01	2.109422e+14	3.687131e+14	1.317640e+14	7.864584e+03	5.705191e+03	2.980706e+03	0	6.873990e-04
9.100000e+08	1.106067e+13	0.000000e+00	6.395347e-01	2.091279e+14	3.682180e+14	1.311610e+14	7.854140e+03	5.703876e+03	2.980019e+03	0	6.843817e-04
9.200000e+08	1.091632e+13	0.000000e+00	6.395347e-01	2.073444e+14	3.676872e+14	1.305621e+14	7.843786e+03	5.702465e+03	2.979282e+03	0	6.813913e-04
9.300000e+08	1.077447e+13	0.000000e+00	6.395347e-01	2.055911e+14	3.671222e+14	1.299673e+14	7.833520e+03	5.700962e+03	2.978496e+03	0	6.784272e-04
9.400000e+08	1.063509e+13	0.000000e+00	6.395347e-01	2.038672e+14	3.665245e+14	1.293766e+14	7.823340e+03	5.699370e+03	2.977664e+03	0	6.754890e-04
9.500000e+08	1.049810e+13	0.000000e+00	6.395347e-01	2.021721e+14	3.658954e+14	1.287900e+14	7.813246e+03	5.697692e+03	2.976788e+03	0	6.725761e-04
9.600000e+08	1.036345e+13	0.000000e+00	6.395347e-01	2.005049e+14	3.652362e+14	1.282073e+14	7.803235e+03	5.695931e+03	2.975868e+03	0	6.696882e-04
9.700000e+08	1.023107e+13	0.000000e+00	6.395347e-01	1.988651e+14	3.645482e+14	1.276286e+14	7.793307e+03	5.694091e+03	2.974907e+03	0	6.668246e-04
9.800000e+08	1.010093e+13	0.000000e+00	6.395347e-01	1.972520e+14	3.638326e+14	1.270538e+14	7.783459e+03	5.692175e+03	2.973906e+03	0	6.639851e-04
9.900000e+08	9.972957e+12	0.000000e+00	6.395347e-01	1.956649e+14	3.630907e+14	1.264830e+14	7.773692e+03	5.690185e+03	2.972866e+03	0	6.611691e-04
1.000000e+09	9.847106e+12	0.000000e+00	6.395347e-01	1.941033e+14	3.623236e+14	1.259160e+14	7.764002e+03	5.688125e+03	2.971789e+03	0	6.583762e-04
1.010000e+09	9.723327e+12	0.000000e+00	6.395347e-01	1.925666e+14	3.615324e+14	1.253528e+14	7.754390e+03	5.685996e+03	2.970677e+03	0	6.556059e-04
1.020000e+09	9.601570e+12	0.000000e+00	6.395347e-01	1.910541e+14	3.607183e+14	1.247935e+14	7.744854e+03	5.683802e+03	2.969531e+03	0	6.528579e-04
1.030000e+09	9.481787e+12	0.000000e+00	6.395347e-01	1.895654e+14	3.598823e+14	1.242380e+14	7.735392e+03	5.681546e+03	2.968352e+03	0	6.501316e-04
1.040000e+09	9.363933e+12	0.000000e+00	6.395347e-01	1.880997e+14	3.590254e+14	1.236862e+14	7.726004e+03	5.679229e+03	2.967142e+03	0	6.474268e-04
1.050000e+09	9.247961e+12	0.000000e+00	6.395347e-01	1.866568e+14	3.581487e+14	1.231381e+14	7.716689e+03	5.676854e+03	2.965901e+03	0	6.447429e-04
1.060000e+09	9.133829e+12	0.000000e+00	6.395347e-01	1.852359e+14	3.572530e+14	1.225938e+14	7.707444e+03	5.674423e+03	2.964631e+03	0	6.420796e-04
1.070000e+09	9.021493e+12	0.000000e+00	6.395347e-01	1.838366e+14	3.563393e+14	1.220531e+14	7.698270e+03	5.671939e+03	2.963333e+03	0	6.394364e-04
1.080000e+09	8.910913e+12	0.000000e+00	6.395347e-01	1.824584e+14	3.554086e+14	1.215160e+14	7.689165e+03	5.669404e+03	2.962009e+03	0	6.368131e-04
1.090000e+09	8.802048e+12	0.000000e+00	6.395347e-01	1.811008e+14	3.544617e+14	1.209826e+14	7.680128e+03	5.666820e+03	2.960658e+03	0	6.342091e-04
1.100000e+09	8.694858e+12	0.000000e+00	6.395347e-01	1.797634e+14	3.534994e+14	1.204527e+14	7.671158e+03	5.664188e+03	2.959284e+03	0	6.316242e-04
1.110000e+09	8.589306e+12	0.000000e+00	6.395347e-01	1.784457e+14	3.525225e+14	1.199264e+14	7.662254e+03	5.661511e+03	2.957885e+03	0	6.290579e-04
1.120000e+09	8.485355e+12	0.000000e+00	6.395347e-01	1.771473e+14	3.515319e+14	1.194036e+14	7.653415e+03	5.658791e+03	2.956464e+03	0	6.265099e-04
1.130000e+09	8.382969e+12	0.000000e+00	6.395347e-01	1.758677e+14	3.505283e+14	1.188844e+14	7.644641e+03	5.656030e+03	2.955021e+03	0	6.239798e-04
1.140000e+09	8.282113e+12	0.000000e+00	6.395347e-01	1.746065e+14	3.495124e+14	1.183685e+14	7.635929e+03	5.653228e+03	2.953558e+03	0	6.214673e-04
1.150000e+09	8.182752e+12	0.000000e+00	6.395347e-01	1.733633e+14	3.484849e+14	1.178562e+14	7.627280e+03	5.650389e+03	2.952074e+03	0	6.189720e-04
1.160000e+09	8.084854e+12	0.000000e+00	6.395347e-01	1.721378e+14	3.474465e+14	1.173472e+14	7.618693e+03	5.647513e+03	2.950572e+03	0	6.164937e-04
1.170000e+09	7.988386e+12	0.000000e+00	6.395347e-01	1.709295e+14	3.463978e+14	1.168417e+14	7.610165e+03	5.644603e+03	2.949051e+03	0	6.140319e-04
1.180000e+09	7.893317e+12	0.000000e+00	6.395347e-01	1.697381e+14	3.453397e+14	1.163395e+14	7.601698e+03	5.641659e+03	2.947513e+03	0	6.115863e-04
1.190000e+09	7.799616e+12	0.000000e+00	6.395347e-01	1.685631e+14	3.442725e+14	1.158406e+14	7.593290e+03	5.638684e+03	2.945959e+03	0	6.091566e-04
1.200000e+09	7.707255e+12	0.000000e+00	6.395347e-01	1.674044e+14	3.431969e+14	1.153451e+14	7.584939e+03	5.635678e+03	2.944388e+03	0	6.067426e-04
1.210000e+09	7.616204e+12	0.000000e+00	6.395347e-01	1.662614e+14	3.421135e+14	1.148528e+14	7.576646e+03	5.632643e+03	2.942803e+03	0	6.043438e-04
1.220000e+09	7.526435e+12	0.000000e+00	6.395347e-01	1.651339e+14	3.410228e+14	1.143638e+14	7.568409e+03	5.629581e+03	2.941203e+03	0	6.019600e-04
1.230000e+09	7.437920e+12	0.000000e+00	6.395347e-01	1.640216e+14	3.399252e+14	1.138780e+14	7.560228e+03	5.626493e+03	2.939590e+03	0	5.995910e-04
1.240000e+09	7.350634e+12	0.000000e+00	6.395347e-01	1.629241e+14	3.388215e+14	1.133955e+14	7.552102e+03	5.623379e+03	2.937963e+03	0	5.972363e-04
1.250000e+09	7.264550e+12	0.000000e+00	6.395347e-01	1.618411e+14	3.377120e+14	1.129161e+14	7.544030e+03	5.620242e+03	2.936324e+03	0	5.948957e-04
1.260000e+09	7.179644e+12	0.000000e+00	6.395347e-01	1.607723e+14	3.365972e+14	1.124399e+14	7.536012e+03	5.617082e+03	2.934673e+03	0	5.925689e-04
1.270000e+09	7.095890e+12	0.000000e+00	6.395347e-01	1.597175e+14	3.354776e+14	1.119668e+14	7.528047e+03	5.613901e+03	2.933011e+03	0	5.902557e-04
1.280000e+09	7.013266e+12	0.000000e+00	6.395347e-01	1.586763e+14	3.343535e+14	1.114969e+14	7.520133e+03	5.610699e+03	2.931338e+03	0	5.879558e-04
1.290000e+09	6.931747e+12	0.000000e+00	6.395347e-01	1.576485e+14	3.332256e+14	1.110300e+14	7.512272e+03	5.607477e+03	2.929655e+03	0	5.856689e-04
1.300000e+09	6.851311e+12	0.000000e+00	6.395347e-01	1.566339e+14	3.320939e+14	1.105662e+14	7.504460e+03	5.604238e+03	2.927962e+03	0	5.833947e-04
1.310000e+09	6.771937e+12	0.000000e+00	6.395347e-01	1.556320e+14	3.309590e+14	1.101054e+14	7.496700e+03	5.600981e+03	2.926261e+03	0	5.811330e-04
1.320000e+09	6.693603e+12	0.000000e+00	6.395347e-01	1.546428e+14	3.298214e+14	1.096477e+14	7.488988e+03	5.597708e+03	2.924551e+03	0	5.788836e-04
1.330000e+09	6.616288e+12	0.000000e+00	6.395347e-01	1.536659e+14	3.286813e+14	1.091929e+14	7.481326e+03	5.594419e+03	2.922833e+03	0	5.766461e-04
1.340000e+09	6.539971e+12	0.000000e+00	6.395347e-01	1.527011e+14	3.275391e+14	1.087412e+14	7.473711e+03	5.591116e+03	2.921107e+03	0	5.744204e-04
1.350000e+09	6.464634e+12	0.000000e+00	6.395347e-01	1.517481e+14	3.263950e+14	1.082923e+14	7.466145e+03	5.587799e+03	2.919374e+03	0	5.722062e-04
1.360000e+09	6.390256e+12	0.000000e+00	6.395347e-01	1.508068e+14	3.252495e+14	1.078464e+14	7.458626e+03	5.584469e+03	2.917634e+03	0	5.700032e-04
