#t		Qconv[W]	Ri[Rp]		R*[Rp]		Qc[W]		Qm[W]		Qr[W]		Tcmb[K]		Tl[K]		Tup[K]		RiFlag		Bs[T]
0.000000e+00	3.022917e+13	0.000000e+00	6.374268e-01	6.774530e+14	9.313656e+13	3.560473e+14	1.176080e+04	5.349932e+03	2.632372e+03	0	9.399725e-04
1.000000e+07	3.004949e+13	0.000000e+00	6.374268e-01	6.753191e+14	9.664552e+13	3.540745e+14	1.174481e+04	5.378223e+03	2.646292e+03	0	9.381064e-04
2.000000e+07	2.986346e+13	0.000000e+00	6.374268e-01	6.731314e+14	1.002254e+14	3.521165e+14	1.172887e+04	5.406284e+03	2.660099e+03	0	9.361665e-04
3.000000e+07	2.967122e+13	0.000000e+00	6.374268e-01	6.708912e+14	1.038752e+14	3.501731e+14	1.171297e+04	5.434110e+03	2.673791e+03	0	9.341535e-04
4.000000e+07	2.947293e+13	0.000000e+00	6.374268e-01	6.685999e+14	1.075937e+14	3.482443e+14	1.169714e+04	5.461699e+03	2.687366e+03	0	9.320679e-04
5.000000e+07	2.926873e+13	0.000000e+00	6.374268e-01	6.662587e+14	1.113798e+14	3.463298e+14	1.168135e+04	5.489049e+03	2.700823e+03	0	9.299103e-04
6.000000e+07	2.905877e+13	0.000000e+00	6.374268e-01	6.638691e+14	1.152321e+14	3.444296e+14	1.166562e+04	5.516154e+03	2.714160e+03	0	9.276814e-04
7.000000e+07	2.884321e+13	0.000000e+00	6.374268e-01	6.614324e+14	1.191492e+14	3.425435e+14	1.164995e+04	5.543013e+03	2.727375e+03	0	9.253818e-04
8.000000e+07	2.862219e+13	0.000000e+00	6.374268e-01	6.589500e+14	1.231297e+14	3.406715e+14	1.163433e+04	5.569623e+03	2.740468e+03	0	9.230120e-04
9.000000e+07	2.839587e+13	0.000000e+00	6.374268e-01	6.564233e+14	1.271719e+14	3.388134e+14	1.161878e+04	5.595981e+03	2.753437e+03	0	9.205729e-04
1.000000e+08	2.816442e+13	0.000000e+00	6.374268e-01	6.538538e+14	1.312743e+14	3.369691e+14	1.160328e+04	5.622083e+03	2.766281e+03	0	9.180648e-04
1.100000e+08	2.792799e+13	0.000000e+00	6.374268e-01	6.512427e+14	1.354349e+14	3.351384e+14	1.158784e+04	5.647928e+03	2.778997e+03	0	9.154886e-04
1.200000e+08	2.768673e+13	0.000000e+00	6.374268e-01	6.485917e+14	1.396522e+14	3.333214e+14	1.157246e+04	5.673513e+03	2.791586e+03	0	9.128449e-04
1.300000e+08	2.744082e+13	0.000000e+00	6.374268e-01	6.459021e+14	1.439240e+14	3.315178e+14	1.155715e+04	5.698835e+03	2.804046e+03	0	9.101343e-04
1.400000e+08	2.719042e+13	0.000000e+00	6.374268e-01	6.431754e+14	1.482485e+14	3.297275e+14	1.154190e+04	5.723892e+03	2.816375e+03	0	9.073574e-04
1.500000e+08	2.693568e+13	0.000000e+00	6.374268e-01	6.404130e+14	1.526235e+14	3.279505e+14	1.152672e+04	5.748682e+03	2.828572e+03	0	9.045149e-04
1.600000e+08	2.667677e+13	0.000000e+00	6.374268e-01	6.376165e+14	1.570471e+14	3.261866e+14	1.151160e+04	5.773202e+03	2.840637e+03	0	9.016075e-04
1.700000e+08	2.641386e+13	0.000000e+00	6.374268e-01	6.347871e+14	1.615169e+14	3.244357e+14	1.149654e+04	5.797451e+03	2.852568e+03	0	8.986358e-04
1.800000e+08	2.614710e+13	0.000000e+00	6.374268e-01	6.319266e+14	1.660308e+14	3.226977e+14	1.148155e+04	5.821426e+03	2.864365e+03	0	8.956004e-04
1.900000e+08	2.587667e+13	0.000000e+00	6.374268e-01	6.290362e+14	1.705864e+14	3.209725e+14	1.146663e+04	5.845125e+03	2.876026e+03	0	8.925020e-04
2.000000e+08	2.560273e+13	0.000000e+00	6.374268e-01	6.261174e+14	1.751815e+14	3.192601e+14	1.145178e+04	5.868548e+03	2.887551e+03	0	8.893414e-04
2.100000e+08	2.532543e+13	0.000000e+00	6.374268e-01	6.231718e+14	1.798136e+14	3.175602e+14	1.143700e+04	5.891691e+03	2.898938e+03	0	8.861190e-04
2.200000e+08	2.504495e+13	0.000000e+00	6.374268e-01	6.202007e+14	1.844802e+14	3.158728e+14	1.142229e+04	5.914555e+03	2.910188e+03	0	8.828355e-04
2.300000e+08	2.476144e+13	0.000000e+00	6.374268e-01	6.172056e+14	1.891790e+14	3.141977e+14	1.140764e+04	5.937137e+03	2.921299e+03	0	8.794917e-04
2.400000e+08	2.447507e+13	0.000000e+00	6.374268e-01	6.141879e+14	1.939074e+14	3.125350e+14	1.139307e+04	5.959436e+03	2.932271e+03	0	8.760881e-04
2.500000e+08	2.418600e+13	0.000000e+00	6.374268e-01	6.111491e+14	1.986628e+14	3.108844e+14	1.137857e+04	5.981450e+03	2.943103e+03	0	8.726253e-04
2.600000e+08	2.389439e+13	0.000000e+00	6.374268e-01	6.080905e+14	2.034427e+14	3.092460e+14	1.136414e+04	6.003180e+03	2.953795e+03	0	8.691039e-04
2.700000e+08	2.360039e+13	0.000000e+00	6.374268e-01	6.050136e+14	2.082445e+14	3.076195e+14	1.134978e+04	6.024623e+03	2.964346e+03	0	8.655247e-04
2.800000e+08	2.330416e+13	0.000000e+00	6.374268e-01	6.019198e+14	2.130655e+14	3.060048e+14	1.133549e+04	6.045780e+03	2.974756e+03	0	8.618881e-04
2.900000e+08	2.300585e+13	0.000000e+00	6.374268e-01	5.988103e+14	2.179033e+14	3.044020e+14	1.132128e+04	6.066649e+03	2.985024e+03	0	8.581948e-04
3.000000e+08	2.270563e+13	0.000000e+00	6.374268e-01	5.956866e+14	2.227550e+14	3.028109e+14	1.130714e+04	6.087230e+03	2.995151e+03	0	8.544453e-04
3.100000e+08	2.240363e+13	0.000000e+00	6.374268e-01	5.925500e+14	2.276182e+14	3.012313e+14	1.129307e+04	6.107522e+03	3.005135e+03	0	8.506402e-04
3.200000e+08	2.210002e+13	0.000000e+00	6.374268e-01	5.894018e+14	2.324901e+14	2.996632e+14	1.127908e+04	6.127525e+03	3.014977e+03	0	8.467801e-04
3.300000e+08	2.179493e+13	0.000000e+00	6.374268e-01	5.862433e+14	2.373682e+14	2.981066e+14	1.126517e+04	6.147239e+03	3.024677e+03	0	8.428654e-04
3.400000e+08	2.148851e+13	0.000000e+00	6.374268e-01	5.830758e+14	2.422498e+14	2.965612e+14	1.125132e+04	6.166663e+03	3.034235e+03	0	8.388968e-04
3.500000e+08	2.118090e+13	0.000000e+00	6.374268e-01	5.799006e+14	2.471323e+14	2.950270e+14	1.123755e+04	6.185798e+03	3.043650e+03	0	8.348746e-04
3.600000e+08	2.087225e+13	0.000000e+00	6.374268e-01	5.767188e+14	2.520131e+14	2.935040e+14	1.122386e+04	6.204644e+03	3.052923e+03	0	8.307994e-04
3.700000e+08	2.056269e+13	0.000000e+00	6.374268e-01	5.735316e+14	2.568897e+14	2.919920e+14	1.121024e+04	6.223201e+03	3.062054e+03	0	8.266717e-04
3.800000e+08	2.025235e+13	0.000000e+00	6.374268e-01	5.703404e+14	2.617595e+14	2.904910e+14	1.119670e+04	6.241469e+03	3.071042e+03	0	8.224918e-04
3.900000e+08	1.994137e+13	0.000000e+00	6.374268e-01	5.671461e+14	2.666200e+14	2.890007e+14	1.118323e+04	6.259449e+03	3.079889e+03	0	8.182602e-04
4.000000e+08	1.962988e+13	0.000000e+00	6.374268e-01	5.639500e+14	2.714687e+14	2.875213e+14	1.116984e+04	6.277142e+03	3.088595e+03	0	8.139773e-04
4.100000e+08	1.931799e+13	0.000000e+00	6.374268e-01	5.607532e+14	2.763032e+14	2.860525e+14	1.115652e+04	6.294547e+03	3.097159e+03	0	8.096434e-04
4.200000e+08	1.900585e+13	0.000000e+00	6.374268e-01	5.575566e+14	2.811210e+14	2.845943e+14	1.114328e+04	6.311666e+03	3.105582e+03	0	8.052588e-04
4.300000e+08	1.869356e+13	0.000000e+00	6.374268e-01	5.543615e+14	2.859198e+14	2.831467e+14	1.113011e+04	6.328500e+03	3.113865e+03	0	8.008240e-04
4.400000e+08	1.838124e+13	0.000000e+00	6.374268e-01	5.511688e+14	2.906972e+14	2.817094e+14	1.111702e+04	6.345049e+03	3.122008e+03	0	7.963390e-04
4.500000e+08	1.806900e+13	0.000000e+00	6.374268e-01	5.479794e+14	2.954510e+14	2.802824e+14	1.110400e+04	6.361315e+03	3.130011e+03	0	7.918043e-04
4.600000e+08	1.775697e+13	0.000000e+00	6.374268e-01	5.447944e+14	3.001790e+14	2.788657e+14	1.109106e+04	6.377299e+03	3.137876e+03	0	7.872199e-04
4.700000e+08	1.744524e+13	0.000000e+00	6.374268e-01	5.416148e+14	3.048789e+14	2.774592e+14	1.107820e+04	6.393002e+03	3.145602e+03	0	7.825860e-04
4.800000e+08	1.713392e+13	0.000000e+00	6.374268e-01	5.384413e+14	3.095486e+14	2.760627e+14	1.106541e+04	6.408425e+03	3.153191e+03	0	7.779028e-04
4.900000e+08	1.682311e+13	0.000000e+00	6.374268e-01	5.352750e+14	3.141861e+14	2.746763e+14	1.105269e+04	6.423571e+03	3.160643e+03	0	7.731703e-04
5.000000e+08	1.651291e+13	0.000000e+00	6.374268e-01	5.321166e+14	3.187894e+14	2.732997e+14	1.104005e+04	6.438439e+03	3.167959e+03	0	7.683886e-04
5.100000e+08	1.620341e+13	0.000000e+00	6.374268e-01	5.289669e+14	3.233565e+14	2.719330e+14	1.102748e+04	6.453032e+03	3.175140e+03	0	7.635577e-04
5.200000e+08	1.589471e+13	0.000000e+00	6.374268e-01	5.258269e+14	3.278856e+14	2.705760e+14	1.101499e+04	6.467353e+03	3.182186e+03	0	7.586776e-04
5.300000e+08	1.558689e+13	0.000000e+00	6.374268e-01	5.226971e+14	3.323747e+14	2.692288e+14	1.100257e+04	6.481401e+03	3.189098e+03	0	7.537480e-04
5.400000e+08	1.528003e+13	0.000000e+00	6.374268e-01	5.195784e+14	3.368221e+14	2.678911e+14	1.099022e+04	6.495180e+03	3.195878e+03	0	7.487690e-04
5.500000e+08	1.497423e+13	0.000000e+00	6.374268e-01	5.164715e+14	3.412263e+14	2.665629e+14	1.097795e+04	6.508691e+03	3.202526e+03	0	7.437402e-04
5.600000e+08	1.466955e+13	0.000000e+00	6.374268e-01	5.133770e+14	3.455853e+14	2.652442e+14	1.096576e+04	6.521936e+03	3.209043e+03	0	7.386614e-04
5.700000e+08	1.436608e+13	0.000000e+00	6.374268e-01	5.102956e+14	3.498979e+14	2.639348e+14	1.095363e+04	6.534917e+03	3.215430e+03	0	7.335323e-04
5.800000e+08	1.406389e+13	0.000000e+00	6.374268e-01	5.072280e+14	3.541624e+14	2.626347e+14	1.094158e+04	6.547636e+03	3.221688e+03	0	7.283524e-04
5.900000e+08	1.376304e+13	0.000000e+00	6.374268e-01	5.041746e+14	3.583775e+14	2.613439e+14	1.092960e+04	6.560096e+03	3.227819e+03	0	7.231213e-04
6.000000e+08	1.346360e+13	0.000000e+00	6.374268e-01	5.011361e+14	3.625417e+14	2.600622e+14	1.091769e+04	6.572299e+03	3.233823e+03	0	7.178386e-04
6.100000e+08	1.316563e+13	0.000000e+00	6.374268e-01	4.981131e+14	3.666538e+14	2.587895e+14	1.090585e+04	6.584246e+03	3.239702e+03	0	7.125035e-04
6.200000e+08	1.286920e+13	0.000000e+00	6.374268e-01	4.951059e+14	3.707125e+14	2.575259e+14	1.089409e+04	6.595941e+03	3.245456e+03	0	7.071153e-04
6.300000e+08	1.257435e+13	0.000000e+00	6.374268e-01	4.921152e+14	3.747168e+14	2.562711e+14	1.088239e+04	6.607385e+03	3.251087e+03	0	7.016734e-04
6.400000e+08	1.228116e+13	0.000000e+00	6.374268e-01	4.891413e+14	3.786654e+14	2.550252e+14	1.087077e+04	6.618581e+03	3.256596e+03	0	6.961767e-04
6.500000e+08	1.198965e+13	0.000000e+00	6.374268e-01	4.861847e+14	3.825575e+14	2.537881e+14	1.085922e+04	6.629532e+03	3.261984e+03	0	6.906245e-04
6.600000e+08	1.169989e+13	0.000000e+00	6.374268e-01	4.832458e+14	3.863919e+14	2.525597e+14	1.084773e+04	6.640240e+03	3.267253e+03	0	6.850155e-04
6.700000e+08	1.141192e+13	0.000000e+00	6.374268e-01	4.803250e+14	3.901680e+14	2.513399e+14	1.083632e+04	6.650707e+03	3.272403e+03	0	6.793486e-04
6.800000e+08	1.112579e+13	0.000000e+00	6.374268e-01	4.774227e+14	3.938847e+14	2.501287e+14	1.082497e+04	6.660937e+03	3.277437e+03	0	6.736226e-04
6.900000e+08	1.084152e+13	0.000000e+00	6.374268e-01	4.745392e+14	3.975415e+14	2.489260e+14	1.081370e+04	6.670931e+03	3.282354e+03	0	6.678360e-04
7.000000e+08	1.055916e+13	0.000000e+00	6.374268e-01	4.716747e+14	4.011374e+14	2.477317e+14	1.080249e+04	6.680693e+03	3.287157e+03	0	6.619872e-04
7.100000e+08	1.027875e+13	0.000000e+00	6.374268e-01	4.688297e+14	4.046720e+14	2.465458e+14	1.079135e+04	6.690225e+03	3.291847e+03	0	6.560746e-04
7.200000e+08	1.000032e+13	0.000000e+00	6.374268e-01	4.660043e+14	4.081448e+14	2.453682e+14	1.078027e+04	6.699529e+03	3.296426e+03	0	6.500964e-04
7.300000e+08	9.723896e+12	0.000000e+00	6.374268e-01	4.631988e+14	4.115551e+14	2.441988e+14	1.076926e+04	6.708609e+03	3.300893e+03	0	6.440504e-04
7.400000e+08	9.449507e+12	0.000000e+00	6.374268e-01	4.604135e+14	4.149025e+14	2.430376e+14	1.075832e+04	6.717468e+03	3.305252e+03	0	6.379346e-04
7.500000e+08	9.177179e+12	0.000000e+00	6.374268e-01	4.576485e+14	4.181867e+14	2.418844e+14	1.074745e+04	6.726107e+03	3.309503e+03	0	6.317465e-04
7.600000e+08	8.906936e+12	0.000000e+00	6.374268e-01	4.549041e+14	4.214072e+14	2.407393e+14	1.073664e+04	6.734530e+03	3.313647e+03	0	6.254835e-04
7.700000e+08	8.638799e+12	0.000000e+00	6.374268e-01	4.521803e+14	4.245639e+14	2.396022e+14	1.072589e+04	6.742740e+03	3.317687e+03	0	6.191429e-04
7.800000e+08	8.372787e+12	0.000000e+00	6.374268e-01	4.494774e+14	4.276565e+14	2.384730e+14	1.071521e+04	6.750739e+03	3.321623e+03	0	6.127215e-04
7.900000e+08	8.108918e+12	0.000000e+00	6.374268e-01	4.467955e+14	4.306849e+14	2.373516e+14	1.070459e+04	6.758530e+03	3.325456e+03	0	6.062160e-04
8.000000e+08	7.847207e+12	0.000000e+00	6.374268e-01	4.441347e+14	4.336488e+14	2.362380e+14	1.069404e+04	6.766116e+03	3.329189e+03	0	5.996228e-04
8.100000e+08	7.587667e+12	0.000000e+00	6.374268e-01	4.414951e+14	4.365482e+14	2.351321e+14	1.068354e+04	6.773500e+03	3.332822e+03	0	5.929378e-04
8.200000e+08	7.330309e+12	0.000000e+00	6.374268e-01	4.388768e+14	4.393832e+14	2.340338e+14	1.067311e+04	6.780685e+03	3.336357e+03	0	5.861569e-04
8.300000e+08	7.075144e+12	0.000000e+00	6.374268e-01	4.362798e+14	4.421538e+14	2.329432e+14	1.066275e+04	6.787673e+03	3.339795e+03	0	5.792751e-04
8.400000e+08	6.822180e+12	0.000000e+00	6.374268e-01	4.337043e+14	4.448599e+14	2.318601e+14	1.065244e+04	6.794467e+03	3.343138e+03	0	5.722874e-04
8.500000e+08	6.571424e+12	0.000000e+00	6.374268e-01	4.311502e+14	4.475017e+14	2.307844e+14	1.064219e+04	6.801070e+03	3.346387e+03	0	5.651880e-04
8.600000e+08	6.322880e+12	0.000000e+00	6.374268e-01	4.286175e+14	4.500794e+14	2.297162e+14	1.063201e+04	6.807485e+03	3.349544e+03	0	5.579707e-04
8.700000e+08	6.076552e+12	0.000000e+00	6.374268e-01	4.261064e+14	4.525932e+14	2.286553e+14	1.062188e+04	6.813714e+03	3.352609e+03	0	5.506287e-04
8.800000e+08	5.832442e+12	0.000000e+00	6.374268e-01	4.236168e+14	4.550434e+14	2.276017e+14	1.061182e+04	6.819761e+03	3.355584e+03	0	5.431543e-04
8.900000e+08	5.590551e+12	0.000000e+00	6.374268e-01	4.211486e+14	4.574301e+14	2.265554e+14	1.060181e+04	6.825629e+03	3.358471e+03	0	5.355392e-04
9.000000e+08	5.350878e+12	0.000000e+00	6.374268e-01	4.187019e+14	4.597536e+14	2.255162e+14	1.059186e+04	6.831319e+03	3.361271e+03	0	5.277741e-04
9.100000e+08	5.113422e+12	0.000000e+00	6.374268e-01	4.162766e+14	4.620144e+14	2.244842e+14	1.058197e+04	6.836835e+03	3.363985e+03	0	5.198487e-04
9.200000e+08	4.878179e+12	0.000000e+00	6.374268e-01	4.138727e+14	4.642127e+14	2.234592e+14	1.057213e+04	6.842180e+03	3.366615e+03	0	5.117513e-04
9.300000e+08	4.645146e+12	0.000000e+00	6.374268e-01	4.114901e+14	4.663492e+14	2.224413e+14	1.056235e+04	6.847356e+03	3.369162e+03	0	5.034691e-04
9.400000e+08	4.414316e+12	0.000000e+00	6.374268e-01	4.091288e+14	4.684240e+14	2.214303e+14	1.055263e+04	6.852365e+03	3.371627e+03	0	4.949875e-04
9.500000e+08	4.185685e+12	0.000000e+00	6.374268e-01	4.067887e+14	4.704375e+14	2.204262e+14	1.054297e+04	6.857212e+03	3.374011e+03	0	4.862899e-04
9.600000e+08	3.959245e+12	0.000000e+00	6.374268e-01	4.044697e+14	4.723905e+14	2.194289e+14	1.053335e+04	6.861898e+03	3.376317e+03	0	4.773576e-04
9.700000e+08	3.734987e+12	0.000000e+00	6.374268e-01	4.021717e+14	4.742834e+14	2.184385e+14	1.052380e+04	6.866426e+03	3.378545e+03	0	4.681692e-04
9.800000e+08	3.512903e+12	0.000000e+00	6.374268e-01	3.998946e+14	4.761167e+14	2.174548e+14	1.051430e+04	6.870798e+03	3.380696e+03	0	4.586997e-04
9.900000e+08	3.292983e+12	0.000000e+00	6.374268e-01	3.976383e+14	4.778910e+14	2.164777e+14	1.050485e+04	6.875018e+03	3.382773e+03	0	4.489207e-04
1.000000e+09	3.075216e+12	0.000000e+00	6.374268e-01	3.954028e+14	4.796067e+14	2.155073e+14	1.049545e+04	6.879088e+03	3.384775e+03	0	4.387983e-04
1.010000e+09	2.859591e+12	0.000000e+00	6.374268e-01	3.931879e+14	4.812646e+14	2.145435e+14	1.048611e+04	6.883010e+03	3.386705e+03	0	4.282931e-04
1.020000e+09	2.646096e+12	0.000000e+00	6.374268e-01	3.909934e+14	4.828652e+14	2.135862e+14	1.047682e+04	6.886787e+03	3.388564e+03	0	4.173576e-04
1.030000e+09	2.434718e+12	0.000000e+00	6.374268e-01	3.888193e+14	4.844092e+14	2.126354e+14	1.046758e+04	6.890422e+03	3.390352e+03	0	4.059345e-04
1.040000e+09	2.225443e+12	0.000000e+00	6.374268e-01	3.866654e+14	4.858972e+14	2.116910e+14	1.045839e+04	6.893917e+03	3.392072e+03	0	3.939538e-04
1.050000e+09	2.018259e+12	0.000000e+00	6.374268e-01	3.845315e+14	4.873299e+14	2.107530e+14	1.044926e+04	6.897274e+03	3.393724e+03	0	3.813280e-04
1.060000e+09	1.813150e+12	0.000000e+00	6.374268e-01	3.824176e+14	4.887079e+14	2.098213e+14	1.044017e+04	6.900497e+03	3.395309e+03	0	3.679462e-04
1.070000e+09	1.610101e+12	0.000000e+00	6.374268e-01	3.803235e+14	4.900319e+14	2.088959e+14	1.043114e+04	6.903586e+03	3.396829e+03	0	3.536640e-04
1.080000e+09	1.409098e+12	0.000000e+00	6.374268e-01	3.782490e+14	4.913028e+14	2.079768e+14	1.042215e+04	6.906546e+03	3.398286e+03	0	3.382882e-04
1.090000e+09	1.210125e+12	0.000000e+00	6.374268e-01	3.761940e+14	4.925210e+14	2.070638e+14	1.041321e+04	6.909378e+03	3.399679e+03	0	3.215510e-04
1.100000e+09	1.013165e+12	0.000000e+00	6.374268e-01	3.741583e+14	4.936872e+14	2.061569e+14	1.040432e+04	6.912084e+03	3.401011e+03	0	3.030631e-04
1.110000e+09	8.182011e+11	0.000000e+00	6.374268e-01	3.721417e+14	4.948024e+14	2.052561e+14	1.039548e+04	6.914668e+03	3.402282e+03	0	2.822235e-04
1.120000e+09	6.252175e+11	0.000000e+00	6.374268e-01	3.701442e+14	4.958672e+14	2.043613e+14	1.038669e+04	6.917130e+03	3.403494e+03	0	2.580181e-04
1.130000e+09	4.341967e+11	0.000000e+00	6.374268e-01	3.681655e+14	4.968823e+14	2.034726e+14	1.037794e+04	6.919474e+03	3.404647e+03	0	2.284907e-04
1.140000e+09	2.451212e+11	0.000000e+00	6.374268e-01	3.662054e+14	4.978484e+14	2.025898e+14	1.036924e+04	6.921702e+03	3.405743e+03	0	1.888426e-04
1.150000e+09	5.797328e+10	0.000000e+00	6.374268e-01	3.642639e+14	4.987664e+14	2.017128e+14	1.036059e+04	6.923815e+03	3.406783e+03	0	1.167837e-04
1.160000e+09	-1.272649e+11	0.000000e+00	6.374268e-01	3.623407e+14	4.996369e+14	2.008418e+14	1.035198e+04	6.925817e+03	3.407768e+03	0	nan
