#t		Qconv[W]	Ri[Rp]		R*[Rp]		Qc[W]		Qm[W]		Qr[W]		Tcmb[K]		Tl[K]		Tup[K]		RiFlag		Bs[T]
0.000000e+00	4.981937e+12	4.978737e-01	7.587940e-01	9.477719e+12	1.010267e+15	7.624648e+13	3.872796e+03	2.896625e+03	2.029149e+03	0	3.846533e-04
1.000000e+08	5.138960e+12	4.989020e-01	7.587940e-01	9.729637e+12	8.385818e+14	7.216093e+13	3.872524e+03	2.794670e+03	1.957728e+03	1	3.884583e-04
2.000000e+08	4.734468e+12	4.998492e-01	7.587940e-01	8.979999e+12	2.935687e+14	6.836860e+13	3.869754e+03	2.296373e+03	1.608659e+03	1	3.778124e-04
3.000000e+08	4.255303e+12	5.007023e-01	7.587940e-01	8.103103e+12	1.771950e+14	6.484605e+13	3.867207e+03	2.114543e+03	1.481284e+03	1	3.644594e-04
4.000000e+08	3.956686e+12	5.014960e-01	7.587940e-01	7.553047e+12	1.301584e+14	6.157184e+13	3.864916e+03	2.017925e+03	1.413600e+03	1	3.555892e-04
5.000000e+08	3.760468e+12	5.022502e-01	7.587940e-01	7.188164e+12	1.055461e+14	5.852633e+13	3.862788e+03	1.958232e+03	1.371784e+03	1	3.494830e-04
6.000000e+08	3.596154e+12	5.029603e-01	7.587940e-01	6.929746e+12	9.059284e+13	5.569155e+13	3.860768e+03	1.917847e+03	1.343494e+03	1	3.441980e-04
7.000000e+08	3.495190e+12	5.036597e-01	7.587940e-01	6.735787e+12	8.055310e+13	5.305102e+13	3.858790e+03	1.888705e+03	1.323079e+03	1	3.408303e-04
8.000000e+08	3.417032e+12	5.043423e-01	7.587940e-01	6.583487e+12	7.330319e+13	5.058966e+13	3.856872e+03	1.866586e+03	1.307584e+03	1	3.381585e-04
9.000000e+08	3.354094e+12	5.050111e-01	7.587940e-01	6.459058e+12	6.776758e+13	4.829364e+13	3.855003e+03	1.849081e+03	1.295322e+03	1	3.359603e-04
1.000000e+09	3.301667e+12	5.056682e-01	7.587940e-01	6.353949e+12	6.335157e+13	4.615026e+13	3.853174e+03	1.834729e+03	1.285268e+03	1	3.340940e-04
1.100000e+09	3.256724e+12	5.063151e-01	7.587940e-01	6.262657e+12	5.970396e+13	4.414789e+13	3.851380e+03	1.822602e+03	1.276773e+03	1	3.324667e-04
1.200000e+09	3.217252e+12	5.069527e-01	7.587940e-01	6.181528e+12	5.660641e+13	4.227584e+13	3.849617e+03	1.812091e+03	1.269410e+03	1	3.310156e-04
1.300000e+09	3.158809e+12	5.075792e-01	7.587940e-01	6.108078e+12	5.391738e+13	4.052432e+13	3.847881e+03	1.802785e+03	1.262890e+03	1	3.288990e-04
1.400000e+09	3.126699e+12	5.081962e-01	7.587940e-01	6.040234e+12	5.154166e+13	3.888430e+13	3.846138e+03	1.794399e+03	1.257016e+03	1	3.276826e-04
1.500000e+09	3.097057e+12	5.088059e-01	7.587940e-01	5.977124e+12	4.941348e+13	3.734750e+13	3.844418e+03	1.786731e+03	1.251644e+03	1	3.265472e-04
1.600000e+09	3.069400e+12	5.094089e-01	7.587940e-01	5.917860e+12	4.748591e+13	3.590633e+13	3.842721e+03	1.779638e+03	1.246675e+03	1	3.254771e-04
1.700000e+09	3.043383e+12	5.100055e-01	7.587940e-01	5.861792e+12	4.572466e+13	3.455378e+13	3.841045e+03	1.773014e+03	1.242035e+03	1	3.244610e-04
1.800000e+09	3.018735e+12	5.105959e-01	7.587940e-01	5.808433e+12	4.410400e+13	3.328340e+13	3.839389e+03	1.766782e+03	1.237669e+03	1	3.234901e-04
1.900000e+09	2.995261e+12	5.111805e-01	7.587940e-01	5.757415e+12	4.260423e+13	3.208927e+13	3.837752e+03	1.760881e+03	1.233536e+03	1	3.225580e-04
2.000000e+09	2.972808e+12	5.117594e-01	7.587940e-01	5.708451e+12	4.120991e+13	3.096592e+13	3.836133e+03	1.755269e+03	1.229604e+03	1	3.216597e-04
2.100000e+09	2.951259e+12	5.123329e-01	7.587940e-01	5.661320e+12	3.990869e+13	2.990834e+13	3.834532e+03	1.749908e+03	1.225849e+03	1	3.207915e-04
2.200000e+09	2.909824e+12	5.128889e-01	7.587940e-01	5.615844e+12	3.869052e+13	2.891187e+13	3.832949e+03	1.744773e+03	1.222252e+03	1	3.191971e-04
2.300000e+09	2.889849e+12	5.134481e-01	7.587940e-01	5.571585e+12	3.754694e+13	2.797224e+13	3.831352e+03	1.739840e+03	1.218796e+03	1	3.183788e-04
2.400000e+09	2.870543e+12	5.140022e-01	7.587940e-01	5.528723e+12	3.647102e+13	2.708550e+13	3.829771e+03	1.735092e+03	1.215470e+03	1	3.175830e-04
2.500000e+09	2.851857e+12	5.145517e-01	7.587940e-01	5.487157e+12	3.545677e+13	2.624801e+13	3.828206e+03	1.730514e+03	1.212263e+03	1	3.168081e-04
2.600000e+09	2.833746e+12	5.150964e-01	7.587940e-01	5.446805e+12	3.449899e+13	2.545641e+13	3.826656e+03	1.726094e+03	1.209167e+03	1	3.160526e-04
2.700000e+09	2.816175e+12	5.156366e-01	7.587940e-01	5.407592e+12	3.359317e+13	2.470757e+13	3.825122e+03	1.721821e+03	1.206173e+03	1	3.153156e-04
2.800000e+09	2.799111e+12	5.161725e-01	7.587940e-01	5.369454e+12	3.273530e+13	2.399864e+13	3.823601e+03	1.717686e+03	1.203277e+03	1	3.145959e-04
2.900000e+09	2.782527e+12	5.167040e-01	7.587940e-01	5.332336e+12	3.192183e+13	2.332694e+13	3.822095e+03	1.713681e+03	1.200471e+03	1	3.138926e-04
3.000000e+09	2.766400e+12	5.172314e-01	7.587940e-01	5.296186e+12	3.114956e+13	2.269002e+13	3.820603e+03	1.709799e+03	1.197752e+03	1	3.132051e-04
3.100000e+09	2.731493e+12	5.177524e-01	7.587940e-01	5.260959e+12	3.041562e+13	2.208560e+13	3.819125e+03	1.706034e+03	1.195114e+03	1	3.118036e-04
3.200000e+09	2.716223e+12	5.182681e-01	7.587940e-01	5.226351e+12	2.971731e+13	2.151156e+13	3.817631e+03	1.702381e+03	1.192555e+03	1	3.111438e-04
3.300000e+09	2.701342e+12	5.187799e-01	7.587940e-01	5.192591e+12	2.905233e+13	2.096594e+13	3.816150e+03	1.698833e+03	1.190070e+03	1	3.104977e-04
3.400000e+09	2.686838e+12	5.192879e-01	7.587940e-01	5.159642e+12	2.841851e+13	2.044694e+13	3.814682e+03	1.695387e+03	1.187655e+03	1	3.098649e-04
3.500000e+09	2.672693e+12	5.197923e-01	7.587940e-01	5.127470e+12	2.781387e+13	1.995287e+13	3.813227e+03	1.692037e+03	1.185309e+03	1	3.092448e-04
3.600000e+09	2.658895e+12	5.202930e-01	7.587940e-01	5.096046e+12	2.723659e+13	1.948216e+13	3.811783e+03	1.688780e+03	1.183028e+03	1	3.086370e-04
3.700000e+09	2.645428e+12	5.207902e-01	7.587940e-01	5.065339e+12	2.668499e+13	1.903336e+13	3.810352e+03	1.685612e+03	1.180808e+03	1	3.080411e-04
3.800000e+09	2.632280e+12	5.212839e-01	7.587940e-01	5.035322e+12	2.615751e+13	1.860513e+13	3.808932e+03	1.682530e+03	1.178649e+03	1	3.074566e-04
3.900000e+09	2.619439e+12	5.217742e-01	7.587940e-01	5.005969e+12	2.565270e+13	1.819620e+13	3.807524e+03	1.679529e+03	1.176547e+03	1	3.068831e-04
4.000000e+09	2.606893e+12	5.222612e-01	7.587940e-01	4.977256e+12	2.516925e+13	1.780541e+13	3.806126e+03	1.676608e+03	1.174501e+03	1	3.063203e-04
4.100000e+09	2.577467e+12	5.227430e-01	7.587940e-01	4.949159e+12	2.470591e+13	1.743167e+13	3.804740e+03	1.673762e+03	1.172507e+03	1	3.050924e-04
4.200000e+09	2.565474e+12	5.232204e-01	7.587940e-01	4.921430e+12	2.426144e+13	1.707397e+13	3.803339e+03	1.670989e+03	1.170565e+03	1	3.045483e-04
4.300000e+09	2.553744e+12	5.236947e-01	7.587940e-01	4.894277e+12	2.383484e+13	1.673136e+13	3.801948e+03	1.668287e+03	1.168671e+03	1	3.040138e-04
4.400000e+09	2.542267e+12	5.241660e-01	7.587940e-01	4.867678e+12	2.342512e+13	1.640297e+13	3.800568e+03	1.665651e+03	1.166825e+03	1	3.034887e-04
4.500000e+09	2.531034e+12	5.246343e-01	7.587940e-01	4.841615e+12	2.303134e+13	1.608798e+13	3.799198e+03	1.663081e+03	1.165025e+03	1	3.029725e-04
4.600000e+09	2.520036e+12	5.250996e-01	7.587940e-01	4.816069e+12	2.265263e+13	1.578562e+13	3.797839e+03	1.660573e+03	1.163268e+03	1	3.024652e-04
4.700000e+09	2.509265e+12	5.255621e-01	7.587940e-01	4.791023e+12	2.228819e+13	1.549518e+13	3.796489e+03	1.658125e+03	1.161553e+03	1	3.019663e-04
4.800000e+09	2.498713e+12	5.260217e-01	7.587940e-01	4.766458e+12	2.193724e+13	1.521598e+13	3.795148e+03	1.655736e+03	1.159879e+03	1	3.014756e-04
4.900000e+09	2.488373e+12	5.264786e-01	7.587940e-01	4.742360e+12	2.159909e+13	1.494741e+13	3.793818e+03	1.653403e+03	1.158245e+03	1	3.009928e-04
5.000000e+09	2.478237e+12	5.269327e-01	7.587940e-01	4.718712e+12	2.127306e+13	1.468888e+13	3.792496e+03	1.651123e+03	1.156648e+03	1	3.005177e-04
5.100000e+09	2.468297e+12	5.273842e-01	7.587940e-01	4.695499e+12	2.095853e+13	1.443984e+13	3.791184e+03	1.648896e+03	1.155088e+03	1	3.000501e-04
5.200000e+09	2.442421e+12	5.278312e-01	7.587940e-01	4.672706e+12	2.065492e+13	1.419979e+13	3.789881e+03	1.646718e+03	1.153562e+03	1	2.989335e-04
5.300000e+09	2.432842e+12	5.282745e-01	7.587940e-01	4.650116e+12	2.036158e+13	1.396824e+13	3.788562e+03	1.644590e+03	1.152071e+03	1	2.984784e-04
5.400000e+09	2.423439e+12	5.287153e-01	7.587940e-01	4.627921e+12	2.007808e+13	1.374475e+13	3.787252e+03	1.642507e+03	1.150612e+03	1	2.980301e-04
5.500000e+09	2.414208e+12	5.291537e-01	7.587940e-01	4.606110e+12	1.980391e+13	1.352889e+13	3.785950e+03	1.640470e+03	1.149185e+03	1	2.975883e-04
5.600000e+09	2.405141e+12	5.295895e-01	7.587940e-01	4.584670e+12	1.953864e+13	1.332028e+13	3.784658e+03	1.638476e+03	1.147788e+03	1	2.971529e-04
5.700000e+09	2.396235e+12	5.300230e-01	7.587940e-01	4.563589e+12	1.928182e+13	1.311854e+13	3.783373e+03	1.636524e+03	1.146421e+03	1	2.967237e-04
5.800000e+09	2.387483e+12	5.304541e-01	7.587940e-01	4.542856e+12	1.903306e+13	1.292332e+13	3.782097e+03	1.634612e+03	1.145081e+03	1	2.963005e-04
5.900000e+09	2.378880e+12	5.308828e-01	7.587940e-01	4.522460e+12	1.879197e+13	1.273430e+13	3.780829e+03	1.632739e+03	1.143769e+03	1	2.958831e-04
6.000000e+09	2.370421e+12	5.313092e-01	7.587940e-01	4.502391e+12	1.855819e+13	1.255117e+13	3.779569e+03	1.630904e+03	1.142484e+03	1	2.954713e-04
6.100000e+09	2.362103e+12	5.317334e-01	7.587940e-01	4.482638e+12	1.833138e+13	1.237365e+13	3.778318e+03	1.629105e+03	1.141224e+03	1	2.950650e-04
6.200000e+09	2.353919e+12	5.321553e-01	7.587940e-01	4.463193e+12	1.811123e+13	1.220146e+13	3.777073e+03	1.627341e+03	1.139988e+03	1	2.946641e-04
6.300000e+09	2.345867e+12	5.325750e-01	7.587940e-01	4.444045e+12	1.789742e+13	1.203434e+13	3.775837e+03	1.625611e+03	1.138776e+03	1	2.942682e-04
6.400000e+09	2.322709e+12	5.329839e-01	7.587940e-01	4.425186e+12	1.768968e+13	1.187206e+13	3.774608e+03	1.623914e+03	1.137587e+03	1	2.932390e-04
6.500000e+09	2.314886e+12	5.333966e-01	7.587940e-01	4.406419e+12	1.748766e+13	1.171439e+13	3.773363e+03	1.622248e+03	1.136420e+03	1	2.928513e-04
6.600000e+09	2.307182e+12	5.338073e-01	7.587940e-01	4.387925e+12	1.729117e+13	1.156112e+13	3.772125e+03	1.620613e+03	1.135275e+03	1	2.924683e-04
6.700000e+09	2.299592e+12	5.342159e-01	7.587940e-01	4.369697e+12	1.709997e+13	1.141205e+13	3.770895e+03	1.619007e+03	1.134150e+03	1	2.920898e-04
6.800000e+09	2.292114e+12	5.346224e-01	7.587940e-01	4.351727e+12	1.691383e+13	1.126698e+13	3.769672e+03	1.617429e+03	1.133045e+03	1	2.917158e-04
6.900000e+09	2.284743e+12	5.350269e-01	7.587940e-01	4.334008e+12	1.673253e+13	1.112574e+13	3.768456e+03	1.615879e+03	1.131959e+03	1	2.913461e-04
7.000000e+09	2.277477e+12	5.354294e-01	7.587940e-01	4.316533e+12	1.655588e+13	1.098816e+13	3.767248e+03	1.614356e+03	1.130892e+03	1	2.909806e-04
7.100000e+09	2.270313e+12	5.358299e-01	7.587940e-01	4.299295e+12	1.638367e+13	1.085408e+13	3.766046e+03	1.612858e+03	1.129842e+03	1	2.906192e-04
7.200000e+09	2.263247e+12	5.362285e-01	7.587940e-01	4.282287e+12	1.621572e+13	1.072334e+13	3.764851e+03	1.611385e+03	1.128811e+03	1	2.902618e-04
7.300000e+09	2.256276e+12	5.366252e-01	7.587940e-01	4.265503e+12	1.605187e+13	1.059582e+13	3.763663e+03	1.609936e+03	1.127796e+03	1	2.899082e-04
7.400000e+09	2.249398e+12	5.370200e-01	7.587940e-01	4.248937e+12	1.589194e+13	1.047137e+13	3.762482e+03	1.608510e+03	1.126797e+03	1	2.895584e-04
7.500000e+09	2.242610e+12	5.374129e-01	7.587940e-01	4.232583e+12	1.573577e+13	1.034986e+13	3.761307e+03	1.607107e+03	1.125814e+03	1	2.892122e-04
7.600000e+09	2.221889e+12	5.378024e-01	7.587940e-01	4.216436e+12	1.558323e+13	1.023118e+13	3.760139e+03	1.605725e+03	1.124846e+03	1	2.882648e-04
7.700000e+09	2.215251e+12	5.381892e-01	7.587940e-01	4.200320e+12	1.543410e+13	1.011520e+13	3.758955e+03	1.604365e+03	1.123893e+03	1	2.879240e-04
7.800000e+09	2.208695e+12	5.385743e-01	7.587940e-01	4.184400e+12	1.528831e+13	1.000183e+13	3.757778e+03	1.603025e+03	1.122954e+03	1	2.875865e-04
7.900000e+09	2.202219e+12	5.389575e-01	7.587940e-01	4.168673e+12	1.514572e+13	9.890966e+12	3.756607e+03	1.601704e+03	1.122029e+03	1	2.872523e-04
8.000000e+09	2.195820e+12	5.393390e-01	7.587940e-01	4.153134e+12	1.500623e+13	9.782500e+12	3.755443e+03	1.600403e+03	1.121117e+03	1	2.869212e-04
8.100000e+09	2.189497e+12	5.397188e-01	7.587940e-01	4.137776e+12	1.486970e+13	9.676346e+12	3.754284e+03	1.599120e+03	1.120218e+03	1	2.865933e-04
8.200000e+09	2.183247e+12	5.400968e-01	7.587940e-01	4.122597e+12	1.473604e+13	9.572415e+12	3.753132e+03	1.597854e+03	1.119332e+03	1	2.862684e-04
8.300000e+09	2.177069e+12	5.404732e-01	7.587940e-01	4.107592e+12	1.460513e+13	9.470626e+12	3.751987e+03	1.596606e+03	1.118458e+03	1	2.859465e-04
8.400000e+09	2.170960e+12	5.408478e-01	7.587940e-01	4.092755e+12	1.447689e+13	9.370899e+12	3.750847e+03	1.595375e+03	1.117595e+03	1	2.856274e-04
8.500000e+09	2.164919e+12	5.412208e-01	7.587940e-01	4.078085e+12	1.435121e+13	9.273160e+12	3.749713e+03	1.594160e+03	1.116744e+03	1	2.853112e-04
8.600000e+09	2.158944e+12	5.415921e-01	7.587940e-01	4.063576e+12	1.422801e+13	9.177337e+12	3.748585e+03	1.592961e+03	1.115904e+03	1	2.849977e-04
8.700000e+09	2.153033e+12	5.419618e-01	7.587940e-01	4.049224e+12	1.410720e+13	9.083364e+12	3.747463e+03	1.591777e+03	1.115075e+03	1	2.846869e-04
8.800000e+09	2.147185e+12	5.423299e-01	7.587940e-01	4.035027e+12	1.398869e+13	8.991176e+12	3.746346e+03	1.590608e+03	1.114256e+03	1	2.843787e-04
8.900000e+09	2.141397e+12	5.426964e-01	7.587940e-01	4.020980e+12	1.387242e+13	8.900712e+12	3.745236e+03	1.589454e+03	1.113447e+03	1	2.840730e-04
9.000000e+09	2.123034e+12	5.430541e-01	7.587940e-01	4.007080e+12	1.375829e+13	8.811914e+12	3.744131e+03	1.588313e+03	1.112648e+03	1	2.832101e-04
9.100000e+09	2.117342e+12	5.434154e-01	7.587940e-01	3.993174e+12	1.364620e+13	8.724726e+12	3.743011e+03	1.587186e+03	1.111859e+03	1	2.829078e-04
9.200000e+09	2.111707e+12	5.437751e-01	7.587940e-01	3.979410e+12	1.353612e+13	8.639096e+12	3.741897e+03	1.586072e+03	1.111079e+03	1	2.826078e-04
9.300000e+09	2.106126e+12	5.441333e-01	7.587940e-01	3.965785e+12	1.342798e+13	8.554973e+12	3.740789e+03	1.584971e+03	1.110307e+03	1	2.823102e-04
9.400000e+09	2.100600e+12	5.444900e-01	7.587940e-01	3.952295e+12	1.332173e+13	8.472310e+12	3.739686e+03	1.583883e+03	1.109545e+03	1	2.820148e-04
9.500000e+09	2.095126e+12	5.448451e-01	7.587940e-01	3.938939e+12	1.321729e+13	8.391060e+12	3.738589e+03	1.582806e+03	1.108790e+03	1	2.817217e-04
9.600000e+09	2.089703e+12	5.451988e-01	7.587940e-01	3.925712e+12	1.311463e+13	8.311180e+12	3.737497e+03	1.581741e+03	1.108044e+03	1	2.814308e-04
9.700000e+09	2.084330e+12	5.455510e-01	7.587940e-01	3.912613e+12	1.301368e+13	8.232629e+12	3.736410e+03	1.580687e+03	1.107306e+03	1	2.811419e-04
9.800000e+09	2.079007e+12	5.459017e-01	7.587940e-01	3.899639e+12	1.291439e+13	8.155367e+12	3.735329e+03	1.579645e+03	1.106576e+03	1	2.808552e-04
9.900000e+09	2.073731e+12	5.462510e-01	7.587940e-01	3.886787e+12	1.281671e+13	8.079355e+12	3.734253e+03	1.578613e+03	1.105853e+03	1	2.805705e-04
1.000000e+10	2.068502e+12	5.465989e-01	7.587940e-01	3.874055e+12	1.272060e+13	8.004557e+12	3.733182e+03	1.577592e+03	1.105138e+03	1	2.802878e-04
