#t		Qconv[W]	Ri[Rp]		R*[Rp]		Qc[W]		Qm[W]		Qr[W]		Tcmb[K]		Tl[K]		Tup[K]		RiFlag		Bs[T]
0.000000e+00	5.773371e+13	0.000000e+00	8.410596e-01	9.069809e+14	5.589925e+13	3.536910e+13	8.988621e+03	3.560939e+03	2.079409e+03	0	1.073859e-03
1.000000e+07	5.588852e+13	0.000000e+00	8.410596e-01	8.785275e+14	8.370326e+13	3.517313e+13	8.914717e+03	3.803343e+03	2.220961e+03	0	1.062295e-03
2.000000e+07	5.380181e+13	0.000000e+00	8.410596e-01	8.463796e+14	1.177943e+14	3.497863e+13	8.843117e+03	4.029194e+03	2.352847e+03	0	1.048906e-03
3.000000e+07	5.156598e+13	0.000000e+00	8.410596e-01	8.119537e+14	1.570639e+14	3.478557e+13	8.774124e+03	4.235860e+03	2.473529e+03	0	1.034170e-03
4.000000e+07	4.927089e+13	0.000000e+00	8.410596e-01	7.766270e+14	1.998073e+14	3.459396e+13	8.707921e+03	4.421494e+03	2.581930e+03	0	1.018594e-03
5.000000e+07	4.699555e+13	0.000000e+00	8.410596e-01	7.416099e+14	2.440000e+14	3.440378e+13	8.644584e+03	4.585160e+03	2.677503e+03	0	1.002666e-03
6.000000e+07	4.480253e+13	0.000000e+00	8.410596e-01	7.078612e+14	2.876128e+14	3.421502e+13	8.584089e+03	4.726824e+03	2.760227e+03	0	9.868209e-04
7.000000e+07	4.273577e+13	0.000000e+00	8.410596e-01	6.760535e+14	3.288789e+14	3.402766e+13	8.526333e+03	4.847249e+03	2.830550e+03	0	9.714072e-04
8.000000e+07	4.082127e+13	0.000000e+00	8.410596e-01	6.465851e+14	3.664627e+14	3.384170e+13	8.471159e+03	4.947822e+03	2.889279e+03	0	9.566792e-04
9.000000e+07	3.906993e+13	0.000000e+00	8.410596e-01	6.196222e+14	3.995176e+14	3.365711e+13	8.418378e+03	5.030340e+03	2.937465e+03	0	9.427974e-04
1.000000e+08	3.748118e+13	0.000000e+00	8.410596e-01	5.951558e+14	4.276541e+14	3.347390e+13	8.367788e+03	5.096819e+03	2.976286e+03	0	9.298407e-04
1.100000e+08	3.604673e+13	0.000000e+00	8.410596e-01	5.730581e+14	4.508544e+14	3.329205e+13	8.319185e+03	5.149326e+03	3.006948e+03	0	9.178240e-04
1.200000e+08	3.475374e+13	0.000000e+00	8.410596e-01	5.531323e+14	4.693671e+14	3.311155e+13	8.272377e+03	5.189861e+03	3.030618e+03	0	9.067161e-04
1.300000e+08	3.358731e+13	0.000000e+00	8.410596e-01	5.351493e+14	4.836069e+14	3.293238e+13	8.227189e+03	5.220273e+03	3.048377e+03	0	8.964565e-04
1.400000e+08	3.253215e+13	0.000000e+00	8.410596e-01	5.188746e+14	4.940723e+14	3.275454e+13	8.183462e+03	5.242221e+03	3.061193e+03	0	8.869689e-04
1.500000e+08	3.157364e+13	0.000000e+00	8.410596e-01	5.040841e+14	5.012843e+14	3.257801e+13	8.141057e+03	5.257154e+03	3.069914e+03	0	8.781709e-04
1.600000e+08	3.069848e+13	0.000000e+00	8.410596e-01	4.905733e+14	5.057472e+14	3.240279e+13	8.099855e+03	5.266319e+03	3.075265e+03	0	8.699810e-04
1.700000e+08	2.989487e+13	0.000000e+00	8.410596e-01	4.781616e+14	5.079244e+14	3.222886e+13	8.059751e+03	5.270769e+03	3.077864e+03	0	8.623225e-04
1.800000e+08	2.915262e+13	0.000000e+00	8.410596e-01	4.666924e+14	5.082268e+14	3.205621e+13	8.020655e+03	5.271386e+03	3.078224e+03	0	8.551258e-04
1.900000e+08	2.846303e+13	0.000000e+00	8.410596e-01	4.560324e+14	5.070106e+14	3.188484e+13	7.982492e+03	5.268903e+03	3.076774e+03	0	8.483295e-04
2.000000e+08	2.781877e+13	0.000000e+00	8.410596e-01	4.460689e+14	5.045779e+14	3.171472e+13	7.945196e+03	5.263923e+03	3.073866e+03	0	8.418799e-04
2.100000e+08	2.721369e+13	0.000000e+00	8.410596e-01	4.367076e+14	5.011814e+14	3.154586e+13	7.908709e+03	5.256942e+03	3.069790e+03	0	8.357312e-04
2.200000e+08	2.664265e+13	0.000000e+00	8.410596e-01	4.278698e+14	4.970310e+14	3.137824e+13	7.872984e+03	5.248366e+03	3.064782e+03	0	8.298443e-04
2.300000e+08	2.610139e+13	0.000000e+00	8.410596e-01	4.194900e+14	4.922984e+14	3.121184e+13	7.837977e+03	5.238524e+03	3.059035e+03	0	8.241862e-04
2.400000e+08	2.558635e+13	0.000000e+00	8.410596e-01	4.115136e+14	4.871241e+14	3.104667e+13	7.803652e+03	5.227687e+03	3.052706e+03	0	8.187291e-04
2.500000e+08	2.509457e+13	0.000000e+00	8.410596e-01	4.038952e+14	4.816218e+14	3.088271e+13	7.769976e+03	5.216072e+03	3.045924e+03	0	8.134497e-04
2.600000e+08	2.462358e+13	0.000000e+00	8.410596e-01	3.965968e+14	4.758833e+14	3.071994e+13	7.736919e+03	5.203858e+03	3.038791e+03	0	8.083284e-04
2.700000e+08	2.417130e+13	0.000000e+00	8.410596e-01	3.895866e+14	4.699825e+14	3.055837e+13	7.704456e+03	5.191189e+03	3.031393e+03	0	8.033488e-04
2.800000e+08	2.373599e+13	0.000000e+00	8.410596e-01	3.828379e+14	4.639785e+14	3.039797e+13	7.672563e+03	5.178182e+03	3.023798e+03	0	7.984970e-04
2.900000e+08	2.331619e+13	0.000000e+00	8.410596e-01	3.763279e+14	4.579185e+14	3.023875e+13	7.641219e+03	5.164931e+03	3.016060e+03	0	7.937614e-04
3.000000e+08	2.291062e+13	0.000000e+00	8.410596e-01	3.700375e+14	4.518400e+14	3.008069e+13	7.610405e+03	5.151514e+03	3.008225e+03	0	7.891322e-04
3.100000e+08	2.251822e+13	0.000000e+00	8.410596e-01	3.639501e+14	4.457726e+14	2.992378e+13	7.580103e+03	5.137992e+03	3.000329e+03	0	7.846010e-04
3.200000e+08	2.213807e+13	0.000000e+00	8.410596e-01	3.580515e+14	4.397394e+14	2.976801e+13	7.550297e+03	5.124417e+03	2.992402e+03	0	7.801607e-04
3.300000e+08	2.176935e+13	0.000000e+00	8.410596e-01	3.523293e+14	4.337590e+14	2.961337e+13	7.520970e+03	5.110828e+03	2.984467e+03	0	7.758052e-04
3.400000e+08	2.141138e+13	0.000000e+00	8.410596e-01	3.467729e+14	4.278450e+14	2.945986e+13	7.492110e+03	5.097259e+03	2.976543e+03	0	7.715292e-04
3.500000e+08	2.106353e+13	0.000000e+00	8.410596e-01	3.413727e+14	4.220084e+14	2.930746e+13	7.463702e+03	5.083735e+03	2.968645e+03	0	7.673283e-04
3.600000e+08	2.072525e+13	0.000000e+00	8.410596e-01	3.361203e+14	4.162571e+14	2.915616e+13	7.435734e+03	5.070278e+03	2.960787e+03	0	7.631984e-04
3.700000e+08	2.039607e+13	0.000000e+00	8.410596e-01	3.310082e+14	4.105973e+14	2.900596e+13	7.408193e+03	5.056904e+03	2.952978e+03	0	7.591361e-04
3.800000e+08	2.007553e+13	0.000000e+00	8.410596e-01	3.260296e+14	4.050328e+14	2.885685e+13	7.381069e+03	5.043628e+03	2.945225e+03	0	7.551383e-04
3.900000e+08	1.976324e+13	0.000000e+00	8.410596e-01	3.211785e+14	3.995667e+14	2.870882e+13	7.354351e+03	5.030459e+03	2.937535e+03	0	7.512022e-04
4.000000e+08	1.945884e+13	0.000000e+00	8.410596e-01	3.164492e+14	3.942007e+14	2.856185e+13	7.328028e+03	5.017405e+03	2.929912e+03	0	7.473256e-04
4.100000e+08	1.916201e+13	0.000000e+00	8.410596e-01	3.118367e+14	3.889359e+14	2.841595e+13	7.302090e+03	5.004473e+03	2.922360e+03	0	7.435060e-04
4.200000e+08	1.887243e+13	0.000000e+00	8.410596e-01	3.073364e+14	3.837720e+14	2.827109e+13	7.276528e+03	4.991667e+03	2.914882e+03	0	7.397417e-04
4.300000e+08	1.858982e+13	0.000000e+00	8.410596e-01	3.029437e+14	3.787089e+14	2.812728e+13	7.251333e+03	4.978991e+03	2.907480e+03	0	7.360306e-04
4.400000e+08	1.831392e+13	0.000000e+00	8.410596e-01	2.986548e+14	3.737458e+14	2.798451e+13	7.226496e+03	4.966447e+03	2.900155e+03	0	7.323712e-04
4.500000e+08	1.804449e+13	0.000000e+00	8.410596e-01	2.944658e+14	3.688814e+14	2.784276e+13	7.202009e+03	4.954036e+03	2.892908e+03	0	7.287620e-04
4.600000e+08	1.778130e+13	0.000000e+00	8.410596e-01	2.903733e+14	3.641145e+14	2.770202e+13	7.177863e+03	4.941760e+03	2.885739e+03	0	7.252015e-04
4.700000e+08	1.752413e+13	0.000000e+00	8.410596e-01	2.863738e+14	3.594435e+14	2.756230e+13	7.154051e+03	4.929619e+03	2.878650e+03	0	7.216883e-04
4.800000e+08	1.727278e+13	0.000000e+00	8.410596e-01	2.824643e+14	3.548663e+14	2.742358e+13	7.130565e+03	4.917612e+03	2.871638e+03	0	7.182213e-04
4.900000e+08	1.702706e+13	0.000000e+00	8.410596e-01	2.786419e+14	3.503815e+14	2.728585e+13	7.107399e+03	4.905739e+03	2.864705e+03	0	7.147992e-04
5.000000e+08	1.678678e+13	0.000000e+00	8.410596e-01	2.749036e+14	3.459869e+14	2.714911e+13	7.084544e+03	4.893999e+03	2.857849e+03	0	7.114209e-04
5.100000e+08	1.655178e+13	0.000000e+00	8.410596e-01	2.712468e+14	3.416806e+14	2.701334e+13	7.061994e+03	4.882390e+03	2.851070e+03	0	7.080855e-04
5.200000e+08	1.632188e+13	0.000000e+00	8.410596e-01	2.676691e+14	3.374607e+14	2.687854e+13	7.039742e+03	4.870912e+03	2.844368e+03	0	7.047918e-04
5.300000e+08	1.609693e+13	0.000000e+00	8.410596e-01	2.641679e+14	3.333250e+14	2.674470e+13	7.017782e+03	4.859564e+03	2.837741e+03	0	7.015390e-04
5.400000e+08	1.587678e+13	0.000000e+00	8.410596e-01	2.607409e+14	3.292716e+14	2.661182e+13	6.996108e+03	4.848342e+03	2.831188e+03	0	6.983261e-04
5.500000e+08	1.566129e+13	0.000000e+00	8.410596e-01	2.573860e+14	3.252986e+14	2.647988e+13	6.974714e+03	4.837246e+03	2.824708e+03	0	6.951523e-04
5.600000e+08	1.545032e+13	0.000000e+00	8.410596e-01	2.541010e+14	3.214039e+14	2.634888e+13	6.953594e+03	4.826274e+03	2.818301e+03	0	6.920167e-04
5.700000e+08	1.524373e+13	0.000000e+00	8.410596e-01	2.508839e+14	3.175855e+14	2.621881e+13	6.932741e+03	4.815425e+03	2.811966e+03	0	6.889186e-04
5.800000e+08	1.504141e+13	0.000000e+00	8.410596e-01	2.477328e+14	3.138417e+14	2.608967e+13	6.912152e+03	4.804696e+03	2.805701e+03	0	6.858571e-04
5.900000e+08	1.484322e+13	0.000000e+00	8.410596e-01	2.446457e+14	3.101705e+14	2.596143e+13	6.891819e+03	4.794085e+03	2.799504e+03	0	6.828315e-04
6.000000e+08	1.464906e+13	0.000000e+00	8.410596e-01	2.416209e+14	3.065701e+14	2.583411e+13	6.871739e+03	4.783591e+03	2.793376e+03	0	6.798411e-04
6.100000e+08	1.445881e+13	0.000000e+00	8.410596e-01	2.386566e+14	3.030388e+14	2.570769e+13	6.851906e+03	4.773211e+03	2.787315e+03	0	6.768852e-04
6.200000e+08	1.427236e+13	0.000000e+00	8.410596e-01	2.357511e+14	2.995746e+14	2.558216e+13	6.832315e+03	4.762945e+03	2.781320e+03	0	6.739631e-04
6.300000e+08	1.408961e+13	0.000000e+00	8.410596e-01	2.329029e+14	2.961761e+14	2.545751e+13	6.812961e+03	4.752789e+03	2.775390e+03	0	6.710741e-04
6.400000e+08	1.391046e+13	0.000000e+00	8.410596e-01	2.301104e+14	2.928415e+14	2.533375e+13	6.793840e+03	4.742743e+03	2.769523e+03	0	6.682177e-04
6.500000e+08	1.373480e+13	0.000000e+00	8.410596e-01	2.273721e+14	2.895692e+14	2.521086e+13	6.774948e+03	4.732805e+03	2.763720e+03	0	6.653931e-04
6.600000e+08	1.356256e+13	0.000000e+00	8.410596e-01	2.246866e+14	2.863577e+14	2.508883e+13	6.756279e+03	4.722971e+03	2.757978e+03	0	6.625999e-04
6.700000e+08	1.339363e+13	0.000000e+00	8.410596e-01	2.220524e+14	2.832053e+14	2.496766e+13	6.737829e+03	4.713242e+03	2.752296e+03	0	6.598374e-04
6.800000e+08	1.322793e+13	0.000000e+00	8.410596e-01	2.194683e+14	2.801109e+14	2.484734e+13	6.719594e+03	4.703615e+03	2.746675e+03	0	6.571051e-04
6.900000e+08	1.306538e+13	0.000000e+00	8.410596e-01	2.169329e+14	2.770727e+14	2.472786e+13	6.701571e+03	4.694088e+03	2.741111e+03	0	6.544024e-04
7.000000e+08	1.290589e+13	0.000000e+00	8.410596e-01	2.144449e+14	2.740894e+14	2.460923e+13	6.683755e+03	4.684660e+03	2.735606e+03	0	6.517287e-04
7.100000e+08	1.274939e+13	0.000000e+00	8.410596e-01	2.120032e+14	2.711597e+14	2.449142e+13	6.666143e+03	4.675329e+03	2.730157e+03	0	6.490836e-04
7.200000e+08	1.259580e+13	0.000000e+00	8.410596e-01	2.096066e+14	2.682823e+14	2.437444e+13	6.648730e+03	4.666094e+03	2.724764e+03	0	6.464666e-04
7.300000e+08	1.244504e+13	0.000000e+00	8.410596e-01	2.072539e+14	2.654559e+14	2.425827e+13	6.631513e+03	4.656953e+03	2.719426e+03	0	6.438771e-04
7.400000e+08	1.229705e+13	0.000000e+00	8.410596e-01	2.049440e+14	2.626793e+14	2.414292e+13	6.614488e+03	4.647903e+03	2.714142e+03	0	6.413146e-04
7.500000e+08	1.215176e+13	0.000000e+00	8.410596e-01	2.026759e+14	2.599512e+14	2.402837e+13	6.597652e+03	4.638945e+03	2.708911e+03	0	6.387788e-04
7.600000e+08	1.200909e+13	0.000000e+00	8.410596e-01	2.004486e+14	2.572705e+14	2.391461e+13	6.581002e+03	4.630076e+03	2.703731e+03	0	6.362691e-04
7.700000e+08	1.186899e+13	0.000000e+00	8.410596e-01	1.982610e+14	2.546360e+14	2.380165e+13	6.564534e+03	4.621295e+03	2.698604e+03	0	6.337851e-04
7.800000e+08	1.173138e+13	0.000000e+00	8.410596e-01	1.961122e+14	2.520467e+14	2.368948e+13	6.548245e+03	4.612600e+03	2.693526e+03	0	6.313263e-04
7.900000e+08	1.159622e+13	0.000000e+00	8.410596e-01	1.940012e+14	2.495016e+14	2.357808e+13	6.532131e+03	4.603990e+03	2.688499e+03	0	6.288924e-04
8.000000e+08	1.146345e+13	0.000000e+00	8.410596e-01	1.919271e+14	2.469994e+14	2.346746e+13	6.516190e+03	4.595464e+03	2.683520e+03	0	6.264829e-04
8.100000e+08	1.133299e+13	0.000000e+00	8.410596e-01	1.898891e+14	2.445394e+14	2.335760e+13	6.500419e+03	4.587020e+03	2.678589e+03	0	6.240974e-04
8.200000e+08	1.120481e+13	0.000000e+00	8.410596e-01	1.878862e+14	2.421205e+14	2.324850e+13	6.484815e+03	4.578657e+03	2.673705e+03	0	6.217355e-04
8.300000e+08	1.107884e+13	0.000000e+00	8.410596e-01	1.859178e+14	2.397417e+14	2.314016e+13	6.469374e+03	4.570374e+03	2.668868e+03	0	6.193968e-04
8.400000e+08	1.095504e+13	0.000000e+00	8.410596e-01	1.839828e+14	2.374021e+14	2.303256e+13	6.454095e+03	4.562169e+03	2.664077e+03	0	6.170809e-04
8.500000e+08	1.083335e+13	0.000000e+00	8.410596e-01	1.820807e+14	2.351008e+14	2.292571e+13	6.438974e+03	4.554041e+03	2.659331e+03	0	6.147875e-04
8.600000e+08	1.071372e+13	0.000000e+00	8.410596e-01	1.802105e+14	2.328370e+14	2.281960e+13	6.424008e+03	4.545989e+03	2.654629e+03	0	6.125162e-04
8.700000e+08	1.059611e+13	0.000000e+00	8.410596e-01	1.783717e+14	2.306098e+14	2.271421e+13	6.409196e+03	4.538012e+03	2.649971e+03	0	6.102667e-04
8.800000e+08	1.048047e+13	0.000000e+00	8.410596e-01	1.765634e+14	2.284183e+14	2.260955e+13	6.394534e+03	4.530109e+03	2.645356e+03	0	6.080385e-04
8.900000e+08	1.036676e+13	0.000000e+00	8.410596e-01	1.747849e+14	2.262620e+14	2.250561e+13	6.380020e+03	4.522278e+03	2.640783e+03	0	6.058314e-04
9.000000e+08	1.025493e+13	0.000000e+00	8.410596e-01	1.730357e+14	2.241398e+14	2.240238e+13	6.365652e+03	4.514518e+03	2.636251e+03	0	6.036451e-04
9.100000e+08	1.014493e+13	0.000000e+00	8.410596e-01	1.713150e+14	2.220510e+14	2.229986e+13	6.351427e+03	4.506829e+03	2.631761e+03	0	6.014791e-04
9.200000e+08	1.003674e+13	0.000000e+00	8.410596e-01	1.696222e+14	2.199951e+14	2.219804e+13	6.337343e+03	4.499208e+03	2.627311e+03	0	5.993333e-04
9.300000e+08	9.930305e+12	0.000000e+00	8.410596e-01	1.679567e+14	2.179711e+14	2.209692e+13	6.323397e+03	4.491656e+03	2.622901e+03	0	5.972072e-04
9.400000e+08	9.825589e+12	0.000000e+00	8.410596e-01	1.663179e+14	2.159785e+14	2.199649e+13	6.309588e+03	4.484171e+03	2.618530e+03	0	5.951005e-04
9.500000e+08	9.722555e+12	0.000000e+00	8.410596e-01	1.647052e+14	2.140165e+14	2.189674e+13	6.295913e+03	4.476753e+03	2.614198e+03	0	5.930131e-04
9.600000e+08	9.621166e+12	0.000000e+00	8.410596e-01	1.631180e+14	2.120845e+14	2.179768e+13	6.282370e+03	4.469399e+03	2.609904e+03	0	5.909445e-04
9.700000e+08	9.521386e+12	0.000000e+00	8.410596e-01	1.615558e+14	2.101820e+14	2.169929e+13	6.268957e+03	4.462109e+03	2.605647e+03	0	5.888946e-04
9.800000e+08	9.423181e+12	0.000000e+00	8.410596e-01	1.600181e+14	2.083081e+14	2.160157e+13	6.255672e+03	4.454883e+03	2.601427e+03	0	5.868629e-04
9.900000e+08	9.326517e+12	0.000000e+00	8.410596e-01	1.585042e+14	2.064624e+14	2.150451e+13	6.242513e+03	4.447719e+03	2.597244e+03	0	5.848493e-04
1.000000e+09	9.231360e+12	0.000000e+00	8.410596e-01	1.570138e+14	2.046443e+14	2.140811e+13	6.229478e+03	4.440616e+03	2.593096e+03	0	5.828535e-04
1.010000e+09	9.137679e+12	0.000000e+00	8.410596e-01	1.555463e+14	2.028532e+14	2.131237e+13	6.216565e+03	4.433574e+03	2.588984e+03	0	5.808751e-04
1.020000e+09	9.045443e+12	0.000000e+00	8.410596e-01	1.541012e+14	2.010884e+14	2.121727e+13	6.203772e+03	4.426591e+03	2.584907e+03	0	5.789141e-04
1.030000e+09	8.954621e+12	0.000000e+00	8.410596e-01	1.526781e+14	1.993496e+14	2.112282e+13	6.191097e+03	4.419668e+03	2.580864e+03	0	5.769700e-04
1.040000e+09	8.865183e+12	0.000000e+00	8.410596e-01	1.512764e+14	1.976361e+14	2.102901e+13	6.178540e+03	4.412802e+03	2.576854e+03	0	5.750427e-04
1.050000e+09	8.777102e+12	0.000000e+00	8.410596e-01	1.498959e+14	1.959475e+14	2.093583e+13	6.166097e+03	4.405993e+03	2.572878e+03	0	5.731318e-04
1.060000e+09	8.690349e+12	0.000000e+00	8.410596e-01	1.485360e+14	1.942832e+14	2.084328e+13	6.153767e+03	4.399241e+03	2.568935e+03	0	5.712373e-04
1.070000e+09	8.604896e+12	0.000000e+00	8.410596e-01	1.471962e+14	1.926428e+14	2.075135e+13	6.141548e+03	4.392544e+03	2.565025e+03	0	5.693588e-04
1.080000e+09	8.520718e+12	0.000000e+00	8.410596e-01	1.458763e+14	1.910257e+14	2.066004e+13	6.129440e+03	4.385902e+03	2.561146e+03	0	5.674961e-04
1.090000e+09	8.437788e+12	0.000000e+00	8.410596e-01	1.445758e+14	1.894316e+14	2.056934e+13	6.117439e+03	4.379314e+03	2.557299e+03	0	5.656490e-04
1.100000e+09	8.356081e+12	0.000000e+00	8.410596e-01	1.432943e+14	1.878599e+14	2.047926e+13	6.105546e+03	4.372779e+03	2.553483e+03	0	5.638173e-04
1.110000e+09	8.275572e+12	0.000000e+00	8.410596e-01	1.420314e+14	1.863103e+14	2.038977e+13	6.093757e+03	4.366296e+03	2.549697e+03	0	5.620007e-04
1.120000e+09	8.196238e+12	0.000000e+00	8.410596e-01	1.407867e+14	1.847822e+14	2.030089e+13	6.082071e+03	4.359866e+03	2.545942e+03	0	5.601990e-04
1.130000e+09	8.118055e+12	0.000000e+00	8.410596e-01	1.395600e+14	1.832754e+14	2.021260e+13	6.070488e+03	4.353486e+03	2.542217e+03	0	5.584121e-04
1.140000e+09	8.041000e+12	0.000000e+00	8.410596e-01	1.383507e+14	1.817892e+14	2.012490e+13	6.059005e+03	4.347157e+03	2.538521e+03	0	5.566397e-04
1.150000e+09	7.965052e+12	0.000000e+00	8.410596e-01	1.371587e+14	1.803235e+14	2.003779e+13	6.047622e+03	4.340878e+03	2.534854e+03	0	5.548816e-04
1.160000e+09	7.890188e+12	0.000000e+00	8.410596e-01	1.359835e+14	1.788777e+14	1.995126e+13	6.036336e+03	4.334648e+03	2.531216e+03	0	5.531377e-04
1.170000e+09	7.816387e+12	0.000000e+00	8.410596e-01	1.348249e+14	1.774515e+14	1.986531e+13	6.025146e+03	4.328466e+03	2.527606e+03	0	5.514077e-04
1.180000e+09	7.743630e+12	0.000000e+00	8.410596e-01	1.336825e+14	1.760446e+14	1.977992e+13	6.014052e+03	4.322332e+03	2.524025e+03	0	5.496915e-04
1.190000e+09	7.671895e+12	0.000000e+00	8.410596e-01	1.325560e+14	1.746565e+14	1.969511e+13	6.003051e+03	4.316245e+03	2.520470e+03	0	5.479888e-04
1.200000e+09	7.601163e+12	0.000000e+00	8.410596e-01	1.314450e+14	1.732869e+14	1.961085e+13	5.992143e+03	4.310205e+03	2.516943e+03	0	5.462995e-04
1.210000e+09	7.531415e+12	0.000000e+00	8.410596e-01	1.303494e+14	1.719355e+14	1.952716e+13	5.981325e+03	4.304211e+03	2.513442e+03	0	5.446235e-04
1.220000e+09	7.462632e+12	0.000000e+00	8.410596e-01	1.292688e+14	1.706020e+14	1.944402e+13	5.970598e+03	4.298262e+03	2.509969e+03	0	5.429604e-04
1.230000e+09	7.394796e+12	0.000000e+00	8.410596e-01	1.282029e+14	1.692859e+14	1.936143e+13	5.959959e+03	4.292357e+03	2.506521e+03	0	5.413102e-04
1.240000e+09	7.327890e+12	0.000000e+00	8.410596e-01	1.271515e+14	1.679870e+14	1.927939e+13	5.949407e+03	4.286497e+03	2.503099e+03	0	5.396727e-04
1.250000e+09	7.261895e+12	0.000000e+00	8.410596e-01	1.261143e+14	1.667050e+14	1.919789e+13	5.938942e+03	4.280681e+03	2.499702e+03	0	5.380477e-04
1.260000e+09	7.196795e+12	0.000000e+00	8.410596e-01	1.250910e+14	1.654396e+14	1.911692e+13	5.928562e+03	4.274907e+03	2.496331e+03	0	5.364351e-04
1.270000e+09	7.132574e+12	0.000000e+00	8.410596e-01	1.240813e+14	1.641903e+14	1.903649e+13	5.918265e+03	4.269177e+03	2.492984e+03	0	5.348347e-04
1.280000e+09	7.069215e+12	0.000000e+00	8.410596e-01	1.230851e+14	1.629572e+14	1.895659e+13	5.908052e+03	4.263488e+03	2.489662e+03	0	5.332463e-04
1.290000e+09	7.006702e+12	0.000000e+00	8.410596e-01	1.221020e+14	1.617396e+14	1.887721e+13	5.897920e+03	4.257840e+03	2.486365e+03	0	5.316698e-04
1.300000e+09	6.945020e+12	0.000000e+00	8.410596e-01	1.211319e+14	1.605375e+14	1.879836e+13	5.887869e+03	4.252234e+03	2.483091e+03	0	5.301051e-04
1.310000e+09	6.884154e+12	0.000000e+00	8.410596e-01	1.201745e+14	1.593506e+14	1.872002e+13	5.877898e+03	4.246668e+03	2.479840e+03	0	5.285519e-04
1.320000e+09	6.824089e+12	0.000000e+00	8.410596e-01	1.192295e+14	1.581785e+14	1.864219e+13	5.868005e+03	4.241142e+03	2.476614e+03	0	5.270102e-04
1.330000e+09	6.764811e+12	0.000000e+00	8.410596e-01	1.182968e+14	1.570210e+14	1.856488e+13	5.858189e+03	4.235655e+03	2.473410e+03	0	5.254798e-04
1.340000e+09	6.706305e+12	0.000000e+00	8.410596e-01	1.173761e+14	1.558779e+14	1.848807e+13	5.848450e+03	4.230208e+03	2.470229e+03	0	5.239605e-04
1.350000e+09	6.648558e+12	0.000000e+00	8.410596e-01	1.164673e+14	1.547489e+14	1.841176e+13	5.838787e+03	4.224799e+03	2.467070e+03	0	5.224523e-04
1.360000e+09	6.591556e+12	0.000000e+00	8.410596e-01	1.155700e+14	1.536337e+14	1.833594e+13	5.829198e+03	4.219428e+03	2.463934e+03	0	5.209549e-04
