#t		Qconv[W]	Ri[Rp]		R*[Rp]		Qc[W]		Qm[W]		Qr[W]		Tcmb[K]		Tl[K]		Tup[K]		RiFlag		Bs[T]
0.000000e+00	8.828021e+13	0.000000e+00	8.400000e-01	1.137177e+15	6.977668e+13	5.207616e+13	9.774026e+03	3.778651e+03	2.190958e+03	0	1.212252e-03
1.000000e+07	8.663722e+13	0.000000e+00	8.400000e-01	1.116729e+15	9.773659e+13	5.178762e+13	9.716542e+03	3.987772e+03	2.312212e+03	0	1.204684e-03
2.000000e+07	8.467892e+13	0.000000e+00	8.400000e-01	1.092426e+15	1.314604e+14	5.150123e+13	9.660087e+03	4.187140e+03	2.427810e+03	0	1.195538e-03
3.000000e+07	8.247037e+13	0.000000e+00	8.400000e-01	1.065066e+15	1.704720e+14	5.121699e+13	9.604856e+03	4.374975e+03	2.536722e+03	0	1.185053e-03
4.000000e+07	8.008195e+13	0.000000e+00	8.400000e-01	1.035511e+15	2.138732e+14	5.093487e+13	9.551004e+03	4.549778e+03	2.638077e+03	0	1.173500e-03
5.000000e+07	7.758431e+13	0.000000e+00	8.400000e-01	1.004628e+15	2.604292e+14	5.065486e+13	9.498639e+03	4.710418e+03	2.731220e+03	0	1.161171e-03
6.000000e+07	7.504361e+13	0.000000e+00	8.400000e-01	9.732269e+14	3.087000e+14	5.037693e+13	9.447831e+03	4.856180e+03	2.815736e+03	0	1.148355e-03
7.000000e+07	7.251771e+13	0.000000e+00	8.400000e-01	9.420157e+14	3.571912e+14	5.010107e+13	9.398605e+03	4.986783e+03	2.891464e+03	0	1.135324e-03
8.000000e+07	7.005374e+13	0.000000e+00	8.400000e-01	9.115719e+14	4.044978e+14	4.982726e+13	9.350952e+03	5.102357e+03	2.958476e+03	0	1.122317e-03
9.000000e+07	6.768717e+13	0.000000e+00	8.400000e-01	8.823296e+14	4.494141e+14	4.955549e+13	9.304834e+03	5.203388e+03	3.017057e+03	0	1.109534e-03
1.000000e+08	6.544214e+13	0.000000e+00	8.400000e-01	8.545838e+14	4.910028e+14	4.928574e+13	9.260189e+03	5.290647e+03	3.067652e+03	0	1.097129e-03
1.100000e+08	6.333264e+13	0.000000e+00	8.400000e-01	8.285056e+14	5.286187e+14	4.901799e+13	9.216943e+03	5.365112e+03	3.110829e+03	0	1.085211e-03
1.200000e+08	6.136434e+13	0.000000e+00	8.400000e-01	8.041639e+14	5.618971e+14	4.875222e+13	9.175012e+03	5.427888e+03	3.147228e+03	0	1.073850e-03
1.300000e+08	5.953649e+13	0.000000e+00	8.400000e-01	7.815489e+14	5.907167e+14	4.848842e+13	9.134308e+03	5.480138e+03	3.177524e+03	0	1.063080e-03
1.400000e+08	5.784378e+13	0.000000e+00	8.400000e-01	7.605952e+14	6.151501e+14	4.822657e+13	9.094744e+03	5.523028e+03	3.202392e+03	0	1.052908e-03
1.500000e+08	5.627795e+13	0.000000e+00	8.400000e-01	7.412012e+14	6.354121e+14	4.796666e+13	9.056237e+03	5.557682e+03	3.222486e+03	0	1.043321e-03
1.600000e+08	5.482906e+13	0.000000e+00	8.400000e-01	7.232445e+14	6.518112e+14	4.770867e+13	9.018708e+03	5.585157e+03	3.238416e+03	0	1.034289e-03
1.700000e+08	5.348647e+13	0.000000e+00	8.400000e-01	7.065947e+14	6.647092e+14	4.745258e+13	8.982084e+03	5.606422e+03	3.250746e+03	0	1.025777e-03
1.800000e+08	5.223955e+13	0.000000e+00	8.400000e-01	6.911212e+14	6.744884e+14	4.719838e+13	8.946300e+03	5.622351e+03	3.259982e+03	0	1.017743e-03
1.900000e+08	5.107811e+13	0.000000e+00	8.400000e-01	6.766987e+14	6.815302e+14	4.694606e+13	8.911296e+03	5.633719e+03	3.266573e+03	0	1.010144e-03
2.000000e+08	4.999267e+13	0.000000e+00	8.400000e-01	6.632110e+14	6.861985e+14	4.669559e+13	8.877019e+03	5.641209e+03	3.270916e+03	0	1.002937e-03
2.100000e+08	4.897463e+13	0.000000e+00	8.400000e-01	6.505525e+14	6.888296e+14	4.644696e+13	8.843423e+03	5.645414e+03	3.273355e+03	0	9.960827e-04
2.200000e+08	4.801628e+13	0.000000e+00	8.400000e-01	6.386285e+14	6.897287e+14	4.620015e+13	8.810465e+03	5.646849e+03	3.274187e+03	0	9.895427e-04
2.300000e+08	4.711082e+13	0.000000e+00	8.400000e-01	6.273556e+14	6.891668e+14	4.595516e+13	8.778108e+03	5.645953e+03	3.273667e+03	0	9.832831e-04
2.400000e+08	4.625229e+13	0.000000e+00	8.400000e-01	6.166605e+14	6.873826e+14	4.571197e+13	8.746320e+03	5.643103e+03	3.272015e+03	0	9.772734e-04
2.500000e+08	4.543548e+13	0.000000e+00	8.400000e-01	6.064795e+14	6.845826e+14	4.547055e+13	8.715071e+03	5.638620e+03	3.269415e+03	0	9.714864e-04
2.600000e+08	4.465591e+13	0.000000e+00	8.400000e-01	5.967573e+14	6.809452e+14	4.523091e+13	8.684336e+03	5.632777e+03	3.266028e+03	0	9.658981e-04
2.700000e+08	4.390969e+13	0.000000e+00	8.400000e-01	5.874463e+14	6.766224e+14	4.499301e+13	8.654091e+03	5.625805e+03	3.261985e+03	0	9.604877e-04
2.800000e+08	4.319347e+13	0.000000e+00	8.400000e-01	5.785054e+14	6.717441e+14	4.475685e+13	8.624316e+03	5.617897e+03	3.257400e+03	0	9.552368e-04
2.900000e+08	4.250436e+13	0.000000e+00	8.400000e-01	5.698989e+14	6.664196e+14	4.452242e+13	8.594992e+03	5.609221e+03	3.252369e+03	0	9.501296e-04
3.000000e+08	4.183987e+13	0.000000e+00	8.400000e-01	5.615965e+14	6.607418e+14	4.428969e+13	8.566102e+03	5.599913e+03	3.246972e+03	0	9.451523e-04
3.100000e+08	4.119786e+13	0.000000e+00	8.400000e-01	5.535716e+14	6.547881e+14	4.405866e+13	8.537631e+03	5.590092e+03	3.241277e+03	0	9.402930e-04
3.200000e+08	4.057645e+13	0.000000e+00	8.400000e-01	5.458014e+14	6.486236e+14	4.382932e+13	8.509565e+03	5.579856e+03	3.235342e+03	0	9.355414e-04
3.300000e+08	3.997404e+13	0.000000e+00	8.400000e-01	5.382661e+14	6.423028e+14	4.360163e+13	8.481891e+03	5.569288e+03	3.229215e+03	0	9.308886e-04
3.400000e+08	3.938924e+13	0.000000e+00	8.400000e-01	5.309485e+14	6.358710e+14	4.337561e+13	8.454597e+03	5.558458e+03	3.222935e+03	0	9.263267e-04
3.500000e+08	3.882081e+13	0.000000e+00	8.400000e-01	5.238335e+14	6.293659e+14	4.315122e+13	8.427673e+03	5.547425e+03	3.216538e+03	0	9.218491e-04
3.600000e+08	3.826768e+13	0.000000e+00	8.400000e-01	5.169080e+14	6.228191e+14	4.292846e+13	8.401107e+03	5.536239e+03	3.210052e+03	0	9.174500e-04
3.700000e+08	3.772892e+13	0.000000e+00	8.400000e-01	5.101604e+14	6.162559e+14	4.270731e+13	8.374891e+03	5.524940e+03	3.203501e+03	0	9.131241e-04
3.800000e+08	3.720370e+13	0.000000e+00	8.400000e-01	5.035805e+14	6.096979e+14	4.248776e+13	8.349016e+03	5.513564e+03	3.196905e+03	0	9.088671e-04
3.900000e+08	3.669127e+13	0.000000e+00	8.400000e-01	4.971591e+14	6.031626e+14	4.226980e+13	8.323473e+03	5.502141e+03	3.190281e+03	0	9.046750e-04
4.000000e+08	3.619097e+13	0.000000e+00	8.400000e-01	4.908883e+14	5.966645e+14	4.205341e+13	8.298254e+03	5.490694e+03	3.183644e+03	0	9.005443e-04
4.100000e+08	3.570222e+13	0.000000e+00	8.400000e-01	4.847606e+14	5.902151e+14	4.183859e+13	8.273352e+03	5.479245e+03	3.177006e+03	0	8.964721e-04
4.200000e+08	3.522449e+13	0.000000e+00	8.400000e-01	4.787695e+14	5.838239e+14	4.162531e+13	8.248759e+03	5.467810e+03	3.170376e+03	0	8.924555e-04
4.300000e+08	3.475728e+13	0.000000e+00	8.400000e-01	4.729091e+14	5.774983e+14	4.141357e+13	8.224469e+03	5.456405e+03	3.163762e+03	0	8.884922e-04
4.400000e+08	3.430017e+13	0.000000e+00	8.400000e-01	4.671741e+14	5.712443e+14	4.120335e+13	8.200474e+03	5.445041e+03	3.157173e+03	0	8.845800e-04
4.500000e+08	3.385276e+13	0.000000e+00	8.400000e-01	4.615593e+14	5.650668e+14	4.099464e+13	8.176770e+03	5.433727e+03	3.150613e+03	0	8.807169e-04
4.600000e+08	3.341467e+13	0.000000e+00	8.400000e-01	4.560605e+14	5.589691e+14	4.078743e+13	8.153348e+03	5.422473e+03	3.144088e+03	0	8.769013e-04
4.700000e+08	3.298556e+13	0.000000e+00	8.400000e-01	4.506732e+14	5.529541e+14	4.058171e+13	8.130205e+03	5.411286e+03	3.137601e+03	0	8.731315e-04
4.800000e+08	3.256513e+13	0.000000e+00	8.400000e-01	4.453937e+14	5.470236e+14	4.037746e+13	8.107334e+03	5.400169e+03	3.131156e+03	0	8.694059e-04
4.900000e+08	3.215307e+13	0.000000e+00	8.400000e-01	4.402183e+14	5.411791e+14	4.017468e+13	8.084729e+03	5.389130e+03	3.124754e+03	0	8.657234e-04
5.000000e+08	3.174913e+13	0.000000e+00	8.400000e-01	4.351436e+14	5.354211e+14	3.997334e+13	8.062386e+03	5.378170e+03	3.118400e+03	0	8.620827e-04
5.100000e+08	3.135303e+13	0.000000e+00	8.400000e-01	4.301666e+14	5.297503e+14	3.977344e+13	8.040300e+03	5.367293e+03	3.112093e+03	0	8.584826e-04
5.200000e+08	3.096454e+13	0.000000e+00	8.400000e-01	4.252841e+14	5.241664e+14	3.957497e+13	8.018465e+03	5.356501e+03	3.105835e+03	0	8.549221e-04
5.300000e+08	3.058342e+13	0.000000e+00	8.400000e-01	4.204934e+14	5.186693e+14	3.937791e+13	7.996877e+03	5.345796e+03	3.099628e+03	0	8.514001e-04
5.400000e+08	3.020948e+13	0.000000e+00	8.400000e-01	4.157919e+14	5.132582e+14	3.918226e+13	7.975530e+03	5.335179e+03	3.093472e+03	0	8.479159e-04
5.500000e+08	2.984250e+13	0.000000e+00	8.400000e-01	4.111770e+14	5.079327e+14	3.898800e+13	7.954422e+03	5.324651e+03	3.087368e+03	0	8.444684e-04
5.600000e+08	2.948228e+13	0.000000e+00	8.400000e-01	4.066462e+14	5.026918e+14	3.879512e+13	7.933547e+03	5.314212e+03	3.081315e+03	0	8.410569e-04
5.700000e+08	2.912865e+13	0.000000e+00	8.400000e-01	4.021974e+14	4.975343e+14	3.860361e+13	7.912900e+03	5.303864e+03	3.075315e+03	0	8.376806e-04
5.800000e+08	2.878142e+13	0.000000e+00	8.400000e-01	3.978284e+14	4.924592e+14	3.841346e+13	7.892479e+03	5.293605e+03	3.069367e+03	0	8.343387e-04
5.900000e+08	2.844043e+13	0.000000e+00	8.400000e-01	3.935369e+14	4.874653e+14	3.822466e+13	7.872279e+03	5.283436e+03	3.063471e+03	0	8.310307e-04
6.000000e+08	2.810552e+13	0.000000e+00	8.400000e-01	3.893212e+14	4.825513e+14	3.803719e+13	7.852295e+03	5.273357e+03	3.057627e+03	0	8.277557e-04
6.100000e+08	2.777652e+13	0.000000e+00	8.400000e-01	3.851791e+14	4.777160e+14	3.785105e+13	7.832525e+03	5.263367e+03	3.051834e+03	0	8.245132e-04
6.200000e+08	2.745330e+13	0.000000e+00	8.400000e-01	3.811089e+14	4.729580e+14	3.766622e+13	7.812964e+03	5.253466e+03	3.046093e+03	0	8.213026e-04
6.300000e+08	2.713570e+13	0.000000e+00	8.400000e-01	3.771087e+14	4.682759e+14	3.748270e+13	7.793609e+03	5.243652e+03	3.040403e+03	0	8.181232e-04
6.400000e+08	2.682360e+13	0.000000e+00	8.400000e-01	3.731770e+14	4.636683e+14	3.730048e+13	7.774457e+03	5.233925e+03	3.034763e+03	0	8.149745e-04
6.500000e+08	2.651684e+13	0.000000e+00	8.400000e-01	3.693120e+14	4.591339e+14	3.711953e+13	7.755503e+03	5.224285e+03	3.029173e+03	0	8.118559e-04
6.600000e+08	2.621532e+13	0.000000e+00	8.400000e-01	3.655121e+14	4.546712e+14	3.693986e+13	7.736745e+03	5.214731e+03	3.023633e+03	0	8.087670e-04
6.700000e+08	2.591890e+13	0.000000e+00	8.400000e-01	3.617758e+14	4.502790e+14	3.676146e+13	7.718179e+03	5.205261e+03	3.018142e+03	0	8.057071e-04
6.800000e+08	2.562746e+13	0.000000e+00	8.400000e-01	3.581016e+14	4.459557e+14	3.658430e+13	7.699802e+03	5.195874e+03	3.012700e+03	0	8.026759e-04
6.900000e+08	2.534089e+13	0.000000e+00	8.400000e-01	3.544880e+14	4.417003e+14	3.640839e+13	7.681611e+03	5.186571e+03	3.007306e+03	0	7.996728e-04
7.000000e+08	2.505907e+13	0.000000e+00	8.400000e-01	3.509337e+14	4.375111e+14	3.623372e+13	7.663602e+03	5.177350e+03	3.001959e+03	0	7.966973e-04
7.100000e+08	2.478190e+13	0.000000e+00	8.400000e-01	3.474374e+14	4.333869e+14	3.606026e+13	7.645774e+03	5.168209e+03	2.996659e+03	0	7.937491e-04
7.200000e+08	2.450927e+13	0.000000e+00	8.400000e-01	3.439976e+14	4.293265e+14	3.588802e+13	7.628123e+03	5.159148e+03	2.991405e+03	0	7.908276e-04
7.300000e+08	2.424108e+13	0.000000e+00	8.400000e-01	3.406132e+14	4.253285e+14	3.571698e+13	7.610645e+03	5.150166e+03	2.986197e+03	0	7.879325e-04
7.400000e+08	2.397723e+13	0.000000e+00	8.400000e-01	3.372829e+14	4.213917e+14	3.554714e+13	7.593339e+03	5.141262e+03	2.981035e+03	0	7.850632e-04
7.500000e+08	2.371761e+13	0.000000e+00	8.400000e-01	3.340055e+14	4.175149e+14	3.537848e+13	7.576201e+03	5.132435e+03	2.975916e+03	0	7.822195e-04
7.600000e+08	2.346215e+13	0.000000e+00	8.400000e-01	3.307799e+14	4.136969e+14	3.521099e+13	7.559230e+03	5.123684e+03	2.970842e+03	0	7.794010e-04
7.700000e+08	2.321074e+13	0.000000e+00	8.400000e-01	3.276049e+14	4.099364e+14	3.504467e+13	7.542421e+03	5.115007e+03	2.965811e+03	0	7.766071e-04
7.800000e+08	2.296331e+13	0.000000e+00	8.400000e-01	3.244794e+14	4.062324e+14	3.487951e+13	7.525774e+03	5.106405e+03	2.960824e+03	0	7.738376e-04
7.900000e+08	2.271976e+13	0.000000e+00	8.400000e-01	3.214024e+14	4.025835e+14	3.471549e+13	7.509284e+03	5.097876e+03	2.955878e+03	0	7.710921e-04
8.000000e+08	2.248001e+13	0.000000e+00	8.400000e-01	3.183728e+14	3.989890e+14	3.455262e+13	7.492951e+03	5.089418e+03	2.950974e+03	0	7.683702e-04
8.100000e+08	2.224398e+13	0.000000e+00	8.400000e-01	3.153897e+14	3.954476e+14	3.439086e+13	7.476770e+03	5.081032e+03	2.946111e+03	0	7.656715e-04
8.200000e+08	2.201159e+13	0.000000e+00	8.400000e-01	3.124520e+14	3.919581e+14	3.423023e+13	7.460741e+03	5.072715e+03	2.941289e+03	0	7.629958e-04
8.300000e+08	2.178277e+13	0.000000e+00	8.400000e-01	3.095589e+14	3.885197e+14	3.407071e+13	7.444861e+03	5.064468e+03	2.936507e+03	0	7.603427e-04
8.400000e+08	2.155744e+13	0.000000e+00	8.400000e-01	3.067093e+14	3.851314e+14	3.391229e+13	7.429127e+03	5.056289e+03	2.931765e+03	0	7.577118e-04
8.500000e+08	2.133552e+13	0.000000e+00	8.400000e-01	3.039024e+14	3.817919e+14	3.375497e+13	7.413537e+03	5.048177e+03	2.927062e+03	0	7.551029e-04
8.600000e+08	2.111696e+13	0.000000e+00	8.400000e-01	3.011373e+14	3.785006e+14	3.359873e+13	7.398089e+03	5.040132e+03	2.922397e+03	0	7.525155e-04
8.700000e+08	2.090167e+13	0.000000e+00	8.400000e-01	2.984132e+14	3.752563e+14	3.344356e+13	7.382782e+03	5.032152e+03	2.917770e+03	0	7.499495e-04
8.800000e+08	2.068960e+13	0.000000e+00	8.400000e-01	2.957292e+14	3.720582e+14	3.328946e+13	7.367612e+03	5.024237e+03	2.913181e+03	0	7.474044e-04
8.900000e+08	2.048067e+13	0.000000e+00	8.400000e-01	2.930845e+14	3.689054e+14	3.313643e+13	7.352579e+03	5.016386e+03	2.908628e+03	0	7.448801e-04
9.000000e+08	2.027482e+13	0.000000e+00	8.400000e-01	2.904783e+14	3.657970e+14	3.298444e+13	7.337679e+03	5.008598e+03	2.904112e+03	0	7.423762e-04
9.100000e+08	2.007200e+13	0.000000e+00	8.400000e-01	2.879099e+14	3.627322e+14	3.283349e+13	7.322911e+03	5.000872e+03	2.899633e+03	0	7.398924e-04
9.200000e+08	1.987214e+13	0.000000e+00	8.400000e-01	2.853785e+14	3.597100e+14	3.268358e+13	7.308274e+03	4.993207e+03	2.895188e+03	0	7.374284e-04
9.300000e+08	1.967518e+13	0.000000e+00	8.400000e-01	2.828834e+14	3.567297e+14	3.253469e+13	7.293765e+03	4.985603e+03	2.890779e+03	0	7.349840e-04
9.400000e+08	1.948106e+13	0.000000e+00	8.400000e-01	2.804238e+14	3.537906e+14	3.238682e+13	7.279382e+03	4.978058e+03	2.886405e+03	0	7.325589e-04
9.500000e+08	1.928974e+13	0.000000e+00	8.400000e-01	2.779991e+14	3.508917e+14	3.223996e+13	7.265124e+03	4.970572e+03	2.882064e+03	0	7.301528e-04
9.600000e+08	1.910115e+13	0.000000e+00	8.400000e-01	2.756086e+14	3.480325e+14	3.209410e+13	7.250988e+03	4.963145e+03	2.877758e+03	0	7.277655e-04
9.700000e+08	1.891524e+13	0.000000e+00	8.400000e-01	2.732516e+14	3.452119e+14	3.194923e+13	7.236974e+03	4.955775e+03	2.873484e+03	0	7.253968e-04
9.800000e+08	1.873196e+13	0.000000e+00	8.400000e-01	2.709276e+14	3.424296e+14	3.180535e+13	7.223079e+03	4.948461e+03	2.869244e+03	0	7.230463e-04
9.900000e+08	1.855126e+13	0.000000e+00	8.400000e-01	2.686357e+14	3.396845e+14	3.166245e+13	7.209302e+03	4.941204e+03	2.865036e+03	0	7.207138e-04
1.000000e+09	1.837309e+13	0.000000e+00	8.400000e-01	2.663756e+14	3.369762e+14	3.152051e+13	7.195642e+03	4.934002e+03	2.860860e+03	0	7.183991e-04
1.010000e+09	1.819741e+13	0.000000e+00	8.400000e-01	2.641465e+14	3.343039e+14	3.137954e+13	7.182095e+03	4.926854e+03	2.856715e+03	0	7.161019e-04
1.020000e+09	1.802415e+13	0.000000e+00	8.400000e-01	2.619478e+14	3.316668e+14	3.123953e+13	7.168662e+03	4.919760e+03	2.852602e+03	0	7.138221e-04
1.030000e+09	1.785329e+13	0.000000e+00	8.400000e-01	2.597791e+14	3.290645e+14	3.110046e+13	7.155340e+03	4.912720e+03	2.848520e+03	0	7.115593e-04
1.040000e+09	1.768477e+13	0.000000e+00	8.400000e-01	2.576396e+14	3.264963e+14	3.096233e+13	7.142128e+03	4.905732e+03	2.844468e+03	0	7.093134e-04
1.050000e+09	1.751856e+13	0.000000e+00	8.400000e-01	2.555290e+14	3.239615e+14	3.082514e+13	7.129024e+03	4.898795e+03	2.840446e+03	0	7.070842e-04
1.060000e+09	1.735460e+13	0.000000e+00	8.400000e-01	2.534467e+14	3.214596e+14	3.068887e+13	7.116028e+03	4.891910e+03	2.836454e+03	0	7.048713e-04
1.070000e+09	1.719285e+13	0.000000e+00	8.400000e-01	2.513920e+14	3.189898e+14	3.055352e+13	7.103137e+03	4.885076e+03	2.832491e+03	0	7.026747e-04
1.080000e+09	1.703329e+13	0.000000e+00	8.400000e-01	2.493647e+14	3.165518e+14	3.041908e+13	7.090350e+03	4.878291e+03	2.828557e+03	0	7.004941e-04
1.090000e+09	1.687586e+13	0.000000e+00	8.400000e-01	2.473641e+14	3.141450e+14	3.028554e+13	7.077666e+03	4.871556e+03	2.824652e+03	0	6.983293e-04
1.100000e+09	1.672052e+13	0.000000e+00	8.400000e-01	2.453897e+14	3.117687e+14	3.015290e+13	7.065083e+03	4.864869e+03	2.820775e+03	0	6.961801e-04
1.110000e+09	1.656725e+13	0.000000e+00	8.400000e-01	2.434411e+14	3.094224e+14	3.002115e+13	7.052601e+03	4.858231e+03	2.816926e+03	0	6.940463e-04
1.120000e+09	1.641599e+13	0.000000e+00	8.400000e-01	2.415179e+14	3.071056e+14	2.989028e+13	7.040217e+03	4.851640e+03	2.813104e+03	0	6.919277e-04
1.130000e+09	1.626673e+13	0.000000e+00	8.400000e-01	2.396195e+14	3.048178e+14	2.976029e+13	7.027931e+03	4.845096e+03	2.809310e+03	0	6.898242e-04
1.140000e+09	1.611941e+13	0.000000e+00	8.400000e-01	2.377455e+14	3.025585e+14	2.963117e+13	7.015741e+03	4.838599e+03	2.805543e+03	0	6.877354e-04
1.150000e+09	1.597401e+13	0.000000e+00	8.400000e-01	2.358956e+14	3.003272e+14	2.950290e+13	7.003646e+03	4.832147e+03	2.801802e+03	0	6.856613e-04
1.160000e+09	1.583049e+13	0.000000e+00	8.400000e-01	2.340693e+14	2.981234e+14	2.937550e+13	6.991645e+03	4.825741e+03	2.798087e+03	0	6.836017e-04
1.170000e+09	1.568882e+13	0.000000e+00	8.400000e-01	2.322661e+14	2.959467e+14	2.924894e+13	6.979737e+03	4.819379e+03	2.794398e+03	0	6.815564e-04
1.180000e+09	1.554897e+13	0.000000e+00	8.400000e-01	2.304857e+14	2.937965e+14	2.912323e+13	6.967920e+03	4.813062e+03	2.790736e+03	0	6.795251e-04
1.190000e+09	1.541090e+13	0.000000e+00	8.400000e-01	2.287276e+14	2.916725e+14	2.899835e+13	6.956193e+03	4.806788e+03	2.787098e+03	0	6.775078e-04
1.200000e+09	1.527458e+13	0.000000e+00	8.400000e-01	2.269916e+14	2.895742e+14	2.887430e+13	6.944556e+03	4.800557e+03	2.783485e+03	0	6.755043e-04
1.210000e+09	1.513999e+13	0.000000e+00	8.400000e-01	2.252771e+14	2.875011e+14	2.875107e+13	6.933006e+03	4.794370e+03	2.779897e+03	0	6.735144e-04
1.220000e+09	1.500709e+13	0.000000e+00	8.400000e-01	2.235839e+14	2.854529e+14	2.862866e+13	6.921544e+03	4.788224e+03	2.776334e+03	0	6.715379e-04
1.230000e+09	1.487586e+13	0.000000e+00	8.400000e-01	2.219116e+14	2.834291e+14	2.850706e+13	6.910167e+03	4.782120e+03	2.772795e+03	0	6.695747e-04
1.240000e+09	1.474626e+13	0.000000e+00	8.400000e-01	2.202598e+14	2.814293e+14	2.838626e+13	6.898875e+03	4.776058e+03	2.769280e+03	0	6.676246e-04
1.250000e+09	1.461828e+13	0.000000e+00	8.400000e-01	2.186282e+14	2.794531e+14	2.826626e+13	6.887667e+03	4.770036e+03	2.765788e+03	0	6.656875e-04
1.260000e+09	1.449187e+13	0.000000e+00	8.400000e-01	2.170164e+14	2.775002e+14	2.814705e+13	6.876542e+03	4.764054e+03	2.762320e+03	0	6.637632e-04
1.270000e+09	1.436702e+13	0.000000e+00	8.400000e-01	2.154241e+14	2.755701e+14	2.802863e+13	6.865499e+03	4.758113e+03	2.758875e+03	0	6.618515e-04
1.280000e+09	1.424370e+13	0.000000e+00	8.400000e-01	2.138510e+14	2.736626e+14	2.791098e+13	6.854536e+03	4.752210e+03	2.755452e+03	0	6.599523e-04
1.290000e+09	1.412188e+13	0.000000e+00	8.400000e-01	2.122968e+14	2.717771e+14	2.779411e+13	6.843653e+03	4.746347e+03	2.752053e+03	0	6.580656e-04
1.300000e+09	1.400154e+13	0.000000e+00	8.400000e-01	2.107612e+14	2.699135e+14	2.767801e+13	6.832849e+03	4.740522e+03	2.748675e+03	0	6.561910e-04
1.310000e+09	1.388265e+13	0.000000e+00	8.400000e-01	2.092438e+14	2.680712e+14	2.756266e+13	6.822123e+03	4.734736e+03	2.745320e+03	0	6.543285e-04
1.320000e+09	1.376520e+13	0.000000e+00	8.400000e-01	2.077443e+14	2.662500e+14	2.744808e+13	6.811474e+03	4.728987e+03	2.741987e+03	0	6.524779e-04
1.330000e+09	1.364915e+13	0.000000e+00	8.400000e-01	2.062625e+14	2.644496e+14	2.733424e+13	6.800901e+03	4.723275e+03	2.738675e+03	0	6.506391e-04
1.340000e+09	1.353448e+13	0.000000e+00	8.400000e-01	2.047981e+14	2.626695e+14	2.722114e+13	6.790403e+03	4.717600e+03	2.735384e+03	0	6.488120e-04
1.350000e+09	1.342118e+13	0.000000e+00	8.400000e-01	2.033508e+14	2.609096e+14	2.710879e+13	6.779980e+03	4.711961e+03	2.732115e+03	0	6.469965e-04
1.360000e+09	1.330922e+13	0.000000e+00	8.400000e-01	2.019204e+14	2.591694e+14	2.699716e+13	6.769630e+03	4.706359e+03	2.728867e+03	0	6.451923e-04
