#t		Qconv[W]	Ri[Rp]		R*[Rp]		Qc[W]		Qm[W]		Qr[W]		Tcmb[K]		Tl[K]		Tup[K]		RiFlag		Bs[T]
0.000000e+00	1.436567e+14	0.000000e+00	8.399998e-01	1.593236e+15	8.266865e+13	7.807744e+13	1.123467e+04	4.163862e+03	2.330647e+03	0	1.399091e-03
1.000000e+07	1.424809e+14	0.000000e+00	8.399998e-01	1.580871e+15	1.120482e+14	7.764483e+13	1.118869e+04	4.365455e+03	2.443485e+03	0	1.395264e-03
2.000000e+07	1.408504e+14	0.000000e+00	8.399998e-01	1.563988e+15	1.474917e+14	7.721546e+13	1.114306e+04	4.561262e+03	2.553085e+03	0	1.389921e-03
3.000000e+07	1.388113e+14	0.000000e+00	8.399998e-01	1.543049e+15	1.889764e+14	7.678930e+13	1.109792e+04	4.749927e+03	2.658686e+03	0	1.383181e-03
4.000000e+07	1.364199e+14	0.000000e+00	8.399998e-01	1.518617e+15	2.361546e+14	7.636632e+13	1.105338e+04	4.930176e+03	2.759578e+03	0	1.375192e-03
5.000000e+07	1.337402e+14	0.000000e+00	8.399998e-01	1.491328e+15	2.883571e+14	7.594649e+13	1.100955e+04	5.100873e+03	2.855122e+03	0	1.366128e-03
6.000000e+07	1.308400e+14	0.000000e+00	8.399998e-01	1.461859e+15	3.446305e+14	7.552979e+13	1.096650e+04	5.261068e+03	2.944789e+03	0	1.356181e-03
7.000000e+07	1.277876e+14	0.000000e+00	8.399998e-01	1.430888e+15	4.038062e+14	7.511620e+13	1.092429e+04	5.410034e+03	3.028169e+03	0	1.345551e-03
8.000000e+07	1.246479e+14	0.000000e+00	8.399998e-01	1.399062e+15	4.645890e+14	7.470568e+13	1.088299e+04	5.547288e+03	3.104995e+03	0	1.334440e-03
9.000000e+07	1.214798e+14	0.000000e+00	8.399998e-01	1.366968e+15	5.256533e+14	7.429822e+13	1.084259e+04	5.672602e+03	3.175137e+03	0	1.323037e-03
1.000000e+08	1.183344e+14	0.000000e+00	8.399998e-01	1.335112e+15	5.857338e+14	7.389378e+13	1.080312e+04	5.785985e+03	3.238601e+03	0	1.311518e-03
1.100000e+08	1.152532e+14	0.000000e+00	8.399998e-01	1.303909e+15	6.437006e+14	7.349234e+13	1.076457e+04	5.887670e+03	3.295518e+03	0	1.300035e-03
1.200000e+08	1.122687e+14	0.000000e+00	8.399998e-01	1.273680e+15	6.986110e+14	7.309388e+13	1.072692e+04	5.978072e+03	3.346119e+03	0	1.288715e-03
1.300000e+08	1.094040e+14	0.000000e+00	8.399998e-01	1.244656e+15	7.497372e+14	7.269837e+13	1.069014e+04	6.057757e+03	3.390721e+03	0	1.277660e-03
1.400000e+08	1.066741e+14	0.000000e+00	8.399998e-01	1.216983e+15	7.965731e+14	7.230578e+13	1.065419e+04	6.127398e+03	3.429701e+03	0	1.266943e-03
1.500000e+08	1.040871e+14	0.000000e+00	8.399998e-01	1.190743e+15	8.388199e+14	7.191610e+13	1.061905e+04	6.187740e+03	3.463476e+03	0	1.256617e-03
1.600000e+08	1.016452e+14	0.000000e+00	8.399998e-01	1.165958e+15	8.763625e+14	7.152929e+13	1.058465e+04	6.239561e+03	3.492482e+03	0	1.246712e-03
1.700000e+08	9.934655e+13	0.000000e+00	8.399998e-01	1.142607e+15	9.092378e+14	7.114534e+13	1.055097e+04	6.283651e+03	3.517161e+03	0	1.237243e-03
1.800000e+08	9.718601e+13	0.000000e+00	8.399998e-01	1.120639e+15	9.376002e+14	7.076422e+13	1.051797e+04	6.320782e+03	3.537945e+03	0	1.228208e-03
1.900000e+08	9.515631e+13	0.000000e+00	8.399998e-01	1.099982e+15	9.616902e+14	7.038591e+13	1.048559e+04	6.351695e+03	3.555248e+03	0	1.219598e-03
2.000000e+08	9.324890e+13	0.000000e+00	8.399998e-01	1.080549e+15	9.818053e+14	7.001038e+13	1.045382e+04	6.377087e+03	3.569460e+03	0	1.211394e-03
2.100000e+08	9.145456e+13	0.000000e+00	8.399998e-01	1.062249e+15	9.982754e+14	6.963761e+13	1.042260e+04	6.397602e+03	3.580943e+03	0	1.203573e-03
2.200000e+08	8.976393e+13	0.000000e+00	8.399998e-01	1.044988e+15	1.011443e+15	6.926758e+13	1.039191e+04	6.413831e+03	3.590027e+03	0	1.196110e-03
2.300000e+08	8.816785e+13	0.000000e+00	8.399998e-01	1.028675e+15	1.021651e+15	6.890027e+13	1.036171e+04	6.426309e+03	3.597011e+03	0	1.188979e-03
2.400000e+08	8.665758e+13	0.000000e+00	8.399998e-01	1.013221e+15	1.029229e+15	6.853565e+13	1.033199e+04	6.435514e+03	3.602164e+03	0	1.182151e-03
2.500000e+08	8.522494e+13	0.000000e+00	8.399998e-01	9.985461e+14	1.034488e+15	6.817370e+13	1.030271e+04	6.441875e+03	3.605724e+03	0	1.175600e-03
2.600000e+08	8.386243e+13	0.000000e+00	8.399998e-01	9.845747e+14	1.037717e+15	6.781440e+13	1.027385e+04	6.445768e+03	3.607903e+03	0	1.169301e-03
2.700000e+08	8.256321e+13	0.000000e+00	8.399998e-01	9.712384e+14	1.039179e+15	6.745772e+13	1.024540e+04	6.447529e+03	3.608889e+03	0	1.163232e-03
2.800000e+08	8.132111e+13	0.000000e+00	8.399998e-01	9.584758e+14	1.039112e+15	6.710365e+13	1.021733e+04	6.447448e+03	3.608843e+03	0	1.157369e-03
2.900000e+08	8.013062e+13	0.000000e+00	8.399998e-01	9.462318e+14	1.037729e+15	6.675217e+13	1.018962e+04	6.445782e+03	3.607911e+03	0	1.151693e-03
3.000000e+08	7.898683e+13	0.000000e+00	8.399998e-01	9.344573e+14	1.035217e+15	6.640324e+13	1.016227e+04	6.442755e+03	3.606216e+03	0	1.146187e-03
3.100000e+08	7.788539e+13	0.000000e+00	8.399998e-01	9.231088e+14	1.031744e+15	6.605686e+13	1.013526e+04	6.438559e+03	3.603868e+03	0	1.140835e-03
3.200000e+08	7.682245e+13	0.000000e+00	8.399998e-01	9.121480e+14	1.027455e+15	6.571300e+13	1.010858e+04	6.433364e+03	3.600960e+03	0	1.135621e-03
3.300000e+08	7.579461e+13	0.000000e+00	8.399998e-01	9.015409e+14	1.022477e+15	6.537164e+13	1.008221e+04	6.427315e+03	3.597574e+03	0	1.130534e-03
3.400000e+08	7.479889e+13	0.000000e+00	8.399998e-01	8.912576e+14	1.016922e+15	6.503276e+13	1.005615e+04	6.420540e+03	3.593782e+03	0	1.125561e-03
3.500000e+08	7.383267e+13	0.000000e+00	8.399998e-01	8.812719e+14	1.010886e+15	6.469634e+13	1.003038e+04	6.413147e+03	3.589644e+03	0	1.120694e-03
3.600000e+08	7.289361e+13	0.000000e+00	8.399998e-01	8.715607e+14	1.004451e+15	6.436235e+13	1.000490e+04	6.405232e+03	3.585213e+03	0	1.115922e-03
3.700000e+08	7.197969e+13	0.000000e+00	8.399998e-01	8.621035e+14	9.976885e+14	6.403079e+13	9.979702e+03	6.396875e+03	3.580536e+03	0	1.111239e-03
3.800000e+08	7.108911e+13	0.000000e+00	8.399998e-01	8.528823e+14	9.906621e+14	6.370162e+13	9.954775e+03	6.388149e+03	3.575652e+03	0	1.106637e-03
3.900000e+08	7.022028e+13	0.000000e+00	8.399998e-01	8.438813e+14	9.834233e+14	6.337483e+13	9.930114e+03	6.379113e+03	3.570594e+03	0	1.102110e-03
4.000000e+08	6.937179e+13	0.000000e+00	8.399998e-01	8.350864e+14	9.760190e+14	6.305041e+13	9.905712e+03	6.369821e+03	3.565393e+03	0	1.097653e-03
4.100000e+08	6.854240e+13	0.000000e+00	8.399998e-01	8.264851e+14	9.684873e+14	6.272832e+13	9.881564e+03	6.360318e+03	3.560074e+03	0	1.093261e-03
4.200000e+08	6.773101e+13	0.000000e+00	8.399998e-01	8.180664e+14	9.608621e+14	6.240855e+13	9.857663e+03	6.350642e+03	3.554658e+03	0	1.088930e-03
4.300000e+08	6.693662e+13	0.000000e+00	8.399998e-01	8.098204e+14	9.531719e+14	6.209109e+13	9.834005e+03	6.340828e+03	3.549165e+03	0	1.084656e-03
4.400000e+08	6.615837e+13	0.000000e+00	8.399998e-01	8.017382e+14	9.454410e+14	6.177591e+13	9.810585e+03	6.330906e+03	3.543611e+03	0	1.080436e-03
4.500000e+08	6.539545e+13	0.000000e+00	8.399998e-01	7.938120e+14	9.376901e+14	6.146300e+13	9.787398e+03	6.320899e+03	3.538010e+03	0	1.076267e-03
4.600000e+08	6.464715e+13	0.000000e+00	8.399998e-01	7.860346e+14	9.299369e+14	6.115233e+13	9.764439e+03	6.310830e+03	3.532374e+03	0	1.072146e-03
4.700000e+08	6.391285e+13	0.000000e+00	8.399998e-01	7.783995e+14	9.221963e+14	6.084389e+13	9.741704e+03	6.300717e+03	3.526714e+03	0	1.068071e-03
4.800000e+08	6.319195e+13	0.000000e+00	8.399998e-01	7.709009e+14	9.144811e+14	6.053766e+13	9.719189e+03	6.290577e+03	3.521038e+03	0	1.064040e-03
4.900000e+08	6.248392e+13	0.000000e+00	8.399998e-01	7.635336e+14	9.068017e+14	6.023362e+13	9.696890e+03	6.280424e+03	3.515354e+03	0	1.060051e-03
5.000000e+08	6.178829e+13	0.000000e+00	8.399998e-01	7.562926e+14	8.991670e+14	5.993176e+13	9.674804e+03	6.270268e+03	3.509670e+03	0	1.056102e-03
5.100000e+08	6.110460e+13	0.000000e+00	8.399998e-01	7.491734e+14	8.915851e+14	5.963206e+13	9.652926e+03	6.260121e+03	3.503990e+03	0	1.052193e-03
5.200000e+08	6.043246e+13	0.000000e+00	8.399998e-01	7.421721e+14	8.840612e+14	5.933449e+13	9.631254e+03	6.249991e+03	3.498320e+03	0	1.048321e-03
5.300000e+08	5.977149e+13	0.000000e+00	8.399998e-01	7.352847e+14	8.766013e+14	5.903904e+13	9.609783e+03	6.239886e+03	3.492664e+03	0	1.044485e-03
5.400000e+08	5.912133e+13	0.000000e+00	8.399998e-01	7.285078e+14	8.692093e+14	5.874570e+13	9.588511e+03	6.229812e+03	3.487025e+03	0	1.040684e-03
5.500000e+08	5.848166e+13	0.000000e+00	8.399998e-01	7.218381e+14	8.618888e+14	5.845445e+13	9.567435e+03	6.219774e+03	3.481407e+03	0	1.036917e-03
5.600000e+08	5.785219e+13	0.000000e+00	8.399998e-01	7.152726e+14	8.546422e+14	5.816527e+13	9.546551e+03	6.209778e+03	3.475812e+03	0	1.033183e-03
5.700000e+08	5.723262e+13	0.000000e+00	8.399998e-01	7.088083e+14	8.474721e+14	5.787814e+13	9.525855e+03	6.199827e+03	3.470242e+03	0	1.029481e-03
5.800000e+08	5.662269e+13	0.000000e+00	8.399998e-01	7.024426e+14	8.403796e+14	5.759304e+13	9.505347e+03	6.189925e+03	3.464700e+03	0	1.025811e-03
5.900000e+08	5.602214e+13	0.000000e+00	8.399998e-01	6.961730e+14	8.333663e+14	5.730997e+13	9.485022e+03	6.180074e+03	3.459186e+03	0	1.022172e-03
6.000000e+08	5.543075e+13	0.000000e+00	8.399998e-01	6.899969e+14	8.264332e+14	5.702890e+13	9.464878e+03	6.170278e+03	3.453702e+03	0	1.018562e-03
6.100000e+08	5.484828e+13	0.000000e+00	8.399998e-01	6.839123e+14	8.195806e+14	5.674983e+13	9.444911e+03	6.160537e+03	3.448250e+03	0	1.014982e-03
6.200000e+08	5.427452e+13	0.000000e+00	8.399998e-01	6.779168e+14	8.128089e+14	5.647272e+13	9.425121e+03	6.150853e+03	3.442830e+03	0	1.011430e-03
6.300000e+08	5.370927e+13	0.000000e+00	8.399998e-01	6.720084e+14	8.061180e+14	5.619757e+13	9.405503e+03	6.141228e+03	3.437442e+03	0	1.007907e-03
6.400000e+08	5.315232e+13	0.000000e+00	8.399998e-01	6.661851e+14	7.995079e+14	5.592436e+13	9.386056e+03	6.131663e+03	3.432089e+03	0	1.004411e-03
6.500000e+08	5.260350e+13	0.000000e+00	8.399998e-01	6.604451e+14	7.929785e+14	5.565307e+13	9.366776e+03	6.122159e+03	3.426769e+03	0	1.000942e-03
6.600000e+08	5.206263e+13	0.000000e+00	8.399998e-01	6.547866e+14	7.865288e+14	5.538369e+13	9.347662e+03	6.112716e+03	3.421483e+03	0	9.974995e-04
6.700000e+08	5.152953e+13	0.000000e+00	8.399998e-01	6.492077e+14	7.801587e+14	5.511621e+13	9.328712e+03	6.103334e+03	3.416232e+03	0	9.940832e-04
6.800000e+08	5.100403e+13	0.000000e+00	8.399998e-01	6.437068e+14	7.738676e+14	5.485060e+13	9.309922e+03	6.094015e+03	3.411016e+03	0	9.906924e-04
6.900000e+08	5.048599e+13	0.000000e+00	8.399998e-01	6.382823e+14	7.676545e+14	5.458686e+13	9.291291e+03	6.084758e+03	3.405834e+03	0	9.873269e-04
7.000000e+08	4.997524e+13	0.000000e+00	8.399998e-01	6.329327e+14	7.615189e+14	5.432497e+13	9.272817e+03	6.075563e+03	3.400687e+03	0	9.839861e-04
7.100000e+08	4.947163e+13	0.000000e+00	8.399998e-01	6.276564e+14	7.554593e+14	5.406491e+13	9.254497e+03	6.066430e+03	3.395575e+03	0	9.806697e-04
7.200000e+08	4.897503e+13	0.000000e+00	8.399998e-01	6.224520e+14	7.494757e+14	5.380667e+13	9.236329e+03	6.057360e+03	3.390498e+03	0	9.773773e-04
7.300000e+08	4.848530e+13	0.000000e+00	8.399998e-01	6.173180e+14	7.435665e+14	5.355024e+13	9.218311e+03	6.048351e+03	3.385456e+03	0	9.741086e-04
7.400000e+08	4.800229e+13	0.000000e+00	8.399998e-01	6.122531e+14	7.377313e+14	5.329559e+13	9.200441e+03	6.039404e+03	3.380448e+03	0	9.708631e-04
7.500000e+08	4.752589e+13	0.000000e+00	8.399998e-01	6.072560e+14	7.319685e+14	5.304272e+13	9.182718e+03	6.030519e+03	3.375475e+03	0	9.676406e-04
7.600000e+08	4.705595e+13	0.000000e+00	8.399998e-01	6.023253e+14	7.262777e+14	5.279161e+13	9.165139e+03	6.021694e+03	3.370535e+03	0	9.644407e-04
7.700000e+08	4.659237e+13	0.000000e+00	8.399998e-01	5.974599e+14	7.206572e+14	5.254225e+13	9.147702e+03	6.012931e+03	3.365630e+03	0	9.612631e-04
7.800000e+08	4.613502e+13	0.000000e+00	8.399998e-01	5.926585e+14	7.151066e+14	5.229462e+13	9.130405e+03	6.004227e+03	3.360759e+03	0	9.581075e-04
7.900000e+08	4.568377e+13	0.000000e+00	8.399998e-01	5.879198e+14	7.096245e+14	5.204871e+13	9.113247e+03	5.995584e+03	3.355920e+03	0	9.549735e-04
8.000000e+08	4.523853e+13	0.000000e+00	8.399998e-01	5.832429e+14	7.042104e+14	5.180451e+13	9.096226e+03	5.987000e+03	3.351116e+03	0	9.518609e-04
8.100000e+08	4.479918e+13	0.000000e+00	8.399998e-01	5.786265e+14	6.988626e+14	5.156199e+13	9.079340e+03	5.978474e+03	3.346344e+03	0	9.487695e-04
8.200000e+08	4.436561e+13	0.000000e+00	8.399998e-01	5.740696e+14	6.935806e+14	5.132116e+13	9.062587e+03	5.970008e+03	3.341605e+03	0	9.456988e-04
8.300000e+08	4.393772e+13	0.000000e+00	8.399998e-01	5.695710e+14	6.883630e+14	5.108199e+13	9.045965e+03	5.961599e+03	3.336898e+03	0	9.426486e-04
8.400000e+08	4.351540e+13	0.000000e+00	8.399998e-01	5.651298e+14	6.832091e+14	5.084448e+13	9.029474e+03	5.953247e+03	3.332223e+03	0	9.396188e-04
8.500000e+08	4.309856e+13	0.000000e+00	8.399998e-01	5.607449e+14	6.781179e+14	5.060860e+13	9.013111e+03	5.944953e+03	3.327581e+03	0	9.366089e-04
8.600000e+08	4.268710e+13	0.000000e+00	8.399998e-01	5.564154e+14	6.730884e+14	5.037435e+13	8.996874e+03	5.936714e+03	3.322969e+03	0	9.336187e-04
8.700000e+08	4.228092e+13	0.000000e+00	8.399998e-01	5.521402e+14	6.681195e+14	5.014171e+13	8.980762e+03	5.928532e+03	3.318389e+03	0	9.306481e-04
8.800000e+08	4.187993e+13	0.000000e+00	8.399998e-01	5.479184e+14	6.632105e+14	4.991067e+13	8.964774e+03	5.920405e+03	3.313840e+03	0	9.276967e-04
8.900000e+08	4.148405e+13	0.000000e+00	8.399998e-01	5.437492e+14	6.583602e+14	4.968122e+13	8.948907e+03	5.912332e+03	3.309322e+03	0	9.247643e-04
9.000000e+08	4.109317e+13	0.000000e+00	8.399998e-01	5.396315e+14	6.535678e+14	4.945335e+13	8.933161e+03	5.904314e+03	3.304834e+03	0	9.218506e-04
9.100000e+08	4.070722e+13	0.000000e+00	8.399998e-01	5.355646e+14	6.488323e+14	4.922703e+13	8.917534e+03	5.896349e+03	3.300375e+03	0	9.189555e-04
9.200000e+08	4.032611e+13	0.000000e+00	8.399998e-01	5.315476e+14	6.441530e+14	4.900227e+13	8.902024e+03	5.888437e+03	3.295947e+03	0	9.160787e-04
9.300000e+08	3.994976e+13	0.000000e+00	8.399998e-01	5.275795e+14	6.395288e+14	4.877904e+13	8.886630e+03	5.880578e+03	3.291548e+03	0	9.132200e-04
9.400000e+08	3.957809e+13	0.000000e+00	8.399998e-01	5.236597e+14	6.349591e+14	4.855734e+13	8.871351e+03	5.872770e+03	3.287178e+03	0	9.103791e-04
9.500000e+08	3.921102e+13	0.000000e+00	8.399998e-01	5.197872e+14	6.304427e+14	4.833715e+13	8.856185e+03	5.865015e+03	3.282837e+03	0	9.075559e-04
9.600000e+08	3.884847e+13	0.000000e+00	8.399998e-01	5.159614e+14	6.259791e+14	4.811847e+13	8.841131e+03	5.857310e+03	3.278524e+03	0	9.047501e-04
9.700000e+08	3.849037e+13	0.000000e+00	8.399998e-01	5.121814e+14	6.215672e+14	4.790127e+13	8.826187e+03	5.849655e+03	3.274240e+03	0	9.019615e-04
9.800000e+08	3.813663e+13	0.000000e+00	8.399998e-01	5.084464e+14	6.172063e+14	4.768555e+13	8.811352e+03	5.842051e+03	3.269983e+03	0	8.991900e-04
9.900000e+08	3.778720e+13	0.000000e+00	8.399998e-01	5.047559e+14	6.128956e+14	4.747130e+13	8.796626e+03	5.834495e+03	3.265754e+03	0	8.964352e-04
1.000000e+09	3.744200e+13	0.000000e+00	8.399998e-01	5.011089e+14	6.086344e+14	4.725850e+13	8.782005e+03	5.826989e+03	3.261553e+03	0	8.936971e-04
1.010000e+09	3.710096e+13	0.000000e+00	8.399998e-01	4.975048e+14	6.044218e+14	4.704714e+13	8.767491e+03	5.819531e+03	3.257378e+03	0	8.909754e-04
1.020000e+09	3.676401e+13	0.000000e+00	8.399998e-01	4.939430e+14	6.002571e+14	4.683722e+13	8.753080e+03	5.812121e+03	3.253230e+03	0	8.882699e-04
1.030000e+09	3.643108e+13	0.000000e+00	8.399998e-01	4.904227e+14	5.961396e+14	4.662872e+13	8.738772e+03	5.804758e+03	3.249109e+03	0	8.855805e-04
1.040000e+09	3.610212e+13	0.000000e+00	8.399998e-01	4.869432e+14	5.920685e+14	4.642162e+13	8.724566e+03	5.797442e+03	3.245014e+03	0	8.829069e-04
1.050000e+09	3.577705e+13	0.000000e+00	8.399998e-01	4.835040e+14	5.880431e+14	4.621593e+13	8.710461e+03	5.790172e+03	3.240945e+03	0	8.802490e-04
1.060000e+09	3.545582e+13	0.000000e+00	8.399998e-01	4.801044e+14	5.840628e+14	4.601162e+13	8.696454e+03	5.782948e+03	3.236901e+03	0	8.776066e-04
1.070000e+09	3.513836e+13	0.000000e+00	8.399998e-01	4.767438e+14	5.801267e+14	4.580869e+13	8.682546e+03	5.775770e+03	3.232883e+03	0	8.749794e-04
1.080000e+09	3.482462e+13	0.000000e+00	8.399998e-01	4.734215e+14	5.762344e+14	4.560712e+13	8.668735e+03	5.768636e+03	3.228891e+03	0	8.723675e-04
1.090000e+09	3.451453e+13	0.000000e+00	8.399998e-01	4.701369e+14	5.723852e+14	4.540691e+13	8.655020e+03	5.761547e+03	3.224923e+03	0	8.697705e-04
1.100000e+09	3.420804e+13	0.000000e+00	8.399998e-01	4.668895e+14	5.685781e+14	4.520804e+13	8.641400e+03	5.754502e+03	3.220979e+03	0	8.671883e-04
1.110000e+09	3.390509e+13	0.000000e+00	8.399998e-01	4.636787e+14	5.648128e+14	4.501051e+13	8.627874e+03	5.747501e+03	3.217060e+03	0	8.646207e-04
1.120000e+09	3.360562e+13	0.000000e+00	8.399998e-01	4.605039e+14	5.610887e+14	4.481430e+13	8.614440e+03	5.740542e+03	3.213166e+03	0	8.620676e-04
1.130000e+09	3.330959e+13	0.000000e+00	8.399998e-01	4.573646e+14	5.574050e+14	4.461940e+13	8.601099e+03	5.733627e+03	3.209295e+03	0	8.595288e-04
1.140000e+09	3.301693e+13	0.000000e+00	8.399998e-01	4.542602e+14	5.537611e+14	4.442581e+13	8.587848e+03	5.726753e+03	3.205447e+03	0	8.570041e-04
1.150000e+09	3.272760e+13	0.000000e+00	8.399998e-01	4.511902e+14	5.501565e+14	4.423351e+13	8.574686e+03	5.719922e+03	3.201624e+03	0	8.544934e-04
1.160000e+09	3.244155e+13	0.000000e+00	8.399998e-01	4.481541e+14	5.465906e+14	4.404249e+13	8.561614e+03	5.713131e+03	3.197823e+03	0	8.519966e-04
1.170000e+09	3.215872e+13	0.000000e+00	8.399998e-01	4.451513e+14	5.430628e+14	4.385274e+13	8.548629e+03	5.706382e+03	3.194045e+03	0	8.495134e-04
1.180000e+09	3.187906e+13	0.000000e+00	8.399998e-01	4.421814e+14	5.395727e+14	4.366426e+13	8.535731e+03	5.699674e+03	3.190290e+03	0	8.470438e-04
1.190000e+09	3.160254e+13	0.000000e+00	8.399998e-01	4.392438e+14	5.361195e+14	4.347703e+13	8.522918e+03	5.693005e+03	3.186557e+03	0	8.445875e-04
1.200000e+09	3.132909e+13	0.000000e+00	8.399998e-01	4.363381e+14	5.327028e+14	4.329104e+13	8.510191e+03	5.686376e+03	3.182847e+03	0	8.421445e-04
1.210000e+09	3.105868e+13	0.000000e+00	8.399998e-01	4.334638e+14	5.293220e+14	4.310629e+13	8.497548e+03	5.679787e+03	3.179159e+03	0	8.397146e-04
1.220000e+09	3.079126e+13	0.000000e+00	8.399998e-01	4.306205e+14	5.259768e+14	4.292276e+13	8.484987e+03	5.673236e+03	3.175492e+03	0	8.372976e-04
1.230000e+09	3.052679e+13	0.000000e+00	8.399998e-01	4.278076e+14	5.226662e+14	4.274044e+13	8.472509e+03	5.666725e+03	3.171847e+03	0	8.348934e-04
1.240000e+09	3.026521e+13	0.000000e+00	8.399998e-01	4.250248e+14	5.193903e+14	4.255933e+13	8.460112e+03	5.660251e+03	3.168224e+03	0	8.325019e-04
1.250000e+09	3.000649e+13	0.000000e+00	8.399998e-01	4.222716e+14	5.161481e+14	4.237942e+13	8.447796e+03	5.653815e+03	3.164622e+03	0	8.301229e-04
1.260000e+09	2.975059e+13	0.000000e+00	8.399998e-01	4.195475e+14	5.129395e+14	4.220069e+13	8.435559e+03	5.647417e+03	3.161040e+03	0	8.277563e-04
1.270000e+09	2.949746e+13	0.000000e+00	8.399998e-01	4.168521e+14	5.097638e+14	4.202314e+13	8.423401e+03	5.641056e+03	3.157480e+03	0	8.254020e-04
1.280000e+09	2.924706e+13	0.000000e+00	8.399998e-01	4.141851e+14	5.066206e+14	4.184675e+13	8.411320e+03	5.634731e+03	3.153940e+03	0	8.230598e-04
1.290000e+09	2.899936e+13	0.000000e+00	8.399998e-01	4.115460e+14	5.035094e+14	4.167153e+13	8.399317e+03	5.628443e+03	3.150420e+03	0	8.207297e-04
1.300000e+09	2.875431e+13	0.000000e+00	8.399998e-01	4.089345e+14	5.004299e+14	4.149745e+13	8.387390e+03	5.622191e+03	3.146921e+03	0	8.184114e-04
1.310000e+09	2.851188e+13	0.000000e+00	8.399998e-01	4.063500e+14	4.973814e+14	4.132452e+13	8.375539e+03	5.615975e+03	3.143441e+03	0	8.161048e-04
1.320000e+09	2.827202e+13	0.000000e+00	8.399998e-01	4.037923e+14	4.943637e+14	4.115272e+13	8.363762e+03	5.609794e+03	3.139981e+03	0	8.138099e-04
1.330000e+09	2.803471e+13	0.000000e+00	8.399998e-01	4.012609e+14	4.913763e+14	4.098204e+13	8.352060e+03	5.603647e+03	3.136541e+03	0	8.115265e-04
1.340000e+09	2.779990e+13	0.000000e+00	8.399998e-01	3.987555e+14	4.884187e+14	4.081248e+13	8.340430e+03	5.597536e+03	3.133120e+03	0	8.092545e-04
1.350000e+09	2.756757e+13	0.000000e+00	8.399998e-01	3.962757e+14	4.854906e+14	4.064403e+13	8.328873e+03	5.591459e+03	3.129719e+03	0	8.069937e-04
1.360000e+09	2.733766e+13	0.000000e+00	8.399998e-01	3.938212e+14	4.825915e+14	4.047667e+13	8.317388e+03	5.585416e+03	3.126336e+03	0	8.047441e-04
