#t		Qconv[W]	Ri[Rp]		R*[Rp]		Qc[W]		Qm[W]		Qr[W]		Tcmb[K]		Tl[K]		Tup[K]		RiFlag		Bs[T]
0.000000e+00	2.094206e+14	0.000000e+00	8.378375e-01	2.244788e+15	8.613501e+13	1.105822e+14	1.322569e+04	4.567361e+03	2.480901e+03	0	1.569936e-03
1.000000e+07	2.095404e+14	0.000000e+00	8.378375e-01	2.244539e+15	1.156155e+14	1.099695e+14	1.318630e+04	4.773841e+03	2.593057e+03	0	1.570236e-03
2.000000e+07	2.090581e+14	0.000000e+00	8.378375e-01	2.239078e+15	1.515699e+14	1.093613e+14	1.314691e+04	4.977251e+03	2.703545e+03	0	1.569030e-03
3.000000e+07	2.079941e+14	0.000000e+00	8.378375e-01	2.228584e+15	1.943789e+14	1.087578e+14	1.310763e+04	5.176502e+03	2.811774e+03	0	1.566364e-03
4.000000e+07	2.063813e+14	0.000000e+00	8.378375e-01	2.213346e+15	2.441876e+14	1.081587e+14	1.306852e+04	5.370497e+03	2.917148e+03	0	1.562305e-03
5.000000e+07	2.042648e+14	0.000000e+00	8.378375e-01	2.193756e+15	3.008679e+14	1.075641e+14	1.302969e+04	5.558165e+03	3.019086e+03	0	1.556946e-03
6.000000e+07	2.016998e+14	0.000000e+00	8.378375e-01	2.170294e+15	3.640017e+14	1.069739e+14	1.299119e+04	5.738496e+03	3.117038e+03	0	1.550401e-03
7.000000e+07	1.987495e+14	0.000000e+00	8.378375e-01	2.143511e+15	4.328868e+14	1.063881e+14	1.295311e+04	5.910575e+03	3.210508e+03	0	1.542805e-03
8.000000e+07	1.954822e+14	0.000000e+00	8.378375e-01	2.113998e+15	5.065681e+14	1.058067e+14	1.291550e+04	6.073613e+03	3.299067e+03	0	1.534304e-03
9.000000e+07	1.919682e+14	0.000000e+00	8.378375e-01	2.082367e+15	5.838889e+14	1.052296e+14	1.287840e+04	6.226974e+03	3.382370e+03	0	1.525054e-03
1.000000e+08	1.882770e+14	0.000000e+00	8.378375e-01	2.049220e+15	6.635587e+14	1.046568e+14	1.284186e+04	6.370189e+03	3.460162e+03	0	1.515217e-03
1.100000e+08	1.844745e+14	0.000000e+00	8.378375e-01	2.015128e+15	7.442289e+14	1.040882e+14	1.280590e+04	6.502966e+03	3.532283e+03	0	1.504946e-03
1.200000e+08	1.806207e+14	0.000000e+00	8.378375e-01	1.980611e+15	8.245684e+14	1.035239e+14	1.277054e+04	6.625188e+03	3.598672e+03	0	1.494393e-03
1.300000e+08	1.767683e+14	0.000000e+00	8.378375e-01	1.946127e+15	9.033299e+14	1.029637e+14	1.273578e+04	6.736904e+03	3.659354e+03	0	1.483692e-03
1.400000e+08	1.729618e+14	0.000000e+00	8.378375e-01	1.912060e+15	9.794046e+14	1.024077e+14	1.270163e+04	6.838315e+03	3.714439e+03	0	1.472965e-03
1.500000e+08	1.692370e+14	0.000000e+00	8.378375e-01	1.878720e+15	1.051859e+15	1.018558e+14	1.266807e+04	6.929749e+03	3.764103e+03	0	1.462314e-03
1.600000e+08	1.656215e+14	0.000000e+00	8.378375e-01	1.846345e+15	1.119955e+15	1.013079e+14	1.263509e+04	7.011639e+03	3.808584e+03	0	1.451826e-03
1.700000e+08	1.621352e+14	0.000000e+00	8.378375e-01	1.815106e+15	1.183155e+15	1.007641e+14	1.260269e+04	7.084499e+03	3.848161e+03	0	1.441566e-03
1.800000e+08	1.587908e+14	0.000000e+00	8.378375e-01	1.785114e+15	1.241113e+15	1.002244e+14	1.257083e+04	7.148899e+03	3.883141e+03	0	1.431586e-03
1.900000e+08	1.555957e+14	0.000000e+00	8.378375e-01	1.756431e+15	1.293653e+15	9.968855e+13	1.253949e+04	7.205443e+03	3.913855e+03	0	1.421919e-03
2.000000e+08	1.525521e+14	0.000000e+00	8.378375e-01	1.729077e+15	1.340751e+15	9.915669e+13	1.250866e+04	7.254749e+03	3.940637e+03	0	1.412586e-03
2.100000e+08	1.496586e+14	0.000000e+00	8.378375e-01	1.703038e+15	1.382503e+15	9.862873e+13	1.247831e+04	7.297433e+03	3.963822e+03	0	1.403598e-03
2.200000e+08	1.469112e+14	0.000000e+00	8.378375e-01	1.678278e+15	1.419103e+15	9.810465e+13	1.244841e+04	7.334099e+03	3.983738e+03	0	1.394956e-03
2.300000e+08	1.443036e+14	0.000000e+00	8.378375e-01	1.654742e+15	1.450813e+15	9.758442e+13	1.241895e+04	7.365323e+03	4.000698e+03	0	1.386653e-03
2.400000e+08	1.418282e+14	0.000000e+00	8.378375e-01	1.632365e+15	1.477942e+15	9.706800e+13	1.238990e+04	7.391651e+03	4.015000e+03	0	1.378679e-03
2.500000e+08	1.394768e+14	0.000000e+00	8.378375e-01	1.611074e+15	1.500828e+15	9.655537e+13	1.236124e+04	7.413596e+03	4.026920e+03	0	1.371017e-03
2.600000e+08	1.372407e+14	0.000000e+00	8.378375e-01	1.590793e+15	1.519822e+15	9.604648e+13	1.233295e+04	7.431628e+03	4.036714e+03	0	1.363651e-03
2.700000e+08	1.351113e+14	0.000000e+00	8.378375e-01	1.571446e+15	1.535276e+15	9.554132e+13	1.230502e+04	7.446181e+03	4.044619e+03	0	1.356561e-03
2.800000e+08	1.330800e+14	0.000000e+00	8.378375e-01	1.552961e+15	1.547534e+15	9.503985e+13	1.227743e+04	7.457650e+03	4.050849e+03	0	1.349729e-03
2.900000e+08	1.311387e+14	0.000000e+00	8.378375e-01	1.535266e+15	1.556922e+15	9.454203e+13	1.225016e+04	7.466391e+03	4.055597e+03	0	1.343134e-03
3.000000e+08	1.292799e+14	0.000000e+00	8.378375e-01	1.518294e+15	1.563751e+15	9.404785e+13	1.222321e+04	7.472724e+03	4.059037e+03	0	1.336757e-03
3.100000e+08	1.274965e+14	0.000000e+00	8.378375e-01	1.501985e+15	1.568307e+15	9.355726e+13	1.219655e+04	7.476939e+03	4.061327e+03	0	1.330582e-03
3.200000e+08	1.257818e+14	0.000000e+00	8.378375e-01	1.486280e+15	1.570854e+15	9.307025e+13	1.217017e+04	7.479292e+03	4.062605e+03	0	1.324590e-03
3.300000e+08	1.241300e+14	0.000000e+00	8.378375e-01	1.471128e+15	1.571634e+15	9.258677e+13	1.214407e+04	7.480012e+03	4.062995e+03	0	1.318766e-03
3.400000e+08	1.225357e+14	0.000000e+00	8.378375e-01	1.456483e+15	1.570863e+15	9.210681e+13	1.211824e+04	7.479300e+03	4.062609e+03	0	1.313096e-03
3.500000e+08	1.209938e+14	0.000000e+00	8.378375e-01	1.442300e+15	1.568737e+15	9.163033e+13	1.209266e+04	7.477337e+03	4.061543e+03	0	1.307565e-03
3.600000e+08	1.195002e+14	0.000000e+00	8.378375e-01	1.428543e+15	1.565432e+15	9.115730e+13	1.206733e+04	7.474281e+03	4.059883e+03	0	1.302162e-03
3.700000e+08	1.180507e+14	0.000000e+00	8.378375e-01	1.415176e+15	1.561105e+15	9.068770e+13	1.204224e+04	7.470273e+03	4.057705e+03	0	1.296876e-03
3.800000e+08	1.166419e+14	0.000000e+00	8.378375e-01	1.402168e+15	1.555894e+15	9.022150e+13	1.201739e+04	7.465435e+03	4.055078e+03	0	1.291696e-03
3.900000e+08	1.152706e+14	0.000000e+00	8.378375e-01	1.389493e+15	1.549921e+15	8.975866e+13	1.199276e+04	7.459876e+03	4.052058e+03	0	1.286614e-03
4.000000e+08	1.139339e+14	0.000000e+00	8.378375e-01	1.377125e+15	1.543295e+15	8.929917e+13	1.196835e+04	7.453691e+03	4.048699e+03	0	1.281622e-03
4.100000e+08	1.126295e+14	0.000000e+00	8.378375e-01	1.365043e+15	1.536112e+15	8.884300e+13	1.194417e+04	7.446965e+03	4.045045e+03	0	1.276712e-03
4.200000e+08	1.113549e+14	0.000000e+00	8.378375e-01	1.353227e+15	1.528455e+15	8.839011e+13	1.192019e+04	7.439770e+03	4.041137e+03	0	1.271878e-03
4.300000e+08	1.101083e+14	0.000000e+00	8.378375e-01	1.341659e+15	1.520398e+15	8.794048e+13	1.189642e+04	7.432172e+03	4.037010e+03	0	1.267114e-03
4.400000e+08	1.088879e+14	0.000000e+00	8.378375e-01	1.330324e+15	1.512005e+15	8.749409e+13	1.187285e+04	7.424227e+03	4.032694e+03	0	1.262415e-03
4.500000e+08	1.076920e+14	0.000000e+00	8.378375e-01	1.319208e+15	1.503334e+15	8.705091e+13	1.184948e+04	7.415985e+03	4.028217e+03	0	1.257776e-03
4.600000e+08	1.065192e+14	0.000000e+00	8.378375e-01	1.308299e+15	1.494433e+15	8.661090e+13	1.182631e+04	7.407489e+03	4.023602e+03	0	1.253194e-03
4.700000e+08	1.053682e+14	0.000000e+00	8.378375e-01	1.297585e+15	1.485346e+15	8.617406e+13	1.180333e+04	7.398777e+03	4.018870e+03	0	1.248664e-03
4.800000e+08	1.042380e+14	0.000000e+00	8.378375e-01	1.287056e+15	1.476109e+15	8.574034e+13	1.178053e+04	7.389884e+03	4.014040e+03	0	1.244183e-03
4.900000e+08	1.031274e+14	0.000000e+00	8.378375e-01	1.276704e+15	1.466756e+15	8.530973e+13	1.175792e+04	7.380838e+03	4.009126e+03	0	1.239748e-03
5.000000e+08	1.020355e+14	0.000000e+00	8.378375e-01	1.266520e+15	1.457316e+15	8.488219e+13	1.173549e+04	7.371665e+03	4.004144e+03	0	1.235358e-03
5.100000e+08	1.009616e+14	0.000000e+00	8.378375e-01	1.256496e+15	1.447812e+15	8.445772e+13	1.171324e+04	7.362389e+03	3.999105e+03	0	1.231008e-03
5.200000e+08	9.990477e+13	0.000000e+00	8.378375e-01	1.246627e+15	1.438267e+15	8.403627e+13	1.169117e+04	7.353027e+03	3.994020e+03	0	1.226698e-03
5.300000e+08	9.886440e+13	0.000000e+00	8.378375e-01	1.236905e+15	1.428699e+15	8.361782e+13	1.166926e+04	7.343599e+03	3.988899e+03	0	1.222425e-03
5.400000e+08	9.783986e+13	0.000000e+00	8.378375e-01	1.227326e+15	1.419124e+15	8.320236e+13	1.164753e+04	7.334119e+03	3.983749e+03	0	1.218188e-03
5.500000e+08	9.683056e+13	0.000000e+00	8.378375e-01	1.217885e+15	1.409556e+15	8.278986e+13	1.162597e+04	7.324600e+03	3.978579e+03	0	1.213984e-03
5.600000e+08	9.583598e+13	0.000000e+00	8.378375e-01	1.208576e+15	1.400007e+15	8.238028e+13	1.160457e+04	7.315054e+03	3.973394e+03	0	1.209814e-03
5.700000e+08	9.485565e+13	0.000000e+00	8.378375e-01	1.199396e+15	1.390489e+15	8.197362e+13	1.158333e+04	7.305491e+03	3.968199e+03	0	1.205674e-03
5.800000e+08	9.388911e+13	0.000000e+00	8.378375e-01	1.190341e+15	1.381008e+15	8.156984e+13	1.156226e+04	7.295921e+03	3.963001e+03	0	1.201565e-03
5.900000e+08	9.293595e+13	0.000000e+00	8.378375e-01	1.181407e+15	1.371574e+15	8.116892e+13	1.154134e+04	7.286350e+03	3.957802e+03	0	1.197485e-03
6.000000e+08	9.199580e+13	0.000000e+00	8.378375e-01	1.172590e+15	1.362192e+15	8.077084e+13	1.152058e+04	7.276786e+03	3.952607e+03	0	1.193434e-03
6.100000e+08	9.106829e+13	0.000000e+00	8.378375e-01	1.163888e+15	1.352869e+15	8.037557e+13	1.149998e+04	7.267235e+03	3.947419e+03	0	1.189409e-03
6.200000e+08	9.015310e+13	0.000000e+00	8.378375e-01	1.155298e+15	1.343609e+15	7.998310e+13	1.147953e+04	7.257701e+03	3.942241e+03	0	1.185412e-03
6.300000e+08	8.924992e+13	0.000000e+00	8.378375e-01	1.146816e+15	1.334416e+15	7.959340e+13	1.145922e+04	7.248190e+03	3.937075e+03	0	1.181440e-03
6.400000e+08	8.835844e+13	0.000000e+00	8.378375e-01	1.138441e+15	1.325293e+15	7.920645e+13	1.143907e+04	7.238705e+03	3.931923e+03	0	1.177493e-03
6.500000e+08	8.747841e+13	0.000000e+00	8.378375e-01	1.130169e+15	1.316243e+15	7.882222e+13	1.141906e+04	7.229250e+03	3.926787e+03	0	1.173571e-03
6.600000e+08	8.660956e+13	0.000000e+00	8.378375e-01	1.121999e+15	1.307269e+15	7.844070e+13	1.139920e+04	7.219828e+03	3.921669e+03	0	1.169672e-03
6.700000e+08	8.575165e+13	0.000000e+00	8.378375e-01	1.113929e+15	1.298372e+15	7.806186e+13	1.137948e+04	7.210441e+03	3.916570e+03	0	1.165797e-03
6.800000e+08	8.490444e+13	0.000000e+00	8.378375e-01	1.105955e+15	1.289553e+15	7.768568e+13	1.135991e+04	7.201091e+03	3.911491e+03	0	1.161945e-03
6.900000e+08	8.406771e+13	0.000000e+00	8.378375e-01	1.098077e+15	1.280815e+15	7.731214e+13	1.134047e+04	7.191781e+03	3.906434e+03	0	1.158116e-03
7.000000e+08	8.324124e+13	0.000000e+00	8.378375e-01	1.090292e+15	1.272156e+15	7.694122e+13	1.132117e+04	7.182511e+03	3.901399e+03	0	1.154308e-03
7.100000e+08	8.242485e+13	0.000000e+00	8.378375e-01	1.082599e+15	1.263580e+15	7.657289e+13	1.130201e+04	7.173284e+03	3.896387e+03	0	1.150522e-03
7.200000e+08	8.161833e+13	0.000000e+00	8.378375e-01	1.074996e+15	1.255085e+15	7.620714e+13	1.128298e+04	7.164101e+03	3.891399e+03	0	1.146757e-03
7.300000e+08	8.082149e+13	0.000000e+00	8.378375e-01	1.067481e+15	1.246671e+15	7.584395e+13	1.126409e+04	7.154962e+03	3.886434e+03	0	1.143013e-03
7.400000e+08	8.003416e+13	0.000000e+00	8.378375e-01	1.060053e+15	1.238340e+15	7.548329e+13	1.124532e+04	7.145868e+03	3.881495e+03	0	1.139289e-03
7.500000e+08	7.925617e+13	0.000000e+00	8.378375e-01	1.052709e+15	1.230090e+15	7.512515e+13	1.122669e+04	7.136820e+03	3.876580e+03	0	1.135586e-03
7.600000e+08	7.848734e+13	0.000000e+00	8.378375e-01	1.045450e+15	1.221922e+15	7.476950e+13	1.120819e+04	7.127818e+03	3.871691e+03	0	1.131902e-03
7.700000e+08	7.772752e+13	0.000000e+00	8.378375e-01	1.038272e+15	1.213835e+15	7.441632e+13	1.118981e+04	7.118864e+03	3.866827e+03	0	1.128237e-03
7.800000e+08	7.697656e+13	0.000000e+00	8.378375e-01	1.031175e+15	1.205829e+15	7.406560e+13	1.117156e+04	7.109957e+03	3.861989e+03	0	1.124592e-03
7.900000e+08	7.623429e+13	0.000000e+00	8.378375e-01	1.024158e+15	1.197903e+15	7.371732e+13	1.115343e+04	7.101097e+03	3.857176e+03	0	1.120966e-03
8.000000e+08	7.550059e+13	0.000000e+00	8.378375e-01	1.017218e+15	1.190057e+15	7.337145e+13	1.113543e+04	7.092285e+03	3.852390e+03	0	1.117358e-03
8.100000e+08	7.477529e+13	0.000000e+00	8.378375e-01	1.010356e+15	1.182291e+15	7.302798e+13	1.111755e+04	7.083521e+03	3.847629e+03	0	1.113769e-03
8.200000e+08	7.405827e+13	0.000000e+00	8.378375e-01	1.003568e+15	1.174602e+15	7.268688e+13	1.109979e+04	7.074804e+03	3.842895e+03	0	1.110197e-03
8.300000e+08	7.334939e+13	0.000000e+00	8.378375e-01	9.968557e+14	1.166992e+15	7.234814e+13	1.108215e+04	7.066136e+03	3.838186e+03	0	1.106644e-03
8.400000e+08	7.264852e+13	0.000000e+00	8.378375e-01	9.902162e+14	1.159458e+15	7.201175e+13	1.106462e+04	7.057515e+03	3.833503e+03	0	1.103108e-03
8.500000e+08	7.195554e+13	0.000000e+00	8.378375e-01	9.836488e+14	1.152001e+15	7.167767e+13	1.104721e+04	7.048941e+03	3.828846e+03	0	1.099589e-03
8.600000e+08	7.127031e+13	0.000000e+00	8.378375e-01	9.771522e+14	1.144619e+15	7.134590e+13	1.102992e+04	7.040416e+03	3.824215e+03	0	1.096087e-03
8.700000e+08	7.059272e+13	0.000000e+00	8.378375e-01	9.707255e+14	1.137312e+15	7.101641e+13	1.101274e+04	7.031937e+03	3.819610e+03	0	1.092603e-03
8.800000e+08	6.992265e+13	0.000000e+00	8.378375e-01	9.643676e+14	1.130079e+15	7.068919e+13	1.099567e+04	7.023505e+03	3.815030e+03	0	1.089135e-03
8.900000e+08	6.925999e+13	0.000000e+00	8.378375e-01	9.580774e+14	1.122919e+15	7.036421e+13	1.097872e+04	7.015121e+03	3.810476e+03	0	1.085683e-03
9.000000e+08	6.860461e+13	0.000000e+00	8.378375e-01	9.518539e+14	1.115831e+15	7.004147e+13	1.096188e+04	7.006783e+03	3.805947e+03	0	1.082248e-03
9.100000e+08	6.795642e+13	0.000000e+00	8.378375e-01	9.456962e+14	1.108815e+15	6.972094e+13	1.094514e+04	6.998491e+03	3.801443e+03	0	1.078829e-03
9.200000e+08	6.731530e+13	0.000000e+00	8.378375e-01	9.396032e+14	1.101869e+15	6.940260e+13	1.092851e+04	6.990246e+03	3.796964e+03	0	1.075425e-03
9.300000e+08	6.668114e+13	0.000000e+00	8.378375e-01	9.335740e+14	1.094992e+15	6.908644e+13	1.091199e+04	6.982046e+03	3.792510e+03	0	1.072037e-03
9.400000e+08	6.605385e+13	0.000000e+00	8.378375e-01	9.276077e+14	1.088185e+15	6.877244e+13	1.089558e+04	6.973892e+03	3.788081e+03	0	1.068665e-03
9.500000e+08	6.543332e+13	0.000000e+00	8.378375e-01	9.217033e+14	1.081445e+15	6.846059e+13	1.087927e+04	6.965783e+03	3.783676e+03	0	1.065308e-03
9.600000e+08	6.481946e+13	0.000000e+00	8.378375e-01	9.158600e+14	1.074772e+15	6.815086e+13	1.086306e+04	6.957719e+03	3.779296e+03	0	1.061966e-03
9.700000e+08	6.421216e+13	0.000000e+00	8.378375e-01	9.100769e+14	1.068166e+15	6.784324e+13	1.084696e+04	6.949699e+03	3.774940e+03	0	1.058639e-03
9.800000e+08	6.361133e+13	0.000000e+00	8.378375e-01	9.043531e+14	1.061626e+15	6.753771e+13	1.083095e+04	6.941724e+03	3.770608e+03	0	1.055327e-03
9.900000e+08	6.301688e+13	0.000000e+00	8.378375e-01	8.986878e+14	1.055150e+15	6.723426e+13	1.081505e+04	6.933793e+03	3.766300e+03	0	1.052029e-03
1.000000e+09	6.242871e+13	0.000000e+00	8.378375e-01	8.930801e+14	1.048737e+15	6.693287e+13	1.079925e+04	6.925905e+03	3.762015e+03	0	1.048746e-03
1.010000e+09	6.184674e+13	0.000000e+00	8.378375e-01	8.875293e+14	1.042388e+15	6.663353e+13	1.078355e+04	6.918060e+03	3.757754e+03	0	1.045477e-03
1.020000e+09	6.127088e+13	0.000000e+00	8.378375e-01	8.820345e+14	1.036101e+15	6.633621e+13	1.076794e+04	6.910259e+03	3.753517e+03	0	1.042222e-03
1.030000e+09	6.070103e+13	0.000000e+00	8.378375e-01	8.765950e+14	1.029875e+15	6.604090e+13	1.075243e+04	6.902500e+03	3.749302e+03	0	1.038981e-03
1.040000e+09	6.013713e+13	0.000000e+00	8.378375e-01	8.712101e+14	1.023711e+15	6.574759e+13	1.073701e+04	6.894783e+03	3.745110e+03	0	1.035754e-03
1.050000e+09	5.957907e+13	0.000000e+00	8.378375e-01	8.658788e+14	1.017605e+15	6.545627e+13	1.072169e+04	6.887108e+03	3.740942e+03	0	1.032540e-03
1.060000e+09	5.902679e+13	0.000000e+00	8.378375e-01	8.606006e+14	1.011559e+15	6.516690e+13	1.070646e+04	6.879474e+03	3.736795e+03	0	1.029339e-03
1.070000e+09	5.848020e+13	0.000000e+00	8.378375e-01	8.553747e+14	1.005572e+15	6.487949e+13	1.069133e+04	6.871882e+03	3.732671e+03	0	1.026152e-03
1.080000e+09	5.793921e+13	0.000000e+00	8.378375e-01	8.502003e+14	9.996414e+14	6.459400e+13	1.067629e+04	6.864331e+03	3.728569e+03	0	1.022978e-03
1.090000e+09	5.740377e+13	0.000000e+00	8.378375e-01	8.450768e+14	9.937681e+14	6.431044e+13	1.066134e+04	6.856820e+03	3.724490e+03	0	1.019817e-03
1.100000e+09	5.687378e+13	0.000000e+00	8.378375e-01	8.400035e+14	9.879511e+14	6.402879e+13	1.064647e+04	6.849349e+03	3.720432e+03	0	1.016669e-03
1.110000e+09	5.634918e+13	0.000000e+00	8.378375e-01	8.349797e+14	9.821892e+14	6.374902e+13	1.063170e+04	6.841918e+03	3.716395e+03	0	1.013534e-03
1.120000e+09	5.582988e+13	0.000000e+00	8.378375e-01	8.300048e+14	9.764821e+14	6.347112e+13	1.061701e+04	6.834527e+03	3.712381e+03	0	1.010410e-03
1.130000e+09	5.531583e+13	0.000000e+00	8.378375e-01	8.250780e+14	9.708290e+14	6.319509e+13	1.060242e+04	6.827174e+03	3.708387e+03	0	1.007300e-03
1.140000e+09	5.480694e+13	0.000000e+00	8.378375e-01	8.201989e+14	9.652293e+14	6.292090e+13	1.058791e+04	6.819861e+03	3.704414e+03	0	1.004201e-03
1.150000e+09	5.430315e+13	0.000000e+00	8.378375e-01	8.153666e+14	9.596819e+14	6.264854e+13	1.057348e+04	6.812586e+03	3.700463e+03	0	1.001115e-03
1.160000e+09	5.380439e+13	0.000000e+00	8.378375e-01	8.105806e+14	9.541868e+14	6.237800e+13	1.055914e+04	6.805349e+03	3.696532e+03	0	9.980405e-04
1.170000e+09	5.331059e+13	0.000000e+00	8.378375e-01	8.058404e+14	9.487431e+14	6.210926e+13	1.054488e+04	6.798150e+03	3.692622e+03	0	9.949779e-04
1.180000e+09	5.282169e+13	0.000000e+00	8.378375e-01	8.011452e+14	9.433498e+14	6.184230e+13	1.053071e+04	6.790989e+03	3.688732e+03	0	9.919269e-04
1.190000e+09	5.233762e+13	0.000000e+00	8.378375e-01	7.964946e+14	9.380067e+14	6.157713e+13	1.051662e+04	6.783865e+03	3.684862e+03	0	9.888875e-04
1.200000e+09	5.185831e+13	0.000000e+00	8.378375e-01	7.918879e+14	9.327128e+14	6.131371e+13	1.050261e+04	6.776778e+03	3.681013e+03	0	9.858595e-04
1.210000e+09	5.138371e+13	0.000000e+00	8.378375e-01	7.873246e+14	9.274678e+14	6.105204e+13	1.048868e+04	6.769728e+03	3.677183e+03	0	9.828428e-04
1.220000e+09	5.091375e+13	0.000000e+00	8.378375e-01	7.828040e+14	9.222709e+14	6.079211e+13	1.047483e+04	6.762713e+03	3.673373e+03	0	9.798373e-04
1.230000e+09	5.044838e+13	0.000000e+00	8.378375e-01	7.783257e+14	9.171215e+14	6.053389e+13	1.046106e+04	6.755735e+03	3.669583e+03	0	9.768427e-04
1.240000e+09	4.998752e+13	0.000000e+00	8.378375e-01	7.738892e+14	9.120192e+14	6.027738e+13	1.044737e+04	6.748793e+03	3.665812e+03	0	9.738591e-04
1.250000e+09	4.953113e+13	0.000000e+00	8.378375e-01	7.694938e+14	9.069634e+14	6.002256e+13	1.043376e+04	6.741885e+03	3.662060e+03	0	9.708862e-04
1.260000e+09	4.907915e+13	0.000000e+00	8.378375e-01	7.651390e+14	9.019531e+14	5.976943e+13	1.042022e+04	6.735013e+03	3.658327e+03	0	9.679240e-04
1.270000e+09	4.863151e+13	0.000000e+00	8.378375e-01	7.608244e+14	8.969882e+14	5.951796e+13	1.040676e+04	6.728176e+03	3.654613e+03	0	9.649723e-04
1.280000e+09	4.818817e+13	0.000000e+00	8.378375e-01	7.565495e+14	8.920681e+14	5.926814e+13	1.039338e+04	6.721373e+03	3.650918e+03	0	9.620310e-04
1.290000e+09	4.774906e+13	0.000000e+00	8.378375e-01	7.523136e+14	8.871921e+14	5.901997e+13	1.038007e+04	6.714605e+03	3.647242e+03	0	9.590999e-04
1.300000e+09	4.731414e+13	0.000000e+00	8.378375e-01	7.481165e+14	8.823596e+14	5.877343e+13	1.036684e+04	6.707871e+03	3.643583e+03	0	9.561791e-04
1.310000e+09	4.688335e+13	0.000000e+00	8.378375e-01	7.439574e+14	8.775701e+14	5.852850e+13	1.035368e+04	6.701170e+03	3.639944e+03	0	9.532682e-04
1.320000e+09	4.645663e+13	0.000000e+00	8.378375e-01	7.398361e+14	8.728234e+14	5.828517e+13	1.034059e+04	6.694502e+03	3.636322e+03	0	9.503673e-04
1.330000e+09	4.603394e+13	0.000000e+00	8.378375e-01	7.357520e+14	8.681184e+14	5.804344e+13	1.032757e+04	6.687868e+03	3.632718e+03	0	9.474762e-04
1.340000e+09	4.561523e+13	0.000000e+00	8.378375e-01	7.317046e+14	8.634550e+14	5.780329e+13	1.031463e+04	6.681266e+03	3.629133e+03	0	9.445948e-04
1.350000e+09	4.520044e+13	0.000000e+00	8.378375e-01	7.276935e+14	8.588329e+14	5.756470e+13	1.030176e+04	6.674698e+03	3.625565e+03	0	9.417229e-04
1.360000e+09	4.478953e+13	0.000000e+00	8.378375e-01	7.237183e+14	8.542511e+14	5.732767e+13	1.028895e+04	6.668161e+03	3.622014e+03	0	9.388605e-04
