#t		Qconv[W]	Ri[Rp]		R*[Rp]		Qc[W]		Qm[W]		Qr[W]		Tcmb[K]		Tl[K]		Tup[K]		RiFlag		Bs[T]
0.000000e+00	2.532003e+14	0.000000e+00	8.255036e-01	2.753135e+15	8.434298e+13	1.370568e+14	1.445571e+04	4.875065e+03	2.554583e+03	0	1.679706e-03
1.000000e+07	2.539154e+14	0.000000e+00	8.255036e-01	2.757292e+15	1.122785e+14	1.362974e+14	1.441554e+04	5.084961e+03	2.664570e+03	0	1.681285e-03
2.000000e+07	2.539598e+14	0.000000e+00	8.255036e-01	2.755864e+15	1.463784e+14	1.355437e+14	1.437530e+04	5.292785e+03	2.773472e+03	0	1.681383e-03
3.000000e+07	2.533428e+14	0.000000e+00	8.255036e-01	2.748933e+15	1.871413e+14	1.347956e+14	1.433509e+04	5.497635e+03	2.880815e+03	0	1.680021e-03
4.000000e+07	2.520859e+14	0.000000e+00	8.255036e-01	2.736680e+15	2.349009e+14	1.340531e+14	1.429498e+04	5.698581e+03	2.986113e+03	0	1.677238e-03
5.000000e+07	2.502226e+14	0.000000e+00	8.255036e-01	2.719388e+15	2.897869e+14	1.333162e+14	1.425505e+04	5.894694e+03	3.088878e+03	0	1.673095e-03
6.000000e+07	2.477975e+14	0.000000e+00	8.255036e-01	2.697432e+15	3.516956e+14	1.325847e+14	1.421538e+04	6.085061e+03	3.188632e+03	0	1.667672e-03
7.000000e+07	2.448651e+14	0.000000e+00	8.255036e-01	2.671267e+15	4.202760e+14	1.318587e+14	1.417602e+04	6.268816e+03	3.284922e+03	0	1.661068e-03
8.000000e+07	2.414876e+14	0.000000e+00	8.255036e-01	2.641415e+15	4.949314e+14	1.311380e+14	1.413704e+04	6.445162e+03	3.377329e+03	0	1.653395e-03
9.000000e+07	2.377329e+14	0.000000e+00	8.255036e-01	2.608443e+15	5.748402e+14	1.304228e+14	1.409850e+04	6.613396e+03	3.465485e+03	0	1.644781e-03
1.000000e+08	2.336718e+14	0.000000e+00	8.255036e-01	2.572943e+15	6.589909e+14	1.297128e+14	1.406044e+04	6.772925e+03	3.549080e+03	0	1.635362e-03
1.100000e+08	2.293755e+14	0.000000e+00	8.255036e-01	2.535509e+15	7.462316e+14	1.290081e+14	1.402289e+04	6.923283e+03	3.627869e+03	0	1.625277e-03
1.200000e+08	2.249132e+14	0.000000e+00	8.255036e-01	2.496716e+15	8.353266e+14	1.283087e+14	1.398590e+04	7.064140e+03	3.701680e+03	0	1.614669e-03
1.300000e+08	2.203498e+14	0.000000e+00	8.255036e-01	2.457108e+15	9.250173e+14	1.276144e+14	1.394946e+04	7.195301e+03	3.770409e+03	0	1.603674e-03
1.400000e+08	2.157442e+14	0.000000e+00	8.255036e-01	2.417174e+15	1.014078e+15	1.269253e+14	1.391361e+04	7.316707e+03	3.834027e+03	0	1.592422e-03
1.500000e+08	2.111485e+14	0.000000e+00	8.255036e-01	2.377348e+15	1.101365e+15	1.262412e+14	1.387833e+04	7.428425e+03	3.892568e+03	0	1.581034e-03
1.600000e+08	2.066067e+14	0.000000e+00	8.255036e-01	2.337997e+15	1.185862e+15	1.255622e+14	1.384364e+04	7.530635e+03	3.946127e+03	0	1.569615e-03
1.700000e+08	2.021551e+14	0.000000e+00	8.255036e-01	2.299423e+15	1.266701e+15	1.248882e+14	1.380951e+04	7.623616e+03	3.994851e+03	0	1.558260e-03
1.800000e+08	1.978221e+14	0.000000e+00	8.255036e-01	2.261860e+15	1.343179e+15	1.242192e+14	1.377596e+04	7.707731e+03	4.038927e+03	0	1.547046e-03
1.900000e+08	1.936289e+14	0.000000e+00	8.255036e-01	2.225486e+15	1.414768e+15	1.235551e+14	1.374294e+04	7.783402e+03	4.078580e+03	0	1.536037e-03
2.000000e+08	1.895901e+14	0.000000e+00	8.255036e-01	2.190421e+15	1.481101e+15	1.228959e+14	1.371046e+04	7.851104e+03	4.114056e+03	0	1.525283e-03
2.100000e+08	1.857148e+14	0.000000e+00	8.255036e-01	2.156738e+15	1.541966e+15	1.222416e+14	1.367849e+04	7.911337e+03	4.145619e+03	0	1.514818e-03
2.200000e+08	1.820071e+14	0.000000e+00	8.255036e-01	2.124473e+15	1.597284e+15	1.215920e+14	1.364701e+04	7.964622e+03	4.173541e+03	0	1.504670e-03
2.300000e+08	1.784674e+14	0.000000e+00	8.255036e-01	2.093627e+15	1.647092e+15	1.209472e+14	1.361600e+04	8.011482e+03	4.198096e+03	0	1.494851e-03
2.400000e+08	1.750929e+14	0.000000e+00	8.255036e-01	2.064176e+15	1.691521e+15	1.203072e+14	1.358544e+04	8.052432e+03	4.219554e+03	0	1.485370e-03
2.500000e+08	1.718785e+14	0.000000e+00	8.255036e-01	2.036077e+15	1.730772e+15	1.196718e+14	1.355531e+04	8.087976e+03	4.238180e+03	0	1.476224e-03
2.600000e+08	1.688175e+14	0.000000e+00	8.255036e-01	2.009273e+15	1.765103e+15	1.190411e+14	1.352558e+04	8.118595e+03	4.254224e+03	0	1.467408e-03
2.700000e+08	1.659022e+14	0.000000e+00	8.255036e-01	1.983699e+15	1.794807e+15	1.184150e+14	1.349625e+04	8.144747e+03	4.267928e+03	0	1.458912e-03
2.800000e+08	1.631240e+14	0.000000e+00	8.255036e-01	1.959282e+15	1.820199e+15	1.177935e+14	1.346729e+04	8.166859e+03	4.279515e+03	0	1.450723e-03
2.900000e+08	1.604741e+14	0.000000e+00	8.255036e-01	1.935949e+15	1.841608e+15	1.171765e+14	1.343869e+04	8.185332e+03	4.289195e+03	0	1.442824e-03
3.000000e+08	1.579436e+14	0.000000e+00	8.255036e-01	1.913626e+15	1.859361e+15	1.165640e+14	1.341042e+04	8.200533e+03	4.297161e+03	0	1.435200e-03
3.100000e+08	1.555240e+14	0.000000e+00	8.255036e-01	1.892239e+15	1.873778e+15	1.159559e+14	1.338248e+04	8.212803e+03	4.303590e+03	0	1.427833e-03
3.200000e+08	1.532068e+14	0.000000e+00	8.255036e-01	1.871719e+15	1.885170e+15	1.153523e+14	1.335486e+04	8.222451e+03	4.308646e+03	0	1.420707e-03
3.300000e+08	1.509841e+14	0.000000e+00	8.255036e-01	1.851999e+15	1.893832e+15	1.147531e+14	1.332753e+04	8.229759e+03	4.312475e+03	0	1.413803e-03
3.400000e+08	1.488485e+14	0.000000e+00	8.255036e-01	1.833016e+15	1.900040e+15	1.141582e+14	1.330049e+04	8.234981e+03	4.315212e+03	0	1.407105e-03
3.500000e+08	1.467930e+14	0.000000e+00	8.255036e-01	1.814713e+15	1.904050e+15	1.135677e+14	1.327372e+04	8.238349e+03	4.316977e+03	0	1.400598e-03
3.600000e+08	1.448112e+14	0.000000e+00	8.255036e-01	1.797035e+15	1.906102e+15	1.129814e+14	1.324722e+04	8.240070e+03	4.317879e+03	0	1.394267e-03
3.700000e+08	1.428973e+14	0.000000e+00	8.255036e-01	1.779934e+15	1.906412e+15	1.123994e+14	1.322098e+04	8.240331e+03	4.318015e+03	0	1.388097e-03
3.800000e+08	1.410459e+14	0.000000e+00	8.255036e-01	1.763363e+15	1.905180e+15	1.118216e+14	1.319499e+04	8.239297e+03	4.317473e+03	0	1.382076e-03
3.900000e+08	1.392520e+14	0.000000e+00	8.255036e-01	1.747282e+15	1.902584e+15	1.112479e+14	1.316924e+04	8.237119e+03	4.316332e+03	0	1.376191e-03
4.000000e+08	1.375111e+14	0.000000e+00	8.255036e-01	1.731654e+15	1.898789e+15	1.106784e+14	1.314372e+04	8.233930e+03	4.314661e+03	0	1.370433e-03
4.100000e+08	1.358194e+14	0.000000e+00	8.255036e-01	1.716444e+15	1.893940e+15	1.101130e+14	1.311843e+04	8.229850e+03	4.312523e+03	0	1.364790e-03
4.200000e+08	1.341731e+14	0.000000e+00	8.255036e-01	1.701622e+15	1.888167e+15	1.095517e+14	1.309337e+04	8.224983e+03	4.309972e+03	0	1.359253e-03
4.300000e+08	1.325689e+14	0.000000e+00	8.255036e-01	1.687160e+15	1.881591e+15	1.089944e+14	1.306852e+04	8.219424e+03	4.307060e+03	0	1.353814e-03
4.400000e+08	1.310038e+14	0.000000e+00	8.255036e-01	1.673033e+15	1.874314e+15	1.084412e+14	1.304388e+04	8.213258e+03	4.303828e+03	0	1.348465e-03
4.500000e+08	1.294753e+14	0.000000e+00	8.255036e-01	1.659220e+15	1.866430e+15	1.078919e+14	1.301944e+04	8.206558e+03	4.300318e+03	0	1.343200e-03
4.600000e+08	1.279809e+14	0.000000e+00	8.255036e-01	1.645699e+15	1.858023e+15	1.073465e+14	1.299521e+04	8.199392e+03	4.296563e+03	0	1.338012e-03
4.700000e+08	1.265183e+14	0.000000e+00	8.255036e-01	1.632453e+15	1.849167e+15	1.068051e+14	1.297117e+04	8.191817e+03	4.292593e+03	0	1.332896e-03
4.800000e+08	1.250858e+14	0.000000e+00	8.255036e-01	1.619465e+15	1.839927e+15	1.062676e+14	1.294733e+04	8.183886e+03	4.288438e+03	0	1.327846e-03
4.900000e+08	1.236815e+14	0.000000e+00	8.255036e-01	1.606720e+15	1.830361e+15	1.057339e+14	1.292367e+04	8.175646e+03	4.284120e+03	0	1.322858e-03
5.000000e+08	1.223037e+14	0.000000e+00	8.255036e-01	1.594205e+15	1.820521e+15	1.052040e+14	1.290020e+04	8.167137e+03	4.279661e+03	0	1.317928e-03
5.100000e+08	1.209512e+14	0.000000e+00	8.255036e-01	1.581908e+15	1.810452e+15	1.046779e+14	1.287692e+04	8.158396e+03	4.275081e+03	0	1.313052e-03
5.200000e+08	1.196226e+14	0.000000e+00	8.255036e-01	1.569818e+15	1.800193e+15	1.041555e+14	1.285381e+04	8.149456e+03	4.270396e+03	0	1.308226e-03
5.300000e+08	1.183167e+14	0.000000e+00	8.255036e-01	1.557924e+15	1.789782e+15	1.036369e+14	1.283088e+04	8.140344e+03	4.265621e+03	0	1.303448e-03
5.400000e+08	1.170324e+14	0.000000e+00	8.255036e-01	1.546219e+15	1.779248e+15	1.031220e+14	1.280812e+04	8.131087e+03	4.260770e+03	0	1.298715e-03
5.500000e+08	1.157689e+14	0.000000e+00	8.255036e-01	1.534693e+15	1.768619e+15	1.026107e+14	1.278553e+04	8.121707e+03	4.255855e+03	0	1.294024e-03
5.600000e+08	1.145251e+14	0.000000e+00	8.255036e-01	1.523340e+15	1.757919e+15	1.021031e+14	1.276311e+04	8.112224e+03	4.250886e+03	0	1.289373e-03
5.700000e+08	1.133003e+14	0.000000e+00	8.255036e-01	1.512152e+15	1.747171e+15	1.015990e+14	1.274086e+04	8.102655e+03	4.245872e+03	0	1.284760e-03
5.800000e+08	1.120938e+14	0.000000e+00	8.255036e-01	1.501123e+15	1.736391e+15	1.010986e+14	1.271877e+04	8.093017e+03	4.240821e+03	0	1.280184e-03
5.900000e+08	1.109049e+14	0.000000e+00	8.255036e-01	1.490248e+15	1.725597e+15	1.006017e+14	1.269684e+04	8.083323e+03	4.235742e+03	0	1.275641e-03
6.000000e+08	1.097329e+14	0.000000e+00	8.255036e-01	1.479522e+15	1.714804e+15	1.001083e+14	1.267507e+04	8.073586e+03	4.230639e+03	0	1.271132e-03
6.100000e+08	1.085773e+14	0.000000e+00	8.255036e-01	1.468939e+15	1.704022e+15	9.961841e+13	1.265345e+04	8.063816e+03	4.225520e+03	0	1.266654e-03
6.200000e+08	1.074377e+14	0.000000e+00	8.255036e-01	1.458494e+15	1.693265e+15	9.913197e+13	1.263199e+04	8.054024e+03	4.220389e+03	0	1.262207e-03
6.300000e+08	1.063134e+14	0.000000e+00	8.255036e-01	1.448185e+15	1.682540e+15	9.864897e+13	1.261068e+04	8.044218e+03	4.215250e+03	0	1.257789e-03
6.400000e+08	1.052040e+14	0.000000e+00	8.255036e-01	1.438007e+15	1.671858e+15	9.816938e+13	1.258952e+04	8.034404e+03	4.210108e+03	0	1.253399e-03
6.500000e+08	1.041092e+14	0.000000e+00	8.255036e-01	1.427956e+15	1.661224e+15	9.769316e+13	1.256851e+04	8.024591e+03	4.204966e+03	0	1.249035e-03
6.600000e+08	1.030285e+14	0.000000e+00	8.255036e-01	1.418029e+15	1.650644e+15	9.722030e+13	1.254765e+04	8.014785e+03	4.199827e+03	0	1.244698e-03
6.700000e+08	1.019615e+14	0.000000e+00	8.255036e-01	1.408223e+15	1.640125e+15	9.675076e+13	1.252693e+04	8.004989e+03	4.194694e+03	0	1.240387e-03
6.800000e+08	1.009079e+14	0.000000e+00	8.255036e-01	1.398535e+15	1.629671e+15	9.628452e+13	1.250635e+04	7.995209e+03	4.189569e+03	0	1.236100e-03
6.900000e+08	9.986748e+13	0.000000e+00	8.255036e-01	1.388963e+15	1.619287e+15	9.582155e+13	1.248592e+04	7.985450e+03	4.184455e+03	0	1.231837e-03
7.000000e+08	9.883981e+13	0.000000e+00	8.255036e-01	1.379503e+15	1.608974e+15	9.536183e+13	1.246562e+04	7.975713e+03	4.179353e+03	0	1.227597e-03
7.100000e+08	9.782463e+13	0.000000e+00	8.255036e-01	1.370153e+15	1.598737e+15	9.490532e+13	1.244546e+04	7.966004e+03	4.174265e+03	0	1.223379e-03
7.200000e+08	9.682169e+13	0.000000e+00	8.255036e-01	1.360911e+15	1.588577e+15	9.445200e+13	1.242544e+04	7.956324e+03	4.169193e+03	0	1.219184e-03
7.300000e+08	9.583071e+13	0.000000e+00	8.255036e-01	1.351775e+15	1.578497e+15	9.400186e+13	1.240555e+04	7.946677e+03	4.164137e+03	0	1.215010e-03
7.400000e+08	9.485145e+13	0.000000e+00	8.255036e-01	1.342742e+15	1.568498e+15	9.355485e+13	1.238580e+04	7.937063e+03	4.159100e+03	0	1.210858e-03
7.500000e+08	9.388368e+13	0.000000e+00	8.255036e-01	1.333811e+15	1.558582e+15	9.311097e+13	1.236618e+04	7.927485e+03	4.154081e+03	0	1.206725e-03
7.600000e+08	9.292717e+13	0.000000e+00	8.255036e-01	1.324979e+15	1.548750e+15	9.267017e+13	1.234669e+04	7.917945e+03	4.149082e+03	0	1.202613e-03
7.700000e+08	9.198171e+13	0.000000e+00	8.255036e-01	1.316245e+15	1.539001e+15	9.223244e+13	1.232732e+04	7.908444e+03	4.144103e+03	0	1.198521e-03
7.800000e+08	9.104709e+13	0.000000e+00	8.255036e-01	1.307607e+15	1.529338e+15	9.179776e+13	1.230809e+04	7.898983e+03	4.139145e+03	0	1.194448e-03
7.900000e+08	9.012312e+13	0.000000e+00	8.255036e-01	1.299064e+15	1.519761e+15	9.136609e+13	1.228898e+04	7.889563e+03	4.134209e+03	0	1.190393e-03
8.000000e+08	8.920961e+13	0.000000e+00	8.255036e-01	1.290612e+15	1.510268e+15	9.093741e+13	1.226999e+04	7.880186e+03	4.129295e+03	0	1.186358e-03
8.100000e+08	8.830637e+13	0.000000e+00	8.255036e-01	1.282252e+15	1.500861e+15	9.051171e+13	1.225113e+04	7.870851e+03	4.124404e+03	0	1.182340e-03
8.200000e+08	8.741322e+13	0.000000e+00	8.255036e-01	1.273981e+15	1.491541e+15	9.008895e+13	1.223239e+04	7.861560e+03	4.119535e+03	0	1.178340e-03
8.300000e+08	8.653001e+13	0.000000e+00	8.255036e-01	1.265799e+15	1.482305e+15	8.966912e+13	1.221377e+04	7.852313e+03	4.114690e+03	0	1.174358e-03
8.400000e+08	8.565655e+13	0.000000e+00	8.255036e-01	1.257702e+15	1.473155e+15	8.925218e+13	1.219527e+04	7.843110e+03	4.109867e+03	0	1.170394e-03
8.500000e+08	8.479269e+13	0.000000e+00	8.255036e-01	1.249691e+15	1.464089e+15	8.883813e+13	1.217689e+04	7.833952e+03	4.105068e+03	0	1.166446e-03
8.600000e+08	8.393828e+13	0.000000e+00	8.255036e-01	1.241764e+15	1.455108e+15	8.842692e+13	1.215862e+04	7.824839e+03	4.100293e+03	0	1.162515e-03
8.700000e+08	8.309316e+13	0.000000e+00	8.255036e-01	1.233920e+15	1.446211e+15	8.801855e+13	1.214047e+04	7.815771e+03	4.095542e+03	0	1.158600e-03
8.800000e+08	8.225719e+13	0.000000e+00	8.255036e-01	1.226156e+15	1.437396e+15	8.761299e+13	1.212244e+04	7.806749e+03	4.090814e+03	0	1.154701e-03
8.900000e+08	8.143023e+13	0.000000e+00	8.255036e-01	1.218473e+15	1.428665e+15	8.721021e+13	1.210451e+04	7.797772e+03	4.086110e+03	0	1.150819e-03
9.000000e+08	8.061213e+13	0.000000e+00	8.255036e-01	1.210868e+15	1.420015e+15	8.681020e+13	1.208670e+04	7.788840e+03	4.081430e+03	0	1.146952e-03
9.100000e+08	7.980276e+13	0.000000e+00	8.255036e-01	1.203341e+15	1.411447e+15	8.641292e+13	1.206900e+04	7.779954e+03	4.076773e+03	0	1.143100e-03
9.200000e+08	7.900200e+13	0.000000e+00	8.255036e-01	1.195891e+15	1.402960e+15	8.601837e+13	1.205141e+04	7.771114e+03	4.072141e+03	0	1.139264e-03
9.300000e+08	7.820970e+13	0.000000e+00	8.255036e-01	1.188516e+15	1.394553e+15	8.562652e+13	1.203393e+04	7.762318e+03	4.067532e+03	0	1.135443e-03
9.400000e+08	7.742575e+13	0.000000e+00	8.255036e-01	1.181215e+15	1.386224e+15	8.523735e+13	1.201656e+04	7.753568e+03	4.062947e+03	0	1.131636e-03
9.500000e+08	7.665003e+13	0.000000e+00	8.255036e-01	1.173987e+15	1.377975e+15	8.485083e+13	1.199929e+04	7.744863e+03	4.058385e+03	0	1.127844e-03
9.600000e+08	7.588240e+13	0.000000e+00	8.255036e-01	1.166832e+15	1.369803e+15	8.446695e+13	1.198213e+04	7.736203e+03	4.053847e+03	0	1.124067e-03
9.700000e+08	7.512277e+13	0.000000e+00	8.255036e-01	1.159747e+15	1.361707e+15	8.408569e+13	1.196507e+04	7.727588e+03	4.049333e+03	0	1.120303e-03
9.800000e+08	7.437100e+13	0.000000e+00	8.255036e-01	1.152733e+15	1.353688e+15	8.370701e+13	1.194812e+04	7.719017e+03	4.044842e+03	0	1.116554e-03
9.900000e+08	7.362700e+13	0.000000e+00	8.255036e-01	1.145788e+15	1.345744e+15	8.333091e+13	1.193127e+04	7.710491e+03	4.040374e+03	0	1.112818e-03
1.000000e+09	7.289064e+13	0.000000e+00	8.255036e-01	1.138911e+15	1.337874e+15	8.295737e+13	1.191452e+04	7.702008e+03	4.035929e+03	0	1.109096e-03
1.010000e+09	7.216182e+13	0.000000e+00	8.255036e-01	1.132101e+15	1.330077e+15	8.258636e+13	1.189787e+04	7.693570e+03	4.031507e+03	0	1.105387e-03
1.020000e+09	7.144044e+13	0.000000e+00	8.255036e-01	1.125358e+15	1.322354e+15	8.221786e+13	1.188132e+04	7.685175e+03	4.027108e+03	0	1.101691e-03
1.030000e+09	7.072639e+13	0.000000e+00	8.255036e-01	1.118680e+15	1.314703e+15	8.185185e+13	1.186487e+04	7.676823e+03	4.022731e+03	0	1.098008e-03
1.040000e+09	7.001958e+13	0.000000e+00	8.255036e-01	1.112067e+15	1.307122e+15	8.148832e+13	1.184851e+04	7.668515e+03	4.018378e+03	0	1.094338e-03
1.050000e+09	6.931989e+13	0.000000e+00	8.255036e-01	1.105517e+15	1.299612e+15	8.112724e+13	1.183225e+04	7.660249e+03	4.014046e+03	0	1.090681e-03
1.060000e+09	6.862724e+13	0.000000e+00	8.255036e-01	1.099030e+15	1.292171e+15	8.076860e+13	1.181609e+04	7.652026e+03	4.009737e+03	0	1.087036e-03
1.070000e+09	6.794153e+13	0.000000e+00	8.255036e-01	1.092605e+15	1.284798e+15	8.041238e+13	1.180002e+04	7.643845e+03	4.005450e+03	0	1.083403e-03
1.080000e+09	6.726266e+13	0.000000e+00	8.255036e-01	1.086241e+15	1.277494e+15	8.005855e+13	1.178405e+04	7.635705e+03	4.001185e+03	0	1.079783e-03
1.090000e+09	6.659055e+13	0.000000e+00	8.255036e-01	1.079938e+15	1.270257e+15	7.970710e+13	1.176816e+04	7.627608e+03	3.996942e+03	0	1.076174e-03
1.100000e+09	6.592509e+13	0.000000e+00	8.255036e-01	1.073694e+15	1.263086e+15	7.935801e+13	1.175237e+04	7.619552e+03	3.992721e+03	0	1.072577e-03
1.110000e+09	6.526621e+13	0.000000e+00	8.255036e-01	1.067509e+15	1.255981e+15	7.901126e+13	1.173668e+04	7.611537e+03	3.988521e+03	0	1.068992e-03
1.120000e+09	6.461381e+13	0.000000e+00	8.255036e-01	1.061382e+15	1.248940e+15	7.866683e+13	1.172107e+04	7.603562e+03	3.984342e+03	0	1.065418e-03
1.130000e+09	6.396782e+13	0.000000e+00	8.255036e-01	1.055312e+15	1.241963e+15	7.832471e+13	1.170555e+04	7.595628e+03	3.980185e+03	0	1.061856e-03
1.140000e+09	6.332813e+13	0.000000e+00	8.255036e-01	1.049299e+15	1.235049e+15	7.798488e+13	1.169012e+04	7.587734e+03	3.976048e+03	0	1.058305e-03
1.150000e+09	6.269469e+13	0.000000e+00	8.255036e-01	1.043341e+15	1.228198e+15	7.764732e+13	1.167477e+04	7.579880e+03	3.971933e+03	0	1.054764e-03
1.160000e+09	6.206739e+13	0.000000e+00	8.255036e-01	1.037438e+15	1.221409e+15	7.731200e+13	1.165952e+04	7.572066e+03	3.967838e+03	0	1.051234e-03
1.170000e+09	6.144616e+13	0.000000e+00	8.255036e-01	1.031590e+15	1.214680e+15	7.697892e+13	1.164435e+04	7.564291e+03	3.963763e+03	0	1.047715e-03
1.180000e+09	6.083092e+13	0.000000e+00	8.255036e-01	1.025796e+15	1.208012e+15	7.664806e+13	1.162926e+04	7.556555e+03	3.959710e+03	0	1.044207e-03
1.190000e+09	6.022160e+13	0.000000e+00	8.255036e-01	1.020055e+15	1.201403e+15	7.631940e+13	1.161426e+04	7.548857e+03	3.955676e+03	0	1.040709e-03
1.200000e+09	5.961812e+13	0.000000e+00	8.255036e-01	1.014365e+15	1.194853e+15	7.599291e+13	1.159935e+04	7.541198e+03	3.951662e+03	0	1.037221e-03
1.210000e+09	5.902040e+13	0.000000e+00	8.255036e-01	1.008728e+15	1.188361e+15	7.566860e+13	1.158451e+04	7.533576e+03	3.947669e+03	0	1.033743e-03
1.220000e+09	5.842838e+13	0.000000e+00	8.255036e-01	1.003142e+15	1.181927e+15	7.534643e+13	1.156976e+04	7.525993e+03	3.943695e+03	0	1.030275e-03
1.230000e+09	5.784197e+13	0.000000e+00	8.255036e-01	9.976058e+14	1.175549e+15	7.502639e+13	1.155509e+04	7.518447e+03	3.939741e+03	0	1.026816e-03
1.240000e+09	5.726110e+13	0.000000e+00	8.255036e-01	9.921196e+14	1.169227e+15	7.470847e+13	1.154051e+04	7.510938e+03	3.935806e+03	0	1.023368e-03
1.250000e+09	5.668572e+13	0.000000e+00	8.255036e-01	9.866826e+14	1.162961e+15	7.439265e+13	1.152600e+04	7.503466e+03	3.931891e+03	0	1.019928e-03
1.260000e+09	5.611574e+13	0.000000e+00	8.255036e-01	9.812941e+14	1.156749e+15	7.407891e+13	1.151157e+04	7.496030e+03	3.927994e+03	0	1.016498e-03
1.270000e+09	5.555110e+13	0.000000e+00	8.255036e-01	9.759536e+14	1.150592e+15	7.376724e+13	1.149722e+04	7.488631e+03	3.924117e+03	0	1.013077e-03
1.280000e+09	5.499174e+13	0.000000e+00	8.255036e-01	9.706605e+14	1.144488e+15	7.345761e+13	1.148295e+04	7.481268e+03	3.920259e+03	0	1.009666e-03
1.290000e+09	5.443758e+13	0.000000e+00	8.255036e-01	9.654141e+14	1.138437e+15	7.315003e+13	1.146875e+04	7.473941e+03	3.916419e+03	0	1.006263e-03
1.300000e+09	5.388857e+13	0.000000e+00	8.255036e-01	9.602140e+14	1.132439e+15	7.284446e+13	1.145463e+04	7.466649e+03	3.912598e+03	0	1.002868e-03
1.310000e+09	5.334463e+13	0.000000e+00	8.255036e-01	9.550596e+14	1.126491e+15	7.254089e+13	1.144059e+04	7.459392e+03	3.908795e+03	0	9.994828e-04
1.320000e+09	5.280572e+13	0.000000e+00	8.255036e-01	9.499502e+14	1.120595e+15	7.223931e+13	1.142662e+04	7.452170e+03	3.905011e+03	0	9.961056e-04
1.330000e+09	5.227175e+13	0.000000e+00	8.255036e-01	9.448855e+14	1.114749e+15	7.193971e+13	1.141273e+04	7.444983e+03	3.901245e+03	0	9.927368e-04
1.340000e+09	5.174269e+13	0.000000e+00	8.255036e-01	9.398647e+14	1.108953e+15	7.164206e+13	1.139891e+04	7.437830e+03	3.897497e+03	0	9.893761e-04
1.350000e+09	5.121845e+13	0.000000e+00	8.255036e-01	9.348875e+14	1.103207e+15	7.134635e+13	1.138516e+04	7.430712e+03	3.893767e+03	0	9.860235e-04
1.360000e+09	5.069900e+13	0.000000e+00	8.255036e-01	9.299533e+14	1.097509e+15	7.105257e+13	1.137149e+04	7.423627e+03	3.890054e+03	0	9.826787e-04
