#t		Qconv[W]	Ri[Rp]		R*[Rp]		Qc[W]		Qm[W]		Qr[W]		Tcmb[K]		Tl[K]		Tup[K]		RiFlag		Bs[T]
0.000000e+00	2.552693e+14	0.000000e+00	8.255033e-01	2.841265e+15	8.347203e+13	1.438634e+14	1.478151e+04	4.951248e+03	2.579165e+03	0	1.682096e-03
1.000000e+07	2.563525e+14	0.000000e+00	8.255033e-01	2.848218e+15	1.104854e+14	1.430663e+14	1.474327e+04	5.158609e+03	2.687182e+03	0	1.684472e-03
2.000000e+07	2.567777e+14	0.000000e+00	8.255033e-01	2.849768e+15	1.433994e+14	1.422752e+14	1.470494e+04	5.364265e+03	2.794311e+03	0	1.685403e-03
3.000000e+07	2.565489e+14	0.000000e+00	8.255033e-01	2.845952e+15	1.827225e+14	1.414899e+14	1.466659e+04	5.567386e+03	2.900119e+03	0	1.684902e-03
4.000000e+07	2.556815e+14	0.000000e+00	8.255033e-01	2.836901e+15	2.288237e+14	1.407106e+14	1.462828e+04	5.767112e+03	3.004159e+03	0	1.683001e-03
5.000000e+07	2.542020e+14	0.000000e+00	8.255033e-01	2.822834e+15	2.818950e+14	1.399370e+14	1.459010e+04	5.962574e+03	3.105977e+03	0	1.679748e-03
6.000000e+07	2.521477e+14	0.000000e+00	8.255033e-01	2.804061e+15	3.419220e+14	1.391692e+14	1.455211e+04	6.152910e+03	3.205126e+03	0	1.675211e-03
7.000000e+07	2.495658e+14	0.000000e+00	8.255033e-01	2.780973e+15	4.086657e+14	1.384071e+14	1.451438e+04	6.337292e+03	3.301173e+03	0	1.669474e-03
8.000000e+07	2.465116e+14	0.000000e+00	8.255033e-01	2.754027e+15	4.816577e+14	1.376507e+14	1.447695e+04	6.514944e+03	3.393714e+03	0	1.662635e-03
9.000000e+07	2.430470e+14	0.000000e+00	8.255033e-01	2.723732e+15	5.602116e+14	1.368999e+14	1.443988e+04	6.685163e+03	3.482383e+03	0	1.654809e-03
1.000000e+08	2.392378e+14	0.000000e+00	8.255033e-01	2.690631e+15	6.434485e+14	1.361547e+14	1.440322e+04	6.847340e+03	3.566863e+03	0	1.646119e-03
1.100000e+08	2.351517e+14	0.000000e+00	8.255033e-01	2.655281e+15	7.303350e+14	1.354150e+14	1.436701e+04	7.000976e+03	3.646894e+03	0	1.636693e-03
1.200000e+08	2.308559e+14	0.000000e+00	8.255033e-01	2.618235e+15	8.197313e+14	1.346808e+14	1.433127e+04	7.145687e+03	3.722276e+03	0	1.626665e-03
1.300000e+08	2.264149e+14	0.000000e+00	8.255033e-01	2.580023e+15	9.104449e+14	1.339521e+14	1.429603e+04	7.281214e+03	3.792873e+03	0	1.616167e-03
1.400000e+08	2.218888e+14	0.000000e+00	8.255033e-01	2.541139e+15	1.001282e+15	1.332287e+14	1.426131e+04	7.407422e+03	3.858617e+03	0	1.605325e-03
1.500000e+08	2.173318e+14	0.000000e+00	8.255033e-01	2.502028e+15	1.091099e+15	1.325107e+14	1.422710e+04	7.524296e+03	3.919498e+03	0	1.594259e-03
1.600000e+08	2.127915e+14	0.000000e+00	8.255033e-01	2.463080e+15	1.178843e+15	1.317980e+14	1.419342e+04	7.631932e+03	3.975566e+03	0	1.583079e-03
1.700000e+08	2.083082e+14	0.000000e+00	8.255033e-01	2.424626e+15	1.263584e+15	1.310905e+14	1.416027e+04	7.730523e+03	4.026924e+03	0	1.571882e-03
1.800000e+08	2.039149e+14	0.000000e+00	8.255033e-01	2.386937e+15	1.344538e+15	1.303883e+14	1.412763e+04	7.820352e+03	4.073717e+03	0	1.560753e-03
1.900000e+08	1.996374e+14	0.000000e+00	8.255033e-01	2.350223e+15	1.421075e+15	1.296912e+14	1.409550e+04	7.901768e+03	4.116127e+03	0	1.549763e-03
2.000000e+08	1.954951e+14	0.000000e+00	8.255033e-01	2.314644e+15	1.492725e+15	1.289993e+14	1.406386e+04	7.975176e+03	4.154366e+03	0	1.538969e-03
2.100000e+08	1.915014e+14	0.000000e+00	8.255033e-01	2.280307e+15	1.559167e+15	1.283124e+14	1.403270e+04	8.041021e+03	4.188666e+03	0	1.528417e-03
2.200000e+08	1.876645e+14	0.000000e+00	8.255033e-01	2.247280e+15	1.620221e+15	1.276306e+14	1.400200e+04	8.099774e+03	4.219271e+03	0	1.518140e-03
2.300000e+08	1.839883e+14	0.000000e+00	8.255033e-01	2.215594e+15	1.675825e+15	1.269538e+14	1.397175e+04	8.151920e+03	4.246434e+03	0	1.508162e-03
2.400000e+08	1.804733e+14	0.000000e+00	8.255033e-01	2.185252e+15	1.726026e+15	1.262820e+14	1.394192e+04	8.197944e+03	4.270409e+03	0	1.498496e-03
2.500000e+08	1.771169e+14	0.000000e+00	8.255033e-01	2.156231e+15	1.770952e+15	1.256151e+14	1.391249e+04	8.238327e+03	4.291445e+03	0	1.489148e-03
2.600000e+08	1.739146e+14	0.000000e+00	8.255033e-01	2.128494e+15	1.810799e+15	1.249530e+14	1.388346e+04	8.273537e+03	4.309786e+03	0	1.480119e-03
2.700000e+08	1.708603e+14	0.000000e+00	8.255033e-01	2.101990e+15	1.845813e+15	1.242958e+14	1.385480e+04	8.304022e+03	4.325667e+03	0	1.471403e-03
2.800000e+08	1.679466e+14	0.000000e+00	8.255033e-01	2.076658e+15	1.876273e+15	1.236434e+14	1.382650e+04	8.330208e+03	4.339307e+03	0	1.462991e-03
2.900000e+08	1.651658e+14	0.000000e+00	8.255033e-01	2.052433e+15	1.902480e+15	1.229958e+14	1.379854e+04	8.352496e+03	4.350917e+03	0	1.454871e-03
3.000000e+08	1.625097e+14	0.000000e+00	8.255033e-01	2.029247e+15	1.924744e+15	1.223529e+14	1.377090e+04	8.371260e+03	4.360691e+03	0	1.447030e-03
3.100000e+08	1.599700e+14	0.000000e+00	8.255033e-01	2.007032e+15	1.943380e+15	1.217146e+14	1.374358e+04	8.386846e+03	4.368810e+03	0	1.439453e-03
3.200000e+08	1.575386e+14	0.000000e+00	8.255033e-01	1.985720e+15	1.958693e+15	1.210810e+14	1.371655e+04	8.399574e+03	4.375441e+03	0	1.432123e-03
3.300000e+08	1.552075e+14	0.000000e+00	8.255033e-01	1.965246e+15	1.970983e+15	1.204521e+14	1.368981e+04	8.409738e+03	4.380735e+03	0	1.425024e-03
3.400000e+08	1.529693e+14	0.000000e+00	8.255033e-01	1.945547e+15	1.980531e+15	1.198276e+14	1.366335e+04	8.417603e+03	4.384832e+03	0	1.418141e-03
3.500000e+08	1.508168e+14	0.000000e+00	8.255033e-01	1.926566e+15	1.987607e+15	1.192078e+14	1.363715e+04	8.423415e+03	4.387859e+03	0	1.411458e-03
3.600000e+08	1.487435e+14	0.000000e+00	8.255033e-01	1.908246e+15	1.992459e+15	1.185924e+14	1.361120e+04	8.427392e+03	4.389931e+03	0	1.404960e-03
3.700000e+08	1.467430e+14	0.000000e+00	8.255033e-01	1.890537e+15	1.995321e+15	1.179814e+14	1.358550e+04	8.429733e+03	4.391151e+03	0	1.398633e-03
3.800000e+08	1.448099e+14	0.000000e+00	8.255033e-01	1.873391e+15	1.996404e+15	1.173749e+14	1.356004e+04	8.430619e+03	4.391612e+03	0	1.392464e-03
3.900000e+08	1.429387e+14	0.000000e+00	8.255033e-01	1.856766e+15	1.995905e+15	1.167728e+14	1.353481e+04	8.430211e+03	4.391400e+03	0	1.386440e-03
4.000000e+08	1.411248e+14	0.000000e+00	8.255033e-01	1.840622e+15	1.994000e+15	1.161750e+14	1.350980e+04	8.428653e+03	4.390588e+03	0	1.380551e-03
4.100000e+08	1.393638e+14	0.000000e+00	8.255033e-01	1.824923e+15	1.990851e+15	1.155815e+14	1.348501e+04	8.426075e+03	4.389245e+03	0	1.374784e-03
4.200000e+08	1.376517e+14	0.000000e+00	8.255033e-01	1.809636e+15	1.986606e+15	1.149924e+14	1.346043e+04	8.422593e+03	4.387431e+03	0	1.369131e-03
4.300000e+08	1.359850e+14	0.000000e+00	8.255033e-01	1.794731e+15	1.981393e+15	1.144074e+14	1.343606e+04	8.418312e+03	4.385201e+03	0	1.363583e-03
4.400000e+08	1.343603e+14	0.000000e+00	8.255033e-01	1.780182e+15	1.975332e+15	1.138267e+14	1.341188e+04	8.413324e+03	4.382603e+03	0	1.358131e-03
4.500000e+08	1.327749e+14	0.000000e+00	8.255033e-01	1.765963e+15	1.968529e+15	1.132501e+14	1.338790e+04	8.407712e+03	4.379680e+03	0	1.352767e-03
4.600000e+08	1.312259e+14	0.000000e+00	8.255033e-01	1.752054e+15	1.961078e+15	1.126777e+14	1.336412e+04	8.401550e+03	4.376470e+03	0	1.347486e-03
4.700000e+08	1.297110e+14	0.000000e+00	8.255033e-01	1.738434e+15	1.953065e+15	1.121093e+14	1.334051e+04	8.394904e+03	4.373008e+03	0	1.342281e-03
4.800000e+08	1.282280e+14	0.000000e+00	8.255033e-01	1.725085e+15	1.944564e+15	1.115451e+14	1.331710e+04	8.387833e+03	4.369324e+03	0	1.337146e-03
4.900000e+08	1.267750e+14	0.000000e+00	8.255033e-01	1.711991e+15	1.935643e+15	1.109849e+14	1.329386e+04	8.380388e+03	4.365446e+03	0	1.332076e-03
5.000000e+08	1.253502e+14	0.000000e+00	8.255033e-01	1.699137e+15	1.926362e+15	1.104287e+14	1.327080e+04	8.372617e+03	4.361398e+03	0	1.327067e-03
5.100000e+08	1.239521e+14	0.000000e+00	8.255033e-01	1.686511e+15	1.916774e+15	1.098764e+14	1.324791e+04	8.364561e+03	4.357202e+03	0	1.322115e-03
5.200000e+08	1.225791e+14	0.000000e+00	8.255033e-01	1.674099e+15	1.906927e+15	1.093282e+14	1.322519e+04	8.356256e+03	4.352876e+03	0	1.317215e-03
5.300000e+08	1.212299e+14	0.000000e+00	8.255033e-01	1.661891e+15	1.896861e+15	1.087838e+14	1.320263e+04	8.347736e+03	4.348438e+03	0	1.312364e-03
5.400000e+08	1.199034e+14	0.000000e+00	8.255033e-01	1.649878e+15	1.886615e+15	1.082433e+14	1.318024e+04	8.339030e+03	4.343902e+03	0	1.307560e-03
5.500000e+08	1.185985e+14	0.000000e+00	8.255033e-01	1.638050e+15	1.876221e+15	1.077066e+14	1.315802e+04	8.330164e+03	4.339284e+03	0	1.302800e-03
5.600000e+08	1.173142e+14	0.000000e+00	8.255033e-01	1.626399e+15	1.865708e+15	1.071738e+14	1.313595e+04	8.321160e+03	4.334594e+03	0	1.298080e-03
5.700000e+08	1.160496e+14	0.000000e+00	8.255033e-01	1.614918e+15	1.855102e+15	1.066447e+14	1.311404e+04	8.312041e+03	4.329843e+03	0	1.293399e-03
5.800000e+08	1.148040e+14	0.000000e+00	8.255033e-01	1.603599e+15	1.844426e+15	1.061194e+14	1.309228e+04	8.302823e+03	4.325042e+03	0	1.288754e-03
5.900000e+08	1.135765e+14	0.000000e+00	8.255033e-01	1.592438e+15	1.833700e+15	1.055978e+14	1.307067e+04	8.293523e+03	4.320197e+03	0	1.284145e-03
6.000000e+08	1.123664e+14	0.000000e+00	8.255033e-01	1.581427e+15	1.822941e+15	1.050800e+14	1.304922e+04	8.284156e+03	4.315318e+03	0	1.279568e-03
6.100000e+08	1.111732e+14	0.000000e+00	8.255033e-01	1.570562e+15	1.812165e+15	1.045657e+14	1.302791e+04	8.274734e+03	4.310410e+03	0	1.275023e-03
6.200000e+08	1.099963e+14	0.000000e+00	8.255033e-01	1.559837e+15	1.801385e+15	1.040551e+14	1.300675e+04	8.265269e+03	4.305480e+03	0	1.270508e-03
6.300000e+08	1.088352e+14	0.000000e+00	8.255033e-01	1.549250e+15	1.790615e+15	1.035482e+14	1.298573e+04	8.255772e+03	4.300532e+03	0	1.266021e-03
6.400000e+08	1.076893e+14	0.000000e+00	8.255033e-01	1.538794e+15	1.779862e+15	1.030447e+14	1.296485e+04	8.246250e+03	4.295572e+03	0	1.261562e-03
6.500000e+08	1.065582e+14	0.000000e+00	8.255033e-01	1.528467e+15	1.769139e+15	1.025449e+14	1.294412e+04	8.236713e+03	4.290604e+03	0	1.257130e-03
6.600000e+08	1.054414e+14	0.000000e+00	8.255033e-01	1.518265e+15	1.758453e+15	1.020485e+14	1.292352e+04	8.227167e+03	4.285631e+03	0	1.252723e-03
6.700000e+08	1.043387e+14	0.000000e+00	8.255033e-01	1.508185e+15	1.747810e+15	1.015557e+14	1.290306e+04	8.217618e+03	4.280658e+03	0	1.248340e-03
6.800000e+08	1.032496e+14	0.000000e+00	8.255033e-01	1.498223e+15	1.737217e+15	1.010663e+14	1.288274e+04	8.208073e+03	4.275686e+03	0	1.243982e-03
6.900000e+08	1.021737e+14	0.000000e+00	8.255033e-01	1.488377e+15	1.726679e+15	1.005803e+14	1.286255e+04	8.198537e+03	4.270718e+03	0	1.239646e-03
7.000000e+08	1.011108e+14	0.000000e+00	8.255033e-01	1.478644e+15	1.716201e+15	1.000978e+14	1.284249e+04	8.189013e+03	4.265757e+03	0	1.235332e-03
7.100000e+08	1.000605e+14	0.000000e+00	8.255033e-01	1.469021e+15	1.705786e+15	9.961858e+13	1.282257e+04	8.179505e+03	4.260804e+03	0	1.231040e-03
7.200000e+08	9.902262e+13	0.000000e+00	8.255033e-01	1.459506e+15	1.695439e+15	9.914275e+13	1.280277e+04	8.170018e+03	4.255862e+03	0	1.226769e-03
7.300000e+08	9.799681e+13	0.000000e+00	8.255033e-01	1.450097e+15	1.685162e+15	9.867025e+13	1.278310e+04	8.160554e+03	4.250932e+03	0	1.222518e-03
7.400000e+08	9.698283e+13	0.000000e+00	8.255033e-01	1.440791e+15	1.674957e+15	9.820104e+13	1.276356e+04	8.151115e+03	4.246015e+03	0	1.218287e-03
7.500000e+08	9.598045e+13	0.000000e+00	8.255033e-01	1.431587e+15	1.664827e+15	9.773511e+13	1.274414e+04	8.141705e+03	4.241114e+03	0	1.214075e-03
7.600000e+08	9.498942e+13	0.000000e+00	8.255033e-01	1.422482e+15	1.654773e+15	9.727242e+13	1.272485e+04	8.132326e+03	4.236228e+03	0	1.209882e-03
7.700000e+08	9.400953e+13	0.000000e+00	8.255033e-01	1.413474e+15	1.644797e+15	9.681296e+13	1.270568e+04	8.122978e+03	4.231358e+03	0	1.205707e-03
7.800000e+08	9.304057e+13	0.000000e+00	8.255033e-01	1.404563e+15	1.634901e+15	9.635668e+13	1.268663e+04	8.113664e+03	4.226507e+03	0	1.201550e-03
7.900000e+08	9.208233e+13	0.000000e+00	8.255033e-01	1.395745e+15	1.625084e+15	9.590358e+13	1.266770e+04	8.104385e+03	4.221673e+03	0	1.197411e-03
8.000000e+08	9.113463e+13	0.000000e+00	8.255033e-01	1.387020e+15	1.615347e+15	9.545361e+13	1.264889e+04	8.095143e+03	4.216859e+03	0	1.193289e-03
8.100000e+08	9.019728e+13	0.000000e+00	8.255033e-01	1.378385e+15	1.605691e+15	9.500677e+13	1.263019e+04	8.085938e+03	4.212064e+03	0	1.189184e-03
8.200000e+08	8.927010e+13	0.000000e+00	8.255033e-01	1.369840e+15	1.596117e+15	9.456302e+13	1.261161e+04	8.076772e+03	4.207289e+03	0	1.185095e-03
8.300000e+08	8.835291e+13	0.000000e+00	8.255033e-01	1.361383e+15	1.586625e+15	9.412233e+13	1.259315e+04	8.067645e+03	4.202534e+03	0	1.181022e-03
8.400000e+08	8.744555e+13	0.000000e+00	8.255033e-01	1.353012e+15	1.577214e+15	9.368469e+13	1.257480e+04	8.058557e+03	4.197801e+03	0	1.176966e-03
8.500000e+08	8.654787e+13	0.000000e+00	8.255033e-01	1.344726e+15	1.567885e+15	9.325007e+13	1.255656e+04	8.049510e+03	4.193088e+03	0	1.172924e-03
8.600000e+08	8.565969e+13	0.000000e+00	8.255033e-01	1.336524e+15	1.558637e+15	9.281845e+13	1.253844e+04	8.040504e+03	4.188396e+03	0	1.168898e-03
8.700000e+08	8.478088e+13	0.000000e+00	8.255033e-01	1.328404e+15	1.549470e+15	9.238979e+13	1.252042e+04	8.031539e+03	4.183726e+03	0	1.164887e-03
8.800000e+08	8.391129e+13	0.000000e+00	8.255033e-01	1.320366e+15	1.540385e+15	9.196409e+13	1.250252e+04	8.022615e+03	4.179078e+03	0	1.160891e-03
8.900000e+08	8.305077e+13	0.000000e+00	8.255033e-01	1.312407e+15	1.531380e+15	9.154131e+13	1.248472e+04	8.013733e+03	4.174451e+03	0	1.156909e-03
9.000000e+08	8.219919e+13	0.000000e+00	8.255033e-01	1.304527e+15	1.522455e+15	9.112143e+13	1.246703e+04	8.004893e+03	4.169847e+03	0	1.152941e-03
9.100000e+08	8.135642e+13	0.000000e+00	8.255033e-01	1.296724e+15	1.513610e+15	9.070443e+13	1.244944e+04	7.996095e+03	4.165264e+03	0	1.148987e-03
9.200000e+08	8.052231e+13	0.000000e+00	8.255033e-01	1.288998e+15	1.504843e+15	9.029028e+13	1.243196e+04	7.987340e+03	4.160703e+03	0	1.145047e-03
9.300000e+08	7.969675e+13	0.000000e+00	8.255033e-01	1.281348e+15	1.496156e+15	8.987897e+13	1.241458e+04	7.978626e+03	4.156164e+03	0	1.141120e-03
9.400000e+08	7.887961e+13	0.000000e+00	8.255033e-01	1.273771e+15	1.487546e+15	8.947047e+13	1.239731e+04	7.969955e+03	4.151647e+03	0	1.137207e-03
9.500000e+08	7.807077e+13	0.000000e+00	8.255033e-01	1.266268e+15	1.479013e+15	8.906476e+13	1.238014e+04	7.961326e+03	4.147152e+03	0	1.133306e-03
9.600000e+08	7.727011e+13	0.000000e+00	8.255033e-01	1.258837e+15	1.470557e+15	8.866181e+13	1.236307e+04	7.952739e+03	4.142679e+03	0	1.129419e-03
9.700000e+08	7.647752e+13	0.000000e+00	8.255033e-01	1.251478e+15	1.462177e+15	8.826161e+13	1.234610e+04	7.944194e+03	4.138228e+03	0	1.125544e-03
9.800000e+08	7.569288e+13	0.000000e+00	8.255033e-01	1.244188e+15	1.453871e+15	8.786413e+13	1.232923e+04	7.935691e+03	4.133798e+03	0	1.121681e-03
9.900000e+08	7.491608e+13	0.000000e+00	8.255033e-01	1.236968e+15	1.445641e+15	8.746935e+13	1.231245e+04	7.927230e+03	4.129391e+03	0	1.117831e-03
1.000000e+09	7.414701e+13	0.000000e+00	8.255033e-01	1.229816e+15	1.437484e+15	8.707726e+13	1.229578e+04	7.918810e+03	4.125005e+03	0	1.113993e-03
1.010000e+09	7.338557e+13	0.000000e+00	8.255033e-01	1.222732e+15	1.429400e+15	8.668782e+13	1.227920e+04	7.910431e+03	4.120640e+03	0	1.110166e-03
1.020000e+09	7.263166e+13	0.000000e+00	8.255033e-01	1.215714e+15	1.421388e+15	8.630102e+13	1.226271e+04	7.902094e+03	4.116297e+03	0	1.106352e-03
1.030000e+09	7.188516e+13	0.000000e+00	8.255033e-01	1.208761e+15	1.413448e+15	8.591684e+13	1.224632e+04	7.893798e+03	4.111976e+03	0	1.102548e-03
1.040000e+09	7.114598e+13	0.000000e+00	8.255033e-01	1.201874e+15	1.405579e+15	8.553525e+13	1.223002e+04	7.885543e+03	4.107676e+03	0	1.098756e-03
1.050000e+09	7.041403e+13	0.000000e+00	8.255033e-01	1.195050e+15	1.397780e+15	8.515624e+13	1.221382e+04	7.877329e+03	4.103397e+03	0	1.094975e-03
1.060000e+09	6.968921e+13	0.000000e+00	8.255033e-01	1.188290e+15	1.390050e+15	8.477979e+13	1.219771e+04	7.869154e+03	4.099139e+03	0	1.091205e-03
1.070000e+09	6.897142e+13	0.000000e+00	8.255033e-01	1.181592e+15	1.382388e+15	8.440587e+13	1.218169e+04	7.861021e+03	4.094901e+03	0	1.087446e-03
1.080000e+09	6.826057e+13	0.000000e+00	8.255033e-01	1.174955e+15	1.374795e+15	8.403447e+13	1.216576e+04	7.852926e+03	4.090685e+03	0	1.083697e-03
1.090000e+09	6.755656e+13	0.000000e+00	8.255033e-01	1.168379e+15	1.367268e+15	8.366557e+13	1.214991e+04	7.844872e+03	4.086490e+03	0	1.079958e-03
1.100000e+09	6.685932e+13	0.000000e+00	8.255033e-01	1.161863e+15	1.359808e+15	8.329914e+13	1.213416e+04	7.836857e+03	4.082314e+03	0	1.076230e-03
1.110000e+09	6.616876e+13	0.000000e+00	8.255033e-01	1.155406e+15	1.352414e+15	8.293518e+13	1.211849e+04	7.828881e+03	4.078160e+03	0	1.072512e-03
1.120000e+09	6.548478e+13	0.000000e+00	8.255033e-01	1.149008e+15	1.345084e+15	8.257364e+13	1.210291e+04	7.820945e+03	4.074025e+03	0	1.068804e-03
1.130000e+09	6.480730e+13	0.000000e+00	8.255033e-01	1.142667e+15	1.337818e+15	8.221453e+13	1.208742e+04	7.813046e+03	4.069911e+03	0	1.065105e-03
1.140000e+09	6.413624e+13	0.000000e+00	8.255033e-01	1.136383e+15	1.330616e+15	8.185782e+13	1.207201e+04	7.805187e+03	4.065817e+03	0	1.061416e-03
1.150000e+09	6.347152e+13	0.000000e+00	8.255033e-01	1.130156e+15	1.323476e+15	8.150349e+13	1.205669e+04	7.797365e+03	4.061743e+03	0	1.057737e-03
1.160000e+09	6.281305e+13	0.000000e+00	8.255033e-01	1.123984e+15	1.316399e+15	8.115153e+13	1.204145e+04	7.789581e+03	4.057688e+03	0	1.054066e-03
1.170000e+09	6.216077e+13	0.000000e+00	8.255033e-01	1.117867e+15	1.309383e+15	8.080191e+13	1.202629e+04	7.781835e+03	4.053653e+03	0	1.050405e-03
1.180000e+09	6.151458e+13	0.000000e+00	8.255033e-01	1.111804e+15	1.302427e+15	8.045461e+13	1.201122e+04	7.774126e+03	4.049637e+03	0	1.046752e-03
1.190000e+09	6.087442e+13	0.000000e+00	8.255033e-01	1.105795e+15	1.295531e+15	8.010963e+13	1.199623e+04	7.766454e+03	4.045641e+03	0	1.043109e-03
1.200000e+09	6.024021e+13	0.000000e+00	8.255033e-01	1.099839e+15	1.288695e+15	7.976693e+13	1.198132e+04	7.758819e+03	4.041664e+03	0	1.039473e-03
1.210000e+09	5.961187e+13	0.000000e+00	8.255033e-01	1.093934e+15	1.281917e+15	7.942651e+13	1.196649e+04	7.751221e+03	4.037706e+03	0	1.035847e-03
1.220000e+09	5.898934e+13	0.000000e+00	8.255033e-01	1.088082e+15	1.275196e+15	7.908834e+13	1.195173e+04	7.743659e+03	4.033766e+03	0	1.032228e-03
1.230000e+09	5.837254e+13	0.000000e+00	8.255033e-01	1.082280e+15	1.268534e+15	7.875241e+13	1.193706e+04	7.736133e+03	4.029846e+03	0	1.028618e-03
1.240000e+09	5.776140e+13	0.000000e+00	8.255033e-01	1.076529e+15	1.261927e+15	7.841870e+13	1.192246e+04	7.728642e+03	4.025944e+03	0	1.025016e-03
1.250000e+09	5.715585e+13	0.000000e+00	8.255033e-01	1.070828e+15	1.255377e+15	7.808719e+13	1.190795e+04	7.721187e+03	4.022061e+03	0	1.021421e-03
1.260000e+09	5.655583e+13	0.000000e+00	8.255033e-01	1.065176e+15	1.248882e+15	7.775787e+13	1.189351e+04	7.713768e+03	4.018196e+03	0	1.017834e-03
1.270000e+09	5.596126e+13	0.000000e+00	8.255033e-01	1.059572e+15	1.242442e+15	7.743072e+13	1.187914e+04	7.706383e+03	4.014349e+03	0	1.014255e-03
1.280000e+09	5.537208e+13	0.000000e+00	8.255033e-01	1.054017e+15	1.236055e+15	7.710572e+13	1.186485e+04	7.699033e+03	4.010520e+03	0	1.010683e-03
1.290000e+09	5.478823e+13	0.000000e+00	8.255033e-01	1.048509e+15	1.229723e+15	7.678286e+13	1.185064e+04	7.691717e+03	4.006709e+03	0	1.007118e-03
1.300000e+09	5.420963e+13	0.000000e+00	8.255033e-01	1.043047e+15	1.223443e+15	7.646211e+13	1.183650e+04	7.684436e+03	4.002916e+03	0	1.003560e-03
1.310000e+09	5.363624e+13	0.000000e+00	8.255033e-01	1.037633e+15	1.217215e+15	7.614347e+13	1.182243e+04	7.677188e+03	3.999141e+03	0	1.000009e-03
1.320000e+09	5.306798e+13	0.000000e+00	8.255033e-01	1.032264e+15	1.211039e+15	7.582691e+13	1.180844e+04	7.669974e+03	3.995383e+03	0	9.964651e-04
1.330000e+09	5.250480e+13	0.000000e+00	8.255033e-01	1.026940e+15	1.204914e+15	7.551243e+13	1.179451e+04	7.662794e+03	3.991643e+03	0	9.929275e-04
1.340000e+09	5.194663e+13	0.000000e+00	8.255033e-01	1.021661e+15	1.198840e+15	7.520000e+13	1.178066e+04	7.655646e+03	3.987920e+03	0	9.893964e-04
1.350000e+09	5.139342e+13	0.000000e+00	8.255033e-01	1.016426e+15	1.192815e+15	7.488961e+13	1.176688e+04	7.648532e+03	3.984214e+03	0	9.858717e-04
1.360000e+09	5.084511e+13	0.000000e+00	8.255033e-01	1.011235e+15	1.186840e+15	7.458124e+13	1.175317e+04	7.641450e+03	3.980525e+03	0	9.823530e-04
