#t		Qconv[W]	Ri[Rp]		R*[Rp]		Qc[W]		Qm[W]		Qr[W]		Tcmb[K]		Tl[K]		Tup[K]		RiFlag		Bs[T]
0.000000e+00	3.291738e+13	0.000000e+00	8.367349e-01	1.773489e+15	7.751256e+13	1.750331e+14	1.446391e+04	4.949829e+03	2.708946e+03	0	8.384637e-04
1.000000e+07	3.457997e+13	0.000000e+00	8.367349e-01	1.784914e+15	9.039145e+13	1.740633e+14	1.444956e+04	5.057584e+03	2.767919e+03	0	8.523489e-04
2.000000e+07	3.611498e+13	0.000000e+00	8.367349e-01	1.795337e+15	1.048343e+14	1.731007e+14	1.443511e+04	5.165155e+03	2.826791e+03	0	8.647787e-04
3.000000e+07	3.751828e+13	0.000000e+00	8.367349e-01	1.804727e+15	1.209357e+14	1.721454e+14	1.442057e+04	5.272391e+03	2.885479e+03	0	8.758374e-04
4.000000e+07	3.878643e+13	0.000000e+00	8.367349e-01	1.813058e+15	1.387808e+14	1.711971e+14	1.440596e+04	5.379134e+03	2.943897e+03	0	8.855963e-04
5.000000e+07	3.991673e+13	0.000000e+00	8.367349e-01	1.820309e+15	1.584436e+14	1.702560e+14	1.439128e+04	5.485220e+03	3.001956e+03	0	8.941167e-04
6.000000e+07	4.090733e+13	0.000000e+00	8.367349e-01	1.826468e+15	1.799839e+14	1.693218e+14	1.437654e+04	5.590480e+03	3.059563e+03	0	9.014526e-04
7.000000e+07	4.175719e+13	0.000000e+00	8.367349e-01	1.831527e+15	2.034453e+14	1.683946e+14	1.436176e+04	5.694743e+03	3.116623e+03	0	9.076526e-04
8.000000e+07	4.246624e+13	0.000000e+00	8.367349e-01	1.835486e+15	2.288527e+14	1.674743e+14	1.434693e+04	5.797831e+03	3.173042e+03	0	9.127611e-04
9.000000e+07	4.303529e+13	0.000000e+00	8.367349e-01	1.838353e+15	2.562107e+14	1.665609e+14	1.433207e+04	5.899571e+03	3.228722e+03	0	9.168201e-04
1.000000e+08	4.346614e+13	0.000000e+00	8.367349e-01	1.840143e+15	2.855018e+14	1.656542e+14	1.431719e+04	5.999787e+03	3.283568e+03	0	9.198695e-04
1.100000e+08	4.376149e+13	0.000000e+00	8.367349e-01	1.840877e+15	3.166856e+14	1.647543e+14	1.430229e+04	6.098306e+03	3.337486e+03	0	9.219483e-04
1.200000e+08	4.392496e+13	0.000000e+00	8.367349e-01	1.840585e+15	3.496980e+14	1.638610e+14	1.428739e+04	6.194960e+03	3.390383e+03	0	9.230948e-04
1.300000e+08	4.396103e+13	0.000000e+00	8.367349e-01	1.839302e+15	3.844516e+14	1.629744e+14	1.427249e+04	6.289587e+03	3.442170e+03	0	9.233475e-04
1.400000e+08	4.387498e+13	0.000000e+00	8.367349e-01	1.837071e+15	4.208358e+14	1.620943e+14	1.425760e+04	6.382032e+03	3.492764e+03	0	9.227446e-04
1.500000e+08	4.367280e+13	0.000000e+00	8.367349e-01	1.833938e+15	4.587184e+14	1.612207e+14	1.424273e+04	6.472150e+03	3.542084e+03	0	9.213251e-04
1.600000e+08	4.336111e+13	0.000000e+00	8.367349e-01	1.829956e+15	4.979470e+14	1.603536e+14	1.422788e+04	6.559808e+03	3.590057e+03	0	9.191280e-04
1.700000e+08	4.294706e+13	0.000000e+00	8.367349e-01	1.825182e+15	5.383523e+14	1.594928e+14	1.421307e+04	6.644883e+03	3.636617e+03	0	9.161931e-04
1.800000e+08	4.243820e+13	0.000000e+00	8.367349e-01	1.819674e+15	5.797496e+14	1.586384e+14	1.419829e+04	6.727268e+03	3.681705e+03	0	9.125602e-04
1.900000e+08	4.184239e+13	0.000000e+00	8.367349e-01	1.813494e+15	6.219424e+14	1.577903e+14	1.418356e+04	6.806869e+03	3.725269e+03	0	9.082694e-04
2.000000e+08	4.116765e+13	0.000000e+00	8.367349e-01	1.806706e+15	6.647265e+14	1.569485e+14	1.416888e+04	6.883607e+03	3.767266e+03	0	9.033607e-04
2.100000e+08	4.042209e+13	0.000000e+00	8.367349e-01	1.799372e+15	7.078922e+14	1.561128e+14	1.415426e+04	6.957419e+03	3.807662e+03	0	8.978741e-04
2.200000e+08	3.961377e+13	0.000000e+00	8.367349e-01	1.791557e+15	7.512294e+14	1.552833e+14	1.413969e+04	7.028258e+03	3.846431e+03	0	8.918488e-04
2.300000e+08	3.875061e+13	0.000000e+00	8.367349e-01	1.783322e+15	7.945291e+14	1.544598e+14	1.412519e+04	7.096093e+03	3.883556e+03	0	8.853236e-04
2.400000e+08	3.784030e+13	0.000000e+00	8.367349e-01	1.774727e+15	8.375884e+14	1.536424e+14	1.411075e+04	7.160907e+03	3.919027e+03	0	8.783360e-04
2.500000e+08	3.689021e+13	0.000000e+00	8.367349e-01	1.765830e+15	8.802131e+14	1.528310e+14	1.409638e+04	7.222701e+03	3.952846e+03	0	8.709226e-04
2.600000e+08	3.590735e+13	0.000000e+00	8.367349e-01	1.756686e+15	9.222191e+14	1.520255e+14	1.408209e+04	7.281487e+03	3.985018e+03	0	8.631183e-04
2.700000e+08	3.489829e+13	0.000000e+00	8.367349e-01	1.747345e+15	9.634361e+14	1.512260e+14	1.406787e+04	7.337292e+03	4.015559e+03	0	8.549563e-04
2.800000e+08	3.386914e+13	0.000000e+00	8.367349e-01	1.737857e+15	1.003709e+15	1.504322e+14	1.405372e+04	7.390155e+03	4.044490e+03	0	8.464681e-04
2.900000e+08	3.282552e+13	0.000000e+00	8.367349e-01	1.728264e+15	1.042897e+15	1.496442e+14	1.403965e+04	7.440127e+03	4.071839e+03	0	8.376831e-04
3.000000e+08	3.177253e+13	0.000000e+00	8.367349e-01	1.718606e+15	1.080879e+15	1.488620e+14	1.402566e+04	7.487269e+03	4.097639e+03	0	8.286284e-04
3.100000e+08	3.071476e+13	0.000000e+00	8.367349e-01	1.708919e+15	1.117549e+15	1.480855e+14	1.401175e+04	7.531649e+03	4.121927e+03	0	8.193289e-04
3.200000e+08	2.965631e+13	0.000000e+00	8.367349e-01	1.699235e+15	1.152820e+15	1.473147e+14	1.399791e+04	7.573345e+03	4.144747e+03	0	8.098071e-04
3.300000e+08	2.860077e+13	0.000000e+00	8.367349e-01	1.689582e+15	1.186622e+15	1.465494e+14	1.398416e+04	7.612440e+03	4.166143e+03	0	8.000831e-04
3.400000e+08	2.755126e+13	0.000000e+00	8.367349e-01	1.679984e+15	1.218900e+15	1.457897e+14	1.397048e+04	7.649024e+03	4.186164e+03	0	7.901746e-04
3.500000e+08	2.651047e+13	0.000000e+00	8.367349e-01	1.670462e+15	1.249615e+15	1.450355e+14	1.395688e+04	7.683188e+03	4.204861e+03	0	7.800966e-04
3.600000e+08	2.548066e+13	0.000000e+00	8.367349e-01	1.661033e+15	1.278745e+15	1.442868e+14	1.394336e+04	7.715028e+03	4.222287e+03	0	7.698618e-04
3.700000e+08	2.446370e+13	0.000000e+00	8.367349e-01	1.651712e+15	1.306279e+15	1.435435e+14	1.392991e+04	7.744643e+03	4.238495e+03	0	7.594804e-04
3.800000e+08	2.346112e+13	0.000000e+00	8.367349e-01	1.642512e+15	1.332219e+15	1.428056e+14	1.391654e+04	7.772131e+03	4.253538e+03	0	7.489603e-04
3.900000e+08	2.247412e+13	0.000000e+00	8.367349e-01	1.633440e+15	1.356576e+15	1.420730e+14	1.390324e+04	7.797591e+03	4.267472e+03	0	7.383067e-04
4.000000e+08	2.150364e+13	0.000000e+00	8.367349e-01	1.624504e+15	1.379373e+15	1.413457e+14	1.389002e+04	7.821121e+03	4.280350e+03	0	7.275226e-04
4.100000e+08	2.055033e+13	0.000000e+00	8.367349e-01	1.615709e+15	1.400641e+15	1.406236e+14	1.387686e+04	7.842820e+03	4.292225e+03	0	7.166088e-04
4.200000e+08	1.961464e+13	0.000000e+00	8.367349e-01	1.607059e+15	1.420417e+15	1.399068e+14	1.386378e+04	7.862783e+03	4.303151e+03	0	7.055633e-04
4.300000e+08	1.869684e+13	0.000000e+00	8.367349e-01	1.598556e+15	1.438743e+15	1.391951e+14	1.385077e+04	7.881104e+03	4.313177e+03	0	6.943822e-04
4.400000e+08	1.779701e+13	0.000000e+00	8.367349e-01	1.590199e+15	1.455667e+15	1.384885e+14	1.383783e+04	7.897873e+03	4.322355e+03	0	6.830591e-04
4.500000e+08	1.691512e+13	0.000000e+00	8.367349e-01	1.581989e+15	1.471241e+15	1.377870e+14	1.382496e+04	7.913180e+03	4.330732e+03	0	6.715848e-04
4.600000e+08	1.605098e+13	0.000000e+00	8.367349e-01	1.573924e+15	1.485517e+15	1.370906e+14	1.381215e+04	7.927110e+03	4.338355e+03	0	6.599480e-04
4.700000e+08	1.520434e+13	0.000000e+00	8.367349e-01	1.566002e+15	1.498552e+15	1.363991e+14	1.379941e+04	7.939744e+03	4.345270e+03	0	6.481344e-04
4.800000e+08	1.437487e+13	0.000000e+00	8.367349e-01	1.558221e+15	1.510404e+15	1.357126e+14	1.378673e+04	7.951161e+03	4.351518e+03	0	6.361270e-04
4.900000e+08	1.356215e+13	0.000000e+00	8.367349e-01	1.550576e+15	1.521128e+15	1.350311e+14	1.377411e+04	7.961437e+03	4.357142e+03	0	6.239053e-04
5.000000e+08	1.276574e+13	0.000000e+00	8.367349e-01	1.543064e+15	1.530782e+15	1.343543e+14	1.376156e+04	7.970643e+03	4.362180e+03	0	6.114457e-04
5.100000e+08	1.198516e+13	0.000000e+00	8.367349e-01	1.535682e+15	1.539423e+15	1.336825e+14	1.374907e+04	7.978847e+03	4.366670e+03	0	5.987200e-04
5.200000e+08	1.121989e+13	0.000000e+00	8.367349e-01	1.528426e+15	1.547107e+15	1.330154e+14	1.373663e+04	7.986114e+03	4.370647e+03	0	5.856957e-04
5.300000e+08	1.046940e+13	0.000000e+00	8.367349e-01	1.521290e+15	1.553887e+15	1.323531e+14	1.372426e+04	7.992506e+03	4.374145e+03	0	5.723343e-04
5.400000e+08	9.733163e+12	0.000000e+00	8.367349e-01	1.514272e+15	1.559818e+15	1.316954e+14	1.371194e+04	7.998080e+03	4.377196e+03	0	5.585909e-04
5.500000e+08	9.010639e+12	0.000000e+00	8.367349e-01	1.507366e+15	1.564950e+15	1.310425e+14	1.369968e+04	8.002890e+03	4.379829e+03	0	5.444121e-04
5.600000e+08	8.301294e+12	0.000000e+00	8.367349e-01	1.500568e+15	1.569332e+15	1.303942e+14	1.368748e+04	8.006990e+03	4.382072e+03	0	5.297339e-04
5.700000e+08	7.604600e+12	0.000000e+00	8.367349e-01	1.493875e+15	1.573013e+15	1.297505e+14	1.367533e+04	8.010426e+03	4.383952e+03	0	5.144794e-04
5.800000e+08	6.920041e+12	0.000000e+00	8.367349e-01	1.487281e+15	1.576036e+15	1.291114e+14	1.366323e+04	8.013244e+03	4.385495e+03	0	4.985539e-04
5.900000e+08	6.247114e+12	0.000000e+00	8.367349e-01	1.480784e+15	1.578447e+15	1.284768e+14	1.365119e+04	8.015488e+03	4.386723e+03	0	4.818394e-04
6.000000e+08	5.585334e+12	0.000000e+00	8.367349e-01	1.474379e+15	1.580284e+15	1.278467e+14	1.363920e+04	8.017197e+03	4.387658e+03	0	4.641862e-04
6.100000e+08	4.934228e+12	0.000000e+00	8.367349e-01	1.468062e+15	1.581588e+15	1.272211e+14	1.362726e+04	8.018409e+03	4.388322e+03	0	4.453987e-04
6.200000e+08	4.293348e+12	0.000000e+00	8.367349e-01	1.461830e+15	1.582395e+15	1.265999e+14	1.361538e+04	8.019159e+03	4.388732e+03	0	4.252143e-04
6.300000e+08	3.662259e+12	0.000000e+00	8.367349e-01	1.455680e+15	1.582740e+15	1.259831e+14	1.360354e+04	8.019480e+03	4.388908e+03	0	4.032666e-04
6.400000e+08	3.040548e+12	0.000000e+00	8.367349e-01	1.449608e+15	1.582657e+15	1.253706e+14	1.359176e+04	8.019402e+03	4.388865e+03	0	3.790180e-04
6.500000e+08	2.427823e+12	0.000000e+00	8.367349e-01	1.443611e+15	1.582175e+15	1.247624e+14	1.358002e+04	8.018954e+03	4.388620e+03	0	3.516265e-04
6.600000e+08	1.823708e+12	0.000000e+00	8.367349e-01	1.437686e+15	1.581324e+15	1.241585e+14	1.356833e+04	8.018164e+03	4.388187e+03	0	3.196399e-04
6.700000e+08	1.227847e+12	0.000000e+00	8.367349e-01	1.431830e+15	1.580131e+15	1.235589e+14	1.355669e+04	8.017055e+03	4.387581e+03	0	2.801500e-04
6.800000e+08	6.399036e+11	0.000000e+00	8.367349e-01	1.426041e+15	1.578622e+15	1.229635e+14	1.354510e+04	8.015652e+03	4.386813e+03	0	2.254485e-04
6.900000e+08	5.955930e+10	0.000000e+00	8.367349e-01	1.420315e+15	1.576821e+15	1.223722e+14	1.353355e+04	8.013975e+03	4.385895e+03	0	1.021705e-04
7.000000e+08	-5.134878e+11	0.000000e+00	8.367349e-01	1.414652e+15	1.574750e+15	1.217851e+14	1.352205e+04	8.012045e+03	4.384839e+03	0	nan
