#t		Qconv[W]	Ri[Rp]		R*[Rp]		Qc[W]		Qm[W]		Qr[W]		Tcmb[K]		Tl[K]		Tup[K]		RiFlag		Bs[T]
0.000000e+00	2.302830e+14	0.000000e+00	8.231296e-01	3.719147e+15	7.434318e+13	1.969338e+14	1.739846e+04	5.413206e+03	2.735527e+03	0	1.616589e-03
1.000000e+07	2.343386e+14	0.000000e+00	8.231296e-01	3.747253e+15	9.682595e+13	1.958426e+14	1.736899e+04	5.616635e+03	2.838328e+03	0	1.626024e-03
2.000000e+07	2.377817e+14	0.000000e+00	8.231296e-01	3.770595e+15	1.242354e+14	1.947596e+14	1.733929e+04	5.820176e+03	2.941187e+03	0	1.633949e-03
3.000000e+07	2.405904e+14	0.000000e+00	8.231296e-01	3.789005e+15	1.571621e+14	1.936847e+14	1.730940e+04	6.023300e+03	3.043834e+03	0	1.640357e-03
4.000000e+07	2.427491e+14	0.000000e+00	8.231296e-01	3.802369e+15	1.961578e+14	1.926178e+14	1.727937e+04	6.225438e+03	3.145983e+03	0	1.645249e-03
5.000000e+07	2.442500e+14	0.000000e+00	8.231296e-01	3.810631e+15	2.417079e+14	1.915589e+14	1.724924e+04	6.425985e+03	3.247328e+03	0	1.648633e-03
6.000000e+07	2.450935e+14	0.000000e+00	8.231296e-01	3.813797e+15	2.942043e+14	1.905079e+14	1.721904e+04	6.624314e+03	3.347552e+03	0	1.650528e-03
7.000000e+07	2.452885e+14	0.000000e+00	8.231296e-01	3.811941e+15	3.539182e+14	1.894647e+14	1.718881e+04	6.819776e+03	3.446328e+03	0	1.650966e-03
8.000000e+07	2.448526e+14	0.000000e+00	8.231296e-01	3.805204e+15	4.209769e+14	1.884292e+14	1.715860e+04	7.011719e+03	3.543325e+03	0	1.649987e-03
9.000000e+07	2.438121e+14	0.000000e+00	8.231296e-01	3.793794e+15	4.953445e+14	1.874015e+14	1.712845e+04	7.199494e+03	3.638216e+03	0	1.647647e-03
1.000000e+08	2.422012e+14	0.000000e+00	8.231296e-01	3.777980e+15	5.768097e+14	1.863814e+14	1.709838e+04	7.382469e+03	3.730681e+03	0	1.644010e-03
1.100000e+08	2.400615e+14	0.000000e+00	8.231296e-01	3.758086e+15	6.649827e+14	1.853688e+14	1.706844e+04	7.560045e+03	3.820417e+03	0	1.639154e-03
1.200000e+08	2.374405e+14	0.000000e+00	8.231296e-01	3.734486e+15	7.592984e+14	1.843638e+14	1.703866e+04	7.731662e+03	3.907143e+03	0	1.633167e-03
1.300000e+08	2.343907e+14	0.000000e+00	8.231296e-01	3.707587e+15	8.590321e+14	1.833662e+14	1.700906e+04	7.896816e+03	3.990603e+03	0	1.626145e-03
1.400000e+08	2.309676e+14	0.000000e+00	8.231296e-01	3.677824e+15	9.633195e+14	1.823760e+14	1.697968e+04	8.055069e+03	4.070575e+03	0	1.618190e-03
1.500000e+08	2.272288e+14	0.000000e+00	8.231296e-01	3.645644e+15	1.071187e+15	1.813931e+14	1.695053e+04	8.206051e+03	4.146872e+03	0	1.609411e-03
1.600000e+08	2.232318e+14	0.000000e+00	8.231296e-01	3.611492e+15	1.181585e+15	1.804175e+14	1.692164e+04	8.349471e+03	4.219349e+03	0	1.599918e-03
1.700000e+08	2.190328e+14	0.000000e+00	8.231296e-01	3.575808e+15	1.293423e+15	1.794490e+14	1.689302e+04	8.485121e+03	4.287898e+03	0	1.589823e-03
1.800000e+08	2.146855e+14	0.000000e+00	8.231296e-01	3.539009e+15	1.405609e+15	1.784877e+14	1.686468e+04	8.612871e+03	4.352456e+03	0	1.579235e-03
1.900000e+08	2.102402e+14	0.000000e+00	8.231296e-01	3.501482e+15	1.517083e+15	1.775335e+14	1.683663e+04	8.732672e+03	4.412997e+03	0	1.568258e-03
2.000000e+08	2.057425e+14	0.000000e+00	8.231296e-01	3.463583e+15	1.626843e+15	1.765863e+14	1.680888e+04	8.844552e+03	4.469535e+03	0	1.556994e-03
2.100000e+08	2.012331e+14	0.000000e+00	8.231296e-01	3.425627e+15	1.733978e+15	1.756461e+14	1.678143e+04	8.948606e+03	4.522117e+03	0	1.545535e-03
2.200000e+08	1.967473e+14	0.000000e+00	8.231296e-01	3.387888e+15	1.837682e+15	1.747128e+14	1.675428e+04	9.044992e+03	4.570825e+03	0	1.533965e-03
2.300000e+08	1.923154e+14	0.000000e+00	8.231296e-01	3.350598e+15	1.937267e+15	1.737863e+14	1.672743e+04	9.133924e+03	4.615767e+03	0	1.522359e-03
2.400000e+08	1.879620e+14	0.000000e+00	8.231296e-01	3.313949e+15	2.032169e+15	1.728666e+14	1.670087e+04	9.215659e+03	4.657071e+03	0	1.510784e-03
2.500000e+08	1.837069e+14	0.000000e+00	8.231296e-01	3.278094e+15	2.121951e+15	1.719537e+14	1.667461e+04	9.290494e+03	4.694888e+03	0	1.499297e-03
2.600000e+08	1.795653e+14	0.000000e+00	8.231296e-01	3.243148e+15	2.206295e+15	1.710474e+14	1.664862e+04	9.358751e+03	4.729382e+03	0	1.487944e-03
2.700000e+08	1.755482e+14	0.000000e+00	8.231296e-01	3.209197e+15	2.285000e+15	1.701478e+14	1.662292e+04	9.420774e+03	4.760724e+03	0	1.476764e-03
2.800000e+08	1.716630e+14	0.000000e+00	8.231296e-01	3.176296e+15	2.357964e+15	1.692547e+14	1.659748e+04	9.476918e+03	4.789096e+03	0	1.465789e-03
2.900000e+08	1.679139e+14	0.000000e+00	8.231296e-01	3.144477e+15	2.425177e+15	1.683682e+14	1.657230e+04	9.527545e+03	4.814680e+03	0	1.455039e-03
3.000000e+08	1.643025e+14	0.000000e+00	8.231296e-01	3.113752e+15	2.486707e+15	1.674881e+14	1.654738e+04	9.573017e+03	4.837659e+03	0	1.444532e-03
3.100000e+08	1.608281e+14	0.000000e+00	8.231296e-01	3.084115e+15	2.542683e+15	1.666144e+14	1.652270e+04	9.613690e+03	4.858213e+03	0	1.434277e-03
3.200000e+08	1.574885e+14	0.000000e+00	8.231296e-01	3.055547e+15	2.593290e+15	1.657471e+14	1.649825e+04	9.649914e+03	4.876519e+03	0	1.424280e-03
3.300000e+08	1.542798e+14	0.000000e+00	8.231296e-01	3.028018e+15	2.638749e+15	1.648861e+14	1.647403e+04	9.682024e+03	4.892746e+03	0	1.414541e-03
3.400000e+08	1.511976e+14	0.000000e+00	8.231296e-01	3.001491e+15	2.679310e+15	1.640313e+14	1.645003e+04	9.710344e+03	4.907057e+03	0	1.405057e-03
3.500000e+08	1.482362e+14	0.000000e+00	8.231296e-01	2.975923e+15	2.715247e+15	1.631828e+14	1.642624e+04	9.735179e+03	4.919607e+03	0	1.395823e-03
3.600000e+08	1.453900e+14	0.000000e+00	8.231296e-01	2.951269e+15	2.746840e+15	1.623404e+14	1.640265e+04	9.756818e+03	4.930542e+03	0	1.386832e-03
3.700000e+08	1.426526e+14	0.000000e+00	8.231296e-01	2.927479e+15	2.774377e+15	1.615041e+14	1.637925e+04	9.775535e+03	4.940001e+03	0	1.378073e-03
3.800000e+08	1.400179e+14	0.000000e+00	8.231296e-01	2.904505e+15	2.798142e+15	1.606738e+14	1.635605e+04	9.791583e+03	4.948110e+03	0	1.369536e-03
3.900000e+08	1.374797e+14	0.000000e+00	8.231296e-01	2.882297e+15	2.818419e+15	1.598496e+14	1.633302e+04	9.805198e+03	4.954990e+03	0	1.361210e-03
4.000000e+08	1.350318e+14	0.000000e+00	8.231296e-01	2.860808e+15	2.835480e+15	1.590313e+14	1.631017e+04	9.816599e+03	4.960752e+03	0	1.353083e-03
4.100000e+08	1.326683e+14	0.000000e+00	8.231296e-01	2.839992e+15	2.849587e+15	1.582189e+14	1.628749e+04	9.825989e+03	4.965497e+03	0	1.345142e-03
4.200000e+08	1.303836e+14	0.000000e+00	8.231296e-01	2.819803e+15	2.860988e+15	1.574123e+14	1.626498e+04	9.833554e+03	4.969320e+03	0	1.337375e-03
4.300000e+08	1.281722e+14	0.000000e+00	8.231296e-01	2.800199e+15	2.869919e+15	1.566116e+14	1.624263e+04	9.839465e+03	4.972307e+03	0	1.329771e-03
4.400000e+08	1.260291e+14	0.000000e+00	8.231296e-01	2.781142e+15	2.876601e+15	1.558166e+14	1.622043e+04	9.843879e+03	4.974538e+03	0	1.322318e-03
4.500000e+08	1.239495e+14	0.000000e+00	8.231296e-01	2.762593e+15	2.881238e+15	1.550274e+14	1.619838e+04	9.846939e+03	4.976084e+03	0	1.315005e-03
4.600000e+08	1.219291e+14	0.000000e+00	8.231296e-01	2.744518e+15	2.884024e+15	1.542438e+14	1.617648e+04	9.848775e+03	4.977012e+03	0	1.307821e-03
4.700000e+08	1.199636e+14	0.000000e+00	8.231296e-01	2.726884e+15	2.885135e+15	1.534658e+14	1.615472e+04	9.849507e+03	4.977382e+03	0	1.300755e-03
4.800000e+08	1.180492e+14	0.000000e+00	8.231296e-01	2.709661e+15	2.884734e+15	1.526934e+14	1.613310e+04	9.849242e+03	4.977248e+03	0	1.293799e-03
4.900000e+08	1.161825e+14	0.000000e+00	8.231296e-01	2.692822e+15	2.882971e+15	1.519265e+14	1.611162e+04	9.848081e+03	4.976661e+03	0	1.286943e-03
5.000000e+08	1.143601e+14	0.000000e+00	8.231296e-01	2.676341e+15	2.879983e+15	1.511651e+14	1.609027e+04	9.846111e+03	4.975665e+03	0	1.280179e-03
5.100000e+08	1.125791e+14	0.000000e+00	8.231296e-01	2.660196e+15	2.875895e+15	1.504092e+14	1.606905e+04	9.843413e+03	4.974302e+03	0	1.273498e-03
5.200000e+08	1.108368e+14	0.000000e+00	8.231296e-01	2.644363e+15	2.870822e+15	1.496587e+14	1.604796e+04	9.840062e+03	4.972609e+03	0	1.266894e-03
5.300000e+08	1.091307e+14	0.000000e+00	8.231296e-01	2.628824e+15	2.864867e+15	1.489135e+14	1.602699e+04	9.836124e+03	4.970619e+03	0	1.260360e-03
5.400000e+08	1.074583e+14	0.000000e+00	8.231296e-01	2.613561e+15	2.858126e+15	1.481736e+14	1.600615e+04	9.831658e+03	4.968362e+03	0	1.253889e-03
5.500000e+08	1.058178e+14	0.000000e+00	8.231296e-01	2.598558e+15	2.850684e+15	1.474389e+14	1.598543e+04	9.826719e+03	4.965866e+03	0	1.247475e-03
5.600000e+08	1.042071e+14	0.000000e+00	8.231296e-01	2.583798e+15	2.842621e+15	1.467095e+14	1.596482e+04	9.821356e+03	4.963156e+03	0	1.241113e-03
5.700000e+08	1.026245e+14	0.000000e+00	8.231296e-01	2.569269e+15	2.834003e+15	1.459853e+14	1.594434e+04	9.815614e+03	4.960254e+03	0	1.234798e-03
5.800000e+08	1.010684e+14	0.000000e+00	8.231296e-01	2.554958e+15	2.824899e+15	1.452662e+14	1.592396e+04	9.809533e+03	4.957181e+03	0	1.228526e-03
5.900000e+08	9.953742e+13	0.000000e+00	8.231296e-01	2.540854e+15	2.815362e+15	1.445522e+14	1.590371e+04	9.803149e+03	4.953955e+03	0	1.222291e-03
6.000000e+08	9.803013e+13	0.000000e+00	8.231296e-01	2.526946e+15	2.805447e+15	1.438433e+14	1.588356e+04	9.796495e+03	4.950593e+03	0	1.216090e-03
6.100000e+08	9.654536e+13	0.000000e+00	8.231296e-01	2.513224e+15	2.795198e+15	1.431394e+14	1.586352e+04	9.789600e+03	4.947108e+03	0	1.209919e-03
6.200000e+08	9.508199e+13	0.000000e+00	8.231296e-01	2.499680e+15	2.784661e+15	1.424404e+14	1.584360e+04	9.782492e+03	4.943516e+03	0	1.203774e-03
6.300000e+08	9.363902e+13	0.000000e+00	8.231296e-01	2.486306e+15	2.773871e+15	1.417464e+14	1.582377e+04	9.775193e+03	4.939828e+03	0	1.197654e-03
6.400000e+08	9.221552e+13	0.000000e+00	8.231296e-01	2.473094e+15	2.762863e+15	1.410573e+14	1.580406e+04	9.767726e+03	4.936054e+03	0	1.191554e-03
6.500000e+08	9.081064e+13	0.000000e+00	8.231296e-01	2.460038e+15	2.751670e+15	1.403731e+14	1.578445e+04	9.760111e+03	4.932206e+03	0	1.185472e-03
6.600000e+08	8.942361e+13	0.000000e+00	8.231296e-01	2.447131e+15	2.740317e+15	1.396936e+14	1.576494e+04	9.752365e+03	4.928292e+03	0	1.179405e-03
6.700000e+08	8.805370e+13	0.000000e+00	8.231296e-01	2.434369e+15	2.728830e+15	1.390189e+14	1.574554e+04	9.744504e+03	4.924319e+03	0	1.173352e-03
6.800000e+08	8.670027e+13	0.000000e+00	8.231296e-01	2.421745e+15	2.717231e+15	1.383490e+14	1.572623e+04	9.736542e+03	4.920296e+03	0	1.167309e-03
6.900000e+08	8.536272e+13	0.000000e+00	8.231296e-01	2.409256e+15	2.705541e+15	1.376838e+14	1.570703e+04	9.728494e+03	4.916228e+03	0	1.161275e-03
7.000000e+08	8.404049e+13	0.000000e+00	8.231296e-01	2.396895e+15	2.693777e+15	1.370232e+14	1.568792e+04	9.720369e+03	4.912123e+03	0	1.155248e-03
7.100000e+08	8.273307e+13	0.000000e+00	8.231296e-01	2.384661e+15	2.681956e+15	1.363673e+14	1.566892e+04	9.712179e+03	4.907984e+03	0	1.149226e-03
7.200000e+08	8.143999e+13	0.000000e+00	8.231296e-01	2.372548e+15	2.670092e+15	1.357159e+14	1.565001e+04	9.703934e+03	4.903818e+03	0	1.143207e-03
7.300000e+08	8.016081e+13	0.000000e+00	8.231296e-01	2.360553e+15	2.658198e+15	1.350691e+14	1.563119e+04	9.695642e+03	4.899627e+03	0	1.137190e-03
7.400000e+08	7.889513e+13	0.000000e+00	8.231296e-01	2.348674e+15	2.646287e+15	1.344268e+14	1.561247e+04	9.687311e+03	4.895417e+03	0	1.131173e-03
7.500000e+08	7.764257e+13	0.000000e+00	8.231296e-01	2.336906e+15	2.634369e+15	1.337890e+14	1.559385e+04	9.678947e+03	4.891191e+03	0	1.125155e-03
7.600000e+08	7.640278e+13	0.000000e+00	8.231296e-01	2.325248e+15	2.622451e+15	1.331556e+14	1.557532e+04	9.670558e+03	4.886951e+03	0	1.119134e-03
7.700000e+08	7.517545e+13	0.000000e+00	8.231296e-01	2.313696e+15	2.610545e+15	1.325267e+14	1.555688e+04	9.662149e+03	4.882702e+03	0	1.113109e-03
7.800000e+08	7.396025e+13	0.000000e+00	8.231296e-01	2.302249e+15	2.598656e+15	1.319021e+14	1.553853e+04	9.653725e+03	4.878445e+03	0	1.107079e-03
7.900000e+08	7.275692e+13	0.000000e+00	8.231296e-01	2.290903e+15	2.586791e+15	1.312818e+14	1.552027e+04	9.645291e+03	4.874182e+03	0	1.101042e-03
8.000000e+08	7.156519e+13	0.000000e+00	8.231296e-01	2.279657e+15	2.574957e+15	1.306659e+14	1.550210e+04	9.636850e+03	4.869917e+03	0	1.094997e-03
8.100000e+08	7.038480e+13	0.000000e+00	8.231296e-01	2.268509e+15	2.563158e+15	1.300542e+14	1.548402e+04	9.628407e+03	4.865651e+03	0	1.088943e-03
8.200000e+08	6.921552e+13	0.000000e+00	8.231296e-01	2.257457e+15	2.551399e+15	1.294467e+14	1.546603e+04	9.619966e+03	4.861385e+03	0	1.082880e-03
8.300000e+08	6.805712e+13	0.000000e+00	8.231296e-01	2.246499e+15	2.539685e+15	1.288435e+14	1.544813e+04	9.611528e+03	4.857121e+03	0	1.076805e-03
8.400000e+08	6.690941e+13	0.000000e+00	8.231296e-01	2.235633e+15	2.528019e+15	1.282444e+14	1.543031e+04	9.603097e+03	4.852860e+03	0	1.070717e-03
8.500000e+08	6.577218e+13	0.000000e+00	8.231296e-01	2.224857e+15	2.516404e+15	1.276495e+14	1.541258e+04	9.594676e+03	4.848605e+03	0	1.064616e-03
8.600000e+08	6.464525e+13	0.000000e+00	8.231296e-01	2.214171e+15	2.504843e+15	1.270586e+14	1.539493e+04	9.586267e+03	4.844355e+03	0	1.058501e-03
8.700000e+08	6.352842e+13	0.000000e+00	8.231296e-01	2.203573e+15	2.493340e+15	1.264718e+14	1.537737e+04	9.577871e+03	4.840112e+03	0	1.052370e-03
8.800000e+08	6.242154e+13	0.000000e+00	8.231296e-01	2.193060e+15	2.481895e+15	1.258891e+14	1.535990e+04	9.569490e+03	4.835877e+03	0	1.046222e-03
8.900000e+08	6.132444e+13	0.000000e+00	8.231296e-01	2.182633e+15	2.470512e+15	1.253103e+14	1.534250e+04	9.561127e+03	4.831651e+03	0	1.040056e-03
9.000000e+08	6.023697e+13	0.000000e+00	8.231296e-01	2.172290e+15	2.459189e+15	1.247356e+14	1.532519e+04	9.552782e+03	4.827434e+03	0	1.033872e-03
9.100000e+08	5.915898e+13	0.000000e+00	8.231296e-01	2.162029e+15	2.447932e+15	1.241647e+14	1.530796e+04	9.544456e+03	4.823227e+03	0	1.027667e-03
9.200000e+08	5.809033e+13	0.000000e+00	8.231296e-01	2.151849e+15	2.436740e+15	1.235978e+14	1.529081e+04	9.536152e+03	4.819030e+03	0	1.021442e-03
9.300000e+08	5.703087e+13	0.000000e+00	8.231296e-01	2.141749e+15	2.425614e+15	1.230348e+14	1.527375e+04	9.527870e+03	4.814845e+03	0	1.015194e-03
9.400000e+08	5.598048e+13	0.000000e+00	8.231296e-01	2.131729e+15	2.414553e+15	1.224756e+14	1.525676e+04	9.519610e+03	4.810671e+03	0	1.008923e-03
9.500000e+08	5.493903e+13	0.000000e+00	8.231296e-01	2.121786e+15	2.403562e+15	1.219202e+14	1.523985e+04	9.511375e+03	4.806509e+03	0	1.002627e-03
9.600000e+08	5.390639e+13	0.000000e+00	8.231296e-01	2.111921e+15	2.392639e+15	1.213686e+14	1.522302e+04	9.503164e+03	4.802360e+03	0	9.963054e-04
9.700000e+08	5.288246e+13	0.000000e+00	8.231296e-01	2.102132e+15	2.381785e+15	1.208208e+14	1.520627e+04	9.494978e+03	4.798223e+03	0	9.899568e-04
9.800000e+08	5.186711e+13	0.000000e+00	8.231296e-01	2.092417e+15	2.371001e+15	1.202767e+14	1.518960e+04	9.486817e+03	4.794099e+03	0	9.835801e-04
9.900000e+08	5.086023e+13	0.000000e+00	8.231296e-01	2.082777e+15	2.360285e+15	1.197363e+14	1.517300e+04	9.478683e+03	4.789988e+03	0	9.771738e-04
1.000000e+09	4.986171e+13	0.000000e+00	8.231296e-01	2.073210e+15	2.349639e+15	1.191995e+14	1.515648e+04	9.470575e+03	4.785891e+03	0	9.707367e-04
1.010000e+09	4.887146e+13	0.000000e+00	8.231296e-01	2.063715e+15	2.339064e+15	1.186664e+14	1.514004e+04	9.462495e+03	4.781808e+03	0	9.642674e-04
1.020000e+09	4.788936e+13	0.000000e+00	8.231296e-01	2.054292e+15	2.328557e+15	1.181369e+14	1.512367e+04	9.454442e+03	4.777738e+03	0	9.577645e-04
1.030000e+09	4.691532e+13	0.000000e+00	8.231296e-01	2.044940e+15	2.318121e+15	1.176110e+14	1.510737e+04	9.446416e+03	4.773682e+03	0	9.512265e-04
1.040000e+09	4.594925e+13	0.000000e+00	8.231296e-01	2.035657e+15	2.307754e+15	1.170887e+14	1.509115e+04	9.438418e+03	4.769641e+03	0	9.446520e-04
1.050000e+09	4.499104e+13	0.000000e+00	8.231296e-01	2.026443e+15	2.297456e+15	1.165699e+14	1.507500e+04	9.430448e+03	4.765613e+03	0	9.380393e-04
1.060000e+09	4.404060e+13	0.000000e+00	8.231296e-01	2.017298e+15	2.287228e+15	1.160545e+14	1.505893e+04	9.422507e+03	4.761600e+03	0	9.313869e-04
1.070000e+09	4.309785e+13	0.000000e+00	8.231296e-01	2.008220e+15	2.277069e+15	1.155427e+14	1.504293e+04	9.414594e+03	4.757601e+03	0	9.246930e-04
1.080000e+09	4.216270e+13	0.000000e+00	8.231296e-01	1.999210e+15	2.266979e+15	1.150343e+14	1.502700e+04	9.406709e+03	4.753617e+03	0	9.179559e-04
1.090000e+09	4.123505e+13	0.000000e+00	8.231296e-01	1.990265e+15	2.256957e+15	1.145293e+14	1.501114e+04	9.398853e+03	4.749647e+03	0	9.111738e-04
1.100000e+09	4.031483e+13	0.000000e+00	8.231296e-01	1.981385e+15	2.247004e+15	1.140277e+14	1.499535e+04	9.391026e+03	4.745691e+03	0	9.043447e-04
1.110000e+09	3.940196e+13	0.000000e+00	8.231296e-01	1.972570e+15	2.237118e+15	1.135295e+14	1.497963e+04	9.383227e+03	4.741750e+03	0	8.974666e-04
1.120000e+09	3.849635e+13	0.000000e+00	8.231296e-01	1.963819e+15	2.227300e+15	1.130346e+14	1.496399e+04	9.375457e+03	4.737824e+03	0	8.905375e-04
1.130000e+09	3.759791e+13	0.000000e+00	8.231296e-01	1.955132e+15	2.217549e+15	1.125430e+14	1.494841e+04	9.367715e+03	4.733912e+03	0	8.835551e-04
1.140000e+09	3.670659e+13	0.000000e+00	8.231296e-01	1.946507e+15	2.207864e+15	1.120547e+14	1.493290e+04	9.360003e+03	4.730014e+03	0	8.765171e-04
1.150000e+09	3.582229e+13	0.000000e+00	8.231296e-01	1.937944e+15	2.198245e+15	1.115696e+14	1.491746e+04	9.352319e+03	4.726131e+03	0	8.694211e-04
1.160000e+09	3.494494e+13	0.000000e+00	8.231296e-01	1.929442e+15	2.188693e+15	1.110878e+14	1.490208e+04	9.344663e+03	4.722262e+03	0	8.622645e-04
1.170000e+09	3.407447e+13	0.000000e+00	8.231296e-01	1.921002e+15	2.179206e+15	1.106092e+14	1.488678e+04	9.337036e+03	4.718408e+03	0	8.550446e-04
1.180000e+09	3.321081e+13	0.000000e+00	8.231296e-01	1.912621e+15	2.169783e+15	1.101338e+14	1.487154e+04	9.329438e+03	4.714568e+03	0	8.477586e-04
1.190000e+09	3.235388e+13	0.000000e+00	8.231296e-01	1.904300e+15	2.160425e+15	1.096616e+14	1.485636e+04	9.321868e+03	4.710743e+03	0	8.404035e-04
1.200000e+09	3.150361e+13	0.000000e+00	8.231296e-01	1.896037e+15	2.151131e+15	1.091925e+14	1.484126e+04	9.314326e+03	4.706932e+03	0	8.329760e-04
1.210000e+09	3.065994e+13	0.000000e+00	8.231296e-01	1.887833e+15	2.141900e+15	1.087265e+14	1.482622e+04	9.306812e+03	4.703135e+03	0	8.254729e-04
1.220000e+09	2.982279e+13	0.000000e+00	8.231296e-01	1.879687e+15	2.132733e+15	1.082635e+14	1.481124e+04	9.299327e+03	4.699352e+03	0	8.178905e-04
1.230000e+09	2.899210e+13	0.000000e+00	8.231296e-01	1.871598e+15	2.123627e+15	1.078037e+14	1.479633e+04	9.291870e+03	4.695584e+03	0	8.102250e-04
1.240000e+09	2.816781e+13	0.000000e+00	8.231296e-01	1.863565e+15	2.114584e+15	1.073469e+14	1.478148e+04	9.284441e+03	4.691829e+03	0	8.024723e-04
1.250000e+09	2.734984e+13	0.000000e+00	8.231296e-01	1.855589e+15	2.105602e+15	1.068931e+14	1.476670e+04	9.277039e+03	4.688089e+03	0	7.946282e-04
1.260000e+09	2.653813e+13	0.000000e+00	8.231296e-01	1.847668e+15	2.096681e+15	1.064423e+14	1.475197e+04	9.269666e+03	4.684363e+03	0	7.866879e-04
1.270000e+09	2.573262e+13	0.000000e+00	8.231296e-01	1.839802e+15	2.087820e+15	1.059944e+14	1.473732e+04	9.262320e+03	4.680651e+03	0	7.786466e-04
1.280000e+09	2.493325e+13	0.000000e+00	8.231296e-01	1.831990e+15	2.079020e+15	1.055495e+14	1.472272e+04	9.255001e+03	4.676952e+03	0	7.704989e-04
1.290000e+09	2.413996e+13	0.000000e+00	8.231296e-01	1.824233e+15	2.070279e+15	1.051076e+14	1.470818e+04	9.247710e+03	4.673268e+03	0	7.622391e-04
1.300000e+09	2.335268e+13	0.000000e+00	8.231296e-01	1.816529e+15	2.061597e+15	1.046685e+14	1.469371e+04	9.240446e+03	4.669597e+03	0	7.538610e-04
1.310000e+09	2.257136e+13	0.000000e+00	8.231296e-01	1.808877e+15	2.052974e+15	1.042323e+14	1.467930e+04	9.233209e+03	4.665940e+03	0	7.453580e-04
1.320000e+09	2.179593e+13	0.000000e+00	8.231296e-01	1.801278e+15	2.044408e+15	1.037990e+14	1.466495e+04	9.225999e+03	4.662296e+03	0	7.367229e-04
1.330000e+09	2.102634e+13	0.000000e+00	8.231296e-01	1.793731e+15	2.035900e+15	1.033685e+14	1.465066e+04	9.218816e+03	4.658666e+03	0	7.279478e-04
1.340000e+09	2.026253e+13	0.000000e+00	8.231296e-01	1.786235e+15	2.027449e+15	1.029408e+14	1.463643e+04	9.211660e+03	4.655050e+03	0	7.190243e-04
1.350000e+09	1.950444e+13	0.000000e+00	8.231296e-01	1.778791e+15	2.019054e+15	1.025159e+14	1.462225e+04	9.204530e+03	4.651447e+03	0	7.099431e-04
1.360000e+09	1.875202e+13	0.000000e+00	8.231296e-01	1.771396e+15	2.010716e+15	1.020938e+14	1.460814e+04	9.197427e+03	4.647858e+03	0	7.006941e-04
