#t		Qconv[W]	Ri[Rp]		R*[Rp]		Qc[W]		Qm[W]		Qr[W]		Tcmb[K]		Tl[K]		Tup[K]		RiFlag		Bs[T]
0.000000e+00	3.232750e+13	0.000000e+00	7.007874e-01	7.066603e+14	9.649026e+14	5.335312e+13	8.883719e+03	3.140341e+03	2.190670e+03	0	1.006126e-03
1.000000e+07	3.045341e+13	0.000000e+00	7.007874e-01	6.660688e+14	8.986657e+14	5.305750e+13	8.762958e+03	3.109567e+03	2.169202e+03	0	9.862957e-04
2.000000e+07	2.875458e+13	0.000000e+00	7.007874e-01	6.292691e+14	8.421487e+14	5.276410e+13	8.649015e+03	3.082419e+03	2.150264e+03	0	9.676037e-04
3.000000e+07	2.720810e+13	0.000000e+00	7.007874e-01	5.957657e+14	7.930647e+14	5.247289e+13	8.541264e+03	3.058064e+03	2.133275e+03	0	9.499365e-04
4.000000e+07	2.579500e+13	0.000000e+00	7.007874e-01	5.651482e+14	7.498318e+14	5.218385e+13	8.439158e+03	3.035918e+03	2.117826e+03	0	9.331977e-04
5.000000e+07	2.449938e+13	0.000000e+00	7.007874e-01	5.370733e+14	7.113188e+14	5.189697e+13	8.342219e+03	3.015560e+03	2.103624e+03	0	9.173045e-04
6.000000e+07	2.330783e+13	0.000000e+00	7.007874e-01	5.112505e+14	6.766928e+14	5.161223e+13	8.250023e+03	2.996679e+03	2.090453e+03	0	9.021854e-04
7.000000e+07	2.220891e+13	0.000000e+00	7.007874e-01	4.874323e+14	6.453244e+14	5.132960e+13	8.162195e+03	2.979042e+03	2.078150e+03	0	8.877777e-04
8.000000e+07	2.119277e+13	0.000000e+00	7.007874e-01	4.654059e+14	6.167268e+14	5.104908e+13	8.078400e+03	2.962471e+03	2.066590e+03	0	8.740260e-04
9.000000e+07	2.025091e+13	0.000000e+00	7.007874e-01	4.449875e+14	5.905157e+14	5.077065e+13	7.998340e+03	2.946824e+03	2.055675e+03	0	8.608814e-04
1.000000e+08	1.937595e+13	0.000000e+00	7.007874e-01	4.260172e+14	5.663821e+14	5.049428e+13	7.921744e+03	2.931991e+03	2.045327e+03	0	8.483000e-04
1.100000e+08	1.856142e+13	0.000000e+00	7.007874e-01	4.083552e+14	5.440735e+14	5.021996e+13	7.848371e+03	2.917881e+03	2.035484e+03	0	8.362425e-04
1.200000e+08	1.780166e+13	0.000000e+00	7.007874e-01	3.918789e+14	5.233807e+14	4.994768e+13	7.778001e+03	2.904420e+03	2.026094e+03	0	8.246734e-04
1.300000e+08	1.709166e+13	0.000000e+00	7.007874e-01	3.764800e+14	5.041281e+14	4.967741e+13	7.710435e+03	2.891546e+03	2.017113e+03	0	8.135605e-04
1.400000e+08	1.642699e+13	0.000000e+00	7.007874e-01	3.620628e+14	4.861667e+14	4.940914e+13	7.645491e+03	2.879208e+03	2.008506e+03	0	8.028749e-04
1.500000e+08	1.580374e+13	0.000000e+00	7.007874e-01	3.485423e+14	4.693688e+14	4.914286e+13	7.583005e+03	2.867360e+03	2.000241e+03	0	7.925897e-04
1.600000e+08	1.521839e+13	0.000000e+00	7.007874e-01	3.358427e+14	4.536242e+14	4.887854e+13	7.522825e+03	2.855965e+03	1.992292e+03	0	7.826809e-04
1.700000e+08	1.466782e+13	0.000000e+00	7.007874e-01	3.238962e+14	4.388367e+14	4.861617e+13	7.464812e+03	2.844989e+03	1.984635e+03	0	7.731261e-04
1.800000e+08	1.414922e+13	0.000000e+00	7.007874e-01	3.126421e+14	4.249223e+14	4.835574e+13	7.408840e+03	2.834403e+03	1.977251e+03	0	7.639049e-04
1.900000e+08	1.366006e+13	0.000000e+00	7.007874e-01	3.020259e+14	4.118068e+14	4.809722e+13	7.354792e+03	2.824181e+03	1.970120e+03	0	7.549984e-04
2.000000e+08	1.319808e+13	0.000000e+00	7.007874e-01	2.919983e+14	3.994243e+14	4.784061e+13	7.302559e+03	2.814299e+03	1.963227e+03	0	7.463893e-04
2.100000e+08	1.276122e+13	0.000000e+00	7.007874e-01	2.825150e+14	3.877164e+14	4.758589e+13	7.252042e+03	2.804737e+03	1.956556e+03	0	7.380615e-04
2.200000e+08	1.234762e+13	0.000000e+00	7.007874e-01	2.735356e+14	3.766305e+14	4.733303e+13	7.203150e+03	2.795477e+03	1.950096e+03	0	7.300002e-04
2.300000e+08	1.195561e+13	0.000000e+00	7.007874e-01	2.650238e+14	3.661198e+14	4.708203e+13	7.155795e+03	2.786500e+03	1.943834e+03	0	7.221915e-04
2.400000e+08	1.158364e+13	0.000000e+00	7.007874e-01	2.569463e+14	3.561418e+14	4.683287e+13	7.109899e+03	2.777792e+03	1.937759e+03	0	7.146227e-04
2.500000e+08	1.123031e+13	0.000000e+00	7.007874e-01	2.492728e+14	3.466583e+14	4.658554e+13	7.065389e+03	2.769338e+03	1.931862e+03	0	7.072817e-04
2.600000e+08	1.089436e+13	0.000000e+00	7.007874e-01	2.419759e+14	3.376345e+14	4.634002e+13	7.022195e+03	2.761125e+03	1.926133e+03	0	7.001575e-04
2.700000e+08	1.057462e+13	0.000000e+00	7.007874e-01	2.350303e+14	3.290390e+14	4.609629e+13	6.980254e+03	2.753141e+03	1.920563e+03	0	6.932398e-04
2.800000e+08	1.027003e+13	0.000000e+00	7.007874e-01	2.284128e+14	3.208429e+14	4.585434e+13	6.939506e+03	2.745375e+03	1.915146e+03	0	6.865187e-04
2.900000e+08	9.979593e+12	0.000000e+00	7.007874e-01	2.221023e+14	3.130201e+14	4.561416e+13	6.899895e+03	2.737817e+03	1.909873e+03	0	6.799852e-04
3.000000e+08	9.702423e+12	0.000000e+00	7.007874e-01	2.160794e+14	3.055465e+14	4.537573e+13	6.861368e+03	2.730456e+03	1.904739e+03	0	6.736307e-04
3.100000e+08	9.437690e+12	0.000000e+00	7.007874e-01	2.103260e+14	2.984000e+14	4.513903e+13	6.823877e+03	2.723285e+03	1.899736e+03	0	6.674474e-04
3.200000e+08	9.184630e+12	0.000000e+00	7.007874e-01	2.048257e+14	2.915605e+14	4.490406e+13	6.787376e+03	2.716294e+03	1.894859e+03	0	6.614277e-04
3.300000e+08	8.942540e+12	0.000000e+00	7.007874e-01	1.995632e+14	2.850093e+14	4.467079e+13	6.751821e+03	2.709476e+03	1.890103e+03	0	6.555645e-04
3.400000e+08	8.710768e+12	0.000000e+00	7.007874e-01	1.945244e+14	2.787292e+14	4.443922e+13	6.717172e+03	2.702823e+03	1.885462e+03	0	6.498513e-04
3.500000e+08	8.488713e+12	0.000000e+00	7.007874e-01	1.896963e+14	2.727043e+14	4.420933e+13	6.683391e+03	2.696328e+03	1.880931e+03	0	6.442817e-04
3.600000e+08	8.275817e+12	0.000000e+00	7.007874e-01	1.850668e+14	2.669199e+14	4.398111e+13	6.650442e+03	2.689986e+03	1.876507e+03	0	6.388498e-04
3.700000e+08	8.071562e+12	0.000000e+00	7.007874e-01	1.806248e+14	2.613625e+14	4.375454e+13	6.618290e+03	2.683790e+03	1.872185e+03	0	6.335502e-04
3.800000e+08	7.875467e+12	0.000000e+00	7.007874e-01	1.763596e+14	2.560194e+14	4.352961e+13	6.586905e+03	2.677733e+03	1.867960e+03	0	6.283775e-04
3.900000e+08	7.687085e+12	0.000000e+00	7.007874e-01	1.722618e+14	2.508789e+14	4.330630e+13	6.556254e+03	2.671812e+03	1.863829e+03	0	6.233267e-04
4.000000e+08	7.506000e+12	0.000000e+00	7.007874e-01	1.683222e+14	2.459301e+14	4.308461e+13	6.526311e+03	2.666020e+03	1.859788e+03	0	6.183932e-04
4.100000e+08	7.331824e+12	0.000000e+00	7.007874e-01	1.645325e+14	2.411629e+14	4.286452e+13	6.497047e+03	2.660353e+03	1.855835e+03	0	6.135724e-04
4.200000e+08	7.164194e+12	0.000000e+00	7.007874e-01	1.608849e+14	2.365678e+14	4.264601e+13	6.468437e+03	2.654805e+03	1.851965e+03	0	6.088602e-04
4.300000e+08	7.002773e+12	0.000000e+00	7.007874e-01	1.573719e+14	2.321359e+14	4.242908e+13	6.440457e+03	2.649374e+03	1.848176e+03	0	6.042526e-04
4.400000e+08	6.847245e+12	0.000000e+00	7.007874e-01	1.539867e+14	2.278590e+14	4.221370e+13	6.413083e+03	2.644054e+03	1.844465e+03	0	5.997457e-04
4.500000e+08	6.697314e+12	0.000000e+00	7.007874e-01	1.507230e+14	2.237294e+14	4.199988e+13	6.386295e+03	2.638842e+03	1.840829e+03	0	5.953358e-04
4.600000e+08	6.552702e+12	0.000000e+00	7.007874e-01	1.475747e+14	2.197398e+14	4.178759e+13	6.360070e+03	2.633734e+03	1.837266e+03	0	5.910197e-04
4.700000e+08	6.413151e+12	0.000000e+00	7.007874e-01	1.445363e+14	2.158835e+14	4.157682e+13	6.334389e+03	2.628726e+03	1.833772e+03	0	5.867940e-04
4.800000e+08	6.278415e+12	0.000000e+00	7.007874e-01	1.416023e+14	2.121541e+14	4.136756e+13	6.309233e+03	2.623815e+03	1.830346e+03	0	5.826555e-04
4.900000e+08	6.148268e+12	0.000000e+00	7.007874e-01	1.387680e+14	2.085457e+14	4.115980e+13	6.284585e+03	2.618997e+03	1.826986e+03	0	5.786013e-04
5.000000e+08	6.022492e+12	0.000000e+00	7.007874e-01	1.360285e+14	2.050526e+14	4.095353e+13	6.260426e+03	2.614270e+03	1.823689e+03	0	5.746286e-04
5.100000e+08	5.900887e+12	0.000000e+00	7.007874e-01	1.333795e+14	2.016695e+14	4.074873e+13	6.236742e+03	2.609631e+03	1.820452e+03	0	5.707347e-04
5.200000e+08	5.783260e+12	0.000000e+00	7.007874e-01	1.308169e+14	1.983915e+14	4.054539e+13	6.213516e+03	2.605077e+03	1.817276e+03	0	5.669169e-04
5.300000e+08	5.669434e+12	0.000000e+00	7.007874e-01	1.283368e+14	1.952140e+14	4.034350e+13	6.190733e+03	2.600605e+03	1.814156e+03	0	5.631729e-04
5.400000e+08	5.559237e+12	0.000000e+00	7.007874e-01	1.259355e+14	1.921324e+14	4.014305e+13	6.168379e+03	2.596213e+03	1.811092e+03	0	5.595002e-04
5.500000e+08	5.452512e+12	0.000000e+00	7.007874e-01	1.236096e+14	1.891426e+14	3.994403e+13	6.146441e+03	2.591898e+03	1.808082e+03	0	5.558966e-04
5.600000e+08	5.349106e+12	0.000000e+00	7.007874e-01	1.213557e+14	1.862408e+14	3.974642e+13	6.124906e+03	2.587657e+03	1.805124e+03	0	5.523600e-04
5.700000e+08	5.248877e+12	0.000000e+00	7.007874e-01	1.191709e+14	1.834231e+14	3.955021e+13	6.103761e+03	2.583489e+03	1.802216e+03	0	5.488883e-04
5.800000e+08	5.151690e+12	0.000000e+00	7.007874e-01	1.170521e+14	1.806861e+14	3.935540e+13	6.082995e+03	2.579392e+03	1.799358e+03	0	5.454795e-04
5.900000e+08	5.057418e+12	0.000000e+00	7.007874e-01	1.149966e+14	1.780264e+14	3.916197e+13	6.062596e+03	2.575363e+03	1.796547e+03	0	5.421317e-04
6.000000e+08	4.965940e+12	0.000000e+00	7.007874e-01	1.130018e+14	1.754409e+14	3.896990e+13	6.042552e+03	2.571400e+03	1.793782e+03	0	5.388431e-04
6.100000e+08	4.877142e+12	0.000000e+00	7.007874e-01	1.110652e+14	1.729265e+14	3.877920e+13	6.022855e+03	2.567501e+03	1.791063e+03	0	5.356120e-04
6.200000e+08	4.790914e+12	0.000000e+00	7.007874e-01	1.091844e+14	1.704805e+14	3.858984e+13	6.003493e+03	2.563665e+03	1.788387e+03	0	5.324367e-04
6.300000e+08	4.707155e+12	0.000000e+00	7.007874e-01	1.073573e+14	1.681002e+14	3.840182e+13	5.984457e+03	2.559890e+03	1.785754e+03	0	5.293155e-04
6.400000e+08	4.625765e+12	0.000000e+00	7.007874e-01	1.055816e+14	1.657830e+14	3.821512e+13	5.965738e+03	2.556175e+03	1.783161e+03	0	5.262471e-04
6.500000e+08	4.546653e+12	0.000000e+00	7.007874e-01	1.038554e+14	1.635265e+14	3.802974e+13	5.947327e+03	2.552516e+03	1.780609e+03	0	5.232298e-04
6.600000e+08	4.469730e+12	0.000000e+00	7.007874e-01	1.021768e+14	1.613284e+14	3.784567e+13	5.929215e+03	2.548914e+03	1.778096e+03	0	5.202622e-04
6.700000e+08	4.394913e+12	0.000000e+00	7.007874e-01	1.005440e+14	1.591865e+14	3.766289e+13	5.911395e+03	2.545366e+03	1.775621e+03	0	5.173430e-04
6.800000e+08	4.322121e+12	0.000000e+00	7.007874e-01	9.895512e+13	1.570987e+14	3.748139e+13	5.893858e+03	2.541870e+03	1.773183e+03	0	5.144709e-04
6.900000e+08	4.251278e+12	0.000000e+00	7.007874e-01	9.740864e+13	1.550630e+14	3.730117e+13	5.876596e+03	2.538427e+03	1.770781e+03	0	5.116445e-04
7.000000e+08	4.182313e+12	0.000000e+00	7.007874e-01	9.590296e+13	1.530776e+14	3.712221e+13	5.859603e+03	2.535034e+03	1.768414e+03	0	5.088627e-04
7.100000e+08	4.115155e+12	0.000000e+00	7.007874e-01	9.443658e+13	1.511405e+14	3.694450e+13	5.842871e+03	2.531689e+03	1.766081e+03	0	5.061244e-04
7.200000e+08	4.049741e+12	0.000000e+00	7.007874e-01	9.300808e+13	1.492502e+14	3.676803e+13	5.826393e+03	2.528393e+03	1.763781e+03	0	5.034282e-04
7.300000e+08	3.986006e+12	0.000000e+00	7.007874e-01	9.161609e+13	1.474049e+14	3.659280e+13	5.810164e+03	2.525143e+03	1.761514e+03	0	5.007733e-04
7.400000e+08	3.923891e+12	0.000000e+00	7.007874e-01	9.025932e+13	1.456032e+14	3.641879e+13	5.794176e+03	2.521938e+03	1.759278e+03	0	4.981584e-04
7.500000e+08	3.863339e+12	0.000000e+00	7.007874e-01	8.893654e+13	1.438434e+14	3.624600e+13	5.778424e+03	2.518777e+03	1.757073e+03	0	4.955826e-04
7.600000e+08	3.804295e+12	0.000000e+00	7.007874e-01	8.764654e+13	1.421242e+14	3.607441e+13	5.762902e+03	2.515659e+03	1.754899e+03	0	4.930450e-04
7.700000e+08	3.746707e+12	0.000000e+00	7.007874e-01	8.638821e+13	1.404443e+14	3.590401e+13	5.747604e+03	2.512584e+03	1.752753e+03	0	4.905445e-04
7.800000e+08	3.690526e+12	0.000000e+00	7.007874e-01	8.516046e+13	1.388022e+14	3.573479e+13	5.732524e+03	2.509549e+03	1.750636e+03	0	4.880803e-04
7.900000e+08	3.635703e+12	0.000000e+00	7.007874e-01	8.396226e+13	1.371967e+14	3.556676e+13	5.717657e+03	2.506555e+03	1.748547e+03	0	4.856514e-04
8.000000e+08	3.582194e+12	0.000000e+00	7.007874e-01	8.279261e+13	1.356267e+14	3.539988e+13	5.702999e+03	2.503600e+03	1.746486e+03	0	4.832570e-04
8.100000e+08	3.529953e+12	0.000000e+00	7.007874e-01	8.165057e+13	1.340910e+14	3.523417e+13	5.688544e+03	2.500682e+03	1.744451e+03	0	4.808963e-04
8.200000e+08	3.478940e+12	0.000000e+00	7.007874e-01	8.053523e+13	1.325885e+14	3.506960e+13	5.674288e+03	2.497803e+03	1.742442e+03	0	4.785685e-04
8.300000e+08	3.429115e+12	0.000000e+00	7.007874e-01	7.944572e+13	1.311182e+14	3.490616e+13	5.660225e+03	2.494959e+03	1.740458e+03	0	4.762729e-04
8.400000e+08	3.380438e+12	0.000000e+00	7.007874e-01	7.838121e+13	1.296790e+14	3.474386e+13	5.646352e+03	2.492151e+03	1.738500e+03	0	4.740085e-04
8.500000e+08	3.332874e+12	0.000000e+00	7.007874e-01	7.734089e+13	1.282699e+14	3.458268e+13	5.632663e+03	2.489378e+03	1.736565e+03	0	4.717748e-04
8.600000e+08	3.286386e+12	0.000000e+00	7.007874e-01	7.632400e+13	1.268901e+14	3.442261e+13	5.619156e+03	2.486639e+03	1.734654e+03	0	4.695711e-04
8.700000e+08	3.240942e+12	0.000000e+00	7.007874e-01	7.532981e+13	1.255387e+14	3.426364e+13	5.605826e+03	2.483934e+03	1.732767e+03	0	4.673966e-04
8.800000e+08	3.196507e+12	0.000000e+00	7.007874e-01	7.435760e+13	1.242147e+14	3.410576e+13	5.592668e+03	2.481260e+03	1.730902e+03	0	4.652507e-04
8.900000e+08	3.153052e+12	0.000000e+00	7.007874e-01	7.340670e+13	1.229174e+14	3.394897e+13	5.579679e+03	2.478619e+03	1.729060e+03	0	4.631328e-04
9.000000e+08	3.110546e+12	0.000000e+00	7.007874e-01	7.247646e+13	1.216460e+14	3.379325e+13	5.566856e+03	2.476009e+03	1.727239e+03	0	4.610422e-04
9.100000e+08	3.068961e+12	0.000000e+00	7.007874e-01	7.156625e+13	1.203997e+14	3.363860e+13	5.554195e+03	2.473429e+03	1.725439e+03	0	4.589784e-04
9.200000e+08	3.028268e+12	0.000000e+00	7.007874e-01	7.067547e+13	1.191778e+14	3.348501e+13	5.541692e+03	2.470879e+03	1.723660e+03	0	4.569408e-04
9.300000e+08	2.988440e+12	0.000000e+00	7.007874e-01	6.980353e+13	1.179795e+14	3.333247e+13	5.529344e+03	2.468358e+03	1.721902e+03	0	4.549287e-04
9.400000e+08	2.949453e+12	0.000000e+00	7.007874e-01	6.894989e+13	1.168043e+14	3.318098e+13	5.517147e+03	2.465866e+03	1.720163e+03	0	4.529417e-04
9.500000e+08	2.911282e+12	0.000000e+00	7.007874e-01	6.811400e+13	1.156514e+14	3.303051e+13	5.505099e+03	2.463402e+03	1.718444e+03	0	4.509793e-04
9.600000e+08	2.873902e+12	0.000000e+00	7.007874e-01	6.729536e+13	1.145202e+14	3.288108e+13	5.493197e+03	2.460965e+03	1.716745e+03	0	4.490408e-04
9.700000e+08	2.837292e+12	0.000000e+00	7.007874e-01	6.649345e+13	1.134102e+14	3.273266e+13	5.481437e+03	2.458556e+03	1.715063e+03	0	4.471259e-04
9.800000e+08	2.801428e+12	0.000000e+00	7.007874e-01	6.570781e+13	1.123206e+14	3.258525e+13	5.469817e+03	2.456172e+03	1.713401e+03	0	4.452340e-04
9.900000e+08	2.766290e+12	0.000000e+00	7.007874e-01	6.493797e+13	1.112511e+14	3.243884e+13	5.458333e+03	2.453814e+03	1.711756e+03	0	4.433646e-04
1.000000e+09	2.731857e+12	0.000000e+00	7.007874e-01	6.418350e+13	1.102010e+14	3.229343e+13	5.446984e+03	2.451482e+03	1.710129e+03	0	4.415174e-04
1.010000e+09	2.698110e+12	0.000000e+00	7.007874e-01	6.344395e+13	1.091697e+14	3.214900e+13	5.435766e+03	2.449174e+03	1.708519e+03	0	4.396918e-04
1.020000e+09	2.665029e+12	0.000000e+00	7.007874e-01	6.271892e+13	1.081569e+14	3.200556e+13	5.424676e+03	2.446891e+03	1.706926e+03	0	4.378874e-04
1.030000e+09	2.632596e+12	0.000000e+00	7.007874e-01	6.200801e+13	1.071620e+14	3.186308e+13	5.413713e+03	2.444631e+03	1.705350e+03	0	4.361038e-04
1.040000e+09	2.600793e+12	0.000000e+00	7.007874e-01	6.131083e+13	1.061846e+14	3.172156e+13	5.402874e+03	2.442395e+03	1.703790e+03	0	4.343406e-04
1.050000e+09	2.569604e+12	0.000000e+00	7.007874e-01	6.062701e+13	1.052241e+14	3.158100e+13	5.392156e+03	2.440181e+03	1.702246e+03	0	4.325974e-04
1.060000e+09	2.539012e+12	0.000000e+00	7.007874e-01	5.995620e+13	1.042802e+14	3.144139e+13	5.381557e+03	2.437990e+03	1.700717e+03	0	4.308738e-04
1.070000e+09	2.509001e+12	0.000000e+00	7.007874e-01	5.929804e+13	1.033524e+14	3.130272e+13	5.371075e+03	2.435822e+03	1.699205e+03	0	4.291694e-04
1.080000e+09	2.479555e+12	0.000000e+00	7.007874e-01	5.865221e+13	1.024404e+14	3.116499e+13	5.360707e+03	2.433674e+03	1.697707e+03	0	4.274839e-04
1.090000e+09	2.450660e+12	0.000000e+00	7.007874e-01	5.801838e+13	1.015436e+14	3.102817e+13	5.350452e+03	2.431549e+03	1.696224e+03	0	4.258169e-04
1.100000e+09	2.422301e+12	0.000000e+00	7.007874e-01	5.739624e+13	1.006618e+14	3.089228e+13	5.340308e+03	2.429443e+03	1.694755e+03	0	4.241680e-04
1.110000e+09	2.394465e+12	0.000000e+00	7.007874e-01	5.678548e+13	9.979463e+13	3.075730e+13	5.330272e+03	2.427359e+03	1.693301e+03	0	4.225369e-04
1.120000e+09	2.367138e+12	0.000000e+00	7.007874e-01	5.618582e+13	9.894163e+13	3.062322e+13	5.320342e+03	2.425294e+03	1.691861e+03	0	4.209233e-04
1.130000e+09	2.340306e+12	0.000000e+00	7.007874e-01	5.559697e+13	9.810250e+13	3.049004e+13	5.310517e+03	2.423250e+03	1.690434e+03	0	4.193269e-04
1.140000e+09	2.313958e+12	0.000000e+00	7.007874e-01	5.501866e+13	9.727690e+13	3.035775e+13	5.300794e+03	2.421224e+03	1.689022e+03	0	4.177473e-04
1.150000e+09	2.288082e+12	0.000000e+00	7.007874e-01	5.445062e+13	9.646451e+13	3.022635e+13	5.291172e+03	2.419218e+03	1.687622e+03	0	4.161843e-04
1.160000e+09	2.262665e+12	0.000000e+00	7.007874e-01	5.389261e+13	9.566502e+13	3.009582e+13	5.281649e+03	2.417230e+03	1.686235e+03	0	4.146375e-04
1.170000e+09	2.237696e+12	0.000000e+00	7.007874e-01	5.334436e+13	9.487811e+13	2.996616e+13	5.272224e+03	2.415261e+03	1.684862e+03	0	4.131066e-04
1.180000e+09	2.213164e+12	0.000000e+00	7.007874e-01	5.280565e+13	9.410350e+13	2.983736e+13	5.262894e+03	2.413310e+03	1.683501e+03	0	4.115915e-04
1.190000e+09	2.189058e+12	0.000000e+00	7.007874e-01	5.227623e+13	9.334090e+13	2.970942e+13	5.253658e+03	2.411377e+03	1.682152e+03	0	4.100917e-04
1.200000e+09	2.165369e+12	0.000000e+00	7.007874e-01	5.175589e+13	9.259003e+13	2.958233e+13	5.244514e+03	2.409461e+03	1.680815e+03	0	4.086070e-04
1.210000e+09	2.142086e+12	0.000000e+00	7.007874e-01	5.124440e+13	9.185062e+13	2.945608e+13	5.235461e+03	2.407562e+03	1.679491e+03	0	4.071372e-04
1.220000e+09	2.119199e+12	0.000000e+00	7.007874e-01	5.074156e+13	9.112241e+13	2.933066e+13	5.226497e+03	2.405680e+03	1.678178e+03	0	4.056820e-04
1.230000e+09	2.096698e+12	0.000000e+00	7.007874e-01	5.024716e+13	9.040516e+13	2.920608e+13	5.217620e+03	2.403815e+03	1.676877e+03	0	4.042411e-04
1.240000e+09	2.074576e+12	0.000000e+00	7.007874e-01	4.976100e+13	8.969860e+13	2.908232e+13	5.208830e+03	2.401966e+03	1.675587e+03	0	4.028144e-04
1.250000e+09	2.052822e+12	0.000000e+00	7.007874e-01	4.928288e+13	8.900252e+13	2.895938e+13	5.200125e+03	2.400133e+03	1.674308e+03	0	4.014015e-04
1.260000e+09	2.031429e+12	0.000000e+00	7.007874e-01	4.881263e+13	8.831666e+13	2.883725e+13	5.191503e+03	2.398316e+03	1.673041e+03	0	4.000022e-04
1.270000e+09	2.010388e+12	0.000000e+00	7.007874e-01	4.835006e+13	8.764082e+13	2.871592e+13	5.182963e+03	2.396514e+03	1.671784e+03	0	3.986164e-04
1.280000e+09	1.989691e+12	0.000000e+00	7.007874e-01	4.789499e+13	8.697477e+13	2.859539e+13	5.174504e+03	2.394728e+03	1.670538e+03	0	3.972437e-04
1.290000e+09	1.969329e+12	0.000000e+00	7.007874e-01	4.744726e+13	8.631830e+13	2.847565e+13	5.166124e+03	2.392956e+03	1.669302e+03	0	3.958840e-04
1.300000e+09	1.949296e+12	0.000000e+00	7.007874e-01	4.700669e+13	8.567121e+13	2.835670e+13	5.157822e+03	2.391200e+03	1.668077e+03	0	3.945370e-04
1.310000e+09	1.929584e+12	0.000000e+00	7.007874e-01	4.657312e+13	8.503329e+13	2.823853e+13	5.149597e+03	2.389458e+03	1.666862e+03	0	3.932026e-04
1.320000e+09	1.910186e+12	0.000000e+00	7.007874e-01	4.614641e+13	8.440436e+13	2.812113e+13	5.141447e+03	2.387730e+03	1.665656e+03	0	3.918806e-04
1.330000e+09	1.891095e+12	0.000000e+00	7.007874e-01	4.572639e+13	8.378422e+13	2.800450e+13	5.133372e+03	2.386017e+03	1.664461e+03	0	3.905706e-04
1.340000e+09	1.872304e+12	0.000000e+00	7.007874e-01	4.531293e+13	8.317268e+13	2.788864e+13	5.125371e+03	2.384317e+03	1.663275e+03	0	3.892727e-04
1.350000e+09	1.853806e+12	0.000000e+00	7.007874e-01	4.490587e+13	8.256958e+13	2.777352e+13	5.117441e+03	2.382631e+03	1.662099e+03	0	3.879865e-04
1.360000e+09	1.835595e+12	0.000000e+00	7.007874e-01	4.450508e+13	8.197474e+13	2.765916e+13	5.109583e+03	2.380959e+03	1.660933e+03	0	3.867118e-04
