#t		Qconv[W]	Ri[Rp]		R*[Rp]		Qc[W]		Qm[W]		Qr[W]		Tcmb[K]		Tl[K]		Tup[K]		RiFlag		Bs[T]
0.000000e+00	1.325684e+13	0.000000e+00	6.984127e-01	2.176480e+14	9.444460e+14	1.055505e+14	8.017021e+03	3.254616e+03	2.432173e+03	0	7.223592e-04
1.000000e+07	1.290675e+13	0.000000e+00	6.984127e-01	2.126727e+14	8.608304e+14	1.049656e+14	7.999695e+03	3.205572e+03	2.395522e+03	0	7.159437e-04
2.000000e+07	1.258382e+13	0.000000e+00	6.984127e-01	2.080796e+14	7.915527e+14	1.043852e+14	7.982764e+03	3.162516e+03	2.363347e+03	0	7.099222e-04
3.000000e+07	1.228447e+13	0.000000e+00	6.984127e-01	2.038183e+14	7.333732e+14	1.038091e+14	7.966198e+03	3.124409e+03	2.334869e+03	0	7.042476e-04
4.000000e+07	1.200572e+13	0.000000e+00	6.984127e-01	1.998471e+14	6.839347e+14	1.032373e+14	7.949969e+03	3.090441e+03	2.309485e+03	0	6.988799e-04
5.000000e+07	1.174505e+13	0.000000e+00	6.984127e-01	1.961307e+14	6.414859e+14	1.026697e+14	7.934055e+03	3.059974e+03	2.286717e+03	0	6.937849e-04
6.000000e+07	1.150039e+13	0.000000e+00	6.984127e-01	1.926396e+14	6.047020e+14	1.021064e+14	7.918435e+03	3.032495e+03	2.266182e+03	0	6.889335e-04
7.000000e+07	1.126993e+13	0.000000e+00	6.984127e-01	1.893487e+14	5.725643e+14	1.015473e+14	7.903093e+03	3.007588e+03	2.247568e+03	0	6.843006e-04
8.000000e+07	1.105217e+13	0.000000e+00	6.984127e-01	1.862369e+14	5.442779e+14	1.009923e+14	7.888012e+03	2.984911e+03	2.230622e+03	0	6.798645e-04
9.000000e+07	1.084581e+13	0.000000e+00	6.984127e-01	1.832859e+14	5.192148e+14	1.004415e+14	7.873178e+03	2.964180e+03	2.215130e+03	0	6.756065e-04
1.000000e+08	1.064973e+13	0.000000e+00	6.984127e-01	1.804798e+14	4.968727e+14	9.989472e+13	7.858578e+03	2.945159e+03	2.200916e+03	0	6.715104e-04
1.100000e+08	1.046297e+13	0.000000e+00	6.984127e-01	1.778052e+14	4.768458e+14	9.935202e+13	7.844201e+03	2.927647e+03	2.187829e+03	0	6.675618e-04
1.200000e+08	1.028467e+13	0.000000e+00	6.984127e-01	1.752501e+14	4.588028e+14	9.881335e+13	7.830036e+03	2.911474e+03	2.175743e+03	0	6.637482e-04
1.300000e+08	1.011411e+13	0.000000e+00	6.984127e-01	1.728042e+14	4.424710e+14	9.827867e+13	7.816074e+03	2.896493e+03	2.164548e+03	0	6.600585e-04
1.400000e+08	9.950631e+12	0.000000e+00	6.984127e-01	1.704583e+14	4.276241e+14	9.774795e+13	7.802307e+03	2.882580e+03	2.154150e+03	0	6.564829e-04
1.500000e+08	9.793665e+12	0.000000e+00	6.984127e-01	1.682045e+14	4.140727e+14	9.722115e+13	7.788725e+03	2.869625e+03	2.144469e+03	0	6.530127e-04
1.600000e+08	9.642704e+12	0.000000e+00	6.984127e-01	1.660355e+14	4.016577e+14	9.669824e+13	7.775323e+03	2.857534e+03	2.135433e+03	0	6.496401e-04
1.700000e+08	9.497297e+12	0.000000e+00	6.984127e-01	1.639451e+14	3.902439e+14	9.617919e+13	7.762092e+03	2.846223e+03	2.126981e+03	0	6.463581e-04
1.800000e+08	9.357041e+12	0.000000e+00	6.984127e-01	1.619275e+14	3.797162e+14	9.566397e+13	7.749028e+03	2.835621e+03	2.119057e+03	0	6.431605e-04
1.900000e+08	9.221574e+12	0.000000e+00	6.984127e-01	1.599776e+14	3.699760e+14	9.515254e+13	7.736124e+03	2.825662e+03	2.111615e+03	0	6.400416e-04
2.000000e+08	9.090572e+12	0.000000e+00	6.984127e-01	1.580910e+14	3.609382e+14	9.464487e+13	7.723375e+03	2.816289e+03	2.104611e+03	0	6.369963e-04
2.100000e+08	8.963741e+12	0.000000e+00	6.984127e-01	1.562634e+14	3.525293e+14	9.414094e+13	7.710776e+03	2.807453e+03	2.098008e+03	0	6.340200e-04
2.200000e+08	8.840818e+12	0.000000e+00	6.984127e-01	1.544911e+14	3.446854e+14	9.364071e+13	7.698322e+03	2.799107e+03	2.091771e+03	0	6.311085e-04
2.300000e+08	8.721561e+12	0.000000e+00	6.984127e-01	1.527708e+14	3.373504e+14	9.314415e+13	7.686009e+03	2.791211e+03	2.085870e+03	0	6.282579e-04
2.400000e+08	8.605751e+12	0.000000e+00	6.984127e-01	1.510994e+14	3.304755e+14	9.265123e+13	7.673832e+03	2.783730e+03	2.080279e+03	0	6.254647e-04
2.500000e+08	8.493190e+12	0.000000e+00	6.984127e-01	1.494740e+14	3.240176e+14	9.216192e+13	7.661788e+03	2.776630e+03	2.074973e+03	0	6.227257e-04
2.600000e+08	8.383696e+12	0.000000e+00	6.984127e-01	1.478921e+14	3.179385e+14	9.167619e+13	7.649874e+03	2.769881e+03	2.069930e+03	0	6.200381e-04
2.700000e+08	8.277100e+12	0.000000e+00	6.984127e-01	1.463513e+14	3.122046e+14	9.119401e+13	7.638085e+03	2.763458e+03	2.065130e+03	0	6.173990e-04
2.800000e+08	8.173250e+12	0.000000e+00	6.984127e-01	1.448495e+14	3.067859e+14	9.071535e+13	7.626418e+03	2.757336e+03	2.060555e+03	0	6.148060e-04
2.900000e+08	8.072005e+12	0.000000e+00	6.984127e-01	1.433847e+14	3.016557e+14	9.024019e+13	7.614871e+03	2.751493e+03	2.056189e+03	0	6.122569e-04
3.000000e+08	7.973234e+12	0.000000e+00	6.984127e-01	1.419550e+14	2.967900e+14	8.976849e+13	7.603441e+03	2.745909e+03	2.052016e+03	0	6.097494e-04
3.100000e+08	7.876818e+12	0.000000e+00	6.984127e-01	1.405587e+14	2.921676e+14	8.930023e+13	7.592124e+03	2.740566e+03	2.048023e+03	0	6.072816e-04
3.200000e+08	7.782644e+12	0.000000e+00	6.984127e-01	1.391944e+14	2.877691e+14	8.883538e+13	7.580918e+03	2.735447e+03	2.044198e+03	0	6.048517e-04
3.300000e+08	7.690611e+12	0.000000e+00	6.984127e-01	1.378604e+14	2.835772e+14	8.837390e+13	7.569820e+03	2.730537e+03	2.040529e+03	0	6.024580e-04
3.400000e+08	7.600621e+12	0.000000e+00	6.984127e-01	1.365555e+14	2.795764e+14	8.791578e+13	7.558829e+03	2.725822e+03	2.037005e+03	0	6.000990e-04
3.500000e+08	7.512586e+12	0.000000e+00	6.984127e-01	1.352785e+14	2.757524e+14	8.746098e+13	7.547941e+03	2.721290e+03	2.033618e+03	0	5.977731e-04
3.600000e+08	7.426423e+12	0.000000e+00	6.984127e-01	1.340280e+14	2.720925e+14	8.700947e+13	7.537155e+03	2.716928e+03	2.030358e+03	0	5.954790e-04
3.700000e+08	7.342054e+12	0.000000e+00	6.984127e-01	1.328032e+14	2.685849e+14	8.656124e+13	7.526468e+03	2.712725e+03	2.027218e+03	0	5.932154e-04
3.800000e+08	7.259406e+12	0.000000e+00	6.984127e-01	1.316028e+14	2.652191e+14	8.611625e+13	7.515879e+03	2.708672e+03	2.024189e+03	0	5.909811e-04
3.900000e+08	7.178412e+12	0.000000e+00	6.984127e-01	1.304259e+14	2.619855e+14	8.567448e+13	7.505385e+03	2.704759e+03	2.021265e+03	0	5.887749e-04
4.000000e+08	7.099008e+12	0.000000e+00	6.984127e-01	1.292718e+14	2.588751e+14	8.523589e+13	7.494984e+03	2.700978e+03	2.018439e+03	0	5.865960e-04
4.100000e+08	7.021133e+12	0.000000e+00	6.984127e-01	1.281394e+14	2.558799e+14	8.480048e+13	7.484676e+03	2.697321e+03	2.015706e+03	0	5.844431e-04
4.200000e+08	6.944733e+12	0.000000e+00	6.984127e-01	1.270280e+14	2.529926e+14	8.436819e+13	7.474457e+03	2.693780e+03	2.013060e+03	0	5.823155e-04
4.300000e+08	6.869753e+12	0.000000e+00	6.984127e-01	1.259369e+14	2.502063e+14	8.393903e+13	7.464327e+03	2.690349e+03	2.010496e+03	0	5.802122e-04
4.400000e+08	6.796144e+12	0.000000e+00	6.984127e-01	1.248654e+14	2.475147e+14	8.351295e+13	7.454284e+03	2.687021e+03	2.008009e+03	0	5.781325e-04
4.500000e+08	6.723859e+12	0.000000e+00	6.984127e-01	1.238128e+14	2.449122e+14	8.308993e+13	7.444326e+03	2.683791e+03	2.005595e+03	0	5.760755e-04
4.600000e+08	6.652853e+12	0.000000e+00	6.984127e-01	1.227784e+14	2.423934e+14	8.266994e+13	7.434451e+03	2.680653e+03	2.003250e+03	0	5.740405e-04
4.700000e+08	6.583085e+12	0.000000e+00	6.984127e-01	1.217617e+14	2.399535e+14	8.225298e+13	7.424659e+03	2.677602e+03	2.000970e+03	0	5.720267e-04
4.800000e+08	6.514514e+12	0.000000e+00	6.984127e-01	1.207621e+14	2.375878e+14	8.183899e+13	7.414948e+03	2.674634e+03	1.998752e+03	0	5.700337e-04
4.900000e+08	6.447102e+12	0.000000e+00	6.984127e-01	1.197790e+14	2.352924e+14	8.142798e+13	7.405316e+03	2.671743e+03	1.996592e+03	0	5.680607e-04
5.000000e+08	6.380815e+12	0.000000e+00	6.984127e-01	1.188121e+14	2.330632e+14	8.101990e+13	7.395763e+03	2.668926e+03	1.994486e+03	0	5.661071e-04
5.100000e+08	6.315617e+12	0.000000e+00	6.984127e-01	1.178607e+14	2.308966e+14	8.061473e+13	7.386286e+03	2.666178e+03	1.992433e+03	0	5.641723e-04
5.200000e+08	6.251476e+12	0.000000e+00	6.984127e-01	1.169244e+14	2.287895e+14	8.021246e+13	7.376885e+03	2.663497e+03	1.990430e+03	0	5.622559e-04
5.300000e+08	6.188363e+12	0.000000e+00	6.984127e-01	1.160028e+14	2.267386e+14	7.981306e+13	7.367559e+03	2.660879e+03	1.988473e+03	0	5.603574e-04
5.400000e+08	6.126246e+12	0.000000e+00	6.984127e-01	1.150954e+14	2.247410e+14	7.941650e+13	7.358306e+03	2.658321e+03	1.986562e+03	0	5.584762e-04
5.500000e+08	6.065099e+12	0.000000e+00	6.984127e-01	1.142020e+14	2.227942e+14	7.902276e+13	7.349125e+03	2.655820e+03	1.984692e+03	0	5.566119e-04
5.600000e+08	6.004894e+12	0.000000e+00	6.984127e-01	1.133220e+14	2.208955e+14	7.863182e+13	7.340015e+03	2.653372e+03	1.982863e+03	0	5.547640e-04
5.700000e+08	5.945606e+12	0.000000e+00	6.984127e-01	1.124552e+14	2.190427e+14	7.824366e+13	7.330975e+03	2.650976e+03	1.981073e+03	0	5.529322e-04
5.800000e+08	5.887210e+12	0.000000e+00	6.984127e-01	1.116011e+14	2.172335e+14	7.785826e+13	7.322004e+03	2.648629e+03	1.979319e+03	0	5.511160e-04
5.900000e+08	5.829684e+12	0.000000e+00	6.984127e-01	1.107595e+14	2.154660e+14	7.747558e+13	7.313101e+03	2.646329e+03	1.977600e+03	0	5.493151e-04
6.000000e+08	5.773005e+12	0.000000e+00	6.984127e-01	1.099301e+14	2.137381e+14	7.709561e+13	7.304266e+03	2.644073e+03	1.975914e+03	0	5.475290e-04
6.100000e+08	5.717151e+12	0.000000e+00	6.984127e-01	1.091124e+14	2.120482e+14	7.671833e+13	7.295496e+03	2.641859e+03	1.974260e+03	0	5.457575e-04
6.200000e+08	5.662102e+12	0.000000e+00	6.984127e-01	1.083063e+14	2.103945e+14	7.634372e+13	7.286791e+03	2.639687e+03	1.972636e+03	0	5.440002e-04
6.300000e+08	5.607838e+12	0.000000e+00	6.984127e-01	1.075115e+14	2.087755e+14	7.597175e+13	7.278150e+03	2.637553e+03	1.971041e+03	0	5.422568e-04
6.400000e+08	5.554340e+12	0.000000e+00	6.984127e-01	1.067276e+14	2.071897e+14	7.560241e+13	7.269573e+03	2.635456e+03	1.969474e+03	0	5.405269e-04
6.500000e+08	5.501590e+12	0.000000e+00	6.984127e-01	1.059545e+14	2.056357e+14	7.523566e+13	7.261058e+03	2.633394e+03	1.967934e+03	0	5.388104e-04
6.600000e+08	5.449571e+12	0.000000e+00	6.984127e-01	1.051919e+14	2.041121e+14	7.487150e+13	7.252604e+03	2.631367e+03	1.966419e+03	0	5.371068e-04
6.700000e+08	5.398265e+12	0.000000e+00	6.984127e-01	1.044395e+14	2.026179e+14	7.450990e+13	7.244212e+03	2.629372e+03	1.964928e+03	0	5.354159e-04
6.800000e+08	5.347657e+12	0.000000e+00	6.984127e-01	1.036971e+14	2.011517e+14	7.415084e+13	7.235879e+03	2.627408e+03	1.963460e+03	0	5.337375e-04
6.900000e+08	5.297730e+12	0.000000e+00	6.984127e-01	1.029645e+14	1.997126e+14	7.379429e+13	7.227605e+03	2.625474e+03	1.962015e+03	0	5.320712e-04
7.000000e+08	5.248470e+12	0.000000e+00	6.984127e-01	1.022415e+14	1.982994e+14	7.344025e+13	7.219390e+03	2.623569e+03	1.960592e+03	0	5.304170e-04
7.100000e+08	5.199861e+12	0.000000e+00	6.984127e-01	1.015278e+14	1.969112e+14	7.308868e+13	7.211232e+03	2.621692e+03	1.959188e+03	0	5.287744e-04
7.200000e+08	5.151891e+12	0.000000e+00	6.984127e-01	1.008233e+14	1.955471e+14	7.273958e+13	7.203131e+03	2.619841e+03	1.957805e+03	0	5.271434e-04
7.300000e+08	5.104545e+12	0.000000e+00	6.984127e-01	1.001278e+14	1.942062e+14	7.239291e+13	7.195086e+03	2.618015e+03	1.956441e+03	0	5.255236e-04
7.400000e+08	5.057811e+12	0.000000e+00	6.984127e-01	9.944107e+13	1.928877e+14	7.204866e+13	7.187096e+03	2.616214e+03	1.955095e+03	0	5.239149e-04
7.500000e+08	5.011675e+12	0.000000e+00	6.984127e-01	9.876295e+13	1.915908e+14	7.170681e+13	7.179161e+03	2.614437e+03	1.953767e+03	0	5.223170e-04
7.600000e+08	4.966126e+12	0.000000e+00	6.984127e-01	9.809326e+13	1.903148e+14	7.136735e+13	7.171280e+03	2.612682e+03	1.952456e+03	0	5.207298e-04
7.700000e+08	4.921150e+12	0.000000e+00	6.984127e-01	9.743183e+13	1.890590e+14	7.103024e+13	7.163452e+03	2.610949e+03	1.951161e+03	0	5.191530e-04
7.800000e+08	4.876738e+12	0.000000e+00	6.984127e-01	9.677851e+13	1.878226e+14	7.069548e+13	7.155677e+03	2.609238e+03	1.949882e+03	0	5.175866e-04
7.900000e+08	4.832878e+12	0.000000e+00	6.984127e-01	9.613312e+13	1.866052e+14	7.036304e+13	7.147954e+03	2.607547e+03	1.948618e+03	0	5.160302e-04
8.000000e+08	4.789559e+12	0.000000e+00	6.984127e-01	9.549552e+13	1.854060e+14	7.003291e+13	7.140283e+03	2.605875e+03	1.947369e+03	0	5.144838e-04
8.100000e+08	4.746770e+12	0.000000e+00	6.984127e-01	9.486555e+13	1.842245e+14	6.970507e+13	7.132662e+03	2.604223e+03	1.946134e+03	0	5.129471e-04
8.200000e+08	4.704501e+12	0.000000e+00	6.984127e-01	9.424308e+13	1.830601e+14	6.937949e+13	7.125091e+03	2.602589e+03	1.944913e+03	0	5.114200e-04
8.300000e+08	4.662743e+12	0.000000e+00	6.984127e-01	9.362796e+13	1.819124e+14	6.905617e+13	7.117570e+03	2.600972e+03	1.943705e+03	0	5.099024e-04
8.400000e+08	4.621486e+12	0.000000e+00	6.984127e-01	9.302005e+13	1.807809e+14	6.873508e+13	7.110098e+03	2.599373e+03	1.942510e+03	0	5.083940e-04
8.500000e+08	4.580721e+12	0.000000e+00	6.984127e-01	9.241923e+13	1.796650e+14	6.841620e+13	7.102674e+03	2.597791e+03	1.941327e+03	0	5.068948e-04
8.600000e+08	4.540438e+12	0.000000e+00	6.984127e-01	9.182535e+13	1.785643e+14	6.809953e+13	7.095299e+03	2.596224e+03	1.940157e+03	0	5.054045e-04
8.700000e+08	4.500629e+12	0.000000e+00	6.984127e-01	9.123831e+13	1.774785e+14	6.778503e+13	7.087970e+03	2.594674e+03	1.938998e+03	0	5.039231e-04
8.800000e+08	4.461285e+12	0.000000e+00	6.984127e-01	9.065797e+13	1.764071e+14	6.747270e+13	7.080688e+03	2.593138e+03	1.937851e+03	0	5.024504e-04
8.900000e+08	4.422398e+12	0.000000e+00	6.984127e-01	9.008422e+13	1.753496e+14	6.716251e+13	7.073453e+03	2.591617e+03	1.936714e+03	0	5.009862e-04
9.000000e+08	4.383959e+12	0.000000e+00	6.984127e-01	8.951694e+13	1.743058e+14	6.685445e+13	7.066263e+03	2.590111e+03	1.935588e+03	0	4.995305e-04
9.100000e+08	4.345962e+12	0.000000e+00	6.984127e-01	8.895602e+13	1.732753e+14	6.654850e+13	7.059118e+03	2.588618e+03	1.934473e+03	0	4.980831e-04
9.200000e+08	4.308398e+12	0.000000e+00	6.984127e-01	8.840135e+13	1.722577e+14	6.624465e+13	7.052018e+03	2.587139e+03	1.933367e+03	0	4.966439e-04
9.300000e+08	4.271260e+12	0.000000e+00	6.984127e-01	8.785283e+13	1.712527e+14	6.594288e+13	7.044962e+03	2.585673e+03	1.932272e+03	0	4.952128e-04
9.400000e+08	4.234540e+12	0.000000e+00	6.984127e-01	8.731034e+13	1.702600e+14	6.564317e+13	7.037950e+03	2.584219e+03	1.931185e+03	0	4.937896e-04
9.500000e+08	4.198232e+12	0.000000e+00	6.984127e-01	8.677379e+13	1.692793e+14	6.534550e+13	7.030981e+03	2.582778e+03	1.930108e+03	0	4.923742e-04
9.600000e+08	4.162328e+12	0.000000e+00	6.984127e-01	8.624307e+13	1.683104e+14	6.504987e+13	7.024055e+03	2.581349e+03	1.929041e+03	0	4.909666e-04
9.700000e+08	4.126822e+12	0.000000e+00	6.984127e-01	8.571810e+13	1.673528e+14	6.475624e+13	7.017171e+03	2.579932e+03	1.927981e+03	0	4.895666e-04
9.800000e+08	4.091707e+12	0.000000e+00	6.984127e-01	8.519878e+13	1.664064e+14	6.446462e+13	7.010329e+03	2.578526e+03	1.926931e+03	0	4.881740e-04
9.900000e+08	4.056976e+12	0.000000e+00	6.984127e-01	8.468502e+13	1.654709e+14	6.417498e+13	7.003528e+03	2.577131e+03	1.925889e+03	0	4.867889e-04
1.000000e+09	4.022624e+12	0.000000e+00	6.984127e-01	8.417672e+13	1.645461e+14	6.388730e+13	6.996768e+03	2.575747e+03	1.924854e+03	0	4.854111e-04
1.010000e+09	3.988645e+12	0.000000e+00	6.984127e-01	8.367380e+13	1.636317e+14	6.360158e+13	6.990049e+03	2.574374e+03	1.923828e+03	0	4.840404e-04
1.020000e+09	3.955032e+12	0.000000e+00	6.984127e-01	8.317617e+13	1.627275e+14	6.331779e+13	6.983370e+03	2.573011e+03	1.922810e+03	0	4.826769e-04
1.030000e+09	3.921779e+12	0.000000e+00	6.984127e-01	8.268375e+13	1.618333e+14	6.303592e+13	6.976730e+03	2.571659e+03	1.921799e+03	0	4.813204e-04
1.040000e+09	3.888881e+12	0.000000e+00	6.984127e-01	8.219647e+13	1.609488e+14	6.275596e+13	6.970129e+03	2.570316e+03	1.920795e+03	0	4.799707e-04
1.050000e+09	3.856333e+12	0.000000e+00	6.984127e-01	8.171423e+13	1.600740e+14	6.247788e+13	6.963568e+03	2.568983e+03	1.919799e+03	0	4.786279e-04
1.060000e+09	3.824128e+12	0.000000e+00	6.984127e-01	8.123696e+13	1.592085e+14	6.220168e+13	6.957045e+03	2.567659e+03	1.918810e+03	0	4.772918e-04
1.070000e+09	3.792262e+12	0.000000e+00	6.984127e-01	8.076458e+13	1.583521e+14	6.192735e+13	6.950560e+03	2.566344e+03	1.917827e+03	0	4.759624e-04
1.080000e+09	3.760729e+12	0.000000e+00	6.984127e-01	8.029703e+13	1.575048e+14	6.165486e+13	6.944112e+03	2.565039e+03	1.916852e+03	0	4.746395e-04
1.090000e+09	3.729524e+12	0.000000e+00	6.984127e-01	7.983422e+13	1.566663e+14	6.138420e+13	6.937702e+03	2.563742e+03	1.915883e+03	0	4.733230e-04
1.100000e+09	3.698642e+12	0.000000e+00	6.984127e-01	7.937609e+13	1.558364e+14	6.111536e+13	6.931329e+03	2.562454e+03	1.914920e+03	0	4.720130e-04
1.110000e+09	3.668078e+12	0.000000e+00	6.984127e-01	7.892257e+13	1.550150e+14	6.084832e+13	6.924992e+03	2.561174e+03	1.913964e+03	0	4.707092e-04
1.120000e+09	3.637828e+12	0.000000e+00	6.984127e-01	7.847358e+13	1.542020e+14	6.058307e+13	6.918691e+03	2.559903e+03	1.913014e+03	0	4.694117e-04
1.130000e+09	3.607887e+12	0.000000e+00	6.984127e-01	7.802906e+13	1.533971e+14	6.031959e+13	6.912426e+03	2.558640e+03	1.912070e+03	0	4.681203e-04
1.140000e+09	3.578250e+12	0.000000e+00	6.984127e-01	7.758895e+13	1.526003e+14	6.005788e+13	6.906196e+03	2.557385e+03	1.911132e+03	0	4.668350e-04
1.150000e+09	3.548913e+12	0.000000e+00	6.984127e-01	7.715317e+13	1.518113e+14	5.979791e+13	6.900002e+03	2.556138e+03	1.910200e+03	0	4.655557e-04
1.160000e+09	3.519871e+12	0.000000e+00	6.984127e-01	7.672168e+13	1.510300e+14	5.953968e+13	6.893842e+03	2.554898e+03	1.909274e+03	0	4.642823e-04
1.170000e+09	3.491120e+12	0.000000e+00	6.984127e-01	7.629440e+13	1.502564e+14	5.928317e+13	6.887717e+03	2.553666e+03	1.908353e+03	0	4.630147e-04
1.180000e+09	3.462656e+12	0.000000e+00	6.984127e-01	7.587127e+13	1.494902e+14	5.902836e+13	6.881626e+03	2.552441e+03	1.907438e+03	0	4.617529e-04
1.190000e+09	3.434475e+12	0.000000e+00	6.984127e-01	7.545225e+13	1.487314e+14	5.877525e+13	6.875568e+03	2.551224e+03	1.906528e+03	0	4.604968e-04
1.200000e+09	3.406573e+12	0.000000e+00	6.984127e-01	7.503726e+13	1.479798e+14	5.852382e+13	6.869544e+03	2.550014e+03	1.905624e+03	0	4.592464e-04
1.210000e+09	3.378945e+12	0.000000e+00	6.984127e-01	7.462625e+13	1.472353e+14	5.827406e+13	6.863553e+03	2.548811e+03	1.904725e+03	0	4.580015e-04
1.220000e+09	3.351588e+12	0.000000e+00	6.984127e-01	7.421917e+13	1.464978e+14	5.802595e+13	6.857594e+03	2.547614e+03	1.903831e+03	0	4.567621e-04
1.230000e+09	3.324498e+12	0.000000e+00	6.984127e-01	7.381596e+13	1.457671e+14	5.777948e+13	6.851668e+03	2.546425e+03	1.902942e+03	0	4.555282e-04
1.240000e+09	3.297672e+12	0.000000e+00	6.984127e-01	7.341657e+13	1.450432e+14	5.753465e+13	6.845775e+03	2.545242e+03	1.902058e+03	0	4.542996e-04
1.250000e+09	3.271105e+12	0.000000e+00	6.984127e-01	7.302094e+13	1.443259e+14	5.729142e+13	6.839913e+03	2.544066e+03	1.901179e+03	0	4.530763e-04
1.260000e+09	3.244794e+12	0.000000e+00	6.984127e-01	7.262903e+13	1.436152e+14	5.704981e+13	6.834082e+03	2.542896e+03	1.900305e+03	0	4.518583e-04
1.270000e+09	3.218736e+12	0.000000e+00	6.984127e-01	7.224078e+13	1.429110e+14	5.680978e+13	6.828283e+03	2.541733e+03	1.899435e+03	0	4.506454e-04
1.280000e+09	3.192926e+12	0.000000e+00	6.984127e-01	7.185614e+13	1.422130e+14	5.657133e+13	6.822515e+03	2.540576e+03	1.898571e+03	0	4.494377e-04
1.290000e+09	3.167362e+12	0.000000e+00	6.984127e-01	7.147507e+13	1.415214e+14	5.633445e+13	6.816777e+03	2.539425e+03	1.897710e+03	0	4.482350e-04
1.300000e+09	3.142041e+12	0.000000e+00	6.984127e-01	7.109752e+13	1.408358e+14	5.609913e+13	6.811070e+03	2.538280e+03	1.896855e+03	0	4.470373e-04
1.310000e+09	3.116959e+12	0.000000e+00	6.984127e-01	7.072343e+13	1.401564e+14	5.586534e+13	6.805393e+03	2.537141e+03	1.896004e+03	0	4.458446e-04
1.320000e+09	3.092112e+12	0.000000e+00	6.984127e-01	7.035277e+13	1.394829e+14	5.563309e+13	6.799746e+03	2.536008e+03	1.895157e+03	0	4.446568e-04
1.330000e+09	3.067498e+12	0.000000e+00	6.984127e-01	6.998549e+13	1.388153e+14	5.540236e+13	6.794128e+03	2.534881e+03	1.894315e+03	0	4.434738e-04
1.340000e+09	3.043114e+12	0.000000e+00	6.984127e-01	6.962154e+13	1.381535e+14	5.517313e+13	6.788539e+03	2.533760e+03	1.893477e+03	0	4.422956e-04
1.350000e+09	3.018956e+12	0.000000e+00	6.984127e-01	6.926088e+13	1.374974e+14	5.494540e+13	6.782980e+03	2.532644e+03	1.892643e+03	0	4.411221e-04
1.360000e+09	2.995022e+12	0.000000e+00	6.984127e-01	6.890346e+13	1.368469e+14	5.471916e+13	6.777449e+03	2.531534e+03	1.891814e+03	0	4.399533e-04
