#t		Qconv[W]	Ri[Rp]		R*[Rp]		Qc[W]		Qm[W]		Qr[W]		Tcmb[K]		Tl[K]		Tup[K]		RiFlag		Bs[T]
0.000000e+00	2.928724e+14	0.000000e+00	6.825395e-01	3.448499e+15	2.046629e+15	1.646541e+14	1.642709e+04	4.298543e+03	2.614101e+03	0	2.021225e-03
1.000000e+07	2.824672e+14	0.000000e+00	6.825395e-01	3.329686e+15	2.276804e+15	1.637418e+14	1.625308e+04	4.384275e+03	2.666238e+03	0	1.996999e-03
2.000000e+07	2.721470e+14	0.000000e+00	6.825395e-01	3.211883e+15	2.457830e+15	1.628363e+14	1.608499e+04	4.450494e+03	2.706509e+03	0	1.972376e-03
3.000000e+07	2.620252e+14	0.000000e+00	6.825395e-01	3.096369e+15	2.590974e+15	1.619376e+14	1.592277e+04	4.500200e+03	2.736737e+03	0	1.947614e-03
4.000000e+07	2.521853e+14	0.000000e+00	6.825395e-01	2.984084e+15	2.681011e+15	1.610456e+14	1.576631e+04	4.536279e+03	2.758677e+03	0	1.922923e-03
5.000000e+07	2.426845e+14	0.000000e+00	6.825395e-01	2.875670e+15	2.734358e+15	1.601603e+14	1.561545e+04	4.561328e+03	2.773911e+03	0	1.898465e-03
6.000000e+07	2.335582e+14	0.000000e+00	6.825395e-01	2.771525e+15	2.757769e+15	1.592815e+14	1.547001e+04	4.577582e+03	2.783795e+03	0	1.874362e-03
7.000000e+07	2.248248e+14	0.000000e+00	6.825395e-01	2.671853e+15	2.757558e+15	1.584093e+14	1.532977e+04	4.586905e+03	2.789465e+03	0	1.850702e-03
8.000000e+07	2.164903e+14	0.000000e+00	6.825395e-01	2.576721e+15	2.739233e+15	1.575436e+14	1.519451e+04	4.590815e+03	2.791843e+03	0	1.827545e-03
9.000000e+07	2.085517e+14	0.000000e+00	6.825395e-01	2.486094e+15	2.707383e+15	1.566843e+14	1.506401e+04	4.590530e+03	2.791670e+03	0	1.804928e-03
1.000000e+08	2.009999e+14	0.000000e+00	6.825395e-01	2.399865e+15	2.665711e+15	1.558314e+14	1.493805e+04	4.587018e+03	2.789534e+03	0	1.782873e-03
1.100000e+08	1.938218e+14	0.000000e+00	6.825395e-01	2.317886e+15	2.617141e+15	1.549848e+14	1.481642e+04	4.581040e+03	2.785898e+03	0	1.761392e-03
1.200000e+08	1.870016e+14	0.000000e+00	6.825395e-01	2.239977e+15	2.563940e+15	1.541445e+14	1.469889e+04	4.573194e+03	2.781127e+03	0	1.740485e-03
1.300000e+08	1.805224e+14	0.000000e+00	6.825395e-01	2.165946e+15	2.507844e+15	1.533104e+14	1.458527e+04	4.563946e+03	2.775503e+03	0	1.720147e-03
1.400000e+08	1.743665e+14	0.000000e+00	6.825395e-01	2.095591e+15	2.450162e+15	1.524825e+14	1.447537e+04	4.553660e+03	2.769248e+03	0	1.700368e-03
1.500000e+08	1.685164e+14	0.000000e+00	6.825395e-01	2.028713e+15	2.391876e+15	1.516608e+14	1.436900e+04	4.542620e+03	2.762534e+03	0	1.681135e-03
1.600000e+08	1.629546e+14	0.000000e+00	6.825395e-01	1.965115e+15	2.333709e+15	1.508450e+14	1.426599e+04	4.531047e+03	2.755496e+03	0	1.662433e-03
1.700000e+08	1.576646e+14	0.000000e+00	6.825395e-01	1.904607e+15	2.276187e+15	1.500353e+14	1.416618e+04	4.519112e+03	2.748238e+03	0	1.644245e-03
1.800000e+08	1.526303e+14	0.000000e+00	6.825395e-01	1.847008e+15	2.219688e+15	1.492316e+14	1.406941e+04	4.506949e+03	2.740841e+03	0	1.626555e-03
1.900000e+08	1.478365e+14	0.000000e+00	6.825395e-01	1.792145e+15	2.164474e+15	1.484338e+14	1.397555e+04	4.494661e+03	2.733368e+03	0	1.609345e-03
2.000000e+08	1.432689e+14	0.000000e+00	6.825395e-01	1.739856e+15	2.110721e+15	1.476419e+14	1.388444e+04	4.482329e+03	2.725868e+03	0	1.592597e-03
2.100000e+08	1.389139e+14	0.000000e+00	6.825395e-01	1.689987e+15	2.058543e+15	1.468558e+14	1.379597e+04	4.470014e+03	2.718379e+03	0	1.576294e-03
2.200000e+08	1.347591e+14	0.000000e+00	6.825395e-01	1.642395e+15	2.008003e+15	1.460754e+14	1.371001e+04	4.457764e+03	2.710930e+03	0	1.560419e-03
2.300000e+08	1.307924e+14	0.000000e+00	6.825395e-01	1.596945e+15	1.959128e+15	1.453008e+14	1.362645e+04	4.445616e+03	2.703542e+03	0	1.544956e-03
2.400000e+08	1.270029e+14	0.000000e+00	6.825395e-01	1.553511e+15	1.911921e+15	1.445319e+14	1.354518e+04	4.433596e+03	2.696232e+03	0	1.529888e-03
2.500000e+08	1.233801e+14	0.000000e+00	6.825395e-01	1.511977e+15	1.866363e+15	1.437686e+14	1.346611e+04	4.421727e+03	2.689014e+03	0	1.515201e-03
2.600000e+08	1.199146e+14	0.000000e+00	6.825395e-01	1.472233e+15	1.822423e+15	1.430109e+14	1.338913e+04	4.410022e+03	2.681896e+03	0	1.500880e-03
2.700000e+08	1.165972e+14	0.000000e+00	6.825395e-01	1.434177e+15	1.780061e+15	1.422587e+14	1.331416e+04	4.398493e+03	2.674885e+03	0	1.486910e-03
2.800000e+08	1.134197e+14	0.000000e+00	6.825395e-01	1.397713e+15	1.739228e+15	1.415120e+14	1.324111e+04	4.387147e+03	2.667985e+03	0	1.473278e-03
2.900000e+08	1.103741e+14	0.000000e+00	6.825395e-01	1.362753e+15	1.699873e+15	1.407708e+14	1.316990e+04	4.375988e+03	2.661199e+03	0	1.459971e-03
3.000000e+08	1.074531e+14	0.000000e+00	6.825395e-01	1.329214e+15	1.661943e+15	1.400349e+14	1.310046e+04	4.365020e+03	2.654529e+03	0	1.446977e-03
3.100000e+08	1.046500e+14	0.000000e+00	6.825395e-01	1.297017e+15	1.625381e+15	1.393045e+14	1.303271e+04	4.354243e+03	2.647975e+03	0	1.434283e-03
3.200000e+08	1.019584e+14	0.000000e+00	6.825395e-01	1.266092e+15	1.590133e+15	1.385793e+14	1.296660e+04	4.343657e+03	2.641537e+03	0	1.421880e-03
3.300000e+08	9.937239e+13	0.000000e+00	6.825395e-01	1.236370e+15	1.556145e+15	1.378594e+14	1.290204e+04	4.333262e+03	2.635215e+03	0	1.409755e-03
3.400000e+08	9.688631e+13	0.000000e+00	6.825395e-01	1.207788e+15	1.523362e+15	1.371448e+14	1.283900e+04	4.323053e+03	2.629007e+03	0	1.397900e-03
3.500000e+08	9.449501e+13	0.000000e+00	6.825395e-01	1.180287e+15	1.491733e+15	1.364353e+14	1.277740e+04	4.313030e+03	2.622912e+03	0	1.386303e-03
3.600000e+08	9.219361e+13	0.000000e+00	6.825395e-01	1.153812e+15	1.461208e+15	1.357310e+14	1.271719e+04	4.303189e+03	2.616927e+03	0	1.374956e-03
3.700000e+08	8.997756e+13	0.000000e+00	6.825395e-01	1.128310e+15	1.431737e+15	1.350318e+14	1.265832e+04	4.293527e+03	2.611051e+03	0	1.363850e-03
3.800000e+08	8.784257e+13	0.000000e+00	6.825395e-01	1.103734e+15	1.403275e+15	1.343376e+14	1.260074e+04	4.284039e+03	2.605281e+03	0	1.352976e-03
3.900000e+08	8.578463e+13	0.000000e+00	6.825395e-01	1.080036e+15	1.375777e+15	1.336484e+14	1.254441e+04	4.274723e+03	2.599616e+03	0	1.342327e-03
4.000000e+08	8.379998e+13	0.000000e+00	6.825395e-01	1.057176e+15	1.349201e+15	1.329643e+14	1.248928e+04	4.265574e+03	2.594052e+03	0	1.331895e-03
4.100000e+08	8.188507e+13	0.000000e+00	6.825395e-01	1.035112e+15	1.323506e+15	1.322850e+14	1.243531e+04	4.256588e+03	2.588587e+03	0	1.321671e-03
4.200000e+08	8.003659e+13	0.000000e+00	6.825395e-01	1.013806e+15	1.298653e+15	1.316107e+14	1.238246e+04	4.247761e+03	2.583219e+03	0	1.311650e-03
4.300000e+08	7.825141e+13	0.000000e+00	6.825395e-01	9.932234e+14	1.274606e+15	1.309412e+14	1.233069e+04	4.239089e+03	2.577945e+03	0	1.301825e-03
4.400000e+08	7.652657e+13	0.000000e+00	6.825395e-01	9.733301e+14	1.251329e+15	1.302766e+14	1.227997e+04	4.230569e+03	2.572764e+03	0	1.292189e-03
4.500000e+08	7.485931e+13	0.000000e+00	6.825395e-01	9.540947e+14	1.228790e+15	1.296167e+14	1.223025e+04	4.222196e+03	2.567672e+03	0	1.282736e-03
4.600000e+08	7.324701e+13	0.000000e+00	6.825395e-01	9.354874e+14	1.206956e+15	1.289615e+14	1.218151e+04	4.213966e+03	2.562667e+03	0	1.273460e-03
4.700000e+08	7.168721e+13	0.000000e+00	6.825395e-01	9.174801e+14	1.185799e+15	1.283111e+14	1.213371e+04	4.205876e+03	2.557748e+03	0	1.264355e-03
4.800000e+08	7.017757e+13	0.000000e+00	6.825395e-01	9.000464e+14	1.165289e+15	1.276653e+14	1.208683e+04	4.197923e+03	2.552911e+03	0	1.255417e-03
4.900000e+08	6.871590e+13	0.000000e+00	6.825395e-01	8.831611e+14	1.145399e+15	1.270241e+14	1.204084e+04	4.190102e+03	2.548155e+03	0	1.246640e-03
5.000000e+08	6.730012e+13	0.000000e+00	6.825395e-01	8.668006e+14	1.126103e+15	1.263875e+14	1.199570e+04	4.182410e+03	2.543477e+03	0	1.238019e-03
5.100000e+08	6.592826e+13	0.000000e+00	6.825395e-01	8.509426e+14	1.107378e+15	1.257555e+14	1.195139e+04	4.174844e+03	2.538876e+03	0	1.229549e-03
5.200000e+08	6.459847e+13	0.000000e+00	6.825395e-01	8.355658e+14	1.089200e+15	1.251279e+14	1.190789e+04	4.167400e+03	2.534349e+03	0	1.221226e-03
5.300000e+08	6.330898e+13	0.000000e+00	6.825395e-01	8.206502e+14	1.071547e+15	1.245049e+14	1.186517e+04	4.160075e+03	2.529894e+03	0	1.213045e-03
5.400000e+08	6.205813e+13	0.000000e+00	6.825395e-01	8.061767e+14	1.054397e+15	1.238863e+14	1.182321e+04	4.152866e+03	2.525510e+03	0	1.205003e-03
5.500000e+08	6.084433e+13	0.000000e+00	6.825395e-01	7.921275e+14	1.037732e+15	1.232721e+14	1.178198e+04	4.145771e+03	2.521195e+03	0	1.197095e-03
5.600000e+08	5.966608e+13	0.000000e+00	6.825395e-01	7.784852e+14	1.021531e+15	1.226622e+14	1.174147e+04	4.138785e+03	2.516947e+03	0	1.189317e-03
5.700000e+08	5.852196e+13	0.000000e+00	6.825395e-01	7.652338e+14	1.005778e+15	1.220567e+14	1.170165e+04	4.131907e+03	2.512764e+03	0	1.181666e-03
5.800000e+08	5.741062e+13	0.000000e+00	6.825395e-01	7.523578e+14	9.904538e+14	1.214555e+14	1.166251e+04	4.125133e+03	2.508645e+03	0	1.174138e-03
5.900000e+08	5.633077e+13	0.000000e+00	6.825395e-01	7.398426e+14	9.755435e+14	1.208585e+14	1.162402e+04	4.118461e+03	2.504587e+03	0	1.166730e-03
6.000000e+08	5.528120e+13	0.000000e+00	6.825395e-01	7.276742e+14	9.610310e+14	1.202658e+14	1.158617e+04	4.111889e+03	2.500590e+03	0	1.159438e-03
6.100000e+08	5.426073e+13	0.000000e+00	6.825395e-01	7.158394e+14	9.469014e+14	1.196773e+14	1.154894e+04	4.105413e+03	2.496652e+03	0	1.152260e-03
6.200000e+08	5.326826e+13	0.000000e+00	6.825395e-01	7.043256e+14	9.331406e+14	1.190929e+14	1.151231e+04	4.099032e+03	2.492771e+03	0	1.145191e-03
6.300000e+08	5.230275e+13	0.000000e+00	6.825395e-01	6.931207e+14	9.197352e+14	1.185126e+14	1.147626e+04	4.092742e+03	2.488947e+03	0	1.138230e-03
6.400000e+08	5.136318e+13	0.000000e+00	6.825395e-01	6.822134e+14	9.066722e+14	1.179365e+14	1.144079e+04	4.086543e+03	2.485177e+03	0	1.131373e-03
6.500000e+08	5.044861e+13	0.000000e+00	6.825395e-01	6.715927e+14	8.939393e+14	1.173644e+14	1.140587e+04	4.080431e+03	2.481460e+03	0	1.124618e-03
6.600000e+08	4.955812e+13	0.000000e+00	6.825395e-01	6.612482e+14	8.815248e+14	1.167963e+14	1.137150e+04	4.074405e+03	2.477795e+03	0	1.117961e-03
6.700000e+08	4.869084e+13	0.000000e+00	6.825395e-01	6.511700e+14	8.694175e+14	1.162322e+14	1.133765e+04	4.068462e+03	2.474181e+03	0	1.111401e-03
6.800000e+08	4.784594e+13	0.000000e+00	6.825395e-01	6.413487e+14	8.576066e+14	1.156721e+14	1.130431e+04	4.062601e+03	2.470616e+03	0	1.104935e-03
6.900000e+08	4.702263e+13	0.000000e+00	6.825395e-01	6.317751e+14	8.460820e+14	1.151159e+14	1.127147e+04	4.056819e+03	2.467100e+03	0	1.098561e-03
7.000000e+08	4.622016e+13	0.000000e+00	6.825395e-01	6.224407e+14	8.348339e+14	1.145636e+14	1.123912e+04	4.051115e+03	2.463632e+03	0	1.092276e-03
7.100000e+08	4.543779e+13	0.000000e+00	6.825395e-01	6.133372e+14	8.238527e+14	1.140152e+14	1.120725e+04	4.045487e+03	2.460209e+03	0	1.086078e-03
7.200000e+08	4.467485e+13	0.000000e+00	6.825395e-01	6.044566e+14	8.131297e+14	1.134706e+14	1.117584e+04	4.039933e+03	2.456831e+03	0	1.079965e-03
7.300000e+08	4.393065e+13	0.000000e+00	6.825395e-01	5.957915e+14	8.026562e+14	1.129298e+14	1.114488e+04	4.034452e+03	2.453498e+03	0	1.073934e-03
7.400000e+08	4.320458e+13	0.000000e+00	6.825395e-01	5.873346e+14	7.924240e+14	1.123928e+14	1.111437e+04	4.029041e+03	2.450207e+03	0	1.067985e-03
7.500000e+08	4.249603e+13	0.000000e+00	6.825395e-01	5.790789e+14	7.824252e+14	1.118595e+14	1.108429e+04	4.023700e+03	2.446959e+03	0	1.062114e-03
7.600000e+08	4.180442e+13	0.000000e+00	6.825395e-01	5.710179e+14	7.726523e+14	1.113299e+14	1.105462e+04	4.018426e+03	2.443752e+03	0	1.056321e-03
7.700000e+08	4.112918e+13	0.000000e+00	6.825395e-01	5.631451e+14	7.630980e+14	1.108041e+14	1.102537e+04	4.013218e+03	2.440585e+03	0	1.050603e-03
7.800000e+08	4.046979e+13	0.000000e+00	6.825395e-01	5.554546e+14	7.537554e+14	1.102819e+14	1.099652e+04	4.008076e+03	2.437458e+03	0	1.044958e-03
7.900000e+08	3.982574e+13	0.000000e+00	6.825395e-01	5.479404e+14	7.446178e+14	1.097633e+14	1.096806e+04	4.002996e+03	2.434369e+03	0	1.039385e-03
8.000000e+08	3.919653e+13	0.000000e+00	6.825395e-01	5.405969e+14	7.356788e+14	1.092483e+14	1.093999e+04	3.997979e+03	2.431317e+03	0	1.033882e-03
8.100000e+08	3.858170e+13	0.000000e+00	6.825395e-01	5.334188e+14	7.269323e+14	1.087369e+14	1.091229e+04	3.993022e+03	2.428303e+03	0	1.028448e-03
8.200000e+08	3.798080e+13	0.000000e+00	6.825395e-01	5.264009e+14	7.183724e+14	1.082290e+14	1.088495e+04	3.988125e+03	2.425325e+03	0	1.023081e-03
8.300000e+08	3.739338e+13	0.000000e+00	6.825395e-01	5.195382e+14	7.099934e+14	1.077246e+14	1.085798e+04	3.983285e+03	2.422382e+03	0	1.017779e-03
8.400000e+08	3.681904e+13	0.000000e+00	6.825395e-01	5.128260e+14	7.017899e+14	1.072237e+14	1.083135e+04	3.978503e+03	2.419473e+03	0	1.012541e-03
8.500000e+08	3.625737e+13	0.000000e+00	6.825395e-01	5.062597e+14	6.937566e+14	1.067263e+14	1.080507e+04	3.973776e+03	2.416599e+03	0	1.007366e-03
8.600000e+08	3.570799e+13	0.000000e+00	6.825395e-01	4.998349e+14	6.858885e+14	1.062323e+14	1.077912e+04	3.969104e+03	2.413758e+03	0	1.002252e-03
8.700000e+08	3.517052e+13	0.000000e+00	6.825395e-01	4.935474e+14	6.781808e+14	1.057417e+14	1.075350e+04	3.964485e+03	2.410949e+03	0	9.971982e-04
8.800000e+08	3.464462e+13	0.000000e+00	6.825395e-01	4.873930e+14	6.706287e+14	1.052545e+14	1.072820e+04	3.959919e+03	2.408172e+03	0	9.922029e-04
8.900000e+08	3.412995e+13	0.000000e+00	6.825395e-01	4.813679e+14	6.632279e+14	1.047706e+14	1.070322e+04	3.955404e+03	2.405426e+03	0	9.872650e-04
9.000000e+08	3.362616e+13	0.000000e+00	6.825395e-01	4.754684e+14	6.559739e+14	1.042900e+14	1.067854e+04	3.950940e+03	2.402711e+03	0	9.823833e-04
9.100000e+08	3.313295e+13	0.000000e+00	6.825395e-01	4.696907e+14	6.488626e+14	1.038128e+14	1.065416e+04	3.946525e+03	2.400026e+03	0	9.775566e-04
9.200000e+08	3.265000e+13	0.000000e+00	6.825395e-01	4.640313e+14	6.418900e+14	1.033388e+14	1.063008e+04	3.942158e+03	2.397371e+03	0	9.727837e-04
9.300000e+08	3.217703e+13	0.000000e+00	6.825395e-01	4.584870e+14	6.350523e+14	1.028680e+14	1.060629e+04	3.937838e+03	2.394744e+03	0	9.680636e-04
9.400000e+08	3.171376e+13	0.000000e+00	6.825395e-01	4.530544e+14	6.283456e+14	1.024005e+14	1.058278e+04	3.933565e+03	2.392145e+03	0	9.633951e-04
9.500000e+08	3.125989e+13	0.000000e+00	6.825395e-01	4.477304e+14	6.217664e+14	1.019361e+14	1.055955e+04	3.929338e+03	2.389575e+03	0	9.587772e-04
9.600000e+08	3.081519e+13	0.000000e+00	6.825395e-01	4.425120e+14	6.153113e+14	1.014750e+14	1.053659e+04	3.925156e+03	2.387031e+03	0	9.542089e-04
9.700000e+08	3.037938e+13	0.000000e+00	6.825395e-01	4.373963e+14	6.089768e+14	1.010169e+14	1.051390e+04	3.921017e+03	2.384514e+03	0	9.496892e-04
9.800000e+08	2.995222e+13	0.000000e+00	6.825395e-01	4.323805e+14	6.027598e+14	1.005620e+14	1.049146e+04	3.916921e+03	2.382023e+03	0	9.452170e-04
9.900000e+08	2.953348e+13	0.000000e+00	6.825395e-01	4.274618e+14	5.966571e+14	1.001102e+14	1.046929e+04	3.912868e+03	2.379559e+03	0	9.407916e-04
1.000000e+09	2.912294e+13	0.000000e+00	6.825395e-01	4.226377e+14	5.906657e+14	9.966140e+13	1.044736e+04	3.908856e+03	2.377119e+03	0	9.364119e-04
1.010000e+09	2.872035e+13	0.000000e+00	6.825395e-01	4.179056e+14	5.847827e+14	9.921569e+13	1.042569e+04	3.904885e+03	2.374704e+03	0	9.320770e-04
1.020000e+09	2.832553e+13	0.000000e+00	6.825395e-01	4.132630e+14	5.790053e+14	9.877299e+13	1.040425e+04	3.900954e+03	2.372313e+03	0	9.277861e-04
1.030000e+09	2.793825e+13	0.000000e+00	6.825395e-01	4.087077e+14	5.733308e+14	9.833328e+13	1.038305e+04	3.897063e+03	2.369947e+03	0	9.235384e-04
1.040000e+09	2.755833e+13	0.000000e+00	6.825395e-01	4.042372e+14	5.677565e+14	9.789655e+13	1.036209e+04	3.893210e+03	2.367603e+03	0	9.193329e-04
1.050000e+09	2.718556e+13	0.000000e+00	6.825395e-01	3.998495e+14	5.622799e+14	9.746277e+13	1.034135e+04	3.889394e+03	2.365283e+03	0	9.151690e-04
1.060000e+09	2.681976e+13	0.000000e+00	6.825395e-01	3.955424e+14	5.568985e+14	9.703191e+13	1.032084e+04	3.885616e+03	2.362986e+03	0	9.110457e-04
1.070000e+09	2.646076e+13	0.000000e+00	6.825395e-01	3.913138e+14	5.516100e+14	9.660396e+13	1.030054e+04	3.881875e+03	2.360710e+03	0	9.069624e-04
1.080000e+09	2.610838e+13	0.000000e+00	6.825395e-01	3.871618e+14	5.464120e+14	9.617889e+13	1.028047e+04	3.878169e+03	2.358457e+03	0	9.029184e-04
1.090000e+09	2.576244e+13	0.000000e+00	6.825395e-01	3.830843e+14	5.413023e+14	9.575667e+13	1.026060e+04	3.874499e+03	2.356225e+03	0	8.989127e-04
1.100000e+09	2.542280e+13	0.000000e+00	6.825395e-01	3.790796e+14	5.362789e+14	9.533729e+13	1.024095e+04	3.870864e+03	2.354014e+03	0	8.949449e-04
1.110000e+09	2.508928e+13	0.000000e+00	6.825395e-01	3.751458e+14	5.313394e+14	9.492072e+13	1.022150e+04	3.867263e+03	2.351824e+03	0	8.910141e-04
1.120000e+09	2.476174e+13	0.000000e+00	6.825395e-01	3.712812e+14	5.264821e+14	9.450694e+13	1.020225e+04	3.863695e+03	2.349654e+03	0	8.871197e-04
1.130000e+09	2.444003e+13	0.000000e+00	6.825395e-01	3.674840e+14	5.217048e+14	9.409593e+13	1.018319e+04	3.860160e+03	2.347505e+03	0	8.832611e-04
1.140000e+09	2.412401e+13	0.000000e+00	6.825395e-01	3.637527e+14	5.170057e+14	9.368767e+13	1.016434e+04	3.856658e+03	2.345375e+03	0	8.794376e-04
1.150000e+09	2.381353e+13	0.000000e+00	6.825395e-01	3.600856e+14	5.123830e+14	9.328213e+13	1.014567e+04	3.853187e+03	2.343264e+03	0	8.756485e-04
1.160000e+09	2.350847e+13	0.000000e+00	6.825395e-01	3.564812e+14	5.078348e+14	9.287930e+13	1.012719e+04	3.849748e+03	2.341173e+03	0	8.718933e-04
1.170000e+09	2.320870e+13	0.000000e+00	6.825395e-01	3.529380e+14	5.033594e+14	9.247916e+13	1.010889e+04	3.846340e+03	2.339100e+03	0	8.681713e-04
1.180000e+09	2.291408e+13	0.000000e+00	6.825395e-01	3.494545e+14	4.989552e+14	9.208167e+13	1.009078e+04	3.842962e+03	2.337046e+03	0	8.644821e-04
1.190000e+09	2.262449e+13	0.000000e+00	6.825395e-01	3.460294e+14	4.946206e+14	9.168683e+13	1.007284e+04	3.839615e+03	2.335010e+03	0	8.608249e-04
1.200000e+09	2.233982e+13	0.000000e+00	6.825395e-01	3.426613e+14	4.903538e+14	9.129461e+13	1.005508e+04	3.836296e+03	2.332992e+03	0	8.571992e-04
1.210000e+09	2.205996e+13	0.000000e+00	6.825395e-01	3.393489e+14	4.861535e+14	9.090499e+13	1.003749e+04	3.833006e+03	2.330992e+03	0	8.536046e-04
1.220000e+09	2.178478e+13	0.000000e+00	6.825395e-01	3.360908e+14	4.820180e+14	9.051795e+13	1.002008e+04	3.829745e+03	2.329009e+03	0	8.500404e-04
1.230000e+09	2.151418e+13	0.000000e+00	6.825395e-01	3.328858e+14	4.779460e+14	9.013347e+13	1.000282e+04	3.826512e+03	2.327042e+03	0	8.465062e-04
1.240000e+09	2.124806e+13	0.000000e+00	6.825395e-01	3.297327e+14	4.739361e+14	8.975154e+13	9.985736e+03	3.823307e+03	2.325093e+03	0	8.430014e-04
1.250000e+09	2.098631e+13	0.000000e+00	6.825395e-01	3.266304e+14	4.699869e+14	8.937212e+13	9.968809e+03	3.820129e+03	2.323160e+03	0	8.395256e-04
1.260000e+09	2.072884e+13	0.000000e+00	6.825395e-01	3.235777e+14	4.660971e+14	8.899521e+13	9.952041e+03	3.816977e+03	2.321244e+03	0	8.360782e-04
1.270000e+09	2.047555e+13	0.000000e+00	6.825395e-01	3.205735e+14	4.622653e+14	8.862078e+13	9.935429e+03	3.813852e+03	2.319343e+03	0	8.326587e-04
1.280000e+09	2.022634e+13	0.000000e+00	6.825395e-01	3.176167e+14	4.584904e+14	8.824881e+13	9.918971e+03	3.810753e+03	2.317458e+03	0	8.292668e-04
1.290000e+09	1.998112e+13	0.000000e+00	6.825395e-01	3.147062e+14	4.547711e+14	8.787929e+13	9.902664e+03	3.807679e+03	2.315589e+03	0	8.259020e-04
1.300000e+09	1.973981e+13	0.000000e+00	6.825395e-01	3.118411e+14	4.511062e+14	8.751219e+13	9.886506e+03	3.804630e+03	2.313735e+03	0	8.225637e-04
1.310000e+09	1.950232e+13	0.000000e+00	6.825395e-01	3.090204e+14	4.474946e+14	8.714750e+13	9.870495e+03	3.801607e+03	2.311896e+03	0	8.192516e-04
1.320000e+09	1.926857e+13	0.000000e+00	6.825395e-01	3.062431e+14	4.439352e+14	8.678519e+13	9.854629e+03	3.798607e+03	2.310072e+03	0	8.159653e-04
1.330000e+09	1.903847e+13	0.000000e+00	6.825395e-01	3.035083e+14	4.404269e+14	8.642526e+13	9.838904e+03	3.795632e+03	2.308263e+03	0	8.127043e-04
1.340000e+09	1.881195e+13	0.000000e+00	6.825395e-01	3.008150e+14	4.369686e+14	8.606768e+13	9.823319e+03	3.792681e+03	2.306468e+03	0	8.094682e-04
1.350000e+09	1.858893e+13	0.000000e+00	6.825395e-01	2.981624e+14	4.335592e+14	8.571243e+13	9.807873e+03	3.789753e+03	2.304687e+03	0	8.062566e-04
1.360000e+09	1.836933e+13	0.000000e+00	6.825395e-01	2.955496e+14	4.301979e+14	8.535950e+13	9.792562e+03	3.786847e+03	2.302921e+03	0	8.030692e-04
