#t		Qconv[W]	Ri[Rp]		R*[Rp]		Qc[W]		Qm[W]		Qr[W]		Tcmb[K]		Tl[K]		Tup[K]		RiFlag		Bs[T]
0.000000e+00	4.114050e+14	0.000000e+00	6.960002e-01	4.370759e+15	2.130972e+15	1.828880e+14	1.797147e+04	4.462343e+03	2.674321e+03	0	2.220061e-03
1.000000e+07	3.994410e+14	0.000000e+00	6.960002e-01	4.248211e+15	2.481701e+15	1.818747e+14	1.779811e+04	4.582443e+03	2.746297e+03	0	2.198329e-03
2.000000e+07	3.871566e+14	0.000000e+00	6.960002e-01	4.122504e+15	2.780108e+15	1.808690e+14	1.762954e+04	4.678287e+03	2.803737e+03	0	2.175558e-03
3.000000e+07	3.747600e+14	0.000000e+00	6.960002e-01	3.995734e+15	3.018997e+15	1.798707e+14	1.746591e+04	4.752766e+03	2.848373e+03	0	2.152085e-03
4.000000e+07	3.624236e+14	0.000000e+00	6.960002e-01	3.869634e+15	3.198622e+15	1.788799e+14	1.730724e+04	4.809063e+03	2.882113e+03	0	2.128207e-03
5.000000e+07	3.502812e+14	0.000000e+00	6.960002e-01	3.745548e+15	3.324073e+15	1.778965e+14	1.715353e+04	4.850300e+03	2.906826e+03	0	2.104169e-03
6.000000e+07	3.384305e+14	0.000000e+00	6.960002e-01	3.624458e+15	3.402880e+15	1.769205e+14	1.700469e+04	4.879322e+03	2.924219e+03	0	2.080167e-03
7.000000e+07	3.269386e+14	0.000000e+00	6.960002e-01	3.507039e+15	3.443267e+15	1.759517e+14	1.686060e+04	4.898593e+03	2.935769e+03	0	2.056350e-03
8.000000e+07	3.158483e+14	0.000000e+00	6.960002e-01	3.393718e+15	3.453075e+15	1.749901e+14	1.672114e+04	4.910177e+03	2.942711e+03	0	2.032831e-03
9.000000e+07	3.051835e+14	0.000000e+00	6.960002e-01	3.284733e+15	3.439226e+15	1.740356e+14	1.658613e+04	4.915759e+03	2.946056e+03	0	2.009689e-03
1.000000e+08	2.949543e+14	0.000000e+00	6.960002e-01	3.180182e+15	3.407535e+15	1.730883e+14	1.645542e+04	4.916689e+03	2.946614e+03	0	1.986979e-03
1.100000e+08	2.851605e+14	0.000000e+00	6.960002e-01	3.080064e+15	3.362721e+15	1.721479e+14	1.632882e+04	4.914042e+03	2.945028e+03	0	1.964739e-03
1.200000e+08	2.757954e+14	0.000000e+00	6.960002e-01	2.984306e+15	3.308529e+15	1.712146e+14	1.620617e+04	4.908660e+03	2.941802e+03	0	1.942991e-03
1.300000e+08	2.668471e+14	0.000000e+00	6.960002e-01	2.892789e+15	3.247873e+15	1.702881e+14	1.608729e+04	4.901204e+03	2.937334e+03	0	1.921746e-03
1.400000e+08	2.583010e+14	0.000000e+00	6.960002e-01	2.805363e+15	3.182994e+15	1.693686e+14	1.597203e+04	4.892188e+03	2.931930e+03	0	1.901007e-03
1.500000e+08	2.501406e+14	0.000000e+00	6.960002e-01	2.721859e+15	3.115593e+15	1.684558e+14	1.586021e+04	4.882013e+03	2.925832e+03	0	1.880773e-03
1.600000e+08	2.423484e+14	0.000000e+00	6.960002e-01	2.642100e+15	3.046948e+15	1.675497e+14	1.575170e+04	4.870989e+03	2.919225e+03	0	1.861037e-03
1.700000e+08	2.349065e+14	0.000000e+00	6.960002e-01	2.565905e+15	2.978011e+15	1.666504e+14	1.564633e+04	4.859358e+03	2.912255e+03	0	1.841790e-03
1.800000e+08	2.277974e+14	0.000000e+00	6.960002e-01	2.493095e+15	2.909481e+15	1.657576e+14	1.554398e+04	4.847308e+03	2.905033e+03	0	1.823020e-03
1.900000e+08	2.210037e+14	0.000000e+00	6.960002e-01	2.423493e+15	2.841865e+15	1.648715e+14	1.544450e+04	4.834983e+03	2.897647e+03	0	1.804713e-03
2.000000e+08	2.145086e+14	0.000000e+00	6.960002e-01	2.356929e+15	2.775522e+15	1.639918e+14	1.534778e+04	4.822497e+03	2.890164e+03	0	1.786858e-03
2.100000e+08	2.082962e+14	0.000000e+00	6.960002e-01	2.293242e+15	2.710704e+15	1.631187e+14	1.525369e+04	4.809936e+03	2.882636e+03	0	1.769439e-03
2.200000e+08	2.023511e+14	0.000000e+00	6.960002e-01	2.232275e+15	2.647576e+15	1.622519e+14	1.516212e+04	4.797368e+03	2.875104e+03	0	1.752442e-03
2.300000e+08	1.966589e+14	0.000000e+00	6.960002e-01	2.173882e+15	2.586240e+15	1.613915e+14	1.507297e+04	4.784845e+03	2.867599e+03	0	1.735853e-03
2.400000e+08	1.912058e+14	0.000000e+00	6.960002e-01	2.117923e+15	2.526755e+15	1.605374e+14	1.498613e+04	4.772406e+03	2.860144e+03	0	1.719658e-03
2.500000e+08	1.859789e+14	0.000000e+00	6.960002e-01	2.064268e+15	2.469141e+15	1.596896e+14	1.490150e+04	4.760081e+03	2.852758e+03	0	1.703843e-03
2.600000e+08	1.809660e+14	0.000000e+00	6.960002e-01	2.012793e+15	2.413393e+15	1.588480e+14	1.481901e+04	4.747893e+03	2.845453e+03	0	1.688395e-03
2.700000e+08	1.761558e+14	0.000000e+00	6.960002e-01	1.963381e+15	2.359491e+15	1.580125e+14	1.473855e+04	4.735859e+03	2.838241e+03	0	1.673301e-03
2.800000e+08	1.715375e+14	0.000000e+00	6.960002e-01	1.915925e+15	2.307396e+15	1.571831e+14	1.466006e+04	4.723991e+03	2.831128e+03	0	1.658548e-03
2.900000e+08	1.671010e+14	0.000000e+00	6.960002e-01	1.870320e+15	2.257065e+15	1.563598e+14	1.458344e+04	4.712297e+03	2.824120e+03	0	1.644125e-03
3.000000e+08	1.628368e+14	0.000000e+00	6.960002e-01	1.826472e+15	2.208444e+15	1.555425e+14	1.450864e+04	4.700782e+03	2.817219e+03	0	1.630019e-03
3.100000e+08	1.587361e+14	0.000000e+00	6.960002e-01	1.784290e+15	2.161480e+15	1.547311e+14	1.443558e+04	4.689452e+03	2.810429e+03	0	1.616219e-03
3.200000e+08	1.547904e+14	0.000000e+00	6.960002e-01	1.743689e+15	2.116112e+15	1.539257e+14	1.436419e+04	4.678306e+03	2.803749e+03	0	1.602715e-03
3.300000e+08	1.509920e+14	0.000000e+00	6.960002e-01	1.704589e+15	2.072284e+15	1.531261e+14	1.429442e+04	4.667346e+03	2.797181e+03	0	1.589497e-03
3.400000e+08	1.473336e+14	0.000000e+00	6.960002e-01	1.666917e+15	2.029935e+15	1.523323e+14	1.422620e+04	4.656571e+03	2.790723e+03	0	1.576554e-03
3.500000e+08	1.438081e+14	0.000000e+00	6.960002e-01	1.630602e+15	1.989007e+15	1.515442e+14	1.415948e+04	4.645979e+03	2.784375e+03	0	1.563878e-03
3.600000e+08	1.404092e+14	0.000000e+00	6.960002e-01	1.595577e+15	1.949443e+15	1.507619e+14	1.409420e+04	4.635567e+03	2.778135e+03	0	1.551459e-03
3.700000e+08	1.371307e+14	0.000000e+00	6.960002e-01	1.561781e+15	1.911187e+15	1.499853e+14	1.403031e+04	4.625335e+03	2.772003e+03	0	1.539288e-03
3.800000e+08	1.339668e+14	0.000000e+00	6.960002e-01	1.529156e+15	1.874186e+15	1.492142e+14	1.396777e+04	4.615277e+03	2.765975e+03	0	1.527358e-03
3.900000e+08	1.309122e+14	0.000000e+00	6.960002e-01	1.497646e+15	1.838387e+15	1.484488e+14	1.390653e+04	4.605391e+03	2.760051e+03	0	1.515660e-03
4.000000e+08	1.279618e+14	0.000000e+00	6.960002e-01	1.467199e+15	1.803740e+15	1.476888e+14	1.384654e+04	4.595674e+03	2.754227e+03	0	1.504187e-03
4.100000e+08	1.251107e+14	0.000000e+00	6.960002e-01	1.437768e+15	1.770197e+15	1.469344e+14	1.378776e+04	4.586122e+03	2.748502e+03	0	1.492932e-03
4.200000e+08	1.223545e+14	0.000000e+00	6.960002e-01	1.409305e+15	1.737712e+15	1.461854e+14	1.373015e+04	4.576731e+03	2.742874e+03	0	1.481887e-03
4.300000e+08	1.196888e+14	0.000000e+00	6.960002e-01	1.381767e+15	1.706241e+15	1.454417e+14	1.367368e+04	4.567497e+03	2.737340e+03	0	1.471046e-03
4.400000e+08	1.171096e+14	0.000000e+00	6.960002e-01	1.355114e+15	1.675742e+15	1.447035e+14	1.361830e+04	4.558417e+03	2.731898e+03	0	1.460403e-03
4.500000e+08	1.146132e+14	0.000000e+00	6.960002e-01	1.329306e+15	1.646175e+15	1.439705e+14	1.356398e+04	4.549487e+03	2.726547e+03	0	1.449951e-03
4.600000e+08	1.121959e+14	0.000000e+00	6.960002e-01	1.304307e+15	1.617503e+15	1.432428e+14	1.351070e+04	4.540704e+03	2.721283e+03	0	1.439685e-03
4.700000e+08	1.098544e+14	0.000000e+00	6.960002e-01	1.280083e+15	1.589687e+15	1.425203e+14	1.345840e+04	4.532063e+03	2.716104e+03	0	1.429599e-03
4.800000e+08	1.075853e+14	0.000000e+00	6.960002e-01	1.256600e+15	1.562694e+15	1.418030e+14	1.340708e+04	4.523561e+03	2.711009e+03	0	1.419687e-03
4.900000e+08	1.053857e+14	0.000000e+00	6.960002e-01	1.233828e+15	1.536490e+15	1.410908e+14	1.335669e+04	4.515195e+03	2.705995e+03	0	1.409945e-03
5.000000e+08	1.032526e+14	0.000000e+00	6.960002e-01	1.211736e+15	1.511045e+15	1.403837e+14	1.330721e+04	4.506962e+03	2.701061e+03	0	1.400368e-03
5.100000e+08	1.011834e+14	0.000000e+00	6.960002e-01	1.190298e+15	1.486328e+15	1.396817e+14	1.325861e+04	4.498857e+03	2.696204e+03	0	1.390950e-03
5.200000e+08	9.917533e+13	0.000000e+00	6.960002e-01	1.169486e+15	1.462311e+15	1.389847e+14	1.321086e+04	4.490878e+03	2.691422e+03	0	1.381687e-03
5.300000e+08	9.722606e+13	0.000000e+00	6.960002e-01	1.149276e+15	1.438965e+15	1.382926e+14	1.316394e+04	4.483022e+03	2.686713e+03	0	1.372575e-03
5.400000e+08	9.533320e+13	0.000000e+00	6.960002e-01	1.129643e+15	1.416267e+15	1.376055e+14	1.311783e+04	4.475285e+03	2.682077e+03	0	1.363609e-03
5.500000e+08	9.349453e+13	0.000000e+00	6.960002e-01	1.110566e+15	1.394190e+15	1.369233e+14	1.307251e+04	4.467665e+03	2.677510e+03	0	1.354785e-03
5.600000e+08	9.170793e+13	0.000000e+00	6.960002e-01	1.092022e+15	1.372711e+15	1.362459e+14	1.302794e+04	4.460158e+03	2.673011e+03	0	1.346100e-03
5.700000e+08	8.997139e+13	0.000000e+00	6.960002e-01	1.073991e+15	1.351808e+15	1.355733e+14	1.298412e+04	4.452763e+03	2.668579e+03	0	1.337550e-03
5.800000e+08	8.828301e+13	0.000000e+00	6.960002e-01	1.056454e+15	1.331460e+15	1.349055e+14	1.294101e+04	4.445475e+03	2.664211e+03	0	1.329130e-03
5.900000e+08	8.664095e+13	0.000000e+00	6.960002e-01	1.039391e+15	1.311645e+15	1.342425e+14	1.289861e+04	4.438293e+03	2.659907e+03	0	1.320838e-03
6.000000e+08	8.504349e+13	0.000000e+00	6.960002e-01	1.022786e+15	1.292345e+15	1.335841e+14	1.285689e+04	4.431214e+03	2.655665e+03	0	1.312670e-03
6.100000e+08	8.348896e+13	0.000000e+00	6.960002e-01	1.006621e+15	1.273541e+15	1.329304e+14	1.281583e+04	4.424235e+03	2.651482e+03	0	1.304622e-03
6.200000e+08	8.197580e+13	0.000000e+00	6.960002e-01	9.908802e+14	1.255215e+15	1.322813e+14	1.277541e+04	4.417355e+03	2.647359e+03	0	1.296692e-03
6.300000e+08	8.050251e+13	0.000000e+00	6.960002e-01	9.755486e+14	1.237350e+15	1.316368e+14	1.273562e+04	4.410570e+03	2.643292e+03	0	1.288877e-03
6.400000e+08	7.906764e+13	0.000000e+00	6.960002e-01	9.606112e+14	1.219930e+15	1.309968e+14	1.269645e+04	4.403878e+03	2.639282e+03	0	1.281174e-03
6.500000e+08	7.766983e+13	0.000000e+00	6.960002e-01	9.460543e+14	1.202939e+15	1.303614e+14	1.265788e+04	4.397278e+03	2.635327e+03	0	1.273579e-03
6.600000e+08	7.630776e+13	0.000000e+00	6.960002e-01	9.318644e+14	1.186363e+15	1.297304e+14	1.261988e+04	4.390767e+03	2.631424e+03	0	1.266090e-03
6.700000e+08	7.498020e+13	0.000000e+00	6.960002e-01	9.180287e+14	1.170188e+15	1.291038e+14	1.258245e+04	4.384343e+03	2.627575e+03	0	1.258705e-03
6.800000e+08	7.368594e+13	0.000000e+00	6.960002e-01	9.045351e+14	1.154399e+15	1.284817e+14	1.254558e+04	4.378004e+03	2.623776e+03	0	1.251421e-03
6.900000e+08	7.242385e+13	0.000000e+00	6.960002e-01	8.913719e+14	1.138985e+15	1.278639e+14	1.250924e+04	4.371749e+03	2.620026e+03	0	1.244235e-03
7.000000e+08	7.119282e+13	0.000000e+00	6.960002e-01	8.785279e+14	1.123931e+15	1.272504e+14	1.247343e+04	4.365574e+03	2.616326e+03	0	1.237145e-03
7.100000e+08	6.999182e+13	0.000000e+00	6.960002e-01	8.659925e+14	1.109228e+15	1.266413e+14	1.243814e+04	4.359479e+03	2.612673e+03	0	1.230148e-03
7.200000e+08	6.881984e+13	0.000000e+00	6.960002e-01	8.537554e+14	1.094862e+15	1.260364e+14	1.240335e+04	4.353462e+03	2.609067e+03	0	1.223244e-03
7.300000e+08	6.767592e+13	0.000000e+00	6.960002e-01	8.418068e+14	1.080824e+15	1.254357e+14	1.236904e+04	4.347520e+03	2.605506e+03	0	1.216428e-03
7.400000e+08	6.655914e+13	0.000000e+00	6.960002e-01	8.301374e+14	1.067103e+15	1.248392e+14	1.233521e+04	4.341653e+03	2.601990e+03	0	1.209700e-03
7.500000e+08	6.546862e+13	0.000000e+00	6.960002e-01	8.187380e+14	1.053688e+15	1.242469e+14	1.230185e+04	4.335859e+03	2.598517e+03	0	1.203057e-03
7.600000e+08	6.440352e+13	0.000000e+00	6.960002e-01	8.076002e+14	1.040570e+15	1.236587e+14	1.226895e+04	4.330136e+03	2.595087e+03	0	1.196497e-03
7.700000e+08	6.336302e+13	0.000000e+00	6.960002e-01	7.967155e+14	1.027740e+15	1.230746e+14	1.223649e+04	4.324482e+03	2.591699e+03	0	1.190018e-03
7.800000e+08	6.234635e+13	0.000000e+00	6.960002e-01	7.860760e+14	1.015189e+15	1.224946e+14	1.220447e+04	4.318897e+03	2.588352e+03	0	1.183619e-03
7.900000e+08	6.135275e+13	0.000000e+00	6.960002e-01	7.756741e+14	1.002908e+15	1.219185e+14	1.217287e+04	4.313378e+03	2.585044e+03	0	1.177298e-03
8.000000e+08	6.038152e+13	0.000000e+00	6.960002e-01	7.655025e+14	9.908894e+14	1.213465e+14	1.214169e+04	4.307924e+03	2.581776e+03	0	1.171053e-03
8.100000e+08	5.943195e+13	0.000000e+00	6.960002e-01	7.555540e+14	9.791247e+14	1.207785e+14	1.211092e+04	4.302535e+03	2.578546e+03	0	1.164881e-03
8.200000e+08	5.850340e+13	0.000000e+00	6.960002e-01	7.458220e+14	9.676066e+14	1.202143e+14	1.208054e+04	4.297208e+03	2.575354e+03	0	1.158783e-03
8.300000e+08	5.759521e+13	0.000000e+00	6.960002e-01	7.362998e+14	9.563277e+14	1.196541e+14	1.205056e+04	4.291943e+03	2.572198e+03	0	1.152755e-03
8.400000e+08	5.670679e+13	0.000000e+00	6.960002e-01	7.269813e+14	9.452810e+14	1.190978e+14	1.202095e+04	4.286737e+03	2.569079e+03	0	1.146798e-03
8.500000e+08	5.583753e+13	0.000000e+00	6.960002e-01	7.178604e+14	9.344598e+14	1.185452e+14	1.199172e+04	4.281591e+03	2.565994e+03	0	1.140908e-03
8.600000e+08	5.498688e+13	0.000000e+00	6.960002e-01	7.089313e+14	9.238575e+14	1.179965e+14	1.196286e+04	4.276503e+03	2.562945e+03	0	1.135084e-03
8.700000e+08	5.415428e+13	0.000000e+00	6.960002e-01	7.001884e+14	9.134679e+14	1.174516e+14	1.193435e+04	4.271471e+03	2.559929e+03	0	1.129326e-03
8.800000e+08	5.333922e+13	0.000000e+00	6.960002e-01	6.916263e+14	9.032849e+14	1.169104e+14	1.190619e+04	4.266494e+03	2.556947e+03	0	1.123632e-03
8.900000e+08	5.254118e+13	0.000000e+00	6.960002e-01	6.832399e+14	8.933026e+14	1.163729e+14	1.187838e+04	4.261572e+03	2.553997e+03	0	1.118000e-03
9.000000e+08	5.175967e+13	0.000000e+00	6.960002e-01	6.750241e+14	8.835156e+14	1.158392e+14	1.185090e+04	4.256704e+03	2.551079e+03	0	1.112429e-03
9.100000e+08	5.099424e+13	0.000000e+00	6.960002e-01	6.669742e+14	8.739183e+14	1.153091e+14	1.182375e+04	4.251887e+03	2.548193e+03	0	1.106918e-03
9.200000e+08	5.024441e+13	0.000000e+00	6.960002e-01	6.590854e+14	8.645055e+14	1.147826e+14	1.179692e+04	4.247123e+03	2.545337e+03	0	1.101466e-03
9.300000e+08	4.950977e+13	0.000000e+00	6.960002e-01	6.513533e+14	8.552722e+14	1.142597e+14	1.177041e+04	4.242408e+03	2.542512e+03	0	1.096071e-03
9.400000e+08	4.878988e+13	0.000000e+00	6.960002e-01	6.437737e+14	8.462136e+14	1.137404e+14	1.174421e+04	4.237743e+03	2.539716e+03	0	1.090733e-03
9.500000e+08	4.808434e+13	0.000000e+00	6.960002e-01	6.363423e+14	8.373249e+14	1.132246e+14	1.171831e+04	4.233127e+03	2.536949e+03	0	1.085449e-03
9.600000e+08	4.739275e+13	0.000000e+00	6.960002e-01	6.290550e+14	8.286016e+14	1.127124e+14	1.169271e+04	4.228558e+03	2.534211e+03	0	1.080220e-03
9.700000e+08	4.671474e+13	0.000000e+00	6.960002e-01	6.219081e+14	8.200393e+14	1.122036e+14	1.166740e+04	4.224036e+03	2.531501e+03	0	1.075044e-03
9.800000e+08	4.604995e+13	0.000000e+00	6.960002e-01	6.148978e+14	8.116339e+14	1.116983e+14	1.164238e+04	4.219560e+03	2.528819e+03	0	1.069920e-03
9.900000e+08	4.539801e+13	0.000000e+00	6.960002e-01	6.080204e+14	8.033811e+14	1.111964e+14	1.161764e+04	4.215129e+03	2.526163e+03	0	1.064847e-03
1.000000e+09	4.475859e+13	0.000000e+00	6.960002e-01	6.012724e+14	7.952772e+14	1.106980e+14	1.159317e+04	4.210743e+03	2.523534e+03	0	1.059824e-03
1.010000e+09	4.413136e+13	0.000000e+00	6.960002e-01	5.946505e+14	7.873182e+14	1.102029e+14	1.156898e+04	4.206400e+03	2.520931e+03	0	1.054850e-03
1.020000e+09	4.351599e+13	0.000000e+00	6.960002e-01	5.881514e+14	7.795004e+14	1.097112e+14	1.154505e+04	4.202099e+03	2.518354e+03	0	1.049924e-03
1.030000e+09	4.291219e+13	0.000000e+00	6.960002e-01	5.817720e+14	7.718204e+14	1.092228e+14	1.152138e+04	4.197841e+03	2.515802e+03	0	1.045046e-03
1.040000e+09	4.231964e+13	0.000000e+00	6.960002e-01	5.755090e+14	7.642746e+14	1.087377e+14	1.149797e+04	4.193624e+03	2.513275e+03	0	1.040213e-03
1.050000e+09	4.173807e+13	0.000000e+00	6.960002e-01	5.693597e+14	7.568597e+14	1.082559e+14	1.147481e+04	4.189447e+03	2.510772e+03	0	1.035426e-03
1.060000e+09	4.116719e+13	0.000000e+00	6.960002e-01	5.633211e+14	7.495724e+14	1.077773e+14	1.145189e+04	4.185311e+03	2.508293e+03	0	1.030684e-03
1.070000e+09	4.060674e+13	0.000000e+00	6.960002e-01	5.573905e+14	7.424097e+14	1.073019e+14	1.142922e+04	4.181213e+03	2.505837e+03	0	1.025985e-03
1.080000e+09	4.005645e+13	0.000000e+00	6.960002e-01	5.515652e+14	7.353684e+14	1.068298e+14	1.140679e+04	4.177154e+03	2.503404e+03	0	1.021330e-03
1.090000e+09	3.951607e+13	0.000000e+00	6.960002e-01	5.458425e+14	7.284457e+14	1.063608e+14	1.138458e+04	4.173133e+03	2.500995e+03	0	1.016716e-03
1.100000e+09	3.898536e+13	0.000000e+00	6.960002e-01	5.402200e+14	7.216387e+14	1.058950e+14	1.136261e+04	4.169149e+03	2.498607e+03	0	1.012144e-03
1.110000e+09	3.846407e+13	0.000000e+00	6.960002e-01	5.346952e+14	7.149447e+14	1.054323e+14	1.134087e+04	4.165202e+03	2.496241e+03	0	1.007612e-03
1.120000e+09	3.795198e+13	0.000000e+00	6.960002e-01	5.292658e+14	7.083609e+14	1.049727e+14	1.131934e+04	4.161291e+03	2.493897e+03	0	1.003121e-03
1.130000e+09	3.744886e+13	0.000000e+00	6.960002e-01	5.239295e+14	7.018848e+14	1.045162e+14	1.129804e+04	4.157415e+03	2.491575e+03	0	9.986683e-04
1.140000e+09	3.695450e+13	0.000000e+00	6.960002e-01	5.186840e+14	6.955139e+14	1.040627e+14	1.127694e+04	4.153575e+03	2.489273e+03	0	9.942544e-04
1.150000e+09	3.646869e+13	0.000000e+00	6.960002e-01	5.135272e+14	6.892456e+14	1.036123e+14	1.125606e+04	4.149768e+03	2.486992e+03	0	9.898783e-04
1.160000e+09	3.599123e+13	0.000000e+00	6.960002e-01	5.084570e+14	6.830778e+14	1.031648e+14	1.123539e+04	4.145995e+03	2.484731e+03	0	9.855393e-04
1.170000e+09	3.552191e+13	0.000000e+00	6.960002e-01	5.034713e+14	6.770080e+14	1.027204e+14	1.121492e+04	4.142256e+03	2.482489e+03	0	9.812368e-04
1.180000e+09	3.506055e+13	0.000000e+00	6.960002e-01	4.985683e+14	6.710340e+14	1.022789e+14	1.119464e+04	4.138549e+03	2.480268e+03	0	9.769702e-04
1.190000e+09	3.460696e+13	0.000000e+00	6.960002e-01	4.937460e+14	6.651537e+14	1.018403e+14	1.117457e+04	4.134874e+03	2.478066e+03	0	9.727388e-04
1.200000e+09	3.416097e+13	0.000000e+00	6.960002e-01	4.890026e+14	6.593650e+14	1.014046e+14	1.115469e+04	4.131231e+03	2.475882e+03	0	9.685420e-04
1.210000e+09	3.372239e+13	0.000000e+00	6.960002e-01	4.843362e+14	6.536658e+14	1.009719e+14	1.113500e+04	4.127620e+03	2.473718e+03	0	9.643793e-04
1.220000e+09	3.329107e+13	0.000000e+00	6.960002e-01	4.797452e+14	6.480542e+14	1.005420e+14	1.111550e+04	4.124039e+03	2.471572e+03	0	9.602500e-04
1.230000e+09	3.286682e+13	0.000000e+00	6.960002e-01	4.752278e+14	6.425281e+14	1.001149e+14	1.109618e+04	4.120488e+03	2.469444e+03	0	9.561535e-04
1.240000e+09	3.244950e+13	0.000000e+00	6.960002e-01	4.707823e+14	6.370859e+14	9.969068e+13	1.107704e+04	4.116967e+03	2.467333e+03	0	9.520894e-04
1.250000e+09	3.203895e+13	0.000000e+00	6.960002e-01	4.664072e+14	6.317256e+14	9.926925e+13	1.105808e+04	4.113475e+03	2.465241e+03	0	9.480571e-04
1.260000e+09	3.163501e+13	0.000000e+00	6.960002e-01	4.621010e+14	6.264455e+14	9.885060e+13	1.103930e+04	4.110012e+03	2.463166e+03	0	9.440559e-04
1.270000e+09	3.123755e+13	0.000000e+00	6.960002e-01	4.578620e+14	6.212438e+14	9.843470e+13	1.102069e+04	4.106578e+03	2.461107e+03	0	9.400855e-04
1.280000e+09	3.084641e+13	0.000000e+00	6.960002e-01	4.536889e+14	6.161189e+14	9.802154e+13	1.100224e+04	4.103172e+03	2.459066e+03	0	9.361453e-04
1.290000e+09	3.046147e+13	0.000000e+00	6.960002e-01	4.495803e+14	6.110692e+14	9.761110e+13	1.098397e+04	4.099793e+03	2.457041e+03	0	9.322348e-04
1.300000e+09	3.008258e+13	0.000000e+00	6.960002e-01	4.455346e+14	6.060931e+14	9.720335e+13	1.096586e+04	4.096442e+03	2.455033e+03	0	9.283535e-04
1.310000e+09	2.970961e+13	0.000000e+00	6.960002e-01	4.415507e+14	6.011891e+14	9.679827e+13	1.094792e+04	4.093117e+03	2.453040e+03	0	9.245010e-04
1.320000e+09	2.934244e+13	0.000000e+00	6.960002e-01	4.376271e+14	5.963556e+14	9.639584e+13	1.093013e+04	4.089819e+03	2.451064e+03	0	9.206767e-04
1.330000e+09	2.898095e+13	0.000000e+00	6.960002e-01	4.337626e+14	5.915912e+14	9.599605e+13	1.091251e+04	4.086547e+03	2.449103e+03	0	9.168802e-04
1.340000e+09	2.862500e+13	0.000000e+00	6.960002e-01	4.299560e+14	5.868946e+14	9.559887e+13	1.089503e+04	4.083301e+03	2.447157e+03	0	9.131110e-04
1.350000e+09	2.827450e+13	0.000000e+00	6.960002e-01	4.262060e+14	5.822642e+14	9.520428e+13	1.087771e+04	4.080080e+03	2.445227e+03	0	9.093687e-04
1.360000e+09	2.792931e+13	0.000000e+00	6.960002e-01	4.225115e+14	5.776988e+14	9.481226e+13	1.086054e+04	4.076884e+03	2.443311e+03	0	9.056529e-04
