#t		Qconv[W]	Ri[Rp]		R*[Rp]		Qc[W]		Qm[W]		Qr[W]		Tcmb[K]		Tl[K]		Tup[K]		RiFlag		Bs[T]
0.000000e+00	3.409569e+13	0.000000e+00	6.935485e-01	5.315411e+14	1.168481e+15	2.089134e+14	1.222135e+04	3.985235e+03	2.748845e+03	0	9.677726e-04
1.000000e+07	3.346496e+13	0.000000e+00	6.935485e-01	5.252606e+14	1.131191e+15	2.077559e+14	1.220296e+04	3.967010e+03	2.736274e+03	0	9.617679e-04
2.000000e+07	3.285916e+13	0.000000e+00	6.935485e-01	5.192195e+14	1.097117e+15	2.066070e+14	1.218478e+04	3.950039e+03	2.724568e+03	0	9.559290e-04
3.000000e+07	3.227627e+13	0.000000e+00	6.935485e-01	5.133989e+14	1.065868e+15	2.054667e+14	1.216682e+04	3.934200e+03	2.713643e+03	0	9.502429e-04
4.000000e+07	3.171454e+13	0.000000e+00	6.935485e-01	5.077816e+14	1.037112e+15	2.043349e+14	1.214905e+04	3.919384e+03	2.703424e+03	0	9.446979e-04
5.000000e+07	3.117237e+13	0.000000e+00	6.935485e-01	5.023528e+14	1.010564e+15	2.032116e+14	1.213148e+04	3.905497e+03	2.693845e+03	0	9.392837e-04
6.000000e+07	3.064835e+13	0.000000e+00	6.935485e-01	4.970989e+14	9.859816e+14	2.020966e+14	1.211409e+04	3.892454e+03	2.684848e+03	0	9.339907e-04
7.000000e+07	3.014122e+13	0.000000e+00	6.935485e-01	4.920078e+14	9.631546e+14	2.009900e+14	1.209689e+04	3.880182e+03	2.676383e+03	0	9.288105e-04
8.000000e+07	2.964984e+13	0.000000e+00	6.935485e-01	4.870686e+14	9.419003e+14	1.998916e+14	1.207986e+04	3.868613e+03	2.668404e+03	0	9.237355e-04
9.000000e+07	2.917318e+13	0.000000e+00	6.935485e-01	4.822717e+14	9.220601e+14	1.988013e+14	1.206300e+04	3.857689e+03	2.660869e+03	0	9.187586e-04
1.000000e+08	2.871031e+13	0.000000e+00	6.935485e-01	4.776079e+14	9.034951e+14	1.977191e+14	1.204631e+04	3.847356e+03	2.653742e+03	0	9.138736e-04
1.100000e+08	2.826038e+13	0.000000e+00	6.935485e-01	4.730694e+14	8.860835e+14	1.966450e+14	1.202978e+04	3.837568e+03	2.646990e+03	0	9.090746e-04
1.200000e+08	2.782263e+13	0.000000e+00	6.935485e-01	4.686488e+14	8.697177e+14	1.955788e+14	1.201341e+04	3.828280e+03	2.640584e+03	0	9.043563e-04
1.300000e+08	2.739636e+13	0.000000e+00	6.935485e-01	4.643393e+14	8.543028e+14	1.945205e+14	1.199719e+04	3.819455e+03	2.634497e+03	0	8.997140e-04
1.400000e+08	2.698093e+13	0.000000e+00	6.935485e-01	4.601349e+14	8.397547e+14	1.934701e+14	1.198111e+04	3.811057e+03	2.628704e+03	0	8.951431e-04
1.500000e+08	2.657576e+13	0.000000e+00	6.935485e-01	4.560300e+14	8.259984e+14	1.924274e+14	1.196518e+04	3.803055e+03	2.623185e+03	0	8.906397e-04
1.600000e+08	2.618029e+13	0.000000e+00	6.935485e-01	4.520194e+14	8.129670e+14	1.913924e+14	1.194940e+04	3.795419e+03	2.617918e+03	0	8.861998e-04
1.700000e+08	2.579404e+13	0.000000e+00	6.935485e-01	4.480983e+14	8.006007e+14	1.903651e+14	1.193375e+04	3.788123e+03	2.612885e+03	0	8.818201e-04
1.800000e+08	2.541656e+13	0.000000e+00	6.935485e-01	4.442624e+14	7.888458e+14	1.893453e+14	1.191824e+04	3.781144e+03	2.608071e+03	0	8.774972e-04
1.900000e+08	2.504742e+13	0.000000e+00	6.935485e-01	4.405077e+14	7.776542e+14	1.883330e+14	1.190286e+04	3.774458e+03	2.603460e+03	0	8.732283e-04
2.000000e+08	2.468622e+13	0.000000e+00	6.935485e-01	4.368304e+14	7.669822e+14	1.873282e+14	1.188761e+04	3.768047e+03	2.599038e+03	0	8.690105e-04
2.100000e+08	2.433262e+13	0.000000e+00	6.935485e-01	4.332271e+14	7.567907e+14	1.863308e+14	1.187249e+04	3.761892e+03	2.594792e+03	0	8.648414e-04
2.200000e+08	2.398627e+13	0.000000e+00	6.935485e-01	4.296945e+14	7.470440e+14	1.853407e+14	1.185749e+04	3.755975e+03	2.590711e+03	0	8.607183e-04
2.300000e+08	2.364686e+13	0.000000e+00	6.935485e-01	4.262296e+14	7.377099e+14	1.843579e+14	1.184261e+04	3.750281e+03	2.586784e+03	0	8.566392e-04
2.400000e+08	2.331410e+13	0.000000e+00	6.935485e-01	4.228297e+14	7.287592e+14	1.833823e+14	1.182785e+04	3.744796e+03	2.583000e+03	0	8.526020e-04
2.500000e+08	2.298771e+13	0.000000e+00	6.935485e-01	4.194921e+14	7.201650e+14	1.824138e+14	1.181322e+04	3.739507e+03	2.579352e+03	0	8.486047e-04
2.600000e+08	2.266745e+13	0.000000e+00	6.935485e-01	4.162144e+14	7.119030e+14	1.814524e+14	1.179869e+04	3.734401e+03	2.575830e+03	0	8.446454e-04
2.700000e+08	2.235308e+13	0.000000e+00	6.935485e-01	4.129943e+14	7.039511e+14	1.804980e+14	1.178428e+04	3.729467e+03	2.572427e+03	0	8.407224e-04
2.800000e+08	2.204438e+13	0.000000e+00	6.935485e-01	4.098297e+14	6.962888e+14	1.795506e+14	1.176998e+04	3.724695e+03	2.569136e+03	0	8.368342e-04
2.900000e+08	2.174112e+13	0.000000e+00	6.935485e-01	4.067186e+14	6.888975e+14	1.786102e+14	1.175579e+04	3.720075e+03	2.565949e+03	0	8.329792e-04
3.000000e+08	2.144313e+13	0.000000e+00	6.935485e-01	4.036591e+14	6.817601e+14	1.776765e+14	1.174171e+04	3.715598e+03	2.562861e+03	0	8.291560e-04
3.100000e+08	2.115022e+13	0.000000e+00	6.935485e-01	4.006494e+14	6.748608e+14	1.767497e+14	1.172773e+04	3.711256e+03	2.559865e+03	0	8.253632e-04
3.200000e+08	2.086221e+13	0.000000e+00	6.935485e-01	3.976879e+14	6.681852e+14	1.758296e+14	1.171386e+04	3.707040e+03	2.556958e+03	0	8.215997e-04
3.300000e+08	2.057893e+13	0.000000e+00	6.935485e-01	3.947729e+14	6.617198e+14	1.749163e+14	1.170009e+04	3.702944e+03	2.554132e+03	0	8.178641e-04
3.400000e+08	2.030024e+13	0.000000e+00	6.935485e-01	3.919030e+14	6.554523e+14	1.740095e+14	1.168642e+04	3.698961e+03	2.551385e+03	0	8.141553e-04
3.500000e+08	2.002599e+13	0.000000e+00	6.935485e-01	3.890768e+14	6.493715e+14	1.731093e+14	1.167284e+04	3.695085e+03	2.548712e+03	0	8.104723e-04
3.600000e+08	1.975604e+13	0.000000e+00	6.935485e-01	3.862929e+14	6.434666e+14	1.722157e+14	1.165937e+04	3.691310e+03	2.546108e+03	0	8.068140e-04
3.700000e+08	1.949025e+13	0.000000e+00	6.935485e-01	3.835501e+14	6.377280e+14	1.713285e+14	1.164599e+04	3.687630e+03	2.543570e+03	0	8.031795e-04
3.800000e+08	1.922851e+13	0.000000e+00	6.935485e-01	3.808471e+14	6.321467e+14	1.704478e+14	1.163271e+04	3.684041e+03	2.541094e+03	0	7.995679e-04
3.900000e+08	1.897069e+13	0.000000e+00	6.935485e-01	3.781829e+14	6.267141e+14	1.695734e+14	1.161952e+04	3.680538e+03	2.538678e+03	0	7.959783e-04
4.000000e+08	1.871669e+13	0.000000e+00	6.935485e-01	3.755563e+14	6.214225e+14	1.687053e+14	1.160643e+04	3.677116e+03	2.536317e+03	0	7.924098e-04
4.100000e+08	1.846639e+13	0.000000e+00	6.935485e-01	3.729663e+14	6.162647e+14	1.678435e+14	1.159342e+04	3.673771e+03	2.534010e+03	0	7.888616e-04
4.200000e+08	1.821970e+13	0.000000e+00	6.935485e-01	3.704120e+14	6.112339e+14	1.669879e+14	1.158050e+04	3.670499e+03	2.531753e+03	0	7.853330e-04
4.300000e+08	1.797651e+13	0.000000e+00	6.935485e-01	3.678923e+14	6.063237e+14	1.661384e+14	1.156767e+04	3.667297e+03	2.529544e+03	0	7.818234e-04
4.400000e+08	1.773674e+13	0.000000e+00	6.935485e-01	3.654065e+14	6.015283e+14	1.652951e+14	1.155493e+04	3.664161e+03	2.527381e+03	0	7.783318e-04
4.500000e+08	1.750030e+13	0.000000e+00	6.935485e-01	3.629536e+14	5.968422e+14	1.644578e+14	1.154228e+04	3.661088e+03	2.525262e+03	0	7.748578e-04
4.600000e+08	1.726710e+13	0.000000e+00	6.935485e-01	3.605328e+14	5.922603e+14	1.636266e+14	1.152971e+04	3.658075e+03	2.523183e+03	0	7.714006e-04
4.700000e+08	1.703707e+13	0.000000e+00	6.935485e-01	3.581433e+14	5.877778e+14	1.628013e+14	1.151722e+04	3.655119e+03	2.521144e+03	0	7.679597e-04
4.800000e+08	1.681012e+13	0.000000e+00	6.935485e-01	3.557845e+14	5.833901e+14	1.619819e+14	1.150481e+04	3.652217e+03	2.519143e+03	0	7.645345e-04
4.900000e+08	1.658618e+13	0.000000e+00	6.935485e-01	3.534555e+14	5.790931e+14	1.611684e+14	1.149249e+04	3.649368e+03	2.517178e+03	0	7.611243e-04
5.000000e+08	1.636518e+13	0.000000e+00	6.935485e-01	3.511557e+14	5.748828e+14	1.603607e+14	1.148025e+04	3.646568e+03	2.515246e+03	0	7.577287e-04
5.100000e+08	1.614705e+13	0.000000e+00	6.935485e-01	3.488844e+14	5.707555e+14	1.595587e+14	1.146809e+04	3.643815e+03	2.513348e+03	0	7.543471e-04
5.200000e+08	1.593173e+13	0.000000e+00	6.935485e-01	3.466410e+14	5.667077e+14	1.587625e+14	1.145600e+04	3.641108e+03	2.511480e+03	0	7.509790e-04
5.300000e+08	1.571915e+13	0.000000e+00	6.935485e-01	3.444249e+14	5.627362e+14	1.579720e+14	1.144399e+04	3.638444e+03	2.509643e+03	0	7.476239e-04
5.400000e+08	1.550926e+13	0.000000e+00	6.935485e-01	3.422355e+14	5.588378e+14	1.571871e+14	1.143206e+04	3.635822e+03	2.507834e+03	0	7.442814e-04
5.500000e+08	1.530199e+13	0.000000e+00	6.935485e-01	3.400722e+14	5.550097e+14	1.564078e+14	1.142021e+04	3.633239e+03	2.506053e+03	0	7.409509e-04
5.600000e+08	1.509728e+13	0.000000e+00	6.935485e-01	3.379345e+14	5.512491e+14	1.556340e+14	1.140843e+04	3.630694e+03	2.504298e+03	0	7.376320e-04
5.700000e+08	1.489510e+13	0.000000e+00	6.935485e-01	3.358219e+14	5.475535e+14	1.548657e+14	1.139672e+04	3.628186e+03	2.502568e+03	0	7.343244e-04
5.800000e+08	1.469537e+13	0.000000e+00	6.935485e-01	3.337338e+14	5.439203e+14	1.541029e+14	1.138509e+04	3.625713e+03	2.500862e+03	0	7.310275e-04
5.900000e+08	1.449806e+13	0.000000e+00	6.935485e-01	3.316697e+14	5.403474e+14	1.533455e+14	1.137353e+04	3.623274e+03	2.499179e+03	0	7.277410e-04
6.000000e+08	1.430312e+13	0.000000e+00	6.935485e-01	3.296292e+14	5.368326e+14	1.525934e+14	1.136204e+04	3.620867e+03	2.497519e+03	0	7.244644e-04
6.100000e+08	1.411049e+13	0.000000e+00	6.935485e-01	3.276118e+14	5.333737e+14	1.518467e+14	1.135062e+04	3.618491e+03	2.495880e+03	0	7.211974e-04
6.200000e+08	1.392013e+13	0.000000e+00	6.935485e-01	3.256172e+14	5.299689e+14	1.511052e+14	1.133927e+04	3.616145e+03	2.494262e+03	0	7.179396e-04
6.300000e+08	1.373199e+13	0.000000e+00	6.935485e-01	3.236447e+14	5.266163e+14	1.503690e+14	1.132799e+04	3.613828e+03	2.492664e+03	0	7.146905e-04
6.400000e+08	1.354605e+13	0.000000e+00	6.935485e-01	3.216941e+14	5.233141e+14	1.496380e+14	1.131678e+04	3.611538e+03	2.491084e+03	0	7.114500e-04
6.500000e+08	1.336225e+13	0.000000e+00	6.935485e-01	3.197649e+14	5.200608e+14	1.489121e+14	1.130564e+04	3.609275e+03	2.489524e+03	0	7.082175e-04
6.600000e+08	1.318055e+13	0.000000e+00	6.935485e-01	3.178568e+14	5.168547e+14	1.481913e+14	1.129456e+04	3.607038e+03	2.487981e+03	0	7.049927e-04
6.700000e+08	1.300091e+13	0.000000e+00	6.935485e-01	3.159693e+14	5.136944e+14	1.474756e+14	1.128355e+04	3.604826e+03	2.486455e+03	0	7.017754e-04
6.800000e+08	1.282331e+13	0.000000e+00	6.935485e-01	3.141022e+14	5.105784e+14	1.467649e+14	1.127260e+04	3.602637e+03	2.484945e+03	0	6.985650e-04
6.900000e+08	1.264769e+13	0.000000e+00	6.935485e-01	3.122549e+14	5.075054e+14	1.460592e+14	1.126172e+04	3.600472e+03	2.483452e+03	0	6.953614e-04
7.000000e+08	1.247404e+13	0.000000e+00	6.935485e-01	3.104273e+14	5.044741e+14	1.453585e+14	1.125090e+04	3.598329e+03	2.481974e+03	0	6.921642e-04
7.100000e+08	1.230230e+13	0.000000e+00	6.935485e-01	3.086189e+14	5.014833e+14	1.446626e+14	1.124014e+04	3.596208e+03	2.480511e+03	0	6.889731e-04
7.200000e+08	1.213245e+13	0.000000e+00	6.935485e-01	3.068295e+14	4.985318e+14	1.439716e+14	1.122945e+04	3.594108e+03	2.479062e+03	0	6.857877e-04
7.300000e+08	1.196446e+13	0.000000e+00	6.935485e-01	3.050587e+14	4.956186e+14	1.432855e+14	1.121882e+04	3.592028e+03	2.477628e+03	0	6.826077e-04
7.400000e+08	1.179829e+13	0.000000e+00	6.935485e-01	3.033062e+14	4.927425e+14	1.426041e+14	1.120825e+04	3.589968e+03	2.476206e+03	0	6.794329e-04
7.500000e+08	1.163392e+13	0.000000e+00	6.935485e-01	3.015716e+14	4.899026e+14	1.419275e+14	1.119774e+04	3.587927e+03	2.474799e+03	0	6.762628e-04
7.600000e+08	1.147131e+13	0.000000e+00	6.935485e-01	2.998548e+14	4.870978e+14	1.412556e+14	1.118730e+04	3.585904e+03	2.473403e+03	0	6.730973e-04
7.700000e+08	1.131044e+13	0.000000e+00	6.935485e-01	2.981555e+14	4.843274e+14	1.405884e+14	1.117691e+04	3.583900e+03	2.472021e+03	0	6.699360e-04
7.800000e+08	1.115127e+13	0.000000e+00	6.935485e-01	2.964732e+14	4.815904e+14	1.399258e+14	1.116658e+04	3.581912e+03	2.470650e+03	0	6.667785e-04
7.900000e+08	1.099378e+13	0.000000e+00	6.935485e-01	2.948079e+14	4.788859e+14	1.392678e+14	1.115630e+04	3.579942e+03	2.469291e+03	0	6.636247e-04
8.000000e+08	1.083794e+13	0.000000e+00	6.935485e-01	2.931591e+14	4.762131e+14	1.386144e+14	1.114609e+04	3.577988e+03	2.467943e+03	0	6.604741e-04
8.100000e+08	1.068373e+13	0.000000e+00	6.935485e-01	2.915267e+14	4.735714e+14	1.379655e+14	1.113593e+04	3.576049e+03	2.466606e+03	0	6.573266e-04
8.200000e+08	1.053112e+13	0.000000e+00	6.935485e-01	2.899104e+14	4.709599e+14	1.373211e+14	1.112583e+04	3.574127e+03	2.465280e+03	0	6.541817e-04
8.300000e+08	1.038009e+13	0.000000e+00	6.935485e-01	2.883100e+14	4.683779e+14	1.366812e+14	1.111578e+04	3.572219e+03	2.463964e+03	0	6.510393e-04
8.400000e+08	1.023060e+13	0.000000e+00	6.935485e-01	2.867252e+14	4.658248e+14	1.360456e+14	1.110579e+04	3.570327e+03	2.462659e+03	0	6.478989e-04
8.500000e+08	1.008265e+13	0.000000e+00	6.935485e-01	2.851558e+14	4.632998e+14	1.354145e+14	1.109586e+04	3.568448e+03	2.461363e+03	0	6.447604e-04
8.600000e+08	9.936194e+12	0.000000e+00	6.935485e-01	2.836015e+14	4.608025e+14	1.347877e+14	1.108598e+04	3.566584e+03	2.460077e+03	0	6.416234e-04
8.700000e+08	9.791222e+12	0.000000e+00	6.935485e-01	2.820622e+14	4.583321e+14	1.341652e+14	1.107615e+04	3.564733e+03	2.458801e+03	0	6.384876e-04
8.800000e+08	9.647710e+12	0.000000e+00	6.935485e-01	2.805375e+14	4.558881e+14	1.335470e+14	1.106638e+04	3.562896e+03	2.457533e+03	0	6.353527e-04
8.900000e+08	9.505635e+12	0.000000e+00	6.935485e-01	2.790274e+14	4.534699e+14	1.329331e+14	1.105666e+04	3.561071e+03	2.456275e+03	0	6.322185e-04
9.000000e+08	9.364975e+12	0.000000e+00	6.935485e-01	2.775315e+14	4.510770e+14	1.323233e+14	1.104699e+04	3.559259e+03	2.455025e+03	0	6.290846e-04
9.100000e+08	9.225712e+12	0.000000e+00	6.935485e-01	2.760498e+14	4.487089e+14	1.317178e+14	1.103737e+04	3.557460e+03	2.453784e+03	0	6.259507e-04
9.200000e+08	9.087823e+12	0.000000e+00	6.935485e-01	2.745819e+14	4.463651e+14	1.311164e+14	1.102780e+04	3.555673e+03	2.452551e+03	0	6.228165e-04
9.300000e+08	8.951290e+12	0.000000e+00	6.935485e-01	2.731277e+14	4.440451e+14	1.305191e+14	1.101829e+04	3.553897e+03	2.451326e+03	0	6.196817e-04
9.400000e+08	8.816093e+12	0.000000e+00	6.935485e-01	2.716870e+14	4.417484e+14	1.299259e+14	1.100882e+04	3.552133e+03	2.450110e+03	0	6.165461e-04
9.500000e+08	8.682212e+12	0.000000e+00	6.935485e-01	2.702596e+14	4.394745e+14	1.293367e+14	1.099941e+04	3.550381e+03	2.448901e+03	0	6.134092e-04
9.600000e+08	8.549630e+12	0.000000e+00	6.935485e-01	2.688454e+14	4.372232e+14	1.287516e+14	1.099004e+04	3.548639e+03	2.447700e+03	0	6.102708e-04
9.700000e+08	8.418327e+12	0.000000e+00	6.935485e-01	2.674440e+14	4.349938e+14	1.281704e+14	1.098073e+04	3.546909e+03	2.446506e+03	0	6.071306e-04
9.800000e+08	8.288287e+12	0.000000e+00	6.935485e-01	2.660555e+14	4.327861e+14	1.275932e+14	1.097146e+04	3.545189e+03	2.445320e+03	0	6.039882e-04
9.900000e+08	8.159492e+12	0.000000e+00	6.935485e-01	2.646795e+14	4.305996e+14	1.270199e+14	1.096224e+04	3.543479e+03	2.444141e+03	0	6.008433e-04
1.000000e+09	8.031924e+12	0.000000e+00	6.935485e-01	2.633160e+14	4.284340e+14	1.264505e+14	1.095306e+04	3.541780e+03	2.442968e+03	0	5.976955e-04
1.010000e+09	7.905566e+12	0.000000e+00	6.935485e-01	2.619647e+14	4.262889e+14	1.258850e+14	1.094394e+04	3.540091e+03	2.441803e+03	0	5.945447e-04
1.020000e+09	7.780403e+12	0.000000e+00	6.935485e-01	2.606255e+14	4.241639e+14	1.253233e+14	1.093486e+04	3.538412e+03	2.440645e+03	0	5.913903e-04
1.030000e+09	7.656418e+12	0.000000e+00	6.935485e-01	2.592983e+14	4.220587e+14	1.247654e+14	1.092583e+04	3.536742e+03	2.439493e+03	0	5.882321e-04
1.040000e+09	7.533595e+12	0.000000e+00	6.935485e-01	2.579828e+14	4.199730e+14	1.242113e+14	1.091684e+04	3.535082e+03	2.438348e+03	0	5.850697e-04
1.050000e+09	7.411918e+12	0.000000e+00	6.935485e-01	2.566790e+14	4.179064e+14	1.236609e+14	1.090790e+04	3.533431e+03	2.437209e+03	0	5.819027e-04
1.060000e+09	7.291373e+12	0.000000e+00	6.935485e-01	2.553866e+14	4.158587e+14	1.231142e+14	1.089900e+04	3.531789e+03	2.436077e+03	0	5.787308e-04
1.070000e+09	7.171945e+12	0.000000e+00	6.935485e-01	2.541056e+14	4.138294e+14	1.225713e+14	1.089015e+04	3.530156e+03	2.434951e+03	0	5.755536e-04
1.080000e+09	7.053618e+12	0.000000e+00	6.935485e-01	2.528357e+14	4.118184e+14	1.220319e+14	1.088135e+04	3.528533e+03	2.433831e+03	0	5.723708e-04
1.090000e+09	6.936379e+12	0.000000e+00	6.935485e-01	2.515769e+14	4.098253e+14	1.214962e+14	1.087258e+04	3.526917e+03	2.432717e+03	0	5.691819e-04
1.100000e+09	6.820212e+12	0.000000e+00	6.935485e-01	2.503290e+14	4.078499e+14	1.209641e+14	1.086386e+04	3.525311e+03	2.431609e+03	0	5.659866e-04
1.110000e+09	6.705106e+12	0.000000e+00	6.935485e-01	2.490918e+14	4.058919e+14	1.204356e+14	1.085519e+04	3.523713e+03	2.430506e+03	0	5.627844e-04
1.120000e+09	6.591044e+12	0.000000e+00	6.935485e-01	2.478652e+14	4.039510e+14	1.199106e+14	1.084655e+04	3.522123e+03	2.429410e+03	0	5.595749e-04
1.130000e+09	6.478015e+12	0.000000e+00	6.935485e-01	2.466492e+14	4.020269e+14	1.193891e+14	1.083796e+04	3.520541e+03	2.428319e+03	0	5.563578e-04
1.140000e+09	6.366005e+12	0.000000e+00	6.935485e-01	2.454435e+14	4.001195e+14	1.188711e+14	1.082941e+04	3.518968e+03	2.427233e+03	0	5.531325e-04
1.150000e+09	6.255002e+12	0.000000e+00	6.935485e-01	2.442480e+14	3.982284e+14	1.183565e+14	1.082091e+04	3.517402e+03	2.426154e+03	0	5.498986e-04
1.160000e+09	6.144991e+12	0.000000e+00	6.935485e-01	2.430626e+14	3.963535e+14	1.178454e+14	1.081244e+04	3.515844e+03	2.425079e+03	0	5.466558e-04
1.170000e+09	6.035962e+12	0.000000e+00	6.935485e-01	2.418873e+14	3.944945e+14	1.173377e+14	1.080402e+04	3.514294e+03	2.424010e+03	0	5.434034e-04
1.180000e+09	5.927902e+12	0.000000e+00	6.935485e-01	2.407217e+14	3.926511e+14	1.168334e+14	1.079563e+04	3.512752e+03	2.422946e+03	0	5.401410e-04
1.190000e+09	5.820798e+12	0.000000e+00	6.935485e-01	2.395660e+14	3.908232e+14	1.163324e+14	1.078729e+04	3.511217e+03	2.421887e+03	0	5.368682e-04
1.200000e+09	5.714639e+12	0.000000e+00	6.935485e-01	2.384198e+14	3.890106e+14	1.158347e+14	1.077899e+04	3.509689e+03	2.420833e+03	0	5.335844e-04
1.210000e+09	5.609414e+12	0.000000e+00	6.935485e-01	2.372831e+14	3.872130e+14	1.153404e+14	1.077072e+04	3.508169e+03	2.419785e+03	0	5.302890e-04
1.220000e+09	5.505110e+12	0.000000e+00	6.935485e-01	2.361559e+14	3.854302e+14	1.148493e+14	1.076250e+04	3.506656e+03	2.418741e+03	0	5.269816e-04
1.230000e+09	5.401717e+12	0.000000e+00	6.935485e-01	2.350379e+14	3.836620e+14	1.143615e+14	1.075431e+04	3.505150e+03	2.417702e+03	0	5.236616e-04
1.240000e+09	5.299223e+12	0.000000e+00	6.935485e-01	2.339291e+14	3.819083e+14	1.138769e+14	1.074616e+04	3.503651e+03	2.416668e+03	0	5.203284e-04
1.250000e+09	5.197617e+12	0.000000e+00	6.935485e-01	2.328293e+14	3.801688e+14	1.133955e+14	1.073806e+04	3.502159e+03	2.415639e+03	0	5.169814e-04
1.260000e+09	5.096890e+12	0.000000e+00	6.935485e-01	2.317385e+14	3.784434e+14	1.129173e+14	1.072999e+04	3.500673e+03	2.414615e+03	0	5.136200e-04
1.270000e+09	4.997030e+12	0.000000e+00	6.935485e-01	2.306565e+14	3.767319e+14	1.124422e+14	1.072195e+04	3.499195e+03	2.413595e+03	0	5.102435e-04
1.280000e+09	4.898027e+12	0.000000e+00	6.935485e-01	2.295833e+14	3.750340e+14	1.119702e+14	1.071396e+04	3.497723e+03	2.412580e+03	0	5.068513e-04
1.290000e+09	4.799870e+12	0.000000e+00	6.935485e-01	2.285188e+14	3.733497e+14	1.115014e+14	1.070600e+04	3.496258e+03	2.411569e+03	0	5.034426e-04
1.300000e+09	4.702551e+12	0.000000e+00	6.935485e-01	2.274628e+14	3.716787e+14	1.110356e+14	1.069808e+04	3.494799e+03	2.410563e+03	0	5.000169e-04
1.310000e+09	4.606058e+12	0.000000e+00	6.935485e-01	2.264152e+14	3.700209e+14	1.105729e+14	1.069019e+04	3.493347e+03	2.409561e+03	0	4.965732e-04
1.320000e+09	4.510382e+12	0.000000e+00	6.935485e-01	2.253760e+14	3.683761e+14	1.101132e+14	1.068234e+04	3.491901e+03	2.408564e+03	0	4.931109e-04
1.330000e+09	4.415514e+12	0.000000e+00	6.935485e-01	2.243450e+14	3.667442e+14	1.096565e+14	1.067453e+04	3.490462e+03	2.407571e+03	0	4.896291e-04
1.340000e+09	4.321444e+12	0.000000e+00	6.935485e-01	2.233222e+14	3.651250e+14	1.092028e+14	1.066675e+04	3.489029e+03	2.406583e+03	0	4.861271e-04
1.350000e+09	4.228163e+12	0.000000e+00	6.935485e-01	2.223075e+14	3.635183e+14	1.087521e+14	1.065901e+04	3.487602e+03	2.405598e+03	0	4.826038e-04
1.360000e+09	4.135662e+12	0.000000e+00	6.935485e-01	2.213007e+14	3.619241e+14	1.083043e+14	1.065131e+04	3.486181e+03	2.404618e+03	0	4.790585e-04
