#t		Qconv[W]	Ri[Rp]		R*[Rp]		Qc[W]		Qm[W]		Qr[W]		Tcmb[K]		Tl[K]		Tup[K]		RiFlag		Bs[T]
0.000000e+00	3.411771e+13	0.000000e+00	6.935483e-01	5.423552e+14	1.161804e+15	2.139431e+14	1.240418e+04	4.017229e+03	2.762442e+03	0	9.673453e-04
1.000000e+07	3.349494e+13	0.000000e+00	6.935483e-01	5.362144e+14	1.127325e+15	2.127577e+14	1.238600e+04	4.000323e+03	2.750817e+03	0	9.614233e-04
2.000000e+07	3.289552e+13	0.000000e+00	6.935483e-01	5.302952e+14	1.095676e+15	2.115812e+14	1.236803e+04	3.984536e+03	2.739961e+03	0	9.556536e-04
3.000000e+07	3.231765e+13	0.000000e+00	6.935483e-01	5.245808e+14	1.066528e+15	2.104134e+14	1.235026e+04	3.969761e+03	2.729801e+03	0	9.500246e-04
4.000000e+07	3.175974e+13	0.000000e+00	6.935483e-01	5.190560e+14	1.039599e+15	2.092544e+14	1.233267e+04	3.955904e+03	2.720273e+03	0	9.445259e-04
5.000000e+07	3.122034e+13	0.000000e+00	6.935483e-01	5.137074e+14	1.014646e+15	2.081040e+14	1.231527e+04	3.942884e+03	2.711319e+03	0	9.391482e-04
6.000000e+07	3.069819e+13	0.000000e+00	6.935483e-01	5.085229e+14	9.914586e+14	2.069622e+14	1.229805e+04	3.930627e+03	2.702891e+03	0	9.338830e-04
7.000000e+07	3.019211e+13	0.000000e+00	6.935483e-01	5.034917e+14	9.698558e+14	2.058289e+14	1.228100e+04	3.919069e+03	2.694943e+03	0	9.287227e-04
8.000000e+07	2.970107e+13	0.000000e+00	6.935483e-01	4.986039e+14	9.496785e+14	2.047040e+14	1.226412e+04	3.908150e+03	2.687435e+03	0	9.236603e-04
9.000000e+07	2.922413e+13	0.000000e+00	6.935483e-01	4.938505e+14	9.307877e+14	2.035875e+14	1.224741e+04	3.897819e+03	2.680330e+03	0	9.186895e-04
1.000000e+08	2.876041e+13	0.000000e+00	6.935483e-01	4.892235e+14	9.130613e+14	2.024793e+14	1.223085e+04	3.888028e+03	2.673598e+03	0	9.138045e-04
1.100000e+08	2.830916e+13	0.000000e+00	6.935483e-01	4.847155e+14	8.963917e+14	2.013793e+14	1.221445e+04	3.878735e+03	2.667207e+03	0	9.090000e-04
1.200000e+08	2.786964e+13	0.000000e+00	6.935483e-01	4.803199e+14	8.806835e+14	2.002875e+14	1.219820e+04	3.869902e+03	2.661133e+03	0	9.042712e-04
1.300000e+08	2.744121e+13	0.000000e+00	6.935483e-01	4.760304e+14	8.658521e+14	1.992037e+14	1.218209e+04	3.861494e+03	2.655352e+03	0	8.996135e-04
1.400000e+08	2.702327e+13	0.000000e+00	6.935483e-01	4.718414e+14	8.518222e+14	1.981280e+14	1.216613e+04	3.853480e+03	2.649841e+03	0	8.950230e-04
1.500000e+08	2.661527e+13	0.000000e+00	6.935483e-01	4.677477e+14	8.385265e+14	1.970602e+14	1.215031e+04	3.845830e+03	2.644581e+03	0	8.904958e-04
1.600000e+08	2.621672e+13	0.000000e+00	6.935483e-01	4.637446e+14	8.259048e+14	1.960003e+14	1.213463e+04	3.838520e+03	2.639554e+03	0	8.860285e-04
1.700000e+08	2.582713e+13	0.000000e+00	6.935483e-01	4.598277e+14	8.139030e+14	1.949482e+14	1.211908e+04	3.831525e+03	2.634743e+03	0	8.816177e-04
1.800000e+08	2.544609e+13	0.000000e+00	6.935483e-01	4.559929e+14	8.024724e+14	1.939039e+14	1.210366e+04	3.824823e+03	2.630135e+03	0	8.772606e-04
1.900000e+08	2.507320e+13	0.000000e+00	6.935483e-01	4.522364e+14	7.915693e+14	1.928673e+14	1.208837e+04	3.818394e+03	2.625714e+03	0	8.729543e-04
2.000000e+08	2.470808e+13	0.000000e+00	6.935483e-01	4.485548e+14	7.811539e+14	1.918383e+14	1.207320e+04	3.812221e+03	2.621469e+03	0	8.686961e-04
2.100000e+08	2.435039e+13	0.000000e+00	6.935483e-01	4.449447e+14	7.711903e+14	1.908168e+14	1.205816e+04	3.806285e+03	2.617388e+03	0	8.644838e-04
2.200000e+08	2.399981e+13	0.000000e+00	6.935483e-01	4.414033e+14	7.616459e+14	1.898029e+14	1.204324e+04	3.800573e+03	2.613459e+03	0	8.603151e-04
2.300000e+08	2.365606e+13	0.000000e+00	6.935483e-01	4.379275e+14	7.524911e+14	1.887964e+14	1.202844e+04	3.795069e+03	2.609675e+03	0	8.561878e-04
2.400000e+08	2.331884e+13	0.000000e+00	6.935483e-01	4.345150e+14	7.436989e+14	1.877973e+14	1.201375e+04	3.789760e+03	2.606024e+03	0	8.520999e-04
2.500000e+08	2.298790e+13	0.000000e+00	6.935483e-01	4.311631e+14	7.352445e+14	1.868055e+14	1.199918e+04	3.784635e+03	2.602500e+03	0	8.480497e-04
2.600000e+08	2.266300e+13	0.000000e+00	6.935483e-01	4.278695e+14	7.271056e+14	1.858209e+14	1.198472e+04	3.779681e+03	2.599093e+03	0	8.440354e-04
2.700000e+08	2.234390e+13	0.000000e+00	6.935483e-01	4.246322e+14	7.192615e+14	1.848436e+14	1.197037e+04	3.774890e+03	2.595798e+03	0	8.400554e-04
2.800000e+08	2.203041e+13	0.000000e+00	6.935483e-01	4.214491e+14	7.116932e+14	1.838734e+14	1.195613e+04	3.770250e+03	2.592608e+03	0	8.361081e-04
2.900000e+08	2.172231e+13	0.000000e+00	6.935483e-01	4.183183e+14	7.043835e+14	1.829103e+14	1.194199e+04	3.765753e+03	2.589515e+03	0	8.321921e-04
3.000000e+08	2.141942e+13	0.000000e+00	6.935483e-01	4.152379e+14	6.973163e+14	1.819542e+14	1.192796e+04	3.761391e+03	2.586516e+03	0	8.283060e-04
3.100000e+08	2.112156e+13	0.000000e+00	6.935483e-01	4.122064e+14	6.904769e+14	1.810051e+14	1.191404e+04	3.757155e+03	2.583603e+03	0	8.244485e-04
3.200000e+08	2.082856e+13	0.000000e+00	6.935483e-01	4.092221e+14	6.838518e+14	1.800628e+14	1.190021e+04	3.753040e+03	2.580773e+03	0	8.206185e-04
3.300000e+08	2.054026e+13	0.000000e+00	6.935483e-01	4.062835e+14	6.774285e+14	1.791275e+14	1.188648e+04	3.749038e+03	2.578021e+03	0	8.168147e-04
3.400000e+08	2.025652e+13	0.000000e+00	6.935483e-01	4.033891e+14	6.711954e+14	1.781989e+14	1.187286e+04	3.745142e+03	2.575342e+03	0	8.130362e-04
3.500000e+08	1.997719e+13	0.000000e+00	6.935483e-01	4.005378e+14	6.651418e+14	1.772770e+14	1.185933e+04	3.741348e+03	2.572733e+03	0	8.092817e-04
3.600000e+08	1.970214e+13	0.000000e+00	6.935483e-01	3.977280e+14	6.592577e+14	1.763619e+14	1.184589e+04	3.737649e+03	2.570190e+03	0	8.055504e-04
3.700000e+08	1.943125e+13	0.000000e+00	6.935483e-01	3.949588e+14	6.535340e+14	1.754533e+14	1.183255e+04	3.734041e+03	2.567709e+03	0	8.018414e-04
3.800000e+08	1.916438e+13	0.000000e+00	6.935483e-01	3.922288e+14	6.479621e+14	1.745514e+14	1.181930e+04	3.730519e+03	2.565287e+03	0	7.981536e-04
3.900000e+08	1.890143e+13	0.000000e+00	6.935483e-01	3.895370e+14	6.425342e+14	1.736559e+14	1.180614e+04	3.727078e+03	2.562920e+03	0	7.944864e-04
4.000000e+08	1.864229e+13	0.000000e+00	6.935483e-01	3.868824e+14	6.372427e+14	1.727669e+14	1.179308e+04	3.723714e+03	2.560607e+03	0	7.908388e-04
4.100000e+08	1.838684e+13	0.000000e+00	6.935483e-01	3.842639e+14	6.320808e+14	1.718844e+14	1.178010e+04	3.720424e+03	2.558345e+03	0	7.872101e-04
4.200000e+08	1.813501e+13	0.000000e+00	6.935483e-01	3.816807e+14	6.270421e+14	1.710082e+14	1.176721e+04	3.717203e+03	2.556130e+03	0	7.835995e-04
4.300000e+08	1.788668e+13	0.000000e+00	6.935483e-01	3.791317e+14	6.221206e+14	1.701383e+14	1.175440e+04	3.714049e+03	2.553961e+03	0	7.800064e-04
4.400000e+08	1.764177e+13	0.000000e+00	6.935483e-01	3.766163e+14	6.173108e+14	1.692746e+14	1.174169e+04	3.710958e+03	2.551836e+03	0	7.764300e-04
4.500000e+08	1.740019e+13	0.000000e+00	6.935483e-01	3.741334e+14	6.126073e+14	1.684172e+14	1.172905e+04	3.707927e+03	2.549751e+03	0	7.728696e-04
4.600000e+08	1.716186e+13	0.000000e+00	6.935483e-01	3.716824e+14	6.080053e+14	1.675659e+14	1.171650e+04	3.704953e+03	2.547707e+03	0	7.693248e-04
4.700000e+08	1.692671e+13	0.000000e+00	6.935483e-01	3.692624e+14	6.035003e+14	1.667208e+14	1.170403e+04	3.702034e+03	2.545699e+03	0	7.657948e-04
4.800000e+08	1.669464e+13	0.000000e+00	6.935483e-01	3.668728e+14	5.990879e+14	1.658817e+14	1.169164e+04	3.699167e+03	2.543728e+03	0	7.622790e-04
4.900000e+08	1.646560e+13	0.000000e+00	6.935483e-01	3.645128e+14	5.947640e+14	1.650486e+14	1.167933e+04	3.696350e+03	2.541791e+03	0	7.587769e-04
5.000000e+08	1.623951e+13	0.000000e+00	6.935483e-01	3.621819e+14	5.905250e+14	1.642214e+14	1.166710e+04	3.693580e+03	2.539886e+03	0	7.552880e-04
5.100000e+08	1.601631e+13	0.000000e+00	6.935483e-01	3.598792e+14	5.863673e+14	1.634002e+14	1.165495e+04	3.690856e+03	2.538013e+03	0	7.518117e-04
5.200000e+08	1.579593e+13	0.000000e+00	6.935483e-01	3.576043e+14	5.822874e+14	1.625848e+14	1.164288e+04	3.688175e+03	2.536169e+03	0	7.483475e-04
5.300000e+08	1.557831e+13	0.000000e+00	6.935483e-01	3.553565e+14	5.782824e+14	1.617752e+14	1.163088e+04	3.685536e+03	2.534354e+03	0	7.448949e-04
5.400000e+08	1.536338e+13	0.000000e+00	6.935483e-01	3.531353e+14	5.743491e+14	1.609715e+14	1.161896e+04	3.682936e+03	2.532567e+03	0	7.414534e-04
5.500000e+08	1.515110e+13	0.000000e+00	6.935483e-01	3.509401e+14	5.704849e+14	1.601734e+14	1.160711e+04	3.680375e+03	2.530806e+03	0	7.380226e-04
5.600000e+08	1.494141e+13	0.000000e+00	6.935483e-01	3.487703e+14	5.666871e+14	1.593810e+14	1.159534e+04	3.677851e+03	2.529070e+03	0	7.346020e-04
5.700000e+08	1.473425e+13	0.000000e+00	6.935483e-01	3.466255e+14	5.629532e+14	1.585942e+14	1.158363e+04	3.675361e+03	2.527358e+03	0	7.311911e-04
5.800000e+08	1.452957e+13	0.000000e+00	6.935483e-01	3.445052e+14	5.592809e+14	1.578130e+14	1.157200e+04	3.672906e+03	2.525669e+03	0	7.277896e-04
5.900000e+08	1.432732e+13	0.000000e+00	6.935483e-01	3.424088e+14	5.556680e+14	1.570373e+14	1.156044e+04	3.670482e+03	2.524003e+03	0	7.243969e-04
6.000000e+08	1.412746e+13	0.000000e+00	6.935483e-01	3.403360e+14	5.521123e+14	1.562672e+14	1.154895e+04	3.668090e+03	2.522358e+03	0	7.210128e-04
6.100000e+08	1.392994e+13	0.000000e+00	6.935483e-01	3.382863e+14	5.486118e+14	1.555025e+14	1.153753e+04	3.665728e+03	2.520734e+03	0	7.176367e-04
6.200000e+08	1.373471e+13	0.000000e+00	6.935483e-01	3.362591e+14	5.451648e+14	1.547432e+14	1.152618e+04	3.663395e+03	2.519129e+03	0	7.142683e-04
6.300000e+08	1.354172e+13	0.000000e+00	6.935483e-01	3.342542e+14	5.417694e+14	1.539892e+14	1.151490e+04	3.661090e+03	2.517544e+03	0	7.109072e-04
6.400000e+08	1.335095e+13	0.000000e+00	6.935483e-01	3.322711e+14	5.384240e+14	1.532406e+14	1.150368e+04	3.658811e+03	2.515977e+03	0	7.075529e-04
6.500000e+08	1.316234e+13	0.000000e+00	6.935483e-01	3.303095e+14	5.351268e+14	1.524972e+14	1.149253e+04	3.656558e+03	2.514428e+03	0	7.042053e-04
6.600000e+08	1.297586e+13	0.000000e+00	6.935483e-01	3.283688e+14	5.318765e+14	1.517591e+14	1.148145e+04	3.654331e+03	2.512896e+03	0	7.008637e-04
6.700000e+08	1.279146e+13	0.000000e+00	6.935483e-01	3.264489e+14	5.286715e+14	1.510261e+14	1.147043e+04	3.652127e+03	2.511381e+03	0	6.975280e-04
6.800000e+08	1.260912e+13	0.000000e+00	6.935483e-01	3.245492e+14	5.255105e+14	1.502983e+14	1.145948e+04	3.649946e+03	2.509881e+03	0	6.941977e-04
6.900000e+08	1.242879e+13	0.000000e+00	6.935483e-01	3.226695e+14	5.223922e+14	1.495757e+14	1.144859e+04	3.647788e+03	2.508397e+03	0	6.908724e-04
7.000000e+08	1.225044e+13	0.000000e+00	6.935483e-01	3.208094e+14	5.193153e+14	1.488580e+14	1.143776e+04	3.645652e+03	2.506928e+03	0	6.875519e-04
7.100000e+08	1.207404e+13	0.000000e+00	6.935483e-01	3.189686e+14	5.162787e+14	1.481454e+14	1.142699e+04	3.643537e+03	2.505474e+03	0	6.842357e-04
7.200000e+08	1.189955e+13	0.000000e+00	6.935483e-01	3.171467e+14	5.132811e+14	1.474378e+14	1.141629e+04	3.641442e+03	2.504033e+03	0	6.809236e-04
7.300000e+08	1.172694e+13	0.000000e+00	6.935483e-01	3.153435e+14	5.103216e+14	1.467351e+14	1.140565e+04	3.639366e+03	2.502606e+03	0	6.776152e-04
7.400000e+08	1.155618e+13	0.000000e+00	6.935483e-01	3.135587e+14	5.073992e+14	1.460374e+14	1.139506e+04	3.637310e+03	2.501192e+03	0	6.743100e-04
7.500000e+08	1.138723e+13	0.000000e+00	6.935483e-01	3.117918e+14	5.045127e+14	1.453445e+14	1.138454e+04	3.635273e+03	2.499791e+03	0	6.710079e-04
7.600000e+08	1.122008e+13	0.000000e+00	6.935483e-01	3.100428e+14	5.016613e+14	1.446564e+14	1.137408e+04	3.633253e+03	2.498402e+03	0	6.677084e-04
7.700000e+08	1.105468e+13	0.000000e+00	6.935483e-01	3.083112e+14	4.988441e+14	1.439731e+14	1.136367e+04	3.631251e+03	2.497025e+03	0	6.644112e-04
7.800000e+08	1.089102e+13	0.000000e+00	6.935483e-01	3.065969e+14	4.960603e+14	1.432946e+14	1.135332e+04	3.629265e+03	2.495660e+03	0	6.611160e-04
7.900000e+08	1.072905e+13	0.000000e+00	6.935483e-01	3.048994e+14	4.933089e+14	1.426208e+14	1.134303e+04	3.627297e+03	2.494306e+03	0	6.578225e-04
8.000000e+08	1.056877e+13	0.000000e+00	6.935483e-01	3.032187e+14	4.905892e+14	1.419516e+14	1.133280e+04	3.625344e+03	2.492963e+03	0	6.545302e-04
8.100000e+08	1.041013e+13	0.000000e+00	6.935483e-01	3.015543e+14	4.879006e+14	1.412871e+14	1.132262e+04	3.623407e+03	2.491631e+03	0	6.512389e-04
8.200000e+08	1.025313e+13	0.000000e+00	6.935483e-01	2.999062e+14	4.852421e+14	1.406272e+14	1.131250e+04	3.621485e+03	2.490310e+03	0	6.479483e-04
8.300000e+08	1.009772e+13	0.000000e+00	6.935483e-01	2.982740e+14	4.826132e+14	1.399718e+14	1.130244e+04	3.619578e+03	2.488998e+03	0	6.446579e-04
8.400000e+08	9.943881e+12	0.000000e+00	6.935483e-01	2.966574e+14	4.800131e+14	1.393210e+14	1.129243e+04	3.617685e+03	2.487696e+03	0	6.413674e-04
8.500000e+08	9.791599e+12	0.000000e+00	6.935483e-01	2.950563e+14	4.774413e+14	1.386747e+14	1.128247e+04	3.615806e+03	2.486404e+03	0	6.380765e-04
8.600000e+08	9.640845e+12	0.000000e+00	6.935483e-01	2.934705e+14	4.748971e+14	1.380328e+14	1.127257e+04	3.613941e+03	2.485122e+03	0	6.347849e-04
8.700000e+08	9.491597e+12	0.000000e+00	6.935483e-01	2.918997e+14	4.723799e+14	1.373953e+14	1.126272e+04	3.612089e+03	2.483848e+03	0	6.314922e-04
8.800000e+08	9.343832e+12	0.000000e+00	6.935483e-01	2.903436e+14	4.698892e+14	1.367622e+14	1.125292e+04	3.610250e+03	2.482584e+03	0	6.281980e-04
8.900000e+08	9.197529e+12	0.000000e+00	6.935483e-01	2.888022e+14	4.674244e+14	1.361335e+14	1.124318e+04	3.608424e+03	2.481328e+03	0	6.249021e-04
9.000000e+08	9.052666e+12	0.000000e+00	6.935483e-01	2.872751e+14	4.649849e+14	1.355091e+14	1.123348e+04	3.606610e+03	2.480081e+03	0	6.216039e-04
9.100000e+08	8.909223e+12	0.000000e+00	6.935483e-01	2.857622e+14	4.625703e+14	1.348890e+14	1.122384e+04	3.604809e+03	2.478842e+03	0	6.183032e-04
9.200000e+08	8.767180e+12	0.000000e+00	6.935483e-01	2.842633e+14	4.601801e+14	1.342731e+14	1.121425e+04	3.603019e+03	2.477612e+03	0	6.149997e-04
9.300000e+08	8.626516e+12	0.000000e+00	6.935483e-01	2.827781e+14	4.578138e+14	1.336614e+14	1.120471e+04	3.601241e+03	2.476389e+03	0	6.116928e-04
9.400000e+08	8.487212e+12	0.000000e+00	6.935483e-01	2.813066e+14	4.554709e+14	1.330539e+14	1.119521e+04	3.599474e+03	2.475174e+03	0	6.083823e-04
9.500000e+08	8.349248e+12	0.000000e+00	6.935483e-01	2.798484e+14	4.531511e+14	1.324506e+14	1.118577e+04	3.597719e+03	2.473967e+03	0	6.050678e-04
9.600000e+08	8.212607e+12	0.000000e+00	6.935483e-01	2.784035e+14	4.508538e+14	1.318513e+14	1.117638e+04	3.595974e+03	2.472767e+03	0	6.017488e-04
9.700000e+08	8.077270e+12	0.000000e+00	6.935483e-01	2.769716e+14	4.485786e+14	1.312562e+14	1.116703e+04	3.594240e+03	2.471575e+03	0	5.984251e-04
9.800000e+08	7.943218e+12	0.000000e+00	6.935483e-01	2.755526e+14	4.463252e+14	1.306651e+14	1.115774e+04	3.592517e+03	2.470390e+03	0	5.950961e-04
9.900000e+08	7.810435e+12	0.000000e+00	6.935483e-01	2.741463e+14	4.440932e+14	1.300780e+14	1.114849e+04	3.590804e+03	2.469212e+03	0	5.917614e-04
1.000000e+09	7.678903e+12	0.000000e+00	6.935483e-01	2.727525e+14	4.418822e+14	1.294949e+14	1.113928e+04	3.589100e+03	2.468041e+03	0	5.884207e-04
1.010000e+09	7.548605e+12	0.000000e+00	6.935483e-01	2.713711e+14	4.396918e+14	1.289158e+14	1.113013e+04	3.587407e+03	2.466876e+03	0	5.850736e-04
1.020000e+09	7.419524e+12	0.000000e+00	6.935483e-01	2.700019e+14	4.375217e+14	1.283405e+14	1.112102e+04	3.585724e+03	2.465718e+03	0	5.817195e-04
1.030000e+09	7.291645e+12	0.000000e+00	6.935483e-01	2.686447e+14	4.353716e+14	1.277692e+14	1.111196e+04	3.584049e+03	2.464567e+03	0	5.783580e-04
1.040000e+09	7.164951e+12	0.000000e+00	6.935483e-01	2.672994e+14	4.332411e+14	1.272017e+14	1.110294e+04	3.582385e+03	2.463423e+03	0	5.749887e-04
1.050000e+09	7.039427e+12	0.000000e+00	6.935483e-01	2.659658e+14	4.311298e+14	1.266381e+14	1.109396e+04	3.580729e+03	2.462284e+03	0	5.716111e-04
1.060000e+09	6.915057e+12	0.000000e+00	6.935483e-01	2.646438e+14	4.290376e+14	1.260783e+14	1.108504e+04	3.579083e+03	2.461152e+03	0	5.682248e-04
1.070000e+09	6.791827e+12	0.000000e+00	6.935483e-01	2.633333e+14	4.269640e+14	1.255222e+14	1.107615e+04	3.577445e+03	2.460026e+03	0	5.648292e-04
1.080000e+09	6.669721e+12	0.000000e+00	6.935483e-01	2.620340e+14	4.249088e+14	1.249699e+14	1.106731e+04	3.575816e+03	2.458906e+03	0	5.614238e-04
1.090000e+09	6.548725e+12	0.000000e+00	6.935483e-01	2.607459e+14	4.228717e+14	1.244213e+14	1.105852e+04	3.574196e+03	2.457792e+03	0	5.580081e-04
1.100000e+09	6.428824e+12	0.000000e+00	6.935483e-01	2.594688e+14	4.208525e+14	1.238764e+14	1.104976e+04	3.572584e+03	2.456683e+03	0	5.545816e-04
1.110000e+09	6.310006e+12	0.000000e+00	6.935483e-01	2.582025e+14	4.188508e+14	1.233351e+14	1.104105e+04	3.570981e+03	2.455581e+03	0	5.511437e-04
1.120000e+09	6.192255e+12	0.000000e+00	6.935483e-01	2.569470e+14	4.168664e+14	1.227975e+14	1.103238e+04	3.569386e+03	2.454484e+03	0	5.476938e-04
1.130000e+09	6.075558e+12	0.000000e+00	6.935483e-01	2.557021e+14	4.148990e+14	1.222634e+14	1.102376e+04	3.567798e+03	2.453392e+03	0	5.442315e-04
1.140000e+09	5.959903e+12	0.000000e+00	6.935483e-01	2.544677e+14	4.129485e+14	1.217329e+14	1.101517e+04	3.566219e+03	2.452306e+03	0	5.407560e-04
1.150000e+09	5.845276e+12	0.000000e+00	6.935483e-01	2.532436e+14	4.110144e+14	1.212060e+14	1.100663e+04	3.564648e+03	2.451226e+03	0	5.372667e-04
1.160000e+09	5.731664e+12	0.000000e+00	6.935483e-01	2.520297e+14	4.090967e+14	1.206826e+14	1.099813e+04	3.563084e+03	2.450150e+03	0	5.337630e-04
1.170000e+09	5.619055e+12	0.000000e+00	6.935483e-01	2.508259e+14	4.071951e+14	1.201627e+14	1.098967e+04	3.561528e+03	2.449080e+03	0	5.302443e-04
1.180000e+09	5.507437e+12	0.000000e+00	6.935483e-01	2.496321e+14	4.053093e+14	1.196462e+14	1.098125e+04	3.559980e+03	2.448016e+03	0	5.267098e-04
1.190000e+09	5.396796e+12	0.000000e+00	6.935483e-01	2.484481e+14	4.034392e+14	1.191332e+14	1.097287e+04	3.558438e+03	2.446956e+03	0	5.231589e-04
1.200000e+09	5.287122e+12	0.000000e+00	6.935483e-01	2.472739e+14	4.015844e+14	1.186235e+14	1.096452e+04	3.556905e+03	2.445901e+03	0	5.195907e-04
1.210000e+09	5.178402e+12	0.000000e+00	6.935483e-01	2.461093e+14	3.997449e+14	1.181173e+14	1.095622e+04	3.555378e+03	2.444851e+03	0	5.160045e-04
1.220000e+09	5.070625e+12	0.000000e+00	6.935483e-01	2.449542e+14	3.979204e+14	1.176144e+14	1.094796e+04	3.553859e+03	2.443807e+03	0	5.123995e-04
1.230000e+09	4.963779e+12	0.000000e+00	6.935483e-01	2.438085e+14	3.961107e+14	1.171148e+14	1.093974e+04	3.552346e+03	2.442767e+03	0	5.087749e-04
1.240000e+09	4.857854e+12	0.000000e+00	6.935483e-01	2.426721e+14	3.943157e+14	1.166185e+14	1.093155e+04	3.550841e+03	2.441731e+03	0	5.051299e-04
1.250000e+09	4.752837e+12	0.000000e+00	6.935483e-01	2.415448e+14	3.925350e+14	1.161255e+14	1.092340e+04	3.549342e+03	2.440701e+03	0	5.014634e-04
1.260000e+09	4.648720e+12	0.000000e+00	6.935483e-01	2.404266e+14	3.907686e+14	1.156358e+14	1.091529e+04	3.547851e+03	2.439675e+03	0	4.977746e-04
1.270000e+09	4.545490e+12	0.000000e+00	6.935483e-01	2.393174e+14	3.890162e+14	1.151493e+14	1.090722e+04	3.546365e+03	2.438654e+03	0	4.940624e-04
1.280000e+09	4.443137e+12	0.000000e+00	6.935483e-01	2.382170e+14	3.872778e+14	1.146660e+14	1.089919e+04	3.544887e+03	2.437637e+03	0	4.903259e-04
1.290000e+09	4.341652e+12	0.000000e+00	6.935483e-01	2.371254e+14	3.855530e+14	1.141858e+14	1.089119e+04	3.543415e+03	2.436625e+03	0	4.865639e-04
1.300000e+09	4.241023e+12	0.000000e+00	6.935483e-01	2.360425e+14	3.838417e+14	1.137088e+14	1.088323e+04	3.541950e+03	2.435617e+03	0	4.827754e-04
1.310000e+09	4.141241e+12	0.000000e+00	6.935483e-01	2.349681e+14	3.821438e+14	1.132350e+14	1.087530e+04	3.540491e+03	2.434614e+03	0	4.789591e-04
1.320000e+09	4.042296e+12	0.000000e+00	6.935483e-01	2.339022e+14	3.804592e+14	1.127642e+14	1.086741e+04	3.539038e+03	2.433615e+03	0	4.751138e-04
1.330000e+09	3.944178e+12	0.000000e+00	6.935483e-01	2.328446e+14	3.787875e+14	1.122965e+14	1.085956e+04	3.537591e+03	2.432620e+03	0	4.712381e-04
1.340000e+09	3.846879e+12	0.000000e+00	6.935483e-01	2.317953e+14	3.771288e+14	1.118319e+14	1.085174e+04	3.536151e+03	2.431630e+03	0	4.673308e-04
1.350000e+09	3.750387e+12	0.000000e+00	6.935483e-01	2.307542e+14	3.754828e+14	1.113703e+14	1.084396e+04	3.534717e+03	2.430644e+03	0	4.633903e-04
1.360000e+09	3.654695e+12	0.000000e+00	6.935483e-01	2.297212e+14	3.738493e+14	1.109117e+14	1.083621e+04	3.533289e+03	2.429662e+03	0	4.594151e-04
