#t		Qconv[W]	Ri[Rp]		R*[Rp]		Qc[W]		Qm[W]		Qr[W]		Tcmb[K]		Tl[K]		Tup[K]		RiFlag		Bs[T]
0.000000e+00	3.451794e+13	0.000000e+00	6.935485e-01	5.707599e+14	1.153977e+15	2.241691e+14	1.278487e+04	4.080550e+03	2.787674e+03	0	9.697712e-04
1.000000e+07	3.390321e+13	0.000000e+00	6.935485e-01	5.648067e+14	1.124672e+15	2.229270e+14	1.276691e+04	4.066189e+03	2.777863e+03	0	9.639798e-04
2.000000e+07	3.330905e+13	0.000000e+00	6.935485e-01	5.590445e+14	1.097535e+15	2.216942e+14	1.274914e+04	4.052702e+03	2.768649e+03	0	9.583153e-04
3.000000e+07	3.273402e+13	0.000000e+00	6.935485e-01	5.534599e+14	1.072335e+15	2.204707e+14	1.273156e+04	4.040013e+03	2.759980e+03	0	9.527686e-04
4.000000e+07	3.217683e+13	0.000000e+00	6.935485e-01	5.480411e+14	1.048870e+15	2.192562e+14	1.271414e+04	4.028052e+03	2.751809e+03	0	9.473317e-04
5.000000e+07	3.163630e+13	0.000000e+00	6.935485e-01	5.427773e+14	1.026965e+15	2.180509e+14	1.269690e+04	4.016758e+03	2.744093e+03	0	9.419971e-04
6.000000e+07	3.111138e+13	0.000000e+00	6.935485e-01	5.376588e+14	1.006468e+15	2.168545e+14	1.267983e+04	4.006078e+03	2.736797e+03	0	9.367580e-04
7.000000e+07	3.060110e+13	0.000000e+00	6.935485e-01	5.326768e+14	9.872439e+14	2.156670e+14	1.266291e+04	3.995960e+03	2.729885e+03	0	9.316083e-04
8.000000e+07	3.010460e+13	0.000000e+00	6.935485e-01	5.278232e+14	9.691744e+14	2.144884e+14	1.264615e+04	3.986362e+03	2.723328e+03	0	9.265423e-04
9.000000e+07	2.962107e+13	0.000000e+00	6.935485e-01	5.230907e+14	9.521548e+14	2.133185e+14	1.262954e+04	3.977242e+03	2.717098e+03	0	9.215549e-04
1.000000e+08	2.914979e+13	0.000000e+00	6.935485e-01	5.184727e+14	9.360921e+14	2.121573e+14	1.261308e+04	3.968565e+03	2.711170e+03	0	9.166414e-04
1.100000e+08	2.869009e+13	0.000000e+00	6.935485e-01	5.139629e+14	9.209036e+14	2.110047e+14	1.259677e+04	3.960298e+03	2.705522e+03	0	9.117972e-04
1.200000e+08	2.824136e+13	0.000000e+00	6.935485e-01	5.095557e+14	9.065157e+14	2.098607e+14	1.258060e+04	3.952410e+03	2.700133e+03	0	9.070185e-04
1.300000e+08	2.780303e+13	0.000000e+00	6.935485e-01	5.052460e+14	8.928621e+14	2.087252e+14	1.256456e+04	3.944875e+03	2.694985e+03	0	9.023016e-04
1.400000e+08	2.737460e+13	0.000000e+00	6.935485e-01	5.010290e+14	8.798838e+14	2.075980e+14	1.254867e+04	3.937667e+03	2.690061e+03	0	8.976429e-04
1.500000e+08	2.695558e+13	0.000000e+00	6.935485e-01	4.969003e+14	8.675274e+14	2.064792e+14	1.253290e+04	3.930764e+03	2.685345e+03	0	8.930392e-04
1.600000e+08	2.654552e+13	0.000000e+00	6.935485e-01	4.928558e+14	8.557449e+14	2.053686e+14	1.251726e+04	3.924144e+03	2.680823e+03	0	8.884877e-04
1.700000e+08	2.614402e+13	0.000000e+00	6.935485e-01	4.888916e+14	8.444929e+14	2.042662e+14	1.250175e+04	3.917790e+03	2.676482e+03	0	8.839855e-04
1.800000e+08	2.575070e+13	0.000000e+00	6.935485e-01	4.850044e+14	8.337321e+14	2.031720e+14	1.248637e+04	3.911683e+03	2.672310e+03	0	8.795300e-04
1.900000e+08	2.536520e+13	0.000000e+00	6.935485e-01	4.811907e+14	8.234269e+14	2.020858e+14	1.247110e+04	3.905807e+03	2.668296e+03	0	8.751190e-04
2.000000e+08	2.498719e+13	0.000000e+00	6.935485e-01	4.774476e+14	8.135448e+14	2.010076e+14	1.245596e+04	3.900147e+03	2.664429e+03	0	8.707500e-04
2.100000e+08	2.461637e+13	0.000000e+00	6.935485e-01	4.737723e+14	8.040565e+14	1.999374e+14	1.244094e+04	3.894690e+03	2.660701e+03	0	8.664211e-04
2.200000e+08	2.425245e+13	0.000000e+00	6.935485e-01	4.701620e+14	7.949349e+14	1.988750e+14	1.242603e+04	3.889422e+03	2.657102e+03	0	8.621302e-04
2.300000e+08	2.389515e+13	0.000000e+00	6.935485e-01	4.666144e+14	7.861555e+14	1.978204e+14	1.241123e+04	3.884333e+03	2.653625e+03	0	8.578755e-04
2.400000e+08	2.354424e+13	0.000000e+00	6.935485e-01	4.631269e+14	7.776959e+14	1.967735e+14	1.239654e+04	3.879411e+03	2.650263e+03	0	8.536553e-04
2.500000e+08	2.319946e+13	0.000000e+00	6.935485e-01	4.596976e+14	7.695353e+14	1.957343e+14	1.238197e+04	3.874646e+03	2.647008e+03	0	8.494679e-04
2.600000e+08	2.286061e+13	0.000000e+00	6.935485e-01	4.563243e+14	7.616549e+14	1.947027e+14	1.236750e+04	3.870029e+03	2.643854e+03	0	8.453118e-04
2.700000e+08	2.252747e+13	0.000000e+00	6.935485e-01	4.530051e+14	7.540372e+14	1.936787e+14	1.235313e+04	3.865552e+03	2.640795e+03	0	8.411855e-04
2.800000e+08	2.219984e+13	0.000000e+00	6.935485e-01	4.497381e+14	7.466663e+14	1.926621e+14	1.233888e+04	3.861206e+03	2.637826e+03	0	8.370877e-04
2.900000e+08	2.187755e+13	0.000000e+00	6.935485e-01	4.465217e+14	7.395273e+14	1.916529e+14	1.232472e+04	3.856983e+03	2.634941e+03	0	8.330170e-04
3.000000e+08	2.156041e+13	0.000000e+00	6.935485e-01	4.433543e+14	7.326067e+14	1.906512e+14	1.231067e+04	3.852878e+03	2.632137e+03	0	8.289722e-04
3.100000e+08	2.124826e+13	0.000000e+00	6.935485e-01	4.402342e+14	7.258918e+14	1.896567e+14	1.229671e+04	3.848883e+03	2.629407e+03	0	8.249522e-04
3.200000e+08	2.094095e+13	0.000000e+00	6.935485e-01	4.371601e+14	7.193710e+14	1.886694e+14	1.228285e+04	3.844992e+03	2.626750e+03	0	8.209558e-04
3.300000e+08	2.063833e+13	0.000000e+00	6.935485e-01	4.341306e+14	7.130335e+14	1.876893e+14	1.226909e+04	3.841200e+03	2.624159e+03	0	8.169820e-04
3.400000e+08	2.034025e+13	0.000000e+00	6.935485e-01	4.311444e+14	7.068693e+14	1.867163e+14	1.225543e+04	3.837502e+03	2.621632e+03	0	8.130297e-04
3.500000e+08	2.004659e+13	0.000000e+00	6.935485e-01	4.282002e+14	7.008692e+14	1.857504e+14	1.224186e+04	3.833892e+03	2.619166e+03	0	8.090980e-04
3.600000e+08	1.975721e+13	0.000000e+00	6.935485e-01	4.252969e+14	6.950244e+14	1.847915e+14	1.222838e+04	3.830366e+03	2.616757e+03	0	8.051860e-04
3.700000e+08	1.947201e+13	0.000000e+00	6.935485e-01	4.224334e+14	6.893270e+14	1.838396e+14	1.221499e+04	3.826920e+03	2.614403e+03	0	8.012928e-04
3.800000e+08	1.919085e+13	0.000000e+00	6.935485e-01	4.196085e+14	6.837695e+14	1.828945e+14	1.220169e+04	3.823549e+03	2.612100e+03	0	7.974175e-04
3.900000e+08	1.891365e+13	0.000000e+00	6.935485e-01	4.168213e+14	6.783450e+14	1.819562e+14	1.218848e+04	3.820250e+03	2.609847e+03	0	7.935593e-04
4.000000e+08	1.864028e+13	0.000000e+00	6.935485e-01	4.140708e+14	6.730468e+14	1.810248e+14	1.217536e+04	3.817020e+03	2.607640e+03	0	7.897176e-04
4.100000e+08	1.837066e+13	0.000000e+00	6.935485e-01	4.113561e+14	6.678690e+14	1.801000e+14	1.216232e+04	3.813854e+03	2.605477e+03	0	7.858914e-04
4.200000e+08	1.810468e+13	0.000000e+00	6.935485e-01	4.086763e+14	6.628059e+14	1.791819e+14	1.214937e+04	3.810750e+03	2.603357e+03	0	7.820802e-04
4.300000e+08	1.784226e+13	0.000000e+00	6.935485e-01	4.060305e+14	6.578522e+14	1.782705e+14	1.213651e+04	3.807705e+03	2.601277e+03	0	7.782831e-04
4.400000e+08	1.758331e+13	0.000000e+00	6.935485e-01	4.034180e+14	6.530029e+14	1.773656e+14	1.212372e+04	3.804717e+03	2.599235e+03	0	7.744996e-04
4.500000e+08	1.732775e+13	0.000000e+00	6.935485e-01	4.008379e+14	6.482533e+14	1.764672e+14	1.211102e+04	3.801782e+03	2.597230e+03	0	7.707290e-04
4.600000e+08	1.707549e+13	0.000000e+00	6.935485e-01	3.982896e+14	6.435992e+14	1.755752e+14	1.209840e+04	3.798898e+03	2.595259e+03	0	7.669706e-04
4.700000e+08	1.682647e+13	0.000000e+00	6.935485e-01	3.957722e+14	6.390364e+14	1.746896e+14	1.208586e+04	3.796062e+03	2.593323e+03	0	7.632239e-04
4.800000e+08	1.658060e+13	0.000000e+00	6.935485e-01	3.932852e+14	6.345610e+14	1.738104e+14	1.207340e+04	3.793274e+03	2.591418e+03	0	7.594882e-04
4.900000e+08	1.633782e+13	0.000000e+00	6.935485e-01	3.908278e+14	6.301695e+14	1.729375e+14	1.206102e+04	3.790530e+03	2.589543e+03	0	7.557631e-04
5.000000e+08	1.609806e+13	0.000000e+00	6.935485e-01	3.883994e+14	6.258585e+14	1.720708e+14	1.204872e+04	3.787829e+03	2.587698e+03	0	7.520479e-04
5.100000e+08	1.586125e+13	0.000000e+00	6.935485e-01	3.859995e+14	6.216247e+14	1.712103e+14	1.203649e+04	3.785169e+03	2.585880e+03	0	7.483420e-04
5.200000e+08	1.562734e+13	0.000000e+00	6.935485e-01	3.836274e+14	6.174651e+14	1.703560e+14	1.202433e+04	3.782548e+03	2.584090e+03	0	7.446451e-04
5.300000e+08	1.539625e+13	0.000000e+00	6.935485e-01	3.812825e+14	6.133769e+14	1.695077e+14	1.201225e+04	3.779964e+03	2.582325e+03	0	7.409564e-04
5.400000e+08	1.516794e+13	0.000000e+00	6.935485e-01	3.789643e+14	6.093574e+14	1.686655e+14	1.200025e+04	3.777417e+03	2.580585e+03	0	7.372756e-04
5.500000e+08	1.494235e+13	0.000000e+00	6.935485e-01	3.766723e+14	6.054041e+14	1.678293e+14	1.198832e+04	3.774904e+03	2.578868e+03	0	7.336021e-04
5.600000e+08	1.471941e+13	0.000000e+00	6.935485e-01	3.744060e+14	6.015146e+14	1.669990e+14	1.197646e+04	3.772424e+03	2.577174e+03	0	7.299355e-04
5.700000e+08	1.449909e+13	0.000000e+00	6.935485e-01	3.721648e+14	5.976866e+14	1.661746e+14	1.196467e+04	3.769976e+03	2.575502e+03	0	7.262752e-04
5.800000e+08	1.428133e+13	0.000000e+00	6.935485e-01	3.699483e+14	5.939180e+14	1.653561e+14	1.195295e+04	3.767559e+03	2.573850e+03	0	7.226209e-04
5.900000e+08	1.406607e+13	0.000000e+00	6.935485e-01	3.677561e+14	5.902067e+14	1.645433e+14	1.194130e+04	3.765172e+03	2.572219e+03	0	7.189719e-04
6.000000e+08	1.385328e+13	0.000000e+00	6.935485e-01	3.655877e+14	5.865508e+14	1.637364e+14	1.192972e+04	3.762813e+03	2.570608e+03	0	7.153279e-04
6.100000e+08	1.364290e+13	0.000000e+00	6.935485e-01	3.634426e+14	5.829486e+14	1.629351e+14	1.191821e+04	3.760481e+03	2.569015e+03	0	7.116884e-04
6.200000e+08	1.343490e+13	0.000000e+00	6.935485e-01	3.613204e+14	5.793982e+14	1.621395e+14	1.190676e+04	3.758176e+03	2.567440e+03	0	7.080530e-04
6.300000e+08	1.322922e+13	0.000000e+00	6.935485e-01	3.592207e+14	5.758981e+14	1.613495e+14	1.189538e+04	3.755896e+03	2.565883e+03	0	7.044212e-04
6.400000e+08	1.302583e+13	0.000000e+00	6.935485e-01	3.571432e+14	5.724466e+14	1.605651e+14	1.188407e+04	3.753641e+03	2.564342e+03	0	7.007926e-04
6.500000e+08	1.282469e+13	0.000000e+00	6.935485e-01	3.550874e+14	5.690424e+14	1.597862e+14	1.187282e+04	3.751410e+03	2.562818e+03	0	6.971667e-04
6.600000e+08	1.262575e+13	0.000000e+00	6.935485e-01	3.530530e+14	5.656839e+14	1.590128e+14	1.186164e+04	3.749201e+03	2.561309e+03	0	6.935431e-04
6.700000e+08	1.242899e+13	0.000000e+00	6.935485e-01	3.510397e+14	5.623699e+14	1.582448e+14	1.185052e+04	3.747015e+03	2.559815e+03	0	6.899213e-04
6.800000e+08	1.223435e+13	0.000000e+00	6.935485e-01	3.490469e+14	5.590990e+14	1.574822e+14	1.183947e+04	3.744850e+03	2.558337e+03	0	6.863010e-04
6.900000e+08	1.204181e+13	0.000000e+00	6.935485e-01	3.470745e+14	5.558702e+14	1.567250e+14	1.182848e+04	3.742707e+03	2.556872e+03	0	6.826816e-04
7.000000e+08	1.185132e+13	0.000000e+00	6.935485e-01	3.451221e+14	5.526821e+14	1.559731e+14	1.181755e+04	3.740583e+03	2.555421e+03	0	6.790628e-04
7.100000e+08	1.166287e+13	0.000000e+00	6.935485e-01	3.431893e+14	5.495337e+14	1.552264e+14	1.180668e+04	3.738478e+03	2.553983e+03	0	6.754441e-04
7.200000e+08	1.147640e+13	0.000000e+00	6.935485e-01	3.412759e+14	5.464239e+14	1.544850e+14	1.179587e+04	3.736393e+03	2.552559e+03	0	6.718251e-04
7.300000e+08	1.129190e+13	0.000000e+00	6.935485e-01	3.393815e+14	5.433518e+14	1.537487e+14	1.178512e+04	3.734326e+03	2.551146e+03	0	6.682054e-04
7.400000e+08	1.110932e+13	0.000000e+00	6.935485e-01	3.375058e+14	5.403163e+14	1.530176e+14	1.177443e+04	3.732276e+03	2.549746e+03	0	6.645844e-04
7.500000e+08	1.092864e+13	0.000000e+00	6.935485e-01	3.356486e+14	5.373166e+14	1.522916e+14	1.176381e+04	3.730244e+03	2.548358e+03	0	6.609618e-04
7.600000e+08	1.074983e+13	0.000000e+00	6.935485e-01	3.338096e+14	5.343517e+14	1.515706e+14	1.175323e+04	3.728229e+03	2.546982e+03	0	6.573371e-04
7.700000e+08	1.057285e+13	0.000000e+00	6.935485e-01	3.319884e+14	5.314208e+14	1.508547e+14	1.174272e+04	3.726230e+03	2.545616e+03	0	6.537099e-04
7.800000e+08	1.039769e+13	0.000000e+00	6.935485e-01	3.301849e+14	5.285231e+14	1.501437e+14	1.173227e+04	3.724247e+03	2.544261e+03	0	6.500797e-04
7.900000e+08	1.022431e+13	0.000000e+00	6.935485e-01	3.283986e+14	5.256578e+14	1.494377e+14	1.172187e+04	3.722280e+03	2.542917e+03	0	6.464460e-04
8.000000e+08	1.005268e+13	0.000000e+00	6.935485e-01	3.266295e+14	5.228242e+14	1.487365e+14	1.171152e+04	3.720327e+03	2.541583e+03	0	6.428084e-04
8.100000e+08	9.882774e+12	0.000000e+00	6.935485e-01	3.248772e+14	5.200215e+14	1.480403e+14	1.170124e+04	3.718389e+03	2.540259e+03	0	6.391664e-04
8.200000e+08	9.714575e+12	0.000000e+00	6.935485e-01	3.231415e+14	5.172492e+14	1.473488e+14	1.169100e+04	3.716466e+03	2.538945e+03	0	6.355196e-04
8.300000e+08	9.548052e+12	0.000000e+00	6.935485e-01	3.214222e+14	5.145064e+14	1.466621e+14	1.168083e+04	3.714556e+03	2.537641e+03	0	6.318673e-04
8.400000e+08	9.383180e+12	0.000000e+00	6.935485e-01	3.197190e+14	5.117925e+14	1.459802e+14	1.167070e+04	3.712660e+03	2.536345e+03	0	6.282093e-04
8.500000e+08	9.219936e+12	0.000000e+00	6.935485e-01	3.180316e+14	5.091071e+14	1.453030e+14	1.166063e+04	3.710777e+03	2.535059e+03	0	6.245448e-04
8.600000e+08	9.058296e+12	0.000000e+00	6.935485e-01	3.163599e+14	5.064494e+14	1.446304e+14	1.165061e+04	3.708907e+03	2.533782e+03	0	6.208736e-04
8.700000e+08	8.898237e+12	0.000000e+00	6.935485e-01	3.147036e+14	5.038189e+14	1.439625e+14	1.164065e+04	3.707050e+03	2.532513e+03	0	6.171949e-04
8.800000e+08	8.739735e+12	0.000000e+00	6.935485e-01	3.130626e+14	5.012151e+14	1.432991e+14	1.163074e+04	3.705205e+03	2.531253e+03	0	6.135083e-04
8.900000e+08	8.582769e+12	0.000000e+00	6.935485e-01	3.114366e+14	4.986374e+14	1.426404e+14	1.162088e+04	3.703373e+03	2.530000e+03	0	6.098132e-04
9.000000e+08	8.427318e+12	0.000000e+00	6.935485e-01	3.098253e+14	4.960853e+14	1.419861e+14	1.161107e+04	3.701552e+03	2.528756e+03	0	6.061091e-04
9.100000e+08	8.273359e+12	0.000000e+00	6.935485e-01	3.082287e+14	4.935584e+14	1.413363e+14	1.160131e+04	3.699742e+03	2.527520e+03	0	6.023954e-04
9.200000e+08	8.120872e+12	0.000000e+00	6.935485e-01	3.066465e+14	4.910561e+14	1.406910e+14	1.159160e+04	3.697944e+03	2.526292e+03	0	5.986715e-04
9.300000e+08	7.969837e+12	0.000000e+00	6.935485e-01	3.050784e+14	4.885780e+14	1.400501e+14	1.158194e+04	3.696157e+03	2.525071e+03	0	5.949368e-04
9.400000e+08	7.820234e+12	0.000000e+00	6.935485e-01	3.035244e+14	4.861237e+14	1.394136e+14	1.157233e+04	3.694381e+03	2.523858e+03	0	5.911907e-04
9.500000e+08	7.672043e+12	0.000000e+00	6.935485e-01	3.019842e+14	4.836927e+14	1.387814e+14	1.156277e+04	3.692616e+03	2.522652e+03	0	5.874325e-04
9.600000e+08	7.525244e+12	0.000000e+00	6.935485e-01	3.004577e+14	4.812847e+14	1.381535e+14	1.155326e+04	3.690861e+03	2.521453e+03	0	5.836617e-04
9.700000e+08	7.379820e+12	0.000000e+00	6.935485e-01	2.989446e+14	4.788991e+14	1.375299e+14	1.154379e+04	3.689116e+03	2.520261e+03	0	5.798775e-04
9.800000e+08	7.235752e+12	0.000000e+00	6.935485e-01	2.974448e+14	4.765357e+14	1.369106e+14	1.153437e+04	3.687381e+03	2.519076e+03	0	5.760792e-04
9.900000e+08	7.093021e+12	0.000000e+00	6.935485e-01	2.959582e+14	4.741941e+14	1.362954e+14	1.152500e+04	3.685656e+03	2.517897e+03	0	5.722662e-04
1.000000e+09	6.951610e+12	0.000000e+00	6.935485e-01	2.944844e+14	4.718738e+14	1.356844e+14	1.151568e+04	3.683941e+03	2.516726e+03	0	5.684376e-04
1.010000e+09	6.811502e+12	0.000000e+00	6.935485e-01	2.930235e+14	4.695746e+14	1.350776e+14	1.150640e+04	3.682236e+03	2.515560e+03	0	5.645927e-04
1.020000e+09	6.672679e+12	0.000000e+00	6.935485e-01	2.915752e+14	4.672961e+14	1.344749e+14	1.149717e+04	3.680539e+03	2.514402e+03	0	5.607308e-04
1.030000e+09	6.535124e+12	0.000000e+00	6.935485e-01	2.901393e+14	4.650380e+14	1.338763e+14	1.148799e+04	3.678852e+03	2.513249e+03	0	5.568509e-04
1.040000e+09	6.398822e+12	0.000000e+00	6.935485e-01	2.887157e+14	4.627999e+14	1.332817e+14	1.147885e+04	3.677174e+03	2.512103e+03	0	5.529523e-04
1.050000e+09	6.263757e+12	0.000000e+00	6.935485e-01	2.873043e+14	4.605815e+14	1.326911e+14	1.146975e+04	3.675505e+03	2.510962e+03	0	5.490341e-04
1.060000e+09	6.129911e+12	0.000000e+00	6.935485e-01	2.859049e+14	4.583825e+14	1.321045e+14	1.146070e+04	3.673845e+03	2.509828e+03	0	5.450952e-04
1.070000e+09	5.997270e+12	0.000000e+00	6.935485e-01	2.845173e+14	4.562027e+14	1.315219e+14	1.145170e+04	3.672193e+03	2.508700e+03	0	5.411349e-04
1.080000e+09	5.865819e+12	0.000000e+00	6.935485e-01	2.831414e+14	4.540417e+14	1.309432e+14	1.144273e+04	3.670549e+03	2.507577e+03	0	5.371520e-04
1.090000e+09	5.735542e+12	0.000000e+00	6.935485e-01	2.817771e+14	4.518993e+14	1.303683e+14	1.143381e+04	3.668914e+03	2.506460e+03	0	5.331456e-04
1.100000e+09	5.606424e+12	0.000000e+00	6.935485e-01	2.804242e+14	4.497752e+14	1.297974e+14	1.142494e+04	3.667287e+03	2.505349e+03	0	5.291145e-04
1.110000e+09	5.478452e+12	0.000000e+00	6.935485e-01	2.790825e+14	4.476691e+14	1.292302e+14	1.141610e+04	3.665669e+03	2.504243e+03	0	5.250576e-04
1.120000e+09	5.351611e+12	0.000000e+00	6.935485e-01	2.777520e+14	4.455807e+14	1.286669e+14	1.140731e+04	3.664058e+03	2.503142e+03	0	5.209737e-04
1.130000e+09	5.225887e+12	0.000000e+00	6.935485e-01	2.764325e+14	4.435099e+14	1.281073e+14	1.139856e+04	3.662455e+03	2.502047e+03	0	5.168617e-04
1.140000e+09	5.101266e+12	0.000000e+00	6.935485e-01	2.751238e+14	4.414563e+14	1.275515e+14	1.138985e+04	3.660860e+03	2.500958e+03	0	5.127201e-04
1.150000e+09	4.977735e+12	0.000000e+00	6.935485e-01	2.738259e+14	4.394197e+14	1.269994e+14	1.138118e+04	3.659273e+03	2.499873e+03	0	5.085476e-04
1.160000e+09	4.855280e+12	0.000000e+00	6.935485e-01	2.725386e+14	4.373999e+14	1.264509e+14	1.137256e+04	3.657693e+03	2.498794e+03	0	5.043427e-04
1.170000e+09	4.733888e+12	0.000000e+00	6.935485e-01	2.712618e+14	4.353967e+14	1.259061e+14	1.136397e+04	3.656120e+03	2.497720e+03	0	5.001040e-04
1.180000e+09	4.613547e+12	0.000000e+00	6.935485e-01	2.699954e+14	4.334098e+14	1.253650e+14	1.135542e+04	3.654555e+03	2.496650e+03	0	4.958298e-04
1.190000e+09	4.494244e+12	0.000000e+00	6.935485e-01	2.687392e+14	4.314391e+14	1.248274e+14	1.134692e+04	3.652997e+03	2.495586e+03	0	4.915185e-04
1.200000e+09	4.375966e+12	0.000000e+00	6.935485e-01	2.674931e+14	4.294842e+14	1.242934e+14	1.133845e+04	3.651447e+03	2.494527e+03	0	4.871682e-04
1.210000e+09	4.258701e+12	0.000000e+00	6.935485e-01	2.662571e+14	4.275451e+14	1.237630e+14	1.133002e+04	3.649903e+03	2.493472e+03	0	4.827772e-04
1.220000e+09	4.142438e+12	0.000000e+00	6.935485e-01	2.650309e+14	4.256214e+14	1.232360e+14	1.132163e+04	3.648366e+03	2.492422e+03	0	4.783433e-04
1.230000e+09	4.027164e+12	0.000000e+00	6.935485e-01	2.638145e+14	4.237131e+14	1.227126e+14	1.131328e+04	3.646836e+03	2.491377e+03	0	4.738644e-04
1.240000e+09	3.912867e+12	0.000000e+00	6.935485e-01	2.626077e+14	4.218198e+14	1.221926e+14	1.130497e+04	3.645314e+03	2.490337e+03	0	4.693383e-04
1.250000e+09	3.799537e+12	0.000000e+00	6.935485e-01	2.614106e+14	4.199414e+14	1.216761e+14	1.129670e+04	3.643797e+03	2.489301e+03	0	4.647626e-04
1.260000e+09	3.687162e+12	0.000000e+00	6.935485e-01	2.602228e+14	4.180778e+14	1.211629e+14	1.128846e+04	3.642288e+03	2.488270e+03	0	4.601348e-04
1.270000e+09	3.575730e+12	0.000000e+00	6.935485e-01	2.590444e+14	4.162287e+14	1.206531e+14	1.128026e+04	3.640785e+03	2.487243e+03	0	4.554520e-04
1.280000e+09	3.465231e+12	0.000000e+00	6.935485e-01	2.578752e+14	4.143940e+14	1.201467e+14	1.127210e+04	3.639288e+03	2.486221e+03	0	4.507113e-04
1.290000e+09	3.355655e+12	0.000000e+00	6.935485e-01	2.567152e+14	4.125734e+14	1.196436e+14	1.126397e+04	3.637798e+03	2.485203e+03	0	4.459095e-04
1.300000e+09	3.246990e+12	0.000000e+00	6.935485e-01	2.555642e+14	4.107669e+14	1.191438e+14	1.125589e+04	3.636315e+03	2.484189e+03	0	4.410434e-04
1.310000e+09	3.139226e+12	0.000000e+00	6.935485e-01	2.544221e+14	4.089742e+14	1.186473e+14	1.124783e+04	3.634838e+03	2.483180e+03	0	4.361091e-04
1.320000e+09	3.032353e+12	0.000000e+00	6.935485e-01	2.532888e+14	4.071952e+14	1.181541e+14	1.123982e+04	3.633367e+03	2.482175e+03	0	4.311029e-04
1.330000e+09	2.926361e+12	0.000000e+00	6.935485e-01	2.521642e+14	4.054298e+14	1.176640e+14	1.123184e+04	3.631902e+03	2.481174e+03	0	4.260203e-04
1.340000e+09	2.821240e+12	0.000000e+00	6.935485e-01	2.510483e+14	4.036777e+14	1.171772e+14	1.122389e+04	3.630443e+03	2.480178e+03	0	4.208568e-04
1.350000e+09	2.716979e+12	0.000000e+00	6.935485e-01	2.499410e+14	4.019388e+14	1.166935e+14	1.121598e+04	3.628990e+03	2.479185e+03	0	4.156072e-04
1.360000e+09	2.613570e+12	0.000000e+00	6.935485e-01	2.488420e+14	4.002129e+14	1.162130e+14	1.120810e+04	3.627543e+03	2.478197e+03	0	4.102662e-04
