#t		Qconv[W]	Ri[Rp]		R*[Rp]		Qc[W]		Qm[W]		Qr[W]		Tcmb[K]		Tl[K]		Tup[K]		RiFlag		Bs[T]
0.000000e+00	4.059225e+13	0.000000e+00	6.854839e-01	6.620704e+14	1.156123e+15	2.397321e+14	1.364058e+04	4.202142e+03	2.824987e+03	0	1.032992e-03
1.000000e+07	3.992672e+13	0.000000e+00	6.854839e-01	6.556334e+14	1.135627e+15	2.384038e+14	1.362028e+04	4.192489e+03	2.818498e+03	0	1.027316e-03
2.000000e+07	3.927826e+13	0.000000e+00	6.854839e-01	6.493544e+14	1.116298e+15	2.370854e+14	1.360018e+04	4.183314e+03	2.812330e+03	0	1.021724e-03
3.000000e+07	3.864594e+13	0.000000e+00	6.854839e-01	6.432250e+14	1.098031e+15	2.357769e+14	1.358028e+04	4.174580e+03	2.806459e+03	0	1.016211e-03
4.000000e+07	3.802891e+13	0.000000e+00	6.854839e-01	6.372374e+14	1.080734e+15	2.344782e+14	1.356056e+04	4.166254e+03	2.800861e+03	0	1.010774e-03
5.000000e+07	3.742638e+13	0.000000e+00	6.854839e-01	6.313844e+14	1.064324e+15	2.331891e+14	1.354102e+04	4.158305e+03	2.795517e+03	0	1.005407e-03
6.000000e+07	3.683765e+13	0.000000e+00	6.854839e-01	6.256596e+14	1.048729e+15	2.319097e+14	1.352166e+04	4.150704e+03	2.790407e+03	0	1.000108e-03
7.000000e+07	3.626204e+13	0.000000e+00	6.854839e-01	6.200569e+14	1.033881e+15	2.306398e+14	1.350248e+04	4.143427e+03	2.785515e+03	0	9.948711e-04
8.000000e+07	3.569895e+13	0.000000e+00	6.854839e-01	6.145707e+14	1.019722e+15	2.293793e+14	1.348347e+04	4.136451e+03	2.780825e+03	0	9.896947e-04
9.000000e+07	3.514782e+13	0.000000e+00	6.854839e-01	6.091959e+14	1.006199e+15	2.281282e+14	1.346463e+04	4.129755e+03	2.776323e+03	0	9.845751e-04
1.000000e+08	3.460811e+13	0.000000e+00	6.854839e-01	6.039275e+14	9.932624e+14	2.268864e+14	1.344595e+04	4.123318e+03	2.771996e+03	0	9.795096e-04
1.100000e+08	3.407934e+13	0.000000e+00	6.854839e-01	5.987613e+14	9.808694e+14	2.256538e+14	1.342743e+04	4.117124e+03	2.767832e+03	0	9.744954e-04
1.200000e+08	3.356106e+13	0.000000e+00	6.854839e-01	5.936929e+14	9.689805e+14	2.244304e+14	1.340907e+04	4.111157e+03	2.763820e+03	0	9.695301e-04
1.300000e+08	3.305284e+13	0.000000e+00	6.854839e-01	5.887185e+14	9.575597e+14	2.232160e+14	1.339087e+04	4.105401e+03	2.759951e+03	0	9.646113e-04
1.400000e+08	3.255429e+13	0.000000e+00	6.854839e-01	5.838346e+14	9.465745e+14	2.220106e+14	1.337282e+04	4.099842e+03	2.756214e+03	0	9.597368e-04
1.500000e+08	3.206503e+13	0.000000e+00	6.854839e-01	5.790377e+14	9.359951e+14	2.208141e+14	1.335491e+04	4.094469e+03	2.752602e+03	0	9.549046e-04
1.600000e+08	3.158473e+13	0.000000e+00	6.854839e-01	5.743246e+14	9.257944e+14	2.196264e+14	1.333716e+04	4.089269e+03	2.749106e+03	0	9.501128e-04
1.700000e+08	3.111306e+13	0.000000e+00	6.854839e-01	5.696924e+14	9.159476e+14	2.184475e+14	1.331955e+04	4.084231e+03	2.745719e+03	0	9.453595e-04
1.800000e+08	3.064971e+13	0.000000e+00	6.854839e-01	5.651383e+14	9.064320e+14	2.172773e+14	1.330208e+04	4.079347e+03	2.742435e+03	0	9.406431e-04
1.900000e+08	3.019439e+13	0.000000e+00	6.854839e-01	5.606596e+14	8.972268e+14	2.161157e+14	1.328475e+04	4.074605e+03	2.739248e+03	0	9.359619e-04
2.000000e+08	2.974684e+13	0.000000e+00	6.854839e-01	5.562538e+14	8.883128e+14	2.149627e+14	1.326755e+04	4.069999e+03	2.736151e+03	0	9.313145e-04
2.100000e+08	2.930680e+13	0.000000e+00	6.854839e-01	5.519186e+14	8.796724e+14	2.138181e+14	1.325049e+04	4.065520e+03	2.733140e+03	0	9.266994e-04
2.200000e+08	2.887404e+13	0.000000e+00	6.854839e-01	5.476518e+14	8.712896e+14	2.126820e+14	1.323357e+04	4.061160e+03	2.730209e+03	0	9.221153e-04
2.300000e+08	2.844831e+13	0.000000e+00	6.854839e-01	5.434512e+14	8.631492e+14	2.115541e+14	1.321677e+04	4.056913e+03	2.727354e+03	0	9.175609e-04
2.400000e+08	2.802941e+13	0.000000e+00	6.854839e-01	5.393150e+14	8.552376e+14	2.104346e+14	1.320010e+04	4.052773e+03	2.724571e+03	0	9.130349e-04
2.500000e+08	2.761713e+13	0.000000e+00	6.854839e-01	5.352412e+14	8.475419e+14	2.093232e+14	1.318356e+04	4.048733e+03	2.721855e+03	0	9.085362e-04
2.600000e+08	2.721128e+13	0.000000e+00	6.854839e-01	5.312280e+14	8.400505e+14	2.082200e+14	1.316714e+04	4.044789e+03	2.719203e+03	0	9.040637e-04
2.700000e+08	2.681167e+13	0.000000e+00	6.854839e-01	5.272737e+14	8.327523e+14	2.071249e+14	1.315085e+04	4.040934e+03	2.716612e+03	0	8.996164e-04
2.800000e+08	2.641813e+13	0.000000e+00	6.854839e-01	5.233767e+14	8.256373e+14	2.060377e+14	1.313468e+04	4.037165e+03	2.714078e+03	0	8.951932e-04
2.900000e+08	2.603050e+13	0.000000e+00	6.854839e-01	5.195355e+14	8.186959e+14	2.049585e+14	1.311863e+04	4.033476e+03	2.711598e+03	0	8.907932e-04
3.000000e+08	2.564860e+13	0.000000e+00	6.854839e-01	5.157486e+14	8.119195e+14	2.038872e+14	1.310269e+04	4.029865e+03	2.709170e+03	0	8.864154e-04
3.100000e+08	2.527230e+13	0.000000e+00	6.854839e-01	5.120146e+14	8.053000e+14	2.028236e+14	1.308687e+04	4.026326e+03	2.706791e+03	0	8.820591e-04
3.200000e+08	2.490145e+13	0.000000e+00	6.854839e-01	5.083322e+14	7.988297e+14	2.017678e+14	1.307116e+04	4.022856e+03	2.704458e+03	0	8.777232e-04
3.300000e+08	2.453590e+13	0.000000e+00	6.854839e-01	5.047000e+14	7.925015e+14	2.007197e+14	1.305557e+04	4.019451e+03	2.702169e+03	0	8.734071e-04
3.400000e+08	2.417553e+13	0.000000e+00	6.854839e-01	5.011168e+14	7.863089e+14	1.996792e+14	1.304009e+04	4.016110e+03	2.699923e+03	0	8.691100e-04
3.500000e+08	2.382021e+13	0.000000e+00	6.854839e-01	4.975816e+14	7.802457e+14	1.986462e+14	1.302472e+04	4.012827e+03	2.697716e+03	0	8.648310e-04
3.600000e+08	2.346981e+13	0.000000e+00	6.854839e-01	4.940930e+14	7.743062e+14	1.976207e+14	1.300945e+04	4.009602e+03	2.695548e+03	0	8.605695e-04
3.700000e+08	2.312422e+13	0.000000e+00	6.854839e-01	4.906502e+14	7.684848e+14	1.966027e+14	1.299430e+04	4.006431e+03	2.693416e+03	0	8.563247e-04
3.800000e+08	2.278334e+13	0.000000e+00	6.854839e-01	4.872519e+14	7.627767e+14	1.955920e+14	1.297925e+04	4.003311e+03	2.691319e+03	0	8.520960e-04
3.900000e+08	2.244704e+13	0.000000e+00	6.854839e-01	4.838973e+14	7.571769e+14	1.945886e+14	1.296430e+04	4.000241e+03	2.689254e+03	0	8.478827e-04
4.000000e+08	2.211524e+13	0.000000e+00	6.854839e-01	4.805853e+14	7.516812e+14	1.935925e+14	1.294945e+04	3.997217e+03	2.687222e+03	0	8.436842e-04
4.100000e+08	2.178782e+13	0.000000e+00	6.854839e-01	4.773151e+14	7.462853e+14	1.926035e+14	1.293471e+04	3.994239e+03	2.685220e+03	0	8.394999e-04
4.200000e+08	2.146469e+13	0.000000e+00	6.854839e-01	4.740857e+14	7.409852e+14	1.916217e+14	1.292007e+04	3.991304e+03	2.683247e+03	0	8.353291e-04
4.300000e+08	2.114576e+13	0.000000e+00	6.854839e-01	4.708963e+14	7.357774e+14	1.906470e+14	1.290552e+04	3.988410e+03	2.681301e+03	0	8.311712e-04
4.400000e+08	2.083094e+13	0.000000e+00	6.854839e-01	4.677461e+14	7.306582e+14	1.896792e+14	1.289107e+04	3.985557e+03	2.679383e+03	0	8.270258e-04
4.500000e+08	2.052015e+13	0.000000e+00	6.854839e-01	4.646342e+14	7.256245e+14	1.887184e+14	1.287672e+04	3.982741e+03	2.677490e+03	0	8.228922e-04
4.600000e+08	2.021330e+13	0.000000e+00	6.854839e-01	4.615599e+14	7.206731e+14	1.877646e+14	1.286247e+04	3.979961e+03	2.675621e+03	0	8.187698e-04
4.700000e+08	1.991031e+13	0.000000e+00	6.854839e-01	4.585224e+14	7.158011e+14	1.868175e+14	1.284831e+04	3.977217e+03	2.673776e+03	0	8.146582e-04
4.800000e+08	1.961111e+13	0.000000e+00	6.854839e-01	4.555211e+14	7.110057e+14	1.858772e+14	1.283424e+04	3.974506e+03	2.671954e+03	0	8.105568e-04
4.900000e+08	1.931561e+13	0.000000e+00	6.854839e-01	4.525552e+14	7.062844e+14	1.849437e+14	1.282026e+04	3.971828e+03	2.670153e+03	0	8.064651e-04
5.000000e+08	1.902375e+13	0.000000e+00	6.854839e-01	4.496240e+14	7.016347e+14	1.840169e+14	1.280638e+04	3.969181e+03	2.668374e+03	0	8.023826e-04
5.100000e+08	1.873546e+13	0.000000e+00	6.854839e-01	4.467268e+14	6.970542e+14	1.830966e+14	1.279258e+04	3.966564e+03	2.666615e+03	0	7.983087e-04
5.200000e+08	1.845067e+13	0.000000e+00	6.854839e-01	4.438632e+14	6.925407e+14	1.821830e+14	1.277887e+04	3.963976e+03	2.664875e+03	0	7.942431e-04
5.300000e+08	1.816930e+13	0.000000e+00	6.854839e-01	4.410323e+14	6.880921e+14	1.812758e+14	1.276525e+04	3.961416e+03	2.663154e+03	0	7.901851e-04
5.400000e+08	1.789131e+13	0.000000e+00	6.854839e-01	4.382337e+14	6.837064e+14	1.803751e+14	1.275172e+04	3.958883e+03	2.661451e+03	0	7.861344e-04
5.500000e+08	1.761662e+13	0.000000e+00	6.854839e-01	4.354667e+14	6.793818e+14	1.794809e+14	1.273827e+04	3.956376e+03	2.659766e+03	0	7.820904e-04
5.600000e+08	1.734518e+13	0.000000e+00	6.854839e-01	4.327309e+14	6.751164e+14	1.785929e+14	1.272491e+04	3.953895e+03	2.658097e+03	0	7.780527e-04
5.700000e+08	1.707692e+13	0.000000e+00	6.854839e-01	4.300255e+14	6.709085e+14	1.777113e+14	1.271163e+04	3.951437e+03	2.656446e+03	0	7.740208e-04
5.800000e+08	1.681180e+13	0.000000e+00	6.854839e-01	4.273501e+14	6.667565e+14	1.768360e+14	1.269844e+04	3.949004e+03	2.654809e+03	0	7.699942e-04
5.900000e+08	1.654975e+13	0.000000e+00	6.854839e-01	4.247043e+14	6.626589e+14	1.759668e+14	1.268532e+04	3.946593e+03	2.653189e+03	0	7.659725e-04
6.000000e+08	1.629072e+13	0.000000e+00	6.854839e-01	4.220874e+14	6.586141e+14	1.751038e+14	1.267229e+04	3.944204e+03	2.651583e+03	0	7.619553e-04
6.100000e+08	1.603465e+13	0.000000e+00	6.854839e-01	4.194990e+14	6.546207e+14	1.742469e+14	1.265934e+04	3.941837e+03	2.649992e+03	0	7.579420e-04
6.200000e+08	1.578151e+13	0.000000e+00	6.854839e-01	4.169386e+14	6.506774e+14	1.733961e+14	1.264647e+04	3.939491e+03	2.648414e+03	0	7.539321e-04
6.300000e+08	1.553123e+13	0.000000e+00	6.854839e-01	4.144057e+14	6.467830e+14	1.725512e+14	1.263367e+04	3.937165e+03	2.646851e+03	0	7.499254e-04
6.400000e+08	1.528377e+13	0.000000e+00	6.854839e-01	4.118999e+14	6.429361e+14	1.717124e+14	1.262095e+04	3.934859e+03	2.645300e+03	0	7.459212e-04
6.500000e+08	1.503909e+13	0.000000e+00	6.854839e-01	4.094208e+14	6.391356e+14	1.708794e+14	1.260831e+04	3.932571e+03	2.643762e+03	0	7.419192e-04
6.600000e+08	1.479713e+13	0.000000e+00	6.854839e-01	4.069678e+14	6.353803e+14	1.700523e+14	1.259575e+04	3.930303e+03	2.642237e+03	0	7.379188e-04
6.700000e+08	1.455785e+13	0.000000e+00	6.854839e-01	4.045407e+14	6.316693e+14	1.692310e+14	1.258326e+04	3.928052e+03	2.640724e+03	0	7.339196e-04
6.800000e+08	1.432121e+13	0.000000e+00	6.854839e-01	4.021389e+14	6.280014e+14	1.684155e+14	1.257084e+04	3.925819e+03	2.639223e+03	0	7.299212e-04
6.900000e+08	1.408716e+13	0.000000e+00	6.854839e-01	3.997621e+14	6.243757e+14	1.676057e+14	1.255850e+04	3.923603e+03	2.637733e+03	0	7.259231e-04
7.000000e+08	1.385567e+13	0.000000e+00	6.854839e-01	3.974099e+14	6.207913e+14	1.668016e+14	1.254623e+04	3.921404e+03	2.636255e+03	0	7.219248e-04
7.100000e+08	1.362669e+13	0.000000e+00	6.854839e-01	3.950820e+14	6.172471e+14	1.660031e+14	1.253404e+04	3.919221e+03	2.634787e+03	0	7.179258e-04
7.200000e+08	1.340018e+13	0.000000e+00	6.854839e-01	3.927778e+14	6.137423e+14	1.652101e+14	1.252191e+04	3.917054e+03	2.633330e+03	0	7.139257e-04
7.300000e+08	1.317611e+13	0.000000e+00	6.854839e-01	3.904971e+14	6.102761e+14	1.644228e+14	1.250986e+04	3.914903e+03	2.631884e+03	0	7.099240e-04
7.400000e+08	1.295444e+13	0.000000e+00	6.854839e-01	3.882395e+14	6.068477e+14	1.636409e+14	1.249787e+04	3.912766e+03	2.630448e+03	0	7.059201e-04
7.500000e+08	1.273512e+13	0.000000e+00	6.854839e-01	3.860047e+14	6.034562e+14	1.628645e+14	1.248595e+04	3.910645e+03	2.629022e+03	0	7.019137e-04
7.600000e+08	1.251812e+13	0.000000e+00	6.854839e-01	3.837922e+14	6.001010e+14	1.620935e+14	1.247411e+04	3.908538e+03	2.627605e+03	0	6.979042e-04
7.700000e+08	1.230342e+13	0.000000e+00	6.854839e-01	3.816019e+14	5.967812e+14	1.613278e+14	1.246233e+04	3.906445e+03	2.626198e+03	0	6.938911e-04
7.800000e+08	1.209096e+13	0.000000e+00	6.854839e-01	3.794333e+14	5.934963e+14	1.605675e+14	1.245062e+04	3.904366e+03	2.624801e+03	0	6.898739e-04
7.900000e+08	1.188073e+13	0.000000e+00	6.854839e-01	3.772862e+14	5.902455e+14	1.598124e+14	1.243897e+04	3.902300e+03	2.623412e+03	0	6.858521e-04
8.000000e+08	1.167268e+13	0.000000e+00	6.854839e-01	3.751602e+14	5.870282e+14	1.590626e+14	1.242739e+04	3.900248e+03	2.622032e+03	0	6.818251e-04
8.100000e+08	1.146679e+13	0.000000e+00	6.854839e-01	3.730550e+14	5.838437e+14	1.583180e+14	1.241587e+04	3.898209e+03	2.620661e+03	0	6.777923e-04
8.200000e+08	1.126301e+13	0.000000e+00	6.854839e-01	3.709703e+14	5.806914e+14	1.575785e+14	1.240442e+04	3.896183e+03	2.619299e+03	0	6.737534e-04
8.300000e+08	1.106133e+13	0.000000e+00	6.854839e-01	3.689058e+14	5.775708e+14	1.568442e+14	1.239304e+04	3.894169e+03	2.617945e+03	0	6.697076e-04
8.400000e+08	1.086171e+13	0.000000e+00	6.854839e-01	3.668613e+14	5.744813e+14	1.561149e+14	1.238171e+04	3.892167e+03	2.616599e+03	0	6.656544e-04
8.500000e+08	1.066412e+13	0.000000e+00	6.854839e-01	3.648365e+14	5.714222e+14	1.553907e+14	1.237045e+04	3.890177e+03	2.615262e+03	0	6.615933e-04
8.600000e+08	1.046853e+13	0.000000e+00	6.854839e-01	3.628310e+14	5.683932e+14	1.546714e+14	1.235925e+04	3.888199e+03	2.613932e+03	0	6.575235e-04
8.700000e+08	1.027491e+13	0.000000e+00	6.854839e-01	3.608446e+14	5.653936e+14	1.539571e+14	1.234812e+04	3.886233e+03	2.612610e+03	0	6.534446e-04
8.800000e+08	1.008324e+13	0.000000e+00	6.854839e-01	3.588771e+14	5.624230e+14	1.532477e+14	1.233704e+04	3.884278e+03	2.611296e+03	0	6.493559e-04
8.900000e+08	9.893484e+12	0.000000e+00	6.854839e-01	3.569281e+14	5.594809e+14	1.525432e+14	1.232602e+04	3.882335e+03	2.609989e+03	0	6.452567e-04
9.000000e+08	9.705618e+12	0.000000e+00	6.854839e-01	3.549975e+14	5.565667e+14	1.518435e+14	1.231507e+04	3.880402e+03	2.608690e+03	0	6.411463e-04
9.100000e+08	9.519616e+12	0.000000e+00	6.854839e-01	3.530849e+14	5.536801e+14	1.511486e+14	1.230417e+04	3.878480e+03	2.607398e+03	0	6.370241e-04
9.200000e+08	9.335452e+12	0.000000e+00	6.854839e-01	3.511902e+14	5.508207e+14	1.504585e+14	1.229333e+04	3.876569e+03	2.606113e+03	0	6.328895e-04
9.300000e+08	9.153100e+12	0.000000e+00	6.854839e-01	3.493131e+14	5.479879e+14	1.497731e+14	1.228255e+04	3.874668e+03	2.604836e+03	0	6.287415e-04
9.400000e+08	8.972535e+12	0.000000e+00	6.854839e-01	3.474533e+14	5.451813e+14	1.490924e+14	1.227183e+04	3.872778e+03	2.603565e+03	0	6.245796e-04
9.500000e+08	8.793734e+12	0.000000e+00	6.854839e-01	3.456106e+14	5.424006e+14	1.484163e+14	1.226116e+04	3.870897e+03	2.602301e+03	0	6.204029e-04
9.600000e+08	8.616671e+12	0.000000e+00	6.854839e-01	3.437849e+14	5.396453e+14	1.477449e+14	1.225055e+04	3.869027e+03	2.601043e+03	0	6.162107e-04
9.700000e+08	8.441323e+12	0.000000e+00	6.854839e-01	3.419758e+14	5.369150e+14	1.470780e+14	1.224000e+04	3.867167e+03	2.599792e+03	0	6.120021e-04
9.800000e+08	8.267667e+12	0.000000e+00	6.854839e-01	3.401831e+14	5.342095e+14	1.464156e+14	1.222950e+04	3.865316e+03	2.598548e+03	0	6.077763e-04
9.900000e+08	8.095681e+12	0.000000e+00	6.854839e-01	3.384067e+14	5.315282e+14	1.457578e+14	1.221905e+04	3.863475e+03	2.597310e+03	0	6.035323e-04
1.000000e+09	7.925342e+12	0.000000e+00	6.854839e-01	3.366463e+14	5.288709e+14	1.451044e+14	1.220866e+04	3.861643e+03	2.596079e+03	0	5.992694e-04
1.010000e+09	7.756628e+12	0.000000e+00	6.854839e-01	3.349017e+14	5.262372e+14	1.444554e+14	1.219833e+04	3.859820e+03	2.594854e+03	0	5.949864e-04
1.020000e+09	7.589518e+12	0.000000e+00	6.854839e-01	3.331728e+14	5.236267e+14	1.438109e+14	1.218805e+04	3.858007e+03	2.593635e+03	0	5.906825e-04
1.030000e+09	7.423990e+12	0.000000e+00	6.854839e-01	3.314592e+14	5.210392e+14	1.431707e+14	1.217782e+04	3.856203e+03	2.592422e+03	0	5.863567e-04
1.040000e+09	7.260024e+12	0.000000e+00	6.854839e-01	3.297609e+14	5.184742e+14	1.425348e+14	1.216764e+04	3.854407e+03	2.591215e+03	0	5.820077e-04
1.050000e+09	7.097599e+12	0.000000e+00	6.854839e-01	3.280775e+14	5.159316e+14	1.419032e+14	1.215752e+04	3.852621e+03	2.590014e+03	0	5.776346e-04
1.060000e+09	6.936696e+12	0.000000e+00	6.854839e-01	3.264090e+14	5.134109e+14	1.412759e+14	1.214745e+04	3.850843e+03	2.588819e+03	0	5.732362e-04
1.070000e+09	6.777295e+12	0.000000e+00	6.854839e-01	3.247552e+14	5.109119e+14	1.406528e+14	1.213743e+04	3.849074e+03	2.587629e+03	0	5.688113e-04
1.080000e+09	6.619376e+12	0.000000e+00	6.854839e-01	3.231158e+14	5.084343e+14	1.400339e+14	1.212746e+04	3.847313e+03	2.586445e+03	0	5.643585e-04
1.090000e+09	6.462920e+12	0.000000e+00	6.854839e-01	3.214906e+14	5.059777e+14	1.394192e+14	1.211753e+04	3.845560e+03	2.585267e+03	0	5.598766e-04
1.100000e+09	6.307909e+12	0.000000e+00	6.854839e-01	3.198796e+14	5.035420e+14	1.388086e+14	1.210766e+04	3.843816e+03	2.584095e+03	0	5.553642e-04
1.110000e+09	6.154325e+12	0.000000e+00	6.854839e-01	3.182825e+14	5.011268e+14	1.382021e+14	1.209784e+04	3.842080e+03	2.582928e+03	0	5.508198e-04
1.120000e+09	6.002148e+12	0.000000e+00	6.854839e-01	3.166992e+14	4.987319e+14	1.375996e+14	1.208807e+04	3.840352e+03	2.581766e+03	0	5.462419e-04
1.130000e+09	5.851363e+12	0.000000e+00	6.854839e-01	3.151294e+14	4.963569e+14	1.370012e+14	1.207835e+04	3.838633e+03	2.580610e+03	0	5.416288e-04
1.140000e+09	5.701950e+12	0.000000e+00	6.854839e-01	3.135730e+14	4.940017e+14	1.364068e+14	1.206867e+04	3.836921e+03	2.579459e+03	0	5.369789e-04
1.150000e+09	5.553893e+12	0.000000e+00	6.854839e-01	3.120299e+14	4.916660e+14	1.358163e+14	1.205904e+04	3.835216e+03	2.578313e+03	0	5.322903e-04
1.160000e+09	5.407175e+12	0.000000e+00	6.854839e-01	3.104999e+14	4.893495e+14	1.352298e+14	1.204946e+04	3.833520e+03	2.577173e+03	0	5.275612e-04
1.170000e+09	5.261780e+12	0.000000e+00	6.854839e-01	3.089828e+14	4.870520e+14	1.346472e+14	1.203993e+04	3.831831e+03	2.576037e+03	0	5.227896e-04
1.180000e+09	5.117691e+12	0.000000e+00	6.854839e-01	3.074786e+14	4.847733e+14	1.340685e+14	1.203044e+04	3.830150e+03	2.574907e+03	0	5.179733e-04
1.190000e+09	4.974891e+12	0.000000e+00	6.854839e-01	3.059869e+14	4.825131e+14	1.334936e+14	1.202100e+04	3.828476e+03	2.573782e+03	0	5.131101e-04
1.200000e+09	4.833366e+12	0.000000e+00	6.854839e-01	3.045077e+14	4.802711e+14	1.329225e+14	1.201161e+04	3.826810e+03	2.572662e+03	0	5.081976e-04
1.210000e+09	4.693100e+12	0.000000e+00	6.854839e-01	3.030408e+14	4.780473e+14	1.323553e+14	1.200226e+04	3.825151e+03	2.571546e+03	0	5.032333e-04
1.220000e+09	4.554077e+12	0.000000e+00	6.854839e-01	3.015861e+14	4.758413e+14	1.317917e+14	1.199295e+04	3.823499e+03	2.570436e+03	0	4.982143e-04
1.230000e+09	4.416282e+12	0.000000e+00	6.854839e-01	3.001434e+14	4.736529e+14	1.312320e+14	1.198369e+04	3.821854e+03	2.569330e+03	0	4.931379e-04
1.240000e+09	4.279701e+12	0.000000e+00	6.854839e-01	2.987127e+14	4.714820e+14	1.306759e+14	1.197447e+04	3.820217e+03	2.568229e+03	0	4.880008e-04
1.250000e+09	4.144319e+12	0.000000e+00	6.854839e-01	2.972937e+14	4.693282e+14	1.301235e+14	1.196530e+04	3.818586e+03	2.567133e+03	0	4.827999e-04
1.260000e+09	4.010121e+12	0.000000e+00	6.854839e-01	2.958863e+14	4.671915e+14	1.295747e+14	1.195617e+04	3.816963e+03	2.566042e+03	0	4.775314e-04
1.270000e+09	3.877094e+12	0.000000e+00	6.854839e-01	2.944904e+14	4.650716e+14	1.290295e+14	1.194709e+04	3.815346e+03	2.564955e+03	0	4.721915e-04
1.280000e+09	3.745223e+12	0.000000e+00	6.854839e-01	2.931058e+14	4.629683e+14	1.284879e+14	1.193804e+04	3.813736e+03	2.563873e+03	0	4.667761e-04
1.290000e+09	3.614495e+12	0.000000e+00	6.854839e-01	2.917325e+14	4.608814e+14	1.279499e+14	1.192904e+04	3.812133e+03	2.562795e+03	0	4.612807e-04
1.300000e+09	3.484896e+12	0.000000e+00	6.854839e-01	2.903702e+14	4.588107e+14	1.274154e+14	1.192009e+04	3.810537e+03	2.561722e+03	0	4.557004e-04
1.310000e+09	3.356414e+12	0.000000e+00	6.854839e-01	2.890189e+14	4.567561e+14	1.268845e+14	1.191117e+04	3.808948e+03	2.560653e+03	0	4.500298e-04
1.320000e+09	3.229034e+12	0.000000e+00	6.854839e-01	2.876785e+14	4.547173e+14	1.263570e+14	1.190229e+04	3.807365e+03	2.559589e+03	0	4.442632e-04
1.330000e+09	3.102745e+12	0.000000e+00	6.854839e-01	2.863487e+14	4.526943e+14	1.258329e+14	1.189346e+04	3.805788e+03	2.558529e+03	0	4.383942e-04
1.340000e+09	2.977533e+12	0.000000e+00	6.854839e-01	2.850296e+14	4.506867e+14	1.253123e+14	1.188467e+04	3.804218e+03	2.557474e+03	0	4.324158e-04
1.350000e+09	2.853386e+12	0.000000e+00	6.854839e-01	2.837209e+14	4.486945e+14	1.247950e+14	1.187591e+04	3.802655e+03	2.556423e+03	0	4.263205e-04
1.360000e+09	2.730291e+12	0.000000e+00	6.854839e-01	2.824226e+14	4.467174e+14	1.242812e+14	1.186720e+04	3.801097e+03	2.555376e+03	0	4.200997e-04
