#t		Qconv[W]	Ri[Rp]		R*[Rp]		Qc[W]		Qm[W]		Qr[W]		Tcmb[K]		Tl[K]		Tup[K]		RiFlag		Bs[T]
0.000000e+00	4.428175e+13	0.000000e+00	6.854840e-01	7.414014e+14	1.179674e+15	2.574328e+14	1.419444e+04	4.281458e+03	2.850577e+03	0	1.058570e-03
1.000000e+07	4.358451e+13	0.000000e+00	6.854840e-01	7.348506e+14	1.164938e+15	2.560064e+14	1.417376e+04	4.275032e+03	2.846299e+03	0	1.052985e-03
2.000000e+07	4.290125e+13	0.000000e+00	6.854840e-01	7.284251e+14	1.150804e+15	2.545907e+14	1.415325e+04	4.268844e+03	2.842179e+03	0	1.047453e-03
3.000000e+07	4.223139e+13	0.000000e+00	6.854840e-01	7.221201e+14	1.137228e+15	2.531856e+14	1.413293e+04	4.262877e+03	2.838206e+03	0	1.041973e-03
4.000000e+07	4.157440e+13	0.000000e+00	6.854840e-01	7.159308e+14	1.124171e+15	2.517910e+14	1.411278e+04	4.257117e+03	2.834371e+03	0	1.036542e-03
5.000000e+07	4.092979e+13	0.000000e+00	6.854840e-01	7.098529e+14	1.111595e+15	2.504068e+14	1.409280e+04	4.251550e+03	2.830665e+03	0	1.031156e-03
6.000000e+07	4.029710e+13	0.000000e+00	6.854840e-01	7.038823e+14	1.099469e+15	2.490329e+14	1.407299e+04	4.246163e+03	2.827078e+03	0	1.025816e-03
7.000000e+07	3.967590e+13	0.000000e+00	6.854840e-01	6.980153e+14	1.087762e+15	2.476692e+14	1.405335e+04	4.240944e+03	2.823603e+03	0	1.020517e-03
8.000000e+07	3.906578e+13	0.000000e+00	6.854840e-01	6.922481e+14	1.076446e+15	2.463156e+14	1.403387e+04	4.235883e+03	2.820233e+03	0	1.015259e-03
9.000000e+07	3.846637e+13	0.000000e+00	6.854840e-01	6.865776e+14	1.065497e+15	2.449722e+14	1.401455e+04	4.230969e+03	2.816962e+03	0	1.010040e-03
1.000000e+08	3.787729e+13	0.000000e+00	6.854840e-01	6.810004e+14	1.054891e+15	2.436387e+14	1.399539e+04	4.226195e+03	2.813783e+03	0	1.004857e-03
1.100000e+08	3.729821e+13	0.000000e+00	6.854840e-01	6.755137e+14	1.044606e+15	2.423151e+14	1.397638e+04	4.221551e+03	2.810691e+03	0	9.997101e-04
1.200000e+08	3.672882e+13	0.000000e+00	6.854840e-01	6.701145e+14	1.034625e+15	2.410013e+14	1.395753e+04	4.217029e+03	2.807681e+03	0	9.945968e-04
1.300000e+08	3.616881e+13	0.000000e+00	6.854840e-01	6.648002e+14	1.024929e+15	2.396972e+14	1.393882e+04	4.212623e+03	2.804747e+03	0	9.895159e-04
1.400000e+08	3.561789e+13	0.000000e+00	6.854840e-01	6.595683e+14	1.015501e+15	2.384028e+14	1.392027e+04	4.208325e+03	2.801885e+03	0	9.844662e-04
1.500000e+08	3.507579e+13	0.000000e+00	6.854840e-01	6.544163e+14	1.006326e+15	2.371180e+14	1.390186e+04	4.204129e+03	2.799092e+03	0	9.794462e-04
1.600000e+08	3.454227e+13	0.000000e+00	6.854840e-01	6.493421e+14	9.973906e+14	2.358426e+14	1.388359e+04	4.200031e+03	2.796363e+03	0	9.744548e-04
1.700000e+08	3.401706e+13	0.000000e+00	6.854840e-01	6.443434e+14	9.886816e+14	2.345767e+14	1.386547e+04	4.196023e+03	2.793695e+03	0	9.694908e-04
1.800000e+08	3.349995e+13	0.000000e+00	6.854840e-01	6.394181e+14	9.801869e+14	2.333201e+14	1.384748e+04	4.192102e+03	2.791084e+03	0	9.645531e-04
1.900000e+08	3.299071e+13	0.000000e+00	6.854840e-01	6.345644e+14	9.718955e+14	2.320727e+14	1.382964e+04	4.188263e+03	2.788528e+03	0	9.596406e-04
2.000000e+08	3.248913e+13	0.000000e+00	6.854840e-01	6.297803e+14	9.637970e+14	2.308345e+14	1.381192e+04	4.184500e+03	2.786023e+03	0	9.547524e-04
2.100000e+08	3.199500e+13	0.000000e+00	6.854840e-01	6.250640e+14	9.558820e+14	2.296055e+14	1.379434e+04	4.180812e+03	2.783567e+03	0	9.498874e-04
2.200000e+08	3.150814e+13	0.000000e+00	6.854840e-01	6.204139e+14	9.481414e+14	2.283854e+14	1.377690e+04	4.177192e+03	2.781158e+03	0	9.450447e-04
2.300000e+08	3.102837e+13	0.000000e+00	6.854840e-01	6.158283e+14	9.405671e+14	2.271743e+14	1.375958e+04	4.173639e+03	2.778792e+03	0	9.402234e-04
2.400000e+08	3.055550e+13	0.000000e+00	6.854840e-01	6.113056e+14	9.331513e+14	2.259721e+14	1.374238e+04	4.170149e+03	2.776468e+03	0	9.354226e-04
2.500000e+08	3.008937e+13	0.000000e+00	6.854840e-01	6.068444e+14	9.258868e+14	2.247787e+14	1.372532e+04	4.166718e+03	2.774184e+03	0	9.306415e-04
2.600000e+08	2.962981e+13	0.000000e+00	6.854840e-01	6.024432e+14	9.187669e+14	2.235941e+14	1.370838e+04	4.163345e+03	2.771938e+03	0	9.258793e-04
2.700000e+08	2.917668e+13	0.000000e+00	6.854840e-01	5.981006e+14	9.117853e+14	2.224181e+14	1.369156e+04	4.160025e+03	2.769728e+03	0	9.211352e-04
2.800000e+08	2.872983e+13	0.000000e+00	6.854840e-01	5.938153e+14	9.049362e+14	2.212506e+14	1.367486e+04	4.156758e+03	2.767552e+03	0	9.164084e-04
2.900000e+08	2.828910e+13	0.000000e+00	6.854840e-01	5.895861e+14	8.982141e+14	2.200917e+14	1.365828e+04	4.153539e+03	2.765410e+03	0	9.116983e-04
3.000000e+08	2.785437e+13	0.000000e+00	6.854840e-01	5.854116e+14	8.916137e+14	2.189413e+14	1.364182e+04	4.150368e+03	2.763298e+03	0	9.070040e-04
3.100000e+08	2.742550e+13	0.000000e+00	6.854840e-01	5.812908e+14	8.851304e+14	2.177992e+14	1.362548e+04	4.147242e+03	2.761217e+03	0	9.023249e-04
3.200000e+08	2.700237e+13	0.000000e+00	6.854840e-01	5.772224e+14	8.787594e+14	2.166654e+14	1.360925e+04	4.144159e+03	2.759164e+03	0	8.976603e-04
3.300000e+08	2.658484e+13	0.000000e+00	6.854840e-01	5.732054e+14	8.724966e+14	2.155399e+14	1.359313e+04	4.141118e+03	2.757139e+03	0	8.930095e-04
3.400000e+08	2.617281e+13	0.000000e+00	6.854840e-01	5.692387e+14	8.663380e+14	2.144226e+14	1.357713e+04	4.138116e+03	2.755140e+03	0	8.883720e-04
3.500000e+08	2.576615e+13	0.000000e+00	6.854840e-01	5.653213e+14	8.602797e+14	2.133134e+14	1.356124e+04	4.135152e+03	2.753167e+03	0	8.837470e-04
3.600000e+08	2.536477e+13	0.000000e+00	6.854840e-01	5.614522e+14	8.543182e+14	2.122122e+14	1.354545e+04	4.132224e+03	2.751218e+03	0	8.791339e-04
3.700000e+08	2.496854e+13	0.000000e+00	6.854840e-01	5.576305e+14	8.484501e+14	2.111189e+14	1.352978e+04	4.129332e+03	2.749292e+03	0	8.745322e-04
3.800000e+08	2.457737e+13	0.000000e+00	6.854840e-01	5.538551e+14	8.426724e+14	2.100336e+14	1.351421e+04	4.126473e+03	2.747389e+03	0	8.699411e-04
3.900000e+08	2.419116e+13	0.000000e+00	6.854840e-01	5.501253e+14	8.369818e+14	2.089562e+14	1.349874e+04	4.123647e+03	2.745507e+03	0	8.653603e-04
4.000000e+08	2.380980e+13	0.000000e+00	6.854840e-01	5.464401e+14	8.313758e+14	2.078865e+14	1.348338e+04	4.120852e+03	2.743646e+03	0	8.607889e-04
4.100000e+08	2.343321e+13	0.000000e+00	6.854840e-01	5.427987e+14	8.258514e+14	2.068245e+14	1.346812e+04	4.118087e+03	2.741806e+03	0	8.562265e-04
4.200000e+08	2.306130e+13	0.000000e+00	6.854840e-01	5.392003e+14	8.204063e+14	2.057702e+14	1.345296e+04	4.115351e+03	2.739984e+03	0	8.516726e-04
4.300000e+08	2.269397e+13	0.000000e+00	6.854840e-01	5.356440e+14	8.150379e+14	2.047235e+14	1.343791e+04	4.112644e+03	2.738181e+03	0	8.471265e-04
4.400000e+08	2.233115e+13	0.000000e+00	6.854840e-01	5.321292e+14	8.097441e+14	2.036843e+14	1.342295e+04	4.109963e+03	2.736396e+03	0	8.425876e-04
4.500000e+08	2.197274e+13	0.000000e+00	6.854840e-01	5.286551e+14	8.045226e+14	2.026526e+14	1.340809e+04	4.107308e+03	2.734629e+03	0	8.380555e-04
4.600000e+08	2.161866e+13	0.000000e+00	6.854840e-01	5.252209e+14	7.993713e+14	2.016282e+14	1.339333e+04	4.104679e+03	2.732879e+03	0	8.335296e-04
4.700000e+08	2.126885e+13	0.000000e+00	6.854840e-01	5.218259e+14	7.942884e+14	2.006113e+14	1.337866e+04	4.102075e+03	2.731144e+03	0	8.290093e-04
4.800000e+08	2.092322e+13	0.000000e+00	6.854840e-01	5.184694e+14	7.892718e+14	1.996016e+14	1.336409e+04	4.099494e+03	2.729426e+03	0	8.244941e-04
4.900000e+08	2.058169e+13	0.000000e+00	6.854840e-01	5.151509e+14	7.843200e+14	1.985991e+14	1.334961e+04	4.096936e+03	2.727723e+03	0	8.199834e-04
5.000000e+08	2.024420e+13	0.000000e+00	6.854840e-01	5.118695e+14	7.794310e+14	1.976038e+14	1.333522e+04	4.094400e+03	2.726035e+03	0	8.154768e-04
5.100000e+08	1.991067e+13	0.000000e+00	6.854840e-01	5.086248e+14	7.746034e+14	1.966157e+14	1.332093e+04	4.091886e+03	2.724361e+03	0	8.109736e-04
5.200000e+08	1.958104e+13	0.000000e+00	6.854840e-01	5.054160e+14	7.698356e+14	1.956346e+14	1.330672e+04	4.089394e+03	2.722702e+03	0	8.064733e-04
5.300000e+08	1.925524e+13	0.000000e+00	6.854840e-01	5.022426e+14	7.651260e+14	1.946604e+14	1.329261e+04	4.086921e+03	2.721055e+03	0	8.019753e-04
5.400000e+08	1.893320e+13	0.000000e+00	6.854840e-01	4.991039e+14	7.604734e+14	1.936932e+14	1.327858e+04	4.084469e+03	2.719423e+03	0	7.974792e-04
5.500000e+08	1.861486e+13	0.000000e+00	6.854840e-01	4.959995e+14	7.558762e+14	1.927329e+14	1.326464e+04	4.082036e+03	2.717803e+03	0	7.929844e-04
5.600000e+08	1.830016e+13	0.000000e+00	6.854840e-01	4.929287e+14	7.513333e+14	1.917794e+14	1.325079e+04	4.079622e+03	2.716195e+03	0	7.884903e-04
5.700000e+08	1.798904e+13	0.000000e+00	6.854840e-01	4.898910e+14	7.468434e+14	1.908327e+14	1.323702e+04	4.077226e+03	2.714600e+03	0	7.839964e-04
5.800000e+08	1.768144e+13	0.000000e+00	6.854840e-01	4.868858e+14	7.424052e+14	1.898928e+14	1.322334e+04	4.074848e+03	2.713017e+03	0	7.795020e-04
5.900000e+08	1.737730e+13	0.000000e+00	6.854840e-01	4.839127e+14	7.380177e+14	1.889594e+14	1.320974e+04	4.072487e+03	2.711445e+03	0	7.750068e-04
6.000000e+08	1.707656e+13	0.000000e+00	6.854840e-01	4.809712e+14	7.336797e+14	1.880327e+14	1.319622e+04	4.070144e+03	2.709885e+03	0	7.705099e-04
6.100000e+08	1.677918e+13	0.000000e+00	6.854840e-01	4.780607e+14	7.293902e+14	1.871125e+14	1.318279e+04	4.067817e+03	2.708336e+03	0	7.660110e-04
6.200000e+08	1.648510e+13	0.000000e+00	6.854840e-01	4.751808e+14	7.251482e+14	1.861989e+14	1.316944e+04	4.065507e+03	2.706798e+03	0	7.615093e-04
6.300000e+08	1.619426e+13	0.000000e+00	6.854840e-01	4.723309e+14	7.209526e+14	1.852917e+14	1.315616e+04	4.063212e+03	2.705270e+03	0	7.570044e-04
6.400000e+08	1.590661e+13	0.000000e+00	6.854840e-01	4.695107e+14	7.168026e+14	1.843908e+14	1.314297e+04	4.060933e+03	2.703753e+03	0	7.524956e-04
6.500000e+08	1.562211e+13	0.000000e+00	6.854840e-01	4.667196e+14	7.126973e+14	1.834964e+14	1.312986e+04	4.058669e+03	2.702245e+03	0	7.479823e-04
6.600000e+08	1.534070e+13	0.000000e+00	6.854840e-01	4.639573e+14	7.086357e+14	1.826082e+14	1.311682e+04	4.056420e+03	2.700748e+03	0	7.434638e-04
6.700000e+08	1.506234e+13	0.000000e+00	6.854840e-01	4.612232e+14	7.046170e+14	1.817263e+14	1.310386e+04	4.054186e+03	2.699260e+03	0	7.389396e-04
6.800000e+08	1.478699e+13	0.000000e+00	6.854840e-01	4.585171e+14	7.006404e+14	1.808505e+14	1.309098e+04	4.051966e+03	2.697782e+03	0	7.344090e-04
6.900000e+08	1.451458e+13	0.000000e+00	6.854840e-01	4.558384e+14	6.967051e+14	1.799809e+14	1.307817e+04	4.049760e+03	2.696313e+03	0	7.298713e-04
7.000000e+08	1.424509e+13	0.000000e+00	6.854840e-01	4.531867e+14	6.928103e+14	1.791174e+14	1.306543e+04	4.047567e+03	2.694854e+03	0	7.253258e-04
7.100000e+08	1.397847e+13	0.000000e+00	6.854840e-01	4.505617e+14	6.889554e+14	1.782600e+14	1.305277e+04	4.045388e+03	2.693403e+03	0	7.207720e-04
7.200000e+08	1.371466e+13	0.000000e+00	6.854840e-01	4.479629e+14	6.851395e+14	1.774085e+14	1.304019e+04	4.043222e+03	2.691961e+03	0	7.162090e-04
7.300000e+08	1.345364e+13	0.000000e+00	6.854840e-01	4.453900e+14	6.813620e+14	1.765630e+14	1.302767e+04	4.041070e+03	2.690528e+03	0	7.116362e-04
7.400000e+08	1.319536e+13	0.000000e+00	6.854840e-01	4.428427e+14	6.776223e+14	1.757234e+14	1.301523e+04	4.038930e+03	2.689103e+03	0	7.070528e-04
7.500000e+08	1.293978e+13	0.000000e+00	6.854840e-01	4.403205e+14	6.739197e+14	1.748897e+14	1.300286e+04	4.036802e+03	2.687686e+03	0	7.024580e-04
7.600000e+08	1.268686e+13	0.000000e+00	6.854840e-01	4.378230e+14	6.702535e+14	1.740617e+14	1.299056e+04	4.034687e+03	2.686278e+03	0	6.978512e-04
7.700000e+08	1.243656e+13	0.000000e+00	6.854840e-01	4.353500e+14	6.666232e+14	1.732395e+14	1.297833e+04	4.032584e+03	2.684878e+03	0	6.932314e-04
7.800000e+08	1.218885e+13	0.000000e+00	6.854840e-01	4.329010e+14	6.630281e+14	1.724231e+14	1.296617e+04	4.030492e+03	2.683485e+03	0	6.885978e-04
7.900000e+08	1.194368e+13	0.000000e+00	6.854840e-01	4.304759e+14	6.594676e+14	1.716123e+14	1.295407e+04	4.028413e+03	2.682101e+03	0	6.839497e-04
8.000000e+08	1.170103e+13	0.000000e+00	6.854840e-01	4.280741e+14	6.559414e+14	1.708071e+14	1.294205e+04	4.026345e+03	2.680724e+03	0	6.792861e-04
8.100000e+08	1.146085e+13	0.000000e+00	6.854840e-01	4.256954e+14	6.524486e+14	1.700075e+14	1.293009e+04	4.024288e+03	2.679355e+03	0	6.746061e-04
8.200000e+08	1.122310e+13	0.000000e+00	6.854840e-01	4.233395e+14	6.489889e+14	1.692134e+14	1.291820e+04	4.022243e+03	2.677993e+03	0	6.699089e-04
8.300000e+08	1.098777e+13	0.000000e+00	6.854840e-01	4.210060e+14	6.455618e+14	1.684249e+14	1.290637e+04	4.020208e+03	2.676638e+03	0	6.651933e-04
8.400000e+08	1.075480e+13	0.000000e+00	6.854840e-01	4.186947e+14	6.421667e+14	1.676417e+14	1.289461e+04	4.018184e+03	2.675291e+03	0	6.604585e-04
8.500000e+08	1.052417e+13	0.000000e+00	6.854840e-01	4.164052e+14	6.388031e+14	1.668640e+14	1.288291e+04	4.016171e+03	2.673951e+03	0	6.557033e-04
8.600000e+08	1.029585e+13	0.000000e+00	6.854840e-01	4.141373e+14	6.354706e+14	1.660917e+14	1.287128e+04	4.014169e+03	2.672617e+03	0	6.509268e-04
8.700000e+08	1.006980e+13	0.000000e+00	6.854840e-01	4.118906e+14	6.321687e+14	1.653246e+14	1.285970e+04	4.012177e+03	2.671291e+03	0	6.461278e-04
8.800000e+08	9.845999e+12	0.000000e+00	6.854840e-01	4.096649e+14	6.288969e+14	1.645628e+14	1.284820e+04	4.010195e+03	2.669971e+03	0	6.413051e-04
8.900000e+08	9.624407e+12	0.000000e+00	6.854840e-01	4.074599e+14	6.256549e+14	1.638063e+14	1.283675e+04	4.008223e+03	2.668659e+03	0	6.364575e-04
9.000000e+08	9.404996e+12	0.000000e+00	6.854840e-01	4.052753e+14	6.224421e+14	1.630550e+14	1.282537e+04	4.006262e+03	2.667353e+03	0	6.315838e-04
9.100000e+08	9.187738e+12	0.000000e+00	6.854840e-01	4.031109e+14	6.192582e+14	1.623088e+14	1.281404e+04	4.004310e+03	2.666053e+03	0	6.266826e-04
9.200000e+08	8.972603e+12	0.000000e+00	6.854840e-01	4.009663e+14	6.161028e+14	1.615677e+14	1.280278e+04	4.002367e+03	2.664760e+03	0	6.217525e-04
9.300000e+08	8.759563e+12	0.000000e+00	6.854840e-01	3.988414e+14	6.129754e+14	1.608317e+14	1.279158e+04	4.000435e+03	2.663473e+03	0	6.167922e-04
9.400000e+08	8.548590e+12	0.000000e+00	6.854840e-01	3.967358e+14	6.098757e+14	1.601007e+14	1.278043e+04	3.998511e+03	2.662193e+03	0	6.118001e-04
9.500000e+08	8.339656e+12	0.000000e+00	6.854840e-01	3.946494e+14	6.068032e+14	1.593747e+14	1.276935e+04	3.996598e+03	2.660918e+03	0	6.067747e-04
9.600000e+08	8.132734e+12	0.000000e+00	6.854840e-01	3.925818e+14	6.037577e+14	1.586537e+14	1.275832e+04	3.994693e+03	2.659650e+03	0	6.017142e-04
9.700000e+08	7.927798e+12	0.000000e+00	6.854840e-01	3.905329e+14	6.007387e+14	1.579375e+14	1.274735e+04	3.992798e+03	2.658388e+03	0	5.966170e-04
9.800000e+08	7.724821e+12	0.000000e+00	6.854840e-01	3.885023e+14	5.977459e+14	1.572263e+14	1.273644e+04	3.990911e+03	2.657132e+03	0	5.914811e-04
9.900000e+08	7.523779e+12	0.000000e+00	6.854840e-01	3.864899e+14	5.947790e+14	1.565199e+14	1.272558e+04	3.989034e+03	2.655882e+03	0	5.863047e-04
1.000000e+09	7.324644e+12	0.000000e+00	6.854840e-01	3.844954e+14	5.918375e+14	1.558182e+14	1.271478e+04	3.987165e+03	2.654638e+03	0	5.810858e-04
1.010000e+09	7.127394e+12	0.000000e+00	6.854840e-01	3.825186e+14	5.889212e+14	1.551214e+14	1.270404e+04	3.985305e+03	2.653400e+03	0	5.758221e-04
1.020000e+09	6.932003e+12	0.000000e+00	6.854840e-01	3.805592e+14	5.860298e+14	1.544292e+14	1.269335e+04	3.983454e+03	2.652167e+03	0	5.705114e-04
1.030000e+09	6.738448e+12	0.000000e+00	6.854840e-01	3.786172e+14	5.831628e+14	1.537417e+14	1.268272e+04	3.981611e+03	2.650940e+03	0	5.651513e-04
1.040000e+09	6.546705e+12	0.000000e+00	6.854840e-01	3.766921e+14	5.803201e+14	1.530589e+14	1.267214e+04	3.979777e+03	2.649719e+03	0	5.597391e-04
1.050000e+09	6.356751e+12	0.000000e+00	6.854840e-01	3.747839e+14	5.775013e+14	1.523807e+14	1.266161e+04	3.977951e+03	2.648503e+03	0	5.542722e-04
1.060000e+09	6.168563e+12	0.000000e+00	6.854840e-01	3.728923e+14	5.747060e+14	1.517071e+14	1.265114e+04	3.976133e+03	2.647293e+03	0	5.487477e-04
1.070000e+09	5.982118e+12	0.000000e+00	6.854840e-01	3.710171e+14	5.719341e+14	1.510380e+14	1.264072e+04	3.974324e+03	2.646089e+03	0	5.431624e-04
1.080000e+09	5.797396e+12	0.000000e+00	6.854840e-01	3.691581e+14	5.691851e+14	1.503734e+14	1.263035e+04	3.972522e+03	2.644889e+03	0	5.375131e-04
1.090000e+09	5.614373e+12	0.000000e+00	6.854840e-01	3.673151e+14	5.664589e+14	1.497133e+14	1.262003e+04	3.970729e+03	2.643695e+03	0	5.317961e-04
1.100000e+09	5.433029e+12	0.000000e+00	6.854840e-01	3.654879e+14	5.637551e+14	1.490576e+14	1.260977e+04	3.968944e+03	2.642507e+03	0	5.260077e-04
1.110000e+09	5.253343e+12	0.000000e+00	6.854840e-01	3.636764e+14	5.610735e+14	1.484063e+14	1.259956e+04	3.967166e+03	2.641323e+03	0	5.201437e-04
1.120000e+09	5.075295e+12	0.000000e+00	6.854840e-01	3.618802e+14	5.584138e+14	1.477594e+14	1.258939e+04	3.965396e+03	2.640145e+03	0	5.141997e-04
1.130000e+09	4.898863e+12	0.000000e+00	6.854840e-01	3.600994e+14	5.557757e+14	1.471167e+14	1.257928e+04	3.963634e+03	2.638972e+03	0	5.081710e-04
1.140000e+09	4.724029e+12	0.000000e+00	6.854840e-01	3.583336e+14	5.531590e+14	1.464784e+14	1.256922e+04	3.961880e+03	2.637804e+03	0	5.020522e-04
1.150000e+09	4.550771e+12	0.000000e+00	6.854840e-01	3.565826e+14	5.505634e+14	1.458444e+14	1.255920e+04	3.960133e+03	2.636641e+03	0	4.958379e-04
1.160000e+09	4.379072e+12	0.000000e+00	6.854840e-01	3.548464e+14	5.479887e+14	1.452146e+14	1.254924e+04	3.958394e+03	2.635483e+03	0	4.895219e-04
1.170000e+09	4.208912e+12	0.000000e+00	6.854840e-01	3.531247e+14	5.454346e+14	1.445890e+14	1.253932e+04	3.956662e+03	2.634330e+03	0	4.830974e-04
1.180000e+09	4.040273e+12	0.000000e+00	6.854840e-01	3.514174e+14	5.429009e+14	1.439675e+14	1.252945e+04	3.954938e+03	2.633181e+03	0	4.765571e-04
1.190000e+09	3.873135e+12	0.000000e+00	6.854840e-01	3.497243e+14	5.403873e+14	1.433502e+14	1.251963e+04	3.953221e+03	2.632038e+03	0	4.698930e-04
1.200000e+09	3.707481e+12	0.000000e+00	6.854840e-01	3.480451e+14	5.378936e+14	1.427369e+14	1.250986e+04	3.951511e+03	2.630900e+03	0	4.630960e-04
1.210000e+09	3.543293e+12	0.000000e+00	6.854840e-01	3.463799e+14	5.354197e+14	1.421278e+14	1.250013e+04	3.949808e+03	2.629766e+03	0	4.561564e-04
1.220000e+09	3.380554e+12	0.000000e+00	6.854840e-01	3.447283e+14	5.329651e+14	1.415227e+14	1.249045e+04	3.948112e+03	2.628637e+03	0	4.490631e-04
1.230000e+09	3.219246e+12	0.000000e+00	6.854840e-01	3.430903e+14	5.305299e+14	1.409215e+14	1.248082e+04	3.946424e+03	2.627513e+03	0	4.418038e-04
1.240000e+09	3.059352e+12	0.000000e+00	6.854840e-01	3.414656e+14	5.281136e+14	1.403244e+14	1.247123e+04	3.944742e+03	2.626393e+03	0	4.343647e-04
1.250000e+09	2.900855e+12	0.000000e+00	6.854840e-01	3.398542e+14	5.257162e+14	1.397312e+14	1.246168e+04	3.943068e+03	2.625278e+03	0	4.267302e-04
1.260000e+09	2.743739e+12	0.000000e+00	6.854840e-01	3.382559e+14	5.233373e+14	1.391419e+14	1.245219e+04	3.941400e+03	2.624168e+03	0	4.188826e-04
1.270000e+09	2.587988e+12	0.000000e+00	6.854840e-01	3.366705e+14	5.209768e+14	1.385565e+14	1.244273e+04	3.939739e+03	2.623062e+03	0	4.108016e-04
1.280000e+09	2.433585e+12	0.000000e+00	6.854840e-01	3.350978e+14	5.186345e+14	1.379749e+14	1.243332e+04	3.938085e+03	2.621961e+03	0	4.024639e-04
1.290000e+09	2.280515e+12	0.000000e+00	6.854840e-01	3.335378e+14	5.163102e+14	1.373972e+14	1.242396e+04	3.936437e+03	2.620864e+03	0	3.938423e-04
1.300000e+09	2.128762e+12	0.000000e+00	6.854840e-01	3.319903e+14	5.140037e+14	1.368232e+14	1.241464e+04	3.934797e+03	2.619771e+03	0	3.849052e-04
1.310000e+09	1.978311e+12	0.000000e+00	6.854840e-01	3.304551e+14	5.117148e+14	1.362530e+14	1.240536e+04	3.933162e+03	2.618683e+03	0	3.756150e-04
1.320000e+09	1.829147e+12	0.000000e+00	6.854840e-01	3.289321e+14	5.094432e+14	1.356866e+14	1.239612e+04	3.931535e+03	2.617600e+03	0	3.659269e-04
1.330000e+09	1.681256e+12	0.000000e+00	6.854840e-01	3.274212e+14	5.071889e+14	1.351238e+14	1.238693e+04	3.929914e+03	2.616520e+03	0	3.557864e-04
1.340000e+09	1.534621e+12	0.000000e+00	6.854840e-01	3.259223e+14	5.049516e+14	1.345648e+14	1.237778e+04	3.928299e+03	2.615445e+03	0	3.451266e-04
1.350000e+09	1.389230e+12	0.000000e+00	6.854840e-01	3.244351e+14	5.027311e+14	1.340093e+14	1.236867e+04	3.926691e+03	2.614375e+03	0	3.338639e-04
1.360000e+09	1.245067e+12	0.000000e+00	6.854840e-01	3.229596e+14	5.005273e+14	1.334575e+14	1.235960e+04	3.925089e+03	2.613308e+03	0	3.218911e-04
