#t		Qconv[W]	Ri[Rp]		R*[Rp]		Qc[W]		Qm[W]		Qr[W]		Tcmb[K]		Tl[K]		Tup[K]		RiFlag		Bs[T]
0.000000e+00	4.370714e+13	0.000000e+00	6.854841e-01	7.744221e+14	1.163265e+15	2.680194e+14	1.458024e+04	4.341185e+03	2.873087e+03	0	1.052882e-03
1.000000e+07	4.303466e+13	0.000000e+00	6.854841e-01	7.681619e+14	1.153022e+15	2.665344e+14	1.455982e+04	4.337037e+03	2.870342e+03	0	1.047454e-03
2.000000e+07	4.237277e+13	0.000000e+00	6.854841e-01	7.619958e+14	1.143022e+15	2.650604e+14	1.453956e+04	4.332973e+03	2.867652e+03	0	1.042056e-03
3.000000e+07	4.172118e+13	0.000000e+00	6.854841e-01	7.559216e+14	1.133253e+15	2.635975e+14	1.451947e+04	4.328990e+03	2.865016e+03	0	1.036687e-03
4.000000e+07	4.107963e+13	0.000000e+00	6.854841e-01	7.499366e+14	1.123703e+15	2.621456e+14	1.449953e+04	4.325082e+03	2.862430e+03	0	1.031346e-03
5.000000e+07	4.044784e+13	0.000000e+00	6.854841e-01	7.440388e+14	1.114361e+15	2.607044e+14	1.447976e+04	4.321246e+03	2.859891e+03	0	1.026032e-03
6.000000e+07	3.982557e+13	0.000000e+00	6.854841e-01	7.382258e+14	1.105217e+15	2.592740e+14	1.446014e+04	4.317477e+03	2.857397e+03	0	1.020743e-03
7.000000e+07	3.921258e+13	0.000000e+00	6.854841e-01	7.324957e+14	1.096263e+15	2.578542e+14	1.444067e+04	4.313773e+03	2.854946e+03	0	1.015479e-03
8.000000e+07	3.860865e+13	0.000000e+00	6.854841e-01	7.268464e+14	1.087489e+15	2.564450e+14	1.442135e+04	4.310131e+03	2.852535e+03	0	1.010238e-03
9.000000e+07	3.801355e+13	0.000000e+00	6.854841e-01	7.212761e+14	1.078887e+15	2.550463e+14	1.440218e+04	4.306546e+03	2.850163e+03	0	1.005021e-03
1.000000e+08	3.742708e+13	0.000000e+00	6.854841e-01	7.157828e+14	1.070450e+15	2.536580e+14	1.438316e+04	4.303017e+03	2.847827e+03	0	9.998257e-04
1.100000e+08	3.684903e+13	0.000000e+00	6.854841e-01	7.103648e+14	1.062170e+15	2.522800e+14	1.436428e+04	4.299541e+03	2.845526e+03	0	9.946516e-04
1.200000e+08	3.627920e+13	0.000000e+00	6.854841e-01	7.050205e+14	1.054042e+15	2.509121e+14	1.434555e+04	4.296115e+03	2.843259e+03	0	9.894980e-04
1.300000e+08	3.571742e+13	0.000000e+00	6.854841e-01	6.997482e+14	1.046059e+15	2.495544e+14	1.432695e+04	4.292737e+03	2.841023e+03	0	9.843639e-04
1.400000e+08	3.516351e+13	0.000000e+00	6.854841e-01	6.945463e+14	1.038216e+15	2.482068e+14	1.430850e+04	4.289405e+03	2.838818e+03	0	9.792488e-04
1.500000e+08	3.461728e+13	0.000000e+00	6.854841e-01	6.894133e+14	1.030507e+15	2.468691e+14	1.429018e+04	4.286117e+03	2.836642e+03	0	9.741518e-04
1.600000e+08	3.407858e+13	0.000000e+00	6.854841e-01	6.843478e+14	1.022927e+15	2.455413e+14	1.427199e+04	4.282871e+03	2.834494e+03	0	9.690722e-04
1.700000e+08	3.354724e+13	0.000000e+00	6.854841e-01	6.793483e+14	1.015471e+15	2.442233e+14	1.425394e+04	4.279665e+03	2.832372e+03	0	9.640093e-04
1.800000e+08	3.302311e+13	0.000000e+00	6.854841e-01	6.744135e+14	1.008135e+15	2.429150e+14	1.423602e+04	4.276498e+03	2.830276e+03	0	9.589625e-04
1.900000e+08	3.250603e+13	0.000000e+00	6.854841e-01	6.695420e+14	1.000914e+15	2.416164e+14	1.421824e+04	4.273368e+03	2.828204e+03	0	9.539310e-04
2.000000e+08	3.199586e+13	0.000000e+00	6.854841e-01	6.647326e+14	9.938060e+14	2.403273e+14	1.420057e+04	4.270273e+03	2.826156e+03	0	9.489141e-04
2.100000e+08	3.149247e+13	0.000000e+00	6.854841e-01	6.599840e+14	9.868056e+14	2.390477e+14	1.418304e+04	4.267213e+03	2.824131e+03	0	9.439113e-04
2.200000e+08	3.099571e+13	0.000000e+00	6.854841e-01	6.552951e+14	9.799098e+14	2.377775e+14	1.416563e+04	4.264186e+03	2.822127e+03	0	9.389219e-04
2.300000e+08	3.050545e+13	0.000000e+00	6.854841e-01	6.506646e+14	9.731152e+14	2.365166e+14	1.414834e+04	4.261190e+03	2.820145e+03	0	9.339453e-04
2.400000e+08	3.002156e+13	0.000000e+00	6.854841e-01	6.460915e+14	9.664187e+14	2.352649e+14	1.413118e+04	4.258226e+03	2.818183e+03	0	9.289808e-04
2.500000e+08	2.954393e+13	0.000000e+00	6.854841e-01	6.415747e+14	9.598173e+14	2.340224e+14	1.411414e+04	4.255291e+03	2.816240e+03	0	9.240279e-04
2.600000e+08	2.907243e+13	0.000000e+00	6.854841e-01	6.371130e+14	9.533083e+14	2.327891e+14	1.409721e+04	4.252384e+03	2.814317e+03	0	9.190859e-04
2.700000e+08	2.860694e+13	0.000000e+00	6.854841e-01	6.327056e+14	9.468889e+14	2.315647e+14	1.408040e+04	4.249505e+03	2.812411e+03	0	9.141542e-04
2.800000e+08	2.814736e+13	0.000000e+00	6.854841e-01	6.283513e+14	9.405567e+14	2.303493e+14	1.406371e+04	4.246653e+03	2.810524e+03	0	9.092323e-04
2.900000e+08	2.769356e+13	0.000000e+00	6.854841e-01	6.240493e+14	9.343092e+14	2.291427e+14	1.404713e+04	4.243827e+03	2.808653e+03	0	9.043195e-04
3.000000e+08	2.724545e+13	0.000000e+00	6.854841e-01	6.197985e+14	9.281440e+14	2.279449e+14	1.403067e+04	4.241026e+03	2.806799e+03	0	8.994154e-04
3.100000e+08	2.680291e+13	0.000000e+00	6.854841e-01	6.155980e+14	9.220592e+14	2.267559e+14	1.401432e+04	4.238249e+03	2.804962e+03	0	8.945192e-04
3.200000e+08	2.636586e+13	0.000000e+00	6.854841e-01	6.114470e+14	9.160525e+14	2.255755e+14	1.399808e+04	4.235496e+03	2.803140e+03	0	8.896304e-04
3.300000e+08	2.593419e+13	0.000000e+00	6.854841e-01	6.073446e+14	9.101220e+14	2.244037e+14	1.398194e+04	4.232765e+03	2.801333e+03	0	8.847485e-04
3.400000e+08	2.550779e+13	0.000000e+00	6.854841e-01	6.032899e+14	9.042657e+14	2.232404e+14	1.396592e+04	4.230057e+03	2.799540e+03	0	8.798729e-04
3.500000e+08	2.508659e+13	0.000000e+00	6.854841e-01	5.992822e+14	8.984820e+14	2.220856e+14	1.395000e+04	4.227371e+03	2.797763e+03	0	8.750030e-04
3.600000e+08	2.467049e+13	0.000000e+00	6.854841e-01	5.953205e+14	8.927690e+14	2.209391e+14	1.393419e+04	4.224706e+03	2.795999e+03	0	8.701382e-04
3.700000e+08	2.425940e+13	0.000000e+00	6.854841e-01	5.914041e+14	8.871250e+14	2.198009e+14	1.391848e+04	4.222061e+03	2.794248e+03	0	8.652780e-04
3.800000e+08	2.385323e+13	0.000000e+00	6.854841e-01	5.875323e+14	8.815486e+14	2.186710e+14	1.390288e+04	4.219437e+03	2.792511e+03	0	8.604218e-04
3.900000e+08	2.345191e+13	0.000000e+00	6.854841e-01	5.837043e+14	8.760382e+14	2.175492e+14	1.388738e+04	4.216831e+03	2.790787e+03	0	8.555690e-04
4.000000e+08	2.305534e+13	0.000000e+00	6.854841e-01	5.799194e+14	8.705923e+14	2.164355e+14	1.387198e+04	4.214245e+03	2.789076e+03	0	8.507190e-04
4.100000e+08	2.266344e+13	0.000000e+00	6.854841e-01	5.761768e+14	8.652095e+14	2.153299e+14	1.385667e+04	4.211678e+03	2.787377e+03	0	8.458713e-04
4.200000e+08	2.227615e+13	0.000000e+00	6.854841e-01	5.724759e+14	8.598885e+14	2.142322e+14	1.384147e+04	4.209129e+03	2.785690e+03	0	8.410252e-04
4.300000e+08	2.189338e+13	0.000000e+00	6.854841e-01	5.688160e+14	8.546280e+14	2.131424e+14	1.382636e+04	4.206597e+03	2.784014e+03	0	8.361802e-04
4.400000e+08	2.151505e+13	0.000000e+00	6.854841e-01	5.651965e+14	8.494267e+14	2.120605e+14	1.381135e+04	4.204083e+03	2.782350e+03	0	8.313357e-04
4.500000e+08	2.114110e+13	0.000000e+00	6.854841e-01	5.616166e+14	8.442835e+14	2.109864e+14	1.379644e+04	4.201586e+03	2.780698e+03	0	8.264911e-04
4.600000e+08	2.077145e+13	0.000000e+00	6.854841e-01	5.580757e+14	8.391972e+14	2.099199e+14	1.378162e+04	4.199106e+03	2.779056e+03	0	8.216457e-04
4.700000e+08	2.040604e+13	0.000000e+00	6.854841e-01	5.545733e+14	8.341666e+14	2.088611e+14	1.376689e+04	4.196641e+03	2.777425e+03	0	8.167990e-04
4.800000e+08	2.004479e+13	0.000000e+00	6.854841e-01	5.511088e+14	8.291907e+14	2.078099e+14	1.375226e+04	4.194193e+03	2.775805e+03	0	8.119504e-04
4.900000e+08	1.968764e+13	0.000000e+00	6.854841e-01	5.476814e+14	8.242685e+14	2.067663e+14	1.373772e+04	4.191761e+03	2.774195e+03	0	8.070991e-04
5.000000e+08	1.933452e+13	0.000000e+00	6.854841e-01	5.442907e+14	8.193989e+14	2.057300e+14	1.372326e+04	4.189344e+03	2.772595e+03	0	8.022446e-04
5.100000e+08	1.898538e+13	0.000000e+00	6.854841e-01	5.409361e+14	8.145810e+14	2.047012e+14	1.370890e+04	4.186941e+03	2.771005e+03	0	7.973862e-04
5.200000e+08	1.864014e+13	0.000000e+00	6.854841e-01	5.376170e+14	8.098139e+14	2.036798e+14	1.369462e+04	4.184554e+03	2.769425e+03	0	7.925233e-04
5.300000e+08	1.829874e+13	0.000000e+00	6.854841e-01	5.343330e+14	8.050966e+14	2.026656e+14	1.368043e+04	4.182181e+03	2.767855e+03	0	7.876551e-04
5.400000e+08	1.796114e+13	0.000000e+00	6.854841e-01	5.310833e+14	8.004282e+14	2.016586e+14	1.366633e+04	4.179823e+03	2.766294e+03	0	7.827810e-04
5.500000e+08	1.762726e+13	0.000000e+00	6.854841e-01	5.278677e+14	7.958079e+14	2.006588e+14	1.365232e+04	4.177478e+03	2.764742e+03	0	7.779003e-04
5.600000e+08	1.729705e+13	0.000000e+00	6.854841e-01	5.246854e+14	7.912350e+14	1.996661e+14	1.363839e+04	4.175147e+03	2.763200e+03	0	7.730122e-04
5.700000e+08	1.697046e+13	0.000000e+00	6.854841e-01	5.215361e+14	7.867084e+14	1.986805e+14	1.362454e+04	4.172830e+03	2.761666e+03	0	7.681161e-04
5.800000e+08	1.664743e+13	0.000000e+00	6.854841e-01	5.184192e+14	7.822276e+14	1.977018e+14	1.361077e+04	4.170526e+03	2.760141e+03	0	7.632111e-04
5.900000e+08	1.632790e+13	0.000000e+00	6.854841e-01	5.153343e+14	7.777917e+14	1.967301e+14	1.359709e+04	4.168235e+03	2.758625e+03	0	7.582966e-04
6.000000e+08	1.601183e+13	0.000000e+00	6.854841e-01	5.122809e+14	7.734000e+14	1.957653e+14	1.358349e+04	4.165958e+03	2.757118e+03	0	7.533717e-04
6.100000e+08	1.569916e+13	0.000000e+00	6.854841e-01	5.092585e+14	7.690518e+14	1.948073e+14	1.356997e+04	4.163692e+03	2.755619e+03	0	7.484356e-04
6.200000e+08	1.538984e+13	0.000000e+00	6.854841e-01	5.062667e+14	7.647464e+14	1.938560e+14	1.355653e+04	4.161440e+03	2.754128e+03	0	7.434875e-04
6.300000e+08	1.508382e+13	0.000000e+00	6.854841e-01	5.033051e+14	7.604831e+14	1.929115e+14	1.354317e+04	4.159200e+03	2.752645e+03	0	7.385266e-04
6.400000e+08	1.478106e+13	0.000000e+00	6.854841e-01	5.003732e+14	7.562613e+14	1.919737e+14	1.352988e+04	4.156972e+03	2.751171e+03	0	7.335519e-04
6.500000e+08	1.448150e+13	0.000000e+00	6.854841e-01	4.974705e+14	7.520802e+14	1.910424e+14	1.351667e+04	4.154755e+03	2.749704e+03	0	7.285626e-04
6.600000e+08	1.418510e+13	0.000000e+00	6.854841e-01	4.945967e+14	7.479394e+14	1.901177e+14	1.350354e+04	4.152551e+03	2.748245e+03	0	7.235577e-04
6.700000e+08	1.389182e+13	0.000000e+00	6.854841e-01	4.917514e+14	7.438381e+14	1.891995e+14	1.349049e+04	4.150359e+03	2.746794e+03	0	7.185362e-04
6.800000e+08	1.360160e+13	0.000000e+00	6.854841e-01	4.889341e+14	7.397759e+14	1.882878e+14	1.347751e+04	4.148178e+03	2.745351e+03	0	7.134973e-04
6.900000e+08	1.331441e+13	0.000000e+00	6.854841e-01	4.861445e+14	7.357520e+14	1.873824e+14	1.346460e+04	4.146008e+03	2.743915e+03	0	7.084398e-04
7.000000e+08	1.303019e+13	0.000000e+00	6.854841e-01	4.833822e+14	7.317660e+14	1.864834e+14	1.345177e+04	4.143850e+03	2.742486e+03	0	7.033626e-04
7.100000e+08	1.274892e+13	0.000000e+00	6.854841e-01	4.806468e+14	7.278173e+14	1.855907e+14	1.343901e+04	4.141702e+03	2.741065e+03	0	6.982647e-04
7.200000e+08	1.247054e+13	0.000000e+00	6.854841e-01	4.779379e+14	7.239053e+14	1.847042e+14	1.342632e+04	4.139566e+03	2.739651e+03	0	6.931450e-04
7.300000e+08	1.219502e+13	0.000000e+00	6.854841e-01	4.752551e+14	7.200295e+14	1.838239e+14	1.341371e+04	4.137440e+03	2.738244e+03	0	6.880022e-04
7.400000e+08	1.192232e+13	0.000000e+00	6.854841e-01	4.725982e+14	7.161895e+14	1.829498e+14	1.340116e+04	4.135325e+03	2.736845e+03	0	6.828351e-04
7.500000e+08	1.165239e+13	0.000000e+00	6.854841e-01	4.699667e+14	7.123847e+14	1.820818e+14	1.338869e+04	4.133221e+03	2.735452e+03	0	6.776425e-04
7.600000e+08	1.138520e+13	0.000000e+00	6.854841e-01	4.673603e+14	7.086145e+14	1.812198e+14	1.337628e+04	4.131127e+03	2.734066e+03	0	6.724229e-04
7.700000e+08	1.112071e+13	0.000000e+00	6.854841e-01	4.647787e+14	7.048787e+14	1.803638e+14	1.336394e+04	4.129043e+03	2.732687e+03	0	6.671750e-04
7.800000e+08	1.085888e+13	0.000000e+00	6.854841e-01	4.622215e+14	7.011766e+14	1.795137e+14	1.335168e+04	4.126970e+03	2.731315e+03	0	6.618973e-04
7.900000e+08	1.059968e+13	0.000000e+00	6.854841e-01	4.596885e+14	6.975078e+14	1.786696e+14	1.333947e+04	4.124906e+03	2.729949e+03	0	6.565884e-04
8.000000e+08	1.034306e+13	0.000000e+00	6.854841e-01	4.571792e+14	6.938718e+14	1.778313e+14	1.332734e+04	4.122853e+03	2.728590e+03	0	6.512465e-04
8.100000e+08	1.008901e+13	0.000000e+00	6.854841e-01	4.546933e+14	6.902683e+14	1.769988e+14	1.331527e+04	4.120809e+03	2.727238e+03	0	6.458700e-04
8.200000e+08	9.837471e+12	0.000000e+00	6.854841e-01	4.522307e+14	6.866968e+14	1.761721e+14	1.330327e+04	4.118775e+03	2.725892e+03	0	6.404572e-04
8.300000e+08	9.588421e+12	0.000000e+00	6.854841e-01	4.497908e+14	6.831568e+14	1.753511e+14	1.329133e+04	4.116751e+03	2.724552e+03	0	6.350063e-04
8.400000e+08	9.341824e+12	0.000000e+00	6.854841e-01	4.473736e+14	6.796479e+14	1.745358e+14	1.327945e+04	4.114736e+03	2.723219e+03	0	6.295152e-04
8.500000e+08	9.097646e+12	0.000000e+00	6.854841e-01	4.449786e+14	6.761698e+14	1.737261e+14	1.326764e+04	4.112731e+03	2.721891e+03	0	6.239819e-04
8.600000e+08	8.855857e+12	0.000000e+00	6.854841e-01	4.426055e+14	6.727221e+14	1.729219e+14	1.325589e+04	4.110735e+03	2.720571e+03	0	6.184043e-04
8.700000e+08	8.616423e+12	0.000000e+00	6.854841e-01	4.402541e+14	6.693043e+14	1.721234e+14	1.324421e+04	4.108748e+03	2.719256e+03	0	6.127801e-04
8.800000e+08	8.379314e+12	0.000000e+00	6.854841e-01	4.379242e+14	6.659161e+14	1.713303e+14	1.323259e+04	4.106771e+03	2.717947e+03	0	6.071069e-04
8.900000e+08	8.144499e+12	0.000000e+00	6.854841e-01	4.356154e+14	6.625570e+14	1.705426e+14	1.322102e+04	4.104803e+03	2.716644e+03	0	6.013820e-04
9.000000e+08	7.911948e+12	0.000000e+00	6.854841e-01	4.333274e+14	6.592268e+14	1.697604e+14	1.320952e+04	4.102843e+03	2.715347e+03	0	5.956029e-04
9.100000e+08	7.681632e+12	0.000000e+00	6.854841e-01	4.310600e+14	6.559251e+14	1.689835e+14	1.319808e+04	4.100893e+03	2.714057e+03	0	5.897666e-04
9.200000e+08	7.453521e+12	0.000000e+00	6.854841e-01	4.288129e+14	6.526514e+14	1.682119e+14	1.318670e+04	4.098951e+03	2.712771e+03	0	5.838700e-04
9.300000e+08	7.227586e+12	0.000000e+00	6.854841e-01	4.265860e+14	6.494055e+14	1.674457e+14	1.317538e+04	4.097018e+03	2.711492e+03	0	5.779098e-04
9.400000e+08	7.003800e+12	0.000000e+00	6.854841e-01	4.243788e+14	6.461871e+14	1.666846e+14	1.316412e+04	4.095093e+03	2.710219e+03	0	5.718826e-04
9.500000e+08	6.782135e+12	0.000000e+00	6.854841e-01	4.221912e+14	6.429957e+14	1.659288e+14	1.315291e+04	4.093178e+03	2.708951e+03	0	5.657846e-04
9.600000e+08	6.562564e+12	0.000000e+00	6.854841e-01	4.200229e+14	6.398311e+14	1.651781e+14	1.314177e+04	4.091270e+03	2.707688e+03	0	5.596117e-04
9.700000e+08	6.345059e+12	0.000000e+00	6.854841e-01	4.178737e+14	6.366929e+14	1.644325e+14	1.313068e+04	4.089371e+03	2.706432e+03	0	5.533597e-04
9.800000e+08	6.129594e+12	0.000000e+00	6.854841e-01	4.157434e+14	6.335808e+14	1.636920e+14	1.311964e+04	4.087481e+03	2.705180e+03	0	5.470238e-04
9.900000e+08	5.916145e+12	0.000000e+00	6.854841e-01	4.136317e+14	6.304945e+14	1.629565e+14	1.310867e+04	4.085599e+03	2.703935e+03	0	5.405990e-04
1.000000e+09	5.704684e+12	0.000000e+00	6.854841e-01	4.115384e+14	6.274336e+14	1.622260e+14	1.309775e+04	4.083724e+03	2.702694e+03	0	5.340798e-04
1.010000e+09	5.495188e+12	0.000000e+00	6.854841e-01	4.094632e+14	6.243980e+14	1.615005e+14	1.308688e+04	4.081858e+03	2.701459e+03	0	5.274604e-04
1.020000e+09	5.287631e+12	0.000000e+00	6.854841e-01	4.074059e+14	6.213873e+14	1.607799e+14	1.307607e+04	4.080001e+03	2.700230e+03	0	5.207341e-04
1.030000e+09	5.081989e+12	0.000000e+00	6.854841e-01	4.053664e+14	6.184011e+14	1.600642e+14	1.306531e+04	4.078151e+03	2.699005e+03	0	5.138940e-04
1.040000e+09	4.878238e+12	0.000000e+00	6.854841e-01	4.033444e+14	6.154393e+14	1.593533e+14	1.305461e+04	4.076309e+03	2.697786e+03	0	5.069323e-04
1.050000e+09	4.676356e+12	0.000000e+00	6.854841e-01	4.013397e+14	6.125015e+14	1.586472e+14	1.304396e+04	4.074474e+03	2.696572e+03	0	4.998406e-04
1.060000e+09	4.476318e+12	0.000000e+00	6.854841e-01	3.993521e+14	6.095874e+14	1.579458e+14	1.303336e+04	4.072648e+03	2.695364e+03	0	4.926093e-04
1.070000e+09	4.278101e+12	0.000000e+00	6.854841e-01	3.973813e+14	6.066969e+14	1.572492e+14	1.302281e+04	4.070829e+03	2.694160e+03	0	4.852282e-04
1.080000e+09	4.081685e+12	0.000000e+00	6.854841e-01	3.954272e+14	6.038295e+14	1.565573e+14	1.301232e+04	4.069018e+03	2.692961e+03	0	4.776856e-04
1.090000e+09	3.887046e+12	0.000000e+00	6.854841e-01	3.934896e+14	6.009851e+14	1.558700e+14	1.300188e+04	4.067215e+03	2.691768e+03	0	4.699686e-04
1.100000e+09	3.694163e+12	0.000000e+00	6.854841e-01	3.915683e+14	5.981633e+14	1.551874e+14	1.299149e+04	4.065419e+03	2.690579e+03	0	4.620628e-04
1.110000e+09	3.503014e+12	0.000000e+00	6.854841e-01	3.896631e+14	5.953640e+14	1.545093e+14	1.298115e+04	4.063630e+03	2.689396e+03	0	4.539517e-04
1.120000e+09	3.313579e+12	0.000000e+00	6.854841e-01	3.877738e+14	5.925868e+14	1.538358e+14	1.297086e+04	4.061849e+03	2.688217e+03	0	4.456167e-04
1.130000e+09	3.125837e+12	0.000000e+00	6.854841e-01	3.859002e+14	5.898316e+14	1.531667e+14	1.296062e+04	4.060076e+03	2.687043e+03	0	4.370365e-04
1.140000e+09	2.939767e+12	0.000000e+00	6.854841e-01	3.840421e+14	5.870980e+14	1.525022e+14	1.295043e+04	4.058309e+03	2.685874e+03	0	4.281868e-04
1.150000e+09	2.755349e+12	0.000000e+00	6.854841e-01	3.821994e+14	5.843859e+14	1.518420e+14	1.294029e+04	4.056550e+03	2.684710e+03	0	4.190391e-04
1.160000e+09	2.572564e+12	0.000000e+00	6.854841e-01	3.803718e+14	5.816950e+14	1.511863e+14	1.293020e+04	4.054798e+03	2.683550e+03	0	4.095602e-04
1.170000e+09	2.391392e+12	0.000000e+00	6.854841e-01	3.785593e+14	5.790250e+14	1.505350e+14	1.292015e+04	4.053053e+03	2.682395e+03	0	3.997108e-04
1.180000e+09	2.211815e+12	0.000000e+00	6.854841e-01	3.767615e+14	5.763758e+14	1.498880e+14	1.291016e+04	4.051315e+03	2.681245e+03	0	3.894442e-04
1.190000e+09	2.033812e+12	0.000000e+00	6.854841e-01	3.749784e+14	5.737471e+14	1.492453e+14	1.290021e+04	4.049585e+03	2.680100e+03	0	3.787034e-04
1.200000e+09	1.857366e+12	0.000000e+00	6.854841e-01	3.732098e+14	5.711387e+14	1.486068e+14	1.289030e+04	4.047861e+03	2.678959e+03	0	3.674189e-04
1.210000e+09	1.682458e+12	0.000000e+00	6.854841e-01	3.714555e+14	5.685503e+14	1.479726e+14	1.288045e+04	4.046144e+03	2.677823e+03	0	3.555034e-04
1.220000e+09	1.509071e+12	0.000000e+00	6.854841e-01	3.697154e+14	5.659818e+14	1.473426e+14	1.287064e+04	4.044434e+03	2.676691e+03	0	3.428458e-04
1.230000e+09	1.337185e+12	0.000000e+00	6.854841e-01	3.679893e+14	5.634329e+14	1.467167e+14	1.286087e+04	4.042731e+03	2.675564e+03	0	3.293009e-04
1.240000e+09	1.166785e+12	0.000000e+00	6.854841e-01	3.662770e+14	5.609035e+14	1.460950e+14	1.285116e+04	4.041034e+03	2.674441e+03	0	3.146729e-04
1.250000e+09	9.978531e+11	0.000000e+00	6.854841e-01	3.645783e+14	5.583933e+14	1.454774e+14	1.284148e+04	4.039345e+03	2.673323e+03	0	2.986881e-04
1.260000e+09	8.303716e+11	0.000000e+00	6.854841e-01	3.628933e+14	5.559021e+14	1.448639e+14	1.283186e+04	4.037661e+03	2.672209e+03	0	2.809440e-04
1.270000e+09	6.643242e+11	0.000000e+00	6.854841e-01	3.612215e+14	5.534297e+14	1.442544e+14	1.282227e+04	4.035985e+03	2.671099e+03	0	2.608089e-04
1.280000e+09	4.996943e+11	0.000000e+00	6.854841e-01	3.595630e+14	5.509759e+14	1.436489e+14	1.281273e+04	4.034315e+03	2.669994e+03	0	2.371904e-04
1.290000e+09	3.364659e+11	0.000000e+00	6.854841e-01	3.579176e+14	5.485405e+14	1.430474e+14	1.280324e+04	4.032652e+03	2.668893e+03	0	2.078943e-04
1.300000e+09	1.746227e+11	0.000000e+00	6.854841e-01	3.562851e+14	5.461234e+14	1.424499e+14	1.279378e+04	4.030995e+03	2.667797e+03	0	1.670690e-04
1.310000e+09	1.414920e+10	0.000000e+00	6.854841e-01	3.546654e+14	5.437243e+14	1.418563e+14	1.278437e+04	4.029345e+03	2.666705e+03	0	7.229468e-05
1.320000e+09	-1.449703e+11	0.000000e+00	6.854841e-01	3.530584e+14	5.413431e+14	1.412665e+14	1.277501e+04	4.027701e+03	2.665616e+03	0	nan
