#t		Qconv[W]	Ri[Rp]		R*[Rp]		Qc[W]		Qm[W]		Qr[W]		Tcmb[K]		Tl[K]		Tup[K]		RiFlag		Bs[T]
0.000000e+00	4.111578e+13	0.000000e+00	6.854836e-01	8.179427e+14	1.131519e+15	2.838190e+14	1.514086e+04	4.427909e+03	2.906135e+03	0	1.030270e-03
1.000000e+07	4.049453e+13	0.000000e+00	6.854836e-01	8.122034e+14	1.127319e+15	2.822464e+14	1.512097e+04	4.426925e+03	2.905489e+03	0	1.025055e-03
2.000000e+07	3.987896e+13	0.000000e+00	6.854836e-01	8.065153e+14	1.122966e+15	2.806856e+14	1.510122e+04	4.425840e+03	2.904777e+03	0	1.019834e-03
3.000000e+07	3.926914e+13	0.000000e+00	6.854836e-01	8.008787e+14	1.118474e+15	2.791365e+14	1.508161e+04	4.424661e+03	2.904003e+03	0	1.014609e-03
4.000000e+07	3.866511e+13	0.000000e+00	6.854836e-01	7.952941e+14	1.113855e+15	2.775989e+14	1.506214e+04	4.423394e+03	2.903171e+03	0	1.009380e-03
5.000000e+07	3.806688e+13	0.000000e+00	6.854836e-01	7.897615e+14	1.109122e+15	2.760728e+14	1.504280e+04	4.422046e+03	2.902286e+03	0	1.004147e-03
6.000000e+07	3.747449e+13	0.000000e+00	6.854836e-01	7.842812e+14	1.104286e+15	2.745581e+14	1.502359e+04	4.420622e+03	2.901352e+03	0	9.989113e-04
7.000000e+07	3.688795e+13	0.000000e+00	6.854836e-01	7.788532e+14	1.099358e+15	2.730546e+14	1.500452e+04	4.419128e+03	2.900371e+03	0	9.936723e-04
8.000000e+07	3.630726e+13	0.000000e+00	6.854836e-01	7.734775e+14	1.094347e+15	2.715624e+14	1.498558e+04	4.417569e+03	2.899348e+03	0	9.884305e-04
9.000000e+07	3.573242e+13	0.000000e+00	6.854836e-01	7.681540e+14	1.089264e+15	2.700812e+14	1.496678e+04	4.415949e+03	2.898285e+03	0	9.831863e-04
1.000000e+08	3.516343e+13	0.000000e+00	6.854836e-01	7.628827e+14	1.084115e+15	2.686110e+14	1.494810e+04	4.414274e+03	2.897185e+03	0	9.779397e-04
1.100000e+08	3.460026e+13	0.000000e+00	6.854836e-01	7.576634e+14	1.078910e+15	2.671517e+14	1.492954e+04	4.412546e+03	2.896052e+03	0	9.726908e-04
1.200000e+08	3.404291e+13	0.000000e+00	6.854836e-01	7.524960e+14	1.073655e+15	2.657033e+14	1.491112e+04	4.410771e+03	2.894886e+03	0	9.674397e-04
1.300000e+08	3.349135e+13	0.000000e+00	6.854836e-01	7.473801e+14	1.068358e+15	2.642656e+14	1.489282e+04	4.408951e+03	2.893692e+03	0	9.621864e-04
1.400000e+08	3.294556e+13	0.000000e+00	6.854836e-01	7.423155e+14	1.063024e+15	2.628385e+14	1.487464e+04	4.407090e+03	2.892471e+03	0	9.569310e-04
1.500000e+08	3.240549e+13	0.000000e+00	6.854836e-01	7.373020e+14	1.057660e+15	2.614219e+14	1.485659e+04	4.405192e+03	2.891224e+03	0	9.516733e-04
1.600000e+08	3.187113e+13	0.000000e+00	6.854836e-01	7.323392e+14	1.052272e+15	2.600159e+14	1.483866e+04	4.403258e+03	2.889956e+03	0	9.464132e-04
1.700000e+08	3.134242e+13	0.000000e+00	6.854836e-01	7.274268e+14	1.046863e+15	2.586202e+14	1.482085e+04	4.401293e+03	2.888666e+03	0	9.411507e-04
1.800000e+08	3.081934e+13	0.000000e+00	6.854836e-01	7.225644e+14	1.041440e+15	2.572348e+14	1.480316e+04	4.399298e+03	2.887356e+03	0	9.358856e-04
1.900000e+08	3.030183e+13	0.000000e+00	6.854836e-01	7.177515e+14	1.036006e+15	2.558596e+14	1.478558e+04	4.397276e+03	2.886029e+03	0	9.306176e-04
2.000000e+08	2.978985e+13	0.000000e+00	6.854836e-01	7.129879e+14	1.030566e+15	2.544945e+14	1.476813e+04	4.395230e+03	2.884686e+03	0	9.253466e-04
2.100000e+08	2.928336e+13	0.000000e+00	6.854836e-01	7.082731e+14	1.025122e+15	2.531394e+14	1.475079e+04	4.393161e+03	2.883328e+03	0	9.200724e-04
2.200000e+08	2.878231e+13	0.000000e+00	6.854836e-01	7.036066e+14	1.019679e+15	2.517943e+14	1.473356e+04	4.391071e+03	2.881957e+03	0	9.147945e-04
2.300000e+08	2.828665e+13	0.000000e+00	6.854836e-01	6.989879e+14	1.014240e+15	2.504591e+14	1.471644e+04	4.388963e+03	2.880573e+03	0	9.095128e-04
2.400000e+08	2.779632e+13	0.000000e+00	6.854836e-01	6.944168e+14	1.008808e+15	2.491337e+14	1.469944e+04	4.386838e+03	2.879179e+03	0	9.042269e-04
2.500000e+08	2.731127e+13	0.000000e+00	6.854836e-01	6.898926e+14	1.003385e+15	2.478180e+14	1.468255e+04	4.384698e+03	2.877774e+03	0	8.989364e-04
2.600000e+08	2.683146e+13	0.000000e+00	6.854836e-01	6.854148e+14	9.979736e+14	2.465119e+14	1.466577e+04	4.382544e+03	2.876360e+03	0	8.936410e-04
2.700000e+08	2.635682e+13	0.000000e+00	6.854836e-01	6.809831e+14	9.925766e+14	2.452153e+14	1.464910e+04	4.380377e+03	2.874938e+03	0	8.883402e-04
2.800000e+08	2.588730e+13	0.000000e+00	6.854836e-01	6.765969e+14	9.871958e+14	2.439282e+14	1.463254e+04	4.378200e+03	2.873509e+03	0	8.830336e-04
2.900000e+08	2.542285e+13	0.000000e+00	6.854836e-01	6.722558e+14	9.818333e+14	2.426506e+14	1.461608e+04	4.376013e+03	2.872074e+03	0	8.777208e-04
3.000000e+08	2.496340e+13	0.000000e+00	6.854836e-01	6.679591e+14	9.764907e+14	2.413822e+14	1.459973e+04	4.373817e+03	2.870633e+03	0	8.724012e-04
3.100000e+08	2.450891e+13	0.000000e+00	6.854836e-01	6.637065e+14	9.711697e+14	2.401231e+14	1.458348e+04	4.371615e+03	2.869187e+03	0	8.670743e-04
3.200000e+08	2.405932e+13	0.000000e+00	6.854836e-01	6.594975e+14	9.658718e+14	2.388731e+14	1.456733e+04	4.369405e+03	2.867737e+03	0	8.617397e-04
3.300000e+08	2.361456e+13	0.000000e+00	6.854836e-01	6.553315e+14	9.605983e+14	2.376322e+14	1.455129e+04	4.367191e+03	2.866284e+03	0	8.563967e-04
3.400000e+08	2.317459e+13	0.000000e+00	6.854836e-01	6.512080e+14	9.553504e+14	2.364003e+14	1.453535e+04	4.364972e+03	2.864827e+03	0	8.510447e-04
3.500000e+08	2.273935e+13	0.000000e+00	6.854836e-01	6.471266e+14	9.501292e+14	2.351774e+14	1.451951e+04	4.362749e+03	2.863368e+03	0	8.456831e-04
3.600000e+08	2.230878e+13	0.000000e+00	6.854836e-01	6.430868e+14	9.449359e+14	2.339633e+14	1.450376e+04	4.360523e+03	2.861908e+03	0	8.403114e-04
3.700000e+08	2.188282e+13	0.000000e+00	6.854836e-01	6.390880e+14	9.397712e+14	2.327581e+14	1.448812e+04	4.358295e+03	2.860445e+03	0	8.349287e-04
3.800000e+08	2.146142e+13	0.000000e+00	6.854836e-01	6.351297e+14	9.346360e+14	2.315615e+14	1.447257e+04	4.356066e+03	2.858982e+03	0	8.295345e-04
3.900000e+08	2.104452e+13	0.000000e+00	6.854836e-01	6.312115e+14	9.295310e+14	2.303736e+14	1.445712e+04	4.353836e+03	2.857519e+03	0	8.241280e-04
4.000000e+08	2.063207e+13	0.000000e+00	6.854836e-01	6.273329e+14	9.244570e+14	2.291943e+14	1.444176e+04	4.351606e+03	2.856055e+03	0	8.187084e-04
4.100000e+08	2.022401e+13	0.000000e+00	6.854836e-01	6.234934e+14	9.194144e+14	2.280235e+14	1.442650e+04	4.349376e+03	2.854592e+03	0	8.132749e-04
4.200000e+08	1.982028e+13	0.000000e+00	6.854836e-01	6.196926e+14	9.144039e+14	2.268611e+14	1.441133e+04	4.347147e+03	2.853129e+03	0	8.078268e-04
4.300000e+08	1.942084e+13	0.000000e+00	6.854836e-01	6.159298e+14	9.094258e+14	2.257071e+14	1.439626e+04	4.344920e+03	2.851667e+03	0	8.023632e-04
4.400000e+08	1.902562e+13	0.000000e+00	6.854836e-01	6.122047e+14	9.044806e+14	2.245614e+14	1.438127e+04	4.342694e+03	2.850206e+03	0	7.968831e-04
4.500000e+08	1.863458e+13	0.000000e+00	6.854836e-01	6.085168e+14	8.995686e+14	2.234239e+14	1.436638e+04	4.340471e+03	2.848747e+03	0	7.913857e-04
4.600000e+08	1.824766e+13	0.000000e+00	6.854836e-01	6.048657e+14	8.946901e+14	2.222946e+14	1.435157e+04	4.338250e+03	2.847289e+03	0	7.858701e-04
4.700000e+08	1.786481e+13	0.000000e+00	6.854836e-01	6.012508e+14	8.898453e+14	2.211734e+14	1.433685e+04	4.336032e+03	2.845834e+03	0	7.803351e-04
4.800000e+08	1.748598e+13	0.000000e+00	6.854836e-01	5.976717e+14	8.850346e+14	2.200602e+14	1.432222e+04	4.333818e+03	2.844381e+03	0	7.747798e-04
4.900000e+08	1.711111e+13	0.000000e+00	6.854836e-01	5.941280e+14	8.802579e+14	2.189550e+14	1.430768e+04	4.331608e+03	2.842930e+03	0	7.692031e-04
5.000000e+08	1.674015e+13	0.000000e+00	6.854836e-01	5.906192e+14	8.755156e+14	2.178577e+14	1.429323e+04	4.329401e+03	2.841482e+03	0	7.636038e-04
5.100000e+08	1.637306e+13	0.000000e+00	6.854836e-01	5.871449e+14	8.708076e+14	2.167683e+14	1.427886e+04	4.327199e+03	2.840036e+03	0	7.579809e-04
5.200000e+08	1.600978e+13	0.000000e+00	6.854836e-01	5.837046e+14	8.661340e+14	2.156866e+14	1.426457e+04	4.325002e+03	2.838594e+03	0	7.523330e-04
5.300000e+08	1.565026e+13	0.000000e+00	6.854836e-01	5.802979e+14	8.614949e+14	2.146126e+14	1.425037e+04	4.322809e+03	2.837155e+03	0	7.466588e-04
5.400000e+08	1.529446e+13	0.000000e+00	6.854836e-01	5.769244e+14	8.568903e+14	2.135463e+14	1.423625e+04	4.320621e+03	2.835719e+03	0	7.409571e-04
5.500000e+08	1.494233e+13	0.000000e+00	6.854836e-01	5.735836e+14	8.523202e+14	2.124875e+14	1.422221e+04	4.318439e+03	2.834287e+03	0	7.352264e-04
5.600000e+08	1.459382e+13	0.000000e+00	6.854836e-01	5.702752e+14	8.477844e+14	2.114363e+14	1.420825e+04	4.316262e+03	2.832858e+03	0	7.294653e-04
5.700000e+08	1.424888e+13	0.000000e+00	6.854836e-01	5.669987e+14	8.432831e+14	2.103926e+14	1.419438e+04	4.314090e+03	2.831433e+03	0	7.236722e-04
5.800000e+08	1.390747e+13	0.000000e+00	6.854836e-01	5.637537e+14	8.388160e+14	2.093563e+14	1.418058e+04	4.311925e+03	2.830011e+03	0	7.178456e-04
5.900000e+08	1.356954e+13	0.000000e+00	6.854836e-01	5.605399e+14	8.343831e+14	2.083273e+14	1.416686e+04	4.309765e+03	2.828594e+03	0	7.119836e-04
6.000000e+08	1.323504e+13	0.000000e+00	6.854836e-01	5.573568e+14	8.299843e+14	2.073056e+14	1.415322e+04	4.307611e+03	2.827180e+03	0	7.060847e-04
6.100000e+08	1.290394e+13	0.000000e+00	6.854836e-01	5.542041e+14	8.256194e+14	2.062911e+14	1.413966e+04	4.305464e+03	2.825771e+03	0	7.001468e-04
6.200000e+08	1.257618e+13	0.000000e+00	6.854836e-01	5.510813e+14	8.212883e+14	2.052838e+14	1.412617e+04	4.303323e+03	2.824366e+03	0	6.941681e-04
6.300000e+08	1.225173e+13	0.000000e+00	6.854836e-01	5.479880e+14	8.169909e+14	2.042836e+14	1.411276e+04	4.301188e+03	2.822965e+03	0	6.881464e-04
6.400000e+08	1.193054e+13	0.000000e+00	6.854836e-01	5.449240e+14	8.127270e+14	2.032904e+14	1.409942e+04	4.299060e+03	2.821568e+03	0	6.820796e-04
6.500000e+08	1.161258e+13	0.000000e+00	6.854836e-01	5.418888e+14	8.084964e+14	2.023043e+14	1.408616e+04	4.296939e+03	2.820176e+03	0	6.759655e-04
6.600000e+08	1.129778e+13	0.000000e+00	6.854836e-01	5.388821e+14	8.042989e+14	2.013251e+14	1.407298e+04	4.294824e+03	2.818788e+03	0	6.698015e-04
6.700000e+08	1.098613e+13	0.000000e+00	6.854836e-01	5.359036e+14	8.001344e+14	2.003527e+14	1.405986e+04	4.292716e+03	2.817405e+03	0	6.635850e-04
6.800000e+08	1.067757e+13	0.000000e+00	6.854836e-01	5.329527e+14	7.960025e+14	1.993872e+14	1.404682e+04	4.290615e+03	2.816026e+03	0	6.573134e-04
6.900000e+08	1.037207e+13	0.000000e+00	6.854836e-01	5.300293e+14	7.919032e+14	1.984285e+14	1.403385e+04	4.288521e+03	2.814651e+03	0	6.509838e-04
7.000000e+08	1.006959e+13	0.000000e+00	6.854836e-01	5.271330e+14	7.878362e+14	1.974765e+14	1.402095e+04	4.286434e+03	2.813281e+03	0	6.445930e-04
7.100000e+08	9.770087e+12	0.000000e+00	6.854836e-01	5.242633e+14	7.838013e+14	1.965312e+14	1.400812e+04	4.284354e+03	2.811916e+03	0	6.381378e-04
7.200000e+08	9.473525e+12	0.000000e+00	6.854836e-01	5.214201e+14	7.797982e+14	1.955924e+14	1.399536e+04	4.282281e+03	2.810556e+03	0	6.316147e-04
7.300000e+08	9.179867e+12	0.000000e+00	6.854836e-01	5.186030e+14	7.758267e+14	1.946603e+14	1.398267e+04	4.280216e+03	2.809200e+03	0	6.250198e-04
7.400000e+08	8.889075e+12	0.000000e+00	6.854836e-01	5.158116e+14	7.718866e+14	1.937346e+14	1.397005e+04	4.278157e+03	2.807849e+03	0	6.183493e-04
7.500000e+08	8.601113e+12	0.000000e+00	6.854836e-01	5.130456e+14	7.679777e+14	1.928154e+14	1.395750e+04	4.276106e+03	2.806503e+03	0	6.115987e-04
7.600000e+08	8.315946e+12	0.000000e+00	6.854836e-01	5.103047e+14	7.640997e+14	1.919026e+14	1.394501e+04	4.274061e+03	2.805161e+03	0	6.047635e-04
7.700000e+08	8.033537e+12	0.000000e+00	6.854836e-01	5.075886e+14	7.602523e+14	1.909961e+14	1.393259e+04	4.272025e+03	2.803824e+03	0	5.978386e-04
7.800000e+08	7.753852e+12	0.000000e+00	6.854836e-01	5.048970e+14	7.564353e+14	1.900960e+14	1.392024e+04	4.269995e+03	2.802492e+03	0	5.908186e-04
7.900000e+08	7.476856e+12	0.000000e+00	6.854836e-01	5.022296e+14	7.526485e+14	1.892021e+14	1.390795e+04	4.267972e+03	2.801164e+03	0	5.836977e-04
8.000000e+08	7.202516e+12	0.000000e+00	6.854836e-01	4.995861e+14	7.488916e+14	1.883144e+14	1.389573e+04	4.265957e+03	2.799842e+03	0	5.764696e-04
8.100000e+08	6.930799e+12	0.000000e+00	6.854836e-01	4.969662e+14	7.451643e+14	1.874328e+14	1.388357e+04	4.263949e+03	2.798524e+03	0	5.691273e-04
8.200000e+08	6.661671e+12	0.000000e+00	6.854836e-01	4.943696e+14	7.414664e+14	1.865574e+14	1.387147e+04	4.261949e+03	2.797211e+03	0	5.616633e-04
8.300000e+08	6.395100e+12	0.000000e+00	6.854836e-01	4.917960e+14	7.377977e+14	1.856880e+14	1.385944e+04	4.259956e+03	2.795903e+03	0	5.540693e-04
8.400000e+08	6.131054e+12	0.000000e+00	6.854836e-01	4.892452e+14	7.341579e+14	1.848246e+14	1.384747e+04	4.257970e+03	2.794599e+03	0	5.463363e-04
8.500000e+08	5.869501e+12	0.000000e+00	6.854836e-01	4.867169e+14	7.305467e+14	1.839671e+14	1.383556e+04	4.255991e+03	2.793301e+03	0	5.384542e-04
8.600000e+08	5.610412e+12	0.000000e+00	6.854836e-01	4.842107e+14	7.269639e+14	1.831156e+14	1.382371e+04	4.254020e+03	2.792007e+03	0	5.304119e-04
8.700000e+08	5.353754e+12	0.000000e+00	6.854836e-01	4.817265e+14	7.234093e+14	1.822699e+14	1.381193e+04	4.252056e+03	2.790718e+03	0	5.221971e-04
8.800000e+08	5.099499e+12	0.000000e+00	6.854836e-01	4.792640e+14	7.198825e+14	1.814301e+14	1.380020e+04	4.250099e+03	2.789434e+03	0	5.137961e-04
8.900000e+08	4.847616e+12	0.000000e+00	6.854836e-01	4.768228e+14	7.163833e+14	1.805960e+14	1.378854e+04	4.248149e+03	2.788154e+03	0	5.051935e-04
9.000000e+08	4.598077e+12	0.000000e+00	6.854836e-01	4.744028e+14	7.129115e+14	1.797677e+14	1.377693e+04	4.246207e+03	2.786879e+03	0	4.963718e-04
9.100000e+08	4.350852e+12	0.000000e+00	6.854836e-01	4.720038e+14	7.094668e+14	1.789450e+14	1.376538e+04	4.244272e+03	2.785609e+03	0	4.873113e-04
9.200000e+08	4.105914e+12	0.000000e+00	6.854836e-01	4.696253e+14	7.060490e+14	1.781280e+14	1.375389e+04	4.242344e+03	2.784344e+03	0	4.779894e-04
9.300000e+08	3.863234e+12	0.000000e+00	6.854836e-01	4.672673e+14	7.026577e+14	1.773165e+14	1.374246e+04	4.240424e+03	2.783084e+03	0	4.683803e-04
9.400000e+08	3.622784e+12	0.000000e+00	6.854836e-01	4.649294e+14	6.992929e+14	1.765106e+14	1.373109e+04	4.238510e+03	2.781828e+03	0	4.584541e-04
9.500000e+08	3.384539e+12	0.000000e+00	6.854836e-01	4.626115e+14	6.959542e+14	1.757102e+14	1.371977e+04	4.236604e+03	2.780577e+03	0	4.481756e-04
9.600000e+08	3.148471e+12	0.000000e+00	6.854836e-01	4.603132e+14	6.926413e+14	1.749153e+14	1.370851e+04	4.234705e+03	2.779330e+03	0	4.375035e-04
9.700000e+08	2.914553e+12	0.000000e+00	6.854836e-01	4.580344e+14	6.893541e+14	1.741257e+14	1.369730e+04	4.232813e+03	2.778088e+03	0	4.263887e-04
9.800000e+08	2.682761e+12	0.000000e+00	6.854836e-01	4.557748e+14	6.860922e+14	1.733416e+14	1.368615e+04	4.230928e+03	2.776851e+03	0	4.147716e-04
9.900000e+08	2.453067e+12	0.000000e+00	6.854836e-01	4.535343e+14	6.828555e+14	1.725627e+14	1.367506e+04	4.229050e+03	2.775619e+03	0	4.025793e-04
1.000000e+09	2.225448e+12	0.000000e+00	6.854836e-01	4.513125e+14	6.796437e+14	1.717892e+14	1.366402e+04	4.227179e+03	2.774391e+03	0	3.897213e-04
1.010000e+09	1.999879e+12	0.000000e+00	6.854836e-01	4.491093e+14	6.764565e+14	1.710209e+14	1.365303e+04	4.225316e+03	2.773168e+03	0	3.760823e-04
1.020000e+09	1.776334e+12	0.000000e+00	6.854836e-01	4.469244e+14	6.732938e+14	1.702578e+14	1.364210e+04	4.223459e+03	2.771949e+03	0	3.615124e-04
1.030000e+09	1.554791e+12	0.000000e+00	6.854836e-01	4.447577e+14	6.701553e+14	1.694999e+14	1.363122e+04	4.221609e+03	2.770735e+03	0	3.458111e-04
1.040000e+09	1.335224e+12	0.000000e+00	6.854836e-01	4.426089e+14	6.670407e+14	1.687471e+14	1.362039e+04	4.219766e+03	2.769526e+03	0	3.287000e-04
1.050000e+09	1.117612e+12	0.000000e+00	6.854836e-01	4.404778e+14	6.639499e+14	1.679993e+14	1.360962e+04	4.217930e+03	2.768321e+03	0	3.097743e-04
1.060000e+09	9.019302e+11	0.000000e+00	6.854836e-01	4.383642e+14	6.608825e+14	1.672567e+14	1.359889e+04	4.216101e+03	2.767120e+03	0	2.884071e-04
1.070000e+09	6.881567e+11	0.000000e+00	6.854836e-01	4.362680e+14	6.578385e+14	1.665190e+14	1.358822e+04	4.214279e+03	2.765924e+03	0	2.635385e-04
1.080000e+09	4.762690e+11	0.000000e+00	6.854836e-01	4.341889e+14	6.548175e+14	1.657863e+14	1.357760e+04	4.212464e+03	2.764733e+03	0	2.331126e-04
1.090000e+09	2.662450e+11	0.000000e+00	6.854836e-01	4.321267e+14	6.518193e+14	1.650585e+14	1.356703e+04	4.210655e+03	2.763546e+03	0	1.920328e-04
1.100000e+09	5.806299e+10	0.000000e+00	6.854836e-01	4.300813e+14	6.488437e+14	1.643356e+14	1.355651e+04	4.208853e+03	2.762363e+03	0	1.155885e-04
1.110000e+09	-1.482984e+11	0.000000e+00	6.854836e-01	4.280524e+14	6.458905e+14	1.636175e+14	1.354604e+04	4.207058e+03	2.761185e+03	0	nan
