#t		Qconv[W]	Ri[Rp]		R*[Rp]		Qc[W]		Qm[W]		Qr[W]		Tcmb[K]		Tl[K]		Tup[K]		RiFlag		Bs[T]
0.000000e+00	4.233982e+12	0.000000e+00	3.618092e-01	1.304876e+14	1.119350e+14	3.305254e+14	7.689972e+03	4.829622e+03	2.342361e+03	0	6.919769e-04
1.000000e+07	4.106907e+12	0.000000e+00	3.618092e-01	1.269735e+14	1.137130e+14	3.286940e+14	7.655342e+03	4.841287e+03	2.348018e+03	0	6.849837e-04
2.000000e+07	3.984943e+12	0.000000e+00	3.618092e-01	1.235999e+14	1.154752e+14	3.268763e+14	7.621638e+03	4.852714e+03	2.353560e+03	0	6.781348e-04
3.000000e+07	3.867809e+12	0.000000e+00	3.618092e-01	1.203589e+14	1.172215e+14	3.250723e+14	7.588822e+03	4.863907e+03	2.358989e+03	0	6.714242e-04
4.000000e+07	3.755241e+12	0.000000e+00	3.618092e-01	1.172434e+14	1.189515e+14	3.232817e+14	7.556860e+03	4.874873e+03	2.364307e+03	0	6.648463e-04
5.000000e+07	3.646995e+12	0.000000e+00	3.618092e-01	1.142467e+14	1.206651e+14	3.215044e+14	7.525718e+03	4.885616e+03	2.369518e+03	0	6.583957e-04
6.000000e+07	3.542842e+12	0.000000e+00	3.618092e-01	1.113625e+14	1.223620e+14	3.197404e+14	7.495367e+03	4.896142e+03	2.374623e+03	0	6.520675e-04
7.000000e+07	3.442572e+12	0.000000e+00	3.618092e-01	1.085851e+14	1.240420e+14	3.179896e+14	7.465776e+03	4.906455e+03	2.379625e+03	0	6.458569e-04
8.000000e+07	3.345986e+12	0.000000e+00	3.618092e-01	1.059090e+14	1.257050e+14	3.162517e+14	7.436918e+03	4.916560e+03	2.384526e+03	0	6.397594e-04
9.000000e+07	3.252900e+12	0.000000e+00	3.618092e-01	1.033291e+14	1.273507e+14	3.145268e+14	7.408766e+03	4.926462e+03	2.389328e+03	0	6.337707e-04
1.000000e+08	3.163141e+12	0.000000e+00	3.618092e-01	1.008408e+14	1.289790e+14	3.128147e+14	7.381295e+03	4.936164e+03	2.394034e+03	0	6.278869e-04
1.100000e+08	3.076547e+12	0.000000e+00	3.618092e-01	9.843963e+13	1.305897e+14	3.111153e+14	7.354481e+03	4.945671e+03	2.398645e+03	0	6.221042e-04
1.200000e+08	2.992967e+12	0.000000e+00	3.618092e-01	9.612140e+13	1.321826e+14	3.094285e+14	7.328302e+03	4.954987e+03	2.403163e+03	0	6.164189e-04
1.300000e+08	2.912260e+12	0.000000e+00	3.618092e-01	9.388226e+13	1.337577e+14	3.077541e+14	7.302735e+03	4.964115e+03	2.407590e+03	0	6.108276e-04
1.400000e+08	2.834291e+12	0.000000e+00	3.618092e-01	9.171854e+13	1.353147e+14	3.060922e+14	7.277759e+03	4.973059e+03	2.411928e+03	0	6.053271e-04
1.500000e+08	2.758937e+12	0.000000e+00	3.618092e-01	8.962680e+13	1.368535e+14	3.044426e+14	7.253356e+03	4.981823e+03	2.416178e+03	0	5.999143e-04
1.600000e+08	2.686078e+12	0.000000e+00	3.618092e-01	8.760383e+13	1.383740e+14	3.028051e+14	7.229505e+03	4.990410e+03	2.420343e+03	0	5.945862e-04
1.700000e+08	2.615605e+12	0.000000e+00	3.618092e-01	8.564658e+13	1.398761e+14	3.011797e+14	7.206190e+03	4.998824e+03	2.424424e+03	0	5.893401e-04
1.800000e+08	2.547412e+12	0.000000e+00	3.618092e-01	8.375219e+13	1.413597e+14	2.995663e+14	7.183392e+03	5.007067e+03	2.428422e+03	0	5.841732e-04
1.900000e+08	2.481401e+12	0.000000e+00	3.618092e-01	8.191795e+13	1.428246e+14	2.979648e+14	7.161095e+03	5.015143e+03	2.432338e+03	0	5.790832e-04
2.000000e+08	2.417479e+12	0.000000e+00	3.618092e-01	8.014130e+13	1.442709e+14	2.963751e+14	7.139284e+03	5.023055e+03	2.436176e+03	0	5.740674e-04
2.100000e+08	2.355559e+12	0.000000e+00	3.618092e-01	7.841985e+13	1.456983e+14	2.947970e+14	7.117944e+03	5.030806e+03	2.439935e+03	0	5.691236e-04
2.200000e+08	2.295558e+12	0.000000e+00	3.618092e-01	7.675132e+13	1.471068e+14	2.932306e+14	7.097059e+03	5.038399e+03	2.443617e+03	0	5.642497e-04
2.300000e+08	2.237396e+12	0.000000e+00	3.618092e-01	7.513353e+13	1.484964e+14	2.916756e+14	7.076616e+03	5.045836e+03	2.447224e+03	0	5.594435e-04
2.400000e+08	2.180999e+12	0.000000e+00	3.618092e-01	7.356446e+13	1.498670e+14	2.901321e+14	7.056601e+03	5.053120e+03	2.450757e+03	0	5.547029e-04
2.500000e+08	2.126298e+12	0.000000e+00	3.618092e-01	7.204217e+13	1.512186e+14	2.885998e+14	7.037003e+03	5.060254e+03	2.454217e+03	0	5.500261e-04
2.600000e+08	2.073225e+12	0.000000e+00	3.618092e-01	7.056482e+13	1.525511e+14	2.870788e+14	7.017807e+03	5.067241e+03	2.457606e+03	0	5.454112e-04
2.700000e+08	2.021716e+12	0.000000e+00	3.618092e-01	6.913068e+13	1.538644e+14	2.855689e+14	6.999004e+03	5.074083e+03	2.460924e+03	0	5.408565e-04
2.800000e+08	1.971713e+12	0.000000e+00	3.618092e-01	6.773808e+13	1.551586e+14	2.840700e+14	6.980580e+03	5.080782e+03	2.464173e+03	0	5.363601e-04
2.900000e+08	1.923156e+12	0.000000e+00	3.618092e-01	6.638545e+13	1.564337e+14	2.825821e+14	6.962526e+03	5.087341e+03	2.467354e+03	0	5.319206e-04
3.000000e+08	1.875993e+12	0.000000e+00	3.618092e-01	6.507130e+13	1.576896e+14	2.811050e+14	6.944830e+03	5.093763e+03	2.470469e+03	0	5.275363e-04
3.100000e+08	1.830171e+12	0.000000e+00	3.618092e-01	6.379421e+13	1.589263e+14	2.796386e+14	6.927483e+03	5.100049e+03	2.473518e+03	0	5.232058e-04
3.200000e+08	1.785641e+12	0.000000e+00	3.618092e-01	6.255282e+13	1.601438e+14	2.781830e+14	6.910475e+03	5.106202e+03	2.476502e+03	0	5.189275e-04
3.300000e+08	1.742357e+12	0.000000e+00	3.618092e-01	6.134585e+13	1.613422e+14	2.767379e+14	6.893796e+03	5.112223e+03	2.479422e+03	0	5.147001e-04
3.400000e+08	1.700272e+12	0.000000e+00	3.618092e-01	6.017205e+13	1.625214e+14	2.753033e+14	6.877437e+03	5.118116e+03	2.482280e+03	0	5.105224e-04
3.500000e+08	1.659346e+12	0.000000e+00	3.618092e-01	5.903026e+13	1.636816e+14	2.738791e+14	6.861390e+03	5.123883e+03	2.485077e+03	0	5.063929e-04
3.600000e+08	1.619536e+12	0.000000e+00	3.618092e-01	5.791936e+13	1.648226e+14	2.724653e+14	6.845646e+03	5.129524e+03	2.487813e+03	0	5.023104e-04
3.700000e+08	1.580805e+12	0.000000e+00	3.618092e-01	5.683828e+13	1.659446e+14	2.710616e+14	6.830197e+03	5.135043e+03	2.490490e+03	0	4.982738e-04
3.800000e+08	1.543114e+12	0.000000e+00	3.618092e-01	5.578599e+13	1.670477e+14	2.696682e+14	6.815035e+03	5.140441e+03	2.493108e+03	0	4.942818e-04
3.900000e+08	1.506430e+12	0.000000e+00	3.618092e-01	5.476152e+13	1.681317e+14	2.682848e+14	6.800153e+03	5.145721e+03	2.495669e+03	0	4.903335e-04
4.000000e+08	1.470716e+12	0.000000e+00	3.618092e-01	5.376393e+13	1.691969e+14	2.669114e+14	6.785542e+03	5.150884e+03	2.498172e+03	0	4.864277e-04
4.100000e+08	1.435942e+12	0.000000e+00	3.618092e-01	5.279233e+13	1.702432e+14	2.655479e+14	6.771197e+03	5.155932e+03	2.500621e+03	0	4.825633e-04
4.200000e+08	1.402076e+12	0.000000e+00	3.618092e-01	5.184586e+13	1.712708e+14	2.641942e+14	6.757110e+03	5.160866e+03	2.503014e+03	0	4.787394e-04
4.300000e+08	1.369088e+12	0.000000e+00	3.618092e-01	5.092370e+13	1.722797e+14	2.628503e+14	6.743274e+03	5.165690e+03	2.505353e+03	0	4.749550e-04
4.400000e+08	1.336950e+12	0.000000e+00	3.618092e-01	5.002507e+13	1.732700e+14	2.615161e+14	6.729683e+03	5.170403e+03	2.507640e+03	0	4.712091e-04
4.500000e+08	1.305634e+12	0.000000e+00	3.618092e-01	4.914920e+13	1.742417e+14	2.601914e+14	6.716331e+03	5.175009e+03	2.509873e+03	0	4.675009e-04
4.600000e+08	1.275114e+12	0.000000e+00	3.618092e-01	4.829538e+13	1.751950e+14	2.588763e+14	6.703212e+03	5.179509e+03	2.512056e+03	0	4.638295e-04
4.700000e+08	1.245365e+12	0.000000e+00	3.618092e-01	4.746291e+13	1.761299e+14	2.575706e+14	6.690320e+03	5.183905e+03	2.514188e+03	0	4.601939e-04
4.800000e+08	1.216363e+12	0.000000e+00	3.618092e-01	4.665113e+13	1.770466e+14	2.562742e+14	6.677650e+03	5.188198e+03	2.516270e+03	0	4.565935e-04
4.900000e+08	1.188084e+12	0.000000e+00	3.618092e-01	4.585939e+13	1.779451e+14	2.549871e+14	6.665195e+03	5.192389e+03	2.518303e+03	0	4.530273e-04
5.000000e+08	1.160506e+12	0.000000e+00	3.618092e-01	4.508708e+13	1.788256e+14	2.537092e+14	6.652950e+03	5.196481e+03	2.520287e+03	0	4.494946e-04
5.100000e+08	1.133608e+12	0.000000e+00	3.618092e-01	4.433360e+13	1.796881e+14	2.524405e+14	6.640912e+03	5.200476e+03	2.522224e+03	0	4.459946e-04
5.200000e+08	1.107369e+12	0.000000e+00	3.618092e-01	4.359839e+13	1.805328e+14	2.511808e+14	6.629073e+03	5.204373e+03	2.524115e+03	0	4.425267e-04
5.300000e+08	1.081769e+12	0.000000e+00	3.618092e-01	4.288090e+13	1.813598e+14	2.499301e+14	6.617430e+03	5.208176e+03	2.525959e+03	0	4.390900e-04
5.400000e+08	1.056789e+12	0.000000e+00	3.618092e-01	4.218060e+13	1.821692e+14	2.486883e+14	6.605978e+03	5.211885e+03	2.527758e+03	0	4.356838e-04
5.500000e+08	1.032411e+12	0.000000e+00	3.618092e-01	4.149699e+13	1.829611e+14	2.474553e+14	6.594713e+03	5.215502e+03	2.529512e+03	0	4.323076e-04
5.600000e+08	1.008617e+12	0.000000e+00	3.618092e-01	4.082957e+13	1.837357e+14	2.462311e+14	6.583629e+03	5.219029e+03	2.531223e+03	0	4.289606e-04
5.700000e+08	9.853899e+11	0.000000e+00	3.618092e-01	4.017788e+13	1.844931e+14	2.450156e+14	6.572723e+03	5.222467e+03	2.532890e+03	0	4.256422e-04
5.800000e+08	9.627130e+11	0.000000e+00	3.618092e-01	3.954145e+13	1.852333e+14	2.438087e+14	6.561990e+03	5.225817e+03	2.534515e+03	0	4.223517e-04
5.900000e+08	9.405708e+11	0.000000e+00	3.618092e-01	3.891986e+13	1.859567e+14	2.426104e+14	6.551427e+03	5.229080e+03	2.536098e+03	0	4.190885e-04
6.000000e+08	9.189479e+11	0.000000e+00	3.618092e-01	3.831268e+13	1.866632e+14	2.414206e+14	6.541029e+03	5.232259e+03	2.537639e+03	0	4.158521e-04
6.100000e+08	8.978294e+11	0.000000e+00	3.618092e-01	3.771950e+13	1.873530e+14	2.402391e+14	6.530793e+03	5.235354e+03	2.539140e+03	0	4.126418e-04
6.200000e+08	8.772013e+11	0.000000e+00	3.618092e-01	3.713992e+13	1.880263e+14	2.390661e+14	6.520715e+03	5.238366e+03	2.540601e+03	0	4.094571e-04
6.300000e+08	8.570497e+11	0.000000e+00	3.618092e-01	3.657358e+13	1.886833e+14	2.379013e+14	6.510791e+03	5.241297e+03	2.542023e+03	0	4.062973e-04
6.400000e+08	8.373614e+11	0.000000e+00	3.618092e-01	3.602009e+13	1.893239e+14	2.367447e+14	6.501018e+03	5.244149e+03	2.543406e+03	0	4.031620e-04
6.500000e+08	8.181236e+11	0.000000e+00	3.618092e-01	3.547911e+13	1.899486e+14	2.355962e+14	6.491392e+03	5.246922e+03	2.544751e+03	0	4.000506e-04
6.600000e+08	7.993238e+11	0.000000e+00	3.618092e-01	3.495030e+13	1.905572e+14	2.344559e+14	6.481911e+03	5.249618e+03	2.546058e+03	0	3.969625e-04
6.700000e+08	7.809500e+11	0.000000e+00	3.618092e-01	3.443332e+13	1.911501e+14	2.333236e+14	6.472570e+03	5.252237e+03	2.547329e+03	0	3.938973e-04
6.800000e+08	7.629907e+11	0.000000e+00	3.618092e-01	3.392785e+13	1.917273e+14	2.321992e+14	6.463367e+03	5.254782e+03	2.548563e+03	0	3.908544e-04
6.900000e+08	7.454348e+11	0.000000e+00	3.618092e-01	3.343359e+13	1.922890e+14	2.310827e+14	6.454299e+03	5.257253e+03	2.549761e+03	0	3.878334e-04
7.000000e+08	7.282713e+11	0.000000e+00	3.618092e-01	3.295023e+13	1.928355e+14	2.299740e+14	6.445362e+03	5.259651e+03	2.550925e+03	0	3.848336e-04
7.100000e+08	7.114897e+11	0.000000e+00	3.618092e-01	3.247748e+13	1.933667e+14	2.288731e+14	6.436554e+03	5.261978e+03	2.552053e+03	0	3.818547e-04
7.200000e+08	6.950800e+11	0.000000e+00	3.618092e-01	3.201506e+13	1.938830e+14	2.277799e+14	6.427872e+03	5.264235e+03	2.553148e+03	0	3.788962e-04
7.300000e+08	6.790323e+11	0.000000e+00	3.618092e-01	3.156271e+13	1.943844e+14	2.266943e+14	6.419314e+03	5.266422e+03	2.554208e+03	0	3.759575e-04
7.400000e+08	6.633371e+11	0.000000e+00	3.618092e-01	3.112015e+13	1.948711e+14	2.256163e+14	6.410875e+03	5.268541e+03	2.555236e+03	0	3.730383e-04
7.500000e+08	6.479852e+11	0.000000e+00	3.618092e-01	3.068714e+13	1.953432e+14	2.245458e+14	6.402555e+03	5.270593e+03	2.556232e+03	0	3.701380e-04
7.600000e+08	6.329676e+11	0.000000e+00	3.618092e-01	3.026342e+13	1.958010e+14	2.234828e+14	6.394351e+03	5.272580e+03	2.557195e+03	0	3.672562e-04
7.700000e+08	6.182758e+11	0.000000e+00	3.618092e-01	2.984876e+13	1.962446e+14	2.224272e+14	6.386259e+03	5.274501e+03	2.558127e+03	0	3.643924e-04
7.800000e+08	6.039013e+11	0.000000e+00	3.618092e-01	2.944293e+13	1.966741e+14	2.213789e+14	6.378278e+03	5.276358e+03	2.559027e+03	0	3.615463e-04
7.900000e+08	5.898360e+11	0.000000e+00	3.618092e-01	2.904569e+13	1.970898e+14	2.203379e+14	6.370404e+03	5.278152e+03	2.559898e+03	0	3.587173e-04
8.000000e+08	5.760720e+11	0.000000e+00	3.618092e-01	2.865684e+13	1.974917e+14	2.193041e+14	6.362637e+03	5.279885e+03	2.560738e+03	0	3.559051e-04
8.100000e+08	5.626018e+11	0.000000e+00	3.618092e-01	2.827615e+13	1.978801e+14	2.182775e+14	6.354974e+03	5.281556e+03	2.561549e+03	0	3.531092e-04
8.200000e+08	5.494178e+11	0.000000e+00	3.618092e-01	2.790343e+13	1.982551e+14	2.172580e+14	6.347412e+03	5.283168e+03	2.562330e+03	0	3.503291e-04
8.300000e+08	5.365130e+11	0.000000e+00	3.618092e-01	2.753848e+13	1.986168e+14	2.162455e+14	6.339949e+03	5.284720e+03	2.563083e+03	0	3.475645e-04
8.400000e+08	5.238802e+11	0.000000e+00	3.618092e-01	2.718110e+13	1.989655e+14	2.152400e+14	6.332584e+03	5.286215e+03	2.563808e+03	0	3.448148e-04
8.500000e+08	5.115128e+11	0.000000e+00	3.618092e-01	2.683110e+13	1.993012e+14	2.142415e+14	6.325314e+03	5.287652e+03	2.564505e+03	0	3.420798e-04
8.600000e+08	4.994042e+11	0.000000e+00	3.618092e-01	2.648831e+13	1.996243e+14	2.132498e+14	6.318138e+03	5.289033e+03	2.565175e+03	0	3.393590e-04
8.700000e+08	4.875480e+11	0.000000e+00	3.618092e-01	2.615255e+13	1.999347e+14	2.122650e+14	6.311052e+03	5.290359e+03	2.565818e+03	0	3.366519e-04
8.800000e+08	4.759380e+11	0.000000e+00	3.618092e-01	2.582363e+13	2.002327e+14	2.112869e+14	6.304057e+03	5.291630e+03	2.566434e+03	0	3.339582e-04
8.900000e+08	4.645681e+11	0.000000e+00	3.618092e-01	2.550141e+13	2.005185e+14	2.103156e+14	6.297149e+03	5.292848e+03	2.567025e+03	0	3.312774e-04
9.000000e+08	4.534326e+11	0.000000e+00	3.618092e-01	2.518571e+13	2.007922e+14	2.093509e+14	6.290327e+03	5.294013e+03	2.567590e+03	0	3.286091e-04
9.100000e+08	4.425257e+11	0.000000e+00	3.618092e-01	2.487638e+13	2.010540e+14	2.083929e+14	6.283589e+03	5.295125e+03	2.568130e+03	0	3.259529e-04
9.200000e+08	4.318420e+11	0.000000e+00	3.618092e-01	2.457326e+13	2.013040e+14	2.074414e+14	6.276934e+03	5.296187e+03	2.568645e+03	0	3.233083e-04
9.300000e+08	4.213760e+11	0.000000e+00	3.618092e-01	2.427621e+13	2.015423e+14	2.064964e+14	6.270360e+03	5.297199e+03	2.569135e+03	0	3.206751e-04
9.400000e+08	4.111226e+11	0.000000e+00	3.618092e-01	2.398508e+13	2.017692e+14	2.055579e+14	6.263865e+03	5.298161e+03	2.569602e+03	0	3.180527e-04
9.500000e+08	4.010767e+11	0.000000e+00	3.618092e-01	2.369973e+13	2.019849e+14	2.046258e+14	6.257448e+03	5.299075e+03	2.570045e+03	0	3.154407e-04
9.600000e+08	3.912333e+11	0.000000e+00	3.618092e-01	2.342002e+13	2.021894e+14	2.037000e+14	6.251106e+03	5.299941e+03	2.570465e+03	0	3.128387e-04
9.700000e+08	3.815876e+11	0.000000e+00	3.618092e-01	2.314583e+13	2.023829e+14	2.027805e+14	6.244840e+03	5.300759e+03	2.570862e+03	0	3.102464e-04
9.800000e+08	3.721350e+11	0.000000e+00	3.618092e-01	2.287702e+13	2.025656e+14	2.018673e+14	6.238646e+03	5.301532e+03	2.571237e+03	0	3.076631e-04
9.900000e+08	3.628710e+11	0.000000e+00	3.618092e-01	2.261346e+13	2.027376e+14	2.009603e+14	6.232525e+03	5.302259e+03	2.571589e+03	0	3.050886e-04
1.000000e+09	3.537911e+11	0.000000e+00	3.618092e-01	2.235504e+13	2.028992e+14	2.000595e+14	6.226473e+03	5.302941e+03	2.571920e+03	0	3.025224e-04
1.010000e+09	3.448910e+11	0.000000e+00	3.618092e-01	2.210163e+13	2.030503e+14	1.991648e+14	6.220491e+03	5.303579e+03	2.572229e+03	0	2.999641e-04
1.020000e+09	3.361666e+11	0.000000e+00	3.618092e-01	2.185311e+13	2.031913e+14	1.982761e+14	6.214576e+03	5.304173e+03	2.572518e+03	0	2.974131e-04
1.030000e+09	3.276138e+11	0.000000e+00	3.618092e-01	2.160939e+13	2.033222e+14	1.973934e+14	6.208728e+03	5.304725e+03	2.572785e+03	0	2.948692e-04
1.040000e+09	3.192286e+11	0.000000e+00	3.618092e-01	2.137034e+13	2.034433e+14	1.965167e+14	6.202945e+03	5.305235e+03	2.573033e+03	0	2.923317e-04
1.050000e+09	3.110072e+11	0.000000e+00	3.618092e-01	2.113585e+13	2.035545e+14	1.956460e+14	6.197225e+03	5.305704e+03	2.573260e+03	0	2.898002e-04
1.060000e+09	3.029458e+11	0.000000e+00	3.618092e-01	2.090583e+13	2.036562e+14	1.947811e+14	6.191568e+03	5.306132e+03	2.573468e+03	0	2.872744e-04
1.070000e+09	2.950407e+11	0.000000e+00	3.618092e-01	2.068017e+13	2.037484e+14	1.939220e+14	6.185973e+03	5.306520e+03	2.573656e+03	0	2.847536e-04
1.080000e+09	2.872885e+11	0.000000e+00	3.618092e-01	2.045878e+13	2.038313e+14	1.930687e+14	6.180438e+03	5.306869e+03	2.573825e+03	0	2.822375e-04
1.090000e+09	2.796856e+11	0.000000e+00	3.618092e-01	2.024155e+13	2.039051e+14	1.922212e+14	6.174962e+03	5.307179e+03	2.573975e+03	0	2.797254e-04
1.100000e+09	2.722286e+11	0.000000e+00	3.618092e-01	2.002840e+13	2.039698e+14	1.913793e+14	6.169544e+03	5.307451e+03	2.574107e+03	0	2.772170e-04
1.110000e+09	2.649143e+11	0.000000e+00	3.618092e-01	1.981923e+13	2.040257e+14	1.905431e+14	6.164182e+03	5.307686e+03	2.574221e+03	0	2.747117e-04
1.120000e+09	2.577395e+11	0.000000e+00	3.618092e-01	1.961395e+13	2.040728e+14	1.897125e+14	6.158877e+03	5.307884e+03	2.574317e+03	0	2.722089e-04
1.130000e+09	2.507010e+11	0.000000e+00	3.618092e-01	1.941248e+13	2.041113e+14	1.888874e+14	6.153626e+03	5.308046e+03	2.574396e+03	0	2.697081e-04
1.140000e+09	2.437958e+11	0.000000e+00	3.618092e-01	1.921473e+13	2.041414e+14	1.880679e+14	6.148430e+03	5.308172e+03	2.574457e+03	0	2.672088e-04
1.150000e+09	2.370209e+11	0.000000e+00	3.618092e-01	1.902062e+13	2.041632e+14	1.872538e+14	6.143286e+03	5.308264e+03	2.574502e+03	0	2.647103e-04
1.160000e+09	2.303735e+11	0.000000e+00	3.618092e-01	1.883007e+13	2.041768e+14	1.864452e+14	6.138194e+03	5.308321e+03	2.574529e+03	0	2.622121e-04
1.170000e+09	2.238506e+11	0.000000e+00	3.618092e-01	1.864300e+13	2.041823e+14	1.856419e+14	6.133153e+03	5.308344e+03	2.574541e+03	0	2.597136e-04
1.180000e+09	2.174497e+11	0.000000e+00	3.618092e-01	1.845934e+13	2.041799e+14	1.848440e+14	6.128161e+03	5.308334e+03	2.574536e+03	0	2.572142e-04
1.190000e+09	2.111679e+11	0.000000e+00	3.618092e-01	1.827900e+13	2.041698e+14	1.840514e+14	6.123219e+03	5.308292e+03	2.574515e+03	0	2.547131e-04
1.200000e+09	2.050027e+11	0.000000e+00	3.618092e-01	1.810192e+13	2.041520e+14	1.832641e+14	6.118325e+03	5.308217e+03	2.574479e+03	0	2.522097e-04
1.210000e+09	1.989514e+11	0.000000e+00	3.618092e-01	1.792803e+13	2.041267e+14	1.824819e+14	6.113478e+03	5.308111e+03	2.574427e+03	0	2.497033e-04
1.220000e+09	1.930118e+11	0.000000e+00	3.618092e-01	1.775725e+13	2.040940e+14	1.817050e+14	6.108678e+03	5.307973e+03	2.574361e+03	0	2.471932e-04
1.230000e+09	1.871812e+11	0.000000e+00	3.618092e-01	1.758953e+13	2.040540e+14	1.809332e+14	6.103924e+03	5.307805e+03	2.574279e+03	0	2.446786e-04
1.240000e+09	1.814574e+11	0.000000e+00	3.618092e-01	1.742478e+13	2.040070e+14	1.801665e+14	6.099214e+03	5.307607e+03	2.574183e+03	0	2.421588e-04
1.250000e+09	1.758380e+11	0.000000e+00	3.618092e-01	1.726296e+13	2.039529e+14	1.794049e+14	6.094548e+03	5.307380e+03	2.574073e+03	0	2.396328e-04
1.260000e+09	1.703209e+11	0.000000e+00	3.618092e-01	1.710400e+13	2.038919e+14	1.786483e+14	6.089925e+03	5.307123e+03	2.573949e+03	0	2.370998e-04
1.270000e+09	1.649037e+11	0.000000e+00	3.618092e-01	1.694783e+13	2.038242e+14	1.778966e+14	6.085345e+03	5.306839e+03	2.573810e+03	0	2.345590e-04
1.280000e+09	1.595843e+11	0.000000e+00	3.618092e-01	1.679440e+13	2.037498e+14	1.771499e+14	6.080807e+03	5.306526e+03	2.573659e+03	0	2.320093e-04
1.290000e+09	1.543607e+11	0.000000e+00	3.618092e-01	1.664364e+13	2.036689e+14	1.764082e+14	6.076309e+03	5.306185e+03	2.573493e+03	0	2.294497e-04
1.300000e+09	1.492309e+11	0.000000e+00	3.618092e-01	1.649551e+13	2.035816e+14	1.756712e+14	6.071852e+03	5.305817e+03	2.573315e+03	0	2.268793e-04
1.310000e+09	1.441927e+11	0.000000e+00	3.618092e-01	1.634995e+13	2.034879e+14	1.749392e+14	6.067435e+03	5.305423e+03	2.573124e+03	0	2.242968e-04
1.320000e+09	1.392444e+11	0.000000e+00	3.618092e-01	1.620690e+13	2.033882e+14	1.742119e+14	6.063056e+03	5.305003e+03	2.572920e+03	0	2.217011e-04
1.330000e+09	1.343839e+11	0.000000e+00	3.618092e-01	1.606630e+13	2.032823e+14	1.734894e+14	6.058716e+03	5.304557e+03	2.572704e+03	0	2.190909e-04
1.340000e+09	1.296095e+11	0.000000e+00	3.618092e-01	1.592812e+13	2.031705e+14	1.727716e+14	6.054413e+03	5.304086e+03	2.572475e+03	0	2.164649e-04
1.350000e+09	1.249192e+11	0.000000e+00	3.618092e-01	1.579229e+13	2.030529e+14	1.720584e+14	6.050147e+03	5.303590e+03	2.572235e+03	0	2.138217e-04
1.360000e+09	1.203115e+11	0.000000e+00	3.618092e-01	1.565877e+13	2.029295e+14	1.713500e+14	6.045917e+03	5.303069e+03	2.571982e+03	0	2.111597e-04
