#t		Qconv[W]	Ri[Rp]		R*[Rp]		Qc[W]		Qm[W]		Qr[W]		Tcmb[K]		Tl[K]		Tup[K]		RiFlag		Bs[T]
0.000000e+00	1.434239e+13	0.000000e+00	3.567840e-01	3.388633e+14	1.170344e+14	5.451417e+14	1.092306e+04	6.440646e+03	2.542899e+03	0	1.023536e-03
1.000000e+07	1.389132e+13	0.000000e+00	3.567840e-01	3.298755e+14	1.191674e+14	5.421212e+14	1.087085e+04	6.457656e+03	2.549615e+03	0	1.012691e-03
2.000000e+07	1.345857e+13	0.000000e+00	3.567840e-01	3.212485e+14	1.212897e+14	5.391233e+14	1.082001e+04	6.474352e+03	2.556207e+03	0	1.002064e-03
3.000000e+07	1.304311e+13	0.000000e+00	3.567840e-01	3.129621e+14	1.234012e+14	5.361478e+14	1.077050e+04	6.490742e+03	2.562678e+03	0	9.916450e-04
4.000000e+07	1.264398e+13	0.000000e+00	3.567840e-01	3.049975e+14	1.255016e+14	5.331945e+14	1.072225e+04	6.506836e+03	2.569032e+03	0	9.814250e-04
5.000000e+07	1.226029e+13	0.000000e+00	3.567840e-01	2.973372e+14	1.275907e+14	5.302633e+14	1.067522e+04	6.522639e+03	2.575271e+03	0	9.713955e-04
6.000000e+07	1.189121e+13	0.000000e+00	3.567840e-01	2.899651e+14	1.296683e+14	5.273539e+14	1.062936e+04	6.538161e+03	2.581400e+03	0	9.615485e-04
7.000000e+07	1.153597e+13	0.000000e+00	3.567840e-01	2.828661e+14	1.317342e+14	5.244661e+14	1.058463e+04	6.553409e+03	2.587420e+03	0	9.518763e-04
8.000000e+07	1.119385e+13	0.000000e+00	3.567840e-01	2.760259e+14	1.337882e+14	5.215999e+14	1.054098e+04	6.568388e+03	2.593334e+03	0	9.423718e-04
9.000000e+07	1.086417e+13	0.000000e+00	3.567840e-01	2.694316e+14	1.358300e+14	5.187549e+14	1.049838e+04	6.583106e+03	2.599145e+03	0	9.330281e-04
1.000000e+08	1.054632e+13	0.000000e+00	3.567840e-01	2.630708e+14	1.378595e+14	5.159311e+14	1.045680e+04	6.597569e+03	2.604855e+03	0	9.238387e-04
1.100000e+08	1.023971e+13	0.000000e+00	3.567840e-01	2.569320e+14	1.398765e+14	5.131283e+14	1.041619e+04	6.611783e+03	2.610467e+03	0	9.147976e-04
1.200000e+08	9.943782e+12	0.000000e+00	3.567840e-01	2.510045e+14	1.418808e+14	5.103462e+14	1.037652e+04	6.625753e+03	2.615983e+03	0	9.058988e-04
1.300000e+08	9.658032e+12	0.000000e+00	3.567840e-01	2.452782e+14	1.438721e+14	5.075847e+14	1.033776e+04	6.639485e+03	2.621405e+03	0	8.971369e-04
1.400000e+08	9.381974e+12	0.000000e+00	3.567840e-01	2.397436e+14	1.458504e+14	5.048436e+14	1.029987e+04	6.652985e+03	2.626734e+03	0	8.885064e-04
1.500000e+08	9.115156e+12	0.000000e+00	3.567840e-01	2.343919e+14	1.478154e+14	5.021228e+14	1.026284e+04	6.666256e+03	2.631974e+03	0	8.800024e-04
1.600000e+08	8.857154e+12	0.000000e+00	3.567840e-01	2.292147e+14	1.497670e+14	4.994221e+14	1.022663e+04	6.679305e+03	2.637126e+03	0	8.716201e-04
1.700000e+08	8.607568e+12	0.000000e+00	3.567840e-01	2.242042e+14	1.517050e+14	4.967414e+14	1.019121e+04	6.692135e+03	2.642192e+03	0	8.633548e-04
1.800000e+08	8.366022e+12	0.000000e+00	3.567840e-01	2.193529e+14	1.536292e+14	4.940804e+14	1.015656e+04	6.704752e+03	2.647173e+03	0	8.552022e-04
1.900000e+08	8.132161e+12	0.000000e+00	3.567840e-01	2.146540e+14	1.555395e+14	4.914390e+14	1.012266e+04	6.717158e+03	2.652071e+03	0	8.471581e-04
2.000000e+08	7.905650e+12	0.000000e+00	3.567840e-01	2.101007e+14	1.574357e+14	4.888170e+14	1.008947e+04	6.729360e+03	2.656889e+03	0	8.392185e-04
2.100000e+08	7.686176e+12	0.000000e+00	3.567840e-01	2.056870e+14	1.593177e+14	4.862143e+14	1.005699e+04	6.741359e+03	2.661627e+03	0	8.313794e-04
2.200000e+08	7.473440e+12	0.000000e+00	3.567840e-01	2.014070e+14	1.611853e+14	4.836307e+14	1.002519e+04	6.753162e+03	2.666286e+03	0	8.236373e-04
2.300000e+08	7.267160e+12	0.000000e+00	3.567840e-01	1.972551e+14	1.630384e+14	4.810661e+14	9.994043e+03	6.764770e+03	2.670869e+03	0	8.159886e-04
2.400000e+08	7.067071e+12	0.000000e+00	3.567840e-01	1.932262e+14	1.648769e+14	4.785203e+14	9.963536e+03	6.776188e+03	2.675377e+03	0	8.084298e-04
2.500000e+08	6.872921e+12	0.000000e+00	3.567840e-01	1.893151e+14	1.667006e+14	4.759932e+14	9.933648e+03	6.787419e+03	2.679812e+03	0	8.009578e-04
2.600000e+08	6.684471e+12	0.000000e+00	3.567840e-01	1.855173e+14	1.685095e+14	4.734845e+14	9.904362e+03	6.798466e+03	2.684173e+03	0	7.935693e-04
2.700000e+08	6.501495e+12	0.000000e+00	3.567840e-01	1.818283e+14	1.703033e+14	4.709942e+14	9.875661e+03	6.809333e+03	2.688464e+03	0	7.862613e-04
2.800000e+08	6.323779e+12	0.000000e+00	3.567840e-01	1.782439e+14	1.720820e+14	4.685220e+14	9.847527e+03	6.820024e+03	2.692685e+03	0	7.790310e-04
2.900000e+08	6.151119e+12	0.000000e+00	3.567840e-01	1.747600e+14	1.738454e+14	4.660679e+14	9.819944e+03	6.830540e+03	2.696837e+03	0	7.718754e-04
3.000000e+08	5.983322e+12	0.000000e+00	3.567840e-01	1.713729e+14	1.755935e+14	4.636317e+14	9.792898e+03	6.840885e+03	2.700921e+03	0	7.647919e-04
3.100000e+08	5.820204e+12	0.000000e+00	3.567840e-01	1.680789e+14	1.773262e+14	4.612133e+14	9.766374e+03	6.851062e+03	2.704939e+03	0	7.577778e-04
3.200000e+08	5.661591e+12	0.000000e+00	3.567840e-01	1.648746e+14	1.790434e+14	4.588124e+14	9.740357e+03	6.861074e+03	2.708892e+03	0	7.508307e-04
3.300000e+08	5.507317e+12	0.000000e+00	3.567840e-01	1.617567e+14	1.807449e+14	4.564290e+14	9.714833e+03	6.870923e+03	2.712781e+03	0	7.439479e-04
3.400000e+08	5.357222e+12	0.000000e+00	3.567840e-01	1.587220e+14	1.824308e+14	4.540629e+14	9.689789e+03	6.880613e+03	2.716607e+03	0	7.371271e-04
3.500000e+08	5.211158e+12	0.000000e+00	3.567840e-01	1.557676e+14	1.841009e+14	4.517140e+14	9.665214e+03	6.890145e+03	2.720370e+03	0	7.303661e-04
3.600000e+08	5.068980e+12	0.000000e+00	3.567840e-01	1.528908e+14	1.857551e+14	4.493821e+14	9.641093e+03	6.899522e+03	2.724072e+03	0	7.236624e-04
3.700000e+08	4.930551e+12	0.000000e+00	3.567840e-01	1.500886e+14	1.873934e+14	4.470671e+14	9.617416e+03	6.908747e+03	2.727714e+03	0	7.170140e-04
3.800000e+08	4.795740e+12	0.000000e+00	3.567840e-01	1.473587e+14	1.890158e+14	4.447688e+14	9.594170e+03	6.917822e+03	2.731297e+03	0	7.104187e-04
3.900000e+08	4.664423e+12	0.000000e+00	3.567840e-01	1.446984e+14	1.906221e+14	4.424872e+14	9.571346e+03	6.926749e+03	2.734822e+03	0	7.038744e-04
4.000000e+08	4.536481e+12	0.000000e+00	3.567840e-01	1.421055e+14	1.922123e+14	4.402220e+14	9.548932e+03	6.935531e+03	2.738289e+03	0	6.973790e-04
4.100000e+08	4.411799e+12	0.000000e+00	3.567840e-01	1.395777e+14	1.937864e+14	4.379732e+14	9.526917e+03	6.944169e+03	2.741700e+03	0	6.909306e-04
4.200000e+08	4.290269e+12	0.000000e+00	3.567840e-01	1.371129e+14	1.953442e+14	4.357405e+14	9.505293e+03	6.952667e+03	2.745055e+03	0	6.845271e-04
4.300000e+08	4.171787e+12	0.000000e+00	3.567840e-01	1.347089e+14	1.968859e+14	4.335240e+14	9.484049e+03	6.961026e+03	2.748355e+03	0	6.781668e-04
4.400000e+08	4.056252e+12	0.000000e+00	3.567840e-01	1.323638e+14	1.984113e+14	4.313234e+14	9.463175e+03	6.969248e+03	2.751602e+03	0	6.718477e-04
4.500000e+08	3.943570e+12	0.000000e+00	3.567840e-01	1.300758e+14	1.999204e+14	4.291386e+14	9.442664e+03	6.977336e+03	2.754795e+03	0	6.655679e-04
4.600000e+08	3.833649e+12	0.000000e+00	3.567840e-01	1.278429e+14	2.014132e+14	4.269695e+14	9.422505e+03	6.985290e+03	2.757935e+03	0	6.593256e-04
4.700000e+08	3.726401e+12	0.000000e+00	3.567840e-01	1.256636e+14	2.028896e+14	4.248160e+14	9.402691e+03	6.993114e+03	2.761024e+03	0	6.531191e-04
4.800000e+08	3.621742e+12	0.000000e+00	3.567840e-01	1.235360e+14	2.043497e+14	4.226778e+14	9.383214e+03	7.000809e+03	2.764062e+03	0	6.469465e-04
4.900000e+08	3.519592e+12	0.000000e+00	3.567840e-01	1.214586e+14	2.057934e+14	4.205550e+14	9.364065e+03	7.008377e+03	2.767050e+03	0	6.408061e-04
5.000000e+08	3.419873e+12	0.000000e+00	3.567840e-01	1.194299e+14	2.072207e+14	4.184474e+14	9.345236e+03	7.015819e+03	2.769989e+03	0	6.346961e-04
5.100000e+08	3.322511e+12	0.000000e+00	3.567840e-01	1.174484e+14	2.086316e+14	4.163548e+14	9.326721e+03	7.023139e+03	2.772879e+03	0	6.286149e-04
5.200000e+08	3.227435e+12	0.000000e+00	3.567840e-01	1.155127e+14	2.100261e+14	4.142772e+14	9.308512e+03	7.030336e+03	2.775720e+03	0	6.225606e-04
5.300000e+08	3.134575e+12	0.000000e+00	3.567840e-01	1.136214e+14	2.114043e+14	4.122144e+14	9.290602e+03	7.037413e+03	2.778515e+03	0	6.165317e-04
5.400000e+08	3.043867e+12	0.000000e+00	3.567840e-01	1.117732e+14	2.127660e+14	4.101663e+14	9.272984e+03	7.044372e+03	2.781262e+03	0	6.105263e-04
5.500000e+08	2.955245e+12	0.000000e+00	3.567840e-01	1.099668e+14	2.141113e+14	4.081327e+14	9.255652e+03	7.051215e+03	2.783964e+03	0	6.045427e-04
5.600000e+08	2.868651e+12	0.000000e+00	3.567840e-01	1.082011e+14	2.154403e+14	4.061136e+14	9.238598e+03	7.057942e+03	2.786620e+03	0	5.985793e-04
5.700000e+08	2.784024e+12	0.000000e+00	3.567840e-01	1.064748e+14	2.167530e+14	4.041089e+14	9.221818e+03	7.064556e+03	2.789231e+03	0	5.926343e-04
5.800000e+08	2.701308e+12	0.000000e+00	3.567840e-01	1.047869e+14	2.180493e+14	4.021183e+14	9.205304e+03	7.071058e+03	2.791798e+03	0	5.867060e-04
5.900000e+08	2.620450e+12	0.000000e+00	3.567840e-01	1.031362e+14	2.193293e+14	4.001419e+14	9.189051e+03	7.077450e+03	2.794322e+03	0	5.807926e-04
6.000000e+08	2.541395e+12	0.000000e+00	3.567840e-01	1.015218e+14	2.205930e+14	3.981795e+14	9.173053e+03	7.083733e+03	2.796803e+03	0	5.748924e-04
6.100000e+08	2.464095e+12	0.000000e+00	3.567840e-01	9.994256e+13	2.218405e+14	3.962309e+14	9.157305e+03	7.089908e+03	2.799241e+03	0	5.690035e-04
6.200000e+08	2.388499e+12	0.000000e+00	3.567840e-01	9.839758e+13	2.230717e+14	3.942962e+14	9.141801e+03	7.095978e+03	2.801637e+03	0	5.631242e-04
6.300000e+08	2.314561e+12	0.000000e+00	3.567840e-01	9.688590e+13	2.242868e+14	3.923750e+14	9.126535e+03	7.101943e+03	2.803992e+03	0	5.572525e-04
6.400000e+08	2.242236e+12	0.000000e+00	3.567840e-01	9.540662e+13	2.254857e+14	3.904675e+14	9.111504e+03	7.107805e+03	2.806307e+03	0	5.513867e-04
6.500000e+08	2.171480e+12	0.000000e+00	3.567840e-01	9.395887e+13	2.266686e+14	3.885733e+14	9.096701e+03	7.113565e+03	2.808581e+03	0	5.455248e-04
6.600000e+08	2.102251e+12	0.000000e+00	3.567840e-01	9.254181e+13	2.278353e+14	3.866925e+14	9.082122e+03	7.119225e+03	2.810815e+03	0	5.396647e-04
6.700000e+08	2.034507e+12	0.000000e+00	3.567840e-01	9.115462e+13	2.289861e+14	3.848249e+14	9.067762e+03	7.124786e+03	2.813011e+03	0	5.338045e-04
6.800000e+08	1.968209e+12	0.000000e+00	3.567840e-01	8.979652e+13	2.301209e+14	3.829705e+14	9.053617e+03	7.130249e+03	2.815168e+03	0	5.279420e-04
6.900000e+08	1.903320e+12	0.000000e+00	3.567840e-01	8.846675e+13	2.312398e+14	3.811290e+14	9.039682e+03	7.135615e+03	2.817287e+03	0	5.220752e-04
7.000000e+08	1.839801e+12	0.000000e+00	3.567840e-01	8.716457e+13	2.323428e+14	3.793004e+14	9.025952e+03	7.140887e+03	2.819368e+03	0	5.162018e-04
7.100000e+08	1.777619e+12	0.000000e+00	3.567840e-01	8.588928e+13	2.334301e+14	3.774847e+14	9.012424e+03	7.146064e+03	2.821412e+03	0	5.103194e-04
7.200000e+08	1.716738e+12	0.000000e+00	3.567840e-01	8.464018e+13	2.345016e+14	3.756816e+14	8.999093e+03	7.151149e+03	2.823420e+03	0	5.044256e-04
7.300000e+08	1.657124e+12	0.000000e+00	3.567840e-01	8.341660e+13	2.355574e+14	3.738912e+14	8.985956e+03	7.156143e+03	2.825391e+03	0	4.985180e-04
7.400000e+08	1.598746e+12	0.000000e+00	3.567840e-01	8.221791e+13	2.365977e+14	3.721132e+14	8.973008e+03	7.161046e+03	2.827327e+03	0	4.925939e-04
7.500000e+08	1.541572e+12	0.000000e+00	3.567840e-01	8.104349e+13	2.376224e+14	3.703477e+14	8.960245e+03	7.165860e+03	2.829228e+03	0	4.866505e-04
7.600000e+08	1.485573e+12	0.000000e+00	3.567840e-01	7.989271e+13	2.386317e+14	3.685944e+14	8.947664e+03	7.170587e+03	2.831094e+03	0	4.806849e-04
7.700000e+08	1.430718e+12	0.000000e+00	3.567840e-01	7.876501e+13	2.396255e+14	3.668534e+14	8.935261e+03	7.175226e+03	2.832926e+03	0	4.746941e-04
7.800000e+08	1.376979e+12	0.000000e+00	3.567840e-01	7.765982e+13	2.406041e+14	3.651244e+14	8.923033e+03	7.179780e+03	2.834724e+03	0	4.686749e-04
7.900000e+08	1.324330e+12	0.000000e+00	3.567840e-01	7.657658e+13	2.415674e+14	3.634074e+14	8.910976e+03	7.184249e+03	2.836488e+03	0	4.626237e-04
8.000000e+08	1.272742e+12	0.000000e+00	3.567840e-01	7.551475e+13	2.425155e+14	3.617024e+14	8.899087e+03	7.188635e+03	2.838220e+03	0	4.565370e-04
8.100000e+08	1.222191e+12	0.000000e+00	3.567840e-01	7.447384e+13	2.434486e+14	3.600092e+14	8.887361e+03	7.192938e+03	2.839919e+03	0	4.504109e-04
8.200000e+08	1.172652e+12	0.000000e+00	3.567840e-01	7.345332e+13	2.443666e+14	3.583277e+14	8.875798e+03	7.197161e+03	2.841586e+03	0	4.442412e-04
8.300000e+08	1.124099e+12	0.000000e+00	3.567840e-01	7.245273e+13	2.452698e+14	3.566578e+14	8.864392e+03	7.201302e+03	2.843221e+03	0	4.380234e-04
8.400000e+08	1.076509e+12	0.000000e+00	3.567840e-01	7.147157e+13	2.461581e+14	3.549994e+14	8.853141e+03	7.205365e+03	2.844825e+03	0	4.317527e-04
8.500000e+08	1.029860e+12	0.000000e+00	3.567840e-01	7.050941e+13	2.470316e+14	3.533525e+14	8.842042e+03	7.209350e+03	2.846399e+03	0	4.254239e-04
8.600000e+08	9.841294e+11	0.000000e+00	3.567840e-01	6.956578e+13	2.478905e+14	3.517170e+14	8.831092e+03	7.213257e+03	2.847941e+03	0	4.190314e-04
8.700000e+08	9.392953e+11	0.000000e+00	3.567840e-01	6.864026e+13	2.487347e+14	3.500927e+14	8.820288e+03	7.217088e+03	2.849454e+03	0	4.125690e-04
8.800000e+08	8.953368e+11	0.000000e+00	3.567840e-01	6.773244e+13	2.495646e+14	3.484795e+14	8.809627e+03	7.220844e+03	2.850937e+03	0	4.060299e-04
8.900000e+08	8.522337e+11	0.000000e+00	3.567840e-01	6.684189e+13	2.503800e+14	3.468775e+14	8.799107e+03	7.224525e+03	2.852390e+03	0	3.994067e-04
9.000000e+08	8.099661e+11	0.000000e+00	3.567840e-01	6.596823e+13	2.511811e+14	3.452864e+14	8.788725e+03	7.228133e+03	2.853815e+03	0	3.926914e-04
9.100000e+08	7.685148e+11	0.000000e+00	3.567840e-01	6.511106e+13	2.519680e+14	3.437063e+14	8.778479e+03	7.231669e+03	2.855211e+03	0	3.858749e-04
9.200000e+08	7.278612e+11	0.000000e+00	3.567840e-01	6.427003e+13	2.527409e+14	3.421370e+14	8.768365e+03	7.235133e+03	2.856579e+03	0	3.789472e-04
9.300000e+08	6.879871e+11	0.000000e+00	3.567840e-01	6.344475e+13	2.534997e+14	3.405784e+14	8.758381e+03	7.238527e+03	2.857918e+03	0	3.718969e-04
9.400000e+08	6.488748e+11	0.000000e+00	3.567840e-01	6.263489e+13	2.542445e+14	3.390305e+14	8.748526e+03	7.241851e+03	2.859231e+03	0	3.647115e-04
9.500000e+08	6.105072e+11	0.000000e+00	3.567840e-01	6.184008e+13	2.549756e+14	3.374931e+14	8.738796e+03	7.245106e+03	2.860516e+03	0	3.573766e-04
9.600000e+08	5.728676e+11	0.000000e+00	3.567840e-01	6.106000e+13	2.556930e+14	3.359662e+14	8.729189e+03	7.248294e+03	2.861775e+03	0	3.498758e-04
9.700000e+08	5.359397e+11	0.000000e+00	3.567840e-01	6.029433e+13	2.563967e+14	3.344497e+14	8.719702e+03	7.251414e+03	2.863007e+03	0	3.421904e-04
9.800000e+08	4.997077e+11	0.000000e+00	3.567840e-01	5.954274e+13	2.570869e+14	3.329436e+14	8.710335e+03	7.254468e+03	2.864212e+03	0	3.342986e-04
9.900000e+08	4.641562e+11	0.000000e+00	3.567840e-01	5.880493e+13	2.577637e+14	3.314476e+14	8.701084e+03	7.257457e+03	2.865392e+03	0	3.261749e-04
1.000000e+09	4.292704e+11	0.000000e+00	3.567840e-01	5.808059e+13	2.584272e+14	3.299619e+14	8.691947e+03	7.260382e+03	2.866547e+03	0	3.177894e-04
1.010000e+09	3.950355e+11	0.000000e+00	3.567840e-01	5.736944e+13	2.590775e+14	3.284862e+14	8.682923e+03	7.263242e+03	2.867677e+03	0	3.091063e-04
1.020000e+09	3.614374e+11	0.000000e+00	3.567840e-01	5.667118e+13	2.597147e+14	3.270205e+14	8.674009e+03	7.266040e+03	2.868781e+03	0	3.000822e-04
1.030000e+09	3.284622e+11	0.000000e+00	3.567840e-01	5.598554e+13	2.603389e+14	3.255647e+14	8.665203e+03	7.268776e+03	2.869861e+03	0	2.906638e-04
1.040000e+09	2.960966e+11	0.000000e+00	3.567840e-01	5.531225e+13	2.609502e+14	3.241188e+14	8.656503e+03	7.271450e+03	2.870917e+03	0	2.807848e-04
1.050000e+09	2.643274e+11	0.000000e+00	3.567840e-01	5.465105e+13	2.615486e+14	3.226826e+14	8.647908e+03	7.274064e+03	2.871949e+03	0	2.703605e-04
1.060000e+09	2.331418e+11	0.000000e+00	3.567840e-01	5.400168e+13	2.621345e+14	3.212561e+14	8.639415e+03	7.276618e+03	2.872958e+03	0	2.592801e-04
1.070000e+09	2.025273e+11	0.000000e+00	3.567840e-01	5.336389e+13	2.627077e+14	3.198392e+14	8.631023e+03	7.279113e+03	2.873943e+03	0	2.473947e-04
1.080000e+09	1.724719e+11	0.000000e+00	3.567840e-01	5.273743e+13	2.632685e+14	3.184319e+14	8.622730e+03	7.281550e+03	2.874905e+03	0	2.344959e-04
1.090000e+09	1.429636e+11	0.000000e+00	3.567840e-01	5.212206e+13	2.638169e+14	3.170340e+14	8.614534e+03	7.283930e+03	2.875844e+03	0	2.202779e-04
1.100000e+09	1.139910e+11	0.000000e+00	3.567840e-01	5.151757e+13	2.643531e+14	3.156455e+14	8.606433e+03	7.286253e+03	2.876761e+03	0	2.042613e-04
1.110000e+09	8.554287e+10	0.000000e+00	3.567840e-01	5.092371e+13	2.648771e+14	3.142663e+14	8.598426e+03	7.288519e+03	2.877656e+03	0	1.856196e-04
1.120000e+09	5.760815e+10	0.000000e+00	3.567840e-01	5.034027e+13	2.653890e+14	3.128963e+14	8.590511e+03	7.290730e+03	2.878529e+03	0	1.627011e-04
1.130000e+09	3.017619e+10	0.000000e+00	3.567840e-01	4.976703e+13	2.658891e+14	3.115355e+14	8.582687e+03	7.292887e+03	2.879381e+03	0	1.311547e-04
1.140000e+09	3.236559e+09	0.000000e+00	3.567840e-01	4.920378e+13	2.663773e+14	3.101839e+14	8.574951e+03	7.294990e+03	2.880211e+03	0	6.231468e-05
1.150000e+09	-2.322093e+10	0.000000e+00	3.567840e-01	4.865032e+13	2.668537e+14	3.088412e+14	8.567303e+03	7.297039e+03	2.881020e+03	0	nan
