#t		Qconv[W]	Ri[Rp]		R*[Rp]		Qc[W]		Qm[W]		Qr[W]		Tcmb[K]		Tl[K]		Tup[K]		RiFlag		Bs[T]
0.000000e+00	2.458765e+13	0.000000e+00	3.567839e-01	5.223885e+14	1.115363e+14	6.758909e+14	1.288462e+04	7.406168e+03	2.642299e+03	0	1.214386e-03
1.000000e+07	2.379689e+13	0.000000e+00	3.567839e-01	5.088156e+14	1.137010e+14	6.721460e+14	1.282261e+04	7.426424e+03	2.649525e+03	0	1.201226e-03
2.000000e+07	2.303786e+13	0.000000e+00	3.567839e-01	4.957792e+14	1.158581e+14	6.684290e+14	1.276220e+04	7.446316e+03	2.656622e+03	0	1.188316e-03
3.000000e+07	2.230879e+13	0.000000e+00	3.567839e-01	4.832496e+14	1.180075e+14	6.647399e+14	1.270332e+04	7.465856e+03	2.663594e+03	0	1.175646e-03
4.000000e+07	2.160803e+13	0.000000e+00	3.567839e-01	4.711992e+14	1.201489e+14	6.610783e+14	1.264592e+04	7.485052e+03	2.670442e+03	0	1.163205e-03
5.000000e+07	2.093406e+13	0.000000e+00	3.567839e-01	4.596023e+14	1.222820e+14	6.574440e+14	1.258994e+04	7.503915e+03	2.677172e+03	0	1.150983e-03
6.000000e+07	2.028546e+13	0.000000e+00	3.567839e-01	4.484351e+14	1.244068e+14	6.538368e+14	1.253532e+04	7.522454e+03	2.683786e+03	0	1.138971e-03
7.000000e+07	1.966090e+13	0.000000e+00	3.567839e-01	4.376754e+14	1.265229e+14	6.502564e+14	1.248203e+04	7.540677e+03	2.690288e+03	0	1.127160e-03
8.000000e+07	1.905914e+13	0.000000e+00	3.567839e-01	4.273023e+14	1.286302e+14	6.467027e+14	1.243000e+04	7.558593e+03	2.696679e+03	0	1.115541e-03
9.000000e+07	1.847903e+13	0.000000e+00	3.567839e-01	4.172965e+14	1.307284e+14	6.431754e+14	1.237920e+04	7.576210e+03	2.702965e+03	0	1.104106e-03
1.000000e+08	1.791949e+13	0.000000e+00	3.567839e-01	4.076399e+14	1.328173e+14	6.396743e+14	1.232957e+04	7.593535e+03	2.709145e+03	0	1.092848e-03
1.100000e+08	1.737952e+13	0.000000e+00	3.567839e-01	3.983153e+14	1.348969e+14	6.361992e+14	1.228109e+04	7.610575e+03	2.715225e+03	0	1.081759e-03
1.200000e+08	1.685815e+13	0.000000e+00	3.567839e-01	3.893070e+14	1.369668e+14	6.327499e+14	1.223371e+04	7.627337e+03	2.721205e+03	0	1.070832e-03
1.300000e+08	1.635452e+13	0.000000e+00	3.567839e-01	3.805999e+14	1.390269e+14	6.293260e+14	1.218739e+04	7.643828e+03	2.727089e+03	0	1.060060e-03
1.400000e+08	1.586777e+13	0.000000e+00	3.567839e-01	3.721801e+14	1.410770e+14	6.259276e+14	1.214211e+04	7.660055e+03	2.732878e+03	0	1.049437e-03
1.500000e+08	1.539714e+13	0.000000e+00	3.567839e-01	3.640344e+14	1.431169e+14	6.225542e+14	1.209781e+04	7.676022e+03	2.738575e+03	0	1.038958e-03
1.600000e+08	1.494188e+13	0.000000e+00	3.567839e-01	3.561503e+14	1.451465e+14	6.192058e+14	1.205448e+04	7.691737e+03	2.744181e+03	0	1.028615e-03
1.700000e+08	1.450131e+13	0.000000e+00	3.567839e-01	3.485163e+14	1.471655e+14	6.158820e+14	1.201209e+04	7.707203e+03	2.749699e+03	0	1.018405e-03
1.800000e+08	1.407477e+13	0.000000e+00	3.567839e-01	3.411213e+14	1.491739e+14	6.125828e+14	1.197059e+04	7.722428e+03	2.755131e+03	0	1.008320e-03
1.900000e+08	1.366164e+13	0.000000e+00	3.567839e-01	3.339549e+14	1.511714e+14	6.093079e+14	1.192998e+04	7.737416e+03	2.760478e+03	0	9.983561e-04
2.000000e+08	1.326135e+13	0.000000e+00	3.567839e-01	3.270074e+14	1.531579e+14	6.060570e+14	1.189020e+04	7.752171e+03	2.765742e+03	0	9.885086e-04
2.100000e+08	1.287334e+13	0.000000e+00	3.567839e-01	3.202696e+14	1.551332e+14	6.028301e+14	1.185126e+04	7.766699e+03	2.770925e+03	0	9.787724e-04
2.200000e+08	1.249711e+13	0.000000e+00	3.567839e-01	3.137326e+14	1.570972e+14	5.996269e+14	1.181311e+04	7.781004e+03	2.776029e+03	0	9.691429e-04
2.300000e+08	1.213216e+13	0.000000e+00	3.567839e-01	3.073883e+14	1.590497e+14	5.964472e+14	1.177573e+04	7.795091e+03	2.781055e+03	0	9.596157e-04
2.400000e+08	1.177803e+13	0.000000e+00	3.567839e-01	3.012288e+14	1.609906e+14	5.932908e+14	1.173910e+04	7.808963e+03	2.786004e+03	0	9.501865e-04
2.500000e+08	1.143429e+13	0.000000e+00	3.567839e-01	2.952468e+14	1.629198e+14	5.901575e+14	1.170321e+04	7.822626e+03	2.790878e+03	0	9.408512e-04
2.600000e+08	1.110051e+13	0.000000e+00	3.567839e-01	2.894351e+14	1.648370e+14	5.870471e+14	1.166802e+04	7.836082e+03	2.795679e+03	0	9.316057e-04
2.700000e+08	1.077630e+13	0.000000e+00	3.567839e-01	2.837872e+14	1.667422e+14	5.839595e+14	1.163353e+04	7.849336e+03	2.800408e+03	0	9.224463e-04
2.800000e+08	1.046129e+13	0.000000e+00	3.567839e-01	2.782967e+14	1.686353e+14	5.808944e+14	1.159970e+04	7.862392e+03	2.805066e+03	0	9.133690e-04
2.900000e+08	1.015512e+13	0.000000e+00	3.567839e-01	2.729576e+14	1.705162e+14	5.778517e+14	1.156652e+04	7.875252e+03	2.809654e+03	0	9.043703e-04
3.000000e+08	9.857467e+12	0.000000e+00	3.567839e-01	2.677642e+14	1.723846e+14	5.748312e+14	1.153398e+04	7.887921e+03	2.814174e+03	0	8.954466e-04
3.100000e+08	9.567998e+12	0.000000e+00	3.567839e-01	2.627112e+14	1.742405e+14	5.718327e+14	1.150205e+04	7.900402e+03	2.818627e+03	0	8.865943e-04
3.200000e+08	9.286413e+12	0.000000e+00	3.567839e-01	2.577933e+14	1.760838e+14	5.688560e+14	1.147072e+04	7.912699e+03	2.823014e+03	0	8.778101e-04
3.300000e+08	9.012421e+12	0.000000e+00	3.567839e-01	2.530056e+14	1.779143e+14	5.659010e+14	1.143998e+04	7.924813e+03	2.827336e+03	0	8.690906e-04
3.400000e+08	8.745746e+12	0.000000e+00	3.567839e-01	2.483434e+14	1.797320e+14	5.629674e+14	1.140980e+04	7.936749e+03	2.831594e+03	0	8.604326e-04
3.500000e+08	8.486126e+12	0.000000e+00	3.567839e-01	2.438024e+14	1.815368e+14	5.600551e+14	1.138018e+04	7.948509e+03	2.835790e+03	0	8.518329e-04
3.600000e+08	8.233310e+12	0.000000e+00	3.567839e-01	2.393782e+14	1.833286e+14	5.571639e+14	1.135109e+04	7.960097e+03	2.839924e+03	0	8.432883e-04
3.700000e+08	7.987059e+12	0.000000e+00	3.567839e-01	2.350667e+14	1.851073e+14	5.542936e+14	1.132253e+04	7.971514e+03	2.843997e+03	0	8.347957e-04
3.800000e+08	7.747144e+12	0.000000e+00	3.567839e-01	2.308642e+14	1.868727e+14	5.514441e+14	1.129449e+04	7.982765e+03	2.848011e+03	0	8.263521e-04
3.900000e+08	7.513349e+12	0.000000e+00	3.567839e-01	2.267669e+14	1.886248e+14	5.486153e+14	1.126694e+04	7.993851e+03	2.851966e+03	0	8.179544e-04
4.000000e+08	7.285464e+12	0.000000e+00	3.567839e-01	2.227712e+14	1.903636e+14	5.458068e+14	1.123988e+04	8.004775e+03	2.855864e+03	0	8.095996e-04
4.100000e+08	7.063290e+12	0.000000e+00	3.567839e-01	2.188738e+14	1.920889e+14	5.430186e+14	1.121329e+04	8.015539e+03	2.859704e+03	0	8.012848e-04
4.200000e+08	6.846639e+12	0.000000e+00	3.567839e-01	2.150715e+14	1.938006e+14	5.402505e+14	1.118717e+04	8.026147e+03	2.863489e+03	0	7.930070e-04
4.300000e+08	6.635327e+12	0.000000e+00	3.567839e-01	2.113611e+14	1.954988e+14	5.375023e+14	1.116150e+04	8.036601e+03	2.867218e+03	0	7.847633e-04
4.400000e+08	6.429180e+12	0.000000e+00	3.567839e-01	2.077397e+14	1.971834e+14	5.347739e+14	1.113627e+04	8.046902e+03	2.870893e+03	0	7.765506e-04
4.500000e+08	6.228032e+12	0.000000e+00	3.567839e-01	2.042045e+14	1.988541e+14	5.320651e+14	1.111147e+04	8.057053e+03	2.874515e+03	0	7.683661e-04
4.600000e+08	6.031723e+12	0.000000e+00	3.567839e-01	2.007527e+14	2.005111e+14	5.293758e+14	1.108709e+04	8.067057e+03	2.878084e+03	0	7.602067e-04
4.700000e+08	5.840099e+12	0.000000e+00	3.567839e-01	1.973817e+14	2.021543e+14	5.267057e+14	1.106312e+04	8.076915e+03	2.881601e+03	0	7.520695e-04
4.800000e+08	5.653015e+12	0.000000e+00	3.567839e-01	1.940890e+14	2.037836e+14	5.240548e+14	1.103955e+04	8.086630e+03	2.885067e+03	0	7.439515e-04
4.900000e+08	5.470328e+12	0.000000e+00	3.567839e-01	1.908722e+14	2.053990e+14	5.214228e+14	1.101637e+04	8.096204e+03	2.888483e+03	0	7.358495e-04
5.000000e+08	5.291904e+12	0.000000e+00	3.567839e-01	1.877291e+14	2.070003e+14	5.188097e+14	1.099358e+04	8.105639e+03	2.891849e+03	0	7.277606e-04
5.100000e+08	5.117612e+12	0.000000e+00	3.567839e-01	1.846573e+14	2.085877e+14	5.162153e+14	1.097116e+04	8.114936e+03	2.895166e+03	0	7.196815e-04
5.200000e+08	4.947329e+12	0.000000e+00	3.567839e-01	1.816548e+14	2.101609e+14	5.136393e+14	1.094910e+04	8.124098e+03	2.898435e+03	0	7.116091e-04
5.300000e+08	4.780934e+12	0.000000e+00	3.567839e-01	1.787195e+14	2.117201e+14	5.110817e+14	1.092741e+04	8.133127e+03	2.901656e+03	0	7.035400e-04
5.400000e+08	4.618312e+12	0.000000e+00	3.567839e-01	1.758495e+14	2.132651e+14	5.085424e+14	1.090606e+04	8.142024e+03	2.904830e+03	0	6.954709e-04
5.500000e+08	4.459353e+12	0.000000e+00	3.567839e-01	1.730428e+14	2.147960e+14	5.060211e+14	1.088505e+04	8.150791e+03	2.907958e+03	0	6.873984e-04
5.600000e+08	4.303949e+12	0.000000e+00	3.567839e-01	1.702977e+14	2.163127e+14	5.035177e+14	1.086438e+04	8.159431e+03	2.911040e+03	0	6.793187e-04
5.700000e+08	4.151998e+12	0.000000e+00	3.567839e-01	1.676124e+14	2.178153e+14	5.010321e+14	1.084403e+04	8.167945e+03	2.914078e+03	0	6.712284e-04
5.800000e+08	4.003403e+12	0.000000e+00	3.567839e-01	1.649851e+14	2.193035e+14	4.985642e+14	1.082401e+04	8.176334e+03	2.917071e+03	0	6.631234e-04
5.900000e+08	3.858066e+12	0.000000e+00	3.567839e-01	1.624143e+14	2.207776e+14	4.961137e+14	1.080429e+04	8.184600e+03	2.920020e+03	0	6.549997e-04
6.000000e+08	3.715898e+12	0.000000e+00	3.567839e-01	1.598985e+14	2.222374e+14	4.936806e+14	1.078488e+04	8.192745e+03	2.922926e+03	0	6.468533e-04
6.100000e+08	3.576809e+12	0.000000e+00	3.567839e-01	1.574360e+14	2.236829e+14	4.912647e+14	1.076578e+04	8.200771e+03	2.925789e+03	0	6.386798e-04
6.200000e+08	3.440715e+12	0.000000e+00	3.567839e-01	1.550254e+14	2.251141e+14	4.888659e+14	1.074696e+04	8.208679e+03	2.928611e+03	0	6.304744e-04
6.300000e+08	3.307533e+12	0.000000e+00	3.567839e-01	1.526654e+14	2.265311e+14	4.864840e+14	1.072843e+04	8.216470e+03	2.931390e+03	0	6.222324e-04
6.400000e+08	3.177184e+12	0.000000e+00	3.567839e-01	1.503546e+14	2.279338e+14	4.841189e+14	1.071019e+04	8.224147e+03	2.934129e+03	0	6.139486e-04
6.500000e+08	3.049592e+12	0.000000e+00	3.567839e-01	1.480916e+14	2.293223e+14	4.817705e+14	1.069222e+04	8.231710e+03	2.936828e+03	0	6.056176e-04
6.600000e+08	2.924684e+12	0.000000e+00	3.567839e-01	1.458752e+14	2.306965e+14	4.794386e+14	1.067452e+04	8.239162e+03	2.939486e+03	0	5.972336e-04
6.700000e+08	2.802387e+12	0.000000e+00	3.567839e-01	1.437042e+14	2.320563e+14	4.771230e+14	1.065708e+04	8.246503e+03	2.942105e+03	0	5.887903e-04
6.800000e+08	2.682634e+12	0.000000e+00	3.567839e-01	1.415774e+14	2.334020e+14	4.748238e+14	1.063990e+04	8.253735e+03	2.944685e+03	0	5.802810e-04
6.900000e+08	2.565357e+12	0.000000e+00	3.567839e-01	1.394936e+14	2.347334e+14	4.725407e+14	1.062297e+04	8.260860e+03	2.947227e+03	0	5.716986e-04
7.000000e+08	2.450492e+12	0.000000e+00	3.567839e-01	1.374518e+14	2.360506e+14	4.702735e+14	1.060630e+04	8.267878e+03	2.949731e+03	0	5.630353e-04
7.100000e+08	2.337977e+12	0.000000e+00	3.567839e-01	1.354508e+14	2.373535e+14	4.680223e+14	1.058986e+04	8.274791e+03	2.952197e+03	0	5.542827e-04
7.200000e+08	2.227753e+12	0.000000e+00	3.567839e-01	1.334897e+14	2.386423e+14	4.657868e+14	1.057367e+04	8.281601e+03	2.954627e+03	0	5.454316e-04
7.300000e+08	2.119761e+12	0.000000e+00	3.567839e-01	1.315675e+14	2.399169e+14	4.635669e+14	1.055771e+04	8.288309e+03	2.957020e+03	0	5.364718e-04
7.400000e+08	2.013945e+12	0.000000e+00	3.567839e-01	1.296831e+14	2.411773e+14	4.613625e+14	1.054197e+04	8.294916e+03	2.959377e+03	0	5.273923e-04
7.500000e+08	1.910250e+12	0.000000e+00	3.567839e-01	1.278357e+14	2.424237e+14	4.591735e+14	1.052646e+04	8.301422e+03	2.961699e+03	0	5.181808e-04
7.600000e+08	1.808624e+12	0.000000e+00	3.567839e-01	1.260243e+14	2.436559e+14	4.569997e+14	1.051118e+04	8.307831e+03	2.963985e+03	0	5.088237e-04
7.700000e+08	1.709015e+12	0.000000e+00	3.567839e-01	1.242481e+14	2.448740e+14	4.548411e+14	1.049611e+04	8.314142e+03	2.966237e+03	0	4.993057e-04
7.800000e+08	1.611375e+12	0.000000e+00	3.567839e-01	1.225062e+14	2.460781e+14	4.526975e+14	1.048125e+04	8.320357e+03	2.968454e+03	0	4.896098e-04
7.900000e+08	1.515655e+12	0.000000e+00	3.567839e-01	1.207978e+14	2.472682e+14	4.505687e+14	1.046659e+04	8.326478e+03	2.970638e+03	0	4.797165e-04
8.000000e+08	1.421809e+12	0.000000e+00	3.567839e-01	1.191221e+14	2.484444e+14	4.484547e+14	1.045215e+04	8.332505e+03	2.972788e+03	0	4.696038e-04
8.100000e+08	1.329792e+12	0.000000e+00	3.567839e-01	1.174782e+14	2.496066e+14	4.463554e+14	1.043790e+04	8.338439e+03	2.974905e+03	0	4.592464e-04
8.200000e+08	1.239560e+12	0.000000e+00	3.567839e-01	1.158656e+14	2.507550e+14	4.442706e+14	1.042384e+04	8.344281e+03	2.976989e+03	0	4.486150e-04
8.300000e+08	1.151071e+12	0.000000e+00	3.567839e-01	1.142833e+14	2.518894e+14	4.422002e+14	1.040998e+04	8.350034e+03	2.979042e+03	0	4.376752e-04
8.400000e+08	1.064284e+12	0.000000e+00	3.567839e-01	1.127308e+14	2.530102e+14	4.401441e+14	1.039631e+04	8.355697e+03	2.981062e+03	0	4.263868e-04
8.500000e+08	9.791592e+11	0.000000e+00	3.567839e-01	1.112073e+14	2.541170e+14	4.381022e+14	1.038283e+04	8.361272e+03	2.983051e+03	0	4.147016e-04
8.600000e+08	8.956577e+11	0.000000e+00	3.567839e-01	1.097122e+14	2.552103e+14	4.360743e+14	1.036952e+04	8.366760e+03	2.985009e+03	0	4.025612e-04
8.700000e+08	8.137420e+11	0.000000e+00	3.567839e-01	1.082448e+14	2.562898e+14	4.340604e+14	1.035640e+04	8.372162e+03	2.986936e+03	0	3.898942e-04
8.800000e+08	7.333757e+11	0.000000e+00	3.567839e-01	1.068044e+14	2.573558e+14	4.320604e+14	1.034345e+04	8.377479e+03	2.988833e+03	0	3.766114e-04
8.900000e+08	6.545234e+11	0.000000e+00	3.567839e-01	1.053906e+14	2.584081e+14	4.300741e+14	1.033067e+04	8.382712e+03	2.990700e+03	0	3.625987e-04
9.000000e+08	5.771507e+11	0.000000e+00	3.567839e-01	1.040026e+14	2.594470e+14	4.281015e+14	1.031806e+04	8.387862e+03	2.992538e+03	0	3.477077e-04
9.100000e+08	5.012241e+11	0.000000e+00	3.567839e-01	1.026399e+14	2.604724e+14	4.261424e+14	1.030561e+04	8.392930e+03	2.994346e+03	0	3.317380e-04
9.200000e+08	4.267112e+11	0.000000e+00	3.567839e-01	1.013020e+14	2.614844e+14	4.241966e+14	1.029333e+04	8.397917e+03	2.996125e+03	0	3.144097e-04
9.300000e+08	3.535805e+11	0.000000e+00	3.567839e-01	9.998824e+13	2.624831e+14	4.222642e+14	1.028121e+04	8.402824e+03	2.997876e+03	0	2.953117e-04
9.400000e+08	2.818011e+11	0.000000e+00	3.567839e-01	9.869815e+13	2.634685e+14	4.203450e+14	1.026924e+04	8.407652e+03	2.999598e+03	0	2.737992e-04
9.500000e+08	2.113434e+11	0.000000e+00	3.567839e-01	9.743122e+13	2.644406e+14	4.184390e+14	1.025743e+04	8.412402e+03	3.001293e+03	0	2.487601e-04
9.600000e+08	1.421781e+11	0.000000e+00	3.567839e-01	9.618692e+13	2.653996e+14	4.165459e+14	1.024577e+04	8.417075e+03	3.002960e+03	0	2.179694e-04
9.700000e+08	7.427720e+10	0.000000e+00	3.567839e-01	9.496478e+13	2.663455e+14	4.146657e+14	1.023426e+04	8.421671e+03	3.004600e+03	0	1.755509e-04
9.800000e+08	7.613095e+09	0.000000e+00	3.567839e-01	9.376431e+13	2.672784e+14	4.127982e+14	1.022289e+04	8.426192e+03	3.006213e+03	0	8.215582e-05
9.900000e+08	-5.784094e+10	0.000000e+00	3.567839e-01	9.258506e+13	2.681982e+14	4.109435e+14	1.021167e+04	8.430638e+03	3.007799e+03	0	nan
