#t		Qconv[W]	Ri[Rp]		R*[Rp]		Qc[W]		Qm[W]		Qr[W]		Tcmb[K]		Tl[K]		Tup[K]		RiFlag		Bs[T]
0.000000e+00	4.885805e+13	0.000000e+00	3.517588e-01	9.377115e+14	9.592924e+13	9.085902e+14	1.633402e+04	9.088907e+03	2.788809e+03	0	1.524399e-03
1.000000e+07	4.716990e+13	0.000000e+00	3.517588e-01	9.133684e+14	9.794711e+13	9.035560e+14	1.625292e+04	9.114631e+03	2.796702e+03	0	1.506636e-03
2.000000e+07	4.555040e+13	0.000000e+00	3.517588e-01	8.899950e+14	9.996070e+13	8.985594e+14	1.617390e+04	9.139893e+03	2.804453e+03	0	1.489192e-03
3.000000e+07	4.399567e+13	0.000000e+00	3.517588e-01	8.675372e+14	1.019698e+14	8.936001e+14	1.609689e+04	9.164707e+03	2.812067e+03	0	1.472052e-03
4.000000e+07	4.250214e+13	0.000000e+00	3.517588e-01	8.459449e+14	1.039743e+14	8.886779e+14	1.602181e+04	9.189089e+03	2.819548e+03	0	1.455203e-03
5.000000e+07	4.106645e+13	0.000000e+00	3.517588e-01	8.251714e+14	1.059740e+14	8.837923e+14	1.594858e+04	9.213051e+03	2.826901e+03	0	1.438630e-03
6.000000e+07	3.968551e+13	0.000000e+00	3.517588e-01	8.051732e+14	1.079687e+14	8.789432e+14	1.587714e+04	9.236606e+03	2.834128e+03	0	1.422320e-03
7.000000e+07	3.835642e+13	0.000000e+00	3.517588e-01	7.859098e+14	1.099582e+14	8.741302e+14	1.580741e+04	9.259766e+03	2.841235e+03	0	1.406261e-03
8.000000e+07	3.707649e+13	0.000000e+00	3.517588e-01	7.673435e+14	1.119424e+14	8.693530e+14	1.573934e+04	9.282543e+03	2.848223e+03	0	1.390442e-03
9.000000e+07	3.584320e+13	0.000000e+00	3.517588e-01	7.494389e+14	1.139211e+14	8.646113e+14	1.567286e+04	9.304946e+03	2.855098e+03	0	1.374851e-03
1.000000e+08	3.465419e+13	0.000000e+00	3.517588e-01	7.321631e+14	1.158941e+14	8.599049e+14	1.560793e+04	9.326988e+03	2.861861e+03	0	1.359477e-03
1.100000e+08	3.350726e+13	0.000000e+00	3.517588e-01	7.154853e+14	1.178614e+14	8.552333e+14	1.554448e+04	9.348677e+03	2.868516e+03	0	1.344311e-03
1.200000e+08	3.240035e+13	0.000000e+00	3.517588e-01	6.993763e+14	1.198227e+14	8.505964e+14	1.548247e+04	9.370023e+03	2.875066e+03	0	1.329341e-03
1.300000e+08	3.133153e+13	0.000000e+00	3.517588e-01	6.838092e+14	1.217778e+14	8.459938e+14	1.542184e+04	9.391035e+03	2.881513e+03	0	1.314560e-03
1.400000e+08	3.029899e+13	0.000000e+00	3.517588e-01	6.687585e+14	1.237268e+14	8.414253e+14	1.536255e+04	9.411721e+03	2.887860e+03	0	1.299958e-03
1.500000e+08	2.930101e+13	0.000000e+00	3.517588e-01	6.542003e+14	1.256693e+14	8.368905e+14	1.530456e+04	9.432090e+03	2.894110e+03	0	1.285526e-03
1.600000e+08	2.833602e+13	0.000000e+00	3.517588e-01	6.401120e+14	1.276053e+14	8.323892e+14	1.524782e+04	9.452150e+03	2.900265e+03	0	1.271256e-03
1.700000e+08	2.740248e+13	0.000000e+00	3.517588e-01	6.264725e+14	1.295347e+14	8.279212e+14	1.519230e+04	9.471907e+03	2.906328e+03	0	1.257139e-03
1.800000e+08	2.649900e+13	0.000000e+00	3.517588e-01	6.132619e+14	1.314572e+14	8.234861e+14	1.513795e+04	9.491370e+03	2.912299e+03	0	1.243168e-03
1.900000e+08	2.562424e+13	0.000000e+00	3.517588e-01	6.004613e+14	1.333728e+14	8.190836e+14	1.508474e+04	9.510545e+03	2.918183e+03	0	1.229335e-03
2.000000e+08	2.477693e+13	0.000000e+00	3.517588e-01	5.880531e+14	1.352813e+14	8.147136e+14	1.503264e+04	9.529439e+03	2.923980e+03	0	1.215633e-03
2.100000e+08	2.395589e+13	0.000000e+00	3.517588e-01	5.760204e+14	1.371826e+14	8.103757e+14	1.498160e+04	9.548058e+03	2.929693e+03	0	1.202054e-03
2.200000e+08	2.316000e+13	0.000000e+00	3.517588e-01	5.643476e+14	1.390766e+14	8.060696e+14	1.493161e+04	9.566408e+03	2.935324e+03	0	1.188592e-03
2.300000e+08	2.238819e+13	0.000000e+00	3.517588e-01	5.530196e+14	1.409632e+14	8.017952e+14	1.488262e+04	9.584495e+03	2.940874e+03	0	1.175239e-03
2.400000e+08	2.163947e+13	0.000000e+00	3.517588e-01	5.420223e+14	1.428422e+14	7.975521e+14	1.483460e+04	9.602325e+03	2.946344e+03	0	1.161989e-03
2.500000e+08	2.091288e+13	0.000000e+00	3.517588e-01	5.313422e+14	1.447135e+14	7.933400e+14	1.478754e+04	9.619903e+03	2.951738e+03	0	1.148836e-03
2.600000e+08	2.020753e+13	0.000000e+00	3.517588e-01	5.209668e+14	1.465771e+14	7.891588e+14	1.474140e+04	9.637235e+03	2.957056e+03	0	1.135772e-03
2.700000e+08	1.952256e+13	0.000000e+00	3.517588e-01	5.108839e+14	1.484327e+14	7.850082e+14	1.469615e+04	9.654325e+03	2.962300e+03	0	1.122791e-03
2.800000e+08	1.885717e+13	0.000000e+00	3.517588e-01	5.010821e+14	1.502804e+14	7.808879e+14	1.465178e+04	9.671178e+03	2.967471e+03	0	1.109887e-03
2.900000e+08	1.821059e+13	0.000000e+00	3.517588e-01	4.915506e+14	1.521199e+14	7.767976e+14	1.460825e+04	9.687800e+03	2.972571e+03	0	1.097054e-03
3.000000e+08	1.758210e+13	0.000000e+00	3.517588e-01	4.822791e+14	1.539512e+14	7.727372e+14	1.456555e+04	9.704194e+03	2.977601e+03	0	1.084285e-03
3.100000e+08	1.697099e+13	0.000000e+00	3.517588e-01	4.732578e+14	1.557742e+14	7.687063e+14	1.452365e+04	9.720365e+03	2.982563e+03	0	1.071574e-03
3.200000e+08	1.637661e+13	0.000000e+00	3.517588e-01	4.644774e+14	1.575888e+14	7.647048e+14	1.448253e+04	9.736317e+03	2.987458e+03	0	1.058916e-03
3.300000e+08	1.579835e+13	0.000000e+00	3.517588e-01	4.559291e+14	1.593949e+14	7.607324e+14	1.444216e+04	9.752054e+03	2.992287e+03	0	1.046302e-03
3.400000e+08	1.523560e+13	0.000000e+00	3.517588e-01	4.476043e+14	1.611923e+14	7.567888e+14	1.440254e+04	9.767581e+03	2.997051e+03	0	1.033728e-03
3.500000e+08	1.468779e+13	0.000000e+00	3.517588e-01	4.394951e+14	1.629811e+14	7.528738e+14	1.436363e+04	9.782901e+03	3.001752e+03	0	1.021187e-03
3.600000e+08	1.415439e+13	0.000000e+00	3.517588e-01	4.315938e+14	1.647612e+14	7.489872e+14	1.432543e+04	9.798018e+03	3.006390e+03	0	1.008673e-03
3.700000e+08	1.363488e+13	0.000000e+00	3.517588e-01	4.238931e+14	1.665323e+14	7.451288e+14	1.428791e+04	9.812936e+03	3.010967e+03	0	9.961784e-04
3.800000e+08	1.312878e+13	0.000000e+00	3.517588e-01	4.163860e+14	1.682945e+14	7.412983e+14	1.425106e+04	9.827657e+03	3.015484e+03	0	9.836971e-04
3.900000e+08	1.263560e+13	0.000000e+00	3.517588e-01	4.090659e+14	1.700476e+14	7.374955e+14	1.421485e+04	9.842186e+03	3.019942e+03	0	9.712222e-04
4.000000e+08	1.215491e+13	0.000000e+00	3.517588e-01	4.019263e+14	1.717917e+14	7.337201e+14	1.417928e+04	9.856525e+03	3.024342e+03	0	9.587468e-04
4.100000e+08	1.168628e+13	0.000000e+00	3.517588e-01	3.949613e+14	1.735265e+14	7.299719e+14	1.414433e+04	9.870678e+03	3.028685e+03	0	9.462635e-04
4.200000e+08	1.122930e+13	0.000000e+00	3.517588e-01	3.881649e+14	1.752522e+14	7.262508e+14	1.410998e+04	9.884648e+03	3.032971e+03	0	9.337648e-04
4.300000e+08	1.078357e+13	0.000000e+00	3.517588e-01	3.815317e+14	1.769684e+14	7.225565e+14	1.407622e+04	9.898438e+03	3.037203e+03	0	9.212430e-04
4.400000e+08	1.034873e+13	0.000000e+00	3.517588e-01	3.750564e+14	1.786753e+14	7.188887e+14	1.404303e+04	9.912052e+03	3.041380e+03	0	9.086899e-04
4.500000e+08	9.924422e+12	0.000000e+00	3.517588e-01	3.687337e+14	1.803727e+14	7.152474e+14	1.401041e+04	9.925490e+03	3.045503e+03	0	8.960971e-04
4.600000e+08	9.510297e+12	0.000000e+00	3.517588e-01	3.625589e+14	1.820605e+14	7.116321e+14	1.397833e+04	9.938758e+03	3.049574e+03	0	8.834555e-04
4.700000e+08	9.106028e+12	0.000000e+00	3.517588e-01	3.565273e+14	1.837388e+14	7.080428e+14	1.394679e+04	9.951856e+03	3.053593e+03	0	8.707557e-04
4.800000e+08	8.711303e+12	0.000000e+00	3.517588e-01	3.506344e+14	1.854074e+14	7.044792e+14	1.391577e+04	9.964789e+03	3.057561e+03	0	8.579876e-04
4.900000e+08	8.325821e+12	0.000000e+00	3.517588e-01	3.448758e+14	1.870663e+14	7.009411e+14	1.388526e+04	9.977558e+03	3.061479e+03	0	8.451406e-04
5.000000e+08	7.949291e+12	0.000000e+00	3.517588e-01	3.392475e+14	1.887154e+14	6.974283e+14	1.385525e+04	9.990165e+03	3.065348e+03	0	8.322033e-04
5.100000e+08	7.581438e+12	0.000000e+00	3.517588e-01	3.337455e+14	1.903547e+14	6.939406e+14	1.382572e+04	1.000261e+04	3.069168e+03	0	8.191633e-04
5.200000e+08	7.221994e+12	0.000000e+00	3.517588e-01	3.283660e+14	1.919841e+14	6.904778e+14	1.379668e+04	1.001491e+04	3.072940e+03	0	8.060074e-04
5.300000e+08	6.870705e+12	0.000000e+00	3.517588e-01	3.231053e+14	1.936036e+14	6.870397e+14	1.376810e+04	1.002705e+04	3.076664e+03	0	7.927211e-04
5.400000e+08	6.527325e+12	0.000000e+00	3.517588e-01	3.179599e+14	1.952131e+14	6.836261e+14	1.373998e+04	1.003903e+04	3.080343e+03	0	7.792887e-04
5.500000e+08	6.191619e+12	0.000000e+00	3.517588e-01	3.129265e+14	1.968126e+14	6.802367e+14	1.371230e+04	1.005087e+04	3.083975e+03	0	7.656930e-04
5.600000e+08	5.863358e+12	0.000000e+00	3.517588e-01	3.080017e+14	1.984020e+14	6.768715e+14	1.368506e+04	1.006256e+04	3.087562e+03	0	7.519150e-04
5.700000e+08	5.542326e+12	0.000000e+00	3.517588e-01	3.031826e+14	1.999814e+14	6.735302e+14	1.365824e+04	1.007411e+04	3.091104e+03	0	7.379337e-04
5.800000e+08	5.228312e+12	0.000000e+00	3.517588e-01	2.984659e+14	2.015506e+14	6.702125e+14	1.363185e+04	1.008551e+04	3.094603e+03	0	7.237254e-04
5.900000e+08	4.921115e+12	0.000000e+00	3.517588e-01	2.938489e+14	2.031095e+14	6.669184e+14	1.360586e+04	1.009677e+04	3.098058e+03	0	7.092638e-04
6.000000e+08	4.620539e+12	0.000000e+00	3.517588e-01	2.893288e+14	2.046583e+14	6.636476e+14	1.358028e+04	1.010789e+04	3.101471e+03	0	6.945191e-04
6.100000e+08	4.326399e+12	0.000000e+00	3.517588e-01	2.849029e+14	2.061968e+14	6.604000e+14	1.355508e+04	1.011888e+04	3.104841e+03	0	6.794573e-04
6.200000e+08	4.038513e+12	0.000000e+00	3.517588e-01	2.805685e+14	2.077250e+14	6.571753e+14	1.353027e+04	1.012973e+04	3.108170e+03	0	6.640393e-04
6.300000e+08	3.756708e+12	0.000000e+00	3.517588e-01	2.763233e+14	2.092430e+14	6.539733e+14	1.350584e+04	1.014044e+04	3.111458e+03	0	6.482200e-04
6.400000e+08	3.480816e+12	0.000000e+00	3.517588e-01	2.721647e+14	2.107505e+14	6.507940e+14	1.348177e+04	1.015102e+04	3.114705e+03	0	6.319465e-04
6.500000e+08	3.210675e+12	0.000000e+00	3.517588e-01	2.680904e+14	2.122477e+14	6.476370e+14	1.345807e+04	1.016148e+04	3.117913e+03	0	6.151562e-04
6.600000e+08	2.946130e+12	0.000000e+00	3.517588e-01	2.640983e+14	2.137346e+14	6.445022e+14	1.343472e+04	1.017180e+04	3.121081e+03	0	5.977743e-04
6.700000e+08	2.687030e+12	0.000000e+00	3.517588e-01	2.601861e+14	2.152109e+14	6.413895e+14	1.341171e+04	1.018200e+04	3.124210e+03	0	5.797100e-04
6.800000e+08	2.433230e+12	0.000000e+00	3.517588e-01	2.563517e+14	2.166769e+14	6.382987e+14	1.338905e+04	1.019208e+04	3.127301e+03	0	5.608512e-04
6.900000e+08	2.184590e+12	0.000000e+00	3.517588e-01	2.525932e+14	2.181324e+14	6.352295e+14	1.336672e+04	1.020203e+04	3.130354e+03	0	5.410573e-04
7.000000e+08	1.940974e+12	0.000000e+00	3.517588e-01	2.489085e+14	2.195774e+14	6.321818e+14	1.334471e+04	1.021185e+04	3.133370e+03	0	5.201475e-04
7.100000e+08	1.702251e+12	0.000000e+00	3.517588e-01	2.452958e+14	2.210119e+14	6.291555e+14	1.332303e+04	1.022156e+04	3.136349e+03	0	4.978836e-04
7.200000e+08	1.468295e+12	0.000000e+00	3.517588e-01	2.417532e+14	2.224359e+14	6.261504e+14	1.330166e+04	1.023115e+04	3.139292e+03	0	4.739412e-04
7.300000e+08	1.238985e+12	0.000000e+00	3.517588e-01	2.382791e+14	2.238494e+14	6.231662e+14	1.328059e+04	1.024063e+04	3.142198e+03	0	4.478597e-04
7.400000e+08	1.014201e+12	0.000000e+00	3.517588e-01	2.348716e+14	2.252524e+14	6.202029e+14	1.325983e+04	1.024998e+04	3.145069e+03	0	4.189491e-04
7.500000e+08	7.938289e+11	0.000000e+00	3.517588e-01	2.315291e+14	2.266448e+14	6.172602e+14	1.323936e+04	1.025923e+04	3.147905e+03	0	3.860963e-04
7.600000e+08	5.777588e+11	0.000000e+00	3.517588e-01	2.282501e+14	2.280267e+14	6.143381e+14	1.321919e+04	1.026836e+04	3.150707e+03	0	3.472979e-04
7.700000e+08	3.658835e+11	0.000000e+00	3.517588e-01	2.250329e+14	2.293980e+14	6.114362e+14	1.319930e+04	1.027737e+04	3.153474e+03	0	2.982412e-04
7.800000e+08	1.580993e+11	0.000000e+00	3.517588e-01	2.218762e+14	2.307588e+14	6.085546e+14	1.317969e+04	1.028628e+04	3.156207e+03	0	2.254741e-04
7.900000e+08	-4.569412e+10	0.000000e+00	3.517588e-01	2.187783e+14	2.321090e+14	6.056929e+14	1.316035e+04	1.029508e+04	3.158907e+03	0	nan
