#t		Qconv[W]	Ri[Rp]		R*[Rp]		Qc[W]		Qm[W]		Qr[W]		Tcmb[K]		Tl[K]		Tup[K]		RiFlag		Bs[T]
0.000000e+00	5.965299e+13	0.000000e+00	3.517588e-01	1.118842e+15	8.951619e+13	9.903652e+14	1.758438e+04	9.695236e+03	2.835115e+03	0	1.625324e-03
1.000000e+07	5.755560e+13	0.000000e+00	3.517588e-01	1.090246e+15	9.144906e+13	9.848778e+14	1.749763e+04	9.722956e+03	2.843221e+03	0	1.606047e-03
2.000000e+07	5.554243e+13	0.000000e+00	3.517588e-01	1.062773e+15	9.337894e+13	9.794315e+14	1.741307e+04	9.750181e+03	2.851182e+03	0	1.587099e-03
3.000000e+07	5.360878e+13	0.000000e+00	3.517588e-01	1.036359e+15	9.530567e+13	9.740259e+14	1.733064e+04	9.776927e+03	2.859003e+03	0	1.568463e-03
4.000000e+07	5.175032e+13	0.000000e+00	3.517588e-01	1.010949e+15	9.722904e+13	9.686607e+14	1.725023e+04	9.803210e+03	2.866689e+03	0	1.550125e-03
5.000000e+07	4.996299e+13	0.000000e+00	3.517588e-01	9.864892e+14	9.914888e+13	9.633354e+14	1.717178e+04	9.829043e+03	2.874243e+03	0	1.532070e-03
6.000000e+07	4.824303e+13	0.000000e+00	3.517588e-01	9.629293e+14	1.010650e+14	9.580499e+14	1.709521e+04	9.854440e+03	2.881670e+03	0	1.514284e-03
7.000000e+07	4.658692e+13	0.000000e+00	3.517588e-01	9.402234e+14	1.029772e+14	9.528037e+14	1.702046e+04	9.879415e+03	2.888973e+03	0	1.496754e-03
8.000000e+07	4.499139e+13	0.000000e+00	3.517588e-01	9.183280e+14	1.048854e+14	9.475966e+14	1.694746e+04	9.903980e+03	2.896157e+03	0	1.479468e-03
9.000000e+07	4.345336e+13	0.000000e+00	3.517588e-01	8.972027e+14	1.067893e+14	9.424281e+14	1.687614e+04	9.928146e+03	2.903223e+03	0	1.462414e-03
1.000000e+08	4.196997e+13	0.000000e+00	3.517588e-01	8.768096e+14	1.086889e+14	9.372980e+14	1.680645e+04	9.951924e+03	2.910177e+03	0	1.445580e-03
1.100000e+08	4.053854e+13	0.000000e+00	3.517588e-01	8.571132e+14	1.105839e+14	9.322060e+14	1.673834e+04	9.975326e+03	2.917020e+03	0	1.428955e-03
1.200000e+08	3.915655e+13	0.000000e+00	3.517588e-01	8.380802e+14	1.124742e+14	9.271518e+14	1.667175e+04	9.998361e+03	2.923756e+03	0	1.412528e-03
1.300000e+08	3.782163e+13	0.000000e+00	3.517588e-01	8.196794e+14	1.143597e+14	9.221349e+14	1.660662e+04	1.002104e+04	2.930387e+03	0	1.396291e-03
1.400000e+08	3.653157e+13	0.000000e+00	3.517588e-01	8.018815e+14	1.162401e+14	9.171552e+14	1.654291e+04	1.004337e+04	2.936917e+03	0	1.380231e-03
1.500000e+08	3.528429e+13	0.000000e+00	3.517588e-01	7.846588e+14	1.181154e+14	9.122123e+14	1.648058e+04	1.006536e+04	2.943348e+03	0	1.364341e-03
1.600000e+08	3.407783e+13	0.000000e+00	3.517588e-01	7.679854e+14	1.199854e+14	9.073060e+14	1.641958e+04	1.008702e+04	2.949683e+03	0	1.348610e-03
1.700000e+08	3.291034e+13	0.000000e+00	3.517588e-01	7.518368e+14	1.218500e+14	9.024358e+14	1.635986e+04	1.010836e+04	2.955923e+03	0	1.333030e-03
1.800000e+08	3.178009e+13	0.000000e+00	3.517588e-01	7.361900e+14	1.237091e+14	8.976015e+14	1.630140e+04	1.012939e+04	2.962071e+03	0	1.317592e-03
1.900000e+08	3.068544e+13	0.000000e+00	3.517588e-01	7.210232e+14	1.255624e+14	8.928028e+14	1.624414e+04	1.015011e+04	2.968129e+03	0	1.302287e-03
2.000000e+08	2.962484e+13	0.000000e+00	3.517588e-01	7.063159e+14	1.274099e+14	8.880395e+14	1.618806e+04	1.017052e+04	2.974100e+03	0	1.287106e-03
2.100000e+08	2.859683e+13	0.000000e+00	3.517588e-01	6.920487e+14	1.292515e+14	8.833112e+14	1.613311e+04	1.019065e+04	2.979985e+03	0	1.272043e-03
2.200000e+08	2.760004e+13	0.000000e+00	3.517588e-01	6.782033e+14	1.310870e+14	8.786175e+14	1.607926e+04	1.021049e+04	2.985787e+03	0	1.257088e-03
2.300000e+08	2.663315e+13	0.000000e+00	3.517588e-01	6.647623e+14	1.329164e+14	8.739584e+14	1.602649e+04	1.023005e+04	2.991507e+03	0	1.242234e-03
2.400000e+08	2.569494e+13	0.000000e+00	3.517588e-01	6.517093e+14	1.347394e+14	8.693334e+14	1.597476e+04	1.024933e+04	2.997146e+03	0	1.227472e-03
2.500000e+08	2.478423e+13	0.000000e+00	3.517588e-01	6.390287e+14	1.365560e+14	8.647423e+14	1.592403e+04	1.026835e+04	3.002707e+03	0	1.212795e-03
2.600000e+08	2.389992e+13	0.000000e+00	3.517588e-01	6.267058e+14	1.383661e+14	8.601847e+14	1.587429e+04	1.028711e+04	3.008192e+03	0	1.198196e-03
2.700000e+08	2.304095e+13	0.000000e+00	3.517588e-01	6.147266e+14	1.401695e+14	8.556605e+14	1.582550e+04	1.030561e+04	3.013601e+03	0	1.183666e-03
2.800000e+08	2.220634e+13	0.000000e+00	3.517588e-01	6.030777e+14	1.419662e+14	8.511694e+14	1.577764e+04	1.032385e+04	3.018937e+03	0	1.169198e-03
2.900000e+08	2.139512e+13	0.000000e+00	3.517588e-01	5.917466e+14	1.437560e+14	8.467110e+14	1.573068e+04	1.034185e+04	3.024201e+03	0	1.154784e-03
3.000000e+08	2.060642e+13	0.000000e+00	3.517588e-01	5.807212e+14	1.455389e+14	8.422851e+14	1.568460e+04	1.035961e+04	3.029395e+03	0	1.140416e-03
3.100000e+08	1.983936e+13	0.000000e+00	3.517588e-01	5.699902e+14	1.473147e+14	8.378915e+14	1.563937e+04	1.037714e+04	3.034519e+03	0	1.126086e-03
3.200000e+08	1.909314e+13	0.000000e+00	3.517588e-01	5.595427e+14	1.490834e+14	8.335298e+14	1.559498e+04	1.039443e+04	3.039575e+03	0	1.111787e-03
3.300000e+08	1.836699e+13	0.000000e+00	3.517588e-01	5.493684e+14	1.508448e+14	8.291998e+14	1.555139e+04	1.041149e+04	3.044565e+03	0	1.097510e-03
3.400000e+08	1.766016e+13	0.000000e+00	3.517588e-01	5.394573e+14	1.525989e+14	8.249013e+14	1.550859e+04	1.042833e+04	3.049489e+03	0	1.083247e-03
3.500000e+08	1.697196e+13	0.000000e+00	3.517588e-01	5.298001e+14	1.543456e+14	8.206340e+14	1.546656e+04	1.044495e+04	3.054349e+03	0	1.068989e-03
3.600000e+08	1.630172e+13	0.000000e+00	3.517588e-01	5.203880e+14	1.560847e+14	8.163976e+14	1.542528e+04	1.046136e+04	3.059147e+03	0	1.054727e-03
3.700000e+08	1.564880e+13	0.000000e+00	3.517588e-01	5.112122e+14	1.578163e+14	8.121919e+14	1.538473e+04	1.047755e+04	3.063882e+03	0	1.040454e-03
3.800000e+08	1.501259e+13	0.000000e+00	3.517588e-01	5.022647e+14	1.595401e+14	8.080166e+14	1.534489e+04	1.049354e+04	3.068557e+03	0	1.026158e-03
3.900000e+08	1.439251e+13	0.000000e+00	3.517588e-01	4.935377e+14	1.612562e+14	8.038715e+14	1.530575e+04	1.050932e+04	3.073172e+03	0	1.011831e-03
4.000000e+08	1.378801e+13	0.000000e+00	3.517588e-01	4.850237e+14	1.629645e+14	7.997564e+14	1.526728e+04	1.052490e+04	3.077729e+03	0	9.974619e-04
4.100000e+08	1.319856e+13	0.000000e+00	3.517588e-01	4.767156e+14	1.646648e+14	7.956709e+14	1.522947e+04	1.054029e+04	3.082228e+03	0	9.830401e-04
4.200000e+08	1.262364e+13	0.000000e+00	3.517588e-01	4.686066e+14	1.663572e+14	7.916149e+14	1.519231e+04	1.055548e+04	3.086670e+03	0	9.685542e-04
4.300000e+08	1.206278e+13	0.000000e+00	3.517588e-01	4.606902e+14	1.680414e+14	7.875881e+14	1.515578e+04	1.057048e+04	3.091057e+03	0	9.539922e-04
4.400000e+08	1.151550e+13	0.000000e+00	3.517588e-01	4.529602e+14	1.697175e+14	7.835902e+14	1.511986e+04	1.058529e+04	3.095389e+03	0	9.393413e-04
4.500000e+08	1.098138e+13	0.000000e+00	3.517588e-01	4.454105e+14	1.713855e+14	7.796211e+14	1.508454e+04	1.059993e+04	3.099667e+03	0	9.245875e-04
4.600000e+08	1.045997e+13	0.000000e+00	3.517588e-01	4.380355e+14	1.730451e+14	7.756804e+14	1.504981e+04	1.061437e+04	3.103893e+03	0	9.097162e-04
4.700000e+08	9.950881e+12	0.000000e+00	3.517588e-01	4.308297e+14	1.746964e+14	7.717681e+14	1.501565e+04	1.062865e+04	3.108066e+03	0	8.947113e-04
4.800000e+08	9.453713e+12	0.000000e+00	3.517588e-01	4.237877e+14	1.763393e+14	7.678837e+14	1.498205e+04	1.064274e+04	3.112188e+03	0	8.795555e-04
4.900000e+08	8.968092e+12	0.000000e+00	3.517588e-01	4.169046e+14	1.779738e+14	7.640272e+14	1.494899e+04	1.065666e+04	3.116259e+03	0	8.642296e-04
5.000000e+08	8.493661e+12	0.000000e+00	3.517588e-01	4.101755e+14	1.795998e+14	7.601983e+14	1.491648e+04	1.067042e+04	3.120281e+03	0	8.487128e-04
5.100000e+08	8.030073e+12	0.000000e+00	3.517588e-01	4.035958e+14	1.812171e+14	7.563967e+14	1.488448e+04	1.068400e+04	3.124254e+03	0	8.329820e-04
5.200000e+08	7.576998e+12	0.000000e+00	3.517588e-01	3.971609e+14	1.828259e+14	7.526222e+14	1.485299e+04	1.069742e+04	3.128179e+03	0	8.170115e-04
5.300000e+08	7.134118e+12	0.000000e+00	3.517588e-01	3.908667e+14	1.844260e+14	7.488747e+14	1.482201e+04	1.071068e+04	3.132056e+03	0	8.007726e-04
5.400000e+08	6.701127e+12	0.000000e+00	3.517588e-01	3.847088e+14	1.860173e+14	7.451538e+14	1.479151e+04	1.072378e+04	3.135886e+03	0	7.842329e-04
5.500000e+08	6.277731e+12	0.000000e+00	3.517588e-01	3.786835e+14	1.875998e+14	7.414594e+14	1.476150e+04	1.073672e+04	3.139671e+03	0	7.673556e-04
5.600000e+08	5.863648e+12	0.000000e+00	3.517588e-01	3.727867e+14	1.891736e+14	7.377913e+14	1.473195e+04	1.074951e+04	3.143410e+03	0	7.500986e-04
5.700000e+08	5.458606e+12	0.000000e+00	3.517588e-01	3.670150e+14	1.907385e+14	7.341493e+14	1.470286e+04	1.076215e+04	3.147104e+03	0	7.324135e-04
5.800000e+08	5.062343e+12	0.000000e+00	3.517588e-01	3.613647e+14	1.922944e+14	7.305330e+14	1.467422e+04	1.077463e+04	3.150755e+03	0	7.142435e-04
5.900000e+08	4.674608e+12	0.000000e+00	3.517588e-01	3.558324e+14	1.938415e+14	7.269424e+14	1.464602e+04	1.078696e+04	3.154361e+03	0	6.955219e-04
6.000000e+08	4.295159e+12	0.000000e+00	3.517588e-01	3.504149e+14	1.953795e+14	7.233773e+14	1.461824e+04	1.079915e+04	3.157925e+03	0	6.761694e-04
6.100000e+08	3.923762e+12	0.000000e+00	3.517588e-01	3.451089e+14	1.969085e+14	7.198373e+14	1.459089e+04	1.081119e+04	3.161447e+03	0	6.560898e-04
6.200000e+08	3.560192e+12	0.000000e+00	3.517588e-01	3.399114e+14	1.984284e+14	7.163224e+14	1.456396e+04	1.082309e+04	3.164927e+03	0	6.351655e-04
6.300000e+08	3.204232e+12	0.000000e+00	3.517588e-01	3.348195e+14	1.999392e+14	7.128323e+14	1.453742e+04	1.083486e+04	3.168366e+03	0	6.132493e-04
6.400000e+08	2.855674e+12	0.000000e+00	3.517588e-01	3.298304e+14	2.014409e+14	7.093667e+14	1.451129e+04	1.084648e+04	3.171765e+03	0	5.901539e-04
6.500000e+08	2.514316e+12	0.000000e+00	3.517588e-01	3.249412e+14	2.029335e+14	7.059256e+14	1.448554e+04	1.085796e+04	3.175123e+03	0	5.656342e-04
6.600000e+08	2.179962e+12	0.000000e+00	3.517588e-01	3.201493e+14	2.044168e+14	7.025087e+14	1.446017e+04	1.086931e+04	3.178443e+03	0	5.393600e-04
6.700000e+08	1.852426e+12	0.000000e+00	3.517588e-01	3.154523e+14	2.058909e+14	6.991159e+14	1.443517e+04	1.088053e+04	3.181723e+03	0	5.108688e-04
6.800000e+08	1.531527e+12	0.000000e+00	3.517588e-01	3.108476e+14	2.073558e+14	6.957468e+14	1.441054e+04	1.089162e+04	3.184965e+03	0	4.794801e-04
6.900000e+08	1.217088e+12	0.000000e+00	3.517588e-01	3.063328e+14	2.088114e+14	6.924015e+14	1.438627e+04	1.090257e+04	3.188169e+03	0	4.441229e-04
7.000000e+08	9.089422e+11	0.000000e+00	3.517588e-01	3.019056e+14	2.102577e+14	6.890795e+14	1.436235e+04	1.091340e+04	3.191335e+03	0	4.029407e-04
7.100000e+08	6.069249e+11	0.000000e+00	3.517588e-01	2.975638e+14	2.116947e+14	6.857808e+14	1.433877e+04	1.092410e+04	3.194465e+03	0	3.521876e-04
7.200000e+08	3.108786e+11	0.000000e+00	3.517588e-01	2.933053e+14	2.131224e+14	6.825052e+14	1.431554e+04	1.093468e+04	3.197558e+03	0	2.817903e-04
7.300000e+08	2.065069e+10	0.000000e+00	3.517588e-01	2.891280e+14	2.145407e+14	6.792524e+14	1.429263e+04	1.094514e+04	3.200615e+03	0	1.141232e-04
7.400000e+08	-2.639064e+11	0.000000e+00	3.517588e-01	2.850298e+14	2.159496e+14	6.760224e+14	1.427005e+04	1.095547e+04	3.203637e+03	0	nan
