#t		Qconv[W]	Ri[Rp]		R*[Rp]		Qc[W]		Qm[W]		Qr[W]		Tcmb[K]		Tl[K]		Tup[K]		RiFlag		Bs[T]
0.000000e+00	7.108693e+13	0.000000e+00	3.517589e-01	1.314692e+15	8.307182e+13	1.072068e+15	1.884452e+04	1.030470e+04	2.878783e+03	0	1.719656e-03
1.000000e+07	6.854074e+13	0.000000e+00	3.517589e-01	1.281680e+15	8.490837e+13	1.066128e+15	1.875243e+04	1.033440e+04	2.887079e+03	0	1.698875e-03
2.000000e+07	6.609525e+13	0.000000e+00	3.517589e-01	1.249941e+15	8.674316e+13	1.060233e+15	1.866265e+04	1.036357e+04	2.895228e+03	0	1.678425e-03
3.000000e+07	6.374496e+13	0.000000e+00	3.517589e-01	1.219407e+15	8.857599e+13	1.054381e+15	1.857506e+04	1.039223e+04	2.903235e+03	0	1.658290e-03
4.000000e+07	6.148474e+13	0.000000e+00	3.517589e-01	1.190012e+15	9.040664e+13	1.048573e+15	1.848960e+04	1.042040e+04	2.911104e+03	0	1.638454e-03
5.000000e+07	5.930982e+13	0.000000e+00	3.517589e-01	1.161699e+15	9.223495e+13	1.042809e+15	1.840619e+04	1.044809e+04	2.918839e+03	0	1.618902e-03
6.000000e+07	5.721575e+13	0.000000e+00	3.517589e-01	1.134411e+15	9.406072e+13	1.037087e+15	1.832474e+04	1.047531e+04	2.926445e+03	0	1.599620e-03
7.000000e+07	5.519838e+13	0.000000e+00	3.517589e-01	1.108096e+15	9.588377e+13	1.031408e+15	1.824519e+04	1.050209e+04	2.933926e+03	0	1.580595e-03
8.000000e+07	5.325382e+13	0.000000e+00	3.517589e-01	1.082706e+15	9.770391e+13	1.025771e+15	1.816748e+04	1.052843e+04	2.941284e+03	0	1.561812e-03
9.000000e+07	5.137845e+13	0.000000e+00	3.517589e-01	1.058195e+15	9.952098e+13	1.020177e+15	1.809153e+04	1.055435e+04	2.948525e+03	0	1.543259e-03
1.000000e+08	4.956886e+13	0.000000e+00	3.517589e-01	1.034521e+15	1.013348e+14	1.014623e+15	1.801729e+04	1.057985e+04	2.955650e+03	0	1.524923e-03
1.100000e+08	4.782186e+13	0.000000e+00	3.517589e-01	1.011643e+15	1.031452e+14	1.009111e+15	1.794469e+04	1.060496e+04	2.962663e+03	0	1.506794e-03
1.200000e+08	4.613446e+13	0.000000e+00	3.517589e-01	9.895247e+14	1.049521e+14	1.003640e+15	1.787370e+04	1.062967e+04	2.969567e+03	0	1.488859e-03
1.300000e+08	4.450386e+13	0.000000e+00	3.517589e-01	9.681303e+14	1.067553e+14	9.982093e+14	1.780424e+04	1.065401e+04	2.976365e+03	0	1.471107e-03
1.400000e+08	4.292741e+13	0.000000e+00	3.517589e-01	9.474268e+14	1.085546e+14	9.928188e+14	1.773627e+04	1.067797e+04	2.983061e+03	0	1.453528e-03
1.500000e+08	4.140264e+13	0.000000e+00	3.517589e-01	9.273829e+14	1.103499e+14	9.874681e+14	1.766975e+04	1.070158e+04	2.989655e+03	0	1.436110e-03
1.600000e+08	3.992720e+13	0.000000e+00	3.517589e-01	9.079694e+14	1.121411e+14	9.821569e+14	1.760463e+04	1.072483e+04	2.996152e+03	0	1.418844e-03
1.700000e+08	3.849890e+13	0.000000e+00	3.517589e-01	8.891585e+14	1.139280e+14	9.768850e+14	1.754086e+04	1.074774e+04	3.002553e+03	0	1.401720e-03
1.800000e+08	3.711565e+13	0.000000e+00	3.517589e-01	8.709241e+14	1.157104e+14	9.716519e+14	1.747841e+04	1.077032e+04	3.008861e+03	0	1.384727e-03
1.900000e+08	3.577550e+13	0.000000e+00	3.517589e-01	8.532416e+14	1.174883e+14	9.664573e+14	1.741722e+04	1.079258e+04	3.015078e+03	0	1.367856e-03
2.000000e+08	3.447660e+13	0.000000e+00	3.517589e-01	8.360877e+14	1.192615e+14	9.613010e+14	1.735728e+04	1.081451e+04	3.021205e+03	0	1.351097e-03
2.100000e+08	3.321719e+13	0.000000e+00	3.517589e-01	8.194403e+14	1.210299e+14	9.561826e+14	1.729852e+04	1.083614e+04	3.027247e+03	0	1.334441e-03
2.200000e+08	3.199564e+13	0.000000e+00	3.517589e-01	8.032786e+14	1.227934e+14	9.511018e+14	1.724094e+04	1.085746e+04	3.033203e+03	0	1.317878e-03
2.300000e+08	3.081036e+13	0.000000e+00	3.517589e-01	7.875829e+14	1.245518e+14	9.460582e+14	1.718448e+04	1.087848e+04	3.039076e+03	0	1.301400e-03
2.400000e+08	2.965988e+13	0.000000e+00	3.517589e-01	7.723345e+14	1.263050e+14	9.410517e+14	1.712912e+04	1.089922e+04	3.044869e+03	0	1.284995e-03
2.500000e+08	2.854280e+13	0.000000e+00	3.517589e-01	7.575156e+14	1.280530e+14	9.360818e+14	1.707482e+04	1.091967e+04	3.050582e+03	0	1.268656e-03
2.600000e+08	2.745778e+13	0.000000e+00	3.517589e-01	7.431095e+14	1.297955e+14	9.311483e+14	1.702156e+04	1.093984e+04	3.056217e+03	0	1.252373e-03
2.700000e+08	2.640356e+13	0.000000e+00	3.517589e-01	7.291001e+14	1.315326e+14	9.262509e+14	1.696931e+04	1.095974e+04	3.061776e+03	0	1.236135e-03
2.800000e+08	2.537894e+13	0.000000e+00	3.517589e-01	7.154723e+14	1.332640e+14	9.213892e+14	1.691804e+04	1.097937e+04	3.067262e+03	0	1.219934e-03
2.900000e+08	2.438278e+13	0.000000e+00	3.517589e-01	7.022117e+14	1.349898e+14	9.165630e+14	1.686772e+04	1.099874e+04	3.072674e+03	0	1.203759e-03
3.000000e+08	2.341401e+13	0.000000e+00	3.517589e-01	6.893045e+14	1.367097e+14	9.117720e+14	1.681833e+04	1.101786e+04	3.078014e+03	0	1.187600e-03
3.100000e+08	2.247158e+13	0.000000e+00	3.517589e-01	6.767378e+14	1.384237e+14	9.070159e+14	1.676984e+04	1.103673e+04	3.083285e+03	0	1.171448e-03
3.200000e+08	2.155451e+13	0.000000e+00	3.517589e-01	6.644990e+14	1.401317e+14	9.022944e+14	1.672223e+04	1.105535e+04	3.088487e+03	0	1.155290e-03
3.300000e+08	2.066189e+13	0.000000e+00	3.517589e-01	6.525764e+14	1.418336e+14	8.976072e+14	1.667548e+04	1.107373e+04	3.093622e+03	0	1.139117e-03
3.400000e+08	1.979281e+13	0.000000e+00	3.517589e-01	6.409587e+14	1.435292e+14	8.929541e+14	1.662956e+04	1.109187e+04	3.098691e+03	0	1.122917e-03
3.500000e+08	1.894643e+13	0.000000e+00	3.517589e-01	6.296350e+14	1.452186e+14	8.883347e+14	1.658446e+04	1.110979e+04	3.103695e+03	0	1.106677e-03
3.600000e+08	1.812193e+13	0.000000e+00	3.517589e-01	6.185953e+14	1.469016e+14	8.837488e+14	1.654015e+04	1.112747e+04	3.108636e+03	0	1.090385e-03
3.700000e+08	1.731856e+13	0.000000e+00	3.517589e-01	6.078295e+14	1.485782e+14	8.791962e+14	1.649661e+04	1.114493e+04	3.113514e+03	0	1.074028e-03
3.800000e+08	1.653557e+13	0.000000e+00	3.517589e-01	5.973285e+14	1.502482e+14	8.746764e+14	1.645382e+04	1.116218e+04	3.118331e+03	0	1.057592e-03
3.900000e+08	1.577226e+13	0.000000e+00	3.517589e-01	5.870831e+14	1.519116e+14	8.701894e+14	1.641178e+04	1.117921e+04	3.123088e+03	0	1.041062e-03
4.000000e+08	1.502796e+13	0.000000e+00	3.517589e-01	5.770850e+14	1.535683e+14	8.657347e+14	1.637045e+04	1.119602e+04	3.127786e+03	0	1.024421e-03
4.100000e+08	1.430202e+13	0.000000e+00	3.517589e-01	5.673259e+14	1.552183e+14	8.613122e+14	1.632982e+04	1.121263e+04	3.132426e+03	0	1.007653e-03
4.200000e+08	1.359384e+13	0.000000e+00	3.517589e-01	5.577979e+14	1.568613e+14	8.569216e+14	1.628987e+04	1.122903e+04	3.137009e+03	0	9.907386e-04
4.300000e+08	1.290282e+13	0.000000e+00	3.517589e-01	5.484936e+14	1.584975e+14	8.525625e+14	1.625059e+04	1.124524e+04	3.141535e+03	0	9.736583e-04
4.400000e+08	1.222840e+13	0.000000e+00	3.517589e-01	5.394058e+14	1.601266e+14	8.482349e+14	1.621197e+04	1.126124e+04	3.146007e+03	0	9.563898e-04
4.500000e+08	1.157004e+13	0.000000e+00	3.517589e-01	5.305276e+14	1.617487e+14	8.439383e+14	1.617398e+04	1.127706e+04	3.150424e+03	0	9.389087e-04
4.600000e+08	1.092723e+13	0.000000e+00	3.517589e-01	5.218524e+14	1.633637e+14	8.396726e+14	1.613662e+04	1.129268e+04	3.154788e+03	0	9.211883e-04
4.700000e+08	1.029947e+13	0.000000e+00	3.517589e-01	5.133739e+14	1.649714e+14	8.354374e+14	1.609986e+04	1.130811e+04	3.159100e+03	0	9.031988e-04
4.800000e+08	9.686284e+12	0.000000e+00	3.517589e-01	5.050860e+14	1.665719e+14	8.312326e+14	1.606370e+04	1.132336e+04	3.163360e+03	0	8.849067e-04
4.900000e+08	9.087222e+12	0.000000e+00	3.517589e-01	4.969830e+14	1.681651e+14	8.270580e+14	1.602812e+04	1.133843e+04	3.167569e+03	0	8.662744e-04
5.000000e+08	8.501844e+12	0.000000e+00	3.517589e-01	4.890591e+14	1.697510e+14	8.229131e+14	1.599311e+04	1.135331e+04	3.171729e+03	0	8.472589e-04
5.100000e+08	7.929732e+12	0.000000e+00	3.517589e-01	4.813090e+14	1.713293e+14	8.187979e+14	1.595865e+04	1.136803e+04	3.175839e+03	0	8.278111e-04
5.200000e+08	7.370482e+12	0.000000e+00	3.517589e-01	4.737277e+14	1.729003e+14	8.147121e+14	1.592474e+04	1.138257e+04	3.179900e+03	0	8.078741e-04
5.300000e+08	6.823707e+12	0.000000e+00	3.517589e-01	4.663100e+14	1.744636e+14	8.106554e+14	1.589136e+04	1.139693e+04	3.183914e+03	0	7.873815e-04
5.400000e+08	6.289036e+12	0.000000e+00	3.517589e-01	4.590512e+14	1.760194e+14	8.066275e+14	1.585850e+04	1.141113e+04	3.187881e+03	0	7.662546e-04
5.500000e+08	5.766111e+12	0.000000e+00	3.517589e-01	4.519468e+14	1.775675e+14	8.026284e+14	1.582615e+04	1.142517e+04	3.191802e+03	0	7.443995e-04
5.600000e+08	5.254588e+12	0.000000e+00	3.517589e-01	4.449923e+14	1.791080e+14	7.986577e+14	1.579430e+04	1.143904e+04	3.195677e+03	0	7.217021e-04
5.700000e+08	4.754136e+12	0.000000e+00	3.517589e-01	4.381835e+14	1.806406e+14	7.947151e+14	1.576293e+04	1.145275e+04	3.199508e+03	0	6.980217e-04
5.800000e+08	4.264436e+12	0.000000e+00	3.517589e-01	4.315162e+14	1.821656e+14	7.908006e+14	1.573205e+04	1.146630e+04	3.203294e+03	0	6.731817e-04
5.900000e+08	3.785182e+12	0.000000e+00	3.517589e-01	4.249866e+14	1.836827e+14	7.869138e+14	1.570163e+04	1.147970e+04	3.207036e+03	0	6.469549e-04
6.000000e+08	3.316078e+12	0.000000e+00	3.517589e-01	4.185907e+14	1.851919e+14	7.830545e+14	1.567167e+04	1.149294e+04	3.210735e+03	0	6.190418e-04
6.100000e+08	2.856840e+12	0.000000e+00	3.517589e-01	4.123250e+14	1.866932e+14	7.792225e+14	1.564217e+04	1.150603e+04	3.214393e+03	0	5.890340e-04
6.200000e+08	2.407193e+12	0.000000e+00	3.517589e-01	4.061860e+14	1.881866e+14	7.754176e+14	1.561310e+04	1.151897e+04	3.218008e+03	0	5.563508e-04
6.300000e+08	1.966874e+12	0.000000e+00	3.517589e-01	4.001701e+14	1.896720e+14	7.716395e+14	1.558446e+04	1.153177e+04	3.221582e+03	0	5.201204e-04
6.400000e+08	1.535626e+12	0.000000e+00	3.517589e-01	3.942741e+14	1.911494e+14	7.678881e+14	1.555625e+04	1.154441e+04	3.225115e+03	0	4.789317e-04
6.500000e+08	1.113205e+12	0.000000e+00	3.517589e-01	3.884948e+14	1.926187e+14	7.641631e+14	1.552845e+04	1.155692e+04	3.228609e+03	0	4.302327e-04
6.600000e+08	6.993716e+11	0.000000e+00	3.517589e-01	3.828292e+14	1.940799e+14	7.604643e+14	1.550105e+04	1.156928e+04	3.232063e+03	0	3.684804e-04
6.700000e+08	2.938980e+11	0.000000e+00	3.517589e-01	3.772743e+14	1.955331e+14	7.567916e+14	1.547406e+04	1.158151e+04	3.235477e+03	0	2.760010e-04
6.800000e+08	-1.034374e+11	0.000000e+00	3.517589e-01	3.718273e+14	1.969780e+14	7.531446e+14	1.544745e+04	1.159359e+04	3.238854e+03	0	nan
