#t		Qconv[W]	Ri[Rp]		R*[Rp]		Qc[W]		Qm[W]		Qr[W]		Tcmb[K]		Tl[K]		Tup[K]		RiFlag		Bs[T]
0.000000e+00	1.513538e+12	0.000000e+00	6.683416e-01	4.957895e+13	1.724514e+15	1.370574e+14	5.009619e+03	3.477256e+03	2.144767e+03	0	3.462122e-04
1.000000e+07	1.543197e+12	0.000000e+00	6.683416e-01	4.997256e+13	1.494292e+15	1.362980e+14	5.006444e+03	3.376529e+03	2.082638e+03	0	3.484590e-04
2.000000e+07	1.546068e+12	0.000000e+00	6.683416e-01	4.999416e+13	1.312542e+15	1.355443e+14	5.003243e+03	3.290277e+03	2.029438e+03	0	3.486750e-04
3.000000e+07	1.532287e+12	0.000000e+00	6.683416e-01	4.978460e+13	1.166470e+15	1.347962e+14	5.000040e+03	3.215537e+03	1.983339e+03	0	3.476359e-04
4.000000e+07	1.508197e+12	0.000000e+00	6.683416e-01	4.943200e+13	1.047203e+15	1.340537e+14	4.996851e+03	3.150101e+03	1.942978e+03	0	3.458045e-04
5.000000e+07	1.477839e+12	0.000000e+00	6.683416e-01	4.899251e+13	9.484544e+14	1.333167e+14	4.993684e+03	3.092297e+03	1.907324e+03	0	3.434686e-04
6.000000e+07	1.443823e+12	0.000000e+00	6.683416e-01	4.850241e+13	8.656769e+14	1.325852e+14	4.990545e+03	3.040834e+03	1.875582e+03	0	3.408128e-04
7.000000e+07	1.407855e+12	0.000000e+00	6.683416e-01	4.798539e+13	7.955206e+14	1.318592e+14	4.987438e+03	2.994701e+03	1.847128e+03	0	3.379589e-04
8.000000e+07	1.371055e+12	0.000000e+00	6.683416e-01	4.745700e+13	7.354747e+14	1.311386e+14	4.984364e+03	2.953094e+03	1.821464e+03	0	3.349882e-04
9.000000e+07	1.334160e+12	0.000000e+00	6.683416e-01	4.692750e+13	6.836279e+14	1.304233e+14	4.981323e+03	2.915365e+03	1.798193e+03	0	3.319561e-04
1.000000e+08	1.297654e+12	0.000000e+00	6.683416e-01	4.640357e+13	6.385043e+14	1.297134e+14	4.978316e+03	2.880986e+03	1.776988e+03	0	3.289002e-04
1.100000e+08	1.261847e+12	0.000000e+00	6.683416e-01	4.588955e+13	5.989495e+14	1.290087e+14	4.975343e+03	2.849523e+03	1.757582e+03	0	3.258468e-04
1.200000e+08	1.226935e+12	0.000000e+00	6.683416e-01	4.538815e+13	5.640497e+14	1.283092e+14	4.972403e+03	2.820616e+03	1.739752e+03	0	3.228136e-04
1.300000e+08	1.193035e+12	0.000000e+00	6.683416e-01	4.490097e+13	5.330737e+14	1.276149e+14	4.969494e+03	2.793961e+03	1.723311e+03	0	3.198127e-04
1.400000e+08	1.160209e+12	0.000000e+00	6.683416e-01	4.442888e+13	5.054308e+14	1.269258e+14	4.966617e+03	2.769303e+03	1.708102e+03	0	3.168522e-04
1.500000e+08	1.128483e+12	0.000000e+00	6.683416e-01	4.397223e+13	4.806389e+14	1.262417e+14	4.963770e+03	2.746425e+03	1.693991e+03	0	3.139373e-04
1.600000e+08	1.097857e+12	0.000000e+00	6.683416e-01	4.353102e+13	4.583017e+14	1.255627e+14	4.960953e+03	2.725138e+03	1.680861e+03	0	3.110713e-04
1.700000e+08	1.068315e+12	0.000000e+00	6.683416e-01	4.310501e+13	4.380906e+14	1.248888e+14	4.958163e+03	2.705283e+03	1.668615e+03	0	3.082556e-04
1.800000e+08	1.039829e+12	0.000000e+00	6.683416e-01	4.269381e+13	4.197312e+14	1.242197e+14	4.955401e+03	2.686720e+03	1.657165e+03	0	3.054911e-04
1.900000e+08	1.012364e+12	0.000000e+00	6.683416e-01	4.229695e+13	4.029928e+14	1.235556e+14	4.952665e+03	2.669326e+03	1.646437e+03	0	3.027774e-04
2.000000e+08	9.858815e+11	0.000000e+00	6.683416e-01	4.191387e+13	3.876804e+14	1.228964e+14	4.949954e+03	2.652996e+03	1.636364e+03	0	3.001139e-04
2.100000e+08	9.603407e+11	0.000000e+00	6.683416e-01	4.154400e+13	3.736279e+14	1.222421e+14	4.947268e+03	2.637634e+03	1.626889e+03	0	2.974996e-04
2.200000e+08	9.356994e+11	0.000000e+00	6.683416e-01	4.118675e+13	3.606932e+14	1.215925e+14	4.944606e+03	2.623159e+03	1.617960e+03	0	2.949330e-04
2.300000e+08	9.119157e+11	0.000000e+00	6.683416e-01	4.084154e+13	3.487543e+14	1.209477e+14	4.941966e+03	2.609495e+03	1.609533e+03	0	2.924127e-04
2.400000e+08	8.889484e+11	0.000000e+00	6.683416e-01	4.050778e+13	3.377055e+14	1.203077e+14	4.939349e+03	2.596578e+03	1.601566e+03	0	2.899369e-04
2.500000e+08	8.667576e+11	0.000000e+00	6.683416e-01	4.018493e+13	3.274552e+14	1.196723e+14	4.936753e+03	2.584349e+03	1.594023e+03	0	2.875040e-04
2.600000e+08	8.453047e+11	0.000000e+00	6.683416e-01	3.987244e+13	3.179236e+14	1.190416e+14	4.934177e+03	2.572754e+03	1.586871e+03	0	2.851121e-04
2.700000e+08	8.245529e+11	0.000000e+00	6.683416e-01	3.956979e+13	3.090407e+14	1.184155e+14	4.931622e+03	2.561747e+03	1.580082e+03	0	2.827597e-04
2.800000e+08	8.044671e+11	0.000000e+00	6.683416e-01	3.927650e+13	3.007452e+14	1.177940e+14	4.929086e+03	2.551284e+03	1.573628e+03	0	2.804448e-04
2.900000e+08	7.850138e+11	0.000000e+00	6.683416e-01	3.899210e+13	2.929828e+14	1.171770e+14	4.926568e+03	2.541327e+03	1.567487e+03	0	2.781658e-04
3.000000e+08	7.661614e+11	0.000000e+00	6.683416e-01	3.871614e+13	2.857057e+14	1.165645e+14	4.924069e+03	2.531840e+03	1.561635e+03	0	2.759210e-04
3.100000e+08	7.478799e+11	0.000000e+00	6.683416e-01	3.844821e+13	2.788714e+14	1.159564e+14	4.921588e+03	2.522792e+03	1.556054e+03	0	2.737087e-04
3.200000e+08	7.301411e+11	0.000000e+00	6.683416e-01	3.818791e+13	2.724419e+14	1.153528e+14	4.919124e+03	2.514152e+03	1.550725e+03	0	2.715273e-04
3.300000e+08	7.129182e+11	0.000000e+00	6.683416e-01	3.793487e+13	2.663835e+14	1.147536e+14	4.916676e+03	2.505895e+03	1.545633e+03	0	2.693753e-04
3.400000e+08	6.961861e+11	0.000000e+00	6.683416e-01	3.768873e+13	2.606659e+14	1.141587e+14	4.914245e+03	2.497997e+03	1.540761e+03	0	2.672512e-04
3.500000e+08	6.799210e+11	0.000000e+00	6.683416e-01	3.744917e+13	2.552620e+14	1.135681e+14	4.911829e+03	2.490433e+03	1.536096e+03	0	2.651535e-04
3.600000e+08	6.641005e+11	0.000000e+00	6.683416e-01	3.721586e+13	2.501472e+14	1.129819e+14	4.909429e+03	2.483185e+03	1.531625e+03	0	2.630808e-04
3.700000e+08	6.487035e+11	0.000000e+00	6.683416e-01	3.698852e+13	2.452995e+14	1.123998e+14	4.907043e+03	2.476232e+03	1.527336e+03	0	2.610318e-04
3.800000e+08	6.337102e+11	0.000000e+00	6.683416e-01	3.676686e+13	2.406989e+14	1.118220e+14	4.904672e+03	2.469558e+03	1.523220e+03	0	2.590050e-04
3.900000e+08	6.191018e+11	0.000000e+00	6.683416e-01	3.655063e+13	2.363274e+14	1.112484e+14	4.902316e+03	2.463146e+03	1.519265e+03	0	2.569993e-04
4.000000e+08	6.048606e+11	0.000000e+00	6.683416e-01	3.633958e+13	2.321685e+14	1.106789e+14	4.899973e+03	2.456981e+03	1.515462e+03	0	2.550134e-04
4.100000e+08	5.909700e+11	0.000000e+00	6.683416e-01	3.613347e+13	2.282074e+14	1.101135e+14	4.897644e+03	2.451049e+03	1.511804e+03	0	2.530462e-04
4.200000e+08	5.774143e+11	0.000000e+00	6.683416e-01	3.593209e+13	2.244303e+14	1.095522e+14	4.895327e+03	2.445338e+03	1.508281e+03	0	2.510964e-04
4.300000e+08	5.641786e+11	0.000000e+00	6.683416e-01	3.573521e+13	2.208248e+14	1.089949e+14	4.893024e+03	2.439835e+03	1.504886e+03	0	2.491629e-04
4.400000e+08	5.512488e+11	0.000000e+00	6.683416e-01	3.554266e+13	2.173796e+14	1.084416e+14	4.890734e+03	2.434528e+03	1.501614e+03	0	2.472448e-04
4.500000e+08	5.386119e+11	0.000000e+00	6.683416e-01	3.535425e+13	2.140842e+14	1.078923e+14	4.888455e+03	2.429409e+03	1.498456e+03	0	2.453409e-04
4.600000e+08	5.262552e+11	0.000000e+00	6.683416e-01	3.516979e+13	2.109290e+14	1.073470e+14	4.886189e+03	2.424466e+03	1.495407e+03	0	2.434502e-04
4.700000e+08	5.141670e+11	0.000000e+00	6.683416e-01	3.498913e+13	2.079052e+14	1.068056e+14	4.883935e+03	2.419692e+03	1.492462e+03	0	2.415717e-04
4.800000e+08	5.023361e+11	0.000000e+00	6.683416e-01	3.481210e+13	2.050047e+14	1.062680e+14	4.881692e+03	2.415076e+03	1.489616e+03	0	2.397044e-04
4.900000e+08	4.907519e+11	0.000000e+00	6.683416e-01	3.463857e+13	2.022201e+14	1.057343e+14	4.879460e+03	2.410612e+03	1.486862e+03	0	2.378475e-04
5.000000e+08	4.794043e+11	0.000000e+00	6.683416e-01	3.446838e+13	1.995443e+14	1.052044e+14	4.877240e+03	2.406292e+03	1.484198e+03	0	2.359999e-04
5.100000e+08	4.682839e+11	0.000000e+00	6.683416e-01	3.430141e+13	1.969710e+14	1.046783e+14	4.875031e+03	2.402109e+03	1.481617e+03	0	2.341609e-04
5.200000e+08	4.573817e+11	0.000000e+00	6.683416e-01	3.413753e+13	1.944943e+14	1.041559e+14	4.872832e+03	2.398056e+03	1.479118e+03	0	2.323294e-04
5.300000e+08	4.466892e+11	0.000000e+00	6.683416e-01	3.397662e+13	1.921086e+14	1.036373e+14	4.870644e+03	2.394127e+03	1.476694e+03	0	2.305047e-04
5.400000e+08	4.361982e+11	0.000000e+00	6.683416e-01	3.381856e+13	1.898090e+14	1.031224e+14	4.868466e+03	2.390317e+03	1.474344e+03	0	2.286858e-04
5.500000e+08	4.259011e+11	0.000000e+00	6.683416e-01	3.366326e+13	1.875906e+14	1.026111e+14	4.866298e+03	2.386619e+03	1.472063e+03	0	2.268720e-04
5.600000e+08	4.157906e+11	0.000000e+00	6.683416e-01	3.351060e+13	1.854490e+14	1.021035e+14	4.864140e+03	2.383029e+03	1.469849e+03	0	2.250623e-04
5.700000e+08	4.058598e+11	0.000000e+00	6.683416e-01	3.336049e+13	1.833802e+14	1.015995e+14	4.861992e+03	2.379542e+03	1.467698e+03	0	2.232561e-04
5.800000e+08	3.961021e+11	0.000000e+00	6.683416e-01	3.321284e+13	1.813803e+14	1.010990e+14	4.859853e+03	2.376154e+03	1.465608e+03	0	2.214524e-04
5.900000e+08	3.865112e+11	0.000000e+00	6.683416e-01	3.306756e+13	1.794457e+14	1.006021e+14	4.857724e+03	2.372859e+03	1.463576e+03	0	2.196504e-04
6.000000e+08	3.770812e+11	0.000000e+00	6.683416e-01	3.292457e+13	1.775731e+14	1.001087e+14	4.855604e+03	2.369653e+03	1.461599e+03	0	2.178493e-04
6.100000e+08	3.678064e+11	0.000000e+00	6.683416e-01	3.278378e+13	1.757593e+14	9.961882e+13	4.853493e+03	2.366534e+03	1.459675e+03	0	2.160484e-04
6.200000e+08	3.586813e+11	0.000000e+00	6.683416e-01	3.264512e+13	1.740015e+14	9.913239e+13	4.851392e+03	2.363497e+03	1.457802e+03	0	2.142467e-04
6.300000e+08	3.497009e+11	0.000000e+00	6.683416e-01	3.250853e+13	1.722968e+14	9.864938e+13	4.849299e+03	2.360539e+03	1.455977e+03	0	2.124435e-04
6.400000e+08	3.408603e+11	0.000000e+00	6.683416e-01	3.237392e+13	1.706428e+14	9.816979e+13	4.847215e+03	2.357656e+03	1.454199e+03	0	2.106380e-04
6.500000e+08	3.321547e+11	0.000000e+00	6.683416e-01	3.224123e+13	1.690370e+14	9.769357e+13	4.845140e+03	2.354845e+03	1.452465e+03	0	2.088293e-04
6.600000e+08	3.235797e+11	0.000000e+00	6.683416e-01	3.211041e+13	1.674771e+14	9.722071e+13	4.843073e+03	2.352104e+03	1.450774e+03	0	2.070165e-04
6.700000e+08	3.151311e+11	0.000000e+00	6.683416e-01	3.198139e+13	1.659610e+14	9.675117e+13	4.841014e+03	2.349429e+03	1.449125e+03	0	2.051989e-04
6.800000e+08	3.068047e+11	0.000000e+00	6.683416e-01	3.185411e+13	1.644867e+14	9.628492e+13	4.838964e+03	2.346818e+03	1.447514e+03	0	2.033755e-04
6.900000e+08	2.985967e+11	0.000000e+00	6.683416e-01	3.172852e+13	1.630523e+14	9.582195e+13	4.836922e+03	2.344269e+03	1.445942e+03	0	2.015454e-04
7.000000e+08	2.905034e+11	0.000000e+00	6.683416e-01	3.160457e+13	1.616560e+14	9.536222e+13	4.834888e+03	2.341778e+03	1.444405e+03	0	1.997078e-04
7.100000e+08	2.825212e+11	0.000000e+00	6.683416e-01	3.148221e+13	1.602962e+14	9.490571e+13	4.832862e+03	2.339344e+03	1.442904e+03	0	1.978617e-04
7.200000e+08	2.746468e+11	0.000000e+00	6.683416e-01	3.136139e+13	1.589712e+14	9.445240e+13	4.830844e+03	2.336964e+03	1.441436e+03	0	1.960060e-04
7.300000e+08	2.668768e+11	0.000000e+00	6.683416e-01	3.124207e+13	1.576795e+14	9.400225e+13	4.828833e+03	2.334637e+03	1.440001e+03	0	1.941399e-04
7.400000e+08	2.592083e+11	0.000000e+00	6.683416e-01	3.112419e+13	1.564198e+14	9.355524e+13	4.826830e+03	2.332360e+03	1.438596e+03	0	1.922623e-04
7.500000e+08	2.516381e+11	0.000000e+00	6.683416e-01	3.100772e+13	1.551907e+14	9.311135e+13	4.824835e+03	2.330131e+03	1.437221e+03	0	1.903721e-04
7.600000e+08	2.441634e+11	0.000000e+00	6.683416e-01	3.089263e+13	1.539910e+14	9.267056e+13	4.822847e+03	2.327949e+03	1.435876e+03	0	1.884682e-04
7.700000e+08	2.367816e+11	0.000000e+00	6.683416e-01	3.077886e+13	1.528193e+14	9.223283e+13	4.820866e+03	2.325812e+03	1.434557e+03	0	1.865494e-04
7.800000e+08	2.294900e+11	0.000000e+00	6.683416e-01	3.066638e+13	1.516747e+14	9.179814e+13	4.818893e+03	2.323718e+03	1.433266e+03	0	1.846145e-04
7.900000e+08	2.222860e+11	0.000000e+00	6.683416e-01	3.055517e+13	1.505560e+14	9.136647e+13	4.816927e+03	2.321665e+03	1.432000e+03	0	1.826622e-04
8.000000e+08	2.151673e+11	0.000000e+00	6.683416e-01	3.044518e+13	1.494621e+14	9.093779e+13	4.814968e+03	2.319653e+03	1.430759e+03	0	1.806911e-04
8.100000e+08	2.081316e+11	0.000000e+00	6.683416e-01	3.033638e+13	1.483922e+14	9.051209e+13	4.813016e+03	2.317679e+03	1.429541e+03	0	1.786997e-04
8.200000e+08	2.011766e+11	0.000000e+00	6.683416e-01	3.022874e+13	1.473453e+14	9.008933e+13	4.811072e+03	2.315743e+03	1.428347e+03	0	1.766866e-04
8.300000e+08	1.943002e+11	0.000000e+00	6.683416e-01	3.012223e+13	1.463205e+14	8.966949e+13	4.809134e+03	2.313843e+03	1.427175e+03	0	1.746502e-04
8.400000e+08	1.875003e+11	0.000000e+00	6.683416e-01	3.001682e+13	1.453171e+14	8.925256e+13	4.807202e+03	2.311978e+03	1.426025e+03	0	1.725885e-04
8.500000e+08	1.807751e+11	0.000000e+00	6.683416e-01	2.991249e+13	1.443341e+14	8.883850e+13	4.805278e+03	2.310146e+03	1.424895e+03	0	1.704999e-04
8.600000e+08	1.741225e+11	0.000000e+00	6.683416e-01	2.980920e+13	1.433709e+14	8.842729e+13	4.803360e+03	2.308347e+03	1.423785e+03	0	1.683822e-04
8.700000e+08	1.675408e+11	0.000000e+00	6.683416e-01	2.970694e+13	1.424267e+14	8.801892e+13	4.801449e+03	2.306579e+03	1.422694e+03	0	1.662333e-04
8.800000e+08	1.610282e+11	0.000000e+00	6.683416e-01	2.960567e+13	1.415009e+14	8.761335e+13	4.799545e+03	2.304841e+03	1.421622e+03	0	1.640509e-04
8.900000e+08	1.545830e+11	0.000000e+00	6.683416e-01	2.950538e+13	1.405928e+14	8.721057e+13	4.797647e+03	2.303132e+03	1.420569e+03	0	1.618323e-04
9.000000e+08	1.482037e+11	0.000000e+00	6.683416e-01	2.940603e+13	1.397017e+14	8.681056e+13	4.795755e+03	2.301452e+03	1.419532e+03	0	1.595748e-04
9.100000e+08	1.418886e+11	0.000000e+00	6.683416e-01	2.930762e+13	1.388272e+14	8.641329e+13	4.793870e+03	2.299799e+03	1.418513e+03	0	1.572753e-04
9.200000e+08	1.356362e+11	0.000000e+00	6.683416e-01	2.921011e+13	1.379686e+14	8.601873e+13	4.791991e+03	2.298173e+03	1.417510e+03	0	1.549303e-04
9.300000e+08	1.294451e+11	0.000000e+00	6.683416e-01	2.911348e+13	1.371253e+14	8.562688e+13	4.790118e+03	2.296572e+03	1.416522e+03	0	1.525363e-04
9.400000e+08	1.233140e+11	0.000000e+00	6.683416e-01	2.901773e+13	1.362970e+14	8.523771e+13	4.788251e+03	2.294996e+03	1.415550e+03	0	1.500889e-04
9.500000e+08	1.172413e+11	0.000000e+00	6.683416e-01	2.892282e+13	1.354830e+14	8.485119e+13	4.786391e+03	2.293444e+03	1.414593e+03	0	1.475836e-04
9.600000e+08	1.112259e+11	0.000000e+00	6.683416e-01	2.882874e+13	1.346829e+14	8.446730e+13	4.784536e+03	2.291915e+03	1.413650e+03	0	1.450151e-04
9.700000e+08	1.052665e+11	0.000000e+00	6.683416e-01	2.873547e+13	1.338963e+14	8.408604e+13	4.782688e+03	2.290408e+03	1.412721e+03	0	1.423775e-04
9.800000e+08	9.936190e+10	0.000000e+00	6.683416e-01	2.864300e+13	1.331227e+14	8.370736e+13	4.780846e+03	2.288924e+03	1.411805e+03	0	1.396640e-04
9.900000e+08	9.351088e+10	0.000000e+00	6.683416e-01	2.855130e+13	1.323617e+14	8.333126e+13	4.779009e+03	2.287461e+03	1.410902e+03	0	1.368670e-04
1.000000e+09	8.771235e+10	0.000000e+00	6.683416e-01	2.846037e+13	1.316130e+14	8.295771e+13	4.777179e+03	2.286018e+03	1.410012e+03	0	1.339774e-04
1.010000e+09	8.196520e+10	0.000000e+00	6.683416e-01	2.837018e+13	1.308761e+14	8.258670e+13	4.775354e+03	2.284595e+03	1.409135e+03	0	1.309849e-04
1.020000e+09	7.626840e+10	0.000000e+00	6.683416e-01	2.828073e+13	1.301507e+14	8.221820e+13	4.773535e+03	2.283191e+03	1.408269e+03	0	1.278771e-04
1.030000e+09	7.062091e+10	0.000000e+00	6.683416e-01	2.819199e+13	1.294364e+14	8.185219e+13	4.771722e+03	2.281806e+03	1.407415e+03	0	1.246395e-04
1.040000e+09	6.502175e+10	0.000000e+00	6.683416e-01	2.810396e+13	1.287330e+14	8.148866e+13	4.769914e+03	2.280439e+03	1.406572e+03	0	1.212544e-04
1.050000e+09	5.946998e+10	0.000000e+00	6.683416e-01	2.801661e+13	1.280400e+14	8.112758e+13	4.768113e+03	2.279090e+03	1.405739e+03	0	1.177002e-04
1.060000e+09	5.396467e+10	0.000000e+00	6.683416e-01	2.792994e+13	1.273572e+14	8.076894e+13	4.766316e+03	2.277758e+03	1.404918e+03	0	1.139500e-04
1.070000e+09	4.850492e+10	0.000000e+00	6.683416e-01	2.784394e+13	1.266843e+14	8.041271e+13	4.764526e+03	2.276442e+03	1.404106e+03	0	1.099697e-04
1.080000e+09	4.308989e+10	0.000000e+00	6.683416e-01	2.775859e+13	1.260210e+14	8.005888e+13	4.762740e+03	2.275143e+03	1.403305e+03	0	1.057149e-04
1.090000e+09	3.771873e+10	0.000000e+00	6.683416e-01	2.767388e+13	1.253670e+14	7.970743e+13	4.760961e+03	2.273859e+03	1.402513e+03	0	1.011262e-04
1.100000e+09	3.239062e+10	0.000000e+00	6.683416e-01	2.758980e+13	1.247222e+14	7.935834e+13	4.759186e+03	2.272591e+03	1.401731e+03	0	9.612087e-05
1.110000e+09	2.710480e+10	0.000000e+00	6.683416e-01	2.750633e+13	1.240861e+14	7.901159e+13	4.757417e+03	2.271337e+03	1.400957e+03	0	9.057882e-05
1.120000e+09	2.186050e+10	0.000000e+00	6.683416e-01	2.742347e+13	1.234586e+14	7.866716e+13	4.755654e+03	2.270098e+03	1.400193e+03	0	8.431366e-05
1.130000e+09	1.665698e+10	0.000000e+00	6.683416e-01	2.734121e+13	1.228395e+14	7.832504e+13	4.753895e+03	2.268873e+03	1.399437e+03	0	7.700933e-05
1.140000e+09	1.149353e+10	0.000000e+00	6.683416e-01	2.725954e+13	1.222286e+14	7.798521e+13	4.752142e+03	2.267661e+03	1.398690e+03	0	6.805014e-05
1.150000e+09	6.369455e+09	0.000000e+00	6.683416e-01	2.717844e+13	1.216255e+14	7.764764e+13	4.750394e+03	2.266463e+03	1.397951e+03	0	5.589574e-05
1.160000e+09	1.284087e+09	0.000000e+00	6.683416e-01	2.709791e+13	1.210302e+14	7.731232e+13	4.748652e+03	2.265277e+03	1.397220e+03	0	3.277500e-05
1.170000e+09	-3.763227e+09	0.000000e+00	6.683416e-01	2.701793e+13	1.204423e+14	7.697924e+13	4.746914e+03	2.264105e+03	1.396496e+03	0	nan
