#t		Qconv[W]	Ri[Rp]		R*[Rp]		Qc[W]		Qm[W]		Qr[W]		Tcmb[K]		Tl[K]		Tup[K]		RiFlag		Bs[T]
0.000000e+00	1.729945e+12	0.000000e+00	6.683417e-01	6.228401e+13	1.917477e+15	1.542586e+14	5.352193e+03	3.654823e+03	2.178849e+03	0	3.597432e-04
1.000000e+07	1.753097e+12	0.000000e+00	6.683417e-01	6.255792e+13	1.671312e+15	1.534039e+14	5.348787e+03	3.554042e+03	2.118768e+03	0	3.613410e-04
2.000000e+07	1.747027e+12	0.000000e+00	6.683417e-01	6.245393e+13	1.475344e+15	1.525556e+14	5.345366e+03	3.467271e+03	2.067038e+03	0	3.609235e-04
3.000000e+07	1.722751e+12	0.000000e+00	6.683417e-01	6.211461e+13	1.316697e+15	1.517137e+14	5.341950e+03	3.391725e+03	2.022001e+03	0	3.592439e-04
4.000000e+07	1.687230e+12	0.000000e+00	6.683417e-01	6.163006e+13	1.186340e+15	1.508780e+14	5.338553e+03	3.325314e+03	1.982410e+03	0	3.567577e-04
5.000000e+07	1.644936e+12	0.000000e+00	6.683417e-01	6.105814e+13	1.077809e+15	1.500485e+14	5.335182e+03	3.266440e+03	1.947311e+03	0	3.537514e-04
6.000000e+07	1.598776e+12	0.000000e+00	6.683417e-01	6.043648e+13	9.863862e+14	1.492252e+14	5.331842e+03	3.213860e+03	1.915966e+03	0	3.504111e-04
7.000000e+07	1.550661e+12	0.000000e+00	6.683417e-01	5.978980e+13	9.085669e+14	1.484081e+14	5.328537e+03	3.166594e+03	1.887788e+03	0	3.468600e-04
8.000000e+07	1.501849e+12	0.000000e+00	6.683417e-01	5.913436e+13	8.417053e+14	1.475970e+14	5.325266e+03	3.123860e+03	1.862311e+03	0	3.431816e-04
9.000000e+07	1.453169e+12	0.000000e+00	6.683417e-01	5.848090e+13	7.837742e+14	1.467920e+14	5.322031e+03	3.085021e+03	1.839158e+03	0	3.394329e-04
1.000000e+08	1.405164e+12	0.000000e+00	6.683417e-01	5.783643e+13	7.331987e+14	1.459929e+14	5.318832e+03	3.049561e+03	1.818017e+03	0	3.356533e-04
1.100000e+08	1.358181e+12	0.000000e+00	6.683417e-01	5.720543e+13	6.887404e+14	1.451998e+14	5.315669e+03	3.017048e+03	1.798635e+03	0	3.318698e-04
1.200000e+08	1.312435e+12	0.000000e+00	6.683417e-01	5.659069e+13	6.494143e+14	1.444126e+14	5.312539e+03	2.987126e+03	1.780796e+03	0	3.281012e-04
1.300000e+08	1.268053e+12	0.000000e+00	6.683417e-01	5.599383e+13	6.144288e+14	1.436311e+14	5.309443e+03	2.959492e+03	1.764322e+03	0	3.243603e-04
1.400000e+08	1.225099e+12	0.000000e+00	6.683417e-01	5.541567e+13	5.831415e+14	1.428555e+14	5.306380e+03	2.933892e+03	1.749061e+03	0	3.206557e-04
1.500000e+08	1.183593e+12	0.000000e+00	6.683417e-01	5.485647e+13	5.550264e+14	1.420856e+14	5.303348e+03	2.910107e+03	1.734881e+03	0	3.169928e-04
1.600000e+08	1.143528e+12	0.000000e+00	6.683417e-01	5.431613e+13	5.296497e+14	1.413214e+14	5.300347e+03	2.887950e+03	1.721672e+03	0	3.133749e-04
1.700000e+08	1.104877e+12	0.000000e+00	6.683417e-01	5.379429e+13	5.066503e+14	1.405628e+14	5.297376e+03	2.867259e+03	1.709337e+03	0	3.098037e-04
1.800000e+08	1.067602e+12	0.000000e+00	6.683417e-01	5.329044e+13	4.857260e+14	1.398098e+14	5.294433e+03	2.847892e+03	1.697791e+03	0	3.062798e-04
1.900000e+08	1.031655e+12	0.000000e+00	6.683417e-01	5.280397e+13	4.666220e+14	1.390624e+14	5.291517e+03	2.829727e+03	1.686962e+03	0	3.028029e-04
2.000000e+08	9.969839e+11	0.000000e+00	6.683417e-01	5.233420e+13	4.491223e+14	1.383205e+14	5.288628e+03	2.812656e+03	1.676785e+03	0	2.993721e-04
2.100000e+08	9.635348e+11	0.000000e+00	6.683417e-01	5.188041e+13	4.330426e+14	1.375840e+14	5.285765e+03	2.796583e+03	1.667203e+03	0	2.959859e-04
2.200000e+08	9.312529e+11	0.000000e+00	6.683417e-01	5.144190e+13	4.182249e+14	1.368529e+14	5.282926e+03	2.781424e+03	1.658166e+03	0	2.926428e-04
2.300000e+08	9.000837e+11	0.000000e+00	6.683417e-01	5.101795e+13	4.045331e+14	1.361272e+14	5.280111e+03	2.767103e+03	1.649628e+03	0	2.893407e-04
2.400000e+08	8.699738e+11	0.000000e+00	6.683417e-01	5.060787e+13	3.918491e+14	1.354068e+14	5.277320e+03	2.753553e+03	1.641551e+03	0	2.860777e-04
2.500000e+08	8.408716e+11	0.000000e+00	6.683417e-01	5.021098e+13	3.800707e+14	1.346917e+14	5.274551e+03	2.740715e+03	1.633897e+03	0	2.828515e-04
2.600000e+08	8.127274e+11	0.000000e+00	6.683417e-01	4.982664e+13	3.691081e+14	1.339818e+14	5.271804e+03	2.728535e+03	1.626636e+03	0	2.796599e-04
2.700000e+08	7.854935e+11	0.000000e+00	6.683417e-01	4.945423e+13	3.588831e+14	1.332771e+14	5.269077e+03	2.716963e+03	1.619737e+03	0	2.765006e-04
2.800000e+08	7.591248e+11	0.000000e+00	6.683417e-01	4.909315e+13	3.493265e+14	1.325776e+14	5.266371e+03	2.705956e+03	1.613175e+03	0	2.733713e-04
2.900000e+08	7.335780e+11	0.000000e+00	6.683417e-01	4.874285e+13	3.403773e+14	1.318832e+14	5.263685e+03	2.695475e+03	1.606927e+03	0	2.702697e-04
3.000000e+08	7.088126e+11	0.000000e+00	6.683417e-01	4.840279e+13	3.319816e+14	1.311938e+14	5.261018e+03	2.685482e+03	1.600969e+03	0	2.671934e-04
3.100000e+08	6.847898e+11	0.000000e+00	6.683417e-01	4.807247e+13	3.240913e+14	1.305094e+14	5.258369e+03	2.675945e+03	1.595284e+03	0	2.641401e-04
3.200000e+08	6.614733e+11	0.000000e+00	6.683417e-01	4.775141e+13	3.166637e+14	1.298301e+14	5.255739e+03	2.666835e+03	1.589853e+03	0	2.611075e-04
3.300000e+08	6.388286e+11	0.000000e+00	6.683417e-01	4.743917e+13	3.096605e+14	1.291556e+14	5.253126e+03	2.658122e+03	1.584659e+03	0	2.580933e-04
3.400000e+08	6.168232e+11	0.000000e+00	6.683417e-01	4.713533e+13	3.030475e+14	1.284861e+14	5.250530e+03	2.649783e+03	1.579687e+03	0	2.550951e-04
3.500000e+08	5.954265e+11	0.000000e+00	6.683417e-01	4.683947e+13	2.967937e+14	1.278214e+14	5.247951e+03	2.641794e+03	1.574925e+03	0	2.521107e-04
3.600000e+08	5.746097e+11	0.000000e+00	6.683417e-01	4.655124e+13	2.908716e+14	1.271616e+14	5.245388e+03	2.634134e+03	1.570358e+03	0	2.491378e-04
3.700000e+08	5.543454e+11	0.000000e+00	6.683417e-01	4.627026e+13	2.852559e+14	1.265065e+14	5.242840e+03	2.626783e+03	1.565976e+03	0	2.461739e-04
3.800000e+08	5.346081e+11	0.000000e+00	6.683417e-01	4.599621e+13	2.799240e+14	1.258562e+14	5.240308e+03	2.619723e+03	1.561767e+03	0	2.432169e-04
3.900000e+08	5.153736e+11	0.000000e+00	6.683417e-01	4.572877e+13	2.748554e+14	1.252105e+14	5.237791e+03	2.612937e+03	1.557721e+03	0	2.402643e-04
4.000000e+08	4.966189e+11	0.000000e+00	6.683417e-01	4.546765e+13	2.700312e+14	1.245695e+14	5.235289e+03	2.606410e+03	1.553830e+03	0	2.373138e-04
4.100000e+08	4.783226e+11	0.000000e+00	6.683417e-01	4.521256e+13	2.654345e+14	1.239332e+14	5.232801e+03	2.600127e+03	1.550084e+03	0	2.343629e-04
4.200000e+08	4.604643e+11	0.000000e+00	6.683417e-01	4.496323e+13	2.610498e+14	1.233014e+14	5.230326e+03	2.594074e+03	1.546476e+03	0	2.314092e-04
4.300000e+08	4.430248e+11	0.000000e+00	6.683417e-01	4.471942e+13	2.568628e+14	1.226742e+14	5.227866e+03	2.588240e+03	1.542998e+03	0	2.284500e-04
4.400000e+08	4.259859e+11	0.000000e+00	6.683417e-01	4.448089e+13	2.528606e+14	1.220515e+14	5.225419e+03	2.582613e+03	1.539643e+03	0	2.254829e-04
4.500000e+08	4.093306e+11	0.000000e+00	6.683417e-01	4.424742e+13	2.490311e+14	1.214333e+14	5.222984e+03	2.577182e+03	1.536406e+03	0	2.225051e-04
4.600000e+08	3.930426e+11	0.000000e+00	6.683417e-01	4.401878e+13	2.453634e+14	1.208195e+14	5.220563e+03	2.571937e+03	1.533279e+03	0	2.195138e-04
4.700000e+08	3.771066e+11	0.000000e+00	6.683417e-01	4.379480e+13	2.418475e+14	1.202101e+14	5.218154e+03	2.566868e+03	1.530257e+03	0	2.165060e-04
4.800000e+08	3.615080e+11	0.000000e+00	6.683417e-01	4.357526e+13	2.384740e+14	1.196051e+14	5.215757e+03	2.561966e+03	1.527334e+03	0	2.134787e-04
4.900000e+08	3.462332e+11	0.000000e+00	6.683417e-01	4.336000e+13	2.352343e+14	1.190044e+14	5.213373e+03	2.557224e+03	1.524507e+03	0	2.104286e-04
5.000000e+08	3.312691e+11	0.000000e+00	6.683417e-01	4.314885e+13	2.321206e+14	1.184080e+14	5.211000e+03	2.552633e+03	1.521770e+03	0	2.073523e-04
5.100000e+08	3.166033e+11	0.000000e+00	6.683417e-01	4.294164e+13	2.291255e+14	1.178159e+14	5.208638e+03	2.548186e+03	1.519119e+03	0	2.042461e-04
5.200000e+08	3.022243e+11	0.000000e+00	6.683417e-01	4.273822e+13	2.262421e+14	1.172280e+14	5.206288e+03	2.543877e+03	1.516550e+03	0	2.011060e-04
5.300000e+08	2.881209e+11	0.000000e+00	6.683417e-01	4.253844e+13	2.234643e+14	1.166442e+14	5.203949e+03	2.539698e+03	1.514059e+03	0	1.979278e-04
5.400000e+08	2.742826e+11	0.000000e+00	6.683417e-01	4.234218e+13	2.207860e+14	1.160647e+14	5.201621e+03	2.535644e+03	1.511643e+03	0	1.947069e-04
5.500000e+08	2.606993e+11	0.000000e+00	6.683417e-01	4.214929e+13	2.182019e+14	1.154892e+14	5.199304e+03	2.531709e+03	1.509297e+03	0	1.914382e-04
5.600000e+08	2.473616e+11	0.000000e+00	6.683417e-01	4.195966e+13	2.157070e+14	1.149179e+14	5.196997e+03	2.527888e+03	1.507019e+03	0	1.881161e-04
5.700000e+08	2.342605e+11	0.000000e+00	6.683417e-01	4.177316e+13	2.132964e+14	1.143506e+14	5.194701e+03	2.524176e+03	1.504806e+03	0	1.847346e-04
5.800000e+08	2.213873e+11	0.000000e+00	6.683417e-01	4.158968e+13	2.109657e+14	1.137874e+14	5.192415e+03	2.520567e+03	1.502654e+03	0	1.812868e-04
5.900000e+08	2.087339e+11	0.000000e+00	6.683417e-01	4.140912e+13	2.087109e+14	1.132281e+14	5.190139e+03	2.517057e+03	1.500562e+03	0	1.777650e-04
6.000000e+08	1.962926e+11	0.000000e+00	6.683417e-01	4.123138e+13	2.065280e+14	1.126728e+14	5.187872e+03	2.513643e+03	1.498526e+03	0	1.741606e-04
6.100000e+08	1.840558e+11	0.000000e+00	6.683417e-01	4.105635e+13	2.044136e+14	1.121214e+14	5.185616e+03	2.510319e+03	1.496545e+03	0	1.704636e-04
6.200000e+08	1.720166e+11	0.000000e+00	6.683417e-01	4.088395e+13	2.023641e+14	1.115739e+14	5.183369e+03	2.507082e+03	1.494615e+03	0	1.666628e-04
6.300000e+08	1.601682e+11	0.000000e+00	6.683417e-01	4.071408e+13	2.003765e+14	1.110303e+14	5.181131e+03	2.503929e+03	1.492735e+03	0	1.627449e-04
6.400000e+08	1.485042e+11	0.000000e+00	6.683417e-01	4.054667e+13	1.984478e+14	1.104905e+14	5.178903e+03	2.500855e+03	1.490903e+03	0	1.586944e-04
6.500000e+08	1.370186e+11	0.000000e+00	6.683417e-01	4.038163e+13	1.965751e+14	1.099545e+14	5.176684e+03	2.497858e+03	1.489116e+03	0	1.544928e-04
6.600000e+08	1.257054e+11	0.000000e+00	6.683417e-01	4.021889e+13	1.947559e+14	1.094223e+14	5.174474e+03	2.494935e+03	1.487373e+03	0	1.501181e-04
6.700000e+08	1.145590e+11	0.000000e+00	6.683417e-01	4.005837e+13	1.929876e+14	1.088938e+14	5.172272e+03	2.492082e+03	1.485673e+03	0	1.455431e-04
6.800000e+08	1.035743e+11	0.000000e+00	6.683417e-01	3.990001e+13	1.912680e+14	1.083691e+14	5.170080e+03	2.489297e+03	1.484012e+03	0	1.407340e-04
6.900000e+08	9.274593e+10	0.000000e+00	6.683417e-01	3.974373e+13	1.895950e+14	1.078480e+14	5.167896e+03	2.486577e+03	1.482391e+03	0	1.356480e-04
7.000000e+08	8.206921e+10	0.000000e+00	6.683417e-01	3.958948e+13	1.879663e+14	1.073306e+14	5.165721e+03	2.483919e+03	1.480806e+03	0	1.302293e-04
7.100000e+08	7.153943e+10	0.000000e+00	6.683417e-01	3.943719e+13	1.863801e+14	1.068168e+14	5.163554e+03	2.481322e+03	1.479258e+03	0	1.244029e-04
7.200000e+08	6.115213e+10	0.000000e+00	6.683417e-01	3.928681e+13	1.848345e+14	1.063066e+14	5.161396e+03	2.478782e+03	1.477744e+03	0	1.180644e-04
7.300000e+08	5.090305e+10	0.000000e+00	6.683417e-01	3.913827e+13	1.833278e+14	1.057999e+14	5.159245e+03	2.476298e+03	1.476263e+03	0	1.110614e-04
7.400000e+08	4.078812e+10	0.000000e+00	6.683417e-01	3.899153e+13	1.818584e+14	1.052968e+14	5.157103e+03	2.473868e+03	1.474814e+03	0	1.031557e-04
7.500000e+08	3.080341e+10	0.000000e+00	6.683417e-01	3.884653e+13	1.804247e+14	1.047972e+14	5.154969e+03	2.471489e+03	1.473396e+03	0	9.393948e-05
7.600000e+08	2.094518e+10	0.000000e+00	6.683417e-01	3.870322e+13	1.790252e+14	1.043011e+14	5.152843e+03	2.469159e+03	1.472007e+03	0	8.260569e-05
7.700000e+08	1.120985e+10	0.000000e+00	6.683417e-01	3.856156e+13	1.776585e+14	1.038084e+14	5.150725e+03	2.466878e+03	1.470647e+03	0	6.706796e-05
7.800000e+08	1.593953e+09	0.000000e+00	6.683417e-01	3.842151e+13	1.763234e+14	1.033192e+14	5.148614e+03	2.464642e+03	1.469314e+03	0	3.500583e-05
7.900000e+08	-7.905803e+09	0.000000e+00	6.683417e-01	3.828301e+13	1.750186e+14	1.028333e+14	5.146511e+03	2.462451e+03	1.468008e+03	0	nan
