#t		Qconv[W]	Ri[Rp]		R*[Rp]		Qc[W]		Qm[W]		Qr[W]		Tcmb[K]		Tl[K]		Tup[K]		RiFlag		Bs[T]
0.000000e+00	1.753828e+12	0.000000e+00	6.633165e-01	3.285043e+13	1.651359e+15	1.367949e+14	5.274052e+03	3.553115e+03	2.157819e+03	0	3.692275e-04
1.000000e+07	1.742516e+12	0.000000e+00	6.633165e-01	3.268612e+13	1.436461e+15	1.360370e+14	5.271920e+03	3.453975e+03	2.097611e+03	0	3.684320e-04
2.000000e+07	1.720774e+12	0.000000e+00	6.633165e-01	3.237325e+13	1.265877e+15	1.352847e+14	5.269798e+03	3.368614e+03	2.045770e+03	0	3.668932e-04
3.000000e+07	1.693291e+12	0.000000e+00	6.633165e-01	3.197864e+13	1.128055e+15	1.345381e+14	5.267696e+03	3.294268e+03	2.000620e+03	0	3.649295e-04
4.000000e+07	1.662888e+12	0.000000e+00	6.633165e-01	3.154248e+13	1.014968e+15	1.337970e+14	5.265620e+03	3.228873e+03	1.960905e+03	0	3.627322e-04
5.000000e+07	1.631277e+12	0.000000e+00	6.633165e-01	3.108914e+13	9.209089e+14	1.330614e+14	5.263572e+03	3.170859e+03	1.925673e+03	0	3.604190e-04
6.000000e+07	1.599499e+12	0.000000e+00	6.633165e-01	3.063347e+13	8.417336e+14	1.323314e+14	5.261554e+03	3.119005e+03	1.894182e+03	0	3.580633e-04
7.000000e+07	1.568186e+12	0.000000e+00	6.633165e-01	3.018447e+13	7.743748e+14	1.316067e+14	5.259565e+03	3.072352e+03	1.865850e+03	0	3.557113e-04
8.000000e+07	1.537710e+12	0.000000e+00	6.633165e-01	2.974744e+13	7.165232e+14	1.308875e+14	5.257605e+03	3.030133e+03	1.840210e+03	0	3.533919e-04
9.000000e+07	1.508284e+12	0.000000e+00	6.633165e-01	2.932540e+13	6.664130e+14	1.301736e+14	5.255674e+03	2.991729e+03	1.816887e+03	0	3.511232e-04
1.000000e+08	1.480014e+12	0.000000e+00	6.633165e-01	2.891988e+13	6.226748e+14	1.294650e+14	5.253769e+03	2.956632e+03	1.795573e+03	0	3.489156e-04
1.100000e+08	1.452944e+12	0.000000e+00	6.633165e-01	2.853148e+13	5.842332e+14	1.287617e+14	5.251892e+03	2.924423e+03	1.776012e+03	0	3.467752e-04
1.200000e+08	1.427074e+12	0.000000e+00	6.633165e-01	2.816021e+13	5.502337e+14	1.280635e+14	5.250039e+03	2.894753e+03	1.757993e+03	0	3.447047e-04
1.300000e+08	1.402379e+12	0.000000e+00	6.633165e-01	2.780572e+13	5.199898e+14	1.273706e+14	5.248210e+03	2.867327e+03	1.741337e+03	0	3.427049e-04
1.400000e+08	1.378820e+12	0.000000e+00	6.633165e-01	2.746744e+13	4.929451e+14	1.266828e+14	5.246405e+03	2.841895e+03	1.725892e+03	0	3.407749e-04
1.500000e+08	1.356347e+12	0.000000e+00	6.633165e-01	2.714466e+13	4.686441e+14	1.260000e+14	5.244621e+03	2.818245e+03	1.711530e+03	0	3.389133e-04
1.600000e+08	1.334906e+12	0.000000e+00	6.633165e-01	2.683662e+13	4.467113e+14	1.253223e+14	5.242859e+03	2.796194e+03	1.698138e+03	0	3.371180e-04
1.700000e+08	1.314442e+12	0.000000e+00	6.633165e-01	2.654253e+13	4.268343e+14	1.246496e+14	5.241116e+03	2.775583e+03	1.685621e+03	0	3.353865e-04
1.800000e+08	1.294901e+12	0.000000e+00	6.633165e-01	2.626161e+13	4.087515e+14	1.239819e+14	5.239392e+03	2.756275e+03	1.673895e+03	0	3.337162e-04
1.900000e+08	1.276228e+12	0.000000e+00	6.633165e-01	2.599308e+13	3.922426e+14	1.233191e+14	5.237687e+03	2.738149e+03	1.662887e+03	0	3.321043e-04
2.000000e+08	1.258373e+12	0.000000e+00	6.633165e-01	2.573623e+13	3.771207e+14	1.226611e+14	5.235999e+03	2.721099e+03	1.652532e+03	0	3.305482e-04
2.100000e+08	1.241285e+12	0.000000e+00	6.633165e-01	2.549034e+13	3.632266e+14	1.220080e+14	5.234328e+03	2.705032e+03	1.642775e+03	0	3.290453e-04
2.200000e+08	1.224920e+12	0.000000e+00	6.633165e-01	2.525475e+13	3.504236e+14	1.213597e+14	5.232672e+03	2.689866e+03	1.633565e+03	0	3.275928e-04
2.300000e+08	1.209233e+12	0.000000e+00	6.633165e-01	2.502886e+13	3.385939e+14	1.207162e+14	5.231032e+03	2.675527e+03	1.624856e+03	0	3.261883e-04
2.400000e+08	1.194184e+12	0.000000e+00	6.633165e-01	2.481207e+13	3.276357e+14	1.200773e+14	5.229407e+03	2.661949e+03	1.616611e+03	0	3.248295e-04
2.500000e+08	1.179734e+12	0.000000e+00	6.633165e-01	2.460384e+13	3.174603e+14	1.194432e+14	5.227796e+03	2.649074e+03	1.608791e+03	0	3.235141e-04
2.600000e+08	1.165849e+12	0.000000e+00	6.633165e-01	2.440366e+13	3.079905e+14	1.188137e+14	5.226198e+03	2.636849e+03	1.601367e+03	0	3.222398e-04
2.700000e+08	1.152494e+12	0.000000e+00	6.633165e-01	2.421107e+13	2.991583e+14	1.181888e+14	5.224613e+03	2.625225e+03	1.594308e+03	0	3.210047e-04
2.800000e+08	1.139640e+12	0.000000e+00	6.633165e-01	2.402562e+13	2.909040e+14	1.175684e+14	5.223041e+03	2.614160e+03	1.587588e+03	0	3.198067e-04
2.900000e+08	1.127256e+12	0.000000e+00	6.633165e-01	2.384690e+13	2.831751e+14	1.169526e+14	5.221480e+03	2.603616e+03	1.581184e+03	0	3.186442e-04
3.000000e+08	1.115317e+12	0.000000e+00	6.633165e-01	2.367453e+13	2.759247e+14	1.163413e+14	5.219932e+03	2.593556e+03	1.575075e+03	0	3.175152e-04
3.100000e+08	1.103798e+12	0.000000e+00	6.633165e-01	2.350815e+13	2.691115e+14	1.157344e+14	5.218394e+03	2.583947e+03	1.569240e+03	0	3.164183e-04
3.200000e+08	1.092675e+12	0.000000e+00	6.633165e-01	2.334742e+13	2.626984e+14	1.151319e+14	5.216867e+03	2.574762e+03	1.563661e+03	0	3.153518e-04
3.300000e+08	1.081926e+12	0.000000e+00	6.633165e-01	2.319205e+13	2.566524e+14	1.145338e+14	5.215351e+03	2.565972e+03	1.558323e+03	0	3.143144e-04
3.400000e+08	1.071531e+12	0.000000e+00	6.633165e-01	2.304174e+13	2.509439e+14	1.139401e+14	5.213845e+03	2.557553e+03	1.553210e+03	0	3.133046e-04
3.500000e+08	1.061472e+12	0.000000e+00	6.633165e-01	2.289622e+13	2.455461e+14	1.133507e+14	5.212348e+03	2.549482e+03	1.548309e+03	0	3.123211e-04
3.600000e+08	1.051730e+12	0.000000e+00	6.633165e-01	2.275524e+13	2.404352e+14	1.127655e+14	5.210861e+03	2.541738e+03	1.543606e+03	0	3.113627e-04
3.700000e+08	1.042290e+12	0.000000e+00	6.633165e-01	2.261856e+13	2.355895e+14	1.121846e+14	5.209384e+03	2.534302e+03	1.539090e+03	0	3.104283e-04
3.800000e+08	1.033135e+12	0.000000e+00	6.633165e-01	2.248597e+13	2.309893e+14	1.116079e+14	5.207915e+03	2.527155e+03	1.534750e+03	0	3.095168e-04
3.900000e+08	1.024252e+12	0.000000e+00	6.633165e-01	2.235725e+13	2.266169e+14	1.110354e+14	5.206454e+03	2.520282e+03	1.530576e+03	0	3.086271e-04
4.000000e+08	1.015626e+12	0.000000e+00	6.633165e-01	2.223222e+13	2.224562e+14	1.104669e+14	5.205002e+03	2.513667e+03	1.526558e+03	0	3.077583e-04
4.100000e+08	1.007246e+12	0.000000e+00	6.633165e-01	2.211069e+13	2.184923e+14	1.099026e+14	5.203558e+03	2.507296e+03	1.522689e+03	0	3.069094e-04
4.200000e+08	9.990983e+11	0.000000e+00	6.633165e-01	2.199249e+13	2.147118e+14	1.093424e+14	5.202122e+03	2.501156e+03	1.518960e+03	0	3.060797e-04
4.300000e+08	9.911729e+11	0.000000e+00	6.633165e-01	2.187747e+13	2.111026e+14	1.087862e+14	5.200694e+03	2.495234e+03	1.515364e+03	0	3.052682e-04
4.400000e+08	9.834589e+11	0.000000e+00	6.633165e-01	2.176547e+13	2.076532e+14	1.082340e+14	5.199273e+03	2.489519e+03	1.511893e+03	0	3.044742e-04
4.500000e+08	9.759466e+11	0.000000e+00	6.633165e-01	2.165635e+13	2.043535e+14	1.076857e+14	5.197859e+03	2.484000e+03	1.508541e+03	0	3.036970e-04
4.600000e+08	9.686265e+11	0.000000e+00	6.633165e-01	2.154999e+13	2.011939e+14	1.071414e+14	5.196453e+03	2.478667e+03	1.505303e+03	0	3.029358e-04
4.700000e+08	9.614900e+11	0.000000e+00	6.633165e-01	2.144624e+13	1.981658e+14	1.066010e+14	5.195053e+03	2.473511e+03	1.502172e+03	0	3.021900e-04
4.800000e+08	9.545289e+11	0.000000e+00	6.633165e-01	2.134501e+13	1.952610e+14	1.060645e+14	5.193660e+03	2.468524e+03	1.499143e+03	0	3.014589e-04
4.900000e+08	9.477353e+11	0.000000e+00	6.633165e-01	2.124617e+13	1.924722e+14	1.055318e+14	5.192274e+03	2.463696e+03	1.496211e+03	0	3.007420e-04
5.000000e+08	9.411018e+11	0.000000e+00	6.633165e-01	2.114962e+13	1.897925e+14	1.050030e+14	5.190894e+03	2.459021e+03	1.493371e+03	0	3.000387e-04
5.100000e+08	9.346217e+11	0.000000e+00	6.633165e-01	2.105527e+13	1.872156e+14	1.044779e+14	5.189520e+03	2.454490e+03	1.490620e+03	0	2.993485e-04
5.200000e+08	9.282882e+11	0.000000e+00	6.633165e-01	2.096301e+13	1.847356e+14	1.039565e+14	5.188153e+03	2.450098e+03	1.487953e+03	0	2.986708e-04
5.300000e+08	9.220953e+11	0.000000e+00	6.633165e-01	2.087277e+13	1.823470e+14	1.034389e+14	5.186791e+03	2.445838e+03	1.485365e+03	0	2.980051e-04
5.400000e+08	9.160371e+11	0.000000e+00	6.633165e-01	2.078445e+13	1.800448e+14	1.029249e+14	5.185435e+03	2.441703e+03	1.482855e+03	0	2.973510e-04
5.500000e+08	9.101080e+11	0.000000e+00	6.633165e-01	2.069798e+13	1.778243e+14	1.024146e+14	5.184085e+03	2.437689e+03	1.480417e+03	0	2.967081e-04
5.600000e+08	9.043027e+11	0.000000e+00	6.633165e-01	2.061328e+13	1.756811e+14	1.019080e+14	5.182741e+03	2.433790e+03	1.478048e+03	0	2.960759e-04
5.700000e+08	8.986164e+11	0.000000e+00	6.633165e-01	2.053028e+13	1.736110e+14	1.014049e+14	5.181402e+03	2.430000e+03	1.475747e+03	0	2.954540e-04
5.800000e+08	8.930443e+11	0.000000e+00	6.633165e-01	2.044892e+13	1.716103e+14	1.009054e+14	5.180069e+03	2.426315e+03	1.473509e+03	0	2.948421e-04
5.900000e+08	8.875818e+11	0.000000e+00	6.633165e-01	2.036913e+13	1.696754e+14	1.004095e+14	5.178741e+03	2.422731e+03	1.471332e+03	0	2.942397e-04
6.000000e+08	8.822248e+11	0.000000e+00	6.633165e-01	2.029085e+13	1.678030e+14	9.991703e+13	5.177418e+03	2.419243e+03	1.469214e+03	0	2.936465e-04
6.100000e+08	8.769692e+11	0.000000e+00	6.633165e-01	2.021402e+13	1.659900e+14	9.942807e+13	5.176100e+03	2.415847e+03	1.467152e+03	0	2.930623e-04
6.200000e+08	8.718112e+11	0.000000e+00	6.633165e-01	2.013859e+13	1.642334e+14	9.894257e+13	5.174787e+03	2.412539e+03	1.465143e+03	0	2.924866e-04
6.300000e+08	8.667471e+11	0.000000e+00	6.633165e-01	2.006451e+13	1.625305e+14	9.846049e+13	5.173479e+03	2.409316e+03	1.463186e+03	0	2.919191e-04
6.400000e+08	8.617734e+11	0.000000e+00	6.633165e-01	1.999171e+13	1.608787e+14	9.798181e+13	5.172175e+03	2.406175e+03	1.461278e+03	0	2.913597e-04
6.500000e+08	8.568869e+11	0.000000e+00	6.633165e-01	1.992017e+13	1.592756e+14	9.750651e+13	5.170877e+03	2.403111e+03	1.459417e+03	0	2.908079e-04
6.600000e+08	8.520843e+11	0.000000e+00	6.633165e-01	1.984983e+13	1.577190e+14	9.703455e+13	5.169583e+03	2.400122e+03	1.457602e+03	0	2.902636e-04
6.700000e+08	8.473628e+11	0.000000e+00	6.633165e-01	1.978065e+13	1.562067e+14	9.656591e+13	5.168294e+03	2.397205e+03	1.455831e+03	0	2.897265e-04
6.800000e+08	8.427193e+11	0.000000e+00	6.633165e-01	1.971259e+13	1.547367e+14	9.610055e+13	5.167009e+03	2.394357e+03	1.454101e+03	0	2.891963e-04
6.900000e+08	8.381513e+11	0.000000e+00	6.633165e-01	1.964561e+13	1.533071e+14	9.563847e+13	5.165729e+03	2.391576e+03	1.452412e+03	0	2.886728e-04
7.000000e+08	8.336560e+11	0.000000e+00	6.633165e-01	1.957968e+13	1.519162e+14	9.517962e+13	5.164453e+03	2.388858e+03	1.450762e+03	0	2.881558e-04
7.100000e+08	8.292310e+11	0.000000e+00	6.633165e-01	1.951475e+13	1.505621e+14	9.472399e+13	5.163181e+03	2.386202e+03	1.449148e+03	0	2.876451e-04
7.200000e+08	8.248740e+11	0.000000e+00	6.633165e-01	1.945080e+13	1.492434e+14	9.427154e+13	5.161913e+03	2.383605e+03	1.447571e+03	0	2.871404e-04
7.300000e+08	8.205826e+11	0.000000e+00	6.633165e-01	1.938778e+13	1.479586e+14	9.382225e+13	5.160650e+03	2.381065e+03	1.446029e+03	0	2.866416e-04
7.400000e+08	8.163547e+11	0.000000e+00	6.633165e-01	1.932568e+13	1.467062e+14	9.337610e+13	5.159391e+03	2.378580e+03	1.444519e+03	0	2.861485e-04
7.500000e+08	8.121883e+11	0.000000e+00	6.633165e-01	1.926446e+13	1.454848e+14	9.293306e+13	5.158135e+03	2.376147e+03	1.443042e+03	0	2.856608e-04
7.600000e+08	8.080812e+11	0.000000e+00	6.633165e-01	1.920409e+13	1.442932e+14	9.249311e+13	5.156884e+03	2.373766e+03	1.441596e+03	0	2.851785e-04
7.700000e+08	8.040318e+11	0.000000e+00	6.633165e-01	1.914455e+13	1.431303e+14	9.205622e+13	5.155637e+03	2.371434e+03	1.440179e+03	0	2.847013e-04
7.800000e+08	8.000380e+11	0.000000e+00	6.633165e-01	1.908581e+13	1.419947e+14	9.162236e+13	5.154393e+03	2.369149e+03	1.438792e+03	0	2.842292e-04
7.900000e+08	7.960983e+11	0.000000e+00	6.633165e-01	1.902784e+13	1.408856e+14	9.119152e+13	5.153153e+03	2.366909e+03	1.437432e+03	0	2.837618e-04
8.000000e+08	7.922108e+11	0.000000e+00	6.633165e-01	1.897062e+13	1.398017e+14	9.076366e+13	5.151917e+03	2.364714e+03	1.436099e+03	0	2.832992e-04
8.100000e+08	7.883741e+11	0.000000e+00	6.633165e-01	1.891413e+13	1.387422e+14	9.033877e+13	5.150685e+03	2.362561e+03	1.434791e+03	0	2.828411e-04
8.200000e+08	7.845867e+11	0.000000e+00	6.633165e-01	1.885835e+13	1.377062e+14	8.991682e+13	5.149457e+03	2.360449e+03	1.433509e+03	0	2.823875e-04
8.300000e+08	7.808469e+11	0.000000e+00	6.633165e-01	1.880325e+13	1.366927e+14	8.949779e+13	5.148232e+03	2.358377e+03	1.432250e+03	0	2.819381e-04
8.400000e+08	7.771535e+11	0.000000e+00	6.633165e-01	1.874882e+13	1.357008e+14	8.908165e+13	5.147010e+03	2.356344e+03	1.431015e+03	0	2.814928e-04
8.500000e+08	7.735050e+11	0.000000e+00	6.633165e-01	1.869503e+13	1.347299e+14	8.866839e+13	5.145793e+03	2.354347e+03	1.429803e+03	0	2.810516e-04
8.600000e+08	7.699002e+11	0.000000e+00	6.633165e-01	1.864187e+13	1.337791e+14	8.825797e+13	5.144578e+03	2.352386e+03	1.428612e+03	0	2.806144e-04
8.700000e+08	7.663378e+11	0.000000e+00	6.633165e-01	1.858932e+13	1.328478e+14	8.785038e+13	5.143367e+03	2.350460e+03	1.427442e+03	0	2.801809e-04
8.800000e+08	7.628167e+11	0.000000e+00	6.633165e-01	1.853736e+13	1.319351e+14	8.744559e+13	5.142160e+03	2.348568e+03	1.426293e+03	0	2.797511e-04
8.900000e+08	7.593357e+11	0.000000e+00	6.633165e-01	1.848598e+13	1.310405e+14	8.704358e+13	5.140956e+03	2.346708e+03	1.425163e+03	0	2.793249e-04
9.000000e+08	7.558937e+11	0.000000e+00	6.633165e-01	1.843516e+13	1.301634e+14	8.664433e+13	5.139755e+03	2.344879e+03	1.424053e+03	0	2.789022e-04
9.100000e+08	7.524895e+11	0.000000e+00	6.633165e-01	1.838488e+13	1.293030e+14	8.624782e+13	5.138557e+03	2.343081e+03	1.422961e+03	0	2.784829e-04
9.200000e+08	7.491223e+11	0.000000e+00	6.633165e-01	1.833514e+13	1.284590e+14	8.585402e+13	5.137363e+03	2.341312e+03	1.421886e+03	0	2.780669e-04
9.300000e+08	7.457910e+11	0.000000e+00	6.633165e-01	1.828591e+13	1.276306e+14	8.546292e+13	5.136172e+03	2.339571e+03	1.420829e+03	0	2.776541e-04
9.400000e+08	7.424947e+11	0.000000e+00	6.633165e-01	1.823718e+13	1.268175e+14	8.507449e+13	5.134985e+03	2.337858e+03	1.419789e+03	0	2.772445e-04
9.500000e+08	7.392324e+11	0.000000e+00	6.633165e-01	1.818895e+13	1.260190e+14	8.468871e+13	5.133800e+03	2.336172e+03	1.418765e+03	0	2.768378e-04
9.600000e+08	7.360033e+11	0.000000e+00	6.633165e-01	1.814119e+13	1.252347e+14	8.430556e+13	5.132618e+03	2.334512e+03	1.417757e+03	0	2.764341e-04
9.700000e+08	7.328065e+11	0.000000e+00	6.633165e-01	1.809389e+13	1.244642e+14	8.392503e+13	5.131440e+03	2.332877e+03	1.416764e+03	0	2.760333e-04
9.800000e+08	7.296413e+11	0.000000e+00	6.633165e-01	1.804705e+13	1.237070e+14	8.354708e+13	5.130265e+03	2.331267e+03	1.415786e+03	0	2.756353e-04
9.900000e+08	7.265068e+11	0.000000e+00	6.633165e-01	1.800066e+13	1.229628e+14	8.317170e+13	5.129092e+03	2.329680e+03	1.414822e+03	0	2.752401e-04
1.000000e+09	7.234023e+11	0.000000e+00	6.633165e-01	1.795469e+13	1.222310e+14	8.279887e+13	5.127923e+03	2.328116e+03	1.413873e+03	0	2.748475e-04
1.010000e+09	7.203271e+11	0.000000e+00	6.633165e-01	1.790915e+13	1.215113e+14	8.242856e+13	5.126757e+03	2.326575e+03	1.412936e+03	0	2.744574e-04
1.020000e+09	7.172804e+11	0.000000e+00	6.633165e-01	1.786401e+13	1.208033e+14	8.206077e+13	5.125594e+03	2.325055e+03	1.412013e+03	0	2.740700e-04
1.030000e+09	7.142616e+11	0.000000e+00	6.633165e-01	1.781928e+13	1.201068e+14	8.169546e+13	5.124433e+03	2.323556e+03	1.411103e+03	0	2.736849e-04
1.040000e+09	7.112701e+11	0.000000e+00	6.633165e-01	1.777494e+13	1.194212e+14	8.133262e+13	5.123276e+03	2.322077e+03	1.410205e+03	0	2.733023e-04
1.050000e+09	7.083051e+11	0.000000e+00	6.633165e-01	1.773098e+13	1.187464e+14	8.097224e+13	5.122121e+03	2.320619e+03	1.409319e+03	0	2.729220e-04
1.060000e+09	7.053661e+11	0.000000e+00	6.633165e-01	1.768740e+13	1.180821e+14	8.061428e+13	5.120969e+03	2.319179e+03	1.408445e+03	0	2.725440e-04
1.070000e+09	7.024525e+11	0.000000e+00	6.633165e-01	1.764419e+13	1.174278e+14	8.025874e+13	5.119820e+03	2.317759e+03	1.407583e+03	0	2.721682e-04
1.080000e+09	6.995637e+11	0.000000e+00	6.633165e-01	1.760133e+13	1.167833e+14	7.990558e+13	5.118674e+03	2.316356e+03	1.406731e+03	0	2.717946e-04
1.090000e+09	6.966992e+11	0.000000e+00	6.633165e-01	1.755882e+13	1.161484e+14	7.955481e+13	5.117531e+03	2.314972e+03	1.405890e+03	0	2.714231e-04
1.100000e+09	6.938585e+11	0.000000e+00	6.633165e-01	1.751665e+13	1.155228e+14	7.920638e+13	5.116390e+03	2.313604e+03	1.405060e+03	0	2.710537e-04
1.110000e+09	6.910410e+11	0.000000e+00	6.633165e-01	1.747482e+13	1.149062e+14	7.886030e+13	5.115253e+03	2.312254e+03	1.404239e+03	0	2.706864e-04
1.120000e+09	6.882462e+11	0.000000e+00	6.633165e-01	1.743332e+13	1.142983e+14	7.851653e+13	5.114117e+03	2.310919e+03	1.403429e+03	0	2.703209e-04
1.130000e+09	6.854737e+11	0.000000e+00	6.633165e-01	1.739214e+13	1.136990e+14	7.817506e+13	5.112985e+03	2.309601e+03	1.402628e+03	0	2.699575e-04
1.140000e+09	6.827229e+11	0.000000e+00	6.633165e-01	1.735127e+13	1.131080e+14	7.783588e+13	5.111855e+03	2.308298e+03	1.401837e+03	0	2.695959e-04
1.150000e+09	6.799936e+11	0.000000e+00	6.633165e-01	1.731071e+13	1.125251e+14	7.749896e+13	5.110728e+03	2.307010e+03	1.401055e+03	0	2.692361e-04
1.160000e+09	6.772851e+11	0.000000e+00	6.633165e-01	1.727045e+13	1.119500e+14	7.716429e+13	5.109604e+03	2.305736e+03	1.400281e+03	0	2.688782e-04
1.170000e+09	6.745971e+11	0.000000e+00	6.633165e-01	1.723049e+13	1.113827e+14	7.683184e+13	5.108482e+03	2.304477e+03	1.399517e+03	0	2.685220e-04
1.180000e+09	6.719292e+11	0.000000e+00	6.633165e-01	1.719082e+13	1.108228e+14	7.650161e+13	5.107363e+03	2.303232e+03	1.398761e+03	0	2.681676e-04
1.190000e+09	6.692810e+11	0.000000e+00	6.633165e-01	1.715143e+13	1.102702e+14	7.617358e+13	5.106246e+03	2.302001e+03	1.398013e+03	0	2.678148e-04
1.200000e+09	6.666521e+11	0.000000e+00	6.633165e-01	1.711232e+13	1.097247e+14	7.584772e+13	5.105132e+03	2.300782e+03	1.397273e+03	0	2.674637e-04
1.210000e+09	3.418931e+12	2.356160e-02	6.633165e-01	1.707348e+13	1.091861e+14	7.552402e+13	5.104020e+03	2.299577e+03	1.396541e+03	0	4.557213e-04
1.220000e+09	3.231089e+12	3.209876e-02	6.633165e-01	1.703980e+13	1.086562e+14	7.520247e+13	5.103137e+03	2.298384e+03	1.395816e+03	1	4.452295e-04
1.230000e+09	4.178537e+12	3.923277e-02	6.633165e-01	1.700603e+13	1.081328e+14	7.488304e+13	5.102241e+03	2.297204e+03	1.395099e+03	1	4.832559e-04
1.240000e+09	4.417993e+12	4.445461e-02	6.633165e-01	1.697418e+13	1.076166e+14	7.456573e+13	5.101424e+03	2.296035e+03	1.394390e+03	1	4.909546e-04
1.250000e+09	4.346283e+12	4.877607e-02	6.633165e-01	1.694298e+13	1.071068e+14	7.425051e+13	5.100630e+03	2.294879e+03	1.393688e+03	1	4.871603e-04
1.260000e+09	4.218924e+12	5.243307e-02	6.633165e-01	1.691188e+13	1.066033e+14	7.393737e+13	5.099832e+03	2.293734e+03	1.392993e+03	1	4.814114e-04
1.270000e+09	4.172912e+12	5.642925e-02	6.633165e-01	1.688078e+13	1.061057e+14	7.362629e+13	5.099025e+03	2.292601e+03	1.392304e+03	1	4.786261e-04
1.280000e+09	4.982640e+12	5.993644e-02	6.633165e-01	1.684981e+13	1.056140e+14	7.331726e+13	5.098217e+03	2.291479e+03	1.391623e+03	1	5.068139e-04
1.290000e+09	4.647697e+12	6.279866e-02	6.633165e-01	1.682049e+13	1.051286e+14	7.301026e+13	5.097478e+03	2.290368e+03	1.390948e+03	1	4.944271e-04
1.300000e+09	4.442623e+12	6.583125e-02	6.633165e-01	1.679077e+13	1.046486e+14	7.270528e+13	5.096713e+03	2.289267e+03	1.390279e+03	1	4.862452e-04
1.310000e+09	4.962130e+12	6.852717e-02	6.633165e-01	1.676091e+13	1.041741e+14	7.240229e+13	5.095934e+03	2.288177e+03	1.389617e+03	1	5.037654e-04
1.410000e+09	5.885540e+12	9.031118e-02	6.633165e-01	1.673215e+13	1.026747e+14	6.947907e+13	5.095199e+03	2.287097e+03	1.388961e+03	1	5.269131e-04
1.510000e+09	5.663450e+12	1.059580e-01	6.633165e-01	1.645788e+13	9.804750e+13	6.673964e+13	5.088652e+03	2.275857e+03	1.382136e+03	1	5.156892e-04
1.610000e+09	6.135092e+12	1.187149e-01	6.633165e-01	1.619886e+13	9.393152e+13	6.417046e+13	5.082110e+03	2.265657e+03	1.375941e+03	1	5.258442e-04
1.710000e+09	6.373031e+12	1.297607e-01	6.633165e-01	1.596393e+13	9.023237e+13	6.175907e+13	5.076132e+03	2.256295e+03	1.370255e+03	1	5.292424e-04
1.810000e+09	6.414141e+12	1.393169e-01	6.633165e-01	1.574653e+13	8.687644e+13	5.949401e+13	5.070513e+03	2.247622e+03	1.364988e+03	1	5.275077e-04
