#t		Qconv[W]	Ri[Rp]		R*[Rp]		Qc[W]		Qm[W]		Qr[W]		Tcmb[K]		Tl[K]		Tup[K]		RiFlag		Bs[T]
0.000000e+00	2.310511e+12	0.000000e+00	6.633165e-01	4.149429e+13	1.838611e+15	1.544991e+14	5.625478e+03	3.724900e+03	2.190405e+03	0	4.016542e-04
1.000000e+07	2.288206e+12	0.000000e+00	6.633165e-01	4.119518e+13	1.608973e+15	1.536431e+14	5.623182e+03	3.626130e+03	2.132324e+03	0	4.003575e-04
2.000000e+07	2.255024e+12	0.000000e+00	6.633165e-01	4.075245e+13	1.425078e+15	1.527934e+14	5.620903e+03	3.540600e+03	2.082028e+03	0	3.984129e-04
3.000000e+07	2.215982e+12	0.000000e+00	6.633165e-01	4.023235e+13	1.275366e+15	1.519501e+14	5.618648e+03	3.465740e+03	2.038007e+03	0	3.961002e-04
4.000000e+07	2.174119e+12	0.000000e+00	6.633165e-01	3.967504e+13	1.151710e+15	1.511131e+14	5.616422e+03	3.399614e+03	1.999122e+03	0	3.935900e-04
5.000000e+07	2.131289e+12	0.000000e+00	6.633165e-01	3.910503e+13	1.048265e+15	1.502824e+14	5.614227e+03	3.340731e+03	1.964496e+03	0	3.909883e-04
6.000000e+07	2.088625e+12	0.000000e+00	6.633165e-01	3.853727e+13	9.607444e+14	1.494578e+14	5.612063e+03	3.287927e+03	1.933446e+03	0	3.883617e-04
7.000000e+07	2.046808e+12	0.000000e+00	6.633165e-01	3.798076e+13	8.859498e+14	1.486394e+14	5.609930e+03	3.240281e+03	1.905427e+03	0	3.857524e-04
8.000000e+07	2.006239e+12	0.000000e+00	6.633165e-01	3.744079e+13	8.214535e+14	1.478271e+14	5.607829e+03	3.197051e+03	1.880006e+03	0	3.831867e-04
9.000000e+07	1.967137e+12	0.000000e+00	6.633165e-01	3.692027e+13	7.653865e+14	1.470208e+14	5.605757e+03	3.157633e+03	1.856826e+03	0	3.806810e-04
1.000000e+08	1.929609e+12	0.000000e+00	6.633165e-01	3.642058e+13	7.162903e+14	1.462205e+14	5.603714e+03	3.121532e+03	1.835597e+03	0	3.782446e-04
1.100000e+08	1.893686e+12	0.000000e+00	6.633165e-01	3.594216e+13	6.730129e+14	1.454261e+14	5.601698e+03	3.088336e+03	1.816077e+03	0	3.758827e-04
1.200000e+08	1.859357e+12	0.000000e+00	6.633165e-01	3.548484e+13	6.346343e+14	1.446377e+14	5.599709e+03	3.057701e+03	1.798062e+03	0	3.735975e-04
1.300000e+08	1.826580e+12	0.000000e+00	6.633165e-01	3.504806e+13	6.004122e+14	1.438550e+14	5.597745e+03	3.029336e+03	1.781383e+03	0	3.713891e-04
1.400000e+08	1.795297e+12	0.000000e+00	6.633165e-01	3.463106e+13	5.697419e+14	1.430782e+14	5.595806e+03	3.002994e+03	1.765892e+03	0	3.692567e-04
1.500000e+08	1.765440e+12	0.000000e+00	6.633165e-01	3.423295e+13	5.421268e+14	1.423071e+14	5.593889e+03	2.978461e+03	1.751466e+03	0	3.671982e-04
1.600000e+08	1.736936e+12	0.000000e+00	6.633165e-01	3.385275e+13	5.171558e+14	1.415417e+14	5.591994e+03	2.955556e+03	1.737996e+03	0	3.652113e-04
1.700000e+08	1.709713e+12	0.000000e+00	6.633165e-01	3.348952e+13	4.944860e+14	1.407819e+14	5.590121e+03	2.934119e+03	1.725391e+03	0	3.632933e-04
1.800000e+08	1.683699e+12	0.000000e+00	6.633165e-01	3.314228e+13	4.738291e+14	1.400278e+14	5.588267e+03	2.914014e+03	1.713568e+03	0	3.614413e-04
1.900000e+08	1.658822e+12	0.000000e+00	6.633165e-01	3.281012e+13	4.549419e+14	1.392792e+14	5.586433e+03	2.895118e+03	1.702456e+03	0	3.596523e-04
2.000000e+08	1.635017e+12	0.000000e+00	6.633165e-01	3.249214e+13	4.376174e+14	1.385361e+14	5.584617e+03	2.877325e+03	1.691993e+03	0	3.579236e-04
2.100000e+08	1.612219e+12	0.000000e+00	6.633165e-01	3.218750e+13	4.216787e+14	1.377984e+14	5.582819e+03	2.860541e+03	1.682123e+03	0	3.562522e-04
2.200000e+08	1.590368e+12	0.000000e+00	6.633165e-01	3.189540e+13	4.069736e+14	1.370662e+14	5.581037e+03	2.844682e+03	1.672798e+03	0	3.546355e-04
2.300000e+08	1.569408e+12	0.000000e+00	6.633165e-01	3.161509e+13	3.933710e+14	1.363394e+14	5.579272e+03	2.829674e+03	1.663972e+03	0	3.530706e-04
2.400000e+08	1.549285e+12	0.000000e+00	6.633165e-01	3.134588e+13	3.807568e+14	1.356179e+14	5.577522e+03	2.815450e+03	1.655608e+03	0	3.515551e-04
2.500000e+08	1.529950e+12	0.000000e+00	6.633165e-01	3.108711e+13	3.690321e+14	1.349017e+14	5.575787e+03	2.801951e+03	1.647670e+03	0	3.500865e-04
2.600000e+08	1.511358e+12	0.000000e+00	6.633165e-01	3.083817e+13	3.581098e+14	1.341907e+14	5.574067e+03	2.789123e+03	1.640127e+03	0	3.486626e-04
2.700000e+08	1.493464e+12	0.000000e+00	6.633165e-01	3.059848e+13	3.479138e+14	1.334849e+14	5.572360e+03	2.776917e+03	1.632949e+03	0	3.472811e-04
2.800000e+08	1.476228e+12	0.000000e+00	6.633165e-01	3.036752e+13	3.383770e+14	1.327843e+14	5.570666e+03	2.765289e+03	1.626111e+03	0	3.459400e-04
2.900000e+08	1.459614e+12	0.000000e+00	6.633165e-01	3.014479e+13	3.294399e+14	1.320887e+14	5.568985e+03	2.754199e+03	1.619590e+03	0	3.446373e-04
3.000000e+08	1.443587e+12	0.000000e+00	6.633165e-01	2.992983e+13	3.210500e+14	1.313983e+14	5.567317e+03	2.743612e+03	1.613364e+03	0	3.433712e-04
3.100000e+08	1.428113e+12	0.000000e+00	6.633165e-01	2.972221e+13	3.131601e+14	1.307129e+14	5.565660e+03	2.733493e+03	1.607414e+03	0	3.421399e-04
3.200000e+08	1.413162e+12	0.000000e+00	6.633165e-01	2.952152e+13	3.057287e+14	1.300324e+14	5.564015e+03	2.723813e+03	1.601722e+03	0	3.409418e-04
3.300000e+08	1.398707e+12	0.000000e+00	6.633165e-01	2.932739e+13	2.987180e+14	1.293570e+14	5.562381e+03	2.714544e+03	1.596271e+03	0	3.397753e-04
3.400000e+08	1.384720e+12	0.000000e+00	6.633165e-01	2.913948e+13	2.920947e+14	1.286864e+14	5.560758e+03	2.705661e+03	1.591047e+03	0	3.386390e-04
3.500000e+08	1.371177e+12	0.000000e+00	6.633165e-01	2.895745e+13	2.858283e+14	1.280207e+14	5.559145e+03	2.697140e+03	1.586037e+03	0	3.375314e-04
3.600000e+08	1.358055e+12	0.000000e+00	6.633165e-01	2.878100e+13	2.798916e+14	1.273598e+14	5.557542e+03	2.688960e+03	1.581226e+03	0	3.364512e-04
3.700000e+08	1.345333e+12	0.000000e+00	6.633165e-01	2.860985e+13	2.742601e+14	1.267037e+14	5.555949e+03	2.681100e+03	1.576604e+03	0	3.353973e-04
3.800000e+08	1.332990e+12	0.000000e+00	6.633165e-01	2.844372e+13	2.689112e+14	1.260523e+14	5.554365e+03	2.673542e+03	1.572160e+03	0	3.343684e-04
3.900000e+08	1.321007e+12	0.000000e+00	6.633165e-01	2.828237e+13	2.638249e+14	1.254057e+14	5.552791e+03	2.666270e+03	1.567884e+03	0	3.333634e-04
4.000000e+08	1.309366e+12	0.000000e+00	6.633165e-01	2.812556e+13	2.589825e+14	1.247637e+14	5.551225e+03	2.659268e+03	1.563766e+03	0	3.323814e-04
4.100000e+08	1.298052e+12	0.000000e+00	6.633165e-01	2.797307e+13	2.543673e+14	1.241264e+14	5.549668e+03	2.652520e+03	1.559798e+03	0	3.314212e-04
4.200000e+08	1.287047e+12	0.000000e+00	6.633165e-01	2.782469e+13	2.499639e+14	1.234936e+14	5.548120e+03	2.646014e+03	1.555972e+03	0	3.304820e-04
4.300000e+08	1.276338e+12	0.000000e+00	6.633165e-01	2.768024e+13	2.457583e+14	1.228654e+14	5.546580e+03	2.639736e+03	1.552280e+03	0	3.295628e-04
4.400000e+08	1.265911e+12	0.000000e+00	6.633165e-01	2.753952e+13	2.417377e+14	1.222418e+14	5.545047e+03	2.633674e+03	1.548716e+03	0	3.286629e-04
4.500000e+08	1.255753e+12	0.000000e+00	6.633165e-01	2.740236e+13	2.378901e+14	1.216226e+14	5.543523e+03	2.627819e+03	1.545273e+03	0	3.277814e-04
4.600000e+08	1.245851e+12	0.000000e+00	6.633165e-01	2.726861e+13	2.342047e+14	1.210078e+14	5.542006e+03	2.622158e+03	1.541944e+03	0	3.269176e-04
4.700000e+08	1.236194e+12	0.000000e+00	6.633165e-01	2.713811e+13	2.306715e+14	1.203975e+14	5.540497e+03	2.616683e+03	1.538724e+03	0	3.260708e-04
4.800000e+08	1.226772e+12	0.000000e+00	6.633165e-01	2.701072e+13	2.272813e+14	1.197915e+14	5.538994e+03	2.611385e+03	1.535609e+03	0	3.252402e-04
4.900000e+08	1.217573e+12	0.000000e+00	6.633165e-01	2.688630e+13	2.240256e+14	1.191899e+14	5.537499e+03	2.606254e+03	1.532592e+03	0	3.244252e-04
5.000000e+08	1.208588e+12	0.000000e+00	6.633165e-01	2.676472e+13	2.208965e+14	1.185926e+14	5.536011e+03	2.601284e+03	1.529669e+03	0	3.236253e-04
5.100000e+08	1.199809e+12	0.000000e+00	6.633165e-01	2.664587e+13	2.178866e+14	1.179995e+14	5.534529e+03	2.596466e+03	1.526836e+03	0	3.228397e-04
5.200000e+08	1.191226e+12	0.000000e+00	6.633165e-01	2.652962e+13	2.149893e+14	1.174107e+14	5.533054e+03	2.591793e+03	1.524088e+03	0	3.220680e-04
5.300000e+08	1.182831e+12	0.000000e+00	6.633165e-01	2.641587e+13	2.121982e+14	1.168261e+14	5.531586e+03	2.587259e+03	1.521422e+03	0	3.213097e-04
5.400000e+08	1.174617e+12	0.000000e+00	6.633165e-01	2.630452e+13	2.095075e+14	1.162456e+14	5.530124e+03	2.582858e+03	1.518834e+03	0	3.205642e-04
5.500000e+08	1.166576e+12	0.000000e+00	6.633165e-01	2.619546e+13	2.069118e+14	1.156693e+14	5.528667e+03	2.578583e+03	1.516320e+03	0	3.198310e-04
5.600000e+08	1.158701e+12	0.000000e+00	6.633165e-01	2.608862e+13	2.044060e+14	1.150970e+14	5.527217e+03	2.574429e+03	1.513877e+03	0	3.191097e-04
5.700000e+08	1.150986e+12	0.000000e+00	6.633165e-01	2.598389e+13	2.019853e+14	1.145289e+14	5.525773e+03	2.570391e+03	1.511503e+03	0	3.183999e-04
5.800000e+08	1.143424e+12	0.000000e+00	6.633165e-01	2.588120e+13	1.996455e+14	1.139647e+14	5.524335e+03	2.566464e+03	1.509194e+03	0	3.177011e-04
5.900000e+08	1.136009e+12	0.000000e+00	6.633165e-01	2.578047e+13	1.973823e+14	1.134046e+14	5.522902e+03	2.562643e+03	1.506947e+03	0	3.170129e-04
6.000000e+08	1.128737e+12	0.000000e+00	6.633165e-01	2.568162e+13	1.951919e+14	1.128484e+14	5.521475e+03	2.558924e+03	1.504759e+03	0	3.163349e-04
6.100000e+08	1.121600e+12	0.000000e+00	6.633165e-01	2.558459e+13	1.930707e+14	1.122962e+14	5.520053e+03	2.555302e+03	1.502629e+03	0	3.156669e-04
6.200000e+08	1.114596e+12	0.000000e+00	6.633165e-01	2.548930e+13	1.910154e+14	1.117478e+14	5.518637e+03	2.551773e+03	1.500554e+03	0	3.150083e-04
6.300000e+08	1.107717e+12	0.000000e+00	6.633165e-01	2.539569e+13	1.890227e+14	1.112034e+14	5.517226e+03	2.548334e+03	1.498532e+03	0	3.143590e-04
6.400000e+08	1.100961e+12	0.000000e+00	6.633165e-01	2.530370e+13	1.870897e+14	1.106627e+14	5.515820e+03	2.544981e+03	1.496560e+03	0	3.137186e-04
6.500000e+08	1.094322e+12	0.000000e+00	6.633165e-01	2.521328e+13	1.852135e+14	1.101259e+14	5.514419e+03	2.541710e+03	1.494637e+03	0	3.130867e-04
6.600000e+08	1.087796e+12	0.000000e+00	6.633165e-01	2.512436e+13	1.833916e+14	1.095929e+14	5.513024e+03	2.538519e+03	1.492761e+03	0	3.124631e-04
6.700000e+08	1.081379e+12	0.000000e+00	6.633165e-01	2.503689e+13	1.816215e+14	1.090636e+14	5.511633e+03	2.535404e+03	1.490929e+03	0	3.118475e-04
6.800000e+08	1.075068e+12	0.000000e+00	6.633165e-01	2.495082e+13	1.799009e+14	1.085380e+14	5.510247e+03	2.532363e+03	1.489140e+03	0	3.112397e-04
6.900000e+08	1.068859e+12	0.000000e+00	6.633165e-01	2.486611e+13	1.782274e+14	1.080161e+14	5.508866e+03	2.529391e+03	1.487393e+03	0	3.106393e-04
7.000000e+08	1.062748e+12	0.000000e+00	6.633165e-01	2.478271e+13	1.765992e+14	1.074979e+14	5.507489e+03	2.526488e+03	1.485686e+03	0	3.100462e-04
7.100000e+08	1.056732e+12	0.000000e+00	6.633165e-01	2.470057e+13	1.750141e+14	1.069833e+14	5.506117e+03	2.523650e+03	1.484017e+03	0	3.094600e-04
7.200000e+08	1.050808e+12	0.000000e+00	6.633165e-01	2.461965e+13	1.734705e+14	1.064723e+14	5.504750e+03	2.520874e+03	1.482385e+03	0	3.088807e-04
7.300000e+08	1.044973e+12	0.000000e+00	6.633165e-01	2.453992e+13	1.719664e+14	1.059648e+14	5.503387e+03	2.518160e+03	1.480788e+03	0	3.083079e-04
7.400000e+08	1.039224e+12	0.000000e+00	6.633165e-01	2.446133e+13	1.705003e+14	1.054610e+14	5.502028e+03	2.515503e+03	1.479226e+03	0	3.077414e-04
7.500000e+08	1.033557e+12	0.000000e+00	6.633165e-01	2.438384e+13	1.690706e+14	1.049606e+14	5.500674e+03	2.512903e+03	1.477697e+03	0	3.071811e-04
7.600000e+08	1.027972e+12	0.000000e+00	6.633165e-01	2.430743e+13	1.676758e+14	1.044637e+14	5.499324e+03	2.510357e+03	1.476200e+03	0	3.066267e-04
7.700000e+08	1.022464e+12	0.000000e+00	6.633165e-01	2.423206e+13	1.663145e+14	1.039702e+14	5.497979e+03	2.507863e+03	1.474733e+03	0	3.060782e-04
7.800000e+08	1.017032e+12	0.000000e+00	6.633165e-01	2.415769e+13	1.649854e+14	1.034802e+14	5.496637e+03	2.505419e+03	1.473296e+03	0	3.055352e-04
7.900000e+08	1.011674e+12	0.000000e+00	6.633165e-01	2.408430e+13	1.636872e+14	1.029936e+14	5.495300e+03	2.503025e+03	1.471888e+03	0	3.049976e-04
8.000000e+08	1.006386e+12	0.000000e+00	6.633165e-01	2.401185e+13	1.624187e+14	1.025104e+14	5.493967e+03	2.500677e+03	1.470508e+03	0	3.044653e-04
8.100000e+08	1.001167e+12	0.000000e+00	6.633165e-01	2.394032e+13	1.611788e+14	1.020305e+14	5.492637e+03	2.498375e+03	1.469154e+03	0	3.039381e-04
8.200000e+08	9.960146e+11	0.000000e+00	6.633165e-01	2.386969e+13	1.599664e+14	1.015540e+14	5.491312e+03	2.496116e+03	1.467826e+03	0	3.034158e-04
8.300000e+08	9.909273e+11	0.000000e+00	6.633165e-01	2.379991e+13	1.587804e+14	1.010807e+14	5.489991e+03	2.493900e+03	1.466523e+03	0	3.028983e-04
8.400000e+08	9.859029e+11	0.000000e+00	6.633165e-01	2.373097e+13	1.576199e+14	1.006107e+14	5.488673e+03	2.491725e+03	1.465243e+03	0	3.023855e-04
8.500000e+08	9.809397e+11	0.000000e+00	6.633165e-01	2.366285e+13	1.564839e+14	1.001440e+14	5.487359e+03	2.489589e+03	1.463988e+03	0	3.018772e-04
8.600000e+08	9.760358e+11	0.000000e+00	6.633165e-01	2.359552e+13	1.553716e+14	9.968042e+13	5.486049e+03	2.487492e+03	1.462754e+03	0	3.013734e-04
8.700000e+08	9.711897e+11	0.000000e+00	6.633165e-01	2.352896e+13	1.542821e+14	9.922008e+13	5.484743e+03	2.485432e+03	1.461543e+03	0	3.008737e-04
8.800000e+08	9.663996e+11	0.000000e+00	6.633165e-01	2.346315e+13	1.532146e+14	9.876290e+13	5.483440e+03	2.483407e+03	1.460352e+03	0	3.003783e-04
8.900000e+08	9.616641e+11	0.000000e+00	6.633165e-01	2.339807e+13	1.521683e+14	9.830887e+13	5.482142e+03	2.481418e+03	1.459182e+03	0	2.998868e-04
9.000000e+08	9.569817e+11	0.000000e+00	6.633165e-01	2.333369e+13	1.511426e+14	9.785795e+13	5.480846e+03	2.479461e+03	1.458032e+03	0	2.993993e-04
9.100000e+08	9.523509e+11	0.000000e+00	6.633165e-01	2.327000e+13	1.501366e+14	9.741012e+13	5.479554e+03	2.477538e+03	1.456901e+03	0	2.989156e-04
9.200000e+08	9.477704e+11	0.000000e+00	6.633165e-01	2.320699e+13	1.491497e+14	9.696535e+13	5.478266e+03	2.475646e+03	1.455788e+03	0	2.984356e-04
9.300000e+08	9.432388e+11	0.000000e+00	6.633165e-01	2.314462e+13	1.481813e+14	9.652364e+13	5.476981e+03	2.473784e+03	1.454694e+03	0	2.979592e-04
9.400000e+08	9.387549e+11	0.000000e+00	6.633165e-01	2.308290e+13	1.472308e+14	9.608493e+13	5.475700e+03	2.471953e+03	1.453617e+03	0	2.974863e-04
9.500000e+08	9.343174e+11	0.000000e+00	6.633165e-01	2.302179e+13	1.462975e+14	9.564923e+13	5.474422e+03	2.470149e+03	1.452556e+03	0	2.970168e-04
9.600000e+08	9.299251e+11	0.000000e+00	6.633165e-01	2.296129e+13	1.453810e+14	9.521649e+13	5.473148e+03	2.468374e+03	1.451512e+03	0	2.965507e-04
9.700000e+08	9.255770e+11	0.000000e+00	6.633165e-01	2.290137e+13	1.444807e+14	9.478671e+13	5.471877e+03	2.466626e+03	1.450484e+03	0	2.960878e-04
9.800000e+08	9.212718e+11	0.000000e+00	6.633165e-01	2.284204e+13	1.435960e+14	9.435984e+13	5.470609e+03	2.464904e+03	1.449472e+03	0	2.956280e-04
9.900000e+08	9.170087e+11	0.000000e+00	6.633165e-01	2.278326e+13	1.427265e+14	9.393588e+13	5.469344e+03	2.463207e+03	1.448474e+03	0	2.951713e-04
1.000000e+09	9.127864e+11	0.000000e+00	6.633165e-01	2.272503e+13	1.418717e+14	9.351479e+13	5.468083e+03	2.461535e+03	1.447491e+03	0	2.947176e-04
1.010000e+09	9.086041e+11	0.000000e+00	6.633165e-01	2.266733e+13	1.410312e+14	9.309657e+13	5.466825e+03	2.459887e+03	1.446522e+03	0	2.942667e-04
1.020000e+09	9.044608e+11	0.000000e+00	6.633165e-01	2.261015e+13	1.402045e+14	9.268117e+13	5.465570e+03	2.458263e+03	1.445566e+03	0	2.938188e-04
1.030000e+09	9.003556e+11	0.000000e+00	6.633165e-01	2.255349e+13	1.393912e+14	9.226859e+13	5.464318e+03	2.456660e+03	1.444624e+03	0	2.933736e-04
1.040000e+09	8.962876e+11	0.000000e+00	6.633165e-01	2.249732e+13	1.385909e+14	9.185879e+13	5.463070e+03	2.455080e+03	1.443695e+03	0	2.929310e-04
1.050000e+09	8.922559e+11	0.000000e+00	6.633165e-01	2.244163e+13	1.378033e+14	9.145176e+13	5.461824e+03	2.453522e+03	1.442778e+03	0	2.924912e-04
1.060000e+09	8.882597e+11	0.000000e+00	6.633165e-01	2.238642e+13	1.370279e+14	9.104748e+13	5.460582e+03	2.451983e+03	1.441874e+03	0	2.920538e-04
1.070000e+09	8.842982e+11	0.000000e+00	6.633165e-01	2.233168e+13	1.362644e+14	9.064592e+13	5.459342e+03	2.450466e+03	1.440981e+03	0	2.916190e-04
1.080000e+09	8.803706e+11	0.000000e+00	6.633165e-01	2.227739e+13	1.355125e+14	9.024706e+13	5.458106e+03	2.448967e+03	1.440100e+03	0	2.911866e-04
1.090000e+09	8.764763e+11	0.000000e+00	6.633165e-01	2.222354e+13	1.347718e+14	8.985089e+13	5.456873e+03	2.447488e+03	1.439230e+03	0	2.907567e-04
1.100000e+09	8.726144e+11	0.000000e+00	6.633165e-01	2.217013e+13	1.340421e+14	8.945737e+13	5.455642e+03	2.446028e+03	1.438372e+03	0	2.903290e-04
1.110000e+09	8.687843e+11	0.000000e+00	6.633165e-01	2.211715e+13	1.333229e+14	8.906649e+13	5.454415e+03	2.444585e+03	1.437523e+03	0	2.899036e-04
1.120000e+09	8.649853e+11	0.000000e+00	6.633165e-01	2.206458e+13	1.326142e+14	8.867823e+13	5.453190e+03	2.443160e+03	1.436685e+03	0	2.894804e-04
1.130000e+09	8.612168e+11	0.000000e+00	6.633165e-01	2.201242e+13	1.319154e+14	8.829257e+13	5.451969e+03	2.441753e+03	1.435858e+03	0	2.890594e-04
1.140000e+09	8.574780e+11	0.000000e+00	6.633165e-01	2.196066e+13	1.312265e+14	8.790949e+13	5.450750e+03	2.440361e+03	1.435040e+03	0	2.886405e-04
1.150000e+09	8.537685e+11	0.000000e+00	6.633165e-01	2.190929e+13	1.305471e+14	8.752897e+13	5.449534e+03	2.438987e+03	1.434231e+03	0	2.882237e-04
1.160000e+09	8.500876e+11	0.000000e+00	6.633165e-01	2.185830e+13	1.298770e+14	8.715098e+13	5.448322e+03	2.437628e+03	1.433432e+03	0	2.878089e-04
1.170000e+09	8.464347e+11	0.000000e+00	6.633165e-01	2.180769e+13	1.292159e+14	8.677551e+13	5.447111e+03	2.436284e+03	1.432642e+03	0	2.873960e-04
1.180000e+09	8.428094e+11	0.000000e+00	6.633165e-01	2.175745e+13	1.285636e+14	8.640254e+13	5.445904e+03	2.434955e+03	1.431861e+03	0	2.869851e-04
1.190000e+09	8.392109e+11	0.000000e+00	6.633165e-01	2.170757e+13	1.279199e+14	8.603205e+13	5.444699e+03	2.433641e+03	1.431088e+03	0	2.865761e-04
1.200000e+09	8.356389e+11	0.000000e+00	6.633165e-01	2.165804e+13	1.272846e+14	8.566402e+13	5.443498e+03	2.432342e+03	1.430324e+03	0	2.861689e-04
1.210000e+09	8.320929e+11	0.000000e+00	6.633165e-01	2.160886e+13	1.266574e+14	8.529843e+13	5.442299e+03	2.431056e+03	1.429568e+03	0	2.857636e-04
1.220000e+09	8.285722e+11	0.000000e+00	6.633165e-01	2.156002e+13	1.260382e+14	8.493526e+13	5.441102e+03	2.429784e+03	1.428820e+03	0	2.853600e-04
1.230000e+09	8.250766e+11	0.000000e+00	6.633165e-01	2.151152e+13	1.254268e+14	8.457450e+13	5.439909e+03	2.428525e+03	1.428079e+03	0	2.849581e-04
1.240000e+09	8.216054e+11	0.000000e+00	6.633165e-01	2.146335e+13	1.248229e+14	8.421612e+13	5.438718e+03	2.427279e+03	1.427347e+03	0	2.845579e-04
1.250000e+09	8.181583e+11	0.000000e+00	6.633165e-01	2.141550e+13	1.242265e+14	8.386010e+13	5.437529e+03	2.426046e+03	1.426621e+03	0	2.841594e-04
1.260000e+09	8.147348e+11	0.000000e+00	6.633165e-01	2.136796e+13	1.236372e+14	8.350644e+13	5.436344e+03	2.424825e+03	1.425903e+03	0	2.837625e-04
1.270000e+09	8.113345e+11	0.000000e+00	6.633165e-01	2.132074e+13	1.230551e+14	8.315510e+13	5.435161e+03	2.423616e+03	1.425192e+03	0	2.833672e-04
1.280000e+09	8.079570e+11	0.000000e+00	6.633165e-01	2.127383e+13	1.224798e+14	8.280607e+13	5.433980e+03	2.422419e+03	1.424488e+03	0	2.829734e-04
1.290000e+09	8.046019e+11	0.000000e+00	6.633165e-01	2.122721e+13	1.219113e+14	8.245934e+13	5.432803e+03	2.421233e+03	1.423791e+03	0	2.825812e-04
1.300000e+09	8.012688e+11	0.000000e+00	6.633165e-01	2.118089e+13	1.213493e+14	8.211488e+13	5.431627e+03	2.420059e+03	1.423101e+03	0	2.821905e-04
1.310000e+09	7.979573e+11	0.000000e+00	6.633165e-01	2.113487e+13	1.207938e+14	8.177268e+13	5.430455e+03	2.418895e+03	1.422416e+03	0	2.818012e-04
1.320000e+09	7.946671e+11	0.000000e+00	6.633165e-01	2.108912e+13	1.202446e+14	8.143272e+13	5.429285e+03	2.417742e+03	1.421738e+03	0	2.814133e-04
1.330000e+09	7.913979e+11	0.000000e+00	6.633165e-01	2.104366e+13	1.197015e+14	8.109499e+13	5.428117e+03	2.416600e+03	1.421067e+03	0	2.810269e-04
1.340000e+09	7.881492e+11	0.000000e+00	6.633165e-01	2.099848e+13	1.191645e+14	8.075946e+13	5.426952e+03	2.415468e+03	1.420401e+03	0	2.806418e-04
1.350000e+09	7.849207e+11	0.000000e+00	6.633165e-01	2.095357e+13	1.186333e+14	8.042612e+13	5.425789e+03	2.414346e+03	1.419741e+03	0	2.802581e-04
1.360000e+09	7.817122e+11	0.000000e+00	6.633165e-01	2.090892e+13	1.181080e+14	8.009496e+13	5.424629e+03	2.413233e+03	1.419087e+03	0	2.798757e-04
