#t		Qconv[W]	Ri[Rp]		R*[Rp]		Qc[W]		Qm[W]		Qr[W]		Tcmb[K]		Tl[K]		Tup[K]		RiFlag		Bs[T]
0.000000e+00	4.639674e+12	0.000000e+00	6.532661e-01	7.848744e+13	2.349782e+15	2.109638e+14	6.893267e+03	4.342570e+03	2.295663e+03	0	5.052460e-04
1.000000e+07	4.564308e+12	0.000000e+00	6.532661e-01	7.761120e+13	2.096017e+15	2.097949e+14	6.890228e+03	4.246418e+03	2.244834e+03	0	5.024954e-04
2.000000e+07	4.479922e+12	0.000000e+00	6.532661e-01	7.663155e+13	1.887016e+15	2.086348e+14	6.887222e+03	4.161637e+03	2.200015e+03	0	4.993794e-04
3.000000e+07	4.391395e+12	0.000000e+00	6.532661e-01	7.560450e+13	1.712646e+15	2.074833e+14	6.884255e+03	4.086261e+03	2.160168e+03	0	4.960680e-04
4.000000e+07	4.301757e+12	0.000000e+00	6.532661e-01	7.456485e+13	1.565493e+15	2.063404e+14	6.881327e+03	4.018759e+03	2.124484e+03	0	4.926696e-04
5.000000e+07	4.212886e+12	0.000000e+00	6.532661e-01	7.353415e+13	1.440032e+15	2.052060e+14	6.878439e+03	3.957921e+03	2.092322e+03	0	4.892532e-04
6.000000e+07	4.125929e+12	0.000000e+00	6.532661e-01	7.252555e+13	1.332082e+15	2.040801e+14	6.875591e+03	3.902776e+03	2.063170e+03	0	4.858636e-04
7.000000e+07	4.041560e+12	0.000000e+00	6.532661e-01	7.154682e+13	1.238430e+15	2.029626e+14	6.872782e+03	3.852536e+03	2.036611e+03	0	4.825290e-04
8.000000e+07	3.960156e+12	0.000000e+00	6.532661e-01	7.060226e+13	1.156576e+15	2.018534e+14	6.870011e+03	3.806556e+03	2.012304e+03	0	4.792674e-04
9.000000e+07	3.881895e+12	0.000000e+00	6.532661e-01	6.969390e+13	1.084549e+15	2.007524e+14	6.867277e+03	3.764302e+03	1.989967e+03	0	4.760892e-04
1.000000e+08	3.806827e+12	0.000000e+00	6.532661e-01	6.882232e+13	1.020777e+15	1.996596e+14	6.864577e+03	3.725326e+03	1.969363e+03	0	4.730003e-04
1.100000e+08	3.734923e+12	0.000000e+00	6.532661e-01	6.798720e+13	9.639978e+14	1.985750e+14	6.861912e+03	3.689252e+03	1.950292e+03	0	4.700034e-04
1.200000e+08	3.666103e+12	0.000000e+00	6.532661e-01	6.718759e+13	9.131826e+14	1.974983e+14	6.859279e+03	3.655759e+03	1.932587e+03	0	4.670987e-04
1.300000e+08	3.600256e+12	0.000000e+00	6.532661e-01	6.642222e+13	8.674890e+14	1.964297e+14	6.856676e+03	3.624576e+03	1.916102e+03	0	4.642853e-04
1.400000e+08	3.537253e+12	0.000000e+00	6.532661e-01	6.568960e+13	8.262210e+14	1.953689e+14	6.854103e+03	3.595465e+03	1.900713e+03	0	4.615610e-04
1.500000e+08	3.476957e+12	0.000000e+00	6.532661e-01	6.498817e+13	7.887986e+14	1.943160e+14	6.851559e+03	3.568224e+03	1.886312e+03	0	4.589234e-04
1.600000e+08	3.419229e+12	0.000000e+00	6.532661e-01	6.431630e+13	7.547359e+14	1.932708e+14	6.849042e+03	3.542675e+03	1.872806e+03	0	4.563694e-04
1.700000e+08	3.363929e+12	0.000000e+00	6.532661e-01	6.367241e+13	7.236228e+14	1.922334e+14	6.846550e+03	3.518664e+03	1.860112e+03	0	4.538957e-04
1.800000e+08	3.310924e+12	0.000000e+00	6.532661e-01	6.305494e+13	6.951111e+14	1.912036e+14	6.844084e+03	3.496053e+03	1.848159e+03	0	4.514991e-04
1.900000e+08	3.260084e+12	0.000000e+00	6.532661e-01	6.246242e+13	6.689036e+14	1.901814e+14	6.841642e+03	3.474723e+03	1.836883e+03	0	4.491761e-04
2.000000e+08	3.211285e+12	0.000000e+00	6.532661e-01	6.189340e+13	6.447453e+14	1.891668e+14	6.839222e+03	3.454566e+03	1.826228e+03	0	4.469237e-04
2.100000e+08	3.164410e+12	0.000000e+00	6.532661e-01	6.134656e+13	6.224162e+14	1.881596e+14	6.836824e+03	3.435489e+03	1.816142e+03	0	4.447385e-04
2.200000e+08	3.119350e+12	0.000000e+00	6.532661e-01	6.082063e+13	6.017258e+14	1.871598e+14	6.834448e+03	3.417405e+03	1.806583e+03	0	4.426174e-04
2.300000e+08	3.076001e+12	0.000000e+00	6.532661e-01	6.031441e+13	5.825083e+14	1.861673e+14	6.832092e+03	3.400239e+03	1.797508e+03	0	4.405575e-04
2.400000e+08	3.034265e+12	0.000000e+00	6.532661e-01	5.982678e+13	5.646187e+14	1.851821e+14	6.829756e+03	3.383922e+03	1.788882e+03	0	4.385559e-04
2.500000e+08	2.994053e+12	0.000000e+00	6.532661e-01	5.935671e+13	5.479301e+14	1.842041e+14	6.827438e+03	3.368394e+03	1.780673e+03	0	4.366099e-04
2.600000e+08	2.955278e+12	0.000000e+00	6.532661e-01	5.890321e+13	5.323305e+14	1.832333e+14	6.825139e+03	3.353597e+03	1.772851e+03	0	4.347169e-04
2.700000e+08	2.917862e+12	0.000000e+00	6.532661e-01	5.846536e+13	5.177212e+14	1.822695e+14	6.822857e+03	3.339482e+03	1.765390e+03	0	4.328745e-04
2.800000e+08	2.881730e+12	0.000000e+00	6.532661e-01	5.804232e+13	5.040144e+14	1.813128e+14	6.820592e+03	3.326003e+03	1.758264e+03	0	4.310803e-04
2.900000e+08	2.846812e+12	0.000000e+00	6.532661e-01	5.763328e+13	4.911323e+14	1.803631e+14	6.818344e+03	3.313117e+03	1.751452e+03	0	4.293321e-04
3.000000e+08	2.813045e+12	0.000000e+00	6.532661e-01	5.723749e+13	4.790055e+14	1.794204e+14	6.816111e+03	3.300786e+03	1.744933e+03	0	4.276278e-04
3.100000e+08	2.780366e+12	0.000000e+00	6.532661e-01	5.685426e+13	4.675719e+14	1.784844e+14	6.813894e+03	3.288976e+03	1.738690e+03	0	4.259655e-04
3.200000e+08	2.748720e+12	0.000000e+00	6.532661e-01	5.648294e+13	4.567757e+14	1.775553e+14	6.811691e+03	3.277653e+03	1.732704e+03	0	4.243432e-04
3.300000e+08	2.718053e+12	0.000000e+00	6.532661e-01	5.612291e+13	4.465668e+14	1.766330e+14	6.809503e+03	3.266790e+03	1.726961e+03	0	4.227592e-04
3.400000e+08	2.688315e+12	0.000000e+00	6.532661e-01	5.577360e+13	4.369002e+14	1.757173e+14	6.807329e+03	3.256357e+03	1.721446e+03	0	4.212118e-04
3.500000e+08	2.659460e+12	0.000000e+00	6.532661e-01	5.543448e+13	4.277351e+14	1.748083e+14	6.805168e+03	3.246330e+03	1.716146e+03	0	4.196993e-04
3.600000e+08	2.631445e+12	0.000000e+00	6.532661e-01	5.510503e+13	4.190345e+14	1.739059e+14	6.803021e+03	3.236687e+03	1.711048e+03	0	4.182204e-04
3.700000e+08	2.604228e+12	0.000000e+00	6.532661e-01	5.478480e+13	4.107649e+14	1.730100e+14	6.800886e+03	3.227405e+03	1.706141e+03	0	4.167735e-04
3.800000e+08	2.577771e+12	0.000000e+00	6.532661e-01	5.447334e+13	4.028960e+14	1.721206e+14	6.798763e+03	3.218464e+03	1.701414e+03	0	4.153573e-04
3.900000e+08	2.552038e+12	0.000000e+00	6.532661e-01	5.417023e+13	3.954000e+14	1.712376e+14	6.796653e+03	3.209847e+03	1.696859e+03	0	4.139706e-04
4.000000e+08	2.526994e+12	0.000000e+00	6.532661e-01	5.387508e+13	3.882515e+14	1.703610e+14	6.794554e+03	3.201535e+03	1.692465e+03	0	4.126120e-04
4.100000e+08	2.502609e+12	0.000000e+00	6.532661e-01	5.358752e+13	3.814275e+14	1.694908e+14	6.792467e+03	3.193513e+03	1.688224e+03	0	4.112805e-04
4.200000e+08	2.478852e+12	0.000000e+00	6.532661e-01	5.330722e+13	3.749066e+14	1.686268e+14	6.790391e+03	3.185766e+03	1.684128e+03	0	4.099749e-04
4.300000e+08	2.455694e+12	0.000000e+00	6.532661e-01	5.303383e+13	3.686695e+14	1.677690e+14	6.788326e+03	3.178279e+03	1.680171e+03	0	4.086942e-04
4.400000e+08	2.433109e+12	0.000000e+00	6.532661e-01	5.276707e+13	3.626983e+14	1.669174e+14	6.786271e+03	3.171041e+03	1.676344e+03	0	4.074375e-04
4.500000e+08	2.411072e+12	0.000000e+00	6.532661e-01	5.250663e+13	3.569765e+14	1.660719e+14	6.784227e+03	3.164038e+03	1.672642e+03	0	4.062037e-04
4.600000e+08	2.389559e+12	0.000000e+00	6.532661e-01	5.225224e+13	3.514890e+14	1.652325e+14	6.782193e+03	3.157259e+03	1.669059e+03	0	4.049919e-04
4.700000e+08	2.368548e+12	0.000000e+00	6.532661e-01	5.200365e+13	3.462217e+14	1.643991e+14	6.780169e+03	3.150694e+03	1.665588e+03	0	4.038014e-04
4.800000e+08	2.348018e+12	0.000000e+00	6.532661e-01	5.176061e+13	3.411617e+14	1.635717e+14	6.778154e+03	3.144333e+03	1.662225e+03	0	4.026313e-04
4.900000e+08	2.327947e+12	0.000000e+00	6.532661e-01	5.152288e+13	3.362971e+14	1.627502e+14	6.776149e+03	3.138165e+03	1.658965e+03	0	4.014808e-04
5.000000e+08	2.308319e+12	0.000000e+00	6.532661e-01	5.129026e+13	3.316167e+14	1.619345e+14	6.774152e+03	3.132183e+03	1.655802e+03	0	4.003492e-04
5.100000e+08	2.289114e+12	0.000000e+00	6.532661e-01	5.106254e+13	3.271101e+14	1.611247e+14	6.772165e+03	3.126377e+03	1.652733e+03	0	3.992359e-04
5.200000e+08	2.270315e+12	0.000000e+00	6.532661e-01	5.083951e+13	3.227680e+14	1.603207e+14	6.770187e+03	3.120740e+03	1.649753e+03	0	3.981400e-04
5.300000e+08	2.251907e+12	0.000000e+00	6.532661e-01	5.062100e+13	3.185812e+14	1.595224e+14	6.768217e+03	3.115265e+03	1.646859e+03	0	3.970610e-04
5.400000e+08	2.233874e+12	0.000000e+00	6.532661e-01	5.040682e+13	3.145415e+14	1.587298e+14	6.766256e+03	3.109943e+03	1.644046e+03	0	3.959983e-04
5.500000e+08	2.216201e+12	0.000000e+00	6.532661e-01	5.019682e+13	3.106413e+14	1.579429e+14	6.764303e+03	3.104770e+03	1.641311e+03	0	3.949513e-04
5.600000e+08	2.198876e+12	0.000000e+00	6.532661e-01	4.999082e+13	3.068732e+14	1.571615e+14	6.762358e+03	3.099738e+03	1.638651e+03	0	3.939194e-04
5.700000e+08	2.181884e+12	0.000000e+00	6.532661e-01	4.978869e+13	3.032305e+14	1.563857e+14	6.760422e+03	3.094842e+03	1.636062e+03	0	3.929021e-04
5.800000e+08	2.165213e+12	0.000000e+00	6.532661e-01	4.959027e+13	2.997070e+14	1.556154e+14	6.758493e+03	3.090075e+03	1.633543e+03	0	3.918988e-04
5.900000e+08	2.148852e+12	0.000000e+00	6.532661e-01	4.939543e+13	2.962966e+14	1.548505e+14	6.756571e+03	3.085433e+03	1.631089e+03	0	3.909092e-04
6.000000e+08	2.132789e+12	0.000000e+00	6.532661e-01	4.920404e+13	2.929939e+14	1.540911e+14	6.754658e+03	3.080911e+03	1.628698e+03	0	3.899327e-04
6.100000e+08	2.117013e+12	0.000000e+00	6.532661e-01	4.901597e+13	2.897937e+14	1.533370e+14	6.752751e+03	3.076503e+03	1.626368e+03	0	3.889689e-04
6.200000e+08	2.101514e+12	0.000000e+00	6.532661e-01	4.883111e+13	2.866911e+14	1.525883e+14	6.750852e+03	3.072206e+03	1.624096e+03	0	3.880174e-04
6.300000e+08	2.086283e+12	0.000000e+00	6.532661e-01	4.864935e+13	2.836816e+14	1.518448e+14	6.748960e+03	3.068014e+03	1.621880e+03	0	3.870777e-04
6.400000e+08	2.071310e+12	0.000000e+00	6.532661e-01	4.847058e+13	2.807607e+14	1.511066e+14	6.747075e+03	3.063924e+03	1.619718e+03	0	3.861495e-04
6.500000e+08	2.056586e+12	0.000000e+00	6.532661e-01	4.829469e+13	2.779245e+14	1.503736e+14	6.745197e+03	3.059932e+03	1.617608e+03	0	3.852323e-04
6.600000e+08	2.042103e+12	0.000000e+00	6.532661e-01	4.812160e+13	2.751692e+14	1.496457e+14	6.743326e+03	3.056034e+03	1.615547e+03	0	3.843259e-04
6.700000e+08	2.027852e+12	0.000000e+00	6.532661e-01	4.795119e+13	2.724911e+14	1.489230e+14	6.741462e+03	3.052227e+03	1.613534e+03	0	3.834298e-04
6.800000e+08	2.013827e+12	0.000000e+00	6.532661e-01	4.778339e+13	2.698869e+14	1.482053e+14	6.739604e+03	3.048507e+03	1.611568e+03	0	3.825438e-04
6.900000e+08	2.000018e+12	0.000000e+00	6.532661e-01	4.761812e+13	2.673533e+14	1.474927e+14	6.737753e+03	3.044871e+03	1.609646e+03	0	3.816674e-04
7.000000e+08	1.986421e+12	0.000000e+00	6.532661e-01	4.745528e+13	2.648874e+14	1.467851e+14	6.735908e+03	3.041315e+03	1.607766e+03	0	3.808005e-04
7.100000e+08	1.973027e+12	0.000000e+00	6.532661e-01	4.729480e+13	2.624862e+14	1.460824e+14	6.734069e+03	3.037838e+03	1.605928e+03	0	3.799427e-04
7.200000e+08	1.959830e+12	0.000000e+00	6.532661e-01	4.713661e+13	2.601471e+14	1.453846e+14	6.732237e+03	3.034436e+03	1.604129e+03	0	3.790937e-04
7.300000e+08	1.946825e+12	0.000000e+00	6.532661e-01	4.698064e+13	2.578676e+14	1.446918e+14	6.730410e+03	3.031107e+03	1.602369e+03	0	3.782533e-04
7.400000e+08	1.934004e+12	0.000000e+00	6.532661e-01	4.682681e+13	2.556451e+14	1.440037e+14	6.728590e+03	3.027847e+03	1.600646e+03	0	3.774211e-04
7.500000e+08	1.921363e+12	0.000000e+00	6.532661e-01	4.667507e+13	2.534773e+14	1.433205e+14	6.726776e+03	3.024655e+03	1.598959e+03	0	3.765970e-04
7.600000e+08	1.908896e+12	0.000000e+00	6.532661e-01	4.652534e+13	2.513622e+14	1.426420e+14	6.724967e+03	3.021528e+03	1.597306e+03	0	3.757807e-04
7.700000e+08	1.896597e+12	0.000000e+00	6.532661e-01	4.637757e+13	2.492976e+14	1.419682e+14	6.723165e+03	3.018464e+03	1.595686e+03	0	3.749720e-04
7.800000e+08	1.884463e+12	0.000000e+00	6.532661e-01	4.623170e+13	2.472816e+14	1.412991e+14	6.721368e+03	3.015461e+03	1.594098e+03	0	3.741705e-04
7.900000e+08	1.872487e+12	0.000000e+00	6.532661e-01	4.608768e+13	2.453123e+14	1.406347e+14	6.719576e+03	3.012517e+03	1.592542e+03	0	3.733762e-04
8.000000e+08	1.860665e+12	0.000000e+00	6.532661e-01	4.594545e+13	2.433879e+14	1.399748e+14	6.717791e+03	3.009629e+03	1.591015e+03	0	3.725889e-04
8.100000e+08	1.848994e+12	0.000000e+00	6.532661e-01	4.580496e+13	2.415068e+14	1.393196e+14	6.716010e+03	3.006797e+03	1.589518e+03	0	3.718082e-04
8.200000e+08	1.837468e+12	0.000000e+00	6.532661e-01	4.566616e+13	2.396673e+14	1.386688e+14	6.714236e+03	3.004017e+03	1.588049e+03	0	3.710340e-04
8.300000e+08	1.826084e+12	0.000000e+00	6.532661e-01	4.552900e+13	2.378679e+14	1.380226e+14	6.712466e+03	3.001289e+03	1.586607e+03	0	3.702661e-04
8.400000e+08	1.814837e+12	0.000000e+00	6.532661e-01	4.539345e+13	2.361071e+14	1.373809e+14	6.710702e+03	2.998611e+03	1.585191e+03	0	3.695044e-04
8.500000e+08	1.803724e+12	0.000000e+00	6.532661e-01	4.525945e+13	2.343836e+14	1.367435e+14	6.708943e+03	2.995981e+03	1.583800e+03	0	3.687487e-04
8.600000e+08	1.792741e+12	0.000000e+00	6.532661e-01	4.512696e+13	2.326961e+14	1.361106e+14	6.707190e+03	2.993398e+03	1.582435e+03	0	3.679987e-04
8.700000e+08	1.781885e+12	0.000000e+00	6.532661e-01	4.499594e+13	2.310432e+14	1.354820e+14	6.705441e+03	2.990859e+03	1.581093e+03	0	3.672544e-04
8.800000e+08	1.771152e+12	0.000000e+00	6.532661e-01	4.486636e+13	2.294238e+14	1.348577e+14	6.703698e+03	2.988365e+03	1.579774e+03	0	3.665155e-04
8.900000e+08	1.760539e+12	0.000000e+00	6.532661e-01	4.473818e+13	2.278368e+14	1.342378e+14	6.701960e+03	2.985913e+03	1.578478e+03	0	3.657820e-04
9.000000e+08	1.750044e+12	0.000000e+00	6.532661e-01	4.461135e+13	2.262810e+14	1.336220e+14	6.700226e+03	2.983502e+03	1.577203e+03	0	3.650537e-04
9.100000e+08	1.739662e+12	0.000000e+00	6.532661e-01	4.448586e+13	2.247553e+14	1.330105e+14	6.698498e+03	2.981131e+03	1.575950e+03	0	3.643304e-04
9.200000e+08	1.729391e+12	0.000000e+00	6.532661e-01	4.436165e+13	2.232588e+14	1.324032e+14	6.696774e+03	2.978798e+03	1.574717e+03	0	3.636120e-04
9.300000e+08	1.719228e+12	0.000000e+00	6.532661e-01	4.423871e+13	2.217905e+14	1.318001e+14	6.695055e+03	2.976503e+03	1.573504e+03	0	3.628983e-04
9.400000e+08	1.709171e+12	0.000000e+00	6.532661e-01	4.411699e+13	2.203496e+14	1.312010e+14	6.693341e+03	2.974245e+03	1.572310e+03	0	3.621893e-04
9.500000e+08	1.699217e+12	0.000000e+00	6.532661e-01	4.399647e+13	2.189350e+14	1.306061e+14	6.691632e+03	2.972022e+03	1.571135e+03	0	3.614848e-04
9.600000e+08	1.689364e+12	0.000000e+00	6.532661e-01	4.387712e+13	2.175460e+14	1.300152e+14	6.689927e+03	2.969833e+03	1.569977e+03	0	3.607847e-04
9.700000e+08	1.679608e+12	0.000000e+00	6.532661e-01	4.375892e+13	2.161818e+14	1.294284e+14	6.688227e+03	2.967677e+03	1.568838e+03	0	3.600889e-04
9.800000e+08	1.669948e+12	0.000000e+00	6.532661e-01	4.364183e+13	2.148416e+14	1.288455e+14	6.686531e+03	2.965554e+03	1.567715e+03	0	3.593973e-04
9.900000e+08	1.660382e+12	0.000000e+00	6.532661e-01	4.352583e+13	2.135246e+14	1.282666e+14	6.684840e+03	2.963462e+03	1.566610e+03	0	3.587097e-04
1.000000e+09	1.650907e+12	0.000000e+00	6.532661e-01	4.341089e+13	2.122302e+14	1.276916e+14	6.683154e+03	2.961401e+03	1.565520e+03	0	3.580260e-04
1.010000e+09	1.641521e+12	0.000000e+00	6.532661e-01	4.329699e+13	2.109577e+14	1.271205e+14	6.681472e+03	2.959369e+03	1.564446e+03	0	3.573462e-04
1.020000e+09	1.632222e+12	0.000000e+00	6.532661e-01	4.318411e+13	2.097063e+14	1.265533e+14	6.679794e+03	2.957366e+03	1.563387e+03	0	3.566702e-04
1.030000e+09	1.623008e+12	0.000000e+00	6.532661e-01	4.307223e+13	2.084756e+14	1.259899e+14	6.678121e+03	2.955392e+03	1.562343e+03	0	3.559978e-04
1.040000e+09	1.613877e+12	0.000000e+00	6.532661e-01	4.296131e+13	2.072648e+14	1.254304e+14	6.676452e+03	2.953444e+03	1.561314e+03	0	3.553290e-04
1.050000e+09	1.604828e+12	0.000000e+00	6.532661e-01	4.285135e+13	2.060734e+14	1.248746e+14	6.674787e+03	2.951523e+03	1.560298e+03	0	3.546636e-04
1.060000e+09	1.595859e+12	0.000000e+00	6.532661e-01	4.274231e+13	2.049008e+14	1.243226e+14	6.673127e+03	2.949628e+03	1.559296e+03	0	3.540016e-04
1.070000e+09	1.586967e+12	0.000000e+00	6.532661e-01	4.263418e+13	2.037465e+14	1.237742e+14	6.671471e+03	2.947758e+03	1.558308e+03	0	3.533429e-04
1.080000e+09	1.578152e+12	0.000000e+00	6.532661e-01	4.252695e+13	2.026101e+14	1.232296e+14	6.669819e+03	2.945912e+03	1.557332e+03	0	3.526875e-04
1.090000e+09	1.569412e+12	0.000000e+00	6.532661e-01	4.242059e+13	2.014909e+14	1.226886e+14	6.668171e+03	2.944090e+03	1.556369e+03	0	3.520352e-04
1.100000e+09	1.560744e+12	0.000000e+00	6.532661e-01	4.231508e+13	2.003885e+14	1.221513e+14	6.666527e+03	2.942292e+03	1.555418e+03	0	3.513859e-04
1.110000e+09	1.552148e+12	0.000000e+00	6.532661e-01	4.221041e+13	1.993025e+14	1.216176e+14	6.664888e+03	2.940516e+03	1.554479e+03	0	3.507396e-04
1.120000e+09	1.543623e+12	0.000000e+00	6.532661e-01	4.210656e+13	1.982324e+14	1.210874e+14	6.663252e+03	2.938762e+03	1.553552e+03	0	3.500963e-04
1.130000e+09	1.535166e+12	0.000000e+00	6.532661e-01	4.200351e+13	1.971778e+14	1.205608e+14	6.661620e+03	2.937029e+03	1.552636e+03	0	3.494557e-04
1.140000e+09	1.526776e+12	0.000000e+00	6.532661e-01	4.190125e+13	1.961382e+14	1.200377e+14	6.659993e+03	2.935317e+03	1.551731e+03	0	3.488180e-04
1.150000e+09	1.518452e+12	0.000000e+00	6.532661e-01	4.179976e+13	1.951134e+14	1.195181e+14	6.658369e+03	2.933626e+03	1.550837e+03	0	3.481829e-04
1.160000e+09	1.510194e+12	0.000000e+00	6.532661e-01	4.169903e+13	1.941028e+14	1.190020e+14	6.656750e+03	2.931954e+03	1.549953e+03	0	3.475505e-04
1.170000e+09	1.501998e+12	0.000000e+00	6.532661e-01	4.159905e+13	1.931062e+14	1.184893e+14	6.655134e+03	2.930302e+03	1.549080e+03	0	3.469207e-04
1.180000e+09	1.493865e+12	0.000000e+00	6.532661e-01	4.149979e+13	1.921231e+14	1.179800e+14	6.653522e+03	2.928669e+03	1.548216e+03	0	3.462934e-04
1.190000e+09	1.485793e+12	0.000000e+00	6.532661e-01	4.140125e+13	1.911533e+14	1.174741e+14	6.651914e+03	2.927054e+03	1.547363e+03	0	3.456686e-04
1.200000e+09	1.477781e+12	0.000000e+00	6.532661e-01	4.130341e+13	1.901964e+14	1.169716e+14	6.650310e+03	2.925457e+03	1.546518e+03	0	3.450461e-04
1.210000e+09	1.469828e+12	0.000000e+00	6.532661e-01	4.120626e+13	1.892521e+14	1.164724e+14	6.648709e+03	2.923877e+03	1.545683e+03	0	3.444260e-04
1.220000e+09	1.461933e+12	0.000000e+00	6.532661e-01	4.110978e+13	1.883200e+14	1.159765e+14	6.647113e+03	2.922315e+03	1.544858e+03	0	3.438082e-04
1.230000e+09	1.454094e+12	0.000000e+00	6.532661e-01	4.101397e+13	1.873999e+14	1.154839e+14	6.645520e+03	2.920770e+03	1.544040e+03	0	3.431926e-04
1.240000e+09	1.446311e+12	0.000000e+00	6.532661e-01	4.091882e+13	1.864916e+14	1.149945e+14	6.643930e+03	2.919240e+03	1.543232e+03	0	3.425792e-04
1.250000e+09	1.438583e+12	0.000000e+00	6.532661e-01	4.082430e+13	1.855946e+14	1.145084e+14	6.642345e+03	2.917727e+03	1.542432e+03	0	3.419679e-04
1.260000e+09	1.430908e+12	0.000000e+00	6.532661e-01	4.073042e+13	1.847088e+14	1.140255e+14	6.640763e+03	2.916229e+03	1.541640e+03	0	3.413588e-04
1.270000e+09	1.423287e+12	0.000000e+00	6.532661e-01	4.063716e+13	1.838338e+14	1.135457e+14	6.639185e+03	2.914746e+03	1.540856e+03	0	3.407516e-04
1.280000e+09	1.415717e+12	0.000000e+00	6.532661e-01	4.054451e+13	1.829695e+14	1.130692e+14	6.637610e+03	2.913279e+03	1.540081e+03	0	3.401465e-04
1.290000e+09	1.408199e+12	0.000000e+00	6.532661e-01	4.045245e+13	1.821156e+14	1.125957e+14	6.636039e+03	2.911825e+03	1.539312e+03	0	3.395432e-04
1.300000e+09	1.400731e+12	0.000000e+00	6.532661e-01	4.036099e+13	1.812719e+14	1.121254e+14	6.634472e+03	2.910386e+03	1.538552e+03	0	3.389419e-04
1.310000e+09	1.393312e+12	0.000000e+00	6.532661e-01	4.027011e+13	1.804381e+14	1.116581e+14	6.632908e+03	2.908961e+03	1.537798e+03	0	3.383425e-04
1.320000e+09	1.385941e+12	0.000000e+00	6.532661e-01	4.017979e+13	1.796139e+14	1.111939e+14	6.631347e+03	2.907550e+03	1.537052e+03	0	3.377448e-04
1.330000e+09	1.378619e+12	0.000000e+00	6.532661e-01	4.009004e+13	1.787993e+14	1.107327e+14	6.629790e+03	2.906151e+03	1.536313e+03	0	3.371490e-04
1.340000e+09	1.371344e+12	0.000000e+00	6.532661e-01	4.000084e+13	1.779940e+14	1.102746e+14	6.628237e+03	2.904766e+03	1.535580e+03	0	3.365549e-04
1.350000e+09	1.364114e+12	0.000000e+00	6.532661e-01	3.991219e+13	1.771977e+14	1.098194e+14	6.626687e+03	2.903393e+03	1.534855e+03	0	3.359624e-04
1.360000e+09	1.356931e+12	0.000000e+00	6.532661e-01	3.982407e+13	1.764104e+14	1.093672e+14	6.625140e+03	2.902033e+03	1.534136e+03	0	3.353716e-04
