#t		Qconv[W]	Ri[Rp]		R*[Rp]		Qc[W]		Qm[W]		Qr[W]		Tcmb[K]		Tl[K]		Tup[K]		RiFlag		Bs[T]
0.000000e+00	5.371720e+12	0.000000e+00	6.532664e-01	9.067555e+13	2.501399e+15	2.289811e+14	7.215272e+03	4.502136e+03	2.321458e+03	0	5.278620e-04
1.000000e+07	5.279114e+12	0.000000e+00	6.532664e-01	8.964628e+13	2.242168e+15	2.277124e+14	7.212143e+03	4.407342e+03	2.272579e+03	0	5.248111e-04
2.000000e+07	5.177987e+12	0.000000e+00	6.532664e-01	8.852372e+13	2.027100e+15	2.264532e+14	7.209050e+03	4.323365e+03	2.229278e+03	0	5.214383e-04
3.000000e+07	5.073173e+12	0.000000e+00	6.532664e-01	8.736091e+13	1.846513e+15	2.252033e+14	7.205995e+03	4.248398e+03	2.190622e+03	0	5.178960e-04
4.000000e+07	4.967705e+12	0.000000e+00	6.532664e-01	8.619109e+13	1.693245e+15	2.239628e+14	7.202980e+03	4.181019e+03	2.155879e+03	0	5.142819e-04
5.000000e+07	4.863472e+12	0.000000e+00	6.532664e-01	8.503501e+13	1.561908e+15	2.227316e+14	7.200006e+03	4.120096e+03	2.124465e+03	0	5.106595e-04
6.000000e+07	4.761635e+12	0.000000e+00	6.532664e-01	8.390536e+13	1.448390e+15	2.215095e+14	7.197071e+03	4.064714e+03	2.095908e+03	0	5.070701e-04
7.000000e+07	4.662879e+12	0.000000e+00	6.532664e-01	8.280968e+13	1.349507e+15	2.202966e+14	7.194176e+03	4.014128e+03	2.069824e+03	0	5.035401e-04
8.000000e+07	4.567581e+12	0.000000e+00	6.532664e-01	8.175208e+13	1.262763e+15	2.190926e+14	7.191318e+03	3.967723e+03	2.045896e+03	0	5.000860e-04
9.000000e+07	4.475916e+12	0.000000e+00	6.532664e-01	8.073448e+13	1.186180e+15	2.178977e+14	7.188496e+03	3.924986e+03	2.023859e+03	0	4.967181e-04
1.000000e+08	4.387927e+12	0.000000e+00	6.532664e-01	7.975734e+13	1.118169e+15	2.167115e+14	7.185710e+03	3.885488e+03	2.003493e+03	0	4.934416e-04
1.100000e+08	4.303574e+12	0.000000e+00	6.532664e-01	7.882022e+13	1.057448e+15	2.155342e+14	7.182957e+03	3.848864e+03	1.984609e+03	0	4.902592e-04
1.200000e+08	4.222761e+12	0.000000e+00	6.532664e-01	7.792207e+13	1.002968e+15	2.143656e+14	7.180237e+03	3.814806e+03	1.967047e+03	0	4.871711e-04
1.300000e+08	4.145362e+12	0.000000e+00	6.532664e-01	7.706149e+13	9.538646e+14	2.132057e+14	7.177547e+03	3.783046e+03	1.950670e+03	0	4.841762e-04
1.400000e+08	4.071231e+12	0.000000e+00	6.532664e-01	7.623687e+13	9.094218e+14	2.120543e+14	7.174888e+03	3.753355e+03	1.935361e+03	0	4.812727e-04
1.500000e+08	4.000213e+12	0.000000e+00	6.532664e-01	7.544652e+13	8.690406e+14	2.109115e+14	7.172256e+03	3.725534e+03	1.921015e+03	0	4.784578e-04
1.600000e+08	3.932150e+12	0.000000e+00	6.532664e-01	7.468869e+13	8.322169e+14	2.097771e+14	7.169652e+03	3.699409e+03	1.907544e+03	0	4.757287e-04
1.700000e+08	3.866887e+12	0.000000e+00	6.532664e-01	7.396169e+13	7.985243e+14	2.086511e+14	7.167074e+03	3.674826e+03	1.894868e+03	0	4.730821e-04
1.800000e+08	3.804272e+12	0.000000e+00	6.532664e-01	7.326382e+13	7.675996e+14	2.075333e+14	7.164522e+03	3.651652e+03	1.882919e+03	0	4.705147e-04
1.900000e+08	3.744159e+12	0.000000e+00	6.532664e-01	7.259349e+13	7.391317e+14	2.064239e+14	7.161993e+03	3.629768e+03	1.871635e+03	0	4.680232e-04
2.000000e+08	3.686407e+12	0.000000e+00	6.532664e-01	7.194917e+13	7.128531e+14	2.053225e+14	7.159487e+03	3.609067e+03	1.860961e+03	0	4.656044e-04
2.100000e+08	3.630884e+12	0.000000e+00	6.532664e-01	7.132939e+13	6.885326e+14	2.042293e+14	7.157004e+03	3.589456e+03	1.850848e+03	0	4.632550e-04
2.200000e+08	3.577466e+12	0.000000e+00	6.532664e-01	7.073277e+13	6.659692e+14	2.031441e+14	7.154542e+03	3.570850e+03	1.841254e+03	0	4.609719e-04
2.300000e+08	3.526035e+12	0.000000e+00	6.532664e-01	7.015804e+13	6.449878e+14	2.020669e+14	7.152100e+03	3.553173e+03	1.832140e+03	0	4.587522e-04
2.400000e+08	3.476480e+12	0.000000e+00	6.532664e-01	6.960397e+13	6.254350e+14	2.009975e+14	7.149678e+03	3.536357e+03	1.823469e+03	0	4.565930e-04
2.500000e+08	3.428697e+12	0.000000e+00	6.532664e-01	6.906942e+13	6.071761e+14	1.999360e+14	7.147276e+03	3.520341e+03	1.815210e+03	0	4.544914e-04
2.600000e+08	3.382590e+12	0.000000e+00	6.532664e-01	6.855332e+13	5.900921e+14	1.988823e+14	7.144892e+03	3.505068e+03	1.807335e+03	0	4.524450e-04
2.700000e+08	3.338068e+12	0.000000e+00	6.532664e-01	6.805468e+13	5.740779e+14	1.978362e+14	7.142525e+03	3.490489e+03	1.799817e+03	0	4.504512e-04
2.800000e+08	3.295045e+12	0.000000e+00	6.532664e-01	6.757256e+13	5.590400e+14	1.967978e+14	7.140176e+03	3.476556e+03	1.792633e+03	0	4.485076e-04
2.900000e+08	3.253442e+12	0.000000e+00	6.532664e-01	6.710608e+13	5.448952e+14	1.957670e+14	7.137844e+03	3.463228e+03	1.785761e+03	0	4.466120e-04
3.000000e+08	3.213185e+12	0.000000e+00	6.532664e-01	6.665442e+13	5.315693e+14	1.947437e+14	7.135527e+03	3.450466e+03	1.779180e+03	0	4.447622e-04
3.100000e+08	3.174202e+12	0.000000e+00	6.532664e-01	6.621682e+13	5.189958e+14	1.937279e+14	7.133226e+03	3.438235e+03	1.772874e+03	0	4.429563e-04
3.200000e+08	3.136431e+12	0.000000e+00	6.532664e-01	6.579256e+13	5.071148e+14	1.927194e+14	7.130941e+03	3.426503e+03	1.766824e+03	0	4.411922e-04
3.300000e+08	3.099808e+12	0.000000e+00	6.532664e-01	6.538096e+13	4.958727e+14	1.917183e+14	7.128670e+03	3.415239e+03	1.761016e+03	0	4.394683e-04
3.400000e+08	3.064276e+12	0.000000e+00	6.532664e-01	6.498140e+13	4.852208e+14	1.907244e+14	7.126413e+03	3.404417e+03	1.755436e+03	0	4.377827e-04
3.500000e+08	3.029783e+12	0.000000e+00	6.532664e-01	6.459327e+13	4.751154e+14	1.897378e+14	7.124169e+03	3.394010e+03	1.750070e+03	0	4.361339e-04
3.600000e+08	2.996277e+12	0.000000e+00	6.532664e-01	6.421603e+13	4.655166e+14	1.887583e+14	7.121940e+03	3.383996e+03	1.744906e+03	0	4.345202e-04
3.700000e+08	2.963711e+12	0.000000e+00	6.532664e-01	6.384916e+13	4.563883e+14	1.877859e+14	7.119723e+03	3.374352e+03	1.739933e+03	0	4.329402e-04
3.800000e+08	2.932040e+12	0.000000e+00	6.532664e-01	6.349216e+13	4.476977e+14	1.868205e+14	7.117519e+03	3.365059e+03	1.735141e+03	0	4.313925e-04
3.900000e+08	2.901222e+12	0.000000e+00	6.532664e-01	6.314457e+13	4.394147e+14	1.858622e+14	7.115327e+03	3.356097e+03	1.730520e+03	0	4.298758e-04
4.000000e+08	2.871219e+12	0.000000e+00	6.532664e-01	6.280596e+13	4.315119e+14	1.849107e+14	7.113147e+03	3.347449e+03	1.726061e+03	0	4.283888e-04
4.100000e+08	2.841993e+12	0.000000e+00	6.532664e-01	6.247593e+13	4.239643e+14	1.839661e+14	7.110979e+03	3.339099e+03	1.721756e+03	0	4.269303e-04
4.200000e+08	2.813508e+12	0.000000e+00	6.532664e-01	6.215408e+13	4.167489e+14	1.830283e+14	7.108822e+03	3.331032e+03	1.717596e+03	0	4.254992e-04
4.300000e+08	2.785733e+12	0.000000e+00	6.532664e-01	6.184005e+13	4.098446e+14	1.820973e+14	7.106677e+03	3.323233e+03	1.713574e+03	0	4.240943e-04
4.400000e+08	2.758636e+12	0.000000e+00	6.532664e-01	6.153351e+13	4.032319e+14	1.811729e+14	7.104542e+03	3.315689e+03	1.709685e+03	0	4.227148e-04
4.500000e+08	2.732187e+12	0.000000e+00	6.532664e-01	6.123413e+13	3.968930e+14	1.802552e+14	7.102418e+03	3.308388e+03	1.705920e+03	0	4.213595e-04
4.600000e+08	2.706360e+12	0.000000e+00	6.532664e-01	6.094160e+13	3.908115e+14	1.793441e+14	7.100304e+03	3.301318e+03	1.702275e+03	0	4.200276e-04
4.700000e+08	2.681127e+12	0.000000e+00	6.532664e-01	6.065564e+13	3.849720e+14	1.784396e+14	7.098200e+03	3.294469e+03	1.698743e+03	0	4.187181e-04
4.800000e+08	2.656464e+12	0.000000e+00	6.532664e-01	6.037597e+13	3.793604e+14	1.775415e+14	7.096106e+03	3.287829e+03	1.695319e+03	0	4.174303e-04
4.900000e+08	2.632347e+12	0.000000e+00	6.532664e-01	6.010234e+13	3.739638e+14	1.766498e+14	7.094022e+03	3.281390e+03	1.691999e+03	0	4.161632e-04
5.000000e+08	2.608755e+12	0.000000e+00	6.532664e-01	5.983450e+13	3.687699e+14	1.757645e+14	7.091947e+03	3.275141e+03	1.688777e+03	0	4.149162e-04
5.100000e+08	2.585666e+12	0.000000e+00	6.532664e-01	5.957222e+13	3.637676e+14	1.748855e+14	7.089881e+03	3.269076e+03	1.685649e+03	0	4.136885e-04
5.200000e+08	2.563061e+12	0.000000e+00	6.532664e-01	5.931527e+13	3.589463e+14	1.740129e+14	7.087825e+03	3.263185e+03	1.682612e+03	0	4.124794e-04
5.300000e+08	2.540920e+12	0.000000e+00	6.532664e-01	5.906346e+13	3.542965e+14	1.731464e+14	7.085777e+03	3.257461e+03	1.679660e+03	0	4.112883e-04
5.400000e+08	2.519225e+12	0.000000e+00	6.532664e-01	5.881659e+13	3.498088e+14	1.722861e+14	7.083738e+03	3.251896e+03	1.676791e+03	0	4.101144e-04
5.500000e+08	2.497960e+12	0.000000e+00	6.532664e-01	5.857446e+13	3.454750e+14	1.714319e+14	7.081707e+03	3.246485e+03	1.674001e+03	0	4.089572e-04
5.600000e+08	2.477108e+12	0.000000e+00	6.532664e-01	5.833690e+13	3.412871e+14	1.705838e+14	7.079685e+03	3.241220e+03	1.671286e+03	0	4.078160e-04
5.700000e+08	2.456654e+12	0.000000e+00	6.532664e-01	5.810373e+13	3.372378e+14	1.697418e+14	7.077671e+03	3.236096e+03	1.668644e+03	0	4.066905e-04
5.800000e+08	2.436583e+12	0.000000e+00	6.532664e-01	5.787480e+13	3.333200e+14	1.689056e+14	7.075665e+03	3.231106e+03	1.666071e+03	0	4.055799e-04
5.900000e+08	2.416881e+12	0.000000e+00	6.532664e-01	5.764996e+13	3.295274e+14	1.680755e+14	7.073667e+03	3.226246e+03	1.663565e+03	0	4.044837e-04
6.000000e+08	2.397535e+12	0.000000e+00	6.532664e-01	5.742905e+13	3.258539e+14	1.672512e+14	7.071677e+03	3.221509e+03	1.661122e+03	0	4.034016e-04
6.100000e+08	2.378532e+12	0.000000e+00	6.532664e-01	5.721194e+13	3.222937e+14	1.664327e+14	7.069695e+03	3.216892e+03	1.658741e+03	0	4.023330e-04
6.200000e+08	2.359860e+12	0.000000e+00	6.532664e-01	5.699849e+13	3.188415e+14	1.656200e+14	7.067719e+03	3.212389e+03	1.656420e+03	0	4.012774e-04
6.300000e+08	2.341507e+12	0.000000e+00	6.532664e-01	5.678857e+13	3.154924e+14	1.648131e+14	7.065752e+03	3.207996e+03	1.654154e+03	0	4.002345e-04
6.400000e+08	2.323463e+12	0.000000e+00	6.532664e-01	5.658208e+13	3.122415e+14	1.640118e+14	7.063791e+03	3.203709e+03	1.651944e+03	0	3.992037e-04
6.500000e+08	2.305718e+12	0.000000e+00	6.532664e-01	5.637888e+13	3.090844e+14	1.632162e+14	7.061838e+03	3.199523e+03	1.649786e+03	0	3.981848e-04
6.600000e+08	2.288260e+12	0.000000e+00	6.532664e-01	5.617887e+13	3.060169e+14	1.624262e+14	7.059891e+03	3.195436e+03	1.647678e+03	0	3.971773e-04
6.700000e+08	2.271081e+12	0.000000e+00	6.532664e-01	5.598195e+13	3.030350e+14	1.616417e+14	7.057952e+03	3.191442e+03	1.645619e+03	0	3.961809e-04
6.800000e+08	2.254171e+12	0.000000e+00	6.532664e-01	5.578801e+13	3.001351e+14	1.608628e+14	7.056019e+03	3.187540e+03	1.643606e+03	0	3.951952e-04
6.900000e+08	2.237522e+12	0.000000e+00	6.532664e-01	5.559696e+13	2.973136e+14	1.600893e+14	7.054093e+03	3.183725e+03	1.641639e+03	0	3.942198e-04
7.000000e+08	2.221125e+12	0.000000e+00	6.532664e-01	5.540870e+13	2.945671e+14	1.593212e+14	7.052174e+03	3.179994e+03	1.639716e+03	0	3.932545e-04
7.100000e+08	2.204972e+12	0.000000e+00	6.532664e-01	5.522315e+13	2.918926e+14	1.585585e+14	7.050261e+03	3.176344e+03	1.637834e+03	0	3.922988e-04
7.200000e+08	2.189056e+12	0.000000e+00	6.532664e-01	5.504023e+13	2.892869e+14	1.578012e+14	7.048354e+03	3.172773e+03	1.635992e+03	0	3.913527e-04
7.300000e+08	2.173369e+12	0.000000e+00	6.532664e-01	5.485984e+13	2.867474e+14	1.570491e+14	7.046454e+03	3.169278e+03	1.634190e+03	0	3.904156e-04
7.400000e+08	2.157904e+12	0.000000e+00	6.532664e-01	5.468192e+13	2.842713e+14	1.563023e+14	7.044560e+03	3.165855e+03	1.632425e+03	0	3.894874e-04
7.500000e+08	2.142655e+12	0.000000e+00	6.532664e-01	5.450638e+13	2.818561e+14	1.555607e+14	7.042672e+03	3.162503e+03	1.630697e+03	0	3.885677e-04
7.600000e+08	2.127614e+12	0.000000e+00	6.532664e-01	5.433316e+13	2.794993e+14	1.548243e+14	7.040790e+03	3.159219e+03	1.629003e+03	0	3.876564e-04
7.700000e+08	2.112777e+12	0.000000e+00	6.532664e-01	5.416220e+13	2.771987e+14	1.540930e+14	7.038914e+03	3.156001e+03	1.627344e+03	0	3.867531e-04
7.800000e+08	2.098135e+12	0.000000e+00	6.532664e-01	5.399341e+13	2.749522e+14	1.533667e+14	7.037045e+03	3.152846e+03	1.625717e+03	0	3.858577e-04
7.900000e+08	2.083685e+12	0.000000e+00	6.532664e-01	5.382675e+13	2.727576e+14	1.526455e+14	7.035180e+03	3.149753e+03	1.624122e+03	0	3.849698e-04
8.000000e+08	2.069421e+12	0.000000e+00	6.532664e-01	5.366214e+13	2.706131e+14	1.519294e+14	7.033322e+03	3.146719e+03	1.622558e+03	0	3.840893e-04
8.100000e+08	2.055337e+12	0.000000e+00	6.532664e-01	5.349954e+13	2.685166e+14	1.512181e+14	7.031469e+03	3.143743e+03	1.621023e+03	0	3.832160e-04
8.200000e+08	2.041428e+12	0.000000e+00	6.532664e-01	5.333888e+13	2.664666e+14	1.505118e+14	7.029622e+03	3.140822e+03	1.619517e+03	0	3.823496e-04
8.300000e+08	2.027689e+12	0.000000e+00	6.532664e-01	5.318012e+13	2.644612e+14	1.498104e+14	7.027781e+03	3.137955e+03	1.618039e+03	0	3.814899e-04
8.400000e+08	2.014116e+12	0.000000e+00	6.532664e-01	5.302320e+13	2.624988e+14	1.491138e+14	7.025945e+03	3.135140e+03	1.616587e+03	0	3.806368e-04
8.500000e+08	2.000704e+12	0.000000e+00	6.532664e-01	5.286806e+13	2.605780e+14	1.484221e+14	7.024114e+03	3.132376e+03	1.615162e+03	0	3.797900e-04
8.600000e+08	1.987448e+12	0.000000e+00	6.532664e-01	5.271467e+13	2.586972e+14	1.477351e+14	7.022289e+03	3.129660e+03	1.613762e+03	0	3.789494e-04
8.700000e+08	1.974346e+12	0.000000e+00	6.532664e-01	5.256298e+13	2.568551e+14	1.470528e+14	7.020469e+03	3.126992e+03	1.612386e+03	0	3.781148e-04
8.800000e+08	1.961392e+12	0.000000e+00	6.532664e-01	5.241293e+13	2.550503e+14	1.463752e+14	7.018654e+03	3.124370e+03	1.611034e+03	0	3.772861e-04
8.900000e+08	1.948582e+12	0.000000e+00	6.532664e-01	5.226450e+13	2.532815e+14	1.457023e+14	7.016845e+03	3.121792e+03	1.609705e+03	0	3.764629e-04
9.000000e+08	1.935914e+12	0.000000e+00	6.532664e-01	5.211763e+13	2.515476e+14	1.450340e+14	7.015040e+03	3.119257e+03	1.608398e+03	0	3.756453e-04
9.100000e+08	1.923383e+12	0.000000e+00	6.532664e-01	5.197230e+13	2.498474e+14	1.443703e+14	7.013241e+03	3.116764e+03	1.607112e+03	0	3.748330e-04
9.200000e+08	1.910985e+12	0.000000e+00	6.532664e-01	5.182845e+13	2.481797e+14	1.437111e+14	7.011446e+03	3.114312e+03	1.605848e+03	0	3.740260e-04
9.300000e+08	1.898719e+12	0.000000e+00	6.532664e-01	5.168606e+13	2.465435e+14	1.430564e+14	7.009657e+03	3.111899e+03	1.604603e+03	0	3.732240e-04
9.400000e+08	1.886579e+12	0.000000e+00	6.532664e-01	5.154509e+13	2.449377e+14	1.424062e+14	7.007872e+03	3.109524e+03	1.603379e+03	0	3.724269e-04
9.500000e+08	1.874564e+12	0.000000e+00	6.532664e-01	5.140549e+13	2.433615e+14	1.417605e+14	7.006093e+03	3.107187e+03	1.602174e+03	0	3.716346e-04
9.600000e+08	1.862670e+12	0.000000e+00	6.532664e-01	5.126725e+13	2.418138e+14	1.411191e+14	7.004318e+03	3.104885e+03	1.600987e+03	0	3.708469e-04
9.700000e+08	1.850895e+12	0.000000e+00	6.532664e-01	5.113033e+13	2.402937e+14	1.404822e+14	7.002548e+03	3.102619e+03	1.599818e+03	0	3.700638e-04
9.800000e+08	1.839235e+12	0.000000e+00	6.532664e-01	5.099470e+13	2.388005e+14	1.398495e+14	7.000783e+03	3.100386e+03	1.598667e+03	0	3.692850e-04
9.900000e+08	1.827687e+12	0.000000e+00	6.532664e-01	5.086032e+13	2.373332e+14	1.392212e+14	6.999022e+03	3.098186e+03	1.597533e+03	0	3.685106e-04
1.000000e+09	1.816250e+12	0.000000e+00	6.532664e-01	5.072717e+13	2.358911e+14	1.385971e+14	6.997266e+03	3.096019e+03	1.596415e+03	0	3.677403e-04
1.010000e+09	1.804921e+12	0.000000e+00	6.532664e-01	5.059522e+13	2.344735e+14	1.379772e+14	6.995515e+03	3.093883e+03	1.595314e+03	0	3.669741e-04
1.020000e+09	1.793697e+12	0.000000e+00	6.532664e-01	5.046445e+13	2.330795e+14	1.373616e+14	6.993768e+03	3.091777e+03	1.594228e+03	0	3.662118e-04
1.030000e+09	1.782576e+12	0.000000e+00	6.532664e-01	5.033482e+13	2.317085e+14	1.367501e+14	6.992025e+03	3.089701e+03	1.593157e+03	0	3.654534e-04
1.040000e+09	1.771555e+12	0.000000e+00	6.532664e-01	5.020632e+13	2.303599e+14	1.361427e+14	6.990287e+03	3.087653e+03	1.592101e+03	0	3.646987e-04
1.050000e+09	1.760633e+12	0.000000e+00	6.532664e-01	5.007892e+13	2.290330e+14	1.355395e+14	6.988554e+03	3.085633e+03	1.591060e+03	0	3.639476e-04
1.060000e+09	1.749807e+12	0.000000e+00	6.532664e-01	4.995259e+13	2.277271e+14	1.349403e+14	6.986825e+03	3.083641e+03	1.590033e+03	0	3.632001e-04
1.070000e+09	1.739075e+12	0.000000e+00	6.532664e-01	4.982731e+13	2.264417e+14	1.343451e+14	6.985100e+03	3.081675e+03	1.589019e+03	0	3.624561e-04
1.080000e+09	1.728435e+12	0.000000e+00	6.532664e-01	4.970307e+13	2.251761e+14	1.337540e+14	6.983380e+03	3.079735e+03	1.588018e+03	0	3.617154e-04
1.090000e+09	1.717886e+12	0.000000e+00	6.532664e-01	4.957983e+13	2.239299e+14	1.331668e+14	6.981664e+03	3.077819e+03	1.587031e+03	0	3.609780e-04
1.100000e+09	1.707425e+12	0.000000e+00	6.532664e-01	4.945758e+13	2.227025e+14	1.325836e+14	6.979952e+03	3.075929e+03	1.586056e+03	0	3.602438e-04
1.110000e+09	1.697051e+12	0.000000e+00	6.532664e-01	4.933630e+13	2.214935e+14	1.320043e+14	6.978244e+03	3.074062e+03	1.585093e+03	0	3.595127e-04
1.120000e+09	1.686761e+12	0.000000e+00	6.532664e-01	4.921596e+13	2.203022e+14	1.314289e+14	6.976541e+03	3.072218e+03	1.584143e+03	0	3.587846e-04
1.130000e+09	1.676555e+12	0.000000e+00	6.532664e-01	4.909656e+13	2.191282e+14	1.308573e+14	6.974842e+03	3.070397e+03	1.583204e+03	0	3.580595e-04
1.140000e+09	1.666430e+12	0.000000e+00	6.532664e-01	4.897807e+13	2.179711e+14	1.302895e+14	6.973147e+03	3.068598e+03	1.582276e+03	0	3.573373e-04
1.150000e+09	1.656385e+12	0.000000e+00	6.532664e-01	4.886047e+13	2.168304e+14	1.297256e+14	6.971456e+03	3.066820e+03	1.581359e+03	0	3.566178e-04
1.160000e+09	1.646418e+12	0.000000e+00	6.532664e-01	4.874375e+13	2.157057e+14	1.291653e+14	6.969769e+03	3.065064e+03	1.580454e+03	0	3.559011e-04
1.170000e+09	1.636528e+12	0.000000e+00	6.532664e-01	4.862789e+13	2.145967e+14	1.286089e+14	6.968086e+03	3.063328e+03	1.579558e+03	0	3.551871e-04
1.180000e+09	1.626714e+12	0.000000e+00	6.532664e-01	4.851287e+13	2.135028e+14	1.280561e+14	6.966407e+03	3.061611e+03	1.578673e+03	0	3.544756e-04
1.190000e+09	1.616973e+12	0.000000e+00	6.532664e-01	4.839868e+13	2.124237e+14	1.275070e+14	6.964732e+03	3.059915e+03	1.577799e+03	0	3.537666e-04
1.200000e+09	1.607305e+12	0.000000e+00	6.532664e-01	4.828531e+13	2.113591e+14	1.269615e+14	6.963060e+03	3.058237e+03	1.576933e+03	0	3.530602e-04
1.210000e+09	1.597708e+12	0.000000e+00	6.532664e-01	4.817273e+13	2.103085e+14	1.264197e+14	6.961393e+03	3.056578e+03	1.576078e+03	0	3.523561e-04
1.220000e+09	1.588181e+12	0.000000e+00	6.532664e-01	4.806094e+13	2.092717e+14	1.258815e+14	6.959730e+03	3.054936e+03	1.575232e+03	0	3.516543e-04
1.230000e+09	1.578723e+12	0.000000e+00	6.532664e-01	4.794991e+13	2.082483e+14	1.253468e+14	6.958071e+03	3.053313e+03	1.574395e+03	0	3.509549e-04
1.240000e+09	1.569332e+12	0.000000e+00	6.532664e-01	4.783964e+13	2.072380e+14	1.248156e+14	6.956415e+03	3.051707e+03	1.573566e+03	0	3.502576e-04
1.250000e+09	1.560007e+12	0.000000e+00	6.532664e-01	4.773012e+13	2.062405e+14	1.242880e+14	6.954763e+03	3.050117e+03	1.572747e+03	0	3.495625e-04
1.260000e+09	1.550748e+12	0.000000e+00	6.532664e-01	4.762133e+13	2.052554e+14	1.237638e+14	6.953115e+03	3.048544e+03	1.571936e+03	0	3.488695e-04
1.270000e+09	1.541552e+12	0.000000e+00	6.532664e-01	4.751325e+13	2.042825e+14	1.232431e+14	6.951471e+03	3.046988e+03	1.571133e+03	0	3.481786e-04
1.280000e+09	1.532420e+12	0.000000e+00	6.532664e-01	4.740588e+13	2.033216e+14	1.227258e+14	6.949831e+03	3.045447e+03	1.570338e+03	0	3.474897e-04
1.290000e+09	1.523349e+12	0.000000e+00	6.532664e-01	4.729921e+13	2.023723e+14	1.222119e+14	6.948194e+03	3.043921e+03	1.569552e+03	0	3.468027e-04
1.300000e+09	1.514339e+12	0.000000e+00	6.532664e-01	4.719321e+13	2.014343e+14	1.217014e+14	6.946561e+03	3.042410e+03	1.568773e+03	0	3.461176e-04
1.310000e+09	1.505389e+12	0.000000e+00	6.532664e-01	4.708789e+13	2.005074e+14	1.211942e+14	6.944931e+03	3.040914e+03	1.568001e+03	0	3.454344e-04
1.320000e+09	1.496498e+12	0.000000e+00	6.532664e-01	4.698323e+13	1.995915e+14	1.206904e+14	6.943305e+03	3.039432e+03	1.567237e+03	0	3.447529e-04
1.330000e+09	1.487664e+12	0.000000e+00	6.532664e-01	4.687923e+13	1.986861e+14	1.201898e+14	6.941683e+03	3.037965e+03	1.566480e+03	0	3.440733e-04
1.340000e+09	1.478888e+12	0.000000e+00	6.532664e-01	4.677586e+13	1.977912e+14	1.196926e+14	6.940064e+03	3.036511e+03	1.565731e+03	0	3.433953e-04
1.350000e+09	1.470167e+12	0.000000e+00	6.532664e-01	4.667312e+13	1.969064e+14	1.191985e+14	6.938449e+03	3.035071e+03	1.564988e+03	0	3.427190e-04
1.360000e+09	1.461502e+12	0.000000e+00	6.532664e-01	4.657100e+13	1.960316e+14	1.187077e+14	6.936838e+03	3.033643e+03	1.564252e+03	0	3.420444e-04
