#t		Qconv[W]	Ri[Rp]		R*[Rp]		Qc[W]		Qm[W]		Qr[W]		Tcmb[K]		Tl[K]		Tup[K]		RiFlag		Bs[T]
0.000000e+00	7.227056e+12	0.000000e+00	6.532665e-01	1.259975e+14	2.814572e+15	2.729188e+14	8.077438e+03	4.929591e+03	2.386405e+03	0	5.783667e-04
1.000000e+07	7.086199e+12	0.000000e+00	6.532665e-01	1.245681e+14	2.552982e+15	2.714066e+14	8.074065e+03	4.838702e+03	2.342406e+03	0	5.745845e-04
2.000000e+07	6.938907e+12	0.000000e+00	6.532665e-01	1.230747e+14	2.332071e+15	2.699058e+14	8.070731e+03	4.757270e+03	2.302985e+03	0	5.705755e-04
3.000000e+07	6.789588e+12	0.000000e+00	6.532665e-01	1.215613e+14	2.143636e+15	2.684161e+14	8.067437e+03	4.683846e+03	2.267440e+03	0	5.664530e-04
4.000000e+07	6.641071e+12	0.000000e+00	6.532665e-01	1.200562e+14	1.981447e+15	2.669376e+14	8.064184e+03	4.617267e+03	2.235209e+03	0	5.622923e-04
5.000000e+07	6.495150e+12	0.000000e+00	6.532665e-01	1.185773e+14	1.840711e+15	2.654701e+14	8.060970e+03	4.556588e+03	2.205835e+03	0	5.581435e-04
6.000000e+07	6.352938e+12	0.000000e+00	6.532665e-01	1.171357e+14	1.717688e+15	2.640135e+14	8.057796e+03	4.501035e+03	2.178942e+03	0	5.540398e-04
7.000000e+07	6.215091e+12	0.000000e+00	6.532665e-01	1.157380e+14	1.609428e+15	2.625678e+14	8.054661e+03	4.449965e+03	2.154219e+03	0	5.500033e-04
8.000000e+07	6.081963e+12	0.000000e+00	6.532665e-01	1.143876e+14	1.513575e+15	2.611329e+14	8.051563e+03	4.402841e+03	2.131406e+03	0	5.460479e-04
9.000000e+07	5.953706e+12	0.000000e+00	6.532665e-01	1.130862e+14	1.428234e+15	2.597086e+14	8.048501e+03	4.359210e+03	2.110285e+03	0	5.421822e-04
1.000000e+08	5.830336e+12	0.000000e+00	6.532665e-01	1.118338e+14	1.351861e+15	2.582949e+14	8.045474e+03	4.318687e+03	2.090668e+03	0	5.384111e-04
1.100000e+08	5.711782e+12	0.000000e+00	6.532665e-01	1.106297e+14	1.283191e+15	2.568916e+14	8.042480e+03	4.280944e+03	2.072396e+03	0	5.347367e-04
1.200000e+08	5.597913e+12	0.000000e+00	6.532665e-01	1.094726e+14	1.221177e+15	2.554988e+14	8.039518e+03	4.245697e+03	2.055333e+03	0	5.311593e-04
1.300000e+08	5.488566e+12	0.000000e+00	6.532665e-01	1.083609e+14	1.164949e+15	2.541163e+14	8.036588e+03	4.212701e+03	2.039360e+03	0	5.276781e-04
1.400000e+08	5.383557e+12	0.000000e+00	6.532665e-01	1.072927e+14	1.113774e+15	2.527440e+14	8.033687e+03	4.181744e+03	2.024374e+03	0	5.242912e-04
1.500000e+08	5.282691e+12	0.000000e+00	6.532665e-01	1.062661e+14	1.067036e+15	2.513819e+14	8.030815e+03	4.152638e+03	2.010284e+03	0	5.209961e-04
1.600000e+08	5.185769e+12	0.000000e+00	6.532665e-01	1.052791e+14	1.024212e+15	2.500298e+14	8.027970e+03	4.125220e+03	1.997011e+03	0	5.177902e-04
1.700000e+08	5.092596e+12	0.000000e+00	6.532665e-01	1.043296e+14	9.848534e+14	2.486877e+14	8.025152e+03	4.099344e+03	1.984484e+03	0	5.146704e-04
1.800000e+08	5.002980e+12	0.000000e+00	6.532665e-01	1.034159e+14	9.485777e+14	2.473555e+14	8.022359e+03	4.074883e+03	1.972643e+03	0	5.116336e-04
1.900000e+08	4.916735e+12	0.000000e+00	6.532665e-01	1.025361e+14	9.150536e+14	2.460332e+14	8.019590e+03	4.051722e+03	1.961430e+03	0	5.086765e-04
2.000000e+08	4.833684e+12	0.000000e+00	6.532665e-01	1.016882e+14	8.839943e+14	2.447205e+14	8.016845e+03	4.029758e+03	1.950798e+03	0	5.057962e-04
2.100000e+08	4.753658e+12	0.000000e+00	6.532665e-01	1.008708e+14	8.551503e+14	2.434175e+14	8.014123e+03	4.008901e+03	1.940701e+03	0	5.029893e-04
2.200000e+08	4.676497e+12	0.000000e+00	6.532665e-01	1.000821e+14	8.283036e+14	2.421241e+14	8.011422e+03	3.989069e+03	1.931100e+03	0	5.002529e-04
2.300000e+08	4.602048e+12	0.000000e+00	6.532665e-01	9.932062e+13	8.032631e+14	2.408401e+14	8.008743e+03	3.970187e+03	1.921959e+03	0	4.975841e-04
2.400000e+08	4.530170e+12	0.000000e+00	6.532665e-01	9.858497e+13	7.798603e+14	2.395656e+14	8.006084e+03	3.952187e+03	1.913246e+03	0	4.949800e-04
2.500000e+08	4.460727e+12	0.000000e+00	6.532665e-01	9.787377e+13	7.579465e+14	2.383004e+14	8.003445e+03	3.935010e+03	1.904931e+03	0	4.924377e-04
2.600000e+08	4.393593e+12	0.000000e+00	6.532665e-01	9.718576e+13	7.373901e+14	2.370445e+14	8.000824e+03	3.918600e+03	1.896986e+03	0	4.899548e-04
2.700000e+08	4.328648e+12	0.000000e+00	6.532665e-01	9.651974e+13	7.180737e+14	2.357977e+14	7.998222e+03	3.902907e+03	1.889389e+03	0	4.875287e-04
2.800000e+08	4.265781e+12	0.000000e+00	6.532665e-01	9.587460e+13	6.998929e+14	2.345601e+14	7.995638e+03	3.887883e+03	1.882117e+03	0	4.851570e-04
2.900000e+08	4.204887e+12	0.000000e+00	6.532665e-01	9.524927e+13	6.827542e+14	2.333314e+14	7.993072e+03	3.873489e+03	1.875148e+03	0	4.828374e-04
3.000000e+08	4.145867e+12	0.000000e+00	6.532665e-01	9.464277e+13	6.665740e+14	2.321118e+14	7.990521e+03	3.859683e+03	1.868465e+03	0	4.805677e-04
3.100000e+08	4.088628e+12	0.000000e+00	6.532665e-01	9.405417e+13	6.512768e+14	2.309010e+14	7.987988e+03	3.846432e+03	1.862050e+03	0	4.783458e-04
3.200000e+08	4.033083e+12	0.000000e+00	6.532665e-01	9.348260e+13	6.367948e+14	2.296991e+14	7.985469e+03	3.833703e+03	1.855888e+03	0	4.761698e-04
3.300000e+08	3.979150e+12	0.000000e+00	6.532665e-01	9.292723e+13	6.230667e+14	2.285058e+14	7.982967e+03	3.821464e+03	1.849963e+03	0	4.740377e-04
3.400000e+08	3.926752e+12	0.000000e+00	6.532665e-01	9.238730e+13	6.100370e+14	2.273213e+14	7.980479e+03	3.809689e+03	1.844263e+03	0	4.719478e-04
3.500000e+08	3.875817e+12	0.000000e+00	6.532665e-01	9.186207e+13	5.976554e+14	2.261453e+14	7.978005e+03	3.798351e+03	1.838774e+03	0	4.698983e-04
3.600000e+08	3.826277e+12	0.000000e+00	6.532665e-01	9.135086e+13	5.858759e+14	2.249779e+14	7.975546e+03	3.787427e+03	1.833486e+03	0	4.678876e-04
3.700000e+08	3.778067e+12	0.000000e+00	6.532665e-01	9.085303e+13	5.746571e+14	2.238189e+14	7.973100e+03	3.776894e+03	1.828387e+03	0	4.659142e-04
3.800000e+08	3.731126e+12	0.000000e+00	6.532665e-01	9.036798e+13	5.639607e+14	2.226683e+14	7.970667e+03	3.766731e+03	1.823467e+03	0	4.639766e-04
3.900000e+08	3.685399e+12	0.000000e+00	6.532665e-01	8.989512e+13	5.537521e+14	2.215260e+14	7.968248e+03	3.756919e+03	1.818717e+03	0	4.620734e-04
4.000000e+08	3.640831e+12	0.000000e+00	6.532665e-01	8.943393e+13	5.439993e+14	2.203920e+14	7.965841e+03	3.747441e+03	1.814129e+03	0	4.602032e-04
4.100000e+08	3.597371e+12	0.000000e+00	6.532665e-01	8.898389e+13	5.346731e+14	2.192661e+14	7.963446e+03	3.738279e+03	1.809694e+03	0	4.583647e-04
4.200000e+08	3.554971e+12	0.000000e+00	6.532665e-01	8.854452e+13	5.257466e+14	2.181484e+14	7.961064e+03	3.729418e+03	1.805404e+03	0	4.565568e-04
4.300000e+08	3.513586e+12	0.000000e+00	6.532665e-01	8.811536e+13	5.171951e+14	2.170387e+14	7.958693e+03	3.720844e+03	1.801253e+03	0	4.547782e-04
4.400000e+08	3.473174e+12	0.000000e+00	6.532665e-01	8.769600e+13	5.089958e+14	2.159370e+14	7.956334e+03	3.712541e+03	1.797234e+03	0	4.530279e-04
4.500000e+08	3.433693e+12	0.000000e+00	6.532665e-01	8.728601e+13	5.011276e+14	2.148432e+14	7.953986e+03	3.704498e+03	1.793340e+03	0	4.513048e-04
4.600000e+08	3.395106e+12	0.000000e+00	6.532665e-01	8.688502e+13	4.935712e+14	2.137573e+14	7.951649e+03	3.696703e+03	1.789566e+03	0	4.496079e-04
4.700000e+08	3.357376e+12	0.000000e+00	6.532665e-01	8.649267e+13	4.863084e+14	2.126791e+14	7.949322e+03	3.689143e+03	1.785907e+03	0	4.479361e-04
4.800000e+08	3.320468e+12	0.000000e+00	6.532665e-01	8.610860e+13	4.793227e+14	2.116087e+14	7.947007e+03	3.681809e+03	1.782356e+03	0	4.462887e-04
4.900000e+08	3.284351e+12	0.000000e+00	6.532665e-01	8.573249e+13	4.725985e+14	2.105460e+14	7.944701e+03	3.674689e+03	1.778910e+03	0	4.446647e-04
5.000000e+08	3.248992e+12	0.000000e+00	6.532665e-01	8.536402e+13	4.661214e+14	2.094908e+14	7.942405e+03	3.667776e+03	1.775563e+03	0	4.430632e-04
5.100000e+08	3.214363e+12	0.000000e+00	6.532665e-01	8.500291e+13	4.598781e+14	2.084432e+14	7.940120e+03	3.661059e+03	1.772311e+03	0	4.414834e-04
5.200000e+08	3.180436e+12	0.000000e+00	6.532665e-01	8.464887e+13	4.538560e+14	2.074030e+14	7.937844e+03	3.654531e+03	1.769151e+03	0	4.399247e-04
5.300000e+08	3.147183e+12	0.000000e+00	6.532665e-01	8.430164e+13	4.480436e+14	2.063703e+14	7.935577e+03	3.648182e+03	1.766078e+03	0	4.383861e-04
5.400000e+08	3.114581e+12	0.000000e+00	6.532665e-01	8.396096e+13	4.424300e+14	2.053449e+14	7.933320e+03	3.642007e+03	1.763088e+03	0	4.368671e-04
5.500000e+08	3.082604e+12	0.000000e+00	6.532665e-01	8.362660e+13	4.370051e+14	2.043269e+14	7.931072e+03	3.635997e+03	1.760179e+03	0	4.353669e-04
5.600000e+08	3.051231e+12	0.000000e+00	6.532665e-01	8.329831e+13	4.317593e+14	2.033160e+14	7.928833e+03	3.630145e+03	1.757346e+03	0	4.338848e-04
5.700000e+08	3.020439e+12	0.000000e+00	6.532665e-01	8.297589e+13	4.266839e+14	2.023124e+14	7.926603e+03	3.624446e+03	1.754587e+03	0	4.324203e-04
5.800000e+08	2.990207e+12	0.000000e+00	6.532665e-01	8.265913e+13	4.217705e+14	2.013158e+14	7.924381e+03	3.618894e+03	1.751899e+03	0	4.309728e-04
5.900000e+08	2.960516e+12	0.000000e+00	6.532665e-01	8.234782e+13	4.170112e+14	2.003264e+14	7.922167e+03	3.613481e+03	1.749279e+03	0	4.295416e-04
6.000000e+08	2.931346e+12	0.000000e+00	6.532665e-01	8.204178e+13	4.123989e+14	1.993439e+14	7.919963e+03	3.608204e+03	1.746724e+03	0	4.281262e-04
6.100000e+08	2.902681e+12	0.000000e+00	6.532665e-01	8.174083e+13	4.079265e+14	1.983684e+14	7.917766e+03	3.603056e+03	1.744232e+03	0	4.267261e-04
6.200000e+08	2.874502e+12	0.000000e+00	6.532665e-01	8.144479e+13	4.035876e+14	1.973997e+14	7.915577e+03	3.598033e+03	1.741800e+03	0	4.253407e-04
6.300000e+08	2.846794e+12	0.000000e+00	6.532665e-01	8.115351e+13	3.993762e+14	1.964380e+14	7.913396e+03	3.593130e+03	1.739427e+03	0	4.239696e-04
6.400000e+08	2.819540e+12	0.000000e+00	6.532665e-01	8.086681e+13	3.952865e+14	1.954830e+14	7.911223e+03	3.588342e+03	1.737109e+03	0	4.226123e-04
6.500000e+08	2.792725e+12	0.000000e+00	6.532665e-01	8.058456e+13	3.913130e+14	1.945347e+14	7.909058e+03	3.583666e+03	1.734846e+03	0	4.212684e-04
6.600000e+08	2.766336e+12	0.000000e+00	6.532665e-01	8.030660e+13	3.874508e+14	1.935931e+14	7.906900e+03	3.579097e+03	1.732634e+03	0	4.199373e-04
6.700000e+08	2.740358e+12	0.000000e+00	6.532665e-01	8.003280e+13	3.836949e+14	1.926581e+14	7.904750e+03	3.574631e+03	1.730472e+03	0	4.186186e-04
6.800000e+08	2.714779e+12	0.000000e+00	6.532665e-01	7.976304e+13	3.800408e+14	1.917297e+14	7.902607e+03	3.570265e+03	1.728358e+03	0	4.173121e-04
6.900000e+08	2.689586e+12	0.000000e+00	6.532665e-01	7.949717e+13	3.764843e+14	1.908078e+14	7.900471e+03	3.565994e+03	1.726291e+03	0	4.160172e-04
7.000000e+08	2.664766e+12	0.000000e+00	6.532665e-01	7.923508e+13	3.730212e+14	1.898923e+14	7.898343e+03	3.561816e+03	1.724268e+03	0	4.147335e-04
7.100000e+08	2.640309e+12	0.000000e+00	6.532665e-01	7.897666e+13	3.696478e+14	1.889833e+14	7.896221e+03	3.557728e+03	1.722289e+03	0	4.134608e-04
7.200000e+08	2.616203e+12	0.000000e+00	6.532665e-01	7.872180e+13	3.663603e+14	1.880806e+14	7.894106e+03	3.553726e+03	1.720351e+03	0	4.121987e-04
7.300000e+08	2.592437e+12	0.000000e+00	6.532665e-01	7.847038e+13	3.631552e+14	1.871842e+14	7.891998e+03	3.549807e+03	1.718454e+03	0	4.109467e-04
7.400000e+08	2.569002e+12	0.000000e+00	6.532665e-01	7.822230e+13	3.600295e+14	1.862941e+14	7.889897e+03	3.545968e+03	1.716596e+03	0	4.097047e-04
7.500000e+08	2.545888e+12	0.000000e+00	6.532665e-01	7.797748e+13	3.569798e+14	1.854102e+14	7.887802e+03	3.542208e+03	1.714776e+03	0	4.084722e-04
7.600000e+08	2.523084e+12	0.000000e+00	6.532665e-01	7.773580e+13	3.540032e+14	1.845325e+14	7.885714e+03	3.538522e+03	1.712991e+03	0	4.072490e-04
7.700000e+08	2.500583e+12	0.000000e+00	6.532665e-01	7.749719e+13	3.510970e+14	1.836608e+14	7.883633e+03	3.534909e+03	1.711242e+03	0	4.060348e-04
7.800000e+08	2.478376e+12	0.000000e+00	6.532665e-01	7.726155e+13	3.482585e+14	1.827952e+14	7.881558e+03	3.531367e+03	1.709528e+03	0	4.048292e-04
7.900000e+08	2.456454e+12	0.000000e+00	6.532665e-01	7.702881e+13	3.454851e+14	1.819357e+14	7.879489e+03	3.527892e+03	1.707845e+03	0	4.036320e-04
8.000000e+08	2.434809e+12	0.000000e+00	6.532665e-01	7.679887e+13	3.427745e+14	1.810821e+14	7.877426e+03	3.524483e+03	1.706195e+03	0	4.024430e-04
8.100000e+08	2.413434e+12	0.000000e+00	6.532665e-01	7.657167e+13	3.401242e+14	1.802344e+14	7.875370e+03	3.521138e+03	1.704576e+03	0	4.012619e-04
8.200000e+08	2.392321e+12	0.000000e+00	6.532665e-01	7.634713e+13	3.375322e+14	1.793925e+14	7.873319e+03	3.517855e+03	1.702986e+03	0	4.000883e-04
8.300000e+08	2.371463e+12	0.000000e+00	6.532665e-01	7.612517e+13	3.349963e+14	1.785565e+14	7.871275e+03	3.514631e+03	1.701426e+03	0	3.989222e-04
8.400000e+08	2.350853e+12	0.000000e+00	6.532665e-01	7.590574e+13	3.325145e+14	1.777263e+14	7.869237e+03	3.511465e+03	1.699893e+03	0	3.977632e-04
8.500000e+08	2.330485e+12	0.000000e+00	6.532665e-01	7.568876e+13	3.300850e+14	1.769018e+14	7.867204e+03	3.508356e+03	1.698388e+03	0	3.966111e-04
8.600000e+08	2.310352e+12	0.000000e+00	6.532665e-01	7.547416e+13	3.277060e+14	1.760830e+14	7.865177e+03	3.505301e+03	1.696909e+03	0	3.954657e-04
8.700000e+08	2.290449e+12	0.000000e+00	6.532665e-01	7.526190e+13	3.253756e+14	1.752698e+14	7.863156e+03	3.502298e+03	1.695455e+03	0	3.943268e-04
8.800000e+08	2.270768e+12	0.000000e+00	6.532665e-01	7.505190e+13	3.230922e+14	1.744622e+14	7.861141e+03	3.499347e+03	1.694027e+03	0	3.931941e-04
8.900000e+08	2.251305e+12	0.000000e+00	6.532665e-01	7.484411e+13	3.208543e+14	1.736601e+14	7.859131e+03	3.496445e+03	1.692622e+03	0	3.920676e-04
9.000000e+08	2.232055e+12	0.000000e+00	6.532665e-01	7.463848e+13	3.186604e+14	1.728636e+14	7.857127e+03	3.493591e+03	1.691240e+03	0	3.909469e-04
9.100000e+08	2.213011e+12	0.000000e+00	6.532665e-01	7.443495e+13	3.165089e+14	1.720725e+14	7.855129e+03	3.490784e+03	1.689882e+03	0	3.898318e-04
9.200000e+08	2.194169e+12	0.000000e+00	6.532665e-01	7.423347e+13	3.143986e+14	1.712869e+14	7.853135e+03	3.488023e+03	1.688545e+03	0	3.887223e-04
9.300000e+08	2.175523e+12	0.000000e+00	6.532665e-01	7.403399e+13	3.123280e+14	1.705066e+14	7.851148e+03	3.485305e+03	1.687229e+03	0	3.876181e-04
9.400000e+08	2.157070e+12	0.000000e+00	6.532665e-01	7.383647e+13	3.102960e+14	1.697316e+14	7.849165e+03	3.482630e+03	1.685934e+03	0	3.865190e-04
9.500000e+08	2.138804e+12	0.000000e+00	6.532665e-01	7.364085e+13	3.083012e+14	1.689620e+14	7.847188e+03	3.479997e+03	1.684660e+03	0	3.854249e-04
9.600000e+08	2.120721e+12	0.000000e+00	6.532665e-01	7.344710e+13	3.063426e+14	1.681975e+14	7.845216e+03	3.477404e+03	1.683404e+03	0	3.843356e-04
9.700000e+08	2.102817e+12	0.000000e+00	6.532665e-01	7.325516e+13	3.044190e+14	1.674383e+14	7.843249e+03	3.474851e+03	1.682168e+03	0	3.832510e-04
9.800000e+08	2.085087e+12	0.000000e+00	6.532665e-01	7.306501e+13	3.025293e+14	1.666843e+14	7.841288e+03	3.472335e+03	1.680951e+03	0	3.821708e-04
9.900000e+08	2.067528e+12	0.000000e+00	6.532665e-01	7.287659e+13	3.006725e+14	1.659354e+14	7.839331e+03	3.469857e+03	1.679751e+03	0	3.810950e-04
1.000000e+09	2.050136e+12	0.000000e+00	6.532665e-01	7.268987e+13	2.988477e+14	1.651915e+14	7.837379e+03	3.467415e+03	1.678568e+03	0	3.800234e-04
1.010000e+09	2.032906e+12	0.000000e+00	6.532665e-01	7.250481e+13	2.970538e+14	1.644528e+14	7.835433e+03	3.465008e+03	1.677403e+03	0	3.789558e-04
1.020000e+09	2.015836e+12	0.000000e+00	6.532665e-01	7.232137e+13	2.952900e+14	1.637190e+14	7.833491e+03	3.462634e+03	1.676254e+03	0	3.778921e-04
1.030000e+09	1.998922e+12	0.000000e+00	6.532665e-01	7.213953e+13	2.935553e+14	1.629901e+14	7.831555e+03	3.460295e+03	1.675122e+03	0	3.768322e-04
1.040000e+09	1.982160e+12	0.000000e+00	6.532665e-01	7.195924e+13	2.918490e+14	1.622663e+14	7.829623e+03	3.457987e+03	1.674005e+03	0	3.757760e-04
1.050000e+09	1.965547e+12	0.000000e+00	6.532665e-01	7.178047e+13	2.901703e+14	1.615472e+14	7.827696e+03	3.455711e+03	1.672903e+03	0	3.747232e-04
1.060000e+09	1.949080e+12	0.000000e+00	6.532665e-01	7.160319e+13	2.885182e+14	1.608331e+14	7.825774e+03	3.453466e+03	1.671816e+03	0	3.736738e-04
1.070000e+09	1.932756e+12	0.000000e+00	6.532665e-01	7.142737e+13	2.868922e+14	1.601237e+14	7.823857e+03	3.451251e+03	1.670743e+03	0	3.726277e-04
1.080000e+09	1.916573e+12	0.000000e+00	6.532665e-01	7.125297e+13	2.852914e+14	1.594192e+14	7.821944e+03	3.449064e+03	1.669685e+03	0	3.715847e-04
1.090000e+09	1.900526e+12	0.000000e+00	6.532665e-01	7.107998e+13	2.837153e+14	1.587193e+14	7.820036e+03	3.446906e+03	1.668640e+03	0	3.705448e-04
1.100000e+09	1.884613e+12	0.000000e+00	6.532665e-01	7.090836e+13	2.821630e+14	1.580242e+14	7.818132e+03	3.444776e+03	1.667609e+03	0	3.695077e-04
1.110000e+09	1.868832e+12	0.000000e+00	6.532665e-01	7.073809e+13	2.806340e+14	1.573337e+14	7.816234e+03	3.442672e+03	1.666591e+03	0	3.684734e-04
1.120000e+09	1.853180e+12	0.000000e+00	6.532665e-01	7.056913e+13	2.791277e+14	1.566479e+14	7.814339e+03	3.440595e+03	1.665585e+03	0	3.674418e-04
1.130000e+09	1.837654e+12	0.000000e+00	6.532665e-01	7.040146e+13	2.776434e+14	1.559666e+14	7.812449e+03	3.438544e+03	1.664592e+03	0	3.664128e-04
1.140000e+09	1.822252e+12	0.000000e+00	6.532665e-01	7.023506e+13	2.761805e+14	1.552899e+14	7.810564e+03	3.436517e+03	1.663611e+03	0	3.653863e-04
1.150000e+09	1.806971e+12	0.000000e+00	6.532665e-01	7.006991e+13	2.747386e+14	1.546177e+14	7.808683e+03	3.434515e+03	1.662642e+03	0	3.643621e-04
1.160000e+09	1.791810e+12	0.000000e+00	6.532665e-01	6.990597e+13	2.733171e+14	1.539500e+14	7.806807e+03	3.432536e+03	1.661684e+03	0	3.633402e-04
1.170000e+09	1.776765e+12	0.000000e+00	6.532665e-01	6.974323e+13	2.719154e+14	1.532868e+14	7.804935e+03	3.430581e+03	1.660737e+03	0	3.623204e-04
1.180000e+09	1.761835e+12	0.000000e+00	6.532665e-01	6.958167e+13	2.705331e+14	1.526279e+14	7.803067e+03	3.428648e+03	1.659802e+03	0	3.613027e-04
1.190000e+09	1.747018e+12	0.000000e+00	6.532665e-01	6.942125e+13	2.691696e+14	1.519735e+14	7.801204e+03	3.426738e+03	1.658877e+03	0	3.602870e-04
1.200000e+09	1.732311e+12	0.000000e+00	6.532665e-01	6.926197e+13	2.678246e+14	1.513233e+14	7.799345e+03	3.424849e+03	1.657962e+03	0	3.592731e-04
1.210000e+09	1.717713e+12	0.000000e+00	6.532665e-01	6.910381e+13	2.664975e+14	1.506775e+14	7.797490e+03	3.422981e+03	1.657058e+03	0	3.582611e-04
1.220000e+09	1.703221e+12	0.000000e+00	6.532665e-01	6.894673e+13	2.651879e+14	1.500360e+14	7.795640e+03	3.421133e+03	1.656164e+03	0	3.572507e-04
1.230000e+09	1.688834e+12	0.000000e+00	6.532665e-01	6.879073e+13	2.638954e+14	1.493987e+14	7.793793e+03	3.419306e+03	1.655279e+03	0	3.562420e-04
1.240000e+09	1.674549e+12	0.000000e+00	6.532665e-01	6.863578e+13	2.626196e+14	1.487657e+14	7.791951e+03	3.417498e+03	1.654404e+03	0	3.552347e-04
1.250000e+09	1.660366e+12	0.000000e+00	6.532665e-01	6.848187e+13	2.613601e+14	1.481368e+14	7.790113e+03	3.415710e+03	1.653538e+03	0	3.542290e-04
1.260000e+09	1.646282e+12	0.000000e+00	6.532665e-01	6.832897e+13	2.601165e+14	1.475120e+14	7.788279e+03	3.413940e+03	1.652681e+03	0	3.532245e-04
1.270000e+09	1.632295e+12	0.000000e+00	6.532665e-01	6.817708e+13	2.588885e+14	1.468914e+14	7.786450e+03	3.412188e+03	1.651834e+03	0	3.522214e-04
1.280000e+09	1.618405e+12	0.000000e+00	6.532665e-01	6.802617e+13	2.576756e+14	1.462748e+14	7.784624e+03	3.410455e+03	1.650994e+03	0	3.512194e-04
1.290000e+09	1.604608e+12	0.000000e+00	6.532665e-01	6.787624e+13	2.564776e+14	1.456624e+14	7.782802e+03	3.408739e+03	1.650164e+03	0	3.502185e-04
1.300000e+09	1.590905e+12	0.000000e+00	6.532665e-01	6.772725e+13	2.552941e+14	1.450539e+14	7.780985e+03	3.407040e+03	1.649341e+03	0	3.492187e-04
1.310000e+09	1.577292e+12	0.000000e+00	6.532665e-01	6.757921e+13	2.541247e+14	1.444494e+14	7.779171e+03	3.405358e+03	1.648527e+03	0	3.482198e-04
1.320000e+09	1.563769e+12	0.000000e+00	6.532665e-01	6.743208e+13	2.529693e+14	1.438489e+14	7.777361e+03	3.403692e+03	1.647721e+03	0	3.472218e-04
1.330000e+09	1.550335e+12	0.000000e+00	6.532665e-01	6.728587e+13	2.518274e+14	1.432523e+14	7.775555e+03	3.402043e+03	1.646922e+03	0	3.462246e-04
1.340000e+09	1.536988e+12	0.000000e+00	6.532665e-01	6.714054e+13	2.506988e+14	1.426596e+14	7.773753e+03	3.400409e+03	1.646131e+03	0	3.452282e-04
1.350000e+09	1.523726e+12	0.000000e+00	6.532665e-01	6.699610e+13	2.495831e+14	1.420707e+14	7.771955e+03	3.398790e+03	1.645347e+03	0	3.442324e-04
1.360000e+09	1.510548e+12	0.000000e+00	6.532665e-01	6.685253e+13	2.484802e+14	1.414857e+14	7.770161e+03	3.397187e+03	1.644571e+03	0	3.432372e-04
