#t		Qconv[W]	Ri[Rp]		R*[Rp]		Qc[W]		Qm[W]		Qr[W]		Tcmb[K]		Tl[K]		Tup[K]		RiFlag		Bs[T]
0.000000e+00	9.207438e+12	0.000000e+00	6.482413e-01	1.710922e+14	3.087044e+15	3.203255e+14	9.035171e+03	5.403251e+03	2.451720e+03	0	6.265403e-04
1.000000e+07	9.012906e+12	0.000000e+00	6.482413e-01	1.692271e+14	2.833173e+15	3.185507e+14	9.031438e+03	5.317344e+03	2.412739e+03	0	6.220964e-04
2.000000e+07	8.814944e+12	0.000000e+00	6.482413e-01	1.673302e+14	2.614948e+15	3.167891e+14	9.027747e+03	5.239509e+03	2.377422e+03	0	6.175080e-04
3.000000e+07	8.617177e+12	0.000000e+00	6.482413e-01	1.654354e+14	2.425824e+15	3.150407e+14	9.024096e+03	5.168623e+03	2.345257e+03	0	6.128550e-04
4.000000e+07	8.421983e+12	0.000000e+00	6.482413e-01	1.635653e+14	2.260701e+15	3.133054e+14	9.020487e+03	5.103766e+03	2.315828e+03	0	6.081923e-04
5.000000e+07	8.230894e+12	0.000000e+00	6.482413e-01	1.617341e+14	2.115557e+15	3.115830e+14	9.016919e+03	5.044178e+03	2.288790e+03	0	6.035572e-04
6.000000e+07	8.044868e+12	0.000000e+00	6.482413e-01	1.599510e+14	1.987188e+15	3.098734e+14	9.013390e+03	4.989221e+03	2.263854e+03	0	5.989755e-04
7.000000e+07	7.864467e+12	0.000000e+00	6.482413e-01	1.582211e+14	1.873013e+15	3.081766e+14	9.009901e+03	4.938361e+03	2.240776e+03	0	5.944644e-04
8.000000e+07	7.689982e+12	0.000000e+00	6.482413e-01	1.565473e+14	1.770935e+15	3.064924e+14	9.006449e+03	4.891144e+03	2.219351e+03	0	5.900351e-04
9.000000e+07	7.521523e+12	0.000000e+00	6.482413e-01	1.549305e+14	1.679237e+15	3.048207e+14	9.003033e+03	4.847180e+03	2.199403e+03	0	5.856948e-04
1.000000e+08	7.359071e+12	0.000000e+00	6.482413e-01	1.533705e+14	1.596500e+15	3.031614e+14	8.999653e+03	4.806137e+03	2.180780e+03	0	5.814474e-04
1.100000e+08	7.202525e+12	0.000000e+00	6.482413e-01	1.518664e+14	1.521542e+15	3.015144e+14	8.996307e+03	4.767726e+03	2.163351e+03	0	5.772949e-04
1.200000e+08	7.051725e+12	0.000000e+00	6.482413e-01	1.504167e+14	1.453375e+15	2.998797e+14	8.992994e+03	4.731696e+03	2.147002e+03	0	5.732375e-04
1.300000e+08	6.906481e+12	0.000000e+00	6.482413e-01	1.490195e+14	1.391164e+15	2.982570e+14	8.989712e+03	4.697828e+03	2.131634e+03	0	5.692745e-04
1.400000e+08	6.766577e+12	0.000000e+00	6.482413e-01	1.476729e+14	1.334203e+15	2.966464e+14	8.986460e+03	4.665928e+03	2.117160e+03	0	5.654043e-04
1.500000e+08	6.631791e+12	0.000000e+00	6.482413e-01	1.463747e+14	1.281887e+15	2.950476e+14	8.983238e+03	4.635827e+03	2.103502e+03	0	5.616249e-04
1.600000e+08	6.501893e+12	0.000000e+00	6.482413e-01	1.451227e+14	1.233700e+15	2.934607e+14	8.980045e+03	4.607376e+03	2.090592e+03	0	5.579339e-04
1.700000e+08	6.376658e+12	0.000000e+00	6.482413e-01	1.439149e+14	1.189194e+15	2.918855e+14	8.976878e+03	4.580438e+03	2.078369e+03	0	5.543284e-04
1.800000e+08	6.255864e+12	0.000000e+00	6.482413e-01	1.427491e+14	1.147985e+15	2.903219e+14	8.973738e+03	4.554896e+03	2.066779e+03	0	5.508058e-04
1.900000e+08	6.139294e+12	0.000000e+00	6.482413e-01	1.416233e+14	1.109737e+15	2.887698e+14	8.970623e+03	4.530642e+03	2.055774e+03	0	5.473632e-04
2.000000e+08	6.026742e+12	0.000000e+00	6.482413e-01	1.405355e+14	1.074156e+15	2.872291e+14	8.967533e+03	4.507581e+03	2.045310e+03	0	5.439976e-04
2.100000e+08	5.918008e+12	0.000000e+00	6.482413e-01	1.394838e+14	1.040986e+15	2.856998e+14	8.964467e+03	4.485624e+03	2.035347e+03	0	5.407061e-04
2.200000e+08	5.812903e+12	0.000000e+00	6.482413e-01	1.384666e+14	1.010001e+15	2.841817e+14	8.961423e+03	4.464695e+03	2.025851e+03	0	5.374860e-04
2.300000e+08	5.711248e+12	0.000000e+00	6.482413e-01	1.374819e+14	9.810006e+14	2.826747e+14	8.958402e+03	4.444722e+03	2.016788e+03	0	5.343344e-04
2.400000e+08	5.612872e+12	0.000000e+00	6.482413e-01	1.365283e+14	9.538094e+14	2.811788e+14	8.955402e+03	4.425640e+03	2.008130e+03	0	5.312486e-04
2.500000e+08	5.517614e+12	0.000000e+00	6.482413e-01	1.356043e+14	9.282699e+14	2.796938e+14	8.952423e+03	4.407392e+03	1.999849e+03	0	5.282261e-04
2.600000e+08	5.425321e+12	0.000000e+00	6.482413e-01	1.347083e+14	9.042423e+14	2.782197e+14	8.949464e+03	4.389922e+03	1.991923e+03	0	5.252643e-04
2.700000e+08	5.335849e+12	0.000000e+00	6.482413e-01	1.338391e+14	8.816014e+14	2.767564e+14	8.946525e+03	4.373183e+03	1.984327e+03	0	5.223608e-04
2.800000e+08	5.249062e+12	0.000000e+00	6.482413e-01	1.329953e+14	8.602353e+14	2.753038e+14	8.943604e+03	4.357129e+03	1.977043e+03	0	5.195133e-04
2.900000e+08	5.164833e+12	0.000000e+00	6.482413e-01	1.321757e+14	8.400434e+14	2.738618e+14	8.940702e+03	4.341718e+03	1.970050e+03	0	5.167195e-04
3.000000e+08	5.083040e+12	0.000000e+00	6.482413e-01	1.313792e+14	8.209349e+14	2.724303e+14	8.937818e+03	4.326913e+03	1.963332e+03	0	5.139773e-04
3.100000e+08	5.003569e+12	0.000000e+00	6.482413e-01	1.306048e+14	8.028279e+14	2.710092e+14	8.934951e+03	4.312679e+03	1.956873e+03	0	5.112846e-04
3.200000e+08	4.926313e+12	0.000000e+00	6.482413e-01	1.298513e+14	7.856485e+14	2.695984e+14	8.932101e+03	4.298982e+03	1.950659e+03	0	5.086395e-04
3.300000e+08	4.851170e+12	0.000000e+00	6.482413e-01	1.291178e+14	7.693294e+14	2.681979e+14	8.929268e+03	4.285794e+03	1.944674e+03	0	5.060401e-04
3.400000e+08	4.778045e+12	0.000000e+00	6.482413e-01	1.284035e+14	7.538097e+14	2.668076e+14	8.926450e+03	4.273085e+03	1.938908e+03	0	5.034846e-04
3.500000e+08	4.706846e+12	0.000000e+00	6.482413e-01	1.277075e+14	7.390337e+14	2.654274e+14	8.923648e+03	4.260831e+03	1.933348e+03	0	5.009712e-04
3.600000e+08	4.637490e+12	0.000000e+00	6.482413e-01	1.270289e+14	7.249507e+14	2.640572e+14	8.920861e+03	4.249008e+03	1.927983e+03	0	4.984984e-04
3.700000e+08	4.569895e+12	0.000000e+00	6.482413e-01	1.263671e+14	7.115144e+14	2.626969e+14	8.918089e+03	4.237592e+03	1.922803e+03	0	4.960645e-04
3.800000e+08	4.503984e+12	0.000000e+00	6.482413e-01	1.257212e+14	6.986823e+14	2.613464e+14	8.915332e+03	4.226564e+03	1.917799e+03	0	4.936681e-04
3.900000e+08	4.439687e+12	0.000000e+00	6.482413e-01	1.250906e+14	6.864157e+14	2.600057e+14	8.912588e+03	4.215903e+03	1.912961e+03	0	4.913077e-04
4.000000e+08	4.376934e+12	0.000000e+00	6.482413e-01	1.244747e+14	6.746786e+14	2.586747e+14	8.909859e+03	4.205591e+03	1.908282e+03	0	4.889819e-04
4.100000e+08	4.315661e+12	0.000000e+00	6.482413e-01	1.238729e+14	6.634383e+14	2.573533e+14	8.907142e+03	4.195612e+03	1.903754e+03	0	4.866894e-04
4.200000e+08	4.255808e+12	0.000000e+00	6.482413e-01	1.232845e+14	6.526645e+14	2.560414e+14	8.904439e+03	4.185949e+03	1.899370e+03	0	4.844290e-04
4.300000e+08	4.197316e+12	0.000000e+00	6.482413e-01	1.227090e+14	6.423291e+14	2.547389e+14	8.901749e+03	4.176588e+03	1.895122e+03	0	4.821994e-04
4.400000e+08	4.140130e+12	0.000000e+00	6.482413e-01	1.221460e+14	6.324063e+14	2.534459e+14	8.899071e+03	4.167514e+03	1.891005e+03	0	4.799995e-04
4.500000e+08	4.084199e+12	0.000000e+00	6.482413e-01	1.215949e+14	6.228723e+14	2.521621e+14	8.896406e+03	4.158715e+03	1.887012e+03	0	4.778282e-04
4.600000e+08	4.029473e+12	0.000000e+00	6.482413e-01	1.210552e+14	6.137048e+14	2.508875e+14	8.893752e+03	4.150177e+03	1.883139e+03	0	4.756843e-04
4.700000e+08	3.975905e+12	0.000000e+00	6.482413e-01	1.205265e+14	6.048834e+14	2.496221e+14	8.891111e+03	4.141890e+03	1.879378e+03	0	4.735670e-04
4.800000e+08	3.923450e+12	0.000000e+00	6.482413e-01	1.200084e+14	5.963888e+14	2.483657e+14	8.888480e+03	4.133841e+03	1.875726e+03	0	4.714751e-04
4.900000e+08	3.872067e+12	0.000000e+00	6.482413e-01	1.195005e+14	5.882034e+14	2.471184e+14	8.885861e+03	4.126022e+03	1.872178e+03	0	4.694079e-04
5.000000e+08	3.821714e+12	0.000000e+00	6.482413e-01	1.190024e+14	5.803106e+14	2.458799e+14	8.883254e+03	4.118421e+03	1.868729e+03	0	4.673643e-04
5.100000e+08	3.772355e+12	0.000000e+00	6.482413e-01	1.185137e+14	5.726950e+14	2.446503e+14	8.880657e+03	4.111031e+03	1.865376e+03	0	4.653435e-04
5.200000e+08	3.723951e+12	0.000000e+00	6.482413e-01	1.180342e+14	5.653423e+14	2.434295e+14	8.878070e+03	4.103841e+03	1.862113e+03	0	4.633446e-04
5.300000e+08	3.676470e+12	0.000000e+00	6.482413e-01	1.175634e+14	5.582389e+14	2.422174e+14	8.875495e+03	4.096843e+03	1.858938e+03	0	4.613669e-04
5.400000e+08	3.629876e+12	0.000000e+00	6.482413e-01	1.171010e+14	5.513724e+14	2.410139e+14	8.872929e+03	4.090031e+03	1.855847e+03	0	4.594096e-04
5.500000e+08	3.584140e+12	0.000000e+00	6.482413e-01	1.166469e+14	5.447309e+14	2.398190e+14	8.870373e+03	4.083396e+03	1.852836e+03	0	4.574719e-04
5.600000e+08	3.539231e+12	0.000000e+00	6.482413e-01	1.162006e+14	5.383034e+14	2.386326e+14	8.867828e+03	4.076931e+03	1.849903e+03	0	4.555532e-04
5.700000e+08	3.495120e+12	0.000000e+00	6.482413e-01	1.157618e+14	5.320797e+14	2.374546e+14	8.865292e+03	4.070629e+03	1.847044e+03	0	4.536527e-04
5.800000e+08	3.451780e+12	0.000000e+00	6.482413e-01	1.153305e+14	5.260500e+14	2.362850e+14	8.862766e+03	4.064485e+03	1.844256e+03	0	4.517697e-04
5.900000e+08	3.409184e+12	0.000000e+00	6.482413e-01	1.149062e+14	5.202052e+14	2.351236e+14	8.860249e+03	4.058492e+03	1.841536e+03	0	4.499037e-04
6.000000e+08	3.367309e+12	0.000000e+00	6.482413e-01	1.144888e+14	5.145368e+14	2.339705e+14	8.857741e+03	4.052644e+03	1.838883e+03	0	4.480541e-04
6.100000e+08	3.326129e+12	0.000000e+00	6.482413e-01	1.140780e+14	5.090367e+14	2.328255e+14	8.855243e+03	4.046936e+03	1.836293e+03	0	4.462201e-04
6.200000e+08	3.285622e+12	0.000000e+00	6.482413e-01	1.136736e+14	5.036972e+14	2.316886e+14	8.852753e+03	4.041363e+03	1.833764e+03	0	4.444013e-04
6.300000e+08	3.245767e+12	0.000000e+00	6.482413e-01	1.132755e+14	4.985113e+14	2.305598e+14	8.850272e+03	4.035920e+03	1.831294e+03	0	4.425971e-04
6.400000e+08	3.206541e+12	0.000000e+00	6.482413e-01	1.128833e+14	4.934722e+14	2.294389e+14	8.847800e+03	4.030602e+03	1.828881e+03	0	4.408069e-04
6.500000e+08	3.167926e+12	0.000000e+00	6.482413e-01	1.124970e+14	4.885735e+14	2.283259e+14	8.845337e+03	4.025404e+03	1.826523e+03	0	4.390303e-04
6.600000e+08	3.129902e+12	0.000000e+00	6.482413e-01	1.121163e+14	4.838092e+14	2.272207e+14	8.842882e+03	4.020322e+03	1.824217e+03	0	4.372667e-04
6.700000e+08	3.092451e+12	0.000000e+00	6.482413e-01	1.117411e+14	4.791737e+14	2.261233e+14	8.840435e+03	4.015352e+03	1.821962e+03	0	4.355156e-04
6.800000e+08	3.055555e+12	0.000000e+00	6.482413e-01	1.113712e+14	4.746615e+14	2.250336e+14	8.837996e+03	4.010491e+03	1.819756e+03	0	4.337766e-04
6.900000e+08	3.019198e+12	0.000000e+00	6.482413e-01	1.110064e+14	4.702675e+14	2.239516e+14	8.835566e+03	4.005733e+03	1.817597e+03	0	4.320493e-04
7.000000e+08	2.983362e+12	0.000000e+00	6.482413e-01	1.106466e+14	4.659870e+14	2.228771e+14	8.833143e+03	4.001077e+03	1.815485e+03	0	4.303331e-04
7.100000e+08	2.948033e+12	0.000000e+00	6.482413e-01	1.102917e+14	4.618153e+14	2.218102e+14	8.830729e+03	3.996518e+03	1.813416e+03	0	4.286277e-04
7.200000e+08	2.913196e+12	0.000000e+00	6.482413e-01	1.099414e+14	4.577481e+14	2.207507e+14	8.828322e+03	3.992053e+03	1.811390e+03	0	4.269326e-04
7.300000e+08	2.878835e+12	0.000000e+00	6.482413e-01	1.095957e+14	4.537813e+14	2.196987e+14	8.825922e+03	3.987679e+03	1.809405e+03	0	4.252474e-04
7.400000e+08	2.844939e+12	0.000000e+00	6.482413e-01	1.092544e+14	4.499111e+14	2.186539e+14	8.823530e+03	3.983393e+03	1.807460e+03	0	4.235718e-04
7.500000e+08	2.811492e+12	0.000000e+00	6.482413e-01	1.089175e+14	4.461336e+14	2.176165e+14	8.821146e+03	3.979191e+03	1.805554e+03	0	4.219054e-04
7.600000e+08	2.778484e+12	0.000000e+00	6.482413e-01	1.085847e+14	4.424454e+14	2.165863e+14	8.818769e+03	3.975072e+03	1.803685e+03	0	4.202477e-04
7.700000e+08	2.745900e+12	0.000000e+00	6.482413e-01	1.082560e+14	4.388431e+14	2.155632e+14	8.816399e+03	3.971033e+03	1.801852e+03	0	4.185985e-04
7.800000e+08	2.713730e+12	0.000000e+00	6.482413e-01	1.079313e+14	4.353235e+14	2.145473e+14	8.814037e+03	3.967071e+03	1.800054e+03	0	4.169574e-04
7.900000e+08	2.681963e+12	0.000000e+00	6.482413e-01	1.076104e+14	4.318836e+14	2.135384e+14	8.811681e+03	3.963183e+03	1.798290e+03	0	4.153240e-04
8.000000e+08	2.650586e+12	0.000000e+00	6.482413e-01	1.072932e+14	4.285204e+14	2.125365e+14	8.809333e+03	3.959368e+03	1.796559e+03	0	4.136980e-04
8.100000e+08	2.619591e+12	0.000000e+00	6.482413e-01	1.069797e+14	4.252312e+14	2.115416e+14	8.806991e+03	3.955622e+03	1.794859e+03	0	4.120791e-04
8.200000e+08	2.588967e+12	0.000000e+00	6.482413e-01	1.066698e+14	4.220135e+14	2.105535e+14	8.804656e+03	3.951945e+03	1.793191e+03	0	4.104670e-04
8.300000e+08	2.558703e+12	0.000000e+00	6.482413e-01	1.063633e+14	4.188646e+14	2.095723e+14	8.802328e+03	3.948333e+03	1.791552e+03	0	4.088614e-04
8.400000e+08	2.528792e+12	0.000000e+00	6.482413e-01	1.060602e+14	4.157821e+14	2.085979e+14	8.800007e+03	3.944785e+03	1.789942e+03	0	4.072619e-04
8.500000e+08	2.499222e+12	0.000000e+00	6.482413e-01	1.057603e+14	4.127639e+14	2.076301e+14	8.797692e+03	3.941299e+03	1.788360e+03	0	4.056683e-04
8.600000e+08	2.469987e+12	0.000000e+00	6.482413e-01	1.054637e+14	4.098076e+14	2.066691e+14	8.795384e+03	3.937872e+03	1.786805e+03	0	4.040803e-04
8.700000e+08	2.441078e+12	0.000000e+00	6.482413e-01	1.051702e+14	4.069112e+14	2.057146e+14	8.793082e+03	3.934504e+03	1.785277e+03	0	4.024976e-04
8.800000e+08	2.412485e+12	0.000000e+00	6.482413e-01	1.048798e+14	4.040728e+14	2.047668e+14	8.790787e+03	3.931193e+03	1.783775e+03	0	4.009200e-04
8.900000e+08	2.384203e+12	0.000000e+00	6.482413e-01	1.045923e+14	4.012903e+14	2.038254e+14	8.788498e+03	3.927936e+03	1.782297e+03	0	3.993471e-04
9.000000e+08	2.356222e+12	0.000000e+00	6.482413e-01	1.043077e+14	3.985620e+14	2.028905e+14	8.786215e+03	3.924733e+03	1.780843e+03	0	3.977787e-04
9.100000e+08	2.328536e+12	0.000000e+00	6.482413e-01	1.040259e+14	3.958860e+14	2.019620e+14	8.783939e+03	3.921581e+03	1.779413e+03	0	3.962146e-04
9.200000e+08	2.301138e+12	0.000000e+00	6.482413e-01	1.037469e+14	3.932609e+14	2.010399e+14	8.781669e+03	3.918480e+03	1.778006e+03	0	3.946544e-04
9.300000e+08	2.274021e+12	0.000000e+00	6.482413e-01	1.034706e+14	3.906848e+14	2.001241e+14	8.779404e+03	3.915427e+03	1.776621e+03	0	3.930981e-04
9.400000e+08	2.247178e+12	0.000000e+00	6.482413e-01	1.031970e+14	3.881563e+14	1.992145e+14	8.777146e+03	3.912422e+03	1.775258e+03	0	3.915452e-04
9.500000e+08	2.220603e+12	0.000000e+00	6.482413e-01	1.029259e+14	3.856739e+14	1.983111e+14	8.774894e+03	3.909464e+03	1.773915e+03	0	3.899956e-04
9.600000e+08	2.194289e+12	0.000000e+00	6.482413e-01	1.026574e+14	3.832362e+14	1.974139e+14	8.772648e+03	3.906550e+03	1.772593e+03	0	3.884491e-04
9.700000e+08	2.168232e+12	0.000000e+00	6.482413e-01	1.023913e+14	3.808418e+14	1.965228e+14	8.770407e+03	3.903679e+03	1.771290e+03	0	3.869053e-04
9.800000e+08	2.142424e+12	0.000000e+00	6.482413e-01	1.021276e+14	3.784894e+14	1.956378e+14	8.768172e+03	3.900851e+03	1.770007e+03	0	3.853641e-04
9.900000e+08	2.116862e+12	0.000000e+00	6.482413e-01	1.018662e+14	3.761778e+14	1.947588e+14	8.765944e+03	3.898065e+03	1.768743e+03	0	3.838253e-04
1.000000e+09	2.091538e+12	0.000000e+00	6.482413e-01	1.016072e+14	3.739058e+14	1.938858e+14	8.763720e+03	3.895318e+03	1.767497e+03	0	3.822886e-04
1.010000e+09	2.066448e+12	0.000000e+00	6.482413e-01	1.013504e+14	3.716721e+14	1.930187e+14	8.761503e+03	3.892611e+03	1.766268e+03	0	3.807538e-04
1.020000e+09	2.041587e+12	0.000000e+00	6.482413e-01	1.010958e+14	3.694757e+14	1.921574e+14	8.759291e+03	3.889942e+03	1.765057e+03	0	3.792207e-04
1.030000e+09	2.016950e+12	0.000000e+00	6.482413e-01	1.008434e+14	3.673155e+14	1.913020e+14	8.757084e+03	3.887310e+03	1.763863e+03	0	3.776891e-04
1.040000e+09	1.992532e+12	0.000000e+00	6.482413e-01	1.005931e+14	3.651905e+14	1.904524e+14	8.754883e+03	3.884714e+03	1.762685e+03	0	3.761588e-04
1.050000e+09	1.968329e+12	0.000000e+00	6.482413e-01	1.003449e+14	3.630997e+14	1.896085e+14	8.752688e+03	3.882153e+03	1.761523e+03	0	3.746295e-04
1.060000e+09	1.944336e+12	0.000000e+00	6.482413e-01	1.000987e+14	3.610422e+14	1.887702e+14	8.750498e+03	3.879627e+03	1.760377e+03	0	3.731011e-04
1.070000e+09	1.920549e+12	0.000000e+00	6.482413e-01	9.985448e+13	3.590169e+14	1.879377e+14	8.748313e+03	3.877134e+03	1.759245e+03	0	3.715734e-04
1.080000e+09	1.896964e+12	0.000000e+00	6.482413e-01	9.961221e+13	3.570231e+14	1.871107e+14	8.746134e+03	3.874673e+03	1.758129e+03	0	3.700461e-04
1.090000e+09	1.873576e+12	0.000000e+00	6.482413e-01	9.937185e+13	3.550598e+14	1.862893e+14	8.743960e+03	3.872245e+03	1.757027e+03	0	3.685190e-04
1.100000e+09	1.850383e+12	0.000000e+00	6.482413e-01	9.913337e+13	3.531263e+14	1.854734e+14	8.741791e+03	3.869847e+03	1.755939e+03	0	3.669920e-04
1.110000e+09	1.827379e+12	0.000000e+00	6.482413e-01	9.889671e+13	3.512218e+14	1.846630e+14	8.739627e+03	3.867479e+03	1.754865e+03	0	3.654649e-04
1.120000e+09	1.804561e+12	0.000000e+00	6.482413e-01	9.866186e+13	3.493455e+14	1.838581e+14	8.737469e+03	3.865141e+03	1.753804e+03	0	3.639373e-04
1.130000e+09	1.781926e+12	0.000000e+00	6.482413e-01	9.842878e+13	3.474966e+14	1.830585e+14	8.735316e+03	3.862832e+03	1.752756e+03	0	3.624093e-04
1.140000e+09	1.759470e+12	0.000000e+00	6.482413e-01	9.819743e+13	3.456745e+14	1.822642e+14	8.733167e+03	3.860551e+03	1.751721e+03	0	3.608805e-04
1.150000e+09	1.737190e+12	0.000000e+00	6.482413e-01	9.796778e+13	3.438785e+14	1.814753e+14	8.731024e+03	3.858297e+03	1.750698e+03	0	3.593507e-04
1.160000e+09	1.715082e+12	0.000000e+00	6.482413e-01	9.773980e+13	3.421078e+14	1.806916e+14	8.728886e+03	3.856070e+03	1.749688e+03	0	3.578198e-04
1.170000e+09	1.693144e+12	0.000000e+00	6.482413e-01	9.751346e+13	3.403620e+14	1.799131e+14	8.726753e+03	3.853869e+03	1.748689e+03	0	3.562876e-04
1.180000e+09	1.671372e+12	0.000000e+00	6.482413e-01	9.728872e+13	3.386403e+14	1.791398e+14	8.724624e+03	3.851693e+03	1.747702e+03	0	3.547539e-04
1.190000e+09	1.649763e+12	0.000000e+00	6.482413e-01	9.706557e+13	3.369421e+14	1.783717e+14	8.722501e+03	3.849543e+03	1.746726e+03	0	3.532184e-04
1.200000e+09	1.628314e+12	0.000000e+00	6.482413e-01	9.684397e+13	3.352669e+14	1.776086e+14	8.720383e+03	3.847416e+03	1.745761e+03	0	3.516809e-04
1.210000e+09	1.607023e+12	0.000000e+00	6.482413e-01	9.662390e+13	3.336141e+14	1.768507e+14	8.718269e+03	3.845313e+03	1.744807e+03	0	3.501414e-04
1.220000e+09	1.585886e+12	0.000000e+00	6.482413e-01	9.640533e+13	3.319832e+14	1.760977e+14	8.716160e+03	3.843234e+03	1.743863e+03	0	3.485995e-04
1.230000e+09	1.564901e+12	0.000000e+00	6.482413e-01	9.618823e+13	3.303737e+14	1.753497e+14	8.714056e+03	3.841177e+03	1.742930e+03	0	3.470551e-04
1.240000e+09	1.544066e+12	0.000000e+00	6.482413e-01	9.597258e+13	3.287850e+14	1.746067e+14	8.711956e+03	3.839143e+03	1.742007e+03	0	3.455080e-04
1.250000e+09	1.523377e+12	0.000000e+00	6.482413e-01	9.575836e+13	3.272167e+14	1.738685e+14	8.709862e+03	3.837130e+03	1.741094e+03	0	3.439579e-04
1.260000e+09	1.502833e+12	0.000000e+00	6.482413e-01	9.554554e+13	3.256682e+14	1.731353e+14	8.707772e+03	3.835138e+03	1.740190e+03	0	3.424047e-04
1.270000e+09	1.482430e+12	0.000000e+00	6.482413e-01	9.533409e+13	3.241392e+14	1.724068e+14	8.705686e+03	3.833167e+03	1.739296e+03	0	3.408481e-04
1.280000e+09	1.462168e+12	0.000000e+00	6.482413e-01	9.512400e+13	3.226292e+14	1.716832e+14	8.703606e+03	3.831216e+03	1.738410e+03	0	3.392880e-04
1.290000e+09	1.442042e+12	0.000000e+00	6.482413e-01	9.491525e+13	3.211378e+14	1.709643e+14	8.701529e+03	3.829285e+03	1.737534e+03	0	3.377241e-04
1.300000e+09	1.422051e+12	0.000000e+00	6.482413e-01	9.470781e+13	3.196645e+14	1.702501e+14	8.699458e+03	3.827374e+03	1.736667e+03	0	3.361562e-04
1.310000e+09	1.402193e+12	0.000000e+00	6.482413e-01	9.450166e+13	3.182090e+14	1.695407e+14	8.697391e+03	3.825481e+03	1.735808e+03	0	3.345842e-04
1.320000e+09	1.382466e+12	0.000000e+00	6.482413e-01	9.429678e+13	3.167708e+14	1.688358e+14	8.695328e+03	3.823607e+03	1.734958e+03	0	3.330077e-04
1.330000e+09	1.362868e+12	0.000000e+00	6.482413e-01	9.409316e+13	3.153496e+14	1.681356e+14	8.693270e+03	3.821751e+03	1.734116e+03	0	3.314266e-04
1.340000e+09	1.343396e+12	0.000000e+00	6.482413e-01	9.389076e+13	3.139450e+14	1.674399e+14	8.691216e+03	3.819913e+03	1.733282e+03	0	3.298406e-04
1.350000e+09	1.324049e+12	0.000000e+00	6.482413e-01	9.368959e+13	3.125566e+14	1.667488e+14	8.689167e+03	3.818093e+03	1.732456e+03	0	3.282496e-04
1.360000e+09	1.304825e+12	0.000000e+00	6.482413e-01	9.348961e+13	3.111842e+14	1.660622e+14	8.687122e+03	3.816289e+03	1.731637e+03	0	3.266532e-04
