#t		Qconv[W]	Ri[Rp]		R*[Rp]		Qc[W]		Qm[W]		Qr[W]		Tcmb[K]		Tl[K]		Tup[K]		RiFlag		Bs[T]
0.000000e+00	9.888226e+12	0.000000e+00	6.482410e-01	1.984803e+14	3.210579e+15	3.461388e+14	9.549400e+03	5.659928e+03	2.485453e+03	0	6.399749e-04
1.000000e+07	9.665501e+12	0.000000e+00	6.482410e-01	1.964091e+14	2.963860e+15	3.442210e+14	9.545577e+03	5.576990e+03	2.449032e+03	0	6.351334e-04
2.000000e+07	9.440801e+12	0.000000e+00	6.482410e-01	1.943203e+14	2.749882e+15	3.423175e+14	9.541794e+03	5.501421e+03	2.415848e+03	0	6.301730e-04
3.000000e+07	9.217357e+12	0.000000e+00	6.482410e-01	1.922435e+14	2.562941e+15	3.404282e+14	9.538052e+03	5.432253e+03	2.385474e+03	0	6.251616e-04
4.000000e+07	8.997313e+12	0.000000e+00	6.482410e-01	1.901980e+14	2.398529e+15	3.385530e+14	9.534349e+03	5.368679e+03	2.357556e+03	0	6.201467e-04
5.000000e+07	8.782064e+12	0.000000e+00	6.482410e-01	1.881967e+14	2.253049e+15	3.366918e+14	9.530685e+03	5.310026e+03	2.331800e+03	0	6.151613e-04
6.000000e+07	8.572485e+12	0.000000e+00	6.482410e-01	1.862474e+14	2.123601e+15	3.348444e+14	9.527060e+03	5.255729e+03	2.307957e+03	0	6.102284e-04
7.000000e+07	8.369094e+12	0.000000e+00	6.482410e-01	1.843549e+14	2.007826e+15	3.330109e+14	9.523473e+03	5.205306e+03	2.285814e+03	0	6.053636e-04
8.000000e+07	8.172156e+12	0.000000e+00	6.482410e-01	1.825215e+14	1.903790e+15	3.311909e+14	9.519921e+03	5.158345e+03	2.265192e+03	0	6.005775e-04
9.000000e+07	7.981760e+12	0.000000e+00	6.482410e-01	1.807481e+14	1.809894e+15	3.293845e+14	9.516406e+03	5.114492e+03	2.245935e+03	0	5.958767e-04
1.000000e+08	7.797880e+12	0.000000e+00	6.482410e-01	1.790345e+14	1.724805e+15	3.275915e+14	9.512924e+03	5.073441e+03	2.227908e+03	0	5.912652e-04
1.100000e+08	7.620404e+12	0.000000e+00	6.482410e-01	1.773795e+14	1.647407e+15	3.258118e+14	9.509475e+03	5.034926e+03	2.210995e+03	0	5.867451e-04
1.200000e+08	7.449166e+12	0.000000e+00	6.482410e-01	1.757816e+14	1.576758e+15	3.240453e+14	9.506058e+03	4.998713e+03	2.195093e+03	0	5.823169e-04
1.300000e+08	7.283967e+12	0.000000e+00	6.482410e-01	1.742391e+14	1.512059e+15	3.222919e+14	9.502672e+03	4.964599e+03	2.180112e+03	0	5.779800e-04
1.400000e+08	7.124586e+12	0.000000e+00	6.482410e-01	1.727499e+14	1.452626e+15	3.205515e+14	9.499316e+03	4.932401e+03	2.165973e+03	0	5.737333e-04
1.500000e+08	6.970789e+12	0.000000e+00	6.482410e-01	1.713119e+14	1.397876e+15	3.188239e+14	9.495988e+03	4.901962e+03	2.152606e+03	0	5.695749e-04
1.600000e+08	6.822340e+12	0.000000e+00	6.482410e-01	1.699228e+14	1.347302e+15	3.171091e+14	9.492688e+03	4.873137e+03	2.139948e+03	0	5.655026e-04
1.700000e+08	6.679001e+12	0.000000e+00	6.482410e-01	1.685806e+14	1.300469e+15	3.154070e+14	9.489414e+03	4.845800e+03	2.127944e+03	0	5.615141e-04
1.800000e+08	6.540539e+12	0.000000e+00	6.482410e-01	1.672831e+14	1.256996e+15	3.137173e+14	9.486167e+03	4.819837e+03	2.116543e+03	0	5.576067e-04
1.900000e+08	6.406729e+12	0.000000e+00	6.482410e-01	1.660282e+14	1.216551e+15	3.120402e+14	9.482944e+03	4.795146e+03	2.105700e+03	0	5.537779e-04
2.000000e+08	6.277351e+12	0.000000e+00	6.482410e-01	1.648140e+14	1.178844e+15	3.103754e+14	9.479745e+03	4.771634e+03	2.095375e+03	0	5.500249e-04
2.100000e+08	6.152196e+12	0.000000e+00	6.482410e-01	1.636385e+14	1.143617e+15	3.087228e+14	9.476570e+03	4.749218e+03	2.085532e+03	0	5.463449e-04
2.200000e+08	6.031061e+12	0.000000e+00	6.482410e-01	1.624998e+14	1.110646e+15	3.070823e+14	9.473418e+03	4.727823e+03	2.076137e+03	0	5.427353e-04
2.300000e+08	5.913756e+12	0.000000e+00	6.482410e-01	1.613962e+14	1.079729e+15	3.054539e+14	9.470287e+03	4.707380e+03	2.067159e+03	0	5.391935e-04
2.400000e+08	5.800099e+12	0.000000e+00	6.482410e-01	1.603261e+14	1.050688e+15	3.038375e+14	9.467178e+03	4.687827e+03	2.058573e+03	0	5.357168e-04
2.500000e+08	5.689916e+12	0.000000e+00	6.482410e-01	1.592879e+14	1.023366e+15	3.022328e+14	9.464089e+03	4.669105e+03	2.050352e+03	0	5.323028e-04
2.600000e+08	5.583043e+12	0.000000e+00	6.482410e-01	1.582800e+14	9.976192e+14	3.006399e+14	9.461021e+03	4.651163e+03	2.042473e+03	0	5.289490e-04
2.700000e+08	5.479327e+12	0.000000e+00	6.482410e-01	1.573011e+14	9.733214e+14	2.990587e+14	9.457971e+03	4.633953e+03	2.034915e+03	0	5.256531e-04
2.800000e+08	5.378619e+12	0.000000e+00	6.482410e-01	1.563498e+14	9.503583e+14	2.974890e+14	9.454941e+03	4.617431e+03	2.027660e+03	0	5.224127e-04
2.900000e+08	5.280781e+12	0.000000e+00	6.482410e-01	1.554248e+14	9.286269e+14	2.959308e+14	9.451929e+03	4.601556e+03	2.020688e+03	0	5.192257e-04
3.000000e+08	5.185681e+12	0.000000e+00	6.482410e-01	1.545250e+14	9.080342e+14	2.943839e+14	9.448934e+03	4.586290e+03	2.013985e+03	0	5.160900e-04
3.100000e+08	5.093196e+12	0.000000e+00	6.482410e-01	1.536491e+14	8.884961e+14	2.928483e+14	9.445957e+03	4.571600e+03	2.007534e+03	0	5.130035e-04
3.200000e+08	5.003209e+12	0.000000e+00	6.482410e-01	1.527962e+14	8.699364e+14	2.913239e+14	9.442997e+03	4.557453e+03	2.001322e+03	0	5.099642e-04
3.300000e+08	4.915608e+12	0.000000e+00	6.482410e-01	1.519652e+14	8.522858e+14	2.898105e+14	9.440053e+03	4.543819e+03	1.995335e+03	0	5.069704e-04
3.400000e+08	4.830288e+12	0.000000e+00	6.482410e-01	1.511552e+14	8.354810e+14	2.883082e+14	9.437126e+03	4.530671e+03	1.989561e+03	0	5.040201e-04
3.500000e+08	4.747150e+12	0.000000e+00	6.482410e-01	1.503652e+14	8.194645e+14	2.868167e+14	9.434213e+03	4.517984e+03	1.983989e+03	0	5.011116e-04
3.600000e+08	4.666101e+12	0.000000e+00	6.482410e-01	1.495944e+14	8.041837e+14	2.853361e+14	9.431316e+03	4.505732e+03	1.978610e+03	0	4.982434e-04
3.700000e+08	4.587052e+12	0.000000e+00	6.482410e-01	1.488419e+14	7.895903e+14	2.838662e+14	9.428434e+03	4.493895e+03	1.973412e+03	0	4.954137e-04
3.800000e+08	4.509917e+12	0.000000e+00	6.482410e-01	1.481071e+14	7.756401e+14	2.824069e+14	9.425567e+03	4.482452e+03	1.968386e+03	0	4.926211e-04
3.900000e+08	4.434619e+12	0.000000e+00	6.482410e-01	1.473891e+14	7.622926e+14	2.809581e+14	9.422713e+03	4.471382e+03	1.963525e+03	0	4.898641e-04
4.000000e+08	4.361081e+12	0.000000e+00	6.482410e-01	1.466873e+14	7.495103e+14	2.795199e+14	9.419874e+03	4.460668e+03	1.958820e+03	0	4.871412e-04
4.100000e+08	4.289231e+12	0.000000e+00	6.482410e-01	1.460011e+14	7.372588e+14	2.780920e+14	9.417047e+03	4.450293e+03	1.954264e+03	0	4.844511e-04
4.200000e+08	4.219003e+12	0.000000e+00	6.482410e-01	1.453298e+14	7.255063e+14	2.766744e+14	9.414234e+03	4.440241e+03	1.949850e+03	0	4.817926e-04
4.300000e+08	4.150330e+12	0.000000e+00	6.482410e-01	1.446727e+14	7.142235e+14	2.752670e+14	9.411434e+03	4.430497e+03	1.945571e+03	0	4.791642e-04
4.400000e+08	4.083153e+12	0.000000e+00	6.482410e-01	1.440295e+14	7.033831e+14	2.738697e+14	9.408647e+03	4.421046e+03	1.941421e+03	0	4.765649e-04
4.500000e+08	4.017413e+12	0.000000e+00	6.482410e-01	1.433994e+14	6.929599e+14	2.724824e+14	9.405872e+03	4.411876e+03	1.937394e+03	0	4.739934e-04
4.600000e+08	3.953055e+12	0.000000e+00	6.482410e-01	1.427821e+14	6.829306e+14	2.711052e+14	9.403109e+03	4.402974e+03	1.933485e+03	0	4.714487e-04
4.700000e+08	3.890026e+12	0.000000e+00	6.482410e-01	1.421770e+14	6.732735e+14	2.697378e+14	9.400358e+03	4.394329e+03	1.929689e+03	0	4.689296e-04
4.800000e+08	3.828277e+12	0.000000e+00	6.482410e-01	1.415837e+14	6.639684e+14	2.683802e+14	9.397619e+03	4.385928e+03	1.926000e+03	0	4.664352e-04
4.900000e+08	3.767760e+12	0.000000e+00	6.482410e-01	1.410017e+14	6.549964e+14	2.670323e+14	9.394891e+03	4.377762e+03	1.922414e+03	0	4.639643e-04
5.000000e+08	3.708430e+12	0.000000e+00	6.482410e-01	1.404307e+14	6.463400e+14	2.656940e+14	9.392174e+03	4.369821e+03	1.918927e+03	0	4.615161e-04
5.100000e+08	3.650243e+12	0.000000e+00	6.482410e-01	1.398702e+14	6.379830e+14	2.643654e+14	9.389469e+03	4.362096e+03	1.915534e+03	0	4.590896e-04
5.200000e+08	3.593159e+12	0.000000e+00	6.482410e-01	1.393199e+14	6.299099e+14	2.630462e+14	9.386774e+03	4.354577e+03	1.912232e+03	0	4.566838e-04
5.300000e+08	3.537139e+12	0.000000e+00	6.482410e-01	1.387794e+14	6.221065e+14	2.617364e+14	9.384089e+03	4.347257e+03	1.909018e+03	0	4.542980e-04
5.400000e+08	3.482144e+12	0.000000e+00	6.482410e-01	1.382483e+14	6.145594e+14	2.604359e+14	9.381416e+03	4.340126e+03	1.905887e+03	0	4.519313e-04
5.500000e+08	3.428141e+12	0.000000e+00	6.482410e-01	1.377264e+14	6.072561e+14	2.591447e+14	9.378752e+03	4.333178e+03	1.902836e+03	0	4.495828e-04
5.600000e+08	3.375094e+12	0.000000e+00	6.482410e-01	1.372133e+14	6.001849e+14	2.578627e+14	9.376098e+03	4.326406e+03	1.899862e+03	0	4.472518e-04
5.700000e+08	3.322971e+12	0.000000e+00	6.482410e-01	1.367087e+14	5.933346e+14	2.565898e+14	9.373454e+03	4.319803e+03	1.896962e+03	0	4.449375e-04
5.800000e+08	3.271741e+12	0.000000e+00	6.482410e-01	1.362124e+14	5.866950e+14	2.553259e+14	9.370820e+03	4.313362e+03	1.894133e+03	0	4.426391e-04
5.900000e+08	3.221374e+12	0.000000e+00	6.482410e-01	1.357240e+14	5.802563e+14	2.540709e+14	9.368196e+03	4.307077e+03	1.891373e+03	0	4.403560e-04
6.000000e+08	3.171843e+12	0.000000e+00	6.482410e-01	1.352433e+14	5.740092e+14	2.528249e+14	9.365581e+03	4.300942e+03	1.888679e+03	0	4.380873e-04
6.100000e+08	3.123119e+12	0.000000e+00	6.482410e-01	1.347701e+14	5.679453e+14	2.515876e+14	9.362975e+03	4.294952e+03	1.886049e+03	0	4.358326e-04
6.200000e+08	3.075177e+12	0.000000e+00	6.482410e-01	1.343042e+14	5.620563e+14	2.503592e+14	9.360378e+03	4.289101e+03	1.883480e+03	0	4.335910e-04
6.300000e+08	3.027992e+12	0.000000e+00	6.482410e-01	1.338452e+14	5.563345e+14	2.491393e+14	9.357791e+03	4.283384e+03	1.880969e+03	0	4.313619e-04
6.400000e+08	2.981541e+12	0.000000e+00	6.482410e-01	1.333930e+14	5.507728e+14	2.479281e+14	9.355212e+03	4.277797e+03	1.878516e+03	0	4.291447e-04
6.500000e+08	2.935799e+12	0.000000e+00	6.482410e-01	1.329473e+14	5.453642e+14	2.467254e+14	9.352642e+03	4.272335e+03	1.876117e+03	0	4.269388e-04
6.600000e+08	2.890746e+12	0.000000e+00	6.482410e-01	1.325080e+14	5.401023e+14	2.455312e+14	9.350080e+03	4.266993e+03	1.873772e+03	0	4.247436e-04
6.700000e+08	2.846361e+12	0.000000e+00	6.482410e-01	1.320749e+14	5.349809e+14	2.443454e+14	9.347527e+03	4.261768e+03	1.871477e+03	0	4.225585e-04
6.800000e+08	2.802623e+12	0.000000e+00	6.482410e-01	1.316478e+14	5.299943e+14	2.431679e+14	9.344982e+03	4.256655e+03	1.869232e+03	0	4.203829e-04
6.900000e+08	2.759512e+12	0.000000e+00	6.482410e-01	1.312265e+14	5.251370e+14	2.419986e+14	9.342445e+03	4.251650e+03	1.867034e+03	0	4.182163e-04
7.000000e+08	2.717012e+12	0.000000e+00	6.482410e-01	1.308109e+14	5.204037e+14	2.408376e+14	9.339917e+03	4.246750e+03	1.864882e+03	0	4.160581e-04
7.100000e+08	2.675102e+12	0.000000e+00	6.482410e-01	1.304007e+14	5.157895e+14	2.396847e+14	9.337396e+03	4.241951e+03	1.862775e+03	0	4.139078e-04
7.200000e+08	2.633768e+12	0.000000e+00	6.482410e-01	1.299958e+14	5.112898e+14	2.385398e+14	9.334884e+03	4.237250e+03	1.860710e+03	0	4.117649e-04
7.300000e+08	2.592991e+12	0.000000e+00	6.482410e-01	1.295961e+14	5.069001e+14	2.374030e+14	9.332379e+03	4.232643e+03	1.858687e+03	0	4.096288e-04
7.400000e+08	2.552756e+12	0.000000e+00	6.482410e-01	1.292014e+14	5.026161e+14	2.362741e+14	9.329882e+03	4.228129e+03	1.856705e+03	0	4.074991e-04
7.500000e+08	2.513049e+12	0.000000e+00	6.482410e-01	1.288116e+14	4.984338e+14	2.351530e+14	9.327392e+03	4.223702e+03	1.854761e+03	0	4.053752e-04
7.600000e+08	2.473854e+12	0.000000e+00	6.482410e-01	1.284266e+14	4.943495e+14	2.340398e+14	9.324910e+03	4.219362e+03	1.852855e+03	0	4.032566e-04
7.700000e+08	2.435157e+12	0.000000e+00	6.482410e-01	1.280462e+14	4.903595e+14	2.329343e+14	9.322436e+03	4.215104e+03	1.850985e+03	0	4.011429e-04
7.800000e+08	2.396945e+12	0.000000e+00	6.482410e-01	1.276703e+14	4.864602e+14	2.318365e+14	9.319969e+03	4.210927e+03	1.849151e+03	0	3.990336e-04
7.900000e+08	2.359204e+12	0.000000e+00	6.482410e-01	1.272987e+14	4.826485e+14	2.307463e+14	9.317509e+03	4.206827e+03	1.847351e+03	0	3.969283e-04
8.000000e+08	2.321923e+12	0.000000e+00	6.482410e-01	1.269314e+14	4.789212e+14	2.296637e+14	9.315056e+03	4.202803e+03	1.845584e+03	0	3.948263e-04
8.100000e+08	2.285089e+12	0.000000e+00	6.482410e-01	1.265683e+14	4.752752e+14	2.285886e+14	9.312610e+03	4.198852e+03	1.843849e+03	0	3.927274e-04
8.200000e+08	2.248690e+12	0.000000e+00	6.482410e-01	1.262092e+14	4.717078e+14	2.275209e+14	9.310171e+03	4.194972e+03	1.842145e+03	0	3.906310e-04
8.300000e+08	2.212715e+12	0.000000e+00	6.482410e-01	1.258540e+14	4.682161e+14	2.264606e+14	9.307739e+03	4.191161e+03	1.840471e+03	0	3.885367e-04
8.400000e+08	2.177154e+12	0.000000e+00	6.482410e-01	1.255027e+14	4.647975e+14	2.254076e+14	9.305314e+03	4.187416e+03	1.838827e+03	0	3.864440e-04
8.500000e+08	2.141995e+12	0.000000e+00	6.482410e-01	1.251552e+14	4.614497e+14	2.243619e+14	9.302896e+03	4.183736e+03	1.837211e+03	0	3.843524e-04
8.600000e+08	2.107229e+12	0.000000e+00	6.482410e-01	1.248113e+14	4.581701e+14	2.233234e+14	9.300485e+03	4.180119e+03	1.835623e+03	0	3.822617e-04
8.700000e+08	2.072846e+12	0.000000e+00	6.482410e-01	1.244709e+14	4.549566e+14	2.222921e+14	9.298080e+03	4.176563e+03	1.834061e+03	0	3.801712e-04
8.800000e+08	2.038837e+12	0.000000e+00	6.482410e-01	1.241340e+14	4.518068e+14	2.212678e+14	9.295681e+03	4.173066e+03	1.832525e+03	0	3.780805e-04
8.900000e+08	2.005192e+12	0.000000e+00	6.482410e-01	1.238005e+14	4.487189e+14	2.202506e+14	9.293289e+03	4.169627e+03	1.831015e+03	0	3.759893e-04
9.000000e+08	1.971902e+12	0.000000e+00	6.482410e-01	1.234704e+14	4.456906e+14	2.192403e+14	9.290904e+03	4.166243e+03	1.829529e+03	0	3.738970e-04
9.100000e+08	1.938960e+12	0.000000e+00	6.482410e-01	1.231434e+14	4.427202e+14	2.182370e+14	9.288525e+03	4.162914e+03	1.828067e+03	0	3.718032e-04
9.200000e+08	1.906357e+12	0.000000e+00	6.482410e-01	1.228196e+14	4.398058e+14	2.172406e+14	9.286152e+03	4.159637e+03	1.826628e+03	0	3.697075e-04
9.300000e+08	1.874085e+12	0.000000e+00	6.482410e-01	1.224989e+14	4.369457e+14	2.162510e+14	9.283785e+03	4.156412e+03	1.825212e+03	0	3.676094e-04
9.400000e+08	1.842137e+12	0.000000e+00	6.482410e-01	1.221813e+14	4.341381e+14	2.152681e+14	9.281425e+03	4.153236e+03	1.823817e+03	0	3.655085e-04
9.500000e+08	1.810504e+12	0.000000e+00	6.482410e-01	1.218665e+14	4.313814e+14	2.142919e+14	9.279070e+03	4.150109e+03	1.822444e+03	0	3.634043e-04
9.600000e+08	1.779181e+12	0.000000e+00	6.482410e-01	1.215547e+14	4.286741e+14	2.133224e+14	9.276722e+03	4.147029e+03	1.821092e+03	0	3.612963e-04
9.700000e+08	1.748160e+12	0.000000e+00	6.482410e-01	1.212456e+14	4.260147e+14	2.123595e+14	9.274380e+03	4.143995e+03	1.819759e+03	0	3.591842e-04
9.800000e+08	1.717433e+12	0.000000e+00	6.482410e-01	1.209394e+14	4.234018e+14	2.114032e+14	9.272044e+03	4.141006e+03	1.818446e+03	0	3.570673e-04
9.900000e+08	1.686996e+12	0.000000e+00	6.482410e-01	1.206358e+14	4.208340e+14	2.104534e+14	9.269713e+03	4.138060e+03	1.817153e+03	0	3.549454e-04
1.000000e+09	1.656841e+12	0.000000e+00	6.482410e-01	1.203348e+14	4.183099e+14	2.095100e+14	9.267389e+03	4.135156e+03	1.815878e+03	0	3.528178e-04
1.010000e+09	1.626963e+12	0.000000e+00	6.482410e-01	1.200365e+14	4.158283e+14	2.085730e+14	9.265070e+03	4.132293e+03	1.814621e+03	0	3.506841e-04
1.020000e+09	1.597355e+12	0.000000e+00	6.482410e-01	1.197406e+14	4.133880e+14	2.076423e+14	9.262757e+03	4.129471e+03	1.813381e+03	0	3.485437e-04
1.030000e+09	1.568012e+12	0.000000e+00	6.482410e-01	1.194473e+14	4.109878e+14	2.067180e+14	9.260450e+03	4.126687e+03	1.812159e+03	0	3.463963e-04
1.040000e+09	1.538928e+12	0.000000e+00	6.482410e-01	1.191563e+14	4.086266e+14	2.057999e+14	9.258148e+03	4.123942e+03	1.810953e+03	0	3.442413e-04
1.050000e+09	1.510098e+12	0.000000e+00	6.482410e-01	1.188678e+14	4.063032e+14	2.048880e+14	9.255852e+03	4.121234e+03	1.809764e+03	0	3.420781e-04
1.060000e+09	1.481517e+12	0.000000e+00	6.482410e-01	1.185816e+14	4.040167e+14	2.039822e+14	9.253562e+03	4.118562e+03	1.808591e+03	0	3.399062e-04
1.070000e+09	1.453180e+12	0.000000e+00	6.482410e-01	1.182976e+14	4.017660e+14	2.030826e+14	9.251277e+03	4.115925e+03	1.807433e+03	0	3.377250e-04
1.080000e+09	1.425081e+12	0.000000e+00	6.482410e-01	1.180159e+14	3.995501e+14	2.021890e+14	9.248997e+03	4.113322e+03	1.806290e+03	0	3.355341e-04
1.090000e+09	1.397216e+12	0.000000e+00	6.482410e-01	1.177364e+14	3.973681e+14	2.013014e+14	9.246723e+03	4.110753e+03	1.805162e+03	0	3.333328e-04
1.100000e+09	1.369581e+12	0.000000e+00	6.482410e-01	1.174590e+14	3.952192e+14	2.004197e+14	9.244454e+03	4.108217e+03	1.804048e+03	0	3.311205e-04
1.110000e+09	1.342171e+12	0.000000e+00	6.482410e-01	1.171837e+14	3.931024e+14	1.995440e+14	9.242191e+03	4.105712e+03	1.802948e+03	0	3.288967e-04
1.120000e+09	1.314982e+12	0.000000e+00	6.482410e-01	1.169106e+14	3.910169e+14	1.986742e+14	9.239933e+03	4.103239e+03	1.801862e+03	0	3.266606e-04
1.130000e+09	1.288009e+12	0.000000e+00	6.482410e-01	1.166394e+14	3.889618e+14	1.978101e+14	9.237680e+03	4.100796e+03	1.800789e+03	0	3.244116e-04
1.140000e+09	1.261248e+12	0.000000e+00	6.482410e-01	1.163702e+14	3.869365e+14	1.969519e+14	9.235432e+03	4.098383e+03	1.799729e+03	0	3.221491e-04
1.150000e+09	1.234695e+12	0.000000e+00	6.482410e-01	1.161030e+14	3.849401e+14	1.960994e+14	9.233190e+03	4.095998e+03	1.798682e+03	0	3.198724e-04
1.160000e+09	1.208347e+12	0.000000e+00	6.482410e-01	1.158377e+14	3.829719e+14	1.952525e+14	9.230953e+03	4.093642e+03	1.797648e+03	0	3.175807e-04
1.170000e+09	1.182200e+12	0.000000e+00	6.482410e-01	1.155743e+14	3.810312e+14	1.944113e+14	9.228721e+03	4.091314e+03	1.796625e+03	0	3.152733e-04
1.180000e+09	1.156250e+12	0.000000e+00	6.482410e-01	1.153128e+14	3.791173e+14	1.935757e+14	9.226494e+03	4.089012e+03	1.795614e+03	0	3.129494e-04
1.190000e+09	1.130494e+12	0.000000e+00	6.482410e-01	1.150530e+14	3.772296e+14	1.927457e+14	9.224272e+03	4.086737e+03	1.794615e+03	0	3.106082e-04
1.200000e+09	1.104928e+12	0.000000e+00	6.482410e-01	1.147951e+14	3.753674e+14	1.919211e+14	9.222055e+03	4.084487e+03	1.793627e+03	0	3.082488e-04
1.210000e+09	1.079548e+12	0.000000e+00	6.482410e-01	1.145389e+14	3.735302e+14	1.911021e+14	9.219842e+03	4.082262e+03	1.792650e+03	0	3.058704e-04
1.220000e+09	1.054352e+12	0.000000e+00	6.482410e-01	1.142844e+14	3.717172e+14	1.902884e+14	9.217635e+03	4.080062e+03	1.791684e+03	0	3.034721e-04
1.230000e+09	1.029336e+12	0.000000e+00	6.482410e-01	1.140317e+14	3.699280e+14	1.894802e+14	9.215433e+03	4.077887e+03	1.790729e+03	0	3.010528e-04
1.240000e+09	1.004498e+12	0.000000e+00	6.482410e-01	1.137806e+14	3.681620e+14	1.886773e+14	9.213236e+03	4.075734e+03	1.789784e+03	0	2.986115e-04
1.250000e+09	9.798339e+11	0.000000e+00	6.482410e-01	1.135311e+14	3.664186e+14	1.878797e+14	9.211043e+03	4.073605e+03	1.788848e+03	0	2.961472e-04
1.260000e+09	9.553411e+11	0.000000e+00	6.482410e-01	1.132833e+14	3.646974e+14	1.870873e+14	9.208855e+03	4.071498e+03	1.787923e+03	0	2.936588e-04
1.270000e+09	9.310168e+11	0.000000e+00	6.482410e-01	1.130370e+14	3.629978e+14	1.863002e+14	9.206673e+03	4.069412e+03	1.787008e+03	0	2.911450e-04
1.280000e+09	9.068583e+11	0.000000e+00	6.482410e-01	1.127923e+14	3.613192e+14	1.855182e+14	9.204494e+03	4.067349e+03	1.786101e+03	0	2.886046e-04
1.290000e+09	8.828628e+11	0.000000e+00	6.482410e-01	1.125492e+14	3.596614e+14	1.847414e+14	9.202321e+03	4.065306e+03	1.785204e+03	0	2.860364e-04
1.300000e+09	8.590277e+11	0.000000e+00	6.482410e-01	1.123075e+14	3.580237e+14	1.839697e+14	9.200152e+03	4.063284e+03	1.784317e+03	0	2.834387e-04
1.310000e+09	8.353504e+11	0.000000e+00	6.482410e-01	1.120674e+14	3.564058e+14	1.832030e+14	9.197988e+03	4.061282e+03	1.783437e+03	0	2.808103e-04
1.320000e+09	8.118286e+11	0.000000e+00	6.482410e-01	1.118287e+14	3.548072e+14	1.824414e+14	9.195828e+03	4.059300e+03	1.782567e+03	0	2.781495e-04
1.330000e+09	7.884596e+11	0.000000e+00	6.482410e-01	1.115915e+14	3.532275e+14	1.816847e+14	9.193673e+03	4.057337e+03	1.781705e+03	0	2.754546e-04
1.340000e+09	7.652413e+11	0.000000e+00	6.482410e-01	1.113556e+14	3.516663e+14	1.809330e+14	9.191523e+03	4.055393e+03	1.780851e+03	0	2.727237e-04
1.350000e+09	7.421712e+11	0.000000e+00	6.482410e-01	1.111212e+14	3.501232e+14	1.801862e+14	9.189377e+03	4.053468e+03	1.780006e+03	0	2.699551e-04
1.360000e+09	7.192471e+11	0.000000e+00	6.482410e-01	1.108882e+14	3.485977e+14	1.794442e+14	9.187236e+03	4.051561e+03	1.779168e+03	0	2.671465e-04
