#t		Qconv[W]	Ri[Rp]		R*[Rp]		Qc[W]		Qm[W]		Qr[W]		Tcmb[K]		Tl[K]		Tup[K]		RiFlag		Bs[T]
0.000000e+00	1.111188e+13	0.000000e+00	6.432162e-01	2.546988e+14	3.398670e+15	3.947454e+14	1.051442e+04	6.139899e+03	2.543942e+03	0	6.660268e-04
1.000000e+07	1.083929e+13	0.000000e+00	6.432162e-01	2.522544e+14	3.169156e+15	3.925582e+14	1.051027e+04	6.062803e+03	2.511999e+03	0	6.605355e-04
2.000000e+07	1.056745e+13	0.000000e+00	6.432162e-01	2.498172e+14	2.967010e+15	3.903874e+14	1.050617e+04	5.991878e+03	2.482613e+03	0	6.549668e-04
3.000000e+07	1.029882e+13	0.000000e+00	6.432162e-01	2.474086e+14	2.787912e+15	3.882328e+14	1.050210e+04	5.926390e+03	2.455479e+03	0	6.493693e-04
4.000000e+07	1.003506e+13	0.000000e+00	6.432162e-01	2.450432e+14	2.628370e+15	3.860943e+14	1.049808e+04	5.865718e+03	2.430341e+03	0	6.437776e-04
5.000000e+07	9.777256e+12	0.000000e+00	6.432162e-01	2.427304e+14	2.485536e+15	3.839717e+14	1.049409e+04	5.809335e+03	2.406980e+03	0	6.382168e-04
6.000000e+07	9.526107e+12	0.000000e+00	6.432162e-01	2.404763e+14	2.357070e+15	3.818650e+14	1.049014e+04	5.756790e+03	2.385209e+03	0	6.327047e-04
7.000000e+07	9.282010e+12	0.000000e+00	6.432162e-01	2.382844e+14	2.241029e+15	3.797739e+14	1.048623e+04	5.707692e+03	2.364866e+03	0	6.272537e-04
8.000000e+07	9.045164e+12	0.000000e+00	6.432162e-01	2.361564e+14	2.135797e+15	3.776984e+14	1.048235e+04	5.661706e+03	2.345812e+03	0	6.218726e-04
9.000000e+07	8.815618e+12	0.000000e+00	6.432162e-01	2.340927e+14	2.040014e+15	3.756383e+14	1.047851e+04	5.618537e+03	2.327926e+03	0	6.165668e-04
1.000000e+08	8.593319e+12	0.000000e+00	6.432162e-01	2.320929e+14	1.952530e+15	3.735936e+14	1.047470e+04	5.577928e+03	2.311101e+03	0	6.113401e-04
1.100000e+08	8.378142e+12	0.000000e+00	6.432162e-01	2.301557e+14	1.872370e+15	3.715640e+14	1.047092e+04	5.539653e+03	2.295242e+03	0	6.061943e-04
1.200000e+08	8.169913e+12	0.000000e+00	6.432162e-01	2.282798e+14	1.798698e+15	3.695494e+14	1.046717e+04	5.503512e+03	2.280268e+03	0	6.011300e-04
1.300000e+08	7.968423e+12	0.000000e+00	6.432162e-01	2.264632e+14	1.730800e+15	3.675498e+14	1.046346e+04	5.469330e+03	2.266105e+03	0	5.961470e-04
1.400000e+08	7.773445e+12	0.000000e+00	6.432162e-01	2.247040e+14	1.668056e+15	3.655649e+14	1.045977e+04	5.436947e+03	2.252688e+03	0	5.912445e-04
1.500000e+08	7.584740e+12	0.000000e+00	6.432162e-01	2.230000e+14	1.609930e+15	3.635948e+14	1.045612e+04	5.406223e+03	2.239958e+03	0	5.864209e-04
1.600000e+08	7.402063e+12	0.000000e+00	6.432162e-01	2.213492e+14	1.555955e+15	3.616392e+14	1.045249e+04	5.377032e+03	2.227864e+03	0	5.816747e-04
1.700000e+08	7.225170e+12	0.000000e+00	6.432162e-01	2.197492e+14	1.505724e+15	3.596980e+14	1.044888e+04	5.349260e+03	2.216357e+03	0	5.770037e-04
1.800000e+08	7.053817e+12	0.000000e+00	6.432162e-01	2.181981e+14	1.458879e+15	3.577711e+14	1.044531e+04	5.322806e+03	2.205396e+03	0	5.724057e-04
1.900000e+08	6.887769e+12	0.000000e+00	6.432162e-01	2.166937e+14	1.415104e+15	3.558584e+14	1.044176e+04	5.297575e+03	2.194942e+03	0	5.678785e-04
2.000000e+08	6.726795e+12	0.000000e+00	6.432162e-01	2.152341e+14	1.374121e+15	3.539598e+14	1.043823e+04	5.273486e+03	2.184961e+03	0	5.634196e-04
2.100000e+08	6.570672e+12	0.000000e+00	6.432162e-01	2.138171e+14	1.335683e+15	3.520752e+14	1.043473e+04	5.250460e+03	2.175421e+03	0	5.590267e-04
2.200000e+08	6.419188e+12	0.000000e+00	6.432162e-01	2.124411e+14	1.299570e+15	3.502044e+14	1.043125e+04	5.228429e+03	2.166293e+03	0	5.546972e-04
2.300000e+08	6.272137e+12	0.000000e+00	6.432162e-01	2.111042e+14	1.265587e+15	3.483473e+14	1.042779e+04	5.207329e+03	2.157551e+03	0	5.504287e-04
2.400000e+08	6.129323e+12	0.000000e+00	6.432162e-01	2.098046e+14	1.233558e+15	3.465038e+14	1.042435e+04	5.187101e+03	2.149170e+03	0	5.462189e-04
2.500000e+08	5.990560e+12	0.000000e+00	6.432162e-01	2.085407e+14	1.203326e+15	3.446739e+14	1.042094e+04	5.167693e+03	2.141128e+03	0	5.420654e-04
2.600000e+08	5.855669e+12	0.000000e+00	6.432162e-01	2.073110e+14	1.174751e+15	3.428573e+14	1.041755e+04	5.149055e+03	2.133406e+03	0	5.379659e-04
2.700000e+08	5.724482e+12	0.000000e+00	6.432162e-01	2.061139e+14	1.147705e+15	3.410540e+14	1.041417e+04	5.131142e+03	2.125984e+03	0	5.339181e-04
2.800000e+08	5.596838e+12	0.000000e+00	6.432162e-01	2.049481e+14	1.122072e+15	3.392639e+14	1.041082e+04	5.113912e+03	2.118845e+03	0	5.299198e-04
2.900000e+08	5.472582e+12	0.000000e+00	6.432162e-01	2.038122e+14	1.097750e+15	3.374869e+14	1.040748e+04	5.097328e+03	2.111974e+03	0	5.259688e-04
3.000000e+08	5.351571e+12	0.000000e+00	6.432162e-01	2.027049e+14	1.074643e+15	3.357228e+14	1.040416e+04	5.081352e+03	2.105355e+03	0	5.220631e-04
3.100000e+08	5.233666e+12	0.000000e+00	6.432162e-01	2.016250e+14	1.052666e+15	3.339715e+14	1.040087e+04	5.065952e+03	2.098974e+03	0	5.182006e-04
3.200000e+08	5.118737e+12	0.000000e+00	6.432162e-01	2.005714e+14	1.031740e+15	3.322330e+14	1.039758e+04	5.051097e+03	2.092819e+03	0	5.143793e-04
3.300000e+08	5.006658e+12	0.000000e+00	6.432162e-01	1.995430e+14	1.011794e+15	3.305072e+14	1.039432e+04	5.036759e+03	2.086878e+03	0	5.105974e-04
3.400000e+08	4.897313e+12	0.000000e+00	6.432162e-01	1.985387e+14	9.927638e+14	3.287939e+14	1.039107e+04	5.022910e+03	2.081141e+03	0	5.068528e-04
3.500000e+08	4.790588e+12	0.000000e+00	6.432162e-01	1.975576e+14	9.745883e+14	3.270930e+14	1.038784e+04	5.009527e+03	2.075596e+03	0	5.031439e-04
3.600000e+08	4.686378e+12	0.000000e+00	6.432162e-01	1.965987e+14	9.572131e+14	3.254044e+14	1.038462e+04	4.996586e+03	2.070234e+03	0	4.994688e-04
3.700000e+08	4.584582e+12	0.000000e+00	6.432162e-01	1.956611e+14	9.405878e+14	3.237281e+14	1.038142e+04	4.984065e+03	2.065046e+03	0	4.958258e-04
3.800000e+08	4.485104e+12	0.000000e+00	6.432162e-01	1.947440e+14	9.246661e+14	3.220639e+14	1.037824e+04	4.971945e+03	2.060024e+03	0	4.922134e-04
3.900000e+08	4.387852e+12	0.000000e+00	6.432162e-01	1.938465e+14	9.094052e+14	3.204117e+14	1.037507e+04	4.960205e+03	2.055160e+03	0	4.886297e-04
4.000000e+08	4.292739e+12	0.000000e+00	6.432162e-01	1.929680e+14	8.947656e+14	3.187714e+14	1.037192e+04	4.948828e+03	2.050446e+03	0	4.850733e-04
4.100000e+08	4.199684e+12	0.000000e+00	6.432162e-01	1.921077e+14	8.807109e+14	3.171430e+14	1.036877e+04	4.937798e+03	2.045876e+03	0	4.815427e-04
4.200000e+08	4.108608e+12	0.000000e+00	6.432162e-01	1.912649e+14	8.672073e+14	3.155263e+14	1.036565e+04	4.927098e+03	2.041443e+03	0	4.780362e-04
4.300000e+08	4.019436e+12	0.000000e+00	6.432162e-01	1.904389e+14	8.542236e+14	3.139213e+14	1.036253e+04	4.916714e+03	2.037140e+03	0	4.745525e-04
4.400000e+08	3.932097e+12	0.000000e+00	6.432162e-01	1.896292e+14	8.417306e+14	3.123278e+14	1.035944e+04	4.906632e+03	2.032963e+03	0	4.710901e-04
4.500000e+08	3.846523e+12	0.000000e+00	6.432162e-01	1.888351e+14	8.297015e+14	3.107458e+14	1.035635e+04	4.896839e+03	2.028905e+03	0	4.676476e-04
4.600000e+08	3.762651e+12	0.000000e+00	6.432162e-01	1.880560e+14	8.181111e+14	3.091751e+14	1.035328e+04	4.887322e+03	2.024962e+03	0	4.642236e-04
4.700000e+08	3.680417e+12	0.000000e+00	6.432162e-01	1.872915e+14	8.069360e+14	3.076157e+14	1.035021e+04	4.878069e+03	2.021129e+03	0	4.608168e-04
4.800000e+08	3.599765e+12	0.000000e+00	6.432162e-01	1.865409e+14	7.961544e+14	3.060675e+14	1.034717e+04	4.869070e+03	2.017400e+03	0	4.574258e-04
4.900000e+08	3.520638e+12	0.000000e+00	6.432162e-01	1.858039e+14	7.857460e+14	3.045303e+14	1.034413e+04	4.860314e+03	2.013772e+03	0	4.540493e-04
5.000000e+08	3.442982e+12	0.000000e+00	6.432162e-01	1.850799e+14	7.756918e+14	3.030041e+14	1.034111e+04	4.851791e+03	2.010241e+03	0	4.506861e-04
5.100000e+08	3.366747e+12	0.000000e+00	6.432162e-01	1.843685e+14	7.659741e+14	3.014889e+14	1.033809e+04	4.843492e+03	2.006802e+03	0	4.473348e-04
5.200000e+08	3.291884e+12	0.000000e+00	6.432162e-01	1.836693e+14	7.565761e+14	2.999844e+14	1.033509e+04	4.835408e+03	2.003453e+03	0	4.439943e-04
5.300000e+08	3.218346e+12	0.000000e+00	6.432162e-01	1.829818e+14	7.474822e+14	2.984907e+14	1.033210e+04	4.827529e+03	2.000188e+03	0	4.406632e-04
5.400000e+08	3.146089e+12	0.000000e+00	6.432162e-01	1.823057e+14	7.386779e+14	2.970076e+14	1.032912e+04	4.819849e+03	1.997006e+03	0	4.373404e-04
5.500000e+08	3.075071e+12	0.000000e+00	6.432162e-01	1.816405e+14	7.301495e+14	2.955351e+14	1.032616e+04	4.812360e+03	1.993903e+03	0	4.340246e-04
5.600000e+08	3.005251e+12	0.000000e+00	6.432162e-01	1.809860e+14	7.218839e+14	2.940731e+14	1.032320e+04	4.805054e+03	1.990876e+03	0	4.307145e-04
5.700000e+08	2.936590e+12	0.000000e+00	6.432162e-01	1.803418e+14	7.138691e+14	2.926214e+14	1.032025e+04	4.797924e+03	1.987922e+03	0	4.274090e-04
5.800000e+08	2.869051e+12	0.000000e+00	6.432162e-01	1.797076e+14	7.060937e+14	2.911800e+14	1.031732e+04	4.790965e+03	1.985039e+03	0	4.241069e-04
5.900000e+08	2.802597e+12	0.000000e+00	6.432162e-01	1.790830e+14	6.985468e+14	2.897488e+14	1.031439e+04	4.784169e+03	1.982223e+03	0	4.208069e-04
6.000000e+08	2.737196e+12	0.000000e+00	6.432162e-01	1.784677e+14	6.912185e+14	2.883278e+14	1.031148e+04	4.777531e+03	1.979472e+03	0	4.175077e-04
6.100000e+08	2.672813e+12	0.000000e+00	6.432162e-01	1.778615e+14	6.840989e+14	2.869168e+14	1.030857e+04	4.771044e+03	1.976785e+03	0	4.142083e-04
6.200000e+08	2.609419e+12	0.000000e+00	6.432162e-01	1.772641e+14	6.771793e+14	2.855158e+14	1.030568e+04	4.764704e+03	1.974158e+03	0	4.109073e-04
6.300000e+08	2.546982e+12	0.000000e+00	6.432162e-01	1.766752e+14	6.704510e+14	2.841247e+14	1.030279e+04	4.758506e+03	1.971590e+03	0	4.076035e-04
6.400000e+08	2.485473e+12	0.000000e+00	6.432162e-01	1.760946e+14	6.639059e+14	2.827434e+14	1.029992e+04	4.752444e+03	1.969078e+03	0	4.042955e-04
6.500000e+08	2.424866e+12	0.000000e+00	6.432162e-01	1.755219e+14	6.575364e+14	2.813718e+14	1.029705e+04	4.746514e+03	1.966621e+03	0	4.009823e-04
6.600000e+08	2.365133e+12	0.000000e+00	6.432162e-01	1.749571e+14	6.513353e+14	2.800099e+14	1.029419e+04	4.740711e+03	1.964217e+03	0	3.976623e-04
6.700000e+08	2.306249e+12	0.000000e+00	6.432162e-01	1.743998e+14	6.452957e+14	2.786576e+14	1.029135e+04	4.735031e+03	1.961864e+03	0	3.943344e-04
6.800000e+08	2.248188e+12	0.000000e+00	6.432162e-01	1.738498e+14	6.394112e+14	2.773147e+14	1.028851e+04	4.729470e+03	1.959559e+03	0	3.909970e-04
6.900000e+08	2.190929e+12	0.000000e+00	6.432162e-01	1.733070e+14	6.336756e+14	2.759813e+14	1.028568e+04	4.724023e+03	1.957303e+03	0	3.876490e-04
7.000000e+08	2.134447e+12	0.000000e+00	6.432162e-01	1.727711e+14	6.280830e+14	2.746572e+14	1.028286e+04	4.718688e+03	1.955092e+03	0	3.842887e-04
7.100000e+08	2.078720e+12	0.000000e+00	6.432162e-01	1.722419e+14	6.226279e+14	2.733424e+14	1.028004e+04	4.713459e+03	1.952926e+03	0	3.809149e-04
7.200000e+08	2.023729e+12	0.000000e+00	6.432162e-01	1.717193e+14	6.173050e+14	2.720368e+14	1.027724e+04	4.708335e+03	1.950803e+03	0	3.775259e-04
7.300000e+08	1.969453e+12	0.000000e+00	6.432162e-01	1.712031e+14	6.121094e+14	2.707403e+14	1.027445e+04	4.703311e+03	1.948721e+03	0	3.741201e-04
7.400000e+08	1.915871e+12	0.000000e+00	6.432162e-01	1.706931e+14	6.070361e+14	2.694529e+14	1.027166e+04	4.698385e+03	1.946680e+03	0	3.706961e-04
7.500000e+08	1.862966e+12	0.000000e+00	6.432162e-01	1.701891e+14	6.020808e+14	2.681744e+14	1.026888e+04	4.693553e+03	1.944678e+03	0	3.672521e-04
7.600000e+08	1.810720e+12	0.000000e+00	6.432162e-01	1.696909e+14	5.972390e+14	2.669048e+14	1.026611e+04	4.688812e+03	1.942714e+03	0	3.637863e-04
7.700000e+08	1.759114e+12	0.000000e+00	6.432162e-01	1.691985e+14	5.925067e+14	2.656441e+14	1.026335e+04	4.684160e+03	1.940786e+03	0	3.602970e-04
7.800000e+08	1.708133e+12	0.000000e+00	6.432162e-01	1.687117e+14	5.878799e+14	2.643921e+14	1.026059e+04	4.679594e+03	1.938894e+03	0	3.567822e-04
7.900000e+08	1.657760e+12	0.000000e+00	6.432162e-01	1.682303e+14	5.833549e+14	2.631489e+14	1.025785e+04	4.675111e+03	1.937037e+03	0	3.532399e-04
8.000000e+08	1.607979e+12	0.000000e+00	6.432162e-01	1.677542e+14	5.789281e+14	2.619142e+14	1.025511e+04	4.670708e+03	1.935213e+03	0	3.496681e-04
8.100000e+08	1.558775e+12	0.000000e+00	6.432162e-01	1.672833e+14	5.745961e+14	2.606881e+14	1.025238e+04	4.666384e+03	1.933421e+03	0	3.460645e-04
8.200000e+08	1.510134e+12	0.000000e+00	6.432162e-01	1.668174e+14	5.703556e+14	2.594705e+14	1.024966e+04	4.662135e+03	1.931661e+03	0	3.424268e-04
8.300000e+08	1.462042e+12	0.000000e+00	6.432162e-01	1.663564e+14	5.662036e+14	2.582613e+14	1.024694e+04	4.657961e+03	1.929931e+03	0	3.387525e-04
8.400000e+08	1.414485e+12	0.000000e+00	6.432162e-01	1.659002e+14	5.621370e+14	2.570605e+14	1.024423e+04	4.653857e+03	1.928231e+03	0	3.350390e-04
8.500000e+08	1.367451e+12	0.000000e+00	6.432162e-01	1.654487e+14	5.581529e+14	2.558679e+14	1.024153e+04	4.649824e+03	1.926560e+03	0	3.312835e-04
8.600000e+08	1.320926e+12	0.000000e+00	6.432162e-01	1.650017e+14	5.542487e+14	2.546836e+14	1.023884e+04	4.645857e+03	1.924916e+03	0	3.274830e-04
8.700000e+08	1.274899e+12	0.000000e+00	6.432162e-01	1.645592e+14	5.504218e+14	2.535074e+14	1.023615e+04	4.641956e+03	1.923300e+03	0	3.236342e-04
8.800000e+08	1.229357e+12	0.000000e+00	6.432162e-01	1.641210e+14	5.466697e+14	2.523393e+14	1.023347e+04	4.638119e+03	1.921710e+03	0	3.197338e-04
8.900000e+08	1.184289e+12	0.000000e+00	6.432162e-01	1.636871e+14	5.429899e+14	2.511793e+14	1.023080e+04	4.634344e+03	1.920146e+03	0	3.157780e-04
9.000000e+08	1.139685e+12	0.000000e+00	6.432162e-01	1.632574e+14	5.393802e+14	2.500272e+14	1.022814e+04	4.630629e+03	1.918607e+03	0	3.117627e-04
9.100000e+08	1.095533e+12	0.000000e+00	6.432162e-01	1.628317e+14	5.358384e+14	2.488830e+14	1.022548e+04	4.626972e+03	1.917092e+03	0	3.076836e-04
9.200000e+08	1.051823e+12	0.000000e+00	6.432162e-01	1.624100e+14	5.323623e+14	2.477466e+14	1.022283e+04	4.623372e+03	1.915600e+03	0	3.035360e-04
9.300000e+08	1.008546e+12	0.000000e+00	6.432162e-01	1.619921e+14	5.289500e+14	2.466180e+14	1.022019e+04	4.619828e+03	1.914132e+03	0	2.993145e-04
9.400000e+08	9.656912e+11	0.000000e+00	6.432162e-01	1.615781e+14	5.255995e+14	2.454971e+14	1.021755e+04	4.616337e+03	1.912685e+03	0	2.950136e-04
9.500000e+08	9.232498e+11	0.000000e+00	6.432162e-01	1.611678e+14	5.223089e+14	2.443839e+14	1.021492e+04	4.612899e+03	1.911261e+03	0	2.906268e-04
9.600000e+08	8.812126e+11	0.000000e+00	6.432162e-01	1.607611e+14	5.190765e+14	2.432782e+14	1.021230e+04	4.609512e+03	1.909857e+03	0	2.861472e-04
9.700000e+08	8.395710e+11	0.000000e+00	6.432162e-01	1.603579e+14	5.159005e+14	2.421801e+14	1.020968e+04	4.606174e+03	1.908474e+03	0	2.815670e-04
9.800000e+08	7.983163e+11	0.000000e+00	6.432162e-01	1.599583e+14	5.127792e+14	2.410895e+14	1.020707e+04	4.602885e+03	1.907112e+03	0	2.768774e-04
9.900000e+08	7.574403e+11	0.000000e+00	6.432162e-01	1.595620e+14	5.097112e+14	2.400063e+14	1.020446e+04	4.599642e+03	1.905768e+03	0	2.720688e-04
1.000000e+09	7.169352e+11	0.000000e+00	6.432162e-01	1.591691e+14	5.066948e+14	2.389304e+14	1.020187e+04	4.596446e+03	1.904444e+03	0	2.671299e-04
1.010000e+09	6.767931e+11	0.000000e+00	6.432162e-01	1.587794e+14	5.037286e+14	2.378618e+14	1.019928e+04	4.593294e+03	1.903138e+03	0	2.620482e-04
1.020000e+09	6.370066e+11	0.000000e+00	6.432162e-01	1.583930e+14	5.008111e+14	2.368005e+14	1.019669e+04	4.590186e+03	1.901850e+03	0	2.568092e-04
1.030000e+09	5.975684e+11	0.000000e+00	6.432162e-01	1.580097e+14	4.979411e+14	2.357463e+14	1.019411e+04	4.587120e+03	1.900580e+03	0	2.513960e-04
1.040000e+09	5.584714e+11	0.000000e+00	6.432162e-01	1.576294e+14	4.951171e+14	2.346993e+14	1.019154e+04	4.584096e+03	1.899327e+03	0	2.457893e-04
1.050000e+09	5.197089e+11	0.000000e+00	6.432162e-01	1.572522e+14	4.923379e+14	2.336594e+14	1.018897e+04	4.581112e+03	1.898090e+03	0	2.399658e-04
1.060000e+09	4.812742e+11	0.000000e+00	6.432162e-01	1.568780e+14	4.896024e+14	2.326264e+14	1.018641e+04	4.578167e+03	1.896870e+03	0	2.338981e-04
1.070000e+09	4.431608e+11	0.000000e+00	6.432162e-01	1.565066e+14	4.869093e+14	2.316004e+14	1.018386e+04	4.575261e+03	1.895666e+03	0	2.275532e-04
1.080000e+09	4.053626e+11	0.000000e+00	6.432162e-01	1.561381e+14	4.842575e+14	2.305813e+14	1.018131e+04	4.572392e+03	1.894477e+03	0	2.208905e-04
1.090000e+09	3.678733e+11	0.000000e+00	6.432162e-01	1.557723e+14	4.816458e+14	2.295691e+14	1.017877e+04	4.569560e+03	1.893304e+03	0	2.138596e-04
1.100000e+09	3.306872e+11	0.000000e+00	6.432162e-01	1.554094e+14	4.790734e+14	2.285637e+14	1.017624e+04	4.566763e+03	1.892145e+03	0	2.063962e-04
1.110000e+09	2.937985e+11	0.000000e+00	6.432162e-01	1.550491e+14	4.765390e+14	2.275650e+14	1.017371e+04	4.564001e+03	1.891001e+03	0	1.984171e-04
1.120000e+09	2.572017e+11	0.000000e+00	6.432162e-01	1.546914e+14	4.740418e+14	2.265730e+14	1.017118e+04	4.561273e+03	1.889870e+03	0	1.898106e-04
1.130000e+09	2.208912e+11	0.000000e+00	6.432162e-01	1.543363e+14	4.715808e+14	2.255876e+14	1.016866e+04	4.558578e+03	1.888754e+03	0	1.804217e-04
1.140000e+09	1.848620e+11	0.000000e+00	6.432162e-01	1.539838e+14	4.691551e+14	2.246089e+14	1.016615e+04	4.555915e+03	1.887651e+03	0	1.700246e-04
1.150000e+09	1.491089e+11	0.000000e+00	6.432162e-01	1.536338e+14	4.667638e+14	2.236366e+14	1.016364e+04	4.553284e+03	1.886561e+03	0	1.582694e-04
1.160000e+09	1.136268e+11	0.000000e+00	6.432162e-01	1.532862e+14	4.644060e+14	2.226709e+14	1.016114e+04	4.550685e+03	1.885483e+03	0	1.445627e-04
1.170000e+09	7.841109e+10	0.000000e+00	6.432162e-01	1.529410e+14	4.620810e+14	2.217115e+14	1.015865e+04	4.548115e+03	1.884419e+03	0	1.277483e-04
1.180000e+09	4.345694e+10	0.000000e+00	6.432162e-01	1.525982e+14	4.597878e+14	2.207586e+14	1.015616e+04	4.545574e+03	1.883366e+03	0	1.049339e-04
1.190000e+09	8.759796e+09	0.000000e+00	6.432162e-01	1.522578e+14	4.575258e+14	2.198120e+14	1.015367e+04	4.543063e+03	1.882326e+03	0	6.152627e-05
1.200000e+09	-2.568477e+10	0.000000e+00	6.432162e-01	1.519196e+14	4.552943e+14	2.188717e+14	1.015120e+04	4.540580e+03	1.881297e+03	0	-nan
