#t		Qconv[W]	Ri[Rp]		R*[Rp]		Qc[W]		Qm[W]		Qr[W]		Tcmb[K]		Tl[K]		Tup[K]		RiFlag		Bs[T]
0.000000e+00	1.052593e+13	0.000000e+00	6.432162e-01	3.096556e+14	3.488590e+15	4.347107e+14	1.137879e+04	6.573715e+03	2.593854e+03	0	6.535523e-04
1.000000e+07	1.021856e+13	0.000000e+00	6.432162e-01	3.069647e+14	3.279484e+15	4.323021e+14	1.137453e+04	6.502069e+03	2.565583e+03	0	6.471279e-04
2.000000e+07	9.913834e+12	0.000000e+00	6.432162e-01	3.042970e+14	3.092996e+15	4.299115e+14	1.137032e+04	6.435645e+03	2.539374e+03	0	6.406302e-04
3.000000e+07	9.613602e+12	0.000000e+00	6.432162e-01	3.016681e+14	2.925868e+15	4.275388e+14	1.136614e+04	6.373879e+03	2.515002e+03	0	6.340969e-04
4.000000e+07	9.319136e+12	0.000000e+00	6.432162e-01	2.990888e+14	2.775411e+15	4.251837e+14	1.136200e+04	6.316282e+03	2.492276e+03	0	6.275554e-04
5.000000e+07	9.031280e+12	0.000000e+00	6.432162e-01	2.965663e+14	2.639396e+15	4.228463e+14	1.135789e+04	6.262436e+03	2.471029e+03	0	6.210263e-04
6.000000e+07	8.750571e+12	0.000000e+00	6.432162e-01	2.941051e+14	2.515957e+15	4.205262e+14	1.135382e+04	6.211977e+03	2.451119e+03	0	6.145242e-04
7.000000e+07	8.477317e+12	0.000000e+00	6.432162e-01	2.917079e+14	2.403525e+15	4.182235e+14	1.134978e+04	6.164587e+03	2.432420e+03	0	6.080599e-04
8.000000e+07	8.211662e+12	0.000000e+00	6.432162e-01	2.893758e+14	2.300772e+15	4.159379e+14	1.134578e+04	6.119988e+03	2.414822e+03	0	6.016407e-04
9.000000e+07	7.953627e+12	0.000000e+00	6.432162e-01	2.871089e+14	2.206569e+15	4.136692e+14	1.134181e+04	6.077936e+03	2.398229e+03	0	5.952718e-04
1.000000e+08	7.703149e+12	0.000000e+00	6.432162e-01	2.849068e+14	2.119947e+15	4.114174e+14	1.133786e+04	6.038214e+03	2.382556e+03	0	5.889562e-04
1.100000e+08	7.460100e+12	0.000000e+00	6.432162e-01	2.827684e+14	2.040075e+15	4.091823e+14	1.133395e+04	6.000630e+03	2.367726e+03	0	5.826956e-04
1.200000e+08	7.224310e+12	0.000000e+00	6.432162e-01	2.806921e+14	1.966234e+15	4.069638e+14	1.133007e+04	5.965013e+03	2.353672e+03	0	5.764907e-04
1.300000e+08	6.995579e+12	0.000000e+00	6.432162e-01	2.786763e+14	1.897802e+15	4.047617e+14	1.132622e+04	5.931209e+03	2.340334e+03	0	5.703412e-04
1.400000e+08	6.773688e+12	0.000000e+00	6.432162e-01	2.767191e+14	1.834234e+15	4.025759e+14	1.132239e+04	5.899083e+03	2.327658e+03	0	5.642462e-04
1.500000e+08	6.558406e+12	0.000000e+00	6.432162e-01	2.748184e+14	1.775055e+15	4.004063e+14	1.131859e+04	5.868509e+03	2.315594e+03	0	5.582040e-04
1.600000e+08	6.349496e+12	0.000000e+00	6.432162e-01	2.729724e+14	1.719848e+15	3.982527e+14	1.131482e+04	5.839378e+03	2.304099e+03	0	5.522130e-04
1.700000e+08	6.146719e+12	0.000000e+00	6.432162e-01	2.711789e+14	1.668245e+15	3.961150e+14	1.131107e+04	5.811587e+03	2.293133e+03	0	5.462708e-04
1.800000e+08	5.949840e+12	0.000000e+00	6.432162e-01	2.694359e+14	1.619921e+15	3.939930e+14	1.130734e+04	5.785046e+03	2.282661e+03	0	5.403751e-04
1.900000e+08	5.758624e+12	0.000000e+00	6.432162e-01	2.677415e+14	1.574586e+15	3.918867e+14	1.130364e+04	5.759670e+03	2.272648e+03	0	5.345231e-04
2.000000e+08	5.572846e+12	0.000000e+00	6.432162e-01	2.660936e+14	1.531984e+15	3.897959e+14	1.129997e+04	5.735386e+03	2.263066e+03	0	5.287121e-04
2.100000e+08	5.392283e+12	0.000000e+00	6.432162e-01	2.644905e+14	1.491887e+15	3.877204e+14	1.129631e+04	5.712122e+03	2.253887e+03	0	5.229391e-04
2.200000e+08	5.216723e+12	0.000000e+00	6.432162e-01	2.629302e+14	1.454088e+15	3.856602e+14	1.129268e+04	5.689815e+03	2.245085e+03	0	5.172012e-04
2.300000e+08	5.045961e+12	0.000000e+00	6.432162e-01	2.614111e+14	1.418404e+15	3.836151e+14	1.128907e+04	5.668408e+03	2.236638e+03	0	5.114951e-04
2.400000e+08	4.879798e+12	0.000000e+00	6.432162e-01	2.599314e+14	1.384670e+15	3.815850e+14	1.128548e+04	5.647846e+03	2.228525e+03	0	5.058179e-04
2.500000e+08	4.718045e+12	0.000000e+00	6.432162e-01	2.584895e+14	1.352736e+15	3.795698e+14	1.128191e+04	5.628080e+03	2.220725e+03	0	5.001661e-04
2.600000e+08	4.560522e+12	0.000000e+00	6.432162e-01	2.570839e+14	1.322468e+15	3.775693e+14	1.127836e+04	5.609065e+03	2.213222e+03	0	4.945366e-04
2.700000e+08	4.407054e+12	0.000000e+00	6.432162e-01	2.557131e+14	1.293743e+15	3.755835e+14	1.127483e+04	5.590758e+03	2.205999e+03	0	4.889259e-04
2.800000e+08	4.257477e+12	0.000000e+00	6.432162e-01	2.543757e+14	1.266450e+15	3.736121e+14	1.127132e+04	5.573120e+03	2.199039e+03	0	4.833306e-04
2.900000e+08	4.111633e+12	0.000000e+00	6.432162e-01	2.530703e+14	1.240489e+15	3.716552e+14	1.126783e+04	5.556115e+03	2.192330e+03	0	4.777474e-04
3.000000e+08	3.969371e+12	0.000000e+00	6.432162e-01	2.517956e+14	1.215768e+15	3.697125e+14	1.126435e+04	5.539710e+03	2.185856e+03	0	4.721726e-04
3.100000e+08	3.830548e+12	0.000000e+00	6.432162e-01	2.505505e+14	1.192203e+15	3.677839e+14	1.126090e+04	5.523873e+03	2.179607e+03	0	4.666026e-04
3.200000e+08	3.695027e+12	0.000000e+00	6.432162e-01	2.493338e+14	1.169718e+15	3.658694e+14	1.125746e+04	5.508575e+03	2.173571e+03	0	4.610338e-04
3.300000e+08	3.562677e+12	0.000000e+00	6.432162e-01	2.481442e+14	1.148241e+15	3.639688e+14	1.125403e+04	5.493789e+03	2.167737e+03	0	4.554622e-04
3.400000e+08	3.433375e+12	0.000000e+00	6.432162e-01	2.469809e+14	1.127709e+15	3.620820e+14	1.125062e+04	5.479489e+03	2.162094e+03	0	4.498841e-04
3.500000e+08	3.307003e+12	0.000000e+00	6.432162e-01	2.458427e+14	1.108062e+15	3.602089e+14	1.124723e+04	5.465652e+03	2.156634e+03	0	4.442953e-04
3.600000e+08	3.183447e+12	0.000000e+00	6.432162e-01	2.447288e+14	1.089246e+15	3.583494e+14	1.124386e+04	5.452255e+03	2.151348e+03	0	4.386917e-04
3.700000e+08	3.062601e+12	0.000000e+00	6.432162e-01	2.436381e+14	1.071210e+15	3.565034e+14	1.124050e+04	5.439278e+03	2.146228e+03	0	4.330689e-04
3.800000e+08	2.944362e+12	0.000000e+00	6.432162e-01	2.425698e+14	1.053908e+15	3.546707e+14	1.123715e+04	5.426700e+03	2.141265e+03	0	4.274224e-04
3.900000e+08	2.828633e+12	0.000000e+00	6.432162e-01	2.415232e+14	1.037297e+15	3.528512e+14	1.123382e+04	5.414505e+03	2.136453e+03	0	4.217474e-04
4.000000e+08	2.715320e+12	0.000000e+00	6.432162e-01	2.404973e+14	1.021337e+15	3.510449e+14	1.123050e+04	5.402674e+03	2.131785e+03	0	4.160389e-04
4.100000e+08	2.604336e+12	0.000000e+00	6.432162e-01	2.394914e+14	1.005991e+15	3.492516e+14	1.122720e+04	5.391191e+03	2.127254e+03	0	4.102915e-04
4.200000e+08	2.495595e+12	0.000000e+00	6.432162e-01	2.385049e+14	9.912257e+14	3.474713e+14	1.122391e+04	5.380041e+03	2.122854e+03	0	4.044997e-04
4.300000e+08	2.389016e+12	0.000000e+00	6.432162e-01	2.375370e+14	9.770084e+14	3.457037e+14	1.122064e+04	5.369209e+03	2.118580e+03	0	3.986575e-04
4.400000e+08	2.284523e+12	0.000000e+00	6.432162e-01	2.365870e+14	9.633098e+14	3.439489e+14	1.121737e+04	5.358682e+03	2.114427e+03	0	3.927583e-04
4.500000e+08	2.182043e+12	0.000000e+00	6.432162e-01	2.356543e+14	9.501023e+14	3.422067e+14	1.121413e+04	5.348448e+03	2.110388e+03	0	3.867954e-04
4.600000e+08	2.081504e+12	0.000000e+00	6.432162e-01	2.347384e+14	9.373601e+14	3.404770e+14	1.121089e+04	5.338492e+03	2.106460e+03	0	3.807612e-04
4.700000e+08	1.982840e+12	0.000000e+00	6.432162e-01	2.338387e+14	9.250594e+14	3.387597e+14	1.120767e+04	5.328805e+03	2.102638e+03	0	3.746475e-04
4.800000e+08	1.885987e+12	0.000000e+00	6.432162e-01	2.329545e+14	9.131776e+14	3.370547e+14	1.120445e+04	5.319376e+03	2.098917e+03	0	3.684454e-04
4.900000e+08	1.790883e+12	0.000000e+00	6.432162e-01	2.320854e+14	9.016939e+14	3.353620e+14	1.120125e+04	5.310193e+03	2.095294e+03	0	3.621451e-04
5.000000e+08	1.697470e+12	0.000000e+00	6.432162e-01	2.312310e+14	8.905884e+14	3.336813e+14	1.119807e+04	5.301247e+03	2.091764e+03	0	3.557358e-04
5.100000e+08	1.605691e+12	0.000000e+00	6.432162e-01	2.303906e+14	8.798430e+14	3.320126e+14	1.119489e+04	5.292530e+03	2.088324e+03	0	3.492053e-04
5.200000e+08	1.515493e+12	0.000000e+00	6.432162e-01	2.295638e+14	8.694402e+14	3.303558e+14	1.119173e+04	5.284031e+03	2.084971e+03	0	3.425402e-04
5.300000e+08	1.426824e+12	0.000000e+00	6.432162e-01	2.287502e+14	8.593638e+14	3.287109e+14	1.118858e+04	5.275743e+03	2.081701e+03	0	3.357250e-04
5.400000e+08	1.339636e+12	0.000000e+00	6.432162e-01	2.279495e+14	8.495987e+14	3.270777e+14	1.118543e+04	5.267658e+03	2.078510e+03	0	3.287425e-04
5.500000e+08	1.253880e+12	0.000000e+00	6.432162e-01	2.271611e+14	8.401304e+14	3.254561e+14	1.118230e+04	5.259768e+03	2.075397e+03	0	3.215725e-04
5.600000e+08	1.169513e+12	0.000000e+00	6.432162e-01	2.263846e+14	8.309456e+14	3.238460e+14	1.117918e+04	5.252066e+03	2.072358e+03	0	3.141921e-04
5.700000e+08	1.086489e+12	0.000000e+00	6.432162e-01	2.256198e+14	8.220314e+14	3.222473e+14	1.117608e+04	5.244545e+03	2.069390e+03	0	3.065740e-04
5.800000e+08	1.004769e+12	0.000000e+00	6.432162e-01	2.248663e+14	8.133759e+14	3.206600e+14	1.117298e+04	5.237198e+03	2.066491e+03	0	2.986865e-04
5.900000e+08	9.243111e+11	0.000000e+00	6.432162e-01	2.241237e+14	8.049678e+14	3.190840e+14	1.116989e+04	5.230020e+03	2.063659e+03	0	2.904912e-04
6.000000e+08	8.450781e+11	0.000000e+00	6.432162e-01	2.233916e+14	7.967964e+14	3.175191e+14	1.116681e+04	5.223004e+03	2.060891e+03	0	2.819416e-04
6.100000e+08	7.670329e+11	0.000000e+00	6.432162e-01	2.226699e+14	7.888516e+14	3.159653e+14	1.116374e+04	5.216144e+03	2.058184e+03	0	2.729804e-04
6.200000e+08	6.901402e+11	0.000000e+00	6.432162e-01	2.219581e+14	7.811239e+14	3.144224e+14	1.116069e+04	5.209435e+03	2.055537e+03	0	2.635356e-04
6.300000e+08	6.143662e+11	0.000000e+00	6.432162e-01	2.212560e+14	7.736043e+14	3.128904e+14	1.115764e+04	5.202872e+03	2.052947e+03	0	2.535144e-04
6.400000e+08	5.396783e+11	0.000000e+00	6.432162e-01	2.205633e+14	7.662842e+14	3.113693e+14	1.115460e+04	5.196451e+03	2.050413e+03	0	2.427943e-04
6.500000e+08	4.660451e+11	0.000000e+00	6.432162e-01	2.198797e+14	7.591554e+14	3.098589e+14	1.115157e+04	5.190165e+03	2.047933e+03	0	2.312080e-04
6.600000e+08	3.934364e+11	0.000000e+00	6.432162e-01	2.192051e+14	7.522104e+14	3.083591e+14	1.114855e+04	5.184011e+03	2.045505e+03	0	2.185169e-04
6.700000e+08	3.218235e+11	0.000000e+00	6.432162e-01	2.185390e+14	7.454419e+14	3.068698e+14	1.114554e+04	5.177984e+03	2.043127e+03	0	2.043617e-04
6.800000e+08	2.511783e+11	0.000000e+00	6.432162e-01	2.178813e+14	7.388429e+14	3.053910e+14	1.114254e+04	5.172080e+03	2.040797e+03	0	1.881572e-04
6.900000e+08	1.814740e+11	0.000000e+00	6.432162e-01	2.172318e+14	7.324068e+14	3.039226e+14	1.113955e+04	5.166295e+03	2.038515e+03	0	1.688360e-04
7.000000e+08	1.126848e+11	0.000000e+00	6.432162e-01	2.165903e+14	7.261275e+14	3.024644e+14	1.113656e+04	5.160626e+03	2.036277e+03	0	1.440396e-04
7.100000e+08	4.478576e+10	0.000000e+00	6.432162e-01	2.159564e+14	7.199989e+14	3.010165e+14	1.113359e+04	5.155068e+03	2.034084e+03	0	1.059027e-04
7.200000e+08	-2.224698e+10	0.000000e+00	6.432162e-01	2.153301e+14	7.140155e+14	2.995787e+14	1.113062e+04	5.149618e+03	2.031934e+03	0	-nan
