#t		Qconv[W]	Ri[Rp]		R*[Rp]		Qc[W]		Qm[W]		Qr[W]		Tcmb[K]		Tl[K]		Tup[K]		RiFlag		Bs[T]
0.000000e+00	1.255899e+13	0.000000e+00	6.416184e-01	2.154004e+14	1.758581e+15	1.815857e+14	7.456491e+03	3.975143e+03	2.338209e+03	0	7.168269e-04
1.000000e+07	1.225617e+13	0.000000e+00	6.416184e-01	2.114987e+14	1.591662e+15	1.805796e+14	7.443953e+03	3.904999e+03	2.296950e+03	0	7.110187e-04
2.000000e+07	1.196405e+13	0.000000e+00	6.416184e-01	2.077334e+14	1.452763e+15	1.795810e+14	7.431641e+03	3.842957e+03	2.260457e+03	0	7.053244e-04
3.000000e+07	1.168388e+13	0.000000e+00	6.416184e-01	2.041197e+14	1.335752e+15	1.785899e+14	7.419547e+03	3.787665e+03	2.227933e+03	0	6.997750e-04
4.000000e+07	1.141599e+13	0.000000e+00	6.416184e-01	2.006620e+14	1.236105e+15	1.776061e+14	7.407663e+03	3.738057e+03	2.198753e+03	0	6.943855e-04
5.000000e+07	1.116024e+13	0.000000e+00	6.416184e-01	1.973584e+14	1.150423e+15	1.766298e+14	7.395979e+03	3.693286e+03	2.172419e+03	0	6.891609e-04
6.000000e+07	1.091622e+13	0.000000e+00	6.416184e-01	1.942036e+14	1.076111e+15	1.756606e+14	7.384487e+03	3.652668e+03	2.148527e+03	0	6.841010e-04
7.000000e+07	1.068335e+13	0.000000e+00	6.416184e-01	1.911905e+14	1.011158e+15	1.746987e+14	7.373177e+03	3.615643e+03	2.126749e+03	0	6.792015e-04
8.000000e+07	1.046102e+13	0.000000e+00	6.416184e-01	1.883110e+14	9.539872e+14	1.737440e+14	7.362043e+03	3.581751e+03	2.106813e+03	0	6.744568e-04
9.000000e+07	1.024858e+13	0.000000e+00	6.416184e-01	1.855570e+14	9.033453e+14	1.727963e+14	7.351076e+03	3.550607e+03	2.088494e+03	0	6.698599e-04
1.000000e+08	1.004538e+13	0.000000e+00	6.416184e-01	1.829205e+14	8.582263e+14	1.718557e+14	7.340269e+03	3.521887e+03	2.071601e+03	0	6.654033e-04
1.100000e+08	9.850838e+12	0.000000e+00	6.416184e-01	1.803938e+14	8.178145e+14	1.709221e+14	7.329615e+03	3.495319e+03	2.055973e+03	0	6.610797e-04
1.200000e+08	9.664361e+12	0.000000e+00	6.416184e-01	1.779697e+14	7.814422e+14	1.699954e+14	7.319107e+03	3.470668e+03	2.041473e+03	0	6.568817e-04
1.300000e+08	9.485418e+12	0.000000e+00	6.416184e-01	1.756413e+14	7.485587e+14	1.690755e+14	7.308740e+03	3.447735e+03	2.027984e+03	0	6.528022e-04
1.400000e+08	9.313509e+12	0.000000e+00	6.416184e-01	1.734023e+14	7.187059e+14	1.681625e+14	7.298509e+03	3.426346e+03	2.015402e+03	0	6.488345e-04
1.500000e+08	9.148173e+12	0.000000e+00	6.416184e-01	1.712469e+14	6.915003e+14	1.672562e+14	7.288407e+03	3.406350e+03	2.003641e+03	0	6.449721e-04
1.600000e+08	8.988983e+12	0.000000e+00	6.416184e-01	1.691697e+14	6.666182e+14	1.663566e+14	7.278431e+03	3.387616e+03	1.992621e+03	0	6.412091e-04
1.700000e+08	8.835548e+12	0.000000e+00	6.416184e-01	1.671657e+14	6.437854e+14	1.654637e+14	7.268575e+03	3.370029e+03	1.982277e+03	0	6.375398e-04
1.800000e+08	8.687504e+12	0.000000e+00	6.416184e-01	1.652304e+14	6.227677e+14	1.645773e+14	7.258836e+03	3.353487e+03	1.972547e+03	0	6.339589e-04
1.900000e+08	8.544521e+12	0.000000e+00	6.416184e-01	1.633595e+14	6.033643e+14	1.636974e+14	7.249209e+03	3.337900e+03	1.963378e+03	0	6.304617e-04
2.000000e+08	8.406291e+12	0.000000e+00	6.416184e-01	1.615492e+14	5.854020e+14	1.628241e+14	7.239691e+03	3.323189e+03	1.954725e+03	0	6.270434e-04
2.100000e+08	8.272533e+12	0.000000e+00	6.416184e-01	1.597959e+14	5.687308e+14	1.619571e+14	7.230278e+03	3.309281e+03	1.946544e+03	0	6.236998e-04
2.200000e+08	8.142985e+12	0.000000e+00	6.416184e-01	1.580963e+14	5.532201e+14	1.610965e+14	7.220967e+03	3.296113e+03	1.938798e+03	0	6.204270e-04
2.300000e+08	8.017409e+12	0.000000e+00	6.416184e-01	1.564473e+14	5.387561e+14	1.602423e+14	7.211754e+03	3.283627e+03	1.931455e+03	0	6.172212e-04
2.400000e+08	7.895583e+12	0.000000e+00	6.416184e-01	1.548462e+14	5.252385e+14	1.593943e+14	7.202638e+03	3.271773e+03	1.924482e+03	0	6.140789e-04
2.500000e+08	7.777300e+12	0.000000e+00	6.416184e-01	1.532903e+14	5.125795e+14	1.585525e+14	7.193614e+03	3.260504e+03	1.917853e+03	0	6.109970e-04
2.600000e+08	7.662373e+12	0.000000e+00	6.416184e-01	1.517773e+14	5.007011e+14	1.577168e+14	7.184681e+03	3.249776e+03	1.911543e+03	0	6.079724e-04
2.700000e+08	7.550624e+12	0.000000e+00	6.416184e-01	1.503049e+14	4.895344e+14	1.568873e+14	7.175836e+03	3.239553e+03	1.905529e+03	0	6.050023e-04
2.800000e+08	7.441890e+12	0.000000e+00	6.416184e-01	1.488711e+14	4.790180e+14	1.560638e+14	7.167077e+03	3.229799e+03	1.899792e+03	0	6.020842e-04
2.900000e+08	7.336020e+12	0.000000e+00	6.416184e-01	1.474738e+14	4.690973e+14	1.552464e+14	7.158401e+03	3.220482e+03	1.894312e+03	0	5.992154e-04
3.000000e+08	7.232873e+12	0.000000e+00	6.416184e-01	1.461115e+14	4.597233e+14	1.544349e+14	7.149806e+03	3.211574e+03	1.889072e+03	0	5.963937e-04
3.100000e+08	7.132318e+12	0.000000e+00	6.416184e-01	1.447822e+14	4.508521e+14	1.536293e+14	7.141290e+03	3.203047e+03	1.884057e+03	0	5.936170e-04
3.200000e+08	7.034231e+12	0.000000e+00	6.416184e-01	1.434847e+14	4.424443e+14	1.528296e+14	7.132851e+03	3.194878e+03	1.879251e+03	0	5.908832e-04
3.300000e+08	6.938499e+12	0.000000e+00	6.416184e-01	1.422172e+14	4.344642e+14	1.520357e+14	7.124488e+03	3.187044e+03	1.874643e+03	0	5.881905e-04
3.400000e+08	6.845016e+12	0.000000e+00	6.416184e-01	1.409786e+14	4.268799e+14	1.512475e+14	7.116199e+03	3.179525e+03	1.870220e+03	0	5.855369e-04
3.500000e+08	6.753680e+12	0.000000e+00	6.416184e-01	1.397675e+14	4.196620e+14	1.504651e+14	7.107982e+03	3.172300e+03	1.865971e+03	0	5.829209e-04
3.600000e+08	6.664398e+12	0.000000e+00	6.416184e-01	1.385828e+14	4.127843e+14	1.496884e+14	7.099835e+03	3.165354e+03	1.861885e+03	0	5.803408e-04
3.700000e+08	6.577083e+12	0.000000e+00	6.416184e-01	1.374234e+14	4.062228e+14	1.489172e+14	7.091757e+03	3.158669e+03	1.857953e+03	0	5.777952e-04
3.800000e+08	6.491653e+12	0.000000e+00	6.416184e-01	1.362881e+14	3.999555e+14	1.481517e+14	7.083746e+03	3.152231e+03	1.854166e+03	0	5.752826e-04
3.900000e+08	6.408029e+12	0.000000e+00	6.416184e-01	1.351760e+14	3.939625e+14	1.473917e+14	7.075802e+03	3.146025e+03	1.850515e+03	0	5.728017e-04
4.000000e+08	6.326140e+12	0.000000e+00	6.416184e-01	1.340863e+14	3.882255e+14	1.466372e+14	7.067922e+03	3.140038e+03	1.846994e+03	0	5.703512e-04
4.100000e+08	6.245917e+12	0.000000e+00	6.416184e-01	1.330179e+14	3.827278e+14	1.458881e+14	7.060105e+03	3.134259e+03	1.843595e+03	0	5.679301e-04
4.200000e+08	6.167295e+12	0.000000e+00	6.416184e-01	1.319702e+14	3.774540e+14	1.451444e+14	7.052351e+03	3.128676e+03	1.840311e+03	0	5.655370e-04
4.300000e+08	6.090213e+12	0.000000e+00	6.416184e-01	1.309423e+14	3.723901e+14	1.444061e+14	7.044658e+03	3.123279e+03	1.837136e+03	0	5.631710e-04
4.400000e+08	6.014615e+12	0.000000e+00	6.416184e-01	1.299334e+14	3.675230e+14	1.436731e+14	7.037024e+03	3.118058e+03	1.834065e+03	0	5.608311e-04
4.500000e+08	5.940445e+12	0.000000e+00	6.416184e-01	1.289430e+14	3.628408e+14	1.429453e+14	7.029449e+03	3.113003e+03	1.831092e+03	0	5.585162e-04
4.600000e+08	5.867652e+12	0.000000e+00	6.416184e-01	1.279703e+14	3.583325e+14	1.422228e+14	7.021932e+03	3.108107e+03	1.828212e+03	0	5.562255e-04
4.700000e+08	5.796188e+12	0.000000e+00	6.416184e-01	1.270148e+14	3.539878e+14	1.415054e+14	7.014471e+03	3.103361e+03	1.825420e+03	0	5.539581e-04
4.800000e+08	5.726007e+12	0.000000e+00	6.416184e-01	1.260758e+14	3.497973e+14	1.407932e+14	7.007066e+03	3.098758e+03	1.822713e+03	0	5.517132e-04
4.900000e+08	5.657064e+12	0.000000e+00	6.416184e-01	1.251528e+14	3.457522e+14	1.400861e+14	6.999715e+03	3.094290e+03	1.820085e+03	0	5.494900e-04
5.000000e+08	5.589320e+12	0.000000e+00	6.416184e-01	1.242452e+14	3.418444e+14	1.393841e+14	6.992418e+03	3.089951e+03	1.817533e+03	0	5.472878e-04
5.100000e+08	5.522733e+12	0.000000e+00	6.416184e-01	1.233527e+14	3.380664e+14	1.386871e+14	6.985174e+03	3.085735e+03	1.815053e+03	0	5.451058e-04
5.200000e+08	5.457268e+12	0.000000e+00	6.416184e-01	1.224746e+14	3.344111e+14	1.379950e+14	6.977982e+03	3.081637e+03	1.812642e+03	0	5.429434e-04
5.300000e+08	5.392887e+12	0.000000e+00	6.416184e-01	1.216105e+14	3.308720e+14	1.373079e+14	6.970841e+03	3.077649e+03	1.810297e+03	0	5.407999e-04
5.400000e+08	5.329558e+12	0.000000e+00	6.416184e-01	1.207600e+14	3.274430e+14	1.366257e+14	6.963750e+03	3.073768e+03	1.808014e+03	0	5.386746e-04
5.500000e+08	5.267249e+12	0.000000e+00	6.416184e-01	1.199227e+14	3.241185e+14	1.359483e+14	6.956709e+03	3.069989e+03	1.805791e+03	0	5.365671e-04
5.600000e+08	5.205928e+12	0.000000e+00	6.416184e-01	1.190982e+14	3.208931e+14	1.352757e+14	6.949716e+03	3.066306e+03	1.803624e+03	0	5.344768e-04
5.700000e+08	5.145566e+12	0.000000e+00	6.416184e-01	1.182862e+14	3.177618e+14	1.346079e+14	6.942771e+03	3.062716e+03	1.801513e+03	0	5.324030e-04
5.800000e+08	5.086135e+12	0.000000e+00	6.416184e-01	1.174862e+14	3.147201e+14	1.339449e+14	6.935874e+03	3.059214e+03	1.799453e+03	0	5.303453e-04
5.900000e+08	5.027609e+12	0.000000e+00	6.416184e-01	1.166979e+14	3.117635e+14	1.332866e+14	6.929023e+03	3.055797e+03	1.797443e+03	0	5.283032e-04
6.000000e+08	4.969962e+12	0.000000e+00	6.416184e-01	1.159210e+14	3.088880e+14	1.326329e+14	6.922218e+03	3.052461e+03	1.795480e+03	0	5.262763e-04
6.100000e+08	4.913169e+12	0.000000e+00	6.416184e-01	1.151552e+14	3.060898e+14	1.319838e+14	6.915459e+03	3.049202e+03	1.793563e+03	0	5.242640e-04
6.200000e+08	4.857207e+12	0.000000e+00	6.416184e-01	1.144002e+14	3.033652e+14	1.313393e+14	6.908743e+03	3.046017e+03	1.791690e+03	0	5.222659e-04
6.300000e+08	4.802054e+12	0.000000e+00	6.416184e-01	1.136557e+14	3.007110e+14	1.306994e+14	6.902072e+03	3.042903e+03	1.789859e+03	0	5.202816e-04
6.400000e+08	4.747689e+12	0.000000e+00	6.416184e-01	1.129215e+14	2.981239e+14	1.300640e+14	6.895444e+03	3.039857e+03	1.788067e+03	0	5.183107e-04
6.500000e+08	4.694090e+12	0.000000e+00	6.416184e-01	1.121971e+14	2.956009e+14	1.294331e+14	6.888859e+03	3.036877e+03	1.786314e+03	0	5.163529e-04
6.600000e+08	4.641238e+12	0.000000e+00	6.416184e-01	1.114825e+14	2.931392e+14	1.288066e+14	6.882316e+03	3.033959e+03	1.784598e+03	0	5.144076e-04
6.700000e+08	4.589114e+12	0.000000e+00	6.416184e-01	1.107774e+14	2.907362e+14	1.281845e+14	6.875814e+03	3.031101e+03	1.782917e+03	0	5.124747e-04
6.800000e+08	4.537700e+12	0.000000e+00	6.416184e-01	1.100815e+14	2.883894e+14	1.275668e+14	6.869354e+03	3.028301e+03	1.781270e+03	0	5.105537e-04
6.900000e+08	4.486979e+12	0.000000e+00	6.416184e-01	1.093946e+14	2.860964e+14	1.269534e+14	6.862934e+03	3.025557e+03	1.779655e+03	0	5.086442e-04
7.000000e+08	4.436933e+12	0.000000e+00	6.416184e-01	1.087166e+14	2.838549e+14	1.263443e+14	6.856554e+03	3.022865e+03	1.778072e+03	0	5.067461e-04
7.100000e+08	4.387547e+12	0.000000e+00	6.416184e-01	1.080471e+14	2.816629e+14	1.257395e+14	6.850214e+03	3.020225e+03	1.776519e+03	0	5.048589e-04
7.200000e+08	4.338805e+12	0.000000e+00	6.416184e-01	1.073860e+14	2.795184e+14	1.251389e+14	6.843912e+03	3.017634e+03	1.774995e+03	0	5.029824e-04
7.300000e+08	4.290692e+12	0.000000e+00	6.416184e-01	1.067331e+14	2.774195e+14	1.245425e+14	6.837649e+03	3.015091e+03	1.773499e+03	0	5.011163e-04
7.400000e+08	4.243193e+12	0.000000e+00	6.416184e-01	1.060882e+14	2.753643e+14	1.239503e+14	6.831424e+03	3.012593e+03	1.772030e+03	0	4.992603e-04
7.500000e+08	4.196295e+12	0.000000e+00	6.416184e-01	1.054511e+14	2.733512e+14	1.233621e+14	6.825237e+03	3.010139e+03	1.770586e+03	0	4.974141e-04
7.600000e+08	4.149984e+12	0.000000e+00	6.416184e-01	1.048217e+14	2.713787e+14	1.227781e+14	6.819086e+03	3.007727e+03	1.769168e+03	0	4.955775e-04
7.700000e+08	4.104248e+12	0.000000e+00	6.416184e-01	1.041999e+14	2.694451e+14	1.221982e+14	6.812973e+03	3.005356e+03	1.767773e+03	0	4.937502e-04
7.800000e+08	4.059073e+12	0.000000e+00	6.416184e-01	1.035853e+14	2.675490e+14	1.216223e+14	6.806895e+03	3.003025e+03	1.766402e+03	0	4.919320e-04
7.900000e+08	4.014448e+12	0.000000e+00	6.416184e-01	1.029780e+14	2.656890e+14	1.210504e+14	6.800853e+03	3.000731e+03	1.765053e+03	0	4.901226e-04
8.000000e+08	3.970362e+12	0.000000e+00	6.416184e-01	1.023776e+14	2.638639e+14	1.204824e+14	6.794847e+03	2.998474e+03	1.763725e+03	0	4.883218e-04
8.100000e+08	3.926802e+12	0.000000e+00	6.416184e-01	1.017842e+14	2.620724e+14	1.199184e+14	6.788876e+03	2.996252e+03	1.762418e+03	0	4.865294e-04
8.200000e+08	3.883758e+12	0.000000e+00	6.416184e-01	1.011975e+14	2.603132e+14	1.193583e+14	6.782939e+03	2.994064e+03	1.761131e+03	0	4.847452e-04
8.300000e+08	3.841220e+12	0.000000e+00	6.416184e-01	1.006174e+14	2.585854e+14	1.188021e+14	6.777036e+03	2.991910e+03	1.759864e+03	0	4.829689e-04
8.400000e+08	3.799177e+12	0.000000e+00	6.416184e-01	1.000439e+14	2.568878e+14	1.182497e+14	6.771167e+03	2.989787e+03	1.758615e+03	0	4.812004e-04
8.500000e+08	3.757619e+12	0.000000e+00	6.416184e-01	9.947662e+13	2.552194e+14	1.177011e+14	6.765331e+03	2.987694e+03	1.757384e+03	0	4.794394e-04
8.600000e+08	3.716538e+12	0.000000e+00	6.416184e-01	9.891563e+13	2.535792e+14	1.171563e+14	6.759529e+03	2.985632e+03	1.756171e+03	0	4.776858e-04
8.700000e+08	3.675923e+12	0.000000e+00	6.416184e-01	9.836075e+13	2.519662e+14	1.166152e+14	6.753759e+03	2.983598e+03	1.754975e+03	0	4.759393e-04
8.800000e+08	3.635766e+12	0.000000e+00	6.416184e-01	9.781187e+13	2.503797e+14	1.160779e+14	6.748021e+03	2.981592e+03	1.753795e+03	0	4.741999e-04
8.900000e+08	3.596057e+12	0.000000e+00	6.416184e-01	9.726888e+13	2.488188e+14	1.155443e+14	6.742316e+03	2.979613e+03	1.752631e+03	0	4.724672e-04
9.000000e+08	3.556790e+12	0.000000e+00	6.416184e-01	9.673167e+13	2.472826e+14	1.150143e+14	6.736642e+03	2.977660e+03	1.751482e+03	0	4.707412e-04
9.100000e+08	3.517954e+12	0.000000e+00	6.416184e-01	9.620013e+13	2.457704e+14	1.144880e+14	6.730999e+03	2.975732e+03	1.750348e+03	0	4.690216e-04
9.200000e+08	3.479543e+12	0.000000e+00	6.416184e-01	9.567417e+13	2.442815e+14	1.139652e+14	6.725387e+03	2.973828e+03	1.749228e+03	0	4.673083e-04
9.300000e+08	3.441549e+12	0.000000e+00	6.416184e-01	9.515368e+13	2.428150e+14	1.134461e+14	6.719806e+03	2.971949e+03	1.748123e+03	0	4.656012e-04
9.400000e+08	3.403964e+12	0.000000e+00	6.416184e-01	9.463856e+13	2.413705e+14	1.129304e+14	6.714255e+03	2.970092e+03	1.747031e+03	0	4.639001e-04
9.500000e+08	3.366781e+12	0.000000e+00	6.416184e-01	9.412872e+13	2.399472e+14	1.124183e+14	6.708734e+03	2.968257e+03	1.745951e+03	0	4.622047e-04
9.600000e+08	3.329992e+12	0.000000e+00	6.416184e-01	9.362407e+13	2.385444e+14	1.119097e+14	6.703243e+03	2.966445e+03	1.744885e+03	0	4.605151e-04
9.700000e+08	3.293592e+12	0.000000e+00	6.416184e-01	9.312453e+13	2.371617e+14	1.114046e+14	6.697781e+03	2.964653e+03	1.743831e+03	0	4.588310e-04
9.800000e+08	3.257573e+12	0.000000e+00	6.416184e-01	9.263000e+13	2.357985e+14	1.109029e+14	6.692349e+03	2.962881e+03	1.742789e+03	0	4.571522e-04
9.900000e+08	3.221928e+12	0.000000e+00	6.416184e-01	9.214040e+13	2.344541e+14	1.104046e+14	6.686945e+03	2.961129e+03	1.741759e+03	0	4.554787e-04
1.000000e+09	3.186652e+12	0.000000e+00	6.416184e-01	9.165565e+13	2.331281e+14	1.099097e+14	6.681569e+03	2.959397e+03	1.740740e+03	0	4.538103e-04
1.010000e+09	3.151738e+12	0.000000e+00	6.416184e-01	9.117567e+13	2.318200e+14	1.094182e+14	6.676222e+03	2.957683e+03	1.739731e+03	0	4.521468e-04
1.020000e+09	3.117181e+12	0.000000e+00	6.416184e-01	9.070038e+13	2.305293e+14	1.089299e+14	6.670903e+03	2.955987e+03	1.738734e+03	0	4.504882e-04
1.030000e+09	3.082974e+12	0.000000e+00	6.416184e-01	9.022970e+13	2.292555e+14	1.084450e+14	6.665612e+03	2.954309e+03	1.737747e+03	0	4.488343e-04
1.040000e+09	3.049111e+12	0.000000e+00	6.416184e-01	8.976357e+13	2.279982e+14	1.079634e+14	6.660347e+03	2.952648e+03	1.736770e+03	0	4.471850e-04
1.050000e+09	3.015587e+12	0.000000e+00	6.416184e-01	8.930191e+13	2.267570e+14	1.074850e+14	6.655110e+03	2.951004e+03	1.735803e+03	0	4.455401e-04
1.060000e+09	2.982398e+12	0.000000e+00	6.416184e-01	8.884465e+13	2.255314e+14	1.070098e+14	6.649900e+03	2.949375e+03	1.734845e+03	0	4.438995e-04
1.070000e+09	2.949536e+12	0.000000e+00	6.416184e-01	8.839172e+13	2.243211e+14	1.065379e+14	6.644717e+03	2.947763e+03	1.733897e+03	0	4.422631e-04
1.080000e+09	2.916998e+12	0.000000e+00	6.416184e-01	8.794306e+13	2.231256e+14	1.060691e+14	6.639560e+03	2.946166e+03	1.732957e+03	0	4.406308e-04
1.090000e+09	2.884778e+12	0.000000e+00	6.416184e-01	8.749859e+13	2.219447e+14	1.056034e+14	6.634429e+03	2.944584e+03	1.732027e+03	0	4.390024e-04
1.100000e+09	2.852871e+12	0.000000e+00	6.416184e-01	8.705826e+13	2.207780e+14	1.051409e+14	6.629324e+03	2.943017e+03	1.731105e+03	0	4.373779e-04
1.110000e+09	2.821273e+12	0.000000e+00	6.416184e-01	8.662200e+13	2.196251e+14	1.046815e+14	6.624245e+03	2.941464e+03	1.730191e+03	0	4.357571e-04
1.120000e+09	2.789978e+12	0.000000e+00	6.416184e-01	8.618976e+13	2.184856e+14	1.042252e+14	6.619191e+03	2.939924e+03	1.729286e+03	0	4.341399e-04
1.130000e+09	2.758983e+12	0.000000e+00	6.416184e-01	8.576147e+13	2.173594e+14	1.037719e+14	6.614162e+03	2.938399e+03	1.728388e+03	0	4.325262e-04
1.140000e+09	2.728282e+12	0.000000e+00	6.416184e-01	8.533708e+13	2.162461e+14	1.033217e+14	6.609158e+03	2.936886e+03	1.727499e+03	0	4.309159e-04
1.150000e+09	2.697872e+12	0.000000e+00	6.416184e-01	8.491653e+13	2.151453e+14	1.028745e+14	6.604179e+03	2.935386e+03	1.726616e+03	0	4.293089e-04
1.160000e+09	2.667748e+12	0.000000e+00	6.416184e-01	8.449976e+13	2.140569e+14	1.024302e+14	6.599224e+03	2.933899e+03	1.725742e+03	0	4.277050e-04
1.170000e+09	2.637906e+12	0.000000e+00	6.416184e-01	8.408672e+13	2.129805e+14	1.019889e+14	6.594294e+03	2.932424e+03	1.724874e+03	0	4.261042e-04
1.180000e+09	2.608341e+12	0.000000e+00	6.416184e-01	8.367736e+13	2.119159e+14	1.015505e+14	6.589388e+03	2.930962e+03	1.724014e+03	0	4.245064e-04
1.190000e+09	2.579051e+12	0.000000e+00	6.416184e-01	8.327162e+13	2.108628e+14	1.011151e+14	6.584505e+03	2.929510e+03	1.723160e+03	0	4.229114e-04
1.200000e+09	2.550030e+12	0.000000e+00	6.416184e-01	8.286946e+13	2.098209e+14	1.006825e+14	6.579646e+03	2.928071e+03	1.722313e+03	0	4.213192e-04
1.210000e+09	2.521276e+12	0.000000e+00	6.416184e-01	8.247082e+13	2.087902e+14	1.002529e+14	6.574811e+03	2.926642e+03	1.721473e+03	0	4.197296e-04
1.220000e+09	2.492784e+12	0.000000e+00	6.416184e-01	8.207566e+13	2.077702e+14	9.982602e+13	6.569999e+03	2.925224e+03	1.720639e+03	0	4.181425e-04
1.230000e+09	2.464551e+12	0.000000e+00	6.416184e-01	8.168393e+13	2.067608e+14	9.940201e+13	6.565210e+03	2.923817e+03	1.719811e+03	0	4.165579e-04
1.240000e+09	2.436572e+12	0.000000e+00	6.416184e-01	8.129558e+13	2.057618e+14	9.898080e+13	6.560443e+03	2.922421e+03	1.718990e+03	0	4.149756e-04
1.250000e+09	2.408846e+12	0.000000e+00	6.416184e-01	8.091056e+13	2.047730e+14	9.856237e+13	6.555700e+03	2.921035e+03	1.718175e+03	0	4.133956e-04
1.260000e+09	2.381368e+12	0.000000e+00	6.416184e-01	8.052884e+13	2.037941e+14	9.814670e+13	6.550979e+03	2.919658e+03	1.717365e+03	0	4.118176e-04
1.270000e+09	2.354134e+12	0.000000e+00	6.416184e-01	8.015037e+13	2.028250e+14	9.773376e+13	6.546280e+03	2.918292e+03	1.716561e+03	0	4.102418e-04
1.280000e+09	2.327143e+12	0.000000e+00	6.416184e-01	7.977510e+13	2.018655e+14	9.732354e+13	6.541603e+03	2.916935e+03	1.715763e+03	0	4.086678e-04
1.290000e+09	2.300389e+12	0.000000e+00	6.416184e-01	7.940299e+13	2.009154e+14	9.691602e+13	6.536947e+03	2.915587e+03	1.714971e+03	0	4.070957e-04
1.300000e+09	2.273871e+12	0.000000e+00	6.416184e-01	7.903401e+13	1.999746e+14	9.651117e+13	6.532314e+03	2.914249e+03	1.714183e+03	0	4.055254e-04
1.310000e+09	2.247584e+12	0.000000e+00	6.416184e-01	7.866811e+13	1.990428e+14	9.610898e+13	6.527702e+03	2.912920e+03	1.713401e+03	0	4.039567e-04
1.320000e+09	2.221527e+12	0.000000e+00	6.416184e-01	7.830525e+13	1.981198e+14	9.570942e+13	6.523111e+03	2.911599e+03	1.712625e+03	0	4.023895e-04
1.330000e+09	2.195696e+12	0.000000e+00	6.416184e-01	7.794539e+13	1.972056e+14	9.531248e+13	6.518542e+03	2.910288e+03	1.711853e+03	0	4.008238e-04
1.340000e+09	2.170087e+12	0.000000e+00	6.416184e-01	7.758850e+13	1.963000e+14	9.491812e+13	6.513994e+03	2.908984e+03	1.711087e+03	0	3.992594e-04
1.350000e+09	2.144699e+12	0.000000e+00	6.416184e-01	7.723453e+13	1.954028e+14	9.452635e+13	6.509466e+03	2.907689e+03	1.710325e+03	0	3.976963e-04
1.360000e+09	2.119528e+12	0.000000e+00	6.416184e-01	7.688346e+13	1.945139e+14	9.413712e+13	6.504959e+03	2.906403e+03	1.709568e+03	0	3.961344e-04
