#t		Qconv[W]	Ri[Rp]		R*[Rp]		Qc[W]		Qm[W]		Qr[W]		Tcmb[K]		Tl[K]		Tup[K]		RiFlag		Bs[T]
0.000000e+00	5.702052e+13	0.000000e+00	6.395350e-01	7.560382e+14	2.361985e+15	2.342594e+14	1.023445e+04	4.817176e+03	2.439602e+03	0	1.176163e-03
1.000000e+07	5.562417e+13	0.000000e+00	6.395350e-01	7.404709e+14	2.194883e+15	2.329614e+14	1.020269e+04	4.758512e+03	2.409893e+03	0	1.166482e-03
2.000000e+07	5.429344e+13	0.000000e+00	6.395350e-01	7.256237e+14	2.052007e+15	2.316732e+14	1.017159e+04	4.706123e+03	2.383361e+03	0	1.157105e-03
3.000000e+07	5.302430e+13	0.000000e+00	6.395350e-01	7.114527e+14	1.928646e+15	2.303945e+14	1.014110e+04	4.659051e+03	2.359522e+03	0	1.148018e-03
4.000000e+07	5.181266e+13	0.000000e+00	6.395350e-01	6.979131e+14	1.821197e+15	2.291254e+14	1.011121e+04	4.616522e+03	2.337984e+03	0	1.139206e-03
5.000000e+07	5.065455e+13	0.000000e+00	6.395350e-01	6.849617e+14	1.726870e+15	2.278658e+14	1.008188e+04	4.577908e+03	2.318428e+03	0	1.130654e-03
6.000000e+07	4.954625e+13	0.000000e+00	6.395350e-01	6.725574e+14	1.643470e+15	2.266156e+14	1.005309e+04	4.542690e+03	2.300592e+03	0	1.122347e-03
7.000000e+07	4.848426e+13	0.000000e+00	6.395350e-01	6.606623e+14	1.569254e+15	2.253747e+14	1.002483e+04	4.510435e+03	2.284257e+03	0	1.114270e-03
8.000000e+07	4.746538e+13	0.000000e+00	6.395350e-01	6.492413e+14	1.502818e+15	2.241430e+14	9.997057e+03	4.480783e+03	2.269240e+03	0	1.106410e-03
9.000000e+07	4.648666e+13	0.000000e+00	6.395350e-01	6.382622e+14	1.443024e+15	2.229204e+14	9.969765e+03	4.453427e+03	2.255386e+03	0	1.098752e-03
1.000000e+08	4.554542e+13	0.000000e+00	6.395350e-01	6.276956e+14	1.388939e+15	2.217070e+14	9.942932e+03	4.428107e+03	2.242563e+03	0	1.091286e-03
1.100000e+08	4.463920e+13	0.000000e+00	6.395350e-01	6.175146e+14	1.339792e+15	2.205025e+14	9.916541e+03	4.404601e+03	2.230658e+03	0	1.084000e-03
1.200000e+08	4.376575e+13	0.000000e+00	6.395350e-01	6.076947e+14	1.294940e+15	2.193070e+14	9.890576e+03	4.382716e+03	2.219575e+03	0	1.076883e-03
1.300000e+08	4.292302e+13	0.000000e+00	6.395350e-01	5.982135e+14	1.253845e+15	2.181203e+14	9.865022e+03	4.362286e+03	2.209228e+03	0	1.069926e-03
1.400000e+08	4.210915e+13	0.000000e+00	6.395350e-01	5.890504e+14	1.216054e+15	2.169424e+14	9.839865e+03	4.343166e+03	2.199545e+03	0	1.063120e-03
1.500000e+08	4.132242e+13	0.000000e+00	6.395350e-01	5.801868e+14	1.181179e+15	2.157732e+14	9.815092e+03	4.325230e+03	2.190462e+03	0	1.056458e-03
1.600000e+08	4.056126e+13	0.000000e+00	6.395350e-01	5.716055e+14	1.148891e+15	2.146127e+14	9.790690e+03	4.308367e+03	2.181922e+03	0	1.049931e-03
1.700000e+08	3.982423e+13	0.000000e+00	6.395350e-01	5.632906e+14	1.118908e+15	2.134607e+14	9.766646e+03	4.292478e+03	2.173875e+03	0	1.043533e-03
1.800000e+08	3.911001e+13	0.000000e+00	6.395350e-01	5.552277e+14	1.090983e+15	2.123172e+14	9.742952e+03	4.277477e+03	2.166278e+03	0	1.037257e-03
1.900000e+08	3.841737e+13	0.000000e+00	6.395350e-01	5.474034e+14	1.064907e+15	2.111822e+14	9.719594e+03	4.263287e+03	2.159091e+03	0	1.031097e-03
2.000000e+08	3.774520e+13	0.000000e+00	6.395350e-01	5.398053e+14	1.040494e+15	2.100554e+14	9.696565e+03	4.249838e+03	2.152281e+03	0	1.025048e-03
2.100000e+08	3.709245e+13	0.000000e+00	6.395350e-01	5.324222e+14	1.017583e+15	2.089370e+14	9.673854e+03	4.237071e+03	2.145815e+03	0	1.019105e-03
2.200000e+08	3.645817e+13	0.000000e+00	6.395350e-01	5.252434e+14	9.960324e+14	2.078268e+14	9.651452e+03	4.224929e+03	2.139666e+03	0	1.013262e-03
2.300000e+08	3.584145e+13	0.000000e+00	6.395350e-01	5.182592e+14	9.757177e+14	2.067247e+14	9.629351e+03	4.213363e+03	2.133808e+03	0	1.007517e-03
2.400000e+08	3.524148e+13	0.000000e+00	6.395350e-01	5.114604e+14	9.565286e+14	2.056307e+14	9.607542e+03	4.202330e+03	2.128220e+03	0	1.001863e-03
2.500000e+08	3.465748e+13	0.000000e+00	6.395350e-01	5.048386e+14	9.383672e+14	2.045447e+14	9.586019e+03	4.191787e+03	2.122881e+03	0	9.962981e-04
2.600000e+08	3.408873e+13	0.000000e+00	6.395350e-01	4.983859e+14	9.211467e+14	2.034667e+14	9.564773e+03	4.181700e+03	2.117773e+03	0	9.908180e-04
2.700000e+08	3.353456e+13	0.000000e+00	6.395350e-01	4.920950e+14	9.047895e+14	2.023966e+14	9.543798e+03	4.172035e+03	2.112878e+03	0	9.854196e-04
2.800000e+08	3.299435e+13	0.000000e+00	6.395350e-01	4.859590e+14	8.892261e+14	2.013342e+14	9.523086e+03	4.162763e+03	2.108182e+03	0	9.800995e-04
2.900000e+08	3.246751e+13	0.000000e+00	6.395350e-01	4.799714e+14	8.743944e+14	2.002797e+14	9.502631e+03	4.153855e+03	2.103671e+03	0	9.748549e-04
3.000000e+08	3.195349e+13	0.000000e+00	6.395350e-01	4.741261e+14	8.602382e+14	1.992328e+14	9.482428e+03	4.145287e+03	2.099332e+03	0	9.696829e-04
3.100000e+08	3.145178e+13	0.000000e+00	6.395350e-01	4.684176e+14	8.467072e+14	1.981935e+14	9.462470e+03	4.137036e+03	2.095153e+03	0	9.645810e-04
3.200000e+08	3.096188e+13	0.000000e+00	6.395350e-01	4.628405e+14	8.337557e+14	1.971618e+14	9.442751e+03	4.129082e+03	2.091125e+03	0	9.595466e-04
3.300000e+08	3.048335e+13	0.000000e+00	6.395350e-01	4.573897e+14	8.213424e+14	1.961376e+14	9.423265e+03	4.121404e+03	2.087237e+03	0	9.545775e-04
3.400000e+08	3.001575e+13	0.000000e+00	6.395350e-01	4.520605e+14	8.094298e+14	1.951208e+14	9.404009e+03	4.113987e+03	2.083480e+03	0	9.496714e-04
3.500000e+08	2.955868e+13	0.000000e+00	6.395350e-01	4.468485e+14	7.979839e+14	1.941115e+14	9.384976e+03	4.106812e+03	2.079847e+03	0	9.448263e-04
3.600000e+08	2.911175e+13	0.000000e+00	6.395350e-01	4.417493e+14	7.869737e+14	1.931094e+14	9.366162e+03	4.099866e+03	2.076329e+03	0	9.400401e-04
3.700000e+08	2.867460e+13	0.000000e+00	6.395350e-01	4.367592e+14	7.763707e+14	1.921146e+14	9.347561e+03	4.093136e+03	2.072920e+03	0	9.353111e-04
3.800000e+08	2.824688e+13	0.000000e+00	6.395350e-01	4.318741e+14	7.661490e+14	1.911270e+14	9.329170e+03	4.086607e+03	2.069614e+03	0	9.306374e-04
3.900000e+08	2.782828e+13	0.000000e+00	6.395350e-01	4.270906e+14	7.562851e+14	1.901465e+14	9.310984e+03	4.080269e+03	2.066404e+03	0	9.260173e-04
4.000000e+08	2.741848e+13	0.000000e+00	6.395350e-01	4.224052e+14	7.467569e+14	1.891731e+14	9.292999e+03	4.074110e+03	2.063285e+03	0	9.214493e-04
4.100000e+08	2.701719e+13	0.000000e+00	6.395350e-01	4.178147e+14	7.375446e+14	1.882067e+14	9.275210e+03	4.068121e+03	2.060252e+03	0	9.169318e-04
4.200000e+08	2.662413e+13	0.000000e+00	6.395350e-01	4.133161e+14	7.286297e+14	1.872473e+14	9.257614e+03	4.062292e+03	2.057300e+03	0	9.124634e-04
4.300000e+08	2.623903e+13	0.000000e+00	6.395350e-01	4.089063e+14	7.199953e+14	1.862948e+14	9.240206e+03	4.056614e+03	2.054425e+03	0	9.080426e-04
4.400000e+08	2.586164e+13	0.000000e+00	6.395350e-01	4.045827e+14	7.116256e+14	1.853492e+14	9.222984e+03	4.051081e+03	2.051622e+03	0	9.036682e-04
4.500000e+08	2.549173e+13	0.000000e+00	6.395350e-01	4.003425e+14	7.035061e+14	1.844103e+14	9.205943e+03	4.045683e+03	2.048889e+03	0	8.993390e-04
4.600000e+08	2.512905e+13	0.000000e+00	6.395350e-01	3.961831e+14	6.956235e+14	1.834782e+14	9.189081e+03	4.040414e+03	2.046220e+03	0	8.950535e-04
4.700000e+08	2.477340e+13	0.000000e+00	6.395350e-01	3.921023e+14	6.879653e+14	1.825528e+14	9.172392e+03	4.035268e+03	2.043614e+03	0	8.908109e-04
4.800000e+08	2.442455e+13	0.000000e+00	6.395350e-01	3.880976e+14	6.805199e+14	1.816340e+14	9.155875e+03	4.030238e+03	2.041067e+03	0	8.866098e-04
4.900000e+08	2.408232e+13	0.000000e+00	6.395350e-01	3.841668e+14	6.732767e+14	1.807218e+14	9.139527e+03	4.025318e+03	2.038575e+03	0	8.824493e-04
5.000000e+08	2.374650e+13	0.000000e+00	6.395350e-01	3.803079e+14	6.662256e+14	1.798161e+14	9.123343e+03	4.020505e+03	2.036137e+03	0	8.783283e-04
5.100000e+08	2.341692e+13	0.000000e+00	6.395350e-01	3.765187e+14	6.593573e+14	1.789169e+14	9.107321e+03	4.015791e+03	2.033750e+03	0	8.742458e-04
5.200000e+08	2.309339e+13	0.000000e+00	6.395350e-01	3.727973e+14	6.526632e+14	1.780241e+14	9.091459e+03	4.011174e+03	2.031412e+03	0	8.702009e-04
5.300000e+08	2.277575e+13	0.000000e+00	6.395350e-01	3.691419e+14	6.461351e+14	1.771376e+14	9.075752e+03	4.006647e+03	2.029120e+03	0	8.661928e-04
5.400000e+08	2.246384e+13	0.000000e+00	6.395350e-01	3.655506e+14	6.397655e+14	1.762575e+14	9.060200e+03	4.002209e+03	2.026871e+03	0	8.622204e-04
5.500000e+08	2.215750e+13	0.000000e+00	6.395350e-01	3.620217e+14	6.335474e+14	1.753836e+14	9.044798e+03	3.997853e+03	2.024666e+03	0	8.582831e-04
5.600000e+08	2.185657e+13	0.000000e+00	6.395350e-01	3.585536e+14	6.274739e+14	1.745160e+14	9.029544e+03	3.993577e+03	2.022500e+03	0	8.543799e-04
5.700000e+08	2.156093e+13	0.000000e+00	6.395350e-01	3.551446e+14	6.215390e+14	1.736545e+14	9.014436e+03	3.989378e+03	2.020374e+03	0	8.505101e-04
5.800000e+08	2.127042e+13	0.000000e+00	6.395350e-01	3.517933e+14	6.157368e+14	1.727991e+14	8.999471e+03	3.985252e+03	2.018284e+03	0	8.466729e-04
5.900000e+08	2.098491e+13	0.000000e+00	6.395350e-01	3.484981e+14	6.100617e+14	1.719498e+14	8.984647e+03	3.981196e+03	2.016230e+03	0	8.428676e-04
6.000000e+08	2.070428e+13	0.000000e+00	6.395350e-01	3.452577e+14	6.045087e+14	1.711065e+14	8.969961e+03	3.977208e+03	2.014210e+03	0	8.390935e-04
6.100000e+08	2.042840e+13	0.000000e+00	6.395350e-01	3.420706e+14	5.990728e+14	1.702692e+14	8.955411e+03	3.973284e+03	2.012223e+03	0	8.353499e-04
6.200000e+08	2.015715e+13	0.000000e+00	6.395350e-01	3.389355e+14	5.937495e+14	1.694377e+14	8.940996e+03	3.969422e+03	2.010267e+03	0	8.316361e-04
6.300000e+08	1.989042e+13	0.000000e+00	6.395350e-01	3.358512e+14	5.885345e+14	1.686122e+14	8.926712e+03	3.965620e+03	2.008342e+03	0	8.279516e-04
6.400000e+08	1.962809e+13	0.000000e+00	6.395350e-01	3.328164e+14	5.834236e+14	1.677925e+14	8.912557e+03	3.961875e+03	2.006445e+03	0	8.242957e-04
6.500000e+08	1.937007e+13	0.000000e+00	6.395350e-01	3.298299e+14	5.784131e+14	1.669785e+14	8.898530e+03	3.958186e+03	2.004577e+03	0	8.206677e-04
6.600000e+08	1.911623e+13	0.000000e+00	6.395350e-01	3.268906e+14	5.734992e+14	1.661703e+14	8.884629e+03	3.954550e+03	2.002735e+03	0	8.170672e-04
6.700000e+08	1.886650e+13	0.000000e+00	6.395350e-01	3.239973e+14	5.686785e+14	1.653677e+14	8.870851e+03	3.950965e+03	2.000920e+03	0	8.134935e-04
6.800000e+08	1.862076e+13	0.000000e+00	6.395350e-01	3.211490e+14	5.639478e+14	1.645708e+14	8.857195e+03	3.947430e+03	1.999130e+03	0	8.099460e-04
6.900000e+08	1.837892e+13	0.000000e+00	6.395350e-01	3.183447e+14	5.593039e+14	1.637795e+14	8.843658e+03	3.943943e+03	1.997364e+03	0	8.064244e-04
7.000000e+08	1.814090e+13	0.000000e+00	6.395350e-01	3.155833e+14	5.547439e+14	1.629938e+14	8.830240e+03	3.940502e+03	1.995621e+03	0	8.029280e-04
7.100000e+08	1.790661e+13	0.000000e+00	6.395350e-01	3.128639e+14	5.502650e+14	1.622135e+14	8.816937e+03	3.937105e+03	1.993901e+03	0	7.994563e-04
7.200000e+08	1.767595e+13	0.000000e+00	6.395350e-01	3.101855e+14	5.458646e+14	1.614387e+14	8.803749e+03	3.933752e+03	1.992202e+03	0	7.960089e-04
7.300000e+08	1.744886e+13	0.000000e+00	6.395350e-01	3.075472e+14	5.415401e+14	1.606693e+14	8.790673e+03	3.930440e+03	1.990525e+03	0	7.925853e-04
7.400000e+08	1.722525e+13	0.000000e+00	6.395350e-01	3.049481e+14	5.372892e+14	1.599053e+14	8.777708e+03	3.927169e+03	1.988869e+03	0	7.891850e-04
7.500000e+08	1.700504e+13	0.000000e+00	6.395350e-01	3.023874e+14	5.331095e+14	1.591466e+14	8.764853e+03	3.923937e+03	1.987232e+03	0	7.858075e-04
7.600000e+08	1.678815e+13	0.000000e+00	6.395350e-01	2.998642e+14	5.289989e+14	1.583931e+14	8.752105e+03	3.920743e+03	1.985614e+03	0	7.824524e-04
7.700000e+08	1.657452e+13	0.000000e+00	6.395350e-01	2.973778e+14	5.249553e+14	1.576450e+14	8.739463e+03	3.917586e+03	1.984015e+03	0	7.791194e-04
7.800000e+08	1.636408e+13	0.000000e+00	6.395350e-01	2.949273e+14	5.209767e+14	1.569020e+14	8.726925e+03	3.914464e+03	1.982434e+03	0	7.758079e-04
7.900000e+08	1.615675e+13	0.000000e+00	6.395350e-01	2.925119e+14	5.170612e+14	1.561642e+14	8.714491e+03	3.911377e+03	1.980871e+03	0	7.725176e-04
8.000000e+08	1.595248e+13	0.000000e+00	6.395350e-01	2.901310e+14	5.132071e+14	1.554315e+14	8.702158e+03	3.908324e+03	1.979325e+03	0	7.692480e-04
8.100000e+08	1.575119e+13	0.000000e+00	6.395350e-01	2.877839e+14	5.094125e+14	1.547039e+14	8.689926e+03	3.905303e+03	1.977795e+03	0	7.659988e-04
8.200000e+08	1.555282e+13	0.000000e+00	6.395350e-01	2.854697e+14	5.056758e+14	1.539813e+14	8.677792e+03	3.902314e+03	1.976281e+03	0	7.627696e-04
8.300000e+08	1.535732e+13	0.000000e+00	6.395350e-01	2.831879e+14	5.019955e+14	1.532637e+14	8.665755e+03	3.899356e+03	1.974783e+03	0	7.595600e-04
8.400000e+08	1.516462e+13	0.000000e+00	6.395350e-01	2.809378e+14	4.983700e+14	1.525511e+14	8.653814e+03	3.896428e+03	1.973300e+03	0	7.563697e-04
8.500000e+08	1.497466e+13	0.000000e+00	6.395350e-01	2.787187e+14	4.947979e+14	1.518434e+14	8.641968e+03	3.893529e+03	1.971832e+03	0	7.531983e-04
8.600000e+08	1.478740e+13	0.000000e+00	6.395350e-01	2.765301e+14	4.912777e+14	1.511405e+14	8.630216e+03	3.890659e+03	1.970378e+03	0	7.500454e-04
8.700000e+08	1.460277e+13	0.000000e+00	6.395350e-01	2.743713e+14	4.878082e+14	1.504425e+14	8.618555e+03	3.887816e+03	1.968939e+03	0	7.469108e-04
8.800000e+08	1.442072e+13	0.000000e+00	6.395350e-01	2.722417e+14	4.843880e+14	1.497493e+14	8.606985e+03	3.885001e+03	1.967513e+03	0	7.437940e-04
8.900000e+08	1.424121e+13	0.000000e+00	6.395350e-01	2.701408e+14	4.810159e+14	1.490609e+14	8.595505e+03	3.882211e+03	1.966100e+03	0	7.406948e-04
9.000000e+08	1.406418e+13	0.000000e+00	6.395350e-01	2.680680e+14	4.776908e+14	1.483772e+14	8.584113e+03	3.879448e+03	1.964701e+03	0	7.376128e-04
9.100000e+08	1.388958e+13	0.000000e+00	6.395350e-01	2.660227e+14	4.744114e+14	1.476982e+14	8.572808e+03	3.876710e+03	1.963314e+03	0	7.345478e-04
9.200000e+08	1.371737e+13	0.000000e+00	6.395350e-01	2.640045e+14	4.711767e+14	1.470238e+14	8.561589e+03	3.873996e+03	1.961940e+03	0	7.314994e-04
9.300000e+08	1.354750e+13	0.000000e+00	6.395350e-01	2.620127e+14	4.679856e+14	1.463540e+14	8.550455e+03	3.871306e+03	1.960578e+03	0	7.284672e-04
9.400000e+08	1.337992e+13	0.000000e+00	6.395350e-01	2.600470e+14	4.648371e+14	1.456889e+14	8.539405e+03	3.868640e+03	1.959227e+03	0	7.254512e-04
9.500000e+08	1.321460e+13	0.000000e+00	6.395350e-01	2.581068e+14	4.617303e+14	1.450282e+14	8.528438e+03	3.865996e+03	1.957888e+03	0	7.224508e-04
9.600000e+08	1.305148e+13	0.000000e+00	6.395350e-01	2.561916e+14	4.586641e+14	1.443721e+14	8.517552e+03	3.863375e+03	1.956561e+03	0	7.194659e-04
9.700000e+08	1.289053e+13	0.000000e+00	6.395350e-01	2.543011e+14	4.556376e+14	1.437204e+14	8.506747e+03	3.860776e+03	1.955245e+03	0	7.164962e-04
9.800000e+08	1.273170e+13	0.000000e+00	6.395350e-01	2.524346e+14	4.526501e+14	1.430732e+14	8.496021e+03	3.858198e+03	1.953939e+03	0	7.135413e-04
9.900000e+08	1.257496e+13	0.000000e+00	6.395350e-01	2.505918e+14	4.497005e+14	1.424304e+14	8.485374e+03	3.855641e+03	1.952644e+03	0	7.106011e-04
1.000000e+09	1.242027e+13	0.000000e+00	6.395350e-01	2.487723e+14	4.467882e+14	1.417919e+14	8.474805e+03	3.853104e+03	1.951360e+03	0	7.076752e-04
1.010000e+09	1.226759e+13	0.000000e+00	6.395350e-01	2.469756e+14	4.439122e+14	1.411577e+14	8.464312e+03	3.850588e+03	1.950085e+03	0	7.047635e-04
1.020000e+09	1.211688e+13	0.000000e+00	6.395350e-01	2.452013e+14	4.410719e+14	1.405279e+14	8.453894e+03	3.848091e+03	1.948821e+03	0	7.018656e-04
1.030000e+09	1.196811e+13	0.000000e+00	6.395350e-01	2.434490e+14	4.382665e+14	1.399023e+14	8.443551e+03	3.845614e+03	1.947566e+03	0	6.989813e-04
1.040000e+09	1.182125e+13	0.000000e+00	6.395350e-01	2.417184e+14	4.354952e+14	1.392810e+14	8.433282e+03	3.843156e+03	1.946321e+03	0	6.961103e-04
1.050000e+09	1.167625e+13	0.000000e+00	6.395350e-01	2.400090e+14	4.327574e+14	1.386638e+14	8.423086e+03	3.840716e+03	1.945085e+03	0	6.932525e-04
1.060000e+09	1.153309e+13	0.000000e+00	6.395350e-01	2.383204e+14	4.300524e+14	1.380508e+14	8.412962e+03	3.838294e+03	1.943859e+03	0	6.904075e-04
1.070000e+09	1.139173e+13	0.000000e+00	6.395350e-01	2.366524e+14	4.273796e+14	1.374420e+14	8.402909e+03	3.835890e+03	1.942641e+03	0	6.875751e-04
1.080000e+09	1.125214e+13	0.000000e+00	6.395350e-01	2.350045e+14	4.247382e+14	1.368372e+14	8.392926e+03	3.833504e+03	1.941433e+03	0	6.847552e-04
1.090000e+09	1.111429e+13	0.000000e+00	6.395350e-01	2.333764e+14	4.221277e+14	1.362365e+14	8.383012e+03	3.831135e+03	1.940233e+03	0	6.819474e-04
1.100000e+09	1.097815e+13	0.000000e+00	6.395350e-01	2.317677e+14	4.195476e+14	1.356398e+14	8.373167e+03	3.828782e+03	1.939042e+03	0	6.791515e-04
1.110000e+09	1.084369e+13	0.000000e+00	6.395350e-01	2.301782e+14	4.169971e+14	1.350471e+14	8.363389e+03	3.826447e+03	1.937859e+03	0	6.763674e-04
1.120000e+09	1.071088e+13	0.000000e+00	6.395350e-01	2.286075e+14	4.144758e+14	1.344584e+14	8.353679e+03	3.824127e+03	1.936684e+03	0	6.735947e-04
1.130000e+09	1.057969e+13	0.000000e+00	6.395350e-01	2.270553e+14	4.119832e+14	1.338737e+14	8.344034e+03	3.821824e+03	1.935518e+03	0	6.708334e-04
1.140000e+09	1.045010e+13	0.000000e+00	6.395350e-01	2.255212e+14	4.095185e+14	1.332928e+14	8.334455e+03	3.819536e+03	1.934359e+03	0	6.680831e-04
1.150000e+09	1.032208e+13	0.000000e+00	6.395350e-01	2.240050e+14	4.070815e+14	1.327159e+14	8.324941e+03	3.817264e+03	1.933209e+03	0	6.653437e-04
1.160000e+09	1.019560e+13	0.000000e+00	6.395350e-01	2.225064e+14	4.046715e+14	1.321428e+14	8.315490e+03	3.815008e+03	1.932066e+03	0	6.626149e-04
1.170000e+09	1.007063e+13	0.000000e+00	6.395350e-01	2.210251e+14	4.022881e+14	1.315734e+14	8.306102e+03	3.812766e+03	1.930930e+03	0	6.598966e-04
1.180000e+09	9.947155e+12	0.000000e+00	6.395350e-01	2.195608e+14	3.999308e+14	1.310079e+14	8.296777e+03	3.810539e+03	1.929802e+03	0	6.571885e-04
1.190000e+09	9.825144e+12	0.000000e+00	6.395350e-01	2.181132e+14	3.975992e+14	1.304462e+14	8.287514e+03	3.808326e+03	1.928682e+03	0	6.544904e-04
1.200000e+09	9.704576e+12	0.000000e+00	6.395350e-01	2.166820e+14	3.952927e+14	1.298881e+14	8.278311e+03	3.806128e+03	1.927569e+03	0	6.518022e-04
1.210000e+09	9.585425e+12	0.000000e+00	6.395350e-01	2.152670e+14	3.930110e+14	1.293338e+14	8.269168e+03	3.803943e+03	1.926462e+03	0	6.491237e-04
1.220000e+09	9.467668e+12	0.000000e+00	6.395350e-01	2.138680e+14	3.907537e+14	1.287832e+14	8.260086e+03	3.801773e+03	1.925363e+03	0	6.464545e-04
1.230000e+09	9.351284e+12	0.000000e+00	6.395350e-01	2.124846e+14	3.885202e+14	1.282362e+14	8.251062e+03	3.799616e+03	1.924271e+03	0	6.437947e-04
1.240000e+09	9.236249e+12	0.000000e+00	6.395350e-01	2.111166e+14	3.863103e+14	1.276928e+14	8.242096e+03	3.797473e+03	1.923185e+03	0	6.411439e-04
1.250000e+09	9.122542e+12	0.000000e+00	6.395350e-01	2.097638e+14	3.841235e+14	1.271530e+14	8.233188e+03	3.795343e+03	1.922107e+03	0	6.385020e-04
1.260000e+09	9.010141e+12	0.000000e+00	6.395350e-01	2.084259e+14	3.819594e+14	1.266167e+14	8.224337e+03	3.793225e+03	1.921034e+03	0	6.358688e-04
1.270000e+09	8.899026e+12	0.000000e+00	6.395350e-01	2.071028e+14	3.798178e+14	1.260840e+14	8.215542e+03	3.791121e+03	1.919969e+03	0	6.332441e-04
1.280000e+09	8.789177e+12	0.000000e+00	6.395350e-01	2.057941e+14	3.776981e+14	1.255548e+14	8.206803e+03	3.789030e+03	1.918910e+03	0	6.306277e-04
1.290000e+09	8.680573e+12	0.000000e+00	6.395350e-01	2.044996e+14	3.756000e+14	1.250290e+14	8.198119e+03	3.786951e+03	1.917857e+03	0	6.280195e-04
1.300000e+09	8.573196e+12	0.000000e+00	6.395350e-01	2.032192e+14	3.735233e+14	1.245068e+14	8.189489e+03	3.784884e+03	1.916810e+03	0	6.254192e-04
1.310000e+09	8.467024e+12	0.000000e+00	6.395350e-01	2.019526e+14	3.714675e+14	1.239879e+14	8.180914e+03	3.782829e+03	1.915769e+03	0	6.228267e-04
1.320000e+09	8.362041e+12	0.000000e+00	6.395350e-01	2.006996e+14	3.694324e+14	1.234724e+14	8.172391e+03	3.780787e+03	1.914735e+03	0	6.202419e-04
1.330000e+09	8.258227e+12	0.000000e+00	6.395350e-01	1.994599e+14	3.674176e+14	1.229603e+14	8.163922e+03	3.778756e+03	1.913707e+03	0	6.176644e-04
1.340000e+09	8.155565e+12	0.000000e+00	6.395350e-01	1.982335e+14	3.654227e+14	1.224516e+14	8.155505e+03	3.776737e+03	1.912684e+03	0	6.150942e-04
1.350000e+09	8.054036e+12	0.000000e+00	6.395350e-01	1.970201e+14	3.634476e+14	1.219462e+14	8.147139e+03	3.774729e+03	1.911667e+03	0	6.125311e-04
1.360000e+09	7.953624e+12	0.000000e+00	6.395350e-01	1.958194e+14	3.614918e+14	1.214440e+14	8.138824e+03	3.772733e+03	1.910656e+03	0	6.099750e-04
