#t		Qconv[W]	Ri[Rp]		R*[Rp]		Qc[W]		Qm[W]		Qr[W]		Tcmb[K]		Tl[K]		Tup[K]		RiFlag		Bs[T]
0.000000e+00	6.285550e+13	0.000000e+00	6.395350e-01	8.236597e+14	2.441900e+15	2.515284e+14	1.066005e+04	4.959359e+03	2.470156e+03	0	1.211535e-03
1.000000e+07	6.135615e+13	0.000000e+00	6.395350e-01	8.075474e+14	2.282361e+15	2.501347e+14	1.062868e+04	4.904389e+03	2.442776e+03	0	1.201824e-03
2.000000e+07	5.992578e+13	0.000000e+00	6.395350e-01	7.921632e+14	2.144666e+15	2.487515e+14	1.059791e+04	4.855006e+03	2.418179e+03	0	1.192411e-03
3.000000e+07	5.855987e+13	0.000000e+00	6.395350e-01	7.774595e+14	2.024779e+15	2.473786e+14	1.056773e+04	4.810398e+03	2.395961e+03	0	1.183282e-03
4.000000e+07	5.725398e+13	0.000000e+00	6.395350e-01	7.633898e+14	1.919572e+15	2.460160e+14	1.053811e+04	4.769904e+03	2.375792e+03	0	1.174420e-03
5.000000e+07	5.600394e+13	0.000000e+00	6.395350e-01	7.499101e+14	1.826588e+15	2.446635e+14	1.050902e+04	4.732978e+03	2.357400e+03	0	1.165810e-03
6.000000e+07	5.480585e+13	0.000000e+00	6.395350e-01	7.369795e+14	1.743872e+15	2.433211e+14	1.048044e+04	4.699166e+03	2.340559e+03	0	1.157436e-03
7.000000e+07	5.365610e+13	0.000000e+00	6.395350e-01	7.245602e+14	1.669854e+15	2.419887e+14	1.045235e+04	4.668089e+03	2.325080e+03	0	1.149285e-03
8.000000e+07	5.255140e+13	0.000000e+00	6.395350e-01	7.126175e+14	1.603260e+15	2.406662e+14	1.042473e+04	4.639425e+03	2.310803e+03	0	1.141343e-03
9.000000e+07	5.148872e+13	0.000000e+00	6.395350e-01	7.011196e+14	1.543044e+15	2.393535e+14	1.039757e+04	4.612900e+03	2.297592e+03	0	1.133598e-03
1.000000e+08	5.046530e+13	0.000000e+00	6.395350e-01	6.900374e+14	1.488345e+15	2.380506e+14	1.037084e+04	4.588282e+03	2.285329e+03	0	1.126037e-03
1.100000e+08	4.947862e+13	0.000000e+00	6.395350e-01	6.793446e+14	1.438443e+15	2.367574e+14	1.034453e+04	4.565367e+03	2.273916e+03	0	1.118650e-03
1.200000e+08	4.852638e+13	0.000000e+00	6.395350e-01	6.690169e+14	1.392737e+15	2.354737e+14	1.031863e+04	4.543981e+03	2.263264e+03	0	1.111427e-03
1.300000e+08	4.760647e+13	0.000000e+00	6.395350e-01	6.590321e+14	1.350718e+15	2.341996e+14	1.029312e+04	4.523973e+03	2.253298e+03	0	1.104359e-03
1.400000e+08	4.671698e+13	0.000000e+00	6.395350e-01	6.493701e+14	1.311955e+15	2.329349e+14	1.026799e+04	4.505208e+03	2.243952e+03	0	1.097437e-03
1.500000e+08	4.585614e+13	0.000000e+00	6.395350e-01	6.400123e+14	1.276079e+15	2.316795e+14	1.024322e+04	4.487571e+03	2.235167e+03	0	1.090655e-03
1.600000e+08	4.502234e+13	0.000000e+00	6.395350e-01	6.309416e+14	1.242773e+15	2.304334e+14	1.021881e+04	4.470957e+03	2.226893e+03	0	1.084004e-03
1.700000e+08	4.421408e+13	0.000000e+00	6.395350e-01	6.221425e+14	1.211765e+15	2.291965e+14	1.019475e+04	4.455277e+03	2.219082e+03	0	1.077478e-03
1.800000e+08	4.342999e+13	0.000000e+00	6.395350e-01	6.136005e+14	1.182817e+15	2.279687e+14	1.017102e+04	4.440448e+03	2.211697e+03	0	1.071071e-03
1.900000e+08	4.266883e+13	0.000000e+00	6.395350e-01	6.053023e+14	1.155724e+15	2.267499e+14	1.014761e+04	4.426399e+03	2.204699e+03	0	1.064776e-03
2.000000e+08	4.192942e+13	0.000000e+00	6.395350e-01	5.972356e+14	1.130305e+15	2.255402e+14	1.012452e+04	4.413065e+03	2.198058e+03	0	1.058590e-03
2.100000e+08	4.121068e+13	0.000000e+00	6.395350e-01	5.893891e+14	1.106402e+15	2.243393e+14	1.010174e+04	4.400389e+03	2.191744e+03	0	1.052507e-03
2.200000e+08	4.051162e+13	0.000000e+00	6.395350e-01	5.817523e+14	1.083876e+15	2.231472e+14	1.007925e+04	4.388318e+03	2.185732e+03	0	1.046521e-03
2.300000e+08	3.983131e+13	0.000000e+00	6.395350e-01	5.743152e+14	1.062603e+15	2.219639e+14	1.005706e+04	4.376806e+03	2.179998e+03	0	1.040630e-03
2.400000e+08	3.916888e+13	0.000000e+00	6.395350e-01	5.670689e+14	1.042476e+15	2.207893e+14	1.003514e+04	4.365810e+03	2.174521e+03	0	1.034829e-03
2.500000e+08	3.852352e+13	0.000000e+00	6.395350e-01	5.600049e+14	1.023395e+15	2.196233e+14	1.001351e+04	4.355293e+03	2.169282e+03	0	1.029114e-03
2.600000e+08	3.789450e+13	0.000000e+00	6.395350e-01	5.531151e+14	1.005276e+15	2.184658e+14	9.992137e+03	4.345218e+03	2.164265e+03	0	1.023482e-03
2.700000e+08	3.728111e+13	0.000000e+00	6.395350e-01	5.463923e+14	9.880400e+14	2.173167e+14	9.971030e+03	4.335556e+03	2.159452e+03	0	1.017930e-03
2.800000e+08	3.668270e+13	0.000000e+00	6.395350e-01	5.398295e+14	9.716178e+14	2.161761e+14	9.950178e+03	4.326276e+03	2.154830e+03	0	1.012454e-03
2.900000e+08	3.609864e+13	0.000000e+00	6.395350e-01	5.334202e+14	9.559470e+14	2.150438e+14	9.929575e+03	4.317354e+03	2.150386e+03	0	1.007052e-03
3.000000e+08	3.552836e+13	0.000000e+00	6.395350e-01	5.271583e+14	9.409712e+14	2.139197e+14	9.909217e+03	4.308764e+03	2.146107e+03	0	1.001721e-03
3.100000e+08	3.497133e+13	0.000000e+00	6.395350e-01	5.210381e+14	9.266396e+14	2.128038e+14	9.889096e+03	4.300485e+03	2.141984e+03	0	9.964578e-04
3.200000e+08	3.442703e+13	0.000000e+00	6.395350e-01	5.150542e+14	9.129060e+14	2.116961e+14	9.869208e+03	4.292497e+03	2.138005e+03	0	9.912611e-04
3.300000e+08	3.389498e+13	0.000000e+00	6.395350e-01	5.092014e+14	8.997287e+14	2.105964e+14	9.849548e+03	4.284781e+03	2.134162e+03	0	9.861281e-04
3.400000e+08	3.337473e+13	0.000000e+00	6.395350e-01	5.034751e+14	8.870696e+14	2.095046e+14	9.830111e+03	4.277320e+03	2.130446e+03	0	9.810567e-04
3.500000e+08	3.286584e+13	0.000000e+00	6.395350e-01	4.978706e+14	8.748942e+14	2.084208e+14	9.810891e+03	4.270099e+03	2.126849e+03	0	9.760449e-04
3.600000e+08	3.236792e+13	0.000000e+00	6.395350e-01	4.923836e+14	8.631708e+14	2.073449e+14	9.791884e+03	4.263104e+03	2.123365e+03	0	9.710907e-04
3.700000e+08	3.188058e+13	0.000000e+00	6.395350e-01	4.870102e+14	8.518706e+14	2.062768e+14	9.773086e+03	4.256320e+03	2.119986e+03	0	9.661924e-04
3.800000e+08	3.140347e+13	0.000000e+00	6.395350e-01	4.817465e+14	8.409671e+14	2.052163e+14	9.754493e+03	4.249736e+03	2.116707e+03	0	9.613482e-04
3.900000e+08	3.093622e+13	0.000000e+00	6.395350e-01	4.765887e+14	8.304360e+14	2.041636e+14	9.736100e+03	4.243340e+03	2.113521e+03	0	9.565565e-04
4.000000e+08	3.047852e+13	0.000000e+00	6.395350e-01	4.715335e+14	8.202550e+14	2.031184e+14	9.717903e+03	4.237121e+03	2.110424e+03	0	9.518156e-04
4.100000e+08	3.003006e+13	0.000000e+00	6.395350e-01	4.665775e+14	8.104037e+14	2.020808e+14	9.699898e+03	4.231070e+03	2.107410e+03	0	9.471242e-04
4.200000e+08	2.959054e+13	0.000000e+00	6.395350e-01	4.617177e+14	8.008630e+14	2.010507e+14	9.682082e+03	4.225178e+03	2.104475e+03	0	9.424807e-04
4.300000e+08	2.915967e+13	0.000000e+00	6.395350e-01	4.569509e+14	7.916155e+14	2.000280e+14	9.664451e+03	4.219436e+03	2.101615e+03	0	9.378839e-04
4.400000e+08	2.873720e+13	0.000000e+00	6.395350e-01	4.522744e+14	7.826452e+14	1.990126e+14	9.647001e+03	4.213836e+03	2.098826e+03	0	9.333324e-04
4.500000e+08	2.832286e+13	0.000000e+00	6.395350e-01	4.476854e+14	7.739370e+14	1.980046e+14	9.629729e+03	4.208371e+03	2.096104e+03	0	9.288250e-04
4.600000e+08	2.791641e+13	0.000000e+00	6.395350e-01	4.431813e+14	7.654772e+14	1.970037e+14	9.612632e+03	4.203035e+03	2.093446e+03	0	9.243605e-04
4.700000e+08	2.751761e+13	0.000000e+00	6.395350e-01	4.387596e+14	7.572528e+14	1.960101e+14	9.595707e+03	4.197819e+03	2.090848e+03	0	9.199377e-04
4.800000e+08	2.712624e+13	0.000000e+00	6.395350e-01	4.344181e+14	7.492519e+14	1.950236e+14	9.578950e+03	4.192720e+03	2.088308e+03	0	9.155556e-04
4.900000e+08	2.674209e+13	0.000000e+00	6.395350e-01	4.301543e+14	7.414635e+14	1.940441e+14	9.562358e+03	4.187730e+03	2.085823e+03	0	9.112132e-04
5.000000e+08	2.636495e+13	0.000000e+00	6.395350e-01	4.259661e+14	7.338772e+14	1.930716e+14	9.545928e+03	4.182846e+03	2.083390e+03	0	9.069093e-04
5.100000e+08	2.599463e+13	0.000000e+00	6.395350e-01	4.218514e+14	7.264833e+14	1.921061e+14	9.529658e+03	4.178061e+03	2.081007e+03	0	9.026431e-04
5.200000e+08	2.563094e+13	0.000000e+00	6.395350e-01	4.178082e+14	7.192729e+14	1.911475e+14	9.513544e+03	4.173372e+03	2.078671e+03	0	8.984137e-04
5.300000e+08	2.527369e+13	0.000000e+00	6.395350e-01	4.138346e+14	7.122375e+14	1.901957e+14	9.497585e+03	4.168774e+03	2.076381e+03	0	8.942200e-04
5.400000e+08	2.492271e+13	0.000000e+00	6.395350e-01	4.099287e+14	7.053692e+14	1.892507e+14	9.481776e+03	4.164262e+03	2.074134e+03	0	8.900614e-04
5.500000e+08	2.457784e+13	0.000000e+00	6.395350e-01	4.060887e+14	6.986608e+14	1.883124e+14	9.466117e+03	4.159834e+03	2.071929e+03	0	8.859368e-04
5.600000e+08	2.423891e+13	0.000000e+00	6.395350e-01	4.023130e+14	6.921052e+14	1.873808e+14	9.450604e+03	4.155486e+03	2.069763e+03	0	8.818456e-04
5.700000e+08	2.390578e+13	0.000000e+00	6.395350e-01	3.985999e+14	6.856960e+14	1.864558e+14	9.435234e+03	4.151213e+03	2.067635e+03	0	8.777870e-04
5.800000e+08	2.357828e+13	0.000000e+00	6.395350e-01	3.949477e+14	6.794272e+14	1.855374e+14	9.420006e+03	4.147014e+03	2.065543e+03	0	8.737602e-04
5.900000e+08	2.325629e+13	0.000000e+00	6.395350e-01	3.913551e+14	6.732929e+14	1.846255e+14	9.404917e+03	4.142885e+03	2.063486e+03	0	8.697645e-04
6.000000e+08	2.293966e+13	0.000000e+00	6.395350e-01	3.878204e+14	6.672877e+14	1.837200e+14	9.389965e+03	4.138823e+03	2.061463e+03	0	8.657991e-04
6.100000e+08	2.262825e+13	0.000000e+00	6.395350e-01	3.843423e+14	6.614067e+14	1.828210e+14	9.375147e+03	4.134826e+03	2.059472e+03	0	8.618635e-04
6.200000e+08	2.232194e+13	0.000000e+00	6.395350e-01	3.809195e+14	6.556450e+14	1.819283e+14	9.360463e+03	4.130890e+03	2.057512e+03	0	8.579570e-04
6.300000e+08	2.202061e+13	0.000000e+00	6.395350e-01	3.775505e+14	6.499980e+14	1.810418e+14	9.345908e+03	4.127015e+03	2.055582e+03	0	8.540789e-04
6.400000e+08	2.172413e+13	0.000000e+00	6.395350e-01	3.742341e+14	6.444616e+14	1.801617e+14	9.331482e+03	4.123197e+03	2.053680e+03	0	8.502285e-04
6.500000e+08	2.143240e+13	0.000000e+00	6.395350e-01	3.709690e+14	6.390317e+14	1.792877e+14	9.317182e+03	4.119434e+03	2.051806e+03	0	8.464054e-04
6.600000e+08	2.114529e+13	0.000000e+00	6.395350e-01	3.677542e+14	6.337044e+14	1.784199e+14	9.303006e+03	4.115724e+03	2.049958e+03	0	8.426090e-04
6.700000e+08	2.086270e+13	0.000000e+00	6.395350e-01	3.645884e+14	6.284762e+14	1.775582e+14	9.288953e+03	4.112066e+03	2.048136e+03	0	8.388386e-04
6.800000e+08	2.058453e+13	0.000000e+00	6.395350e-01	3.614705e+14	6.233436e+14	1.767026e+14	9.275021e+03	4.108458e+03	2.046339e+03	0	8.350937e-04
6.900000e+08	2.031068e+13	0.000000e+00	6.395350e-01	3.583994e+14	6.183034e+14	1.758529e+14	9.261207e+03	4.104897e+03	2.044566e+03	0	8.313738e-04
7.000000e+08	2.004104e+13	0.000000e+00	6.395350e-01	3.553741e+14	6.133524e+14	1.750092e+14	9.247511e+03	4.101383e+03	2.042815e+03	0	8.276784e-04
7.100000e+08	1.977553e+13	0.000000e+00	6.395350e-01	3.523935e+14	6.084878e+14	1.741714e+14	9.233930e+03	4.097913e+03	2.041087e+03	0	8.240070e-04
7.200000e+08	1.951404e+13	0.000000e+00	6.395350e-01	3.494568e+14	6.037068e+14	1.733395e+14	9.220462e+03	4.094487e+03	2.039380e+03	0	8.203590e-04
7.300000e+08	1.925650e+13	0.000000e+00	6.395350e-01	3.465628e+14	5.990067e+14	1.725134e+14	9.207106e+03	4.091102e+03	2.037695e+03	0	8.167340e-04
7.400000e+08	1.900282e+13	0.000000e+00	6.395350e-01	3.437108e+14	5.943849e+14	1.716931e+14	9.193861e+03	4.087758e+03	2.036029e+03	0	8.131316e-04
7.500000e+08	1.875290e+13	0.000000e+00	6.395350e-01	3.408998e+14	5.898392e+14	1.708784e+14	9.180724e+03	4.084453e+03	2.034383e+03	0	8.095513e-04
7.600000e+08	1.850668e+13	0.000000e+00	6.395350e-01	3.381289e+14	5.853671e+14	1.700695e+14	9.167695e+03	4.081187e+03	2.032756e+03	0	8.059926e-04
7.700000e+08	1.826407e+13	0.000000e+00	6.395350e-01	3.353973e+14	5.809666e+14	1.692661e+14	9.154771e+03	4.077957e+03	2.031147e+03	0	8.024551e-04
7.800000e+08	1.802500e+13	0.000000e+00	6.395350e-01	3.327042e+14	5.766355e+14	1.684684e+14	9.141951e+03	4.074763e+03	2.029556e+03	0	7.989383e-04
7.900000e+08	1.778939e+13	0.000000e+00	6.395350e-01	3.300488e+14	5.723718e+14	1.676762e+14	9.129234e+03	4.071604e+03	2.027983e+03	0	7.954420e-04
8.000000e+08	1.755716e+13	0.000000e+00	6.395350e-01	3.274303e+14	5.681736e+14	1.668895e+14	9.116618e+03	4.068478e+03	2.026426e+03	0	7.919656e-04
8.100000e+08	1.732826e+13	0.000000e+00	6.395350e-01	3.248479e+14	5.640391e+14	1.661082e+14	9.104102e+03	4.065385e+03	2.024885e+03	0	7.885088e-04
8.200000e+08	1.710261e+13	0.000000e+00	6.395350e-01	3.223010e+14	5.599666e+14	1.653324e+14	9.091684e+03	4.062324e+03	2.023361e+03	0	7.850712e-04
8.300000e+08	1.688015e+13	0.000000e+00	6.395350e-01	3.197888e+14	5.559543e+14	1.645619e+14	9.079363e+03	4.059295e+03	2.021852e+03	0	7.816523e-04
8.400000e+08	1.666081e+13	0.000000e+00	6.395350e-01	3.173106e+14	5.520008e+14	1.637967e+14	9.067139e+03	4.056295e+03	2.020358e+03	0	7.782519e-04
8.500000e+08	1.644452e+13	0.000000e+00	6.395350e-01	3.148658e+14	5.481043e+14	1.630369e+14	9.055008e+03	4.053325e+03	2.018878e+03	0	7.748696e-04
8.600000e+08	1.623124e+13	0.000000e+00	6.395350e-01	3.124537e+14	5.442635e+14	1.622822e+14	9.042971e+03	4.050383e+03	2.017413e+03	0	7.715050e-04
8.700000e+08	1.602089e+13	0.000000e+00	6.395350e-01	3.100736e+14	5.404770e+14	1.615328e+14	9.031026e+03	4.047470e+03	2.015962e+03	0	7.681578e-04
8.800000e+08	1.581343e+13	0.000000e+00	6.395350e-01	3.077250e+14	5.367434e+14	1.607885e+14	9.019172e+03	4.044583e+03	2.014524e+03	0	7.648276e-04
8.900000e+08	1.560879e+13	0.000000e+00	6.395350e-01	3.054073e+14	5.330613e+14	1.600493e+14	9.007407e+03	4.041723e+03	2.013100e+03	0	7.615141e-04
9.000000e+08	1.540692e+13	0.000000e+00	6.395350e-01	3.031198e+14	5.294296e+14	1.593152e+14	8.995731e+03	4.038889e+03	2.011688e+03	0	7.582169e-04
9.100000e+08	1.520777e+13	0.000000e+00	6.395350e-01	3.008620e+14	5.258470e+14	1.585861e+14	8.984141e+03	4.036080e+03	2.010289e+03	0	7.549358e-04
9.200000e+08	1.501129e+13	0.000000e+00	6.395350e-01	2.986333e+14	5.223124e+14	1.578620e+14	8.972638e+03	4.033296e+03	2.008903e+03	0	7.516705e-04
9.300000e+08	1.481742e+13	0.000000e+00	6.395350e-01	2.964332e+14	5.188246e+14	1.571429e+14	8.961220e+03	4.030536e+03	2.007528e+03	0	7.484205e-04
9.400000e+08	1.462611e+13	0.000000e+00	6.395350e-01	2.942611e+14	5.153825e+14	1.564287e+14	8.949886e+03	4.027800e+03	2.006165e+03	0	7.451857e-04
9.500000e+08	1.443733e+13	0.000000e+00	6.395350e-01	2.921166e+14	5.119852e+14	1.557193e+14	8.938635e+03	4.025086e+03	2.004813e+03	0	7.419657e-04
9.600000e+08	1.425101e+13	0.000000e+00	6.395350e-01	2.899991e+14	5.086316e+14	1.550148e+14	8.927465e+03	4.022395e+03	2.003473e+03	0	7.387601e-04
9.700000e+08	1.406713e+13	0.000000e+00	6.395350e-01	2.879082e+14	5.053207e+14	1.543151e+14	8.916377e+03	4.019727e+03	2.002144e+03	0	7.355688e-04
9.800000e+08	1.388562e+13	0.000000e+00	6.395350e-01	2.858433e+14	5.020517e+14	1.536202e+14	8.905368e+03	4.017079e+03	2.000825e+03	0	7.323915e-04
9.900000e+08	1.370645e+13	0.000000e+00	6.395350e-01	2.838041e+14	4.988235e+14	1.529300e+14	8.894438e+03	4.014453e+03	1.999517e+03	0	7.292278e-04
1.000000e+09	1.352958e+13	0.000000e+00	6.395350e-01	2.817899e+14	4.956354e+14	1.522444e+14	8.883585e+03	4.011848e+03	1.998219e+03	0	7.260774e-04
1.010000e+09	1.335496e+13	0.000000e+00	6.395350e-01	2.798005e+14	4.924865e+14	1.515635e+14	8.872810e+03	4.009262e+03	1.996932e+03	0	7.229402e-04
1.020000e+09	1.318255e+13	0.000000e+00	6.395350e-01	2.778353e+14	4.893759e+14	1.508873e+14	8.862110e+03	4.006697e+03	1.995654e+03	0	7.198158e-04
1.030000e+09	1.301232e+13	0.000000e+00	6.395350e-01	2.758940e+14	4.863029e+14	1.502156e+14	8.851485e+03	4.004151e+03	1.994386e+03	0	7.167039e-04
1.040000e+09	1.284423e+13	0.000000e+00	6.395350e-01	2.739761e+14	4.832668e+14	1.495484e+14	8.840934e+03	4.001624e+03	1.993127e+03	0	7.136044e-04
1.050000e+09	1.267823e+13	0.000000e+00	6.395350e-01	2.720811e+14	4.802667e+14	1.488857e+14	8.830457e+03	3.999116e+03	1.991878e+03	0	7.105169e-04
1.060000e+09	1.251430e+13	0.000000e+00	6.395350e-01	2.702089e+14	4.773020e+14	1.482276e+14	8.820052e+03	3.996626e+03	1.990638e+03	0	7.074412e-04
1.070000e+09	1.235239e+13	0.000000e+00	6.395350e-01	2.683588e+14	4.743719e+14	1.475738e+14	8.809718e+03	3.994154e+03	1.989407e+03	0	7.043770e-04
1.080000e+09	1.219247e+13	0.000000e+00	6.395350e-01	2.665306e+14	4.714759e+14	1.469245e+14	8.799455e+03	3.991700e+03	1.988184e+03	0	7.013241e-04
1.090000e+09	1.203451e+13	0.000000e+00	6.395350e-01	2.647239e+14	4.686131e+14	1.462795e+14	8.789262e+03	3.989263e+03	1.986971e+03	0	6.982822e-04
1.100000e+09	1.187847e+13	0.000000e+00	6.395350e-01	2.629383e+14	4.657831e+14	1.456388e+14	8.779137e+03	3.986844e+03	1.985766e+03	0	6.952511e-04
1.110000e+09	1.172432e+13	0.000000e+00	6.395350e-01	2.611735e+14	4.629852e+14	1.450025e+14	8.769081e+03	3.984441e+03	1.984569e+03	0	6.922306e-04
1.120000e+09	1.157204e+13	0.000000e+00	6.395350e-01	2.594291e+14	4.602187e+14	1.443704e+14	8.759092e+03	3.982054e+03	1.983380e+03	0	6.892204e-04
1.130000e+09	1.142158e+13	0.000000e+00	6.395350e-01	2.577048e+14	4.574832e+14	1.437425e+14	8.749169e+03	3.979684e+03	1.982199e+03	0	6.862203e-04
1.140000e+09	1.127291e+13	0.000000e+00	6.395350e-01	2.560002e+14	4.547780e+14	1.431188e+14	8.739313e+03	3.977330e+03	1.981027e+03	0	6.832300e-04
1.150000e+09	1.112602e+13	0.000000e+00	6.395350e-01	2.543151e+14	4.521026e+14	1.424993e+14	8.729521e+03	3.974991e+03	1.979862e+03	0	6.802493e-04
1.160000e+09	1.098086e+13	0.000000e+00	6.395350e-01	2.526491e+14	4.494565e+14	1.418840e+14	8.719794e+03	3.972668e+03	1.978705e+03	0	6.772780e-04
1.170000e+09	1.083741e+13	0.000000e+00	6.395350e-01	2.510019e+14	4.468391e+14	1.412727e+14	8.710130e+03	3.970360e+03	1.977555e+03	0	6.743158e-04
1.180000e+09	1.069564e+13	0.000000e+00	6.395350e-01	2.493732e+14	4.442500e+14	1.406655e+14	8.700530e+03	3.968066e+03	1.976413e+03	0	6.713626e-04
1.190000e+09	1.055553e+13	0.000000e+00	6.395350e-01	2.477628e+14	4.416886e+14	1.400623e+14	8.690991e+03	3.965788e+03	1.975278e+03	0	6.684180e-04
1.200000e+09	1.041704e+13	0.000000e+00	6.395350e-01	2.461702e+14	4.391545e+14	1.394632e+14	8.681514e+03	3.963524e+03	1.974150e+03	0	6.654819e-04
1.210000e+09	1.028015e+13	0.000000e+00	6.395350e-01	2.445953e+14	4.366472e+14	1.388680e+14	8.672097e+03	3.961274e+03	1.973030e+03	0	6.625541e-04
1.220000e+09	1.014484e+13	0.000000e+00	6.395350e-01	2.430377e+14	4.341663e+14	1.382767e+14	8.662741e+03	3.959038e+03	1.971916e+03	0	6.596344e-04
1.230000e+09	1.001108e+13	0.000000e+00	6.395350e-01	2.414973e+14	4.317112e+14	1.376894e+14	8.653444e+03	3.956816e+03	1.970809e+03	0	6.567224e-04
1.240000e+09	9.878843e+12	0.000000e+00	6.395350e-01	2.399736e+14	4.292817e+14	1.371059e+14	8.644206e+03	3.954608e+03	1.969709e+03	0	6.538180e-04
1.250000e+09	9.748109e+12	0.000000e+00	6.395350e-01	2.384665e+14	4.268772e+14	1.365263e+14	8.635026e+03	3.952413e+03	1.968616e+03	0	6.509210e-04
1.260000e+09	9.618852e+12	0.000000e+00	6.395350e-01	2.369757e+14	4.244973e+14	1.359506e+14	8.625904e+03	3.950231e+03	1.967529e+03	0	6.480312e-04
1.270000e+09	9.491050e+12	0.000000e+00	6.395350e-01	2.355010e+14	4.221418e+14	1.353786e+14	8.616839e+03	3.948062e+03	1.966449e+03	0	6.451484e-04
1.280000e+09	9.364679e+12	0.000000e+00	6.395350e-01	2.340420e+14	4.198100e+14	1.348103e+14	8.607829e+03	3.945906e+03	1.965375e+03	0	6.422723e-04
1.290000e+09	9.239718e+12	0.000000e+00	6.395350e-01	2.325986e+14	4.175018e+14	1.342459e+14	8.598876e+03	3.943763e+03	1.964308e+03	0	6.394027e-04
1.300000e+09	9.116146e+12	0.000000e+00	6.395350e-01	2.311706e+14	4.152167e+14	1.336851e+14	8.589978e+03	3.941632e+03	1.963246e+03	0	6.365394e-04
1.310000e+09	8.993940e+12	0.000000e+00	6.395350e-01	2.297576e+14	4.129543e+14	1.331280e+14	8.581134e+03	3.939513e+03	1.962191e+03	0	6.336822e-04
1.320000e+09	8.873079e+12	0.000000e+00	6.395350e-01	2.283596e+14	4.107144e+14	1.325745e+14	8.572344e+03	3.937407e+03	1.961142e+03	0	6.308309e-04
1.330000e+09	8.753544e+12	0.000000e+00	6.395350e-01	2.269761e+14	4.084965e+14	1.320247e+14	8.563608e+03	3.935313e+03	1.960099e+03	0	6.279853e-04
1.340000e+09	8.635314e+12	0.000000e+00	6.395350e-01	2.256071e+14	4.063003e+14	1.314784e+14	8.554924e+03	3.933230e+03	1.959062e+03	0	6.251452e-04
1.350000e+09	8.518370e+12	0.000000e+00	6.395350e-01	2.242523e+14	4.041255e+14	1.309357e+14	8.546292e+03	3.931159e+03	1.958030e+03	0	6.223104e-04
1.360000e+09	8.402692e+12	0.000000e+00	6.395350e-01	2.229116e+14	4.019718e+14	1.303966e+14	8.537713e+03	3.929100e+03	1.957005e+03	0	6.194805e-04
