#t		Qconv[W]	Ri[Rp]		R*[Rp]		Qc[W]		Qm[W]		Qr[W]		Tcmb[K]		Tl[K]		Tup[K]		RiFlag		Bs[T]
0.000000e+00	6.831709e+13	0.000000e+00	6.395350e-01	8.907418e+14	2.509926e+15	2.687491e+14	1.107758e+04	5.097860e+03	2.499467e+03	0	1.242511e-03
1.000000e+07	6.672791e+13	0.000000e+00	6.395350e-01	8.742144e+14	2.358865e+15	2.672600e+14	1.104664e+04	5.046557e+03	2.474313e+03	0	1.232801e-03
2.000000e+07	6.520983e+13	0.000000e+00	6.395350e-01	8.584115e+14	2.227307e+15	2.657821e+14	1.101628e+04	5.000203e+03	2.451586e+03	0	1.223380e-03
3.000000e+07	6.375799e+13	0.000000e+00	6.395350e-01	8.432838e+14	2.111835e+15	2.643152e+14	1.098646e+04	4.958116e+03	2.430951e+03	0	1.214233e-03
4.000000e+07	6.236781e+13	0.000000e+00	6.395350e-01	8.287847e+14	2.009761e+15	2.628593e+14	1.095716e+04	4.919732e+03	2.412132e+03	0	1.205343e-03
5.000000e+07	6.103497e+13	0.000000e+00	6.395350e-01	8.148707e+14	1.918949e+15	2.614142e+14	1.092836e+04	4.884582e+03	2.394898e+03	0	1.196694e-03
6.000000e+07	5.975551e+13	0.000000e+00	6.395350e-01	8.015015e+14	1.837680e+15	2.599799e+14	1.090005e+04	4.852272e+03	2.379056e+03	0	1.188273e-03
7.000000e+07	5.852579e+13	0.000000e+00	6.395350e-01	7.886402e+14	1.764557e+15	2.585563e+14	1.087220e+04	4.822470e+03	2.364444e+03	0	1.180065e-03
8.000000e+07	5.734246e+13	0.000000e+00	6.395350e-01	7.762529e+14	1.698437e+15	2.571432e+14	1.084479e+04	4.794891e+03	2.350922e+03	0	1.172058e-03
9.000000e+07	5.620249e+13	0.000000e+00	6.395350e-01	7.643088e+14	1.638374e+15	2.557407e+14	1.081781e+04	4.769295e+03	2.338372e+03	0	1.164239e-03
1.000000e+08	5.510309e+13	0.000000e+00	6.395350e-01	7.527797e+14	1.583580e+15	2.543486e+14	1.079125e+04	4.745470e+03	2.326691e+03	0	1.156598e-03
1.100000e+08	5.404172e+13	0.000000e+00	6.395350e-01	7.416397e+14	1.533395e+15	2.529668e+14	1.076508e+04	4.723237e+03	2.315790e+03	0	1.149124e-03
1.200000e+08	5.301605e+13	0.000000e+00	6.395350e-01	7.308654e+14	1.487261e+15	2.515953e+14	1.073930e+04	4.702437e+03	2.305592e+03	0	1.141807e-03
1.300000e+08	5.202395e+13	0.000000e+00	6.395350e-01	7.204350e+14	1.444705e+15	2.502339e+14	1.071389e+04	4.682932e+03	2.296029e+03	0	1.134640e-03
1.400000e+08	5.106349e+13	0.000000e+00	6.395350e-01	7.103289e+14	1.405321e+15	2.488826e+14	1.068884e+04	4.664600e+03	2.287041e+03	0	1.127614e-03
1.500000e+08	5.013288e+13	0.000000e+00	6.395350e-01	7.005290e+14	1.368762e+15	2.475413e+14	1.066414e+04	4.647335e+03	2.278576e+03	0	1.120722e-03
1.600000e+08	4.923047e+13	0.000000e+00	6.395350e-01	6.910184e+14	1.334728e+15	2.462098e+14	1.063979e+04	4.631042e+03	2.270588e+03	0	1.113957e-03
1.700000e+08	4.835475e+13	0.000000e+00	6.395350e-01	6.817820e+14	1.302960e+15	2.448883e+14	1.061576e+04	4.615637e+03	2.263034e+03	0	1.107312e-03
1.800000e+08	4.750434e+13	0.000000e+00	6.395350e-01	6.728055e+14	1.273230e+15	2.435764e+14	1.059205e+04	4.601043e+03	2.255879e+03	0	1.100782e-03
1.900000e+08	4.667794e+13	0.000000e+00	6.395350e-01	6.640759e+14	1.245340e+15	2.422742e+14	1.056865e+04	4.587196e+03	2.249090e+03	0	1.094362e-03
2.000000e+08	4.587436e+13	0.000000e+00	6.395350e-01	6.555810e+14	1.219117e+15	2.409816e+14	1.054556e+04	4.574033e+03	2.242636e+03	0	1.088045e-03
2.100000e+08	4.509250e+13	0.000000e+00	6.395350e-01	6.473096e+14	1.194407e+15	2.396985e+14	1.052275e+04	4.561502e+03	2.236492e+03	0	1.081829e-03
2.200000e+08	4.433135e+13	0.000000e+00	6.395350e-01	6.392513e+14	1.171076e+15	2.384248e+14	1.050024e+04	4.549552e+03	2.230633e+03	0	1.075707e-03
2.300000e+08	4.358994e+13	0.000000e+00	6.395350e-01	6.313965e+14	1.149002e+15	2.371605e+14	1.047800e+04	4.538141e+03	2.225039e+03	0	1.069676e-03
2.400000e+08	4.286739e+13	0.000000e+00	6.395350e-01	6.237360e+14	1.128080e+15	2.359055e+14	1.045604e+04	4.527229e+03	2.219688e+03	0	1.063733e-03
2.500000e+08	4.216288e+13	0.000000e+00	6.395350e-01	6.162615e+14	1.108214e+15	2.346596e+14	1.043434e+04	4.516779e+03	2.214564e+03	0	1.057874e-03
2.600000e+08	4.147562e+13	0.000000e+00	6.395350e-01	6.089652e+14	1.089318e+15	2.334229e+14	1.041291e+04	4.506758e+03	2.209651e+03	0	1.052094e-03
2.700000e+08	4.080491e+13	0.000000e+00	6.395350e-01	6.018395e+14	1.071317e+15	2.321952e+14	1.039172e+04	4.497136e+03	2.204934e+03	0	1.046392e-03
2.800000e+08	4.015006e+13	0.000000e+00	6.395350e-01	5.948777e+14	1.054141e+15	2.309764e+14	1.037078e+04	4.487886e+03	2.200399e+03	0	1.040764e-03
2.900000e+08	3.951043e+13	0.000000e+00	6.395350e-01	5.880732e+14	1.037729e+15	2.297666e+14	1.035008e+04	4.478984e+03	2.196034e+03	0	1.035208e-03
3.000000e+08	3.888544e+13	0.000000e+00	6.395350e-01	5.814199e+14	1.022024e+15	2.285655e+14	1.032962e+04	4.470405e+03	2.191828e+03	0	1.029720e-03
3.100000e+08	3.827452e+13	0.000000e+00	6.395350e-01	5.749122e+14	1.006976e+15	2.273733e+14	1.030939e+04	4.462130e+03	2.187770e+03	0	1.024299e-03
3.200000e+08	3.767713e+13	0.000000e+00	6.395350e-01	5.685446e+14	9.925388e+14	2.261897e+14	1.028938e+04	4.454138e+03	2.183852e+03	0	1.018942e-03
3.300000e+08	3.709279e+13	0.000000e+00	6.395350e-01	5.623120e+14	9.786707e+14	2.250147e+14	1.026960e+04	4.446413e+03	2.180064e+03	0	1.013647e-03
3.400000e+08	3.652102e+13	0.000000e+00	6.395350e-01	5.562096e+14	9.653334e+14	2.238482e+14	1.025003e+04	4.438937e+03	2.176399e+03	0	1.008412e-03
3.500000e+08	3.596137e+13	0.000000e+00	6.395350e-01	5.502329e+14	9.524922e+14	2.226902e+14	1.023068e+04	4.431696e+03	2.172849e+03	0	1.003234e-03
3.600000e+08	3.541343e+13	0.000000e+00	6.395350e-01	5.443775e+14	9.401154e+14	2.215406e+14	1.021153e+04	4.424675e+03	2.169406e+03	0	9.981129e-04
3.700000e+08	3.487680e+13	0.000000e+00	6.395350e-01	5.386394e+14	9.281738e+14	2.203993e+14	1.019258e+04	4.417863e+03	2.166066e+03	0	9.930456e-04
3.800000e+08	3.435109e+13	0.000000e+00	6.395350e-01	5.330146e+14	9.166407e+14	2.192663e+14	1.017383e+04	4.411246e+03	2.162822e+03	0	9.880308e-04
3.900000e+08	3.383594e+13	0.000000e+00	6.395350e-01	5.274996e+14	9.054916e+14	2.181415e+14	1.015528e+04	4.404814e+03	2.159669e+03	0	9.830669e-04
4.000000e+08	3.333102e+13	0.000000e+00	6.395350e-01	5.220907e+14	8.947038e+14	2.170248e+14	1.013692e+04	4.398557e+03	2.156601e+03	0	9.781525e-04
4.100000e+08	3.283600e+13	0.000000e+00	6.395350e-01	5.167847e+14	8.842567e+14	2.159161e+14	1.011875e+04	4.392465e+03	2.153614e+03	0	9.732859e-04
4.200000e+08	3.235057e+13	0.000000e+00	6.395350e-01	5.115784e+14	8.741309e+14	2.148155e+14	1.010076e+04	4.386529e+03	2.150704e+03	0	9.684659e-04
4.300000e+08	3.187444e+13	0.000000e+00	6.395350e-01	5.064687e+14	8.643087e+14	2.137228e+14	1.008295e+04	4.380742e+03	2.147866e+03	0	9.636911e-04
4.400000e+08	3.140732e+13	0.000000e+00	6.395350e-01	5.014529e+14	8.547738e+14	2.126379e+14	1.006532e+04	4.375094e+03	2.145097e+03	0	9.589603e-04
4.500000e+08	3.094894e+13	0.000000e+00	6.395350e-01	4.965280e+14	8.455108e+14	2.115608e+14	1.004786e+04	4.369580e+03	2.142393e+03	0	9.542722e-04
4.600000e+08	3.049905e+13	0.000000e+00	6.395350e-01	4.916915e+14	8.365057e+14	2.104915e+14	1.003057e+04	4.364192e+03	2.139752e+03	0	9.496256e-04
4.700000e+08	3.005740e+13	0.000000e+00	6.395350e-01	4.869408e+14	8.277453e+14	2.094298e+14	1.001345e+04	4.358924e+03	2.137169e+03	0	9.450196e-04
4.800000e+08	2.962375e+13	0.000000e+00	6.395350e-01	4.822735e+14	8.192175e+14	2.083757e+14	9.996501e+03	4.353771e+03	2.134642e+03	0	9.404529e-04
4.900000e+08	2.919789e+13	0.000000e+00	6.395350e-01	4.776874e+14	8.109108e+14	2.073292e+14	9.979709e+03	4.348727e+03	2.132169e+03	0	9.359245e-04
5.000000e+08	2.877959e+13	0.000000e+00	6.395350e-01	4.731802e+14	8.028147e+14	2.062902e+14	9.963077e+03	4.343786e+03	2.129747e+03	0	9.314336e-04
5.100000e+08	2.836866e+13	0.000000e+00	6.395350e-01	4.687497e+14	7.949192e+14	2.052585e+14	9.946601e+03	4.338945e+03	2.127373e+03	0	9.269791e-04
5.200000e+08	2.796488e+13	0.000000e+00	6.395350e-01	4.643940e+14	7.872152e+14	2.042343e+14	9.930278e+03	4.334198e+03	2.125045e+03	0	9.225600e-04
5.300000e+08	2.756806e+13	0.000000e+00	6.395350e-01	4.601110e+14	7.796939e+14	2.032173e+14	9.914107e+03	4.329541e+03	2.122762e+03	0	9.181756e-04
5.400000e+08	2.717804e+13	0.000000e+00	6.395350e-01	4.558989e+14	7.723473e+14	2.022076e+14	9.898085e+03	4.324970e+03	2.120521e+03	0	9.138250e-04
5.500000e+08	2.679462e+13	0.000000e+00	6.395350e-01	4.517559e+14	7.651679e+14	2.012051e+14	9.882209e+03	4.320482e+03	2.118321e+03	0	9.095073e-04
5.600000e+08	2.641764e+13	0.000000e+00	6.395350e-01	4.476801e+14	7.581484e+14	2.002097e+14	9.866477e+03	4.316073e+03	2.116159e+03	0	9.052218e-04
5.700000e+08	2.604694e+13	0.000000e+00	6.395350e-01	4.436700e+14	7.512822e+14	1.992214e+14	9.850886e+03	4.311740e+03	2.114035e+03	0	9.009677e-04
5.800000e+08	2.568235e+13	0.000000e+00	6.395350e-01	4.397239e+14	7.445630e+14	1.982401e+14	9.835435e+03	4.307479e+03	2.111946e+03	0	8.967443e-04
5.900000e+08	2.532374e+13	0.000000e+00	6.395350e-01	4.358402e+14	7.379849e+14	1.972657e+14	9.820120e+03	4.303288e+03	2.109891e+03	0	8.925508e-04
6.000000e+08	2.497094e+13	0.000000e+00	6.395350e-01	4.320175e+14	7.315423e+14	1.962983e+14	9.804941e+03	4.299164e+03	2.107869e+03	0	8.883865e-04
6.100000e+08	2.462382e+13	0.000000e+00	6.395350e-01	4.282542e+14	7.252299e+14	1.953377e+14	9.789894e+03	4.295104e+03	2.105878e+03	0	8.842508e-04
6.200000e+08	2.428224e+13	0.000000e+00	6.395350e-01	4.245490e+14	7.190429e+14	1.943838e+14	9.774978e+03	4.291106e+03	2.103918e+03	0	8.801431e-04
6.300000e+08	2.394608e+13	0.000000e+00	6.395350e-01	4.209005e+14	7.129765e+14	1.934367e+14	9.760190e+03	4.287168e+03	2.101987e+03	0	8.760626e-04
6.400000e+08	2.361520e+13	0.000000e+00	6.395350e-01	4.173074e+14	7.070264e+14	1.924963e+14	9.745530e+03	4.283286e+03	2.100084e+03	0	8.720088e-04
6.500000e+08	2.328948e+13	0.000000e+00	6.395350e-01	4.137684e+14	7.011882e+14	1.915625e+14	9.730994e+03	4.279460e+03	2.098208e+03	0	8.679811e-04
6.600000e+08	2.296880e+13	0.000000e+00	6.395350e-01	4.102823e+14	6.954581e+14	1.906353e+14	9.716581e+03	4.275686e+03	2.096358e+03	0	8.639789e-04
6.700000e+08	2.265305e+13	0.000000e+00	6.395350e-01	4.068479e+14	6.898323e+14	1.897146e+14	9.702289e+03	4.271964e+03	2.094533e+03	0	8.600016e-04
6.800000e+08	2.234212e+13	0.000000e+00	6.395350e-01	4.034641e+14	6.843073e+14	1.888004e+14	9.688116e+03	4.268292e+03	2.092732e+03	0	8.560487e-04
6.900000e+08	2.203590e+13	0.000000e+00	6.395350e-01	4.001298e+14	6.788797e+14	1.878926e+14	9.674061e+03	4.264667e+03	2.090955e+03	0	8.521197e-04
7.000000e+08	2.173428e+13	0.000000e+00	6.395350e-01	3.968438e+14	6.735462e+14	1.869911e+14	9.660122e+03	4.261088e+03	2.089200e+03	0	8.482140e-04
7.100000e+08	2.143716e+13	0.000000e+00	6.395350e-01	3.936051e+14	6.683038e+14	1.860960e+14	9.646297e+03	4.257554e+03	2.087467e+03	0	8.443311e-04
7.200000e+08	2.114446e+13	0.000000e+00	6.395350e-01	3.904128e+14	6.631497e+14	1.852071e+14	9.632585e+03	4.254063e+03	2.085756e+03	0	8.404706e-04
7.300000e+08	2.085606e+13	0.000000e+00	6.395350e-01	3.872658e+14	6.580810e+14	1.843244e+14	9.618983e+03	4.250614e+03	2.084065e+03	0	8.366319e-04
7.400000e+08	2.057187e+13	0.000000e+00	6.395350e-01	3.841631e+14	6.530952e+14	1.834479e+14	9.605491e+03	4.247206e+03	2.082394e+03	0	8.328145e-04
7.500000e+08	2.029182e+13	0.000000e+00	6.395350e-01	3.811039e+14	6.481897e+14	1.825775e+14	9.592106e+03	4.243836e+03	2.080741e+03	0	8.290181e-04
7.600000e+08	2.001581e+13	0.000000e+00	6.395350e-01	3.780873e+14	6.433621e+14	1.817132e+14	9.578828e+03	4.240505e+03	2.079108e+03	0	8.252422e-04
7.700000e+08	1.974376e+13	0.000000e+00	6.395350e-01	3.751123e+14	6.386102e+14	1.808548e+14	9.565655e+03	4.237210e+03	2.077493e+03	0	8.214863e-04
7.800000e+08	1.947559e+13	0.000000e+00	6.395350e-01	3.721782e+14	6.339318e+14	1.800025e+14	9.552585e+03	4.233951e+03	2.075895e+03	0	8.177499e-04
7.900000e+08	1.921121e+13	0.000000e+00	6.395350e-01	3.692840e+14	6.293248e+14	1.791560e+14	9.539617e+03	4.230727e+03	2.074314e+03	0	8.140328e-04
8.000000e+08	1.895055e+13	0.000000e+00	6.395350e-01	3.664291e+14	6.247872e+14	1.783155e+14	9.526749e+03	4.227537e+03	2.072750e+03	0	8.103344e-04
8.100000e+08	1.869353e+13	0.000000e+00	6.395350e-01	3.636126e+14	6.203172e+14	1.774807e+14	9.513981e+03	4.224380e+03	2.071202e+03	0	8.066543e-04
8.200000e+08	1.844009e+13	0.000000e+00	6.395350e-01	3.608338e+14	6.159128e+14	1.766518e+14	9.501311e+03	4.221254e+03	2.069670e+03	0	8.029922e-04
8.300000e+08	1.819015e+13	0.000000e+00	6.395350e-01	3.580918e+14	6.115723e+14	1.758285e+14	9.488737e+03	4.218160e+03	2.068152e+03	0	7.993477e-04
8.400000e+08	1.794363e+13	0.000000e+00	6.395350e-01	3.553861e+14	6.072941e+14	1.750110e+14	9.476259e+03	4.215095e+03	2.066650e+03	0	7.957204e-04
8.500000e+08	1.770049e+13	0.000000e+00	6.395350e-01	3.527159e+14	6.030766e+14	1.741991e+14	9.463875e+03	4.212061e+03	2.065162e+03	0	7.921098e-04
8.600000e+08	1.746064e+13	0.000000e+00	6.395350e-01	3.500806e+14	5.989182e+14	1.733927e+14	9.451583e+03	4.209055e+03	2.063688e+03	0	7.885157e-04
8.700000e+08	1.722402e+13	0.000000e+00	6.395350e-01	3.474794e+14	5.948174e+14	1.725920e+14	9.439383e+03	4.206076e+03	2.062228e+03	0	7.849377e-04
8.800000e+08	1.699058e+13	0.000000e+00	6.395350e-01	3.449118e+14	5.907729e+14	1.717967e+14	9.427274e+03	4.203125e+03	2.060781e+03	0	7.813754e-04
8.900000e+08	1.676025e+13	0.000000e+00	6.395350e-01	3.423770e+14	5.867831e+14	1.710069e+14	9.415253e+03	4.200201e+03	2.059347e+03	0	7.778285e-04
9.000000e+08	1.653298e+13	0.000000e+00	6.395350e-01	3.398745e+14	5.828470e+14	1.702226e+14	9.403321e+03	4.197303e+03	2.057926e+03	0	7.742966e-04
9.100000e+08	1.630870e+13	0.000000e+00	6.395350e-01	3.374038e+14	5.789630e+14	1.694436e+14	9.391476e+03	4.194430e+03	2.056518e+03	0	7.707794e-04
9.200000e+08	1.608736e+13	0.000000e+00	6.395350e-01	3.349641e+14	5.751302e+14	1.686699e+14	9.379717e+03	4.191581e+03	2.055121e+03	0	7.672766e-04
9.300000e+08	1.586891e+13	0.000000e+00	6.395350e-01	3.325550e+14	5.713471e+14	1.679016e+14	9.368042e+03	4.188757e+03	2.053736e+03	0	7.637877e-04
9.400000e+08	1.565329e+13	0.000000e+00	6.395350e-01	3.301759e+14	5.676129e+14	1.671384e+14	9.356452e+03	4.185957e+03	2.052363e+03	0	7.603126e-04
9.500000e+08	1.544045e+13	0.000000e+00	6.395350e-01	3.278262e+14	5.639262e+14	1.663805e+14	9.344944e+03	4.183179e+03	2.051002e+03	0	7.568509e-04
9.600000e+08	1.523034e+13	0.000000e+00	6.395350e-01	3.255054e+14	5.602862e+14	1.656278e+14	9.333518e+03	4.180425e+03	2.049651e+03	0	7.534022e-04
9.700000e+08	1.502291e+13	0.000000e+00	6.395350e-01	3.232131e+14	5.566917e+14	1.648802e+14	9.322172e+03	4.177692e+03	2.048311e+03	0	7.499663e-04
9.800000e+08	1.481812e+13	0.000000e+00	6.395350e-01	3.209486e+14	5.531419e+14	1.641377e+14	9.310906e+03	4.174981e+03	2.046982e+03	0	7.465428e-04
9.900000e+08	1.461591e+13	0.000000e+00	6.395350e-01	3.187116e+14	5.496356e+14	1.634002e+14	9.299719e+03	4.172291e+03	2.045663e+03	0	7.431315e-04
1.000000e+09	1.441624e+13	0.000000e+00	6.395350e-01	3.165015e+14	5.461721e+14	1.626677e+14	9.288610e+03	4.169622e+03	2.044355e+03	0	7.397320e-04
1.010000e+09	1.421907e+13	0.000000e+00	6.395350e-01	3.143179e+14	5.427505e+14	1.619402e+14	9.277578e+03	4.166974e+03	2.043056e+03	0	7.363440e-04
1.020000e+09	1.402435e+13	0.000000e+00	6.395350e-01	3.121604e+14	5.393698e+14	1.612176e+14	9.266621e+03	4.164345e+03	2.041767e+03	0	7.329673e-04
1.030000e+09	1.383204e+13	0.000000e+00	6.395350e-01	3.100283e+14	5.360292e+14	1.605000e+14	9.255740e+03	4.161736e+03	2.040488e+03	0	7.296015e-04
1.040000e+09	1.364209e+13	0.000000e+00	6.395350e-01	3.079215e+14	5.327281e+14	1.597871e+14	9.244932e+03	4.159146e+03	2.039218e+03	0	7.262464e-04
1.050000e+09	1.345447e+13	0.000000e+00	6.395350e-01	3.058393e+14	5.294654e+14	1.590791e+14	9.234198e+03	4.156574e+03	2.037957e+03	0	7.229017e-04
1.060000e+09	1.326914e+13	0.000000e+00	6.395350e-01	3.037814e+14	5.262406e+14	1.583759e+14	9.223537e+03	4.154022e+03	2.036706e+03	0	7.195671e-04
1.070000e+09	1.308606e+13	0.000000e+00	6.395350e-01	3.017475e+14	5.230529e+14	1.576774e+14	9.212947e+03	4.151487e+03	2.035463e+03	0	7.162423e-04
1.080000e+09	1.290518e+13	0.000000e+00	6.395350e-01	2.997370e+14	5.199015e+14	1.569835e+14	9.202427e+03	4.148970e+03	2.034229e+03	0	7.129270e-04
1.090000e+09	1.272648e+13	0.000000e+00	6.395350e-01	2.977496e+14	5.167858e+14	1.562944e+14	9.191978e+03	4.146471e+03	2.033004e+03	0	7.096210e-04
1.100000e+09	1.254991e+13	0.000000e+00	6.395350e-01	2.957849e+14	5.137051e+14	1.556099e+14	9.181598e+03	4.143989e+03	2.031787e+03	0	7.063239e-04
1.110000e+09	1.237545e+13	0.000000e+00	6.395350e-01	2.938426e+14	5.106588e+14	1.549300e+14	9.171286e+03	4.141523e+03	2.030578e+03	0	7.030356e-04
1.120000e+09	1.220305e+13	0.000000e+00	6.395350e-01	2.919223e+14	5.076462e+14	1.542546e+14	9.161042e+03	4.139075e+03	2.029377e+03	0	6.997557e-04
1.130000e+09	1.203268e+13	0.000000e+00	6.395350e-01	2.900236e+14	5.046668e+14	1.535837e+14	9.150864e+03	4.136642e+03	2.028185e+03	0	6.964840e-04
1.140000e+09	1.186431e+13	0.000000e+00	6.395350e-01	2.881462e+14	5.017198e+14	1.529174e+14	9.140753e+03	4.134226e+03	2.027000e+03	0	6.932201e-04
1.150000e+09	1.169791e+13	0.000000e+00	6.395350e-01	2.862898e+14	4.988048e+14	1.522555e+14	9.130706e+03	4.131825e+03	2.025823e+03	0	6.899639e-04
1.160000e+09	1.153343e+13	0.000000e+00	6.395350e-01	2.844539e+14	4.959212e+14	1.515980e+14	9.120725e+03	4.129440e+03	2.024653e+03	0	6.867150e-04
1.170000e+09	1.137087e+13	0.000000e+00	6.395350e-01	2.826384e+14	4.930684e+14	1.509448e+14	9.110807e+03	4.127070e+03	2.023491e+03	0	6.834733e-04
1.180000e+09	1.121017e+13	0.000000e+00	6.395350e-01	2.808428e+14	4.902460e+14	1.502961e+14	9.100953e+03	4.124715e+03	2.022337e+03	0	6.802383e-04
1.190000e+09	1.105132e+13	0.000000e+00	6.395350e-01	2.790668e+14	4.874533e+14	1.496516e+14	9.091161e+03	4.122375e+03	2.021190e+03	0	6.770099e-04
1.200000e+09	1.089428e+13	0.000000e+00	6.395350e-01	2.773102e+14	4.846899e+14	1.490114e+14	9.081430e+03	4.120050e+03	2.020049e+03	0	6.737878e-04
1.210000e+09	1.073902e+13	0.000000e+00	6.395350e-01	2.755727e+14	4.819553e+14	1.483755e+14	9.071761e+03	4.117739e+03	2.018916e+03	0	6.705717e-04
1.220000e+09	1.058552e+13	0.000000e+00	6.395350e-01	2.738539e+14	4.792489e+14	1.477437e+14	9.062152e+03	4.115442e+03	2.017790e+03	0	6.673614e-04
1.230000e+09	1.043375e+13	0.000000e+00	6.395350e-01	2.721535e+14	4.765705e+14	1.471162e+14	9.052603e+03	4.113159e+03	2.016671e+03	0	6.641566e-04
1.240000e+09	1.028368e+13	0.000000e+00	6.395350e-01	2.704714e+14	4.739194e+14	1.464928e+14	9.043114e+03	4.110890e+03	2.015558e+03	0	6.609570e-04
1.250000e+09	1.013529e+13	0.000000e+00	6.395350e-01	2.688071e+14	4.712952e+14	1.458735e+14	9.033683e+03	4.108634e+03	2.014452e+03	0	6.577624e-04
1.260000e+09	9.988542e+12	0.000000e+00	6.395350e-01	2.671605e+14	4.686976e+14	1.452583e+14	9.024309e+03	4.106391e+03	2.013353e+03	0	6.545724e-04
1.270000e+09	9.843422e+12	0.000000e+00	6.395350e-01	2.655312e+14	4.661261e+14	1.446472e+14	9.014993e+03	4.104162e+03	2.012260e+03	0	6.513869e-04
1.280000e+09	9.699901e+12	0.000000e+00	6.395350e-01	2.639191e+14	4.635802e+14	1.440400e+14	9.005734e+03	4.101946e+03	2.011173e+03	0	6.482056e-04
1.290000e+09	9.557956e+12	0.000000e+00	6.395350e-01	2.623238e+14	4.610596e+14	1.434369e+14	8.996531e+03	4.099742e+03	2.010093e+03	0	6.450282e-04
1.300000e+09	9.417561e+12	0.000000e+00	6.395350e-01	2.607450e+14	4.585639e+14	1.428377e+14	8.987383e+03	4.097551e+03	2.009018e+03	0	6.418543e-04
1.310000e+09	9.278695e+12	0.000000e+00	6.395350e-01	2.591827e+14	4.560926e+14	1.422425e+14	8.978290e+03	4.095373e+03	2.007950e+03	0	6.386839e-04
1.320000e+09	9.141333e+12	0.000000e+00	6.395350e-01	2.576365e+14	4.536455e+14	1.416511e+14	8.969252e+03	4.093207e+03	2.006888e+03	0	6.355165e-04
1.330000e+09	9.005454e+12	0.000000e+00	6.395350e-01	2.561061e+14	4.512222e+14	1.410636e+14	8.960267e+03	4.091053e+03	2.005832e+03	0	6.323520e-04
1.340000e+09	8.871035e+12	0.000000e+00	6.395350e-01	2.545914e+14	4.488222e+14	1.404800e+14	8.951336e+03	4.088911e+03	2.004782e+03	0	6.291899e-04
1.350000e+09	8.738055e+12	0.000000e+00	6.395350e-01	2.530921e+14	4.464453e+14	1.399002e+14	8.942458e+03	4.086781e+03	2.003738e+03	0	6.260302e-04
1.360000e+09	8.606492e+12	0.000000e+00	6.395350e-01	2.516080e+14	4.440911e+14	1.393241e+14	8.933631e+03	4.084662e+03	2.002699e+03	0	6.228724e-04
