#t		Qconv[W]	Ri[Rp]		R*[Rp]		Qc[W]		Qm[W]		Qr[W]		Tcmb[K]		Tl[K]		Tup[K]		RiFlag		Bs[T]
0.000000e+00	3.122838e+13	0.000000e+00	6.374268e-01	6.350339e+14	2.394707e+15	3.389056e+14	1.138649e+04	5.229296e+03	2.607961e+03	0	9.516509e-04
1.000000e+07	3.034568e+13	0.000000e+00	6.374268e-01	6.266183e+14	2.274209e+15	3.370278e+14	1.137035e+04	5.186305e+03	2.586521e+03	0	9.425986e-04
2.000000e+07	2.950108e+13	0.000000e+00	6.374268e-01	6.185508e+14	2.166449e+15	3.351641e+14	1.135443e+04	5.146591e+03	2.566715e+03	0	9.337711e-04
3.000000e+07	2.869192e+13	0.000000e+00	6.374268e-01	6.108075e+14	2.069598e+15	3.333143e+14	1.133871e+04	5.109792e+03	2.548362e+03	0	9.251547e-04
4.000000e+07	2.791577e+13	0.000000e+00	6.374268e-01	6.033661e+14	1.982148e+15	3.314783e+14	1.132318e+04	5.075599e+03	2.531309e+03	0	9.167361e-04
5.000000e+07	2.717036e+13	0.000000e+00	6.374268e-01	5.962061e+14	1.902850e+15	3.296560e+14	1.130785e+04	5.043745e+03	2.515423e+03	0	9.085028e-04
6.000000e+07	2.645361e+13	0.000000e+00	6.374268e-01	5.893087e+14	1.830660e+15	3.278472e+14	1.129269e+04	5.013998e+03	2.500588e+03	0	9.004427e-04
7.000000e+07	2.576360e+13	0.000000e+00	6.374268e-01	5.826565e+14	1.764700e+15	3.260520e+14	1.127771e+04	4.986158e+03	2.486703e+03	0	8.925448e-04
8.000000e+07	2.509860e+13	0.000000e+00	6.374268e-01	5.762337e+14	1.704226e+15	3.242701e+14	1.126290e+04	4.960046e+03	2.473681e+03	0	8.847984e-04
9.000000e+07	2.445699e+13	0.000000e+00	6.374268e-01	5.700256e+14	1.648604e+15	3.225014e+14	1.124825e+04	4.935508e+03	2.461443e+03	0	8.771936e-04
1.000000e+08	2.383730e+13	0.000000e+00	6.374268e-01	5.640190e+14	1.597293e+15	3.207459e+14	1.123376e+04	4.912407e+03	2.449922e+03	0	8.697214e-04
1.100000e+08	2.323817e+13	0.000000e+00	6.374268e-01	5.582014e+14	1.549825e+15	3.190034e+14	1.121943e+04	4.890620e+03	2.439056e+03	0	8.623729e-04
1.200000e+08	2.265837e+13	0.000000e+00	6.374268e-01	5.525616e+14	1.505796e+15	3.172738e+14	1.120524e+04	4.870039e+03	2.428792e+03	0	8.551403e-04
1.300000e+08	2.209675e+13	0.000000e+00	6.374268e-01	5.470892e+14	1.464855e+15	3.155571e+14	1.119119e+04	4.850566e+03	2.419081e+03	0	8.480157e-04
1.400000e+08	2.155225e+13	0.000000e+00	6.374268e-01	5.417748e+14	1.426697e+15	3.138530e+14	1.117728e+04	4.832116e+03	2.409879e+03	0	8.409923e-04
1.500000e+08	2.102392e+13	0.000000e+00	6.374268e-01	5.366093e+14	1.391053e+15	3.121615e+14	1.116350e+04	4.814610e+03	2.401148e+03	0	8.340633e-04
1.600000e+08	2.051085e+13	0.000000e+00	6.374268e-01	5.315848e+14	1.357687e+15	3.104825e+14	1.114986e+04	4.797976e+03	2.392853e+03	0	8.272225e-04
1.700000e+08	2.001221e+13	0.000000e+00	6.374268e-01	5.266936e+14	1.326392e+15	3.088159e+14	1.113635e+04	4.782152e+03	2.384961e+03	0	8.204639e-04
1.800000e+08	1.952725e+13	0.000000e+00	6.374268e-01	5.219289e+14	1.296982e+15	3.071616e+14	1.112295e+04	4.767080e+03	2.377444e+03	0	8.137821e-04
1.900000e+08	1.905524e+13	0.000000e+00	6.374268e-01	5.172841e+14	1.269294e+15	3.055195e+14	1.110968e+04	4.752706e+03	2.370276e+03	0	8.071718e-04
2.000000e+08	1.859555e+13	0.000000e+00	6.374268e-01	5.127533e+14	1.243181e+15	3.038895e+14	1.109653e+04	4.738984e+03	2.363432e+03	0	8.006280e-04
2.100000e+08	1.814754e+13	0.000000e+00	6.374268e-01	5.083309e+14	1.218515e+15	3.022714e+14	1.108349e+04	4.725869e+03	2.356892e+03	0	7.941461e-04
2.200000e+08	1.771066e+13	0.000000e+00	6.374268e-01	5.040117e+14	1.195177e+15	3.006653e+14	1.107057e+04	4.713321e+03	2.350634e+03	0	7.877216e-04
2.300000e+08	1.728438e+13	0.000000e+00	6.374268e-01	4.997909e+14	1.173062e+15	2.990709e+14	1.105775e+04	4.701305e+03	2.344641e+03	0	7.813502e-04
2.400000e+08	1.686820e+13	0.000000e+00	6.374268e-01	4.956640e+14	1.152077e+15	2.974882e+14	1.104504e+04	4.689785e+03	2.338896e+03	0	7.750280e-04
2.500000e+08	1.646166e+13	0.000000e+00	6.374268e-01	4.916268e+14	1.132136e+15	2.959171e+14	1.103244e+04	4.678731e+03	2.333383e+03	0	7.687511e-04
2.600000e+08	1.606434e+13	0.000000e+00	6.374268e-01	4.876754e+14	1.113161e+15	2.943575e+14	1.101994e+04	4.668115e+03	2.328088e+03	0	7.625157e-04
2.700000e+08	1.567582e+13	0.000000e+00	6.374268e-01	4.838060e+14	1.095082e+15	2.928093e+14	1.100753e+04	4.657910e+03	2.322999e+03	0	7.563183e-04
2.800000e+08	1.529574e+13	0.000000e+00	6.374268e-01	4.800154e+14	1.077836e+15	2.912724e+14	1.099523e+04	4.648092e+03	2.318103e+03	0	7.501555e-04
2.900000e+08	1.492374e+13	0.000000e+00	6.374268e-01	4.763001e+14	1.061365e+15	2.897468e+14	1.098302e+04	4.638639e+03	2.313388e+03	0	7.440241e-04
3.000000e+08	1.455948e+13	0.000000e+00	6.374268e-01	4.726572e+14	1.045615e+15	2.882322e+14	1.097091e+04	4.629528e+03	2.308845e+03	0	7.379208e-04
3.100000e+08	1.420266e+13	0.000000e+00	6.374268e-01	4.690838e+14	1.030539e+15	2.867287e+14	1.095889e+04	4.620742e+03	2.304463e+03	0	7.318426e-04
3.200000e+08	1.385298e+13	0.000000e+00	6.374268e-01	4.655773e+14	1.016093e+15	2.852361e+14	1.094696e+04	4.612262e+03	2.300233e+03	0	7.257864e-04
3.300000e+08	1.351016e+13	0.000000e+00	6.374268e-01	4.621351e+14	1.002235e+15	2.837544e+14	1.093512e+04	4.604071e+03	2.296149e+03	0	7.197494e-04
3.400000e+08	1.317395e+13	0.000000e+00	6.374268e-01	4.587548e+14	9.889279e+14	2.822835e+14	1.092336e+04	4.596154e+03	2.292200e+03	0	7.137286e-04
3.500000e+08	1.284409e+13	0.000000e+00	6.374268e-01	4.554342e+14	9.761383e+14	2.808232e+14	1.091170e+04	4.588496e+03	2.288381e+03	0	7.077213e-04
3.600000e+08	1.252036e+13	0.000000e+00	6.374268e-01	4.521711e+14	9.638342e+14	2.793735e+14	1.090011e+04	4.581083e+03	2.284684e+03	0	7.017247e-04
3.700000e+08	1.220254e+13	0.000000e+00	6.374268e-01	4.489636e+14	9.519865e+14	2.779343e+14	1.088861e+04	4.573904e+03	2.281103e+03	0	6.957361e-04
3.800000e+08	1.189042e+13	0.000000e+00	6.374268e-01	4.458096e+14	9.405681e+14	2.765055e+14	1.087719e+04	4.566945e+03	2.277633e+03	0	6.897529e-04
3.900000e+08	1.158380e+13	0.000000e+00	6.374268e-01	4.427075e+14	9.295543e+14	2.750870e+14	1.086585e+04	4.560195e+03	2.274267e+03	0	6.837723e-04
4.000000e+08	1.128250e+13	0.000000e+00	6.374268e-01	4.396555e+14	9.189220e+14	2.736788e+14	1.085459e+04	4.553645e+03	2.271000e+03	0	6.777916e-04
4.100000e+08	1.098633e+13	0.000000e+00	6.374268e-01	4.366520e+14	9.086496e+14	2.722807e+14	1.084341e+04	4.547284e+03	2.267828e+03	0	6.718083e-04
4.200000e+08	1.069514e+13	0.000000e+00	6.374268e-01	4.336955e+14	8.987175e+14	2.708927e+14	1.083230e+04	4.541104e+03	2.264745e+03	0	6.658197e-04
4.300000e+08	1.040876e+13	0.000000e+00	6.374268e-01	4.307844e+14	8.891070e+14	2.695147e+14	1.082127e+04	4.535095e+03	2.261749e+03	0	6.598231e-04
4.400000e+08	1.012705e+13	0.000000e+00	6.374268e-01	4.279174e+14	8.798009e+14	2.681467e+14	1.081031e+04	4.529250e+03	2.258833e+03	0	6.538158e-04
4.500000e+08	9.849846e+12	0.000000e+00	6.374268e-01	4.250932e+14	8.707834e+14	2.667884e+14	1.079943e+04	4.523560e+03	2.255996e+03	0	6.477950e-04
4.600000e+08	9.577026e+12	0.000000e+00	6.374268e-01	4.223105e+14	8.620394e+14	2.654399e+14	1.078861e+04	4.518019e+03	2.253233e+03	0	6.417581e-04
4.700000e+08	9.308454e+12	0.000000e+00	6.374268e-01	4.195680e+14	8.535549e+14	2.641011e+14	1.077787e+04	4.512620e+03	2.250540e+03	0	6.357021e-04
4.800000e+08	9.044008e+12	0.000000e+00	6.374268e-01	4.168647e+14	8.453170e+14	2.627719e+14	1.076720e+04	4.507356e+03	2.247915e+03	0	6.296242e-04
4.900000e+08	8.783566e+12	0.000000e+00	6.374268e-01	4.141995e+14	8.373134e+14	2.614522e+14	1.075659e+04	4.502222e+03	2.245354e+03	0	6.235215e-04
5.000000e+08	8.527016e+12	0.000000e+00	6.374268e-01	4.115712e+14	8.295327e+14	2.601419e+14	1.074606e+04	4.497211e+03	2.242855e+03	0	6.173908e-04
5.100000e+08	8.274250e+12	0.000000e+00	6.374268e-01	4.089789e+14	8.219643e+14	2.588410e+14	1.073559e+04	4.492318e+03	2.240415e+03	0	6.112291e-04
5.200000e+08	8.025162e+12	0.000000e+00	6.374268e-01	4.064217e+14	8.145980e+14	2.575493e+14	1.072518e+04	4.487538e+03	2.238031e+03	0	6.050330e-04
5.300000e+08	7.779655e+12	0.000000e+00	6.374268e-01	4.038986e+14	8.074245e+14	2.562669e+14	1.071484e+04	4.482867e+03	2.235701e+03	0	5.987992e-04
5.400000e+08	7.537632e+12	0.000000e+00	6.374268e-01	4.014087e+14	8.004349e+14	2.549936e+14	1.070457e+04	4.478299e+03	2.233423e+03	0	5.925242e-04
5.500000e+08	7.299003e+12	0.000000e+00	6.374268e-01	3.989512e+14	7.936209e+14	2.537294e+14	1.069436e+04	4.473831e+03	2.231195e+03	0	5.862043e-04
5.600000e+08	7.063681e+12	0.000000e+00	6.374268e-01	3.965253e+14	7.869747e+14	2.524742e+14	1.068421e+04	4.469457e+03	2.229014e+03	0	5.798355e-04
5.700000e+08	6.831581e+12	0.000000e+00	6.374268e-01	3.941302e+14	7.804889e+14	2.512278e+14	1.067412e+04	4.465175e+03	2.226878e+03	0	5.734139e-04
5.800000e+08	6.602623e+12	0.000000e+00	6.374268e-01	3.917651e+14	7.741564e+14	2.499904e+14	1.066409e+04	4.460981e+03	2.224786e+03	0	5.669351e-04
5.900000e+08	6.376731e+12	0.000000e+00	6.374268e-01	3.894294e+14	7.679709e+14	2.487617e+14	1.065412e+04	4.456871e+03	2.222737e+03	0	5.603945e-04
6.000000e+08	6.153829e+12	0.000000e+00	6.374268e-01	3.871224e+14	7.619261e+14	2.475416e+14	1.064422e+04	4.452841e+03	2.220727e+03	0	5.537872e-04
6.100000e+08	5.933846e+12	0.000000e+00	6.374268e-01	3.848433e+14	7.560161e+14	2.463303e+14	1.063437e+04	4.448889e+03	2.218756e+03	0	5.471082e-04
6.200000e+08	5.716715e+12	0.000000e+00	6.374268e-01	3.825917e+14	7.502354e+14	2.451274e+14	1.062458e+04	4.445012e+03	2.216822e+03	0	5.403519e-04
6.300000e+08	5.502368e+12	0.000000e+00	6.374268e-01	3.803667e+14	7.445789e+14	2.439331e+14	1.061484e+04	4.441206e+03	2.214924e+03	0	5.335122e-04
6.400000e+08	5.290743e+12	0.000000e+00	6.374268e-01	3.781680e+14	7.390415e+14	2.427472e+14	1.060516e+04	4.437470e+03	2.213061e+03	0	5.265828e-04
6.500000e+08	5.081778e+12	0.000000e+00	6.374268e-01	3.759948e+14	7.336186e+14	2.415696e+14	1.059554e+04	4.433799e+03	2.211230e+03	0	5.195568e-04
6.600000e+08	4.875413e+12	0.000000e+00	6.374268e-01	3.738466e+14	7.283058e+14	2.404004e+14	1.058597e+04	4.430193e+03	2.209432e+03	0	5.124265e-04
6.700000e+08	4.671593e+12	0.000000e+00	6.374268e-01	3.717230e+14	7.230989e+14	2.392393e+14	1.057646e+04	4.426648e+03	2.207664e+03	0	5.051839e-04
6.800000e+08	4.470262e+12	0.000000e+00	6.374268e-01	3.696233e+14	7.179938e+14	2.380864e+14	1.056700e+04	4.423163e+03	2.205925e+03	0	4.978198e-04
6.900000e+08	4.271368e+12	0.000000e+00	6.374268e-01	3.675471e+14	7.129868e+14	2.369416e+14	1.055760e+04	4.419734e+03	2.204216e+03	0	4.903243e-04
7.000000e+08	4.074858e+12	0.000000e+00	6.374268e-01	3.654940e+14	7.080744e+14	2.358049e+14	1.054825e+04	4.416361e+03	2.202533e+03	0	4.826867e-04
7.100000e+08	3.880684e+12	0.000000e+00	6.374268e-01	3.634634e+14	7.032530e+14	2.346760e+14	1.053895e+04	4.413040e+03	2.200877e+03	0	4.748946e-04
7.200000e+08	3.688797e+12	0.000000e+00	6.374268e-01	3.614550e+14	6.985195e+14	2.335551e+14	1.052970e+04	4.409772e+03	2.199247e+03	0	4.669346e-04
7.300000e+08	3.499152e+12	0.000000e+00	6.374268e-01	3.594682e+14	6.938707e+14	2.324420e+14	1.052050e+04	4.406552e+03	2.197641e+03	0	4.587915e-04
7.400000e+08	3.311703e+12	0.000000e+00	6.374268e-01	3.575027e+14	6.893038e+14	2.313367e+14	1.051135e+04	4.403380e+03	2.196060e+03	0	4.504483e-04
7.500000e+08	3.126408e+12	0.000000e+00	6.374268e-01	3.555581e+14	6.848159e+14	2.302391e+14	1.050226e+04	4.400255e+03	2.194501e+03	0	4.418855e-04
7.600000e+08	2.943225e+12	0.000000e+00	6.374268e-01	3.536339e+14	6.804044e+14	2.291491e+14	1.049321e+04	4.397174e+03	2.192965e+03	0	4.330808e-04
7.700000e+08	2.762112e+12	0.000000e+00	6.374268e-01	3.517298e+14	6.760667e+14	2.280667e+14	1.048421e+04	4.394136e+03	2.191450e+03	0	4.240088e-04
7.800000e+08	2.583031e+12	0.000000e+00	6.374268e-01	3.498454e+14	6.718004e+14	2.269918e+14	1.047526e+04	4.391140e+03	2.189955e+03	0	4.146398e-04
7.900000e+08	2.405943e+12	0.000000e+00	6.374268e-01	3.479804e+14	6.676032e+14	2.259244e+14	1.046636e+04	4.388185e+03	2.188481e+03	0	4.049390e-04
8.000000e+08	2.230811e+12	0.000000e+00	6.374268e-01	3.461344e+14	6.634729e+14	2.248644e+14	1.045750e+04	4.385268e+03	2.187027e+03	0	3.948651e-04
8.100000e+08	2.057600e+12	0.000000e+00	6.374268e-01	3.443071e+14	6.594075e+14	2.238118e+14	1.044869e+04	4.382390e+03	2.185591e+03	0	3.843688e-04
8.200000e+08	1.886275e+12	0.000000e+00	6.374268e-01	3.424981e+14	6.554047e+14	2.227664e+14	1.043993e+04	4.379547e+03	2.184174e+03	0	3.733901e-04
8.300000e+08	1.716801e+12	0.000000e+00	6.374268e-01	3.407071e+14	6.514629e+14	2.217283e+14	1.043122e+04	4.376741e+03	2.182774e+03	0	3.618549e-04
8.400000e+08	1.549146e+12	0.000000e+00	6.374268e-01	3.389339e+14	6.475801e+14	2.206973e+14	1.042255e+04	4.373968e+03	2.181391e+03	0	3.496702e-04
8.500000e+08	1.383278e+12	0.000000e+00	6.374268e-01	3.371781e+14	6.437545e+14	2.196735e+14	1.041392e+04	4.371229e+03	2.180025e+03	0	3.367164e-04
8.600000e+08	1.219166e+12	0.000000e+00	6.374268e-01	3.354395e+14	6.399845e+14	2.186567e+14	1.040534e+04	4.368523e+03	2.178675e+03	0	3.228361e-04
8.700000e+08	1.056779e+12	0.000000e+00	6.374268e-01	3.337176e+14	6.362685e+14	2.176469e+14	1.039680e+04	4.365848e+03	2.177341e+03	0	3.078146e-04
8.800000e+08	8.960893e+11	0.000000e+00	6.374268e-01	3.320124e+14	6.326049e+14	2.166440e+14	1.038831e+04	4.363203e+03	2.176022e+03	0	2.913477e-04
8.900000e+08	7.370670e+11	0.000000e+00	6.374268e-01	3.303234e+14	6.289923e+14	2.156480e+14	1.037986e+04	4.360587e+03	2.174718e+03	0	2.729796e-04
9.000000e+08	5.796847e+11	0.000000e+00	6.374268e-01	3.286505e+14	6.254292e+14	2.146589e+14	1.037146e+04	4.358001e+03	2.173428e+03	0	2.519756e-04
9.100000e+08	4.239153e+11	0.000000e+00	6.374268e-01	3.269934e+14	6.219142e+14	2.136766e+14	1.036309e+04	4.355442e+03	2.172152e+03	0	2.270148e-04
9.200000e+08	2.697325e+11	0.000000e+00	6.374268e-01	3.253518e+14	6.184461e+14	2.127009e+14	1.035477e+04	4.352910e+03	2.170889e+03	0	1.952565e-04
9.300000e+08	1.171106e+11	0.000000e+00	6.374268e-01	3.237255e+14	6.150237e+14	2.117320e+14	1.034649e+04	4.350405e+03	2.169640e+03	0	1.478518e-04
9.400000e+08	-3.397547e+10	0.000000e+00	6.374268e-01	3.221142e+14	6.116456e+14	2.107697e+14	1.033825e+04	4.347925e+03	2.168403e+03	0	nan
