#t		Qconv[W]	Ri[Rp]		R*[Rp]		Qc[W]		Qm[W]		Qr[W]		Tcmb[K]		Tl[K]		Tup[K]		RiFlag		Bs[T]
0.000000e+00	3.022917e+13	0.000000e+00	6.374268e-01	6.774530e+14	2.417506e+15	3.560473e+14	1.176080e+04	5.349932e+03	2.632372e+03	0	9.399725e-04
1.000000e+07	2.932196e+13	0.000000e+00	6.374268e-01	6.689525e+14	2.305001e+15	3.540745e+14	1.174481e+04	5.309773e+03	2.612612e+03	0	9.304736e-04
2.000000e+07	2.845249e+13	0.000000e+00	6.374268e-01	6.607892e+14	2.203732e+15	3.521165e+14	1.172902e+04	5.272526e+03	2.594285e+03	0	9.211842e-04
3.000000e+07	2.761817e+13	0.000000e+00	6.374268e-01	6.529404e+14	2.112167e+15	3.501731e+14	1.171341e+04	5.237885e+03	2.577241e+03	0	9.120907e-04
4.000000e+07	2.681660e+13	0.000000e+00	6.374268e-01	6.453846e+14	2.029032e+15	3.482443e+14	1.169800e+04	5.205588e+03	2.561349e+03	0	9.031801e-04
5.000000e+07	2.604560e+13	0.000000e+00	6.374268e-01	6.381025e+14	1.953259e+15	3.463298e+14	1.168276e+04	5.175405e+03	2.546498e+03	0	8.944400e-04
6.000000e+07	2.530313e+13	0.000000e+00	6.374268e-01	6.310762e+14	1.883951e+15	3.444296e+14	1.166769e+04	5.147136e+03	2.532589e+03	0	8.858587e-04
7.000000e+07	2.458733e+13	0.000000e+00	6.374268e-01	6.242891e+14	1.820342e+15	3.425435e+14	1.165279e+04	5.120606e+03	2.519535e+03	0	8.774255e-04
8.000000e+07	2.389652e+13	0.000000e+00	6.374268e-01	6.177262e+14	1.761783e+15	3.406715e+14	1.163805e+04	5.095659e+03	2.507260e+03	0	8.691298e-04
9.000000e+07	2.322912e+13	0.000000e+00	6.374268e-01	6.113736e+14	1.707715e+15	3.388134e+14	1.162346e+04	5.072159e+03	2.495697e+03	0	8.609620e-04
1.000000e+08	2.258370e+13	0.000000e+00	6.374268e-01	6.052187e+14	1.657655e+15	3.369691e+14	1.160903e+04	5.049984e+03	2.484786e+03	0	8.529131e-04
1.100000e+08	2.195893e+13	0.000000e+00	6.374268e-01	5.992496e+14	1.611187e+15	3.351384e+14	1.159473e+04	5.029026e+03	2.474474e+03	0	8.449743e-04
1.200000e+08	2.135361e+13	0.000000e+00	6.374268e-01	5.934555e+14	1.567949e+15	3.333214e+14	1.158058e+04	5.009189e+03	2.464713e+03	0	8.371377e-04
1.300000e+08	2.076662e+13	0.000000e+00	6.374268e-01	5.878267e+14	1.527622e+15	3.315178e+14	1.156657e+04	4.990383e+03	2.455460e+03	0	8.293955e-04
1.400000e+08	2.019692e+13	0.000000e+00	6.374268e-01	5.823538e+14	1.489928e+15	3.297275e+14	1.155268e+04	4.972533e+03	2.446677e+03	0	8.217407e-04
1.500000e+08	1.964356e+13	0.000000e+00	6.374268e-01	5.770285e+14	1.454623e+15	3.279505e+14	1.153893e+04	4.955566e+03	2.438329e+03	0	8.141664e-04
1.600000e+08	1.910566e+13	0.000000e+00	6.374268e-01	5.718429e+14	1.421490e+15	3.261866e+14	1.152530e+04	4.939418e+03	2.430383e+03	0	8.066660e-04
1.700000e+08	1.858241e+13	0.000000e+00	6.374268e-01	5.667897e+14	1.390337e+15	3.244357e+14	1.151180e+04	4.924033e+03	2.422813e+03	0	7.992336e-04
1.800000e+08	1.807304e+13	0.000000e+00	6.374268e-01	5.618622e+14	1.360994e+15	3.226977e+14	1.149841e+04	4.909356e+03	2.415591e+03	0	7.918632e-04
1.900000e+08	1.757687e+13	0.000000e+00	6.374268e-01	5.570542e+14	1.333308e+15	3.209725e+14	1.148514e+04	4.895339e+03	2.408695e+03	0	7.845493e-04
2.000000e+08	1.709322e+13	0.000000e+00	6.374268e-01	5.523599e+14	1.307144e+15	3.192601e+14	1.147198e+04	4.881939e+03	2.402101e+03	0	7.772864e-04
2.100000e+08	1.662151e+13	0.000000e+00	6.374268e-01	5.477739e+14	1.282379e+15	3.175602e+14	1.145893e+04	4.869115e+03	2.395792e+03	0	7.700695e-04
2.200000e+08	1.616116e+13	0.000000e+00	6.374268e-01	5.432911e+14	1.258903e+15	3.158728e+14	1.144599e+04	4.856831e+03	2.389747e+03	0	7.628936e-04
2.300000e+08	1.571165e+13	0.000000e+00	6.374268e-01	5.389069e+14	1.236617e+15	3.141977e+14	1.143316e+04	4.845051e+03	2.383951e+03	0	7.557538e-04
2.400000e+08	1.527248e+13	0.000000e+00	6.374268e-01	5.346168e+14	1.215433e+15	3.125350e+14	1.142043e+04	4.833746e+03	2.378388e+03	0	7.486457e-04
2.500000e+08	1.484320e+13	0.000000e+00	6.374268e-01	5.304167e+14	1.195268e+15	3.108844e+14	1.140780e+04	4.822885e+03	2.373045e+03	0	7.415645e-04
2.600000e+08	1.442337e+13	0.000000e+00	6.374268e-01	5.263029e+14	1.176050e+15	3.092460e+14	1.139527e+04	4.812444e+03	2.367907e+03	0	7.345060e-04
2.700000e+08	1.401259e+13	0.000000e+00	6.374268e-01	5.222717e+14	1.157712e+15	3.076195e+14	1.138284e+04	4.802396e+03	2.362963e+03	0	7.274658e-04
2.800000e+08	1.361049e+13	0.000000e+00	6.374268e-01	5.183197e+14	1.140193e+15	3.060048e+14	1.137050e+04	4.792719e+03	2.358202e+03	0	7.204397e-04
2.900000e+08	1.321670e+13	0.000000e+00	6.374268e-01	5.144437e+14	1.123437e+15	3.044020e+14	1.135826e+04	4.783392e+03	2.353612e+03	0	7.134235e-04
3.000000e+08	1.283089e+13	0.000000e+00	6.374268e-01	5.106408e+14	1.107394e+15	3.028109e+14	1.134610e+04	4.774395e+03	2.349186e+03	0	7.064130e-04
3.100000e+08	1.245275e+13	0.000000e+00	6.374268e-01	5.069082e+14	1.092016e+15	3.012313e+14	1.133404e+04	4.765711e+03	2.344912e+03	0	6.994041e-04
3.200000e+08	1.208198e+13	0.000000e+00	6.374268e-01	5.032431e+14	1.077262e+15	2.996632e+14	1.132207e+04	4.757321e+03	2.340784e+03	0	6.923928e-04
3.300000e+08	1.171831e+13	0.000000e+00	6.374268e-01	4.996432e+14	1.063092e+15	2.981066e+14	1.131018e+04	4.749210e+03	2.336794e+03	0	6.853747e-04
3.400000e+08	1.136147e+13	0.000000e+00	6.374268e-01	4.961060e+14	1.049469e+15	2.965612e+14	1.129837e+04	4.741364e+03	2.332933e+03	0	6.783459e-04
3.500000e+08	1.101120e+13	0.000000e+00	6.374268e-01	4.926293e+14	1.036361e+15	2.950270e+14	1.128665e+04	4.733769e+03	2.329196e+03	0	6.713021e-04
3.600000e+08	1.066728e+13	0.000000e+00	6.374268e-01	4.892110e+14	1.023737e+15	2.935040e+14	1.127501e+04	4.726411e+03	2.325576e+03	0	6.642390e-04
3.700000e+08	1.032949e+13	0.000000e+00	6.374268e-01	4.858492e+14	1.011569e+15	2.919920e+14	1.126345e+04	4.719279e+03	2.322066e+03	0	6.571523e-04
3.800000e+08	9.997604e+12	0.000000e+00	6.374268e-01	4.825418e+14	9.998291e+14	2.904910e+14	1.125198e+04	4.712360e+03	2.318662e+03	0	6.500375e-04
3.900000e+08	9.671433e+12	0.000000e+00	6.374268e-01	4.792872e+14	9.884943e+14	2.890007e+14	1.124057e+04	4.705646e+03	2.315358e+03	0	6.428900e-04
4.000000e+08	9.350785e+12	0.000000e+00	6.374268e-01	4.760837e+14	9.775416e+14	2.875213e+14	1.122925e+04	4.699125e+03	2.312150e+03	0	6.357052e-04
4.100000e+08	9.035479e+12	0.000000e+00	6.374268e-01	4.729295e+14	9.669501e+14	2.860525e+14	1.121800e+04	4.692788e+03	2.309032e+03	0	6.284781e-04
4.200000e+08	8.725346e+12	0.000000e+00	6.374268e-01	4.698232e+14	9.567002e+14	2.845943e+14	1.120683e+04	4.686627e+03	2.306000e+03	0	6.212036e-04
4.300000e+08	8.420223e+12	0.000000e+00	6.374268e-01	4.667633e+14	9.467737e+14	2.831467e+14	1.119573e+04	4.680633e+03	2.303051e+03	0	6.138764e-04
4.400000e+08	8.119954e+12	0.000000e+00	6.374268e-01	4.637484e+14	9.371537e+14	2.817094e+14	1.118470e+04	4.674798e+03	2.300180e+03	0	6.064909e-04
4.500000e+08	7.824393e+12	0.000000e+00	6.374268e-01	4.607772e+14	9.278244e+14	2.802824e+14	1.117374e+04	4.669115e+03	2.297384e+03	0	5.990411e-04
4.600000e+08	7.533399e+12	0.000000e+00	6.374268e-01	4.578485e+14	9.187709e+14	2.788657e+14	1.116285e+04	4.663578e+03	2.294659e+03	0	5.915209e-04
4.700000e+08	7.246839e+12	0.000000e+00	6.374268e-01	4.549609e+14	9.099795e+14	2.774592e+14	1.115203e+04	4.658178e+03	2.292003e+03	0	5.839235e-04
4.800000e+08	6.964585e+12	0.000000e+00	6.374268e-01	4.521135e+14	9.014374e+14	2.760627e+14	1.114128e+04	4.652912e+03	2.289411e+03	0	5.762419e-04
4.900000e+08	6.686514e+12	0.000000e+00	6.374268e-01	4.493050e+14	8.931322e+14	2.746763e+14	1.113060e+04	4.647771e+03	2.286882e+03	0	5.684684e-04
5.000000e+08	6.412511e+12	0.000000e+00	6.374268e-01	4.465344e+14	8.850528e+14	2.732997e+14	1.111998e+04	4.642752e+03	2.284412e+03	0	5.605949e-04
5.100000e+08	6.142463e+12	0.000000e+00	6.374268e-01	4.438007e+14	8.771885e+14	2.719330e+14	1.110943e+04	4.637849e+03	2.282000e+03	0	5.526124e-04
5.200000e+08	5.876265e+12	0.000000e+00	6.374268e-01	4.411030e+14	8.695293e+14	2.705760e+14	1.109894e+04	4.633056e+03	2.279642e+03	0	5.445113e-04
5.300000e+08	5.613814e+12	0.000000e+00	6.374268e-01	4.384403e+14	8.620659e+14	2.692288e+14	1.108852e+04	4.628370e+03	2.277336e+03	0	5.362810e-04
5.400000e+08	5.355012e+12	0.000000e+00	6.374268e-01	4.358118e+14	8.547893e+14	2.678911e+14	1.107816e+04	4.623786e+03	2.275080e+03	0	5.279100e-04
5.500000e+08	5.099766e+12	0.000000e+00	6.374268e-01	4.332165e+14	8.476912e+14	2.665629e+14	1.106786e+04	4.619299e+03	2.272872e+03	0	5.193855e-04
5.600000e+08	4.847986e+12	0.000000e+00	6.374268e-01	4.306538e+14	8.407640e+14	2.652442e+14	1.105762e+04	4.614905e+03	2.270710e+03	0	5.106933e-04
5.700000e+08	4.599585e+12	0.000000e+00	6.374268e-01	4.281227e+14	8.340000e+14	2.639348e+14	1.104744e+04	4.610602e+03	2.268593e+03	0	5.018177e-04
5.800000e+08	4.354480e+12	0.000000e+00	6.374268e-01	4.256225e+14	8.273925e+14	2.626347e+14	1.103732e+04	4.606384e+03	2.266518e+03	0	4.927408e-04
5.900000e+08	4.112593e+12	0.000000e+00	6.374268e-01	4.231526e+14	8.209348e+14	2.613439e+14	1.102727e+04	4.602250e+03	2.264483e+03	0	4.834427e-04
6.000000e+08	3.873846e+12	0.000000e+00	6.374268e-01	4.207122e+14	8.146208e+14	2.600622e+14	1.101726e+04	4.598195e+03	2.262488e+03	0	4.739005e-04
6.100000e+08	3.638166e+12	0.000000e+00	6.374268e-01	4.183007e+14	8.084445e+14	2.587895e+14	1.100732e+04	4.594216e+03	2.260531e+03	0	4.640883e-04
6.200000e+08	3.405481e+12	0.000000e+00	6.374268e-01	4.159174e+14	8.024004e+14	2.575259e+14	1.099744e+04	4.590311e+03	2.258609e+03	0	4.539757e-04
6.300000e+08	3.175725e+12	0.000000e+00	6.374268e-01	4.135617e+14	7.964833e+14	2.562711e+14	1.098761e+04	4.586476e+03	2.256722e+03	0	4.435277e-04
6.400000e+08	2.948831e+12	0.000000e+00	6.374268e-01	4.112330e+14	7.906882e+14	2.550252e+14	1.097783e+04	4.582710e+03	2.254869e+03	0	4.327028e-04
6.500000e+08	2.724735e+12	0.000000e+00	6.374268e-01	4.089307e+14	7.850103e+14	2.537881e+14	1.096811e+04	4.579009e+03	2.253048e+03	0	4.214517e-04
6.600000e+08	2.503377e+12	0.000000e+00	6.374268e-01	4.066542e+14	7.794453e+14	2.525597e+14	1.095845e+04	4.575372e+03	2.251258e+03	0	4.097150e-04
6.700000e+08	2.284697e+12	0.000000e+00	6.374268e-01	4.044031e+14	7.739888e+14	2.513399e+14	1.094884e+04	4.571795e+03	2.249498e+03	0	3.974196e-04
6.800000e+08	2.068640e+12	0.000000e+00	6.374268e-01	4.021768e+14	7.686369e+14	2.501287e+14	1.093928e+04	4.568276e+03	2.247767e+03	0	3.844750e-04
6.900000e+08	1.855149e+12	0.000000e+00	6.374268e-01	3.999748e+14	7.633857e+14	2.489260e+14	1.092977e+04	4.564815e+03	2.246064e+03	0	3.707656e-04
7.000000e+08	1.644173e+12	0.000000e+00	6.374268e-01	3.977967e+14	7.582316e+14	2.477317e+14	1.092032e+04	4.561408e+03	2.244388e+03	0	3.561412e-04
7.100000e+08	1.435658e+12	0.000000e+00	6.374268e-01	3.956418e+14	7.531711e+14	2.465458e+14	1.091092e+04	4.558053e+03	2.242737e+03	0	3.404005e-04
7.200000e+08	1.229557e+12	0.000000e+00	6.374268e-01	3.935099e+14	7.482010e+14	2.453682e+14	1.090157e+04	4.554749e+03	2.241111e+03	0	3.232630e-04
7.300000e+08	1.025821e+12	0.000000e+00	6.374268e-01	3.914005e+14	7.433182e+14	2.441988e+14	1.089226e+04	4.551495e+03	2.239510e+03	0	3.043199e-04
7.400000e+08	8.244033e+11	0.000000e+00	6.374268e-01	3.893131e+14	7.385195e+14	2.430376e+14	1.088301e+04	4.548287e+03	2.237932e+03	0	2.829348e-04
7.500000e+08	6.252592e+11	0.000000e+00	6.374268e-01	3.872473e+14	7.338023e+14	2.418844e+14	1.087381e+04	4.545126e+03	2.236376e+03	0	2.580238e-04
7.600000e+08	4.283451e+11	0.000000e+00	6.374268e-01	3.852027e+14	7.291638e+14	2.407393e+14	1.086466e+04	4.542009e+03	2.234842e+03	0	2.274596e-04
7.700000e+08	2.336187e+11	0.000000e+00	6.374268e-01	3.831790e+14	7.246015e+14	2.396022e+14	1.085555e+04	4.538934e+03	2.233330e+03	0	1.858413e-04
7.800000e+08	4.103932e+10	0.000000e+00	6.374268e-01	3.811757e+14	7.201128e+14	2.384730e+14	1.084650e+04	4.535901e+03	2.231837e+03	0	1.040814e-04
7.900000e+08	-1.494329e+11	0.000000e+00	6.374268e-01	3.791926e+14	7.156954e+14	2.373516e+14	1.083749e+04	4.532908e+03	2.230365e+03	0	nan
