#t		Qconv[W]	Ri[Rp]		R*[Rp]		Qc[W]		Qm[W]		Qr[W]		Tcmb[K]		Tl[K]		Tup[K]		RiFlag		Bs[T]
0.000000e+00	1.194998e+14	0.000000e+00	6.279069e-01	1.857817e+15	2.906682e+15	4.555745e+14	1.562271e+04	6.516745e+03	2.744054e+03	0	1.489150e-03
1.000000e+07	1.170876e+14	0.000000e+00	6.279069e-01	1.836651e+15	2.857778e+15	4.530502e+14	1.559012e+04	6.502304e+03	2.737973e+03	0	1.479062e-03
2.000000e+07	1.147323e+14	0.000000e+00	6.279069e-01	1.815962e+15	2.811251e+15	4.505449e+14	1.555789e+04	6.488471e+03	2.732148e+03	0	1.469077e-03
3.000000e+07	1.124316e+14	0.000000e+00	6.279069e-01	1.795731e+15	2.766909e+15	4.480583e+14	1.552603e+04	6.475199e+03	2.726560e+03	0	1.459191e-03
4.000000e+07	1.101833e+14	0.000000e+00	6.279069e-01	1.775938e+15	2.724578e+15	4.455902e+14	1.549452e+04	6.462449e+03	2.721191e+03	0	1.449399e-03
5.000000e+07	1.079853e+14	0.000000e+00	6.279069e-01	1.756568e+15	2.684102e+15	4.431406e+14	1.546336e+04	6.450183e+03	2.716026e+03	0	1.439696e-03
6.000000e+07	1.058357e+14	0.000000e+00	6.279069e-01	1.737604e+15	2.645341e+15	4.407092e+14	1.543253e+04	6.438366e+03	2.711050e+03	0	1.430079e-03
7.000000e+07	1.037327e+14	0.000000e+00	6.279069e-01	1.719031e+15	2.608169e+15	4.382959e+14	1.540204e+04	6.426969e+03	2.706251e+03	0	1.420543e-03
8.000000e+07	1.016745e+14	0.000000e+00	6.279069e-01	1.700836e+15	2.572470e+15	4.359006e+14	1.537187e+04	6.415963e+03	2.701617e+03	0	1.411086e-03
9.000000e+07	9.965962e+13	0.000000e+00	6.279069e-01	1.683005e+15	2.538143e+15	4.335231e+14	1.534202e+04	6.405321e+03	2.697136e+03	0	1.401702e-03
1.000000e+08	9.768643e+13	0.000000e+00	6.279069e-01	1.665526e+15	2.505092e+15	4.311632e+14	1.531248e+04	6.395021e+03	2.692798e+03	0	1.392389e-03
1.100000e+08	9.575355e+13	0.000000e+00	6.279069e-01	1.648386e+15	2.473232e+15	4.288209e+14	1.528325e+04	6.385040e+03	2.688596e+03	0	1.383145e-03
1.200000e+08	9.385960e+13	0.000000e+00	6.279069e-01	1.631575e+15	2.442485e+15	4.264959e+14	1.525432e+04	6.375358e+03	2.684519e+03	0	1.373965e-03
1.300000e+08	9.200331e+13	0.000000e+00	6.279069e-01	1.615082e+15	2.412781e+15	4.241881e+14	1.522568e+04	6.365957e+03	2.680560e+03	0	1.364846e-03
1.400000e+08	9.018346e+13	0.000000e+00	6.279069e-01	1.598897e+15	2.384053e+15	4.218974e+14	1.519733e+04	6.356820e+03	2.676713e+03	0	1.355787e-03
1.500000e+08	8.839888e+13	0.000000e+00	6.279069e-01	1.583010e+15	2.356242e+15	4.196236e+14	1.516926e+04	6.347930e+03	2.672970e+03	0	1.346785e-03
1.600000e+08	8.664848e+13	0.000000e+00	6.279069e-01	1.567413e+15	2.329294e+15	4.173667e+14	1.514147e+04	6.339274e+03	2.669325e+03	0	1.337836e-03
1.700000e+08	8.493121e+13	0.000000e+00	6.279069e-01	1.552096e+15	2.303159e+15	4.151264e+14	1.511396e+04	6.330839e+03	2.665773e+03	0	1.328939e-03
1.800000e+08	8.324607e+13	0.000000e+00	6.279069e-01	1.537051e+15	2.277789e+15	4.129026e+14	1.508671e+04	6.322611e+03	2.662308e+03	0	1.320091e-03
1.900000e+08	8.159211e+13	0.000000e+00	6.279069e-01	1.522271e+15	2.253143e+15	4.106951e+14	1.505973e+04	6.314579e+03	2.658926e+03	0	1.311290e-03
2.000000e+08	7.996842e+13	0.000000e+00	6.279069e-01	1.507748e+15	2.229181e+15	4.085040e+14	1.503300e+04	6.306732e+03	2.655622e+03	0	1.302533e-03
2.100000e+08	7.837414e+13	0.000000e+00	6.279069e-01	1.493474e+15	2.205866e+15	4.063289e+14	1.500653e+04	6.299062e+03	2.652392e+03	0	1.293819e-03
2.200000e+08	7.680843e+13	0.000000e+00	6.279069e-01	1.479444e+15	2.183165e+15	4.041698e+14	1.498031e+04	6.291557e+03	2.649232e+03	0	1.285145e-03
2.300000e+08	7.527051e+13	0.000000e+00	6.279069e-01	1.465650e+15	2.161047e+15	4.020266e+14	1.495433e+04	6.284211e+03	2.646139e+03	0	1.276510e-03
2.400000e+08	7.375960e+13	0.000000e+00	6.279069e-01	1.452085e+15	2.139483e+15	3.998990e+14	1.492860e+04	6.277014e+03	2.643108e+03	0	1.267911e-03
2.500000e+08	7.227500e+13	0.000000e+00	6.279069e-01	1.438745e+15	2.118445e+15	3.977871e+14	1.490310e+04	6.269959e+03	2.640138e+03	0	1.259347e-03
2.600000e+08	7.081598e+13	0.000000e+00	6.279069e-01	1.425622e+15	2.097910e+15	3.956906e+14	1.487784e+04	6.263040e+03	2.637224e+03	0	1.250815e-03
2.700000e+08	6.938190e+13	0.000000e+00	6.279069e-01	1.412713e+15	2.077853e+15	3.936094e+14	1.485280e+04	6.256250e+03	2.634365e+03	0	1.242314e-03
2.800000e+08	6.797209e+13	0.000000e+00	6.279069e-01	1.400010e+15	2.058252e+15	3.915435e+14	1.482799e+04	6.249583e+03	2.631558e+03	0	1.233842e-03
2.900000e+08	6.658594e+13	0.000000e+00	6.279069e-01	1.387509e+15	2.039088e+15	3.894926e+14	1.480341e+04	6.243033e+03	2.628800e+03	0	1.225397e-03
3.000000e+08	6.522286e+13	0.000000e+00	6.279069e-01	1.375205e+15	2.020341e+15	3.874567e+14	1.477904e+04	6.236595e+03	2.626089e+03	0	1.216978e-03
3.100000e+08	6.388227e+13	0.000000e+00	6.279069e-01	1.363094e+15	2.001994e+15	3.854356e+14	1.475489e+04	6.230264e+03	2.623423e+03	0	1.208582e-03
3.200000e+08	6.256362e+13	0.000000e+00	6.279069e-01	1.351170e+15	1.984030e+15	3.834292e+14	1.473095e+04	6.224035e+03	2.620800e+03	0	1.200208e-03
3.300000e+08	6.126637e+13	0.000000e+00	6.279069e-01	1.339429e+15	1.966433e+15	3.814373e+14	1.470722e+04	6.217903e+03	2.618218e+03	0	1.191855e-03
3.400000e+08	5.999002e+13	0.000000e+00	6.279069e-01	1.327868e+15	1.949189e+15	3.794600e+14	1.468370e+04	6.211866e+03	2.615676e+03	0	1.183520e-03
3.500000e+08	5.873406e+13	0.000000e+00	6.279069e-01	1.316480e+15	1.932284e+15	3.774970e+14	1.466037e+04	6.205919e+03	2.613172e+03	0	1.175202e-03
3.600000e+08	5.749801e+13	0.000000e+00	6.279069e-01	1.305264e+15	1.915705e+15	3.755482e+14	1.463725e+04	6.200058e+03	2.610704e+03	0	1.166900e-03
3.700000e+08	5.628143e+13	0.000000e+00	6.279069e-01	1.294215e+15	1.899439e+15	3.736136e+14	1.461433e+04	6.194279e+03	2.608271e+03	0	1.158611e-03
3.800000e+08	5.508385e+13	0.000000e+00	6.279069e-01	1.283328e+15	1.883476e+15	3.716929e+14	1.459159e+04	6.188581e+03	2.605871e+03	0	1.150334e-03
3.900000e+08	5.390485e+13	0.000000e+00	6.279069e-01	1.272602e+15	1.867804e+15	3.697862e+14	1.456905e+04	6.182959e+03	2.603504e+03	0	1.142068e-03
4.000000e+08	5.274400e+13	0.000000e+00	6.279069e-01	1.262031e+15	1.852414e+15	3.678932e+14	1.454670e+04	6.177411e+03	2.601168e+03	0	1.133810e-03
4.100000e+08	5.160091e+13	0.000000e+00	6.279069e-01	1.251612e+15	1.837294e+15	3.660138e+14	1.452453e+04	6.171934e+03	2.598862e+03	0	1.125559e-03
4.200000e+08	5.047518e+13	0.000000e+00	6.279069e-01	1.241344e+15	1.822437e+15	3.641480e+14	1.450254e+04	6.166526e+03	2.596584e+03	0	1.117314e-03
4.300000e+08	4.936644e+13	0.000000e+00	6.279069e-01	1.231221e+15	1.807834e+15	3.622957e+14	1.448073e+04	6.161183e+03	2.594335e+03	0	1.109072e-03
4.400000e+08	4.827431e+13	0.000000e+00	6.279069e-01	1.221241e+15	1.793475e+15	3.604566e+14	1.445911e+04	6.155905e+03	2.592112e+03	0	1.100833e-03
4.500000e+08	4.719844e+13	0.000000e+00	6.279069e-01	1.211402e+15	1.779355e+15	3.586308e+14	1.443765e+04	6.150688e+03	2.589915e+03	0	1.092593e-03
4.600000e+08	4.613848e+13	0.000000e+00	6.279069e-01	1.201699e+15	1.765464e+15	3.568181e+14	1.441637e+04	6.145531e+03	2.587744e+03	0	1.084352e-03
4.700000e+08	4.509410e+13	0.000000e+00	6.279069e-01	1.192131e+15	1.751796e+15	3.550184e+14	1.439526e+04	6.140432e+03	2.585597e+03	0	1.076108e-03
4.800000e+08	4.406497e+13	0.000000e+00	6.279069e-01	1.182695e+15	1.738345e+15	3.532315e+14	1.437431e+04	6.135388e+03	2.583473e+03	0	1.067859e-03
4.900000e+08	4.305078e+13	0.000000e+00	6.279069e-01	1.173387e+15	1.725103e+15	3.514575e+14	1.435353e+04	6.130399e+03	2.581372e+03	0	1.059602e-03
5.000000e+08	4.205122e+13	0.000000e+00	6.279069e-01	1.164206e+15	1.712066e+15	3.496962e+14	1.433292e+04	6.125462e+03	2.579293e+03	0	1.051337e-03
5.100000e+08	4.106598e+13	0.000000e+00	6.279069e-01	1.155149e+15	1.699226e+15	3.479474e+14	1.431246e+04	6.120576e+03	2.577236e+03	0	1.043062e-03
5.200000e+08	4.009479e+13	0.000000e+00	6.279069e-01	1.146213e+15	1.686579e+15	3.462111e+14	1.429217e+04	6.115740e+03	2.575199e+03	0	1.034773e-03
5.300000e+08	3.913736e+13	0.000000e+00	6.279069e-01	1.137396e+15	1.674119e+15	3.444872e+14	1.427203e+04	6.110951e+03	2.573183e+03	0	1.026470e-03
5.400000e+08	3.819341e+13	0.000000e+00	6.279069e-01	1.128696e+15	1.661842e+15	3.427756e+14	1.425204e+04	6.106210e+03	2.571187e+03	0	1.018151e-03
5.500000e+08	3.726269e+13	0.000000e+00	6.279069e-01	1.120110e+15	1.649741e+15	3.410762e+14	1.423221e+04	6.101513e+03	2.569209e+03	0	1.009812e-03
5.600000e+08	3.634492e+13	0.000000e+00	6.279069e-01	1.111636e+15	1.637814e+15	3.393888e+14	1.421253e+04	6.096861e+03	2.567250e+03	0	1.001453e-03
5.700000e+08	3.543986e+13	0.000000e+00	6.279069e-01	1.103273e+15	1.626054e+15	3.377135e+14	1.419299e+04	6.092252e+03	2.565309e+03	0	9.930702e-04
5.800000e+08	3.454726e+13	0.000000e+00	6.279069e-01	1.095018e+15	1.614459e+15	3.360500e+14	1.417361e+04	6.087685e+03	2.563386e+03	0	9.846619e-04
5.900000e+08	3.366688e+13	0.000000e+00	6.279069e-01	1.086869e+15	1.603023e+15	3.343983e+14	1.415436e+04	6.083158e+03	2.561480e+03	0	9.762257e-04
6.000000e+08	3.279850e+13	0.000000e+00	6.279069e-01	1.078824e+15	1.591744e+15	3.327583e+14	1.413526e+04	6.078671e+03	2.559591e+03	0	9.677591e-04
6.100000e+08	3.194187e+13	0.000000e+00	6.279069e-01	1.070881e+15	1.580616e+15	3.311299e+14	1.411631e+04	6.074223e+03	2.557718e+03	0	9.592594e-04
6.200000e+08	3.109679e+13	0.000000e+00	6.279069e-01	1.063039e+15	1.569638e+15	3.295130e+14	1.409749e+04	6.069813e+03	2.555861e+03	0	9.507240e-04
6.300000e+08	3.026304e+13	0.000000e+00	6.279069e-01	1.055295e+15	1.558804e+15	3.279075e+14	1.407881e+04	6.065440e+03	2.554019e+03	0	9.421501e-04
6.400000e+08	2.944039e+13	0.000000e+00	6.279069e-01	1.047647e+15	1.548113e+15	3.263133e+14	1.406026e+04	6.061103e+03	2.552193e+03	0	9.335347e-04
6.500000e+08	2.862866e+13	0.000000e+00	6.279069e-01	1.040095e+15	1.537560e+15	3.247304e+14	1.404185e+04	6.056802e+03	2.550382e+03	0	9.248749e-04
6.600000e+08	2.782764e+13	0.000000e+00	6.279069e-01	1.032636e+15	1.527142e+15	3.231586e+14	1.402357e+04	6.052534e+03	2.548585e+03	0	9.161672e-04
6.700000e+08	2.703714e+13	0.000000e+00	6.279069e-01	1.025268e+15	1.516857e+15	3.215979e+14	1.400542e+04	6.048301e+03	2.546803e+03	0	9.074086e-04
6.800000e+08	2.625696e+13	0.000000e+00	6.279069e-01	1.017991e+15	1.506702e+15	3.200481e+14	1.398740e+04	6.044101e+03	2.545034e+03	0	8.985952e-04
6.900000e+08	2.548692e+13	0.000000e+00	6.279069e-01	1.010802e+15	1.496674e+15	3.185092e+14	1.396951e+04	6.039933e+03	2.543279e+03	0	8.897236e-04
7.000000e+08	2.472685e+13	0.000000e+00	6.279069e-01	1.003700e+15	1.486770e+15	3.169811e+14	1.395174e+04	6.035796e+03	2.541537e+03	0	8.807896e-04
7.100000e+08	2.397655e+13	0.000000e+00	6.279069e-01	9.966827e+14	1.476987e+15	3.154637e+14	1.393410e+04	6.031691e+03	2.539808e+03	0	8.717892e-04
7.200000e+08	2.323586e+13	0.000000e+00	6.279069e-01	9.897498e+14	1.467324e+15	3.139568e+14	1.391658e+04	6.027616e+03	2.538093e+03	0	8.627180e-04
7.300000e+08	2.250461e+13	0.000000e+00	6.279069e-01	9.828994e+14	1.457777e+15	3.124606e+14	1.389919e+04	6.023571e+03	2.536389e+03	0	8.535712e-04
7.400000e+08	2.178264e+13	0.000000e+00	6.279069e-01	9.761301e+14	1.448345e+15	3.109747e+14	1.388191e+04	6.019555e+03	2.534698e+03	0	8.443440e-04
7.500000e+08	2.106978e+13	0.000000e+00	6.279069e-01	9.694405e+14	1.439024e+15	3.094993e+14	1.386475e+04	6.015568e+03	2.533019e+03	0	8.350310e-04
7.600000e+08	2.036587e+13	0.000000e+00	6.279069e-01	9.628293e+14	1.429814e+15	3.080341e+14	1.384771e+04	6.011609e+03	2.531352e+03	0	8.256265e-04
7.700000e+08	1.967078e+13	0.000000e+00	6.279069e-01	9.562952e+14	1.420711e+15	3.065791e+14	1.383079e+04	6.007678e+03	2.529697e+03	0	8.161245e-04
7.800000e+08	1.898433e+13	0.000000e+00	6.279069e-01	9.498368e+14	1.411714e+15	3.051342e+14	1.381398e+04	6.003774e+03	2.528053e+03	0	8.065186e-04
7.900000e+08	1.830639e+13	0.000000e+00	6.279069e-01	9.434530e+14	1.402820e+15	3.036993e+14	1.379728e+04	5.999896e+03	2.526420e+03	0	7.968016e-04
8.000000e+08	1.763681e+13	0.000000e+00	6.279069e-01	9.371425e+14	1.394029e+15	3.022744e+14	1.378069e+04	5.996045e+03	2.524799e+03	0	7.869660e-04
8.100000e+08	1.697546e+13	0.000000e+00	6.279069e-01	9.309041e+14	1.385337e+15	3.008594e+14	1.376422e+04	5.992220e+03	2.523188e+03	0	7.770037e-04
8.200000e+08	1.632219e+13	0.000000e+00	6.279069e-01	9.247366e+14	1.376743e+15	2.994541e+14	1.374786e+04	5.988419e+03	2.521588e+03	0	7.669058e-04
8.300000e+08	1.567686e+13	0.000000e+00	6.279069e-01	9.186390e+14	1.368246e+15	2.980586e+14	1.373160e+04	5.984644e+03	2.519998e+03	0	7.566627e-04
8.400000e+08	1.503936e+13	0.000000e+00	6.279069e-01	9.126100e+14	1.359843e+15	2.966727e+14	1.371545e+04	5.980893e+03	2.518419e+03	0	7.462639e-04
8.500000e+08	1.440955e+13	0.000000e+00	6.279069e-01	9.066486e+14	1.351532e+15	2.952964e+14	1.369941e+04	5.977167e+03	2.516850e+03	0	7.356977e-04
8.600000e+08	1.378730e+13	0.000000e+00	6.279069e-01	9.007537e+14	1.343313e+15	2.939296e+14	1.368347e+04	5.973464e+03	2.515290e+03	0	7.249516e-04
8.700000e+08	1.317249e+13	0.000000e+00	6.279069e-01	8.949243e+14	1.335184e+15	2.925722e+14	1.366763e+04	5.969784e+03	2.513741e+03	0	7.140116e-04
8.800000e+08	1.256500e+13	0.000000e+00	6.279069e-01	8.891593e+14	1.327143e+15	2.912241e+14	1.365190e+04	5.966128e+03	2.512201e+03	0	7.028622e-04
8.900000e+08	1.196472e+13	0.000000e+00	6.279069e-01	8.834577e+14	1.319188e+15	2.898852e+14	1.363627e+04	5.962494e+03	2.510671e+03	0	6.914861e-04
9.000000e+08	1.137152e+13	0.000000e+00	6.279069e-01	8.778185e+14	1.311318e+15	2.885556e+14	1.362073e+04	5.958882e+03	2.509150e+03	0	6.798641e-04
9.100000e+08	1.078530e+13	0.000000e+00	6.279069e-01	8.722408e+14	1.303532e+15	2.872351e+14	1.360530e+04	5.955293e+03	2.507639e+03	0	6.679746e-04
9.200000e+08	1.020593e+13	0.000000e+00	6.279069e-01	8.667236e+14	1.295829e+15	2.859236e+14	1.358996e+04	5.951725e+03	2.506137e+03	0	6.557931e-04
9.300000e+08	9.633324e+12	0.000000e+00	6.279069e-01	8.612660e+14	1.288206e+15	2.846211e+14	1.357473e+04	5.948179e+03	2.504643e+03	0	6.432918e-04
9.400000e+08	9.067363e+12	0.000000e+00	6.279069e-01	8.558671e+14	1.280663e+15	2.833275e+14	1.355958e+04	5.944653e+03	2.503159e+03	0	6.304388e-04
9.500000e+08	8.507946e+12	0.000000e+00	6.279069e-01	8.505259e+14	1.273198e+15	2.820427e+14	1.354453e+04	5.941149e+03	2.501683e+03	0	6.171975e-04
9.600000e+08	7.954970e+12	0.000000e+00	6.279069e-01	8.452417e+14	1.265811e+15	2.807667e+14	1.352958e+04	5.937664e+03	2.500216e+03	0	6.035253e-04
9.700000e+08	7.408335e+12	0.000000e+00	6.279069e-01	8.400135e+14	1.258499e+15	2.794994e+14	1.351472e+04	5.934201e+03	2.498757e+03	0	5.893720e-04
9.800000e+08	6.867945e+12	0.000000e+00	6.279069e-01	8.348405e+14	1.251262e+15	2.782407e+14	1.349995e+04	5.930757e+03	2.497307e+03	0	5.746784e-04
9.900000e+08	6.333701e+12	0.000000e+00	6.279069e-01	8.297218e+14	1.244098e+15	2.769905e+14	1.348527e+04	5.927332e+03	2.495865e+03	0	5.593734e-04
1.000000e+09	5.805511e+12	0.000000e+00	6.279069e-01	8.246568e+14	1.237007e+15	2.757489e+14	1.347068e+04	5.923927e+03	2.494432e+03	0	5.433705e-04
1.010000e+09	5.283282e+12	0.000000e+00	6.279069e-01	8.196445e+14	1.229986e+15	2.745156e+14	1.345618e+04	5.920542e+03	2.493006e+03	0	5.265632e-04
1.020000e+09	4.766923e+12	0.000000e+00	6.279069e-01	8.146843e+14	1.223036e+15	2.732907e+14	1.344177e+04	5.917175e+03	2.491588e+03	0	5.088174e-04
1.030000e+09	4.256346e+12	0.000000e+00	6.279069e-01	8.097753e+14	1.216156e+15	2.720742e+14	1.342744e+04	5.913827e+03	2.490179e+03	0	4.899611e-04
1.040000e+09	3.751464e+12	0.000000e+00	6.279069e-01	8.049168e+14	1.209343e+15	2.708658e+14	1.341320e+04	5.910498e+03	2.488777e+03	0	4.697674e-04
1.050000e+09	3.252191e+12	0.000000e+00	6.279069e-01	8.001081e+14	1.202597e+15	2.696656e+14	1.339905e+04	5.907186e+03	2.487382e+03	0	4.479278e-04
1.060000e+09	2.758445e+12	0.000000e+00	6.279069e-01	7.953484e+14	1.195917e+15	2.684734e+14	1.338498e+04	5.903893e+03	2.485996e+03	0	4.240047e-04
1.070000e+09	2.270142e+12	0.000000e+00	6.279069e-01	7.906370e+14	1.189302e+15	2.672894e+14	1.337099e+04	5.900618e+03	2.484616e+03	0	3.973443e-04
1.080000e+09	1.787202e+12	0.000000e+00	6.279069e-01	7.859733e+14	1.182751e+15	2.661132e+14	1.335709e+04	5.897360e+03	2.483245e+03	0	3.668939e-04
1.090000e+09	1.309547e+12	0.000000e+00	6.279069e-01	7.813566e+14	1.176264e+15	2.649450e+14	1.334326e+04	5.894119e+03	2.481880e+03	0	3.307676e-04
1.100000e+09	8.370981e+11	0.000000e+00	6.279069e-01	7.767862e+14	1.169839e+15	2.637847e+14	1.332952e+04	5.890896e+03	2.480523e+03	0	2.849321e-04
1.110000e+09	3.697803e+11	0.000000e+00	6.279069e-01	7.722614e+14	1.163475e+15	2.626321e+14	1.331586e+04	5.887690e+03	2.479173e+03	0	2.170021e-04
1.120000e+09	-9.248135e+10	0.000000e+00	6.279069e-01	7.677816e+14	1.157171e+15	2.614872e+14	1.330228e+04	5.884501e+03	2.477830e+03	0	nan
