#t		Qconv[W]	Ri[Rp]		R*[Rp]		Qc[W]		Qm[W]		Qr[W]		Tcmb[K]		Tl[K]		Tup[K]		RiFlag		Bs[T]
0.000000e+00	1.177471e+12	0.000000e+00	4.673365e-01	3.908092e+13	8.158023e+13	1.470187e+14	4.944344e+03	3.433273e+03	2.119299e+03	0	4.019703e-04
1.000000e+07	1.156708e+12	0.000000e+00	4.673365e-01	3.846778e+13	8.262164e+13	1.462041e+14	4.933633e+03	3.440217e+03	2.123585e+03	0	3.995936e-04
2.000000e+07	1.136369e+12	0.000000e+00	4.673365e-01	3.786710e+13	8.364791e+13	1.453956e+14	4.923089e+03	3.446996e+03	2.127770e+03	0	3.972376e-04
3.000000e+07	1.116445e+12	0.000000e+00	4.673365e-01	3.727863e+13	8.465873e+13	1.445931e+14	4.912710e+03	3.453613e+03	2.131854e+03	0	3.949023e-04
4.000000e+07	1.096928e+12	0.000000e+00	4.673365e-01	3.670212e+13	8.565388e+13	1.437967e+14	4.902492e+03	3.460069e+03	2.135839e+03	0	3.925876e-04
5.000000e+07	1.077810e+12	0.000000e+00	4.673365e-01	3.613735e+13	8.663307e+13	1.430062e+14	4.892430e+03	3.466367e+03	2.139727e+03	0	3.902934e-04
6.000000e+07	1.059083e+12	0.000000e+00	4.673365e-01	3.558409e+13	8.759609e+13	1.422215e+14	4.882524e+03	3.472510e+03	2.143519e+03	0	3.880197e-04
7.000000e+07	1.040739e+12	0.000000e+00	4.673365e-01	3.504209e+13	8.854273e+13	1.414427e+14	4.872768e+03	3.478499e+03	2.147216e+03	0	3.857665e-04
8.000000e+07	1.022771e+12	0.000000e+00	4.673365e-01	3.451115e+13	8.947282e+13	1.406697e+14	4.863160e+03	3.484337e+03	2.150819e+03	0	3.835335e-04
9.000000e+07	1.005171e+12	0.000000e+00	4.673365e-01	3.399103e+13	9.038617e+13	1.399025e+14	4.853698e+03	3.490026e+03	2.154331e+03	0	3.813208e-04
1.000000e+08	9.879322e+11	0.000000e+00	4.673365e-01	3.348153e+13	9.128264e+13	1.391409e+14	4.844377e+03	3.495568e+03	2.157752e+03	0	3.791283e-04
1.100000e+08	9.710469e+11	0.000000e+00	4.673365e-01	3.298243e+13	9.216210e+13	1.383850e+14	4.835196e+03	3.500966e+03	2.161084e+03	0	3.769560e-04
1.200000e+08	9.545081e+11	0.000000e+00	4.673365e-01	3.249351e+13	9.302445e+13	1.376347e+14	4.826151e+03	3.506221e+03	2.164328e+03	0	3.748036e-04
1.300000e+08	9.383088e+11	0.000000e+00	4.673365e-01	3.201459e+13	9.386957e+13	1.368900e+14	4.817240e+03	3.511336e+03	2.167485e+03	0	3.726712e-04
1.400000e+08	9.224422e+11	0.000000e+00	4.673365e-01	3.154544e+13	9.469740e+13	1.361508e+14	4.808459e+03	3.516313e+03	2.170558e+03	0	3.705586e-04
1.500000e+08	9.069015e+11	0.000000e+00	4.673365e-01	3.108588e+13	9.550787e+13	1.354170e+14	4.799807e+03	3.521155e+03	2.173546e+03	0	3.684659e-04
1.600000e+08	8.916801e+11	0.000000e+00	4.673365e-01	3.063571e+13	9.630093e+13	1.346886e+14	4.791281e+03	3.525863e+03	2.176452e+03	0	3.663928e-04
1.700000e+08	8.767714e+11	0.000000e+00	4.673365e-01	3.019474e+13	9.707658e+13	1.339657e+14	4.782877e+03	3.530439e+03	2.179277e+03	0	3.643393e-04
1.800000e+08	8.621691e+11	0.000000e+00	4.673365e-01	2.976278e+13	9.783477e+13	1.332480e+14	4.774595e+03	3.534886e+03	2.182023e+03	0	3.623053e-04
1.900000e+08	8.478668e+11	0.000000e+00	4.673365e-01	2.933964e+13	9.857551e+13	1.325357e+14	4.766430e+03	3.539206e+03	2.184689e+03	0	3.602907e-04
2.000000e+08	8.338583e+11	0.000000e+00	4.673365e-01	2.892514e+13	9.929881e+13	1.318286e+14	4.758381e+03	3.543402e+03	2.187279e+03	0	3.582955e-04
2.100000e+08	8.201376e+11	0.000000e+00	4.673365e-01	2.851910e+13	1.000047e+14	1.311266e+14	4.750445e+03	3.547474e+03	2.189793e+03	0	3.563194e-04
2.200000e+08	8.066987e+11	0.000000e+00	4.673365e-01	2.812136e+13	1.006932e+14	1.304299e+14	4.742620e+03	3.551425e+03	2.192232e+03	0	3.543624e-04
2.300000e+08	7.935357e+11	0.000000e+00	4.673365e-01	2.773172e+13	1.013644e+14	1.297382e+14	4.734905e+03	3.555258e+03	2.194598e+03	0	3.524245e-04
2.400000e+08	7.806429e+11	0.000000e+00	4.673365e-01	2.735004e+13	1.020183e+14	1.290516e+14	4.727295e+03	3.558974e+03	2.196891e+03	0	3.505054e-04
2.500000e+08	7.680146e+11	0.000000e+00	4.673365e-01	2.697613e+13	1.026551e+14	1.283701e+14	4.719791e+03	3.562575e+03	2.199114e+03	0	3.486051e-04
2.600000e+08	7.556452e+11	0.000000e+00	4.673365e-01	2.660984e+13	1.032747e+14	1.276935e+14	4.712388e+03	3.566063e+03	2.201268e+03	0	3.467234e-04
2.700000e+08	7.435293e+11	0.000000e+00	4.673365e-01	2.625100e+13	1.038773e+14	1.270219e+14	4.705086e+03	3.569441e+03	2.203353e+03	0	3.448603e-04
2.800000e+08	7.316615e+11	0.000000e+00	4.673365e-01	2.589946e+13	1.044630e+14	1.263552e+14	4.697882e+03	3.572710e+03	2.205371e+03	0	3.430157e-04
2.900000e+08	7.200366e+11	0.000000e+00	4.673365e-01	2.555506e+13	1.050319e+14	1.256934e+14	4.690774e+03	3.575873e+03	2.207323e+03	0	3.411893e-04
3.000000e+08	7.086493e+11	0.000000e+00	4.673365e-01	2.521766e+13	1.055842e+14	1.250364e+14	4.683760e+03	3.578930e+03	2.209210e+03	0	3.393811e-04
3.100000e+08	6.974947e+11	0.000000e+00	4.673365e-01	2.488709e+13	1.061199e+14	1.243841e+14	4.676838e+03	3.581885e+03	2.211034e+03	0	3.375910e-04
3.200000e+08	6.865677e+11	0.000000e+00	4.673365e-01	2.456322e+13	1.066392e+14	1.237366e+14	4.670007e+03	3.584738e+03	2.212795e+03	0	3.358188e-04
3.300000e+08	6.758634e+11	0.000000e+00	4.673365e-01	2.424590e+13	1.071422e+14	1.230939e+14	4.663265e+03	3.587492e+03	2.214495e+03	0	3.340644e-04
3.400000e+08	6.653771e+11	0.000000e+00	4.673365e-01	2.393500e+13	1.076291e+14	1.224558e+14	4.656610e+03	3.590149e+03	2.216135e+03	0	3.323277e-04
3.500000e+08	6.551041e+11	0.000000e+00	4.673365e-01	2.363037e+13	1.081001e+14	1.218223e+14	4.650039e+03	3.592710e+03	2.217716e+03	0	3.306085e-04
3.600000e+08	6.450398e+11	0.000000e+00	4.673365e-01	2.333187e+13	1.085552e+14	1.211934e+14	4.643552e+03	3.595177e+03	2.219239e+03	0	3.289067e-04
3.700000e+08	6.351796e+11	0.000000e+00	4.673365e-01	2.303938e+13	1.089947e+14	1.205691e+14	4.637147e+03	3.597553e+03	2.220706e+03	0	3.272222e-04
3.800000e+08	6.255191e+11	0.000000e+00	4.673365e-01	2.275277e+13	1.094188e+14	1.199492e+14	4.630822e+03	3.599838e+03	2.222116e+03	0	3.255548e-04
3.900000e+08	6.160540e+11	0.000000e+00	4.673365e-01	2.247190e+13	1.098276e+14	1.193339e+14	4.624575e+03	3.602035e+03	2.223472e+03	0	3.239044e-04
4.000000e+08	6.067800e+11	0.000000e+00	4.673365e-01	2.219665e+13	1.102214e+14	1.187230e+14	4.618405e+03	3.604145e+03	2.224775e+03	0	3.222708e-04
4.100000e+08	5.976929e+11	0.000000e+00	4.673365e-01	2.192691e+13	1.106002e+14	1.181165e+14	4.612311e+03	3.606169e+03	2.226024e+03	0	3.206539e-04
4.200000e+08	5.887887e+11	0.000000e+00	4.673365e-01	2.166254e+13	1.109643e+14	1.175144e+14	4.606290e+03	3.608110e+03	2.227223e+03	0	3.190536e-04
4.300000e+08	5.800633e+11	0.000000e+00	4.673365e-01	2.140344e+13	1.113139e+14	1.169166e+14	4.600342e+03	3.609970e+03	2.228370e+03	0	3.174698e-04
4.400000e+08	5.715129e+11	0.000000e+00	4.673365e-01	2.114948e+13	1.116491e+14	1.163232e+14	4.594465e+03	3.611749e+03	2.229469e+03	0	3.159021e-04
4.500000e+08	5.631335e+11	0.000000e+00	4.673365e-01	2.090056e+13	1.119703e+14	1.157339e+14	4.588657e+03	3.613449e+03	2.230518e+03	0	3.143506e-04
4.600000e+08	5.549214e+11	0.000000e+00	4.673365e-01	2.065655e+13	1.122775e+14	1.151490e+14	4.582917e+03	3.615073e+03	2.231520e+03	0	3.128151e-04
4.700000e+08	5.468730e+11	0.000000e+00	4.673365e-01	2.041737e+13	1.125710e+14	1.145682e+14	4.577245e+03	3.616620e+03	2.232476e+03	0	3.112954e-04
4.800000e+08	5.389845e+11	0.000000e+00	4.673365e-01	2.018288e+13	1.128510e+14	1.139916e+14	4.571637e+03	3.618094e+03	2.233385e+03	0	3.097914e-04
4.900000e+08	5.312525e+11	0.000000e+00	4.673365e-01	1.995301e+13	1.131177e+14	1.134191e+14	4.566094e+03	3.619495e+03	2.234250e+03	0	3.083029e-04
5.000000e+08	5.236735e+11	0.000000e+00	4.673365e-01	1.972764e+13	1.133713e+14	1.128507e+14	4.560614e+03	3.620825e+03	2.235071e+03	0	3.068297e-04
5.100000e+08	5.162441e+11	0.000000e+00	4.673365e-01	1.950666e+13	1.136120e+14	1.122863e+14	4.555196e+03	3.622086e+03	2.235849e+03	0	3.053718e-04
5.200000e+08	5.089611e+11	0.000000e+00	4.673365e-01	1.929000e+13	1.138400e+14	1.117260e+14	4.549838e+03	3.623278e+03	2.236585e+03	0	3.039290e-04
5.300000e+08	5.018210e+11	0.000000e+00	4.673365e-01	1.907754e+13	1.140556e+14	1.111697e+14	4.544540e+03	3.624404e+03	2.237280e+03	0	3.025010e-04
5.400000e+08	4.948208e+11	0.000000e+00	4.673365e-01	1.886920e+13	1.142589e+14	1.106173e+14	4.539300e+03	3.625463e+03	2.237934e+03	0	3.010878e-04
5.500000e+08	4.879574e+11	0.000000e+00	4.673365e-01	1.866489e+13	1.144502e+14	1.100689e+14	4.534116e+03	3.626459e+03	2.238549e+03	0	2.996893e-04
5.600000e+08	4.812276e+11	0.000000e+00	4.673365e-01	1.846451e+13	1.146296e+14	1.095244e+14	4.528989e+03	3.627393e+03	2.239125e+03	0	2.983051e-04
5.700000e+08	4.746286e+11	0.000000e+00	4.673365e-01	1.826798e+13	1.147974e+14	1.089837e+14	4.523917e+03	3.628264e+03	2.239663e+03	0	2.969353e-04
5.800000e+08	4.681575e+11	0.000000e+00	4.673365e-01	1.807521e+13	1.149538e+14	1.084469e+14	4.518898e+03	3.629076e+03	2.240164e+03	0	2.955797e-04
5.900000e+08	4.618112e+11	0.000000e+00	4.673365e-01	1.788612e+13	1.150990e+14	1.079139e+14	4.513933e+03	3.629828e+03	2.240629e+03	0	2.942380e-04
6.000000e+08	4.555872e+11	0.000000e+00	4.673365e-01	1.770063e+13	1.152331e+14	1.073846e+14	4.509019e+03	3.630523e+03	2.241058e+03	0	2.929101e-04
6.100000e+08	4.494826e+11	0.000000e+00	4.673365e-01	1.751865e+13	1.153565e+14	1.068591e+14	4.504156e+03	3.631162e+03	2.241452e+03	0	2.915960e-04
6.200000e+08	4.434949e+11	0.000000e+00	4.673365e-01	1.734012e+13	1.154693e+14	1.063373e+14	4.499343e+03	3.631745e+03	2.241812e+03	0	2.902954e-04
6.300000e+08	4.376213e+11	0.000000e+00	4.673365e-01	1.716494e+13	1.155718e+14	1.058192e+14	4.494579e+03	3.632275e+03	2.242139e+03	0	2.890081e-04
6.400000e+08	4.318593e+11	0.000000e+00	4.673365e-01	1.699305e+13	1.156640e+14	1.053048e+14	4.489863e+03	3.632751e+03	2.242433e+03	0	2.877341e-04
6.500000e+08	4.262065e+11	0.000000e+00	4.673365e-01	1.682438e+13	1.157463e+14	1.047939e+14	4.485194e+03	3.633176e+03	2.242695e+03	0	2.864731e-04
6.600000e+08	4.206604e+11	0.000000e+00	4.673365e-01	1.665885e+13	1.158188e+14	1.042867e+14	4.480571e+03	3.633550e+03	2.242926e+03	0	2.852251e-04
6.700000e+08	4.152186e+11	0.000000e+00	4.673365e-01	1.649639e+13	1.158818e+14	1.037830e+14	4.475993e+03	3.633875e+03	2.243126e+03	0	2.839899e-04
6.800000e+08	4.098789e+11	0.000000e+00	4.673365e-01	1.633694e+13	1.159353e+14	1.032829e+14	4.471460e+03	3.634151e+03	2.243297e+03	0	2.827672e-04
6.900000e+08	4.046388e+11	0.000000e+00	4.673365e-01	1.618042e+13	1.159797e+14	1.027863e+14	4.466971e+03	3.634380e+03	2.243438e+03	0	2.815571e-04
7.000000e+08	3.994963e+11	0.000000e+00	4.673365e-01	1.602677e+13	1.160151e+14	1.022931e+14	4.462525e+03	3.634562e+03	2.243551e+03	0	2.803592e-04
7.100000e+08	3.944491e+11	0.000000e+00	4.673365e-01	1.587594e+13	1.160418e+14	1.018035e+14	4.458121e+03	3.634699e+03	2.243635e+03	0	2.791735e-04
7.200000e+08	3.894952e+11	0.000000e+00	4.673365e-01	1.572785e+13	1.160598e+14	1.013172e+14	4.453758e+03	3.634792e+03	2.243693e+03	0	2.779999e-04
7.300000e+08	3.846323e+11	0.000000e+00	4.673365e-01	1.558244e+13	1.160694e+14	1.008343e+14	4.449436e+03	3.634842e+03	2.243723e+03	0	2.768381e-04
7.400000e+08	3.798586e+11	0.000000e+00	4.673365e-01	1.543966e+13	1.160708e+14	1.003548e+14	4.445153e+03	3.634849e+03	2.243728e+03	0	2.756880e-04
7.500000e+08	3.751720e+11	0.000000e+00	4.673365e-01	1.529945e+13	1.160641e+14	9.987868e+13	4.440910e+03	3.634814e+03	2.243706e+03	0	2.745495e-04
7.600000e+08	3.705707e+11	0.000000e+00	4.673365e-01	1.516175e+13	1.160496e+14	9.940585e+13	4.436705e+03	3.634740e+03	2.243660e+03	0	2.734225e-04
7.700000e+08	3.660526e+11	0.000000e+00	4.673365e-01	1.502650e+13	1.160274e+14	9.893630e+13	4.432538e+03	3.634625e+03	2.243590e+03	0	2.723067e-04
7.800000e+08	3.616160e+11	0.000000e+00	4.673365e-01	1.489366e+13	1.159977e+14	9.847002e+13	4.428408e+03	3.634472e+03	2.243495e+03	0	2.712021e-04
7.900000e+08	3.572590e+11	0.000000e+00	4.673365e-01	1.476316e+13	1.159606e+14	9.800698e+13	4.424315e+03	3.634281e+03	2.243377e+03	0	2.701085e-04
8.000000e+08	3.529800e+11	0.000000e+00	4.673365e-01	1.463496e+13	1.159164e+14	9.754715e+13	4.420257e+03	3.634053e+03	2.243237e+03	0	2.690258e-04
8.100000e+08	3.487771e+11	0.000000e+00	4.673365e-01	1.450900e+13	1.158652e+14	9.709050e+13	4.416234e+03	3.633789e+03	2.243074e+03	0	2.679538e-04
8.200000e+08	3.446487e+11	0.000000e+00	4.673365e-01	1.438524e+13	1.158072e+14	9.663702e+13	4.412246e+03	3.633490e+03	2.242889e+03	0	2.668923e-04
8.300000e+08	3.405932e+11	0.000000e+00	4.673365e-01	1.426363e+13	1.157425e+14	9.618667e+13	4.408292e+03	3.633156e+03	2.242683e+03	0	2.658414e-04
8.400000e+08	3.366089e+11	0.000000e+00	4.673365e-01	1.414411e+13	1.156713e+14	9.573943e+13	4.404371e+03	3.632789e+03	2.242456e+03	0	2.648007e-04
8.500000e+08	3.326943e+11	0.000000e+00	4.673365e-01	1.402666e+13	1.155938e+14	9.529527e+13	4.400483e+03	3.632389e+03	2.242209e+03	0	2.637702e-04
8.600000e+08	3.288479e+11	0.000000e+00	4.673365e-01	1.391121e+13	1.155101e+14	9.485418e+13	4.396627e+03	3.631956e+03	2.241942e+03	0	2.627497e-04
8.700000e+08	3.250681e+11	0.000000e+00	4.673365e-01	1.379772e+13	1.154204e+14	9.441613e+13	4.392803e+03	3.631492e+03	2.241656e+03	0	2.617391e-04
8.800000e+08	3.213535e+11	0.000000e+00	4.673365e-01	1.368617e+13	1.153248e+14	9.398109e+13	4.389010e+03	3.630998e+03	2.241351e+03	0	2.607383e-04
8.900000e+08	3.177027e+11	0.000000e+00	4.673365e-01	1.357649e+13	1.152235e+14	9.354903e+13	4.385248e+03	3.630474e+03	2.241027e+03	0	2.597472e-04
9.000000e+08	3.141142e+11	0.000000e+00	4.673365e-01	1.346865e+13	1.151166e+14	9.311994e+13	4.381515e+03	3.629920e+03	2.240685e+03	0	2.587655e-04
9.100000e+08	3.105868e+11	0.000000e+00	4.673365e-01	1.336261e+13	1.150043e+14	9.269380e+13	4.377813e+03	3.629338e+03	2.240326e+03	0	2.577933e-04
9.200000e+08	3.071191e+11	0.000000e+00	4.673365e-01	1.325833e+13	1.148867e+14	9.227057e+13	4.374139e+03	3.628728e+03	2.239949e+03	0	2.568302e-04
9.300000e+08	3.037098e+11	0.000000e+00	4.673365e-01	1.315578e+13	1.147639e+14	9.185024e+13	4.370494e+03	3.628090e+03	2.239556e+03	0	2.558763e-04
9.400000e+08	3.003576e+11	0.000000e+00	4.673365e-01	1.305491e+13	1.146361e+14	9.143278e+13	4.366877e+03	3.627426e+03	2.239146e+03	0	2.549314e-04
9.500000e+08	2.970613e+11	0.000000e+00	4.673365e-01	1.295569e+13	1.145035e+14	9.101817e+13	4.363287e+03	3.626737e+03	2.238720e+03	0	2.539954e-04
9.600000e+08	2.938197e+11	0.000000e+00	4.673365e-01	1.285809e+13	1.143661e+14	9.060638e+13	4.359725e+03	3.626022e+03	2.238279e+03	0	2.530682e-04
9.700000e+08	2.906316e+11	0.000000e+00	4.673365e-01	1.276206e+13	1.142240e+14	9.019740e+13	4.356190e+03	3.625282e+03	2.237822e+03	0	2.521495e-04
9.800000e+08	2.874958e+11	0.000000e+00	4.673365e-01	1.266758e+13	1.140776e+14	8.979121e+13	4.352681e+03	3.624518e+03	2.237351e+03	0	2.512394e-04
9.900000e+08	2.844113e+11	0.000000e+00	4.673365e-01	1.257461e+13	1.139267e+14	8.938777e+13	4.349198e+03	3.623731e+03	2.236865e+03	0	2.503377e-04
1.000000e+09	2.813770e+11	0.000000e+00	4.673365e-01	1.248313e+13	1.137716e+14	8.898708e+13	4.345740e+03	3.622920e+03	2.236365e+03	0	2.494442e-04
1.010000e+09	2.783917e+11	0.000000e+00	4.673365e-01	1.239309e+13	1.136124e+14	8.858910e+13	4.342308e+03	3.622088e+03	2.235851e+03	0	2.485589e-04
1.020000e+09	2.754544e+11	0.000000e+00	4.673365e-01	1.230447e+13	1.134492e+14	8.819381e+13	4.338900e+03	3.621233e+03	2.235323e+03	0	2.476816e-04
1.030000e+09	2.725641e+11	0.000000e+00	4.673365e-01	1.221723e+13	1.132821e+14	8.780121e+13	4.335517e+03	3.620358e+03	2.234783e+03	0	2.468123e-04
1.040000e+09	2.697198e+11	0.000000e+00	4.673365e-01	1.213136e+13	1.131112e+14	8.741125e+13	4.332157e+03	3.619461e+03	2.234229e+03	0	2.459508e-04
1.050000e+09	2.669206e+11	0.000000e+00	4.673365e-01	1.204682e+13	1.129367e+14	8.702393e+13	4.328821e+03	3.618544e+03	2.233663e+03	0	2.450969e-04
1.060000e+09	2.641654e+11	0.000000e+00	4.673365e-01	1.196357e+13	1.127586e+14	8.663922e+13	4.325508e+03	3.617608e+03	2.233085e+03	0	2.442507e-04
1.070000e+09	2.614533e+11	0.000000e+00	4.673365e-01	1.188161e+13	1.125771e+14	8.625710e+13	4.322219e+03	3.616652e+03	2.232495e+03	0	2.434120e-04
1.080000e+09	2.587835e+11	0.000000e+00	4.673365e-01	1.180089e+13	1.123922e+14	8.587756e+13	4.318951e+03	3.615678e+03	2.231894e+03	0	2.425806e-04
1.090000e+09	2.561550e+11	0.000000e+00	4.673365e-01	1.172139e+13	1.122041e+14	8.550056e+13	4.315706e+03	3.614685e+03	2.231281e+03	0	2.417565e-04
1.100000e+09	2.535670e+11	0.000000e+00	4.673365e-01	1.164309e+13	1.120129e+14	8.512610e+13	4.312482e+03	3.613675e+03	2.230657e+03	0	2.409396e-04
1.110000e+09	2.510187e+11	0.000000e+00	4.673365e-01	1.156596e+13	1.118187e+14	8.475415e+13	4.309280e+03	3.612647e+03	2.230023e+03	0	2.401297e-04
1.120000e+09	2.485091e+11	0.000000e+00	4.673365e-01	1.148997e+13	1.116215e+14	8.438469e+13	4.306099e+03	3.611602e+03	2.229378e+03	0	2.393268e-04
1.130000e+09	2.460376e+11	0.000000e+00	4.673365e-01	1.141511e+13	1.114214e+14	8.401770e+13	4.302939e+03	3.610541e+03	2.228723e+03	0	2.385307e-04
1.140000e+09	2.436032e+11	0.000000e+00	4.673365e-01	1.134135e+13	1.112187e+14	8.365317e+13	4.299800e+03	3.609464e+03	2.228058e+03	0	2.377414e-04
1.150000e+09	2.412053e+11	0.000000e+00	4.673365e-01	1.126867e+13	1.110132e+14	8.329107e+13	4.296681e+03	3.608371e+03	2.227383e+03	0	2.369588e-04
1.160000e+09	2.388432e+11	0.000000e+00	4.673365e-01	1.119705e+13	1.108052e+14	8.293138e+13	4.293582e+03	3.607263e+03	2.226699e+03	0	2.361827e-04
1.170000e+09	2.365159e+11	0.000000e+00	4.673365e-01	1.112645e+13	1.105947e+14	8.257409e+13	4.290502e+03	3.606140e+03	2.226006e+03	0	2.354131e-04
1.180000e+09	2.342229e+11	0.000000e+00	4.673365e-01	1.105687e+13	1.103818e+14	8.221918e+13	4.287442e+03	3.605003e+03	2.225304e+03	0	2.346499e-04
1.190000e+09	2.319635e+11	0.000000e+00	4.673365e-01	1.098829e+13	1.101666e+14	8.186663e+13	4.284400e+03	3.603852e+03	2.224594e+03	0	2.338929e-04
1.200000e+09	2.297369e+11	0.000000e+00	4.673365e-01	1.092067e+13	1.099492e+14	8.151642e+13	4.281378e+03	3.602687e+03	2.223875e+03	0	2.331422e-04
1.210000e+09	2.275425e+11	0.000000e+00	4.673365e-01	1.085401e+13	1.097296e+14	8.116853e+13	4.278374e+03	3.601508e+03	2.223147e+03	0	2.323975e-04
1.220000e+09	2.253796e+11	0.000000e+00	4.673365e-01	1.078828e+13	1.095079e+14	8.082294e+13	4.275389e+03	3.600317e+03	2.222412e+03	0	2.316588e-04
1.230000e+09	2.232477e+11	0.000000e+00	4.673365e-01	1.072347e+13	1.092842e+14	8.047964e+13	4.272421e+03	3.599114e+03	2.221669e+03	0	2.309260e-04
1.240000e+09	2.211460e+11	0.000000e+00	4.673365e-01	1.065955e+13	1.090587e+14	8.013861e+13	4.269472e+03	3.597898e+03	2.220918e+03	0	2.301991e-04
1.250000e+09	2.190740e+11	0.000000e+00	4.673365e-01	1.059651e+13	1.088312e+14	7.979984e+13	4.266540e+03	3.596670e+03	2.220161e+03	0	2.294779e-04
1.260000e+09	2.170311e+11	0.000000e+00	4.673365e-01	1.053433e+13	1.086020e+14	7.946329e+13	4.263625e+03	3.595431e+03	2.219396e+03	0	2.287623e-04
1.270000e+09	2.150166e+11	0.000000e+00	4.673365e-01	1.047300e+13	1.083710e+14	7.912897e+13	4.260727e+03	3.594180e+03	2.218624e+03	0	2.280524e-04
1.280000e+09	2.130301e+11	0.000000e+00	4.673365e-01	1.041249e+13	1.081384e+14	7.879684e+13	4.257846e+03	3.592918e+03	2.217845e+03	0	2.273479e-04
1.290000e+09	2.110710e+11	0.000000e+00	4.673365e-01	1.035279e+13	1.079043e+14	7.846689e+13	4.254982e+03	3.591646e+03	2.217060e+03	0	2.266488e-04
1.300000e+09	2.091387e+11	0.000000e+00	4.673365e-01	1.029389e+13	1.076686e+14	7.813911e+13	4.252134e+03	3.590364e+03	2.216268e+03	0	2.259550e-04
1.310000e+09	2.072326e+11	0.000000e+00	4.673365e-01	1.023577e+13	1.074315e+14	7.781348e+13	4.249302e+03	3.589072e+03	2.215470e+03	0	2.252665e-04
1.320000e+09	2.053524e+11	0.000000e+00	4.673365e-01	1.017841e+13	1.071929e+14	7.748998e+13	4.246486e+03	3.587769e+03	2.214666e+03	0	2.245831e-04
1.330000e+09	2.034975e+11	0.000000e+00	4.673365e-01	1.012180e+13	1.069531e+14	7.716860e+13	4.243686e+03	3.586458e+03	2.213857e+03	0	2.239049e-04
1.340000e+09	2.016673e+11	0.000000e+00	4.673365e-01	1.006593e+13	1.067120e+14	7.684932e+13	4.240902e+03	3.585137e+03	2.213042e+03	0	2.232316e-04
1.350000e+09	1.998615e+11	0.000000e+00	4.673365e-01	1.001077e+13	1.064697e+14	7.653212e+13	4.238133e+03	3.583808e+03	2.212221e+03	0	2.225633e-04
1.360000e+09	1.980794e+11	0.000000e+00	4.673365e-01	9.956324e+12	1.062262e+14	7.621699e+13	4.235378e+03	3.582469e+03	2.211395e+03	0	2.218999e-04
