#t		Qconv[W]	Ri[Rp]		R*[Rp]		Qc[W]		Qm[W]		Qr[W]		Tcmb[K]		Tl[K]		Tup[K]		RiFlag		Bs[T]
0.000000e+00	3.079025e+12	0.000000e+00	4.673369e-01	8.166677e+13	1.002223e+14	2.188627e+14	6.169250e+03	4.062978e+03	2.231437e+03	0	5.403520e-04
1.000000e+07	3.025351e+12	0.000000e+00	4.673369e-01	8.046012e+13	1.017221e+14	2.176500e+14	6.155224e+03	4.072427e+03	2.236627e+03	0	5.371938e-04
2.000000e+07	2.972673e+12	0.000000e+00	4.673369e-01	7.927573e+13	1.032087e+14	2.164464e+14	6.141404e+03	4.081691e+03	2.241715e+03	0	5.340576e-04
3.000000e+07	2.920973e+12	0.000000e+00	4.673369e-01	7.811319e+13	1.046817e+14	2.152518e+14	6.127787e+03	4.090772e+03	2.246702e+03	0	5.309434e-04
4.000000e+07	2.870232e+12	0.000000e+00	4.673369e-01	7.697210e+13	1.061405e+14	2.140662e+14	6.114369e+03	4.099671e+03	2.251589e+03	0	5.278510e-04
5.000000e+07	2.820433e+12	0.000000e+00	4.673369e-01	7.585207e+13	1.075848e+14	2.128893e+14	6.101146e+03	4.108391e+03	2.256378e+03	0	5.247804e-04
6.000000e+07	2.771559e+12	0.000000e+00	4.673369e-01	7.475271e+13	1.090139e+14	2.117213e+14	6.088115e+03	4.116934e+03	2.261070e+03	0	5.217315e-04
7.000000e+07	2.723592e+12	0.000000e+00	4.673369e-01	7.367364e+13	1.104276e+14	2.105619e+14	6.075272e+03	4.125301e+03	2.265666e+03	0	5.187042e-04
8.000000e+07	2.676516e+12	0.000000e+00	4.673369e-01	7.261449e+13	1.118254e+14	2.094112e+14	6.062614e+03	4.133496e+03	2.270166e+03	0	5.156983e-04
9.000000e+07	2.630316e+12	0.000000e+00	4.673369e-01	7.157491e+13	1.132068e+14	2.082690e+14	6.050137e+03	4.141520e+03	2.274573e+03	0	5.127138e-04
1.000000e+08	2.584974e+12	0.000000e+00	4.673369e-01	7.055452e+13	1.145716e+14	2.071353e+14	6.037838e+03	4.149376e+03	2.278888e+03	0	5.097506e-04
1.100000e+08	2.540476e+12	0.000000e+00	4.673369e-01	6.955299e+13	1.159194e+14	2.060100e+14	6.025714e+03	4.157065e+03	2.283111e+03	0	5.068087e-04
1.200000e+08	2.496805e+12	0.000000e+00	4.673369e-01	6.856996e+13	1.172499e+14	2.048930e+14	6.013761e+03	4.164589e+03	2.287243e+03	0	5.038879e-04
1.300000e+08	2.453947e+12	0.000000e+00	4.673369e-01	6.760509e+13	1.185627e+14	2.037844e+14	6.001977e+03	4.171951e+03	2.291286e+03	0	5.009881e-04
1.400000e+08	2.411886e+12	0.000000e+00	4.673369e-01	6.665806e+13	1.198575e+14	2.026839e+14	5.990358e+03	4.179153e+03	2.295242e+03	0	4.981093e-04
1.500000e+08	2.370609e+12	0.000000e+00	4.673369e-01	6.572854e+13	1.211342e+14	2.015915e+14	5.978901e+03	4.186197e+03	2.299110e+03	0	4.952514e-04
1.600000e+08	2.330100e+12	0.000000e+00	4.673369e-01	6.481620e+13	1.223923e+14	2.005073e+14	5.967603e+03	4.193085e+03	2.302893e+03	0	4.924142e-04
1.700000e+08	2.290346e+12	0.000000e+00	4.673369e-01	6.392073e+13	1.236319e+14	1.994310e+14	5.956462e+03	4.199819e+03	2.306591e+03	0	4.895978e-04
1.800000e+08	2.251333e+12	0.000000e+00	4.673369e-01	6.304182e+13	1.248525e+14	1.983627e+14	5.945474e+03	4.206400e+03	2.310206e+03	0	4.868019e-04
1.900000e+08	2.213047e+12	0.000000e+00	4.673369e-01	6.217916e+13	1.260540e+14	1.973022e+14	5.934637e+03	4.212832e+03	2.313739e+03	0	4.840266e-04
2.000000e+08	2.175474e+12	0.000000e+00	4.673369e-01	6.133246e+13	1.272363e+14	1.962495e+14	5.923948e+03	4.219117e+03	2.317190e+03	0	4.812717e-04
2.100000e+08	2.138602e+12	0.000000e+00	4.673369e-01	6.050141e+13	1.283991e+14	1.952046e+14	5.913403e+03	4.225255e+03	2.320562e+03	0	4.785372e-04
2.200000e+08	2.102417e+12	0.000000e+00	4.673369e-01	5.968574e+13	1.295424e+14	1.941674e+14	5.903001e+03	4.231250e+03	2.323854e+03	0	4.758229e-04
2.300000e+08	2.066907e+12	0.000000e+00	4.673369e-01	5.888515e+13	1.306660e+14	1.931377e+14	5.892739e+03	4.237104e+03	2.327069e+03	0	4.731288e-04
2.400000e+08	2.032059e+12	0.000000e+00	4.673369e-01	5.809936e+13	1.317698e+14	1.921156e+14	5.882614e+03	4.242817e+03	2.330207e+03	0	4.704547e-04
2.500000e+08	1.997861e+12	0.000000e+00	4.673369e-01	5.732810e+13	1.328537e+14	1.911010e+14	5.872624e+03	4.248393e+03	2.333269e+03	0	4.678006e-04
2.600000e+08	1.964301e+12	0.000000e+00	4.673369e-01	5.657109e+13	1.339177e+14	1.900939e+14	5.862766e+03	4.253833e+03	2.336257e+03	0	4.651664e-04
2.700000e+08	1.931366e+12	0.000000e+00	4.673369e-01	5.582808e+13	1.349616e+14	1.890941e+14	5.853038e+03	4.259140e+03	2.339171e+03	0	4.625520e-04
2.800000e+08	1.899046e+12	0.000000e+00	4.673369e-01	5.509879e+13	1.359855e+14	1.881015e+14	5.843437e+03	4.264315e+03	2.342014e+03	0	4.599573e-04
2.900000e+08	1.867327e+12	0.000000e+00	4.673369e-01	5.438297e+13	1.369893e+14	1.871163e+14	5.833961e+03	4.269360e+03	2.344784e+03	0	4.573821e-04
3.000000e+08	1.836200e+12	0.000000e+00	4.673369e-01	5.368037e+13	1.379730e+14	1.861382e+14	5.824608e+03	4.274277e+03	2.347485e+03	0	4.548265e-04
3.100000e+08	1.805653e+12	0.000000e+00	4.673369e-01	5.299073e+13	1.389365e+14	1.851672e+14	5.815375e+03	4.279069e+03	2.350117e+03	0	4.522902e-04
3.200000e+08	1.775675e+12	0.000000e+00	4.673369e-01	5.231381e+13	1.398800e+14	1.842033e+14	5.806261e+03	4.283736e+03	2.352680e+03	0	4.497732e-04
3.300000e+08	1.746255e+12	0.000000e+00	4.673369e-01	5.164937e+13	1.408033e+14	1.832465e+14	5.797263e+03	4.288281e+03	2.355176e+03	0	4.472753e-04
3.400000e+08	1.717383e+12	0.000000e+00	4.673369e-01	5.099717e+13	1.417066e+14	1.822965e+14	5.788378e+03	4.292706e+03	2.357607e+03	0	4.447966e-04
3.500000e+08	1.689048e+12	0.000000e+00	4.673369e-01	5.035699e+13	1.425899e+14	1.813535e+14	5.779606e+03	4.297013e+03	2.359972e+03	0	4.423367e-04
3.600000e+08	1.661239e+12	0.000000e+00	4.673369e-01	4.972858e+13	1.434533e+14	1.804173e+14	5.770943e+03	4.301203e+03	2.362273e+03	0	4.398958e-04
3.700000e+08	1.633948e+12	0.000000e+00	4.673369e-01	4.911173e+13	1.442967e+14	1.794878e+14	5.762389e+03	4.305279e+03	2.364511e+03	0	4.374735e-04
3.800000e+08	1.607163e+12	0.000000e+00	4.673369e-01	4.850621e+13	1.451203e+14	1.785651e+14	5.753940e+03	4.309241e+03	2.366688e+03	0	4.350699e-04
3.900000e+08	1.580876e+12	0.000000e+00	4.673369e-01	4.791181e+13	1.459242e+14	1.776491e+14	5.745594e+03	4.313093e+03	2.368803e+03	0	4.326848e-04
4.000000e+08	1.555076e+12	0.000000e+00	4.673369e-01	4.732831e+13	1.467084e+14	1.767397e+14	5.737351e+03	4.316835e+03	2.370858e+03	0	4.303180e-04
4.100000e+08	1.529754e+12	0.000000e+00	4.673369e-01	4.675551e+13	1.474732e+14	1.758368e+14	5.729208e+03	4.320470e+03	2.372855e+03	0	4.279696e-04
4.200000e+08	1.504901e+12	0.000000e+00	4.673369e-01	4.619318e+13	1.482185e+14	1.749405e+14	5.721164e+03	4.323999e+03	2.374793e+03	0	4.256393e-04
4.300000e+08	1.480508e+12	0.000000e+00	4.673369e-01	4.564114e+13	1.489445e+14	1.740506e+14	5.713215e+03	4.327423e+03	2.376674e+03	0	4.233270e-04
4.400000e+08	1.456566e+12	0.000000e+00	4.673369e-01	4.509919e+13	1.496513e+14	1.731671e+14	5.705362e+03	4.330746e+03	2.378498e+03	0	4.210326e-04
4.500000e+08	1.433066e+12	0.000000e+00	4.673369e-01	4.456712e+13	1.503391e+14	1.722899e+14	5.697601e+03	4.333968e+03	2.380268e+03	0	4.187560e-04
4.600000e+08	1.409999e+12	0.000000e+00	4.673369e-01	4.404474e+13	1.510080e+14	1.714191e+14	5.689932e+03	4.337091e+03	2.381983e+03	0	4.164971e-04
4.700000e+08	1.387358e+12	0.000000e+00	4.673369e-01	4.353187e+13	1.516582e+14	1.705545e+14	5.682353e+03	4.340116e+03	2.383645e+03	0	4.142557e-04
4.800000e+08	1.365133e+12	0.000000e+00	4.673369e-01	4.302832e+13	1.522898e+14	1.696961e+14	5.674861e+03	4.343046e+03	2.385254e+03	0	4.120317e-04
4.900000e+08	1.343316e+12	0.000000e+00	4.673369e-01	4.253391e+13	1.529030e+14	1.688438e+14	5.667456e+03	4.345881e+03	2.386811e+03	0	4.098250e-04
5.000000e+08	1.321901e+12	0.000000e+00	4.673369e-01	4.204846e+13	1.534979e+14	1.679977e+14	5.660136e+03	4.348624e+03	2.388317e+03	0	4.076355e-04
5.100000e+08	1.300878e+12	0.000000e+00	4.673369e-01	4.157179e+13	1.540748e+14	1.671575e+14	5.652899e+03	4.351277e+03	2.389774e+03	0	4.054630e-04
5.200000e+08	1.280239e+12	0.000000e+00	4.673369e-01	4.110373e+13	1.546337e+14	1.663234e+14	5.645744e+03	4.353839e+03	2.391182e+03	0	4.033073e-04
5.300000e+08	1.259979e+12	0.000000e+00	4.673369e-01	4.064411e+13	1.551749e+14	1.654952e+14	5.638669e+03	4.356314e+03	2.392541e+03	0	4.011685e-04
5.400000e+08	1.240088e+12	0.000000e+00	4.673369e-01	4.019276e+13	1.556986e+14	1.646730e+14	5.631673e+03	4.358703e+03	2.393853e+03	0	3.990462e-04
5.500000e+08	1.220559e+12	0.000000e+00	4.673369e-01	3.974952e+13	1.562049e+14	1.638565e+14	5.624755e+03	4.361007e+03	2.395118e+03	0	3.969404e-04
5.600000e+08	1.201386e+12	0.000000e+00	4.673369e-01	3.931424e+13	1.566941e+14	1.630459e+14	5.617913e+03	4.363227e+03	2.396338e+03	0	3.948510e-04
5.700000e+08	1.182562e+12	0.000000e+00	4.673369e-01	3.888675e+13	1.571663e+14	1.622410e+14	5.611145e+03	4.365366e+03	2.397512e+03	0	3.927778e-04
5.800000e+08	1.164078e+12	0.000000e+00	4.673369e-01	3.846689e+13	1.576217e+14	1.614419e+14	5.604451e+03	4.367424e+03	2.398642e+03	0	3.907207e-04
5.900000e+08	1.145930e+12	0.000000e+00	4.673369e-01	3.805453e+13	1.580606e+14	1.606484e+14	5.597829e+03	4.369403e+03	2.399729e+03	0	3.886795e-04
6.000000e+08	1.128109e+12	0.000000e+00	4.673369e-01	3.764950e+13	1.584832e+14	1.598605e+14	5.591278e+03	4.371305e+03	2.400774e+03	0	3.866542e-04
6.100000e+08	1.110610e+12	0.000000e+00	4.673369e-01	3.725166e+13	1.588896e+14	1.590782e+14	5.584796e+03	4.373130e+03	2.401776e+03	0	3.846445e-04
6.200000e+08	1.093425e+12	0.000000e+00	4.673369e-01	3.686088e+13	1.592800e+14	1.583014e+14	5.578383e+03	4.374881e+03	2.402738e+03	0	3.826503e-04
6.300000e+08	1.076550e+12	0.000000e+00	4.673369e-01	3.647700e+13	1.596548e+14	1.575302e+14	5.572037e+03	4.376558e+03	2.403659e+03	0	3.806715e-04
6.400000e+08	1.059977e+12	0.000000e+00	4.673369e-01	3.609990e+13	1.600140e+14	1.567643e+14	5.565756e+03	4.378163e+03	2.404540e+03	0	3.787080e-04
6.500000e+08	1.043700e+12	0.000000e+00	4.673369e-01	3.572943e+13	1.603580e+14	1.560039e+14	5.559541e+03	4.379697e+03	2.405383e+03	0	3.767596e-04
6.600000e+08	1.027714e+12	0.000000e+00	4.673369e-01	3.536547e+13	1.606868e+14	1.552487e+14	5.553389e+03	4.381161e+03	2.406187e+03	0	3.748261e-04
6.700000e+08	1.012013e+12	0.000000e+00	4.673369e-01	3.500788e+13	1.610008e+14	1.544990e+14	5.547300e+03	4.382557e+03	2.406954e+03	0	3.729075e-04
6.800000e+08	9.965913e+11	0.000000e+00	4.673369e-01	3.465653e+13	1.613001e+14	1.537544e+14	5.541272e+03	4.383886e+03	2.407684e+03	0	3.710036e-04
6.900000e+08	9.814427e+11	0.000000e+00	4.673369e-01	3.431131e+13	1.615850e+14	1.530151e+14	5.535304e+03	4.385150e+03	2.408378e+03	0	3.691142e-04
7.000000e+08	9.665621e+11	0.000000e+00	4.673369e-01	3.397209e+13	1.618557e+14	1.522810e+14	5.529396e+03	4.386348e+03	2.409036e+03	0	3.672391e-04
7.100000e+08	9.519441e+11	0.000000e+00	4.673369e-01	3.363875e+13	1.621124e+14	1.515520e+14	5.523546e+03	4.387484e+03	2.409660e+03	0	3.653784e-04
7.200000e+08	9.375834e+11	0.000000e+00	4.673369e-01	3.331117e+13	1.623552e+14	1.508281e+14	5.517753e+03	4.388557e+03	2.410249e+03	0	3.635318e-04
7.300000e+08	9.234749e+11	0.000000e+00	4.673369e-01	3.298923e+13	1.625846e+14	1.501093e+14	5.512017e+03	4.389569e+03	2.410805e+03	0	3.616991e-04
7.400000e+08	9.096134e+11	0.000000e+00	4.673369e-01	3.267283e+13	1.628006e+14	1.493955e+14	5.506335e+03	4.390521e+03	2.411328e+03	0	3.598802e-04
7.500000e+08	8.959941e+11	0.000000e+00	4.673369e-01	3.236186e+13	1.630034e+14	1.486866e+14	5.500709e+03	4.391415e+03	2.411818e+03	0	3.580751e-04
7.600000e+08	8.826121e+11	0.000000e+00	4.673369e-01	3.205619e+13	1.631933e+14	1.479828e+14	5.495135e+03	4.392251e+03	2.412277e+03	0	3.562835e-04
7.700000e+08	8.694625e+11	0.000000e+00	4.673369e-01	3.175574e+13	1.633705e+14	1.472838e+14	5.489614e+03	4.393030e+03	2.412705e+03	0	3.545053e-04
7.800000e+08	8.565408e+11	0.000000e+00	4.673369e-01	3.146039e+13	1.635353e+14	1.465896e+14	5.484145e+03	4.393754e+03	2.413103e+03	0	3.527403e-04
7.900000e+08	8.438424e+11	0.000000e+00	4.673369e-01	3.117004e+13	1.636877e+14	1.459003e+14	5.478727e+03	4.394423e+03	2.413471e+03	0	3.509884e-04
8.000000e+08	8.313627e+11	0.000000e+00	4.673369e-01	3.088459e+13	1.638281e+14	1.452158e+14	5.473358e+03	4.395039e+03	2.413809e+03	0	3.492496e-04
8.100000e+08	8.190973e+11	0.000000e+00	4.673369e-01	3.060394e+13	1.639567e+14	1.445360e+14	5.468039e+03	4.395603e+03	2.414118e+03	0	3.475235e-04
8.200000e+08	8.070421e+11	0.000000e+00	4.673369e-01	3.032800e+13	1.640736e+14	1.438609e+14	5.462767e+03	4.396115e+03	2.414400e+03	0	3.458102e-04
8.300000e+08	7.951926e+11	0.000000e+00	4.673369e-01	3.005668e+13	1.641790e+14	1.431904e+14	5.457543e+03	4.396577e+03	2.414654e+03	0	3.441094e-04
8.400000e+08	7.835449e+11	0.000000e+00	4.673369e-01	2.978987e+13	1.642733e+14	1.425247e+14	5.452366e+03	4.396989e+03	2.414880e+03	0	3.424210e-04
8.500000e+08	7.720949e+11	0.000000e+00	4.673369e-01	2.952749e+13	1.643565e+14	1.418635e+14	5.447235e+03	4.397354e+03	2.415080e+03	0	3.407448e-04
8.600000e+08	7.608385e+11	0.000000e+00	4.673369e-01	2.926946e+13	1.644289e+14	1.412068e+14	5.442148e+03	4.397670e+03	2.415254e+03	0	3.390808e-04
8.700000e+08	7.497720e+11	0.000000e+00	4.673369e-01	2.901568e+13	1.644907e+14	1.405547e+14	5.437106e+03	4.397941e+03	2.415403e+03	0	3.374288e-04
8.800000e+08	7.388914e+11	0.000000e+00	4.673369e-01	2.876607e+13	1.645421e+14	1.399071e+14	5.432108e+03	4.398165e+03	2.415526e+03	0	3.357886e-04
8.900000e+08	7.281932e+11	0.000000e+00	4.673369e-01	2.852055e+13	1.645832e+14	1.392639e+14	5.427153e+03	4.398345e+03	2.415625e+03	0	3.341601e-04
9.000000e+08	7.176735e+11	0.000000e+00	4.673369e-01	2.827903e+13	1.646144e+14	1.386251e+14	5.422239e+03	4.398481e+03	2.415699e+03	0	3.325432e-04
9.100000e+08	7.073290e+11	0.000000e+00	4.673369e-01	2.804144e+13	1.646357e+14	1.379907e+14	5.417368e+03	4.398574e+03	2.415751e+03	0	3.309377e-04
9.200000e+08	6.971560e+11	0.000000e+00	4.673369e-01	2.780770e+13	1.646473e+14	1.373607e+14	5.412537e+03	4.398625e+03	2.415779e+03	0	3.293434e-04
9.300000e+08	6.871511e+11	0.000000e+00	4.673369e-01	2.757773e+13	1.646496e+14	1.367349e+14	5.407746e+03	4.398635e+03	2.415784e+03	0	3.277604e-04
9.400000e+08	6.773110e+11	0.000000e+00	4.673369e-01	2.735145e+13	1.646426e+14	1.361135e+14	5.402995e+03	4.398605e+03	2.415767e+03	0	3.261883e-04
9.500000e+08	6.676324e+11	0.000000e+00	4.673369e-01	2.712880e+13	1.646265e+14	1.354962e+14	5.398283e+03	4.398534e+03	2.415729e+03	0	3.246271e-04
9.600000e+08	6.581120e+11	0.000000e+00	4.673369e-01	2.690970e+13	1.646015e+14	1.348832e+14	5.393609e+03	4.398425e+03	2.415669e+03	0	3.230767e-04
9.700000e+08	6.487468e+11	0.000000e+00	4.673369e-01	2.669408e+13	1.645679e+14	1.342744e+14	5.388972e+03	4.398278e+03	2.415588e+03	0	3.215369e-04
9.800000e+08	6.395336e+11	0.000000e+00	4.673369e-01	2.648187e+13	1.645257e+14	1.336697e+14	5.384373e+03	4.398094e+03	2.415487e+03	0	3.200075e-04
9.900000e+08	6.304694e+11	0.000000e+00	4.673369e-01	2.627300e+13	1.644752e+14	1.330691e+14	5.379810e+03	4.397873e+03	2.415365e+03	0	3.184885e-04
1.000000e+09	6.215513e+11	0.000000e+00	4.673369e-01	2.606742e+13	1.644165e+14	1.324726e+14	5.375283e+03	4.397616e+03	2.415224e+03	0	3.169796e-04
1.010000e+09	6.127763e+11	0.000000e+00	4.673369e-01	2.586504e+13	1.643499e+14	1.318802e+14	5.370792e+03	4.397325e+03	2.415064e+03	0	3.154809e-04
1.020000e+09	6.041416e+11	0.000000e+00	4.673369e-01	2.566582e+13	1.642754e+14	1.312917e+14	5.366335e+03	4.396999e+03	2.414885e+03	0	3.139920e-04
1.030000e+09	5.956445e+11	0.000000e+00	4.673369e-01	2.546968e+13	1.641933e+14	1.307072e+14	5.361913e+03	4.396639e+03	2.414688e+03	0	3.125130e-04
1.040000e+09	5.872823e+11	0.000000e+00	4.673369e-01	2.527658e+13	1.641037e+14	1.301267e+14	5.357524e+03	4.396247e+03	2.414472e+03	0	3.110437e-04
1.050000e+09	5.790522e+11	0.000000e+00	4.673369e-01	2.508644e+13	1.640067e+14	1.295501e+14	5.353168e+03	4.395822e+03	2.414239e+03	0	3.095838e-04
1.060000e+09	5.709516e+11	0.000000e+00	4.673369e-01	2.489921e+13	1.639027e+14	1.289774e+14	5.348845e+03	4.395366e+03	2.413988e+03	0	3.081334e-04
1.070000e+09	5.629781e+11	0.000000e+00	4.673369e-01	2.471483e+13	1.637916e+14	1.284086e+14	5.344555e+03	4.394879e+03	2.413721e+03	0	3.066923e-04
1.080000e+09	5.551291e+11	0.000000e+00	4.673369e-01	2.453325e+13	1.636737e+14	1.278436e+14	5.340296e+03	4.394361e+03	2.413437e+03	0	3.052603e-04
1.090000e+09	5.474021e+11	0.000000e+00	4.673369e-01	2.435442e+13	1.635491e+14	1.272823e+14	5.336068e+03	4.393814e+03	2.413136e+03	0	3.038374e-04
1.100000e+09	5.397949e+11	0.000000e+00	4.673369e-01	2.417827e+13	1.634180e+14	1.267249e+14	5.331871e+03	4.393238e+03	2.412820e+03	0	3.024233e-04
1.110000e+09	5.323050e+11	0.000000e+00	4.673369e-01	2.400476e+13	1.632805e+14	1.261712e+14	5.327704e+03	4.392634e+03	2.412488e+03	0	3.010181e-04
1.120000e+09	5.249301e+11	0.000000e+00	4.673369e-01	2.383384e+13	1.631368e+14	1.256212e+14	5.323567e+03	4.392002e+03	2.412141e+03	0	2.996214e-04
1.130000e+09	5.176680e+11	0.000000e+00	4.673369e-01	2.366545e+13	1.629870e+14	1.250748e+14	5.319460e+03	4.391343e+03	2.411779e+03	0	2.982333e-04
1.140000e+09	5.105166e+11	0.000000e+00	4.673369e-01	2.349955e+13	1.628313e+14	1.245322e+14	5.315381e+03	4.390657e+03	2.411402e+03	0	2.968536e-04
1.150000e+09	5.034736e+11	0.000000e+00	4.673369e-01	2.333609e+13	1.626698e+14	1.239931e+14	5.311331e+03	4.389945e+03	2.411011e+03	0	2.954822e-04
1.160000e+09	4.965369e+11	0.000000e+00	4.673369e-01	2.317502e+13	1.625026e+14	1.234577e+14	5.307309e+03	4.389207e+03	2.410606e+03	0	2.941189e-04
1.170000e+09	4.897046e+11	0.000000e+00	4.673369e-01	2.301630e+13	1.623299e+14	1.229258e+14	5.303315e+03	4.388445e+03	2.410187e+03	0	2.927636e-04
1.180000e+09	4.829745e+11	0.000000e+00	4.673369e-01	2.285987e+13	1.621519e+14	1.223974e+14	5.299348e+03	4.387658e+03	2.409755e+03	0	2.914163e-04
1.190000e+09	4.763447e+11	0.000000e+00	4.673369e-01	2.270570e+13	1.619686e+14	1.218726e+14	5.295408e+03	4.386848e+03	2.409310e+03	0	2.900767e-04
1.200000e+09	4.698133e+11	0.000000e+00	4.673369e-01	2.255375e+13	1.617801e+14	1.213512e+14	5.291495e+03	4.386014e+03	2.408852e+03	0	2.887448e-04
1.210000e+09	4.633784e+11	0.000000e+00	4.673369e-01	2.240397e+13	1.615867e+14	1.208334e+14	5.287608e+03	4.385157e+03	2.408382e+03	0	2.874204e-04
1.220000e+09	4.570380e+11	0.000000e+00	4.673369e-01	2.225631e+13	1.613884e+14	1.203189e+14	5.283746e+03	4.384278e+03	2.407899e+03	0	2.861035e-04
1.230000e+09	4.507905e+11	0.000000e+00	4.673369e-01	2.211075e+13	1.611854e+14	1.198078e+14	5.279910e+03	4.383377e+03	2.407404e+03	0	2.847939e-04
1.240000e+09	4.446340e+11	0.000000e+00	4.673369e-01	2.196723e+13	1.609777e+14	1.193002e+14	5.276099e+03	4.382455e+03	2.406898e+03	0	2.834914e-04
1.250000e+09	4.385669e+11	0.000000e+00	4.673369e-01	2.182573e+13	1.607656e+14	1.187958e+14	5.272312e+03	4.381512e+03	2.406380e+03	0	2.821961e-04
1.260000e+09	4.325873e+11	0.000000e+00	4.673369e-01	2.168620e+13	1.605491e+14	1.182948e+14	5.268550e+03	4.380548e+03	2.405850e+03	0	2.809077e-04
1.270000e+09	4.266936e+11	0.000000e+00	4.673369e-01	2.154860e+13	1.603283e+14	1.177971e+14	5.264812e+03	4.379565e+03	2.405310e+03	0	2.796261e-04
1.280000e+09	4.208843e+11	0.000000e+00	4.673369e-01	2.141290e+13	1.601034e+14	1.173027e+14	5.261098e+03	4.378562e+03	2.404759e+03	0	2.783513e-04
1.290000e+09	4.151576e+11	0.000000e+00	4.673369e-01	2.127907e+13	1.598744e+14	1.168115e+14	5.257406e+03	4.377539e+03	2.404198e+03	0	2.770831e-04
1.300000e+09	4.095121e+11	0.000000e+00	4.673369e-01	2.114706e+13	1.596416e+14	1.163236e+14	5.253738e+03	4.376499e+03	2.403626e+03	0	2.758214e-04
1.310000e+09	4.039462e+11	0.000000e+00	4.673369e-01	2.101685e+13	1.594049e+14	1.158388e+14	5.250093e+03	4.375440e+03	2.403045e+03	0	2.745661e-04
1.320000e+09	3.984584e+11	0.000000e+00	4.673369e-01	2.088840e+13	1.591645e+14	1.153572e+14	5.246470e+03	4.374363e+03	2.402453e+03	0	2.733170e-04
1.330000e+09	3.930473e+11	0.000000e+00	4.673369e-01	2.076168e+13	1.589204e+14	1.148788e+14	5.242869e+03	4.373269e+03	2.401852e+03	0	2.720742e-04
1.340000e+09	3.877114e+11	0.000000e+00	4.673369e-01	2.063665e+13	1.586729e+14	1.144035e+14	5.239290e+03	4.372158e+03	2.401242e+03	0	2.708374e-04
1.350000e+09	3.824493e+11	0.000000e+00	4.673369e-01	2.051329e+13	1.584220e+14	1.139313e+14	5.235732e+03	4.371030e+03	2.400623e+03	0	2.696065e-04
1.360000e+09	3.772596e+11	0.000000e+00	4.673369e-01	2.039156e+13	1.581678e+14	1.134621e+14	5.232196e+03	4.369886e+03	2.399994e+03	0	2.683814e-04
