#t		Qconv[W]	Ri[Rp]		R*[Rp]		Qc[W]		Qm[W]		Qr[W]		Tcmb[K]		Tl[K]		Tup[K]		RiFlag		Bs[T]
0.000000e+00	1.254899e+13	0.000000e+00	4.572863e-01	2.614556e+14	1.182456e+14	4.098359e+14	9.246828e+03	5.613773e+03	2.454595e+03	0	8.473660e-04
1.000000e+07	1.231647e+13	0.000000e+00	4.572863e-01	2.578421e+14	1.204375e+14	4.075651e+14	9.224177e+03	5.629189e+03	2.461336e+03	0	8.420998e-04
2.000000e+07	1.208794e+13	0.000000e+00	4.572863e-01	2.542900e+14	1.226275e+14	4.053113e+14	9.201838e+03	5.644380e+03	2.467978e+03	0	8.368588e-04
3.000000e+07	1.186331e+13	0.000000e+00	4.572863e-01	2.507980e+14	1.248147e+14	4.030743e+14	9.179806e+03	5.659346e+03	2.474522e+03	0	8.316427e-04
4.000000e+07	1.164252e+13	0.000000e+00	4.572863e-01	2.473650e+14	1.269984e+14	4.008541e+14	9.158075e+03	5.674092e+03	2.480969e+03	0	8.264510e-04
5.000000e+07	1.142549e+13	0.000000e+00	4.572863e-01	2.439898e+14	1.291780e+14	3.986504e+14	9.136640e+03	5.688618e+03	2.487321e+03	0	8.212834e-04
6.000000e+07	1.121214e+13	0.000000e+00	4.572863e-01	2.406714e+14	1.313528e+14	3.964631e+14	9.115497e+03	5.702928e+03	2.493578e+03	0	8.161394e-04
7.000000e+07	1.100241e+13	0.000000e+00	4.572863e-01	2.374086e+14	1.335219e+14	3.942921e+14	9.094640e+03	5.717023e+03	2.499741e+03	0	8.110186e-04
8.000000e+07	1.079623e+13	0.000000e+00	4.572863e-01	2.342005e+14	1.356848e+14	3.921373e+14	9.074065e+03	5.730905e+03	2.505811e+03	0	8.059206e-04
9.000000e+07	1.059354e+13	0.000000e+00	4.572863e-01	2.310459e+14	1.378409e+14	3.899984e+14	9.053767e+03	5.744578e+03	2.511789e+03	0	8.008450e-04
1.000000e+08	1.039426e+13	0.000000e+00	4.572863e-01	2.279440e+14	1.399894e+14	3.878755e+14	9.033741e+03	5.758042e+03	2.517676e+03	0	7.957915e-04
1.100000e+08	1.019833e+13	0.000000e+00	4.572863e-01	2.248937e+14	1.421297e+14	3.857683e+14	9.013983e+03	5.771300e+03	2.523473e+03	0	7.907597e-04
1.200000e+08	1.000570e+13	0.000000e+00	4.572863e-01	2.218940e+14	1.442613e+14	3.836767e+14	8.994489e+03	5.784354e+03	2.529181e+03	0	7.857492e-04
1.300000e+08	9.816300e+12	0.000000e+00	4.572863e-01	2.189442e+14	1.463835e+14	3.816007e+14	8.975254e+03	5.797206e+03	2.534800e+03	0	7.807597e-04
1.400000e+08	9.630073e+12	0.000000e+00	4.572863e-01	2.160432e+14	1.484957e+14	3.795400e+14	8.956273e+03	5.809858e+03	2.540332e+03	0	7.757909e-04
1.500000e+08	9.446961e+12	0.000000e+00	4.572863e-01	2.131902e+14	1.505975e+14	3.774945e+14	8.937543e+03	5.822313e+03	2.545778e+03	0	7.708422e-04
1.600000e+08	9.266908e+12	0.000000e+00	4.572863e-01	2.103843e+14	1.526881e+14	3.754641e+14	8.919060e+03	5.834573e+03	2.551139e+03	0	7.659136e-04
1.700000e+08	9.089860e+12	0.000000e+00	4.572863e-01	2.076247e+14	1.547671e+14	3.734487e+14	8.900819e+03	5.846639e+03	2.556414e+03	0	7.610045e-04
1.800000e+08	8.915763e+12	0.000000e+00	4.572863e-01	2.049105e+14	1.568340e+14	3.714482e+14	8.882816e+03	5.858513e+03	2.561606e+03	0	7.561146e-04
1.900000e+08	8.744564e+12	0.000000e+00	4.572863e-01	2.022410e+14	1.588882e+14	3.694624e+14	8.865048e+03	5.870198e+03	2.566716e+03	0	7.512437e-04
2.000000e+08	8.576211e+12	0.000000e+00	4.572863e-01	1.996153e+14	1.609292e+14	3.674912e+14	8.847511e+03	5.881696e+03	2.571743e+03	0	7.463914e-04
2.100000e+08	8.410655e+12	0.000000e+00	4.572863e-01	1.970327e+14	1.629567e+14	3.655345e+14	8.830200e+03	5.893008e+03	2.576689e+03	0	7.415573e-04
2.200000e+08	8.247846e+12	0.000000e+00	4.572863e-01	1.944925e+14	1.649700e+14	3.635922e+14	8.813113e+03	5.904137e+03	2.581555e+03	0	7.367412e-04
2.300000e+08	8.087735e+12	0.000000e+00	4.572863e-01	1.919938e+14	1.669689e+14	3.616641e+14	8.796246e+03	5.915084e+03	2.586342e+03	0	7.319427e-04
2.400000e+08	7.930276e+12	0.000000e+00	4.572863e-01	1.895360e+14	1.689527e+14	3.597502e+14	8.779594e+03	5.925852e+03	2.591050e+03	0	7.271616e-04
2.500000e+08	7.775423e+12	0.000000e+00	4.572863e-01	1.871183e+14	1.709211e+14	3.578503e+14	8.763155e+03	5.936443e+03	2.595681e+03	0	7.223973e-04
2.600000e+08	7.623129e+12	0.000000e+00	4.572863e-01	1.847400e+14	1.728738e+14	3.559642e+14	8.746925e+03	5.946858e+03	2.600235e+03	0	7.176498e-04
2.700000e+08	7.473351e+12	0.000000e+00	4.572863e-01	1.824006e+14	1.748103e+14	3.540920e+14	8.730901e+03	5.957099e+03	2.604713e+03	0	7.129186e-04
2.800000e+08	7.326045e+12	0.000000e+00	4.572863e-01	1.800992e+14	1.767302e+14	3.522335e+14	8.715079e+03	5.967169e+03	2.609116e+03	0	7.082034e-04
2.900000e+08	7.181169e+12	0.000000e+00	4.572863e-01	1.778353e+14	1.786333e+14	3.503885e+14	8.699456e+03	5.977069e+03	2.613444e+03	0	7.035039e-04
3.000000e+08	7.038680e+12	0.000000e+00	4.572863e-01	1.756081e+14	1.805191e+14	3.485570e+14	8.684028e+03	5.986801e+03	2.617700e+03	0	6.988198e-04
3.100000e+08	6.898537e+12	0.000000e+00	4.572863e-01	1.734171e+14	1.823874e+14	3.467388e+14	8.668794e+03	5.996367e+03	2.621883e+03	0	6.941507e-04
3.200000e+08	6.760700e+12	0.000000e+00	4.572863e-01	1.712617e+14	1.842378e+14	3.449338e+14	8.653748e+03	6.005769e+03	2.625994e+03	0	6.894964e-04
3.300000e+08	6.625130e+12	0.000000e+00	4.572863e-01	1.691412e+14	1.860700e+14	3.431420e+14	8.638890e+03	6.015009e+03	2.630034e+03	0	6.848565e-04
3.400000e+08	6.491788e+12	0.000000e+00	4.572863e-01	1.670551e+14	1.878838e+14	3.413632e+14	8.624214e+03	6.024089e+03	2.634004e+03	0	6.802307e-04
3.500000e+08	6.360636e+12	0.000000e+00	4.572863e-01	1.650027e+14	1.896788e+14	3.395972e+14	8.609720e+03	6.033010e+03	2.637905e+03	0	6.756187e-04
3.600000e+08	6.231636e+12	0.000000e+00	4.572863e-01	1.629835e+14	1.914549e+14	3.378441e+14	8.595402e+03	6.041775e+03	2.641737e+03	0	6.710200e-04
3.700000e+08	6.104752e+12	0.000000e+00	4.572863e-01	1.609969e+14	1.932118e+14	3.361037e+14	8.581260e+03	6.050384e+03	2.645501e+03	0	6.664345e-04
3.800000e+08	5.979947e+12	0.000000e+00	4.572863e-01	1.590424e+14	1.949492e+14	3.343759e+14	8.567289e+03	6.058841e+03	2.649199e+03	0	6.618617e-04
3.900000e+08	5.857188e+12	0.000000e+00	4.572863e-01	1.571194e+14	1.966670e+14	3.326605e+14	8.553488e+03	6.067146e+03	2.652830e+03	0	6.573013e-04
4.000000e+08	5.736438e+12	0.000000e+00	4.572863e-01	1.552275e+14	1.983649e+14	3.309576e+14	8.539853e+03	6.075302e+03	2.656397e+03	0	6.527530e-04
4.100000e+08	5.617663e+12	0.000000e+00	4.572863e-01	1.533659e+14	2.000428e+14	3.292669e+14	8.526381e+03	6.083311e+03	2.659898e+03	0	6.482164e-04
4.200000e+08	5.500831e+12	0.000000e+00	4.572863e-01	1.515343e+14	2.017005e+14	3.275885e+14	8.513071e+03	6.091173e+03	2.663336e+03	0	6.436912e-04
4.300000e+08	5.385908e+12	0.000000e+00	4.572863e-01	1.497322e+14	2.033378e+14	3.259221e+14	8.499919e+03	6.098891e+03	2.666711e+03	0	6.391770e-04
4.400000e+08	5.272862e+12	0.000000e+00	4.572863e-01	1.479590e+14	2.049546e+14	3.242677e+14	8.486923e+03	6.106467e+03	2.670023e+03	0	6.346734e-04
4.500000e+08	5.161662e+12	0.000000e+00	4.572863e-01	1.462143e+14	2.065508e+14	3.226251e+14	8.474081e+03	6.113902e+03	2.673274e+03	0	6.301800e-04
4.600000e+08	5.052275e+12	0.000000e+00	4.572863e-01	1.444975e+14	2.081261e+14	3.209944e+14	8.461390e+03	6.121198e+03	2.676464e+03	0	6.256966e-04
4.700000e+08	4.944672e+12	0.000000e+00	4.572863e-01	1.428083e+14	2.096806e+14	3.193754e+14	8.448847e+03	6.128356e+03	2.679594e+03	0	6.212227e-04
4.800000e+08	4.838822e+12	0.000000e+00	4.572863e-01	1.411461e+14	2.112141e+14	3.177680e+14	8.436451e+03	6.135379e+03	2.682665e+03	0	6.167579e-04
4.900000e+08	4.734696e+12	0.000000e+00	4.572863e-01	1.395104e+14	2.127265e+14	3.161720e+14	8.424198e+03	6.142268e+03	2.685677e+03	0	6.123018e-04
5.000000e+08	4.632264e+12	0.000000e+00	4.572863e-01	1.379010e+14	2.142177e+14	3.145875e+14	8.412088e+03	6.149025e+03	2.688631e+03	0	6.078540e-04
5.100000e+08	4.531499e+12	0.000000e+00	4.572863e-01	1.363172e+14	2.156878e+14	3.130144e+14	8.400116e+03	6.155651e+03	2.691529e+03	0	6.034140e-04
5.200000e+08	4.432371e+12	0.000000e+00	4.572863e-01	1.347587e+14	2.171365e+14	3.114524e+14	8.388282e+03	6.162148e+03	2.694369e+03	0	5.989816e-04
5.300000e+08	4.334853e+12	0.000000e+00	4.572863e-01	1.332250e+14	2.185639e+14	3.099016e+14	8.376582e+03	6.168518e+03	2.697155e+03	0	5.945562e-04
5.400000e+08	4.238918e+12	0.000000e+00	4.572863e-01	1.317157e+14	2.199700e+14	3.083618e+14	8.365016e+03	6.174761e+03	2.699885e+03	0	5.901374e-04
5.500000e+08	4.144539e+12	0.000000e+00	4.572863e-01	1.302305e+14	2.213546e+14	3.068330e+14	8.353580e+03	6.180881e+03	2.702560e+03	0	5.857247e-04
5.600000e+08	4.051691e+12	0.000000e+00	4.572863e-01	1.287689e+14	2.227178e+14	3.053150e+14	8.342273e+03	6.186878e+03	2.705182e+03	0	5.813177e-04
5.700000e+08	3.960346e+12	0.000000e+00	4.572863e-01	1.273305e+14	2.240596e+14	3.038079e+14	8.331092e+03	6.192754e+03	2.707752e+03	0	5.769159e-04
5.800000e+08	3.870481e+12	0.000000e+00	4.572863e-01	1.259149e+14	2.253799e+14	3.023114e+14	8.320036e+03	6.198510e+03	2.710268e+03	0	5.725188e-04
5.900000e+08	3.782069e+12	0.000000e+00	4.572863e-01	1.245217e+14	2.266789e+14	3.008255e+14	8.309102e+03	6.204148e+03	2.712734e+03	0	5.681259e-04
6.000000e+08	3.695086e+12	0.000000e+00	4.572863e-01	1.231506e+14	2.279565e+14	2.993502e+14	8.298290e+03	6.209670e+03	2.715148e+03	0	5.637367e-04
6.100000e+08	3.609508e+12	0.000000e+00	4.572863e-01	1.218011e+14	2.292127e+14	2.978853e+14	8.287595e+03	6.215076e+03	2.717512e+03	0	5.593506e-04
6.200000e+08	3.525312e+12	0.000000e+00	4.572863e-01	1.204730e+14	2.304475e+14	2.964307e+14	8.277018e+03	6.220370e+03	2.719827e+03	0	5.549672e-04
6.300000e+08	3.442473e+12	0.000000e+00	4.572863e-01	1.191659e+14	2.316610e+14	2.949864e+14	8.266556e+03	6.225551e+03	2.722092e+03	0	5.505858e-04
6.400000e+08	3.360970e+12	0.000000e+00	4.572863e-01	1.178794e+14	2.328533e+14	2.935523e+14	8.256208e+03	6.230622e+03	2.724309e+03	0	5.462058e-04
6.500000e+08	3.280778e+12	0.000000e+00	4.572863e-01	1.166131e+14	2.340244e+14	2.921283e+14	8.245970e+03	6.235583e+03	2.726479e+03	0	5.418267e-04
6.600000e+08	3.201878e+12	0.000000e+00	4.572863e-01	1.153667e+14	2.351743e+14	2.907143e+14	8.235843e+03	6.240437e+03	2.728601e+03	0	5.374479e-04
6.700000e+08	3.124245e+12	0.000000e+00	4.572863e-01	1.141399e+14	2.363032e+14	2.893102e+14	8.225823e+03	6.245185e+03	2.730677e+03	0	5.330687e-04
6.800000e+08	3.047859e+12	0.000000e+00	4.572863e-01	1.129324e+14	2.374111e+14	2.879161e+14	8.215910e+03	6.249828e+03	2.732707e+03	0	5.286884e-04
6.900000e+08	2.972699e+12	0.000000e+00	4.572863e-01	1.117438e+14	2.384981e+14	2.865317e+14	8.206101e+03	6.254368e+03	2.734692e+03	0	5.243064e-04
7.000000e+08	2.898745e+12	0.000000e+00	4.572863e-01	1.105738e+14	2.395642e+14	2.851570e+14	8.196395e+03	6.258805e+03	2.736632e+03	0	5.199219e-04
7.100000e+08	2.825974e+12	0.000000e+00	4.572863e-01	1.094221e+14	2.406096e+14	2.837919e+14	8.186791e+03	6.263142e+03	2.738529e+03	0	5.155343e-04
7.200000e+08	2.754369e+12	0.000000e+00	4.572863e-01	1.082884e+14	2.416344e+14	2.824364e+14	8.177286e+03	6.267380e+03	2.740382e+03	0	5.111427e-04
7.300000e+08	2.683908e+12	0.000000e+00	4.572863e-01	1.071724e+14	2.426387e+14	2.810903e+14	8.167880e+03	6.271520e+03	2.742192e+03	0	5.067464e-04
7.400000e+08	2.614572e+12	0.000000e+00	4.572863e-01	1.060737e+14	2.436225e+14	2.797536e+14	8.158571e+03	6.275563e+03	2.743960e+03	0	5.023445e-04
7.500000e+08	2.546342e+12	0.000000e+00	4.572863e-01	1.049921e+14	2.445860e+14	2.784263e+14	8.149356e+03	6.279511e+03	2.745686e+03	0	4.979362e-04
7.600000e+08	2.479200e+12	0.000000e+00	4.572863e-01	1.039274e+14	2.455294e+14	2.771082e+14	8.140236e+03	6.283365e+03	2.747371e+03	0	4.935207e-04
7.700000e+08	2.413127e+12	0.000000e+00	4.572863e-01	1.028791e+14	2.464526e+14	2.757993e+14	8.131207e+03	6.287126e+03	2.749015e+03	0	4.890969e-04
7.800000e+08	2.348105e+12	0.000000e+00	4.572863e-01	1.018471e+14	2.473560e+14	2.744994e+14	8.122270e+03	6.290796e+03	2.750620e+03	0	4.846639e-04
7.900000e+08	2.284116e+12	0.000000e+00	4.572863e-01	1.008310e+14	2.482396e+14	2.732086e+14	8.113422e+03	6.294375e+03	2.752185e+03	0	4.802207e-04
8.000000e+08	2.221142e+12	0.000000e+00	4.572863e-01	9.983065e+13	2.491034e+14	2.719268e+14	8.104662e+03	6.297866e+03	2.753712e+03	0	4.757662e-04
8.100000e+08	2.159167e+12	0.000000e+00	4.572863e-01	9.884571e+13	2.499478e+14	2.706538e+14	8.095989e+03	6.301269e+03	2.755200e+03	0	4.712994e-04
8.200000e+08	2.098173e+12	0.000000e+00	4.572863e-01	9.787593e+13	2.507728e+14	2.693897e+14	8.087401e+03	6.304586e+03	2.756650e+03	0	4.668190e-04
8.300000e+08	2.038143e+12	0.000000e+00	4.572863e-01	9.692105e+13	2.515785e+14	2.681343e+14	8.078898e+03	6.307818e+03	2.758063e+03	0	4.623239e-04
8.400000e+08	1.979061e+12	0.000000e+00	4.572863e-01	9.598083e+13	2.523651e+14	2.668875e+14	8.070477e+03	6.310965e+03	2.759439e+03	0	4.578127e-04
8.500000e+08	1.920911e+12	0.000000e+00	4.572863e-01	9.505502e+13	2.531328e+14	2.656494e+14	8.062137e+03	6.314030e+03	2.760779e+03	0	4.532842e-04
8.600000e+08	1.863677e+12	0.000000e+00	4.572863e-01	9.414337e+13	2.538818e+14	2.644198e+14	8.053878e+03	6.317013e+03	2.762083e+03	0	4.487368e-04
8.700000e+08	1.807344e+12	0.000000e+00	4.572863e-01	9.324564e+13	2.546121e+14	2.631986e+14	8.045698e+03	6.319915e+03	2.763352e+03	0	4.441692e-04
8.800000e+08	1.751896e+12	0.000000e+00	4.572863e-01	9.236159e+13	2.553239e+14	2.619859e+14	8.037596e+03	6.322738e+03	2.764587e+03	0	4.395797e-04
8.900000e+08	1.697318e+12	0.000000e+00	4.572863e-01	9.149101e+13	2.560174e+14	2.607815e+14	8.029570e+03	6.325483e+03	2.765787e+03	0	4.349666e-04
9.000000e+08	1.643595e+12	0.000000e+00	4.572863e-01	9.063364e+13	2.566928e+14	2.595853e+14	8.021620e+03	6.328151e+03	2.766953e+03	0	4.303282e-04
9.100000e+08	1.590713e+12	0.000000e+00	4.572863e-01	8.978928e+13	2.573503e+14	2.583974e+14	8.013745e+03	6.330742e+03	2.768086e+03	0	4.256626e-04
9.200000e+08	1.538658e+12	0.000000e+00	4.572863e-01	8.895770e+13	2.579899e+14	2.572176e+14	8.005942e+03	6.333259e+03	2.769187e+03	0	4.209677e-04
9.300000e+08	1.487415e+12	0.000000e+00	4.572863e-01	8.813869e+13	2.586119e+14	2.560458e+14	7.998212e+03	6.335702e+03	2.770255e+03	0	4.162416e-04
9.400000e+08	1.436970e+12	0.000000e+00	4.572863e-01	8.733203e+13	2.592165e+14	2.548821e+14	7.990552e+03	6.338072e+03	2.771291e+03	0	4.114818e-04
9.500000e+08	1.387310e+12	0.000000e+00	4.572863e-01	8.653751e+13	2.598038e+14	2.537263e+14	7.982963e+03	6.340371e+03	2.772296e+03	0	4.066860e-04
9.600000e+08	1.338421e+12	0.000000e+00	4.572863e-01	8.575493e+13	2.603739e+14	2.525784e+14	7.975442e+03	6.342599e+03	2.773271e+03	0	4.018516e-04
9.700000e+08	1.290291e+12	0.000000e+00	4.572863e-01	8.498409e+13	2.609272e+14	2.514383e+14	7.967990e+03	6.344757e+03	2.774214e+03	0	3.969758e-04
9.800000e+08	1.242906e+12	0.000000e+00	4.572863e-01	8.422478e+13	2.614636e+14	2.503060e+14	7.960604e+03	6.346846e+03	2.775128e+03	0	3.920555e-04
9.900000e+08	1.196254e+12	0.000000e+00	4.572863e-01	8.347681e+13	2.619835e+14	2.491814e+14	7.953284e+03	6.348868e+03	2.776012e+03	0	3.870876e-04
1.000000e+09	1.150322e+12	0.000000e+00	4.572863e-01	8.273999e+13	2.624871e+14	2.480644e+14	7.946029e+03	6.350824e+03	2.776867e+03	0	3.820685e-04
1.010000e+09	1.105098e+12	0.000000e+00	4.572863e-01	8.201413e+13	2.629743e+14	2.469549e+14	7.938838e+03	6.352713e+03	2.777693e+03	0	3.769945e-04
1.020000e+09	1.060570e+12	0.000000e+00	4.572863e-01	8.129904e+13	2.634456e+14	2.458530e+14	7.931710e+03	6.354538e+03	2.778491e+03	0	3.718615e-04
1.030000e+09	1.016726e+12	0.000000e+00	4.572863e-01	8.059455e+13	2.639010e+14	2.447586e+14	7.924644e+03	6.356300e+03	2.779261e+03	0	3.666649e-04
1.040000e+09	9.735538e+11	0.000000e+00	4.572863e-01	7.990046e+13	2.643407e+14	2.436715e+14	7.917639e+03	6.357998e+03	2.780004e+03	0	3.614000e-04
1.050000e+09	9.310430e+11	0.000000e+00	4.572863e-01	7.921662e+13	2.647649e+14	2.425918e+14	7.910694e+03	6.359635e+03	2.780720e+03	0	3.560612e-04
1.060000e+09	8.891818e+11	0.000000e+00	4.572863e-01	7.854283e+13	2.651739e+14	2.415194e+14	7.903808e+03	6.361210e+03	2.781408e+03	0	3.506428e-04
1.070000e+09	8.479592e+11	0.000000e+00	4.572863e-01	7.787894e+13	2.655677e+14	2.404542e+14	7.896981e+03	6.362726e+03	2.782071e+03	0	3.451383e-04
1.080000e+09	8.073643e+11	0.000000e+00	4.572863e-01	7.722478e+13	2.659465e+14	2.393961e+14	7.890212e+03	6.364183e+03	2.782708e+03	0	3.395403e-04
1.090000e+09	7.673865e+11	0.000000e+00	4.572863e-01	7.658017e+13	2.663106e+14	2.383452e+14	7.883499e+03	6.365581e+03	2.783320e+03	0	3.338409e-04
1.100000e+09	7.280152e+11	0.000000e+00	4.572863e-01	7.594497e+13	2.666601e+14	2.373013e+14	7.876842e+03	6.366922e+03	2.783906e+03	0	3.280310e-04
1.110000e+09	6.892401e+11	0.000000e+00	4.572863e-01	7.531901e+13	2.669953e+14	2.362645e+14	7.870241e+03	6.368207e+03	2.784468e+03	0	3.221007e-04
1.120000e+09	6.510511e+11	0.000000e+00	4.572863e-01	7.470213e+13	2.673162e+14	2.352345e+14	7.863693e+03	6.369436e+03	2.785005e+03	0	3.160384e-04
1.130000e+09	6.134383e+11	0.000000e+00	4.572863e-01	7.409418e+13	2.676230e+14	2.342115e+14	7.857199e+03	6.370610e+03	2.785518e+03	0	3.098312e-04
1.140000e+09	5.763918e+11	0.000000e+00	4.572863e-01	7.349502e+13	2.679161e+14	2.331953e+14	7.850758e+03	6.371730e+03	2.786008e+03	0	3.034641e-04
1.150000e+09	5.399020e+11	0.000000e+00	4.572863e-01	7.290449e+13	2.681954e+14	2.321859e+14	7.844369e+03	6.372797e+03	2.786475e+03	0	2.969202e-04
1.160000e+09	5.039594e+11	0.000000e+00	4.572863e-01	7.232244e+13	2.684613e+14	2.311832e+14	7.838031e+03	6.373812e+03	2.786919e+03	0	2.901795e-04
1.170000e+09	4.685549e+11	0.000000e+00	4.572863e-01	7.174874e+13	2.687138e+14	2.301872e+14	7.831744e+03	6.374776e+03	2.787340e+03	0	2.832185e-04
1.180000e+09	4.336791e+11	0.000000e+00	4.572863e-01	7.118324e+13	2.689532e+14	2.291979e+14	7.825506e+03	6.375688e+03	2.787739e+03	0	2.760097e-04
1.190000e+09	3.993233e+11	0.000000e+00	4.572863e-01	7.062581e+13	2.691796e+14	2.282151e+14	7.819318e+03	6.376551e+03	2.788116e+03	0	2.685198e-04
1.200000e+09	3.654785e+11	0.000000e+00	4.572863e-01	7.007631e+13	2.693933e+14	2.272388e+14	7.813178e+03	6.377364e+03	2.788472e+03	0	2.607086e-04
1.210000e+09	3.321362e+11	0.000000e+00	4.572863e-01	6.953461e+13	2.695944e+14	2.262690e+14	7.807085e+03	6.378129e+03	2.788806e+03	0	2.525264e-04
1.220000e+09	2.992877e+11	0.000000e+00	4.572863e-01	6.900058e+13	2.697830e+14	2.253057e+14	7.801040e+03	6.378847e+03	2.789120e+03	0	2.439108e-04
1.230000e+09	2.669248e+11	0.000000e+00	4.572863e-01	6.847408e+13	2.699594e+14	2.243487e+14	7.795041e+03	6.379517e+03	2.789413e+03	0	2.347818e-04
1.240000e+09	2.350392e+11	0.000000e+00	4.572863e-01	6.795499e+13	2.701237e+14	2.233980e+14	7.789087e+03	6.380141e+03	2.789686e+03	0	2.250341e-04
1.250000e+09	2.036229e+11	0.000000e+00	4.572863e-01	6.744319e+13	2.702761e+14	2.224536e+14	7.783179e+03	6.380720e+03	2.789939e+03	0	2.145246e-04
1.260000e+09	1.726680e+11	0.000000e+00	4.572863e-01	6.693855e+13	2.704168e+14	2.215154e+14	7.777315e+03	6.381254e+03	2.790173e+03	0	2.030511e-04
1.270000e+09	1.421666e+11	0.000000e+00	4.572863e-01	6.644096e+13	2.705459e+14	2.205835e+14	7.771495e+03	6.381744e+03	2.790387e+03	0	1.903125e-04
1.280000e+09	1.121111e+11	0.000000e+00	4.572863e-01	6.595030e+13	2.706637e+14	2.196576e+14	7.765718e+03	6.382191e+03	2.790582e+03	0	1.758265e-04
1.290000e+09	8.249394e+10	0.000000e+00	4.572863e-01	6.546645e+13	2.707702e+14	2.187378e+14	7.759984e+03	6.382595e+03	2.790759e+03	0	1.587360e-04
1.300000e+09	5.330782e+10	0.000000e+00	4.572863e-01	6.498930e+13	2.708656e+14	2.178241e+14	7.754291e+03	6.382956e+03	2.790917e+03	0	1.372351e-04
1.310000e+09	2.454544e+10	0.000000e+00	4.572863e-01	6.451873e+13	2.709502e+14	2.169164e+14	7.748640e+03	6.383277e+03	2.791057e+03	0	1.059722e-04
1.320000e+09	-3.800314e+09	0.000000e+00	4.572863e-01	6.405464e+13	2.710240e+14	2.160146e+14	7.743030e+03	6.383557e+03	2.791179e+03	0	nan
