#t		Qconv[W]	Ri[Rp]		R*[Rp]		Qc[W]		Qm[W]		Qr[W]		Tcmb[K]		Tl[K]		Tup[K]		RiFlag		Bs[T]
0.000000e+00	3.068609e+13	0.000000e+00	4.522614e-01	6.104636e+14	1.111975e+14	6.284057e+14	1.276397e+04	7.352350e+03	2.646596e+03	0	1.131118e-03
1.000000e+07	3.004499e+13	0.000000e+00	4.522614e-01	6.025641e+14	1.135845e+14	6.249239e+14	1.273229e+04	7.374546e+03	2.654585e+03	0	1.123185e-03
2.000000e+07	2.941410e+13	0.000000e+00	4.522614e-01	5.947884e+14	1.159807e+14	6.214681e+14	1.270102e+04	7.396471e+03	2.662478e+03	0	1.115268e-03
3.000000e+07	2.879321e+13	0.000000e+00	4.522614e-01	5.871340e+14	1.183856e+14	6.180381e+14	1.267015e+04	7.418127e+03	2.670273e+03	0	1.107365e-03
4.000000e+07	2.818215e+13	0.000000e+00	4.522614e-01	5.795988e+14	1.207985e+14	6.146338e+14	1.263968e+04	7.439516e+03	2.677973e+03	0	1.099475e-03
5.000000e+07	2.758072e+13	0.000000e+00	4.522614e-01	5.721806e+14	1.232186e+14	6.112548e+14	1.260960e+04	7.460643e+03	2.685577e+03	0	1.091598e-03
6.000000e+07	2.698875e+13	0.000000e+00	4.522614e-01	5.648771e+14	1.256452e+14	6.079010e+14	1.257990e+04	7.481509e+03	2.693088e+03	0	1.083731e-03
7.000000e+07	2.640605e+13	0.000000e+00	4.522614e-01	5.576863e+14	1.280777e+14	6.045722e+14	1.255058e+04	7.502117e+03	2.700506e+03	0	1.075875e-03
8.000000e+07	2.583247e+13	0.000000e+00	4.522614e-01	5.506061e+14	1.305153e+14	6.012682e+14	1.252163e+04	7.522469e+03	2.707833e+03	0	1.068028e-03
9.000000e+07	2.526782e+13	0.000000e+00	4.522614e-01	5.436346e+14	1.329575e+14	5.979887e+14	1.249305e+04	7.542569e+03	2.715068e+03	0	1.060189e-03
1.000000e+08	2.471196e+13	0.000000e+00	4.522614e-01	5.367697e+14	1.354035e+14	5.947336e+14	1.246483e+04	7.562418e+03	2.722213e+03	0	1.052357e-03
1.100000e+08	2.416472e+13	0.000000e+00	4.522614e-01	5.300095e+14	1.378527e+14	5.915026e+14	1.243696e+04	7.582019e+03	2.729269e+03	0	1.044531e-03
1.200000e+08	2.362594e+13	0.000000e+00	4.522614e-01	5.233523e+14	1.403044e+14	5.882956e+14	1.240944e+04	7.601376e+03	2.736236e+03	0	1.036710e-03
1.300000e+08	2.309548e+13	0.000000e+00	4.522614e-01	5.167962e+14	1.427580e+14	5.851123e+14	1.238227e+04	7.620489e+03	2.743116e+03	0	1.028892e-03
1.400000e+08	2.257318e+13	0.000000e+00	4.522614e-01	5.103393e+14	1.452129e+14	5.819526e+14	1.235544e+04	7.639362e+03	2.749910e+03	0	1.021077e-03
1.500000e+08	2.205892e+13	0.000000e+00	4.522614e-01	5.039801e+14	1.476685e+14	5.788162e+14	1.232894e+04	7.657997e+03	2.756618e+03	0	1.013263e-03
1.600000e+08	2.155253e+13	0.000000e+00	4.522614e-01	4.977168e+14	1.501240e+14	5.757030e+14	1.230277e+04	7.676396e+03	2.763241e+03	0	1.005449e-03
1.700000e+08	2.105390e+13	0.000000e+00	4.522614e-01	4.915477e+14	1.525790e+14	5.726128e+14	1.227692e+04	7.694562e+03	2.769780e+03	0	9.976348e-04
1.800000e+08	2.056288e+13	0.000000e+00	4.522614e-01	4.854713e+14	1.550327e+14	5.695454e+14	1.225139e+04	7.712498e+03	2.776236e+03	0	9.898181e-04
1.900000e+08	2.007934e+13	0.000000e+00	4.522614e-01	4.794859e+14	1.574847e+14	5.665005e+14	1.222618e+04	7.730204e+03	2.782610e+03	0	9.819979e-04
2.000000e+08	1.960315e+13	0.000000e+00	4.522614e-01	4.735901e+14	1.599343e+14	5.634781e+14	1.220128e+04	7.747684e+03	2.788902e+03	0	9.741730e-04
2.100000e+08	1.913420e+13	0.000000e+00	4.522614e-01	4.677822e+14	1.623809e+14	5.604779e+14	1.217668e+04	7.764940e+03	2.795114e+03	0	9.663420e-04
2.200000e+08	1.867236e+13	0.000000e+00	4.522614e-01	4.620609e+14	1.648241e+14	5.574997e+14	1.215238e+04	7.781974e+03	2.801246e+03	0	9.585037e-04
2.300000e+08	1.821750e+13	0.000000e+00	4.522614e-01	4.564247e+14	1.672632e+14	5.545434e+14	1.212838e+04	7.798789e+03	2.807298e+03	0	9.506566e-04
2.400000e+08	1.776951e+13	0.000000e+00	4.522614e-01	4.508722e+14	1.696976e+14	5.516087e+14	1.210467e+04	7.815386e+03	2.813273e+03	0	9.427993e-04
2.500000e+08	1.732828e+13	0.000000e+00	4.522614e-01	4.454020e+14	1.721270e+14	5.486956e+14	1.208125e+04	7.831768e+03	2.819170e+03	0	9.349304e-04
2.600000e+08	1.689370e+13	0.000000e+00	4.522614e-01	4.400127e+14	1.745506e+14	5.458037e+14	1.205811e+04	7.847937e+03	2.824990e+03	0	9.270482e-04
2.700000e+08	1.646565e+13	0.000000e+00	4.522614e-01	4.347030e+14	1.769681e+14	5.429330e+14	1.203525e+04	7.863895e+03	2.830734e+03	0	9.191513e-04
2.800000e+08	1.604402e+13	0.000000e+00	4.522614e-01	4.294717e+14	1.793789e+14	5.400833e+14	1.201267e+04	7.879643e+03	2.836403e+03	0	9.112381e-04
2.900000e+08	1.562872e+13	0.000000e+00	4.522614e-01	4.243174e+14	1.817825e+14	5.372544e+14	1.199036e+04	7.895186e+03	2.841998e+03	0	9.033068e-04
3.000000e+08	1.521964e+13	0.000000e+00	4.522614e-01	4.192389e+14	1.841785e+14	5.344461e+14	1.196831e+04	7.910523e+03	2.847519e+03	0	8.953557e-04
3.100000e+08	1.481668e+13	0.000000e+00	4.522614e-01	4.142350e+14	1.865663e+14	5.316582e+14	1.194653e+04	7.925658e+03	2.852967e+03	0	8.873830e-04
3.200000e+08	1.441974e+13	0.000000e+00	4.522614e-01	4.093045e+14	1.889455e+14	5.288906e+14	1.192500e+04	7.940592e+03	2.858343e+03	0	8.793867e-04
3.300000e+08	1.402872e+13	0.000000e+00	4.522614e-01	4.044462e+14	1.913156e+14	5.261432e+14	1.190374e+04	7.955327e+03	2.863647e+03	0	8.713650e-04
3.400000e+08	1.364353e+13	0.000000e+00	4.522614e-01	3.996589e+14	1.936762e+14	5.234157e+14	1.188272e+04	7.969866e+03	2.868880e+03	0	8.633157e-04
3.500000e+08	1.326407e+13	0.000000e+00	4.522614e-01	3.949415e+14	1.960269e+14	5.207080e+14	1.186195e+04	7.984211e+03	2.874044e+03	0	8.552367e-04
3.600000e+08	1.289025e+13	0.000000e+00	4.522614e-01	3.902930e+14	1.983673e+14	5.180199e+14	1.184143e+04	7.998363e+03	2.879138e+03	0	8.471258e-04
3.700000e+08	1.252199e+13	0.000000e+00	4.522614e-01	3.857122e+14	2.006969e+14	5.153513e+14	1.182114e+04	8.012324e+03	2.884164e+03	0	8.389805e-04
3.800000e+08	1.215919e+13	0.000000e+00	4.522614e-01	3.811981e+14	2.030153e+14	5.127021e+14	1.180110e+04	8.026096e+03	2.889121e+03	0	8.307984e-04
3.900000e+08	1.180177e+13	0.000000e+00	4.522614e-01	3.767496e+14	2.053222e+14	5.100719e+14	1.178128e+04	8.039682e+03	2.894012e+03	0	8.225769e-04
4.000000e+08	1.144965e+13	0.000000e+00	4.522614e-01	3.723657e+14	2.076172e+14	5.074608e+14	1.176170e+04	8.053082e+03	2.898835e+03	0	8.143132e-04
4.100000e+08	1.110273e+13	0.000000e+00	4.522614e-01	3.680454e+14	2.098999e+14	5.048684e+14	1.174235e+04	8.066300e+03	2.903593e+03	0	8.060044e-04
4.200000e+08	1.076095e+13	0.000000e+00	4.522614e-01	3.637876e+14	2.121699e+14	5.022948e+14	1.172322e+04	8.079336e+03	2.908286e+03	0	7.976474e-04
4.300000e+08	1.042421e+13	0.000000e+00	4.522614e-01	3.595915e+14	2.144269e+14	4.997397e+14	1.170431e+04	8.092193e+03	2.912914e+03	0	7.892390e-04
4.400000e+08	1.009245e+13	0.000000e+00	4.522614e-01	3.554560e+14	2.166706e+14	4.972030e+14	1.168562e+04	8.104873e+03	2.917478e+03	0	7.807757e-04
4.500000e+08	9.765576e+12	0.000000e+00	4.522614e-01	3.513803e+14	2.189006e+14	4.946845e+14	1.166714e+04	8.117377e+03	2.921979e+03	0	7.722538e-04
4.600000e+08	9.443521e+12	0.000000e+00	4.522614e-01	3.473634e+14	2.211166e+14	4.921841e+14	1.164887e+04	8.129707e+03	2.926418e+03	0	7.636694e-04
4.700000e+08	9.126209e+12	0.000000e+00	4.522614e-01	3.434044e+14	2.233184e+14	4.897016e+14	1.163082e+04	8.141866e+03	2.930794e+03	0	7.550184e-04
4.800000e+08	8.813566e+12	0.000000e+00	4.522614e-01	3.395024e+14	2.255055e+14	4.872370e+14	1.161296e+04	8.153854e+03	2.935110e+03	0	7.462963e-04
4.900000e+08	8.505521e+12	0.000000e+00	4.522614e-01	3.356565e+14	2.276778e+14	4.847899e+14	1.159531e+04	8.165673e+03	2.939364e+03	0	7.374984e-04
5.000000e+08	8.202003e+12	0.000000e+00	4.522614e-01	3.318659e+14	2.298350e+14	4.823604e+14	1.157786e+04	8.177326e+03	2.943559e+03	0	7.286194e-04
5.100000e+08	7.902942e+12	0.000000e+00	4.522614e-01	3.281297e+14	2.319767e+14	4.799482e+14	1.156061e+04	8.188813e+03	2.947694e+03	0	7.196539e-04
5.200000e+08	7.608269e+12	0.000000e+00	4.522614e-01	3.244472e+14	2.341029e+14	4.775532e+14	1.154355e+04	8.200138e+03	2.951770e+03	0	7.105959e-04
5.300000e+08	7.317919e+12	0.000000e+00	4.522614e-01	3.208174e+14	2.362131e+14	4.751753e+14	1.152668e+04	8.211301e+03	2.955789e+03	0	7.014391e-04
5.400000e+08	7.031824e+12	0.000000e+00	4.522614e-01	3.172396e+14	2.383071e+14	4.728144e+14	1.151000e+04	8.222304e+03	2.959749e+03	0	6.921764e-04
5.500000e+08	6.749921e+12	0.000000e+00	4.522614e-01	3.137130e+14	2.403848e+14	4.704702e+14	1.149350e+04	8.233149e+03	2.963653e+03	0	6.828002e-04
5.600000e+08	6.472144e+12	0.000000e+00	4.522614e-01	3.102369e+14	2.424459e+14	4.681427e+14	1.147719e+04	8.243837e+03	2.967500e+03	0	6.733024e-04
5.700000e+08	6.198431e+12	0.000000e+00	4.522614e-01	3.068103e+14	2.444901e+14	4.658318e+14	1.146106e+04	8.254370e+03	2.971292e+03	0	6.636738e-04
5.800000e+08	5.928721e+12	0.000000e+00	4.522614e-01	3.034327e+14	2.465174e+14	4.635372e+14	1.144510e+04	8.264750e+03	2.975029e+03	0	6.539047e-04
5.900000e+08	5.662952e+12	0.000000e+00	4.522614e-01	3.001033e+14	2.485276e+14	4.612589e+14	1.142932e+04	8.274979e+03	2.978711e+03	0	6.439840e-04
6.000000e+08	5.401066e+12	0.000000e+00	4.522614e-01	2.968213e+14	2.505203e+14	4.589968e+14	1.141372e+04	8.285057e+03	2.982339e+03	0	6.338998e-04
6.100000e+08	5.143002e+12	0.000000e+00	4.522614e-01	2.935860e+14	2.524956e+14	4.567506e+14	1.139828e+04	8.294988e+03	2.985913e+03	0	6.236386e-04
6.200000e+08	4.888704e+12	0.000000e+00	4.522614e-01	2.903967e+14	2.544531e+14	4.545203e+14	1.138301e+04	8.304771e+03	2.989435e+03	0	6.131857e-04
6.300000e+08	4.638115e+12	0.000000e+00	4.522614e-01	2.872528e+14	2.563927e+14	4.523057e+14	1.136791e+04	8.314409e+03	2.992904e+03	0	6.025243e-04
6.400000e+08	4.391178e+12	0.000000e+00	4.522614e-01	2.841535e+14	2.583144e+14	4.501068e+14	1.135297e+04	8.323903e+03	2.996322e+03	0	5.916358e-04
6.500000e+08	4.147838e+12	0.000000e+00	4.522614e-01	2.810982e+14	2.602179e+14	4.479234e+14	1.133819e+04	8.333256e+03	2.999688e+03	0	5.804989e-04
6.600000e+08	3.908042e+12	0.000000e+00	4.522614e-01	2.780862e+14	2.621032e+14	4.457553e+14	1.132357e+04	8.342467e+03	3.003004e+03	0	5.690894e-04
6.700000e+08	3.671735e+12	0.000000e+00	4.522614e-01	2.751168e+14	2.639701e+14	4.436024e+14	1.130910e+04	8.351540e+03	3.006270e+03	0	5.573798e-04
6.800000e+08	3.438866e+12	0.000000e+00	4.522614e-01	2.721895e+14	2.658185e+14	4.414647e+14	1.129479e+04	8.360475e+03	3.009486e+03	0	5.453381e-04
6.900000e+08	3.209383e+12	0.000000e+00	4.522614e-01	2.693036e+14	2.676482e+14	4.393420e+14	1.128064e+04	8.369273e+03	3.012653e+03	0	5.329273e-04
7.000000e+08	2.983234e+12	0.000000e+00	4.522614e-01	2.664585e+14	2.694592e+14	4.372342e+14	1.126663e+04	8.377937e+03	3.015772e+03	0	5.201036e-04
7.100000e+08	2.760370e+12	0.000000e+00	4.522614e-01	2.636536e+14	2.712515e+14	4.351411e+14	1.125277e+04	8.386469e+03	3.018843e+03	0	5.068155e-04
7.200000e+08	2.540742e+12	0.000000e+00	4.522614e-01	2.608882e+14	2.730249e+14	4.330626e+14	1.123905e+04	8.394868e+03	3.021866e+03	0	4.930008e-04
7.300000e+08	2.324300e+12	0.000000e+00	4.522614e-01	2.581618e+14	2.747793e+14	4.309987e+14	1.122548e+04	8.403137e+03	3.024843e+03	0	4.785840e-04
7.400000e+08	2.110998e+12	0.000000e+00	4.522614e-01	2.554738e+14	2.765147e+14	4.289492e+14	1.121205e+04	8.411277e+03	3.027773e+03	0	4.634719e-04
7.500000e+08	1.900788e+12	0.000000e+00	4.522614e-01	2.528236e+14	2.782310e+14	4.269140e+14	1.119876e+04	8.419290e+03	3.030658e+03	0	4.475470e-04
7.600000e+08	1.693623e+12	0.000000e+00	4.522614e-01	2.502107e+14	2.799282e+14	4.248929e+14	1.118561e+04	8.427177e+03	3.033497e+03	0	4.306585e-04
7.700000e+08	1.489459e+12	0.000000e+00	4.522614e-01	2.476345e+14	2.816061e+14	4.228859e+14	1.117259e+04	8.434939e+03	3.036291e+03	0	4.126073e-04
7.800000e+08	1.288250e+12	0.000000e+00	4.522614e-01	2.450945e+14	2.832648e+14	4.208929e+14	1.115970e+04	8.442578e+03	3.039041e+03	0	3.931221e-04
7.900000e+08	1.089952e+12	0.000000e+00	4.522614e-01	2.425901e+14	2.849043e+14	4.189137e+14	1.114695e+04	8.450095e+03	3.041746e+03	0	3.718175e-04
8.000000e+08	8.945213e+11	0.000000e+00	4.522614e-01	2.401208e+14	2.865245e+14	4.169482e+14	1.113433e+04	8.457492e+03	3.044409e+03	0	3.481163e-04
8.100000e+08	7.019154e+11	0.000000e+00	4.522614e-01	2.376860e+14	2.881253e+14	4.149964e+14	1.112184e+04	8.464769e+03	3.047029e+03	0	3.210867e-04
8.200000e+08	5.120920e+11	0.000000e+00	4.522614e-01	2.352853e+14	2.897068e+14	4.130580e+14	1.110947e+04	8.471929e+03	3.049606e+03	0	2.890525e-04
8.300000e+08	3.250095e+11	0.000000e+00	4.522614e-01	2.329182e+14	2.912689e+14	4.111331e+14	1.109723e+04	8.478972e+03	3.052141e+03	0	2.484045e-04
8.400000e+08	1.406268e+11	0.000000e+00	4.522614e-01	2.305841e+14	2.928117e+14	4.092214e+14	1.108511e+04	8.485900e+03	3.054635e+03	0	1.878812e-04
8.500000e+08	-4.109635e+10	0.000000e+00	4.522614e-01	2.282826e+14	2.943351e+14	4.073230e+14	1.107311e+04	8.492714e+03	3.057088e+03	0	nan
