#t		Qconv[W]	Ri[Rp]		R*[Rp]		Qc[W]		Qm[W]		Qr[W]		Tcmb[K]		Tl[K]		Tup[K]		RiFlag		Bs[T]
0.000000e+00	4.050834e+13	0.000000e+00	4.472361e-01	8.239984e+14	1.043391e+14	7.348305e+14	1.438142e+04	8.144021e+03	2.720193e+03	0	1.242293e-03
1.000000e+07	3.958530e+13	0.000000e+00	4.472361e-01	8.133800e+14	1.066856e+14	7.307590e+14	1.434508e+04	8.169203e+03	2.728604e+03	0	1.232785e-03
2.000000e+07	3.867709e+13	0.000000e+00	4.472361e-01	8.029289e+14	1.090444e+14	7.267180e+14	1.430920e+04	8.194089e+03	2.736916e+03	0	1.223284e-03
3.000000e+07	3.778339e+13	0.000000e+00	4.472361e-01	7.926416e+14	1.114150e+14	7.227071e+14	1.427379e+04	8.218683e+03	2.745131e+03	0	1.213788e-03
4.000000e+07	3.690393e+13	0.000000e+00	4.472361e-01	7.825151e+14	1.137967e+14	7.187262e+14	1.423882e+04	8.242988e+03	2.753249e+03	0	1.204297e-03
5.000000e+07	3.603844e+13	0.000000e+00	4.472361e-01	7.725462e+14	1.161888e+14	7.147750e+14	1.420430e+04	8.267006e+03	2.761271e+03	0	1.194807e-03
6.000000e+07	3.518662e+13	0.000000e+00	4.472361e-01	7.627320e+14	1.185907e+14	7.108532e+14	1.417022e+04	8.290742e+03	2.769199e+03	0	1.185319e-03
7.000000e+07	3.434824e+13	0.000000e+00	4.472361e-01	7.530695e+14	1.210017e+14	7.069607e+14	1.413657e+04	8.314199e+03	2.777034e+03	0	1.175829e-03
8.000000e+07	3.352302e+13	0.000000e+00	4.472361e-01	7.435558e+14	1.234213e+14	7.030971e+14	1.410334e+04	8.337378e+03	2.784776e+03	0	1.166336e-03
9.000000e+07	3.271071e+13	0.000000e+00	4.472361e-01	7.341881e+14	1.258488e+14	6.992622e+14	1.407053e+04	8.360283e+03	2.792427e+03	0	1.156838e-03
1.000000e+08	3.191108e+13	0.000000e+00	4.472361e-01	7.249639e+14	1.282835e+14	6.954558e+14	1.403813e+04	8.382918e+03	2.799987e+03	0	1.147334e-03
1.100000e+08	3.112389e+13	0.000000e+00	4.472361e-01	7.158803e+14	1.307250e+14	6.916776e+14	1.400614e+04	8.405284e+03	2.807458e+03	0	1.137821e-03
1.200000e+08	3.034890e+13	0.000000e+00	4.472361e-01	7.069349e+14	1.331724e+14	6.879275e+14	1.397455e+04	8.427385e+03	2.814840e+03	0	1.128297e-03
1.300000e+08	2.958589e+13	0.000000e+00	4.472361e-01	6.981250e+14	1.356254e+14	6.842051e+14	1.394335e+04	8.449223e+03	2.822134e+03	0	1.118761e-03
1.400000e+08	2.883464e+13	0.000000e+00	4.472361e-01	6.894484e+14	1.380831e+14	6.805103e+14	1.391254e+04	8.470801e+03	2.829341e+03	0	1.109211e-03
1.500000e+08	2.809494e+13	0.000000e+00	4.472361e-01	6.809025e+14	1.405451e+14	6.768427e+14	1.388211e+04	8.492123e+03	2.836463e+03	0	1.099643e-03
1.600000e+08	2.736657e+13	0.000000e+00	4.472361e-01	6.724850e+14	1.430107e+14	6.732023e+14	1.385206e+04	8.513190e+03	2.843499e+03	0	1.090057e-03
1.700000e+08	2.664934e+13	0.000000e+00	4.472361e-01	6.641938e+14	1.454794e+14	6.695887e+14	1.382238e+04	8.534005e+03	2.850452e+03	0	1.080450e-03
1.800000e+08	2.594304e+13	0.000000e+00	4.472361e-01	6.560264e+14	1.479506e+14	6.660018e+14	1.379306e+04	8.554571e+03	2.857321e+03	0	1.070819e-03
1.900000e+08	2.524747e+13	0.000000e+00	4.472361e-01	6.479808e+14	1.504237e+14	6.624413e+14	1.376410e+04	8.574890e+03	2.864108e+03	0	1.061162e-03
2.000000e+08	2.456246e+13	0.000000e+00	4.472361e-01	6.400549e+14	1.528982e+14	6.589070e+14	1.373549e+04	8.594966e+03	2.870813e+03	0	1.051477e-03
2.100000e+08	2.388781e+13	0.000000e+00	4.472361e-01	6.322465e+14	1.553735e+14	6.553986e+14	1.370724e+04	8.614799e+03	2.877438e+03	0	1.041761e-03
2.200000e+08	2.322335e+13	0.000000e+00	4.472361e-01	6.245536e+14	1.578491e+14	6.519161e+14	1.367932e+04	8.634394e+03	2.883983e+03	0	1.032011e-03
2.300000e+08	2.256889e+13	0.000000e+00	4.472361e-01	6.169743e+14	1.603243e+14	6.484591e+14	1.365175e+04	8.653752e+03	2.890449e+03	0	1.022224e-03
2.400000e+08	2.192426e+13	0.000000e+00	4.472361e-01	6.095067e+14	1.627988e+14	6.450274e+14	1.362451e+04	8.672876e+03	2.896836e+03	0	1.012397e-03
2.500000e+08	2.128930e+13	0.000000e+00	4.472361e-01	6.021487e+14	1.652719e+14	6.416209e+14	1.359760e+04	8.691768e+03	2.903146e+03	0	1.002528e-03
2.600000e+08	2.066384e+13	0.000000e+00	4.472361e-01	5.948987e+14	1.677432e+14	6.382393e+14	1.357101e+04	8.710430e+03	2.909380e+03	0	9.926121e-04
2.700000e+08	2.004772e+13	0.000000e+00	4.472361e-01	5.877547e+14	1.702121e+14	6.348825e+14	1.354474e+04	8.728865e+03	2.915537e+03	0	9.826470e-04
2.800000e+08	1.944078e+13	0.000000e+00	4.472361e-01	5.807150e+14	1.726781e+14	6.315501e+14	1.351878e+04	8.747076e+03	2.921620e+03	0	9.726287e-04
2.900000e+08	1.884286e+13	0.000000e+00	4.472361e-01	5.737778e+14	1.751408e+14	6.282421e+14	1.349314e+04	8.765064e+03	2.927628e+03	0	9.625534e-04
3.000000e+08	1.825382e+13	0.000000e+00	4.472361e-01	5.669415e+14	1.775997e+14	6.249582e+14	1.346780e+04	8.782832e+03	2.933563e+03	0	9.524169e-04
3.100000e+08	1.767350e+13	0.000000e+00	4.472361e-01	5.602045e+14	1.800542e+14	6.216982e+14	1.344276e+04	8.800382e+03	2.939425e+03	0	9.422152e-04
3.200000e+08	1.710177e+13	0.000000e+00	4.472361e-01	5.535649e+14	1.825040e+14	6.184619e+14	1.341802e+04	8.817716e+03	2.945214e+03	0	9.319435e-04
3.300000e+08	1.653848e+13	0.000000e+00	4.472361e-01	5.470214e+14	1.849485e+14	6.152492e+14	1.339357e+04	8.834836e+03	2.950933e+03	0	9.215970e-04
3.400000e+08	1.598349e+13	0.000000e+00	4.472361e-01	5.405723e+14	1.873873e+14	6.120598e+14	1.336941e+04	8.851745e+03	2.956581e+03	0	9.111707e-04
3.500000e+08	1.543666e+13	0.000000e+00	4.472361e-01	5.342161e+14	1.898201e+14	6.088935e+14	1.334553e+04	8.868445e+03	2.962158e+03	0	9.006589e-04
3.600000e+08	1.489787e+13	0.000000e+00	4.472361e-01	5.279512e+14	1.922463e+14	6.057502e+14	1.332193e+04	8.884937e+03	2.967667e+03	0	8.900559e-04
3.700000e+08	1.436698e+13	0.000000e+00	4.472361e-01	5.217763e+14	1.946655e+14	6.026296e+14	1.329861e+04	8.901224e+03	2.973107e+03	0	8.793553e-04
3.800000e+08	1.384387e+13	0.000000e+00	4.472361e-01	5.156899e+14	1.970773e+14	5.995317e+14	1.327556e+04	8.917309e+03	2.978480e+03	0	8.685504e-04
3.900000e+08	1.332840e+13	0.000000e+00	4.472361e-01	5.096905e+14	1.994813e+14	5.964561e+14	1.325278e+04	8.933192e+03	2.983785e+03	0	8.576339e-04
4.000000e+08	1.282047e+13	0.000000e+00	4.472361e-01	5.037768e+14	2.018771e+14	5.934027e+14	1.323027e+04	8.948876e+03	2.989024e+03	0	8.465978e-04
4.100000e+08	1.231994e+13	0.000000e+00	4.472361e-01	4.979475e+14	2.042643e+14	5.903714e+14	1.320801e+04	8.964364e+03	2.994197e+03	0	8.354338e-04
4.200000e+08	1.182669e+13	0.000000e+00	4.472361e-01	4.922012e+14	2.066426e+14	5.873619e+14	1.318601e+04	8.979657e+03	2.999304e+03	0	8.241324e-04
4.300000e+08	1.134062e+13	0.000000e+00	4.472361e-01	4.865365e+14	2.090116e+14	5.843741e+14	1.316426e+04	8.994757e+03	3.004348e+03	0	8.126837e-04
4.400000e+08	1.086161e+13	0.000000e+00	4.472361e-01	4.809523e+14	2.113709e+14	5.814077e+14	1.314277e+04	9.009665e+03	3.009328e+03	0	8.010765e-04
4.500000e+08	1.038955e+13	0.000000e+00	4.472361e-01	4.754473e+14	2.137201e+14	5.784627e+14	1.312152e+04	9.024385e+03	3.014244e+03	0	7.892989e-04
4.600000e+08	9.924331e+12	0.000000e+00	4.472361e-01	4.700201e+14	2.160590e+14	5.755389e+14	1.310051e+04	9.038918e+03	3.019098e+03	0	7.773375e-04
4.700000e+08	9.465841e+12	0.000000e+00	4.472361e-01	4.646697e+14	2.183872e+14	5.726360e+14	1.307974e+04	9.053265e+03	3.023891e+03	0	7.651776e-04
4.800000e+08	9.013978e+12	0.000000e+00	4.472361e-01	4.593949e+14	2.207043e+14	5.697539e+14	1.305921e+04	9.067429e+03	3.028621e+03	0	7.528031e-04
4.900000e+08	8.568639e+12	0.000000e+00	4.472361e-01	4.541944e+14	2.230101e+14	5.668924e+14	1.303891e+04	9.081412e+03	3.033292e+03	0	7.401956e-04
5.000000e+08	8.129723e+12	0.000000e+00	4.472361e-01	4.490671e+14	2.253042e+14	5.640514e+14	1.301884e+04	9.095215e+03	3.037902e+03	0	7.273349e-04
5.100000e+08	7.697129e+12	0.000000e+00	4.472361e-01	4.440119e+14	2.275863e+14	5.612307e+14	1.299899e+04	9.108840e+03	3.042453e+03	0	7.141983e-04
5.200000e+08	7.270762e+12	0.000000e+00	4.472361e-01	4.390277e+14	2.298562e+14	5.584301e+14	1.297937e+04	9.122290e+03	3.046945e+03	0	7.007598e-04
5.300000e+08	6.850524e+12	0.000000e+00	4.472361e-01	4.341134e+14	2.321136e+14	5.556495e+14	1.295996e+04	9.135565e+03	3.051379e+03	0	6.869901e-04
5.400000e+08	6.436322e+12	0.000000e+00	4.472361e-01	4.292680e+14	2.343582e+14	5.528887e+14	1.294078e+04	9.148667e+03	3.055756e+03	0	6.728555e-04
5.500000e+08	6.028063e+12	0.000000e+00	4.472361e-01	4.244903e+14	2.365897e+14	5.501476e+14	1.292181e+04	9.161599e+03	3.060075e+03	0	6.583171e-04
5.600000e+08	5.625657e+12	0.000000e+00	4.472361e-01	4.197795e+14	2.388078e+14	5.474259e+14	1.290304e+04	9.174363e+03	3.064338e+03	0	6.433297e-04
5.700000e+08	5.229013e+12	0.000000e+00	4.472361e-01	4.151344e+14	2.410124e+14	5.447236e+14	1.288449e+04	9.186959e+03	3.068546e+03	0	6.278402e-04
5.800000e+08	4.838045e+12	0.000000e+00	4.472361e-01	4.105540e+14	2.432032e+14	5.420404e+14	1.286614e+04	9.199389e+03	3.072698e+03	0	6.117855e-04
5.900000e+08	4.452667e+12	0.000000e+00	4.472361e-01	4.060375e+14	2.453800e+14	5.393763e+14	1.284799e+04	9.211656e+03	3.076795e+03	0	5.950899e-04
6.000000e+08	4.072793e+12	0.000000e+00	4.472361e-01	4.015838e+14	2.475424e+14	5.367310e+14	1.283005e+04	9.223761e+03	3.080838e+03	0	5.776614e-04
6.100000e+08	3.698341e+12	0.000000e+00	4.472361e-01	3.971919e+14	2.496904e+14	5.341044e+14	1.281229e+04	9.235705e+03	3.084827e+03	0	5.593859e-04
6.200000e+08	3.329229e+12	0.000000e+00	4.472361e-01	3.928611e+14	2.518237e+14	5.314964e+14	1.279474e+04	9.247491e+03	3.088764e+03	0	5.401202e-04
6.300000e+08	2.965376e+12	0.000000e+00	4.472361e-01	3.885903e+14	2.539421e+14	5.289068e+14	1.277737e+04	9.259119e+03	3.092648e+03	0	5.196797e-04
6.400000e+08	2.606703e+12	0.000000e+00	4.472361e-01	3.843786e+14	2.560455e+14	5.263355e+14	1.276019e+04	9.270592e+03	3.096480e+03	0	4.978208e-04
6.500000e+08	2.253132e+12	0.000000e+00	4.472361e-01	3.802252e+14	2.581335e+14	5.237822e+14	1.274320e+04	9.281911e+03	3.100261e+03	0	4.742108e-04
6.600000e+08	1.904588e+12	0.000000e+00	4.472361e-01	3.761293e+14	2.602061e+14	5.212470e+14	1.272639e+04	9.293078e+03	3.103991e+03	0	4.483766e-04
6.700000e+08	1.560995e+12	0.000000e+00	4.472361e-01	3.720898e+14	2.622631e+14	5.187296e+14	1.270976e+04	9.304094e+03	3.107670e+03	0	4.196073e-04
6.800000e+08	1.222279e+12	0.000000e+00	4.472361e-01	3.681061e+14	2.643043e+14	5.162298e+14	1.269331e+04	9.314960e+03	3.111300e+03	0	3.867521e-04
6.900000e+08	8.883676e+11	0.000000e+00	4.472361e-01	3.641773e+14	2.663296e+14	5.137476e+14	1.267703e+04	9.325680e+03	3.114880e+03	0	3.477284e-04
7.000000e+08	5.591890e+11	0.000000e+00	4.472361e-01	3.603026e+14	2.683388e+14	5.112828e+14	1.266093e+04	9.336253e+03	3.118411e+03	0	2.980086e-04
7.100000e+08	2.346729e+11	0.000000e+00	4.472361e-01	3.564812e+14	2.703318e+14	5.088352e+14	1.264500e+04	9.346681e+03	3.121895e+03	0	2.231157e-04
7.200000e+08	-8.524984e+10	0.000000e+00	4.472361e-01	3.527122e+14	2.723084e+14	5.064048e+14	1.262924e+04	9.356967e+03	3.125330e+03	0	nan
