#t		Qconv[W]	Ri[Rp]		R*[Rp]		Qc[W]		Qm[W]		Qr[W]		Tcmb[K]		Tl[K]		Tup[K]		RiFlag		Bs[T]
0.000000e+00	1.500086e+12	0.000000e+00	8.571428e-01	3.607411e+13	3.313381e+13	1.696682e+13	5.201309e+03	2.457209e+03	2.177516e+03	0	3.352676e-04
1.000000e+07	1.493637e+12	0.000000e+00	8.571428e-01	3.592915e+13	3.394254e+13	1.687281e+13	5.194897e+03	2.466585e+03	2.185824e+03	0	3.347865e-04
2.000000e+07	1.486988e+12	0.000000e+00	8.571428e-01	3.577982e+13	3.472190e+13	1.677951e+13	5.188510e+03	2.475462e+03	2.193692e+03	0	3.342889e-04
3.000000e+07	1.480155e+12	0.000000e+00	8.571428e-01	3.562651e+13	3.547095e+13	1.668690e+13	5.182151e+03	2.483855e+03	2.201129e+03	0	3.337761e-04
4.000000e+07	1.473155e+12	0.000000e+00	8.571428e-01	3.546957e+13	3.618893e+13	1.659498e+13	5.175818e+03	2.491776e+03	2.208148e+03	0	3.332491e-04
5.000000e+07	1.466004e+12	0.000000e+00	8.571428e-01	3.530935e+13	3.687530e+13	1.650375e+13	5.169513e+03	2.499239e+03	2.214762e+03	0	3.327091e-04
6.000000e+07	1.458718e+12	0.000000e+00	8.571428e-01	3.514619e+13	3.752967e+13	1.641320e+13	5.163237e+03	2.506257e+03	2.220981e+03	0	3.321570e-04
7.000000e+07	1.451311e+12	0.000000e+00	8.571428e-01	3.498041e+13	3.815186e+13	1.632332e+13	5.156989e+03	2.512846e+03	2.226820e+03	0	3.315938e-04
8.000000e+07	1.443797e+12	0.000000e+00	8.571428e-01	3.481229e+13	3.874182e+13	1.623412e+13	5.150771e+03	2.519020e+03	2.232291e+03	0	3.310205e-04
9.000000e+07	1.436187e+12	0.000000e+00	8.571428e-01	3.464212e+13	3.929967e+13	1.614557e+13	5.144583e+03	2.524793e+03	2.237407e+03	0	3.304379e-04
1.000000e+08	1.428495e+12	0.000000e+00	8.571428e-01	3.447016e+13	3.982565e+13	1.605768e+13	5.138425e+03	2.530181e+03	2.242182e+03	0	3.298469e-04
1.100000e+08	1.420731e+12	0.000000e+00	8.571428e-01	3.429666e+13	4.032014e+13	1.597045e+13	5.132298e+03	2.535198e+03	2.246627e+03	0	3.292483e-04
1.200000e+08	1.412907e+12	0.000000e+00	8.571428e-01	3.412185e+13	4.078360e+13	1.588386e+13	5.126201e+03	2.539858e+03	2.250757e+03	0	3.286428e-04
1.300000e+08	1.405031e+12	0.000000e+00	8.571428e-01	3.394594e+13	4.121661e+13	1.579791e+13	5.120135e+03	2.544176e+03	2.254584e+03	0	3.280310e-04
1.400000e+08	1.397113e+12	0.000000e+00	8.571428e-01	3.376914e+13	4.161983e+13	1.571260e+13	5.114101e+03	2.548168e+03	2.258121e+03	0	3.274136e-04
1.500000e+08	1.389162e+12	0.000000e+00	8.571428e-01	3.359162e+13	4.199397e+13	1.562792e+13	5.108098e+03	2.551845e+03	2.261380e+03	0	3.267913e-04
1.600000e+08	1.381185e+12	0.000000e+00	8.571428e-01	3.341356e+13	4.233984e+13	1.554386e+13	5.102126e+03	2.555223e+03	2.264373e+03	0	3.261646e-04
1.700000e+08	1.373190e+12	0.000000e+00	8.571428e-01	3.323513e+13	4.265827e+13	1.546043e+13	5.096186e+03	2.558315e+03	2.267113e+03	0	3.255341e-04
1.800000e+08	1.365184e+12	0.000000e+00	8.571428e-01	3.305646e+13	4.295012e+13	1.537761e+13	5.090278e+03	2.561133e+03	2.269611e+03	0	3.249002e-04
1.900000e+08	1.357172e+12	0.000000e+00	8.571428e-01	3.287770e+13	4.321631e+13	1.529540e+13	5.084401e+03	2.563692e+03	2.271878e+03	0	3.242633e-04
2.000000e+08	1.349161e+12	0.000000e+00	8.571428e-01	3.269897e+13	4.345776e+13	1.521379e+13	5.078557e+03	2.566002e+03	2.273926e+03	0	3.236240e-04
2.100000e+08	1.341155e+12	0.000000e+00	8.571428e-01	3.252039e+13	4.367542e+13	1.513279e+13	5.072743e+03	2.568076e+03	2.275764e+03	0	3.229827e-04
2.200000e+08	1.333160e+12	0.000000e+00	8.571428e-01	3.234206e+13	4.387021e+13	1.505237e+13	5.066962e+03	2.569927e+03	2.277403e+03	0	3.223396e-04
2.300000e+08	1.325181e+12	0.000000e+00	8.571428e-01	3.216408e+13	4.404312e+13	1.497255e+13	5.061212e+03	2.571564e+03	2.278854e+03	0	3.216952e-04
2.400000e+08	1.317220e+12	0.000000e+00	8.571428e-01	3.198654e+13	4.419507e+13	1.489332e+13	5.055494e+03	2.572998e+03	2.280126e+03	0	3.210498e-04
2.500000e+08	1.309282e+12	0.000000e+00	8.571428e-01	3.180952e+13	4.432700e+13	1.481467e+13	5.049807e+03	2.574241e+03	2.281227e+03	0	3.204036e-04
2.600000e+08	1.301371e+12	0.000000e+00	8.571428e-01	3.163309e+13	4.443984e+13	1.473659e+13	5.044152e+03	2.575302e+03	2.282167e+03	0	3.197569e-04
2.700000e+08	1.293489e+12	0.000000e+00	8.571428e-01	3.145733e+13	4.453450e+13	1.465908e+13	5.038528e+03	2.576190e+03	2.282954e+03	0	3.191101e-04
2.800000e+08	1.285640e+12	0.000000e+00	8.571428e-01	3.128229e+13	4.461185e+13	1.458214e+13	5.032935e+03	2.576915e+03	2.283596e+03	0	3.184632e-04
2.900000e+08	1.277825e+12	0.000000e+00	8.571428e-01	3.110803e+13	4.467278e+13	1.450576e+13	5.027373e+03	2.577485e+03	2.284102e+03	0	3.178167e-04
3.000000e+08	1.270047e+12	0.000000e+00	8.571428e-01	3.093461e+13	4.471814e+13	1.442993e+13	5.021842e+03	2.577909e+03	2.284477e+03	0	3.171705e-04
3.100000e+08	1.262309e+12	0.000000e+00	8.571428e-01	3.076206e+13	4.474871e+13	1.435466e+13	5.016342e+03	2.578195e+03	2.284731e+03	0	3.165250e-04
3.200000e+08	1.254611e+12	0.000000e+00	8.571428e-01	3.059042e+13	4.476532e+13	1.427994e+13	5.010873e+03	2.578350e+03	2.284868e+03	0	3.158804e-04
3.300000e+08	1.246957e+12	0.000000e+00	8.571428e-01	3.041974e+13	4.476872e+13	1.420576e+13	5.005434e+03	2.578382e+03	2.284896e+03	0	3.152366e-04
3.400000e+08	1.239346e+12	0.000000e+00	8.571428e-01	3.025005e+13	4.475965e+13	1.413211e+13	5.000025e+03	2.578297e+03	2.284821e+03	0	3.145940e-04
3.500000e+08	1.231782e+12	0.000000e+00	8.571428e-01	3.008138e+13	4.473882e+13	1.405901e+13	4.994646e+03	2.578102e+03	2.284649e+03	0	3.139527e-04
3.600000e+08	1.224264e+12	0.000000e+00	8.571428e-01	2.991374e+13	4.470690e+13	1.398643e+13	4.989298e+03	2.577804e+03	2.284384e+03	0	3.133127e-04
3.700000e+08	1.216794e+12	0.000000e+00	8.571428e-01	2.974718e+13	4.466456e+13	1.391438e+13	4.983979e+03	2.577408e+03	2.284033e+03	0	3.126741e-04
3.800000e+08	1.209373e+12	0.000000e+00	8.571428e-01	2.958170e+13	4.461240e+13	1.384285e+13	4.978689e+03	2.576920e+03	2.283601e+03	0	3.120372e-04
3.900000e+08	1.202002e+12	0.000000e+00	8.571428e-01	2.941732e+13	4.455105e+13	1.377183e+13	4.973429e+03	2.576345e+03	2.283091e+03	0	3.114019e-04
4.000000e+08	1.194681e+12	0.000000e+00	8.571428e-01	2.925407e+13	4.448105e+13	1.370133e+13	4.968199e+03	2.575689e+03	2.282510e+03	0	3.107685e-04
4.100000e+08	1.187412e+12	0.000000e+00	8.571428e-01	2.909195e+13	4.440296e+13	1.363134e+13	4.962997e+03	2.574955e+03	2.281860e+03	0	3.101368e-04
4.200000e+08	1.180193e+12	0.000000e+00	8.571428e-01	2.893097e+13	4.431730e+13	1.356186e+13	4.957824e+03	2.574150e+03	2.281146e+03	0	3.095071e-04
4.300000e+08	1.173027e+12	0.000000e+00	8.571428e-01	2.877114e+13	4.422454e+13	1.349287e+13	4.952679e+03	2.573276e+03	2.280372e+03	0	3.088794e-04
4.400000e+08	1.165913e+12	0.000000e+00	8.571428e-01	2.861248e+13	4.412517e+13	1.342438e+13	4.947563e+03	2.572339e+03	2.279541e+03	0	3.082537e-04
4.500000e+08	1.158852e+12	0.000000e+00	8.571428e-01	2.845498e+13	4.401963e+13	1.335638e+13	4.942475e+03	2.571341e+03	2.278657e+03	0	3.076301e-04
4.600000e+08	1.151843e+12	0.000000e+00	8.571428e-01	2.829866e+13	4.390833e+13	1.328887e+13	4.937415e+03	2.570288e+03	2.277724e+03	0	3.070087e-04
4.700000e+08	1.144888e+12	0.000000e+00	8.571428e-01	2.814351e+13	4.379168e+13	1.322184e+13	4.932383e+03	2.569181e+03	2.276743e+03	0	3.063895e-04
4.800000e+08	1.137985e+12	0.000000e+00	8.571428e-01	2.798954e+13	4.367006e+13	1.315530e+13	4.927378e+03	2.568025e+03	2.275719e+03	0	3.057725e-04
4.900000e+08	1.131136e+12	0.000000e+00	8.571428e-01	2.783674e+13	4.354381e+13	1.308923e+13	4.922401e+03	2.566823e+03	2.274653e+03	0	3.051578e-04
5.000000e+08	1.124340e+12	0.000000e+00	8.571428e-01	2.768513e+13	4.341329e+13	1.302363e+13	4.917451e+03	2.565577e+03	2.273549e+03	0	3.045454e-04
5.100000e+08	1.117597e+12	0.000000e+00	8.571428e-01	2.753469e+13	4.327882e+13	1.295850e+13	4.912527e+03	2.564291e+03	2.272409e+03	0	3.039354e-04
5.200000e+08	1.110907e+12	0.000000e+00	8.571428e-01	2.738542e+13	4.314069e+13	1.289384e+13	4.907630e+03	2.562966e+03	2.271235e+03	0	3.033277e-04
5.300000e+08	1.104269e+12	0.000000e+00	8.571428e-01	2.723733e+13	4.299919e+13	1.282963e+13	4.902760e+03	2.561606e+03	2.270030e+03	0	3.027224e-04
5.400000e+08	1.097685e+12	0.000000e+00	8.571428e-01	2.709041e+13	4.285458e+13	1.276589e+13	4.897916e+03	2.560212e+03	2.268795e+03	0	3.021195e-04
5.500000e+08	1.091153e+12	0.000000e+00	8.571428e-01	2.694466e+13	4.270714e+13	1.270260e+13	4.893099e+03	2.558788e+03	2.267532e+03	0	3.015191e-04
5.600000e+08	1.084674e+12	0.000000e+00	8.571428e-01	2.680007e+13	4.255709e+13	1.263976e+13	4.888307e+03	2.557334e+03	2.266244e+03	0	3.009211e-04
5.700000e+08	1.078247e+12	0.000000e+00	8.571428e-01	2.665663e+13	4.240466e+13	1.257736e+13	4.883540e+03	2.555854e+03	2.264932e+03	0	3.003256e-04
5.800000e+08	1.071872e+12	0.000000e+00	8.571428e-01	2.651434e+13	4.225006e+13	1.251541e+13	4.878800e+03	2.554348e+03	2.263598e+03	0	2.997325e-04
5.900000e+08	1.065548e+12	0.000000e+00	8.571428e-01	2.637320e+13	4.209350e+13	1.245389e+13	4.874084e+03	2.552819e+03	2.262243e+03	0	2.991419e-04
6.000000e+08	1.059276e+12	0.000000e+00	8.571428e-01	2.623320e+13	4.193517e+13	1.239282e+13	4.869394e+03	2.551269e+03	2.260869e+03	0	2.985538e-04
6.100000e+08	1.053055e+12	0.000000e+00	8.571428e-01	2.609433e+13	4.177523e+13	1.233217e+13	4.864728e+03	2.549698e+03	2.259477e+03	0	2.979682e-04
6.200000e+08	1.046885e+12	0.000000e+00	8.571428e-01	2.595658e+13	4.161386e+13	1.227195e+13	4.860087e+03	2.548109e+03	2.258069e+03	0	2.973851e-04
6.300000e+08	1.040765e+12	0.000000e+00	8.571428e-01	2.581995e+13	4.145121e+13	1.221216e+13	4.855471e+03	2.546502e+03	2.256645e+03	0	2.968044e-04
6.400000e+08	1.034695e+12	0.000000e+00	8.571428e-01	2.568443e+13	4.128744e+13	1.215279e+13	4.850878e+03	2.544880e+03	2.255208e+03	0	2.962263e-04
6.500000e+08	1.028675e+12	0.000000e+00	8.571428e-01	2.555001e+13	4.112268e+13	1.209384e+13	4.846310e+03	2.543243e+03	2.253757e+03	0	2.956507e-04
6.600000e+08	1.022704e+12	0.000000e+00	8.571428e-01	2.541669e+13	4.095706e+13	1.203530e+13	4.841766e+03	2.541592e+03	2.252294e+03	0	2.950776e-04
6.700000e+08	1.016782e+12	0.000000e+00	8.571428e-01	2.528445e+13	4.079070e+13	1.197717e+13	4.837245e+03	2.539929e+03	2.250820e+03	0	2.945069e-04
6.800000e+08	1.010909e+12	0.000000e+00	8.571428e-01	2.515328e+13	4.062372e+13	1.191946e+13	4.832748e+03	2.538255e+03	2.249337e+03	0	2.939388e-04
6.900000e+08	1.005084e+12	0.000000e+00	8.571428e-01	2.502319e+13	4.045623e+13	1.186214e+13	4.828274e+03	2.536570e+03	2.247844e+03	0	2.933732e-04
7.000000e+08	9.993072e+11	0.000000e+00	8.571428e-01	2.489416e+13	4.028833e+13	1.180523e+13	4.823823e+03	2.534876e+03	2.246343e+03	0	2.928100e-04
7.100000e+08	9.935776e+11	0.000000e+00	8.571428e-01	2.476617e+13	4.012010e+13	1.174872e+13	4.819395e+03	2.533174e+03	2.244834e+03	0	2.922493e-04
7.200000e+08	9.878951e+11	0.000000e+00	8.571428e-01	2.463923e+13	3.995164e+13	1.169260e+13	4.814990e+03	2.531463e+03	2.243318e+03	0	2.916911e-04
7.300000e+08	9.822591e+11	0.000000e+00	8.571428e-01	2.451332e+13	3.978304e+13	1.163687e+13	4.810608e+03	2.529746e+03	2.241797e+03	0	2.911353e-04
7.400000e+08	9.766695e+11	0.000000e+00	8.571428e-01	2.438844e+13	3.961437e+13	1.158154e+13	4.806247e+03	2.528023e+03	2.240270e+03	0	2.905820e-04
7.500000e+08	9.711256e+11	0.000000e+00	8.571428e-01	2.426457e+13	3.944570e+13	1.152659e+13	4.801909e+03	2.526294e+03	2.238738e+03	0	2.900312e-04
7.600000e+08	9.656272e+11	0.000000e+00	8.571428e-01	2.414171e+13	3.927710e+13	1.147202e+13	4.797593e+03	2.524561e+03	2.237201e+03	0	2.894828e-04
7.700000e+08	9.601737e+11	0.000000e+00	8.571428e-01	2.401985e+13	3.910863e+13	1.141783e+13	4.793299e+03	2.522823e+03	2.235661e+03	0	2.889368e-04
7.800000e+08	9.547649e+11	0.000000e+00	8.571428e-01	2.389897e+13	3.894035e+13	1.136402e+13	4.789026e+03	2.521082e+03	2.234118e+03	0	2.883932e-04
7.900000e+08	9.494002e+11	0.000000e+00	8.571428e-01	2.377907e+13	3.877233e+13	1.131058e+13	4.784775e+03	2.519337e+03	2.232572e+03	0	2.878521e-04
8.000000e+08	9.440793e+11	0.000000e+00	8.571428e-01	2.366014e+13	3.860460e+13	1.125751e+13	4.780545e+03	2.517590e+03	2.231024e+03	0	2.873133e-04
8.100000e+08	9.388018e+11	0.000000e+00	8.571428e-01	2.354217e+13	3.843722e+13	1.120482e+13	4.776337e+03	2.515841e+03	2.229474e+03	0	2.867769e-04
8.200000e+08	9.335671e+11	0.000000e+00	8.571428e-01	2.342516e+13	3.827023e+13	1.115248e+13	4.772149e+03	2.514091e+03	2.227923e+03	0	2.862429e-04
8.300000e+08	9.283751e+11	0.000000e+00	8.571428e-01	2.330908e+13	3.810368e+13	1.110051e+13	4.767982e+03	2.512339e+03	2.226371e+03	0	2.857113e-04
8.400000e+08	9.232251e+11	0.000000e+00	8.571428e-01	2.319394e+13	3.793760e+13	1.104889e+13	4.763835e+03	2.510586e+03	2.224818e+03	0	2.851820e-04
8.500000e+08	9.181169e+11	0.000000e+00	8.571428e-01	2.307972e+13	3.777202e+13	1.099764e+13	4.759709e+03	2.508833e+03	2.223264e+03	0	2.846550e-04
8.600000e+08	9.130499e+11	0.000000e+00	8.571428e-01	2.296642e+13	3.760699e+13	1.094673e+13	4.755604e+03	2.507080e+03	2.221711e+03	0	2.841304e-04
8.700000e+08	9.080239e+11	0.000000e+00	8.571428e-01	2.285403e+13	3.744253e+13	1.089618e+13	4.751518e+03	2.505328e+03	2.220158e+03	0	2.836081e-04
8.800000e+08	9.030384e+11	0.000000e+00	8.571428e-01	2.274253e+13	3.727867e+13	1.084597e+13	4.747453e+03	2.503576e+03	2.218605e+03	0	2.830881e-04
8.900000e+08	8.980930e+11	0.000000e+00	8.571428e-01	2.263192e+13	3.711544e+13	1.079611e+13	4.743407e+03	2.501825e+03	2.217054e+03	0	2.825704e-04
9.000000e+08	8.931872e+11	0.000000e+00	8.571428e-01	2.252219e+13	3.695286e+13	1.074659e+13	4.739381e+03	2.500075e+03	2.215503e+03	0	2.820549e-04
9.100000e+08	8.883208e+11	0.000000e+00	8.571428e-01	2.241333e+13	3.679096e+13	1.069741e+13	4.735374e+03	2.498327e+03	2.213954e+03	0	2.815418e-04
9.200000e+08	8.834933e+11	0.000000e+00	8.571428e-01	2.230534e+13	3.662976e+13	1.064857e+13	4.731387e+03	2.496581e+03	2.212406e+03	0	2.810308e-04
9.300000e+08	8.787044e+11	0.000000e+00	8.571428e-01	2.219819e+13	3.646926e+13	1.060006e+13	4.727418e+03	2.494837e+03	2.210861e+03	0	2.805221e-04
9.400000e+08	8.739536e+11	0.000000e+00	8.571428e-01	2.209190e+13	3.630950e+13	1.055188e+13	4.723469e+03	2.493095e+03	2.209317e+03	0	2.800157e-04
9.500000e+08	8.692405e+11	0.000000e+00	8.571428e-01	2.198644e+13	3.615049e+13	1.050403e+13	4.719539e+03	2.491355e+03	2.207775e+03	0	2.795114e-04
9.600000e+08	8.645648e+11	0.000000e+00	8.571428e-01	2.188181e+13	3.599224e+13	1.045651e+13	4.715628e+03	2.489618e+03	2.206236e+03	0	2.790093e-04
9.700000e+08	8.599262e+11	0.000000e+00	8.571428e-01	2.177800e+13	3.583476e+13	1.040931e+13	4.711735e+03	2.487884e+03	2.204699e+03	0	2.785095e-04
9.800000e+08	8.553241e+11	0.000000e+00	8.571428e-01	2.167500e+13	3.567808e+13	1.036243e+13	4.707860e+03	2.486152e+03	2.203165e+03	0	2.780117e-04
9.900000e+08	8.507584e+11	0.000000e+00	8.571428e-01	2.157281e+13	3.552219e+13	1.031587e+13	4.704004e+03	2.484424e+03	2.201634e+03	0	2.775162e-04
1.000000e+09	8.462285e+11	0.000000e+00	8.571428e-01	2.147141e+13	3.536712e+13	1.026963e+13	4.700166e+03	2.482700e+03	2.200105e+03	0	2.770227e-04
1.010000e+09	8.417341e+11	0.000000e+00	8.571428e-01	2.137079e+13	3.521286e+13	1.022370e+13	4.696346e+03	2.480978e+03	2.198580e+03	0	2.765315e-04
1.020000e+09	8.372750e+11	0.000000e+00	8.571428e-01	2.127096e+13	3.505942e+13	1.017809e+13	4.692544e+03	2.479261e+03	2.197058e+03	0	2.760423e-04
1.030000e+09	8.328506e+11	0.000000e+00	8.571428e-01	2.117190e+13	3.490682e+13	1.013278e+13	4.688759e+03	2.477547e+03	2.195539e+03	0	2.755552e-04
1.040000e+09	8.284607e+11	0.000000e+00	8.571428e-01	2.107361e+13	3.475506e+13	1.008777e+13	4.684993e+03	2.475837e+03	2.194023e+03	0	2.750702e-04
1.050000e+09	8.241049e+11	0.000000e+00	8.571428e-01	2.097607e+13	3.460414e+13	1.004307e+13	4.681243e+03	2.474131e+03	2.192512e+03	0	2.745873e-04
1.060000e+09	8.197829e+11	0.000000e+00	8.571428e-01	2.087928e+13	3.445407e+13	9.998676e+12	4.677511e+03	2.472429e+03	2.191003e+03	0	2.741064e-04
1.070000e+09	8.154943e+11	0.000000e+00	8.571428e-01	2.078323e+13	3.430485e+13	9.954577e+12	4.673796e+03	2.470731e+03	2.189498e+03	0	2.736276e-04
1.080000e+09	8.112388e+11	0.000000e+00	8.571428e-01	2.068791e+13	3.415649e+13	9.910775e+12	4.670098e+03	2.469037e+03	2.187998e+03	0	2.731508e-04
1.090000e+09	8.070160e+11	0.000000e+00	8.571428e-01	2.059332e+13	3.400899e+13	9.867268e+12	4.666418e+03	2.467347e+03	2.186500e+03	0	2.726760e-04
1.100000e+09	8.028257e+11	0.000000e+00	8.571428e-01	2.049945e+13	3.386235e+13	9.824053e+12	4.662754e+03	2.465662e+03	2.185007e+03	0	2.722032e-04
1.110000e+09	7.986674e+11	0.000000e+00	8.571428e-01	2.040629e+13	3.371656e+13	9.781127e+12	4.659106e+03	2.463982e+03	2.183518e+03	0	2.717325e-04
1.120000e+09	7.945409e+11	0.000000e+00	8.571428e-01	2.031384e+13	3.357165e+13	9.738490e+12	4.655475e+03	2.462306e+03	2.182033e+03	0	2.712637e-04
1.130000e+09	7.904459e+11	0.000000e+00	8.571428e-01	2.022208e+13	3.342759e+13	9.696137e+12	4.651861e+03	2.460634e+03	2.180552e+03	0	2.707968e-04
1.140000e+09	7.863820e+11	0.000000e+00	8.571428e-01	2.013101e+13	3.328440e+13	9.654068e+12	4.648263e+03	2.458968e+03	2.179075e+03	0	2.703320e-04
1.150000e+09	7.823489e+11	0.000000e+00	8.571428e-01	2.004063e+13	3.314207e+13	9.612279e+12	4.644681e+03	2.457306e+03	2.177602e+03	0	2.698690e-04
1.160000e+09	7.783463e+11	0.000000e+00	8.571428e-01	1.995092e+13	3.300061e+13	9.570769e+12	4.641115e+03	2.455648e+03	2.176133e+03	0	2.694080e-04
1.170000e+09	7.743738e+11	0.000000e+00	8.571428e-01	1.986189e+13	3.286000e+13	9.529536e+12	4.637565e+03	2.453996e+03	2.174669e+03	0	2.689489e-04
1.180000e+09	7.704313e+11	0.000000e+00	8.571428e-01	1.977351e+13	3.272026e+13	9.488577e+12	4.634031e+03	2.452348e+03	2.173208e+03	0	2.684917e-04
1.190000e+09	7.665184e+11	0.000000e+00	8.571428e-01	1.968579e+13	3.258137e+13	9.447891e+12	4.630513e+03	2.450705e+03	2.171753e+03	0	2.680364e-04
1.200000e+09	7.626348e+11	0.000000e+00	8.571428e-01	1.959873e+13	3.244334e+13	9.407474e+12	4.627010e+03	2.449067e+03	2.170301e+03	0	2.675829e-04
1.210000e+09	7.587801e+11	0.000000e+00	8.571428e-01	1.951230e+13	3.230617e+13	9.367326e+12	4.623523e+03	2.447435e+03	2.168854e+03	0	2.671314e-04
1.220000e+09	7.549542e+11	0.000000e+00	8.571428e-01	1.942651e+13	3.216984e+13	9.327443e+12	4.620051e+03	2.445807e+03	2.167411e+03	0	2.666816e-04
1.230000e+09	7.511567e+11	0.000000e+00	8.571428e-01	1.934136e+13	3.203436e+13	9.287824e+12	4.616594e+03	2.444184e+03	2.165973e+03	0	2.662337e-04
1.240000e+09	7.473873e+11	0.000000e+00	8.571428e-01	1.925682e+13	3.189974e+13	9.248468e+12	4.613152e+03	2.442566e+03	2.164539e+03	0	2.657877e-04
1.250000e+09	7.436458e+11	0.000000e+00	8.571428e-01	1.917291e+13	3.176595e+13	9.209371e+12	4.609726e+03	2.440953e+03	2.163110e+03	0	2.653434e-04
1.260000e+09	7.399319e+11	0.000000e+00	8.571428e-01	1.908961e+13	3.163300e+13	9.170532e+12	4.606314e+03	2.439345e+03	2.161685e+03	0	2.649009e-04
1.270000e+09	7.362453e+11	0.000000e+00	8.571428e-01	1.900691e+13	3.150089e+13	9.131948e+12	4.602917e+03	2.437742e+03	2.160265e+03	0	2.644602e-04
1.280000e+09	7.325857e+11	0.000000e+00	8.571428e-01	1.892481e+13	3.136961e+13	9.093619e+12	4.599535e+03	2.436144e+03	2.158849e+03	0	2.640213e-04
1.290000e+09	7.289529e+11	0.000000e+00	8.571428e-01	1.884331e+13	3.123915e+13	9.055541e+12	4.596167e+03	2.434552e+03	2.157438e+03	0	2.635842e-04
1.300000e+09	7.253466e+11	0.000000e+00	8.571428e-01	1.876240e+13	3.110953e+13	9.017713e+12	4.592814e+03	2.432964e+03	2.156031e+03	0	2.631488e-04
1.310000e+09	7.217665e+11	0.000000e+00	8.571428e-01	1.868207e+13	3.098072e+13	8.980134e+12	4.589475e+03	2.431382e+03	2.154628e+03	0	2.627152e-04
1.320000e+09	7.182124e+11	0.000000e+00	8.571428e-01	1.860231e+13	3.085273e+13	8.942800e+12	4.586151e+03	2.429804e+03	2.153231e+03	0	2.622832e-04
1.330000e+09	7.146841e+11	0.000000e+00	8.571428e-01	1.852313e+13	3.072554e+13	8.905711e+12	4.582841e+03	2.428232e+03	2.151837e+03	0	2.618530e-04
1.340000e+09	7.111812e+11	0.000000e+00	8.571428e-01	1.844451e+13	3.059917e+13	8.868864e+12	4.579544e+03	2.426665e+03	2.150449e+03	0	2.614245e-04
1.350000e+09	7.077035e+11	0.000000e+00	8.571428e-01	1.836645e+13	3.047360e+13	8.832257e+12	4.576262e+03	2.425103e+03	2.149064e+03	0	2.609977e-04
1.360000e+09	7.042508e+11	0.000000e+00	8.571428e-01	1.828894e+13	3.034882e+13	8.795889e+12	4.572994e+03	2.423546e+03	2.147685e+03	0	2.605726e-04
