#t		Qconv[W]	Ri[Rp]		R*[Rp]		Qc[W]		Qm[W]		Qr[W]		Tcmb[K]		Tl[K]		Tup[K]		RiFlag		Bs[T]
0.000000e+00	6.328649e+11	0.000000e+00	8.469387e-01	1.787002e+13	3.958135e+13	2.696736e+13	4.911709e+03	2.562649e+03	2.314486e+03	0	2.475773e-04
1.000000e+07	6.310408e+11	0.000000e+00	8.469387e-01	1.783571e+13	3.973603e+13	2.681794e+13	4.909630e+03	2.564187e+03	2.315876e+03	0	2.473392e-04
2.000000e+07	6.291898e+11	0.000000e+00	8.469387e-01	1.780095e+13	3.988103e+13	2.666964e+13	4.907554e+03	2.565625e+03	2.317174e+03	0	2.470972e-04
3.000000e+07	6.273134e+11	0.000000e+00	8.469387e-01	1.776575e+13	4.001658e+13	2.652245e+13	4.905483e+03	2.566966e+03	2.318385e+03	0	2.468513e-04
4.000000e+07	6.254130e+11	0.000000e+00	8.469387e-01	1.773015e+13	4.014290e+13	2.637635e+13	4.903416e+03	2.568212e+03	2.319511e+03	0	2.466018e-04
5.000000e+07	6.234900e+11	0.000000e+00	8.469387e-01	1.769417e+13	4.026024e+13	2.623135e+13	4.901353e+03	2.569368e+03	2.320554e+03	0	2.463488e-04
6.000000e+07	6.215457e+11	0.000000e+00	8.469387e-01	1.765782e+13	4.036883e+13	2.608742e+13	4.899294e+03	2.570434e+03	2.321518e+03	0	2.460924e-04
7.000000e+07	6.195813e+11	0.000000e+00	8.469387e-01	1.762114e+13	4.046889e+13	2.594457e+13	4.897239e+03	2.571415e+03	2.322404e+03	0	2.458329e-04
8.000000e+07	6.175981e+11	0.000000e+00	8.469387e-01	1.758414e+13	4.056066e+13	2.580278e+13	4.895189e+03	2.572313e+03	2.323215e+03	0	2.455703e-04
9.000000e+07	6.155971e+11	0.000000e+00	8.469387e-01	1.754684e+13	4.064438e+13	2.566205e+13	4.893143e+03	2.573131e+03	2.323954e+03	0	2.453048e-04
1.000000e+08	6.135796e+11	0.000000e+00	8.469387e-01	1.750926e+13	4.072028e+13	2.552236e+13	4.891101e+03	2.573872e+03	2.324622e+03	0	2.450365e-04
1.100000e+08	6.115465e+11	0.000000e+00	8.469387e-01	1.747142e+13	4.078857e+13	2.538370e+13	4.889064e+03	2.574537e+03	2.325223e+03	0	2.447656e-04
1.200000e+08	6.094989e+11	0.000000e+00	8.469387e-01	1.743334e+13	4.084949e+13	2.524608e+13	4.887031e+03	2.575130e+03	2.325759e+03	0	2.444921e-04
1.300000e+08	6.074378e+11	0.000000e+00	8.469387e-01	1.739503e+13	4.090327e+13	2.510947e+13	4.885002e+03	2.575653e+03	2.326231e+03	0	2.442162e-04
1.400000e+08	6.053641e+11	0.000000e+00	8.469387e-01	1.735651e+13	4.095012e+13	2.497387e+13	4.882978e+03	2.576108e+03	2.326642e+03	0	2.439380e-04
1.500000e+08	6.032787e+11	0.000000e+00	8.469387e-01	1.731780e+13	4.099027e+13	2.483928e+13	4.880959e+03	2.576498e+03	2.326994e+03	0	2.436576e-04
1.600000e+08	6.011825e+11	0.000000e+00	8.469387e-01	1.727890e+13	4.102393e+13	2.470568e+13	4.878944e+03	2.576824e+03	2.327289e+03	0	2.433750e-04
1.700000e+08	5.990763e+11	0.000000e+00	8.469387e-01	1.723984e+13	4.105130e+13	2.457307e+13	4.876933e+03	2.577089e+03	2.327528e+03	0	2.430905e-04
1.800000e+08	5.969608e+11	0.000000e+00	8.469387e-01	1.720063e+13	4.107261e+13	2.444143e+13	4.874927e+03	2.577296e+03	2.327715e+03	0	2.428040e-04
1.900000e+08	5.948369e+11	0.000000e+00	8.469387e-01	1.716128e+13	4.108804e+13	2.431076e+13	4.872926e+03	2.577445e+03	2.327850e+03	0	2.425157e-04
2.000000e+08	5.927053e+11	0.000000e+00	8.469387e-01	1.712181e+13	4.109781e+13	2.418106e+13	4.870929e+03	2.577540e+03	2.327935e+03	0	2.422257e-04
2.100000e+08	5.905666e+11	0.000000e+00	8.469387e-01	1.708222e+13	4.110211e+13	2.405231e+13	4.868936e+03	2.577581e+03	2.327973e+03	0	2.419340e-04
2.200000e+08	5.884216e+11	0.000000e+00	8.469387e-01	1.704253e+13	4.110114e+13	2.392450e+13	4.866949e+03	2.577572e+03	2.327964e+03	0	2.416407e-04
2.300000e+08	5.862708e+11	0.000000e+00	8.469387e-01	1.700274e+13	4.109507e+13	2.379763e+13	4.864966e+03	2.577513e+03	2.327911e+03	0	2.413459e-04
2.400000e+08	5.841149e+11	0.000000e+00	8.469387e-01	1.696287e+13	4.108409e+13	2.367170e+13	4.862987e+03	2.577407e+03	2.327815e+03	0	2.410497e-04
2.500000e+08	5.819544e+11	0.000000e+00	8.469387e-01	1.692294e+13	4.106839e+13	2.354668e+13	4.861013e+03	2.577255e+03	2.327678e+03	0	2.407522e-04
2.600000e+08	5.797900e+11	0.000000e+00	8.469387e-01	1.688294e+13	4.104813e+13	2.342258e+13	4.859044e+03	2.577059e+03	2.327501e+03	0	2.404533e-04
2.700000e+08	5.776221e+11	0.000000e+00	8.469387e-01	1.684288e+13	4.102349e+13	2.329939e+13	4.857080e+03	2.576820e+03	2.327285e+03	0	2.401533e-04
2.800000e+08	5.754513e+11	0.000000e+00	8.469387e-01	1.680279e+13	4.099464e+13	2.317710e+13	4.855120e+03	2.576540e+03	2.327032e+03	0	2.398520e-04
2.900000e+08	5.732780e+11	0.000000e+00	8.469387e-01	1.676265e+13	4.096172e+13	2.305570e+13	4.853164e+03	2.576221e+03	2.326744e+03	0	2.395497e-04
3.000000e+08	5.711027e+11	0.000000e+00	8.469387e-01	1.672250e+13	4.092492e+13	2.293518e+13	4.851214e+03	2.575863e+03	2.326421e+03	0	2.392463e-04
3.100000e+08	5.689259e+11	0.000000e+00	8.469387e-01	1.668232e+13	4.088436e+13	2.281554e+13	4.849268e+03	2.575469e+03	2.326065e+03	0	2.389420e-04
3.200000e+08	5.667479e+11	0.000000e+00	8.469387e-01	1.664212e+13	4.084021e+13	2.269678e+13	4.847327e+03	2.575040e+03	2.325677e+03	0	2.386367e-04
3.300000e+08	5.645693e+11	0.000000e+00	8.469387e-01	1.660193e+13	4.079261e+13	2.257887e+13	4.845390e+03	2.574577e+03	2.325259e+03	0	2.383305e-04
3.400000e+08	5.623903e+11	0.000000e+00	8.469387e-01	1.656173e+13	4.074169e+13	2.246183e+13	4.843458e+03	2.574081e+03	2.324811e+03	0	2.380235e-04
3.500000e+08	5.602114e+11	0.000000e+00	8.469387e-01	1.652154e+13	4.068761e+13	2.234563e+13	4.841531e+03	2.573553e+03	2.324335e+03	0	2.377157e-04
3.600000e+08	5.580329e+11	0.000000e+00	8.469387e-01	1.648137e+13	4.063047e+13	2.223027e+13	4.839609e+03	2.572996e+03	2.323831e+03	0	2.374072e-04
3.700000e+08	5.558552e+11	0.000000e+00	8.469387e-01	1.644121e+13	4.057042e+13	2.211575e+13	4.837691e+03	2.572409e+03	2.323301e+03	0	2.370979e-04
3.800000e+08	5.536785e+11	0.000000e+00	8.469387e-01	1.640108e+13	4.050759e+13	2.200206e+13	4.835778e+03	2.571794e+03	2.322746e+03	0	2.367880e-04
3.900000e+08	5.515032e+11	0.000000e+00	8.469387e-01	1.636098e+13	4.044208e+13	2.188919e+13	4.833869e+03	2.571153e+03	2.322166e+03	0	2.364775e-04
4.000000e+08	5.493296e+11	0.000000e+00	8.469387e-01	1.632092e+13	4.037401e+13	2.177714e+13	4.831965e+03	2.570485e+03	2.321564e+03	0	2.361665e-04
4.100000e+08	5.471579e+11	0.000000e+00	8.469387e-01	1.628089e+13	4.030350e+13	2.166589e+13	4.830066e+03	2.569793e+03	2.320938e+03	0	2.358548e-04
4.200000e+08	5.449885e+11	0.000000e+00	8.469387e-01	1.624091e+13	4.023066e+13	2.155544e+13	4.828172e+03	2.569077e+03	2.320291e+03	0	2.355427e-04
4.300000e+08	5.428216e+11	0.000000e+00	8.469387e-01	1.620098e+13	4.015559e+13	2.144580e+13	4.826282e+03	2.568337e+03	2.319624e+03	0	2.352301e-04
4.400000e+08	5.406574e+11	0.000000e+00	8.469387e-01	1.616111e+13	4.007840e+13	2.133694e+13	4.824396e+03	2.567576e+03	2.318937e+03	0	2.349171e-04
4.500000e+08	5.384962e+11	0.000000e+00	8.469387e-01	1.612129e+13	3.999918e+13	2.122886e+13	4.822516e+03	2.566794e+03	2.318230e+03	0	2.346036e-04
4.600000e+08	5.363382e+11	0.000000e+00	8.469387e-01	1.608153e+13	3.991802e+13	2.112155e+13	4.820640e+03	2.565992e+03	2.317505e+03	0	2.342898e-04
4.700000e+08	5.341836e+11	0.000000e+00	8.469387e-01	1.604184e+13	3.983503e+13	2.101502e+13	4.818769e+03	2.565169e+03	2.316763e+03	0	2.339757e-04
4.800000e+08	5.320326e+11	0.000000e+00	8.469387e-01	1.600222e+13	3.975028e+13	2.090925e+13	4.816902e+03	2.564329e+03	2.316003e+03	0	2.336612e-04
4.900000e+08	5.298853e+11	0.000000e+00	8.469387e-01	1.596267e+13	3.966387e+13	2.080424e+13	4.815040e+03	2.563470e+03	2.315228e+03	0	2.333464e-04
5.000000e+08	5.277421e+11	0.000000e+00	8.469387e-01	1.592319e+13	3.957588e+13	2.069998e+13	4.813182e+03	2.562594e+03	2.314437e+03	0	2.330314e-04
5.100000e+08	5.256031e+11	0.000000e+00	8.469387e-01	1.588379e+13	3.948638e+13	2.059646e+13	4.811329e+03	2.561702e+03	2.313631e+03	0	2.327161e-04
5.200000e+08	5.234683e+11	0.000000e+00	8.469387e-01	1.584447e+13	3.939546e+13	2.049369e+13	4.809481e+03	2.560794e+03	2.312811e+03	0	2.324007e-04
5.300000e+08	5.213381e+11	0.000000e+00	8.469387e-01	1.580524e+13	3.930319e+13	2.039164e+13	4.807637e+03	2.559871e+03	2.311977e+03	0	2.320850e-04
5.400000e+08	5.192125e+11	0.000000e+00	8.469387e-01	1.576609e+13	3.920964e+13	2.029032e+13	4.805798e+03	2.558933e+03	2.311130e+03	0	2.317691e-04
5.500000e+08	5.170916e+11	0.000000e+00	8.469387e-01	1.572703e+13	3.911488e+13	2.018973e+13	4.803963e+03	2.557982e+03	2.310271e+03	0	2.314531e-04
5.600000e+08	5.149757e+11	0.000000e+00	8.469387e-01	1.568806e+13	3.901897e+13	2.008984e+13	4.802133e+03	2.557017e+03	2.309400e+03	0	2.311370e-04
5.700000e+08	5.128648e+11	0.000000e+00	8.469387e-01	1.564919e+13	3.892199e+13	1.999067e+13	4.800307e+03	2.556040e+03	2.308517e+03	0	2.308207e-04
5.800000e+08	5.107591e+11	0.000000e+00	8.469387e-01	1.561041e+13	3.882399e+13	1.989220e+13	4.798486e+03	2.555050e+03	2.307623e+03	0	2.305044e-04
5.900000e+08	5.086587e+11	0.000000e+00	8.469387e-01	1.557173e+13	3.872504e+13	1.979443e+13	4.796670e+03	2.554049e+03	2.306719e+03	0	2.301880e-04
6.000000e+08	5.065636e+11	0.000000e+00	8.469387e-01	1.553314e+13	3.862518e+13	1.969735e+13	4.794858e+03	2.553037e+03	2.305805e+03	0	2.298715e-04
6.100000e+08	5.044741e+11	0.000000e+00	8.469387e-01	1.549466e+13	3.852448e+13	1.960096e+13	4.793050e+03	2.552014e+03	2.304881e+03	0	2.295550e-04
6.200000e+08	5.023901e+11	0.000000e+00	8.469387e-01	1.545628e+13	3.842299e+13	1.950525e+13	4.791247e+03	2.550981e+03	2.303948e+03	0	2.292385e-04
6.300000e+08	5.003118e+11	0.000000e+00	8.469387e-01	1.541800e+13	3.832076e+13	1.941022e+13	4.789448e+03	2.549939e+03	2.303007e+03	0	2.289220e-04
6.400000e+08	4.982394e+11	0.000000e+00	8.469387e-01	1.537983e+13	3.821784e+13	1.931585e+13	4.787654e+03	2.548887e+03	2.302057e+03	0	2.286054e-04
6.500000e+08	4.961727e+11	0.000000e+00	8.469387e-01	1.534177e+13	3.811428e+13	1.922215e+13	4.785864e+03	2.547827e+03	2.301100e+03	0	2.282889e-04
6.600000e+08	4.941121e+11	0.000000e+00	8.469387e-01	1.530382e+13	3.801012e+13	1.912911e+13	4.784079e+03	2.546758e+03	2.300134e+03	0	2.279724e-04
6.700000e+08	4.920574e+11	0.000000e+00	8.469387e-01	1.526597e+13	3.790541e+13	1.903672e+13	4.782298e+03	2.545682e+03	2.299162e+03	0	2.276560e-04
6.800000e+08	4.900088e+11	0.000000e+00	8.469387e-01	1.522824e+13	3.780018e+13	1.894499e+13	4.780521e+03	2.544598e+03	2.298183e+03	0	2.273396e-04
6.900000e+08	4.879663e+11	0.000000e+00	8.469387e-01	1.519061e+13	3.769449e+13	1.885389e+13	4.778749e+03	2.543506e+03	2.297197e+03	0	2.270233e-04
7.000000e+08	4.859301e+11	0.000000e+00	8.469387e-01	1.515310e+13	3.758836e+13	1.876344e+13	4.776982e+03	2.542408e+03	2.296206e+03	0	2.267071e-04
7.100000e+08	4.839001e+11	0.000000e+00	8.469387e-01	1.511571e+13	3.748184e+13	1.867361e+13	4.775218e+03	2.541304e+03	2.295208e+03	0	2.263910e-04
7.200000e+08	4.818765e+11	0.000000e+00	8.469387e-01	1.507843e+13	3.737496e+13	1.858442e+13	4.773459e+03	2.540194e+03	2.294205e+03	0	2.260750e-04
7.300000e+08	4.798592e+11	0.000000e+00	8.469387e-01	1.504126e+13	3.726777e+13	1.849585e+13	4.771704e+03	2.539077e+03	2.293197e+03	0	2.257590e-04
7.400000e+08	4.778484e+11	0.000000e+00	8.469387e-01	1.500421e+13	3.716028e+13	1.840790e+13	4.769954e+03	2.537956e+03	2.292184e+03	0	2.254433e-04
7.500000e+08	4.758440e+11	0.000000e+00	8.469387e-01	1.496728e+13	3.705254e+13	1.832056e+13	4.768208e+03	2.536829e+03	2.291166e+03	0	2.251276e-04
7.600000e+08	4.738461e+11	0.000000e+00	8.469387e-01	1.493047e+13	3.694457e+13	1.823382e+13	4.766466e+03	2.535697e+03	2.290144e+03	0	2.248121e-04
7.700000e+08	4.718548e+11	0.000000e+00	8.469387e-01	1.489377e+13	3.683640e+13	1.814770e+13	4.764729e+03	2.534561e+03	2.289118e+03	0	2.244967e-04
7.800000e+08	4.698700e+11	0.000000e+00	8.469387e-01	1.485719e+13	3.672807e+13	1.806217e+13	4.762995e+03	2.533420e+03	2.288088e+03	0	2.241815e-04
7.900000e+08	4.678919e+11	0.000000e+00	8.469387e-01	1.482074e+13	3.661959e+13	1.797723e+13	4.761266e+03	2.532275e+03	2.287054e+03	0	2.238665e-04
8.000000e+08	4.659204e+11	0.000000e+00	8.469387e-01	1.478440e+13	3.651100e+13	1.789289e+13	4.759542e+03	2.531127e+03	2.286017e+03	0	2.235516e-04
8.100000e+08	4.639556e+11	0.000000e+00	8.469387e-01	1.474819e+13	3.640232e+13	1.780913e+13	4.757821e+03	2.529975e+03	2.284976e+03	0	2.232369e-04
8.200000e+08	4.619974e+11	0.000000e+00	8.469387e-01	1.471209e+13	3.629357e+13	1.772594e+13	4.756105e+03	2.528820e+03	2.283933e+03	0	2.229224e-04
8.300000e+08	4.600460e+11	0.000000e+00	8.469387e-01	1.467612e+13	3.618478e+13	1.764334e+13	4.754393e+03	2.527661e+03	2.282887e+03	0	2.226081e-04
8.400000e+08	4.581013e+11	0.000000e+00	8.469387e-01	1.464027e+13	3.607597e+13	1.756130e+13	4.752685e+03	2.526500e+03	2.281838e+03	0	2.222940e-04
8.500000e+08	4.561634e+11	0.000000e+00	8.469387e-01	1.460454e+13	3.596716e+13	1.747983e+13	4.750981e+03	2.525336e+03	2.280787e+03	0	2.219801e-04
8.600000e+08	4.542322e+11	0.000000e+00	8.469387e-01	1.456893e+13	3.585837e+13	1.739892e+13	4.749281e+03	2.524170e+03	2.279734e+03	0	2.216664e-04
8.700000e+08	4.523078e+11	0.000000e+00	8.469387e-01	1.453345e+13	3.574962e+13	1.731857e+13	4.747586e+03	2.523002e+03	2.278678e+03	0	2.213529e-04
8.800000e+08	4.503902e+11	0.000000e+00	8.469387e-01	1.449808e+13	3.564093e+13	1.723877e+13	4.745894e+03	2.521831e+03	2.277621e+03	0	2.210397e-04
8.900000e+08	4.484795e+11	0.000000e+00	8.469387e-01	1.446284e+13	3.553231e+13	1.715952e+13	4.744207e+03	2.520658e+03	2.276562e+03	0	2.207266e-04
9.000000e+08	4.465755e+11	0.000000e+00	8.469387e-01	1.442773e+13	3.542380e+13	1.708081e+13	4.742524e+03	2.519484e+03	2.275502e+03	0	2.204138e-04
9.100000e+08	4.446784e+11	0.000000e+00	8.469387e-01	1.439274e+13	3.531539e+13	1.700265e+13	4.740845e+03	2.518308e+03	2.274440e+03	0	2.201013e-04
9.200000e+08	4.427881e+11	0.000000e+00	8.469387e-01	1.435787e+13	3.520710e+13	1.692501e+13	4.739170e+03	2.517131e+03	2.273377e+03	0	2.197889e-04
9.300000e+08	4.409046e+11	0.000000e+00	8.469387e-01	1.432312e+13	3.509896e+13	1.684791e+13	4.737499e+03	2.515953e+03	2.272312e+03	0	2.194769e-04
9.400000e+08	4.390280e+11	0.000000e+00	8.469387e-01	1.428849e+13	3.499097e+13	1.677134e+13	4.735832e+03	2.514774e+03	2.271247e+03	0	2.191650e-04
9.500000e+08	4.371582e+11	0.000000e+00	8.469387e-01	1.425399e+13	3.488314e+13	1.669529e+13	4.734169e+03	2.513593e+03	2.270181e+03	0	2.188535e-04
9.600000e+08	4.352952e+11	0.000000e+00	8.469387e-01	1.421962e+13	3.477550e+13	1.661976e+13	4.732510e+03	2.512412e+03	2.269114e+03	0	2.185421e-04
9.700000e+08	4.334391e+11	0.000000e+00	8.469387e-01	1.418536e+13	3.466806e+13	1.654474e+13	4.730856e+03	2.511231e+03	2.268047e+03	0	2.182311e-04
9.800000e+08	4.315898e+11	0.000000e+00	8.469387e-01	1.415123e+13	3.456082e+13	1.647023e+13	4.729205e+03	2.510048e+03	2.266979e+03	0	2.179203e-04
9.900000e+08	4.297473e+11	0.000000e+00	8.469387e-01	1.411723e+13	3.445380e+13	1.639623e+13	4.727558e+03	2.508866e+03	2.265911e+03	0	2.176097e-04
1.000000e+09	4.279117e+11	0.000000e+00	8.469387e-01	1.408334e+13	3.434700e+13	1.632273e+13	4.725915e+03	2.507683e+03	2.264843e+03	0	2.172994e-04
1.010000e+09	4.260829e+11	0.000000e+00	8.469387e-01	1.404958e+13	3.424044e+13	1.624973e+13	4.724276e+03	2.506500e+03	2.263775e+03	0	2.169894e-04
1.020000e+09	4.242609e+11	0.000000e+00	8.469387e-01	1.401594e+13	3.413413e+13	1.617722e+13	4.722641e+03	2.505317e+03	2.262706e+03	0	2.166797e-04
1.030000e+09	4.224457e+11	0.000000e+00	8.469387e-01	1.398242e+13	3.402809e+13	1.610521e+13	4.721010e+03	2.504134e+03	2.261638e+03	0	2.163702e-04
1.040000e+09	4.206374e+11	0.000000e+00	8.469387e-01	1.394903e+13	3.392231e+13	1.603368e+13	4.719382e+03	2.502951e+03	2.260570e+03	0	2.160611e-04
1.050000e+09	4.188358e+11	0.000000e+00	8.469387e-01	1.391576e+13	3.381680e+13	1.596263e+13	4.717759e+03	2.501769e+03	2.259502e+03	0	2.157521e-04
1.060000e+09	4.170409e+11	0.000000e+00	8.469387e-01	1.388261e+13	3.371157e+13	1.589207e+13	4.716139e+03	2.500587e+03	2.258434e+03	0	2.154435e-04
1.070000e+09	4.152529e+11	0.000000e+00	8.469387e-01	1.384958e+13	3.360664e+13	1.582198e+13	4.714524e+03	2.499405e+03	2.257367e+03	0	2.151352e-04
1.080000e+09	4.134716e+11	0.000000e+00	8.469387e-01	1.381667e+13	3.350201e+13	1.575236e+13	4.712912e+03	2.498224e+03	2.256300e+03	0	2.148271e-04
1.090000e+09	4.116970e+11	0.000000e+00	8.469387e-01	1.378389e+13	3.339768e+13	1.568320e+13	4.711304e+03	2.497044e+03	2.255234e+03	0	2.145193e-04
1.100000e+09	4.099292e+11	0.000000e+00	8.469387e-01	1.375122e+13	3.329366e+13	1.561452e+13	4.709700e+03	2.495864e+03	2.254169e+03	0	2.142118e-04
1.110000e+09	4.081681e+11	0.000000e+00	8.469387e-01	1.371868e+13	3.318997e+13	1.554629e+13	4.708099e+03	2.494686e+03	2.253104e+03	0	2.139046e-04
1.120000e+09	4.064137e+11	0.000000e+00	8.469387e-01	1.368626e+13	3.308659e+13	1.547852e+13	4.706503e+03	2.493508e+03	2.252041e+03	0	2.135977e-04
1.130000e+09	4.046659e+11	0.000000e+00	8.469387e-01	1.365395e+13	3.298355e+13	1.541121e+13	4.704910e+03	2.492331e+03	2.250978e+03	0	2.132911e-04
1.140000e+09	4.029249e+11	0.000000e+00	8.469387e-01	1.362177e+13	3.288084e+13	1.534434e+13	4.703321e+03	2.491155e+03	2.249916e+03	0	2.129848e-04
1.150000e+09	4.011905e+11	0.000000e+00	8.469387e-01	1.358971e+13	3.277847e+13	1.527792e+13	4.701735e+03	2.489980e+03	2.248855e+03	0	2.126787e-04
1.160000e+09	3.994627e+11	0.000000e+00	8.469387e-01	1.355776e+13	3.267645e+13	1.521194e+13	4.700154e+03	2.488807e+03	2.247795e+03	0	2.123730e-04
1.170000e+09	3.977415e+11	0.000000e+00	8.469387e-01	1.352594e+13	3.257477e+13	1.514641e+13	4.698576e+03	2.487634e+03	2.246736e+03	0	2.120675e-04
1.180000e+09	3.960270e+11	0.000000e+00	8.469387e-01	1.349423e+13	3.247345e+13	1.508131e+13	4.697002e+03	2.486464e+03	2.245679e+03	0	2.117624e-04
1.190000e+09	3.943190e+11	0.000000e+00	8.469387e-01	1.346264e+13	3.237248e+13	1.501664e+13	4.695431e+03	2.485294e+03	2.244622e+03	0	2.114575e-04
1.200000e+09	3.926176e+11	0.000000e+00	8.469387e-01	1.343117e+13	3.227188e+13	1.495240e+13	4.693864e+03	2.484126e+03	2.243567e+03	0	2.111529e-04
1.210000e+09	3.909227e+11	0.000000e+00	8.469387e-01	1.339982e+13	3.217165e+13	1.488859e+13	4.692301e+03	2.482959e+03	2.242513e+03	0	2.108487e-04
1.220000e+09	3.892344e+11	0.000000e+00	8.469387e-01	1.336859e+13	3.207178e+13	1.482520e+13	4.690742e+03	2.481794e+03	2.241461e+03	0	2.105447e-04
1.230000e+09	3.875525e+11	0.000000e+00	8.469387e-01	1.333747e+13	3.197228e+13	1.476223e+13	4.689186e+03	2.480630e+03	2.240410e+03	0	2.102410e-04
1.240000e+09	3.858772e+11	0.000000e+00	8.469387e-01	1.330647e+13	3.187316e+13	1.469967e+13	4.687634e+03	2.479468e+03	2.239361e+03	0	2.099376e-04
1.250000e+09	3.842083e+11	0.000000e+00	8.469387e-01	1.327558e+13	3.177441e+13	1.463753e+13	4.686085e+03	2.478308e+03	2.238313e+03	0	2.096345e-04
1.260000e+09	3.825458e+11	0.000000e+00	8.469387e-01	1.324481e+13	3.167604e+13	1.457580e+13	4.684540e+03	2.477150e+03	2.237267e+03	0	2.093317e-04
1.270000e+09	3.808897e+11	0.000000e+00	8.469387e-01	1.321416e+13	3.157805e+13	1.451448e+13	4.682998e+03	2.475993e+03	2.236222e+03	0	2.090292e-04
1.280000e+09	3.792401e+11	0.000000e+00	8.469387e-01	1.318362e+13	3.148045e+13	1.445355e+13	4.681460e+03	2.474838e+03	2.235179e+03	0	2.087270e-04
1.290000e+09	3.775968e+11	0.000000e+00	8.469387e-01	1.315319e+13	3.138323e+13	1.439303e+13	4.679926e+03	2.473685e+03	2.234137e+03	0	2.084251e-04
1.300000e+09	3.759599e+11	0.000000e+00	8.469387e-01	1.312288e+13	3.128640e+13	1.433291e+13	4.678395e+03	2.472534e+03	2.233098e+03	0	2.081235e-04
1.310000e+09	3.743293e+11	0.000000e+00	8.469387e-01	1.309269e+13	3.118996e+13	1.427318e+13	4.676868e+03	2.471385e+03	2.232060e+03	0	2.078221e-04
1.320000e+09	3.727051e+11	0.000000e+00	8.469387e-01	1.306261e+13	3.109391e+13	1.421384e+13	4.675344e+03	2.470237e+03	2.231024e+03	0	2.075211e-04
1.330000e+09	3.710871e+11	0.000000e+00	8.469387e-01	1.303264e+13	3.099824e+13	1.415489e+13	4.673824e+03	2.469092e+03	2.229989e+03	0	2.072204e-04
1.340000e+09	3.694754e+11	0.000000e+00	8.469387e-01	1.300278e+13	3.090298e+13	1.409632e+13	4.672307e+03	2.467949e+03	2.228957e+03	0	2.069200e-04
1.350000e+09	3.678699e+11	0.000000e+00	8.469387e-01	1.297303e+13	3.080810e+13	1.403814e+13	4.670794e+03	2.466808e+03	2.227926e+03	0	2.066198e-04
1.360000e+09	3.662706e+11	0.000000e+00	8.469387e-01	1.294340e+13	3.071362e+13	1.398034e+13	4.669284e+03	2.465669e+03	2.226897e+03	0	2.063200e-04
