#t		Qconv[W]	Ri[Rp]		R*[Rp]		Qc[W]		Qm[W]		Qr[W]		Tcmb[K]		Tl[K]		Tup[K]		RiFlag		Bs[T]
0.000000e+00	5.153145e+14	0.000000e+00	8.556701e-01	6.058304e+15	4.260398e+13	4.590108e+13	2.104037e+04	3.609532e+03	2.540179e+03	0	2.221258e-03
1.000000e+07	5.059388e+14	0.000000e+00	8.556701e-01	5.948397e+15	2.506463e+14	4.564675e+13	2.071782e+04	4.779345e+03	3.363426e+03	0	2.207704e-03
2.000000e+07	4.860155e+14	0.000000e+00	8.556701e-01	5.716794e+15	7.714783e+14	4.539433e+13	2.040094e+04	5.858092e+03	4.122585e+03	0	2.178336e-03
3.000000e+07	4.598012e+14	0.000000e+00	8.556701e-01	5.412652e+15	1.592289e+15	4.514379e+13	2.009619e+04	6.758623e+03	4.756327e+03	0	2.138446e-03
4.000000e+07	4.324260e+14	0.000000e+00	8.556701e-01	5.095198e+15	2.502498e+15	4.489512e+13	1.980746e+04	7.426478e+03	5.226324e+03	0	2.095136e-03
5.000000e+07	4.074048e+14	0.000000e+00	8.556701e-01	4.804999e+15	3.267293e+15	4.464831e+13	1.953549e+04	7.865627e+03	5.535372e+03	0	2.053920e-03
6.000000e+07	3.858787e+14	0.000000e+00	8.556701e-01	4.555217e+15	3.781946e+15	4.440334e+13	1.927886e+04	8.122314e+03	5.716014e+03	0	2.017089e-03
7.000000e+07	3.675297e+14	0.000000e+00	8.556701e-01	4.342170e+15	4.064044e+15	4.416019e+13	1.903544e+04	8.252908e+03	5.807918e+03	0	1.984597e-03
8.000000e+07	3.516160e+14	0.000000e+00	8.556701e-01	4.157287e+15	4.178182e+15	4.391885e+13	1.880330e+04	8.303976e+03	5.843857e+03	0	1.955530e-03
9.000000e+07	3.374730e+14	0.000000e+00	8.556701e-01	3.992892e+15	4.186355e+15	4.367931e+13	1.858095e+04	8.307596e+03	5.846404e+03	0	1.928951e-03
1.000000e+08	3.246291e+14	0.000000e+00	8.556701e-01	3.843536e+15	4.133011e+15	4.344154e+13	1.836730e+04	8.283882e+03	5.829715e+03	0	1.904162e-03
1.100000e+08	3.127768e+14	0.000000e+00	8.556701e-01	3.705665e+15	4.046243e+15	4.320554e+13	1.816157e+04	8.244855e+03	5.802250e+03	0	1.880701e-03
1.200000e+08	3.017195e+14	0.000000e+00	8.556701e-01	3.577007e+15	3.942733e+15	4.297128e+13	1.796314e+04	8.197538e+03	5.768952e+03	0	1.858272e-03
1.300000e+08	2.913292e+14	0.000000e+00	8.556701e-01	3.456084e+15	3.832070e+15	4.273877e+13	1.777154e+04	8.145996e+03	5.732679e+03	0	1.836692e-03
1.400000e+08	2.815191e+14	0.000000e+00	8.556701e-01	3.341890e+15	3.719640e+15	4.250797e+13	1.758635e+04	8.092572e+03	5.695083e+03	0	1.815840e-03
1.500000e+08	2.722269e+14	0.000000e+00	8.556701e-01	3.233704e+15	3.608417e+15	4.227888e+13	1.740722e+04	8.038616e+03	5.657112e+03	0	1.795637e-03
1.600000e+08	2.634053e+14	0.000000e+00	8.556701e-01	3.130981e+15	3.499987e+15	4.205148e+13	1.723384e+04	7.984901e+03	5.619310e+03	0	1.776028e-03
1.700000e+08	2.550165e+14	0.000000e+00	8.556701e-01	3.033280e+15	3.395156e+15	4.182576e+13	1.706591e+04	7.931867e+03	5.581988e+03	0	1.756970e-03
1.800000e+08	2.470288e+14	0.000000e+00	8.556701e-01	2.940236e+15	3.294282e+15	4.160170e+13	1.690317e+04	7.879756e+03	5.545315e+03	0	1.738431e-03
1.900000e+08	2.394148e+14	0.000000e+00	8.556701e-01	2.851532e+15	3.197468e+15	4.137929e+13	1.674539e+04	7.828696e+03	5.509382e+03	0	1.720383e-03
2.000000e+08	2.321505e+14	0.000000e+00	8.556701e-01	2.766888e+15	3.104681e+15	4.115852e+13	1.659231e+04	7.778747e+03	5.474231e+03	0	1.702804e-03
2.100000e+08	2.252140e+14	0.000000e+00	8.556701e-01	2.686051e+15	3.015810e+15	4.093937e+13	1.644375e+04	7.729929e+03	5.439876e+03	0	1.685673e-03
2.200000e+08	2.185855e+14	0.000000e+00	8.556701e-01	2.608791e+15	2.930707e+15	4.072184e+13	1.629948e+04	7.682238e+03	5.406313e+03	0	1.668971e-03
2.300000e+08	2.122469e+14	0.000000e+00	8.556701e-01	2.534898e+15	2.849202e+15	4.050590e+13	1.615933e+04	7.635656e+03	5.373531e+03	0	1.652680e-03
2.400000e+08	2.061815e+14	0.000000e+00	8.556701e-01	2.464179e+15	2.771120e+15	4.029154e+13	1.602311e+04	7.590156e+03	5.341512e+03	0	1.636784e-03
2.500000e+08	2.003737e+14	0.000000e+00	8.556701e-01	2.396453e+15	2.696291e+15	4.007875e+13	1.589067e+04	7.545710e+03	5.310233e+03	0	1.621269e-03
2.600000e+08	1.948091e+14	0.000000e+00	8.556701e-01	2.331553e+15	2.624546e+15	3.986752e+13	1.576183e+04	7.502285e+03	5.279673e+03	0	1.606120e-03
2.700000e+08	1.894745e+14	0.000000e+00	8.556701e-01	2.269325e+15	2.555727e+15	3.965783e+13	1.563645e+04	7.459848e+03	5.249808e+03	0	1.591323e-03
2.800000e+08	1.843573e+14	0.000000e+00	8.556701e-01	2.209625e+15	2.489679e+15	3.944968e+13	1.551439e+04	7.418367e+03	5.220616e+03	0	1.576867e-03
2.900000e+08	1.794460e+14	0.000000e+00	8.556701e-01	2.152316e+15	2.426258e+15	3.924304e+13	1.539552e+04	7.377810e+03	5.192075e+03	0	1.562738e-03
3.000000e+08	1.747297e+14	0.000000e+00	8.556701e-01	2.097274e+15	2.365329e+15	3.903792e+13	1.527971e+04	7.338146e+03	5.164161e+03	0	1.548925e-03
3.100000e+08	1.701981e+14	0.000000e+00	8.556701e-01	2.044380e+15	2.306765e+15	3.883428e+13	1.516683e+04	7.299345e+03	5.136855e+03	0	1.535417e-03
3.200000e+08	1.658419e+14	0.000000e+00	8.556701e-01	1.993525e+15	2.250444e+15	3.863213e+13	1.505678e+04	7.261377e+03	5.110136e+03	0	1.522204e-03
3.300000e+08	1.616522e+14	0.000000e+00	8.556701e-01	1.944605e+15	2.196253e+15	3.843144e+13	1.494945e+04	7.224216e+03	5.083984e+03	0	1.509276e-03
3.400000e+08	1.576204e+14	0.000000e+00	8.556701e-01	1.897523e+15	2.144087e+15	3.823222e+13	1.484472e+04	7.187834e+03	5.058381e+03	0	1.496623e-03
3.500000e+08	1.537390e+14	0.000000e+00	8.556701e-01	1.852187e+15	2.093848e+15	3.803444e+13	1.474252e+04	7.152207e+03	5.033308e+03	0	1.484236e-03
3.600000e+08	1.500004e+14	0.000000e+00	8.556701e-01	1.808514e+15	2.045439e+15	3.783809e+13	1.464274e+04	7.117308e+03	5.008749e+03	0	1.472106e-03
3.700000e+08	1.463977e+14	0.000000e+00	8.556701e-01	1.766422e+15	1.998773e+15	3.764317e+13	1.454530e+04	7.083116e+03	4.984686e+03	0	1.460225e-03
3.800000e+08	1.429245e+14	0.000000e+00	8.556701e-01	1.725836e+15	1.953767e+15	3.744965e+13	1.445010e+04	7.049607e+03	4.961105e+03	0	1.448584e-03
3.900000e+08	1.395747e+14	0.000000e+00	8.556701e-01	1.686684e+15	1.910343e+15	3.725754e+13	1.435708e+04	7.016761e+03	4.937989e+03	0	1.437178e-03
4.000000e+08	1.363424e+14	0.000000e+00	8.556701e-01	1.648901e+15	1.868427e+15	3.706681e+13	1.426616e+04	6.984555e+03	4.915325e+03	0	1.425997e-03
4.100000e+08	1.332222e+14	0.000000e+00	8.556701e-01	1.612422e+15	1.827950e+15	3.687746e+13	1.417725e+04	6.952971e+03	4.893098e+03	0	1.415035e-03
4.200000e+08	1.302090e+14	0.000000e+00	8.556701e-01	1.577188e+15	1.788845e+15	3.668947e+13	1.409030e+04	6.921990e+03	4.871295e+03	0	1.404285e-03
4.300000e+08	1.272979e+14	0.000000e+00	8.556701e-01	1.543143e+15	1.751051e+15	3.650284e+13	1.400524e+04	6.891593e+03	4.849903e+03	0	1.393741e-03
4.400000e+08	1.244845e+14	0.000000e+00	8.556701e-01	1.510233e+15	1.714511e+15	3.631755e+13	1.392200e+04	6.861763e+03	4.828911e+03	0	1.383396e-03
4.500000e+08	1.217642e+14	0.000000e+00	8.556701e-01	1.478409e+15	1.679167e+15	3.613359e+13	1.384052e+04	6.832483e+03	4.808305e+03	0	1.373245e-03
4.600000e+08	1.191332e+14	0.000000e+00	8.556701e-01	1.447624e+15	1.644969e+15	3.595095e+13	1.376075e+04	6.803737e+03	4.788076e+03	0	1.363282e-03
4.700000e+08	1.165875e+14	0.000000e+00	8.556701e-01	1.417831e+15	1.611867e+15	3.576962e+13	1.368263e+04	6.775510e+03	4.768211e+03	0	1.353502e-03
4.800000e+08	1.141234e+14	0.000000e+00	8.556701e-01	1.388990e+15	1.579814e+15	3.558959e+13	1.360611e+04	6.747787e+03	4.748701e+03	0	1.343898e-03
4.900000e+08	1.117375e+14	0.000000e+00	8.556701e-01	1.361058e+15	1.548766e+15	3.541085e+13	1.353113e+04	6.720552e+03	4.729535e+03	0	1.334467e-03
5.000000e+08	1.094265e+14	0.000000e+00	8.556701e-01	1.333999e+15	1.518679e+15	3.523338e+13	1.345765e+04	6.693793e+03	4.710703e+03	0	1.325203e-03
5.100000e+08	1.071873e+14	0.000000e+00	8.556701e-01	1.307776e+15	1.489517e+15	3.505719e+13	1.338562e+04	6.667497e+03	4.692198e+03	0	1.316101e-03
5.200000e+08	1.050169e+14	0.000000e+00	8.556701e-01	1.282355e+15	1.461239e+15	3.488225e+13	1.331500e+04	6.641650e+03	4.674008e+03	0	1.307157e-03
5.300000e+08	1.029125e+14	0.000000e+00	8.556701e-01	1.257703e+15	1.433810e+15	3.470856e+13	1.324575e+04	6.616241e+03	4.656126e+03	0	1.298367e-03
5.400000e+08	1.008715e+14	0.000000e+00	8.556701e-01	1.233790e+15	1.407197e+15	3.453611e+13	1.317781e+04	6.591256e+03	4.638544e+03	0	1.289727e-03
5.500000e+08	9.889134e+13	0.000000e+00	8.556701e-01	1.210585e+15	1.381365e+15	3.436488e+13	1.311116e+04	6.566686e+03	4.621253e+03	0	1.281232e-03
5.600000e+08	9.696959e+13	0.000000e+00	8.556701e-01	1.188061e+15	1.356286e+15	3.419488e+13	1.304576e+04	6.542520e+03	4.604246e+03	0	1.272878e-03
5.700000e+08	9.510397e+13	0.000000e+00	8.556701e-01	1.166191e+15	1.331929e+15	3.402608e+13	1.298157e+04	6.518745e+03	4.587515e+03	0	1.264662e-03
5.800000e+08	9.329231e+13	0.000000e+00	8.556701e-01	1.144950e+15	1.308267e+15	3.385847e+13	1.291855e+04	6.495353e+03	4.571053e+03	0	1.256580e-03
5.900000e+08	9.153254e+13	0.000000e+00	8.556701e-01	1.124314e+15	1.285273e+15	3.369206e+13	1.285667e+04	6.472333e+03	4.554853e+03	0	1.248629e-03
6.000000e+08	8.982267e+13	0.000000e+00	8.556701e-01	1.104260e+15	1.262922e+15	3.352682e+13	1.279590e+04	6.449677e+03	4.538908e+03	0	1.240805e-03
6.100000e+08	8.816083e+13	0.000000e+00	8.556701e-01	1.084766e+15	1.241190e+15	3.336275e+13	1.273621e+04	6.427373e+03	4.523213e+03	0	1.233105e-03
6.200000e+08	8.654521e+13	0.000000e+00	8.556701e-01	1.065810e+15	1.220053e+15	3.319984e+13	1.267757e+04	6.405415e+03	4.507760e+03	0	1.225526e-03
6.300000e+08	8.497412e+13	0.000000e+00	8.556701e-01	1.047374e+15	1.199490e+15	3.303808e+13	1.261994e+04	6.383793e+03	4.492543e+03	0	1.218065e-03
6.400000e+08	8.344591e+13	0.000000e+00	8.556701e-01	1.029438e+15	1.179480e+15	3.287746e+13	1.256331e+04	6.362499e+03	4.477558e+03	0	1.210719e-03
6.500000e+08	8.195902e+13	0.000000e+00	8.556701e-01	1.011984e+15	1.160003e+15	3.271798e+13	1.250764e+04	6.341525e+03	4.462797e+03	0	1.203484e-03
6.600000e+08	8.051198e+13	0.000000e+00	8.556701e-01	9.949950e+14	1.141039e+15	3.255961e+13	1.245291e+04	6.320863e+03	4.448257e+03	0	1.196359e-03
6.700000e+08	7.910334e+13	0.000000e+00	8.556701e-01	9.784540e+14	1.122571e+15	3.240236e+13	1.239910e+04	6.300506e+03	4.433931e+03	0	1.189341e-03
6.800000e+08	7.773177e+13	0.000000e+00	8.556701e-01	9.623452e+14	1.104582e+15	3.224621e+13	1.234617e+04	6.280446e+03	4.419814e+03	0	1.182427e-03
6.900000e+08	7.639595e+13	0.000000e+00	8.556701e-01	9.466538e+14	1.087053e+15	3.209116e+13	1.229411e+04	6.260677e+03	4.405901e+03	0	1.175615e-03
7.000000e+08	7.509464e+13	0.000000e+00	8.556701e-01	9.313650e+14	1.069971e+15	3.193720e+13	1.224289e+04	6.241192e+03	4.392189e+03	0	1.168901e-03
7.100000e+08	7.382665e+13	0.000000e+00	8.556701e-01	9.164652e+14	1.053319e+15	3.178431e+13	1.219250e+04	6.221983e+03	4.378671e+03	0	1.162285e-03
7.200000e+08	7.259084e+13	0.000000e+00	8.556701e-01	9.019410e+14	1.037082e+15	3.163249e+13	1.214291e+04	6.203045e+03	4.365343e+03	0	1.155763e-03
7.300000e+08	7.138613e+13	0.000000e+00	8.556701e-01	8.877798e+14	1.021247e+15	3.148174e+13	1.209410e+04	6.184372e+03	4.352202e+03	0	1.149334e-03
7.400000e+08	7.021146e+13	0.000000e+00	8.556701e-01	8.739693e+14	1.005800e+15	3.133203e+13	1.204606e+04	6.165957e+03	4.339243e+03	0	1.142995e-03
7.500000e+08	6.906584e+13	0.000000e+00	8.556701e-01	8.604980e+14	9.907286e+14	3.118337e+13	1.199875e+04	6.147795e+03	4.326462e+03	0	1.136744e-03
7.600000e+08	6.794831e+13	0.000000e+00	8.556701e-01	8.473547e+14	9.760201e+14	3.103575e+13	1.195218e+04	6.129880e+03	4.313854e+03	0	1.130579e-03
7.700000e+08	6.685794e+13	0.000000e+00	8.556701e-01	8.345286e+14	9.616633e+14	3.088915e+13	1.190631e+04	6.112207e+03	4.301417e+03	0	1.124499e-03
7.800000e+08	6.579385e+13	0.000000e+00	8.556701e-01	8.220095e+14	9.476463e+14	3.074357e+13	1.186113e+04	6.094770e+03	4.289146e+03	0	1.118502e-03
7.900000e+08	6.475520e+13	0.000000e+00	8.556701e-01	8.097875e+14	9.339581e+14	3.059900e+13	1.181662e+04	6.077565e+03	4.277037e+03	0	1.112585e-03
8.000000e+08	6.374117e+13	0.000000e+00	8.556701e-01	7.978531e+14	9.205887e+14	3.045544e+13	1.177278e+04	6.060585e+03	4.265088e+03	0	1.106747e-03
8.100000e+08	6.275098e+13	0.000000e+00	8.556701e-01	7.861973e+14	9.075281e+14	3.031287e+13	1.172957e+04	6.043827e+03	4.253295e+03	0	1.100986e-03
8.200000e+08	6.178388e+13	0.000000e+00	8.556701e-01	7.748112e+14	8.947663e+14	3.017128e+13	1.168700e+04	6.027286e+03	4.241654e+03	0	1.095300e-03
8.300000e+08	6.083914e+13	0.000000e+00	8.556701e-01	7.636865e+14	8.822940e+14	3.003068e+13	1.164504e+04	6.010957e+03	4.230163e+03	0	1.089689e-03
8.400000e+08	5.991609e+13	0.000000e+00	8.556701e-01	7.528152e+14	8.701027e+14	2.989105e+13	1.160368e+04	5.994836e+03	4.218818e+03	0	1.084150e-03
8.500000e+08	5.901404e+13	0.000000e+00	8.556701e-01	7.421894e+14	8.581836e+14	2.975238e+13	1.156290e+04	5.978918e+03	4.207615e+03	0	1.078682e-03
8.600000e+08	5.813236e+13	0.000000e+00	8.556701e-01	7.318017e+14	8.465285e+14	2.961466e+13	1.152270e+04	5.963199e+03	4.196554e+03	0	1.073283e-03
8.700000e+08	5.727043e+13	0.000000e+00	8.556701e-01	7.216449e+14	8.351293e+14	2.947790e+13	1.148306e+04	5.947676e+03	4.185629e+03	0	1.067952e-03
8.800000e+08	5.642767e+13	0.000000e+00	8.556701e-01	7.117121e+14	8.239789e+14	2.934207e+13	1.144396e+04	5.932343e+03	4.174839e+03	0	1.062687e-03
8.900000e+08	5.560348e+13	0.000000e+00	8.556701e-01	7.019967e+14	8.130693e+14	2.920718e+13	1.140540e+04	5.917198e+03	4.164181e+03	0	1.057488e-03
9.000000e+08	5.479734e+13	0.000000e+00	8.556701e-01	6.924922e+14	8.023936e+14	2.907321e+13	1.136737e+04	5.902237e+03	4.153652e+03	0	1.052353e-03
9.100000e+08	5.400871e+13	0.000000e+00	8.556701e-01	6.831924e+14	7.919454e+14	2.894016e+13	1.132985e+04	5.887456e+03	4.143250e+03	0	1.047280e-03
9.200000e+08	5.323707e+13	0.000000e+00	8.556701e-01	6.740915e+14	7.817176e+14	2.880803e+13	1.129283e+04	5.872851e+03	4.132972e+03	0	1.042268e-03
9.300000e+08	5.248194e+13	0.000000e+00	8.556701e-01	6.651837e+14	7.717041e+14	2.867679e+13	1.125630e+04	5.858419e+03	4.122816e+03	0	1.037317e-03
9.400000e+08	5.174284e+13	0.000000e+00	8.556701e-01	6.564634e+14	7.618991e+14	2.854646e+13	1.122025e+04	5.844157e+03	4.112779e+03	0	1.032424e-03
9.500000e+08	5.101931e+13	0.000000e+00	8.556701e-01	6.479253e+14	7.522962e+14	2.841701e+13	1.118467e+04	5.830061e+03	4.102859e+03	0	1.027590e-03
9.600000e+08	5.031092e+13	0.000000e+00	8.556701e-01	6.395644e+14	7.428901e+14	2.828845e+13	1.114955e+04	5.816129e+03	4.093054e+03	0	1.022812e-03
9.700000e+08	4.961724e+13	0.000000e+00	8.556701e-01	6.313756e+14	7.336751e+14	2.816076e+13	1.111488e+04	5.802356e+03	4.083362e+03	0	1.018089e-03
9.800000e+08	4.893785e+13	0.000000e+00	8.556701e-01	6.233541e+14	7.246459e+14	2.803394e+13	1.108066e+04	5.788741e+03	4.073780e+03	0	1.013421e-03
9.900000e+08	4.827237e+13	0.000000e+00	8.556701e-01	6.154953e+14	7.157976e+14	2.790798e+13	1.104687e+04	5.775280e+03	4.064307e+03	0	1.008806e-03
1.000000e+09	4.762041e+13	0.000000e+00	8.556701e-01	6.077948e+14	7.071251e+14	2.778288e+13	1.101350e+04	5.761970e+03	4.054940e+03	0	1.004244e-03
1.010000e+09	4.698159e+13	0.000000e+00	8.556701e-01	6.002483e+14	6.986240e+14	2.765862e+13	1.098055e+04	5.748808e+03	4.045678e+03	0	9.997332e-04
1.020000e+09	4.635557e+13	0.000000e+00	8.556701e-01	5.928515e+14	6.902891e+14	2.753521e+13	1.094800e+04	5.735793e+03	4.036518e+03	0	9.952729e-04
1.030000e+09	4.574200e+13	0.000000e+00	8.556701e-01	5.856006e+14	6.821163e+14	2.741263e+13	1.091586e+04	5.722920e+03	4.027459e+03	0	9.908622e-04
1.040000e+09	4.514054e+13	0.000000e+00	8.556701e-01	5.784915e+14	6.741014e+14	2.729089e+13	1.088411e+04	5.710188e+03	4.018499e+03	0	9.865001e-04
1.050000e+09	4.455088e+13	0.000000e+00	8.556701e-01	5.715206e+14	6.662401e+14	2.716996e+13	1.085274e+04	5.697594e+03	4.009636e+03	0	9.821858e-04
1.060000e+09	4.397270e+13	0.000000e+00	8.556701e-01	5.646841e+14	6.585283e+14	2.704985e+13	1.082174e+04	5.685136e+03	4.000869e+03	0	9.779183e-04
1.070000e+09	4.340570e+13	0.000000e+00	8.556701e-01	5.579787e+14	6.509622e+14	2.693055e+13	1.079112e+04	5.672811e+03	3.992195e+03	0	9.736969e-04
1.080000e+09	4.284960e+13	0.000000e+00	8.556701e-01	5.514009e+14	6.435383e+14	2.681205e+13	1.076086e+04	5.660616e+03	3.983613e+03	0	9.695208e-04
1.090000e+09	4.230410e+13	0.000000e+00	8.556701e-01	5.449473e+14	6.362525e+14	2.669434e+13	1.073095e+04	5.648550e+03	3.975122e+03	0	9.653890e-04
1.100000e+09	4.176893e+13	0.000000e+00	8.556701e-01	5.386149e+14	6.291017e+14	2.657743e+13	1.070140e+04	5.636611e+03	3.966720e+03	0	9.613009e-04
1.110000e+09	4.124384e+13	0.000000e+00	8.556701e-01	5.324006e+14	6.220822e+14	2.646130e+13	1.067218e+04	5.624795e+03	3.958405e+03	0	9.572556e-04
1.120000e+09	4.072857e+13	0.000000e+00	8.556701e-01	5.263013e+14	6.151908e+14	2.634595e+13	1.064330e+04	5.613102e+03	3.950175e+03	0	9.532524e-04
1.130000e+09	4.022286e+13	0.000000e+00	8.556701e-01	5.203142e+14	6.084244e+14	2.623138e+13	1.061475e+04	5.601528e+03	3.942031e+03	0	9.492906e-04
1.140000e+09	3.972648e+13	0.000000e+00	8.556701e-01	5.144364e+14	6.017798e+14	2.611756e+13	1.058652e+04	5.590072e+03	3.933969e+03	0	9.453695e-04
1.150000e+09	3.923920e+13	0.000000e+00	8.556701e-01	5.086654e+14	5.952541e+14	2.600451e+13	1.055862e+04	5.578733e+03	3.925988e+03	0	9.414883e-04
1.160000e+09	3.876080e+13	0.000000e+00	8.556701e-01	5.029983e+14	5.888441e+14	2.589221e+13	1.053102e+04	5.567507e+03	3.918088e+03	0	9.376464e-04
1.170000e+09	3.829105e+13	0.000000e+00	8.556701e-01	4.974328e+14	5.825474e+14	2.578066e+13	1.050373e+04	5.556393e+03	3.910267e+03	0	9.338432e-04
1.180000e+09	3.782974e+13	0.000000e+00	8.556701e-01	4.919664e+14	5.763611e+14	2.566986e+13	1.047674e+04	5.545389e+03	3.902523e+03	0	9.300779e-04
1.190000e+09	3.737667e+13	0.000000e+00	8.556701e-01	4.865965e+14	5.702824e+14	2.555978e+13	1.045004e+04	5.534494e+03	3.894856e+03	0	9.263499e-04
1.200000e+09	3.693164e+13	0.000000e+00	8.556701e-01	4.813210e+14	5.643090e+14	2.545044e+13	1.042364e+04	5.523706e+03	3.887264e+03	0	9.226587e-04
1.210000e+09	3.649446e+13	0.000000e+00	8.556701e-01	4.761376e+14	5.584383e+14	2.534183e+13	1.039752e+04	5.513022e+03	3.879745e+03	0	9.190036e-04
1.220000e+09	3.606494e+13	0.000000e+00	8.556701e-01	4.710441e+14	5.526677e+14	2.523393e+13	1.037168e+04	5.502442e+03	3.872299e+03	0	9.153839e-04
1.230000e+09	3.564290e+13	0.000000e+00	8.556701e-01	4.660383e+14	5.469953e+14	2.512675e+13	1.034612e+04	5.491963e+03	3.864925e+03	0	9.117993e-04
1.240000e+09	3.522817e+13	0.000000e+00	8.556701e-01	4.611183e+14	5.414183e+14	2.502028e+13	1.032083e+04	5.481584e+03	3.857621e+03	0	9.082489e-04
1.250000e+09	3.482057e+13	0.000000e+00	8.556701e-01	4.562820e+14	5.359349e+14	2.491451e+13	1.029580e+04	5.471304e+03	3.850386e+03	0	9.047324e-04
1.260000e+09	3.441993e+13	0.000000e+00	8.556701e-01	4.515274e+14	5.305425e+14	2.480943e+13	1.027104e+04	5.461120e+03	3.843219e+03	0	9.012492e-04
1.270000e+09	3.402610e+13	0.000000e+00	8.556701e-01	4.468528e+14	5.252396e+14	2.470505e+13	1.024653e+04	5.451032e+03	3.836120e+03	0	8.977986e-04
1.280000e+09	3.363893e+13	0.000000e+00	8.556701e-01	4.422563e+14	5.200239e+14	2.460136e+13	1.022227e+04	5.441037e+03	3.829086e+03	0	8.943803e-04
1.290000e+09	3.325825e+13	0.000000e+00	8.556701e-01	4.377361e+14	5.148933e+14	2.449835e+13	1.019827e+04	5.431135e+03	3.822118e+03	0	8.909937e-04
1.300000e+09	3.288392e+13	0.000000e+00	8.556701e-01	4.332905e+14	5.098461e+14	2.439601e+13	1.017451e+04	5.421324e+03	3.815213e+03	0	8.876384e-04
1.310000e+09	3.251580e+13	0.000000e+00	8.556701e-01	4.289178e+14	5.048803e+14	2.429434e+13	1.015098e+04	5.411603e+03	3.808372e+03	0	8.843137e-04
1.320000e+09	3.215375e+13	0.000000e+00	8.556701e-01	4.246164e+14	4.999943e+14	2.419334e+13	1.012770e+04	5.401969e+03	3.801593e+03	0	8.810193e-04
1.330000e+09	3.179763e+13	0.000000e+00	8.556701e-01	4.203847e+14	4.951860e+14	2.409300e+13	1.010465e+04	5.392423e+03	3.794874e+03	0	8.777546e-04
1.340000e+09	3.144732e+13	0.000000e+00	8.556701e-01	4.162212e+14	4.904539e+14	2.399332e+13	1.008182e+04	5.382962e+03	3.788217e+03	0	8.745193e-04
1.350000e+09	3.110268e+13	0.000000e+00	8.556701e-01	4.121244e+14	4.857965e+14	2.389428e+13	1.005923e+04	5.373586e+03	3.781618e+03	0	8.713129e-04
1.360000e+09	3.076359e+13	0.000000e+00	8.556701e-01	4.080928e+14	4.812119e+14	2.379590e+13	1.003685e+04	5.364293e+03	3.775078e+03	0	8.681349e-04
