#t		Qconv[W]	Ri[Rp]		R*[Rp]		Qc[W]		Qm[W]		Qr[W]		Tcmb[K]		Tl[K]		Tup[K]		RiFlag		Bs[T]
0.000000e+00	6.063605e+14	0.000000e+00	8.556701e-01	6.842325e+15	4.302615e+13	4.948239e+13	2.194528e+04	3.670237e+03	2.565600e+03	0	2.335789e-03
1.000000e+07	5.961147e+14	0.000000e+00	8.556701e-01	6.726959e+15	2.689120e+14	4.920822e+13	2.161454e+04	4.900754e+03	3.425766e+03	0	2.322558e-03
2.000000e+07	5.731868e+14	0.000000e+00	8.556701e-01	6.471387e+15	8.521584e+14	4.893610e+13	2.128920e+04	6.038618e+03	4.221165e+03	0	2.292391e-03
3.000000e+07	5.426152e+14	0.000000e+00	8.556701e-01	6.131366e+15	1.786101e+15	4.866602e+13	2.097601e+04	6.990178e+03	4.886332e+03	0	2.250888e-03
4.000000e+07	5.105712e+14	0.000000e+00	8.556701e-01	5.775163e+15	2.829196e+15	4.839795e+13	2.067908e+04	7.695752e+03	5.379548e+03	0	2.205678e-03
5.000000e+07	4.813043e+14	0.000000e+00	8.556701e-01	5.449777e+15	3.706812e+15	4.813188e+13	2.039923e+04	8.158683e+03	5.703150e+03	0	2.162701e-03
6.000000e+07	4.561841e+14	0.000000e+00	8.556701e-01	5.170343e+15	4.296143e+15	4.786780e+13	2.013499e+04	8.428309e+03	5.891626e+03	0	2.124402e-03
7.000000e+07	4.348145e+14	0.000000e+00	8.556701e-01	4.932468e+15	4.618007e+15	4.760568e+13	1.988417e+04	8.564928e+03	5.987127e+03	0	2.090698e-03
8.000000e+07	4.162983e+14	0.000000e+00	8.556701e-01	4.726218e+15	4.747742e+15	4.734551e+13	1.964479e+04	8.618146e+03	6.024328e+03	0	2.060590e-03
9.000000e+07	3.998412e+14	0.000000e+00	8.556701e-01	4.542800e+15	4.757018e+15	4.708727e+13	1.941532e+04	8.621912e+03	6.026961e+03	0	2.033071e-03
1.000000e+08	3.848850e+14	0.000000e+00	8.556701e-01	4.376033e+15	4.696801e+15	4.683095e+13	1.919467e+04	8.597369e+03	6.009804e+03	0	2.007399e-03
1.100000e+08	3.710693e+14	0.000000e+00	8.556701e-01	4.221929e+15	4.599049e+15	4.657654e+13	1.898205e+04	8.557064e+03	5.981630e+03	0	1.983086e-03
1.200000e+08	3.581657e+14	0.000000e+00	8.556701e-01	4.077957e+15	4.482607e+15	4.632401e+13	1.877684e+04	8.508279e+03	5.947528e+03	0	1.959828e-03
1.300000e+08	3.460268e+14	0.000000e+00	8.556701e-01	3.942485e+15	4.358239e+15	4.607335e+13	1.857856e+04	8.455201e+03	5.910424e+03	0	1.937432e-03
1.400000e+08	3.345534e+14	0.000000e+00	8.556701e-01	3.814411e+15	4.231955e+15	4.582454e+13	1.838680e+04	8.400228e+03	5.871997e+03	0	1.915778e-03
1.500000e+08	3.236745e+14	0.000000e+00	8.556701e-01	3.692952e+15	4.107047e+15	4.557758e+13	1.820122e+04	8.344733e+03	5.833205e+03	0	1.894783e-03
1.600000e+08	3.133366e+14	0.000000e+00	8.556701e-01	3.577511e+15	3.985269e+15	4.533244e+13	1.802149e+04	8.289500e+03	5.794595e+03	0	1.874392e-03
1.700000e+08	3.034969e+14	0.000000e+00	8.556701e-01	3.467615e+15	3.867503e+15	4.508910e+13	1.784733e+04	8.234969e+03	5.756476e+03	0	1.854562e-03
1.800000e+08	2.941197e+14	0.000000e+00	8.556701e-01	3.362865e+15	3.754137e+15	4.484756e+13	1.767847e+04	8.181383e+03	5.719018e+03	0	1.835262e-03
1.900000e+08	2.851738e+14	0.000000e+00	8.556701e-01	3.262917e+15	3.645282e+15	4.460781e+13	1.751467e+04	8.128869e+03	5.682309e+03	0	1.816463e-03
2.000000e+08	2.766320e+14	0.000000e+00	8.556701e-01	3.167467e+15	3.540901e+15	4.436981e+13	1.735569e+04	8.077486e+03	5.646391e+03	0	1.798143e-03
2.100000e+08	2.684695e+14	0.000000e+00	8.556701e-01	3.076240e+15	3.440867e+15	4.413356e+13	1.720132e+04	8.027252e+03	5.611276e+03	0	1.780280e-03
2.200000e+08	2.606638e+14	0.000000e+00	8.556701e-01	2.988987e+15	3.345016e+15	4.389905e+13	1.705136e+04	7.978161e+03	5.576961e+03	0	1.762856e-03
2.300000e+08	2.531943e+14	0.000000e+00	8.556701e-01	2.905477e+15	3.253161e+15	4.366627e+13	1.690562e+04	7.930197e+03	5.543432e+03	0	1.745854e-03
2.400000e+08	2.460418e+14	0.000000e+00	8.556701e-01	2.825499e+15	3.165114e+15	4.343518e+13	1.676392e+04	7.883332e+03	5.510672e+03	0	1.729257e-03
2.500000e+08	2.391887e+14	0.000000e+00	8.556701e-01	2.748855e+15	3.080681e+15	4.320579e+13	1.662608e+04	7.837536e+03	5.478659e+03	0	1.713050e-03
2.600000e+08	2.326185e+14	0.000000e+00	8.556701e-01	2.675363e+15	2.999684e+15	4.297808e+13	1.649195e+04	7.792776e+03	5.447371e+03	0	1.697220e-03
2.700000e+08	2.263159e+14	0.000000e+00	8.556701e-01	2.604853e+15	2.921941e+15	4.275204e+13	1.636138e+04	7.749021e+03	5.416785e+03	0	1.681751e-03
2.800000e+08	2.202668e+14	0.000000e+00	8.556701e-01	2.537165e+15	2.847286e+15	4.252764e+13	1.623423e+04	7.706237e+03	5.386878e+03	0	1.666632e-03
2.900000e+08	2.144576e+14	0.000000e+00	8.556701e-01	2.472153e+15	2.775562e+15	4.230488e+13	1.611035e+04	7.664392e+03	5.357627e+03	0	1.651849e-03
3.000000e+08	2.088760e+14	0.000000e+00	8.556701e-01	2.409676e+15	2.706621e+15	4.208375e+13	1.598962e+04	7.623456e+03	5.329011e+03	0	1.637392e-03
3.100000e+08	2.035102e+14	0.000000e+00	8.556701e-01	2.349606e+15	2.640318e+15	4.186423e+13	1.587192e+04	7.583397e+03	5.301009e+03	0	1.623250e-03
3.200000e+08	1.983494e+14	0.000000e+00	8.556701e-01	2.291819e+15	2.576523e+15	4.164630e+13	1.575713e+04	7.544187e+03	5.273600e+03	0	1.609411e-03
3.300000e+08	1.933832e+14	0.000000e+00	8.556701e-01	2.236203e+15	2.515110e+15	4.142996e+13	1.564514e+04	7.505798e+03	5.246765e+03	0	1.595865e-03
3.400000e+08	1.886021e+14	0.000000e+00	8.556701e-01	2.182650e+15	2.455965e+15	4.121519e+13	1.553585e+04	7.468204e+03	5.220486e+03	0	1.582604e-03
3.500000e+08	1.839970e+14	0.000000e+00	8.556701e-01	2.131059e+15	2.398974e+15	4.100198e+13	1.542915e+04	7.431378e+03	5.194743e+03	0	1.569616e-03
3.600000e+08	1.795593e+14	0.000000e+00	8.556701e-01	2.081336e+15	2.344038e+15	4.079031e+13	1.532496e+04	7.395296e+03	5.169521e+03	0	1.556895e-03
3.700000e+08	1.752812e+14	0.000000e+00	8.556701e-01	2.033392e+15	2.291054e+15	4.058018e+13	1.522319e+04	7.359935e+03	5.144803e+03	0	1.544431e-03
3.800000e+08	1.711549e+14	0.000000e+00	8.556701e-01	1.987142e+15	2.239934e+15	4.037157e+13	1.512374e+04	7.325271e+03	5.120572e+03	0	1.532215e-03
3.900000e+08	1.671735e+14	0.000000e+00	8.556701e-01	1.942508e+15	2.190590e+15	4.016446e+13	1.502654e+04	7.291284e+03	5.096814e+03	0	1.520241e-03
4.000000e+08	1.633303e+14	0.000000e+00	8.556701e-01	1.899415e+15	2.142940e+15	3.995885e+13	1.493150e+04	7.257952e+03	5.073514e+03	0	1.508501e-03
4.100000e+08	1.596189e+14	0.000000e+00	8.556701e-01	1.857794e+15	2.096907e+15	3.975473e+13	1.483856e+04	7.225255e+03	5.050658e+03	0	1.496987e-03
4.200000e+08	1.560334e+14	0.000000e+00	8.556701e-01	1.817577e+15	2.052418e+15	3.955207e+13	1.474765e+04	7.193175e+03	5.028233e+03	0	1.485693e-03
4.300000e+08	1.525682e+14	0.000000e+00	8.556701e-01	1.778702e+15	2.009406e+15	3.935088e+13	1.465868e+04	7.161692e+03	5.006226e+03	0	1.474613e-03
4.400000e+08	1.492179e+14	0.000000e+00	8.556701e-01	1.741109e+15	1.967804e+15	3.915113e+13	1.457161e+04	7.130790e+03	4.984624e+03	0	1.463739e-03
4.500000e+08	1.459775e+14	0.000000e+00	8.556701e-01	1.704744e+15	1.927551e+15	3.895282e+13	1.448637e+04	7.100451e+03	4.963416e+03	0	1.453066e-03
4.600000e+08	1.428422e+14	0.000000e+00	8.556701e-01	1.669552e+15	1.888589e+15	3.875593e+13	1.440289e+04	7.070659e+03	4.942591e+03	0	1.442587e-03
4.700000e+08	1.398076e+14	0.000000e+00	8.556701e-01	1.635484e+15	1.850863e+15	3.856045e+13	1.432113e+04	7.041399e+03	4.922137e+03	0	1.432299e-03
4.800000e+08	1.368694e+14	0.000000e+00	8.556701e-01	1.602493e+15	1.814321e+15	3.836637e+13	1.424102e+04	7.012655e+03	4.902044e+03	0	1.422194e-03
4.900000e+08	1.340235e+14	0.000000e+00	8.556701e-01	1.570532e+15	1.778912e+15	3.817369e+13	1.416252e+04	6.984412e+03	4.882302e+03	0	1.412267e-03
5.000000e+08	1.312660e+14	0.000000e+00	8.556701e-01	1.539559e+15	1.744592e+15	3.798238e+13	1.408558e+04	6.956658e+03	4.862901e+03	0	1.402515e-03
5.100000e+08	1.285935e+14	0.000000e+00	8.556701e-01	1.509534e+15	1.711314e+15	3.779244e+13	1.401014e+04	6.929378e+03	4.843831e+03	0	1.392931e-03
5.200000e+08	1.260023e+14	0.000000e+00	8.556701e-01	1.480418e+15	1.679037e+15	3.760385e+13	1.393616e+04	6.902559e+03	4.825084e+03	0	1.383512e-03
5.300000e+08	1.234892e+14	0.000000e+00	8.556701e-01	1.452175e+15	1.647720e+15	3.741661e+13	1.386361e+04	6.876190e+03	4.806651e+03	0	1.374252e-03
5.400000e+08	1.210512e+14	0.000000e+00	8.556701e-01	1.424770e+15	1.617326e+15	3.723070e+13	1.379243e+04	6.850257e+03	4.788524e+03	0	1.365148e-03
5.500000e+08	1.186851e+14	0.000000e+00	8.556701e-01	1.398170e+15	1.587817e+15	3.704612e+13	1.372258e+04	6.824750e+03	4.770694e+03	0	1.356195e-03
5.600000e+08	1.163883e+14	0.000000e+00	8.556701e-01	1.372343e+15	1.559159e+15	3.686284e+13	1.365403e+04	6.799658e+03	4.753153e+03	0	1.347389e-03
5.700000e+08	1.141580e+14	0.000000e+00	8.556701e-01	1.347259e+15	1.531321e+15	3.668087e+13	1.358674e+04	6.774969e+03	4.735895e+03	0	1.338727e-03
5.800000e+08	1.119917e+14	0.000000e+00	8.556701e-01	1.322891e+15	1.504270e+15	3.650019e+13	1.352067e+04	6.750673e+03	4.718911e+03	0	1.330205e-03
5.900000e+08	1.098868e+14	0.000000e+00	8.556701e-01	1.299210e+15	1.477976e+15	3.632079e+13	1.345579e+04	6.726760e+03	4.702196e+03	0	1.321819e-03
6.000000e+08	1.078412e+14	0.000000e+00	8.556701e-01	1.276191e+15	1.452411e+15	3.614266e+13	1.339207e+04	6.703221e+03	4.685741e+03	0	1.313565e-03
6.100000e+08	1.058526e+14	0.000000e+00	8.556701e-01	1.253810e+15	1.427548e+15	3.596579e+13	1.332947e+04	6.680045e+03	4.669541e+03	0	1.305441e-03
6.200000e+08	1.039189e+14	0.000000e+00	8.556701e-01	1.232042e+15	1.403361e+15	3.579017e+13	1.326796e+04	6.657225e+03	4.653589e+03	0	1.297443e-03
6.300000e+08	1.020381e+14	0.000000e+00	8.556701e-01	1.210866e+15	1.379826e+15	3.561579e+13	1.320751e+04	6.634752e+03	4.637879e+03	0	1.289567e-03
6.400000e+08	1.002082e+14	0.000000e+00	8.556701e-01	1.190260e+15	1.356919e+15	3.544264e+13	1.314809e+04	6.612616e+03	4.622405e+03	0	1.281812e-03
6.500000e+08	9.842738e+13	0.000000e+00	8.556701e-01	1.170202e+15	1.334617e+15	3.527071e+13	1.308968e+04	6.590809e+03	4.607162e+03	0	1.274174e-03
6.600000e+08	9.669395e+13	0.000000e+00	8.556701e-01	1.150675e+15	1.312899e+15	3.509999e+13	1.303225e+04	6.569325e+03	4.592144e+03	0	1.266649e-03
6.700000e+08	9.500621e+13	0.000000e+00	8.556701e-01	1.131659e+15	1.291744e+15	3.493047e+13	1.297577e+04	6.548155e+03	4.577345e+03	0	1.259236e-03
6.800000e+08	9.336255e+13	0.000000e+00	8.556701e-01	1.113136e+15	1.271134e+15	3.476214e+13	1.292022e+04	6.527291e+03	4.562761e+03	0	1.251932e-03
6.900000e+08	9.176143e+13	0.000000e+00	8.556701e-01	1.095089e+15	1.251048e+15	3.459499e+13	1.286558e+04	6.506727e+03	4.548386e+03	0	1.244734e-03
7.000000e+08	9.020139e+13	0.000000e+00	8.556701e-01	1.077502e+15	1.231469e+15	3.442902e+13	1.281182e+04	6.486456e+03	4.534216e+03	0	1.237640e-03
7.100000e+08	8.868103e+13	0.000000e+00	8.556701e-01	1.060359e+15	1.212380e+15	3.426420e+13	1.275891e+04	6.466471e+03	4.520246e+03	0	1.230647e-03
7.200000e+08	8.719900e+13	0.000000e+00	8.556701e-01	1.043646e+15	1.193764e+15	3.410054e+13	1.270684e+04	6.446765e+03	4.506471e+03	0	1.223753e-03
7.300000e+08	8.575400e+13	0.000000e+00	8.556701e-01	1.027346e+15	1.175606e+15	3.393802e+13	1.265559e+04	6.427332e+03	4.492887e+03	0	1.216956e-03
7.400000e+08	8.434481e+13	0.000000e+00	8.556701e-01	1.011448e+15	1.157890e+15	3.377664e+13	1.260514e+04	6.408166e+03	4.479489e+03	0	1.210253e-03
7.500000e+08	8.297025e+13	0.000000e+00	8.556701e-01	9.959377e+14	1.140602e+15	3.361638e+13	1.255546e+04	6.389261e+03	4.466274e+03	0	1.203642e-03
7.600000e+08	8.162917e+13	0.000000e+00	8.556701e-01	9.808022e+14	1.123727e+15	3.345723e+13	1.250654e+04	6.370611e+03	4.453238e+03	0	1.197122e-03
7.700000e+08	8.032048e+13	0.000000e+00	8.556701e-01	9.660296e+14	1.107253e+15	3.329920e+13	1.245836e+04	6.352212e+03	4.440376e+03	0	1.190690e-03
7.800000e+08	7.904315e+13	0.000000e+00	8.556701e-01	9.516081e+14	1.091168e+15	3.314226e+13	1.241090e+04	6.334056e+03	4.427684e+03	0	1.184344e-03
7.900000e+08	7.779616e+13	0.000000e+00	8.556701e-01	9.375267e+14	1.075457e+15	3.298641e+13	1.236415e+04	6.316139e+03	4.415160e+03	0	1.178083e-03
8.000000e+08	7.657856e+13	0.000000e+00	8.556701e-01	9.237745e+14	1.060109e+15	3.283165e+13	1.231809e+04	6.298457e+03	4.402800e+03	0	1.171905e-03
8.100000e+08	7.538941e+13	0.000000e+00	8.556701e-01	9.103411e+14	1.045115e+15	3.267795e+13	1.227269e+04	6.281003e+03	4.390599e+03	0	1.165807e-03
8.200000e+08	7.422784e+13	0.000000e+00	8.556701e-01	8.972168e+14	1.030461e+15	3.252532e+13	1.222796e+04	6.263774e+03	4.378555e+03	0	1.159789e-03
8.300000e+08	7.309298e+13	0.000000e+00	8.556701e-01	8.843919e+14	1.016137e+15	3.237375e+13	1.218387e+04	6.246764e+03	4.366664e+03	0	1.153848e-03
8.400000e+08	7.198401e+13	0.000000e+00	8.556701e-01	8.718572e+14	1.002135e+15	3.222322e+13	1.214040e+04	6.229968e+03	4.354924e+03	0	1.147983e-03
8.500000e+08	7.090014e+13	0.000000e+00	8.556701e-01	8.596039e+14	9.884433e+14	3.207373e+13	1.209755e+04	6.213384e+03	4.343331e+03	0	1.142192e-03
8.600000e+08	6.984062e+13	0.000000e+00	8.556701e-01	8.476235e+14	9.750537e+14	3.192527e+13	1.205530e+04	6.197005e+03	4.331882e+03	0	1.136474e-03
8.700000e+08	6.880470e+13	0.000000e+00	8.556701e-01	8.359079e+14	9.619560e+14	3.177783e+13	1.201363e+04	6.180829e+03	4.320574e+03	0	1.130827e-03
8.800000e+08	6.779169e+13	0.000000e+00	8.556701e-01	8.244492e+14	9.491428e+14	3.163141e+13	1.197254e+04	6.164850e+03	4.309405e+03	0	1.125249e-03
8.900000e+08	6.680090e+13	0.000000e+00	8.556701e-01	8.132397e+14	9.366050e+14	3.148599e+13	1.193200e+04	6.149066e+03	4.298371e+03	0	1.119741e-03
9.000000e+08	6.583169e+13	0.000000e+00	8.556701e-01	8.022722e+14	9.243347e+14	3.134157e+13	1.189202e+04	6.133472e+03	4.287470e+03	0	1.114299e-03
9.100000e+08	6.488342e+13	0.000000e+00	8.556701e-01	7.915397e+14	9.123245e+14	3.119815e+13	1.185257e+04	6.118064e+03	4.276700e+03	0	1.108923e-03
9.200000e+08	6.395549e+13	0.000000e+00	8.556701e-01	7.810353e+14	9.005666e+14	3.105570e+13	1.181365e+04	6.102839e+03	4.266057e+03	0	1.103611e-03
9.300000e+08	6.304731e+13	0.000000e+00	8.556701e-01	7.707526e+14	8.890538e+14	3.091423e+13	1.177524e+04	6.087793e+03	4.255540e+03	0	1.098362e-03
9.400000e+08	6.215832e+13	0.000000e+00	8.556701e-01	7.606852e+14	8.777791e+14	3.077372e+13	1.173734e+04	6.072923e+03	4.245145e+03	0	1.093175e-03
9.500000e+08	6.128798e+13	0.000000e+00	8.556701e-01	7.508270e+14	8.667361e+14	3.063417e+13	1.169993e+04	6.058226e+03	4.234871e+03	0	1.088049e-03
9.600000e+08	6.043575e+13	0.000000e+00	8.556701e-01	7.411723e+14	8.559182e+14	3.049558e+13	1.166300e+04	6.043698e+03	4.224716e+03	0	1.082982e-03
9.700000e+08	5.960114e+13	0.000000e+00	8.556701e-01	7.317153e+14	8.453191e+14	3.035793e+13	1.162654e+04	6.029335e+03	4.214676e+03	0	1.077974e-03
9.800000e+08	5.878365e+13	0.000000e+00	8.556701e-01	7.224505e+14	8.349328e+14	3.022121e+13	1.159055e+04	6.015136e+03	4.204750e+03	0	1.073022e-03
9.900000e+08	5.798282e+13	0.000000e+00	8.556701e-01	7.133727e+14	8.247538e+14	3.008543e+13	1.155501e+04	6.001097e+03	4.194936e+03	0	1.068127e-03
1.000000e+09	5.719818e+13	0.000000e+00	8.556701e-01	7.044769e+14	8.147760e+14	2.995057e+13	1.151992e+04	5.987214e+03	4.185232e+03	0	1.063287e-03
1.010000e+09	5.642930e+13	0.000000e+00	8.556701e-01	6.957580e+14	8.049942e+14	2.981662e+13	1.148526e+04	5.973485e+03	4.175635e+03	0	1.058502e-03
1.020000e+09	5.567576e+13	0.000000e+00	8.556701e-01	6.872113e+14	7.954035e+14	2.968358e+13	1.145103e+04	5.959908e+03	4.166144e+03	0	1.053769e-03
1.030000e+09	5.493713e+13	0.000000e+00	8.556701e-01	6.788322e+14	7.859981e+14	2.955144e+13	1.141722e+04	5.946479e+03	4.156757e+03	0	1.049088e-03
1.040000e+09	5.421303e+13	0.000000e+00	8.556701e-01	6.706164e+14	7.767739e+14	2.942019e+13	1.138381e+04	5.933196e+03	4.147472e+03	0	1.044459e-03
1.050000e+09	5.350308e+13	0.000000e+00	8.556701e-01	6.625594e+14	7.677255e+14	2.928983e+13	1.135082e+04	5.920057e+03	4.138287e+03	0	1.039879e-03
1.060000e+09	5.280689e+13	0.000000e+00	8.556701e-01	6.546572e+14	7.588488e+14	2.916034e+13	1.131821e+04	5.907058e+03	4.129200e+03	0	1.035349e-03
1.070000e+09	5.212411e+13	0.000000e+00	8.556701e-01	6.469056e+14	7.501392e+14	2.903173e+13	1.128599e+04	5.894197e+03	4.120210e+03	0	1.030867e-03
1.080000e+09	5.145440e+13	0.000000e+00	8.556701e-01	6.393009e+14	7.415921e+14	2.890399e+13	1.125416e+04	5.881472e+03	4.111315e+03	0	1.026433e-03
1.090000e+09	5.079741e+13	0.000000e+00	8.556701e-01	6.318393e+14	7.332041e+14	2.877710e+13	1.122269e+04	5.868880e+03	4.102513e+03	0	1.022046e-03
1.100000e+09	5.015282e+13	0.000000e+00	8.556701e-01	6.245171e+14	7.249706e+14	2.865107e+13	1.119160e+04	5.856420e+03	4.093803e+03	0	1.017705e-03
1.110000e+09	4.952032e+13	0.000000e+00	8.556701e-01	6.173308e+14	7.168877e+14	2.852588e+13	1.116086e+04	5.844089e+03	4.085183e+03	0	1.013408e-03
1.120000e+09	4.889961e+13	0.000000e+00	8.556701e-01	6.102770e+14	7.089518e+14	2.840153e+13	1.113047e+04	5.831884e+03	4.076652e+03	0	1.009156e-03
1.130000e+09	4.829038e+13	0.000000e+00	8.556701e-01	6.033523e+14	7.011593e+14	2.827801e+13	1.110043e+04	5.819804e+03	4.068207e+03	0	1.004948e-03
1.140000e+09	4.769234e+13	0.000000e+00	8.556701e-01	5.965536e+14	6.935066e+14	2.815532e+13	1.107073e+04	5.807846e+03	4.059849e+03	0	1.000782e-03
1.150000e+09	4.710524e+13	0.000000e+00	8.556701e-01	5.898778e+14	6.859905e+14	2.803345e+13	1.104136e+04	5.796009e+03	4.051574e+03	0	9.966585e-04
1.160000e+09	4.652878e+13	0.000000e+00	8.556701e-01	5.833219e+14	6.786072e+14	2.791239e+13	1.101232e+04	5.784290e+03	4.043382e+03	0	9.925762e-04
1.170000e+09	4.596272e+13	0.000000e+00	8.556701e-01	5.768829e+14	6.713539e+14	2.779213e+13	1.098360e+04	5.772687e+03	4.035272e+03	0	9.885346e-04
1.180000e+09	4.540680e+13	0.000000e+00	8.556701e-01	5.705580e+14	6.642274e+14	2.767268e+13	1.095520e+04	5.761200e+03	4.027241e+03	0	9.845330e-04
1.190000e+09	4.486078e+13	0.000000e+00	8.556701e-01	5.643445e+14	6.572245e+14	2.755402e+13	1.092710e+04	5.749824e+03	4.019290e+03	0	9.805707e-04
1.200000e+09	4.432442e+13	0.000000e+00	8.556701e-01	5.582397e+14	6.503425e+14	2.743615e+13	1.089931e+04	5.738560e+03	4.011416e+03	0	9.766471e-04
1.210000e+09	4.379748e+13	0.000000e+00	8.556701e-01	5.522411e+14	6.435782e+14	2.731906e+13	1.087183e+04	5.727405e+03	4.003618e+03	0	9.727614e-04
1.220000e+09	4.327975e+13	0.000000e+00	8.556701e-01	5.463461e+14	6.369294e+14	2.720275e+13	1.084463e+04	5.716357e+03	3.995895e+03	0	9.689132e-04
1.230000e+09	4.277101e+13	0.000000e+00	8.556701e-01	5.405522e+14	6.303929e+14	2.708720e+13	1.081773e+04	5.705415e+03	3.988246e+03	0	9.651018e-04
1.240000e+09	4.227105e+13	0.000000e+00	8.556701e-01	5.348573e+14	6.239662e+14	2.697242e+13	1.079111e+04	5.694576e+03	3.980670e+03	0	9.613267e-04
1.250000e+09	4.177966e+13	0.000000e+00	8.556701e-01	5.292589e+14	6.176468e+14	2.685840e+13	1.076477e+04	5.683841e+03	3.973165e+03	0	9.575871e-04
1.260000e+09	4.129665e+13	0.000000e+00	8.556701e-01	5.237548e+14	6.114326e+14	2.674513e+13	1.073870e+04	5.673205e+03	3.965731e+03	0	9.538826e-04
1.270000e+09	4.082182e+13	0.000000e+00	8.556701e-01	5.183429e+14	6.053208e+14	2.663260e+13	1.071290e+04	5.662669e+03	3.958366e+03	0	9.502125e-04
1.280000e+09	4.035499e+13	0.000000e+00	8.556701e-01	5.130211e+14	5.993094e+14	2.652082e+13	1.068737e+04	5.652231e+03	3.951069e+03	0	9.465765e-04
1.290000e+09	3.989597e+13	0.000000e+00	8.556701e-01	5.077873e+14	5.933956e+14	2.640977e+13	1.066210e+04	5.641888e+03	3.943840e+03	0	9.429738e-04
1.300000e+09	3.944459e+13	0.000000e+00	8.556701e-01	5.026396e+14	5.875779e+14	2.629944e+13	1.063709e+04	5.631641e+03	3.936676e+03	0	9.394041e-04
1.310000e+09	3.900067e+13	0.000000e+00	8.556701e-01	4.975760e+14	5.818536e+14	2.618985e+13	1.061233e+04	5.621486e+03	3.929578e+03	0	9.358667e-04
1.320000e+09	3.856405e+13	0.000000e+00	8.556701e-01	4.925947e+14	5.762210e+14	2.608097e+13	1.058782e+04	5.611424e+03	3.922544e+03	0	9.323612e-04
1.330000e+09	3.813458e+13	0.000000e+00	8.556701e-01	4.876939e+14	5.706781e+14	2.597280e+13	1.056355e+04	5.601452e+03	3.915573e+03	0	9.288871e-04
1.340000e+09	3.771208e+13	0.000000e+00	8.556701e-01	4.828717e+14	5.652226e+14	2.586534e+13	1.053953e+04	5.591569e+03	3.908665e+03	0	9.254439e-04
1.350000e+09	3.729641e+13	0.000000e+00	8.556701e-01	4.781265e+14	5.598530e+14	2.575858e+13	1.051574e+04	5.581773e+03	3.901817e+03	0	9.220312e-04
1.360000e+09	3.688741e+13	0.000000e+00	8.556701e-01	4.734566e+14	5.545672e+14	2.565251e+13	1.049218e+04	5.572064e+03	3.895031e+03	0	9.186485e-04
