#t		Qconv[W]	Ri[Rp]		R*[Rp]		Qc[W]		Qm[W]		Qr[W]		Tcmb[K]		Tl[K]		Tup[K]		RiFlag		Bs[T]
0.000000e+00	1.490603e+12	0.000000e+00	8.541667e-01	1.043914e+14	4.119872e+13	6.320195e+13	8.816534e+03	3.177476e+03	2.684917e+03	0	3.136116e-04
1.000000e+07	1.524477e+12	0.000000e+00	8.541667e-01	1.046845e+14	4.275667e+13	6.285176e+13	8.812620e+03	3.194081e+03	2.698948e+03	0	3.159695e-04
2.000000e+07	1.557220e+12	0.000000e+00	8.541667e-01	1.049664e+14	4.433862e+13	6.250419e+13	8.808695e+03	3.210471e+03	2.712797e+03	0	3.182156e-04
3.000000e+07	1.588829e+12	0.000000e+00	8.541667e-01	1.052370e+14	4.594324e+13	6.215923e+13	8.804759e+03	3.226641e+03	2.726460e+03	0	3.203542e-04
4.000000e+07	1.619300e+12	0.000000e+00	8.541667e-01	1.054963e+14	4.756912e+13	6.181683e+13	8.800813e+03	3.242587e+03	2.739935e+03	0	3.223892e-04
5.000000e+07	1.648632e+12	0.000000e+00	8.541667e-01	1.057444e+14	4.921482e+13	6.147699e+13	8.796857e+03	3.258306e+03	2.753217e+03	0	3.243242e-04
6.000000e+07	1.676827e+12	0.000000e+00	8.541667e-01	1.059812e+14	5.087882e+13	6.113969e+13	8.792893e+03	3.273795e+03	2.766305e+03	0	3.261626e-04
7.000000e+07	1.703884e+12	0.000000e+00	8.541667e-01	1.062067e+14	5.255958e+13	6.080489e+13	8.788919e+03	3.289048e+03	2.779194e+03	0	3.279076e-04
8.000000e+07	1.729806e+12	0.000000e+00	8.541667e-01	1.064209e+14	5.425546e+13	6.047259e+13	8.784937e+03	3.304064e+03	2.791882e+03	0	3.295621e-04
9.000000e+07	1.754596e+12	0.000000e+00	8.541667e-01	1.066240e+14	5.596485e+13	6.014275e+13	8.780946e+03	3.318839e+03	2.804366e+03	0	3.311290e-04
1.000000e+08	1.778259e+12	0.000000e+00	8.541667e-01	1.068159e+14	5.768605e+13	5.981537e+13	8.776949e+03	3.333370e+03	2.816645e+03	0	3.326109e-04
1.100000e+08	1.800800e+12	0.000000e+00	8.541667e-01	1.069967e+14	5.941736e+13	5.949041e+13	8.772943e+03	3.347655e+03	2.828716e+03	0	3.340104e-04
1.200000e+08	1.822226e+12	0.000000e+00	8.541667e-01	1.071664e+14	6.115705e+13	5.916787e+13	8.768932e+03	3.361692e+03	2.840576e+03	0	3.353298e-04
1.300000e+08	1.842544e+12	0.000000e+00	8.541667e-01	1.073252e+14	6.290335e+13	5.884771e+13	8.764914e+03	3.375477e+03	2.852225e+03	0	3.365716e-04
1.400000e+08	1.861763e+12	0.000000e+00	8.541667e-01	1.074732e+14	6.465453e+13	5.852992e+13	8.760889e+03	3.389010e+03	2.863660e+03	0	3.377377e-04
1.500000e+08	1.879893e+12	0.000000e+00	8.541667e-01	1.076104e+14	6.640878e+13	5.821448e+13	8.756860e+03	3.402288e+03	2.874880e+03	0	3.388305e-04
1.600000e+08	1.896943e+12	0.000000e+00	8.541667e-01	1.077369e+14	6.816439e+13	5.790137e+13	8.752825e+03	3.415311e+03	2.885884e+03	0	3.398518e-04
1.700000e+08	1.912926e+12	0.000000e+00	8.541667e-01	1.078529e+14	6.991956e+13	5.759057e+13	8.748786e+03	3.428077e+03	2.896671e+03	0	3.408036e-04
1.800000e+08	1.927852e+12	0.000000e+00	8.541667e-01	1.079584e+14	7.167255e+13	5.728206e+13	8.744742e+03	3.440585e+03	2.907240e+03	0	3.416877e-04
1.900000e+08	1.941736e+12	0.000000e+00	8.541667e-01	1.080537e+14	7.342162e+13	5.697583e+13	8.740694e+03	3.452834e+03	2.917590e+03	0	3.425060e-04
2.000000e+08	1.954591e+12	0.000000e+00	8.541667e-01	1.081388e+14	7.516509e+13	5.667185e+13	8.736643e+03	3.464825e+03	2.927722e+03	0	3.432602e-04
2.100000e+08	1.966432e+12	0.000000e+00	8.541667e-01	1.082139e+14	7.690125e+13	5.637010e+13	8.732588e+03	3.476556e+03	2.937635e+03	0	3.439519e-04
2.200000e+08	1.977273e+12	0.000000e+00	8.541667e-01	1.082792e+14	7.862847e+13	5.607057e+13	8.728531e+03	3.488028e+03	2.947329e+03	0	3.445828e-04
2.300000e+08	1.987129e+12	0.000000e+00	8.541667e-01	1.083347e+14	8.034513e+13	5.577323e+13	8.724471e+03	3.499242e+03	2.956804e+03	0	3.451545e-04
2.400000e+08	1.996018e+12	0.000000e+00	8.541667e-01	1.083808e+14	8.204966e+13	5.547808e+13	8.720409e+03	3.510197e+03	2.966061e+03	0	3.456684e-04
2.500000e+08	2.003956e+12	0.000000e+00	8.541667e-01	1.084174e+14	8.374054e+13	5.518509e+13	8.716345e+03	3.520894e+03	2.975100e+03	0	3.461260e-04
2.600000e+08	2.010961e+12	0.000000e+00	8.541667e-01	1.084449e+14	8.541630e+13	5.489424e+13	8.712280e+03	3.531335e+03	2.983922e+03	0	3.465288e-04
2.700000e+08	2.017049e+12	0.000000e+00	8.541667e-01	1.084634e+14	8.707551e+13	5.460552e+13	8.708214e+03	3.541521e+03	2.992529e+03	0	3.468781e-04
2.800000e+08	2.022239e+12	0.000000e+00	8.541667e-01	1.084730e+14	8.871682e+13	5.431891e+13	8.704148e+03	3.551452e+03	3.000921e+03	0	3.471754e-04
2.900000e+08	2.026549e+12	0.000000e+00	8.541667e-01	1.084739e+14	9.033891e+13	5.403439e+13	8.700080e+03	3.561131e+03	3.009099e+03	0	3.474219e-04
3.000000e+08	2.029998e+12	0.000000e+00	8.541667e-01	1.084664e+14	9.194052e+13	5.375195e+13	8.696013e+03	3.570559e+03	3.017066e+03	0	3.476189e-04
3.100000e+08	2.032605e+12	0.000000e+00	8.541667e-01	1.084507e+14	9.352049e+13	5.347156e+13	8.691947e+03	3.579738e+03	3.024822e+03	0	3.477676e-04
3.200000e+08	2.034388e+12	0.000000e+00	8.541667e-01	1.084268e+14	9.507772e+13	5.319321e+13	8.687880e+03	3.588671e+03	3.032370e+03	0	3.478693e-04
3.300000e+08	2.035368e+12	0.000000e+00	8.541667e-01	1.083951e+14	9.661111e+13	5.291689e+13	8.683815e+03	3.597359e+03	3.039711e+03	0	3.479251e-04
3.400000e+08	2.035563e+12	0.000000e+00	8.541667e-01	1.083556e+14	9.811971e+13	5.264257e+13	8.679751e+03	3.605805e+03	3.046848e+03	0	3.479362e-04
3.500000e+08	2.034992e+12	0.000000e+00	8.541667e-01	1.083086e+14	9.960261e+13	5.237024e+13	8.675688e+03	3.614012e+03	3.053783e+03	0	3.479037e-04
3.600000e+08	2.033676e+12	0.000000e+00	8.541667e-01	1.082544e+14	1.010589e+14	5.209989e+13	8.671627e+03	3.621982e+03	3.060517e+03	0	3.478287e-04
3.700000e+08	2.031633e+12	0.000000e+00	8.541667e-01	1.081930e+14	1.024879e+14	5.183150e+13	8.667568e+03	3.629718e+03	3.067054e+03	0	3.477122e-04
3.800000e+08	2.028883e+12	0.000000e+00	8.541667e-01	1.081247e+14	1.038888e+14	5.156504e+13	8.663512e+03	3.637224e+03	3.073396e+03	0	3.475552e-04
3.900000e+08	2.025446e+12	0.000000e+00	8.541667e-01	1.080496e+14	1.052610e+14	5.130052e+13	8.659458e+03	3.644501e+03	3.079546e+03	0	3.473588e-04
4.000000e+08	2.021341e+12	0.000000e+00	8.541667e-01	1.079680e+14	1.066040e+14	5.103790e+13	8.655407e+03	3.651554e+03	3.085506e+03	0	3.471240e-04
4.100000e+08	2.016586e+12	0.000000e+00	8.541667e-01	1.078801e+14	1.079171e+14	5.077718e+13	8.651358e+03	3.658386e+03	3.091279e+03	0	3.468516e-04
4.200000e+08	2.011202e+12	0.000000e+00	8.541667e-01	1.077860e+14	1.092000e+14	5.051833e+13	8.647314e+03	3.665001e+03	3.096867e+03	0	3.465426e-04
4.300000e+08	2.005206e+12	0.000000e+00	8.541667e-01	1.076859e+14	1.104522e+14	5.026136e+13	8.643272e+03	3.671400e+03	3.102275e+03	0	3.461979e-04
4.400000e+08	1.998617e+12	0.000000e+00	8.541667e-01	1.075801e+14	1.116735e+14	5.000622e+13	8.639235e+03	3.677589e+03	3.107504e+03	0	3.458183e-04
4.500000e+08	1.991454e+12	0.000000e+00	8.541667e-01	1.074686e+14	1.128636e+14	4.975293e+13	8.635201e+03	3.683571e+03	3.112559e+03	0	3.454047e-04
4.600000e+08	1.983736e+12	0.000000e+00	8.541667e-01	1.073517e+14	1.140223e+14	4.950145e+13	8.631172e+03	3.689349e+03	3.117441e+03	0	3.449579e-04
4.700000e+08	1.975479e+12	0.000000e+00	8.541667e-01	1.072296e+14	1.151493e+14	4.925177e+13	8.627147e+03	3.694927e+03	3.122154e+03	0	3.444786e-04
4.800000e+08	1.966703e+12	0.000000e+00	8.541667e-01	1.071024e+14	1.162447e+14	4.900389e+13	8.623126e+03	3.700309e+03	3.126702e+03	0	3.439677e-04
4.900000e+08	1.957423e+12	0.000000e+00	8.541667e-01	1.069703e+14	1.173083e+14	4.875778e+13	8.619111e+03	3.705498e+03	3.131087e+03	0	3.434259e-04
5.000000e+08	1.947658e+12	0.000000e+00	8.541667e-01	1.068335e+14	1.183403e+14	4.851343e+13	8.615100e+03	3.710499e+03	3.135313e+03	0	3.428538e-04
5.100000e+08	1.937424e+12	0.000000e+00	8.541667e-01	1.066922e+14	1.193405e+14	4.827082e+13	8.611094e+03	3.715315e+03	3.139382e+03	0	3.422523e-04
5.200000e+08	1.926738e+12	0.000000e+00	8.541667e-01	1.065464e+14	1.203092e+14	4.802995e+13	8.607094e+03	3.719950e+03	3.143299e+03	0	3.416218e-04
5.300000e+08	1.915615e+12	0.000000e+00	8.541667e-01	1.063964e+14	1.212464e+14	4.779079e+13	8.603099e+03	3.724408e+03	3.147065e+03	0	3.409632e-04
5.400000e+08	1.904073e+12	0.000000e+00	8.541667e-01	1.062424e+14	1.221524e+14	4.755334e+13	8.599110e+03	3.728692e+03	3.150686e+03	0	3.402770e-04
5.500000e+08	1.892125e+12	0.000000e+00	8.541667e-01	1.060844e+14	1.230273e+14	4.731757e+13	8.595126e+03	3.732807e+03	3.154162e+03	0	3.395638e-04
5.600000e+08	1.879789e+12	0.000000e+00	8.541667e-01	1.059226e+14	1.238713e+14	4.708349e+13	8.591149e+03	3.736756e+03	3.157499e+03	0	3.388242e-04
5.700000e+08	1.867078e+12	0.000000e+00	8.541667e-01	1.057573e+14	1.246849e+14	4.685106e+13	8.587177e+03	3.740543e+03	3.160699e+03	0	3.380588e-04
5.800000e+08	1.854007e+12	0.000000e+00	8.541667e-01	1.055884e+14	1.254683e+14	4.662029e+13	8.583212e+03	3.744172e+03	3.163766e+03	0	3.372681e-04
5.900000e+08	1.840590e+12	0.000000e+00	8.541667e-01	1.054163e+14	1.262217e+14	4.639115e+13	8.579253e+03	3.747646e+03	3.166701e+03	0	3.364525e-04
6.000000e+08	1.826841e+12	0.000000e+00	8.541667e-01	1.052409e+14	1.269457e+14	4.616363e+13	8.575300e+03	3.750969e+03	3.169510e+03	0	3.356127e-04
6.100000e+08	1.812773e+12	0.000000e+00	8.541667e-01	1.050624e+14	1.276405e+14	4.593772e+13	8.571354e+03	3.754146e+03	3.172194e+03	0	3.347490e-04
6.200000e+08	1.798401e+12	0.000000e+00	8.541667e-01	1.048811e+14	1.283066e+14	4.571341e+13	8.567415e+03	3.757179e+03	3.174756e+03	0	3.338620e-04
6.300000e+08	1.783735e+12	0.000000e+00	8.541667e-01	1.046969e+14	1.289444e+14	4.549068e+13	8.563483e+03	3.760072e+03	3.177201e+03	0	3.329520e-04
6.400000e+08	1.768790e+12	0.000000e+00	8.541667e-01	1.045101e+14	1.295544e+14	4.526952e+13	8.559557e+03	3.762828e+03	3.179530e+03	0	3.320195e-04
6.500000e+08	1.753577e+12	0.000000e+00	8.541667e-01	1.043206e+14	1.301370e+14	4.504992e+13	8.555638e+03	3.765452e+03	3.181747e+03	0	3.310648e-04
6.600000e+08	1.738108e+12	0.000000e+00	8.541667e-01	1.041288e+14	1.306928e+14	4.483187e+13	8.551727e+03	3.767947e+03	3.183855e+03	0	3.300885e-04
6.700000e+08	1.722394e+12	0.000000e+00	8.541667e-01	1.039346e+14	1.312221e+14	4.461534e+13	8.547823e+03	3.770315e+03	3.185857e+03	0	3.290907e-04
6.800000e+08	1.706446e+12	0.000000e+00	8.541667e-01	1.037382e+14	1.317255e+14	4.440034e+13	8.543926e+03	3.772561e+03	3.187754e+03	0	3.280719e-04
6.900000e+08	1.690276e+12	0.000000e+00	8.541667e-01	1.035396e+14	1.322034e+14	4.418685e+13	8.540036e+03	3.774688e+03	3.189551e+03	0	3.270323e-04
7.000000e+08	1.673894e+12	0.000000e+00	8.541667e-01	1.033391e+14	1.326565e+14	4.397485e+13	8.536154e+03	3.776698e+03	3.191250e+03	0	3.259723e-04
7.100000e+08	1.657309e+12	0.000000e+00	8.541667e-01	1.031366e+14	1.330853e+14	4.376434e+13	8.532279e+03	3.778596e+03	3.192854e+03	0	3.248922e-04
7.200000e+08	1.640533e+12	0.000000e+00	8.541667e-01	1.029324e+14	1.334902e+14	4.355530e+13	8.528412e+03	3.780384e+03	3.194364e+03	0	3.237922e-04
7.300000e+08	1.623574e+12	0.000000e+00	8.541667e-01	1.027264e+14	1.338718e+14	4.334772e+13	8.524553e+03	3.782065e+03	3.195785e+03	0	3.226726e-04
7.400000e+08	1.606441e+12	0.000000e+00	8.541667e-01	1.025188e+14	1.342306e+14	4.314159e+13	8.520701e+03	3.783643e+03	3.197118e+03	0	3.215336e-04
7.500000e+08	1.589144e+12	0.000000e+00	8.541667e-01	1.023096e+14	1.345672e+14	4.293690e+13	8.516857e+03	3.785120e+03	3.198366e+03	0	3.203755e-04
7.600000e+08	1.571692e+12	0.000000e+00	8.541667e-01	1.020991e+14	1.348821e+14	4.273363e+13	8.513021e+03	3.786499e+03	3.199531e+03	0	3.191983e-04
7.700000e+08	1.554092e+12	0.000000e+00	8.541667e-01	1.018871e+14	1.351758e+14	4.253178e+13	8.509192e+03	3.787783e+03	3.200617e+03	0	3.180024e-04
7.800000e+08	1.536353e+12	0.000000e+00	8.541667e-01	1.016739e+14	1.354488e+14	4.233133e+13	8.505372e+03	3.788975e+03	3.201624e+03	0	3.167878e-04
7.900000e+08	1.518483e+12	0.000000e+00	8.541667e-01	1.014594e+14	1.357017e+14	4.213227e+13	8.501560e+03	3.790077e+03	3.202555e+03	0	3.155548e-04
8.000000e+08	1.500490e+12	0.000000e+00	8.541667e-01	1.012438e+14	1.359350e+14	4.193459e+13	8.497756e+03	3.791093e+03	3.203414e+03	0	3.143034e-04
8.100000e+08	1.482380e+12	0.000000e+00	8.541667e-01	1.010272e+14	1.361492e+14	4.173829e+13	8.493959e+03	3.792025e+03	3.204201e+03	0	3.130338e-04
8.200000e+08	1.464161e+12	0.000000e+00	8.541667e-01	1.008095e+14	1.363449e+14	4.154334e+13	8.490171e+03	3.792874e+03	3.204919e+03	0	3.117461e-04
8.300000e+08	1.445840e+12	0.000000e+00	8.541667e-01	1.005910e+14	1.365225e+14	4.134974e+13	8.486391e+03	3.793645e+03	3.205570e+03	0	3.104404e-04
8.400000e+08	1.427423e+12	0.000000e+00	8.541667e-01	1.003716e+14	1.366825e+14	4.115747e+13	8.482620e+03	3.794339e+03	3.206156e+03	0	3.091166e-04
8.500000e+08	1.408917e+12	0.000000e+00	8.541667e-01	1.001514e+14	1.368255e+14	4.096654e+13	8.478856e+03	3.794958e+03	3.206679e+03	0	3.077749e-04
8.600000e+08	1.390328e+12	0.000000e+00	8.541667e-01	9.993043e+13	1.369519e+14	4.077691e+13	8.475101e+03	3.795505e+03	3.207142e+03	0	3.064154e-04
8.700000e+08	1.371662e+12	0.000000e+00	8.541667e-01	9.970882e+13	1.370623e+14	4.058860e+13	8.471354e+03	3.795982e+03	3.207545e+03	0	3.050379e-04
8.800000e+08	1.352925e+12	0.000000e+00	8.541667e-01	9.948659e+13	1.371570e+14	4.040158e+13	8.467615e+03	3.796392e+03	3.207891e+03	0	3.036426e-04
8.900000e+08	1.334122e+12	0.000000e+00	8.541667e-01	9.926381e+13	1.372366e+14	4.021584e+13	8.463885e+03	3.796736e+03	3.208182e+03	0	3.022294e-04
9.000000e+08	1.315259e+12	0.000000e+00	8.541667e-01	9.904051e+13	1.373015e+14	4.003138e+13	8.460163e+03	3.797016e+03	3.208418e+03	0	3.007982e-04
9.100000e+08	1.296341e+12	0.000000e+00	8.541667e-01	9.881676e+13	1.373522e+14	3.984819e+13	8.456449e+03	3.797235e+03	3.208603e+03	0	2.993490e-04
9.200000e+08	1.277372e+12	0.000000e+00	8.541667e-01	9.859260e+13	1.373890e+14	3.966624e+13	8.452744e+03	3.797394e+03	3.208738e+03	0	2.978818e-04
9.300000e+08	1.258359e+12	0.000000e+00	8.541667e-01	9.836808e+13	1.374126e+14	3.948555e+13	8.449047e+03	3.797496e+03	3.208824e+03	0	2.963964e-04
9.400000e+08	1.239304e+12	0.000000e+00	8.541667e-01	9.814325e+13	1.374232e+14	3.930609e+13	8.445358e+03	3.797541e+03	3.208862e+03	0	2.948927e-04
9.500000e+08	1.220213e+12	0.000000e+00	8.541667e-01	9.791814e+13	1.374213e+14	3.912785e+13	8.441678e+03	3.797533e+03	3.208855e+03	0	2.933707e-04
9.600000e+08	1.201090e+12	0.000000e+00	8.541667e-01	9.769281e+13	1.374072e+14	3.895083e+13	8.438007e+03	3.797473e+03	3.208804e+03	0	2.918300e-04
9.700000e+08	1.181940e+12	0.000000e+00	8.541667e-01	9.746729e+13	1.373815e+14	3.877501e+13	8.434344e+03	3.797361e+03	3.208710e+03	0	2.902707e-04
9.800000e+08	1.162765e+12	0.000000e+00	8.541667e-01	9.724162e+13	1.373444e+14	3.860039e+13	8.430689e+03	3.797201e+03	3.208575e+03	0	2.886925e-04
9.900000e+08	1.143571e+12	0.000000e+00	8.541667e-01	9.701584e+13	1.372964e+14	3.842696e+13	8.427043e+03	3.796994e+03	3.208400e+03	0	2.870951e-04
1.000000e+09	1.124360e+12	0.000000e+00	8.541667e-01	9.678998e+13	1.372379e+14	3.825470e+13	8.423405e+03	3.796741e+03	3.208186e+03	0	2.854784e-04
1.010000e+09	1.105136e+12	0.000000e+00	8.541667e-01	9.656409e+13	1.371691e+14	3.808361e+13	8.419775e+03	3.796444e+03	3.207935e+03	0	2.838420e-04
1.020000e+09	1.085903e+12	0.000000e+00	8.541667e-01	9.633818e+13	1.370905e+14	3.791369e+13	8.416155e+03	3.796104e+03	3.207648e+03	0	2.821858e-04
1.030000e+09	1.066663e+12	0.000000e+00	8.541667e-01	9.611231e+13	1.370023e+14	3.774491e+13	8.412542e+03	3.795723e+03	3.207326e+03	0	2.805093e-04
1.040000e+09	1.047421e+12	0.000000e+00	8.541667e-01	9.588649e+13	1.369050e+14	3.757727e+13	8.408938e+03	3.795302e+03	3.206970e+03	0	2.788123e-04
1.050000e+09	1.028179e+12	0.000000e+00	8.541667e-01	9.566076e+13	1.367989e+14	3.741076e+13	8.405343e+03	3.794843e+03	3.206582e+03	0	2.770944e-04
1.060000e+09	1.008940e+12	0.000000e+00	8.541667e-01	9.543514e+13	1.366842e+14	3.724538e+13	8.401756e+03	3.794346e+03	3.206162e+03	0	2.753551e-04
1.070000e+09	9.897060e+11	0.000000e+00	8.541667e-01	9.520966e+13	1.365613e+14	3.708111e+13	8.398177e+03	3.793813e+03	3.205712e+03	0	2.735942e-04
1.080000e+09	9.704809e+11	0.000000e+00	8.541667e-01	9.498436e+13	1.364304e+14	3.691795e+13	8.394607e+03	3.793246e+03	3.205233e+03	0	2.718111e-04
1.090000e+09	9.512668e+11	0.000000e+00	8.541667e-01	9.475925e+13	1.362920e+14	3.675588e+13	8.391045e+03	3.792645e+03	3.204725e+03	0	2.700053e-04
1.100000e+09	9.320662e+11	0.000000e+00	8.541667e-01	9.453435e+13	1.361462e+14	3.659490e+13	8.387492e+03	3.792011e+03	3.204190e+03	0	2.681763e-04
1.110000e+09	9.128814e+11	0.000000e+00	8.541667e-01	9.430970e+13	1.359933e+14	3.643501e+13	8.383947e+03	3.791347e+03	3.203628e+03	0	2.663235e-04
1.120000e+09	8.937147e+11	0.000000e+00	8.541667e-01	9.408531e+13	1.358336e+14	3.627618e+13	8.380411e+03	3.790652e+03	3.203041e+03	0	2.644465e-04
1.130000e+09	8.745683e+11	0.000000e+00	8.541667e-01	9.386121e+13	1.356675e+14	3.611841e+13	8.376883e+03	3.789928e+03	3.202429e+03	0	2.625444e-04
1.140000e+09	8.554443e+11	0.000000e+00	8.541667e-01	9.363741e+13	1.354950e+14	3.596170e+13	8.373363e+03	3.789177e+03	3.201794e+03	0	2.606166e-04
1.150000e+09	8.363447e+11	0.000000e+00	8.541667e-01	9.341394e+13	1.353165e+14	3.580604e+13	8.369852e+03	3.788398e+03	3.201136e+03	0	2.586624e-04
1.160000e+09	8.172715e+11	0.000000e+00	8.541667e-01	9.319081e+13	1.351322e+14	3.565141e+13	8.366349e+03	3.787593e+03	3.200456e+03	0	2.566809e-04
1.170000e+09	7.982263e+11	0.000000e+00	8.541667e-01	9.296804e+13	1.349423e+14	3.549782e+13	8.362855e+03	3.786762e+03	3.199754e+03	0	2.546714e-04
1.180000e+09	7.792111e+11	0.000000e+00	8.541667e-01	9.274565e+13	1.347471e+14	3.534525e+13	8.359368e+03	3.785908e+03	3.199032e+03	0	2.526329e-04
1.190000e+09	7.602275e+11	0.000000e+00	8.541667e-01	9.252366e+13	1.345468e+14	3.519369e+13	8.355891e+03	3.785030e+03	3.198290e+03	0	2.505644e-04
1.200000e+09	7.412771e+11	0.000000e+00	8.541667e-01	9.230208e+13	1.343415e+14	3.504314e+13	8.352421e+03	3.784130e+03	3.197530e+03	0	2.484649e-04
1.210000e+09	7.223615e+11	0.000000e+00	8.541667e-01	9.208092e+13	1.341316e+14	3.489358e+13	8.348960e+03	3.783208e+03	3.196750e+03	0	2.463332e-04
1.220000e+09	7.034821e+11	0.000000e+00	8.541667e-01	9.186021e+13	1.339172e+14	3.474502e+13	8.345507e+03	3.782265e+03	3.195954e+03	0	2.441682e-04
1.230000e+09	6.846403e+11	0.000000e+00	8.541667e-01	9.163995e+13	1.336984e+14	3.459744e+13	8.342062e+03	3.781301e+03	3.195140e+03	0	2.419686e-04
1.240000e+09	6.658375e+11	0.000000e+00	8.541667e-01	9.142015e+13	1.334755e+14	3.445083e+13	8.338626e+03	3.780319e+03	3.194310e+03	0	2.397328e-04
1.250000e+09	6.470750e+11	0.000000e+00	8.541667e-01	9.120084e+13	1.332487e+14	3.430519e+13	8.335198e+03	3.779318e+03	3.193464e+03	0	2.374596e-04
1.260000e+09	6.283540e+11	0.000000e+00	8.541667e-01	9.098202e+13	1.330181e+14	3.416052e+13	8.331778e+03	3.778298e+03	3.192602e+03	0	2.351471e-04
1.270000e+09	6.096757e+11	0.000000e+00	8.541667e-01	9.076370e+13	1.327839e+14	3.401679e+13	8.328366e+03	3.777262e+03	3.191727e+03	0	2.327936e-04
1.280000e+09	5.910412e+11	0.000000e+00	8.541667e-01	9.054589e+13	1.325462e+14	3.387401e+13	8.324963e+03	3.776209e+03	3.190837e+03	0	2.303973e-04
1.290000e+09	5.724515e+11	0.000000e+00	8.541667e-01	9.032861e+13	1.323053e+14	3.373217e+13	8.321567e+03	3.775140e+03	3.189933e+03	0	2.279560e-04
1.300000e+09	5.539078e+11	0.000000e+00	8.541667e-01	9.011186e+13	1.320612e+14	3.359126e+13	8.318180e+03	3.774055e+03	3.189017e+03	0	2.254675e-04
1.310000e+09	5.354108e+11	0.000000e+00	8.541667e-01	8.989566e+13	1.318142e+14	3.345128e+13	8.314801e+03	3.772956e+03	3.188088e+03	0	2.229293e-04
1.320000e+09	5.169616e+11	0.000000e+00	8.541667e-01	8.968001e+13	1.315643e+14	3.331221e+13	8.311430e+03	3.771843e+03	3.187147e+03	0	2.203387e-04
1.330000e+09	4.985610e+11	0.000000e+00	8.541667e-01	8.946491e+13	1.313117e+14	3.317405e+13	8.308067e+03	3.770716e+03	3.186195e+03	0	2.176929e-04
1.340000e+09	4.802099e+11	0.000000e+00	8.541667e-01	8.925039e+13	1.310566e+14	3.303679e+13	8.304712e+03	3.769575e+03	3.185231e+03	0	2.149885e-04
1.350000e+09	4.619090e+11	0.000000e+00	8.541667e-01	8.903644e+13	1.307990e+14	3.290043e+13	8.301365e+03	3.768423e+03	3.184257e+03	0	2.122219e-04
1.360000e+09	4.436592e+11	0.000000e+00	8.541667e-01	8.882307e+13	1.305391e+14	3.276496e+13	8.298026e+03	3.767258e+03	3.183273e+03	0	2.093894e-04
