#t		Qconv[W]	Ri[Rp]		R*[Rp]		Qc[W]		Qm[W]		Qr[W]		Tcmb[K]		Tl[K]		Tup[K]		RiFlag		Bs[T]
0.000000e+00	3.465755e+11	0.000000e+00	8.541667e-01	1.060827e+14	4.014801e+13	6.641730e+13	9.033688e+03	3.217300e+03	2.711836e+03	0	1.925333e-04
1.000000e+07	3.841079e+11	0.000000e+00	8.541667e-01	1.063994e+14	4.165688e+13	6.604930e+13	9.029962e+03	3.233873e+03	2.725806e+03	0	1.992466e-04
2.000000e+07	4.205457e+11	0.000000e+00	8.541667e-01	1.067054e+14	4.319038e+13	6.568405e+13	9.026226e+03	3.250248e+03	2.739608e+03	0	2.053577e-04
3.000000e+07	4.558836e+11	0.000000e+00	8.541667e-01	1.070008e+14	4.474739e+13	6.532153e+13	9.022478e+03	3.266421e+03	2.753240e+03	0	2.109557e-04
4.000000e+07	4.901173e+11	0.000000e+00	8.541667e-01	1.072855e+14	4.632671e+13	6.496172e+13	9.018721e+03	3.282387e+03	2.766698e+03	0	2.161092e-04
5.000000e+07	5.232433e+11	0.000000e+00	8.541667e-01	1.075595e+14	4.792708e+13	6.460459e+13	9.014953e+03	3.298144e+03	2.779980e+03	0	2.208722e-04
6.000000e+07	5.552595e+11	0.000000e+00	8.541667e-01	1.078227e+14	4.954719e+13	6.425012e+13	9.011176e+03	3.313688e+03	2.793081e+03	0	2.252883e-04
7.000000e+07	5.861645e+11	0.000000e+00	8.541667e-01	1.080753e+14	5.118569e+13	6.389829e+13	9.007389e+03	3.329014e+03	2.806000e+03	0	2.293928e-04
8.000000e+07	6.159581e+11	0.000000e+00	8.541667e-01	1.083171e+14	5.284117e+13	6.354908e+13	9.003594e+03	3.344121e+03	2.818733e+03	0	2.332153e-04
9.000000e+07	6.446412e+11	0.000000e+00	8.541667e-01	1.085481e+14	5.451217e+13	6.320247e+13	8.999790e+03	3.359004e+03	2.831278e+03	0	2.367805e-04
1.000000e+08	6.722156e+11	0.000000e+00	8.541667e-01	1.087685e+14	5.619719e+13	6.285843e+13	8.995978e+03	3.373662e+03	2.843633e+03	0	2.401095e-04
1.100000e+08	6.986841e+11	0.000000e+00	8.541667e-01	1.089783e+14	5.789473e+13	6.251694e+13	8.992158e+03	3.388091e+03	2.855795e+03	0	2.432205e-04
1.200000e+08	7.240505e+11	0.000000e+00	8.541667e-01	1.091773e+14	5.960322e+13	6.217799e+13	8.988331e+03	3.402288e+03	2.867761e+03	0	2.461290e-04
1.300000e+08	7.483198e+11	0.000000e+00	8.541667e-01	1.093659e+14	6.132109e+13	6.184154e+13	8.984497e+03	3.416252e+03	2.879532e+03	0	2.488488e-04
1.400000e+08	7.714976e+11	0.000000e+00	8.541667e-01	1.095439e+14	6.304672e+13	6.150759e+13	8.980656e+03	3.429980e+03	2.891103e+03	0	2.513920e-04
1.500000e+08	7.935906e+11	0.000000e+00	8.541667e-01	1.097114e+14	6.477852e+13	6.117610e+13	8.976809e+03	3.443471e+03	2.902474e+03	0	2.537691e-04
1.600000e+08	8.146064e+11	0.000000e+00	8.541667e-01	1.098686e+14	6.651486e+13	6.084706e+13	8.972957e+03	3.456722e+03	2.913644e+03	0	2.559897e-04
1.700000e+08	8.345536e+11	0.000000e+00	8.541667e-01	1.100155e+14	6.825411e+13	6.052045e+13	8.969098e+03	3.469733e+03	2.924610e+03	0	2.580623e-04
1.800000e+08	8.534414e+11	0.000000e+00	8.541667e-01	1.101522e+14	6.999465e+13	6.019624e+13	8.965235e+03	3.482502e+03	2.935373e+03	0	2.599947e-04
1.900000e+08	8.712799e+11	0.000000e+00	8.541667e-01	1.102789e+14	7.173484e+13	5.987443e+13	8.961367e+03	3.495028e+03	2.945931e+03	0	2.617937e-04
2.000000e+08	8.880801e+11	0.000000e+00	8.541667e-01	1.103955e+14	7.347308e+13	5.955498e+13	8.957494e+03	3.507310e+03	2.956283e+03	0	2.634656e-04
2.100000e+08	9.038535e+11	0.000000e+00	8.541667e-01	1.105023e+14	7.520778e+13	5.923788e+13	8.953617e+03	3.519347e+03	2.966430e+03	0	2.650163e-04
2.200000e+08	9.186126e+11	0.000000e+00	8.541667e-01	1.105993e+14	7.693734e+13	5.892311e+13	8.949737e+03	3.531140e+03	2.976370e+03	0	2.664510e-04
2.300000e+08	9.323703e+11	0.000000e+00	8.541667e-01	1.106867e+14	7.866024e+13	5.861066e+13	8.945853e+03	3.542688e+03	2.986103e+03	0	2.677746e-04
2.400000e+08	9.451401e+11	0.000000e+00	8.541667e-01	1.107646e+14	8.037492e+13	5.830049e+13	8.941966e+03	3.553990e+03	2.995630e+03	0	2.689915e-04
2.500000e+08	9.569364e+11	0.000000e+00	8.541667e-01	1.108332e+14	8.207991e+13	5.799259e+13	8.938076e+03	3.565048e+03	3.004951e+03	0	2.701060e-04
2.600000e+08	9.677739e+11	0.000000e+00	8.541667e-01	1.108926e+14	8.377376e+13	5.768695e+13	8.934184e+03	3.575862e+03	3.014066e+03	0	2.711219e-04
2.700000e+08	9.776677e+11	0.000000e+00	8.541667e-01	1.109429e+14	8.545504e+13	5.738354e+13	8.930289e+03	3.586432e+03	3.022975e+03	0	2.720426e-04
2.800000e+08	9.866337e+11	0.000000e+00	8.541667e-01	1.109844e+14	8.712236e+13	5.708235e+13	8.926393e+03	3.596758e+03	3.031679e+03	0	2.728717e-04
2.900000e+08	9.946878e+11	0.000000e+00	8.541667e-01	1.110171e+14	8.877442e+13	5.678335e+13	8.922496e+03	3.606843e+03	3.040180e+03	0	2.736122e-04
3.000000e+08	1.001847e+12	0.000000e+00	8.541667e-01	1.110412e+14	9.040992e+13	5.648654e+13	8.918597e+03	3.616688e+03	3.048477e+03	0	2.742671e-04
3.100000e+08	1.008127e+12	0.000000e+00	8.541667e-01	1.110569e+14	9.202764e+13	5.619188e+13	8.914698e+03	3.626292e+03	3.056573e+03	0	2.748390e-04
3.200000e+08	1.013546e+12	0.000000e+00	8.541667e-01	1.110644e+14	9.362640e+13	5.589938e+13	8.910798e+03	3.635659e+03	3.064468e+03	0	2.753305e-04
3.300000e+08	1.018121e+12	0.000000e+00	8.541667e-01	1.110638e+14	9.520509e+13	5.560899e+13	8.906898e+03	3.644790e+03	3.072164e+03	0	2.757442e-04
3.400000e+08	1.021870e+12	0.000000e+00	8.541667e-01	1.110553e+14	9.676264e+13	5.532072e+13	8.902998e+03	3.653686e+03	3.079663e+03	0	2.760822e-04
3.500000e+08	1.024810e+12	0.000000e+00	8.541667e-01	1.110390e+14	9.829804e+13	5.503454e+13	8.899098e+03	3.662350e+03	3.086966e+03	0	2.763467e-04
3.600000e+08	1.026960e+12	0.000000e+00	8.541667e-01	1.110152e+14	9.981034e+13	5.475043e+13	8.895198e+03	3.670784e+03	3.094075e+03	0	2.765398e-04
3.700000e+08	1.028336e+12	0.000000e+00	8.541667e-01	1.109840e+14	1.012987e+14	5.446838e+13	8.891300e+03	3.678990e+03	3.100991e+03	0	2.766634e-04
3.800000e+08	1.028959e+12	0.000000e+00	8.541667e-01	1.109457e+14	1.027622e+14	5.418837e+13	8.887402e+03	3.686970e+03	3.107718e+03	0	2.767192e-04
3.900000e+08	1.028845e+12	0.000000e+00	8.541667e-01	1.109002e+14	1.042001e+14	5.391039e+13	8.883506e+03	3.694728e+03	3.114257e+03	0	2.767089e-04
4.000000e+08	1.028013e+12	0.000000e+00	8.541667e-01	1.108480e+14	1.056118e+14	5.363441e+13	8.879612e+03	3.702265e+03	3.120610e+03	0	2.766343e-04
4.100000e+08	1.026481e+12	0.000000e+00	8.541667e-01	1.107890e+14	1.069965e+14	5.336043e+13	8.875719e+03	3.709584e+03	3.126779e+03	0	2.764969e-04
4.200000e+08	1.024267e+12	0.000000e+00	8.541667e-01	1.107236e+14	1.083538e+14	5.308842e+13	8.871829e+03	3.716689e+03	3.132768e+03	0	2.762979e-04
4.300000e+08	1.021390e+12	0.000000e+00	8.541667e-01	1.106519e+14	1.096829e+14	5.281836e+13	8.867940e+03	3.723582e+03	3.138578e+03	0	2.760389e-04
4.400000e+08	1.017866e+12	0.000000e+00	8.541667e-01	1.105740e+14	1.109836e+14	5.255025e+13	8.864055e+03	3.730266e+03	3.144212e+03	0	2.757212e-04
4.500000e+08	1.013715e+12	0.000000e+00	8.541667e-01	1.104901e+14	1.122554e+14	5.228407e+13	8.860172e+03	3.736744e+03	3.149672e+03	0	2.753458e-04
4.600000e+08	1.008953e+12	0.000000e+00	8.541667e-01	1.104004e+14	1.134979e+14	5.201980e+13	8.856291e+03	3.743020e+03	3.154962e+03	0	2.749140e-04
4.700000e+08	1.003599e+12	0.000000e+00	8.541667e-01	1.103051e+14	1.147108e+14	5.175742e+13	8.852415e+03	3.749096e+03	3.160084e+03	0	2.744269e-04
4.800000e+08	9.976693e+11	0.000000e+00	8.541667e-01	1.102043e+14	1.158939e+14	5.149692e+13	8.848541e+03	3.754977e+03	3.165040e+03	0	2.738853e-04
4.900000e+08	9.911816e+11	0.000000e+00	8.541667e-01	1.100982e+14	1.170470e+14	5.123829e+13	8.844671e+03	3.760664e+03	3.169834e+03	0	2.732903e-04
5.000000e+08	9.841527e+11	0.000000e+00	8.541667e-01	1.099870e+14	1.181699e+14	5.098151e+13	8.840805e+03	3.766162e+03	3.174468e+03	0	2.726428e-04
5.100000e+08	9.765993e+11	0.000000e+00	8.541667e-01	1.098708e+14	1.192625e+14	5.072656e+13	8.836942e+03	3.771475e+03	3.178946e+03	0	2.719435e-04
5.200000e+08	9.685381e+11	0.000000e+00	8.541667e-01	1.097498e+14	1.203248e+14	5.047343e+13	8.833084e+03	3.776604e+03	3.183270e+03	0	2.711932e-04
5.300000e+08	9.599853e+11	0.000000e+00	8.541667e-01	1.096241e+14	1.213569e+14	5.022211e+13	8.829230e+03	3.781555e+03	3.187442e+03	0	2.703926e-04
5.400000e+08	9.509568e+11	0.000000e+00	8.541667e-01	1.094940e+14	1.223586e+14	4.997258e+13	8.825380e+03	3.786329e+03	3.191467e+03	0	2.695422e-04
5.500000e+08	9.414683e+11	0.000000e+00	8.541667e-01	1.093595e+14	1.233300e+14	4.972482e+13	8.821535e+03	3.790932e+03	3.195347e+03	0	2.686427e-04
5.600000e+08	9.315354e+11	0.000000e+00	8.541667e-01	1.092208e+14	1.242714e+14	4.947882e+13	8.817694e+03	3.795366e+03	3.199084e+03	0	2.676946e-04
5.700000e+08	9.211732e+11	0.000000e+00	8.541667e-01	1.090780e+14	1.251828e+14	4.923457e+13	8.813859e+03	3.799635e+03	3.202682e+03	0	2.666983e-04
5.800000e+08	9.103965e+11	0.000000e+00	8.541667e-01	1.089314e+14	1.260644e+14	4.899206e+13	8.810028e+03	3.803742e+03	3.206144e+03	0	2.656542e-04
5.900000e+08	8.992200e+11	0.000000e+00	8.541667e-01	1.087810e+14	1.269165e+14	4.875126e+13	8.806203e+03	3.807690e+03	3.209472e+03	0	2.645627e-04
6.000000e+08	8.876579e+11	0.000000e+00	8.541667e-01	1.086269e+14	1.277392e+14	4.851217e+13	8.802383e+03	3.811484e+03	3.212670e+03	0	2.634239e-04
6.100000e+08	8.757242e+11	0.000000e+00	8.541667e-01	1.084694e+14	1.285329e+14	4.827477e+13	8.798568e+03	3.815126e+03	3.215740e+03	0	2.622380e-04
6.200000e+08	8.634325e+11	0.000000e+00	8.541667e-01	1.083085e+14	1.292979e+14	4.803904e+13	8.794759e+03	3.818621e+03	3.218685e+03	0	2.610053e-04
6.300000e+08	8.507962e+11	0.000000e+00	8.541667e-01	1.081443e+14	1.300344e+14	4.780498e+13	8.790956e+03	3.821971e+03	3.221509e+03	0	2.597258e-04
6.400000e+08	8.378284e+11	0.000000e+00	8.541667e-01	1.079771e+14	1.307428e+14	4.757257e+13	8.787158e+03	3.825179e+03	3.224213e+03	0	2.583994e-04
6.500000e+08	8.245417e+11	0.000000e+00	8.541667e-01	1.078069e+14	1.314235e+14	4.734180e+13	8.783366e+03	3.828250e+03	3.226802e+03	0	2.570262e-04
6.600000e+08	8.109486e+11	0.000000e+00	8.541667e-01	1.076338e+14	1.320769e+14	4.711265e+13	8.779580e+03	3.831186e+03	3.229276e+03	0	2.556060e-04
6.700000e+08	7.970613e+11	0.000000e+00	8.541667e-01	1.074579e+14	1.327033e+14	4.688512e+13	8.775800e+03	3.833991e+03	3.231641e+03	0	2.541385e-04
6.800000e+08	7.828915e+11	0.000000e+00	8.541667e-01	1.072795e+14	1.333032e+14	4.665918e+13	8.772027e+03	3.836668e+03	3.233897e+03	0	2.526235e-04
6.900000e+08	7.684508e+11	0.000000e+00	8.541667e-01	1.070985e+14	1.338771e+14	4.643482e+13	8.768259e+03	3.839220e+03	3.236048e+03	0	2.510606e-04
7.000000e+08	7.537503e+11	0.000000e+00	8.541667e-01	1.069151e+14	1.344252e+14	4.621204e+13	8.764498e+03	3.841650e+03	3.238096e+03	0	2.494494e-04
7.100000e+08	7.388010e+11	0.000000e+00	8.541667e-01	1.067294e+14	1.349482e+14	4.599082e+13	8.760743e+03	3.843961e+03	3.240044e+03	0	2.477892e-04
7.200000e+08	7.236134e+11	0.000000e+00	8.541667e-01	1.065415e+14	1.354464e+14	4.577115e+13	8.756995e+03	3.846157e+03	3.241895e+03	0	2.460795e-04
7.300000e+08	7.081980e+11	0.000000e+00	8.541667e-01	1.063515e+14	1.359204e+14	4.555301e+13	8.753254e+03	3.848240e+03	3.243651e+03	0	2.443195e-04
7.400000e+08	6.925647e+11	0.000000e+00	8.541667e-01	1.061594e+14	1.363706e+14	4.533639e+13	8.749519e+03	3.850214e+03	3.245315e+03	0	2.425083e-04
7.500000e+08	6.767232e+11	0.000000e+00	8.541667e-01	1.059655e+14	1.367974e+14	4.512128e+13	8.745791e+03	3.852080e+03	3.246888e+03	0	2.406450e-04
7.600000e+08	6.606831e+11	0.000000e+00	8.541667e-01	1.057697e+14	1.372014e+14	4.490767e+13	8.742070e+03	3.853843e+03	3.248374e+03	0	2.387285e-04
7.700000e+08	6.444535e+11	0.000000e+00	8.541667e-01	1.055723e+14	1.375831e+14	4.469555e+13	8.738355e+03	3.855505e+03	3.249775e+03	0	2.367575e-04
7.800000e+08	6.280434e+11	0.000000e+00	8.541667e-01	1.053731e+14	1.379430e+14	4.448490e+13	8.734648e+03	3.857069e+03	3.251093e+03	0	2.347306e-04
7.900000e+08	6.114614e+11	0.000000e+00	8.541667e-01	1.051724e+14	1.382815e+14	4.427572e+13	8.730947e+03	3.858537e+03	3.252330e+03	0	2.326463e-04
8.000000e+08	5.947159e+11	0.000000e+00	8.541667e-01	1.049702e+14	1.385991e+14	4.406798e+13	8.727254e+03	3.859912e+03	3.253489e+03	0	2.305029e-04
8.100000e+08	5.778150e+11	0.000000e+00	8.541667e-01	1.047666e+14	1.388963e+14	4.386169e+13	8.723567e+03	3.861196e+03	3.254572e+03	0	2.282984e-04
8.200000e+08	5.607667e+11	0.000000e+00	8.541667e-01	1.045617e+14	1.391737e+14	4.365682e+13	8.719888e+03	3.862393e+03	3.255580e+03	0	2.260306e-04
8.300000e+08	5.435786e+11	0.000000e+00	8.541667e-01	1.043555e+14	1.394316e+14	4.345337e+13	8.716216e+03	3.863504e+03	3.256517e+03	0	2.236973e-04
8.400000e+08	5.262581e+11	0.000000e+00	8.541667e-01	1.041482e+14	1.396706e+14	4.325133e+13	8.712551e+03	3.864533e+03	3.257384e+03	0	2.212956e-04
8.500000e+08	5.088124e+11	0.000000e+00	8.541667e-01	1.039397e+14	1.398912e+14	4.305068e+13	8.708894e+03	3.865481e+03	3.258183e+03	0	2.188227e-04
8.600000e+08	4.912483e+11	0.000000e+00	8.541667e-01	1.037302e+14	1.400938e+14	4.285141e+13	8.705243e+03	3.866351e+03	3.258916e+03	0	2.162753e-04
8.700000e+08	4.735728e+11	0.000000e+00	8.541667e-01	1.035196e+14	1.402790e+14	4.265351e+13	8.701601e+03	3.867145e+03	3.259586e+03	0	2.136496e-04
8.800000e+08	4.557921e+11	0.000000e+00	8.541667e-01	1.033082e+14	1.404471e+14	4.245698e+13	8.697965e+03	3.867865e+03	3.260193e+03	0	2.109416e-04
8.900000e+08	4.379128e+11	0.000000e+00	8.541667e-01	1.030959e+14	1.405986e+14	4.226179e+13	8.694337e+03	3.868514e+03	3.260739e+03	0	2.081465e-04
9.000000e+08	4.199407e+11	0.000000e+00	8.541667e-01	1.028828e+14	1.407340e+14	4.206795e+13	8.690716e+03	3.869093e+03	3.261228e+03	0	2.052592e-04
9.100000e+08	4.018819e+11	0.000000e+00	8.541667e-01	1.026690e+14	1.408538e+14	4.187543e+13	8.687103e+03	3.869605e+03	3.261659e+03	0	2.022737e-04
9.200000e+08	3.837420e+11	0.000000e+00	8.541667e-01	1.024545e+14	1.409584e+14	4.168423e+13	8.683498e+03	3.870052e+03	3.262036e+03	0	1.991833e-04
9.300000e+08	3.655265e+11	0.000000e+00	8.541667e-01	1.022393e+14	1.410482e+14	4.149434e+13	8.679900e+03	3.870435e+03	3.262359e+03	0	1.959805e-04
9.400000e+08	3.472407e+11	0.000000e+00	8.541667e-01	1.020235e+14	1.411236e+14	4.130575e+13	8.676309e+03	3.870757e+03	3.262630e+03	0	1.926564e-04
9.500000e+08	3.288898e+11	0.000000e+00	8.541667e-01	1.018073e+14	1.411851e+14	4.111845e+13	8.672726e+03	3.871019e+03	3.262851e+03	0	1.892010e-04
9.600000e+08	3.104787e+11	0.000000e+00	8.541667e-01	1.015905e+14	1.412331e+14	4.093242e+13	8.669151e+03	3.871224e+03	3.263024e+03	0	1.856025e-04
9.700000e+08	2.920122e+11	0.000000e+00	8.541667e-01	1.013733e+14	1.412680e+14	4.074766e+13	8.665583e+03	3.871373e+03	3.263149e+03	0	1.818473e-04
9.800000e+08	2.734949e+11	0.000000e+00	8.541667e-01	1.011556e+14	1.412901e+14	4.056416e+13	8.662023e+03	3.871467e+03	3.263229e+03	0	1.779193e-04
9.900000e+08	2.549314e+11	0.000000e+00	8.541667e-01	1.009377e+14	1.413000e+14	4.038190e+13	8.658470e+03	3.871509e+03	3.263264e+03	0	1.737991e-04
1.000000e+09	2.363258e+11	0.000000e+00	8.541667e-01	1.007194e+14	1.412979e+14	4.020088e+13	8.654925e+03	3.871500e+03	3.263257e+03	0	1.694638e-04
1.010000e+09	2.176824e+11	0.000000e+00	8.541667e-01	1.005008e+14	1.412842e+14	4.002109e+13	8.651388e+03	3.871442e+03	3.263208e+03	0	1.648849e-04
1.020000e+09	1.990051e+11	0.000000e+00	8.541667e-01	1.002820e+14	1.412594e+14	3.984252e+13	8.647859e+03	3.871336e+03	3.263119e+03	0	1.600275e-04
1.030000e+09	1.802978e+11	0.000000e+00	8.541667e-01	1.000630e+14	1.412238e+14	3.966515e+13	8.644337e+03	3.871184e+03	3.262990e+03	0	1.548472e-04
1.040000e+09	1.615643e+11	0.000000e+00	8.541667e-01	9.984384e+13	1.411776e+14	3.948898e+13	8.640823e+03	3.870987e+03	3.262824e+03	0	1.492869e-04
1.050000e+09	1.428082e+11	0.000000e+00	8.541667e-01	9.962454e+13	1.411213e+14	3.931401e+13	8.637316e+03	3.870747e+03	3.262622e+03	0	1.432708e-04
1.060000e+09	1.240328e+11	0.000000e+00	8.541667e-01	9.940515e+13	1.410552e+14	3.914021e+13	8.633817e+03	3.870465e+03	3.262384e+03	0	1.366948e-04
1.070000e+09	1.052416e+11	0.000000e+00	8.541667e-01	9.918570e+13	1.409796e+14	3.896759e+13	8.630326e+03	3.870142e+03	3.262112e+03	0	1.294104e-04
1.080000e+09	8.643772e+10	0.000000e+00	8.541667e-01	9.896621e+13	1.408949e+14	3.879612e+13	8.626843e+03	3.869780e+03	3.261807e+03	0	1.211921e-04
1.090000e+09	6.762429e+10	0.000000e+00	8.541667e-01	9.874672e+13	1.408013e+14	3.862581e+13	8.623367e+03	3.869380e+03	3.261470e+03	0	1.116711e-04
1.100000e+09	4.880428e+10	0.000000e+00	8.541667e-01	9.852725e+13	1.406991e+14	3.845664e+13	8.619899e+03	3.868944e+03	3.261102e+03	0	1.001673e-04
1.110000e+09	2.998057e+10	0.000000e+00	8.541667e-01	9.830784e+13	1.405888e+14	3.828861e+13	8.616439e+03	3.868472e+03	3.260704e+03	0	8.515037e-05
1.120000e+09	1.115592e+10	0.000000e+00	8.541667e-01	9.808850e+13	1.404704e+14	3.812170e+13	8.612986e+03	3.867965e+03	3.260277e+03	0	6.124562e-05
1.130000e+09	-7.667012e+09	0.000000e+00	8.541667e-01	9.786927e+13	1.403444e+14	3.795591e+13	8.609542e+03	3.867425e+03	3.259822e+03	0	nan
