#t		Qconv[W]	Ri[Rp]		R*[Rp]		Qc[W]		Qm[W]		Qr[W]		Tcmb[K]		Tl[K]		Tup[K]		RiFlag		Bs[T]
0.000000e+00	3.692234e+13	0.000000e+00	8.541666e-01	5.095767e+14	3.862009e+13	7.144975e+13	1.257067e+04	3.450026e+03	2.746677e+03	0	9.108600e-04
1.000000e+07	3.730408e+13	0.000000e+00	8.541666e-01	5.128668e+14	4.419627e+13	7.105386e+13	1.255455e+04	3.514998e+03	2.798403e+03	0	9.139883e-04
2.000000e+07	3.766665e+13	0.000000e+00	8.541666e-01	5.159793e+14	5.033997e+13	7.066094e+13	1.253834e+04	3.579613e+03	2.849845e+03	0	9.169399e-04
3.000000e+07	3.800917e+13	0.000000e+00	8.541666e-01	5.189061e+14	5.707313e+13	7.027095e+13	1.252202e+04	3.643780e+03	2.900931e+03	0	9.197108e-04
4.000000e+07	3.833080e+13	0.000000e+00	8.541666e-01	5.216398e+14	6.441327e+13	6.988388e+13	1.250561e+04	3.707406e+03	2.951585e+03	0	9.222977e-04
5.000000e+07	3.863079e+13	0.000000e+00	8.541666e-01	5.241735e+14	7.237283e+13	6.949969e+13	1.248911e+04	3.770393e+03	3.001732e+03	0	9.246976e-04
6.000000e+07	3.890848e+13	0.000000e+00	8.541666e-01	5.265010e+14	8.095836e+13	6.911837e+13	1.247254e+04	3.832643e+03	3.051291e+03	0	9.269079e-04
7.000000e+07	3.916327e+13	0.000000e+00	8.541666e-01	5.286172e+14	9.017008e+13	6.873988e+13	1.245589e+04	3.894056e+03	3.100184e+03	0	9.289268e-04
8.000000e+07	3.939469e+13	0.000000e+00	8.541666e-01	5.305176e+14	1.000013e+14	6.836421e+13	1.243917e+04	3.954532e+03	3.148330e+03	0	9.307530e-04
9.000000e+07	3.960237e+13	0.000000e+00	8.541666e-01	5.321991e+14	1.104380e+14	6.799133e+13	1.242239e+04	4.013970e+03	3.195651e+03	0	9.323857e-04
1.000000e+08	3.978607e+13	0.000000e+00	8.541666e-01	5.336594e+14	1.214589e+14	6.762123e+13	1.240556e+04	4.072274e+03	3.242069e+03	0	9.338251e-04
1.100000e+08	3.994564e+13	0.000000e+00	8.541666e-01	5.348974e+14	1.330348e+14	6.725386e+13	1.238869e+04	4.129349e+03	3.287508e+03	0	9.350719e-04
1.200000e+08	4.008109e+13	0.000000e+00	8.541666e-01	5.359132e+14	1.451297e+14	6.688922e+13	1.237177e+04	4.185103e+03	3.331895e+03	0	9.361276e-04
1.300000e+08	4.019253e+13	0.000000e+00	8.541666e-01	5.367079e+14	1.577001e+14	6.652729e+13	1.235483e+04	4.239449e+03	3.375162e+03	0	9.369944e-04
1.400000e+08	4.028020e+13	0.000000e+00	8.541666e-01	5.372838e+14	1.706963e+14	6.616803e+13	1.233786e+04	4.292308e+03	3.417245e+03	0	9.376752e-04
1.500000e+08	4.034447e+13	0.000000e+00	8.541666e-01	5.376443e+14	1.840626e+14	6.581142e+13	1.232087e+04	4.343605e+03	3.458084e+03	0	9.381735e-04
1.600000e+08	4.038579e+13	0.000000e+00	8.541666e-01	5.377938e+14	1.977386e+14	6.545745e+13	1.230386e+04	4.393273e+03	3.497627e+03	0	9.384937e-04
1.700000e+08	4.040475e+13	0.000000e+00	8.541666e-01	5.377377e+14	2.116597e+14	6.510609e+13	1.228686e+04	4.441255e+03	3.535826e+03	0	9.386406e-04
1.800000e+08	4.040201e+13	0.000000e+00	8.541666e-01	5.374823e+14	2.257584e+14	6.475733e+13	1.226985e+04	4.487500e+03	3.572643e+03	0	9.386194e-04
1.900000e+08	4.037834e+13	0.000000e+00	8.541666e-01	5.370346e+14	2.399655e+14	6.441113e+13	1.225286e+04	4.531967e+03	3.608045e+03	0	9.384361e-04
2.000000e+08	4.033456e+13	0.000000e+00	8.541666e-01	5.364022e+14	2.542113e+14	6.406747e+13	1.223588e+04	4.574624e+03	3.642006e+03	0	9.380968e-04
2.100000e+08	4.027156e+13	0.000000e+00	8.541666e-01	5.355935e+14	2.684264e+14	6.372635e+13	1.221891e+04	4.615450e+03	3.674508e+03	0	9.376081e-04
2.200000e+08	4.019027e+13	0.000000e+00	8.541666e-01	5.346171e+14	2.825430e+14	6.338773e+13	1.220198e+04	4.654431e+03	3.705542e+03	0	9.369768e-04
2.300000e+08	4.009167e+13	0.000000e+00	8.541666e-01	5.334819e+14	2.964962e+14	6.305160e+13	1.218507e+04	4.691562e+03	3.735104e+03	0	9.362099e-04
2.400000e+08	3.997675e+13	0.000000e+00	8.541666e-01	5.321973e+14	3.102242e+14	6.271793e+13	1.216820e+04	4.726849e+03	3.763197e+03	0	9.353146e-04
2.500000e+08	3.984653e+13	0.000000e+00	8.541666e-01	5.307726e+14	3.236696e+14	6.238670e+13	1.215137e+04	4.760305e+03	3.789832e+03	0	9.342979e-04
2.600000e+08	3.970201e+13	0.000000e+00	8.541666e-01	5.292171e+14	3.367801e+14	6.205790e+13	1.213459e+04	4.791949e+03	3.815025e+03	0	9.331670e-04
2.700000e+08	3.954419e+13	0.000000e+00	8.541666e-01	5.275401e+14	3.495084e+14	6.173150e+13	1.211786e+04	4.821810e+03	3.838799e+03	0	9.319289e-04
2.800000e+08	3.937407e+13	0.000000e+00	8.541666e-01	5.257507e+14	3.618131e+14	6.140749e+13	1.210117e+04	4.849923e+03	3.861180e+03	0	9.305906e-04
2.900000e+08	3.919261e+13	0.000000e+00	8.541666e-01	5.238578e+14	3.736585e+14	6.108584e+13	1.208455e+04	4.876326e+03	3.882201e+03	0	9.291587e-04
3.000000e+08	3.900074e+13	0.000000e+00	8.541666e-01	5.218701e+14	3.850151e+14	6.076653e+13	1.206798e+04	4.901066e+03	3.901897e+03	0	9.276400e-04
3.100000e+08	3.879936e+13	0.000000e+00	8.541666e-01	5.197958e+14	3.958589e+14	6.044955e+13	1.205148e+04	4.924191e+03	3.920307e+03	0	9.260407e-04
3.200000e+08	3.858934e+13	0.000000e+00	8.541666e-01	5.176430e+14	4.061715e+14	6.013488e+13	1.203504e+04	4.945754e+03	3.937474e+03	0	9.243667e-04
3.300000e+08	3.837150e+13	0.000000e+00	8.541666e-01	5.154192e+14	4.159402e+14	5.982250e+13	1.201867e+04	4.965810e+03	3.953442e+03	0	9.226240e-04
3.400000e+08	3.814661e+13	0.000000e+00	8.541666e-01	5.131317e+14	4.251571e+14	5.951238e+13	1.200237e+04	4.984418e+03	3.968256e+03	0	9.208181e-04
3.500000e+08	3.791541e+13	0.000000e+00	8.541666e-01	5.107871e+14	4.338190e+14	5.920452e+13	1.198615e+04	5.001637e+03	3.981964e+03	0	9.189540e-04
3.600000e+08	3.767859e+13	0.000000e+00	8.541666e-01	5.083919e+14	4.419268e+14	5.889888e+13	1.196999e+04	5.017527e+03	3.994615e+03	0	9.170368e-04
3.700000e+08	3.743680e+13	0.000000e+00	8.541666e-01	5.059520e+14	4.494854e+14	5.859546e+13	1.195392e+04	5.032148e+03	4.006255e+03	0	9.150710e-04
3.800000e+08	3.719064e+13	0.000000e+00	8.541666e-01	5.034730e+14	4.565026e+14	5.829424e+13	1.193792e+04	5.045561e+03	4.016934e+03	0	9.130609e-04
3.900000e+08	3.694068e+13	0.000000e+00	8.541666e-01	5.009601e+14	4.629897e+14	5.799519e+13	1.192199e+04	5.057826e+03	4.026699e+03	0	9.110107e-04
4.000000e+08	3.668742e+13	0.000000e+00	8.541666e-01	4.984180e+14	4.689597e+14	5.769830e+13	1.190615e+04	5.069003e+03	4.035597e+03	0	9.089240e-04
4.100000e+08	3.643136e+13	0.000000e+00	8.541666e-01	4.958513e+14	4.744283e+14	5.740356e+13	1.189039e+04	5.079150e+03	4.043675e+03	0	9.068045e-04
4.200000e+08	3.617294e+13	0.000000e+00	8.541666e-01	4.932639e+14	4.794121e+14	5.711094e+13	1.187471e+04	5.088323e+03	4.050978e+03	0	9.046553e-04
4.300000e+08	3.591256e+13	0.000000e+00	8.541666e-01	4.906596e+14	4.839296e+14	5.682042e+13	1.185911e+04	5.096577e+03	4.057549e+03	0	9.024795e-04
4.400000e+08	3.565061e+13	0.000000e+00	8.541666e-01	4.880420e+14	4.879997e+14	5.653200e+13	1.184359e+04	5.103966e+03	4.063432e+03	0	9.002798e-04
4.500000e+08	3.538742e+13	0.000000e+00	8.541666e-01	4.854142e+14	4.916427e+14	5.624564e+13	1.182815e+04	5.110540e+03	4.068666e+03	0	8.980589e-04
4.600000e+08	3.512332e+13	0.000000e+00	8.541666e-01	4.827791e+14	4.948783e+14	5.596135e+13	1.181280e+04	5.116350e+03	4.073291e+03	0	8.958192e-04
4.700000e+08	3.485859e+13	0.000000e+00	8.541666e-01	4.801392e+14	4.977271e+14	5.567909e+13	1.179753e+04	5.121442e+03	4.077345e+03	0	8.935629e-04
4.800000e+08	3.459349e+13	0.000000e+00	8.541666e-01	4.774972e+14	5.002094e+14	5.539886e+13	1.178235e+04	5.125862e+03	4.080864e+03	0	8.912919e-04
4.900000e+08	3.432826e+13	0.000000e+00	8.541666e-01	4.748551e+14	5.023449e+14	5.512063e+13	1.176724e+04	5.129651e+03	4.083881e+03	0	8.890082e-04
5.000000e+08	3.406312e+13	0.000000e+00	8.541666e-01	4.722150e+14	5.041540e+14	5.484439e+13	1.175223e+04	5.132852e+03	4.086429e+03	0	8.867135e-04
5.100000e+08	3.379827e+13	0.000000e+00	8.541666e-01	4.695787e+14	5.056557e+14	5.457012e+13	1.173729e+04	5.135503e+03	4.088539e+03	0	8.844094e-04
5.200000e+08	3.353389e+13	0.000000e+00	8.541666e-01	4.669477e+14	5.068687e+14	5.429782e+13	1.172244e+04	5.137640e+03	4.090240e+03	0	8.820973e-04
5.300000e+08	3.327014e+13	0.000000e+00	8.541666e-01	4.643237e+14	5.078111e+14	5.402745e+13	1.170767e+04	5.139297e+03	4.091560e+03	0	8.797786e-04
5.400000e+08	3.300717e+13	0.000000e+00	8.541666e-01	4.617080e+14	5.085005e+14	5.375901e+13	1.169298e+04	5.140508e+03	4.092524e+03	0	8.774545e-04
5.500000e+08	3.274510e+13	0.000000e+00	8.541666e-01	4.591017e+14	5.089534e+14	5.349248e+13	1.167838e+04	5.141303e+03	4.093157e+03	0	8.751261e-04
5.600000e+08	3.248407e+13	0.000000e+00	8.541666e-01	4.565061e+14	5.091860e+14	5.322784e+13	1.166386e+04	5.141712e+03	4.093482e+03	0	8.727945e-04
5.700000e+08	3.222417e+13	0.000000e+00	8.541666e-01	4.539219e+14	5.092136e+14	5.296509e+13	1.164942e+04	5.141760e+03	4.093521e+03	0	8.704605e-04
5.800000e+08	3.196550e+13	0.000000e+00	8.541666e-01	4.513502e+14	5.090505e+14	5.270420e+13	1.163506e+04	5.141474e+03	4.093293e+03	0	8.681252e-04
5.900000e+08	3.170815e+13	0.000000e+00	8.541666e-01	4.487917e+14	5.087104e+14	5.244515e+13	1.162078e+04	5.140877e+03	4.092818e+03	0	8.657892e-04
6.000000e+08	3.145220e+13	0.000000e+00	8.541666e-01	4.462471e+14	5.082064e+14	5.218794e+13	1.160659e+04	5.139992e+03	4.092113e+03	0	8.634533e-04
6.100000e+08	3.119771e+13	0.000000e+00	8.541666e-01	4.437171e+14	5.075507e+14	5.193255e+13	1.159247e+04	5.138839e+03	4.091196e+03	0	8.611181e-04
6.200000e+08	3.094474e+13	0.000000e+00	8.541666e-01	4.412022e+14	5.067547e+14	5.167897e+13	1.157844e+04	5.137439e+03	4.090081e+03	0	8.587844e-04
6.300000e+08	3.069335e+13	0.000000e+00	8.541666e-01	4.387028e+14	5.058294e+14	5.142718e+13	1.156448e+04	5.135809e+03	4.088783e+03	0	8.564525e-04
6.400000e+08	3.044359e+13	0.000000e+00	8.541666e-01	4.362194e+14	5.047850e+14	5.117716e+13	1.155060e+04	5.133967e+03	4.087316e+03	0	8.541231e-04
6.500000e+08	3.019550e+13	0.000000e+00	8.541666e-01	4.337525e+14	5.036310e+14	5.092890e+13	1.153680e+04	5.131928e+03	4.085693e+03	0	8.517966e-04
6.600000e+08	2.994910e+13	0.000000e+00	8.541666e-01	4.313022e+14	5.023763e+14	5.068239e+13	1.152308e+04	5.129707e+03	4.083925e+03	0	8.494734e-04
6.700000e+08	2.970444e+13	0.000000e+00	8.541666e-01	4.288689e+14	5.010293e+14	5.043761e+13	1.150944e+04	5.127318e+03	4.082023e+03	0	8.471539e-04
6.800000e+08	2.946154e+13	0.000000e+00	8.541666e-01	4.264528e+14	4.995977e+14	5.019455e+13	1.149587e+04	5.124774e+03	4.079998e+03	0	8.448385e-04
6.900000e+08	2.922043e+13	0.000000e+00	8.541666e-01	4.240541e+14	4.980888e+14	4.995320e+13	1.148238e+04	5.122087e+03	4.077859e+03	0	8.425274e-04
7.000000e+08	2.898111e+13	0.000000e+00	8.541666e-01	4.216730e+14	4.965097e+14	4.971354e+13	1.146897e+04	5.119269e+03	4.075615e+03	0	8.402210e-04
7.100000e+08	2.874361e+13	0.000000e+00	8.541666e-01	4.193096e+14	4.948662e+14	4.947555e+13	1.145563e+04	5.116328e+03	4.073274e+03	0	8.379195e-04
7.200000e+08	2.850794e+13	0.000000e+00	8.541666e-01	4.169641e+14	4.931646e+14	4.923923e+13	1.144236e+04	5.113277e+03	4.070844e+03	0	8.356231e-04
7.300000e+08	2.827410e+13	0.000000e+00	8.541666e-01	4.146364e+14	4.914103e+14	4.900457e+13	1.142917e+04	5.110122e+03	4.068333e+03	0	8.333322e-04
7.400000e+08	2.804212e+13	0.000000e+00	8.541666e-01	4.123267e+14	4.896083e+14	4.877154e+13	1.141605e+04	5.106873e+03	4.065746e+03	0	8.310467e-04
7.500000e+08	2.781198e+13	0.000000e+00	8.541666e-01	4.100349e+14	4.877633e+14	4.854013e+13	1.140301e+04	5.103538e+03	4.063091e+03	0	8.287670e-04
7.600000e+08	2.758369e+13	0.000000e+00	8.541666e-01	4.077612e+14	4.858798e+14	4.831034e+13	1.139003e+04	5.100123e+03	4.060372e+03	0	8.264932e-04
7.700000e+08	2.735726e+13	0.000000e+00	8.541666e-01	4.055055e+14	4.839619e+14	4.808214e+13	1.137713e+04	5.096636e+03	4.057596e+03	0	8.242255e-04
7.800000e+08	2.713267e+13	0.000000e+00	8.541666e-01	4.032677e+14	4.820133e+14	4.785553e+13	1.136431e+04	5.093083e+03	4.054767e+03	0	8.219638e-04
7.900000e+08	2.690994e+13	0.000000e+00	8.541666e-01	4.010479e+14	4.800374e+14	4.763050e+13	1.135155e+04	5.089469e+03	4.051890e+03	0	8.197085e-04
8.000000e+08	2.668905e+13	0.000000e+00	8.541666e-01	3.988460e+14	4.780377e+14	4.740702e+13	1.133886e+04	5.085800e+03	4.048969e+03	0	8.174594e-04
8.100000e+08	2.646999e+13	0.000000e+00	8.541666e-01	3.966619e+14	4.760169e+14	4.718510e+13	1.132624e+04	5.082082e+03	4.046009e+03	0	8.152168e-04
8.200000e+08	2.625277e+13	0.000000e+00	8.541666e-01	3.944956e+14	4.739781e+14	4.696471e+13	1.131369e+04	5.078318e+03	4.043013e+03	0	8.129807e-04
8.300000e+08	2.603738e+13	0.000000e+00	8.541666e-01	3.923470e+14	4.719236e+14	4.674584e+13	1.130121e+04	5.074513e+03	4.039984e+03	0	8.107512e-04
8.400000e+08	2.582379e+13	0.000000e+00	8.541666e-01	3.902159e+14	4.698559e+14	4.652849e+13	1.128879e+04	5.070672e+03	4.036925e+03	0	8.085283e-04
8.500000e+08	2.561202e+13	0.000000e+00	8.541666e-01	3.881024e+14	4.677771e+14	4.631264e+13	1.127645e+04	5.066798e+03	4.033841e+03	0	8.063120e-04
8.600000e+08	2.540204e+13	0.000000e+00	8.541666e-01	3.860063e+14	4.656894e+14	4.609827e+13	1.126417e+04	5.062894e+03	4.030733e+03	0	8.041024e-04
8.700000e+08	2.519384e+13	0.000000e+00	8.541666e-01	3.839275e+14	4.635944e+14	4.588538e+13	1.125196e+04	5.058963e+03	4.027604e+03	0	8.018996e-04
8.800000e+08	2.498742e+13	0.000000e+00	8.541666e-01	3.818659e+14	4.614941e+14	4.567395e+13	1.123981e+04	5.055010e+03	4.024456e+03	0	7.997035e-04
8.900000e+08	2.478276e+13	0.000000e+00	8.541666e-01	3.798213e+14	4.593899e+14	4.546398e+13	1.122773e+04	5.051036e+03	4.021292e+03	0	7.975142e-04
9.000000e+08	2.457984e+13	0.000000e+00	8.541666e-01	3.777937e+14	4.572834e+14	4.525544e+13	1.121571e+04	5.047044e+03	4.018114e+03	0	7.953316e-04
9.100000e+08	2.437867e+13	0.000000e+00	8.541666e-01	3.757829e+14	4.551759e+14	4.504834e+13	1.120375e+04	5.043036e+03	4.014924e+03	0	7.931558e-04
9.200000e+08	2.417921e+13	0.000000e+00	8.541666e-01	3.737888e+14	4.530686e+14	4.484266e+13	1.119186e+04	5.039016e+03	4.011723e+03	0	7.909868e-04
9.300000e+08	2.398146e+13	0.000000e+00	8.541666e-01	3.718112e+14	4.509626e+14	4.463838e+13	1.118004e+04	5.034984e+03	4.008513e+03	0	7.888245e-04
9.400000e+08	2.378540e+13	0.000000e+00	8.541666e-01	3.698500e+14	4.488591e+14	4.443550e+13	1.116827e+04	5.030943e+03	4.005296e+03	0	7.866690e-04
9.500000e+08	2.359103e+13	0.000000e+00	8.541666e-01	3.679051e+14	4.467589e+14	4.423400e+13	1.115657e+04	5.026895e+03	4.002073e+03	0	7.845202e-04
9.600000e+08	2.339831e+13	0.000000e+00	8.541666e-01	3.659764e+14	4.446631e+14	4.403388e+13	1.114493e+04	5.022841e+03	3.998845e+03	0	7.823781e-04
9.700000e+08	2.320725e+13	0.000000e+00	8.541666e-01	3.640636e+14	4.425723e+14	4.383512e+13	1.113335e+04	5.018782e+03	3.995614e+03	0	7.802428e-04
9.800000e+08	2.301783e+13	0.000000e+00	8.541666e-01	3.621667e+14	4.404874e+14	4.363771e+13	1.112183e+04	5.014721e+03	3.992381e+03	0	7.781141e-04
9.900000e+08	2.283002e+13	0.000000e+00	8.541666e-01	3.602854e+14	4.384088e+14	4.344164e+13	1.111036e+04	5.010659e+03	3.989147e+03	0	7.759921e-04
1.000000e+09	2.264382e+13	0.000000e+00	8.541666e-01	3.584198e+14	4.363375e+14	4.324691e+13	1.109896e+04	5.006596e+03	3.985912e+03	0	7.738767e-04
1.010000e+09	2.245921e+13	0.000000e+00	8.541666e-01	3.565695e+14	4.342738e+14	4.305349e+13	1.108762e+04	5.002534e+03	3.982679e+03	0	7.717678e-04
1.020000e+09	2.227617e+13	0.000000e+00	8.541666e-01	3.547346e+14	4.322182e+14	4.286139e+13	1.107634e+04	4.998474e+03	3.979446e+03	0	7.696656e-04
1.030000e+09	2.209470e+13	0.000000e+00	8.541666e-01	3.529147e+14	4.301714e+14	4.267059e+13	1.106511e+04	4.994417e+03	3.976217e+03	0	7.675698e-04
1.040000e+09	2.191477e+13	0.000000e+00	8.541666e-01	3.511098e+14	4.281337e+14	4.248107e+13	1.105394e+04	4.990364e+03	3.972990e+03	0	7.654806e-04
1.050000e+09	2.173637e+13	0.000000e+00	8.541666e-01	3.493198e+14	4.261054e+14	4.229284e+13	1.104283e+04	4.986316e+03	3.969767e+03	0	7.633977e-04
1.060000e+09	2.155949e+13	0.000000e+00	8.541666e-01	3.475444e+14	4.240871e+14	4.210587e+13	1.103178e+04	4.982273e+03	3.966548e+03	0	7.613213e-04
1.070000e+09	2.138410e+13	0.000000e+00	8.541666e-01	3.457836e+14	4.220787e+14	4.192017e+13	1.102078e+04	4.978237e+03	3.963335e+03	0	7.592513e-04
1.080000e+09	2.121020e+13	0.000000e+00	8.541666e-01	3.440372e+14	4.200808e+14	4.173571e+13	1.100984e+04	4.974207e+03	3.960126e+03	0	7.571875e-04
1.090000e+09	2.103777e+13	0.000000e+00	8.541666e-01	3.423050e+14	4.180936e+14	4.155249e+13	1.099895e+04	4.970185e+03	3.956924e+03	0	7.551300e-04
1.100000e+09	2.086679e+13	0.000000e+00	8.541666e-01	3.405870e+14	4.161172e+14	4.137051e+13	1.098812e+04	4.966171e+03	3.953729e+03	0	7.530788e-04
1.110000e+09	2.069726e+13	0.000000e+00	8.541666e-01	3.388829e+14	4.141520e+14	4.118974e+13	1.097734e+04	4.962165e+03	3.950540e+03	0	7.510337e-04
1.120000e+09	2.052914e+13	0.000000e+00	8.541666e-01	3.371926e+14	4.121980e+14	4.101019e+13	1.096661e+04	4.958169e+03	3.947358e+03	0	7.489948e-04
1.130000e+09	2.036244e+13	0.000000e+00	8.541666e-01	3.355161e+14	4.102556e+14	4.083184e+13	1.095594e+04	4.954182e+03	3.944184e+03	0	7.469620e-04
1.140000e+09	2.019714e+13	0.000000e+00	8.541666e-01	3.338530e+14	4.083246e+14	4.065468e+13	1.094533e+04	4.950205e+03	3.941017e+03	0	7.449351e-04
1.150000e+09	2.003321e+13	0.000000e+00	8.541666e-01	3.322034e+14	4.064053e+14	4.047870e+13	1.093476e+04	4.946238e+03	3.937859e+03	0	7.429143e-04
1.160000e+09	1.987066e+13	0.000000e+00	8.541666e-01	3.305671e+14	4.044977e+14	4.030390e+13	1.092425e+04	4.942282e+03	3.934710e+03	0	7.408994e-04
1.170000e+09	1.970945e+13	0.000000e+00	8.541666e-01	3.289439e+14	4.026021e+14	4.013026e+13	1.091378e+04	4.938337e+03	3.931569e+03	0	7.388904e-04
1.180000e+09	1.954959e+13	0.000000e+00	8.541666e-01	3.273336e+14	4.007183e+14	3.995777e+13	1.090337e+04	4.934403e+03	3.928437e+03	0	7.368873e-04
1.190000e+09	1.939105e+13	0.000000e+00	8.541666e-01	3.257363e+14	3.988465e+14	3.978644e+13	1.089301e+04	4.930480e+03	3.925314e+03	0	7.348899e-04
1.200000e+09	1.923382e+13	0.000000e+00	8.541666e-01	3.241517e+14	3.969868e+14	3.961624e+13	1.088270e+04	4.926570e+03	3.922201e+03	0	7.328983e-04
1.210000e+09	1.907789e+13	0.000000e+00	8.541666e-01	3.225796e+14	3.951392e+14	3.944716e+13	1.087245e+04	4.922671e+03	3.919097e+03	0	7.309123e-04
1.220000e+09	1.892324e+13	0.000000e+00	8.541666e-01	3.210201e+14	3.933036e+14	3.927921e+13	1.086224e+04	4.918784e+03	3.916003e+03	0	7.289320e-04
1.230000e+09	1.876986e+13	0.000000e+00	8.541666e-01	3.194729e+14	3.914802e+14	3.911237e+13	1.085208e+04	4.914910e+03	3.912918e+03	0	7.269572e-04
1.240000e+09	1.861774e+13	0.000000e+00	8.541666e-01	3.179379e+14	3.896688e+14	3.894664e+13	1.084196e+04	4.911048e+03	3.909844e+03	0	7.249880e-04
1.250000e+09	1.846686e+13	0.000000e+00	8.541666e-01	3.164150e+14	3.878695e+14	3.878199e+13	1.083190e+04	4.907199e+03	3.906779e+03	0	7.230243e-04
1.260000e+09	1.831721e+13	0.000000e+00	8.541666e-01	3.149040e+14	3.860823e+14	3.861844e+13	1.082189e+04	4.903363e+03	3.903725e+03	0	7.210659e-04
1.270000e+09	1.816878e+13	0.000000e+00	8.541666e-01	3.134049e+14	3.843072e+14	3.845596e+13	1.081192e+04	4.899540e+03	3.900681e+03	0	7.191130e-04
1.280000e+09	1.802156e+13	0.000000e+00	8.541666e-01	3.119175e+14	3.825441e+14	3.829455e+13	1.080200e+04	4.895729e+03	3.897648e+03	0	7.171653e-04
1.290000e+09	1.787552e+13	0.000000e+00	8.541666e-01	3.104417e+14	3.807929e+14	3.813420e+13	1.079213e+04	4.891932e+03	3.894625e+03	0	7.152230e-04
1.300000e+09	1.773067e+13	0.000000e+00	8.541666e-01	3.089773e+14	3.790538e+14	3.797490e+13	1.078230e+04	4.888148e+03	3.891612e+03	0	7.132858e-04
1.310000e+09	1.758698e+13	0.000000e+00	8.541666e-01	3.075244e+14	3.773267e+14	3.781664e+13	1.077252e+04	4.884377e+03	3.888610e+03	0	7.113538e-04
1.320000e+09	1.744445e+13	0.000000e+00	8.541666e-01	3.060826e+14	3.756113e+14	3.765943e+13	1.076279e+04	4.880620e+03	3.885619e+03	0	7.094269e-04
1.330000e+09	1.730306e+13	0.000000e+00	8.541666e-01	3.046520e+14	3.739078e+14	3.750324e+13	1.075310e+04	4.876875e+03	3.882638e+03	0	7.075050e-04
1.340000e+09	1.716281e+13	0.000000e+00	8.541666e-01	3.032324e+14	3.722161e+14	3.734807e+13	1.074346e+04	4.873145e+03	3.879667e+03	0	7.055882e-04
1.350000e+09	1.702367e+13	0.000000e+00	8.541666e-01	3.018236e+14	3.705361e+14	3.719391e+13	1.073386e+04	4.869427e+03	3.876708e+03	0	7.036763e-04
1.360000e+09	1.688564e+13	0.000000e+00	8.541666e-01	3.004257e+14	3.688677e+14	3.704076e+13	1.072430e+04	4.865723e+03	3.873759e+03	0	7.017692e-04
