#t		Qconv[W]	Ri[Rp]		R*[Rp]		Qc[W]		Qm[W]		Qr[W]		Tcmb[K]		Tl[K]		Tup[K]		RiFlag		Bs[T]
0.000000e+00	2.449020e+14	0.000000e+00	8.526317e-01	2.450813e+15	3.558707e+13	8.273010e+13	1.863758e+04	3.771328e+03	2.813732e+03	0	1.703802e-03
1.000000e+07	2.485730e+14	0.000000e+00	8.526317e-01	2.481167e+15	5.840467e+13	8.227172e+13	1.857390e+04	4.037071e+03	3.011999e+03	0	1.712273e-03
2.000000e+07	2.516980e+14	0.000000e+00	8.526317e-01	2.506815e+15	9.118157e+13	8.181676e+13	1.850943e+04	4.303059e+03	3.210449e+03	0	1.719418e-03
3.000000e+07	2.542308e+14	0.000000e+00	8.526317e-01	2.527363e+15	1.361776e+14	8.136520e+13	1.844430e+04	4.567602e+03	3.407821e+03	0	1.725166e-03
4.000000e+07	2.561348e+14	0.000000e+00	8.526317e-01	2.542499e+15	1.954111e+14	8.091702e+13	1.837864e+04	4.828741e+03	3.602652e+03	0	1.729462e-03
5.000000e+07	2.573870e+14	0.000000e+00	8.526317e-01	2.552028e+15	2.703677e+14	8.047217e+13	1.831258e+04	5.084290e+03	3.793314e+03	0	1.732276e-03
6.000000e+07	2.579812e+14	0.000000e+00	8.526317e-01	2.555900e+15	3.617130e+14	8.003065e+13	1.824628e+04	5.331928e+03	3.978073e+03	0	1.733608e-03
7.000000e+07	2.579302e+14	0.000000e+00	8.526317e-01	2.554226e+15	4.690649e+14	7.959241e+13	1.817987e+04	5.569310e+03	4.155180e+03	0	1.733494e-03
8.000000e+07	2.572660e+14	0.000000e+00	8.526317e-01	2.547285e+15	5.908829e+14	7.915743e+13	1.811351e+04	5.794207e+03	4.322973e+03	0	1.732005e-03
9.000000e+07	2.560381e+14	0.000000e+00	8.526317e-01	2.535504e+15	7.245149e+14	7.872568e+13	1.804733e+04	6.004644e+03	4.479976e+03	0	1.729245e-03
1.000000e+08	2.543101e+14	0.000000e+00	8.526317e-01	2.519432e+15	8.664063e+14	7.829714e+13	1.798145e+04	6.199025e+03	4.625001e+03	0	1.725345e-03
1.100000e+08	2.521543e+14	0.000000e+00	8.526317e-01	2.499693e+15	1.012442e+15	7.787178e+13	1.791599e+04	6.376227e+03	4.757209e+03	0	1.720456e-03
1.200000e+08	2.496469e+14	0.000000e+00	8.526317e-01	2.476943e+15	1.158354e+15	7.744957e+13	1.785105e+04	6.535644e+03	4.876147e+03	0	1.714735e-03
1.300000e+08	2.468628e+14	0.000000e+00	8.526317e-01	2.451826e+15	1.300115e+15	7.703049e+13	1.778669e+04	6.677186e+03	4.981750e+03	0	1.708336e-03
1.400000e+08	2.438711e+14	0.000000e+00	8.526317e-01	2.424938e+15	1.434268e+15	7.661451e+13	1.772298e+04	6.801235e+03	5.074301e+03	0	1.701407e-03
1.500000e+08	2.407330e+14	0.000000e+00	8.526317e-01	2.396805e+15	1.558121e+15	7.620161e+13	1.765996e+04	6.908566e+03	5.154379e+03	0	1.694078e-03
1.600000e+08	2.375001e+14	0.000000e+00	8.526317e-01	2.367872e+15	1.669837e+15	7.579175e+13	1.759768e+04	7.000251e+03	5.222784e+03	0	1.686460e-03
1.700000e+08	2.342144e+14	0.000000e+00	8.526317e-01	2.338498e+15	1.768397e+15	7.538492e+13	1.753614e+04	7.077564e+03	5.280466e+03	0	1.678647e-03
1.800000e+08	2.309087e+14	0.000000e+00	8.526317e-01	2.308967e+15	1.853505e+15	7.498109e+13	1.747537e+04	7.141884e+03	5.328454e+03	0	1.670712e-03
1.900000e+08	2.276078e+14	0.000000e+00	8.526317e-01	2.279492e+15	1.925435e+15	7.458024e+13	1.741536e+04	7.194622e+03	5.367801e+03	0	1.662713e-03
2.000000e+08	2.243302e+14	0.000000e+00	8.526317e-01	2.250230e+15	1.984881e+15	7.418233e+13	1.735611e+04	7.237157e+03	5.399536e+03	0	1.654693e-03
2.100000e+08	2.210887e+14	0.000000e+00	8.526317e-01	2.221293e+15	2.032811e+15	7.378735e+13	1.729762e+04	7.270796e+03	5.424634e+03	0	1.646684e-03
2.200000e+08	2.178922e+14	0.000000e+00	8.526317e-01	2.192757e+15	2.070345e+15	7.339527e+13	1.723988e+04	7.296746e+03	5.443994e+03	0	1.638710e-03
2.300000e+08	2.147466e+14	0.000000e+00	8.526317e-01	2.164671e+15	2.098653e+15	7.300607e+13	1.718288e+04	7.316097e+03	5.458432e+03	0	1.630786e-03
2.400000e+08	2.116554e+14	0.000000e+00	8.526317e-01	2.137067e+15	2.118897e+15	7.261972e+13	1.712661e+04	7.329822e+03	5.468672e+03	0	1.622923e-03
2.500000e+08	2.086205e+14	0.000000e+00	8.526317e-01	2.109960e+15	2.132176e+15	7.223620e+13	1.707105e+04	7.338775e+03	5.475351e+03	0	1.615129e-03
2.600000e+08	2.056428e+14	0.000000e+00	8.526317e-01	2.083357e+15	2.139502e+15	7.185549e+13	1.701619e+04	7.343697e+03	5.479024e+03	0	1.607408e-03
2.700000e+08	2.027223e+14	0.000000e+00	8.526317e-01	2.057258e+15	2.141787e+15	7.147756e+13	1.696202e+04	7.345230e+03	5.480167e+03	0	1.599762e-03
2.800000e+08	1.998585e+14	0.000000e+00	8.526317e-01	2.031659e+15	2.139837e+15	7.110239e+13	1.690853e+04	7.343921e+03	5.479191e+03	0	1.592193e-03
2.900000e+08	1.970507e+14	0.000000e+00	8.526317e-01	2.006553e+15	2.134355e+15	7.072996e+13	1.685570e+04	7.340240e+03	5.476445e+03	0	1.584702e-03
3.000000e+08	1.942976e+14	0.000000e+00	8.526317e-01	1.981930e+15	2.125950e+15	7.036024e+13	1.680353e+04	7.334583e+03	5.472224e+03	0	1.577287e-03
3.100000e+08	1.915982e+14	0.000000e+00	8.526317e-01	1.957779e+15	2.115143e+15	6.999322e+13	1.675199e+04	7.327285e+03	5.466779e+03	0	1.569948e-03
3.200000e+08	1.889513e+14	0.000000e+00	8.526317e-01	1.934092e+15	2.102377e+15	6.962887e+13	1.670107e+04	7.318630e+03	5.460321e+03	0	1.562685e-03
3.300000e+08	1.863556e+14	0.000000e+00	8.526317e-01	1.910855e+15	2.088026e+15	6.926716e+13	1.665077e+04	7.308855e+03	5.453029e+03	0	1.555496e-03
3.400000e+08	1.838098e+14	0.000000e+00	8.526317e-01	1.888058e+15	2.072408e+15	6.890809e+13	1.660107e+04	7.298163e+03	5.445051e+03	0	1.548381e-03
3.500000e+08	1.813126e+14	0.000000e+00	8.526317e-01	1.865691e+15	2.055785e+15	6.855162e+13	1.655197e+04	7.286720e+03	5.436514e+03	0	1.541337e-03
3.600000e+08	1.788629e+14	0.000000e+00	8.526317e-01	1.843742e+15	2.038381e+15	6.819773e+13	1.650344e+04	7.274668e+03	5.427523e+03	0	1.534364e-03
3.700000e+08	1.764595e+14	0.000000e+00	8.526317e-01	1.822201e+15	2.020380e+15	6.784641e+13	1.645548e+04	7.262126e+03	5.418165e+03	0	1.527460e-03
3.800000e+08	1.741012e+14	0.000000e+00	8.526317e-01	1.801058e+15	2.001936e+15	6.749763e+13	1.640808e+04	7.249192e+03	5.408515e+03	0	1.520625e-03
3.900000e+08	1.717869e+14	0.000000e+00	8.526317e-01	1.780303e+15	1.983177e+15	6.715137e+13	1.636122e+04	7.235950e+03	5.398635e+03	0	1.513857e-03
4.000000e+08	1.695154e+14	0.000000e+00	8.526317e-01	1.759926e+15	1.964208e+15	6.680761e+13	1.631491e+04	7.222469e+03	5.388577e+03	0	1.507155e-03
4.100000e+08	1.672857e+14	0.000000e+00	8.526317e-01	1.739919e+15	1.945117e+15	6.646633e+13	1.626912e+04	7.208808e+03	5.378385e+03	0	1.500518e-03
4.200000e+08	1.650969e+14	0.000000e+00	8.526317e-01	1.720271e+15	1.925977e+15	6.612751e+13	1.622386e+04	7.195014e+03	5.368094e+03	0	1.493945e-03
4.300000e+08	1.629478e+14	0.000000e+00	8.526317e-01	1.700975e+15	1.906847e+15	6.579113e+13	1.617910e+04	7.181130e+03	5.357735e+03	0	1.487434e-03
4.400000e+08	1.608376e+14	0.000000e+00	8.526317e-01	1.682022e+15	1.887775e+15	6.545716e+13	1.613484e+04	7.167189e+03	5.347334e+03	0	1.480985e-03
4.500000e+08	1.587653e+14	0.000000e+00	8.526317e-01	1.663404e+15	1.868801e+15	6.512560e+13	1.609107e+04	7.153220e+03	5.336911e+03	0	1.474597e-03
4.600000e+08	1.567300e+14	0.000000e+00	8.526317e-01	1.645113e+15	1.849957e+15	6.479642e+13	1.604779e+04	7.139246e+03	5.326486e+03	0	1.468269e-03
4.700000e+08	1.547308e+14	0.000000e+00	8.526317e-01	1.627140e+15	1.831269e+15	6.446960e+13	1.600498e+04	7.125287e+03	5.316071e+03	0	1.461999e-03
4.800000e+08	1.527668e+14	0.000000e+00	8.526317e-01	1.609480e+15	1.812759e+15	6.414513e+13	1.596263e+04	7.111360e+03	5.305680e+03	0	1.455787e-03
4.900000e+08	1.508373e+14	0.000000e+00	8.526317e-01	1.592123e+15	1.794442e+15	6.382297e+13	1.592075e+04	7.097478e+03	5.295324e+03	0	1.449632e-03
5.000000e+08	1.489414e+14	0.000000e+00	8.526317e-01	1.575064e+15	1.776333e+15	6.350312e+13	1.587931e+04	7.083653e+03	5.285009e+03	0	1.443533e-03
5.100000e+08	1.470784e+14	0.000000e+00	8.526317e-01	1.558296e+15	1.758439e+15	6.318556e+13	1.583832e+04	7.069895e+03	5.274744e+03	0	1.437489e-03
5.200000e+08	1.452475e+14	0.000000e+00	8.526317e-01	1.541811e+15	1.740770e+15	6.287026e+13	1.579776e+04	7.056210e+03	5.264534e+03	0	1.431499e-03
5.300000e+08	1.434479e+14	0.000000e+00	8.526317e-01	1.525604e+15	1.723331e+15	6.255720e+13	1.575763e+04	7.042606e+03	5.254384e+03	0	1.425563e-03
5.400000e+08	1.416790e+14	0.000000e+00	8.526317e-01	1.509668e+15	1.706125e+15	6.224638e+13	1.571792e+04	7.029087e+03	5.244298e+03	0	1.419679e-03
5.500000e+08	1.399400e+14	0.000000e+00	8.526317e-01	1.493996e+15	1.689155e+15	6.193777e+13	1.567862e+04	7.015657e+03	5.234278e+03	0	1.413846e-03
5.600000e+08	1.382303e+14	0.000000e+00	8.526317e-01	1.478584e+15	1.672423e+15	6.163136e+13	1.563973e+04	7.002321e+03	5.224328e+03	0	1.408065e-03
5.700000e+08	1.365492e+14	0.000000e+00	8.526317e-01	1.463425e+15	1.655927e+15	6.132712e+13	1.560124e+04	6.989079e+03	5.214449e+03	0	1.402334e-03
5.800000e+08	1.348961e+14	0.000000e+00	8.526317e-01	1.448514e+15	1.639668e+15	6.102504e+13	1.556315e+04	6.975935e+03	5.204642e+03	0	1.396652e-03
5.900000e+08	1.332704e+14	0.000000e+00	8.526317e-01	1.433845e+15	1.623645e+15	6.072510e+13	1.552544e+04	6.962890e+03	5.194910e+03	0	1.391018e-03
6.000000e+08	1.316714e+14	0.000000e+00	8.526317e-01	1.419413e+15	1.607856e+15	6.042728e+13	1.548811e+04	6.949945e+03	5.185251e+03	0	1.385433e-03
6.100000e+08	1.300986e+14	0.000000e+00	8.526317e-01	1.405213e+15	1.592298e+15	6.013157e+13	1.545115e+04	6.937100e+03	5.175668e+03	0	1.379894e-03
6.200000e+08	1.285514e+14	0.000000e+00	8.526317e-01	1.391240e+15	1.576969e+15	5.983795e+13	1.541457e+04	6.924357e+03	5.166160e+03	0	1.374402e-03
6.300000e+08	1.270292e+14	0.000000e+00	8.526317e-01	1.377488e+15	1.561866e+15	5.954640e+13	1.537834e+04	6.911714e+03	5.156728e+03	0	1.368956e-03
6.400000e+08	1.255315e+14	0.000000e+00	8.526317e-01	1.363954e+15	1.546987e+15	5.925691e+13	1.534248e+04	6.899173e+03	5.147371e+03	0	1.363554e-03
6.500000e+08	1.240578e+14	0.000000e+00	8.526317e-01	1.350632e+15	1.532328e+15	5.896946e+13	1.530696e+04	6.886732e+03	5.138089e+03	0	1.358197e-03
6.600000e+08	1.226076e+14	0.000000e+00	8.526317e-01	1.337518e+15	1.517886e+15	5.868403e+13	1.527179e+04	6.874391e+03	5.128882e+03	0	1.352884e-03
6.700000e+08	1.211803e+14	0.000000e+00	8.526317e-01	1.324608e+15	1.503657e+15	5.840061e+13	1.523696e+04	6.862150e+03	5.119749e+03	0	1.347614e-03
6.800000e+08	1.197755e+14	0.000000e+00	8.526317e-01	1.311897e+15	1.489638e+15	5.811918e+13	1.520247e+04	6.850009e+03	5.110690e+03	0	1.342386e-03
6.900000e+08	1.183927e+14	0.000000e+00	8.526317e-01	1.299381e+15	1.475826e+15	5.783972e+13	1.516830e+04	6.837965e+03	5.101705e+03	0	1.337200e-03
7.000000e+08	1.170314e+14	0.000000e+00	8.526317e-01	1.287056e+15	1.462217e+15	5.756222e+13	1.513447e+04	6.826020e+03	5.092792e+03	0	1.332056e-03
7.100000e+08	1.156912e+14	0.000000e+00	8.526317e-01	1.274919e+15	1.448807e+15	5.728666e+13	1.510095e+04	6.814171e+03	5.083952e+03	0	1.326951e-03
7.200000e+08	1.143717e+14	0.000000e+00	8.526317e-01	1.262965e+15	1.435593e+15	5.701303e+13	1.506774e+04	6.802418e+03	5.075183e+03	0	1.321887e-03
7.300000e+08	1.130724e+14	0.000000e+00	8.526317e-01	1.251190e+15	1.422571e+15	5.674132e+13	1.503485e+04	6.790759e+03	5.066485e+03	0	1.316862e-03
7.400000e+08	1.117929e+14	0.000000e+00	8.526317e-01	1.239591e+15	1.409738e+15	5.647150e+13	1.500226e+04	6.779195e+03	5.057857e+03	0	1.311877e-03
7.500000e+08	1.105329e+14	0.000000e+00	8.526317e-01	1.228165e+15	1.397091e+15	5.620356e+13	1.496998e+04	6.767724e+03	5.049299e+03	0	1.306929e-03
7.600000e+08	1.092918e+14	0.000000e+00	8.526317e-01	1.216908e+15	1.384626e+15	5.593748e+13	1.493799e+04	6.756344e+03	5.040809e+03	0	1.302019e-03
7.700000e+08	1.080694e+14	0.000000e+00	8.526317e-01	1.205816e+15	1.372340e+15	5.567326e+13	1.490629e+04	6.745056e+03	5.032386e+03	0	1.297147e-03
7.800000e+08	1.068653e+14	0.000000e+00	8.526317e-01	1.194886e+15	1.360229e+15	5.541088e+13	1.487488e+04	6.733857e+03	5.024031e+03	0	1.292311e-03
7.900000e+08	1.056790e+14	0.000000e+00	8.526317e-01	1.184115e+15	1.348289e+15	5.515031e+13	1.484375e+04	6.722747e+03	5.015742e+03	0	1.287511e-03
8.000000e+08	1.045103e+14	0.000000e+00	8.526317e-01	1.173500e+15	1.336520e+15	5.489156e+13	1.481291e+04	6.711725e+03	5.007519e+03	0	1.282748e-03
8.100000e+08	1.033587e+14	0.000000e+00	8.526317e-01	1.163039e+15	1.324916e+15	5.463460e+13	1.478234e+04	6.700790e+03	4.999360e+03	0	1.278019e-03
8.200000e+08	1.022241e+14	0.000000e+00	8.526317e-01	1.152726e+15	1.313474e+15	5.437941e+13	1.475204e+04	6.689940e+03	4.991266e+03	0	1.273325e-03
8.300000e+08	1.011059e+14	0.000000e+00	8.526317e-01	1.142561e+15	1.302193e+15	5.412599e+13	1.472201e+04	6.679175e+03	4.983234e+03	0	1.268665e-03
8.400000e+08	1.000039e+14	0.000000e+00	8.526317e-01	1.132540e+15	1.291068e+15	5.387432e+13	1.469224e+04	6.668494e+03	4.975265e+03	0	1.264039e-03
8.500000e+08	9.891784e+13	0.000000e+00	8.526317e-01	1.122660e+15	1.280097e+15	5.362439e+13	1.466274e+04	6.657896e+03	4.967358e+03	0	1.259447e-03
8.600000e+08	9.784734e+13	0.000000e+00	8.526317e-01	1.112919e+15	1.269277e+15	5.337618e+13	1.463349e+04	6.647379e+03	4.959511e+03	0	1.254887e-03
8.700000e+08	9.679211e+13	0.000000e+00	8.526317e-01	1.103313e+15	1.258606e+15	5.312968e+13	1.460449e+04	6.636943e+03	4.951725e+03	0	1.250359e-03
8.800000e+08	9.575187e+13	0.000000e+00	8.526317e-01	1.093842e+15	1.248080e+15	5.288487e+13	1.457575e+04	6.626586e+03	4.943998e+03	0	1.245864e-03
8.900000e+08	9.472633e+13	0.000000e+00	8.526317e-01	1.084501e+15	1.237697e+15	5.264175e+13	1.454725e+04	6.616308e+03	4.936330e+03	0	1.241400e-03
9.000000e+08	9.371520e+13	0.000000e+00	8.526317e-01	1.075288e+15	1.227454e+15	5.240029e+13	1.451899e+04	6.606108e+03	4.928720e+03	0	1.236967e-03
9.100000e+08	9.271823e+13	0.000000e+00	8.526317e-01	1.066201e+15	1.217348e+15	5.216049e+13	1.449097e+04	6.595985e+03	4.921167e+03	0	1.232565e-03
9.200000e+08	9.173515e+13	0.000000e+00	8.526317e-01	1.057238e+15	1.207378e+15	5.192233e+13	1.446319e+04	6.585938e+03	4.913671e+03	0	1.228194e-03
9.300000e+08	9.076569e+13	0.000000e+00	8.526317e-01	1.048397e+15	1.197541e+15	5.168580e+13	1.443564e+04	6.575966e+03	4.906231e+03	0	1.223852e-03
9.400000e+08	8.980960e+13	0.000000e+00	8.526317e-01	1.039674e+15	1.187834e+15	5.145089e+13	1.440832e+04	6.566067e+03	4.898846e+03	0	1.219539e-03
9.500000e+08	8.886663e+13	0.000000e+00	8.526317e-01	1.031069e+15	1.178255e+15	5.121758e+13	1.438123e+04	6.556242e+03	4.891516e+03	0	1.215256e-03
9.600000e+08	8.793655e+13	0.000000e+00	8.526317e-01	1.022578e+15	1.168802e+15	5.098586e+13	1.435436e+04	6.546490e+03	4.884239e+03	0	1.211001e-03
9.700000e+08	8.701911e+13	0.000000e+00	8.526317e-01	1.014201e+15	1.159472e+15	5.075573e+13	1.432771e+04	6.536808e+03	4.877016e+03	0	1.206775e-03
9.800000e+08	8.611409e+13	0.000000e+00	8.526317e-01	1.005934e+15	1.150264e+15	5.052715e+13	1.430128e+04	6.527197e+03	4.869846e+03	0	1.202577e-03
9.900000e+08	8.522126e+13	0.000000e+00	8.526317e-01	9.977751e+14	1.141174e+15	5.030013e+13	1.427506e+04	6.517656e+03	4.862727e+03	0	1.198407e-03
1.000000e+09	8.434040e+13	0.000000e+00	8.526317e-01	9.897236e+14	1.132202e+15	5.007465e+13	1.424906e+04	6.508184e+03	4.855660e+03	0	1.194263e-03
1.010000e+09	8.347129e+13	0.000000e+00	8.526317e-01	9.817769e+14	1.123345e+15	4.985070e+13	1.422326e+04	6.498780e+03	4.848644e+03	0	1.190147e-03
1.020000e+09	8.261373e+13	0.000000e+00	8.526317e-01	9.739332e+14	1.114601e+15	4.962827e+13	1.419768e+04	6.489443e+03	4.841678e+03	0	1.186057e-03
1.030000e+09	8.176750e+13	0.000000e+00	8.526317e-01	9.661907e+14	1.105967e+15	4.940734e+13	1.417229e+04	6.480173e+03	4.834761e+03	0	1.181994e-03
1.040000e+09	8.093242e+13	0.000000e+00	8.526317e-01	9.585477e+14	1.097443e+15	4.918791e+13	1.414711e+04	6.470968e+03	4.827894e+03	0	1.177956e-03
1.050000e+09	8.010827e+13	0.000000e+00	8.526317e-01	9.510023e+14	1.089026e+15	4.896995e+13	1.412213e+04	6.461828e+03	4.821075e+03	0	1.173944e-03
1.060000e+09	7.929487e+13	0.000000e+00	8.526317e-01	9.435529e+14	1.080714e+15	4.875347e+13	1.409734e+04	6.452753e+03	4.814304e+03	0	1.169957e-03
1.070000e+09	7.849204e+13	0.000000e+00	8.526317e-01	9.361979e+14	1.072506e+15	4.853845e+13	1.407274e+04	6.443741e+03	4.807580e+03	0	1.165995e-03
1.080000e+09	7.769957e+13	0.000000e+00	8.526317e-01	9.289356e+14	1.064399e+15	4.832487e+13	1.404834e+04	6.434791e+03	4.800903e+03	0	1.162058e-03
1.090000e+09	7.691731e+13	0.000000e+00	8.526317e-01	9.217643e+14	1.056393e+15	4.811273e+13	1.402413e+04	6.425904e+03	4.794272e+03	0	1.158145e-03
1.100000e+09	7.614506e+13	0.000000e+00	8.526317e-01	9.146826e+14	1.048486e+15	4.790201e+13	1.400010e+04	6.417077e+03	4.787687e+03	0	1.154256e-03
1.110000e+09	7.538266e+13	0.000000e+00	8.526317e-01	9.076890e+14	1.040674e+15	4.769271e+13	1.397626e+04	6.408312e+03	4.781147e+03	0	1.150391e-03
1.120000e+09	7.462994e+13	0.000000e+00	8.526317e-01	9.007819e+14	1.032959e+15	4.748480e+13	1.395259e+04	6.399606e+03	4.774651e+03	0	1.146549e-03
1.130000e+09	7.388674e+13	0.000000e+00	8.526317e-01	8.939599e+14	1.025336e+15	4.727829e+13	1.392911e+04	6.390959e+03	4.768200e+03	0	1.142730e-03
1.140000e+09	7.315288e+13	0.000000e+00	8.526317e-01	8.872215e+14	1.017805e+15	4.707316e+13	1.390581e+04	6.382371e+03	4.761793e+03	0	1.138934e-03
1.150000e+09	7.242822e+13	0.000000e+00	8.526317e-01	8.805653e+14	1.010365e+15	4.686940e+13	1.388268e+04	6.373841e+03	4.755428e+03	0	1.135161e-03
1.160000e+09	7.171261e+13	0.000000e+00	8.526317e-01	8.739901e+14	1.003014e+15	4.666700e+13	1.385972e+04	6.365368e+03	4.749107e+03	0	1.131410e-03
1.170000e+09	7.100587e+13	0.000000e+00	8.526317e-01	8.674944e+14	9.957503e+14	4.646595e+13	1.383694e+04	6.356951e+03	4.742827e+03	0	1.127681e-03
1.180000e+09	7.030788e+13	0.000000e+00	8.526317e-01	8.610769e+14	9.885726e+14	4.626623e+13	1.381432e+04	6.348591e+03	4.736590e+03	0	1.123974e-03
1.190000e+09	6.961849e+13	0.000000e+00	8.526317e-01	8.547364e+14	9.814798e+14	4.606784e+13	1.379187e+04	6.340285e+03	4.730393e+03	0	1.120288e-03
1.200000e+09	6.893754e+13	0.000000e+00	8.526317e-01	8.484716e+14	9.744702e+14	4.587077e+13	1.376959e+04	6.332035e+03	4.724238e+03	0	1.116624e-03
1.210000e+09	6.826491e+13	0.000000e+00	8.526317e-01	8.422812e+14	9.675425e+14	4.567501e+13	1.374747e+04	6.323838e+03	4.718122e+03	0	1.112980e-03
1.220000e+09	6.760046e+13	0.000000e+00	8.526317e-01	8.361640e+14	9.606956e+14	4.548054e+13	1.372550e+04	6.315696e+03	4.712047e+03	0	1.109357e-03
1.230000e+09	6.694405e+13	0.000000e+00	8.526317e-01	8.301190e+14	9.539279e+14	4.528736e+13	1.370370e+04	6.307606e+03	4.706011e+03	0	1.105755e-03
1.240000e+09	6.629555e+13	0.000000e+00	8.526317e-01	8.241448e+14	9.472385e+14	4.509546e+13	1.368206e+04	6.299568e+03	4.700015e+03	0	1.102173e-03
1.250000e+09	6.565484e+13	0.000000e+00	8.526317e-01	8.182404e+14	9.406257e+14	4.490482e+13	1.366057e+04	6.291582e+03	4.694056e+03	0	1.098611e-03
1.260000e+09	6.502178e+13	0.000000e+00	8.526317e-01	8.124047e+14	9.340889e+14	4.471544e+13	1.363924e+04	6.283648e+03	4.688137e+03	0	1.095068e-03
1.270000e+09	6.439626e+13	0.000000e+00	8.526317e-01	8.066365e+14	9.276265e+14	4.452731e+13	1.361805e+04	6.275764e+03	4.682255e+03	0	1.091545e-03
1.280000e+09	6.377816e+13	0.000000e+00	8.526317e-01	8.009348e+14	9.212373e+14	4.434042e+13	1.359702e+04	6.267930e+03	4.676410e+03	0	1.088042e-03
1.290000e+09	6.316736e+13	0.000000e+00	8.526317e-01	7.952986e+14	9.149202e+14	4.415475e+13	1.357613e+04	6.260146e+03	4.670602e+03	0	1.084557e-03
1.300000e+09	6.256373e+13	0.000000e+00	8.526317e-01	7.897268e+14	9.086743e+14	4.397030e+13	1.355540e+04	6.252411e+03	4.664831e+03	0	1.081091e-03
1.310000e+09	6.196718e+13	0.000000e+00	8.526317e-01	7.842185e+14	9.024982e+14	4.378707e+13	1.353480e+04	6.244725e+03	4.659097e+03	0	1.077644e-03
1.320000e+09	6.137758e+13	0.000000e+00	8.526317e-01	7.787726e+14	8.963910e+14	4.360503e+13	1.351435e+04	6.237086e+03	4.653398e+03	0	1.074216e-03
1.330000e+09	6.079483e+13	0.000000e+00	8.526317e-01	7.733881e+14	8.903518e+14	4.342418e+13	1.349404e+04	6.229495e+03	4.647734e+03	0	1.070805e-03
1.340000e+09	6.021882e+13	0.000000e+00	8.526317e-01	7.680642e+14	8.843792e+14	4.324451e+13	1.347388e+04	6.221952e+03	4.642106e+03	0	1.067413e-03
1.350000e+09	5.964945e+13	0.000000e+00	8.526317e-01	7.627998e+14	8.784724e+14	4.306602e+13	1.345385e+04	6.214455e+03	4.636513e+03	0	1.064038e-03
1.360000e+09	5.908661e+13	0.000000e+00	8.526317e-01	7.575942e+14	8.726306e+14	4.288869e+13	1.343395e+04	6.207004e+03	4.630954e+03	0	1.060680e-03
