#t		Qconv[W]	Ri[Rp]		R*[Rp]		Qc[W]		Qm[W]		Qr[W]		Tcmb[K]		Tl[K]		Tup[K]		RiFlag		Bs[T]
0.000000e+00	2.069029e+15	0.000000e+00	8.526320e-01	1.765159e+16	3.384257e+13	9.060347e+13	3.257104e+04	4.263371e+03	2.850560e+03	0	3.448463e-03
1.000000e+07	2.066237e+15	0.000000e+00	8.526320e-01	1.761966e+16	3.607642e+14	9.010146e+13	3.217873e+04	6.047075e+03	4.043173e+03	0	3.446911e-03
2.000000e+07	2.017963e+15	0.000000e+00	8.526320e-01	1.721639e+16	1.493259e+15	8.960320e+13	3.178699e+04	7.757930e+03	5.187079e+03	0	3.419856e-03
3.000000e+07	1.936177e+15	0.000000e+00	8.526320e-01	1.653972e+16	3.690998e+15	8.910867e+13	3.140404e+04	9.258973e+03	6.190702e+03	0	3.373016e-03
4.000000e+07	1.840584e+15	0.000000e+00	8.526320e-01	1.575067e+16	6.522424e+15	8.861783e+13	3.103597e+04	1.043080e+04	6.974202e+03	0	3.316566e-03
5.000000e+07	1.748554e+15	0.000000e+00	8.526320e-01	1.499111e+16	9.179270e+15	8.813065e+13	3.068531e+04	1.123840e+04	7.514179e+03	0	3.260341e-03
6.000000e+07	1.668185e+15	0.000000e+00	8.526320e-01	1.432715e+16	1.112973e+16	8.764710e+13	3.035142e+04	1.173314e+04	7.844972e+03	0	3.209604e-03
7.000000e+07	1.599919e+15	0.000000e+00	8.526320e-01	1.376235e+16	1.230411e+16	8.716716e+13	3.003221e+04	1.200286e+04	8.025307e+03	0	3.165211e-03
8.000000e+07	1.541168e+15	0.000000e+00	8.526320e-01	1.327553e+16	1.287797e+16	8.669078e+13	2.972549e+04	1.212828e+04	8.109169e+03	0	3.125983e-03
9.000000e+07	1.489184e+15	0.000000e+00	8.526320e-01	1.284421e+16	1.306049e+16	8.621795e+13	2.942953e+04	1.216737e+04	8.135305e+03	0	3.090434e-03
1.000000e+08	1.441947e+15	0.000000e+00	8.526320e-01	1.245186e+16	1.301121e+16	8.574862e+13	2.914312e+04	1.215686e+04	8.128275e+03	0	3.057406e-03
1.100000e+08	1.398155e+15	0.000000e+00	8.526320e-01	1.208785e+16	1.283297e+16	8.528278e+13	2.886540e+04	1.211859e+04	8.102686e+03	0	3.026136e-03
1.200000e+08	1.357007e+15	0.000000e+00	8.526320e-01	1.174561e+16	1.258689e+16	8.482039e+13	2.859573e+04	1.206515e+04	8.066956e+03	0	2.996153e-03
1.300000e+08	1.318011e+15	0.000000e+00	8.526320e-01	1.142112e+16	1.230792e+16	8.436143e+13	2.833363e+04	1.200370e+04	8.025873e+03	0	2.967174e-03
1.400000e+08	1.280857e+15	0.000000e+00	8.526320e-01	1.111183e+16	1.201569e+16	8.390586e+13	2.807873e+04	1.193831e+04	7.982147e+03	0	2.939027e-03
1.500000e+08	1.245337e+15	0.000000e+00	8.526320e-01	1.081605e+16	1.172100e+16	8.345366e+13	2.783067e+04	1.187125e+04	7.937311e+03	0	2.911604e-03
1.600000e+08	1.211306e+15	0.000000e+00	8.526320e-01	1.053257e+16	1.142974e+16	8.300480e+13	2.758917e+04	1.180383e+04	7.892232e+03	0	2.884837e-03
1.700000e+08	1.178651e+15	0.000000e+00	8.526320e-01	1.026048e+16	1.114501e+16	8.255925e+13	2.735395e+04	1.173677e+04	7.847399e+03	0	2.858677e-03
1.800000e+08	1.147284e+15	0.000000e+00	8.526320e-01	9.999040e+15	1.086839e+16	8.211699e+13	2.712477e+04	1.167050e+04	7.803085e+03	0	2.833090e-03
1.900000e+08	1.117129e+15	0.000000e+00	8.526320e-01	9.747631e+15	1.060057e+16	8.167798e+13	2.690138e+04	1.160522e+04	7.759438e+03	0	2.808048e-03
2.000000e+08	1.088119e+15	0.000000e+00	8.526320e-01	9.505705e+15	1.034175e+16	8.124221e+13	2.668357e+04	1.154105e+04	7.716535e+03	0	2.783528e-03
2.100000e+08	1.060195e+15	0.000000e+00	8.526320e-01	9.272771e+15	1.009188e+16	8.080964e+13	2.647112e+04	1.147805e+04	7.674412e+03	0	2.759510e-03
2.200000e+08	1.033303e+15	0.000000e+00	8.526320e-01	9.048379e+15	9.850777e+15	8.038024e+13	2.626385e+04	1.141623e+04	7.633080e+03	0	2.735978e-03
2.300000e+08	1.007392e+15	0.000000e+00	8.526320e-01	8.832113e+15	9.618138e+15	7.995400e+13	2.606156e+04	1.135559e+04	7.592536e+03	0	2.712915e-03
2.400000e+08	9.824152e+14	0.000000e+00	8.526320e-01	8.623585e+15	9.393647e+15	7.953088e+13	2.586407e+04	1.129612e+04	7.552770e+03	0	2.690306e-03
2.500000e+08	9.583282e+14	0.000000e+00	8.526320e-01	8.422431e+15	9.176993e+15	7.911086e+13	2.567121e+04	1.123778e+04	7.513766e+03	0	2.668137e-03
2.600000e+08	9.350899e+14	0.000000e+00	8.526320e-01	8.228311e+15	8.967825e+15	7.869392e+13	2.548281e+04	1.118056e+04	7.475506e+03	0	2.646394e-03
2.700000e+08	9.126614e+14	0.000000e+00	8.526320e-01	8.040904e+15	8.765842e+15	7.828002e+13	2.529874e+04	1.112442e+04	7.437972e+03	0	2.625064e-03
2.800000e+08	8.910061e+14	0.000000e+00	8.526320e-01	7.859906e+15	8.570723e+15	7.786915e+13	2.511882e+04	1.106934e+04	7.401144e+03	0	2.604136e-03
2.900000e+08	8.700894e+14	0.000000e+00	8.526320e-01	7.685032e+15	8.382170e+15	7.746128e+13	2.494293e+04	1.101529e+04	7.365002e+03	0	2.583597e-03
3.000000e+08	8.498785e+14	0.000000e+00	8.526320e-01	7.516011e+15	8.199899e+15	7.705637e+13	2.477093e+04	1.096223e+04	7.329529e+03	0	2.563435e-03
3.100000e+08	8.303425e+14	0.000000e+00	8.526320e-01	7.352588e+15	8.023649e+15	7.665442e+13	2.460269e+04	1.091015e+04	7.294704e+03	0	2.543641e-03
3.200000e+08	8.114522e+14	0.000000e+00	8.526320e-01	7.194521e+15	7.853142e+15	7.625540e+13	2.443808e+04	1.085901e+04	7.260510e+03	0	2.524204e-03
3.300000e+08	7.931797e+14	0.000000e+00	8.526320e-01	7.041581e+15	7.688144e+15	7.585927e+13	2.427699e+04	1.080878e+04	7.226930e+03	0	2.505113e-03
3.400000e+08	7.754988e+14	0.000000e+00	8.526320e-01	6.893550e+15	7.528433e+15	7.546602e+13	2.411930e+04	1.075945e+04	7.193946e+03	0	2.486359e-03
3.500000e+08	7.583846e+14	0.000000e+00	8.526320e-01	6.750222e+15	7.373772e+15	7.507562e+13	2.396490e+04	1.071099e+04	7.161543e+03	0	2.467932e-03
3.600000e+08	7.418134e+14	0.000000e+00	8.526320e-01	6.611403e+15	7.223960e+15	7.468806e+13	2.381370e+04	1.066337e+04	7.129703e+03	0	2.449824e-03
3.700000e+08	7.257629e+14	0.000000e+00	8.526320e-01	6.476906e+15	7.078789e+15	7.430330e+13	2.366558e+04	1.061657e+04	7.098413e+03	0	2.432027e-03
3.800000e+08	7.102117e+14	0.000000e+00	8.526320e-01	6.346556e+15	6.938082e+15	7.392133e+13	2.352046e+04	1.057057e+04	7.067657e+03	0	2.414530e-03
3.900000e+08	6.951395e+14	0.000000e+00	8.526320e-01	6.220185e+15	6.801653e+15	7.354211e+13	2.337825e+04	1.052535e+04	7.037421e+03	0	2.397328e-03
4.000000e+08	6.805271e+14	0.000000e+00	8.526320e-01	6.097633e+15	6.669330e+15	7.316564e+13	2.323885e+04	1.048088e+04	7.007691e+03	0	2.380411e-03
4.100000e+08	6.663563e+14	0.000000e+00	8.526320e-01	5.978750e+15	6.540957e+15	7.279188e+13	2.310218e+04	1.043716e+04	6.978455e+03	0	2.363772e-03
4.200000e+08	6.526095e+14	0.000000e+00	8.526320e-01	5.863391e+15	6.416365e+15	7.242081e+13	2.296816e+04	1.039415e+04	6.949699e+03	0	2.347404e-03
4.300000e+08	6.392703e+14	0.000000e+00	8.526320e-01	5.751420e+15	6.295421e+15	7.205242e+13	2.283671e+04	1.035184e+04	6.921410e+03	0	2.331300e-03
4.400000e+08	6.263229e+14	0.000000e+00	8.526320e-01	5.642705e+15	6.177983e+15	7.168667e+13	2.270775e+04	1.031021e+04	6.893578e+03	0	2.315454e-03
4.500000e+08	6.137521e+14	0.000000e+00	8.526320e-01	5.537122e+15	6.063912e+15	7.132356e+13	2.258122e+04	1.026925e+04	6.866190e+03	0	2.299858e-03
4.600000e+08	6.015438e+14	0.000000e+00	8.526320e-01	5.434553e+15	5.953082e+15	7.096305e+13	2.245705e+04	1.022894e+04	6.839236e+03	0	2.284507e-03
4.700000e+08	5.896842e+14	0.000000e+00	8.526320e-01	5.334884e+15	5.845370e+15	7.060513e+13	2.233516e+04	1.018926e+04	6.812704e+03	0	2.269394e-03
4.800000e+08	5.781602e+14	0.000000e+00	8.526320e-01	5.238008e+15	5.740665e+15	7.024977e+13	2.221549e+04	1.015019e+04	6.786584e+03	0	2.254513e-03
4.900000e+08	5.669595e+14	0.000000e+00	8.526320e-01	5.143822e+15	5.638854e+15	6.989696e+13	2.209799e+04	1.011173e+04	6.760867e+03	0	2.239859e-03
5.000000e+08	5.560702e+14	0.000000e+00	8.526320e-01	5.052226e+15	5.539827e+15	6.954667e+13	2.198258e+04	1.007385e+04	6.735541e+03	0	2.225427e-03
5.100000e+08	5.454809e+14	0.000000e+00	8.526320e-01	4.963128e+15	5.443490e+15	6.919888e+13	2.186922e+04	1.003654e+04	6.710599e+03	0	2.211210e-03
5.200000e+08	5.351808e+14	0.000000e+00	8.526320e-01	4.876437e+15	5.349741e+15	6.885357e+13	2.175785e+04	9.999799e+03	6.686030e+03	0	2.197203e-03
5.300000e+08	5.251596e+14	0.000000e+00	8.526320e-01	4.792068e+15	5.258495e+15	6.851073e+13	2.164842e+04	9.963600e+03	6.661826e+03	0	2.183403e-03
5.400000e+08	5.154073e+14	0.000000e+00	8.526320e-01	4.709939e+15	5.169655e+15	6.817033e+13	2.154086e+04	9.927933e+03	6.637979e+03	0	2.169803e-03
5.500000e+08	5.059144e+14	0.000000e+00	8.526320e-01	4.629971e+15	5.083140e+15	6.783235e+13	2.143515e+04	9.892787e+03	6.614480e+03	0	2.156399e-03
5.600000e+08	4.966720e+14	0.000000e+00	8.526320e-01	4.552089e+15	4.998873e+15	6.749677e+13	2.133121e+04	9.858149e+03	6.591321e+03	0	2.143186e-03
5.700000e+08	4.876713e+14	0.000000e+00	8.526320e-01	4.476222e+15	4.916772e+15	6.716358e+13	2.122902e+04	9.824009e+03	6.568494e+03	0	2.130161e-03
5.800000e+08	4.789041e+14	0.000000e+00	8.526320e-01	4.402300e+15	4.836767e+15	6.683275e+13	2.112852e+04	9.790354e+03	6.545992e+03	0	2.117319e-03
5.900000e+08	4.703623e+14	0.000000e+00	8.526320e-01	4.330257e+15	4.758785e+15	6.650426e+13	2.102967e+04	9.757174e+03	6.523807e+03	0	2.104655e-03
6.000000e+08	4.620384e+14	0.000000e+00	8.526320e-01	4.260030e+15	4.682756e+15	6.617810e+13	2.093243e+04	9.724458e+03	6.501932e+03	0	2.092166e-03
6.100000e+08	4.539251e+14	0.000000e+00	8.526320e-01	4.191559e+15	4.608618e+15	6.585425e+13	2.083676e+04	9.692196e+03	6.480361e+03	0	2.079847e-03
6.200000e+08	4.460153e+14	0.000000e+00	8.526320e-01	4.124786e+15	4.536309e+15	6.553268e+13	2.074262e+04	9.660377e+03	6.459087e+03	0	2.067696e-03
6.300000e+08	4.383023e+14	0.000000e+00	8.526320e-01	4.059654e+15	4.465767e+15	6.521339e+13	2.064998e+04	9.628993e+03	6.438103e+03	0	2.055708e-03
6.400000e+08	4.307797e+14	0.000000e+00	8.526320e-01	3.996111e+15	4.396935e+15	6.489635e+13	2.055878e+04	9.598034e+03	6.417403e+03	0	2.043879e-03
6.500000e+08	4.234414e+14	0.000000e+00	8.526320e-01	3.934104e+15	4.329758e+15	6.458154e+13	2.046901e+04	9.567490e+03	6.396981e+03	0	2.032206e-03
6.600000e+08	4.162812e+14	0.000000e+00	8.526320e-01	3.873586e+15	4.264185e+15	6.426895e+13	2.038063e+04	9.537352e+03	6.376831e+03	0	2.020687e-03
6.700000e+08	4.092937e+14	0.000000e+00	8.526320e-01	3.814508e+15	4.200162e+15	6.395855e+13	2.029360e+04	9.507613e+03	6.356946e+03	0	2.009317e-03
6.800000e+08	4.024732e+14	0.000000e+00	8.526320e-01	3.756824e+15	4.137642e+15	6.365033e+13	2.020789e+04	9.478264e+03	6.337323e+03	0	1.998093e-03
6.900000e+08	3.958145e+14	0.000000e+00	8.526320e-01	3.700492e+15	4.076577e+15	6.334428e+13	2.012347e+04	9.449296e+03	6.317954e+03	0	1.987013e-03
7.000000e+08	3.893125e+14	0.000000e+00	8.526320e-01	3.645469e+15	4.016922e+15	6.304037e+13	2.004031e+04	9.420701e+03	6.298836e+03	0	1.976072e-03
7.100000e+08	3.829625e+14	0.000000e+00	8.526320e-01	3.591714e+15	3.958635e+15	6.273859e+13	1.995838e+04	9.392473e+03	6.279962e+03	0	1.965270e-03
7.200000e+08	3.767596e+14	0.000000e+00	8.526320e-01	3.539190e+15	3.901673e+15	6.243892e+13	1.987765e+04	9.364603e+03	6.261328e+03	0	1.954601e-03
7.300000e+08	3.706995e+14	0.000000e+00	8.526320e-01	3.487858e+15	3.845994e+15	6.214135e+13	1.979810e+04	9.337085e+03	6.242928e+03	0	1.944065e-03
7.400000e+08	3.647777e+14	0.000000e+00	8.526320e-01	3.437682e+15	3.791563e+15	6.184585e+13	1.971970e+04	9.309910e+03	6.224759e+03	0	1.933657e-03
7.500000e+08	3.589901e+14	0.000000e+00	8.526320e-01	3.388629e+15	3.738341e+15	6.155241e+13	1.964241e+04	9.283073e+03	6.206815e+03	0	1.923376e-03
7.600000e+08	3.533327e+14	0.000000e+00	8.526320e-01	3.340663e+15	3.686293e+15	6.126101e+13	1.956623e+04	9.256566e+03	6.189092e+03	0	1.913219e-03
7.700000e+08	3.478016e+14	0.000000e+00	8.526320e-01	3.293754e+15	3.635383e+15	6.097165e+13	1.949112e+04	9.230384e+03	6.171586e+03	0	1.903183e-03
7.800000e+08	3.423931e+14	0.000000e+00	8.526320e-01	3.247871e+15	3.585578e+15	6.068429e+13	1.941706e+04	9.204519e+03	6.154292e+03	0	1.893266e-03
7.900000e+08	3.371035e+14	0.000000e+00	8.526320e-01	3.202983e+15	3.536846e+15	6.039893e+13	1.934403e+04	9.178965e+03	6.137207e+03	0	1.883466e-03
8.000000e+08	3.319296e+14	0.000000e+00	8.526320e-01	3.159061e+15	3.489157e+15	6.011555e+13	1.927201e+04	9.153717e+03	6.120326e+03	0	1.873780e-03
8.100000e+08	3.268678e+14	0.000000e+00	8.526320e-01	3.116079e+15	3.442481e+15	5.983413e+13	1.920096e+04	9.128769e+03	6.103645e+03	0	1.864207e-03
8.200000e+08	3.219150e+14	0.000000e+00	8.526320e-01	3.074008e+15	3.396787e+15	5.955466e+13	1.913088e+04	9.104115e+03	6.087161e+03	0	1.854743e-03
8.300000e+08	3.170681e+14	0.000000e+00	8.526320e-01	3.032825e+15	3.352050e+15	5.927712e+13	1.906174e+04	9.079749e+03	6.070869e+03	0	1.845387e-03
8.400000e+08	3.123240e+14	0.000000e+00	8.526320e-01	2.992502e+15	3.308242e+15	5.900150e+13	1.899353e+04	9.055666e+03	6.054767e+03	0	1.836137e-03
8.500000e+08	3.076800e+14	0.000000e+00	8.526320e-01	2.953017e+15	3.265338e+15	5.872778e+13	1.892621e+04	9.031861e+03	6.038851e+03	0	1.826991e-03
8.600000e+08	3.031331e+14	0.000000e+00	8.526320e-01	2.914347e+15	3.223313e+15	5.845595e+13	1.885978e+04	9.008328e+03	6.023116e+03	0	1.817947e-03
8.700000e+08	2.986808e+14	0.000000e+00	8.526320e-01	2.876468e+15	3.182141e+15	5.818599e+13	1.879422e+04	8.985063e+03	6.007561e+03	0	1.809003e-03
8.800000e+08	2.943204e+14	0.000000e+00	8.526320e-01	2.839359e+15	3.141799e+15	5.791789e+13	1.872951e+04	8.962060e+03	5.992181e+03	0	1.800156e-03
8.900000e+08	2.900494e+14	0.000000e+00	8.526320e-01	2.803000e+15	3.102268e+15	5.765162e+13	1.866563e+04	8.939315e+03	5.976973e+03	0	1.791406e-03
9.000000e+08	2.858653e+14	0.000000e+00	8.526320e-01	2.767369e+15	3.063522e+15	5.738719e+13	1.860256e+04	8.916824e+03	5.961935e+03	0	1.782750e-03
9.100000e+08	2.817659e+14	0.000000e+00	8.526320e-01	2.732448e+15	3.025542e+15	5.712457e+13	1.854029e+04	8.894581e+03	5.947063e+03	0	1.774188e-03
9.200000e+08	2.777488e+14	0.000000e+00	8.526320e-01	2.698218e+15	2.988308e+15	5.686374e+13	1.847880e+04	8.872582e+03	5.932354e+03	0	1.765716e-03
9.300000e+08	2.738118e+14	0.000000e+00	8.526320e-01	2.664660e+15	2.951799e+15	5.660470e+13	1.841808e+04	8.850824e+03	5.917806e+03	0	1.757333e-03
9.400000e+08	2.699530e+14	0.000000e+00	8.526320e-01	2.631756e+15	2.915997e+15	5.634744e+13	1.835812e+04	8.829300e+03	5.903415e+03	0	1.749039e-03
9.500000e+08	2.661701e+14	0.000000e+00	8.526320e-01	2.599491e+15	2.880883e+15	5.609192e+13	1.829889e+04	8.808009e+03	5.889179e+03	0	1.740830e-03
9.600000e+08	2.624612e+14	0.000000e+00	8.526320e-01	2.567846e+15	2.846442e+15	5.583815e+13	1.824038e+04	8.786945e+03	5.875096e+03	0	1.732707e-03
9.700000e+08	2.588243e+14	0.000000e+00	8.526320e-01	2.536806e+15	2.812652e+15	5.558611e+13	1.818258e+04	8.766104e+03	5.861161e+03	0	1.724666e-03
9.800000e+08	2.552578e+14	0.000000e+00	8.526320e-01	2.506356e+15	2.779499e+15	5.533578e+13	1.812548e+04	8.745484e+03	5.847374e+03	0	1.716708e-03
9.900000e+08	2.517596e+14	0.000000e+00	8.526320e-01	2.476481e+15	2.746968e+15	5.508716e+13	1.806906e+04	8.725079e+03	5.833731e+03	0	1.708829e-03
1.000000e+09	2.483281e+14	0.000000e+00	8.526320e-01	2.447165e+15	2.715041e+15	5.484022e+13	1.801332e+04	8.704887e+03	5.820230e+03	0	1.701030e-03
1.010000e+09	2.449616e+14	0.000000e+00	8.526320e-01	2.418396e+15	2.683702e+15	5.459496e+13	1.795823e+04	8.684903e+03	5.806869e+03	0	1.693308e-03
1.020000e+09	2.416585e+14	0.000000e+00	8.526320e-01	2.390159e+15	2.652941e+15	5.435135e+13	1.790378e+04	8.665125e+03	5.793645e+03	0	1.685663e-03
1.030000e+09	2.384171e+14	0.000000e+00	8.526320e-01	2.362441e+15	2.622740e+15	5.410940e+13	1.784997e+04	8.645548e+03	5.780556e+03	0	1.678092e-03
1.040000e+09	2.352360e+14	0.000000e+00	8.526320e-01	2.335229e+15	2.593086e+15	5.386908e+13	1.779678e+04	8.626171e+03	5.767599e+03	0	1.670596e-03
1.050000e+09	2.321136e+14	0.000000e+00	8.526320e-01	2.308511e+15	2.563966e+15	5.363039e+13	1.774420e+04	8.606988e+03	5.754774e+03	0	1.663171e-03
1.060000e+09	2.290486e+14	0.000000e+00	8.526320e-01	2.282275e+15	2.535366e+15	5.339330e+13	1.769222e+04	8.587997e+03	5.742076e+03	0	1.655818e-03
1.070000e+09	2.260395e+14	0.000000e+00	8.526320e-01	2.256510e+15	2.507276e+15	5.315781e+13	1.764083e+04	8.569196e+03	5.729505e+03	0	1.648535e-03
1.080000e+09	2.230849e+14	0.000000e+00	8.526320e-01	2.231203e+15	2.479681e+15	5.292391e+13	1.759001e+04	8.550580e+03	5.717058e+03	0	1.641321e-03
1.090000e+09	2.201836e+14	0.000000e+00	8.526320e-01	2.206344e+15	2.452570e+15	5.269158e+13	1.753977e+04	8.532147e+03	5.704734e+03	0	1.634174e-03
1.100000e+09	2.173342e+14	0.000000e+00	8.526320e-01	2.181923e+15	2.425932e+15	5.246081e+13	1.749008e+04	8.513895e+03	5.692530e+03	0	1.627094e-03
1.110000e+09	2.145356e+14	0.000000e+00	8.526320e-01	2.157928e+15	2.399757e+15	5.223158e+13	1.744094e+04	8.495819e+03	5.680444e+03	0	1.620080e-03
1.120000e+09	2.117865e+14	0.000000e+00	8.526320e-01	2.134351e+15	2.374030e+15	5.200390e+13	1.739234e+04	8.477918e+03	5.668475e+03	0	1.613130e-03
1.130000e+09	2.090857e+14	0.000000e+00	8.526320e-01	2.111180e+15	2.348747e+15	5.177773e+13	1.734426e+04	8.460188e+03	5.656621e+03	0	1.606244e-03
1.140000e+09	2.064322e+14	0.000000e+00	8.526320e-01	2.088408e+15	2.323893e+15	5.155308e+13	1.729671e+04	8.442627e+03	5.644879e+03	0	1.599420e-03
1.150000e+09	2.038248e+14	0.000000e+00	8.526320e-01	2.066024e+15	2.299458e+15	5.132993e+13	1.724967e+04	8.425233e+03	5.633249e+03	0	1.592658e-03
1.160000e+09	2.012625e+14	0.000000e+00	8.526320e-01	2.044019e+15	2.275435e+15	5.110826e+13	1.720313e+04	8.408002e+03	5.621728e+03	0	1.585956e-03
1.170000e+09	1.987442e+14	0.000000e+00	8.526320e-01	2.022386e+15	2.251814e+15	5.088808e+13	1.715708e+04	8.390933e+03	5.610316e+03	0	1.579313e-03
1.180000e+09	1.962690e+14	0.000000e+00	8.526320e-01	2.001115e+15	2.228584e+15	5.066936e+13	1.711153e+04	8.374022e+03	5.599009e+03	0	1.572729e-03
1.190000e+09	1.938358e+14	0.000000e+00	8.526320e-01	1.980198e+15	2.205739e+15	5.045209e+13	1.706644e+04	8.357268e+03	5.587807e+03	0	1.566203e-03
1.200000e+09	1.914436e+14	0.000000e+00	8.526320e-01	1.959628e+15	2.183266e+15	5.023626e+13	1.702183e+04	8.340668e+03	5.576707e+03	0	1.559733e-03
1.210000e+09	1.890917e+14	0.000000e+00	8.526320e-01	1.939397e+15	2.161163e+15	5.002187e+13	1.697768e+04	8.324219e+03	5.565710e+03	0	1.553320e-03
1.220000e+09	1.867790e+14	0.000000e+00	8.526320e-01	1.919497e+15	2.139418e+15	4.980889e+13	1.693399e+04	8.307920e+03	5.554812e+03	0	1.546961e-03
1.230000e+09	1.845047e+14	0.000000e+00	8.526320e-01	1.899920e+15	2.118022e+15	4.959733e+13	1.689074e+04	8.291768e+03	5.544013e+03	0	1.540657e-03
1.240000e+09	1.822680e+14	0.000000e+00	8.526320e-01	1.880661e+15	2.096971e+15	4.938716e+13	1.684793e+04	8.275762e+03	5.533310e+03	0	1.534406e-03
1.250000e+09	1.800679e+14	0.000000e+00	8.526320e-01	1.861711e+15	2.076254e+15	4.917838e+13	1.680555e+04	8.259898e+03	5.522703e+03	0	1.528207e-03
1.260000e+09	1.779038e+14	0.000000e+00	8.526320e-01	1.843065e+15	2.055866e+15	4.897098e+13	1.676360e+04	8.244175e+03	5.512191e+03	0	1.522060e-03
1.270000e+09	1.757749e+14	0.000000e+00	8.526320e-01	1.824715e+15	2.035800e+15	4.876494e+13	1.672207e+04	8.228591e+03	5.501771e+03	0	1.515964e-03
1.280000e+09	1.736803e+14	0.000000e+00	8.526320e-01	1.806656e+15	2.016047e+15	4.856026e+13	1.668095e+04	8.213144e+03	5.491443e+03	0	1.509919e-03
1.290000e+09	1.716193e+14	0.000000e+00	8.526320e-01	1.788881e+15	1.996604e+15	4.835693e+13	1.664023e+04	8.197831e+03	5.481205e+03	0	1.503923e-03
1.300000e+09	1.695913e+14	0.000000e+00	8.526320e-01	1.771383e+15	1.977460e+15	4.815493e+13	1.659992e+04	8.182652e+03	5.471055e+03	0	1.497975e-03
1.310000e+09	1.675955e+14	0.000000e+00	8.526320e-01	1.754158e+15	1.958612e+15	4.795425e+13	1.655999e+04	8.167603e+03	5.460994e+03	0	1.492076e-03
1.320000e+09	1.656312e+14	0.000000e+00	8.526320e-01	1.737200e+15	1.940053e+15	4.775489e+13	1.652046e+04	8.152684e+03	5.451018e+03	0	1.486223e-03
1.330000e+09	1.636978e+14	0.000000e+00	8.526320e-01	1.720502e+15	1.921777e+15	4.755683e+13	1.648130e+04	8.137892e+03	5.441128e+03	0	1.480418e-03
1.340000e+09	1.617946e+14	0.000000e+00	8.526320e-01	1.704060e+15	1.903777e+15	4.736006e+13	1.644252e+04	8.123226e+03	5.431322e+03	0	1.474658e-03
1.350000e+09	1.599210e+14	0.000000e+00	8.526320e-01	1.687868e+15	1.886050e+15	4.716458e+13	1.640411e+04	8.108683e+03	5.421599e+03	0	1.468944e-03
1.360000e+09	1.580764e+14	0.000000e+00	8.526320e-01	1.671921e+15	1.868587e+15	4.697037e+13	1.636607e+04	8.094263e+03	5.411957e+03	0	1.463274e-03
