#t		Qconv[W]	Ri[Rp]		R*[Rp]		Qc[W]		Qm[W]		Qr[W]		Tcmb[K]		Tl[K]		Tup[K]		RiFlag		Bs[T]
0.000000e+00	2.200194e+15	0.000000e+00	8.526316e-01	1.823726e+16	3.099891e+13	9.869869e+13	3.363500e+04	4.351892e+03	2.900941e+03	0	3.512753e-03
1.000000e+07	2.210407e+15	0.000000e+00	8.526316e-01	1.830725e+16	3.034546e+14	9.815183e+13	3.327621e+04	6.049087e+03	4.032280e+03	0	3.518180e-03
2.000000e+07	2.177124e+15	0.000000e+00	8.526316e-01	1.803560e+16	1.248713e+15	9.760905e+13	3.291595e+04	7.699614e+03	5.132510e+03	0	3.500432e-03
3.000000e+07	2.108313e+15	0.000000e+00	8.526316e-01	1.748507e+16	3.169441e+15	9.707034e+13	3.256091e+04	9.192143e+03	6.127419e+03	0	3.463158e-03
4.000000e+07	2.019811e+15	0.000000e+00	8.526316e-01	1.678020e+16	5.841335e+15	9.653564e+13	3.221659e+04	1.041576e+04	6.943070e+03	0	3.414006e-03
5.000000e+07	1.928482e+15	0.000000e+00	8.526316e-01	1.605351e+16	8.601750e+15	9.600494e+13	3.188602e+04	1.131529e+04	7.542692e+03	0	3.361753e-03
6.000000e+07	1.844907e+15	0.000000e+00	8.526316e-01	1.538813e+16	1.085593e+16	9.547818e+13	3.156967e+04	1.191028e+04	7.939308e+03	0	3.312471e-03
7.000000e+07	1.772230e+15	0.000000e+00	8.526316e-01	1.480870e+16	1.238409e+16	9.495536e+13	3.126633e+04	1.226663e+04	8.176851e+03	0	3.268391e-03
8.000000e+07	1.709331e+15	0.000000e+00	8.526316e-01	1.430640e+16	1.326209e+16	9.443642e+13	3.097434e+04	1.245789e+04	8.304343e+03	0	3.229258e-03
9.000000e+07	1.653893e+15	0.000000e+00	8.526316e-01	1.386297e+16	1.366934e+16	9.392133e+13	3.069219e+04	1.254367e+04	8.361525e+03	0	3.193962e-03
1.000000e+08	1.603843e+15	0.000000e+00	8.526316e-01	1.346211e+16	1.377312e+16	9.341008e+13	3.041872e+04	1.256525e+04	8.375909e+03	0	3.161413e-03
1.100000e+08	1.557700e+15	0.000000e+00	8.526316e-01	1.309215e+16	1.369439e+16	9.290261e+13	3.015311e+04	1.254889e+04	8.365004e+03	0	3.130800e-03
1.200000e+08	1.514496e+15	0.000000e+00	8.526316e-01	1.274549e+16	1.351124e+16	9.239891e+13	2.989474e+04	1.251058e+04	8.339467e+03	0	3.101583e-03
1.300000e+08	1.473618e+15	0.000000e+00	8.526316e-01	1.241728e+16	1.327121e+16	9.189894e+13	2.964317e+04	1.245983e+04	8.305638e+03	0	3.073423e-03
1.400000e+08	1.434675e+15	0.000000e+00	8.526316e-01	1.210445e+16	1.300241e+16	9.140267e+13	2.939803e+04	1.240225e+04	8.267254e+03	0	3.046107e-03
1.500000e+08	1.397412e+15	0.000000e+00	8.526316e-01	1.180499e+16	1.272118e+16	9.091007e+13	2.915902e+04	1.234113e+04	8.226511e+03	0	3.019503e-03
1.600000e+08	1.361655e+15	0.000000e+00	8.526316e-01	1.151752e+16	1.243693e+16	9.042110e+13	2.892588e+04	1.227840e+04	8.184696e+03	0	2.993525e-03
1.700000e+08	1.327276e+15	0.000000e+00	8.526316e-01	1.124105e+16	1.215496e+16	8.993574e+13	2.869839e+04	1.221520e+04	8.142565e+03	0	2.968117e-03
1.800000e+08	1.294180e+15	0.000000e+00	8.526316e-01	1.097480e+16	1.187821e+16	8.945397e+13	2.847632e+04	1.215218e+04	8.100562e+03	0	2.943239e-03
1.900000e+08	1.262288e+15	0.000000e+00	8.526316e-01	1.071816e+16	1.160831e+16	8.897574e+13	2.825947e+04	1.208975e+04	8.058943e+03	0	2.918862e-03
2.000000e+08	1.231534e+15	0.000000e+00	8.526316e-01	1.047059e+16	1.134601e+16	8.850102e+13	2.804766e+04	1.202811e+04	8.017857e+03	0	2.894961e-03
2.100000e+08	1.201858e+15	0.000000e+00	8.526316e-01	1.023163e+16	1.109164e+16	8.802980e+13	2.784071e+04	1.196740e+04	7.977384e+03	0	2.871519e-03
2.200000e+08	1.173210e+15	0.000000e+00	8.526316e-01	1.000087e+16	1.084523e+16	8.756205e+13	2.763845e+04	1.190767e+04	7.937568e+03	0	2.848519e-03
2.300000e+08	1.145539e+15	0.000000e+00	8.526316e-01	9.777928e+15	1.060670e+16	8.709772e+13	2.744073e+04	1.184895e+04	7.898426e+03	0	2.825947e-03
2.400000e+08	1.118803e+15	0.000000e+00	8.526316e-01	9.562442e+15	1.037584e+16	8.663680e+13	2.724738e+04	1.179125e+04	7.859963e+03	0	2.803788e-03
2.500000e+08	1.092958e+15	0.000000e+00	8.526316e-01	9.354085e+15	1.015241e+16	8.617925e+13	2.705827e+04	1.173456e+04	7.822174e+03	0	2.782030e-03
2.600000e+08	1.067967e+15	0.000000e+00	8.526316e-01	9.152545e+15	9.936151e+15	8.572505e+13	2.687325e+04	1.167886e+04	7.785049e+03	0	2.760662e-03
2.700000e+08	1.043793e+15	0.000000e+00	8.526316e-01	8.957530e+15	9.726803e+15	8.527418e+13	2.669220e+04	1.162415e+04	7.748576e+03	0	2.739673e-03
2.800000e+08	1.020400e+15	0.000000e+00	8.526316e-01	8.768762e+15	9.524092e+15	8.482659e+13	2.651498e+04	1.157039e+04	7.712741e+03	0	2.719052e-03
2.900000e+08	9.977556e+14	0.000000e+00	8.526316e-01	8.585981e+15	9.327761e+15	8.438227e+13	2.634147e+04	1.151756e+04	7.677529e+03	0	2.698788e-03
3.000000e+08	9.758290e+14	0.000000e+00	8.526316e-01	8.408938e+15	9.137553e+15	8.394120e+13	2.617155e+04	1.146565e+04	7.642924e+03	0	2.678872e-03
3.100000e+08	9.545903e+14	0.000000e+00	8.526316e-01	8.237397e+15	8.953228e+15	8.350333e+13	2.600512e+04	1.141463e+04	7.608912e+03	0	2.659294e-03
3.200000e+08	9.340116e+14	0.000000e+00	8.526316e-01	8.071135e+15	8.774544e+15	8.306865e+13	2.584206e+04	1.136447e+04	7.575476e+03	0	2.640046e-03
3.300000e+08	9.140662e+14	0.000000e+00	8.526316e-01	7.909940e+15	8.601289e+15	8.263713e+13	2.568228e+04	1.131515e+04	7.542603e+03	0	2.621118e-03
3.400000e+08	8.947287e+14	0.000000e+00	8.526316e-01	7.753610e+15	8.433232e+15	8.220875e+13	2.552566e+04	1.126666e+04	7.510278e+03	0	2.602502e-03
3.500000e+08	8.759751e+14	0.000000e+00	8.526316e-01	7.601953e+15	8.270177e+15	8.178347e+13	2.537213e+04	1.121897e+04	7.478487e+03	0	2.584191e-03
3.600000e+08	8.577823e+14	0.000000e+00	8.526316e-01	7.454785e+15	8.111939e+15	8.136128e+13	2.522158e+04	1.117206e+04	7.447217e+03	0	2.566175e-03
3.700000e+08	8.401285e+14	0.000000e+00	8.526316e-01	7.311934e+15	7.958314e+15	8.094214e+13	2.507392e+04	1.112591e+04	7.416453e+03	0	2.548449e-03
3.800000e+08	8.229930e+14	0.000000e+00	8.526316e-01	7.173233e+15	7.809141e+15	8.052604e+13	2.492909e+04	1.108050e+04	7.386184e+03	0	2.531003e-03
3.900000e+08	8.063559e+14	0.000000e+00	8.526316e-01	7.038524e+15	7.664242e+15	8.011294e+13	2.478698e+04	1.103581e+04	7.356396e+03	0	2.513832e-03
4.000000e+08	7.901983e+14	0.000000e+00	8.526316e-01	6.907656e+15	7.523459e+15	7.970283e+13	2.464753e+04	1.099183e+04	7.327079e+03	0	2.496928e-03
4.100000e+08	7.745022e+14	0.000000e+00	8.526316e-01	6.780487e+15	7.386639e+15	7.929568e+13	2.451065e+04	1.094854e+04	7.298220e+03	0	2.480285e-03
4.200000e+08	7.592504e+14	0.000000e+00	8.526316e-01	6.656878e+15	7.253628e+15	7.889146e+13	2.437628e+04	1.090592e+04	7.269809e+03	0	2.463896e-03
4.300000e+08	7.444265e+14	0.000000e+00	8.526316e-01	6.536699e+15	7.124301e+15	7.849015e+13	2.424435e+04	1.086395e+04	7.241833e+03	0	2.447755e-03
4.400000e+08	7.300148e+14	0.000000e+00	8.526316e-01	6.419825e+15	6.998511e+15	7.809173e+13	2.411479e+04	1.082262e+04	7.214284e+03	0	2.431856e-03
4.500000e+08	7.160004e+14	0.000000e+00	8.526316e-01	6.306136e+15	6.876134e+15	7.769617e+13	2.398753e+04	1.078192e+04	7.187150e+03	0	2.416194e-03
4.600000e+08	7.023689e+14	0.000000e+00	8.526316e-01	6.195519e+15	6.757052e+15	7.730345e+13	2.386251e+04	1.074182e+04	7.160423e+03	0	2.400762e-03
4.700000e+08	6.891066e+14	0.000000e+00	8.526316e-01	6.087863e+15	6.641141e+15	7.691355e+13	2.373968e+04	1.070232e+04	7.134091e+03	0	2.385555e-03
4.800000e+08	6.762005e+14	0.000000e+00	8.526316e-01	5.983066e+15	6.528296e+15	7.652644e+13	2.361896e+04	1.066340e+04	7.108147e+03	0	2.370568e-03
4.900000e+08	6.636380e+14	0.000000e+00	8.526316e-01	5.881026e+15	6.418408e+15	7.614210e+13	2.350032e+04	1.062504e+04	7.082580e+03	0	2.355796e-03
5.000000e+08	6.514073e+14	0.000000e+00	8.526316e-01	5.781648e+15	6.311370e+15	7.576051e+13	2.338369e+04	1.058724e+04	7.057384e+03	0	2.341234e-03
5.100000e+08	6.394968e+14	0.000000e+00	8.526316e-01	5.684842e+15	6.207088e+15	7.538165e+13	2.326902e+04	1.054999e+04	7.032548e+03	0	2.326877e-03
5.200000e+08	6.278955e+14	0.000000e+00	8.526316e-01	5.590518e+15	6.105468e+15	7.500549e+13	2.315625e+04	1.051326e+04	7.008065e+03	0	2.312720e-03
5.300000e+08	6.165929e+14	0.000000e+00	8.526316e-01	5.498594e+15	6.006426e+15	7.463201e+13	2.304535e+04	1.047705e+04	6.983927e+03	0	2.298759e-03
5.400000e+08	6.055790e+14	0.000000e+00	8.526316e-01	5.408988e+15	5.909862e+15	7.426120e+13	2.293627e+04	1.044134e+04	6.960126e+03	0	2.284990e-03
5.500000e+08	5.948440e+14	0.000000e+00	8.526316e-01	5.321623e+15	5.815706e+15	7.389302e+13	2.282895e+04	1.040613e+04	6.936655e+03	0	2.271407e-03
5.600000e+08	5.843788e+14	0.000000e+00	8.526316e-01	5.236426e+15	5.723870e+15	7.352746e+13	2.272336e+04	1.037140e+04	6.913507e+03	0	2.258008e-03
5.700000e+08	5.741744e+14	0.000000e+00	8.526316e-01	5.153325e+15	5.634285e+15	7.316450e+13	2.261945e+04	1.033715e+04	6.890674e+03	0	2.244788e-03
5.800000e+08	5.642223e+14	0.000000e+00	8.526316e-01	5.072252e+15	5.546873e+15	7.280411e+13	2.251718e+04	1.030336e+04	6.868150e+03	0	2.231742e-03
5.900000e+08	5.545143e+14	0.000000e+00	8.526316e-01	4.993142e+15	5.461569e+15	7.244627e+13	2.241652e+04	1.027003e+04	6.845929e+03	0	2.218868e-03
6.000000e+08	5.450425e+14	0.000000e+00	8.526316e-01	4.915932e+15	5.378300e+15	7.209097e+13	2.231741e+04	1.023713e+04	6.824003e+03	0	2.206162e-03
6.100000e+08	5.357994e+14	0.000000e+00	8.526316e-01	4.840562e+15	5.297006e+15	7.173818e+13	2.221983e+04	1.020468e+04	6.802366e+03	0	2.193620e-03
6.200000e+08	5.267778e+14	0.000000e+00	8.526316e-01	4.766973e+15	5.217626e+15	7.138789e+13	2.212374e+04	1.017264e+04	6.781013e+03	0	2.181238e-03
6.300000e+08	5.179706e+14	0.000000e+00	8.526316e-01	4.695109e+15	5.140093e+15	7.104007e+13	2.202911e+04	1.014103e+04	6.759938e+03	0	2.169014e-03
6.400000e+08	5.093712e+14	0.000000e+00	8.526316e-01	4.624918e+15	5.064355e+15	7.069470e+13	2.193589e+04	1.010982e+04	6.739134e+03	0	2.156944e-03
6.500000e+08	5.009731e+14	0.000000e+00	8.526316e-01	4.556347e+15	4.990354e+15	7.035176e+13	2.184406e+04	1.007901e+04	6.718597e+03	0	2.145024e-03
6.600000e+08	4.927701e+14	0.000000e+00	8.526316e-01	4.489348e+15	4.918040e+15	7.001124e+13	2.175359e+04	1.004859e+04	6.698320e+03	0	2.133252e-03
6.700000e+08	4.847563e+14	0.000000e+00	8.526316e-01	4.423872e+15	4.847361e+15	6.967311e+13	2.166444e+04	1.001855e+04	6.678299e+03	0	2.121624e-03
6.800000e+08	4.769259e+14	0.000000e+00	8.526316e-01	4.359873e+15	4.778267e+15	6.933736e+13	2.157659e+04	9.988895e+03	6.658529e+03	0	2.110138e-03
6.900000e+08	4.692734e+14	0.000000e+00	8.526316e-01	4.297307e+15	4.710711e+15	6.900396e+13	2.149000e+04	9.959604e+03	6.639003e+03	0	2.098792e-03
7.000000e+08	4.617935e+14	0.000000e+00	8.526316e-01	4.236131e+15	4.644647e+15	6.867289e+13	2.140464e+04	9.930674e+03	6.619719e+03	0	2.087581e-03
7.100000e+08	4.544810e+14	0.000000e+00	8.526316e-01	4.176305e+15	4.580033e+15	6.834415e+13	2.132050e+04	9.902098e+03	6.600670e+03	0	2.076503e-03
7.200000e+08	4.473310e+14	0.000000e+00	8.526316e-01	4.117789e+15	4.516824e+15	6.801771e+13	2.123754e+04	9.873868e+03	6.581853e+03	0	2.065556e-03
7.300000e+08	4.403387e+14	0.000000e+00	8.526316e-01	4.060545e+15	4.454981e+15	6.769354e+13	2.115574e+04	9.845979e+03	6.563262e+03	0	2.054737e-03
7.400000e+08	4.334996e+14	0.000000e+00	8.526316e-01	4.004536e+15	4.394466e+15	6.737164e+13	2.107507e+04	9.818424e+03	6.544893e+03	0	2.044044e-03
7.500000e+08	4.268092e+14	0.000000e+00	8.526316e-01	3.949727e+15	4.335236e+15	6.705198e+13	2.099551e+04	9.791195e+03	6.526743e+03	0	2.033474e-03
7.600000e+08	4.202633e+14	0.000000e+00	8.526316e-01	3.896083e+15	4.277258e+15	6.673455e+13	2.091703e+04	9.764288e+03	6.508807e+03	0	2.023025e-03
7.700000e+08	4.138578e+14	0.000000e+00	8.526316e-01	3.843572e+15	4.220497e+15	6.641933e+13	2.083961e+04	9.737696e+03	6.491081e+03	0	2.012694e-03
7.800000e+08	4.075886e+14	0.000000e+00	8.526316e-01	3.792161e+15	4.164917e+15	6.610630e+13	2.076324e+04	9.711413e+03	6.473561e+03	0	2.002479e-03
7.900000e+08	4.014520e+14	0.000000e+00	8.526316e-01	3.741820e+15	4.110487e+15	6.579544e+13	2.068788e+04	9.685433e+03	6.456243e+03	0	1.992379e-03
8.000000e+08	3.954443e+14	0.000000e+00	8.526316e-01	3.692520e+15	4.057174e+15	6.548674e+13	2.061351e+04	9.659751e+03	6.439123e+03	0	1.982390e-03
8.100000e+08	3.895618e+14	0.000000e+00	8.526316e-01	3.644231e+15	4.004948e+15	6.518018e+13	2.054012e+04	9.634361e+03	6.422198e+03	0	1.972511e-03
8.200000e+08	3.838011e+14	0.000000e+00	8.526316e-01	3.596927e+15	3.953780e+15	6.487574e+13	2.046769e+04	9.609258e+03	6.405465e+03	0	1.962740e-03
8.300000e+08	3.781590e+14	0.000000e+00	8.526316e-01	3.550579e+15	3.903640e+15	6.457341e+13	2.039620e+04	9.584437e+03	6.388919e+03	0	1.953074e-03
8.400000e+08	3.726321e+14	0.000000e+00	8.526316e-01	3.505164e+15	3.854501e+15	6.427316e+13	2.032562e+04	9.559892e+03	6.372558e+03	0	1.943513e-03
8.500000e+08	3.672174e+14	0.000000e+00	8.526316e-01	3.460654e+15	3.806336e+15	6.397498e+13	2.025594e+04	9.535619e+03	6.356378e+03	0	1.934053e-03
8.600000e+08	3.619118e+14	0.000000e+00	8.526316e-01	3.417027e+15	3.759120e+15	6.367886e+13	2.018714e+04	9.511613e+03	6.340376e+03	0	1.924693e-03
8.700000e+08	3.567125e+14	0.000000e+00	8.526316e-01	3.374259e+15	3.712826e+15	6.338478e+13	2.011921e+04	9.487869e+03	6.324548e+03	0	1.915432e-03
8.800000e+08	3.516166e+14	0.000000e+00	8.526316e-01	3.332328e+15	3.667431e+15	6.309272e+13	2.005212e+04	9.464383e+03	6.308892e+03	0	1.906267e-03
8.900000e+08	3.466215e+14	0.000000e+00	8.526316e-01	3.291211e+15	3.622913e+15	6.280267e+13	1.998586e+04	9.441149e+03	6.293405e+03	0	1.897197e-03
9.000000e+08	3.417244e+14	0.000000e+00	8.526316e-01	3.250888e+15	3.579248e+15	6.251461e+13	1.992042e+04	9.418165e+03	6.278083e+03	0	1.888220e-03
9.100000e+08	3.369228e+14	0.000000e+00	8.526316e-01	3.211337e+15	3.536414e+15	6.222852e+13	1.985578e+04	9.395424e+03	6.262925e+03	0	1.879335e-03
9.200000e+08	3.322144e+14	0.000000e+00	8.526316e-01	3.172540e+15	3.494388e+15	6.194440e+13	1.979192e+04	9.372924e+03	6.247926e+03	0	1.870539e-03
9.300000e+08	3.275966e+14	0.000000e+00	8.526316e-01	3.134477e+15	3.453153e+15	6.166221e+13	1.972883e+04	9.350660e+03	6.233085e+03	0	1.861832e-03
9.400000e+08	3.230671e+14	0.000000e+00	8.526316e-01	3.097129e+15	3.412687e+15	6.138196e+13	1.966649e+04	9.328628e+03	6.218399e+03	0	1.853211e-03
9.500000e+08	3.186238e+14	0.000000e+00	8.526316e-01	3.060479e+15	3.372972e+15	6.110362e+13	1.960489e+04	9.306824e+03	6.203865e+03	0	1.844676e-03
9.600000e+08	3.142645e+14	0.000000e+00	8.526316e-01	3.024509e+15	3.333988e+15	6.082717e+13	1.954402e+04	9.285245e+03	6.189480e+03	0	1.836224e-03
9.700000e+08	3.099870e+14	0.000000e+00	8.526316e-01	2.989202e+15	3.295718e+15	6.055261e+13	1.948386e+04	9.263886e+03	6.175243e+03	0	1.827855e-03
9.800000e+08	3.057893e+14	0.000000e+00	8.526316e-01	2.954542e+15	3.258142e+15	6.027992e+13	1.942440e+04	9.242745e+03	6.161150e+03	0	1.819567e-03
9.900000e+08	3.016695e+14	0.000000e+00	8.526316e-01	2.920513e+15	3.221247e+15	6.000908e+13	1.936563e+04	9.221816e+03	6.147199e+03	0	1.811359e-03
1.000000e+09	2.976256e+14	0.000000e+00	8.526316e-01	2.887100e+15	3.185014e+15	5.974007e+13	1.930753e+04	9.201098e+03	6.133388e+03	0	1.803228e-03
1.010000e+09	2.936558e+14	0.000000e+00	8.526316e-01	2.854287e+15	3.149426e+15	5.947290e+13	1.925010e+04	9.180586e+03	6.119715e+03	0	1.795175e-03
1.020000e+09	2.897583e+14	0.000000e+00	8.526316e-01	2.822060e+15	3.114470e+15	5.920753e+13	1.919331e+04	9.160278e+03	6.106178e+03	0	1.787198e-03
1.030000e+09	2.859313e+14	0.000000e+00	8.526316e-01	2.790406e+15	3.080128e+15	5.894396e+13	1.913717e+04	9.140169e+03	6.092774e+03	0	1.779295e-03
1.040000e+09	2.821732e+14	0.000000e+00	8.526316e-01	2.759310e+15	3.046390e+15	5.868217e+13	1.908165e+04	9.120258e+03	6.079501e+03	0	1.771465e-03
1.050000e+09	2.784823e+14	0.000000e+00	8.526316e-01	2.728760e+15	3.013237e+15	5.842215e+13	1.902675e+04	9.100540e+03	6.066357e+03	0	1.763707e-03
1.060000e+09	2.748570e+14	0.000000e+00	8.526316e-01	2.698742e+15	2.980658e+15	5.816388e+13	1.897245e+04	9.081012e+03	6.053340e+03	0	1.756020e-03
1.070000e+09	2.712957e+14	0.000000e+00	8.526316e-01	2.669244e+15	2.948641e+15	5.790735e+13	1.891875e+04	9.061672e+03	6.040448e+03	0	1.748403e-03
1.080000e+09	2.677970e+14	0.000000e+00	8.526316e-01	2.640254e+15	2.917168e+15	5.765255e+13	1.886563e+04	9.042517e+03	6.027679e+03	0	1.740855e-03
1.090000e+09	2.643594e+14	0.000000e+00	8.526316e-01	2.611760e+15	2.886230e+15	5.739946e+13	1.881309e+04	9.023544e+03	6.015032e+03	0	1.733374e-03
1.100000e+09	2.609815e+14	0.000000e+00	8.526316e-01	2.583751e+15	2.855815e+15	5.714807e+13	1.876111e+04	9.004750e+03	6.002504e+03	0	1.725959e-03
1.110000e+09	2.576619e+14	0.000000e+00	8.526316e-01	2.556216e+15	2.825910e+15	5.689836e+13	1.870969e+04	8.986132e+03	5.990093e+03	0	1.718610e-03
1.120000e+09	2.543993e+14	0.000000e+00	8.526316e-01	2.529144e+15	2.796505e+15	5.665033e+13	1.865882e+04	8.967687e+03	5.977799e+03	0	1.711326e-03
1.130000e+09	2.511924e+14	0.000000e+00	8.526316e-01	2.502525e+15	2.767586e+15	5.640396e+13	1.860848e+04	8.949414e+03	5.965618e+03	0	1.704104e-03
1.140000e+09	2.480398e+14	0.000000e+00	8.526316e-01	2.476348e+15	2.739144e+15	5.615924e+13	1.855867e+04	8.931309e+03	5.953549e+03	0	1.696945e-03
1.150000e+09	2.449405e+14	0.000000e+00	8.526316e-01	2.450603e+15	2.711167e+15	5.591615e+13	1.850938e+04	8.913370e+03	5.941591e+03	0	1.689847e-03
1.160000e+09	2.418931e+14	0.000000e+00	8.526316e-01	2.425281e+15	2.683647e+15	5.567468e+13	1.846060e+04	8.895595e+03	5.929742e+03	0	1.682810e-03
1.170000e+09	2.388966e+14	0.000000e+00	8.526316e-01	2.400373e+15	2.656574e+15	5.543482e+13	1.841233e+04	8.877980e+03	5.918000e+03	0	1.675833e-03
1.180000e+09	2.359499e+14	0.000000e+00	8.526316e-01	2.375870e+15	2.629934e+15	5.519655e+13	1.836454e+04	8.860524e+03	5.906364e+03	0	1.668914e-03
1.190000e+09	2.330517e+14	0.000000e+00	8.526316e-01	2.351762e+15	2.603722e+15	5.495987e+13	1.831725e+04	8.843225e+03	5.894832e+03	0	1.662052e-03
1.200000e+09	2.302011e+14	0.000000e+00	8.526316e-01	2.328041e+15	2.577927e+15	5.472476e+13	1.827043e+04	8.826079e+03	5.883403e+03	0	1.655248e-03
1.210000e+09	2.273969e+14	0.000000e+00	8.526316e-01	2.304699e+15	2.552541e+15	5.449121e+13	1.822408e+04	8.809085e+03	5.872075e+03	0	1.648500e-03
1.220000e+09	2.246383e+14	0.000000e+00	8.526316e-01	2.281727e+15	2.527555e+15	5.425921e+13	1.817819e+04	8.792241e+03	5.860847e+03	0	1.641806e-03
1.230000e+09	2.219243e+14	0.000000e+00	8.526316e-01	2.259118e+15	2.502959e+15	5.402874e+13	1.813277e+04	8.775544e+03	5.849717e+03	0	1.635167e-03
1.240000e+09	2.192537e+14	0.000000e+00	8.526316e-01	2.236864e+15	2.478747e+15	5.379980e+13	1.808779e+04	8.758993e+03	5.838684e+03	0	1.628582e-03
1.250000e+09	2.166259e+14	0.000000e+00	8.526316e-01	2.214958e+15	2.454908e+15	5.357237e+13	1.804325e+04	8.742585e+03	5.827746e+03	0	1.622049e-03
1.260000e+09	2.140397e+14	0.000000e+00	8.526316e-01	2.193391e+15	2.431437e+15	5.334643e+13	1.799914e+04	8.726318e+03	5.816903e+03	0	1.615569e-03
1.270000e+09	2.114944e+14	0.000000e+00	8.526316e-01	2.172158e+15	2.408325e+15	5.312199e+13	1.795547e+04	8.710190e+03	5.806153e+03	0	1.609139e-03
1.280000e+09	2.089891e+14	0.000000e+00	8.526316e-01	2.151251e+15	2.385564e+15	5.289902e+13	1.791222e+04	8.694200e+03	5.795494e+03	0	1.602760e-03
1.290000e+09	2.065230e+14	0.000000e+00	8.526316e-01	2.130663e+15	2.363149e+15	5.267752e+13	1.786938e+04	8.678345e+03	5.784925e+03	0	1.596431e-03
1.300000e+09	2.040952e+14	0.000000e+00	8.526316e-01	2.110388e+15	2.341071e+15	5.245747e+13	1.782695e+04	8.662624e+03	5.774445e+03	0	1.590151e-03
1.310000e+09	2.017050e+14	0.000000e+00	8.526316e-01	2.090419e+15	2.319324e+15	5.223886e+13	1.778492e+04	8.647034e+03	5.764053e+03	0	1.583919e-03
1.320000e+09	1.993515e+14	0.000000e+00	8.526316e-01	2.070750e+15	2.297900e+15	5.202168e+13	1.774329e+04	8.631575e+03	5.753748e+03	0	1.577734e-03
1.330000e+09	1.970341e+14	0.000000e+00	8.526316e-01	2.051376e+15	2.276794e+15	5.180593e+13	1.770205e+04	8.616243e+03	5.743528e+03	0	1.571597e-03
1.340000e+09	1.947519e+14	0.000000e+00	8.526316e-01	2.032289e+15	2.255998e+15	5.159158e+13	1.766119e+04	8.601038e+03	5.733393e+03	0	1.565505e-03
1.350000e+09	1.925043e+14	0.000000e+00	8.526316e-01	2.013485e+15	2.235510e+15	5.137864e+13	1.762071e+04	8.585958e+03	5.723340e+03	0	1.559460e-03
1.360000e+09	1.902907e+14	0.000000e+00	8.526316e-01	1.994958e+15	2.215317e+15	5.116708e+13	1.758061e+04	8.571001e+03	5.713370e+03	0	1.553459e-03
