#t		Qconv[W]	Ri[Rp]		R*[Rp]		Qc[W]		Qm[W]		Qr[W]		Tcmb[K]		Tl[K]		Tup[K]		RiFlag		Bs[T]
0.000000e+00	2.418160e+15	0.000000e+00	8.526317e-01	1.957288e+16	2.866798e+13	1.070405e+14	3.500515e+04	4.439885e+03	2.944204e+03	0	3.617187e-03
1.000000e+07	2.438909e+15	0.000000e+00	8.526317e-01	1.971866e+16	2.771486e+14	1.064474e+14	3.466384e+04	6.125263e+03	4.061821e+03	0	3.627503e-03
2.000000e+07	2.414679e+15	0.000000e+00	8.526317e-01	1.952277e+16	1.154201e+15	1.058587e+14	3.431993e+04	7.777940e+03	5.157755e+03	0	3.615450e-03
3.000000e+07	2.351685e+15	0.000000e+00	8.526317e-01	1.903263e+16	2.997580e+15	1.052745e+14	3.397933e+04	9.297885e+03	6.165670e+03	0	3.583733e-03
4.000000e+07	2.264315e+15	0.000000e+00	8.526317e-01	1.835768e+16	5.685819e+15	1.046946e+14	3.364719e+04	1.057785e+04	7.014448e+03	0	3.538790e-03
5.000000e+07	2.169719e+15	0.000000e+00	8.526317e-01	1.762825e+16	8.624415e+15	1.041190e+14	3.332672e+04	1.155258e+04	7.660818e+03	0	3.488808e-03
6.000000e+07	2.080337e+15	0.000000e+00	8.526317e-01	1.693886e+16	1.117499e+16	1.035478e+14	3.301890e+04	1.222457e+04	8.106430e+03	0	3.440227e-03
7.000000e+07	2.001243e+15	0.000000e+00	8.526317e-01	1.632800e+16	1.301933e+16	1.029808e+14	3.272304e+04	1.264692e+04	8.386499e+03	0	3.396064e-03
8.000000e+07	1.932401e+15	0.000000e+00	8.526317e-01	1.579537e+16	1.416345e+16	1.024180e+14	3.243777e+04	1.288860e+04	8.546764e+03	0	3.356667e-03
9.000000e+07	1.871803e+15	0.000000e+00	8.526317e-01	1.532565e+16	1.476498e+16	1.018593e+14	3.216176e+04	1.301033e+04	8.627489e+03	0	3.321207e-03
1.000000e+08	1.817305e+15	0.000000e+00	8.526317e-01	1.490255e+16	1.499821e+16	1.013049e+14	3.189390e+04	1.305662e+04	8.658184e+03	0	3.288656e-03
1.100000e+08	1.767248e+15	0.000000e+00	8.526317e-01	1.451342e+16	1.500010e+16	1.007545e+14	3.163338e+04	1.305699e+04	8.658431e+03	0	3.258180e-03
1.200000e+08	1.720498e+15	0.000000e+00	8.526317e-01	1.414963e+16	1.486388e+16	1.002083e+14	3.137963e+04	1.303002e+04	8.640547e+03	0	3.229192e-03
1.300000e+08	1.676317e+15	0.000000e+00	8.526317e-01	1.380558e+16	1.464865e+16	9.966602e+13	3.113220e+04	1.298706e+04	8.612056e+03	0	3.201312e-03
1.400000e+08	1.634235e+15	0.000000e+00	8.526317e-01	1.347767e+16	1.439039e+16	9.912781e+13	3.089074e+04	1.293493e+04	8.577491e+03	0	3.174296e-03
1.500000e+08	1.593942e+15	0.000000e+00	8.526317e-01	1.316354e+16	1.411066e+16	9.859357e+13	3.065498e+04	1.287775e+04	8.539569e+03	0	3.147991e-03
1.600000e+08	1.555233e+15	0.000000e+00	8.526317e-01	1.286163e+16	1.382214e+16	9.806328e+13	3.042468e+04	1.281795e+04	8.499913e+03	0	3.122298e-03
1.700000e+08	1.517962e+15	0.000000e+00	8.526317e-01	1.257082e+16	1.353227e+16	9.753690e+13	3.019963e+04	1.275700e+04	8.459496e+03	0	3.097155e-03
1.800000e+08	1.482021e+15	0.000000e+00	8.526317e-01	1.229029e+16	1.324531e+16	9.701440e+13	2.997963e+04	1.269577e+04	8.418897e+03	0	3.072515e-03
1.900000e+08	1.447325e+15	0.000000e+00	8.526317e-01	1.201938e+16	1.296370e+16	9.649575e+13	2.976451e+04	1.263480e+04	8.378464e+03	0	3.048348e-03
2.000000e+08	1.413804e+15	0.000000e+00	8.526317e-01	1.175756e+16	1.268875e+16	9.598092e+13	2.955411e+04	1.257438e+04	8.338401e+03	0	3.024631e-03
2.100000e+08	1.381399e+15	0.000000e+00	8.526317e-01	1.150436e+16	1.242111e+16	9.546988e+13	2.934826e+04	1.251471e+04	8.298827e+03	0	3.001343e-03
2.200000e+08	1.350056e+15	0.000000e+00	8.526317e-01	1.125938e+16	1.216105e+16	9.496258e+13	2.914681e+04	1.245587e+04	8.259811e+03	0	2.978469e-03
2.300000e+08	1.319727e+15	0.000000e+00	8.526317e-01	1.102225e+16	1.190864e+16	9.445901e+13	2.894963e+04	1.239793e+04	8.221388e+03	0	2.955996e-03
2.400000e+08	1.290367e+15	0.000000e+00	8.526317e-01	1.079263e+16	1.166376e+16	9.395913e+13	2.875658e+04	1.234090e+04	8.183573e+03	0	2.933911e-03
2.500000e+08	1.261935e+15	0.000000e+00	8.526317e-01	1.057019e+16	1.142625e+16	9.346292e+13	2.856753e+04	1.228480e+04	8.146370e+03	0	2.912203e-03
2.600000e+08	1.234393e+15	0.000000e+00	8.526317e-01	1.035464e+16	1.119589e+16	9.297033e+13	2.838234e+04	1.222962e+04	8.109778e+03	0	2.890860e-03
2.700000e+08	1.207704e+15	0.000000e+00	8.526317e-01	1.014569e+16	1.097246e+16	9.248135e+13	2.820092e+04	1.217534e+04	8.073787e+03	0	2.869873e-03
2.800000e+08	1.181833e+15	0.000000e+00	8.526317e-01	9.943090e+15	1.075573e+16	9.199593e+13	2.802313e+04	1.212196e+04	8.038387e+03	0	2.849233e-03
2.900000e+08	1.156748e+15	0.000000e+00	8.526317e-01	9.746575e+15	1.054543e+16	9.151406e+13	2.784887e+04	1.206945e+04	8.003567e+03	0	2.828930e-03
3.000000e+08	1.132418e+15	0.000000e+00	8.526317e-01	9.555909e+15	1.034134e+16	9.103571e+13	2.767804e+04	1.201780e+04	7.969315e+03	0	2.808955e-03
3.100000e+08	1.108812e+15	0.000000e+00	8.526317e-01	9.370864e+15	1.014323e+16	9.056083e+13	2.751053e+04	1.196698e+04	7.935616e+03	0	2.789300e-03
3.200000e+08	1.085904e+15	0.000000e+00	8.526317e-01	9.191223e+15	9.950870e+15	9.008942e+13	2.734624e+04	1.191698e+04	7.902459e+03	0	2.769957e-03
3.300000e+08	1.063666e+15	0.000000e+00	8.526317e-01	9.016780e+15	9.764048e+15	8.962143e+13	2.718509e+04	1.186777e+04	7.869830e+03	0	2.750918e-03
3.400000e+08	1.042072e+15	0.000000e+00	8.526317e-01	8.847338e+15	9.582566e+15	8.915684e+13	2.702698e+04	1.181935e+04	7.837717e+03	0	2.732175e-03
3.500000e+08	1.021099e+15	0.000000e+00	8.526317e-01	8.682710e+15	9.406212e+15	8.869562e+13	2.687182e+04	1.177168e+04	7.806107e+03	0	2.713721e-03
3.600000e+08	1.000724e+15	0.000000e+00	8.526317e-01	8.522717e+15	9.234793e+15	8.823774e+13	2.671953e+04	1.172475e+04	7.774988e+03	0	2.695549e-03
3.700000e+08	9.809232e+14	0.000000e+00	8.526317e-01	8.367188e+15	9.068147e+15	8.778318e+13	2.657004e+04	1.167855e+04	7.744348e+03	0	2.677653e-03
3.800000e+08	9.616766e+14	0.000000e+00	8.526317e-01	8.215959e+15	8.906089e+15	8.733191e+13	2.642326e+04	1.163305e+04	7.714177e+03	0	2.660024e-03
3.900000e+08	9.429638e+14	0.000000e+00	8.526317e-01	8.068875e+15	8.748460e+15	8.688390e+13	2.627912e+04	1.158824e+04	7.684462e+03	0	2.642658e-03
4.000000e+08	9.247656e+14	0.000000e+00	8.526317e-01	7.925788e+15	8.595092e+15	8.643912e+13	2.613754e+04	1.154410e+04	7.655194e+03	0	2.625547e-03
4.100000e+08	9.070634e+14	0.000000e+00	8.526317e-01	7.786554e+15	8.445834e+15	8.599756e+13	2.599846e+04	1.150062e+04	7.626361e+03	0	2.608686e-03
4.200000e+08	8.898398e+14	0.000000e+00	8.526317e-01	7.651037e+15	8.300554e+15	8.555918e+13	2.586182e+04	1.145778e+04	7.597953e+03	0	2.592069e-03
4.300000e+08	8.730777e+14	0.000000e+00	8.526317e-01	7.519108e+15	8.159094e+15	8.512395e+13	2.572753e+04	1.141557e+04	7.569962e+03	0	2.575690e-03
4.400000e+08	8.567612e+14	0.000000e+00	8.526317e-01	7.390641e+15	8.021341e+15	8.469185e+13	2.559556e+04	1.137397e+04	7.542376e+03	0	2.559543e-03
4.500000e+08	8.408746e+14	0.000000e+00	8.526317e-01	7.265518e+15	7.887154e+15	8.426286e+13	2.546582e+04	1.133297e+04	7.515188e+03	0	2.543624e-03
4.600000e+08	8.254034e+14	0.000000e+00	8.526317e-01	7.143623e+15	7.756410e+15	8.383695e+13	2.533827e+04	1.129256e+04	7.488387e+03	0	2.527928e-03
4.700000e+08	8.103331e+14	0.000000e+00	8.526317e-01	7.024847e+15	7.629007e+15	8.341410e+13	2.521285e+04	1.125271e+04	7.461966e+03	0	2.512448e-03
4.800000e+08	7.956504e+14	0.000000e+00	8.526317e-01	6.909086e+15	7.504814e+15	8.299427e+13	2.508951e+04	1.121343e+04	7.435916e+03	0	2.497181e-03
4.900000e+08	7.813422e+14	0.000000e+00	8.526317e-01	6.796238e+15	7.383735e+15	8.257745e+13	2.496818e+04	1.117469e+04	7.410228e+03	0	2.482121e-03
5.000000e+08	7.673959e+14	0.000000e+00	8.526317e-01	6.686207e+15	7.265669e+15	8.216361e+13	2.484883e+04	1.113649e+04	7.384895e+03	0	2.467265e-03
5.100000e+08	7.537996e+14	0.000000e+00	8.526317e-01	6.578901e+15	7.150509e+15	8.175273e+13	2.473140e+04	1.109881e+04	7.359909e+03	0	2.452606e-03
5.200000e+08	7.405419e+14	0.000000e+00	8.526317e-01	6.474230e+15	7.038166e+15	8.134478e+13	2.461585e+04	1.106164e+04	7.335263e+03	0	2.438143e-03
5.300000e+08	7.276116e+14	0.000000e+00	8.526317e-01	6.372110e+15	6.928550e+15	8.093974e+13	2.450213e+04	1.102498e+04	7.310949e+03	0	2.423869e-03
5.400000e+08	7.149983e+14	0.000000e+00	8.526317e-01	6.272457e+15	6.821563e+15	8.053758e+13	2.439019e+04	1.098880e+04	7.286960e+03	0	2.409781e-03
5.500000e+08	7.026917e+14	0.000000e+00	8.526317e-01	6.175195e+15	6.717134e+15	8.013828e+13	2.428000e+04	1.095310e+04	7.263289e+03	0	2.395875e-03
5.600000e+08	6.906821e+14	0.000000e+00	8.526317e-01	6.080246e+15	6.615180e+15	7.974183e+13	2.417150e+04	1.091788e+04	7.239930e+03	0	2.382147e-03
5.700000e+08	6.789601e+14	0.000000e+00	8.526317e-01	5.987538e+15	6.515617e+15	7.934819e+13	2.406467e+04	1.088311e+04	7.216876e+03	0	2.368594e-03
5.800000e+08	6.675166e+14	0.000000e+00	8.526317e-01	5.897002e+15	6.418374e+15	7.895734e+13	2.395946e+04	1.084880e+04	7.194121e+03	0	2.355212e-03
5.900000e+08	6.563430e+14	0.000000e+00	8.526317e-01	5.808570e+15	6.323382e+15	7.856926e+13	2.385583e+04	1.081493e+04	7.171659e+03	0	2.341996e-03
6.000000e+08	6.454309e+14	0.000000e+00	8.526317e-01	5.722177e+15	6.230569e+15	7.818393e+13	2.375374e+04	1.078148e+04	7.149483e+03	0	2.328945e-03
6.100000e+08	6.347724e+14	0.000000e+00	8.526317e-01	5.637762e+15	6.139869e+15	7.780133e+13	2.365317e+04	1.074847e+04	7.127589e+03	0	2.316053e-03
6.200000e+08	6.243596e+14	0.000000e+00	8.526317e-01	5.555265e+15	6.051214e+15	7.742143e+13	2.355408e+04	1.071587e+04	7.105970e+03	0	2.303319e-03
6.300000e+08	6.141852e+14	0.000000e+00	8.526317e-01	5.474627e+15	5.964553e+15	7.704421e+13	2.345643e+04	1.068367e+04	7.084620e+03	0	2.290739e-03
6.400000e+08	6.042419e+14	0.000000e+00	8.526317e-01	5.395793e+15	5.879821e+15	7.666965e+13	2.336019e+04	1.065187e+04	7.063535e+03	0	2.278310e-03
6.500000e+08	5.945230e+14	0.000000e+00	8.526317e-01	5.318711e+15	5.796958e+15	7.629773e+13	2.326533e+04	1.062047e+04	7.042709e+03	0	2.266029e-03
6.600000e+08	5.850217e+14	0.000000e+00	8.526317e-01	5.243327e+15	5.715911e+15	7.592842e+13	2.317182e+04	1.058945e+04	7.022138e+03	0	2.253893e-03
6.700000e+08	5.757316e+14	0.000000e+00	8.526317e-01	5.169594e+15	5.636631e+15	7.556172e+13	2.307963e+04	1.055880e+04	7.001816e+03	0	2.241898e-03
6.800000e+08	5.666466e+14	0.000000e+00	8.526317e-01	5.097462e+15	5.559061e+15	7.519758e+13	2.298873e+04	1.052852e+04	6.981738e+03	0	2.230043e-03
6.900000e+08	5.577607e+14	0.000000e+00	8.526317e-01	5.026886e+15	5.483154e+15	7.483601e+13	2.289909e+04	1.049861e+04	6.961900e+03	0	2.218325e-03
7.000000e+08	5.490682e+14	0.000000e+00	8.526317e-01	4.957821e+15	5.408865e+15	7.447697e+13	2.281069e+04	1.046905e+04	6.942297e+03	0	2.206741e-03
7.100000e+08	5.405635e+14	0.000000e+00	8.526317e-01	4.890225e+15	5.336145e+15	7.412044e+13	2.272350e+04	1.043983e+04	6.922926e+03	0	2.195288e-03
7.200000e+08	5.322414e+14	0.000000e+00	8.526317e-01	4.824055e+15	5.264955e+15	7.376640e+13	2.263749e+04	1.041096e+04	6.903780e+03	0	2.183964e-03
7.300000e+08	5.240966e+14	0.000000e+00	8.526317e-01	4.759273e+15	5.195245e+15	7.341484e+13	2.255265e+04	1.038243e+04	6.884857e+03	0	2.172766e-03
7.400000e+08	5.161241e+14	0.000000e+00	8.526317e-01	4.695838e+15	5.126977e+15	7.306573e+13	2.246893e+04	1.035422e+04	6.866152e+03	0	2.161693e-03
7.500000e+08	5.083193e+14	0.000000e+00	8.526317e-01	4.633715e+15	5.060113e+15	7.271906e+13	2.238633e+04	1.032633e+04	6.847661e+03	0	2.150741e-03
7.600000e+08	5.006774e+14	0.000000e+00	8.526317e-01	4.572866e+15	4.994612e+15	7.237480e+13	2.230481e+04	1.029877e+04	6.829380e+03	0	2.139909e-03
7.700000e+08	4.931940e+14	0.000000e+00	8.526317e-01	4.513258e+15	4.930435e+15	7.203294e+13	2.222437e+04	1.027151e+04	6.811306e+03	0	2.129194e-03
7.800000e+08	4.858647e+14	0.000000e+00	8.526317e-01	4.454856e+15	4.867553e+15	7.169345e+13	2.214496e+04	1.024456e+04	6.793434e+03	0	2.118594e-03
7.900000e+08	4.786853e+14	0.000000e+00	8.526317e-01	4.397628e+15	4.805926e+15	7.135632e+13	2.206658e+04	1.021791e+04	6.775761e+03	0	2.108107e-03
8.000000e+08	4.716519e+14	0.000000e+00	8.526317e-01	4.341543e+15	4.745522e+15	7.102153e+13	2.198920e+04	1.019155e+04	6.758284e+03	0	2.097731e-03
8.100000e+08	4.647605e+14	0.000000e+00	8.526317e-01	4.286571e+15	4.686311e+15	7.068906e+13	2.191281e+04	1.016549e+04	6.740999e+03	0	2.087464e-03
8.200000e+08	4.580073e+14	0.000000e+00	8.526317e-01	4.232681e+15	4.628255e+15	7.035889e+13	2.183738e+04	1.013970e+04	6.723902e+03	0	2.077304e-03
8.300000e+08	4.513886e+14	0.000000e+00	8.526317e-01	4.179846e+15	4.571333e+15	7.003100e+13	2.176289e+04	1.011420e+04	6.706991e+03	0	2.067249e-03
8.400000e+08	4.449010e+14	0.000000e+00	8.526317e-01	4.128038e+15	4.515507e+15	6.970538e+13	2.168933e+04	1.008897e+04	6.690261e+03	0	2.057297e-03
8.500000e+08	4.385410e+14	0.000000e+00	8.526317e-01	4.077230e+15	4.460749e+15	6.938200e+13	2.161668e+04	1.006402e+04	6.673711e+03	0	2.047447e-03
8.600000e+08	4.323053e+14	0.000000e+00	8.526317e-01	4.027397e+15	4.407039e+15	6.906085e+13	2.154492e+04	1.003932e+04	6.657337e+03	0	2.037696e-03
8.700000e+08	4.261907e+14	0.000000e+00	8.526317e-01	3.978514e+15	4.354345e+15	6.874192e+13	2.147403e+04	1.001489e+04	6.641135e+03	0	2.028043e-03
8.800000e+08	4.201941e+14	0.000000e+00	8.526317e-01	3.930556e+15	4.302642e+15	6.842517e+13	2.140400e+04	9.990716e+03	6.625104e+03	0	2.018487e-03
8.900000e+08	4.143125e+14	0.000000e+00	8.526317e-01	3.883501e+15	4.251907e+15	6.811061e+13	2.133481e+04	9.966792e+03	6.609239e+03	0	2.009025e-03
9.000000e+08	4.085429e+14	0.000000e+00	8.526317e-01	3.837325e+15	4.202111e+15	6.779820e+13	2.126644e+04	9.943116e+03	6.593539e+03	0	1.999655e-03
9.100000e+08	4.028826e+14	0.000000e+00	8.526317e-01	3.792007e+15	4.153234e+15	6.748793e+13	2.119889e+04	9.919684e+03	6.578001e+03	0	1.990377e-03
9.200000e+08	3.973289e+14	0.000000e+00	8.526317e-01	3.747525e+15	4.105256e+15	6.717979e+13	2.113213e+04	9.896491e+03	6.562621e+03	0	1.981189e-03
9.300000e+08	3.918790e+14	0.000000e+00	8.526317e-01	3.703859e+15	4.058148e+15	6.687376e+13	2.106615e+04	9.873534e+03	6.547398e+03	0	1.972089e-03
9.400000e+08	3.865304e+14	0.000000e+00	8.526317e-01	3.660989e+15	4.011893e+15	6.656982e+13	2.100094e+04	9.850809e+03	6.532328e+03	0	1.963076e-03
9.500000e+08	3.812806e+14	0.000000e+00	8.526317e-01	3.618895e+15	3.966472e+15	6.626795e+13	2.093647e+04	9.828312e+03	6.517410e+03	0	1.954148e-03
9.600000e+08	3.761272e+14	0.000000e+00	8.526317e-01	3.577559e+15	3.921862e+15	6.596814e+13	2.087275e+04	9.806039e+03	6.502640e+03	0	1.945304e-03
9.700000e+08	3.710679e+14	0.000000e+00	8.526317e-01	3.536963e+15	3.878046e+15	6.567037e+13	2.080975e+04	9.783987e+03	6.488017e+03	0	1.936543e-03
9.800000e+08	3.661004e+14	0.000000e+00	8.526317e-01	3.497088e+15	3.835000e+15	6.537463e+13	2.074747e+04	9.762152e+03	6.473537e+03	0	1.927862e-03
9.900000e+08	3.612225e+14	0.000000e+00	8.526317e-01	3.457917e+15	3.792711e+15	6.508090e+13	2.068588e+04	9.740531e+03	6.459200e+03	0	1.919262e-03
1.000000e+09	3.564321e+14	0.000000e+00	8.526317e-01	3.419435e+15	3.751161e+15	6.478917e+13	2.062498e+04	9.719120e+03	6.445002e+03	0	1.910740e-03
1.010000e+09	3.517270e+14	0.000000e+00	8.526317e-01	3.381624e+15	3.710328e+15	6.449941e+13	2.056476e+04	9.697917e+03	6.430941e+03	0	1.902295e-03
1.020000e+09	3.471053e+14	0.000000e+00	8.526317e-01	3.344469e+15	3.670201e+15	6.421161e+13	2.050520e+04	9.676917e+03	6.417016e+03	0	1.893926e-03
1.030000e+09	3.425650e+14	0.000000e+00	8.526317e-01	3.307955e+15	3.630758e+15	6.392576e+13	2.044629e+04	9.656118e+03	6.403223e+03	0	1.885632e-03
1.040000e+09	3.381043e+14	0.000000e+00	8.526317e-01	3.272067e+15	3.591991e+15	6.364185e+13	2.038803e+04	9.635516e+03	6.389562e+03	0	1.877411e-03
1.050000e+09	3.337212e+14	0.000000e+00	8.526317e-01	3.236791e+15	3.553874e+15	6.335985e+13	2.033039e+04	9.615109e+03	6.376029e+03	0	1.869263e-03
1.060000e+09	3.294140e+14	0.000000e+00	8.526317e-01	3.202112e+15	3.516402e+15	6.307975e+13	2.027337e+04	9.594894e+03	6.362624e+03	0	1.861187e-03
1.070000e+09	3.251809e+14	0.000000e+00	8.526317e-01	3.168017e+15	3.479556e+15	6.280154e+13	2.021697e+04	9.574867e+03	6.349344e+03	0	1.853180e-03
1.080000e+09	3.210203e+14	0.000000e+00	8.526317e-01	3.134494e+15	3.443322e+15	6.252521e+13	2.016116e+04	9.555026e+03	6.336187e+03	0	1.845242e-03
1.090000e+09	3.169306e+14	0.000000e+00	8.526317e-01	3.101528e+15	3.407686e+15	6.225073e+13	2.010593e+04	9.535368e+03	6.323151e+03	0	1.837373e-03
1.100000e+09	3.129100e+14	0.000000e+00	8.526317e-01	3.069108e+15	3.372636e+15	6.197809e+13	2.005129e+04	9.515891e+03	6.310235e+03	0	1.829570e-03
1.110000e+09	3.089571e+14	0.000000e+00	8.526317e-01	3.037222e+15	3.338158e+15	6.170728e+13	1.999722e+04	9.496591e+03	6.297437e+03	0	1.821833e-03
1.120000e+09	3.050704e+14	0.000000e+00	8.526317e-01	3.005857e+15	3.304240e+15	6.143829e+13	1.994371e+04	9.477466e+03	6.284754e+03	0	1.814161e-03
1.130000e+09	3.012483e+14	0.000000e+00	8.526317e-01	2.975003e+15	3.270870e+15	6.117109e+13	1.989074e+04	9.458513e+03	6.272186e+03	0	1.806553e-03
1.140000e+09	2.974896e+14	0.000000e+00	8.526317e-01	2.944648e+15	3.238036e+15	6.090568e+13	1.983832e+04	9.439730e+03	6.259731e+03	0	1.799008e-03
1.150000e+09	2.937927e+14	0.000000e+00	8.526317e-01	2.914781e+15	3.205724e+15	6.064205e+13	1.978644e+04	9.421115e+03	6.247387e+03	0	1.791525e-03
1.160000e+09	2.901563e+14	0.000000e+00	8.526317e-01	2.885392e+15	3.173927e+15	6.038017e+13	1.973507e+04	9.402665e+03	6.235152e+03	0	1.784103e-03
1.170000e+09	2.865792e+14	0.000000e+00	8.526317e-01	2.856470e+15	3.142630e+15	6.012004e+13	1.968423e+04	9.384377e+03	6.223025e+03	0	1.776741e-03
1.180000e+09	2.830599e+14	0.000000e+00	8.526317e-01	2.828006e+15	3.111826e+15	5.986164e+13	1.963389e+04	9.366249e+03	6.211004e+03	0	1.769438e-03
1.190000e+09	2.795974e+14	0.000000e+00	8.526317e-01	2.799990e+15	3.081503e+15	5.960495e+13	1.958405e+04	9.348280e+03	6.199088e+03	0	1.762194e-03
1.200000e+09	2.761904e+14	0.000000e+00	8.526317e-01	2.772412e+15	3.051650e+15	5.934997e+13	1.953470e+04	9.330466e+03	6.187275e+03	0	1.755007e-03
1.210000e+09	2.728377e+14	0.000000e+00	8.526317e-01	2.745264e+15	3.022257e+15	5.909668e+13	1.948584e+04	9.312806e+03	6.175564e+03	0	1.747876e-03
1.220000e+09	2.695381e+14	0.000000e+00	8.526317e-01	2.718535e+15	2.993317e+15	5.884507e+13	1.943746e+04	9.295298e+03	6.163954e+03	0	1.740802e-03
1.230000e+09	2.662905e+14	0.000000e+00	8.526317e-01	2.692218e+15	2.964817e+15	5.859513e+13	1.938954e+04	9.277938e+03	6.152443e+03	0	1.733782e-03
1.240000e+09	2.630939e+14	0.000000e+00	8.526317e-01	2.666303e+15	2.936751e+15	5.834683e+13	1.934209e+04	9.260726e+03	6.141029e+03	0	1.726816e-03
1.250000e+09	2.599472e+14	0.000000e+00	8.526317e-01	2.640784e+15	2.909107e+15	5.810018e+13	1.929509e+04	9.243660e+03	6.129712e+03	0	1.719904e-03
1.260000e+09	2.568494e+14	0.000000e+00	8.526317e-01	2.615650e+15	2.881881e+15	5.785515e+13	1.924854e+04	9.226736e+03	6.118489e+03	0	1.713045e-03
1.270000e+09	2.537994e+14	0.000000e+00	8.526317e-01	2.590896e+15	2.855060e+15	5.761173e+13	1.920244e+04	9.209954e+03	6.107360e+03	0	1.706237e-03
1.280000e+09	2.507963e+14	0.000000e+00	8.526317e-01	2.566512e+15	2.828638e+15	5.736992e+13	1.915676e+04	9.193311e+03	6.096324e+03	0	1.699481e-03
1.290000e+09	2.478391e+14	0.000000e+00	8.526317e-01	2.542492e+15	2.802607e+15	5.712969e+13	1.911152e+04	9.176805e+03	6.085379e+03	0	1.692775e-03
1.300000e+09	2.449268e+14	0.000000e+00	8.526317e-01	2.518828e+15	2.776959e+15	5.689105e+13	1.906670e+04	9.160435e+03	6.074523e+03	0	1.686118e-03
1.310000e+09	2.420587e+14	0.000000e+00	8.526317e-01	2.495513e+15	2.751685e+15	5.665396e+13	1.902229e+04	9.144199e+03	6.063757e+03	0	1.679511e-03
1.320000e+09	2.392337e+14	0.000000e+00	8.526317e-01	2.472540e+15	2.726780e+15	5.641843e+13	1.897830e+04	9.128095e+03	6.053077e+03	0	1.672952e-03
1.330000e+09	2.364511e+14	0.000000e+00	8.526317e-01	2.449903e+15	2.702236e+15	5.618444e+13	1.893470e+04	9.112121e+03	6.042485e+03	0	1.666440e-03
1.340000e+09	2.337099e+14	0.000000e+00	8.526317e-01	2.427594e+15	2.678044e+15	5.595198e+13	1.889151e+04	9.096276e+03	6.031977e+03	0	1.659975e-03
1.350000e+09	2.310094e+14	0.000000e+00	8.526317e-01	2.405608e+15	2.654199e+15	5.572104e+13	1.884871e+04	9.080557e+03	6.021554e+03	0	1.653557e-03
1.360000e+09	2.283488e+14	0.000000e+00	8.526317e-01	2.383937e+15	2.630694e+15	5.549160e+13	1.880629e+04	9.064964e+03	6.011214e+03	0	1.647184e-03
