#t		Qconv[W]	Ri[Rp]		R*[Rp]		Qc[W]		Qm[W]		Qr[W]		Tcmb[K]		Tl[K]		Tup[K]		RiFlag		Bs[T]
0.000000e+00	2.535121e+15	0.000000e+00	8.526315e-01	2.018192e+16	2.608962e+13	1.152378e+14	3.605977e+04	4.519897e+03	2.987972e+03	0	3.669014e-03
1.000000e+07	2.567863e+15	0.000000e+00	8.526315e-01	2.041037e+16	2.362862e+14	1.145993e+14	3.574477e+04	6.138443e+03	4.057947e+03	0	3.684743e-03
2.000000e+07	2.557990e+15	0.000000e+00	8.526315e-01	2.032441e+16	9.772429e+14	1.139656e+14	3.542617e+04	7.739801e+03	5.116558e+03	0	3.680014e-03
3.000000e+07	2.509111e+15	0.000000e+00	8.526315e-01	1.995088e+16	2.583838e+15	1.133366e+14	3.510884e+04	9.241759e+03	6.109459e+03	0	3.656423e-03
4.000000e+07	2.432204e+15	0.000000e+00	8.526315e-01	1.937091e+16	5.057751e+15	1.127123e+14	3.479727e+04	1.054895e+04	6.973604e+03	0	3.618677e-03
5.000000e+07	2.342493e+15	0.000000e+00	8.526315e-01	1.869689e+16	7.961413e+15	1.120926e+14	3.449468e+04	1.159053e+04	7.662163e+03	0	3.573627e-03
6.000000e+07	2.253166e+15	0.000000e+00	8.526315e-01	1.802614e+16	1.069300e+16	1.114776e+14	3.420255e+04	1.234882e+04	8.163447e+03	0	3.527613e-03
7.000000e+07	2.171467e+15	0.000000e+00	8.526315e-01	1.741206e+16	1.284460e+16	1.108672e+14	3.392083e+04	1.285608e+04	8.498781e+03	0	3.484450e-03
8.000000e+07	2.099237e+15	0.000000e+00	8.526315e-01	1.686820e+16	1.431166e+16	1.102613e+14	3.364865e+04	1.316920e+04	8.705775e+03	0	3.445379e-03
9.000000e+07	2.035453e+15	0.000000e+00	8.526315e-01	1.638697e+16	1.518726e+16	1.096599e+14	3.338493e+04	1.334569e+04	8.822450e+03	0	3.410125e-03
1.000000e+08	1.978279e+15	0.000000e+00	8.526315e-01	1.595480e+16	1.562748e+16	1.090629e+14	3.312868e+04	1.343180e+04	8.879373e+03	0	3.377892e-03
1.100000e+08	1.926037e+15	0.000000e+00	8.526315e-01	1.555926e+16	1.577561e+16	1.084704e+14	3.287915e+04	1.346040e+04	8.898281e+03	0	3.347891e-03
1.200000e+08	1.877470e+15	0.000000e+00	8.526315e-01	1.519109e+16	1.573880e+16	1.078823e+14	3.263577e+04	1.345331e+04	8.893592e+03	0	3.319512e-03
1.300000e+08	1.831720e+15	0.000000e+00	8.526315e-01	1.484392e+16	1.558953e+16	1.072986e+14	3.239812e+04	1.342444e+04	8.874508e+03	0	3.292326e-03
1.400000e+08	1.788216e+15	0.000000e+00	8.526315e-01	1.451353e+16	1.537435e+16	1.067192e+14	3.216586e+04	1.338249e+04	8.846778e+03	0	3.266053e-03
1.500000e+08	1.746583e+15	0.000000e+00	8.526315e-01	1.419716e+16	1.512230e+16	1.061440e+14	3.193874e+04	1.333284e+04	8.813955e+03	0	3.240507e-03
1.600000e+08	1.706571e+15	0.000000e+00	8.526315e-01	1.389294e+16	1.485119e+16	1.055731e+14	3.171655e+04	1.327880e+04	8.778229e+03	0	3.215570e-03
1.700000e+08	1.668007e+15	0.000000e+00	8.526315e-01	1.359959e+16	1.457185e+16	1.050064e+14	3.149908e+04	1.322240e+04	8.740946e+03	0	3.191164e-03
1.800000e+08	1.630768e+15	0.000000e+00	8.526315e-01	1.331621e+16	1.429078e+16	1.044439e+14	3.128619e+04	1.316490e+04	8.702934e+03	0	3.167237e-03
1.900000e+08	1.594760e+15	0.000000e+00	8.526315e-01	1.304208e+16	1.401186e+16	1.038855e+14	3.107770e+04	1.310707e+04	8.664702e+03	0	3.143752e-03
2.000000e+08	1.559909e+15	0.000000e+00	8.526315e-01	1.277666e+16	1.373736e+16	1.033313e+14	3.087348e+04	1.304938e+04	8.626563e+03	0	3.120683e-03
2.100000e+08	1.526154e+15	0.000000e+00	8.526315e-01	1.251949e+16	1.346858e+16	1.027811e+14	3.067339e+04	1.299211e+04	8.588708e+03	0	3.098008e-03
2.200000e+08	1.493441e+15	0.000000e+00	8.526315e-01	1.227018e+16	1.320620e+16	1.022350e+14	3.047730e+04	1.293545e+04	8.551252e+03	0	3.075714e-03
2.300000e+08	1.461725e+15	0.000000e+00	8.526315e-01	1.202837e+16	1.295057e+16	1.016928e+14	3.028510e+04	1.287950e+04	8.514263e+03	0	3.053785e-03
2.400000e+08	1.430963e+15	0.000000e+00	8.526315e-01	1.179375e+16	1.270179e+16	1.011547e+14	3.009667e+04	1.282431e+04	8.477779e+03	0	3.032210e-03
2.500000e+08	1.401116e+15	0.000000e+00	8.526315e-01	1.156603e+16	1.245982e+16	1.006204e+14	2.991188e+04	1.276992e+04	8.441821e+03	0	3.010980e-03
2.600000e+08	1.372146e+15	0.000000e+00	8.526315e-01	1.134493e+16	1.222456e+16	1.000901e+14	2.973065e+04	1.271633e+04	8.406394e+03	0	2.990083e-03
2.700000e+08	1.344020e+15	0.000000e+00	8.526315e-01	1.113019e+16	1.199584e+16	9.956370e+13	2.955286e+04	1.266354e+04	8.371501e+03	0	2.969512e-03
2.800000e+08	1.316706e+15	0.000000e+00	8.526315e-01	1.092158e+16	1.177350e+16	9.904111e+13	2.937842e+04	1.261156e+04	8.337138e+03	0	2.949258e-03
2.900000e+08	1.290173e+15	0.000000e+00	8.526315e-01	1.071886e+16	1.155733e+16	9.852234e+13	2.920724e+04	1.256037e+04	8.303296e+03	0	2.929313e-03
3.000000e+08	1.264391e+15	0.000000e+00	8.526315e-01	1.052181e+16	1.134713e+16	9.800735e+13	2.903921e+04	1.250995e+04	8.269968e+03	0	2.909669e-03
3.100000e+08	1.239333e+15	0.000000e+00	8.526315e-01	1.033022e+16	1.114269e+16	9.749611e+13	2.887425e+04	1.246030e+04	8.237144e+03	0	2.890319e-03
3.200000e+08	1.214972e+15	0.000000e+00	8.526315e-01	1.014390e+16	1.094384e+16	9.698859e+13	2.871228e+04	1.241140e+04	8.204814e+03	0	2.871256e-03
3.300000e+08	1.191284e+15	0.000000e+00	8.526315e-01	9.962659e+15	1.075036e+16	9.648476e+13	2.855322e+04	1.236322e+04	8.172966e+03	0	2.852473e-03
3.400000e+08	1.168243e+15	0.000000e+00	8.526315e-01	9.786310e+15	1.056208e+16	9.598459e+13	2.839699e+04	1.231576e+04	8.141592e+03	0	2.833964e-03
3.500000e+08	1.145828e+15	0.000000e+00	8.526315e-01	9.614684e+15	1.037882e+16	9.548805e+13	2.824350e+04	1.226900e+04	8.110679e+03	0	2.815721e-03
3.600000e+08	1.124015e+15	0.000000e+00	8.526315e-01	9.447614e+15	1.020040e+16	9.499511e+13	2.809270e+04	1.222292e+04	8.080219e+03	0	2.797739e-03
3.700000e+08	1.102784e+15	0.000000e+00	8.526315e-01	9.284942e+15	1.002665e+16	9.450574e+13	2.794450e+04	1.217751e+04	8.050201e+03	0	2.780012e-03
3.800000e+08	1.082115e+15	0.000000e+00	8.526315e-01	9.126516e+15	9.857418e+15	9.401991e+13	2.779884e+04	1.213276e+04	8.020615e+03	0	2.762534e-03
3.900000e+08	1.061988e+15	0.000000e+00	8.526315e-01	8.972191e+15	9.692548e+15	9.353759e+13	2.765565e+04	1.208864e+04	7.991451e+03	0	2.745299e-03
4.000000e+08	1.042385e+15	0.000000e+00	8.526315e-01	8.821827e+15	9.531892e+15	9.305876e+13	2.751487e+04	1.204515e+04	7.962701e+03	0	2.728303e-03
4.100000e+08	1.023288e+15	0.000000e+00	8.526315e-01	8.675292e+15	9.375316e+15	9.258337e+13	2.737644e+04	1.200227e+04	7.934354e+03	0	2.711538e-03
4.200000e+08	1.004679e+15	0.000000e+00	8.526315e-01	8.532457e+15	9.222672e+15	9.211142e+13	2.724030e+04	1.195999e+04	7.906403e+03	0	2.695002e-03
4.300000e+08	9.865439e+14	0.000000e+00	8.526315e-01	8.393199e+15	9.073832e+15	9.164286e+13	2.710639e+04	1.191829e+04	7.878838e+03	0	2.678687e-03
4.400000e+08	9.688654e+14	0.000000e+00	8.526315e-01	8.257401e+15	8.928678e+15	9.117768e+13	2.697465e+04	1.187717e+04	7.851652e+03	0	2.662590e-03
4.500000e+08	9.516289e+14	0.000000e+00	8.526315e-01	8.124951e+15	8.787086e+15	9.071583e+13	2.684504e+04	1.183660e+04	7.824835e+03	0	2.646706e-03
4.600000e+08	9.348200e+14	0.000000e+00	8.526315e-01	7.995739e+15	8.648941e+15	9.025731e+13	2.671749e+04	1.179659e+04	7.798381e+03	0	2.631030e-03
4.700000e+08	9.184249e+14	0.000000e+00	8.526315e-01	7.869661e+15	8.514138e+15	8.980207e+13	2.659197e+04	1.175711e+04	7.772281e+03	0	2.615558e-03
4.800000e+08	9.024303e+14	0.000000e+00	8.526315e-01	7.746617e+15	8.382558e+15	8.935009e+13	2.646841e+04	1.171815e+04	7.746529e+03	0	2.600286e-03
4.900000e+08	8.868233e+14	0.000000e+00	8.526315e-01	7.626512e+15	8.254110e+15	8.890135e+13	2.634677e+04	1.167971e+04	7.721116e+03	0	2.585208e-03
5.000000e+08	8.715917e+14	0.000000e+00	8.526315e-01	7.509252e+15	8.128691e+15	8.845582e+13	2.622702e+04	1.164177e+04	7.696036e+03	0	2.570322e-03
5.100000e+08	8.567238e+14	0.000000e+00	8.526315e-01	7.394750e+15	8.006204e+15	8.801347e+13	2.610909e+04	1.160432e+04	7.671282e+03	0	2.555623e-03
5.200000e+08	8.422082e+14	0.000000e+00	8.526315e-01	7.282919e+15	7.886568e+15	8.757428e+13	2.599296e+04	1.156736e+04	7.646847e+03	0	2.541107e-03
5.300000e+08	8.280339e+14	0.000000e+00	8.526315e-01	7.173677e+15	7.769688e+15	8.713822e+13	2.587857e+04	1.153087e+04	7.622724e+03	0	2.526771e-03
5.400000e+08	8.141905e+14	0.000000e+00	8.526315e-01	7.066946e+15	7.655480e+15	8.670526e+13	2.576589e+04	1.149485e+04	7.598908e+03	0	2.512611e-03
5.500000e+08	8.006678e+14	0.000000e+00	8.526315e-01	6.962649e+15	7.543865e+15	8.627539e+13	2.565488e+04	1.145927e+04	7.575393e+03	0	2.498622e-03
5.600000e+08	7.874562e+14	0.000000e+00	8.526315e-01	6.860713e+15	7.434762e+15	8.584857e+13	2.554550e+04	1.142415e+04	7.552171e+03	0	2.484803e-03
5.700000e+08	7.745463e+14	0.000000e+00	8.526315e-01	6.761068e+15	7.328101e+15	8.542478e+13	2.543772e+04	1.138946e+04	7.529238e+03	0	2.471149e-03
5.800000e+08	7.619291e+14	0.000000e+00	8.526315e-01	6.663645e+15	7.223806e+15	8.500400e+13	2.533150e+04	1.135519e+04	7.506588e+03	0	2.457658e-03
5.900000e+08	7.495958e+14	0.000000e+00	8.526315e-01	6.568378e+15	7.121810e+15	8.458621e+13	2.522679e+04	1.132135e+04	7.484215e+03	0	2.444325e-03
6.000000e+08	7.375381e+14	0.000000e+00	8.526315e-01	6.475206e+15	7.022045e+15	8.417137e+13	2.512358e+04	1.128792e+04	7.462115e+03	0	2.431148e-03
6.100000e+08	7.257480e+14	0.000000e+00	8.526315e-01	6.384067e+15	6.924440e+15	8.375946e+13	2.502183e+04	1.125489e+04	7.440280e+03	0	2.418123e-03
6.200000e+08	7.142176e+14	0.000000e+00	8.526315e-01	6.294902e+15	6.828947e+15	8.335047e+13	2.492150e+04	1.122226e+04	7.418708e+03	0	2.405249e-03
6.300000e+08	7.029395e+14	0.000000e+00	8.526315e-01	6.207654e+15	6.735492e+15	8.294436e+13	2.482257e+04	1.119001e+04	7.397392e+03	0	2.392521e-03
6.400000e+08	6.919064e+14	0.000000e+00	8.526315e-01	6.122270e+15	6.644024e+15	8.254112e+13	2.472500e+04	1.115815e+04	7.376327e+03	0	2.379938e-03
6.500000e+08	6.811114e+14	0.000000e+00	8.526315e-01	6.038696e+15	6.554484e+15	8.214071e+13	2.462877e+04	1.112666e+04	7.355510e+03	0	2.367496e-03
6.600000e+08	6.705476e+14	0.000000e+00	8.526315e-01	5.956882e+15	6.466822e+15	8.174313e+13	2.453385e+04	1.109553e+04	7.334935e+03	0	2.355192e-03
6.700000e+08	6.602087e+14	0.000000e+00	8.526315e-01	5.876779e+15	6.380980e+15	8.134834e+13	2.444021e+04	1.106477e+04	7.314598e+03	0	2.343025e-03
6.800000e+08	6.500883e+14	0.000000e+00	8.526315e-01	5.798338e+15	6.296911e+15	8.095632e+13	2.434782e+04	1.103436e+04	7.294495e+03	0	2.330991e-03
6.900000e+08	6.401803e+14	0.000000e+00	8.526315e-01	5.721515e+15	6.214568e+15	8.056706e+13	2.425666e+04	1.100430e+04	7.274620e+03	0	2.319088e-03
7.000000e+08	6.304790e+14	0.000000e+00	8.526315e-01	5.646265e+15	6.133898e+15	8.018052e+13	2.416671e+04	1.097457e+04	7.254971e+03	0	2.307314e-03
7.100000e+08	6.209786e+14	0.000000e+00	8.526315e-01	5.572546e+15	6.054866e+15	7.979669e+13	2.407793e+04	1.094518e+04	7.235544e+03	0	2.295666e-03
7.200000e+08	6.116736e+14	0.000000e+00	8.526315e-01	5.500315e+15	5.977413e+15	7.941554e+13	2.399031e+04	1.091612e+04	7.216333e+03	0	2.284142e-03
7.300000e+08	6.025589e+14	0.000000e+00	8.526315e-01	5.429534e+15	5.901513e+15	7.903705e+13	2.390381e+04	1.088739e+04	7.197335e+03	0	2.272740e-03
7.400000e+08	5.936293e+14	0.000000e+00	8.526315e-01	5.360164e+15	5.827114e+15	7.866121e+13	2.381843e+04	1.085897e+04	7.178547e+03	0	2.261457e-03
7.500000e+08	5.848798e+14	0.000000e+00	8.526315e-01	5.292166e+15	5.754175e+15	7.828799e+13	2.373413e+04	1.083086e+04	7.159965e+03	0	2.250291e-03
7.600000e+08	5.763057e+14	0.000000e+00	8.526315e-01	5.225506e+15	5.682670e+15	7.791737e+13	2.365090e+04	1.080305e+04	7.141585e+03	0	2.239241e-03
7.700000e+08	5.679023e+14	0.000000e+00	8.526315e-01	5.160148e+15	5.612548e+15	7.754932e+13	2.356872e+04	1.077555e+04	7.123404e+03	0	2.228304e-03
7.800000e+08	5.596652e+14	0.000000e+00	8.526315e-01	5.096059e+15	5.543782e+15	7.718384e+13	2.348755e+04	1.074834e+04	7.105417e+03	0	2.217478e-03
7.900000e+08	5.515900e+14	0.000000e+00	8.526315e-01	5.033205e+15	5.476330e+15	7.682089e+13	2.340739e+04	1.072143e+04	7.087623e+03	0	2.206761e-03
8.000000e+08	5.436726e+14	0.000000e+00	8.526315e-01	4.971555e+15	5.410164e+15	7.646046e+13	2.332822e+04	1.069479e+04	7.070017e+03	0	2.196152e-03
8.100000e+08	5.359089e+14	0.000000e+00	8.526315e-01	4.911078e+15	5.345251e+15	7.610252e+13	2.325001e+04	1.066844e+04	7.052597e+03	0	2.185648e-03
8.200000e+08	5.282950e+14	0.000000e+00	8.526315e-01	4.851745e+15	5.281559e+15	7.574707e+13	2.317275e+04	1.064237e+04	7.035359e+03	0	2.175248e-03
8.300000e+08	5.208271e+14	0.000000e+00	8.526315e-01	4.793526e+15	5.219054e+15	7.539407e+13	2.309642e+04	1.061656e+04	7.018301e+03	0	2.164949e-03
8.400000e+08	5.135014e+14	0.000000e+00	8.526315e-01	4.736395e+15	5.157707e+15	7.504351e+13	2.302100e+04	1.059102e+04	7.001418e+03	0	2.154751e-03
8.500000e+08	5.063145e+14	0.000000e+00	8.526315e-01	4.680323e+15	5.097496e+15	7.469537e+13	2.294648e+04	1.056575e+04	6.984709e+03	0	2.144651e-03
8.600000e+08	4.992628e+14	0.000000e+00	8.526315e-01	4.625285e+15	5.038383e+15	7.434963e+13	2.287284e+04	1.054073e+04	6.968170e+03	0	2.134648e-03
8.700000e+08	4.923430e+14	0.000000e+00	8.526315e-01	4.571256e+15	4.980349e+15	7.400627e+13	2.280005e+04	1.051597e+04	6.951799e+03	0	2.124740e-03
8.800000e+08	4.855519e+14	0.000000e+00	8.526315e-01	4.518210e+15	4.923366e+15	7.366527e+13	2.272812e+04	1.049145e+04	6.935593e+03	0	2.114926e-03
8.900000e+08	4.788863e+14	0.000000e+00	8.526315e-01	4.466123e+15	4.867405e+15	7.332661e+13	2.265702e+04	1.046718e+04	6.919550e+03	0	2.105203e-03
9.000000e+08	4.723431e+14	0.000000e+00	8.526315e-01	4.414974e+15	4.812444e+15	7.299028e+13	2.258673e+04	1.044315e+04	6.903665e+03	0	2.095571e-03
9.100000e+08	4.659194e+14	0.000000e+00	8.526315e-01	4.364738e+15	4.758459e+15	7.265625e+13	2.251725e+04	1.041936e+04	6.887939e+03	0	2.086028e-03
9.200000e+08	4.596124e+14	0.000000e+00	8.526315e-01	4.315395e+15	4.705427e+15	7.232452e+13	2.244856e+04	1.039581e+04	6.872366e+03	0	2.076572e-03
9.300000e+08	4.534191e+14	0.000000e+00	8.526315e-01	4.266923e+15	4.653325e+15	7.199505e+13	2.238063e+04	1.037248e+04	6.856946e+03	0	2.067203e-03
9.400000e+08	4.473369e+14	0.000000e+00	8.526315e-01	4.219302e+15	4.602133e+15	7.166783e+13	2.231347e+04	1.034938e+04	6.841676e+03	0	2.057918e-03
9.500000e+08	4.413632e+14	0.000000e+00	8.526315e-01	4.172511e+15	4.551827e+15	7.134284e+13	2.224706e+04	1.032651e+04	6.826553e+03	0	2.048717e-03
9.600000e+08	4.354954e+14	0.000000e+00	8.526315e-01	4.126532e+15	4.502386e+15	7.102007e+13	2.218138e+04	1.030385e+04	6.811575e+03	0	2.039597e-03
9.700000e+08	4.297311e+14	0.000000e+00	8.526315e-01	4.081345e+15	4.453793e+15	7.069950e+13	2.211642e+04	1.028141e+04	6.796741e+03	0	2.030558e-03
9.800000e+08	4.240678e+14	0.000000e+00	8.526315e-01	4.036933e+15	4.406026e+15	7.038111e+13	2.205217e+04	1.025918e+04	6.782047e+03	0	2.021599e-03
9.900000e+08	4.185033e+14	0.000000e+00	8.526315e-01	3.993277e+15	4.359069e+15	7.006489e+13	2.198862e+04	1.023716e+04	6.767491e+03	0	2.012717e-03
1.000000e+09	4.130351e+14	0.000000e+00	8.526315e-01	3.950361e+15	4.312901e+15	6.975081e+13	2.192575e+04	1.021535e+04	6.753072e+03	0	2.003913e-03
1.010000e+09	4.076612e+14	0.000000e+00	8.526315e-01	3.908167e+15	4.267505e+15	6.943886e+13	2.186355e+04	1.019374e+04	6.738787e+03	0	1.995184e-03
1.020000e+09	4.023793e+14	0.000000e+00	8.526315e-01	3.866680e+15	4.222865e+15	6.912903e+13	2.180202e+04	1.017233e+04	6.724635e+03	0	1.986530e-03
1.030000e+09	3.971875e+14	0.000000e+00	8.526315e-01	3.825883e+15	4.178959e+15	6.882129e+13	2.174114e+04	1.015112e+04	6.710613e+03	0	1.977949e-03
1.040000e+09	3.920836e+14	0.000000e+00	8.526315e-01	3.785761e+15	4.135778e+15	6.851563e+13	2.168090e+04	1.013011e+04	6.696720e+03	0	1.969440e-03
1.050000e+09	3.870657e+14	0.000000e+00	8.526315e-01	3.746299e+15	4.093300e+15	6.821204e+13	2.162129e+04	1.010928e+04	6.682953e+03	0	1.961002e-03
1.060000e+09	3.821319e+14	0.000000e+00	8.526315e-01	3.707483e+15	4.051516e+15	6.791049e+13	2.156229e+04	1.008865e+04	6.669311e+03	0	1.952635e-03
1.070000e+09	3.772804e+14	0.000000e+00	8.526315e-01	3.669299e+15	4.010402e+15	6.761097e+13	2.150391e+04	1.006819e+04	6.655791e+03	0	1.944336e-03
1.080000e+09	3.725092e+14	0.000000e+00	8.526315e-01	3.631732e+15	3.969951e+15	6.731347e+13	2.144613e+04	1.004793e+04	6.642393e+03	0	1.936105e-03
1.090000e+09	3.678168e+14	0.000000e+00	8.526315e-01	3.594770e+15	3.930146e+15	6.701797e+13	2.138893e+04	1.002784e+04	6.629114e+03	0	1.927941e-03
1.100000e+09	3.632012e+14	0.000000e+00	8.526315e-01	3.558399e+15	3.890973e+15	6.672446e+13	2.133232e+04	1.000793e+04	6.615953e+03	0	1.919843e-03
1.110000e+09	3.586610e+14	0.000000e+00	8.526315e-01	3.522606e+15	3.852420e+15	6.643291e+13	2.127627e+04	9.988198e+03	6.602908e+03	0	1.911809e-03
1.120000e+09	3.541943e+14	0.000000e+00	8.526315e-01	3.487380e+15	3.814472e+15	6.614332e+13	2.122079e+04	9.968637e+03	6.589976e+03	0	1.903840e-03
1.130000e+09	3.497998e+14	0.000000e+00	8.526315e-01	3.452708e+15	3.777116e+15	6.585566e+13	2.116586e+04	9.949246e+03	6.577158e+03	0	1.895933e-03
1.140000e+09	3.454758e+14	0.000000e+00	8.526315e-01	3.418579e+15	3.740341e+15	6.556993e+13	2.111148e+04	9.930024e+03	6.564451e+03	0	1.888089e-03
1.150000e+09	3.412208e+14	0.000000e+00	8.526315e-01	3.384981e+15	3.704133e+15	6.528610e+13	2.105763e+04	9.910967e+03	6.551853e+03	0	1.880305e-03
1.160000e+09	3.370334e+14	0.000000e+00	8.526315e-01	3.351903e+15	3.668481e+15	6.500417e+13	2.100431e+04	9.892073e+03	6.539363e+03	0	1.872582e-03
1.170000e+09	3.329122e+14	0.000000e+00	8.526315e-01	3.319334e+15	3.633377e+15	6.472412e+13	2.095151e+04	9.873341e+03	6.526979e+03	0	1.864918e-03
1.180000e+09	3.288558e+14	0.000000e+00	8.526315e-01	3.287264e+15	3.598804e+15	6.444593e+13	2.089922e+04	9.854767e+03	6.514701e+03	0	1.857313e-03
1.190000e+09	3.248627e+14	0.000000e+00	8.526315e-01	3.255683e+15	3.564754e+15	6.416958e+13	2.084744e+04	9.836350e+03	6.502526e+03	0	1.849765e-03
1.200000e+09	3.209318e+14	0.000000e+00	8.526315e-01	3.224580e+15	3.531217e+15	6.389508e+13	2.079615e+04	9.818088e+03	6.490453e+03	0	1.842274e-03
1.210000e+09	3.170618e+14	0.000000e+00	8.526315e-01	3.193946e+15	3.498179e+15	6.362239e+13	2.074535e+04	9.799978e+03	6.478481e+03	0	1.834838e-03
1.220000e+09	3.132513e+14	0.000000e+00	8.526315e-01	3.163771e+15	3.465636e+15	6.335151e+13	2.069503e+04	9.782018e+03	6.466608e+03	0	1.827458e-03
1.230000e+09	3.094992e+14	0.000000e+00	8.526315e-01	3.134046e+15	3.433572e+15	6.308242e+13	2.064518e+04	9.764206e+03	6.454833e+03	0	1.820133e-03
1.240000e+09	3.058043e+14	0.000000e+00	8.526315e-01	3.104763e+15	3.401983e+15	6.281511e+13	2.059580e+04	9.746541e+03	6.443156e+03	0	1.812860e-03
1.250000e+09	3.021655e+14	0.000000e+00	8.526315e-01	3.075911e+15	3.370855e+15	6.254957e+13	2.054688e+04	9.729020e+03	6.431573e+03	0	1.805641e-03
1.260000e+09	2.985815e+14	0.000000e+00	8.526315e-01	3.047483e+15	3.340180e+15	6.228578e+13	2.049842e+04	9.711642e+03	6.420085e+03	0	1.798474e-03
1.270000e+09	2.950514e+14	0.000000e+00	8.526315e-01	3.019471e+15	3.309950e+15	6.202372e+13	2.045040e+04	9.694404e+03	6.408689e+03	0	1.791358e-03
1.280000e+09	2.915740e+14	0.000000e+00	8.526315e-01	2.991865e+15	3.280155e+15	6.176339e+13	2.040282e+04	9.677305e+03	6.397385e+03	0	1.784293e-03
1.290000e+09	2.881484e+14	0.000000e+00	8.526315e-01	2.964659e+15	3.250790e+15	6.150477e+13	2.035567e+04	9.660343e+03	6.386172e+03	0	1.777278e-03
1.300000e+09	2.847734e+14	0.000000e+00	8.526315e-01	2.937844e+15	3.221842e+15	6.124784e+13	2.030895e+04	9.643515e+03	6.375048e+03	0	1.770311e-03
1.310000e+09	2.814481e+14	0.000000e+00	8.526315e-01	2.911413e+15	3.193305e+15	6.099260e+13	2.026266e+04	9.626822e+03	6.364012e+03	0	1.763394e-03
1.320000e+09	2.781716e+14	0.000000e+00	8.526315e-01	2.885359e+15	3.165173e+15	6.073904e+13	2.021678e+04	9.610259e+03	6.353064e+03	0	1.756524e-03
1.330000e+09	2.749428e+14	0.000000e+00	8.526315e-01	2.859674e+15	3.137436e+15	6.048713e+13	2.017130e+04	9.593827e+03	6.342201e+03	0	1.749702e-03
1.340000e+09	2.717609e+14	0.000000e+00	8.526315e-01	2.834351e+15	3.110087e+15	6.023686e+13	2.012624e+04	9.577523e+03	6.331423e+03	0	1.742926e-03
1.350000e+09	2.686249e+14	0.000000e+00	8.526315e-01	2.809383e+15	3.083118e+15	5.998823e+13	2.008156e+04	9.561346e+03	6.320728e+03	0	1.736196e-03
1.360000e+09	2.655341e+14	0.000000e+00	8.526315e-01	2.784764e+15	3.056523e+15	5.974122e+13	2.003729e+04	9.545294e+03	6.310117e+03	0	1.729511e-03
