#t		Qconv[W]	Ri[Rp]		R*[Rp]		Qc[W]		Qm[W]		Qr[W]		Tcmb[K]		Tl[K]		Tup[K]		RiFlag		Bs[T]
0.000000e+00	1.726968e+13	0.000000e+00	5.524475e-01	4.827210e+14	5.532318e+13	9.032745e+13	8.143609e+03	3.350003e+03	2.200915e+03	0	9.255041e-04
1.000000e+07	1.619101e+13	0.000000e+00	5.524475e-01	4.528458e+14	6.124824e+13	8.982697e+13	8.016184e+03	3.404244e+03	2.236550e+03	0	9.058193e-04
2.000000e+07	1.520757e+13	0.000000e+00	5.524475e-01	4.256052e+14	6.717047e+13	8.933023e+13	7.896481e+03	3.454657e+03	2.269671e+03	0	8.870950e-04
3.000000e+07	1.430850e+13	0.000000e+00	5.524475e-01	4.006996e+14	7.305106e+13	8.883720e+13	7.783836e+03	3.501525e+03	2.300463e+03	0	8.692571e-04
4.000000e+07	1.348451e+13	0.000000e+00	5.524475e-01	3.778716e+14	7.885565e+13	8.834786e+13	7.677657e+03	3.545099e+03	2.329090e+03	0	8.522400e-04
5.000000e+07	1.272756e+13	0.000000e+00	5.524475e-01	3.568990e+14	8.455417e+13	8.786216e+13	7.577416e+03	3.585608e+03	2.355705e+03	0	8.359852e-04
6.000000e+07	1.203069e+13	0.000000e+00	5.524475e-01	3.375894e+14	9.012072e+13	8.738009e+13	7.482640e+03	3.623262e+03	2.380443e+03	0	8.204406e-04
7.000000e+07	1.138785e+13	0.000000e+00	5.524475e-01	3.197748e+14	9.553325e+13	8.690161e+13	7.392906e+03	3.658251e+03	2.403430e+03	0	8.055592e-04
8.000000e+07	1.079371e+13	0.000000e+00	5.524475e-01	3.033086e+14	1.007734e+14	8.642668e+13	7.307829e+03	3.690749e+03	2.424781e+03	0	7.912987e-04
9.000000e+07	1.024361e+13	0.000000e+00	5.524475e-01	2.880615e+14	1.058260e+14	8.595529e+13	7.227064e+03	3.720920e+03	2.444603e+03	0	7.776210e-04
1.000000e+08	9.733446e+12	0.000000e+00	5.524475e-01	2.739197e+14	1.106794e+14	8.548739e+13	7.150297e+03	3.748911e+03	2.462993e+03	0	7.644911e-04
1.100000e+08	9.259562e+12	0.000000e+00	5.524475e-01	2.607825e+14	1.153241e+14	8.502297e+13	7.077244e+03	3.774861e+03	2.480042e+03	0	7.518774e-04
1.200000e+08	8.818723e+12	0.000000e+00	5.524475e-01	2.485602e+14	1.197538e+14	8.456199e+13	7.007644e+03	3.798900e+03	2.495835e+03	0	7.397508e-04
1.300000e+08	8.408044e+12	0.000000e+00	5.524475e-01	2.371729e+14	1.239639e+14	8.410442e+13	6.941261e+03	3.821146e+03	2.510451e+03	0	7.280847e-04
1.400000e+08	8.024944e+12	0.000000e+00	5.524475e-01	2.265493e+14	1.279523e+14	8.365024e+13	6.877878e+03	3.841712e+03	2.523962e+03	0	7.168543e-04
1.500000e+08	7.667110e+12	0.000000e+00	5.524475e-01	2.166253e+14	1.317181e+14	8.319942e+13	6.817298e+03	3.860701e+03	2.536437e+03	0	7.060370e-04
1.600000e+08	7.332461e+12	0.000000e+00	5.524475e-01	2.073434e+14	1.352625e+14	8.275193e+13	6.759337e+03	3.878211e+03	2.547942e+03	0	6.956116e-04
1.700000e+08	7.019125e+12	0.000000e+00	5.524475e-01	1.986518e+14	1.385877e+14	8.230774e+13	6.703830e+03	3.894334e+03	2.558534e+03	0	6.855586e-04
1.800000e+08	6.725407e+12	0.000000e+00	5.524475e-01	1.905034e+14	1.416971e+14	8.186682e+13	6.650621e+03	3.909154e+03	2.568271e+03	0	6.758595e-04
1.900000e+08	6.449776e+12	0.000000e+00	5.524475e-01	1.828561e+14	1.445949e+14	8.142915e+13	6.599570e+03	3.922753e+03	2.577205e+03	0	6.664974e-04
2.000000e+08	6.190841e+12	0.000000e+00	5.524475e-01	1.756712e+14	1.472864e+14	8.099471e+13	6.550545e+03	3.935205e+03	2.585386e+03	0	6.574561e-04
2.100000e+08	5.947339e+12	0.000000e+00	5.524475e-01	1.689138e+14	1.497773e+14	8.056345e+13	6.503424e+03	3.946581e+03	2.592860e+03	0	6.487208e-04
2.200000e+08	5.718121e+12	0.000000e+00	5.524475e-01	1.625521e+14	1.520739e+14	8.013537e+13	6.458096e+03	3.956947e+03	2.599670e+03	0	6.402772e-04
2.300000e+08	5.502138e+12	0.000000e+00	5.524475e-01	1.565570e+14	1.541828e+14	7.971042e+13	6.414458e+03	3.966365e+03	2.605858e+03	0	6.321121e-04
2.400000e+08	5.298433e+12	0.000000e+00	5.524475e-01	1.509021e+14	1.561110e+14	7.928859e+13	6.372412e+03	3.974893e+03	2.611461e+03	0	6.242128e-04
2.500000e+08	5.106128e+12	0.000000e+00	5.524475e-01	1.455631e+14	1.578657e+14	7.886986e+13	6.331869e+03	3.982588e+03	2.616516e+03	0	6.165677e-04
2.600000e+08	4.924422e+12	0.000000e+00	5.524475e-01	1.405177e+14	1.594541e+14	7.845418e+13	6.292747e+03	3.989499e+03	2.621056e+03	0	6.091655e-04
2.700000e+08	4.752579e+12	0.000000e+00	5.524475e-01	1.357456e+14	1.608835e+14	7.804155e+13	6.254967e+03	3.995675e+03	2.625114e+03	0	6.019957e-04
2.800000e+08	4.589924e+12	0.000000e+00	5.524475e-01	1.312281e+14	1.621614e+14	7.763192e+13	6.218458e+03	4.001163e+03	2.628720e+03	0	5.950481e-04
2.900000e+08	4.435834e+12	0.000000e+00	5.524475e-01	1.269480e+14	1.632949e+14	7.722529e+13	6.183153e+03	4.006004e+03	2.631900e+03	0	5.883133e-04
3.000000e+08	4.289737e+12	0.000000e+00	5.524475e-01	1.228895e+14	1.642913e+14	7.682162e+13	6.148989e+03	4.010239e+03	2.634683e+03	0	5.817822e-04
3.100000e+08	4.151108e+12	0.000000e+00	5.524475e-01	1.190378e+14	1.651575e+14	7.642090e+13	6.115907e+03	4.013906e+03	2.637092e+03	0	5.754464e-04
3.200000e+08	4.019458e+12	0.000000e+00	5.524475e-01	1.153797e+14	1.659005e+14	7.602309e+13	6.083852e+03	4.017040e+03	2.639151e+03	0	5.692977e-04
3.300000e+08	3.894341e+12	0.000000e+00	5.524475e-01	1.119026e+14	1.665269e+14	7.562817e+13	6.052775e+03	4.019674e+03	2.640881e+03	0	5.633283e-04
3.400000e+08	3.775339e+12	0.000000e+00	5.524475e-01	1.085950e+14	1.670433e+14	7.523612e+13	6.022625e+03	4.021840e+03	2.642304e+03	0	5.575308e-04
3.500000e+08	3.662070e+12	0.000000e+00	5.524475e-01	1.054464e+14	1.674559e+14	7.484691e+13	5.993359e+03	4.023567e+03	2.643439e+03	0	5.518984e-04
3.600000e+08	3.554178e+12	0.000000e+00	5.524475e-01	1.024469e+14	1.677709e+14	7.446052e+13	5.964935e+03	4.024883e+03	2.644304e+03	0	5.464243e-04
3.700000e+08	3.451334e+12	0.000000e+00	5.524475e-01	9.958725e+13	1.679939e+14	7.407694e+13	5.937313e+03	4.025814e+03	2.644915e+03	0	5.411021e-04
3.800000e+08	3.353231e+12	0.000000e+00	5.524475e-01	9.685912e+13	1.681306e+14	7.369613e+13	5.910455e+03	4.026385e+03	2.645290e+03	0	5.359259e-04
3.900000e+08	3.259586e+12	0.000000e+00	5.524475e-01	9.425460e+13	1.681864e+14	7.331807e+13	5.884328e+03	4.026617e+03	2.645443e+03	0	5.308898e-04
4.000000e+08	3.170136e+12	0.000000e+00	5.524475e-01	9.176640e+13	1.681664e+14	7.294274e+13	5.858897e+03	4.026534e+03	2.645388e+03	0	5.259884e-04
4.100000e+08	3.084635e+12	0.000000e+00	5.524475e-01	8.938772e+13	1.680754e+14	7.257012e+13	5.834132e+03	4.026154e+03	2.645139e+03	0	5.212165e-04
4.200000e+08	3.002854e+12	0.000000e+00	5.524475e-01	8.711223e+13	1.679181e+14	7.220018e+13	5.810005e+03	4.025498e+03	2.644708e+03	0	5.165690e-04
4.300000e+08	2.924582e+12	0.000000e+00	5.524475e-01	8.493406e+13	1.676990e+14	7.183291e+13	5.786487e+03	4.024583e+03	2.644106e+03	0	5.120411e-04
4.400000e+08	2.849620e+12	0.000000e+00	5.524475e-01	8.284771e+13	1.674222e+14	7.146828e+13	5.763553e+03	4.023426e+03	2.643346e+03	0	5.076284e-04
4.500000e+08	2.777784e+12	0.000000e+00	5.524475e-01	8.084806e+13	1.670917e+14	7.110627e+13	5.741178e+03	4.022043e+03	2.642437e+03	0	5.033264e-04
4.600000e+08	2.708901e+12	0.000000e+00	5.524475e-01	7.893035e+13	1.667114e+14	7.074686e+13	5.719339e+03	4.020448e+03	2.641390e+03	0	4.991311e-04
4.700000e+08	2.642811e+12	0.000000e+00	5.524475e-01	7.709010e+13	1.662847e+14	7.039003e+13	5.698014e+03	4.018656e+03	2.640213e+03	0	4.950384e-04
4.800000e+08	2.579362e+12	0.000000e+00	5.524475e-01	7.532314e+13	1.658151e+14	7.003576e+13	5.677184e+03	4.016680e+03	2.638914e+03	0	4.910446e-04
4.900000e+08	2.518413e+12	0.000000e+00	5.524475e-01	7.362558e+13	1.653058e+14	6.968402e+13	5.656827e+03	4.014532e+03	2.637503e+03	0	4.871461e-04
5.000000e+08	2.459834e+12	0.000000e+00	5.524475e-01	7.199376e+13	1.647597e+14	6.933479e+13	5.636926e+03	4.012224e+03	2.635986e+03	0	4.833394e-04
5.100000e+08	2.403501e+12	0.000000e+00	5.524475e-01	7.042427e+13	1.641798e+14	6.898807e+13	5.617463e+03	4.009766e+03	2.634372e+03	0	4.796211e-04
5.200000e+08	2.349297e+12	0.000000e+00	5.524475e-01	6.891388e+13	1.635686e+14	6.864381e+13	5.598421e+03	4.007169e+03	2.632666e+03	0	4.759882e-04
5.300000e+08	2.297115e+12	0.000000e+00	5.524475e-01	6.745961e+13	1.629288e+14	6.830201e+13	5.579785e+03	4.004443e+03	2.630875e+03	0	4.724376e-04
5.400000e+08	2.246853e+12	0.000000e+00	5.524475e-01	6.605863e+13	1.622627e+14	6.796265e+13	5.561539e+03	4.001597e+03	2.629005e+03	0	4.689664e-04
5.500000e+08	2.198415e+12	0.000000e+00	5.524475e-01	6.470829e+13	1.615726e+14	6.762570e+13	5.543671e+03	3.998638e+03	2.627061e+03	0	4.655719e-04
5.600000e+08	2.151711e+12	0.000000e+00	5.524475e-01	6.340610e+13	1.608605e+14	6.729114e+13	5.526165e+03	3.995576e+03	2.625049e+03	0	4.622514e-04
5.700000e+08	2.106658e+12	0.000000e+00	5.524475e-01	6.214972e+13	1.601284e+14	6.695896e+13	5.509008e+03	3.992418e+03	2.622974e+03	0	4.590023e-04
5.800000e+08	2.063175e+12	0.000000e+00	5.524475e-01	6.093695e+13	1.593782e+14	6.662914e+13	5.492190e+03	3.989170e+03	2.620840e+03	0	4.558223e-04
5.900000e+08	2.021188e+12	0.000000e+00	5.524475e-01	5.976572e+13	1.586117e+14	6.630166e+13	5.475698e+03	3.985840e+03	2.618652e+03	0	4.527090e-04
6.000000e+08	1.980626e+12	0.000000e+00	5.524475e-01	5.863408e+13	1.578303e+14	6.597649e+13	5.459521e+03	3.982433e+03	2.616414e+03	0	4.496601e-04
6.100000e+08	1.941423e+12	0.000000e+00	5.524475e-01	5.754018e+13	1.570358e+14	6.565363e+13	5.443648e+03	3.978956e+03	2.614130e+03	0	4.466736e-04
6.200000e+08	1.903517e+12	0.000000e+00	5.524475e-01	5.648230e+13	1.562294e+14	6.533304e+13	5.428070e+03	3.975415e+03	2.611803e+03	0	4.437474e-04
6.300000e+08	1.866849e+12	0.000000e+00	5.524475e-01	5.545879e+13	1.554126e+14	6.501472e+13	5.412776e+03	3.971813e+03	2.609437e+03	0	4.408796e-04
6.400000e+08	1.831363e+12	0.000000e+00	5.524475e-01	5.446812e+13	1.545866e+14	6.469864e+13	5.397758e+03	3.968157e+03	2.607035e+03	0	4.380682e-04
6.500000e+08	1.797005e+12	0.000000e+00	5.524475e-01	5.350881e+13	1.537525e+14	6.438479e+13	5.383007e+03	3.964451e+03	2.604600e+03	0	4.353114e-04
6.600000e+08	1.763728e+12	0.000000e+00	5.524475e-01	5.257951e+13	1.529115e+14	6.407315e+13	5.368513e+03	3.960699e+03	2.602135e+03	0	4.326075e-04
6.700000e+08	1.731482e+12	0.000000e+00	5.524475e-01	5.167888e+13	1.520646e+14	6.376370e+13	5.354270e+03	3.956905e+03	2.599643e+03	0	4.299549e-04
6.800000e+08	1.700225e+12	0.000000e+00	5.524475e-01	5.080572e+13	1.512128e+14	6.345643e+13	5.340270e+03	3.953074e+03	2.597125e+03	0	4.273520e-04
6.900000e+08	1.669914e+12	0.000000e+00	5.524475e-01	4.995884e+13	1.503568e+14	6.315130e+13	5.326504e+03	3.949208e+03	2.594586e+03	0	4.247972e-04
7.000000e+08	1.640509e+12	0.000000e+00	5.524475e-01	4.913715e+13	1.494977e+14	6.284832e+13	5.312967e+03	3.945311e+03	2.592025e+03	0	4.222890e-04
7.100000e+08	1.611972e+12	0.000000e+00	5.524475e-01	4.833959e+13	1.486360e+14	6.254746e+13	5.299651e+03	3.941386e+03	2.589447e+03	0	4.198261e-04
7.200000e+08	1.584267e+12	0.000000e+00	5.524475e-01	4.756517e+13	1.477726e+14	6.224870e+13	5.286551e+03	3.937437e+03	2.586852e+03	0	4.174070e-04
7.300000e+08	1.557361e+12	0.000000e+00	5.524475e-01	4.681294e+13	1.469082e+14	6.195203e+13	5.273658e+03	3.933465e+03	2.584243e+03	0	4.150305e-04
7.400000e+08	1.531221e+12	0.000000e+00	5.524475e-01	4.608202e+13	1.460433e+14	6.165744e+13	5.260969e+03	3.929475e+03	2.581621e+03	0	4.126953e-04
7.500000e+08	1.505817e+12	0.000000e+00	5.524475e-01	4.537155e+13	1.451785e+14	6.136489e+13	5.248477e+03	3.925467e+03	2.578988e+03	0	4.104003e-04
7.600000e+08	1.481120e+12	0.000000e+00	5.524475e-01	4.468073e+13	1.443143e+14	6.107438e+13	5.236176e+03	3.921445e+03	2.576346e+03	0	4.081442e-04
7.700000e+08	1.457101e+12	0.000000e+00	5.524475e-01	4.400879e+13	1.434514e+14	6.078590e+13	5.224061e+03	3.917411e+03	2.573695e+03	0	4.059259e-04
7.800000e+08	1.433735e+12	0.000000e+00	5.524475e-01	4.335500e+13	1.425900e+14	6.049942e+13	5.212128e+03	3.913366e+03	2.571038e+03	0	4.037444e-04
7.900000e+08	1.410996e+12	0.000000e+00	5.524475e-01	4.271866e+13	1.417307e+14	6.021493e+13	5.200371e+03	3.909313e+03	2.568376e+03	0	4.015986e-04
8.000000e+08	1.388861e+12	0.000000e+00	5.524475e-01	4.209912e+13	1.408739e+14	5.993241e+13	5.188786e+03	3.905254e+03	2.565709e+03	0	3.994875e-04
8.100000e+08	1.367307e+12	0.000000e+00	5.524475e-01	4.149575e+13	1.400198e+14	5.965185e+13	5.177367e+03	3.901190e+03	2.563038e+03	0	3.974102e-04
8.200000e+08	1.346313e+12	0.000000e+00	5.524475e-01	4.090794e+13	1.391689e+14	5.937323e+13	5.166112e+03	3.897122e+03	2.560366e+03	0	3.953657e-04
8.300000e+08	1.325858e+12	0.000000e+00	5.524475e-01	4.033513e+13	1.383215e+14	5.909654e+13	5.155015e+03	3.893053e+03	2.557693e+03	0	3.933531e-04
8.400000e+08	1.305923e+12	0.000000e+00	5.524475e-01	3.977678e+13	1.374778e+14	5.882176e+13	5.144073e+03	3.888984e+03	2.555019e+03	0	3.913717e-04
8.500000e+08	1.286488e+12	0.000000e+00	5.524475e-01	3.923235e+13	1.366381e+14	5.854887e+13	5.133282e+03	3.884916e+03	2.552346e+03	0	3.894205e-04
8.600000e+08	1.267535e+12	0.000000e+00	5.524475e-01	3.870137e+13	1.358026e+14	5.827787e+13	5.122637e+03	3.880849e+03	2.549675e+03	0	3.874987e-04
8.700000e+08	1.249049e+12	0.000000e+00	5.524475e-01	3.818335e+13	1.349716e+14	5.800873e+13	5.112136e+03	3.876786e+03	2.547006e+03	0	3.856056e-04
8.800000e+08	1.231012e+12	0.000000e+00	5.524475e-01	3.767784e+13	1.341453e+14	5.774144e+13	5.101775e+03	3.872728e+03	2.544339e+03	0	3.837405e-04
8.900000e+08	1.213409e+12	0.000000e+00	5.524475e-01	3.718441e+13	1.333237e+14	5.747599e+13	5.091550e+03	3.868675e+03	2.541677e+03	0	3.819026e-04
9.000000e+08	1.196225e+12	0.000000e+00	5.524475e-01	3.670264e+13	1.325072e+14	5.721236e+13	5.081458e+03	3.864629e+03	2.539018e+03	0	3.800912e-04
9.100000e+08	1.179446e+12	0.000000e+00	5.524475e-01	3.623215e+13	1.316959e+14	5.695054e+13	5.071497e+03	3.860590e+03	2.536365e+03	0	3.783057e-04
9.200000e+08	1.163058e+12	0.000000e+00	5.524475e-01	3.577255e+13	1.308898e+14	5.669051e+13	5.061662e+03	3.856559e+03	2.533716e+03	0	3.765454e-04
9.300000e+08	1.147048e+12	0.000000e+00	5.524475e-01	3.532349e+13	1.300892e+14	5.643226e+13	5.051952e+03	3.852537e+03	2.531074e+03	0	3.748096e-04
9.400000e+08	1.131404e+12	0.000000e+00	5.524475e-01	3.488461e+13	1.292941e+14	5.617577e+13	5.042363e+03	3.848524e+03	2.528438e+03	0	3.730979e-04
9.500000e+08	1.116114e+12	0.000000e+00	5.524475e-01	3.445559e+13	1.285046e+14	5.592104e+13	5.032893e+03	3.844522e+03	2.525808e+03	0	3.714095e-04
9.600000e+08	1.101166e+12	0.000000e+00	5.524475e-01	3.403610e+13	1.277208e+14	5.566804e+13	5.023538e+03	3.840531e+03	2.523186e+03	0	3.697440e-04
9.700000e+08	1.086550e+12	0.000000e+00	5.524475e-01	3.362584e+13	1.269428e+14	5.541677e+13	5.014297e+03	3.836552e+03	2.520572e+03	0	3.681008e-04
9.800000e+08	1.072254e+12	0.000000e+00	5.524475e-01	3.322453e+13	1.261706e+14	5.516720e+13	5.005167e+03	3.832584e+03	2.517965e+03	0	3.664793e-04
9.900000e+08	1.058269e+12	0.000000e+00	5.524475e-01	3.283187e+13	1.254043e+14	5.491934e+13	4.996145e+03	3.828629e+03	2.515367e+03	0	3.648791e-04
1.000000e+09	1.044586e+12	0.000000e+00	5.524475e-01	3.244761e+13	1.246440e+14	5.467315e+13	4.987229e+03	3.824687e+03	2.512777e+03	0	3.632996e-04
1.010000e+09	1.031194e+12	0.000000e+00	5.524475e-01	3.207148e+13	1.238897e+14	5.442863e+13	4.978418e+03	3.820758e+03	2.510196e+03	0	3.617404e-04
1.020000e+09	1.018085e+12	0.000000e+00	5.524475e-01	3.170323e+13	1.231413e+14	5.418577e+13	4.969708e+03	3.816844e+03	2.507624e+03	0	3.602010e-04
1.030000e+09	1.005250e+12	0.000000e+00	5.524475e-01	3.134263e+13	1.223991e+14	5.394456e+13	4.961097e+03	3.812943e+03	2.505061e+03	0	3.586809e-04
1.040000e+09	9.926817e+11	0.000000e+00	5.524475e-01	3.098944e+13	1.216628e+14	5.370497e+13	4.952584e+03	3.809058e+03	2.502509e+03	0	3.571798e-04
1.050000e+09	9.803714e+11	0.000000e+00	5.524475e-01	3.064345e+13	1.209327e+14	5.346700e+13	4.944166e+03	3.805187e+03	2.499965e+03	0	3.556972e-04
1.060000e+09	9.683115e+11	0.000000e+00	5.524475e-01	3.030445e+13	1.202086e+14	5.323064e+13	4.935842e+03	3.801331e+03	2.497432e+03	0	3.542327e-04
1.070000e+09	9.564949e+11	0.000000e+00	5.524475e-01	2.997223e+13	1.194906e+14	5.299587e+13	4.927610e+03	3.797490e+03	2.494909e+03	0	3.527858e-04
1.080000e+09	9.449145e+11	0.000000e+00	5.524475e-01	2.964660e+13	1.187788e+14	5.276268e+13	4.919468e+03	3.793666e+03	2.492396e+03	0	3.513563e-04
1.090000e+09	9.335634e+11	0.000000e+00	5.524475e-01	2.932736e+13	1.180729e+14	5.253106e+13	4.911413e+03	3.789857e+03	2.489894e+03	0	3.499437e-04
1.100000e+09	9.224352e+11	0.000000e+00	5.524475e-01	2.901434e+13	1.173732e+14	5.230099e+13	4.903445e+03	3.786064e+03	2.487402e+03	0	3.485477e-04
1.110000e+09	9.115236e+11	0.000000e+00	5.524475e-01	2.870736e+13	1.166795e+14	5.207246e+13	4.895562e+03	3.782288e+03	2.484921e+03	0	3.471679e-04
1.120000e+09	9.008225e+11	0.000000e+00	5.524475e-01	2.840625e+13	1.159918e+14	5.184547e+13	4.887762e+03	3.778528e+03	2.482451e+03	0	3.458040e-04
1.130000e+09	8.903260e+11	0.000000e+00	5.524475e-01	2.811085e+13	1.153102e+14	5.161999e+13	4.880043e+03	3.774785e+03	2.479992e+03	0	3.444556e-04
1.140000e+09	8.800286e+11	0.000000e+00	5.524475e-01	2.782101e+13	1.146345e+14	5.139603e+13	4.872404e+03	3.771058e+03	2.477543e+03	0	3.431225e-04
1.150000e+09	8.699247e+11	0.000000e+00	5.524475e-01	2.753656e+13	1.139648e+14	5.117355e+13	4.864844e+03	3.767348e+03	2.475106e+03	0	3.418043e-04
1.160000e+09	8.600093e+11	0.000000e+00	5.524475e-01	2.725738e+13	1.133010e+14	5.095257e+13	4.857360e+03	3.763655e+03	2.472680e+03	0	3.405007e-04
1.170000e+09	8.502771e+11	0.000000e+00	5.524475e-01	2.698331e+13	1.126432e+14	5.073305e+13	4.849952e+03	3.759979e+03	2.470265e+03	0	3.392114e-04
1.180000e+09	8.407234e+11	0.000000e+00	5.524475e-01	2.671422e+13	1.119912e+14	5.051499e+13	4.842618e+03	3.756320e+03	2.467861e+03	0	3.379361e-04
1.190000e+09	8.313434e+11	0.000000e+00	5.524475e-01	2.644997e+13	1.113450e+14	5.029839e+13	4.835358e+03	3.752679e+03	2.465468e+03	0	3.366746e-04
1.200000e+09	8.221325e+11	0.000000e+00	5.524475e-01	2.619046e+13	1.107046e+14	5.008322e+13	4.828168e+03	3.749054e+03	2.463087e+03	0	3.354266e-04
1.210000e+09	8.130865e+11	0.000000e+00	5.524475e-01	2.593554e+13	1.100700e+14	4.986948e+13	4.821049e+03	3.745447e+03	2.460717e+03	0	3.341918e-04
1.220000e+09	8.042009e+11	0.000000e+00	5.524475e-01	2.568510e+13	1.094411e+14	4.965715e+13	4.813999e+03	3.741857e+03	2.458358e+03	0	3.329700e-04
1.230000e+09	7.954718e+11	0.000000e+00	5.524475e-01	2.543904e+13	1.088179e+14	4.944623e+13	4.807017e+03	3.738284e+03	2.456011e+03	0	3.317609e-04
1.240000e+09	7.868952e+11	0.000000e+00	5.524475e-01	2.519723e+13	1.082003e+14	4.923671e+13	4.800101e+03	3.734729e+03	2.453675e+03	0	3.305642e-04
1.250000e+09	7.784672e+11	0.000000e+00	5.524475e-01	2.495957e+13	1.075882e+14	4.902856e+13	4.793251e+03	3.731191e+03	2.451351e+03	0	3.293798e-04
1.260000e+09	7.701841e+11	0.000000e+00	5.524475e-01	2.472596e+13	1.069818e+14	4.882179e+13	4.786465e+03	3.727670e+03	2.449038e+03	0	3.282074e-04
1.270000e+09	7.620423e+11	0.000000e+00	5.524475e-01	2.449629e+13	1.063808e+14	4.861638e+13	4.779742e+03	3.724166e+03	2.446736e+03	0	3.270468e-04
1.280000e+09	7.540384e+11	0.000000e+00	5.524475e-01	2.427048e+13	1.057852e+14	4.841233e+13	4.773082e+03	3.720680e+03	2.444446e+03	0	3.258978e-04
1.290000e+09	7.461690e+11	0.000000e+00	5.524475e-01	2.404843e+13	1.051951e+14	4.820961e+13	4.766483e+03	3.717211e+03	2.442166e+03	0	3.247601e-04
1.300000e+09	7.384308e+11	0.000000e+00	5.524475e-01	2.383004e+13	1.046103e+14	4.800822e+13	4.759944e+03	3.713759e+03	2.439899e+03	0	3.236335e-04
1.310000e+09	7.308207e+11	0.000000e+00	5.524475e-01	2.361524e+13	1.040308e+14	4.780816e+13	4.753464e+03	3.710325e+03	2.437642e+03	0	3.225179e-04
1.320000e+09	7.233357e+11	0.000000e+00	5.524475e-01	2.340392e+13	1.034566e+14	4.760940e+13	4.747042e+03	3.706907e+03	2.435397e+03	0	3.214131e-04
1.330000e+09	7.159727e+11	0.000000e+00	5.524475e-01	2.319602e+13	1.028876e+14	4.741195e+13	4.740677e+03	3.703507e+03	2.433163e+03	0	3.203188e-04
1.340000e+09	7.087289e+11	0.000000e+00	5.524475e-01	2.299145e+13	1.023238e+14	4.721578e+13	4.734369e+03	3.700124e+03	2.430940e+03	0	3.192348e-04
1.350000e+09	7.016015e+11	0.000000e+00	5.524475e-01	2.279014e+13	1.017650e+14	4.702090e+13	4.728116e+03	3.696757e+03	2.428729e+03	0	3.181611e-04
1.360000e+09	6.945879e+11	0.000000e+00	5.524475e-01	2.259200e+13	1.012113e+14	4.682728e+13	4.721918e+03	3.693408e+03	2.426528e+03	0	3.170974e-04
