#t		Qconv[W]	Ri[Rp]		R*[Rp]		Qc[W]		Qm[W]		Qr[W]		Tcmb[K]		Tl[K]		Tup[K]		RiFlag		Bs[T]
0.000000e+00	7.536024e+13	0.000000e+00	5.524475e-01	1.332977e+15	6.949019e+13	1.790436e+14	1.185878e+04	4.147634e+03	2.438802e+03	0	1.454069e-03
1.000000e+07	7.159954e+13	0.000000e+00	5.524475e-01	1.267781e+15	7.894721e+13	1.780516e+14	1.169827e+04	4.228105e+03	2.486119e+03	0	1.429468e-03
2.000000e+07	6.809589e+13	0.000000e+00	5.524475e-01	1.207032e+15	8.877609e+13	1.770669e+14	1.154547e+04	4.304330e+03	2.530940e+03	0	1.405761e-03
3.000000e+07	6.482651e+13	0.000000e+00	5.524475e-01	1.150336e+15	9.891526e+13	1.760897e+14	1.139986e+04	4.376541e+03	2.573399e+03	0	1.382893e-03
4.000000e+07	6.177116e+13	0.000000e+00	5.524475e-01	1.097342e+15	1.093039e+14	1.751197e+14	1.126098e+04	4.444948e+03	2.613623e+03	0	1.360817e-03
5.000000e+07	5.891184e+13	0.000000e+00	5.524475e-01	1.047741e+15	1.198825e+14	1.741570e+14	1.112838e+04	4.509747e+03	2.651724e+03	0	1.339487e-03
6.000000e+07	5.623245e+13	0.000000e+00	5.524475e-01	1.001253e+15	1.305941e+14	1.732015e+14	1.100169e+04	4.571119e+03	2.687811e+03	0	1.318864e-03
7.000000e+07	5.371859e+13	0.000000e+00	5.524475e-01	9.576301e+14	1.413838e+14	1.722530e+14	1.088053e+04	4.629233e+03	2.721982e+03	0	1.298911e-03
8.000000e+07	5.135731e+13	0.000000e+00	5.524475e-01	9.166484e+14	1.521999e+14	1.713116e+14	1.076456e+04	4.684247e+03	2.754330e+03	0	1.279593e-03
9.000000e+07	4.913695e+13	0.000000e+00	5.524475e-01	8.781061e+14	1.629941e+14	1.703773e+14	1.065349e+04	4.736308e+03	2.784942e+03	0	1.260880e-03
1.000000e+08	4.704695e+13	0.000000e+00	5.524475e-01	8.418209e+14	1.737215e+14	1.694498e+14	1.054703e+04	4.785558e+03	2.813901e+03	0	1.242744e-03
1.100000e+08	4.507776e+13	0.000000e+00	5.524475e-01	8.076276e+14	1.843406e+14	1.685293e+14	1.044490e+04	4.832126e+03	2.841283e+03	0	1.225157e-03
1.200000e+08	4.322071e+13	0.000000e+00	5.524475e-01	7.753762e+14	1.948137e+14	1.676155e+14	1.034686e+04	4.876138e+03	2.867162e+03	0	1.208097e-03
1.300000e+08	4.146790e+13	0.000000e+00	5.524475e-01	7.449300e+14	2.051068e+14	1.667086e+14	1.025269e+04	4.917712e+03	2.891607e+03	0	1.191539e-03
1.400000e+08	3.981211e+13	0.000000e+00	5.524475e-01	7.161642e+14	2.151895e+14	1.658083e+14	1.016218e+04	4.956961e+03	2.914685e+03	0	1.175464e-03
1.500000e+08	3.824674e+13	0.000000e+00	5.524475e-01	6.889648e+14	2.250347e+14	1.649147e+14	1.007511e+04	4.993990e+03	2.936459e+03	0	1.159852e-03
1.600000e+08	3.676574e+13	0.000000e+00	5.524475e-01	6.632271e+14	2.346192e+14	1.640277e+14	9.991310e+03	5.028904e+03	2.956988e+03	0	1.144684e-03
1.700000e+08	3.536357e+13	0.000000e+00	5.524475e-01	6.388549e+14	2.439225e+14	1.631472e+14	9.910606e+03	5.061798e+03	2.976329e+03	0	1.129943e-03
1.800000e+08	3.403509e+13	0.000000e+00	5.524475e-01	6.157599e+14	2.529277e+14	1.622733e+14	9.832833e+03	5.092765e+03	2.994538e+03	0	1.115612e-03
1.900000e+08	3.277561e+13	0.000000e+00	5.524475e-01	5.938603e+14	2.616206e+14	1.614057e+14	9.757841e+03	5.121896e+03	3.011667e+03	0	1.101678e-03
2.000000e+08	3.158076e+13	0.000000e+00	5.524475e-01	5.730808e+14	2.699897e+14	1.605446e+14	9.685488e+03	5.149274e+03	3.027765e+03	0	1.088125e-03
2.100000e+08	3.044652e+13	0.000000e+00	5.524475e-01	5.533519e+14	2.780265e+14	1.596898e+14	9.615639e+03	5.174982e+03	3.042882e+03	0	1.074939e-03
2.200000e+08	2.936917e+13	0.000000e+00	5.524475e-01	5.346089e+14	2.857243e+14	1.588412e+14	9.548171e+03	5.199097e+03	3.057061e+03	0	1.062107e-03
2.300000e+08	2.834523e+13	0.000000e+00	5.524475e-01	5.167919e+14	2.930789e+14	1.579989e+14	9.482965e+03	5.221694e+03	3.070348e+03	0	1.049617e-03
2.400000e+08	2.737150e+13	0.000000e+00	5.524475e-01	4.998454e+14	3.000881e+14	1.571628e+14	9.419910e+03	5.242844e+03	3.082784e+03	0	1.037458e-03
2.500000e+08	2.644499e+13	0.000000e+00	5.524475e-01	4.837175e+14	3.067513e+14	1.563328e+14	9.358903e+03	5.262616e+03	3.094410e+03	0	1.025618e-03
2.600000e+08	2.556293e+13	0.000000e+00	5.524475e-01	4.683603e+14	3.130698e+14	1.555089e+14	9.299846e+03	5.281075e+03	3.105264e+03	0	1.014086e-03
2.700000e+08	2.472271e+13	0.000000e+00	5.524475e-01	4.537288e+14	3.190462e+14	1.546909e+14	9.242647e+03	5.298285e+03	3.115384e+03	0	1.002851e-03
2.800000e+08	2.392193e+13	0.000000e+00	5.524475e-01	4.397812e+14	3.246842e+14	1.538790e+14	9.187218e+03	5.314305e+03	3.124803e+03	0	9.919043e-04
2.900000e+08	2.315833e+13	0.000000e+00	5.524475e-01	4.264785e+14	3.299890e+14	1.530730e+14	9.133479e+03	5.329192e+03	3.133557e+03	0	9.812359e-04
3.000000e+08	2.242980e+13	0.000000e+00	5.524475e-01	4.137841e+14	3.349664e+14	1.522729e+14	9.081350e+03	5.343001e+03	3.141677e+03	0	9.708366e-04
3.100000e+08	2.173437e+13	0.000000e+00	5.524475e-01	4.016640e+14	3.396233e+14	1.514786e+14	9.030760e+03	5.355786e+03	3.149194e+03	0	9.606976e-04
3.200000e+08	2.107020e+13	0.000000e+00	5.524475e-01	3.900862e+14	3.439671e+14	1.506900e+14	8.981639e+03	5.367596e+03	3.156138e+03	0	9.508104e-04
3.300000e+08	2.043557e+13	0.000000e+00	5.524475e-01	3.790209e+14	3.480060e+14	1.499072e+14	8.933922e+03	5.378479e+03	3.162538e+03	0	9.411668e-04
3.400000e+08	1.982885e+13	0.000000e+00	5.524475e-01	3.684400e+14	3.517486e+14	1.491301e+14	8.887547e+03	5.388481e+03	3.168419e+03	0	9.317589e-04
3.500000e+08	1.924854e+13	0.000000e+00	5.524475e-01	3.583173e+14	3.552036e+14	1.483587e+14	8.842457e+03	5.397646e+03	3.173808e+03	0	9.225791e-04
3.600000e+08	1.869320e+13	0.000000e+00	5.524475e-01	3.486281e+14	3.583805e+14	1.475928e+14	8.798596e+03	5.406015e+03	3.178729e+03	0	9.136201e-04
3.700000e+08	1.816152e+13	0.000000e+00	5.524475e-01	3.393495e+14	3.612887e+14	1.468325e+14	8.755912e+03	5.413629e+03	3.183206e+03	0	9.048747e-04
3.800000e+08	1.765223e+13	0.000000e+00	5.524475e-01	3.304596e+14	3.639377e+14	1.460776e+14	8.714355e+03	5.420526e+03	3.187261e+03	0	8.963361e-04
3.900000e+08	1.716416e+13	0.000000e+00	5.524475e-01	3.219380e+14	3.663372e+14	1.453283e+14	8.673878e+03	5.426741e+03	3.190916e+03	0	8.879978e-04
4.000000e+08	1.669620e+13	0.000000e+00	5.524475e-01	3.137657e+14	3.684971e+14	1.445843e+14	8.634437e+03	5.432310e+03	3.194190e+03	0	8.798532e-04
4.100000e+08	1.624731e+13	0.000000e+00	5.524475e-01	3.059246e+14	3.704268e+14	1.438457e+14	8.595991e+03	5.437265e+03	3.197104e+03	0	8.718964e-04
4.200000e+08	1.581652e+13	0.000000e+00	5.524475e-01	2.983978e+14	3.721359e+14	1.431124e+14	8.558498e+03	5.441639e+03	3.199675e+03	0	8.641212e-04
4.300000e+08	1.540290e+13	0.000000e+00	5.524475e-01	2.911692e+14	3.736341e+14	1.423844e+14	8.521921e+03	5.445460e+03	3.201922e+03	0	8.565221e-04
4.400000e+08	1.500559e+13	0.000000e+00	5.524475e-01	2.842239e+14	3.749305e+14	1.416617e+14	8.486223e+03	5.448758e+03	3.203862e+03	0	8.490933e-04
4.500000e+08	1.462377e+13	0.000000e+00	5.524475e-01	2.775478e+14	3.760345e+14	1.409441e+14	8.451372e+03	5.451560e+03	3.205509e+03	0	8.418296e-04
4.600000e+08	1.425668e+13	0.000000e+00	5.524475e-01	2.711274e+14	3.769548e+14	1.402317e+14	8.417333e+03	5.453891e+03	3.206880e+03	0	8.347258e-04
4.700000e+08	1.390358e+13	0.000000e+00	5.524475e-01	2.649503e+14	3.777003e+14	1.395244e+14	8.384076e+03	5.455776e+03	3.207988e+03	0	8.277769e-04
4.800000e+08	1.356380e+13	0.000000e+00	5.524475e-01	2.590046e+14	3.782796e+14	1.388222e+14	8.351572e+03	5.457239e+03	3.208848e+03	0	8.209780e-04
4.900000e+08	1.323669e+13	0.000000e+00	5.524475e-01	2.532790e+14	3.787009e+14	1.381250e+14	8.319793e+03	5.458302e+03	3.209473e+03	0	8.143245e-04
5.000000e+08	1.292163e+13	0.000000e+00	5.524475e-01	2.477631e+14	3.789722e+14	1.374328e+14	8.288711e+03	5.458986e+03	3.209875e+03	0	8.078118e-04
5.100000e+08	1.261807e+13	0.000000e+00	5.524475e-01	2.424469e+14	3.791013e+14	1.367455e+14	8.258302e+03	5.459311e+03	3.210067e+03	0	8.014356e-04
5.200000e+08	1.232544e+13	0.000000e+00	5.524475e-01	2.373210e+14	3.790958e+14	1.360631e+14	8.228542e+03	5.459297e+03	3.210059e+03	0	7.951918e-04
5.300000e+08	1.204325e+13	0.000000e+00	5.524475e-01	2.323764e+14	3.789629e+14	1.353856e+14	8.199406e+03	5.458962e+03	3.209862e+03	0	7.890762e-04
5.400000e+08	1.177100e+13	0.000000e+00	5.524475e-01	2.276048e+14	3.787095e+14	1.347129e+14	8.170874e+03	5.458323e+03	3.209486e+03	0	7.830849e-04
5.500000e+08	1.150824e+13	0.000000e+00	5.524475e-01	2.229982e+14	3.783424e+14	1.340451e+14	8.142924e+03	5.457397e+03	3.208941e+03	0	7.772142e-04
5.600000e+08	1.125454e+13	0.000000e+00	5.524475e-01	2.185491e+14	3.778680e+14	1.333819e+14	8.115536e+03	5.456199e+03	3.208237e+03	0	7.714603e-04
5.700000e+08	1.100948e+13	0.000000e+00	5.524475e-01	2.142505e+14	3.772926e+14	1.327235e+14	8.088691e+03	5.454745e+03	3.207382e+03	0	7.658198e-04
5.800000e+08	1.077267e+13	0.000000e+00	5.524475e-01	2.100955e+14	3.766220e+14	1.320697e+14	8.062371e+03	5.453048e+03	3.206384e+03	0	7.602892e-04
5.900000e+08	1.054375e+13	0.000000e+00	5.524475e-01	2.060777e+14	3.758620e+14	1.314206e+14	8.036559e+03	5.451122e+03	3.205252e+03	0	7.548653e-04
6.000000e+08	1.032238e+13	0.000000e+00	5.524475e-01	2.021912e+14	3.750179e+14	1.307761e+14	8.011237e+03	5.448980e+03	3.203992e+03	0	7.495449e-04
6.100000e+08	1.010822e+13	0.000000e+00	5.524475e-01	1.984303e+14	3.740951e+14	1.301361e+14	7.986390e+03	5.446634e+03	3.202612e+03	0	7.443249e-04
6.200000e+08	9.900949e+12	0.000000e+00	5.524475e-01	1.947894e+14	3.730984e+14	1.295006e+14	7.962002e+03	5.444095e+03	3.201120e+03	0	7.392023e-04
6.300000e+08	9.700284e+12	0.000000e+00	5.524475e-01	1.912634e+14	3.720325e+14	1.288697e+14	7.938060e+03	5.441375e+03	3.199520e+03	0	7.341743e-04
6.400000e+08	9.505939e+12	0.000000e+00	5.524475e-01	1.878476e+14	3.709021e+14	1.282432e+14	7.914548e+03	5.438483e+03	3.197820e+03	0	7.292382e-04
6.500000e+08	9.317648e+12	0.000000e+00	5.524475e-01	1.845371e+14	3.697113e+14	1.276211e+14	7.891454e+03	5.435431e+03	3.196025e+03	0	7.243912e-04
6.600000e+08	9.135157e+12	0.000000e+00	5.524475e-01	1.813277e+14	3.684645e+14	1.270033e+14	7.868764e+03	5.432226e+03	3.194141e+03	0	7.196308e-04
6.700000e+08	8.958225e+12	0.000000e+00	5.524475e-01	1.782152e+14	3.671652e+14	1.263900e+14	7.846467e+03	5.428879e+03	3.192173e+03	0	7.149544e-04
6.800000e+08	8.786623e+12	0.000000e+00	5.524475e-01	1.751955e+14	3.658175e+14	1.257809e+14	7.824551e+03	5.425397e+03	3.190125e+03	0	7.103598e-04
6.900000e+08	8.620135e+12	0.000000e+00	5.524475e-01	1.722649e+14	3.644246e+14	1.251761e+14	7.803004e+03	5.421789e+03	3.188004e+03	0	7.058446e-04
7.000000e+08	8.458553e+12	0.000000e+00	5.524475e-01	1.694198e+14	3.629900e+14	1.245755e+14	7.781815e+03	5.418063e+03	3.185813e+03	0	7.014065e-04
7.100000e+08	8.301682e+12	0.000000e+00	5.524475e-01	1.666569e+14	3.615169e+14	1.239792e+14	7.760975e+03	5.414225e+03	3.183556e+03	0	6.970433e-04
7.200000e+08	8.149334e+12	0.000000e+00	5.524475e-01	1.639728e+14	3.600081e+14	1.233870e+14	7.740472e+03	5.410282e+03	3.181238e+03	0	6.927530e-04
7.300000e+08	8.001332e+12	0.000000e+00	5.524475e-01	1.613645e+14	3.584667e+14	1.227989e+14	7.720298e+03	5.406242e+03	3.178862e+03	0	6.885336e-04
7.400000e+08	7.857506e+12	0.000000e+00	5.524475e-01	1.588290e+14	3.568955e+14	1.222150e+14	7.700443e+03	5.402110e+03	3.176432e+03	0	6.843831e-04
7.500000e+08	7.717694e+12	0.000000e+00	5.524475e-01	1.563636e+14	3.552967e+14	1.216351e+14	7.680899e+03	5.397892e+03	3.173952e+03	0	6.802996e-04
7.600000e+08	7.581744e+12	0.000000e+00	5.524475e-01	1.539655e+14	3.536730e+14	1.210593e+14	7.661656e+03	5.393594e+03	3.171425e+03	0	6.762814e-04
7.700000e+08	7.449508e+12	0.000000e+00	5.524475e-01	1.516322e+14	3.520266e+14	1.204875e+14	7.642707e+03	5.389221e+03	3.168854e+03	0	6.723265e-04
7.800000e+08	7.320847e+12	0.000000e+00	5.524475e-01	1.493613e+14	3.503596e+14	1.199196e+14	7.624044e+03	5.384778e+03	3.166241e+03	0	6.684334e-04
7.900000e+08	7.195628e+12	0.000000e+00	5.524475e-01	1.471505e+14	3.486742e+14	1.193557e+14	7.605659e+03	5.380270e+03	3.163591e+03	0	6.646004e-04
8.000000e+08	7.073723e+12	0.000000e+00	5.524475e-01	1.449975e+14	3.469723e+14	1.187957e+14	7.587544e+03	5.375702e+03	3.160905e+03	0	6.608259e-04
8.100000e+08	6.955012e+12	0.000000e+00	5.524475e-01	1.429003e+14	3.452558e+14	1.182396e+14	7.569693e+03	5.371078e+03	3.158186e+03	0	6.571084e-04
8.200000e+08	6.839378e+12	0.000000e+00	5.524475e-01	1.408568e+14	3.435262e+14	1.176873e+14	7.552100e+03	5.366402e+03	3.155436e+03	0	6.534463e-04
8.300000e+08	6.726711e+12	0.000000e+00	5.524475e-01	1.388651e+14	3.417854e+14	1.171389e+14	7.534756e+03	5.361678e+03	3.152659e+03	0	6.498383e-04
8.400000e+08	6.616905e+12	0.000000e+00	5.524475e-01	1.369234e+14	3.400347e+14	1.165942e+14	7.517657e+03	5.356909e+03	3.149855e+03	0	6.462829e-04
8.500000e+08	6.509859e+12	0.000000e+00	5.524475e-01	1.350299e+14	3.382758e+14	1.160533e+14	7.500795e+03	5.352100e+03	3.147027e+03	0	6.427789e-04
8.600000e+08	6.405476e+12	0.000000e+00	5.524475e-01	1.331829e+14	3.365099e+14	1.155161e+14	7.484166e+03	5.347253e+03	3.144177e+03	0	6.393248e-04
8.700000e+08	6.303665e+12	0.000000e+00	5.524475e-01	1.313809e+14	3.347382e+14	1.149827e+14	7.467763e+03	5.342372e+03	3.141307e+03	0	6.359194e-04
8.800000e+08	6.204336e+12	0.000000e+00	5.524475e-01	1.296223e+14	3.329622e+14	1.144529e+14	7.451581e+03	5.337459e+03	3.138418e+03	0	6.325616e-04
8.900000e+08	6.107405e+12	0.000000e+00	5.524475e-01	1.279056e+14	3.311828e+14	1.139267e+14	7.435614e+03	5.332518e+03	3.135513e+03	0	6.292501e-04
9.000000e+08	6.012791e+12	0.000000e+00	5.524475e-01	1.262294e+14	3.294012e+14	1.134041e+14	7.419858e+03	5.327551e+03	3.132592e+03	0	6.259838e-04
9.100000e+08	5.920417e+12	0.000000e+00	5.524475e-01	1.245923e+14	3.276184e+14	1.128852e+14	7.404308e+03	5.322561e+03	3.129658e+03	0	6.227616e-04
9.200000e+08	5.830207e+12	0.000000e+00	5.524475e-01	1.229932e+14	3.258353e+14	1.123697e+14	7.388958e+03	5.317550e+03	3.126712e+03	0	6.195824e-04
9.300000e+08	5.742092e+12	0.000000e+00	5.524475e-01	1.214306e+14	3.240528e+14	1.118579e+14	7.373804e+03	5.312521e+03	3.123754e+03	0	6.164451e-04
9.400000e+08	5.656002e+12	0.000000e+00	5.524475e-01	1.199035e+14	3.222717e+14	1.113495e+14	7.358842e+03	5.307475e+03	3.120787e+03	0	6.133489e-04
9.500000e+08	5.571872e+12	0.000000e+00	5.524475e-01	1.184107e+14	3.204928e+14	1.108445e+14	7.344067e+03	5.302415e+03	3.117812e+03	0	6.102926e-04
9.600000e+08	5.489640e+12	0.000000e+00	5.524475e-01	1.169511e+14	3.187169e+14	1.103431e+14	7.329476e+03	5.297343e+03	3.114830e+03	0	6.072754e-04
9.700000e+08	5.409244e+12	0.000000e+00	5.524475e-01	1.155237e+14	3.169447e+14	1.098450e+14	7.315063e+03	5.292261e+03	3.111841e+03	0	6.042963e-04
9.800000e+08	5.330628e+12	0.000000e+00	5.524475e-01	1.141274e+14	3.151766e+14	1.093503e+14	7.300826e+03	5.287170e+03	3.108848e+03	0	6.013544e-04
9.900000e+08	5.253735e+12	0.000000e+00	5.524475e-01	1.127612e+14	3.134135e+14	1.088590e+14	7.286760e+03	5.282072e+03	3.105850e+03	0	5.984490e-04
1.000000e+09	5.178513e+12	0.000000e+00	5.524475e-01	1.114244e+14	3.116557e+14	1.083710e+14	7.272861e+03	5.276968e+03	3.102849e+03	0	5.955790e-04
1.010000e+09	5.104909e+12	0.000000e+00	5.524475e-01	1.101158e+14	3.099040e+14	1.078863e+14	7.259127e+03	5.271861e+03	3.099846e+03	0	5.927439e-04
1.020000e+09	5.032875e+12	0.000000e+00	5.524475e-01	1.088348e+14	3.081587e+14	1.074050e+14	7.245553e+03	5.266751e+03	3.096842e+03	0	5.899426e-04
1.030000e+09	4.962363e+12	0.000000e+00	5.524475e-01	1.075805e+14	3.064202e+14	1.069268e+14	7.232137e+03	5.261641e+03	3.093837e+03	0	5.871746e-04
1.040000e+09	4.893328e+12	0.000000e+00	5.524475e-01	1.063520e+14	3.046890e+14	1.064519e+14	7.218874e+03	5.256530e+03	3.090832e+03	0	5.844390e-04
1.050000e+09	4.825726e+12	0.000000e+00	5.524475e-01	1.051487e+14	3.029655e+14	1.059802e+14	7.205762e+03	5.251421e+03	3.087828e+03	0	5.817351e-04
1.060000e+09	4.759514e+12	0.000000e+00	5.524475e-01	1.039697e+14	3.012501e+14	1.055117e+14	7.192798e+03	5.246315e+03	3.084825e+03	0	5.790623e-04
1.070000e+09	4.694653e+12	0.000000e+00	5.524475e-01	1.028144e+14	2.995430e+14	1.050464e+14	7.179979e+03	5.241212e+03	3.081825e+03	0	5.764198e-04
1.080000e+09	4.631103e+12	0.000000e+00	5.524475e-01	1.016821e+14	2.978446e+14	1.045842e+14	7.167302e+03	5.236114e+03	3.078827e+03	0	5.738070e-04
1.090000e+09	4.568826e+12	0.000000e+00	5.524475e-01	1.005722e+14	2.961552e+14	1.041250e+14	7.154763e+03	5.231022e+03	3.075833e+03	0	5.712233e-04
1.100000e+09	4.507786e+12	0.000000e+00	5.524475e-01	9.948389e+13	2.944751e+14	1.036690e+14	7.142361e+03	5.225936e+03	3.072842e+03	0	5.686680e-04
1.110000e+09	4.447948e+12	0.000000e+00	5.524475e-01	9.841672e+13	2.928043e+14	1.032160e+14	7.130093e+03	5.220857e+03	3.069856e+03	0	5.661406e-04
1.120000e+09	4.389279e+12	0.000000e+00	5.524475e-01	9.737006e+13	2.911433e+14	1.027661e+14	7.117955e+03	5.215787e+03	3.066875e+03	0	5.636404e-04
1.130000e+09	4.331746e+12	0.000000e+00	5.524475e-01	9.634334e+13	2.894921e+14	1.023192e+14	7.105946e+03	5.210726e+03	3.063899e+03	0	5.611669e-04
1.140000e+09	4.275318e+12	0.000000e+00	5.524475e-01	9.533601e+13	2.878511e+14	1.018752e+14	7.094064e+03	5.205675e+03	3.060929e+03	0	5.587195e-04
1.150000e+09	4.219964e+12	0.000000e+00	5.524475e-01	9.434755e+13	2.862202e+14	1.014342e+14	7.082305e+03	5.200634e+03	3.057965e+03	0	5.562978e-04
1.160000e+09	4.165656e+12	0.000000e+00	5.524475e-01	9.337745e+13	2.845996e+14	1.009962e+14	7.070667e+03	5.195604e+03	3.055007e+03	0	5.539010e-04
1.170000e+09	4.112365e+12	0.000000e+00	5.524475e-01	9.242522e+13	2.829897e+14	1.005611e+14	7.059149e+03	5.190585e+03	3.052056e+03	0	5.515289e-04
1.180000e+09	4.060064e+12	0.000000e+00	5.524475e-01	9.149038e+13	2.813903e+14	1.001289e+14	7.047748e+03	5.185579e+03	3.049113e+03	0	5.491808e-04
1.190000e+09	4.008727e+12	0.000000e+00	5.524475e-01	9.057248e+13	2.798017e+14	9.969953e+13	7.036461e+03	5.180586e+03	3.046177e+03	0	5.468563e-04
1.200000e+09	3.958328e+12	0.000000e+00	5.524475e-01	8.967107e+13	2.782239e+14	9.927303e+13	7.025288e+03	5.175606e+03	3.043249e+03	0	5.445549e-04
1.210000e+09	3.908844e+12	0.000000e+00	5.524475e-01	8.878573e+13	2.766570e+14	9.884936e+13	7.014225e+03	5.170640e+03	3.040329e+03	0	5.422761e-04
1.220000e+09	3.860250e+12	0.000000e+00	5.524475e-01	8.791605e+13	2.751010e+14	9.842850e+13	7.003271e+03	5.165688e+03	3.037417e+03	0	5.400196e-04
1.230000e+09	3.812524e+12	0.000000e+00	5.524475e-01	8.706161e+13	2.735561e+14	9.801042e+13	6.992423e+03	5.160751e+03	3.034514e+03	0	5.377849e-04
1.240000e+09	3.765643e+12	0.000000e+00	5.524475e-01	8.622205e+13	2.720223e+14	9.759510e+13	6.981681e+03	5.155828e+03	3.031619e+03	0	5.355715e-04
1.250000e+09	3.719586e+12	0.000000e+00	5.524475e-01	8.539698e+13	2.704996e+14	9.718253e+13	6.971042e+03	5.150921e+03	3.028734e+03	0	5.333790e-04
1.260000e+09	3.674333e+12	0.000000e+00	5.524475e-01	8.458605e+13	2.689880e+14	9.677268e+13	6.960505e+03	5.146030e+03	3.025858e+03	0	5.312071e-04
1.270000e+09	3.629863e+12	0.000000e+00	5.524475e-01	8.378890e+13	2.674876e+14	9.636552e+13	6.950067e+03	5.141155e+03	3.022991e+03	0	5.290554e-04
1.280000e+09	3.586157e+12	0.000000e+00	5.524475e-01	8.300520e+13	2.659983e+14	9.596105e+13	6.939727e+03	5.136296e+03	3.020134e+03	0	5.269234e-04
1.290000e+09	3.543196e+12	0.000000e+00	5.524475e-01	8.223461e+13	2.645203e+14	9.555923e+13	6.929483e+03	5.131454e+03	3.017287e+03	0	5.248108e-04
1.300000e+09	3.500962e+12	0.000000e+00	5.524475e-01	8.147683e+13	2.630534e+14	9.516005e+13	6.919335e+03	5.126629e+03	3.014450e+03	0	5.227173e-04
1.310000e+09	3.459438e+12	0.000000e+00	5.524475e-01	8.073153e+13	2.615978e+14	9.476349e+13	6.909279e+03	5.121820e+03	3.011623e+03	0	5.206425e-04
1.320000e+09	3.418607e+12	0.000000e+00	5.524475e-01	7.999844e+13	2.601533e+14	9.436953e+13	6.899315e+03	5.117029e+03	3.008806e+03	0	5.185860e-04
1.330000e+09	3.378451e+12	0.000000e+00	5.524475e-01	7.927725e+13	2.587199e+14	9.397814e+13	6.889441e+03	5.112256e+03	3.005999e+03	0	5.165475e-04
1.340000e+09	3.338956e+12	0.000000e+00	5.524475e-01	7.856769e+13	2.572977e+14	9.358931e+13	6.879656e+03	5.107500e+03	3.003203e+03	0	5.145267e-04
1.350000e+09	3.300105e+12	0.000000e+00	5.524475e-01	7.786949e+13	2.558866e+14	9.320301e+13	6.869958e+03	5.102762e+03	3.000417e+03	0	5.125233e-04
1.360000e+09	3.261883e+12	0.000000e+00	5.524475e-01	7.718238e+13	2.544865e+14	9.281923e+13	6.860346e+03	5.098043e+03	2.997641e+03	0	5.105370e-04
