#t		Qconv[W]	Ri[Rp]		R*[Rp]		Qc[W]		Qm[W]		Qr[W]		Tcmb[K]		Tl[K]		Tup[K]		RiFlag		Bs[T]
0.000000e+00	3.132975e+13	0.000000e+00	5.422537e-01	5.181827e+14	6.558991e+13	2.497037e+14	1.138391e+04	4.218807e+03	2.613776e+03	0	1.090580e-03
1.000000e+07	3.081288e+13	0.000000e+00	5.422537e-01	5.104666e+14	6.865172e+13	2.483201e+14	1.133779e+04	4.246504e+03	2.630935e+03	0	1.084549e-03
2.000000e+07	3.030598e+13	0.000000e+00	5.422537e-01	5.028982e+14	7.176597e+13	2.469469e+14	1.129235e+04	4.273718e+03	2.647796e+03	0	1.078569e-03
3.000000e+07	2.980881e+13	0.000000e+00	5.422537e-01	4.954739e+14	7.492994e+13	2.455840e+14	1.124758e+04	4.300455e+03	2.664361e+03	0	1.072638e-03
4.000000e+07	2.932111e+13	0.000000e+00	5.422537e-01	4.881899e+14	7.814087e+13	2.442313e+14	1.120346e+04	4.326718e+03	2.680633e+03	0	1.066756e-03
5.000000e+07	2.884266e+13	0.000000e+00	5.422537e-01	4.810429e+14	8.139593e+13	2.428886e+14	1.115999e+04	4.352512e+03	2.696613e+03	0	1.060922e-03
6.000000e+07	2.837323e+13	0.000000e+00	5.422537e-01	4.740295e+14	8.469220e+13	2.415559e+14	1.111715e+04	4.377841e+03	2.712306e+03	0	1.055135e-03
7.000000e+07	2.791261e+13	0.000000e+00	5.422537e-01	4.671466e+14	8.802680e+13	2.402332e+14	1.107494e+04	4.402708e+03	2.727712e+03	0	1.049394e-03
8.000000e+07	2.746057e+13	0.000000e+00	5.422537e-01	4.603910e+14	9.139670e+13	2.389203e+14	1.103333e+04	4.427119e+03	2.742836e+03	0	1.043698e-03
9.000000e+07	2.701693e+13	0.000000e+00	5.422537e-01	4.537598e+14	9.479894e+13	2.376172e+14	1.099232e+04	4.451076e+03	2.757679e+03	0	1.038047e-03
1.000000e+08	2.658149e+13	0.000000e+00	5.422537e-01	4.472502e+14	9.823045e+13	2.363237e+14	1.095189e+04	4.474585e+03	2.772244e+03	0	1.032440e-03
1.100000e+08	2.615406e+13	0.000000e+00	5.422537e-01	4.408594e+14	1.016882e+14	2.350398e+14	1.091205e+04	4.497648e+03	2.786533e+03	0	1.026876e-03
1.200000e+08	2.573447e+13	0.000000e+00	5.422537e-01	4.345847e+14	1.051692e+14	2.337655e+14	1.087277e+04	4.520271e+03	2.800549e+03	0	1.021355e-03
1.300000e+08	2.532253e+13	0.000000e+00	5.422537e-01	4.284237e+14	1.086704e+14	2.325006e+14	1.083404e+04	4.542458e+03	2.814295e+03	0	1.015876e-03
1.400000e+08	2.491809e+13	0.000000e+00	5.422537e-01	4.223737e+14	1.121886e+14	2.312450e+14	1.079586e+04	4.564212e+03	2.827772e+03	0	1.010439e-03
1.500000e+08	2.452098e+13	0.000000e+00	5.422537e-01	4.164325e+14	1.157210e+14	2.299988e+14	1.075822e+04	4.585537e+03	2.840985e+03	0	1.005042e-03
1.600000e+08	2.413104e+13	0.000000e+00	5.422537e-01	4.105977e+14	1.192644e+14	2.287617e+14	1.072110e+04	4.606439e+03	2.853934e+03	0	9.996863e-04
1.700000e+08	2.374812e+13	0.000000e+00	5.422537e-01	4.048671e+14	1.228159e+14	2.275338e+14	1.068450e+04	4.626920e+03	2.866624e+03	0	9.943703e-04
1.800000e+08	2.337208e+13	0.000000e+00	5.422537e-01	3.992385e+14	1.263725e+14	2.263149e+14	1.064840e+04	4.646986e+03	2.879056e+03	0	9.890939e-04
1.900000e+08	2.300277e+13	0.000000e+00	5.422537e-01	3.937098e+14	1.299313e+14	2.251050e+14	1.061281e+04	4.666641e+03	2.891233e+03	0	9.838565e-04
2.000000e+08	2.264006e+13	0.000000e+00	5.422537e-01	3.882790e+14	1.334895e+14	2.239040e+14	1.057770e+04	4.685888e+03	2.903157e+03	0	9.786579e-04
2.100000e+08	2.228381e+13	0.000000e+00	5.422537e-01	3.829441e+14	1.370441e+14	2.227118e+14	1.054308e+04	4.704732e+03	2.914832e+03	0	9.734975e-04
2.200000e+08	2.193389e+13	0.000000e+00	5.422537e-01	3.777032e+14	1.405925e+14	2.215284e+14	1.050893e+04	4.723178e+03	2.926260e+03	0	9.683750e-04
2.300000e+08	2.159017e+13	0.000000e+00	5.422537e-01	3.725544e+14	1.441319e+14	2.203537e+14	1.047525e+04	4.741229e+03	2.937444e+03	0	9.632901e-04
2.400000e+08	2.125254e+13	0.000000e+00	5.422537e-01	3.674960e+14	1.476596e+14	2.191876e+14	1.044202e+04	4.758891e+03	2.948387e+03	0	9.582424e-04
2.500000e+08	2.092088e+13	0.000000e+00	5.422537e-01	3.625261e+14	1.511731e+14	2.180300e+14	1.040924e+04	4.776167e+03	2.959090e+03	0	9.532315e-04
2.600000e+08	2.059506e+13	0.000000e+00	5.422537e-01	3.576430e+14	1.546697e+14	2.168809e+14	1.037690e+04	4.793063e+03	2.969558e+03	0	9.482571e-04
2.700000e+08	2.027498e+13	0.000000e+00	5.422537e-01	3.528450e+14	1.581472e+14	2.157402e+14	1.034500e+04	4.809582e+03	2.979792e+03	0	9.433189e-04
2.800000e+08	1.996053e+13	0.000000e+00	5.422537e-01	3.481307e+14	1.616030e+14	2.146078e+14	1.031352e+04	4.825729e+03	2.989796e+03	0	9.384167e-04
2.900000e+08	1.965159e+13	0.000000e+00	5.422537e-01	3.434982e+14	1.650349e+14	2.134837e+14	1.028246e+04	4.841508e+03	2.999572e+03	0	9.335501e-04
3.000000e+08	1.934807e+13	0.000000e+00	5.422537e-01	3.389462e+14	1.684405e+14	2.123678e+14	1.025181e+04	4.856925e+03	3.009124e+03	0	9.287188e-04
3.100000e+08	1.904985e+13	0.000000e+00	5.422537e-01	3.344730e+14	1.718180e+14	2.112600e+14	1.022156e+04	4.871983e+03	3.018453e+03	0	9.239227e-04
3.200000e+08	1.875685e+13	0.000000e+00	5.422537e-01	3.300772e+14	1.751650e+14	2.101603e+14	1.019171e+04	4.886688e+03	3.027564e+03	0	9.191613e-04
3.300000e+08	1.846897e+13	0.000000e+00	5.422537e-01	3.257574e+14	1.784797e+14	2.090686e+14	1.016225e+04	4.901044e+03	3.036458e+03	0	9.144345e-04
3.400000e+08	1.818610e+13	0.000000e+00	5.422537e-01	3.215121e+14	1.817602e+14	2.079848e+14	1.013318e+04	4.915056e+03	3.045139e+03	0	9.097420e-04
3.500000e+08	1.790816e+13	0.000000e+00	5.422537e-01	3.173400e+14	1.850046e+14	2.069089e+14	1.010448e+04	4.928727e+03	3.053609e+03	0	9.050836e-04
3.600000e+08	1.763505e+13	0.000000e+00	5.422537e-01	3.132397e+14	1.882112e+14	2.058407e+14	1.007615e+04	4.942064e+03	3.061872e+03	0	9.004591e-04
3.700000e+08	1.736669e+13	0.000000e+00	5.422537e-01	3.092099e+14	1.913785e+14	2.047803e+14	1.004819e+04	4.955070e+03	3.069930e+03	0	8.958681e-04
3.800000e+08	1.710299e+13	0.000000e+00	5.422537e-01	3.052493e+14	1.945048e+14	2.037276e+14	1.002059e+04	4.967750e+03	3.077786e+03	0	8.913106e-04
3.900000e+08	1.684385e+13	0.000000e+00	5.422537e-01	3.013567e+14	1.975887e+14	2.026825e+14	9.993335e+03	4.980110e+03	3.085443e+03	0	8.867861e-04
4.000000e+08	1.658921e+13	0.000000e+00	5.422537e-01	2.975306e+14	2.006288e+14	2.016449e+14	9.966428e+03	4.992153e+03	3.092905e+03	0	8.822946e-04
4.100000e+08	1.633897e+13	0.000000e+00	5.422537e-01	2.937701e+14	2.036239e+14	2.006148e+14	9.939861e+03	5.003884e+03	3.100173e+03	0	8.778358e-04
4.200000e+08	1.609306e+13	0.000000e+00	5.422537e-01	2.900738e+14	2.065726e+14	1.995922e+14	9.913628e+03	5.015309e+03	3.107251e+03	0	8.734095e-04
4.300000e+08	1.585139e+13	0.000000e+00	5.422537e-01	2.864406e+14	2.094741e+14	1.985769e+14	9.887724e+03	5.026431e+03	3.114142e+03	0	8.690155e-04
4.400000e+08	1.561389e+13	0.000000e+00	5.422537e-01	2.828693e+14	2.123271e+14	1.975689e+14	9.862143e+03	5.037256e+03	3.120848e+03	0	8.646535e-04
4.500000e+08	1.538048e+13	0.000000e+00	5.422537e-01	2.793589e+14	2.151307e+14	1.965681e+14	9.836879e+03	5.047787e+03	3.127373e+03	0	8.603234e-04
4.600000e+08	1.515109e+13	0.000000e+00	5.422537e-01	2.759081e+14	2.178842e+14	1.955746e+14	9.811928e+03	5.058031e+03	3.133720e+03	0	8.560248e-04
4.700000e+08	1.492565e+13	0.000000e+00	5.422537e-01	2.725159e+14	2.205866e+14	1.945881e+14	9.787283e+03	5.067991e+03	3.139890e+03	0	8.517577e-04
4.800000e+08	1.470407e+13	0.000000e+00	5.422537e-01	2.691813e+14	2.232373e+14	1.936088e+14	9.762940e+03	5.077671e+03	3.145888e+03	0	8.475219e-04
4.900000e+08	1.448629e+13	0.000000e+00	5.422537e-01	2.659032e+14	2.258356e+14	1.926364e+14	9.738894e+03	5.087078e+03	3.151716e+03	0	8.433169e-04
5.000000e+08	1.427225e+13	0.000000e+00	5.422537e-01	2.626805e+14	2.283811e+14	1.916710e+14	9.715139e+03	5.096215e+03	3.157377e+03	0	8.391428e-04
5.100000e+08	1.406187e+13	0.000000e+00	5.422537e-01	2.595122e+14	2.308731e+14	1.907125e+14	9.691671e+03	5.105086e+03	3.162873e+03	0	8.349992e-04
5.200000e+08	1.385508e+13	0.000000e+00	5.422537e-01	2.563974e+14	2.333113e+14	1.897608e+14	9.668485e+03	5.113697e+03	3.168208e+03	0	8.308860e-04
5.300000e+08	1.365182e+13	0.000000e+00	5.422537e-01	2.533351e+14	2.356953e+14	1.888160e+14	9.645576e+03	5.122052e+03	3.173384e+03	0	8.268028e-04
5.400000e+08	1.345203e+13	0.000000e+00	5.422537e-01	2.503243e+14	2.380248e+14	1.878778e+14	9.622939e+03	5.130155e+03	3.178404e+03	0	8.227496e-04
5.500000e+08	1.325564e+13	0.000000e+00	5.422537e-01	2.473640e+14	2.402997e+14	1.869463e+14	9.600570e+03	5.138011e+03	3.183271e+03	0	8.187261e-04
5.600000e+08	1.306259e+13	0.000000e+00	5.422537e-01	2.444534e+14	2.425198e+14	1.860215e+14	9.578465e+03	5.145624e+03	3.187988e+03	0	8.147321e-04
5.700000e+08	1.287281e+13	0.000000e+00	5.422537e-01	2.415915e+14	2.446849e+14	1.851032e+14	9.556619e+03	5.152999e+03	3.192557e+03	0	8.107672e-04
5.800000e+08	1.268625e+13	0.000000e+00	5.422537e-01	2.387774e+14	2.467951e+14	1.841914e+14	9.535027e+03	5.160139e+03	3.196981e+03	0	8.068315e-04
5.900000e+08	1.250285e+13	0.000000e+00	5.422537e-01	2.360102e+14	2.488503e+14	1.832861e+14	9.513686e+03	5.167050e+03	3.201263e+03	0	8.029245e-04
6.000000e+08	1.232254e+13	0.000000e+00	5.422537e-01	2.332891e+14	2.508506e+14	1.823872e+14	9.492591e+03	5.173736e+03	3.205405e+03	0	7.990461e-04
6.100000e+08	1.214528e+13	0.000000e+00	5.422537e-01	2.306133e+14	2.527961e+14	1.814947e+14	9.471739e+03	5.180201e+03	3.209410e+03	0	7.951961e-04
6.200000e+08	1.197100e+13	0.000000e+00	5.422537e-01	2.279818e+14	2.546870e+14	1.806085e+14	9.451124e+03	5.186448e+03	3.213281e+03	0	7.913742e-04
6.300000e+08	1.179965e+13	0.000000e+00	5.422537e-01	2.253939e+14	2.565235e+14	1.797285e+14	9.430745e+03	5.192483e+03	3.217020e+03	0	7.875801e-04
6.400000e+08	1.163117e+13	0.000000e+00	5.422537e-01	2.228488e+14	2.583059e+14	1.788547e+14	9.410595e+03	5.198310e+03	3.220630e+03	0	7.838138e-04
6.500000e+08	1.146552e+13	0.000000e+00	5.422537e-01	2.203456e+14	2.600344e+14	1.779871e+14	9.390672e+03	5.203931e+03	3.224113e+03	0	7.800749e-04
6.600000e+08	1.130263e+13	0.000000e+00	5.422537e-01	2.178837e+14	2.617095e+14	1.771256e+14	9.370972e+03	5.209352e+03	3.227471e+03	0	7.763632e-04
6.700000e+08	1.114246e+13	0.000000e+00	5.422537e-01	2.154621e+14	2.633314e+14	1.762701e+14	9.351492e+03	5.214577e+03	3.230708e+03	0	7.726785e-04
6.800000e+08	1.098496e+13	0.000000e+00	5.422537e-01	2.130802e+14	2.649006e+14	1.754207e+14	9.332227e+03	5.219609e+03	3.233826e+03	0	7.690205e-04
6.900000e+08	1.083008e+13	0.000000e+00	5.422537e-01	2.107373e+14	2.664174e+14	1.745772e+14	9.313174e+03	5.224452e+03	3.236826e+03	0	7.653890e-04
7.000000e+08	1.067776e+13	0.000000e+00	5.422537e-01	2.084325e+14	2.678825e+14	1.737396e+14	9.294330e+03	5.229110e+03	3.239712e+03	0	7.617838e-04
7.100000e+08	1.052796e+13	0.000000e+00	5.422537e-01	2.061653e+14	2.692962e+14	1.729079e+14	9.275691e+03	5.233587e+03	3.242486e+03	0	7.582046e-04
7.200000e+08	1.038063e+13	0.000000e+00	5.422537e-01	2.039348e+14	2.706591e+14	1.720820e+14	9.257254e+03	5.237887e+03	3.245150e+03	0	7.546512e-04
7.300000e+08	1.023573e+13	0.000000e+00	5.422537e-01	2.017405e+14	2.719718e+14	1.712619e+14	9.239016e+03	5.242012e+03	3.247706e+03	0	7.511234e-04
7.400000e+08	1.009320e+13	0.000000e+00	5.422537e-01	1.995816e+14	2.732348e+14	1.704475e+14	9.220974e+03	5.245968e+03	3.250157e+03	0	7.476209e-04
7.500000e+08	9.953017e+12	0.000000e+00	5.422537e-01	1.974574e+14	2.744487e+14	1.696388e+14	9.203123e+03	5.249757e+03	3.252505e+03	0	7.441434e-04
7.600000e+08	9.815121e+12	0.000000e+00	5.422537e-01	1.953674e+14	2.756143e+14	1.688357e+14	9.185463e+03	5.253384e+03	3.254751e+03	0	7.406908e-04
7.700000e+08	9.679474e+12	0.000000e+00	5.422537e-01	1.933108e+14	2.767319e+14	1.680382e+14	9.167988e+03	5.256851e+03	3.256899e+03	0	7.372628e-04
7.800000e+08	9.546032e+12	0.000000e+00	5.422537e-01	1.912871e+14	2.778024e+14	1.672463e+14	9.150697e+03	5.260161e+03	3.258950e+03	0	7.338591e-04
7.900000e+08	9.414754e+12	0.000000e+00	5.422537e-01	1.892956e+14	2.788264e+14	1.664598e+14	9.133586e+03	5.263319e+03	3.260907e+03	0	7.304795e-04
8.000000e+08	9.285600e+12	0.000000e+00	5.422537e-01	1.873358e+14	2.798045e+14	1.656788e+14	9.116653e+03	5.266328e+03	3.262771e+03	0	7.271238e-04
8.100000e+08	9.158530e+12	0.000000e+00	5.422537e-01	1.854070e+14	2.807375e+14	1.649032e+14	9.099894e+03	5.269190e+03	3.264544e+03	0	7.237918e-04
8.200000e+08	9.033503e+12	0.000000e+00	5.422537e-01	1.835086e+14	2.816261e+14	1.641330e+14	9.083307e+03	5.271910e+03	3.266229e+03	0	7.204831e-04
8.300000e+08	8.910482e+12	0.000000e+00	5.422537e-01	1.816402e+14	2.824710e+14	1.633681e+14	9.066890e+03	5.274490e+03	3.267827e+03	0	7.171975e-04
8.400000e+08	8.789429e+12	0.000000e+00	5.422537e-01	1.798010e+14	2.832728e+14	1.626085e+14	9.050639e+03	5.276933e+03	3.269341e+03	0	7.139349e-04
8.500000e+08	8.670306e+12	0.000000e+00	5.422537e-01	1.779906e+14	2.840324e+14	1.618541e+14	9.034552e+03	5.279242e+03	3.270772e+03	0	7.106949e-04
8.600000e+08	8.553078e+12	0.000000e+00	5.422537e-01	1.762085e+14	2.847503e+14	1.611049e+14	9.018627e+03	5.281421e+03	3.272122e+03	0	7.074773e-04
8.700000e+08	8.437707e+12	0.000000e+00	5.422537e-01	1.744540e+14	2.854275e+14	1.603609e+14	9.002860e+03	5.283472e+03	3.273393e+03	0	7.042819e-04
8.800000e+08	8.324161e+12	0.000000e+00	5.422537e-01	1.727268e+14	2.860646e+14	1.596220e+14	8.987250e+03	5.285399e+03	3.274586e+03	0	7.011085e-04
8.900000e+08	8.212403e+12	0.000000e+00	5.422537e-01	1.710262e+14	2.866623e+14	1.588882e+14	8.971794e+03	5.287204e+03	3.275704e+03	0	6.979567e-04
9.000000e+08	8.102401e+12	0.000000e+00	5.422537e-01	1.693518e+14	2.872215e+14	1.581594e+14	8.956490e+03	5.288889e+03	3.276749e+03	0	6.948264e-04
9.100000e+08	7.994120e+12	0.000000e+00	5.422537e-01	1.677030e+14	2.877427e+14	1.574356e+14	8.941334e+03	5.290459e+03	3.277721e+03	0	6.917173e-04
9.200000e+08	7.887530e+12	0.000000e+00	5.422537e-01	1.660795e+14	2.882268e+14	1.567168e+14	8.926326e+03	5.291914e+03	3.278623e+03	0	6.886291e-04
9.300000e+08	7.782598e+12	0.000000e+00	5.422537e-01	1.644807e+14	2.886746e+14	1.560029e+14	8.911463e+03	5.293259e+03	3.279456e+03	0	6.855618e-04
9.400000e+08	7.679292e+12	0.000000e+00	5.422537e-01	1.629062e+14	2.890867e+14	1.552939e+14	8.896743e+03	5.294495e+03	3.280222e+03	0	6.825149e-04
9.500000e+08	7.577583e+12	0.000000e+00	5.422537e-01	1.613555e+14	2.894639e+14	1.545897e+14	8.882163e+03	5.295625e+03	3.280922e+03	0	6.794883e-04
9.600000e+08	7.477440e+12	0.000000e+00	5.422537e-01	1.598282e+14	2.898069e+14	1.538903e+14	8.867721e+03	5.296652e+03	3.281558e+03	0	6.764817e-04
9.700000e+08	7.378834e+12	0.000000e+00	5.422537e-01	1.583238e+14	2.901165e+14	1.531956e+14	8.853416e+03	5.297578e+03	3.282132e+03	0	6.734949e-04
9.800000e+08	7.281736e+12	0.000000e+00	5.422537e-01	1.568419e+14	2.903934e+14	1.525057e+14	8.839244e+03	5.298406e+03	3.282645e+03	0	6.705276e-04
9.900000e+08	7.186117e+12	0.000000e+00	5.422537e-01	1.553821e+14	2.906382e+14	1.518205e+14	8.825205e+03	5.299137e+03	3.283098e+03	0	6.675798e-04
1.000000e+09	7.091951e+12	0.000000e+00	5.422537e-01	1.539440e+14	2.908518e+14	1.511400e+14	8.811297e+03	5.299775e+03	3.283493e+03	0	6.646510e-04
1.010000e+09	6.999211e+12	0.000000e+00	5.422537e-01	1.525272e+14	2.910348e+14	1.504640e+14	8.797516e+03	5.300321e+03	3.283831e+03	0	6.617410e-04
1.020000e+09	6.907868e+12	0.000000e+00	5.422537e-01	1.511312e+14	2.911879e+14	1.497926e+14	8.783862e+03	5.300778e+03	3.284114e+03	0	6.588498e-04
1.030000e+09	6.817898e+12	0.000000e+00	5.422537e-01	1.497558e+14	2.913118e+14	1.491258e+14	8.770333e+03	5.301147e+03	3.284343e+03	0	6.559769e-04
1.040000e+09	6.729275e+12	0.000000e+00	5.422537e-01	1.484005e+14	2.914073e+14	1.484635e+14	8.756926e+03	5.301431e+03	3.284519e+03	0	6.531223e-04
1.050000e+09	6.641974e+12	0.000000e+00	5.422537e-01	1.470649e+14	2.914749e+14	1.478057e+14	8.743640e+03	5.301633e+03	3.284644e+03	0	6.502856e-04
1.060000e+09	6.555970e+12	0.000000e+00	5.422537e-01	1.457487e+14	2.915154e+14	1.471522e+14	8.730474e+03	5.301753e+03	3.284719e+03	0	6.474666e-04
1.070000e+09	6.471240e+12	0.000000e+00	5.422537e-01	1.444516e+14	2.915293e+14	1.465032e+14	8.717425e+03	5.301795e+03	3.284745e+03	0	6.446652e-04
1.080000e+09	6.387759e+12	0.000000e+00	5.422537e-01	1.431731e+14	2.915175e+14	1.458586e+14	8.704492e+03	5.301760e+03	3.284723e+03	0	6.418811e-04
1.090000e+09	6.305505e+12	0.000000e+00	5.422537e-01	1.419130e+14	2.914805e+14	1.452183e+14	8.691673e+03	5.301650e+03	3.284654e+03	0	6.391140e-04
1.100000e+09	6.224455e+12	0.000000e+00	5.422537e-01	1.406709e+14	2.914189e+14	1.445823e+14	8.678966e+03	5.301466e+03	3.284541e+03	0	6.363639e-04
1.110000e+09	6.144587e+12	0.000000e+00	5.422537e-01	1.394465e+14	2.913334e+14	1.439505e+14	8.666370e+03	5.301211e+03	3.284383e+03	0	6.336303e-04
1.120000e+09	6.065880e+12	0.000000e+00	5.422537e-01	1.382394e+14	2.912247e+14	1.433230e+14	8.653884e+03	5.300887e+03	3.284182e+03	0	6.309133e-04
1.130000e+09	5.988311e+12	0.000000e+00	5.422537e-01	1.370493e+14	2.910932e+14	1.426997e+14	8.641505e+03	5.300495e+03	3.283939e+03	0	6.282124e-04
1.140000e+09	5.911861e+12	0.000000e+00	5.422537e-01	1.358760e+14	2.909397e+14	1.420806e+14	8.629233e+03	5.300037e+03	3.283655e+03	0	6.255276e-04
1.150000e+09	5.836508e+12	0.000000e+00	5.422537e-01	1.347191e+14	2.907646e+14	1.414656e+14	8.617065e+03	5.299515e+03	3.283332e+03	0	6.228585e-04
1.160000e+09	5.762233e+12	0.000000e+00	5.422537e-01	1.335784e+14	2.905687e+14	1.408547e+14	8.605001e+03	5.298930e+03	3.282969e+03	0	6.202051e-04
1.170000e+09	5.689017e+12	0.000000e+00	5.422537e-01	1.324535e+14	2.903524e+14	1.402478e+14	8.593038e+03	5.298283e+03	3.282569e+03	0	6.175671e-04
1.180000e+09	5.616839e+12	0.000000e+00	5.422537e-01	1.313441e+14	2.901163e+14	1.396450e+14	8.581176e+03	5.297578e+03	3.282132e+03	0	6.149442e-04
1.190000e+09	5.545682e+12	0.000000e+00	5.422537e-01	1.302500e+14	2.898611e+14	1.390462e+14	8.569413e+03	5.296814e+03	3.281659e+03	0	6.123363e-04
1.200000e+09	5.475526e+12	0.000000e+00	5.422537e-01	1.291709e+14	2.895871e+14	1.384514e+14	8.557748e+03	5.295994e+03	3.281151e+03	0	6.097433e-04
1.210000e+09	5.406354e+12	0.000000e+00	5.422537e-01	1.281066e+14	2.892951e+14	1.378606e+14	8.546179e+03	5.295119e+03	3.280609e+03	0	6.071648e-04
1.220000e+09	5.338149e+12	0.000000e+00	5.422537e-01	1.270567e+14	2.889854e+14	1.372736e+14	8.534705e+03	5.294191e+03	3.280033e+03	0	6.046006e-04
1.230000e+09	5.270891e+12	0.000000e+00	5.422537e-01	1.260211e+14	2.886586e+14	1.366905e+14	8.523325e+03	5.293211e+03	3.279426e+03	0	6.020507e-04
1.240000e+09	5.204566e+12	0.000000e+00	5.422537e-01	1.249994e+14	2.883151e+14	1.361113e+14	8.512038e+03	5.292179e+03	3.278787e+03	0	5.995148e-04
1.250000e+09	5.139156e+12	0.000000e+00	5.422537e-01	1.239914e+14	2.879556e+14	1.355359e+14	8.500841e+03	5.291099e+03	3.278118e+03	0	5.969927e-04
1.260000e+09	5.074645e+12	0.000000e+00	5.422537e-01	1.229969e+14	2.875804e+14	1.349643e+14	8.489735e+03	5.289970e+03	3.277418e+03	0	5.944841e-04
1.270000e+09	5.011017e+12	0.000000e+00	5.422537e-01	1.220157e+14	2.871901e+14	1.343965e+14	8.478718e+03	5.288795e+03	3.276690e+03	0	5.919890e-04
1.280000e+09	4.948256e+12	0.000000e+00	5.422537e-01	1.210474e+14	2.867851e+14	1.338324e+14	8.467788e+03	5.287574e+03	3.275934e+03	0	5.895072e-04
1.290000e+09	4.886347e+12	0.000000e+00	5.422537e-01	1.200920e+14	2.863659e+14	1.332720e+14	8.456945e+03	5.286309e+03	3.275150e+03	0	5.870384e-04
1.300000e+09	4.825275e+12	0.000000e+00	5.422537e-01	1.191491e+14	2.859329e+14	1.327153e+14	8.446187e+03	5.285001e+03	3.274340e+03	0	5.845824e-04
1.310000e+09	4.765025e+12	0.000000e+00	5.422537e-01	1.182185e+14	2.854865e+14	1.321622e+14	8.435513e+03	5.283651e+03	3.273503e+03	0	5.821391e-04
1.320000e+09	4.705583e+12	0.000000e+00	5.422537e-01	1.173001e+14	2.850272e+14	1.316127e+14	8.424923e+03	5.282260e+03	3.272642e+03	0	5.797083e-04
1.330000e+09	4.646935e+12	0.000000e+00	5.422537e-01	1.163936e+14	2.845555e+14	1.310669e+14	8.414414e+03	5.280830e+03	3.271756e+03	0	5.772899e-04
1.340000e+09	4.589068e+12	0.000000e+00	5.422537e-01	1.154987e+14	2.840716e+14	1.305246e+14	8.403987e+03	5.279361e+03	3.270846e+03	0	5.748835e-04
1.350000e+09	4.531966e+12	0.000000e+00	5.422537e-01	1.146154e+14	2.835761e+14	1.299859e+14	8.393639e+03	5.277855e+03	3.269913e+03	0	5.724892e-04
1.360000e+09	4.475618e+12	0.000000e+00	5.422537e-01	1.137435e+14	2.830692e+14	1.294506e+14	8.383370e+03	5.276313e+03	3.268957e+03	0	5.701066e-04
