#t		Qconv[W]	Ri[Rp]		R*[Rp]		Qc[W]		Qm[W]		Qr[W]		Tcmb[K]		Tl[K]		Tup[K]		RiFlag		Bs[T]
0.000000e+00	9.253317e+14	0.000000e+00	5.384614e-01	1.278247e+16	6.635453e+13	2.747970e+14	2.305350e+04	5.772219e+03	2.614167e+03	0	3.344260e-03
1.000000e+07	8.084587e+14	0.000000e+00	5.384614e-01	1.118144e+16	1.209146e+14	2.732744e+14	2.208884e+04	6.304567e+03	2.855261e+03	0	3.197080e-03
2.000000e+07	7.105025e+14	0.000000e+00	5.384614e-01	9.839270e+15	1.916381e+14	2.717632e+14	2.124004e+04	6.768539e+03	3.065388e+03	0	3.062359e-03
3.000000e+07	6.277793e+14	0.000000e+00	5.384614e-01	8.705582e+15	2.756497e+14	2.702633e+14	2.048929e+04	7.174156e+03	3.249087e+03	0	2.938573e-03
4.000000e+07	5.574439e+14	0.000000e+00	5.384614e-01	7.741465e+15	3.694836e+14	2.687746e+14	1.982205e+04	7.529501e+03	3.410018e+03	0	2.824455e-03
5.000000e+07	4.972750e+14	0.000000e+00	5.384614e-01	6.916533e+15	4.696295e+14	2.672970e+14	1.922637e+04	7.841205e+03	3.551185e+03	0	2.718941e-03
6.000000e+07	4.455197e+14	0.000000e+00	5.384614e-01	6.206804e+15	5.728540e+14	2.658305e+14	1.869229e+04	8.114790e+03	3.675088e+03	0	2.621138e-03
7.000000e+07	4.007800e+14	0.000000e+00	5.384614e-01	5.593148e+15	6.763618e+14	2.643748e+14	1.821152e+04	8.354921e+03	3.783840e+03	0	2.530286e-03
8.000000e+07	3.619295e+14	0.000000e+00	5.384614e-01	5.060154e+15	7.778564e+14	2.629300e+14	1.777707e+04	8.565577e+03	3.879244e+03	0	2.445732e-03
9.000000e+07	3.280529e+14	0.000000e+00	5.384614e-01	4.595290e+15	8.755367e+14	2.614959e+14	1.738304e+04	8.750194e+03	3.962855e+03	0	2.366912e-03
1.000000e+08	2.983993e+14	0.000000e+00	5.384614e-01	4.188282e+15	9.680600e+14	2.600724e+14	1.702439e+04	8.911753e+03	4.036023e+03	0	2.293331e-03
1.100000e+08	2.723488e+14	0.000000e+00	5.384614e-01	3.830641e+15	1.054486e+15	2.586596e+14	1.669684e+04	9.052864e+03	4.099930e+03	0	2.224553e-03
1.200000e+08	2.493857e+14	0.000000e+00	5.384614e-01	3.515308e+15	1.134216e+15	2.572571e+14	1.639669e+04	9.175816e+03	4.155614e+03	0	2.160187e-03
1.300000e+08	2.290784e+14	0.000000e+00	5.384614e-01	3.236373e+15	1.206930e+15	2.558651e+14	1.612079e+04	9.282631e+03	4.203989e+03	0	2.099886e-03
1.400000e+08	2.110642e+14	0.000000e+00	5.384614e-01	2.988868e+15	1.272532e+15	2.544834e+14	1.586638e+04	9.375094e+03	4.245864e+03	0	2.043333e-03
1.500000e+08	1.950363e+14	0.000000e+00	5.384614e-01	2.768592e+15	1.331097e+15	2.531119e+14	1.563110e+04	9.454787e+03	4.281956e+03	0	1.990243e-03
1.600000e+08	1.807343e+14	0.000000e+00	5.384614e-01	2.571978e+15	1.382827e+15	2.517505e+14	1.541286e+04	9.523113e+03	4.312900e+03	0	1.940354e-03
1.700000e+08	1.679364e+14	0.000000e+00	5.384614e-01	2.395988e+15	1.428021e+15	2.503992e+14	1.520988e+04	9.581320e+03	4.339262e+03	0	1.893429e-03
1.800000e+08	1.564529e+14	0.000000e+00	5.384614e-01	2.238025e+15	1.467035e+15	2.490578e+14	1.502057e+04	9.630517e+03	4.361542e+03	0	1.849249e-03
1.900000e+08	1.461214e+14	0.000000e+00	5.384614e-01	2.095860e+15	1.500268e+15	2.477263e+14	1.484356e+04	9.671689e+03	4.380188e+03	0	1.807613e-03
2.000000e+08	1.368016e+14	0.000000e+00	5.384614e-01	1.967576e+15	1.528136e+15	2.464046e+14	1.467763e+04	9.705715e+03	4.395598e+03	0	1.768335e-03
2.100000e+08	1.283731e+14	0.000000e+00	5.384614e-01	1.851518e+15	1.551063e+15	2.450927e+14	1.452172e+04	9.733376e+03	4.408126e+03	0	1.731247e-03
2.200000e+08	1.207314e+14	0.000000e+00	5.384614e-01	1.746257e+15	1.569467e+15	2.437903e+14	1.437488e+04	9.755370e+03	4.418087e+03	0	1.696189e-03
2.300000e+08	1.137860e+14	0.000000e+00	5.384614e-01	1.650551e+15	1.583755e+15	2.424976e+14	1.423628e+04	9.772318e+03	4.425762e+03	0	1.663019e-03
2.400000e+08	1.074581e+14	0.000000e+00	5.384614e-01	1.563322e+15	1.594315e+15	2.412143e+14	1.410517e+04	9.784774e+03	4.431403e+03	0	1.631601e-03
2.500000e+08	1.016794e+14	0.000000e+00	5.384614e-01	1.483631e+15	1.601513e+15	2.399404e+14	1.398091e+04	9.793231e+03	4.435233e+03	0	1.601813e-03
2.600000e+08	9.638991e+13	0.000000e+00	5.384614e-01	1.410657e+15	1.605694e+15	2.386758e+14	1.386291e+04	9.798130e+03	4.437452e+03	0	1.573541e-03
2.700000e+08	9.153733e+13	0.000000e+00	5.384614e-01	1.343683e+15	1.607176e+15	2.374204e+14	1.375064e+04	9.799865e+03	4.438238e+03	0	1.546679e-03
2.800000e+08	8.707575e+13	0.000000e+00	5.384614e-01	1.282080e+15	1.606256e+15	2.361743e+14	1.364364e+04	9.798788e+03	4.437750e+03	0	1.521131e-03
2.900000e+08	8.296486e+13	0.000000e+00	5.384614e-01	1.225294e+15	1.603203e+15	2.349372e+14	1.354149e+04	9.795212e+03	4.436130e+03	0	1.496806e-03
3.000000e+08	7.916913e+13	0.000000e+00	5.384614e-01	1.172839e+15	1.598265e+15	2.337092e+14	1.344381e+04	9.789418e+03	4.433506e+03	0	1.473622e-03
3.100000e+08	7.565724e+13	0.000000e+00	5.384614e-01	1.124284e+15	1.591668e+15	2.324901e+14	1.335027e+04	9.781657e+03	4.429992e+03	0	1.451502e-03
3.200000e+08	7.240149e+13	0.000000e+00	5.384614e-01	1.079250e+15	1.583616e+15	2.312798e+14	1.326055e+04	9.772154e+03	4.425688e+03	0	1.430375e-03
3.300000e+08	6.937735e+13	0.000000e+00	5.384614e-01	1.037400e+15	1.574294e+15	2.300784e+14	1.317439e+04	9.761108e+03	4.420685e+03	0	1.410176e-03
3.400000e+08	6.656306e+13	0.000000e+00	5.384614e-01	9.984356e+14	1.563870e+15	2.288857e+14	1.309154e+04	9.748701e+03	4.415066e+03	0	1.390845e-03
3.500000e+08	6.393925e+13	0.000000e+00	5.384614e-01	9.620910e+14	1.552494e+15	2.277016e+14	1.301177e+04	9.735093e+03	4.408903e+03	0	1.372324e-03
3.600000e+08	6.148869e+13	0.000000e+00	5.384614e-01	9.281297e+14	1.540301e+15	2.265261e+14	1.293487e+04	9.720428e+03	4.402262e+03	0	1.354563e-03
3.700000e+08	5.919598e+13	0.000000e+00	5.384614e-01	8.963404e+14	1.527411e+15	2.253592e+14	1.286066e+04	9.704835e+03	4.395200e+03	0	1.337514e-03
3.800000e+08	5.704738e+13	0.000000e+00	5.384614e-01	8.665343e+14	1.513934e+15	2.242007e+14	1.278896e+04	9.688431e+03	4.387771e+03	0	1.321132e-03
3.900000e+08	5.503055e+13	0.000000e+00	5.384614e-01	8.385422e+14	1.499967e+15	2.230505e+14	1.271963e+04	9.671319e+03	4.380021e+03	0	1.305376e-03
4.000000e+08	5.313444e+13	0.000000e+00	5.384614e-01	8.122122e+14	1.485596e+15	2.219087e+14	1.265251e+04	9.653592e+03	4.371993e+03	0	1.290208e-03
4.100000e+08	5.134911e+13	0.000000e+00	5.384614e-01	7.874079e+14	1.470897e+15	2.207751e+14	1.258748e+04	9.635335e+03	4.363724e+03	0	1.275592e-03
4.200000e+08	4.966562e+13	0.000000e+00	5.384614e-01	7.640063e+14	1.455939e+15	2.196497e+14	1.252441e+04	9.616622e+03	4.355249e+03	0	1.261497e-03
4.300000e+08	4.807588e+13	0.000000e+00	5.384614e-01	7.418967e+14	1.440784e+15	2.185323e+14	1.246321e+04	9.597519e+03	4.346598e+03	0	1.247891e-03
4.400000e+08	4.657262e+13	0.000000e+00	5.384614e-01	7.209788e+14	1.425485e+15	2.174231e+14	1.240375e+04	9.578089e+03	4.337798e+03	0	1.234746e-03
4.500000e+08	4.514923e+13	0.000000e+00	5.384614e-01	7.011621e+14	1.410088e+15	2.163217e+14	1.234596e+04	9.558385e+03	4.328874e+03	0	1.222037e-03
4.600000e+08	4.379974e+13	0.000000e+00	5.384614e-01	6.823642e+14	1.394638e+15	2.152283e+14	1.228974e+04	9.538455e+03	4.319848e+03	0	1.209738e-03
4.700000e+08	4.251871e+13	0.000000e+00	5.384614e-01	6.645107e+14	1.379170e+15	2.141428e+14	1.223502e+04	9.518343e+03	4.310740e+03	0	1.197827e-03
4.800000e+08	4.130122e+13	0.000000e+00	5.384614e-01	6.475337e+14	1.363717e+15	2.130650e+14	1.218171e+04	9.498088e+03	4.301567e+03	0	1.186283e-03
4.900000e+08	4.014276e+13	0.000000e+00	5.384614e-01	6.313714e+14	1.348307e+15	2.119949e+14	1.212976e+04	9.477726e+03	4.292345e+03	0	1.175087e-03
5.000000e+08	3.903924e+13	0.000000e+00	5.384614e-01	6.159674e+14	1.332965e+15	2.109325e+14	1.207909e+04	9.457288e+03	4.283089e+03	0	1.164219e-03
5.100000e+08	3.798692e+13	0.000000e+00	5.384614e-01	6.012704e+14	1.317715e+15	2.098777e+14	1.202964e+04	9.436802e+03	4.273811e+03	0	1.153663e-03
5.200000e+08	3.698237e+13	0.000000e+00	5.384614e-01	5.872331e+14	1.302573e+15	2.088304e+14	1.198137e+04	9.416293e+03	4.264523e+03	0	1.143402e-03
5.300000e+08	3.602246e+13	0.000000e+00	5.384614e-01	5.738125e+14	1.287556e+15	2.077905e+14	1.193421e+04	9.395785e+03	4.255235e+03	0	1.133423e-03
5.400000e+08	3.510431e+13	0.000000e+00	5.384614e-01	5.609689e+14	1.272678e+15	2.067581e+14	1.188812e+04	9.375296e+03	4.245956e+03	0	1.123710e-03
5.500000e+08	3.422528e+13	0.000000e+00	5.384614e-01	5.486661e+14	1.257952e+15	2.057330e+14	1.184305e+04	9.354845e+03	4.236694e+03	0	1.114251e-03
5.600000e+08	3.338295e+13	0.000000e+00	5.384614e-01	5.368706e+14	1.243387e+15	2.047152e+14	1.179896e+04	9.334449e+03	4.227457e+03	0	1.105034e-03
5.700000e+08	3.257506e+13	0.000000e+00	5.384614e-01	5.255517e+14	1.228993e+15	2.037047e+14	1.175581e+04	9.314121e+03	4.218250e+03	0	1.096047e-03
5.800000e+08	3.179957e+13	0.000000e+00	5.384614e-01	5.146808e+14	1.214775e+15	2.027013e+14	1.171357e+04	9.293875e+03	4.209081e+03	0	1.087280e-03
5.900000e+08	3.105456e+13	0.000000e+00	5.384614e-01	5.042317e+14	1.200740e+15	2.017050e+14	1.167219e+04	9.273721e+03	4.199954e+03	0	1.078721e-03
6.000000e+08	3.033827e+13	0.000000e+00	5.384614e-01	4.941802e+14	1.186893e+15	2.007158e+14	1.163164e+04	9.253670e+03	4.190873e+03	0	1.070363e-03
6.100000e+08	2.964908e+13	0.000000e+00	5.384614e-01	4.845039e+14	1.173237e+15	1.997335e+14	1.159190e+04	9.233730e+03	4.181842e+03	0	1.062196e-03
6.200000e+08	2.898547e+13	0.000000e+00	5.384614e-01	4.751819e+14	1.159775e+15	1.987582e+14	1.155293e+04	9.213909e+03	4.172865e+03	0	1.054211e-03
6.300000e+08	2.834604e+13	0.000000e+00	5.384614e-01	4.661949e+14	1.146509e+15	1.977898e+14	1.151470e+04	9.194214e+03	4.163946e+03	0	1.046401e-03
6.400000e+08	2.772949e+13	0.000000e+00	5.384614e-01	4.575250e+14	1.133441e+15	1.968282e+14	1.147719e+04	9.174651e+03	4.155086e+03	0	1.038759e-03
6.500000e+08	2.713460e+13	0.000000e+00	5.384614e-01	4.491554e+14	1.120571e+15	1.958734e+14	1.144037e+04	9.155226e+03	4.146289e+03	0	1.031277e-03
6.600000e+08	2.656026e+13	0.000000e+00	5.384614e-01	4.410706e+14	1.107900e+15	1.949254e+14	1.140422e+04	9.135942e+03	4.137555e+03	0	1.023949e-03
6.700000e+08	2.600540e+13	0.000000e+00	5.384614e-01	4.332562e+14	1.095426e+15	1.939839e+14	1.136872e+04	9.116803e+03	4.128888e+03	0	1.016768e-03
6.800000e+08	2.546905e+13	0.000000e+00	5.384614e-01	4.256985e+14	1.083149e+15	1.930491e+14	1.133384e+04	9.097814e+03	4.120287e+03	0	1.009730e-03
6.900000e+08	2.495029e+13	0.000000e+00	5.384614e-01	4.183850e+14	1.071069e+15	1.921209e+14	1.129956e+04	9.078975e+03	4.111756e+03	0	1.002827e-03
7.000000e+08	2.444827e+13	0.000000e+00	5.384614e-01	4.113038e+14	1.059184e+15	1.911991e+14	1.126587e+04	9.060291e+03	4.103294e+03	0	9.960555e-04
7.100000e+08	2.396218e+13	0.000000e+00	5.384614e-01	4.044438e+14	1.047492e+15	1.902839e+14	1.123274e+04	9.041762e+03	4.094902e+03	0	9.894100e-04
7.200000e+08	2.349127e+13	0.000000e+00	5.384614e-01	3.977948e+14	1.035991e+15	1.893750e+14	1.120016e+04	9.023389e+03	4.086582e+03	0	9.828857e-04
7.300000e+08	2.303484e+13	0.000000e+00	5.384614e-01	3.913470e+14	1.024680e+15	1.884724e+14	1.116812e+04	9.005175e+03	4.078333e+03	0	9.764783e-04
7.400000e+08	2.259223e+13	0.000000e+00	5.384614e-01	3.850912e+14	1.013556e+15	1.875762e+14	1.113659e+04	8.987120e+03	4.070156e+03	0	9.701835e-04
7.500000e+08	2.216281e+13	0.000000e+00	5.384614e-01	3.790189e+14	1.002616e+15	1.866862e+14	1.110556e+04	8.969225e+03	4.062051e+03	0	9.639973e-04
7.600000e+08	2.174601e+13	0.000000e+00	5.384614e-01	3.731220e+14	9.918581e+14	1.858024e+14	1.107501e+04	8.951489e+03	4.054019e+03	0	9.579159e-04
7.700000e+08	2.134127e+13	0.000000e+00	5.384614e-01	3.673930e+14	9.812797e+14	1.849248e+14	1.104494e+04	8.933912e+03	4.046058e+03	0	9.519357e-04
7.800000e+08	2.094807e+13	0.000000e+00	5.384614e-01	3.618245e+14	9.708783e+14	1.840532e+14	1.101532e+04	8.916496e+03	4.038171e+03	0	9.460531e-04
7.900000e+08	2.056593e+13	0.000000e+00	5.384614e-01	3.564100e+14	9.606508e+14	1.831877e+14	1.098616e+04	8.899238e+03	4.030355e+03	0	9.402651e-04
8.000000e+08	2.019438e+13	0.000000e+00	5.384614e-01	3.511430e+14	9.505944e+14	1.823283e+14	1.095742e+04	8.882139e+03	4.022611e+03	0	9.345683e-04
8.100000e+08	1.983299e+13	0.000000e+00	5.384614e-01	3.460175e+14	9.407063e+14	1.814747e+14	1.092911e+04	8.865198e+03	4.014939e+03	0	9.289599e-04
8.200000e+08	1.948136e+13	0.000000e+00	5.384614e-01	3.410278e+14	9.309833e+14	1.806271e+14	1.090120e+04	8.848415e+03	4.007338e+03	0	9.234370e-04
8.300000e+08	1.913908e+13	0.000000e+00	5.384614e-01	3.361686e+14	9.214232e+14	1.797853e+14	1.087370e+04	8.831787e+03	3.999807e+03	0	9.179969e-04
8.400000e+08	1.880579e+13	0.000000e+00	5.384614e-01	3.314347e+14	9.120226e+14	1.789494e+14	1.084659e+04	8.815315e+03	3.992347e+03	0	9.126370e-04
8.500000e+08	1.848114e+13	0.000000e+00	5.384614e-01	3.268213e+14	9.027784e+14	1.781192e+14	1.081985e+04	8.798997e+03	3.984957e+03	0	9.073548e-04
8.600000e+08	1.816481e+13	0.000000e+00	5.384614e-01	3.223239e+14	8.936881e+14	1.772948e+14	1.079349e+04	8.782832e+03	3.977636e+03	0	9.021481e-04
8.700000e+08	1.785647e+13	0.000000e+00	5.384614e-01	3.179380e+14	8.847490e+14	1.764760e+14	1.076748e+04	8.766819e+03	3.970384e+03	0	8.970144e-04
8.800000e+08	1.755583e+13	0.000000e+00	5.384614e-01	3.136596e+14	8.759574e+14	1.756628e+14	1.074183e+04	8.750956e+03	3.963200e+03	0	8.919517e-04
8.900000e+08	1.726261e+13	0.000000e+00	5.384614e-01	3.094847e+14	8.673116e+14	1.748553e+14	1.071652e+04	8.735243e+03	3.956083e+03	0	8.869580e-04
9.000000e+08	1.697654e+13	0.000000e+00	5.384614e-01	3.054097e+14	8.588081e+14	1.740532e+14	1.069154e+04	8.719676e+03	3.949034e+03	0	8.820311e-04
9.100000e+08	1.669735e+13	0.000000e+00	5.384614e-01	3.014309e+14	8.504439e+14	1.732567e+14	1.066689e+04	8.704256e+03	3.942050e+03	0	8.771692e-04
9.200000e+08	1.642481e+13	0.000000e+00	5.384614e-01	2.975449e+14	8.422168e+14	1.724657e+14	1.064256e+04	8.688981e+03	3.935132e+03	0	8.723706e-04
9.300000e+08	1.615869e+13	0.000000e+00	5.384614e-01	2.937487e+14	8.341240e+14	1.716800e+14	1.061854e+04	8.673849e+03	3.928279e+03	0	8.676333e-04
9.400000e+08	1.589876e+13	0.000000e+00	5.384614e-01	2.900390e+14	8.261626e+14	1.708997e+14	1.059483e+04	8.658858e+03	3.921490e+03	0	8.629559e-04
9.500000e+08	1.564481e+13	0.000000e+00	5.384614e-01	2.864129e+14	8.183299e+14	1.701247e+14	1.057141e+04	8.644007e+03	3.914764e+03	0	8.583365e-04
9.600000e+08	1.539664e+13	0.000000e+00	5.384614e-01	2.828678e+14	8.106239e+14	1.693551e+14	1.054829e+04	8.629295e+03	3.908101e+03	0	8.537738e-04
9.700000e+08	1.515406e+13	0.000000e+00	5.384614e-01	2.794008e+14	8.030414e+14	1.685906e+14	1.052545e+04	8.614719e+03	3.901500e+03	0	8.492662e-04
9.800000e+08	1.491688e+13	0.000000e+00	5.384614e-01	2.760095e+14	7.955801e+14	1.678314e+14	1.050288e+04	8.600279e+03	3.894960e+03	0	8.448123e-04
9.900000e+08	1.468493e+13	0.000000e+00	5.384614e-01	2.726914e+14	7.882377e+14	1.670773e+14	1.048059e+04	8.585972e+03	3.888481e+03	0	8.404106e-04
1.000000e+09	1.445805e+13	0.000000e+00	5.384614e-01	2.694441e+14	7.810118e+14	1.663284e+14	1.045857e+04	8.571798e+03	3.882061e+03	0	8.360599e-04
1.010000e+09	1.423606e+13	0.000000e+00	5.384614e-01	2.662655e+14	7.739001e+14	1.655845e+14	1.043680e+04	8.557753e+03	3.875701e+03	0	8.317589e-04
1.020000e+09	1.401882e+13	0.000000e+00	5.384614e-01	2.631534e+14	7.669002e+14	1.648457e+14	1.041529e+04	8.543837e+03	3.869398e+03	0	8.275063e-04
1.030000e+09	1.380617e+13	0.000000e+00	5.384614e-01	2.601058e+14	7.600095e+14	1.641118e+14	1.039404e+04	8.530049e+03	3.863154e+03	0	8.233010e-04
1.040000e+09	1.359799e+13	0.000000e+00	5.384614e-01	2.571206e+14	7.532263e+14	1.633830e+14	1.037302e+04	8.516386e+03	3.856966e+03	0	8.191418e-04
1.050000e+09	1.339412e+13	0.000000e+00	5.384614e-01	2.541961e+14	7.465480e+14	1.626590e+14	1.035225e+04	8.502847e+03	3.850834e+03	0	8.150275e-04
1.060000e+09	1.319445e+13	0.000000e+00	5.384614e-01	2.513303e+14	7.399728e+14	1.619399e+14	1.033171e+04	8.489430e+03	3.844758e+03	0	8.109572e-04
1.070000e+09	1.299884e+13	0.000000e+00	5.384614e-01	2.485217e+14	7.334986e+14	1.612257e+14	1.031140e+04	8.476134e+03	3.838737e+03	0	8.069298e-04
1.080000e+09	1.280718e+13	0.000000e+00	5.384614e-01	2.457684e+14	7.271232e+14	1.605163e+14	1.029132e+04	8.462958e+03	3.832769e+03	0	8.029442e-04
1.090000e+09	1.261935e+13	0.000000e+00	5.384614e-01	2.430689e+14	7.208447e+14	1.598116e+14	1.027145e+04	8.449899e+03	3.826855e+03	0	7.989996e-04
1.100000e+09	1.243525e+13	0.000000e+00	5.384614e-01	2.404217e+14	7.146610e+14	1.591117e+14	1.025181e+04	8.436956e+03	3.820993e+03	0	7.950950e-04
1.110000e+09	1.225475e+13	0.000000e+00	5.384614e-01	2.378253e+14	7.085702e+14	1.584165e+14	1.023238e+04	8.424128e+03	3.815183e+03	0	7.912294e-04
1.120000e+09	1.207777e+13	0.000000e+00	5.384614e-01	2.352782e+14	7.025707e+14	1.577259e+14	1.021315e+04	8.411413e+03	3.809425e+03	0	7.874020e-04
1.130000e+09	1.190421e+13	0.000000e+00	5.384614e-01	2.327791e+14	6.966606e+14	1.570400e+14	1.019413e+04	8.398810e+03	3.803717e+03	0	7.836119e-04
1.140000e+09	1.173396e+13	0.000000e+00	5.384614e-01	2.303267e+14	6.908378e+14	1.563586e+14	1.017531e+04	8.386317e+03	3.798059e+03	0	7.798584e-04
1.150000e+09	1.156694e+13	0.000000e+00	5.384614e-01	2.279197e+14	6.851010e+14	1.556818e+14	1.015669e+04	8.373932e+03	3.792450e+03	0	7.761406e-04
1.160000e+09	1.140307e+13	0.000000e+00	5.384614e-01	2.255569e+14	6.794483e+14	1.550095e+14	1.013826e+04	8.361655e+03	3.786890e+03	0	7.724578e-04
1.170000e+09	1.124225e+13	0.000000e+00	5.384614e-01	2.232370e+14	6.738779e+14	1.543417e+14	1.012003e+04	8.349484e+03	3.781378e+03	0	7.688092e-04
1.180000e+09	1.108440e+13	0.000000e+00	5.384614e-01	2.209590e+14	6.683883e+14	1.536783e+14	1.010198e+04	8.337417e+03	3.775913e+03	0	7.651940e-04
1.190000e+09	1.092944e+13	0.000000e+00	5.384614e-01	2.187218e+14	6.629777e+14	1.530193e+14	1.008411e+04	8.325454e+03	3.770495e+03	0	7.616116e-04
1.200000e+09	1.077731e+13	0.000000e+00	5.384614e-01	2.165243e+14	6.576450e+14	1.523647e+14	1.006642e+04	8.313592e+03	3.765123e+03	0	7.580613e-04
1.210000e+09	1.062792e+13	0.000000e+00	5.384614e-01	2.143655e+14	6.523883e+14	1.517145e+14	1.004891e+04	8.301830e+03	3.759796e+03	0	7.545424e-04
1.220000e+09	1.048121e+13	0.000000e+00	5.384614e-01	2.122443e+14	6.472062e+14	1.510686e+14	1.003157e+04	8.290168e+03	3.754514e+03	0	7.510543e-04
1.230000e+09	1.033710e+13	0.000000e+00	5.384614e-01	2.101599e+14	6.420974e+14	1.504269e+14	1.001440e+04	8.278603e+03	3.749277e+03	0	7.475963e-04
1.240000e+09	1.019554e+13	0.000000e+00	5.384614e-01	2.081113e+14	6.370603e+14	1.497895e+14	9.997403e+03	8.267135e+03	3.744083e+03	0	7.441678e-04
1.250000e+09	1.005645e+13	0.000000e+00	5.384614e-01	2.060976e+14	6.320935e+14	1.491562e+14	9.980569e+03	8.255761e+03	3.738932e+03	0	7.407683e-04
1.260000e+09	9.919771e+12	0.000000e+00	5.384614e-01	2.041180e+14	6.271958e+14	1.485272e+14	9.963896e+03	8.244482e+03	3.733824e+03	0	7.373971e-04
1.270000e+09	9.785452e+12	0.000000e+00	5.384614e-01	2.021716e+14	6.223657e+14	1.479023e+14	9.947383e+03	8.233296e+03	3.728758e+03	0	7.340537e-04
1.280000e+09	9.653430e+12	0.000000e+00	5.384614e-01	2.002576e+14	6.176022e+14	1.472815e+14	9.931026e+03	8.222201e+03	3.723733e+03	0	7.307375e-04
1.290000e+09	9.523650e+12	0.000000e+00	5.384614e-01	1.983753e+14	6.129038e+14	1.466648e+14	9.914824e+03	8.211196e+03	3.718749e+03	0	7.274481e-04
1.300000e+09	9.396058e+12	0.000000e+00	5.384614e-01	1.965239e+14	6.082691e+14	1.460521e+14	9.898773e+03	8.200280e+03	3.713805e+03	0	7.241848e-04
1.310000e+09	9.270600e+12	0.000000e+00	5.384614e-01	1.947026e+14	6.036973e+14	1.454435e+14	9.882871e+03	8.189452e+03	3.708902e+03	0	7.209473e-04
1.320000e+09	9.147228e+12	0.000000e+00	5.384614e-01	1.929108e+14	5.991870e+14	1.448388e+14	9.867116e+03	8.178711e+03	3.704037e+03	0	7.177348e-04
1.330000e+09	9.025890e+12	0.000000e+00	5.384614e-01	1.911477e+14	5.947369e+14	1.442381e+14	9.851505e+03	8.168056e+03	3.699211e+03	0	7.145471e-04
1.340000e+09	8.906541e+12	0.000000e+00	5.384614e-01	1.894128e+14	5.903462e+14	1.436413e+14	9.836035e+03	8.157485e+03	3.694424e+03	0	7.113837e-04
1.350000e+09	8.789134e+12	0.000000e+00	5.384614e-01	1.877053e+14	5.860138e+14	1.430484e+14	9.820706e+03	8.146997e+03	3.689674e+03	0	7.082440e-04
1.360000e+09	8.673623e+12	0.000000e+00	5.384614e-01	1.860246e+14	5.817382e+14	1.424594e+14	9.805514e+03	8.136592e+03	3.684962e+03	0	7.051276e-04
