#t		Qconv[W]	Ri[Rp]		R*[Rp]		Qc[W]		Qm[W]		Qr[W]		Tcmb[K]		Tl[K]		Tup[K]		RiFlag		Bs[T]
0.000000e+00	4.795768e+13	0.000000e+00	5.352114e-01	7.385362e+14	6.386821e+13	2.992230e+14	1.293348e+04	4.514346e+03	2.684211e+03	0	1.255828e-03
1.000000e+07	4.713575e+13	0.000000e+00	5.352114e-01	7.272448e+14	6.722482e+13	2.975651e+14	1.287836e+04	4.546959e+03	2.703603e+03	0	1.248612e-03
2.000000e+07	4.633065e+13	0.000000e+00	5.352114e-01	7.161821e+14	7.065600e+13	2.959196e+14	1.282408e+04	4.579024e+03	2.722669e+03	0	1.241462e-03
3.000000e+07	4.554191e+13	0.000000e+00	5.352114e-01	7.053419e+14	7.415907e+13	2.942864e+14	1.277061e+04	4.610546e+03	2.741411e+03	0	1.234377e-03
4.000000e+07	4.476906e+13	0.000000e+00	5.352114e-01	6.947179e+14	7.773122e+13	2.926654e+14	1.271795e+04	4.641530e+03	2.759835e+03	0	1.227355e-03
5.000000e+07	4.401169e+13	0.000000e+00	5.352114e-01	6.843045e+14	8.136954e+13	2.910564e+14	1.266607e+04	4.671983e+03	2.777942e+03	0	1.220394e-03
6.000000e+07	4.326937e+13	0.000000e+00	5.352114e-01	6.740958e+14	8.507102e+13	2.894595e+14	1.261497e+04	4.701909e+03	2.795736e+03	0	1.213494e-03
7.000000e+07	4.254170e+13	0.000000e+00	5.352114e-01	6.640867e+14	8.883253e+13	2.878744e+14	1.256462e+04	4.731314e+03	2.813219e+03	0	1.206653e-03
8.000000e+07	4.182831e+13	0.000000e+00	5.352114e-01	6.542718e+14	9.265093e+13	2.863012e+14	1.251502e+04	4.760202e+03	2.830396e+03	0	1.199870e-03
9.000000e+07	4.112882e+13	0.000000e+00	5.352114e-01	6.446462e+14	9.652296e+13	2.847396e+14	1.246615e+04	4.788579e+03	2.847269e+03	0	1.193144e-03
1.000000e+08	4.044287e+13	0.000000e+00	5.352114e-01	6.352052e+14	1.004453e+14	2.831896e+14	1.241798e+04	4.816449e+03	2.863841e+03	0	1.186473e-03
1.100000e+08	3.977013e+13	0.000000e+00	5.352114e-01	6.259441e+14	1.044146e+14	2.816512e+14	1.237052e+04	4.843819e+03	2.880115e+03	0	1.179858e-03
1.200000e+08	3.911028e+13	0.000000e+00	5.352114e-01	6.168585e+14	1.084275e+14	2.801241e+14	1.232375e+04	4.870692e+03	2.896093e+03	0	1.173296e-03
1.300000e+08	3.846299e+13	0.000000e+00	5.352114e-01	6.079441e+14	1.124806e+14	2.786083e+14	1.227765e+04	4.897073e+03	2.911780e+03	0	1.166787e-03
1.400000e+08	3.782796e+13	0.000000e+00	5.352114e-01	5.991969e+14	1.165702e+14	2.771038e+14	1.223222e+04	4.922968e+03	2.927176e+03	0	1.160330e-03
1.500000e+08	3.720490e+13	0.000000e+00	5.352114e-01	5.906128e+14	1.206931e+14	2.756104e+14	1.218743e+04	4.948381e+03	2.942287e+03	0	1.153925e-03
1.600000e+08	3.659353e+13	0.000000e+00	5.352114e-01	5.821882e+14	1.248456e+14	2.741280e+14	1.214328e+04	4.973317e+03	2.957114e+03	0	1.147569e-03
1.700000e+08	3.599357e+13	0.000000e+00	5.352114e-01	5.739192e+14	1.290244e+14	2.726566e+14	1.209976e+04	4.997781e+03	2.971660e+03	0	1.141263e-03
1.800000e+08	3.540477e+13	0.000000e+00	5.352114e-01	5.658023e+14	1.332258e+14	2.711960e+14	1.205685e+04	5.021777e+03	2.985928e+03	0	1.135006e-03
1.900000e+08	3.482687e+13	0.000000e+00	5.352114e-01	5.578342e+14	1.374465e+14	2.697461e+14	1.201454e+04	5.045310e+03	2.999920e+03	0	1.128796e-03
2.000000e+08	3.425963e+13	0.000000e+00	5.352114e-01	5.500114e+14	1.416829e+14	2.683070e+14	1.197283e+04	5.068385e+03	3.013641e+03	0	1.122634e-03
2.100000e+08	3.370281e+13	0.000000e+00	5.352114e-01	5.423309e+14	1.459317e+14	2.668784e+14	1.193170e+04	5.091007e+03	3.027092e+03	0	1.116519e-03
2.200000e+08	3.315618e+13	0.000000e+00	5.352114e-01	5.347894e+14	1.501894e+14	2.654603e+14	1.189114e+04	5.113181e+03	3.040276e+03	0	1.110450e-03
2.300000e+08	3.261951e+13	0.000000e+00	5.352114e-01	5.273840e+14	1.544526e+14	2.640526e+14	1.185114e+04	5.134911e+03	3.053197e+03	0	1.104426e-03
2.400000e+08	3.209260e+13	0.000000e+00	5.352114e-01	5.201117e+14	1.587181e+14	2.626552e+14	1.181169e+04	5.156202e+03	3.065856e+03	0	1.098447e-03
2.500000e+08	3.157524e+13	0.000000e+00	5.352114e-01	5.129698e+14	1.629826e+14	2.612681e+14	1.177278e+04	5.177059e+03	3.078258e+03	0	1.092512e-03
2.600000e+08	3.106723e+13	0.000000e+00	5.352114e-01	5.059555e+14	1.672428e+14	2.598911e+14	1.173440e+04	5.197486e+03	3.090404e+03	0	1.086621e-03
2.700000e+08	3.056836e+13	0.000000e+00	5.352114e-01	4.990661e+14	1.714957e+14	2.585242e+14	1.169655e+04	5.217489e+03	3.102298e+03	0	1.080774e-03
2.800000e+08	3.007846e+13	0.000000e+00	5.352114e-01	4.922992e+14	1.757380e+14	2.571672e+14	1.165920e+04	5.237073e+03	3.113942e+03	0	1.074969e-03
2.900000e+08	2.959733e+13	0.000000e+00	5.352114e-01	4.856521e+14	1.799669e+14	2.558202e+14	1.162236e+04	5.256241e+03	3.125339e+03	0	1.069206e-03
3.000000e+08	2.912481e+13	0.000000e+00	5.352114e-01	4.791224e+14	1.841793e+14	2.544830e+14	1.158602e+04	5.275000e+03	3.136493e+03	0	1.063486e-03
3.100000e+08	2.866070e+13	0.000000e+00	5.352114e-01	4.727078e+14	1.883724e+14	2.531555e+14	1.155016e+04	5.293354e+03	3.147406e+03	0	1.057807e-03
3.200000e+08	2.820485e+13	0.000000e+00	5.352114e-01	4.664060e+14	1.925434e+14	2.518377e+14	1.151478e+04	5.311307e+03	3.158081e+03	0	1.052169e-03
3.300000e+08	2.775709e+13	0.000000e+00	5.352114e-01	4.602147e+14	1.966895e+14	2.505295e+14	1.147987e+04	5.328866e+03	3.168521e+03	0	1.046571e-03
3.400000e+08	2.731726e+13	0.000000e+00	5.352114e-01	4.541318e+14	2.008082e+14	2.492308e+14	1.144542e+04	5.346034e+03	3.178729e+03	0	1.041014e-03
3.500000e+08	2.688520e+13	0.000000e+00	5.352114e-01	4.481551e+14	2.048970e+14	2.479415e+14	1.141142e+04	5.362816e+03	3.188708e+03	0	1.035496e-03
3.600000e+08	2.646076e+13	0.000000e+00	5.352114e-01	4.422825e+14	2.089533e+14	2.466615e+14	1.137787e+04	5.379218e+03	3.198461e+03	0	1.030018e-03
3.700000e+08	2.604379e+13	0.000000e+00	5.352114e-01	4.365121e+14	2.129748e+14	2.453908e+14	1.134475e+04	5.395244e+03	3.207990e+03	0	1.024579e-03
3.800000e+08	2.563415e+13	0.000000e+00	5.352114e-01	4.308418e+14	2.169594e+14	2.441293e+14	1.131207e+04	5.410900e+03	3.217299e+03	0	1.019179e-03
3.900000e+08	2.523170e+13	0.000000e+00	5.352114e-01	4.252697e+14	2.209047e+14	2.428769e+14	1.127981e+04	5.426190e+03	3.226390e+03	0	1.013817e-03
4.000000e+08	2.483629e+13	0.000000e+00	5.352114e-01	4.197940e+14	2.248088e+14	2.416336e+14	1.124796e+04	5.441119e+03	3.235267e+03	0	1.008493e-03
4.100000e+08	2.444779e+13	0.000000e+00	5.352114e-01	4.144128e+14	2.286697e+14	2.403993e+14	1.121652e+04	5.455692e+03	3.243932e+03	0	1.003207e-03
4.200000e+08	2.406608e+13	0.000000e+00	5.352114e-01	4.091243e+14	2.324854e+14	2.391738e+14	1.118548e+04	5.469915e+03	3.252389e+03	0	9.979585e-04
4.300000e+08	2.369101e+13	0.000000e+00	5.352114e-01	4.039267e+14	2.362543e+14	2.379572e+14	1.115484e+04	5.483791e+03	3.260640e+03	0	9.927470e-04
4.400000e+08	2.332247e+13	0.000000e+00	5.352114e-01	3.988183e+14	2.399745e+14	2.367493e+14	1.112458e+04	5.497327e+03	3.268688e+03	0	9.875723e-04
4.500000e+08	2.296033e+13	0.000000e+00	5.352114e-01	3.937975e+14	2.436447e+14	2.355501e+14	1.109471e+04	5.510527e+03	3.276536e+03	0	9.824341e-04
4.600000e+08	2.260447e+13	0.000000e+00	5.352114e-01	3.888626e+14	2.472631e+14	2.343595e+14	1.106521e+04	5.523396e+03	3.284188e+03	0	9.773321e-04
4.700000e+08	2.225478e+13	0.000000e+00	5.352114e-01	3.840119e+14	2.508285e+14	2.331774e+14	1.103607e+04	5.535938e+03	3.291646e+03	0	9.722661e-04
4.800000e+08	2.191113e+13	0.000000e+00	5.352114e-01	3.792440e+14	2.543396e+14	2.320038e+14	1.100730e+04	5.548160e+03	3.298913e+03	0	9.672356e-04
4.900000e+08	2.157341e+13	0.000000e+00	5.352114e-01	3.745572e+14	2.577952e+14	2.308386e+14	1.097889e+04	5.560065e+03	3.305992e+03	0	9.622405e-04
5.000000e+08	2.124151e+13	0.000000e+00	5.352114e-01	3.699501e+14	2.611940e+14	2.296818e+14	1.095082e+04	5.571659e+03	3.312885e+03	0	9.572804e-04
5.100000e+08	2.091533e+13	0.000000e+00	5.352114e-01	3.654211e+14	2.645351e+14	2.285332e+14	1.092310e+04	5.582946e+03	3.319596e+03	0	9.523551e-04
5.200000e+08	2.059475e+13	0.000000e+00	5.352114e-01	3.609688e+14	2.678176e+14	2.273928e+14	1.089571e+04	5.593931e+03	3.326128e+03	0	9.474643e-04
5.300000e+08	2.027967e+13	0.000000e+00	5.352114e-01	3.565917e+14	2.710405e+14	2.262605e+14	1.086866e+04	5.604620e+03	3.332484e+03	0	9.426077e-04
5.400000e+08	1.996999e+13	0.000000e+00	5.352114e-01	3.522886e+14	2.742031e+14	2.251363e+14	1.084193e+04	5.615017e+03	3.338666e+03	0	9.377851e-04
5.500000e+08	1.966560e+13	0.000000e+00	5.352114e-01	3.480579e+14	2.773049e+14	2.240201e+14	1.081553e+04	5.625126e+03	3.344677e+03	0	9.329961e-04
5.600000e+08	1.936642e+13	0.000000e+00	5.352114e-01	3.438983e+14	2.803450e+14	2.229119e+14	1.078944e+04	5.634953e+03	3.350520e+03	0	9.282405e-04
5.700000e+08	1.907234e+13	0.000000e+00	5.352114e-01	3.398086e+14	2.833230e+14	2.218115e+14	1.076366e+04	5.644502e+03	3.356198e+03	0	9.235180e-04
5.800000e+08	1.878326e+13	0.000000e+00	5.352114e-01	3.357874e+14	2.862384e+14	2.207189e+14	1.073819e+04	5.653778e+03	3.361713e+03	0	9.188283e-04
5.900000e+08	1.849910e+13	0.000000e+00	5.352114e-01	3.318335e+14	2.890909e+14	2.196341e+14	1.071302e+04	5.662786e+03	3.367069e+03	0	9.141712e-04
6.000000e+08	1.821975e+13	0.000000e+00	5.352114e-01	3.279456e+14	2.918802e+14	2.185569e+14	1.068814e+04	5.671530e+03	3.372268e+03	0	9.095464e-04
6.100000e+08	1.794514e+13	0.000000e+00	5.352114e-01	3.241224e+14	2.946059e+14	2.174874e+14	1.066355e+04	5.680015e+03	3.377313e+03	0	9.049537e-04
6.200000e+08	1.767517e+13	0.000000e+00	5.352114e-01	3.203628e+14	2.972681e+14	2.164254e+14	1.063925e+04	5.688245e+03	3.382207e+03	0	9.003927e-04
6.300000e+08	1.740976e+13	0.000000e+00	5.352114e-01	3.166657e+14	2.998664e+14	2.153709e+14	1.061523e+04	5.696225e+03	3.386952e+03	0	8.958631e-04
6.400000e+08	1.714882e+13	0.000000e+00	5.352114e-01	3.130297e+14	3.024009e+14	2.143238e+14	1.059148e+04	5.703960e+03	3.391551e+03	0	8.913648e-04
6.500000e+08	1.689227e+13	0.000000e+00	5.352114e-01	3.094539e+14	3.048717e+14	2.132842e+14	1.056801e+04	5.711454e+03	3.396007e+03	0	8.868974e-04
6.600000e+08	1.664003e+13	0.000000e+00	5.352114e-01	3.059370e+14	3.072787e+14	2.122518e+14	1.054480e+04	5.718710e+03	3.400321e+03	0	8.824607e-04
6.700000e+08	1.639201e+13	0.000000e+00	5.352114e-01	3.024780e+14	3.096222e+14	2.112267e+14	1.052186e+04	5.725735e+03	3.404498e+03	0	8.780544e-04
6.800000e+08	1.614814e+13	0.000000e+00	5.352114e-01	2.990758e+14	3.119022e+14	2.102088e+14	1.049917e+04	5.732531e+03	3.408539e+03	0	8.736782e-04
6.900000e+08	1.590833e+13	0.000000e+00	5.352114e-01	2.957294e+14	3.141191e+14	2.091980e+14	1.047674e+04	5.739104e+03	3.412447e+03	0	8.693319e-04
7.000000e+08	1.567252e+13	0.000000e+00	5.352114e-01	2.924377e+14	3.162731e+14	2.081944e+14	1.045456e+04	5.745457e+03	3.416225e+03	0	8.650151e-04
7.100000e+08	1.544063e+13	0.000000e+00	5.352114e-01	2.891997e+14	3.183645e+14	2.071977e+14	1.043263e+04	5.751594e+03	3.419874e+03	0	8.607276e-04
7.200000e+08	1.521259e+13	0.000000e+00	5.352114e-01	2.860144e+14	3.203937e+14	2.062080e+14	1.041093e+04	5.757521e+03	3.423398e+03	0	8.564692e-04
7.300000e+08	1.498831e+13	0.000000e+00	5.352114e-01	2.828807e+14	3.223611e+14	2.052253e+14	1.038948e+04	5.763240e+03	3.426799e+03	0	8.522395e-04
7.400000e+08	1.476774e+13	0.000000e+00	5.352114e-01	2.797979e+14	3.242672e+14	2.042494e+14	1.036826e+04	5.768756e+03	3.430079e+03	0	8.480382e-04
7.500000e+08	1.455081e+13	0.000000e+00	5.352114e-01	2.767648e+14	3.261123e+14	2.032803e+14	1.034727e+04	5.774074e+03	3.433240e+03	0	8.438652e-04
7.600000e+08	1.433744e+13	0.000000e+00	5.352114e-01	2.737806e+14	3.278972e+14	2.023179e+14	1.032650e+04	5.779195e+03	3.436286e+03	0	8.397201e-04
7.700000e+08	1.412756e+13	0.000000e+00	5.352114e-01	2.708444e+14	3.296223e+14	2.013623e+14	1.030596e+04	5.784126e+03	3.439217e+03	0	8.356026e-04
7.800000e+08	1.392112e+13	0.000000e+00	5.352114e-01	2.679553e+14	3.312880e+14	2.004133e+14	1.028564e+04	5.788869e+03	3.442038e+03	0	8.315126e-04
7.900000e+08	1.371805e+13	0.000000e+00	5.352114e-01	2.651123e+14	3.328953e+14	1.994709e+14	1.026553e+04	5.793429e+03	3.444749e+03	0	8.274496e-04
8.000000e+08	1.351829e+13	0.000000e+00	5.352114e-01	2.623147e+14	3.344446e+14	1.985350e+14	1.024564e+04	5.797808e+03	3.447353e+03	0	8.234134e-04
8.100000e+08	1.332176e+13	0.000000e+00	5.352114e-01	2.595616e+14	3.359365e+14	1.976056e+14	1.022596e+04	5.802011e+03	3.449852e+03	0	8.194037e-04
8.200000e+08	1.312842e+13	0.000000e+00	5.352114e-01	2.568521e+14	3.373718e+14	1.966826e+14	1.020648e+04	5.806042e+03	3.452248e+03	0	8.154204e-04
8.300000e+08	1.293820e+13	0.000000e+00	5.352114e-01	2.541855e+14	3.387512e+14	1.957660e+14	1.018720e+04	5.809903e+03	3.454544e+03	0	8.114630e-04
8.400000e+08	1.275105e+13	0.000000e+00	5.352114e-01	2.515609e+14	3.400753e+14	1.948558e+14	1.016813e+04	5.813599e+03	3.456742e+03	0	8.075313e-04
8.500000e+08	1.256690e+13	0.000000e+00	5.352114e-01	2.489776e+14	3.413450e+14	1.939518e+14	1.014925e+04	5.817133e+03	3.458843e+03	0	8.036250e-04
8.600000e+08	1.238570e+13	0.000000e+00	5.352114e-01	2.464347e+14	3.425609e+14	1.930541e+14	1.013056e+04	5.820508e+03	3.460850e+03	0	7.997439e-04
8.700000e+08	1.220740e+13	0.000000e+00	5.352114e-01	2.439316e+14	3.437239e+14	1.921625e+14	1.011207e+04	5.823727e+03	3.462764e+03	0	7.958877e-04
8.800000e+08	1.203194e+13	0.000000e+00	5.352114e-01	2.414675e+14	3.448347e+14	1.912771e+14	1.009376e+04	5.826795e+03	3.464588e+03	0	7.920561e-04
8.900000e+08	1.185927e+13	0.000000e+00	5.352114e-01	2.390417e+14	3.458940e+14	1.903977e+14	1.007563e+04	5.829714e+03	3.466324e+03	0	7.882488e-04
9.000000e+08	1.168933e+13	0.000000e+00	5.352114e-01	2.366534e+14	3.469028e+14	1.895244e+14	1.005769e+04	5.832487e+03	3.467973e+03	0	7.844656e-04
9.100000e+08	1.152207e+13	0.000000e+00	5.352114e-01	2.343020e+14	3.478618e+14	1.886571e+14	1.003993e+04	5.835118e+03	3.469537e+03	0	7.807061e-04
9.200000e+08	1.135745e+13	0.000000e+00	5.352114e-01	2.319867e+14	3.487719e+14	1.877957e+14	1.002234e+04	5.837609e+03	3.471018e+03	0	7.769701e-04
9.300000e+08	1.119541e+13	0.000000e+00	5.352114e-01	2.297070e+14	3.496338e+14	1.869402e+14	1.000492e+04	5.839965e+03	3.472419e+03	0	7.732574e-04
9.400000e+08	1.103591e+13	0.000000e+00	5.352114e-01	2.274621e+14	3.504483e+14	1.860906e+14	9.987678e+03	5.842186e+03	3.473740e+03	0	7.695676e-04
9.500000e+08	1.087890e+13	0.000000e+00	5.352114e-01	2.252514e+14	3.512164e+14	1.852467e+14	9.970601e+03	5.844278e+03	3.474983e+03	0	7.659004e-04
9.600000e+08	1.072432e+13	0.000000e+00	5.352114e-01	2.230742e+14	3.519388e+14	1.844086e+14	9.953690e+03	5.846242e+03	3.476151e+03	0	7.622557e-04
9.700000e+08	1.057215e+13	0.000000e+00	5.352114e-01	2.209300e+14	3.526163e+14	1.835762e+14	9.936941e+03	5.848081e+03	3.477245e+03	0	7.586331e-04
9.800000e+08	1.042233e+13	0.000000e+00	5.352114e-01	2.188181e+14	3.532498e+14	1.827495e+14	9.920353e+03	5.849799e+03	3.478266e+03	0	7.550324e-04
9.900000e+08	1.027481e+13	0.000000e+00	5.352114e-01	2.167380e+14	3.538401e+14	1.819284e+14	9.903923e+03	5.851397e+03	3.479217e+03	0	7.514533e-04
1.000000e+09	1.012956e+13	0.000000e+00	5.352114e-01	2.146890e+14	3.543881e+14	1.811129e+14	9.887649e+03	5.852879e+03	3.480098e+03	0	7.478955e-04
1.010000e+09	9.986534e+12	0.000000e+00	5.352114e-01	2.126706e+14	3.548947e+14	1.803029e+14	9.871529e+03	5.854248e+03	3.480911e+03	0	7.443588e-04
1.020000e+09	9.845688e+12	0.000000e+00	5.352114e-01	2.106821e+14	3.553605e+14	1.794984e+14	9.855559e+03	5.855505e+03	3.481659e+03	0	7.408428e-04
1.030000e+09	9.706983e+12	0.000000e+00	5.352114e-01	2.087232e+14	3.557865e+14	1.786993e+14	9.839738e+03	5.856653e+03	3.482342e+03	0	7.373474e-04
1.040000e+09	9.570379e+12	0.000000e+00	5.352114e-01	2.067931e+14	3.561733e+14	1.779057e+14	9.824064e+03	5.857695e+03	3.482961e+03	0	7.338722e-04
1.050000e+09	9.435838e+12	0.000000e+00	5.352114e-01	2.048915e+14	3.565220e+14	1.771174e+14	9.808534e+03	5.858634e+03	3.483520e+03	0	7.304170e-04
1.060000e+09	9.303320e+12	0.000000e+00	5.352114e-01	2.030177e+14	3.568333e+14	1.763344e+14	9.793147e+03	5.859471e+03	3.484017e+03	0	7.269815e-04
1.070000e+09	9.172790e+12	0.000000e+00	5.352114e-01	2.011712e+14	3.571079e+14	1.755567e+14	9.777900e+03	5.860210e+03	3.484456e+03	0	7.235655e-04
1.080000e+09	9.044210e+12	0.000000e+00	5.352114e-01	1.993516e+14	3.573468e+14	1.747842e+14	9.762791e+03	5.860851e+03	3.484838e+03	0	7.201687e-04
1.090000e+09	8.917544e+12	0.000000e+00	5.352114e-01	1.975584e+14	3.575506e+14	1.740169e+14	9.747818e+03	5.861399e+03	3.485163e+03	0	7.167909e-04
1.100000e+09	8.792758e+12	0.000000e+00	5.352114e-01	1.957910e+14	3.577201e+14	1.732548e+14	9.732980e+03	5.861854e+03	3.485434e+03	0	7.134317e-04
1.110000e+09	8.669816e+12	0.000000e+00	5.352114e-01	1.940491e+14	3.578563e+14	1.724977e+14	9.718274e+03	5.862219e+03	3.485651e+03	0	7.100910e-04
1.120000e+09	8.548684e+12	0.000000e+00	5.352114e-01	1.923321e+14	3.579596e+14	1.717458e+14	9.703699e+03	5.862496e+03	3.485816e+03	0	7.067684e-04
1.130000e+09	8.429331e+12	0.000000e+00	5.352114e-01	1.906396e+14	3.580311e+14	1.709989e+14	9.689252e+03	5.862688e+03	3.485930e+03	0	7.034638e-04
1.140000e+09	8.311722e+12	0.000000e+00	5.352114e-01	1.889712e+14	3.580713e+14	1.702569e+14	9.674932e+03	5.862796e+03	3.485994e+03	0	7.001768e-04
1.150000e+09	8.195827e+12	0.000000e+00	5.352114e-01	1.873263e+14	3.580811e+14	1.695200e+14	9.660736e+03	5.862822e+03	3.486010e+03	0	6.969072e-04
1.160000e+09	8.081613e+12	0.000000e+00	5.352114e-01	1.857047e+14	3.580612e+14	1.687879e+14	9.646664e+03	5.862769e+03	3.485978e+03	0	6.936548e-04
1.170000e+09	7.969052e+12	0.000000e+00	5.352114e-01	1.841059e+14	3.580122e+14	1.680607e+14	9.632714e+03	5.862638e+03	3.485900e+03	0	6.904193e-04
1.180000e+09	7.858112e+12	0.000000e+00	5.352114e-01	1.825294e+14	3.579350e+14	1.673384e+14	9.618883e+03	5.862430e+03	3.485777e+03	0	6.872005e-04
1.190000e+09	7.748764e+12	0.000000e+00	5.352114e-01	1.809748e+14	3.578302e+14	1.666209e+14	9.605170e+03	5.862149e+03	3.485610e+03	0	6.839980e-04
1.200000e+09	7.640979e+12	0.000000e+00	5.352114e-01	1.794419e+14	3.576986e+14	1.659081e+14	9.591574e+03	5.861796e+03	3.485400e+03	0	6.808118e-04
1.210000e+09	7.534730e+12	0.000000e+00	5.352114e-01	1.779301e+14	3.575407e+14	1.652000e+14	9.578093e+03	5.861372e+03	3.485148e+03	0	6.776414e-04
1.220000e+09	7.429989e+12	0.000000e+00	5.352114e-01	1.764392e+14	3.573572e+14	1.644967e+14	9.564725e+03	5.860879e+03	3.484855e+03	0	6.744868e-04
1.230000e+09	7.326728e+12	0.000000e+00	5.352114e-01	1.749687e+14	3.571490e+14	1.637980e+14	9.551468e+03	5.860320e+03	3.484522e+03	0	6.713475e-04
1.240000e+09	7.224921e+12	0.000000e+00	5.352114e-01	1.735183e+14	3.569165e+14	1.631039e+14	9.538322e+03	5.859695e+03	3.484150e+03	0	6.682235e-04
1.250000e+09	7.124542e+12	0.000000e+00	5.352114e-01	1.720876e+14	3.566603e+14	1.624144e+14	9.525284e+03	5.859006e+03	3.483741e+03	0	6.651144e-04
1.260000e+09	7.025566e+12	0.000000e+00	5.352114e-01	1.706762e+14	3.563814e+14	1.617294e+14	9.512354e+03	5.858255e+03	3.483294e+03	0	6.620201e-04
1.270000e+09	6.927968e+12	0.000000e+00	5.352114e-01	1.692840e+14	3.560801e+14	1.610490e+14	9.499529e+03	5.857444e+03	3.482812e+03	0	6.589402e-04
1.280000e+09	6.831723e+12	0.000000e+00	5.352114e-01	1.679104e+14	3.557570e+14	1.603730e+14	9.486809e+03	5.856574e+03	3.482294e+03	0	6.558746e-04
1.290000e+09	6.736807e+12	0.000000e+00	5.352114e-01	1.665552e+14	3.554128e+14	1.597015e+14	9.474191e+03	5.855646e+03	3.481743e+03	0	6.528229e-04
1.300000e+09	6.643196e+12	0.000000e+00	5.352114e-01	1.652180e+14	3.550480e+14	1.590343e+14	9.461675e+03	5.854662e+03	3.481158e+03	0	6.497851e-04
1.310000e+09	6.550869e+12	0.000000e+00	5.352114e-01	1.638986e+14	3.546635e+14	1.583716e+14	9.449260e+03	5.853623e+03	3.480540e+03	0	6.467608e-04
1.320000e+09	6.459802e+12	0.000000e+00	5.352114e-01	1.625966e+14	3.542594e+14	1.577132e+14	9.436943e+03	5.852531e+03	3.479891e+03	0	6.437498e-04
1.330000e+09	6.369972e+12	0.000000e+00	5.352114e-01	1.613117e+14	3.538366e+14	1.570591e+14	9.424724e+03	5.851388e+03	3.479211e+03	0	6.407519e-04
1.340000e+09	6.281360e+12	0.000000e+00	5.352114e-01	1.600437e+14	3.533954e+14	1.564093e+14	9.412601e+03	5.850193e+03	3.478501e+03	0	6.377668e-04
1.350000e+09	6.193942e+12	0.000000e+00	5.352114e-01	1.587922e+14	3.529366e+14	1.557637e+14	9.400573e+03	5.848950e+03	3.477761e+03	0	6.347944e-04
1.360000e+09	6.107699e+12	0.000000e+00	5.352114e-01	1.575570e+14	3.524604e+14	1.551223e+14	9.388639e+03	5.847659e+03	3.476994e+03	0	6.318344e-04
