#t		Qconv[W]	Ri[Rp]		R*[Rp]		Qc[W]		Qm[W]		Qr[W]		Tcmb[K]		Tl[K]		Tup[K]		RiFlag		Bs[T]
0.000000e+00	7.236252e+13	0.000000e+00	5.422536e-01	1.004007e+15	6.023421e+13	3.616861e+14	1.462926e+04	4.837157e+03	2.767936e+03	0	1.415109e-03
1.000000e+07	7.126521e+13	0.000000e+00	5.422536e-01	9.909291e+14	6.365595e+13	3.596821e+14	1.457258e+04	4.873887e+03	2.788954e+03	0	1.407919e-03
2.000000e+07	7.018568e+13	0.000000e+00	5.422536e-01	9.780606e+14	6.717471e+13	3.576931e+14	1.451663e+04	4.910095e+03	2.809672e+03	0	1.400774e-03
3.000000e+07	6.912354e+13	0.000000e+00	5.422536e-01	9.653970e+14	7.078868e+13	3.557190e+14	1.446141e+04	4.945783e+03	2.830094e+03	0	1.393672e-03
4.000000e+07	6.807842e+13	0.000000e+00	5.422536e-01	9.529341e+14	7.449592e+13	3.537595e+14	1.440689e+04	4.980955e+03	2.850220e+03	0	1.386612e-03
5.000000e+07	6.704995e+13	0.000000e+00	5.422536e-01	9.406675e+14	7.829432e+13	3.518147e+14	1.435307e+04	5.015615e+03	2.870054e+03	0	1.379594e-03
6.000000e+07	6.603779e+13	0.000000e+00	5.422536e-01	9.285934e+14	8.218162e+13	3.498844e+14	1.429995e+04	5.049766e+03	2.889596e+03	0	1.372617e-03
7.000000e+07	6.504160e+13	0.000000e+00	5.422536e-01	9.167076e+14	8.615543e+13	3.479685e+14	1.424750e+04	5.083412e+03	2.908849e+03	0	1.365680e-03
8.000000e+07	6.406106e+13	0.000000e+00	5.422536e-01	9.050066e+14	9.021320e+13	3.460668e+14	1.419571e+04	5.116555e+03	2.927814e+03	0	1.358783e-03
9.000000e+07	6.309586e+13	0.000000e+00	5.422536e-01	8.934866e+14	9.435227e+13	3.441793e+14	1.414459e+04	5.149200e+03	2.946494e+03	0	1.351924e-03
1.000000e+08	6.214569e+13	0.000000e+00	5.422536e-01	8.821440e+14	9.856985e+13	3.423058e+14	1.409410e+04	5.181349e+03	2.964891e+03	0	1.345103e-03
1.100000e+08	6.121026e+13	0.000000e+00	5.422536e-01	8.709756e+14	1.028631e+14	3.404461e+14	1.404426e+04	5.213006e+03	2.983005e+03	0	1.338320e-03
1.200000e+08	6.028929e+13	0.000000e+00	5.422536e-01	8.599779e+14	1.072289e+14	3.386003e+14	1.399505e+04	5.244173e+03	3.000840e+03	0	1.331574e-03
1.300000e+08	5.938251e+13	0.000000e+00	5.422536e-01	8.491477e+14	1.116642e+14	3.367681e+14	1.394645e+04	5.274855e+03	3.018397e+03	0	1.324864e-03
1.400000e+08	5.848965e+13	0.000000e+00	5.422536e-01	8.384821e+14	1.161658e+14	3.349495e+14	1.389846e+04	5.305054e+03	3.035677e+03	0	1.318191e-03
1.500000e+08	5.761045e+13	0.000000e+00	5.422536e-01	8.279779e+14	1.207304e+14	3.331443e+14	1.385107e+04	5.334773e+03	3.052683e+03	0	1.311553e-03
1.600000e+08	5.674467e+13	0.000000e+00	5.422536e-01	8.176323e+14	1.253547e+14	3.313525e+14	1.380427e+04	5.364015e+03	3.069417e+03	0	1.304949e-03
1.700000e+08	5.589207e+13	0.000000e+00	5.422536e-01	8.074424e+14	1.300353e+14	3.295739e+14	1.375805e+04	5.392785e+03	3.085879e+03	0	1.298381e-03
1.800000e+08	5.505241e+13	0.000000e+00	5.422536e-01	7.974056e+14	1.347686e+14	3.278084e+14	1.371240e+04	5.421084e+03	3.102073e+03	0	1.291846e-03
1.900000e+08	5.422547e+13	0.000000e+00	5.422536e-01	7.875192e+14	1.395512e+14	3.260559e+14	1.366732e+04	5.448917e+03	3.117999e+03	0	1.285345e-03
2.000000e+08	5.341103e+13	0.000000e+00	5.422536e-01	7.777806e+14	1.443795e+14	3.243163e+14	1.362279e+04	5.476286e+03	3.133661e+03	0	1.278877e-03
2.100000e+08	5.260887e+13	0.000000e+00	5.422536e-01	7.681872e+14	1.492498e+14	3.225895e+14	1.357881e+04	5.503196e+03	3.149059e+03	0	1.272443e-03
2.200000e+08	5.181880e+13	0.000000e+00	5.422536e-01	7.587368e+14	1.541585e+14	3.208754e+14	1.353537e+04	5.529648e+03	3.164195e+03	0	1.266041e-03
2.300000e+08	5.104061e+13	0.000000e+00	5.422536e-01	7.494268e+14	1.591020e+14	3.191738e+14	1.349247e+04	5.555647e+03	3.179073e+03	0	1.259671e-03
2.400000e+08	5.027410e+13	0.000000e+00	5.422536e-01	7.402551e+14	1.640766e+14	3.174847e+14	1.345008e+04	5.581196e+03	3.193692e+03	0	1.253334e-03
2.500000e+08	4.951908e+13	0.000000e+00	5.422536e-01	7.312194e+14	1.690787e+14	3.158080e+14	1.340821e+04	5.606298e+03	3.208056e+03	0	1.247028e-03
2.600000e+08	4.877537e+13	0.000000e+00	5.422536e-01	7.223174e+14	1.741045e+14	3.141436e+14	1.336685e+04	5.630956e+03	3.222167e+03	0	1.240753e-03
2.700000e+08	4.804280e+13	0.000000e+00	5.422536e-01	7.135472e+14	1.791504e+14	3.124913e+14	1.332600e+04	5.655175e+03	3.236025e+03	0	1.234510e-03
2.800000e+08	4.732117e+13	0.000000e+00	5.422536e-01	7.049065e+14	1.842128e+14	3.108512e+14	1.328563e+04	5.678958e+03	3.249634e+03	0	1.228298e-03
2.900000e+08	4.661033e+13	0.000000e+00	5.422536e-01	6.963934e+14	1.892879e+14	3.092229e+14	1.324575e+04	5.702309e+03	3.262996e+03	0	1.222117e-03
3.000000e+08	4.591010e+13	0.000000e+00	5.422536e-01	6.880060e+14	1.943724e+14	3.076066e+14	1.320635e+04	5.725230e+03	3.276112e+03	0	1.215966e-03
3.100000e+08	4.522032e+13	0.000000e+00	5.422536e-01	6.797422e+14	1.994625e+14	3.060020e+14	1.316742e+04	5.747726e+03	3.288985e+03	0	1.209845e-03
3.200000e+08	4.454084e+13	0.000000e+00	5.422536e-01	6.716001e+14	2.045548e+14	3.044091e+14	1.312896e+04	5.769800e+03	3.301616e+03	0	1.203755e-03
3.300000e+08	4.387149e+13	0.000000e+00	5.422536e-01	6.635781e+14	2.096457e+14	3.028278e+14	1.309096e+04	5.791457e+03	3.314009e+03	0	1.197694e-03
3.400000e+08	4.321212e+13	0.000000e+00	5.422536e-01	6.556741e+14	2.147320e+14	3.012579e+14	1.305341e+04	5.812699e+03	3.326164e+03	0	1.191664e-03
3.500000e+08	4.256258e+13	0.000000e+00	5.422536e-01	6.478866e+14	2.198101e+14	2.996995e+14	1.301630e+04	5.833531e+03	3.338085e+03	0	1.185663e-03
3.600000e+08	4.192272e+13	0.000000e+00	5.422536e-01	6.402136e+14	2.248769e+14	2.981523e+14	1.297963e+04	5.853957e+03	3.349773e+03	0	1.179691e-03
3.700000e+08	4.129241e+13	0.000000e+00	5.422536e-01	6.326536e+14	2.299290e+14	2.966164e+14	1.294339e+04	5.873981e+03	3.361231e+03	0	1.173749e-03
3.800000e+08	4.067150e+13	0.000000e+00	5.422536e-01	6.252049e+14	2.349633e+14	2.950916e+14	1.290758e+04	5.893606e+03	3.372461e+03	0	1.167836e-03
3.900000e+08	4.005985e+13	0.000000e+00	5.422536e-01	6.178657e+14	2.399767e+14	2.935778e+14	1.287219e+04	5.912836e+03	3.383465e+03	0	1.161953e-03
4.000000e+08	3.945733e+13	0.000000e+00	5.422536e-01	6.106346e+14	2.449662e+14	2.920749e+14	1.283721e+04	5.931676e+03	3.394245e+03	0	1.156098e-03
4.100000e+08	3.886380e+13	0.000000e+00	5.422536e-01	6.035099e+14	2.499288e+14	2.905828e+14	1.280264e+04	5.950129e+03	3.404805e+03	0	1.150271e-03
4.200000e+08	3.827913e+13	0.000000e+00	5.422536e-01	5.964901e+14	2.548617e+14	2.891016e+14	1.276848e+04	5.968201e+03	3.415146e+03	0	1.144474e-03
4.300000e+08	3.770319e+13	0.000000e+00	5.422536e-01	5.895736e+14	2.597622e+14	2.876309e+14	1.273470e+04	5.985894e+03	3.425270e+03	0	1.138705e-03
4.400000e+08	3.713585e+13	0.000000e+00	5.422536e-01	5.827590e+14	2.646275e+14	2.861709e+14	1.270132e+04	6.003213e+03	3.435180e+03	0	1.132965e-03
4.500000e+08	3.657700e+13	0.000000e+00	5.422536e-01	5.760447e+14	2.694551e+14	2.847214e+14	1.266832e+04	6.020162e+03	3.444879e+03	0	1.127253e-03
4.600000e+08	3.602650e+13	0.000000e+00	5.422536e-01	5.694293e+14	2.742423e+14	2.832822e+14	1.263570e+04	6.036746e+03	3.454369e+03	0	1.121569e-03
4.700000e+08	3.548423e+13	0.000000e+00	5.422536e-01	5.629114e+14	2.789870e+14	2.818534e+14	1.260346e+04	6.052968e+03	3.463652e+03	0	1.115913e-03
4.800000e+08	3.495008e+13	0.000000e+00	5.422536e-01	5.564895e+14	2.836866e+14	2.804348e+14	1.257158e+04	6.068834e+03	3.472730e+03	0	1.110285e-03
4.900000e+08	3.442392e+13	0.000000e+00	5.422536e-01	5.501623e+14	2.883391e+14	2.790264e+14	1.254006e+04	6.084346e+03	3.481607e+03	0	1.104686e-03
5.000000e+08	3.390565e+13	0.000000e+00	5.422536e-01	5.439283e+14	2.929424e+14	2.776281e+14	1.250890e+04	6.099510e+03	3.490284e+03	0	1.099114e-03
5.100000e+08	3.339514e+13	0.000000e+00	5.422536e-01	5.377862e+14	2.974942e+14	2.762397e+14	1.247809e+04	6.114330e+03	3.498765e+03	0	1.093569e-03
5.200000e+08	3.289228e+13	0.000000e+00	5.422536e-01	5.317347e+14	3.019929e+14	2.748613e+14	1.244763e+04	6.128811e+03	3.507050e+03	0	1.088053e-03
5.300000e+08	3.239697e+13	0.000000e+00	5.422536e-01	5.257725e+14	3.064365e+14	2.734926e+14	1.241751e+04	6.142955e+03	3.515144e+03	0	1.082564e-03
5.400000e+08	3.190908e+13	0.000000e+00	5.422536e-01	5.198981e+14	3.108232e+14	2.721338e+14	1.238772e+04	6.156769e+03	3.523049e+03	0	1.077102e-03
5.500000e+08	3.142852e+13	0.000000e+00	5.422536e-01	5.141105e+14	3.151516e+14	2.707846e+14	1.235827e+04	6.170256e+03	3.530767e+03	0	1.071667e-03
5.600000e+08	3.095517e+13	0.000000e+00	5.422536e-01	5.084082e+14	3.194200e+14	2.694449e+14	1.232914e+04	6.183421e+03	3.538300e+03	0	1.066260e-03
5.700000e+08	3.048892e+13	0.000000e+00	5.422536e-01	5.027900e+14	3.236270e+14	2.681148e+14	1.230033e+04	6.196268e+03	3.545651e+03	0	1.060879e-03
5.800000e+08	3.002968e+13	0.000000e+00	5.422536e-01	4.972547e+14	3.277712e+14	2.667942e+14	1.227185e+04	6.208802e+03	3.552823e+03	0	1.055526e-03
5.900000e+08	2.957734e+13	0.000000e+00	5.422536e-01	4.918010e+14	3.318514e+14	2.654829e+14	1.224367e+04	6.221026e+03	3.559818e+03	0	1.050199e-03
6.000000e+08	2.913179e+13	0.000000e+00	5.422536e-01	4.864278e+14	3.358664e+14	2.641809e+14	1.221580e+04	6.232946e+03	3.566639e+03	0	1.044899e-03
6.100000e+08	2.869294e+13	0.000000e+00	5.422536e-01	4.811338e+14	3.398152e+14	2.628881e+14	1.218824e+04	6.244565e+03	3.573288e+03	0	1.039626e-03
6.200000e+08	2.826068e+13	0.000000e+00	5.422536e-01	4.759179e+14	3.436967e+14	2.616044e+14	1.216097e+04	6.255889e+03	3.579768e+03	0	1.034378e-03
6.300000e+08	2.783492e+13	0.000000e+00	5.422536e-01	4.707789e+14	3.475101e+14	2.603298e+14	1.213400e+04	6.266920e+03	3.586080e+03	0	1.029158e-03
6.400000e+08	2.741556e+13	0.000000e+00	5.422536e-01	4.657156e+14	3.512546e+14	2.590641e+14	1.210732e+04	6.277665e+03	3.592228e+03	0	1.023963e-03
6.500000e+08	2.700250e+13	0.000000e+00	5.422536e-01	4.607268e+14	3.549294e+14	2.578074e+14	1.208092e+04	6.288127e+03	3.598215e+03	0	1.018794e-03
6.600000e+08	2.659564e+13	0.000000e+00	5.422536e-01	4.558116e+14	3.585339e+14	2.565596e+14	1.205481e+04	6.298310e+03	3.604042e+03	0	1.013652e-03
6.700000e+08	2.619490e+13	0.000000e+00	5.422536e-01	4.509687e+14	3.620676e+14	2.553205e+14	1.202897e+04	6.308218e+03	3.609712e+03	0	1.008535e-03
6.800000e+08	2.580018e+13	0.000000e+00	5.422536e-01	4.461970e+14	3.655299e+14	2.540901e+14	1.200341e+04	6.317857e+03	3.615227e+03	0	1.003443e-03
6.900000e+08	2.541138e+13	0.000000e+00	5.422536e-01	4.414955e+14	3.689204e+14	2.528683e+14	1.197812e+04	6.327230e+03	3.620591e+03	0	9.983773e-04
7.000000e+08	2.502842e+13	0.000000e+00	5.422536e-01	4.368631e+14	3.722389e+14	2.516552e+14	1.195309e+04	6.336342e+03	3.625805e+03	0	9.933365e-04
7.100000e+08	2.465120e+13	0.000000e+00	5.422536e-01	4.322987e+14	3.754850e+14	2.504505e+14	1.192833e+04	6.345196e+03	3.630872e+03	0	9.883209e-04
7.200000e+08	2.427965e+13	0.000000e+00	5.422536e-01	4.278013e+14	3.786585e+14	2.492542e+14	1.190382e+04	6.353798e+03	3.635793e+03	0	9.833302e-04
7.300000e+08	2.391366e+13	0.000000e+00	5.422536e-01	4.233698e+14	3.817593e+14	2.480663e+14	1.187956e+04	6.362150e+03	3.640573e+03	0	9.783643e-04
7.400000e+08	2.355315e+13	0.000000e+00	5.422536e-01	4.190033e+14	3.847874e+14	2.468866e+14	1.185556e+04	6.370258e+03	3.645212e+03	0	9.734230e-04
7.500000e+08	2.319805e+13	0.000000e+00	5.422536e-01	4.147007e+14	3.877428e+14	2.457152e+14	1.183180e+04	6.378125e+03	3.649714e+03	0	9.685062e-04
7.600000e+08	2.284825e+13	0.000000e+00	5.422536e-01	4.104609e+14	3.906255e+14	2.445520e+14	1.180829e+04	6.385756e+03	3.654081e+03	0	9.636136e-04
7.700000e+08	2.250368e+13	0.000000e+00	5.422536e-01	4.062831e+14	3.934355e+14	2.433969e+14	1.178501e+04	6.393154e+03	3.658314e+03	0	9.587450e-04
7.800000e+08	2.216426e+13	0.000000e+00	5.422536e-01	4.021663e+14	3.961733e+14	2.422497e+14	1.176198e+04	6.400324e+03	3.662417e+03	0	9.539004e-04
7.900000e+08	2.182991e+13	0.000000e+00	5.422536e-01	3.981094e+14	3.988387e+14	2.411106e+14	1.173917e+04	6.407269e+03	3.666391e+03	0	9.490795e-04
8.000000e+08	2.150054e+13	0.000000e+00	5.422536e-01	3.941116e+14	4.014323e+14	2.399793e+14	1.171659e+04	6.413994e+03	3.670239e+03	0	9.442821e-04
8.100000e+08	2.117608e+13	0.000000e+00	5.422536e-01	3.901719e+14	4.039544e+14	2.388559e+14	1.169424e+04	6.420502e+03	3.673963e+03	0	9.395079e-04
8.200000e+08	2.085645e+13	0.000000e+00	5.422536e-01	3.862894e+14	4.064052e+14	2.377403e+14	1.167211e+04	6.426797e+03	3.677565e+03	0	9.347569e-04
8.300000e+08	2.054156e+13	0.000000e+00	5.422536e-01	3.824632e+14	4.087851e+14	2.366324e+14	1.165021e+04	6.432884e+03	3.681048e+03	0	9.300288e-04
8.400000e+08	2.023135e+13	0.000000e+00	5.422536e-01	3.786924e+14	4.110949e+14	2.355321e+14	1.162851e+04	6.438765e+03	3.684414e+03	0	9.253234e-04
8.500000e+08	1.992574e+13	0.000000e+00	5.422536e-01	3.749760e+14	4.133347e+14	2.344394e+14	1.160704e+04	6.444445e+03	3.687664e+03	0	9.206405e-04
8.600000e+08	1.962466e+13	0.000000e+00	5.422536e-01	3.713133e+14	4.155051e+14	2.333543e+14	1.158577e+04	6.449927e+03	3.690801e+03	0	9.159799e-04
8.700000e+08	1.932802e+13	0.000000e+00	5.422536e-01	3.677034e+14	4.176068e+14	2.322766e+14	1.156470e+04	6.455216e+03	3.693827e+03	0	9.113413e-04
8.800000e+08	1.903577e+13	0.000000e+00	5.422536e-01	3.641453e+14	4.196404e+14	2.312063e+14	1.154385e+04	6.460314e+03	3.696744e+03	0	9.067246e-04
8.900000e+08	1.874782e+13	0.000000e+00	5.422536e-01	3.606383e+14	4.216064e+14	2.301434e+14	1.152319e+04	6.465225e+03	3.699555e+03	0	9.021295e-04
9.000000e+08	1.846412e+13	0.000000e+00	5.422536e-01	3.571816e+14	4.235056e+14	2.290878e+14	1.150273e+04	6.469953e+03	3.702260e+03	0	8.975558e-04
9.100000e+08	1.818458e+13	0.000000e+00	5.422536e-01	3.537743e+14	4.253386e+14	2.280394e+14	1.148247e+04	6.474501e+03	3.704863e+03	0	8.930032e-04
9.200000e+08	1.790914e+13	0.000000e+00	5.422536e-01	3.504157e+14	4.271061e+14	2.269982e+14	1.146240e+04	6.478873e+03	3.707365e+03	0	8.884716e-04
9.300000e+08	1.763774e+13	0.000000e+00	5.422536e-01	3.471049e+14	4.288089e+14	2.259642e+14	1.144252e+04	6.483072e+03	3.709767e+03	0	8.839607e-04
9.400000e+08	1.737031e+13	0.000000e+00	5.422536e-01	3.438411e+14	4.304476e+14	2.249372e+14	1.142283e+04	6.487102e+03	3.712073e+03	0	8.794702e-04
9.500000e+08	1.710678e+13	0.000000e+00	5.422536e-01	3.406237e+14	4.320232e+14	2.239172e+14	1.140332e+04	6.490966e+03	3.714284e+03	0	8.749999e-04
9.600000e+08	1.684709e+13	0.000000e+00	5.422536e-01	3.374518e+14	4.335363e+14	2.229041e+14	1.138399e+04	6.494666e+03	3.716402e+03	0	8.705497e-04
9.700000e+08	1.659117e+13	0.000000e+00	5.422536e-01	3.343246e+14	4.349879e+14	2.218980e+14	1.136484e+04	6.498207e+03	3.718428e+03	0	8.661191e-04
9.800000e+08	1.633897e+13	0.000000e+00	5.422536e-01	3.312416e+14	4.363787e+14	2.208987e+14	1.134587e+04	6.501591e+03	3.720364e+03	0	8.617081e-04
9.900000e+08	1.609042e+13	0.000000e+00	5.422536e-01	3.282019e+14	4.377096e+14	2.199062e+14	1.132708e+04	6.504822e+03	3.722213e+03	0	8.573163e-04
1.000000e+09	1.584546e+13	0.000000e+00	5.422536e-01	3.252048e+14	4.389813e+14	2.189204e+14	1.130845e+04	6.507903e+03	3.723976e+03	0	8.529434e-04
1.010000e+09	1.560404e+13	0.000000e+00	5.422536e-01	3.222496e+14	4.401948e+14	2.179413e+14	1.129000e+04	6.510836e+03	3.725655e+03	0	8.485893e-04
1.020000e+09	1.536608e+13	0.000000e+00	5.422536e-01	3.193357e+14	4.413510e+14	2.169689e+14	1.127171e+04	6.513626e+03	3.727251e+03	0	8.442537e-04
1.030000e+09	1.513154e+13	0.000000e+00	5.422536e-01	3.164623e+14	4.424507e+14	2.160030e+14	1.125359e+04	6.516274e+03	3.728766e+03	0	8.399363e-04
1.040000e+09	1.490037e+13	0.000000e+00	5.422536e-01	3.136289e+14	4.434947e+14	2.150437e+14	1.123563e+04	6.518783e+03	3.730202e+03	0	8.356368e-04
1.050000e+09	1.467249e+13	0.000000e+00	5.422536e-01	3.108346e+14	4.444842e+14	2.140908e+14	1.121783e+04	6.521157e+03	3.731560e+03	0	8.313550e-04
1.060000e+09	1.444786e+13	0.000000e+00	5.422536e-01	3.080790e+14	4.454199e+14	2.131444e+14	1.120019e+04	6.523399e+03	3.732843e+03	0	8.270907e-04
1.070000e+09	1.422643e+13	0.000000e+00	5.422536e-01	3.053613e+14	4.463025e+14	2.122043e+14	1.118270e+04	6.525510e+03	3.734051e+03	0	8.228435e-04
1.080000e+09	1.400814e+13	0.000000e+00	5.422536e-01	3.026809e+14	4.471333e+14	2.112706e+14	1.116537e+04	6.527494e+03	3.735187e+03	0	8.186132e-04
1.090000e+09	1.379294e+13	0.000000e+00	5.422536e-01	3.000372e+14	4.479130e+14	2.103431e+14	1.114819e+04	6.529354e+03	3.736251e+03	0	8.143995e-04
1.100000e+09	1.358077e+13	0.000000e+00	5.422536e-01	2.974297e+14	4.486425e+14	2.094219e+14	1.113116e+04	6.531092e+03	3.737245e+03	0	8.102021e-04
1.110000e+09	1.337159e+13	0.000000e+00	5.422536e-01	2.948576e+14	4.493227e+14	2.085068e+14	1.111428e+04	6.532711e+03	3.738172e+03	0	8.060209e-04
1.120000e+09	1.316535e+13	0.000000e+00	5.422536e-01	2.923205e+14	4.499546e+14	2.075979e+14	1.109754e+04	6.534212e+03	3.739031e+03	0	8.018554e-04
1.130000e+09	1.296199e+13	0.000000e+00	5.422536e-01	2.898177e+14	4.505389e+14	2.066951e+14	1.108095e+04	6.535600e+03	3.739825e+03	0	7.977054e-04
1.140000e+09	1.276148e+13	0.000000e+00	5.422536e-01	2.873487e+14	4.510767e+14	2.057983e+14	1.106450e+04	6.536876e+03	3.740555e+03	0	7.935707e-04
1.150000e+09	1.256376e+13	0.000000e+00	5.422536e-01	2.849130e+14	4.515689e+14	2.049074e+14	1.104819e+04	6.538043e+03	3.741223e+03	0	7.894509e-04
1.160000e+09	1.236878e+13	0.000000e+00	5.422536e-01	2.825099e+14	4.520163e+14	2.040226e+14	1.103201e+04	6.539102e+03	3.741829e+03	0	7.853457e-04
1.170000e+09	1.217650e+13	0.000000e+00	5.422536e-01	2.801389e+14	4.524198e+14	2.031436e+14	1.101597e+04	6.540057e+03	3.742376e+03	0	7.812550e-04
1.180000e+09	1.198688e+13	0.000000e+00	5.422536e-01	2.777995e+14	4.527803e+14	2.022704e+14	1.100007e+04	6.540910e+03	3.742863e+03	0	7.771784e-04
1.190000e+09	1.179987e+13	0.000000e+00	5.422536e-01	2.754913e+14	4.530987e+14	2.014031e+14	1.098430e+04	6.541663e+03	3.743294e+03	0	7.731155e-04
1.200000e+09	1.161543e+13	0.000000e+00	5.422536e-01	2.732136e+14	4.533758e+14	2.005416e+14	1.096866e+04	6.542317e+03	3.743669e+03	0	7.690662e-04
1.210000e+09	1.143351e+13	0.000000e+00	5.422536e-01	2.709660e+14	4.536125e+14	1.996857e+14	1.095315e+04	6.542877e+03	3.743989e+03	0	7.650301e-04
1.220000e+09	1.125408e+13	0.000000e+00	5.422536e-01	2.687479e+14	4.538097e+14	1.988355e+14	1.093776e+04	6.543342e+03	3.744255e+03	0	7.610069e-04
1.230000e+09	1.107709e+13	0.000000e+00	5.422536e-01	2.665590e+14	4.539683e+14	1.979910e+14	1.092250e+04	6.543716e+03	3.744469e+03	0	7.569963e-04
1.240000e+09	1.090249e+13	0.000000e+00	5.422536e-01	2.643986e+14	4.540889e+14	1.971520e+14	1.090737e+04	6.544001e+03	3.744632e+03	0	7.529981e-04
1.250000e+09	1.073026e+13	0.000000e+00	5.422536e-01	2.622664e+14	4.541725e+14	1.963185e+14	1.089235e+04	6.544198e+03	3.744745e+03	0	7.490119e-04
1.260000e+09	1.056036e+13	0.000000e+00	5.422536e-01	2.601619e+14	4.542200e+14	1.954906e+14	1.087746e+04	6.544310e+03	3.744809e+03	0	7.450375e-04
1.270000e+09	1.039273e+13	0.000000e+00	5.422536e-01	2.580847e+14	4.542322e+14	1.946681e+14	1.086269e+04	6.544339e+03	3.744826e+03	0	7.410744e-04
1.280000e+09	1.022735e+13	0.000000e+00	5.422536e-01	2.560342e+14	4.542098e+14	1.938510e+14	1.084803e+04	6.544286e+03	3.744795e+03	0	7.371225e-04
1.290000e+09	1.006418e+13	0.000000e+00	5.422536e-01	2.540101e+14	4.541535e+14	1.930393e+14	1.083350e+04	6.544154e+03	3.744720e+03	0	7.331814e-04
1.300000e+09	9.903185e+12	0.000000e+00	5.422536e-01	2.520118e+14	4.540642e+14	1.922329e+14	1.081907e+04	6.543943e+03	3.744599e+03	0	7.292508e-04
1.310000e+09	9.744324e+12	0.000000e+00	5.422536e-01	2.500391e+14	4.539430e+14	1.914318e+14	1.080476e+04	6.543657e+03	3.744435e+03	0	7.253303e-04
1.320000e+09	9.587565e+12	0.000000e+00	5.422536e-01	2.480915e+14	4.537901e+14	1.906360e+14	1.079056e+04	6.543296e+03	3.744229e+03	0	7.214198e-04
1.330000e+09	9.432872e+12	0.000000e+00	5.422536e-01	2.461686e+14	4.536066e+14	1.898453e+14	1.077647e+04	6.542863e+03	3.743981e+03	0	7.175187e-04
1.340000e+09	9.280213e+12	0.000000e+00	5.422536e-01	2.442699e+14	4.533932e+14	1.890599e+14	1.076249e+04	6.542359e+03	3.743692e+03	0	7.136269e-04
1.350000e+09	9.129553e+12	0.000000e+00	5.422536e-01	2.423952e+14	4.531505e+14	1.882795e+14	1.074862e+04	6.541785e+03	3.743364e+03	0	7.097441e-04
1.360000e+09	8.980860e+12	0.000000e+00	5.422536e-01	2.405439e+14	4.528795e+14	1.875042e+14	1.073485e+04	6.541144e+03	3.742998e+03	0	7.058698e-04
