#t		Qconv[W]	Ri[Rp]		R*[Rp]		Qc[W]		Qm[W]		Qr[W]		Tcmb[K]		Tl[K]		Tup[K]		RiFlag		Bs[T]
0.000000e+00	3.686062e+15	0.000000e+00	5.352114e-01	3.722415e+16	5.078089e+13	4.588849e+14	3.570287e+04	7.334813e+03	2.867109e+03	0	5.221719e-03
1.000000e+07	3.248369e+15	0.000000e+00	5.352114e-01	3.286060e+16	1.265845e+14	4.563423e+14	3.419041e+04	8.315490e+03	3.250446e+03	0	5.006272e-03
2.000000e+07	2.872486e+15	0.000000e+00	5.352114e-01	2.911236e+16	2.476755e+14	4.538188e+14	3.284800e+04	9.179734e+03	3.588271e+03	0	4.805205e-03
3.000000e+07	2.548611e+15	0.000000e+00	5.352114e-01	2.588193e+16	4.139455e+14	4.513141e+14	3.165304e+04	9.942402e+03	3.886390e+03	0	4.617360e-03
4.000000e+07	2.268640e+15	0.000000e+00	5.352114e-01	2.308873e+16	6.202930e+14	4.488281e+14	3.058618e+04	1.061588e+04	4.149646e+03	0	4.441686e-03
5.000000e+07	2.025877e+15	0.000000e+00	5.352114e-01	2.066610e+16	8.587142e+14	4.463607e+14	2.963090e+04	1.121062e+04	4.382125e+03	0	4.277240e-03
6.000000e+07	1.814769e+15	0.000000e+00	5.352114e-01	1.855882e+16	1.120015e+15	4.439116e+14	2.877299e+04	1.173557e+04	4.587324e+03	0	4.123187e-03
7.000000e+07	1.630694e+15	0.000000e+00	5.352114e-01	1.672086e+16	1.395012e+15	4.414808e+14	2.800025e+04	1.219849e+04	4.768273e+03	0	3.978782e-03
8.000000e+07	1.469785e+15	0.000000e+00	5.352114e-01	1.511374e+16	1.675285e+15	4.390681e+14	2.730216e+04	1.260614e+04	4.927620e+03	0	3.843355e-03
9.000000e+07	1.328786e+15	0.000000e+00	5.352114e-01	1.370505e+16	1.953580e+15	4.366733e+14	2.666965e+04	1.296451e+04	5.067703e+03	0	3.716302e-03
1.000000e+08	1.204947e+15	0.000000e+00	5.352114e-01	1.246740e+16	2.223974e+15	4.342963e+14	2.609482e+04	1.327890e+04	5.190597e+03	0	3.597068e-03
1.100000e+08	1.095932e+15	0.000000e+00	5.352114e-01	1.137754e+16	2.481875e+15	4.319369e+14	2.557087e+04	1.355405e+04	5.298151e+03	0	3.485143e-03
1.200000e+08	9.997521e+14	0.000000e+00	5.352114e-01	1.041563e+16	2.723928e+15	4.295950e+14	2.509185e+04	1.379418e+04	5.392016e+03	0	3.380052e-03
1.300000e+08	9.147043e+14	0.000000e+00	5.352114e-01	9.564738e+15	2.947870e+15	4.272705e+14	2.465260e+04	1.400308e+04	5.473671e+03	0	3.281352e-03
1.400000e+08	8.393308e+14	0.000000e+00	5.352114e-01	8.810331e+15	3.152356e+15	4.249631e+14	2.424862e+04	1.418413e+04	5.544441e+03	0	3.188627e-03
1.500000e+08	7.723788e+14	0.000000e+00	5.352114e-01	8.139929e+15	3.336791e+15	4.226728e+14	2.387599e+04	1.434036e+04	5.605511e+03	0	3.101483e-03
1.600000e+08	7.127702e+14	0.000000e+00	5.352114e-01	7.542789e+15	3.501171e+15	4.203995e+14	2.353127e+04	1.447450e+04	5.657943e+03	0	3.019552e-03
1.700000e+08	6.595757e+14	0.000000e+00	5.352114e-01	7.009650e+15	3.645941e+15	4.181429e+14	2.321146e+04	1.458896e+04	5.702687e+03	0	2.942484e-03
1.800000e+08	6.119932e+14	0.000000e+00	5.352114e-01	6.532520e+15	3.771875e+15	4.159029e+14	2.291393e+04	1.468593e+04	5.740591e+03	0	2.869953e-03
1.900000e+08	5.693291e+14	0.000000e+00	5.352114e-01	6.104485e+15	3.879968e+15	4.136795e+14	2.263637e+04	1.476735e+04	5.772415e+03	0	2.801649e-03
2.000000e+08	5.309833e+14	0.000000e+00	5.352114e-01	5.719563e+15	3.971364e+15	4.114724e+14	2.237675e+04	1.483493e+04	5.798835e+03	0	2.737282e-03
2.100000e+08	4.964356e+14	0.000000e+00	5.352114e-01	5.372569e+15	4.047285e+15	4.092815e+14	2.213329e+04	1.489024e+04	5.820455e+03	0	2.676580e-03
2.200000e+08	4.652346e+14	0.000000e+00	5.352114e-01	5.059003e+15	4.108981e+15	4.071067e+14	2.190441e+04	1.493465e+04	5.837813e+03	0	2.619288e-03
2.300000e+08	4.369880e+14	0.000000e+00	5.352114e-01	4.774952e+15	4.157698e+15	4.049479e+14	2.168872e+04	1.496938e+04	5.851390e+03	0	2.565168e-03
2.400000e+08	4.113547e+14	0.000000e+00	5.352114e-01	4.517015e+15	4.194646e+15	4.028049e+14	2.148500e+04	1.499553e+04	5.861611e+03	0	2.513997e-03
2.500000e+08	3.880372e+14	0.000000e+00	5.352114e-01	4.282225e+15	4.220986e+15	4.006776e+14	2.129215e+04	1.501407e+04	5.868859e+03	0	2.465568e-03
2.600000e+08	3.667760e+14	0.000000e+00	5.352114e-01	4.067992e+15	4.237810e+15	3.985659e+14	2.110921e+04	1.502587e+04	5.873472e+03	0	2.419689e-03
2.700000e+08	3.473442e+14	0.000000e+00	5.352114e-01	3.872055e+15	4.246139e+15	3.964696e+14	2.093532e+04	1.503170e+04	5.875751e+03	0	2.376180e-03
2.800000e+08	3.295434e+14	0.000000e+00	5.352114e-01	3.692433e+15	4.246919e+15	3.943886e+14	2.076971e+04	1.503225e+04	5.875964e+03	0	2.334874e-03
2.900000e+08	3.131995e+14	0.000000e+00	5.352114e-01	3.527388e+15	4.241023e+15	3.923228e+14	2.061170e+04	1.502813e+04	5.874351e+03	0	2.295618e-03
3.000000e+08	2.981595e+14	0.000000e+00	5.352114e-01	3.375394e+15	4.229245e+15	3.902721e+14	2.046068e+04	1.501987e+04	5.871125e+03	0	2.258268e-03
3.100000e+08	2.842892e+14	0.000000e+00	5.352114e-01	3.235110e+15	4.212308e+15	3.882363e+14	2.031609e+04	1.500798e+04	5.866475e+03	0	2.222692e-03
3.200000e+08	2.714698e+14	0.000000e+00	5.352114e-01	3.105352e+15	4.190871e+15	3.862153e+14	2.017745e+04	1.499287e+04	5.860570e+03	0	2.188768e-03
3.300000e+08	2.595969e+14	0.000000e+00	5.352114e-01	2.985076e+15	4.165522e+15	3.842091e+14	2.004431e+04	1.497493e+04	5.853560e+03	0	2.156382e-03
3.400000e+08	2.485780e+14	0.000000e+00	5.352114e-01	2.873359e+15	4.136795e+15	3.822174e+14	1.991628e+04	1.495452e+04	5.845579e+03	0	2.125430e-03
3.500000e+08	2.383311e+14	0.000000e+00	5.352114e-01	2.769381e+15	4.105169e+15	3.802401e+14	1.979299e+04	1.493192e+04	5.836746e+03	0	2.095814e-03
3.600000e+08	2.287835e+14	0.000000e+00	5.352114e-01	2.672416e+15	4.071067e+15	3.782772e+14	1.967412e+04	1.490742e+04	5.827168e+03	0	2.067446e-03
3.700000e+08	2.198707e+14	0.000000e+00	5.352114e-01	2.581820e+15	4.034875e+15	3.763285e+14	1.955937e+04	1.488125e+04	5.816941e+03	0	2.040242e-03
3.800000e+08	2.115351e+14	0.000000e+00	5.352114e-01	2.497016e+15	3.996928e+15	3.743938e+14	1.944847e+04	1.485364e+04	5.806147e+03	0	2.014127e-03
3.900000e+08	2.037254e+14	0.000000e+00	5.352114e-01	2.417493e+15	3.957532e+15	3.724732e+14	1.934118e+04	1.482478e+04	5.794864e+03	0	1.989028e-03
4.000000e+08	1.963957e+14	0.000000e+00	5.352114e-01	2.342790e+15	3.916951e+15	3.705665e+14	1.923727e+04	1.479483e+04	5.783159e+03	0	1.964883e-03
4.100000e+08	1.895049e+14	0.000000e+00	5.352114e-01	2.272498e+15	3.875426e+15	3.686735e+14	1.913654e+04	1.476396e+04	5.771090e+03	0	1.941628e-03
4.200000e+08	1.830163e+14	0.000000e+00	5.352114e-01	2.206249e+15	3.833164e+15	3.667941e+14	1.903881e+04	1.473229e+04	5.758713e+03	0	1.919210e-03
4.300000e+08	1.768968e+14	0.000000e+00	5.352114e-01	2.143711e+15	3.790349e+15	3.649283e+14	1.894390e+04	1.469996e+04	5.746076e+03	0	1.897577e-03
4.400000e+08	1.711167e+14	0.000000e+00	5.352114e-01	2.084588e+15	3.747146e+15	3.630759e+14	1.885165e+04	1.466707e+04	5.733220e+03	0	1.876679e-03
4.500000e+08	1.656490e+14	0.000000e+00	5.352114e-01	2.028609e+15	3.703697e+15	3.612368e+14	1.876193e+04	1.463373e+04	5.720184e+03	0	1.856474e-03
4.600000e+08	1.604696e+14	0.000000e+00	5.352114e-01	1.975534e+15	3.660128e+15	3.594109e+14	1.867459e+04	1.460000e+04	5.707003e+03	0	1.836920e-03
4.700000e+08	1.555567e+14	0.000000e+00	5.352114e-01	1.925143e+15	3.616549e+15	3.575981e+14	1.858952e+04	1.456599e+04	5.693706e+03	0	1.817979e-03
4.800000e+08	1.508903e+14	0.000000e+00	5.352114e-01	1.877237e+15	3.573053e+15	3.557983e+14	1.850659e+04	1.453174e+04	5.680321e+03	0	1.799616e-03
4.900000e+08	1.464526e+14	0.000000e+00	5.352114e-01	1.831636e+15	3.529725e+15	3.540114e+14	1.842572e+04	1.449734e+04	5.666871e+03	0	1.781797e-03
5.000000e+08	1.422270e+14	0.000000e+00	5.352114e-01	1.788176e+15	3.486640e+15	3.522372e+14	1.834679e+04	1.446282e+04	5.653379e+03	0	1.764493e-03
5.100000e+08	1.381989e+14	0.000000e+00	5.352114e-01	1.746708e+15	3.443856e+15	3.504758e+14	1.826971e+04	1.442825e+04	5.639864e+03	0	1.747676e-03
5.200000e+08	1.343546e+14	0.000000e+00	5.352114e-01	1.707096e+15	3.401427e+15	3.487269e+14	1.819441e+04	1.439365e+04	5.626342e+03	0	1.731318e-03
5.300000e+08	1.306817e+14	0.000000e+00	5.352114e-01	1.669216e+15	3.359399e+15	3.469905e+14	1.812080e+04	1.435908e+04	5.612830e+03	0	1.715395e-03
5.400000e+08	1.271689e+14	0.000000e+00	5.352114e-01	1.632955e+15	3.317812e+15	3.452664e+14	1.804881e+04	1.432457e+04	5.599339e+03	0	1.699885e-03
5.500000e+08	1.238058e+14	0.000000e+00	5.352114e-01	1.598207e+15	3.276697e+15	3.435546e+14	1.797837e+04	1.429015e+04	5.585883e+03	0	1.684766e-03
5.600000e+08	1.205830e+14	0.000000e+00	5.352114e-01	1.564879e+15	3.236084e+15	3.418550e+14	1.790942e+04	1.425584e+04	5.572472e+03	0	1.670019e-03
5.700000e+08	1.174917e+14	0.000000e+00	5.352114e-01	1.532882e+15	3.195993e+15	3.401675e+14	1.784189e+04	1.422167e+04	5.559115e+03	0	1.655624e-03
5.800000e+08	1.145239e+14	0.000000e+00	5.352114e-01	1.502135e+15	3.156443e+15	3.384919e+14	1.777573e+04	1.418766e+04	5.545821e+03	0	1.641565e-03
5.900000e+08	1.116722e+14	0.000000e+00	5.352114e-01	1.472565e+15	3.117450e+15	3.368282e+14	1.771089e+04	1.415383e+04	5.532597e+03	0	1.627825e-03
6.000000e+08	1.089298e+14	0.000000e+00	5.352114e-01	1.444103e+15	3.079023e+15	3.351763e+14	1.764731e+04	1.412019e+04	5.519449e+03	0	1.614389e-03
6.100000e+08	1.062904e+14	0.000000e+00	5.352114e-01	1.416685e+15	3.041172e+15	3.335360e+14	1.758496e+04	1.408677e+04	5.506383e+03	0	1.601243e-03
6.200000e+08	1.037481e+14	0.000000e+00	5.352114e-01	1.390254e+15	3.003902e+15	3.319074e+14	1.752377e+04	1.405356e+04	5.493403e+03	0	1.588374e-03
6.300000e+08	1.012976e+14	0.000000e+00	5.352114e-01	1.364754e+15	2.967219e+15	3.302902e+14	1.746372e+04	1.402059e+04	5.480515e+03	0	1.575768e-03
6.400000e+08	9.893395e+13	0.000000e+00	5.352114e-01	1.340137e+15	2.931122e+15	3.286845e+14	1.740476e+04	1.398786e+04	5.467721e+03	0	1.563415e-03
6.500000e+08	9.665241e+13	0.000000e+00	5.352114e-01	1.316354e+15	2.895614e+15	3.270901e+14	1.734686e+04	1.395538e+04	5.455025e+03	0	1.551304e-03
6.600000e+08	9.444873e+13	0.000000e+00	5.352114e-01	1.293363e+15	2.860690e+15	3.255069e+14	1.728998e+04	1.392315e+04	5.442429e+03	0	1.539423e-03
6.700000e+08	9.231888e+13	0.000000e+00	5.352114e-01	1.271123e+15	2.826350e+15	3.239348e+14	1.723408e+04	1.389119e+04	5.429935e+03	0	1.527763e-03
6.800000e+08	9.025914e+13	0.000000e+00	5.352114e-01	1.249597e+15	2.792589e+15	3.223737e+14	1.717913e+04	1.385950e+04	5.417546e+03	0	1.516316e-03
6.900000e+08	8.826602e+13	0.000000e+00	5.352114e-01	1.228749e+15	2.759404e+15	3.208236e+14	1.712511e+04	1.382808e+04	5.405263e+03	0	1.505071e-03
7.000000e+08	8.633628e+13	0.000000e+00	5.352114e-01	1.208547e+15	2.726787e+15	3.192844e+14	1.707198e+04	1.379693e+04	5.393088e+03	0	1.494022e-03
7.100000e+08	8.446687e+13	0.000000e+00	5.352114e-01	1.188961e+15	2.694734e+15	3.177560e+14	1.701972e+04	1.376605e+04	5.381020e+03	0	1.483160e-03
7.200000e+08	8.265496e+13	0.000000e+00	5.352114e-01	1.169960e+15	2.663236e+15	3.162382e+14	1.696830e+04	1.373546e+04	5.369061e+03	0	1.472478e-03
7.300000e+08	8.089788e+13	0.000000e+00	5.352114e-01	1.151520e+15	2.632287e+15	3.147311e+14	1.691770e+04	1.370514e+04	5.357211e+03	0	1.461970e-03
7.400000e+08	7.919313e+13	0.000000e+00	5.352114e-01	1.133614e+15	2.601879e+15	3.132344e+14	1.686789e+04	1.367511e+04	5.345470e+03	0	1.451627e-03
7.500000e+08	7.753838e+13	0.000000e+00	5.352114e-01	1.116218e+15	2.572006e+15	3.117482e+14	1.681884e+04	1.364535e+04	5.333839e+03	0	1.441445e-03
7.600000e+08	7.593141e+13	0.000000e+00	5.352114e-01	1.099311e+15	2.542655e+15	3.102724e+14	1.677055e+04	1.361588e+04	5.322318e+03	0	1.431418e-03
7.700000e+08	7.437016e+13	0.000000e+00	5.352114e-01	1.082872e+15	2.513822e+15	3.088068e+14	1.672298e+04	1.358668e+04	5.310906e+03	0	1.421539e-03
7.800000e+08	7.285268e+13	0.000000e+00	5.352114e-01	1.066881e+15	2.485496e+15	3.073514e+14	1.667611e+04	1.355777e+04	5.299602e+03	0	1.411804e-03
7.900000e+08	7.137713e+13	0.000000e+00	5.352114e-01	1.051318e+15	2.457667e+15	3.059061e+14	1.662993e+04	1.352913e+04	5.288407e+03	0	1.402208e-03
8.000000e+08	6.994178e+13	0.000000e+00	5.352114e-01	1.036168e+15	2.430330e+15	3.044709e+14	1.658443e+04	1.350076e+04	5.277320e+03	0	1.392745e-03
8.100000e+08	6.854500e+13	0.000000e+00	5.352114e-01	1.021413e+15	2.403470e+15	3.030456e+14	1.653957e+04	1.347267e+04	5.266340e+03	0	1.383411e-03
8.200000e+08	6.718524e+13	0.000000e+00	5.352114e-01	1.007037e+15	2.377084e+15	3.016301e+14	1.649534e+04	1.344486e+04	5.255467e+03	0	1.374202e-03
8.300000e+08	6.586103e+13	0.000000e+00	5.352114e-01	9.930262e+14	2.351160e+15	3.002245e+14	1.645174e+04	1.341731e+04	5.244699e+03	0	1.365114e-03
8.400000e+08	6.457100e+13	0.000000e+00	5.352114e-01	9.793660e+14	2.325689e+15	2.988285e+14	1.640874e+04	1.339003e+04	5.234036e+03	0	1.356142e-03
8.500000e+08	6.331383e+13	0.000000e+00	5.352114e-01	9.660434e+14	2.300662e+15	2.974422e+14	1.636632e+04	1.336302e+04	5.223477e+03	0	1.347283e-03
8.600000e+08	6.208829e+13	0.000000e+00	5.352114e-01	9.530456e+14	2.276072e+15	2.960654e+14	1.632448e+04	1.333627e+04	5.213021e+03	0	1.338533e-03
8.700000e+08	6.089320e+13	0.000000e+00	5.352114e-01	9.403608e+14	2.251909e+15	2.946981e+14	1.628319e+04	1.330978e+04	5.202667e+03	0	1.329889e-03
8.800000e+08	5.972744e+13	0.000000e+00	5.352114e-01	9.279776e+14	2.228163e+15	2.933402e+14	1.624246e+04	1.328355e+04	5.192414e+03	0	1.321348e-03
8.900000e+08	5.858994e+13	0.000000e+00	5.352114e-01	9.158852e+14	2.204828e+15	2.919917e+14	1.620225e+04	1.325758e+04	5.182262e+03	0	1.312906e-03
9.000000e+08	5.747970e+13	0.000000e+00	5.352114e-01	9.040734e+14	2.181894e+15	2.906524e+14	1.616257e+04	1.323186e+04	5.172207e+03	0	1.304560e-03
9.100000e+08	5.639576e+13	0.000000e+00	5.352114e-01	8.925324e+14	2.159352e+15	2.893223e+14	1.612339e+04	1.320639e+04	5.162251e+03	0	1.296308e-03
9.200000e+08	5.533720e+13	0.000000e+00	5.352114e-01	8.812529e+14	2.137196e+15	2.880013e+14	1.608471e+04	1.318116e+04	5.152391e+03	0	1.288146e-03
9.300000e+08	5.430314e+13	0.000000e+00	5.352114e-01	8.702261e+14	2.115415e+15	2.866893e+14	1.604652e+04	1.315618e+04	5.142627e+03	0	1.280072e-03
9.400000e+08	5.329277e+13	0.000000e+00	5.352114e-01	8.594435e+14	2.094004e+15	2.853863e+14	1.600880e+04	1.313145e+04	5.132958e+03	0	1.272083e-03
9.500000e+08	5.230528e+13	0.000000e+00	5.352114e-01	8.488970e+14	2.072954e+15	2.840922e+14	1.597154e+04	1.310695e+04	5.123381e+03	0	1.264177e-03
9.600000e+08	5.133993e+13	0.000000e+00	5.352114e-01	8.385790e+14	2.052257e+15	2.828069e+14	1.593474e+04	1.308268e+04	5.113897e+03	0	1.256351e-03
9.700000e+08	5.039598e+13	0.000000e+00	5.352114e-01	8.284821e+14	2.031907e+15	2.815304e+14	1.589839e+04	1.305865e+04	5.104504e+03	0	1.248604e-03
9.800000e+08	4.947274e+13	0.000000e+00	5.352114e-01	8.185993e+14	2.011895e+15	2.802625e+14	1.586247e+04	1.303485e+04	5.095200e+03	0	1.240932e-03
9.900000e+08	4.856956e+13	0.000000e+00	5.352114e-01	8.089238e+14	1.992214e+15	2.790033e+14	1.582697e+04	1.301128e+04	5.085986e+03	0	1.233334e-03
1.000000e+09	4.768581e+13	0.000000e+00	5.352114e-01	7.994492e+14	1.972858e+15	2.777526e+14	1.579189e+04	1.298793e+04	5.076858e+03	0	1.225808e-03
1.010000e+09	4.682087e+13	0.000000e+00	5.352114e-01	7.901693e+14	1.953819e+15	2.765104e+14	1.575722e+04	1.296480e+04	5.067817e+03	0	1.218351e-03
1.020000e+09	4.597417e+13	0.000000e+00	5.352114e-01	7.810782e+14	1.935091e+15	2.752766e+14	1.572295e+04	1.294189e+04	5.058862e+03	0	1.210962e-03
1.030000e+09	4.514515e+13	0.000000e+00	5.352114e-01	7.721703e+14	1.916668e+15	2.740512e+14	1.568907e+04	1.291920e+04	5.049991e+03	0	1.203639e-03
1.040000e+09	4.433329e+13	0.000000e+00	5.352114e-01	7.634401e+14	1.898542e+15	2.728340e+14	1.565558e+04	1.289671e+04	5.041202e+03	0	1.196380e-03
1.050000e+09	4.353807e+13	0.000000e+00	5.352114e-01	7.548824e+14	1.880708e+15	2.716251e+14	1.562246e+04	1.287444e+04	5.032496e+03	0	1.189184e-03
1.060000e+09	4.275899e+13	0.000000e+00	5.352114e-01	7.464922e+14	1.863159e+15	2.704243e+14	1.558971e+04	1.285237e+04	5.023870e+03	0	1.182048e-03
1.070000e+09	4.199559e+13	0.000000e+00	5.352114e-01	7.382646e+14	1.845890e+15	2.692316e+14	1.555732e+04	1.283051e+04	5.015325e+03	0	1.174971e-03
1.080000e+09	4.124742e+13	0.000000e+00	5.352114e-01	7.301952e+14	1.828894e+15	2.680470e+14	1.552529e+04	1.280885e+04	5.006857e+03	0	1.167952e-03
1.090000e+09	4.051404e+13	0.000000e+00	5.352114e-01	7.222793e+14	1.812166e+15	2.668703e+14	1.549361e+04	1.278739e+04	4.998468e+03	0	1.160988e-03
1.100000e+09	3.979504e+13	0.000000e+00	5.352114e-01	7.145128e+14	1.795699e+15	2.657015e+14	1.546226e+04	1.276612e+04	4.990155e+03	0	1.154079e-03
1.110000e+09	3.909000e+13	0.000000e+00	5.352114e-01	7.068915e+14	1.779490e+15	2.645405e+14	1.543125e+04	1.274505e+04	4.981917e+03	0	1.147223e-03
1.120000e+09	3.839855e+13	0.000000e+00	5.352114e-01	6.994115e+14	1.763532e+15	2.633873e+14	1.540057e+04	1.272416e+04	4.973754e+03	0	1.140418e-03
1.130000e+09	3.772030e+13	0.000000e+00	5.352114e-01	6.920689e+14	1.747820e+15	2.622418e+14	1.537022e+04	1.270347e+04	4.965665e+03	0	1.133664e-03
1.140000e+09	3.705491e+13	0.000000e+00	5.352114e-01	6.848601e+14	1.732349e+15	2.611040e+14	1.534018e+04	1.268296e+04	4.957648e+03	0	1.126958e-03
1.150000e+09	3.640202e+13	0.000000e+00	5.352114e-01	6.777815e+14	1.717115e+15	2.599738e+14	1.531045e+04	1.266263e+04	4.949702e+03	0	1.120300e-03
1.160000e+09	3.576131e+13	0.000000e+00	5.352114e-01	6.708297e+14	1.702111e+15	2.588511e+14	1.528103e+04	1.264248e+04	4.941827e+03	0	1.113689e-03
1.170000e+09	3.513244e+13	0.000000e+00	5.352114e-01	6.640015e+14	1.687334e+15	2.577359e+14	1.525190e+04	1.262252e+04	4.934021e+03	0	1.107122e-03
1.180000e+09	3.451512e+13	0.000000e+00	5.352114e-01	6.572935e+14	1.672779e+15	2.566282e+14	1.522307e+04	1.260272e+04	4.926284e+03	0	1.100599e-03
1.190000e+09	3.390903e+13	0.000000e+00	5.352114e-01	6.507028e+14	1.658440e+15	2.555278e+14	1.519453e+04	1.258310e+04	4.918615e+03	0	1.094119e-03
1.200000e+09	3.331389e+13	0.000000e+00	5.352114e-01	6.442264e+14	1.644315e+15	2.544347e+14	1.516628e+04	1.256365e+04	4.911012e+03	0	1.087680e-03
1.210000e+09	3.272943e+13	0.000000e+00	5.352114e-01	6.378614e+14	1.630399e+15	2.533488e+14	1.513831e+04	1.254437e+04	4.903475e+03	0	1.081281e-03
1.220000e+09	3.215537e+13	0.000000e+00	5.352114e-01	6.316051e+14	1.616687e+15	2.522701e+14	1.511061e+04	1.252526e+04	4.896003e+03	0	1.074922e-03
1.230000e+09	3.159144e+13	0.000000e+00	5.352114e-01	6.254547e+14	1.603175e+15	2.511986e+14	1.508318e+04	1.250630e+04	4.888595e+03	0	1.068601e-03
1.240000e+09	3.103741e+13	0.000000e+00	5.352114e-01	6.194077e+14	1.589860e+15	2.501342e+14	1.505601e+04	1.248751e+04	4.881251e+03	0	1.062318e-03
1.250000e+09	3.049302e+13	0.000000e+00	5.352114e-01	6.134616e+14	1.576737e+15	2.490768e+14	1.502911e+04	1.246888e+04	4.873968e+03	0	1.056070e-03
1.260000e+09	2.995804e+13	0.000000e+00	5.352114e-01	6.076139e+14	1.563803e+15	2.480263e+14	1.500246e+04	1.245041e+04	4.866747e+03	0	1.049858e-03
1.270000e+09	2.943224e+13	0.000000e+00	5.352114e-01	6.018624e+14	1.551053e+15	2.469828e+14	1.497607e+04	1.243209e+04	4.859587e+03	0	1.043679e-03
1.280000e+09	2.891540e+13	0.000000e+00	5.352114e-01	5.962047e+14	1.538486e+15	2.459461e+14	1.494993e+04	1.241393e+04	4.852486e+03	0	1.037534e-03
1.290000e+09	2.840730e+13	0.000000e+00	5.352114e-01	5.906386e+14	1.526095e+15	2.449163e+14	1.492402e+04	1.239591e+04	4.845445e+03	0	1.031421e-03
1.300000e+09	2.790775e+13	0.000000e+00	5.352114e-01	5.851620e+14	1.513879e+15	2.438932e+14	1.489836e+04	1.237805e+04	4.838461e+03	0	1.025339e-03
1.310000e+09	2.741653e+13	0.000000e+00	5.352114e-01	5.797729e+14	1.501834e+15	2.428768e+14	1.487294e+04	1.236033e+04	4.831535e+03	0	1.019288e-03
1.320000e+09	2.693346e+13	0.000000e+00	5.352114e-01	5.744692e+14	1.489956e+15	2.418671e+14	1.484775e+04	1.234276e+04	4.824666e+03	0	1.013266e-03
1.330000e+09	2.645834e+13	0.000000e+00	5.352114e-01	5.692490e+14	1.478242e+15	2.408640e+14	1.482279e+04	1.232533e+04	4.817853e+03	0	1.007272e-03
1.340000e+09	2.599099e+13	0.000000e+00	5.352114e-01	5.641104e+14	1.466690e+15	2.398674e+14	1.479805e+04	1.230804e+04	4.811095e+03	0	1.001306e-03
1.350000e+09	2.553124e+13	0.000000e+00	5.352114e-01	5.590515e+14	1.455296e+15	2.388773e+14	1.477354e+04	1.229089e+04	4.804391e+03	0	9.953671e-04
1.360000e+09	2.507892e+13	0.000000e+00	5.352114e-01	5.540707e+14	1.444057e+15	2.378937e+14	1.474925e+04	1.227387e+04	4.797741e+03	0	9.894539e-04
