#t		Qconv[W]	Ri[Rp]		R*[Rp]		Qc[W]		Qm[W]		Qr[W]		Tcmb[K]		Tl[K]		Tup[K]		RiFlag		Bs[T]
0.000000e+00	4.088700e+15	0.000000e+00	5.352113e-01	3.993802e+16	4.799339e+13	4.861736e+14	3.709416e+04	7.511666e+03	2.899461e+03	0	5.397079e-03
1.000000e+07	3.625008e+15	0.000000e+00	5.352113e-01	3.547245e+16	1.202799e+14	4.834799e+14	3.558586e+04	8.509757e+03	3.284718e+03	0	5.184816e-03
2.000000e+07	3.223108e+15	0.000000e+00	5.352113e-01	3.160105e+16	2.372991e+14	4.808063e+14	3.423951e+04	9.394980e+03	3.626409e+03	0	4.985652e-03
3.000000e+07	2.873878e+15	0.000000e+00	5.352113e-01	2.823619e+16	4.002024e+14	4.781526e+14	3.303479e+04	1.018090e+04	3.929771e+03	0	4.798658e-03
4.000000e+07	2.569641e+15	0.000000e+00	5.352113e-01	2.530409e+16	6.050931e+14	4.755188e+14	3.195410e+04	1.087896e+04	4.199216e+03	0	4.622971e-03
5.000000e+07	2.303947e+15	0.000000e+00	5.352113e-01	2.274280e+16	8.448712e+14	4.729046e+14	3.098223e+04	1.149890e+04	4.438510e+03	0	4.457806e-03
6.000000e+07	2.071372e+15	0.000000e+00	5.352113e-01	2.050017e+16	1.110865e+15	4.703100e+14	3.010598e+04	1.204914e+04	4.650899e+03	0	4.302456e-03
7.000000e+07	1.867341e+15	0.000000e+00	5.352113e-01	1.853222e+16	1.394052e+15	4.677346e+14	2.931389e+04	1.253702e+04	4.839219e+03	0	4.156281e-03
8.000000e+07	1.687978e+15	0.000000e+00	5.352113e-01	1.680170e+16	1.685876e+15	4.651784e+14	2.859602e+04	1.296903e+04	5.005971e+03	0	4.018703e-03
9.000000e+07	1.529987e+15	0.000000e+00	5.352113e-01	1.527691e+16	1.978734e+15	4.626412e+14	2.794367e+04	1.335091e+04	5.153375e+03	0	3.889194e-03
1.000000e+08	1.390553e+15	0.000000e+00	5.352113e-01	1.393077e+16	2.266219e+15	4.601228e+14	2.734929e+04	1.368781e+04	5.283417e+03	0	3.767265e-03
1.100000e+08	1.267260e+15	0.000000e+00	5.352113e-01	1.274005e+16	2.543189e+15	4.576231e+14	2.680624e+04	1.398435e+04	5.397881e+03	0	3.652461e-03
1.200000e+08	1.158034e+15	0.000000e+00	5.352113e-01	1.168479e+16	2.805722e+15	4.551420e+14	2.630874e+04	1.424469e+04	5.498371e+03	0	3.544357e-03
1.300000e+08	1.061084e+15	0.000000e+00	5.352113e-01	1.074777e+16	3.051015e+15	4.526792e+14	2.585172e+04	1.447257e+04	5.586332e+03	0	3.442550e-03
1.400000e+08	9.748621e+14	0.000000e+00	5.352113e-01	9.914101e+15	3.277229e+15	4.502346e+14	2.543074e+04	1.467137e+04	5.663068e+03	0	3.346659e-03
1.500000e+08	8.980299e+14	0.000000e+00	5.352113e-01	9.170890e+15	3.483340e+15	4.478081e+14	2.504188e+04	1.484414e+04	5.729753e+03	0	3.256321e-03
1.600000e+08	8.294258e+14	0.000000e+00	5.352113e-01	8.506966e+15	3.668984e+15	4.453996e+14	2.468173e+04	1.499360e+04	5.787446e+03	0	3.171194e-03
1.700000e+08	7.680420e+14	0.000000e+00	5.352113e-01	7.912629e+15	3.834314e+15	4.430088e+14	2.434727e+04	1.512224e+04	5.837099e+03	0	3.090950e-03
1.800000e+08	7.130029e+14	0.000000e+00	5.352113e-01	7.379450e+15	3.979880e+15	4.406356e+14	2.403584e+04	1.523227e+04	5.879569e+03	0	3.015279e-03
1.900000e+08	6.635466e+14	0.000000e+00	5.352113e-01	6.900097e+15	4.106509e+15	4.382800e+14	2.374511e+04	1.532567e+04	5.915624e+03	0	2.943885e-03
2.000000e+08	6.190101e+14	0.000000e+00	5.352113e-01	6.468186e+15	4.215231e+15	4.359416e+14	2.347302e+04	1.540425e+04	5.945955e+03	0	2.876490e-03
2.100000e+08	5.788157e+14	0.000000e+00	5.352113e-01	6.078154e+15	4.307201e+15	4.336204e+14	2.321774e+04	1.546961e+04	5.971181e+03	0	2.812832e-03
2.200000e+08	5.424595e+14	0.000000e+00	5.352113e-01	5.725150e+15	4.383634e+15	4.313163e+14	2.297766e+04	1.552317e+04	5.991856e+03	0	2.752661e-03
2.300000e+08	5.095014e+14	0.000000e+00	5.352113e-01	5.404936e+15	4.445771e+15	4.290291e+14	2.275135e+04	1.556623e+04	6.008477e+03	0	2.695745e-03
2.400000e+08	4.795571e+14	0.000000e+00	5.352113e-01	5.113810e+15	4.494845e+15	4.267587e+14	2.253755e+04	1.559994e+04	6.021488e+03	0	2.641864e-03
2.500000e+08	4.522902e+14	0.000000e+00	5.352113e-01	4.848531e+15	4.532053e+15	4.245049e+14	2.233513e+04	1.562532e+04	6.031284e+03	0	2.590813e-03
2.600000e+08	4.274058e+14	0.000000e+00	5.352113e-01	4.606260e+15	4.558533e+15	4.222676e+14	2.214310e+04	1.564329e+04	6.038223e+03	0	2.542400e-03
2.700000e+08	4.046457e+14	0.000000e+00	5.352113e-01	4.384506e+15	4.575372e+15	4.200467e+14	2.196055e+04	1.565468e+04	6.042619e+03	0	2.496445e-03
2.800000e+08	3.837827e+14	0.000000e+00	5.352113e-01	4.181083e+15	4.583577e+15	4.178419e+14	2.178670e+04	1.566022e+04	6.044758e+03	0	2.452781e-03
2.900000e+08	3.646173e+14	0.000000e+00	5.352113e-01	3.994067e+15	4.584090e+15	4.156533e+14	2.162082e+04	1.566057e+04	6.044891e+03	0	2.411253e-03
3.000000e+08	3.469737e+14	0.000000e+00	5.352113e-01	3.821762e+15	4.577776e+15	4.134806e+14	2.146229e+04	1.565631e+04	6.043246e+03	0	2.371715e-03
3.100000e+08	3.306968e+14	0.000000e+00	5.352113e-01	3.662674e+15	4.565426e+15	4.113238e+14	2.131052e+04	1.564796e+04	6.040024e+03	0	2.334033e-03
3.200000e+08	3.156497e+14	0.000000e+00	5.352113e-01	3.515483e+15	4.547768e+15	4.091826e+14	2.116501e+04	1.563599e+04	6.035406e+03	0	2.298082e-03
3.300000e+08	3.017112e+14	0.000000e+00	5.352113e-01	3.379019e+15	4.525460e+15	4.070570e+14	2.102528e+04	1.562083e+04	6.029552e+03	0	2.263745e-03
3.400000e+08	2.887739e+14	0.000000e+00	5.352113e-01	3.252248e+15	4.499092e+15	4.049469e+14	2.089092e+04	1.560284e+04	6.022608e+03	0	2.230915e-03
3.500000e+08	2.767427e+14	0.000000e+00	5.352113e-01	3.134251e+15	4.469203e+15	4.028520e+14	2.076156e+04	1.558236e+04	6.014702e+03	0	2.199492e-03
3.600000e+08	2.655327e+14	0.000000e+00	5.352113e-01	3.024210e+15	4.436280e+15	4.007724e+14	2.063684e+04	1.555968e+04	6.005949e+03	0	2.169384e-03
3.700000e+08	2.550687e+14	0.000000e+00	5.352113e-01	2.921397e+15	4.400755e+15	3.987078e+14	2.051646e+04	1.553508e+04	5.996453e+03	0	2.140504e-03
3.800000e+08	2.452834e+14	0.000000e+00	5.352113e-01	2.825164e+15	4.363016e+15	3.966581e+14	2.040013e+04	1.550879e+04	5.986304e+03	0	2.112774e-03
3.900000e+08	2.361167e+14	0.000000e+00	5.352113e-01	2.734931e+15	4.323410e+15	3.946233e+14	2.028760e+04	1.548102e+04	5.975587e+03	0	2.086120e-03
4.000000e+08	2.275149e+14	0.000000e+00	5.352113e-01	2.650179e+15	4.282246e+15	3.926031e+14	2.017863e+04	1.545197e+04	5.964375e+03	0	2.060473e-03
4.100000e+08	2.194298e+14	0.000000e+00	5.352113e-01	2.570443e+15	4.239803e+15	3.905976e+14	2.007300e+04	1.542181e+04	5.952733e+03	0	2.035771e-03
4.200000e+08	2.118183e+14	0.000000e+00	5.352113e-01	2.495305e+15	4.196325e+15	3.886064e+14	1.997053e+04	1.539069e+04	5.940721e+03	0	2.011955e-03
4.300000e+08	2.046415e+14	0.000000e+00	5.352113e-01	2.424390e+15	4.152027e+15	3.866297e+14	1.987102e+04	1.535875e+04	5.928391e+03	0	1.988970e-03
4.400000e+08	1.978644e+14	0.000000e+00	5.352113e-01	2.357360e+15	4.107103e+15	3.846671e+14	1.977431e+04	1.532611e+04	5.915792e+03	0	1.966767e-03
4.500000e+08	1.914554e+14	0.000000e+00	5.352113e-01	2.293910e+15	4.061725e+15	3.827186e+14	1.968025e+04	1.529288e+04	5.902964e+03	0	1.945298e-03
4.600000e+08	1.853861e+14	0.000000e+00	5.352113e-01	2.233763e+15	4.016042e+15	3.807842e+14	1.958870e+04	1.525915e+04	5.889948e+03	0	1.924521e-03
4.700000e+08	1.796306e+14	0.000000e+00	5.352113e-01	2.176671e+15	3.970185e+15	3.788636e+14	1.949953e+04	1.522503e+04	5.876775e+03	0	1.904395e-03
4.800000e+08	1.741655e+14	0.000000e+00	5.352113e-01	2.122408e+15	3.924271e+15	3.769567e+14	1.941262e+04	1.519058e+04	5.863478e+03	0	1.884883e-03
4.900000e+08	1.689697e+14	0.000000e+00	5.352113e-01	2.070767e+15	3.878403e+15	3.750636e+14	1.932786e+04	1.515587e+04	5.850082e+03	0	1.865950e-03
5.000000e+08	1.640239e+14	0.000000e+00	5.352113e-01	2.021563e+15	3.832666e+15	3.731839e+14	1.924514e+04	1.512098e+04	5.836612e+03	0	1.847564e-03
5.100000e+08	1.593105e+14	0.000000e+00	5.352113e-01	1.974625e+15	3.787143e+15	3.713177e+14	1.916437e+04	1.508595e+04	5.823091e+03	0	1.829694e-03
5.200000e+08	1.548134e+14	0.000000e+00	5.352113e-01	1.929798e+15	3.741896e+15	3.694648e+14	1.908546e+04	1.505083e+04	5.809536e+03	0	1.812313e-03
5.300000e+08	1.505182e+14	0.000000e+00	5.352113e-01	1.886941e+15	3.696988e+15	3.676251e+14	1.900833e+04	1.501568e+04	5.795967e+03	0	1.795395e-03
5.400000e+08	1.464113e+14	0.000000e+00	5.352113e-01	1.845924e+15	3.652463e+15	3.657985e+14	1.893289e+04	1.498052e+04	5.782398e+03	0	1.778915e-03
5.500000e+08	1.424806e+14	0.000000e+00	5.352113e-01	1.806628e+15	3.608368e+15	3.639850e+14	1.885908e+04	1.494541e+04	5.768842e+03	0	1.762851e-03
5.600000e+08	1.387149e+14	0.000000e+00	5.352113e-01	1.768945e+15	3.564738e+15	3.621843e+14	1.878683e+04	1.491036e+04	5.755313e+03	0	1.747181e-03
5.700000e+08	1.351037e+14	0.000000e+00	5.352113e-01	1.732775e+15	3.521606e+15	3.603964e+14	1.871608e+04	1.487540e+04	5.741822e+03	0	1.731887e-03
5.800000e+08	1.316378e+14	0.000000e+00	5.352113e-01	1.698025e+15	3.478995e+15	3.586212e+14	1.864675e+04	1.484057e+04	5.728377e+03	0	1.716948e-03
5.900000e+08	1.283083e+14	0.000000e+00	5.352113e-01	1.664611e+15	3.436927e+15	3.568585e+14	1.857881e+04	1.480588e+04	5.714988e+03	0	1.702349e-03
6.000000e+08	1.251071e+14	0.000000e+00	5.352113e-01	1.632455e+15	3.395420e+15	3.551084e+14	1.851219e+04	1.477136e+04	5.701662e+03	0	1.688072e-03
6.100000e+08	1.220269e+14	0.000000e+00	5.352113e-01	1.601484e+15	3.354486e+15	3.533706e+14	1.844685e+04	1.473702e+04	5.688406e+03	0	1.674103e-03
6.200000e+08	1.190607e+14	0.000000e+00	5.352113e-01	1.571633e+15	3.314138e+15	3.516451e+14	1.838274e+04	1.470287e+04	5.675226e+03	0	1.660427e-03
6.300000e+08	1.162023e+14	0.000000e+00	5.352113e-01	1.542838e+15	3.274383e+15	3.499318e+14	1.831982e+04	1.466894e+04	5.662126e+03	0	1.647032e-03
6.400000e+08	1.134457e+14	0.000000e+00	5.352113e-01	1.515044e+15	3.235225e+15	3.482305e+14	1.825804e+04	1.463522e+04	5.649113e+03	0	1.633903e-03
6.500000e+08	1.107854e+14	0.000000e+00	5.352113e-01	1.488195e+15	3.196668e+15	3.465413e+14	1.819736e+04	1.460174e+04	5.636188e+03	0	1.621031e-03
6.600000e+08	1.082165e+14	0.000000e+00	5.352113e-01	1.462244e+15	3.158716e+15	3.448639e+14	1.813775e+04	1.456849e+04	5.623357e+03	0	1.608403e-03
6.700000e+08	1.057340e+14	0.000000e+00	5.352113e-01	1.437144e+15	3.121366e+15	3.431984e+14	1.807917e+04	1.453550e+04	5.610621e+03	0	1.596009e-03
6.800000e+08	1.033337e+14	0.000000e+00	5.352113e-01	1.412853e+15	3.084618e+15	3.415445e+14	1.802159e+04	1.450276e+04	5.597983e+03	0	1.583839e-03
6.900000e+08	1.010114e+14	0.000000e+00	5.352113e-01	1.389329e+15	3.048469e+15	3.399022e+14	1.796497e+04	1.447028e+04	5.585446e+03	0	1.571884e-03
7.000000e+08	9.876336e+13	0.000000e+00	5.352113e-01	1.366537e+15	3.012915e+15	3.382715e+14	1.790929e+04	1.443806e+04	5.573011e+03	0	1.560135e-03
7.100000e+08	9.658591e+13	0.000000e+00	5.352113e-01	1.344441e+15	2.977952e+15	3.366521e+14	1.785452e+04	1.440611e+04	5.560679e+03	0	1.548585e-03
7.200000e+08	9.447574e+13	0.000000e+00	5.352113e-01	1.323008e+15	2.943572e+15	3.350441e+14	1.780063e+04	1.437444e+04	5.548452e+03	0	1.537224e-03
7.300000e+08	9.242972e+13	0.000000e+00	5.352113e-01	1.302209e+15	2.909771e+15	3.334473e+14	1.774758e+04	1.434303e+04	5.536330e+03	0	1.526046e-03
7.400000e+08	9.044489e+13	0.000000e+00	5.352113e-01	1.282013e+15	2.876543e+15	3.318617e+14	1.769537e+04	1.431191e+04	5.524315e+03	0	1.515043e-03
7.500000e+08	8.851851e+13	0.000000e+00	5.352113e-01	1.262395e+15	2.843877e+15	3.302871e+14	1.764396e+04	1.428105e+04	5.512407e+03	0	1.504210e-03
7.600000e+08	8.664799e+13	0.000000e+00	5.352113e-01	1.243329e+15	2.811770e+15	3.287235e+14	1.759333e+04	1.425048e+04	5.500605e+03	0	1.493539e-03
7.700000e+08	8.483088e+13	0.000000e+00	5.352113e-01	1.224791e+15	2.780211e+15	3.271708e+14	1.754346e+04	1.422018e+04	5.488910e+03	0	1.483025e-03
7.800000e+08	8.306490e+13	0.000000e+00	5.352113e-01	1.206759e+15	2.749192e+15	3.256289e+14	1.749433e+04	1.419016e+04	5.477322e+03	0	1.472661e-03
7.900000e+08	8.134790e+13	0.000000e+00	5.352113e-01	1.189212e+15	2.718705e+15	3.240976e+14	1.744592e+04	1.416042e+04	5.465842e+03	0	1.462444e-03
8.000000e+08	7.967782e+13	0.000000e+00	5.352113e-01	1.172130e+15	2.688741e+15	3.225770e+14	1.739820e+04	1.413095e+04	5.454467e+03	0	1.452366e-03
8.100000e+08	7.805277e+13	0.000000e+00	5.352113e-01	1.155494e+15	2.659290e+15	3.210669e+14	1.735117e+04	1.410176e+04	5.443199e+03	0	1.442425e-03
8.200000e+08	7.647091e+13	0.000000e+00	5.352113e-01	1.139286e+15	2.630345e+15	3.195673e+14	1.730480e+04	1.407284e+04	5.432036e+03	0	1.432614e-03
8.300000e+08	7.493054e+13	0.000000e+00	5.352113e-01	1.123490e+15	2.601896e+15	3.180781e+14	1.725907e+04	1.404419e+04	5.420978e+03	0	1.422929e-03
8.400000e+08	7.343003e+13	0.000000e+00	5.352113e-01	1.108090e+15	2.573934e+15	3.165991e+14	1.721398e+04	1.401581e+04	5.410025e+03	0	1.413367e-03
8.500000e+08	7.196785e+13	0.000000e+00	5.352113e-01	1.093070e+15	2.546450e+15	3.151303e+14	1.716950e+04	1.398770e+04	5.399175e+03	0	1.403923e-03
8.600000e+08	7.054254e+13	0.000000e+00	5.352113e-01	1.078417e+15	2.519436e+15	3.136717e+14	1.712561e+04	1.395986e+04	5.388428e+03	0	1.394593e-03
8.700000e+08	6.915273e+13	0.000000e+00	5.352113e-01	1.064116e+15	2.492881e+15	3.122231e+14	1.708231e+04	1.393228e+04	5.377782e+03	0	1.385373e-03
8.800000e+08	6.779710e+13	0.000000e+00	5.352113e-01	1.050156e+15	2.466778e+15	3.107845e+14	1.703959e+04	1.390497e+04	5.367238e+03	0	1.376261e-03
8.900000e+08	6.647440e+13	0.000000e+00	5.352113e-01	1.036523e+15	2.441118e+15	3.093557e+14	1.699741e+04	1.387791e+04	5.356794e+03	0	1.367252e-03
9.000000e+08	6.518347e+13	0.000000e+00	5.352113e-01	1.023207e+15	2.415891e+15	3.079368e+14	1.695579e+04	1.385111e+04	5.346450e+03	0	1.358343e-03
9.100000e+08	6.392316e+13	0.000000e+00	5.352113e-01	1.010196e+15	2.391089e+15	3.065276e+14	1.691469e+04	1.382456e+04	5.336203e+03	0	1.349532e-03
9.200000e+08	6.269242e+13	0.000000e+00	5.352113e-01	9.974796e+14	2.366704e+15	3.051280e+14	1.687411e+04	1.379827e+04	5.326054e+03	0	1.340814e-03
9.300000e+08	6.149022e+13	0.000000e+00	5.352113e-01	9.850479e+14	2.342727e+15	3.037380e+14	1.683404e+04	1.377222e+04	5.316000e+03	0	1.332189e-03
9.400000e+08	6.031559e+13	0.000000e+00	5.352113e-01	9.728912e+14	2.319150e+15	3.023575e+14	1.679447e+04	1.374642e+04	5.306042e+03	0	1.323651e-03
9.500000e+08	5.916760e+13	0.000000e+00	5.352113e-01	9.610006e+14	2.295964e+15	3.009864e+14	1.675538e+04	1.372087e+04	5.296178e+03	0	1.315200e-03
9.600000e+08	5.804537e+13	0.000000e+00	5.352113e-01	9.493672e+14	2.273162e+15	2.996247e+14	1.671677e+04	1.369555e+04	5.286407e+03	0	1.306831e-03
9.700000e+08	5.694806e+13	0.000000e+00	5.352113e-01	9.379828e+14	2.250737e+15	2.982723e+14	1.667862e+04	1.367048e+04	5.276728e+03	0	1.298544e-03
9.800000e+08	5.587485e+13	0.000000e+00	5.352113e-01	9.268395e+14	2.228679e+15	2.969290e+14	1.664092e+04	1.364564e+04	5.267139e+03	0	1.290335e-03
9.900000e+08	5.482498e+13	0.000000e+00	5.352113e-01	9.159297e+14	2.206983e+15	2.955949e+14	1.660367e+04	1.362103e+04	5.257640e+03	0	1.282202e-03
1.000000e+09	5.379771e+13	0.000000e+00	5.352113e-01	9.052460e+14	2.185639e+15	2.942699e+14	1.656686e+04	1.359665e+04	5.248230e+03	0	1.274143e-03
1.010000e+09	5.279233e+13	0.000000e+00	5.352113e-01	8.947816e+14	2.164641e+15	2.929538e+14	1.653047e+04	1.357250e+04	5.238908e+03	0	1.266156e-03
1.020000e+09	5.180816e+13	0.000000e+00	5.352113e-01	8.845297e+14	2.143982e+15	2.916466e+14	1.649450e+04	1.354857e+04	5.229671e+03	0	1.258239e-03
1.030000e+09	5.084457e+13	0.000000e+00	5.352113e-01	8.744840e+14	2.123655e+15	2.903483e+14	1.645894e+04	1.352486e+04	5.220521e+03	0	1.250389e-03
1.040000e+09	4.990092e+13	0.000000e+00	5.352113e-01	8.646384e+14	2.103653e+15	2.890588e+14	1.642378e+04	1.350137e+04	5.211454e+03	0	1.242605e-03
1.050000e+09	4.897662e+13	0.000000e+00	5.352113e-01	8.549869e+14	2.083968e+15	2.877780e+14	1.638902e+04	1.347810e+04	5.202471e+03	0	1.234885e-03
1.060000e+09	4.807110e+13	0.000000e+00	5.352113e-01	8.455239e+14	2.064595e+15	2.865058e+14	1.635464e+04	1.345504e+04	5.193569e+03	0	1.227227e-03
1.070000e+09	4.718381e+13	0.000000e+00	5.352113e-01	8.362440e+14	2.045528e+15	2.852422e+14	1.632064e+04	1.343219e+04	5.184749e+03	0	1.219630e-03
1.080000e+09	4.631422e+13	0.000000e+00	5.352113e-01	8.271420e+14	2.026760e+15	2.839870e+14	1.628701e+04	1.340955e+04	5.176009e+03	0	1.212091e-03
1.090000e+09	4.546183e+13	0.000000e+00	5.352113e-01	8.182129e+14	2.008284e+15	2.827404e+14	1.625374e+04	1.338711e+04	5.167348e+03	0	1.204609e-03
1.100000e+09	4.462615e+13	0.000000e+00	5.352113e-01	8.094518e+14	1.990095e+15	2.815021e+14	1.622083e+04	1.336487e+04	5.158764e+03	0	1.197182e-03
1.110000e+09	4.380671e+13	0.000000e+00	5.352113e-01	8.008542e+14	1.972186e+15	2.802721e+14	1.618827e+04	1.334283e+04	5.150258e+03	0	1.189809e-03
1.120000e+09	4.300305e+13	0.000000e+00	5.352113e-01	7.924155e+14	1.954553e+15	2.790503e+14	1.615606e+04	1.332099e+04	5.141827e+03	0	1.182488e-03
1.130000e+09	4.221475e+13	0.000000e+00	5.352113e-01	7.841315e+14	1.937190e+15	2.778367e+14	1.612418e+04	1.329934e+04	5.133472e+03	0	1.175218e-03
1.140000e+09	4.144139e+13	0.000000e+00	5.352113e-01	7.759980e+14	1.920090e+15	2.766312e+14	1.609263e+04	1.327789e+04	5.125190e+03	0	1.167997e-03
1.150000e+09	4.068256e+13	0.000000e+00	5.352113e-01	7.680110e+14	1.903249e+15	2.754338e+14	1.606141e+04	1.325662e+04	5.116981e+03	0	1.160824e-03
1.160000e+09	3.993788e+13	0.000000e+00	5.352113e-01	7.601668e+14	1.886662e+15	2.742444e+14	1.603051e+04	1.323554e+04	5.108844e+03	0	1.153698e-03
1.170000e+09	3.920697e+13	0.000000e+00	5.352113e-01	7.524615e+14	1.870323e+15	2.730629e+14	1.599992e+04	1.321464e+04	5.100778e+03	0	1.146616e-03
1.180000e+09	3.848946e+13	0.000000e+00	5.352113e-01	7.448916e+14	1.854227e+15	2.718892e+14	1.596964e+04	1.319393e+04	5.092782e+03	0	1.139579e-03
1.190000e+09	3.778502e+13	0.000000e+00	5.352113e-01	7.374536e+14	1.838370e+15	2.707234e+14	1.593967e+04	1.317339e+04	5.084856e+03	0	1.132584e-03
1.200000e+09	3.709331e+13	0.000000e+00	5.352113e-01	7.301443e+14	1.822747e+15	2.695653e+14	1.590999e+04	1.315303e+04	5.076997e+03	0	1.125630e-03
1.210000e+09	3.641399e+13	0.000000e+00	5.352113e-01	7.229603e+14	1.807352e+15	2.684148e+14	1.588060e+04	1.313285e+04	5.069206e+03	0	1.118716e-03
1.220000e+09	3.574676e+13	0.000000e+00	5.352113e-01	7.158985e+14	1.792182e+15	2.672720e+14	1.585150e+04	1.311284e+04	5.061481e+03	0	1.111841e-03
1.230000e+09	3.509132e+13	0.000000e+00	5.352113e-01	7.089561e+14	1.777232e+15	2.661368e+14	1.582269e+04	1.309299e+04	5.053821e+03	0	1.105003e-03
1.240000e+09	3.444736e+13	0.000000e+00	5.352113e-01	7.021299e+14	1.762498e+15	2.650090e+14	1.579415e+04	1.307332e+04	5.046226e+03	0	1.098202e-03
1.250000e+09	3.381461e+13	0.000000e+00	5.352113e-01	6.954173e+14	1.747975e+15	2.638887e+14	1.576588e+04	1.305381e+04	5.038695e+03	0	1.091436e-03
1.260000e+09	3.319279e+13	0.000000e+00	5.352113e-01	6.888155e+14	1.733659e+15	2.627758e+14	1.573789e+04	1.303446e+04	5.031227e+03	0	1.084705e-03
1.270000e+09	3.258164e+13	0.000000e+00	5.352113e-01	6.823218e+14	1.719547e+15	2.616702e+14	1.571016e+04	1.301527e+04	5.023821e+03	0	1.078006e-03
1.280000e+09	3.198090e+13	0.000000e+00	5.352113e-01	6.759337e+14	1.705634e+15	2.605719e+14	1.568268e+04	1.299624e+04	5.016476e+03	0	1.071340e-03
1.290000e+09	3.139032e+13	0.000000e+00	5.352113e-01	6.696487e+14	1.691916e+15	2.594808e+14	1.565547e+04	1.297737e+04	5.009192e+03	0	1.064704e-03
1.300000e+09	3.080967e+13	0.000000e+00	5.352113e-01	6.634645e+14	1.678391e+15	2.583969e+14	1.562850e+04	1.295865e+04	5.001967e+03	0	1.058098e-03
1.310000e+09	3.023870e+13	0.000000e+00	5.352113e-01	6.573787e+14	1.665054e+15	2.573201e+14	1.560179e+04	1.294009e+04	4.994802e+03	0	1.051521e-03
1.320000e+09	2.967719e+13	0.000000e+00	5.352113e-01	6.513890e+14	1.651900e+15	2.562503e+14	1.557532e+04	1.292168e+04	4.987694e+03	0	1.044972e-03
1.330000e+09	2.912493e+13	0.000000e+00	5.352113e-01	6.454934e+14	1.638928e+15	2.551875e+14	1.554908e+04	1.290341e+04	4.980644e+03	0	1.038449e-03
1.340000e+09	2.858170e+13	0.000000e+00	5.352113e-01	6.396895e+14	1.626133e+15	2.541317e+14	1.552309e+04	1.288529e+04	4.973650e+03	0	1.031952e-03
1.350000e+09	2.804729e+13	0.000000e+00	5.352113e-01	6.339755e+14	1.613512e+15	2.530828e+14	1.549732e+04	1.286732e+04	4.966712e+03	0	1.025480e-03
1.360000e+09	2.752151e+13	0.000000e+00	5.352113e-01	6.283493e+14	1.601063e+15	2.520407e+14	1.547179e+04	1.284949e+04	4.959830e+03	0	1.019032e-03
