#t		Qconv[W]	Ri[Rp]		R*[Rp]		Qc[W]		Qm[W]		Qr[W]		Tcmb[K]		Tl[K]		Tup[K]		RiFlag		Bs[T]
0.000000e+00	1.341386e+14	0.000000e+00	5.390070e-01	1.734144e+15	4.583139e+13	4.972806e+14	1.878722e+04	5.518956e+03	2.939166e+03	0	1.729123e-03
1.000000e+07	1.323043e+14	0.000000e+00	5.390070e-01	1.715322e+15	4.889266e+13	4.945253e+14	1.872068e+04	5.565149e+03	2.963767e+03	0	1.721205e-03
2.000000e+07	1.304932e+14	0.000000e+00	5.390070e-01	1.696734e+15	5.207507e+13	4.917906e+14	1.865485e+04	5.610820e+03	2.988090e+03	0	1.713315e-03
3.000000e+07	1.287047e+14	0.000000e+00	5.390070e-01	1.678377e+15	5.537892e+13	4.890764e+14	1.858974e+04	5.655972e+03	3.012135e+03	0	1.705452e-03
4.000000e+07	1.269387e+14	0.000000e+00	5.390070e-01	1.660246e+15	5.880434e+13	4.863824e+14	1.852532e+04	5.700606e+03	3.035906e+03	0	1.697616e-03
5.000000e+07	1.251946e+14	0.000000e+00	5.390070e-01	1.642338e+15	6.235123e+13	4.837085e+14	1.846160e+04	5.744727e+03	3.059403e+03	0	1.689805e-03
6.000000e+07	1.234722e+14	0.000000e+00	5.390070e-01	1.624649e+15	6.601936e+13	4.810545e+14	1.839856e+04	5.788335e+03	3.082627e+03	0	1.682020e-03
7.000000e+07	1.217710e+14	0.000000e+00	5.390070e-01	1.607177e+15	6.980828e+13	4.784203e+14	1.833620e+04	5.831434e+03	3.105579e+03	0	1.674259e-03
8.000000e+07	1.200908e+14	0.000000e+00	5.390070e-01	1.589917e+15	7.371739e+13	4.758057e+14	1.827450e+04	5.874027e+03	3.128262e+03	0	1.666523e-03
9.000000e+07	1.184312e+14	0.000000e+00	5.390070e-01	1.572866e+15	7.774588e+13	4.732105e+14	1.821346e+04	5.916115e+03	3.150677e+03	0	1.658810e-03
1.000000e+08	1.167919e+14	0.000000e+00	5.390070e-01	1.556021e+15	8.189279e+13	4.706346e+14	1.815307e+04	5.957701e+03	3.172824e+03	0	1.651121e-03
1.100000e+08	1.151727e+14	0.000000e+00	5.390070e-01	1.539380e+15	8.615699e+13	4.680778e+14	1.809333e+04	5.998787e+03	3.194705e+03	0	1.643455e-03
1.200000e+08	1.135731e+14	0.000000e+00	5.390070e-01	1.522938e+15	9.053715e+13	4.655400e+14	1.803421e+04	6.039376e+03	3.216320e+03	0	1.635811e-03
1.300000e+08	1.119929e+14	0.000000e+00	5.390070e-01	1.506694e+15	9.503179e+13	4.630209e+14	1.797573e+04	6.079469e+03	3.237672e+03	0	1.628189e-03
1.400000e+08	1.104318e+14	0.000000e+00	5.390070e-01	1.490644e+15	9.963930e+13	4.605205e+14	1.791787e+04	6.119069e+03	3.258762e+03	0	1.620589e-03
1.500000e+08	1.088896e+14	0.000000e+00	5.390070e-01	1.474785e+15	1.043579e+14	4.580386e+14	1.786062e+04	6.158178e+03	3.279589e+03	0	1.613009e-03
1.600000e+08	1.073660e+14	0.000000e+00	5.390070e-01	1.459116e+15	1.091855e+14	4.555750e+14	1.780398e+04	6.196798e+03	3.300157e+03	0	1.605451e-03
1.700000e+08	1.058607e+14	0.000000e+00	5.390070e-01	1.443632e+15	1.141202e+14	4.531296e+14	1.774793e+04	6.234931e+03	3.320465e+03	0	1.597912e-03
1.800000e+08	1.043734e+14	0.000000e+00	5.390070e-01	1.428333e+15	1.191597e+14	4.507022e+14	1.769248e+04	6.272579e+03	3.340515e+03	0	1.590394e-03
1.900000e+08	1.029039e+14	0.000000e+00	5.390070e-01	1.413214e+15	1.243015e+14	4.482927e+14	1.763761e+04	6.309745e+03	3.360308e+03	0	1.582895e-03
2.000000e+08	1.014521e+14	0.000000e+00	5.390070e-01	1.398275e+15	1.295432e+14	4.459010e+14	1.758332e+04	6.346429e+03	3.379845e+03	0	1.575415e-03
2.100000e+08	1.000175e+14	0.000000e+00	5.390070e-01	1.383511e+15	1.348821e+14	4.435268e+14	1.752960e+04	6.382636e+03	3.399127e+03	0	1.567954e-03
2.200000e+08	9.860013e+13	0.000000e+00	5.390070e-01	1.368922e+15	1.403155e+14	4.411700e+14	1.747644e+04	6.418366e+03	3.418155e+03	0	1.560512e-03
2.300000e+08	9.719962e+13	0.000000e+00	5.390070e-01	1.354505e+15	1.458404e+14	4.388306e+14	1.742384e+04	6.453621e+03	3.436930e+03	0	1.553089e-03
2.400000e+08	9.581578e+13	0.000000e+00	5.390070e-01	1.340258e+15	1.514540e+14	4.365083e+14	1.737179e+04	6.488404e+03	3.455454e+03	0	1.545683e-03
2.500000e+08	9.444841e+13	0.000000e+00	5.390070e-01	1.326178e+15	1.571530e+14	4.342030e+14	1.732029e+04	6.522717e+03	3.473728e+03	0	1.538295e-03
2.600000e+08	9.309731e+13	0.000000e+00	5.390070e-01	1.312264e+15	1.629343e+14	4.319146e+14	1.726932e+04	6.556562e+03	3.491752e+03	0	1.530924e-03
2.700000e+08	9.176228e+13	0.000000e+00	5.390070e-01	1.298514e+15	1.687947e+14	4.296429e+14	1.721889e+04	6.589941e+03	3.509529e+03	0	1.523571e-03
2.800000e+08	9.044313e+13	0.000000e+00	5.390070e-01	1.284925e+15	1.747307e+14	4.273878e+14	1.716899e+04	6.622856e+03	3.527058e+03	0	1.516235e-03
2.900000e+08	8.913965e+13	0.000000e+00	5.390070e-01	1.271496e+15	1.807390e+14	4.251492e+14	1.711960e+04	6.655310e+03	3.544341e+03	0	1.508916e-03
3.000000e+08	8.785168e+13	0.000000e+00	5.390070e-01	1.258224e+15	1.868159e+14	4.229269e+14	1.707072e+04	6.687304e+03	3.561380e+03	0	1.501613e-03
3.100000e+08	8.657903e+13	0.000000e+00	5.390070e-01	1.245109e+15	1.929579e+14	4.207207e+14	1.702236e+04	6.718841e+03	3.578176e+03	0	1.494327e-03
3.200000e+08	8.532152e+13	0.000000e+00	5.390070e-01	1.232148e+15	1.991614e+14	4.185307e+14	1.697449e+04	6.749924e+03	3.594729e+03	0	1.487057e-03
3.300000e+08	8.407898e+13	0.000000e+00	5.390070e-01	1.219339e+15	2.054228e+14	4.163565e+14	1.692713e+04	6.780554e+03	3.611041e+03	0	1.479803e-03
3.400000e+08	8.285124e+13	0.000000e+00	5.390070e-01	1.206681e+15	2.117381e+14	4.141981e+14	1.688025e+04	6.810734e+03	3.627114e+03	0	1.472565e-03
3.500000e+08	8.163814e+13	0.000000e+00	5.390070e-01	1.194171e+15	2.181038e+14	4.120554e+14	1.683385e+04	6.840467e+03	3.642948e+03	0	1.465342e-03
3.600000e+08	8.043952e+13	0.000000e+00	5.390070e-01	1.181810e+15	2.245160e+14	4.099283e+14	1.678794e+04	6.869754e+03	3.658546e+03	0	1.458135e-03
3.700000e+08	7.925522e+13	0.000000e+00	5.390070e-01	1.169593e+15	2.309708e+14	4.078165e+14	1.674250e+04	6.898599e+03	3.673907e+03	0	1.450944e-03
3.800000e+08	7.808507e+13	0.000000e+00	5.390070e-01	1.157521e+15	2.374645e+14	4.057200e+14	1.669752e+04	6.927004e+03	3.689034e+03	0	1.443768e-03
3.900000e+08	7.692894e+13	0.000000e+00	5.390070e-01	1.145592e+15	2.439931e+14	4.036387e+14	1.665301e+04	6.954971e+03	3.703928e+03	0	1.436607e-03
4.000000e+08	7.578667e+13	0.000000e+00	5.390070e-01	1.133804e+15	2.505529e+14	4.015724e+14	1.660895e+04	6.982503e+03	3.718591e+03	0	1.429461e-03
4.100000e+08	7.465810e+13	0.000000e+00	5.390070e-01	1.122155e+15	2.571400e+14	3.995210e+14	1.656535e+04	7.009603e+03	3.733023e+03	0	1.422330e-03
4.200000e+08	7.354311e+13	0.000000e+00	5.390070e-01	1.110644e+15	2.637504e+14	3.974844e+14	1.652219e+04	7.036274e+03	3.747227e+03	0	1.415214e-03
4.300000e+08	7.244155e+13	0.000000e+00	5.390070e-01	1.099270e+15	2.703805e+14	3.954625e+14	1.647947e+04	7.062518e+03	3.761204e+03	0	1.408112e-03
4.400000e+08	7.135327e+13	0.000000e+00	5.390070e-01	1.088031e+15	2.770263e+14	3.934551e+14	1.643719e+04	7.088338e+03	3.774954e+03	0	1.401025e-03
4.500000e+08	7.027813e+13	0.000000e+00	5.390070e-01	1.076925e+15	2.836840e+14	3.914621e+14	1.639534e+04	7.113737e+03	3.788481e+03	0	1.393953e-03
4.600000e+08	6.921601e+13	0.000000e+00	5.390070e-01	1.065952e+15	2.903501e+14	3.894834e+14	1.635392e+04	7.138719e+03	3.801785e+03	0	1.386895e-03
4.700000e+08	6.816677e+13	0.000000e+00	5.390070e-01	1.055110e+15	2.970205e+14	3.875190e+14	1.631291e+04	7.163285e+03	3.814868e+03	0	1.379851e-03
4.800000e+08	6.713027e+13	0.000000e+00	5.390070e-01	1.044398e+15	3.036918e+14	3.855686e+14	1.627232e+04	7.187439e+03	3.827731e+03	0	1.372822e-03
4.900000e+08	6.610639e+13	0.000000e+00	5.390070e-01	1.033813e+15	3.103601e+14	3.836321e+14	1.623214e+04	7.211184e+03	3.840377e+03	0	1.365806e-03
5.000000e+08	6.509499e+13	0.000000e+00	5.390070e-01	1.023356e+15	3.170221e+14	3.817095e+14	1.619236e+04	7.234523e+03	3.852806e+03	0	1.358805e-03
5.100000e+08	6.409594e+13	0.000000e+00	5.390070e-01	1.013024e+15	3.236740e+14	3.798007e+14	1.615299e+04	7.257459e+03	3.865021e+03	0	1.351818e-03
5.200000e+08	6.310913e+13	0.000000e+00	5.390070e-01	1.002816e+15	3.303124e+14	3.779055e+14	1.611401e+04	7.279996e+03	3.877023e+03	0	1.344845e-03
5.300000e+08	6.213442e+13	0.000000e+00	5.390070e-01	9.927318e+14	3.369339e+14	3.760238e+14	1.607543e+04	7.302137e+03	3.888814e+03	0	1.337885e-03
5.400000e+08	6.117169e+13	0.000000e+00	5.390070e-01	9.827689e+14	3.435350e+14	3.741554e+14	1.603723e+04	7.323884e+03	3.900396e+03	0	1.330939e-03
5.500000e+08	6.022082e+13	0.000000e+00	5.390070e-01	9.729264e+14	3.501126e+14	3.723004e+14	1.599941e+04	7.345242e+03	3.911770e+03	0	1.324007e-03
5.600000e+08	5.928169e+13	0.000000e+00	5.390070e-01	9.632031e+14	3.566634e+14	3.704586e+14	1.596197e+04	7.366213e+03	3.922939e+03	0	1.317088e-03
5.700000e+08	5.835417e+13	0.000000e+00	5.390070e-01	9.535977e+14	3.631842e+14	3.686299e+14	1.592490e+04	7.386802e+03	3.933903e+03	0	1.310183e-03
5.800000e+08	5.743814e+13	0.000000e+00	5.390070e-01	9.441090e+14	3.696719e+14	3.668141e+14	1.588820e+04	7.407010e+03	3.944666e+03	0	1.303291e-03
5.900000e+08	5.653349e+13	0.000000e+00	5.390070e-01	9.347358e+14	3.761235e+14	3.650112e+14	1.585186e+04	7.426843e+03	3.955228e+03	0	1.296413e-03
6.000000e+08	5.564010e+13	0.000000e+00	5.390070e-01	9.254768e+14	3.825363e+14	3.632210e+14	1.581588e+04	7.446304e+03	3.965592e+03	0	1.289547e-03
6.100000e+08	5.475785e+13	0.000000e+00	5.390070e-01	9.163309e+14	3.889072e+14	3.614436e+14	1.578026e+04	7.465395e+03	3.975759e+03	0	1.282695e-03
6.200000e+08	5.388661e+13	0.000000e+00	5.390070e-01	9.072968e+14	3.952336e+14	3.596787e+14	1.574499e+04	7.484121e+03	3.985732e+03	0	1.275856e-03
6.300000e+08	5.302629e+13	0.000000e+00	5.390070e-01	8.983734e+14	4.015126e+14	3.579262e+14	1.571006e+04	7.502485e+03	3.995512e+03	0	1.269030e-03
6.400000e+08	5.217676e+13	0.000000e+00	5.390070e-01	8.895594e+14	4.077421e+14	3.561861e+14	1.567548e+04	7.520491e+03	4.005101e+03	0	1.262216e-03
6.500000e+08	5.133790e+13	0.000000e+00	5.390070e-01	8.808537e+14	4.139192e+14	3.544583e+14	1.564124e+04	7.538143e+03	4.014502e+03	0	1.255415e-03
6.600000e+08	5.050960e+13	0.000000e+00	5.390070e-01	8.722551e+14	4.200415e+14	3.527426e+14	1.560733e+04	7.555444e+03	4.023715e+03	0	1.248627e-03
6.700000e+08	4.969176e+13	0.000000e+00	5.390070e-01	8.637625e+14	4.261070e+14	3.510390e+14	1.557374e+04	7.572397e+03	4.032744e+03	0	1.241851e-03
6.800000e+08	4.888425e+13	0.000000e+00	5.390070e-01	8.553747e+14	4.321133e+14	3.493473e+14	1.554049e+04	7.589007e+03	4.041590e+03	0	1.235087e-03
6.900000e+08	4.808696e+13	0.000000e+00	5.390070e-01	8.470905e+14	4.380582e+14	3.476675e+14	1.550756e+04	7.605278e+03	4.050255e+03	0	1.228336e-03
7.000000e+08	4.729979e+13	0.000000e+00	5.390070e-01	8.389088e+14	4.439399e+14	3.459995e+14	1.547494e+04	7.621212e+03	4.058741e+03	0	1.221596e-03
7.100000e+08	4.652261e+13	0.000000e+00	5.390070e-01	8.308285e+14	4.497562e+14	3.443432e+14	1.544264e+04	7.636815e+03	4.067050e+03	0	1.214869e-03
7.200000e+08	4.575533e+13	0.000000e+00	5.390070e-01	8.228484e+14	4.555055e+14	3.426984e+14	1.541065e+04	7.652089e+03	4.075184e+03	0	1.208153e-03
7.300000e+08	4.499783e+13	0.000000e+00	5.390070e-01	8.149675e+14	4.611860e+14	3.410652e+14	1.537896e+04	7.667038e+03	4.083146e+03	0	1.201449e-03
7.400000e+08	4.424999e+13	0.000000e+00	5.390070e-01	8.071845e+14	4.667958e+14	3.394433e+14	1.534758e+04	7.681667e+03	4.090937e+03	0	1.194756e-03
7.500000e+08	4.351172e+13	0.000000e+00	5.390070e-01	7.994984e+14	4.723337e+14	3.378328e+14	1.531649e+04	7.695979e+03	4.098559e+03	0	1.188074e-03
7.600000e+08	4.278290e+13	0.000000e+00	5.390070e-01	7.919080e+14	4.777979e+14	3.362334e+14	1.528570e+04	7.709978e+03	4.106014e+03	0	1.181403e-03
7.700000e+08	4.206343e+13	0.000000e+00	5.390070e-01	7.844123e+14	4.831872e+14	3.346452e+14	1.525521e+04	7.723668e+03	4.113304e+03	0	1.174743e-03
7.800000e+08	4.135319e+13	0.000000e+00	5.390070e-01	7.770102e+14	4.885003e+14	3.330681e+14	1.522500e+04	7.737052e+03	4.120432e+03	0	1.168094e-03
7.900000e+08	4.065209e+13	0.000000e+00	5.390070e-01	7.697006e+14	4.937358e+14	3.315018e+14	1.519507e+04	7.750135e+03	4.127400e+03	0	1.161455e-03
8.000000e+08	3.996000e+13	0.000000e+00	5.390070e-01	7.624823e+14	4.988929e+14	3.299465e+14	1.516542e+04	7.762920e+03	4.134208e+03	0	1.154826e-03
8.100000e+08	3.927684e+13	0.000000e+00	5.390070e-01	7.553544e+14	5.039701e+14	3.284019e+14	1.513605e+04	7.775411e+03	4.140861e+03	0	1.148207e-03
8.200000e+08	3.860249e+13	0.000000e+00	5.390070e-01	7.483157e+14	5.089669e+14	3.268680e+14	1.510696e+04	7.787612e+03	4.147359e+03	0	1.141598e-03
8.300000e+08	3.793685e+13	0.000000e+00	5.390070e-01	7.413653e+14	5.138822e+14	3.253448e+14	1.507813e+04	7.799527e+03	4.153704e+03	0	1.134998e-03
8.400000e+08	3.727981e+13	0.000000e+00	5.390070e-01	7.345019e+14	5.187153e+14	3.238320e+14	1.504958e+04	7.811160e+03	4.159899e+03	0	1.128407e-03
8.500000e+08	3.663127e+13	0.000000e+00	5.390070e-01	7.277246e+14	5.234653e+14	3.223297e+14	1.502128e+04	7.822514e+03	4.165946e+03	0	1.121826e-03
8.600000e+08	3.599113e+13	0.000000e+00	5.390070e-01	7.210324e+14	5.281318e+14	3.208377e+14	1.499325e+04	7.833593e+03	4.171846e+03	0	1.115253e-03
8.700000e+08	3.535929e+13	0.000000e+00	5.390070e-01	7.144241e+14	5.327140e+14	3.193560e+14	1.496547e+04	7.844402e+03	4.177602e+03	0	1.108688e-03
8.800000e+08	3.473564e+13	0.000000e+00	5.390070e-01	7.078988e+14	5.372115e+14	3.178845e+14	1.493795e+04	7.854943e+03	4.183216e+03	0	1.102131e-03
8.900000e+08	3.412008e+13	0.000000e+00	5.390070e-01	7.014554e+14	5.416241e+14	3.164231e+14	1.491067e+04	7.865220e+03	4.188689e+03	0	1.095582e-03
9.000000e+08	3.351252e+13	0.000000e+00	5.390070e-01	6.950930e+14	5.459511e+14	3.149718e+14	1.488365e+04	7.875238e+03	4.194025e+03	0	1.089040e-03
9.100000e+08	3.291285e+13	0.000000e+00	5.390070e-01	6.888105e+14	5.501924e+14	3.135304e+14	1.485687e+04	7.885001e+03	4.199224e+03	0	1.082505e-03
9.200000e+08	3.232097e+13	0.000000e+00	5.390070e-01	6.826069e+14	5.543478e+14	3.120988e+14	1.483033e+04	7.894510e+03	4.204288e+03	0	1.075977e-03
9.300000e+08	3.173679e+13	0.000000e+00	5.390070e-01	6.764811e+14	5.584173e+14	3.106771e+14	1.480403e+04	7.903772e+03	4.209220e+03	0	1.069455e-03
9.400000e+08	3.116020e+13	0.000000e+00	5.390070e-01	6.704324e+14	5.624004e+14	3.092651e+14	1.477796e+04	7.912788e+03	4.214022e+03	0	1.062938e-03
9.500000e+08	3.059112e+13	0.000000e+00	5.390070e-01	6.644595e+14	5.662975e+14	3.078627e+14	1.475213e+04	7.921564e+03	4.218696e+03	0	1.056428e-03
9.600000e+08	3.002944e+13	0.000000e+00	5.390070e-01	6.585617e+14	5.701083e+14	3.064698e+14	1.472652e+04	7.930101e+03	4.223242e+03	0	1.049922e-03
9.700000e+08	2.947507e+13	0.000000e+00	5.390070e-01	6.527378e+14	5.738331e+14	3.050865e+14	1.470114e+04	7.938405e+03	4.227665e+03	0	1.043421e-03
9.800000e+08	2.892792e+13	0.000000e+00	5.390070e-01	6.469870e+14	5.774720e+14	3.037126e+14	1.467599e+04	7.946479e+03	4.231964e+03	0	1.036924e-03
9.900000e+08	2.838788e+13	0.000000e+00	5.390070e-01	6.413083e+14	5.810252e+14	3.023480e+14	1.465106e+04	7.954326e+03	4.236143e+03	0	1.030431e-03
1.000000e+09	2.785487e+13	0.000000e+00	5.390070e-01	6.357008e+14	5.844928e+14	3.009926e+14	1.462634e+04	7.961949e+03	4.240203e+03	0	1.023941e-03
1.010000e+09	2.732880e+13	0.000000e+00	5.390070e-01	6.301635e+14	5.878753e+14	2.996465e+14	1.460184e+04	7.969353e+03	4.244146e+03	0	1.017454e-03
1.020000e+09	2.680957e+13	0.000000e+00	5.390070e-01	6.246955e+14	5.911729e+14	2.983095e+14	1.457756e+04	7.976540e+03	4.247974e+03	0	1.010969e-03
1.030000e+09	2.629709e+13	0.000000e+00	5.390070e-01	6.192959e+14	5.943863e+14	2.969815e+14	1.455348e+04	7.983515e+03	4.251688e+03	0	1.004486e-03
1.040000e+09	2.579128e+13	0.000000e+00	5.390070e-01	6.139638e+14	5.975155e+14	2.956625e+14	1.452961e+04	7.990280e+03	4.255291e+03	0	9.980041e-04
1.050000e+09	2.529203e+13	0.000000e+00	5.390070e-01	6.086983e+14	6.005611e+14	2.943524e+14	1.450595e+04	7.996839e+03	4.258784e+03	0	9.915226e-04
1.060000e+09	2.479927e+13	0.000000e+00	5.390070e-01	6.034984e+14	6.035236e+14	2.930512e+14	1.448248e+04	8.003196e+03	4.262169e+03	0	9.850411e-04
1.070000e+09	2.431291e+13	0.000000e+00	5.390070e-01	5.983634e+14	6.064037e+14	2.917587e+14	1.445922e+04	8.009353e+03	4.265448e+03	0	9.785590e-04
1.080000e+09	2.383286e+13	0.000000e+00	5.390070e-01	5.932923e+14	6.092018e+14	2.904749e+14	1.443616e+04	8.015314e+03	4.268623e+03	0	9.720757e-04
1.090000e+09	2.335904e+13	0.000000e+00	5.390070e-01	5.882843e+14	6.119186e+14	2.891998e+14	1.441329e+04	8.021083e+03	4.271695e+03	0	9.655905e-04
1.100000e+09	2.289135e+13	0.000000e+00	5.390070e-01	5.833385e+14	6.145548e+14	2.879332e+14	1.439061e+04	8.026662e+03	4.274666e+03	0	9.591028e-04
1.110000e+09	2.242972e+13	0.000000e+00	5.390070e-01	5.784541e+14	6.171110e+14	2.866751e+14	1.436812e+04	8.032054e+03	4.277538e+03	0	9.526118e-04
1.120000e+09	2.197406e+13	0.000000e+00	5.390070e-01	5.736302e+14	6.195879e+14	2.854254e+14	1.434582e+04	8.037264e+03	4.280313e+03	0	9.461169e-04
1.130000e+09	2.152429e+13	0.000000e+00	5.390070e-01	5.688661e+14	6.219861e+14	2.841841e+14	1.432371e+04	8.042293e+03	4.282991e+03	0	9.396172e-04
1.140000e+09	2.108032e+13	0.000000e+00	5.390070e-01	5.641608e+14	6.243067e+14	2.829511e+14	1.430178e+04	8.047146e+03	4.285575e+03	0	9.331120e-04
1.150000e+09	2.064209e+13	0.000000e+00	5.390070e-01	5.595136e+14	6.265502e+14	2.817263e+14	1.428003e+04	8.051824e+03	4.288067e+03	0	9.266006e-04
1.160000e+09	2.020950e+13	0.000000e+00	5.390070e-01	5.549237e+14	6.287172e+14	2.805097e+14	1.425846e+04	8.056332e+03	4.290467e+03	0	9.200821e-04
1.170000e+09	1.978248e+13	0.000000e+00	5.390070e-01	5.503902e+14	6.308090e+14	2.793012e+14	1.423706e+04	8.060672e+03	4.292779e+03	0	9.135556e-04
1.180000e+09	1.936096e+13	0.000000e+00	5.390070e-01	5.459125e+14	6.328262e+14	2.781007e+14	1.421584e+04	8.064847e+03	4.295002e+03	0	9.070202e-04
1.190000e+09	1.894484e+13	0.000000e+00	5.390070e-01	5.414897e+14	6.347696e+14	2.769082e+14	1.419479e+04	8.068860e+03	4.297139e+03	0	9.004751e-04
1.200000e+09	1.853407e+13	0.000000e+00	5.390070e-01	5.371211e+14	6.366402e+14	2.757237e+14	1.417392e+04	8.072714e+03	4.299192e+03	0	8.939192e-04
1.210000e+09	1.812855e+13	0.000000e+00	5.390070e-01	5.328058e+14	6.384387e+14	2.745469e+14	1.415321e+04	8.076411e+03	4.301161e+03	0	8.873516e-04
1.220000e+09	1.772823e+13	0.000000e+00	5.390070e-01	5.285432e+14	6.401663e+14	2.733780e+14	1.413266e+04	8.079955e+03	4.303048e+03	0	8.807712e-04
1.230000e+09	1.733301e+13	0.000000e+00	5.390070e-01	5.243326e+14	6.418235e+14	2.722168e+14	1.411228e+04	8.083349e+03	4.304855e+03	0	8.741770e-04
1.240000e+09	1.694284e+13	0.000000e+00	5.390070e-01	5.201731e+14	6.434115e+14	2.710633e+14	1.409206e+04	8.086594e+03	4.306584e+03	0	8.675679e-04
1.250000e+09	1.655764e+13	0.000000e+00	5.390070e-01	5.160642e+14	6.449312e+14	2.699174e+14	1.407200e+04	8.089694e+03	4.308235e+03	0	8.609426e-04
1.260000e+09	1.617734e+13	0.000000e+00	5.390070e-01	5.120050e+14	6.463836e+14	2.687791e+14	1.405210e+04	8.092652e+03	4.309810e+03	0	8.543000e-04
1.270000e+09	1.580187e+13	0.000000e+00	5.390070e-01	5.079948e+14	6.477693e+14	2.676483e+14	1.403236e+04	8.095470e+03	4.311311e+03	0	8.476388e-04
1.280000e+09	1.543115e+13	0.000000e+00	5.390070e-01	5.040330e+14	6.490897e+14	2.665249e+14	1.401277e+04	8.098150e+03	4.312738e+03	0	8.409577e-04
1.290000e+09	1.506513e+13	0.000000e+00	5.390070e-01	5.001189e+14	6.503455e+14	2.654089e+14	1.399333e+04	8.100696e+03	4.314094e+03	0	8.342554e-04
1.300000e+09	1.470374e+13	0.000000e+00	5.390070e-01	4.962518e+14	6.515377e+14	2.643002e+14	1.397404e+04	8.103109e+03	4.315379e+03	0	8.275304e-04
1.310000e+09	1.434690e+13	0.000000e+00	5.390070e-01	4.924311e+14	6.526673e+14	2.631987e+14	1.395490e+04	8.105392e+03	4.316595e+03	0	8.207812e-04
1.320000e+09	1.399455e+13	0.000000e+00	5.390070e-01	4.886560e+14	6.537353e+14	2.621045e+14	1.393591e+04	8.107548e+03	4.317743e+03	0	8.140062e-04
1.330000e+09	1.364663e+13	0.000000e+00	5.390070e-01	4.849260e+14	6.547425e+14	2.610175e+14	1.391707e+04	8.109580e+03	4.318825e+03	0	8.072039e-04
1.340000e+09	1.330308e+13	0.000000e+00	5.390070e-01	4.812404e+14	6.556900e+14	2.599375e+14	1.389836e+04	8.111488e+03	4.319841e+03	0	8.003724e-04
1.350000e+09	1.296383e+13	0.000000e+00	5.390070e-01	4.775985e+14	6.565788e+14	2.588646e+14	1.387980e+04	8.113277e+03	4.320794e+03	0	7.935101e-04
1.360000e+09	1.262881e+13	0.000000e+00	5.390070e-01	4.739998e+14	6.574097e+14	2.577987e+14	1.386138e+04	8.114947e+03	4.321684e+03	0	7.866150e-04
