#t		Qconv[W]	Ri[Rp]		R*[Rp]		Qc[W]		Qm[W]		Qr[W]		Tcmb[K]		Tl[K]		Tup[K]		RiFlag		Bs[T]
0.000000e+00	1.980369e+15	0.000000e+00	5.319149e-01	1.879345e+16	4.179370e+13	5.500137e+14	3.201631e+04	7.026715e+03	2.974807e+03	0	4.248558e-03
1.000000e+07	1.862458e+15	0.000000e+00	5.319149e-01	1.771281e+16	6.457336e+13	5.469662e+14	3.137578e+04	7.432837e+03	3.146742e+03	0	4.162508e-03
2.000000e+07	1.753102e+15	0.000000e+00	5.319149e-01	1.671024e+16	9.400835e+13	5.439416e+14	3.077116e+04	7.815595e+03	3.308785e+03	0	4.079390e-03
3.000000e+07	1.651552e+15	0.000000e+00	5.319149e-01	1.577896e+16	1.304396e+14	5.409395e+14	3.019996e+04	8.176489e+03	3.461572e+03	0	3.999051e-03
4.000000e+07	1.557139e+15	0.000000e+00	5.319149e-01	1.491284e+16	1.739837e+14	5.379598e+14	2.965987e+04	8.516871e+03	3.605675e+03	0	3.921347e-03
5.000000e+07	1.469260e+15	0.000000e+00	5.319149e-01	1.410642e+16	2.245546e+14	5.350024e+14	2.914879e+04	8.837965e+03	3.741612e+03	0	3.846146e-03
6.000000e+07	1.387376e+15	0.000000e+00	5.319149e-01	1.335478e+16	2.818914e+14	5.320670e+14	2.866478e+04	9.140882e+03	3.869855e+03	0	3.773326e-03
7.000000e+07	1.311001e+15	0.000000e+00	5.319149e-01	1.265347e+16	3.455891e+14	5.291534e+14	2.820604e+04	9.426638e+03	3.990832e+03	0	3.702774e-03
8.000000e+07	1.239695e+15	0.000000e+00	5.319149e-01	1.199851e+16	4.151288e+14	5.262615e+14	2.777095e+04	9.696165e+03	4.104937e+03	0	3.634387e-03
9.000000e+07	1.173064e+15	0.000000e+00	5.319149e-01	1.138630e+16	4.899061e+14	5.233912e+14	2.735796e+04	9.950322e+03	4.212536e+03	0	3.568070e-03
1.000000e+08	1.110749e+15	0.000000e+00	5.319149e-01	1.081356e+16	5.692574e+14	5.205421e+14	2.696568e+04	1.018990e+04	4.313965e+03	0	3.503737e-03
1.100000e+08	1.052427e+15	0.000000e+00	5.319149e-01	1.027735e+16	6.524843e+14	5.177142e+14	2.659280e+04	1.041566e+04	4.409539e+03	0	3.441308e-03
1.200000e+08	9.978022e+14	0.000000e+00	5.319149e-01	9.774960e+15	7.388714e+14	5.149072e+14	2.623811e+04	1.062827e+04	4.499552e+03	0	3.380708e-03
1.300000e+08	9.466062e+14	0.000000e+00	5.319149e-01	9.303951e+15	8.277060e+14	5.121211e+14	2.590050e+04	1.082841e+04	4.584281e+03	0	3.321870e-03
1.400000e+08	8.985937e+14	0.000000e+00	5.319149e-01	8.862080e+15	9.182899e+14	5.093555e+14	2.557891e+04	1.101668e+04	4.663986e+03	0	3.264730e-03
1.500000e+08	8.535405e+14	0.000000e+00	5.319149e-01	8.447300e+15	1.009953e+15	5.066104e+14	2.527237e+04	1.119367e+04	4.738916e+03	0	3.209231e-03
1.600000e+08	8.112405e+14	0.000000e+00	5.319149e-01	8.057729e+15	1.102060e+15	5.038856e+14	2.497998e+04	1.135993e+04	4.809305e+03	0	3.155315e-03
1.700000e+08	7.715046e+14	0.000000e+00	5.319149e-01	7.691638e+15	1.194020e+15	5.011808e+14	2.470090e+04	1.151600e+04	4.875376e+03	0	3.102933e-03
1.800000e+08	7.341584e+14	0.000000e+00	5.319149e-01	7.347435e+15	1.285287e+15	4.984961e+14	2.443433e+04	1.166237e+04	4.937344e+03	0	3.052035e-03
1.900000e+08	6.990411e+14	0.000000e+00	5.319149e-01	7.023649e+15	1.375368e+15	4.958310e+14	2.417954e+04	1.179953e+04	4.995410e+03	0	3.002574e-03
2.000000e+08	6.660040e+14	0.000000e+00	5.319149e-01	6.718922e+15	1.463817e+15	4.931856e+14	2.393584e+04	1.192793e+04	5.049771e+03	0	2.954508e-03
2.100000e+08	6.349093e+14	0.000000e+00	5.319149e-01	6.431994e+15	1.550247e+15	4.905597e+14	2.370259e+04	1.204802e+04	5.100613e+03	0	2.907793e-03
2.200000e+08	6.056295e+14	0.000000e+00	5.319149e-01	6.161698e+15	1.634316e+15	4.879530e+14	2.347919e+04	1.216022e+04	5.148114e+03	0	2.862388e-03
2.300000e+08	5.780460e+14	0.000000e+00	5.319149e-01	5.906952e+15	1.715734e+15	4.853655e+14	2.326507e+04	1.226494e+04	5.192444e+03	0	2.818255e-03
2.400000e+08	5.520487e+14	0.000000e+00	5.319149e-01	5.666747e+15	1.794260e+15	4.827969e+14	2.305970e+04	1.236255e+04	5.233768e+03	0	2.775356e-03
2.500000e+08	5.275352e+14	0.000000e+00	5.319149e-01	5.440148e+15	1.869696e+15	4.802472e+14	2.286260e+04	1.245342e+04	5.272242e+03	0	2.733653e-03
2.600000e+08	5.044102e+14	0.000000e+00	5.319149e-01	5.226281e+15	1.941884e+15	4.777161e+14	2.267330e+04	1.253792e+04	5.308015e+03	0	2.693110e-03
2.700000e+08	4.825849e+14	0.000000e+00	5.319149e-01	5.024335e+15	2.010707e+15	4.752035e+14	2.249137e+04	1.261638e+04	5.341230e+03	0	2.653694e-03
2.800000e+08	4.619765e+14	0.000000e+00	5.319149e-01	4.833553e+15	2.076084e+15	4.727093e+14	2.231640e+04	1.268912e+04	5.372026e+03	0	2.615368e-03
2.900000e+08	4.425078e+14	0.000000e+00	5.319149e-01	4.653228e+15	2.137964e+15	4.702333e+14	2.214801e+04	1.275645e+04	5.400531e+03	0	2.578100e-03
3.000000e+08	4.241068e+14	0.000000e+00	5.319149e-01	4.482701e+15	2.196323e+15	4.677753e+14	2.198584e+04	1.281867e+04	5.426871e+03	0	2.541858e-03
3.100000e+08	4.067065e+14	0.000000e+00	5.319149e-01	4.321359e+15	2.251164e+15	4.653352e+14	2.182956e+04	1.287605e+04	5.451164e+03	0	2.506609e-03
3.200000e+08	3.902440e+14	0.000000e+00	5.319149e-01	4.168627e+15	2.302514e+15	4.629129e+14	2.167885e+04	1.292887e+04	5.473524e+03	0	2.472322e-03
3.300000e+08	3.746609e+14	0.000000e+00	5.319149e-01	4.023969e+15	2.350414e+15	4.605082e+14	2.153343e+04	1.297737e+04	5.494060e+03	0	2.438966e-03
3.400000e+08	3.599026e+14	0.000000e+00	5.319149e-01	3.886886e+15	2.394925e+15	4.581210e+14	2.139301e+04	1.302181e+04	5.512872e+03	0	2.406511e-03
3.500000e+08	3.459180e+14	0.000000e+00	5.319149e-01	3.756910e+15	2.436123e+15	4.557510e+14	2.125733e+04	1.306241e+04	5.530060e+03	0	2.374929e-03
3.600000e+08	3.326594e+14	0.000000e+00	5.319149e-01	3.633606e+15	2.474090e+15	4.533983e+14	2.112615e+04	1.309939e+04	5.545715e+03	0	2.344190e-03
3.700000e+08	3.200823e+14	0.000000e+00	5.319149e-01	3.516564e+15	2.508925e+15	4.510626e+14	2.099924e+04	1.313295e+04	5.559925e+03	0	2.314267e-03
3.800000e+08	3.081452e+14	0.000000e+00	5.319149e-01	3.405406e+15	2.540726e+15	4.487438e+14	2.087638e+04	1.316331e+04	5.572775e+03	0	2.285132e-03
3.900000e+08	2.968092e+14	0.000000e+00	5.319149e-01	3.299774e+15	2.569604e+15	4.464418e+14	2.075738e+04	1.319063e+04	5.584342e+03	0	2.256760e-03
4.000000e+08	2.860380e+14	0.000000e+00	5.319149e-01	3.199336e+15	2.595670e+15	4.441563e+14	2.064204e+04	1.321510e+04	5.594703e+03	0	2.229123e-03
4.100000e+08	2.757977e+14	0.000000e+00	5.319149e-01	3.103782e+15	2.619039e+15	4.418874e+14	2.053019e+04	1.323689e+04	5.603929e+03	0	2.202198e-03
4.200000e+08	2.660565e+14	0.000000e+00	5.319149e-01	3.012822e+15	2.639826e+15	4.396348e+14	2.042165e+04	1.325616e+04	5.612085e+03	0	2.175960e-03
4.300000e+08	2.567849e+14	0.000000e+00	5.319149e-01	2.926183e+15	2.658151e+15	4.373985e+14	2.031626e+04	1.327305e+04	5.619236e+03	0	2.150384e-03
4.400000e+08	2.479551e+14	0.000000e+00	5.319149e-01	2.843611e+15	2.674127e+15	4.351782e+14	2.021389e+04	1.328771e+04	5.625443e+03	0	2.125448e-03
4.500000e+08	2.395413e+14	0.000000e+00	5.319149e-01	2.764870e+15	2.687873e+15	4.329739e+14	2.011438e+04	1.330027e+04	5.630761e+03	0	2.101130e-03
4.600000e+08	2.315191e+14	0.000000e+00	5.319149e-01	2.689737e+15	2.699502e+15	4.307854e+14	2.001761e+04	1.331086e+04	5.635245e+03	0	2.077408e-03
4.700000e+08	2.238660e+14	0.000000e+00	5.319149e-01	2.618005e+15	2.709125e+15	4.286126e+14	1.992345e+04	1.331960e+04	5.638945e+03	0	2.054261e-03
4.800000e+08	2.165607e+14	0.000000e+00	5.319149e-01	2.549479e+15	2.716853e+15	4.264554e+14	1.983179e+04	1.332660e+04	5.641909e+03	0	2.031668e-03
4.900000e+08	2.095834e+14	0.000000e+00	5.319149e-01	2.483978e+15	2.722789e+15	4.243136e+14	1.974250e+04	1.333197e+04	5.644182e+03	0	2.009610e-03
5.000000e+08	2.029155e+14	0.000000e+00	5.319149e-01	2.421330e+15	2.727037e+15	4.221872e+14	1.965550e+04	1.333581e+04	5.645807e+03	0	1.988068e-03
5.100000e+08	1.965398e+14	0.000000e+00	5.319149e-01	2.361377e+15	2.729699e+15	4.200759e+14	1.957067e+04	1.333821e+04	5.646824e+03	0	1.967024e-03
5.200000e+08	1.904397e+14	0.000000e+00	5.319149e-01	2.303969e+15	2.730869e+15	4.179797e+14	1.948793e+04	1.333927e+04	5.647270e+03	0	1.946460e-03
5.300000e+08	1.846002e+14	0.000000e+00	5.319149e-01	2.248967e+15	2.730639e+15	4.158984e+14	1.940719e+04	1.333906e+04	5.647183e+03	0	1.926358e-03
5.400000e+08	1.790070e+14	0.000000e+00	5.319149e-01	2.196239e+15	2.729098e+15	4.138320e+14	1.932837e+04	1.333767e+04	5.646594e+03	0	1.906702e-03
5.500000e+08	1.736466e+14	0.000000e+00	5.319149e-01	2.145662e+15	2.726330e+15	4.117803e+14	1.925138e+04	1.333517e+04	5.645536e+03	0	1.887477e-03
5.600000e+08	1.685065e+14	0.000000e+00	5.319149e-01	2.097121e+15	2.722415e+15	4.097431e+14	1.917615e+04	1.333164e+04	5.644039e+03	0	1.868666e-03
5.700000e+08	1.635749e+14	0.000000e+00	5.319149e-01	2.050508e+15	2.717432e+15	4.077205e+14	1.910261e+04	1.332713e+04	5.642131e+03	0	1.850256e-03
5.800000e+08	1.588408e+14	0.000000e+00	5.319149e-01	2.005722e+15	2.711453e+15	4.057122e+14	1.903070e+04	1.332171e+04	5.639839e+03	0	1.832231e-03
5.900000e+08	1.542938e+14	0.000000e+00	5.319149e-01	1.962667e+15	2.704549e+15	4.037181e+14	1.896035e+04	1.331545e+04	5.637186e+03	0	1.814578e-03
6.000000e+08	1.499241e+14	0.000000e+00	5.319149e-01	1.921254e+15	2.696784e+15	4.017381e+14	1.889150e+04	1.330839e+04	5.634198e+03	0	1.797284e-03
6.100000e+08	1.457227e+14	0.000000e+00	5.319149e-01	1.881399e+15	2.688223e+15	3.997721e+14	1.882409e+04	1.330059e+04	5.630896e+03	0	1.780336e-03
6.200000e+08	1.416809e+14	0.000000e+00	5.319149e-01	1.843022e+15	2.678923e+15	3.978201e+14	1.875807e+04	1.329210e+04	5.627301e+03	0	1.763721e-03
6.300000e+08	1.377907e+14	0.000000e+00	5.319149e-01	1.806051e+15	2.668943e+15	3.958818e+14	1.869339e+04	1.328296e+04	5.623432e+03	0	1.747429e-03
6.400000e+08	1.340444e+14	0.000000e+00	5.319149e-01	1.770413e+15	2.658335e+15	3.939571e+14	1.863000e+04	1.327322e+04	5.619308e+03	0	1.731447e-03
6.500000e+08	1.304350e+14	0.000000e+00	5.319149e-01	1.736045e+15	2.647148e+15	3.920461e+14	1.856786e+04	1.326292e+04	5.614947e+03	0	1.715764e-03
6.600000e+08	1.269556e+14	0.000000e+00	5.319149e-01	1.702885e+15	2.635430e+15	3.901485e+14	1.850691e+04	1.325209e+04	5.610364e+03	0	1.700370e-03
6.700000e+08	1.236000e+14	0.000000e+00	5.319149e-01	1.670873e+15	2.623226e+15	3.882642e+14	1.844712e+04	1.324078e+04	5.605575e+03	0	1.685255e-03
6.800000e+08	1.203622e+14	0.000000e+00	5.319149e-01	1.639955e+15	2.610580e+15	3.863931e+14	1.838845e+04	1.322902e+04	5.600596e+03	0	1.670409e-03
6.900000e+08	1.172366e+14	0.000000e+00	5.319149e-01	1.610080e+15	2.597526e+15	3.845352e+14	1.833086e+04	1.321684e+04	5.595438e+03	0	1.655823e-03
7.000000e+08	1.142179e+14	0.000000e+00	5.319149e-01	1.581198e+15	2.584106e+15	3.826903e+14	1.827431e+04	1.320427e+04	5.590116e+03	0	1.641487e-03
7.100000e+08	1.113010e+14	0.000000e+00	5.319149e-01	1.553263e+15	2.570353e+15	3.808583e+14	1.821877e+04	1.319133e+04	5.584641e+03	0	1.627394e-03
7.200000e+08	1.084814e+14	0.000000e+00	5.319149e-01	1.526233e+15	2.556300e+15	3.790392e+14	1.816421e+04	1.317807e+04	5.579025e+03	0	1.613533e-03
7.300000e+08	1.057544e+14	0.000000e+00	5.319149e-01	1.500066e+15	2.541978e+15	3.772327e+14	1.811058e+04	1.316449e+04	5.573278e+03	0	1.599898e-03
7.400000e+08	1.031160e+14	0.000000e+00	5.319149e-01	1.474724e+15	2.527416e+15	3.754389e+14	1.805788e+04	1.315063e+04	5.567411e+03	0	1.586481e-03
7.500000e+08	1.005621e+14	0.000000e+00	5.319149e-01	1.450169e+15	2.512639e+15	3.736575e+14	1.800606e+04	1.313651e+04	5.561432e+03	0	1.573274e-03
7.600000e+08	9.808904e+13	0.000000e+00	5.319149e-01	1.426367e+15	2.497675e+15	3.718886e+14	1.795510e+04	1.312215e+04	5.555352e+03	0	1.560270e-03
7.700000e+08	9.569320e+13	0.000000e+00	5.319149e-01	1.403286e+15	2.482546e+15	3.701320e+14	1.790496e+04	1.310757e+04	5.549177e+03	0	1.547462e-03
7.800000e+08	9.337125e+13	0.000000e+00	5.319149e-01	1.380894e+15	2.467275e+15	3.683876e+14	1.785564e+04	1.309278e+04	5.542917e+03	0	1.534843e-03
7.900000e+08	9.112001e+13	0.000000e+00	5.319149e-01	1.359163e+15	2.451881e+15	3.666553e+14	1.780710e+04	1.307781e+04	5.536578e+03	0	1.522407e-03
8.000000e+08	8.893646e+13	0.000000e+00	5.319149e-01	1.338063e+15	2.436385e+15	3.649350e+14	1.775932e+04	1.306267e+04	5.530168e+03	0	1.510148e-03
8.100000e+08	8.681776e+13	0.000000e+00	5.319149e-01	1.317570e+15	2.420804e+15	3.632266e+14	1.771228e+04	1.304737e+04	5.523694e+03	0	1.498060e-03
8.200000e+08	8.476120e+13	0.000000e+00	5.319149e-01	1.297658e+15	2.405155e+15	3.615301e+14	1.766595e+04	1.303194e+04	5.517160e+03	0	1.486136e-03
8.300000e+08	8.276421e+13	0.000000e+00	5.319149e-01	1.278302e+15	2.389454e+15	3.598453e+14	1.762032e+04	1.301638e+04	5.510574e+03	0	1.474372e-03
8.400000e+08	8.082438e+13	0.000000e+00	5.319149e-01	1.259482e+15	2.373716e+15	3.581721e+14	1.757537e+04	1.300071e+04	5.503940e+03	0	1.462762e-03
8.500000e+08	7.893937e+13	0.000000e+00	5.319149e-01	1.241175e+15	2.357952e+15	3.565105e+14	1.753107e+04	1.298494e+04	5.497264e+03	0	1.451301e-03
8.600000e+08	7.710701e+13	0.000000e+00	5.319149e-01	1.223362e+15	2.342177e+15	3.548603e+14	1.748742e+04	1.296909e+04	5.490550e+03	0	1.439983e-03
8.700000e+08	7.532522e+13	0.000000e+00	5.319149e-01	1.206022e+15	2.326402e+15	3.532215e+14	1.744439e+04	1.295315e+04	5.483804e+03	0	1.428805e-03
8.800000e+08	7.359201e+13	0.000000e+00	5.319149e-01	1.189138e+15	2.310638e+15	3.515940e+14	1.740196e+04	1.293715e+04	5.477030e+03	0	1.417761e-03
8.900000e+08	7.190550e+13	0.000000e+00	5.319149e-01	1.172693e+15	2.294896e+15	3.499776e+14	1.736013e+04	1.292109e+04	5.470230e+03	0	1.406847e-03
9.000000e+08	7.026390e+13	0.000000e+00	5.319149e-01	1.156668e+15	2.279182e+15	3.483723e+14	1.731887e+04	1.290498e+04	5.463410e+03	0	1.396059e-03
9.100000e+08	6.866551e+13	0.000000e+00	5.319149e-01	1.141050e+15	2.263508e+15	3.467781e+14	1.727817e+04	1.288883e+04	5.456573e+03	0	1.385391e-03
9.200000e+08	6.710871e+13	0.000000e+00	5.319149e-01	1.125823e+15	2.247881e+15	3.451947e+14	1.723802e+04	1.287265e+04	5.449722e+03	0	1.374841e-03
9.300000e+08	6.559195e+13	0.000000e+00	5.319149e-01	1.110972e+15	2.232308e+15	3.436222e+14	1.719841e+04	1.285644e+04	5.442860e+03	0	1.364404e-03
9.400000e+08	6.411376e+13	0.000000e+00	5.319149e-01	1.096484e+15	2.216795e+15	3.420605e+14	1.715931e+04	1.284021e+04	5.435990e+03	0	1.354077e-03
9.500000e+08	6.267274e+13	0.000000e+00	5.319149e-01	1.082346e+15	2.201349e+15	3.405093e+14	1.712072e+04	1.282397e+04	5.429116e+03	0	1.343855e-03
9.600000e+08	6.126756e+13	0.000000e+00	5.319149e-01	1.068546e+15	2.185977e+15	3.389688e+14	1.708263e+04	1.280773e+04	5.422239e+03	0	1.333736e-03
9.700000e+08	5.989692e+13	0.000000e+00	5.319149e-01	1.055071e+15	2.170682e+15	3.374388e+14	1.704502e+04	1.279148e+04	5.415361e+03	0	1.323715e-03
9.800000e+08	5.855962e+13	0.000000e+00	5.319149e-01	1.041910e+15	2.155470e+15	3.359192e+14	1.700788e+04	1.277524e+04	5.408487e+03	0	1.313789e-03
9.900000e+08	5.725449e+13	0.000000e+00	5.319149e-01	1.029053e+15	2.140346e+15	3.344099e+14	1.697120e+04	1.275902e+04	5.401616e+03	0	1.303955e-03
1.000000e+09	5.598043e+13	0.000000e+00	5.319149e-01	1.016489e+15	2.125312e+15	3.329108e+14	1.693497e+04	1.274280e+04	5.394752e+03	0	1.294211e-03
1.010000e+09	5.473636e+13	0.000000e+00	5.319149e-01	1.004209e+15	2.110373e+15	3.314219e+14	1.689919e+04	1.272661e+04	5.387896e+03	0	1.284551e-03
1.020000e+09	5.352127e+13	0.000000e+00	5.319149e-01	9.922020e+14	2.095533e+15	3.299431e+14	1.686383e+04	1.271044e+04	5.381050e+03	0	1.274975e-03
1.030000e+09	5.233419e+13	0.000000e+00	5.319149e-01	9.804602e+14	2.080793e+15	3.284743e+14	1.682889e+04	1.269429e+04	5.374216e+03	0	1.265478e-03
1.040000e+09	5.117420e+13	0.000000e+00	5.319149e-01	9.689746e+14	2.066157e+15	3.270155e+14	1.679437e+04	1.267818e+04	5.367395e+03	0	1.256059e-03
1.050000e+09	5.004040e+13	0.000000e+00	5.319149e-01	9.577370e+14	2.051627e+15	3.255665e+14	1.676025e+04	1.266211e+04	5.360589e+03	0	1.246713e-03
1.060000e+09	4.893194e+13	0.000000e+00	5.319149e-01	9.467393e+14	2.037205e+15	3.241272e+14	1.672652e+04	1.264607e+04	5.353799e+03	0	1.237439e-03
1.070000e+09	4.784800e+13	0.000000e+00	5.319149e-01	9.359740e+14	2.022894e+15	3.226977e+14	1.669318e+04	1.263007e+04	5.347025e+03	0	1.228233e-03
1.080000e+09	4.678781e+13	0.000000e+00	5.319149e-01	9.254339e+14	2.008694e+15	3.212777e+14	1.666021e+04	1.261411e+04	5.340271e+03	0	1.219094e-03
1.090000e+09	4.575061e+13	0.000000e+00	5.319149e-01	9.151119e+14	1.994609e+15	3.198674e+14	1.662762e+04	1.259820e+04	5.333536e+03	0	1.210018e-03
1.100000e+09	4.473568e+13	0.000000e+00	5.319149e-01	9.050013e+14	1.980637e+15	3.184665e+14	1.659538e+04	1.258234e+04	5.326821e+03	0	1.201003e-03
1.110000e+09	4.374234e+13	0.000000e+00	5.319149e-01	8.950958e+14	1.966780e+15	3.170749e+14	1.656350e+04	1.256653e+04	5.320128e+03	0	1.192047e-03
1.120000e+09	4.276992e+13	0.000000e+00	5.319149e-01	8.853890e+14	1.953041e+15	3.156927e+14	1.653197e+04	1.255078e+04	5.313457e+03	0	1.183148e-03
1.130000e+09	4.181779e+13	0.000000e+00	5.319149e-01	8.758752e+14	1.939419e+15	3.143198e+14	1.650078e+04	1.253507e+04	5.306809e+03	0	1.174302e-03
1.140000e+09	4.088534e+13	0.000000e+00	5.319149e-01	8.665486e+14	1.925914e+15	3.129560e+14	1.646992e+04	1.251943e+04	5.300185e+03	0	1.165508e-03
1.150000e+09	3.997198e+13	0.000000e+00	5.319149e-01	8.574037e+14	1.912528e+15	3.116014e+14	1.643939e+04	1.250384e+04	5.293586e+03	0	1.156764e-03
1.160000e+09	3.907714e+13	0.000000e+00	5.319149e-01	8.484353e+14	1.899261e+15	3.102558e+14	1.640918e+04	1.248831e+04	5.287012e+03	0	1.148067e-03
1.170000e+09	3.820029e+13	0.000000e+00	5.319149e-01	8.396382e+14	1.886112e+15	3.089191e+14	1.637929e+04	1.247285e+04	5.280464e+03	0	1.139415e-03
1.180000e+09	3.734091e+13	0.000000e+00	5.319149e-01	8.310077e+14	1.873082e+15	3.075913e+14	1.634970e+04	1.245744e+04	5.273942e+03	0	1.130805e-03
1.190000e+09	3.649849e+13	0.000000e+00	5.319149e-01	8.225391e+14	1.860171e+15	3.062724e+14	1.632042e+04	1.244210e+04	5.267447e+03	0	1.122237e-03
1.200000e+09	3.567254e+13	0.000000e+00	5.319149e-01	8.142278e+14	1.847379e+15	3.049622e+14	1.629143e+04	1.242682e+04	5.260980e+03	0	1.113707e-03
1.210000e+09	3.486262e+13	0.000000e+00	5.319149e-01	8.060694e+14	1.834706e+15	3.036607e+14	1.626274e+04	1.241161e+04	5.254540e+03	0	1.105214e-03
1.220000e+09	3.406826e+13	0.000000e+00	5.319149e-01	7.980599e+14	1.822151e+15	3.023678e+14	1.623433e+04	1.239647e+04	5.248128e+03	0	1.096755e-03
1.230000e+09	3.328905e+13	0.000000e+00	5.319149e-01	7.901951e+14	1.809715e+15	3.010835e+14	1.620620e+04	1.238139e+04	5.241745e+03	0	1.088328e-03
1.240000e+09	3.252455e+13	0.000000e+00	5.319149e-01	7.824712e+14	1.797396e+15	2.998077e+14	1.617835e+04	1.236638e+04	5.235391e+03	0	1.079933e-03
1.250000e+09	3.177438e+13	0.000000e+00	5.319149e-01	7.748844e+14	1.785195e+15	2.985403e+14	1.615077e+04	1.235144e+04	5.229066e+03	0	1.071565e-03
1.260000e+09	3.103815e+13	0.000000e+00	5.319149e-01	7.674311e+14	1.773110e+15	2.972812e+14	1.612346e+04	1.233657e+04	5.222770e+03	0	1.063224e-03
1.270000e+09	3.031548e+13	0.000000e+00	5.319149e-01	7.601078e+14	1.761141e+15	2.960305e+14	1.609640e+04	1.232177e+04	5.216503e+03	0	1.054907e-03
1.280000e+09	2.960601e+13	0.000000e+00	5.319149e-01	7.529112e+14	1.749288e+15	2.947880e+14	1.606961e+04	1.230703e+04	5.210267e+03	0	1.046613e-03
1.290000e+09	2.890940e+13	0.000000e+00	5.319149e-01	7.458379e+14	1.737550e+15	2.935536e+14	1.604306e+04	1.229237e+04	5.204060e+03	0	1.038339e-03
1.300000e+09	2.822532e+13	0.000000e+00	5.319149e-01	7.388849e+14	1.725925e+15	2.923273e+14	1.601677e+04	1.227779e+04	5.197884e+03	0	1.030084e-03
1.310000e+09	2.755344e+13	0.000000e+00	5.319149e-01	7.320491e+14	1.714414e+15	2.911091e+14	1.599072e+04	1.226327e+04	5.191738e+03	0	1.021845e-03
1.320000e+09	2.689345e+13	0.000000e+00	5.319149e-01	7.253275e+14	1.703015e+15	2.898989e+14	1.596491e+04	1.224882e+04	5.185622e+03	0	1.013620e-03
1.330000e+09	2.624504e+13	0.000000e+00	5.319149e-01	7.187174e+14	1.691728e+15	2.886965e+14	1.593934e+04	1.223445e+04	5.179536e+03	0	1.005407e-03
1.340000e+09	2.560793e+13	0.000000e+00	5.319149e-01	7.122160e+14	1.680553e+15	2.875021e+14	1.591399e+04	1.222014e+04	5.173481e+03	0	9.972049e-04
1.350000e+09	2.498184e+13	0.000000e+00	5.319149e-01	7.058206e+14	1.669487e+15	2.863154e+14	1.588888e+04	1.220591e+04	5.167457e+03	0	9.890107e-04
1.360000e+09	2.436648e+13	0.000000e+00	5.319149e-01	6.995287e+14	1.658530e+15	2.851365e+14	1.586399e+04	1.219176e+04	5.161463e+03	0	9.808227e-04
