#t		Qconv[W]	Ri[Rp]		R*[Rp]		Qc[W]		Qm[W]		Qr[W]		Tcmb[K]		Tl[K]		Tup[K]		RiFlag		Bs[T]
0.000000e+00	5.098267e+12	0.000000e+00	6.783920e-01	9.835616e+13	2.526168e+15	2.320548e+14	7.428547e+03	4.616788e+03	2.342572e+03	0	5.071881e-04
1.000000e+07	4.995946e+12	0.000000e+00	6.783920e-01	9.729283e+13	2.268942e+15	2.307690e+14	7.425928e+03	4.521857e+03	2.294404e+03	0	5.037721e-04
2.000000e+07	4.884492e+12	0.000000e+00	6.783920e-01	9.613622e+13	2.054933e+15	2.294929e+14	7.423338e+03	4.437609e+03	2.251657e+03	0	4.999976e-04
3.000000e+07	4.769069e+12	0.000000e+00	6.783920e-01	9.493919e+13	1.874784e+15	2.282263e+14	7.420778e+03	4.362282e+03	2.213435e+03	0	4.960278e-04
4.000000e+07	4.652939e+12	0.000000e+00	6.783920e-01	9.373511e+13	1.721548e+15	2.269691e+14	7.418250e+03	4.294485e+03	2.179035e+03	0	4.919685e-04
5.000000e+07	4.538146e+12	0.000000e+00	6.783920e-01	9.254493e+13	1.589977e+15	2.257214e+14	7.415755e+03	4.233109e+03	2.147892e+03	0	4.878890e-04
6.000000e+07	4.425956e+12	0.000000e+00	6.783920e-01	9.138156e+13	1.476055e+15	2.244829e+14	7.413291e+03	4.177254e+03	2.119552e+03	0	4.838349e-04
7.000000e+07	4.317121e+12	0.000000e+00	6.783920e-01	9.025273e+13	1.376661e+15	2.232537e+14	7.410857e+03	4.126186e+03	2.093639e+03	0	4.798361e-04
8.000000e+07	4.212060e+12	0.000000e+00	6.783920e-01	8.916270e+13	1.289342e+15	2.220336e+14	7.408454e+03	4.079296e+03	2.069847e+03	0	4.759116e-04
9.000000e+07	4.110972e+12	0.000000e+00	6.783920e-01	8.811351e+13	1.212149e+15	2.208225e+14	7.406080e+03	4.036078e+03	2.047919e+03	0	4.720735e-04
1.000000e+08	4.013912e+12	0.000000e+00	6.783920e-01	8.710571e+13	1.143516e+15	2.196205e+14	7.403734e+03	3.996107e+03	2.027637e+03	0	4.683287e-04
1.100000e+08	3.920843e+12	0.000000e+00	6.783920e-01	8.613892e+13	1.082170e+15	2.184274e+14	7.401414e+03	3.959019e+03	2.008819e+03	0	4.646807e-04
1.200000e+08	3.831666e+12	0.000000e+00	6.783920e-01	8.521212e+13	1.027075e+15	2.172431e+14	7.399121e+03	3.924508e+03	1.991307e+03	0	4.611307e-04
1.300000e+08	3.746248e+12	0.000000e+00	6.783920e-01	8.432392e+13	9.773707e+14	2.160676e+14	7.396852e+03	3.892308e+03	1.974969e+03	0	4.576783e-04
1.400000e+08	3.664431e+12	0.000000e+00	6.783920e-01	8.347274e+13	9.323458e+14	2.149008e+14	7.394606e+03	3.862190e+03	1.959687e+03	0	4.543219e-04
1.500000e+08	3.586051e+12	0.000000e+00	6.783920e-01	8.265685e+13	8.914032e+14	2.137426e+14	7.392384e+03	3.833955e+03	1.945361e+03	0	4.510593e-04
1.600000e+08	3.510936e+12	0.000000e+00	6.783920e-01	8.187452e+13	8.540403e+14	2.125930e+14	7.390182e+03	3.807429e+03	1.931901e+03	0	4.478877e-04
1.700000e+08	3.438918e+12	0.000000e+00	6.783920e-01	8.112400e+13	8.198311e+14	2.114518e+14	7.388002e+03	3.782459e+03	1.919232e+03	0	4.448041e-04
1.800000e+08	3.369831e+12	0.000000e+00	6.783920e-01	8.040360e+13	7.884123e+14	2.103191e+14	7.385842e+03	3.758911e+03	1.907283e+03	0	4.418052e-04
1.900000e+08	3.303515e+12	0.000000e+00	6.783920e-01	7.971168e+13	7.594726e+14	2.091947e+14	7.383701e+03	3.736666e+03	1.895996e+03	0	4.388879e-04
2.000000e+08	3.239818e+12	0.000000e+00	6.783920e-01	7.904667e+13	7.327438e+14	2.080786e+14	7.381578e+03	3.715617e+03	1.885315e+03	0	4.360487e-04
2.100000e+08	3.178594e+12	0.000000e+00	6.783920e-01	7.840709e+13	7.079939e+14	2.069707e+14	7.379473e+03	3.695669e+03	1.875194e+03	0	4.332845e-04
2.200000e+08	3.119708e+12	0.000000e+00	6.783920e-01	7.779152e+13	6.850212e+14	2.058709e+14	7.377385e+03	3.676738e+03	1.865588e+03	0	4.305922e-04
2.300000e+08	3.063029e+12	0.000000e+00	6.783920e-01	7.719865e+13	6.636497e+14	2.047792e+14	7.375314e+03	3.658748e+03	1.856460e+03	0	4.279685e-04
2.400000e+08	3.008436e+12	0.000000e+00	6.783920e-01	7.662722e+13	6.437249e+14	2.036955e+14	7.373258e+03	3.641630e+03	1.847774e+03	0	4.254107e-04
2.500000e+08	2.955814e+12	0.000000e+00	6.783920e-01	7.607605e+13	6.251113e+14	2.026198e+14	7.371217e+03	3.625322e+03	1.839500e+03	0	4.229157e-04
2.600000e+08	2.905057e+12	0.000000e+00	6.783920e-01	7.554406e+13	6.076891e+14	2.015519e+14	7.369191e+03	3.609768e+03	1.831607e+03	0	4.204810e-04
2.700000e+08	2.856064e+12	0.000000e+00	6.783920e-01	7.503021e+13	5.913522e+14	2.004918e+14	7.367179e+03	3.594916e+03	1.824072e+03	0	4.181038e-04
2.800000e+08	2.808741e+12	0.000000e+00	6.783920e-01	7.453353e+13	5.760062e+14	1.994395e+14	7.365181e+03	3.580721e+03	1.816869e+03	0	4.157817e-04
2.900000e+08	2.762999e+12	0.000000e+00	6.783920e-01	7.405312e+13	5.615674e+14	1.983948e+14	7.363196e+03	3.567140e+03	1.809978e+03	0	4.135123e-04
3.000000e+08	2.718758e+12	0.000000e+00	6.783920e-01	7.358813e+13	5.479606e+14	1.973578e+14	7.361224e+03	3.554133e+03	1.803378e+03	0	4.112933e-04
3.100000e+08	2.675938e+12	0.000000e+00	6.783920e-01	7.313777e+13	5.351185e+14	1.963283e+14	7.359264e+03	3.541665e+03	1.797052e+03	0	4.091226e-04
3.200000e+08	2.634468e+12	0.000000e+00	6.783920e-01	7.270130e+13	5.229808e+14	1.953063e+14	7.357317e+03	3.529704e+03	1.790983e+03	0	4.069982e-04
3.300000e+08	2.594279e+12	0.000000e+00	6.783920e-01	7.227801e+13	5.114930e+14	1.942917e+14	7.355381e+03	3.518220e+03	1.785155e+03	0	4.049180e-04
3.400000e+08	2.555308e+12	0.000000e+00	6.783920e-01	7.186725e+13	5.006061e+14	1.932845e+14	7.353456e+03	3.507183e+03	1.779556e+03	0	4.028802e-04
3.500000e+08	2.517495e+12	0.000000e+00	6.783920e-01	7.146842e+13	4.902754e+14	1.922847e+14	7.351542e+03	3.496570e+03	1.774170e+03	0	4.008830e-04
3.600000e+08	2.480784e+12	0.000000e+00	6.783920e-01	7.108092e+13	4.804609e+14	1.912920e+14	7.349638e+03	3.486355e+03	1.768987e+03	0	3.989249e-04
3.700000e+08	2.445121e+12	0.000000e+00	6.783920e-01	7.070422e+13	4.711257e+14	1.903066e+14	7.347745e+03	3.476518e+03	1.763996e+03	0	3.970041e-04
3.800000e+08	2.410459e+12	0.000000e+00	6.783920e-01	7.033781e+13	4.622366e+14	1.893283e+14	7.345862e+03	3.467037e+03	1.759185e+03	0	3.951191e-04
3.900000e+08	2.376749e+12	0.000000e+00	6.783920e-01	6.998121e+13	4.537631e+14	1.883570e+14	7.343989e+03	3.457894e+03	1.754546e+03	0	3.932686e-04
4.000000e+08	2.343947e+12	0.000000e+00	6.783920e-01	6.963396e+13	4.456775e+14	1.873928e+14	7.342125e+03	3.449070e+03	1.750069e+03	0	3.914510e-04
4.100000e+08	2.312013e+12	0.000000e+00	6.783920e-01	6.929565e+13	4.379542e+14	1.864355e+14	7.340271e+03	3.440550e+03	1.745746e+03	0	3.896652e-04
4.200000e+08	2.280908e+12	0.000000e+00	6.783920e-01	6.896588e+13	4.305699e+14	1.854851e+14	7.338425e+03	3.432317e+03	1.741568e+03	0	3.879098e-04
4.300000e+08	2.250594e+12	0.000000e+00	6.783920e-01	6.864425e+13	4.235032e+14	1.845416e+14	7.336589e+03	3.424359e+03	1.737530e+03	0	3.861836e-04
4.400000e+08	2.221036e+12	0.000000e+00	6.783920e-01	6.833043e+13	4.167343e+14	1.836048e+14	7.334760e+03	3.416660e+03	1.733624e+03	0	3.844856e-04
4.500000e+08	2.192203e+12	0.000000e+00	6.783920e-01	6.802407e+13	4.102450e+14	1.826748e+14	7.332941e+03	3.409209e+03	1.729843e+03	0	3.828145e-04
4.600000e+08	2.164063e+12	0.000000e+00	6.783920e-01	6.772485e+13	4.040186e+14	1.817515e+14	7.331129e+03	3.401993e+03	1.726182e+03	0	3.811695e-04
4.700000e+08	2.136587e+12	0.000000e+00	6.783920e-01	6.743247e+13	3.980396e+14	1.808348e+14	7.329325e+03	3.395002e+03	1.722635e+03	0	3.795494e-04
4.800000e+08	2.109747e+12	0.000000e+00	6.783920e-01	6.714665e+13	3.922935e+14	1.799246e+14	7.327529e+03	3.388226e+03	1.719196e+03	0	3.779534e-04
4.900000e+08	2.083516e+12	0.000000e+00	6.783920e-01	6.686711e+13	3.867671e+14	1.790210e+14	7.325741e+03	3.381653e+03	1.715861e+03	0	3.763805e-04
5.000000e+08	2.057871e+12	0.000000e+00	6.783920e-01	6.659361e+13	3.814481e+14	1.781238e+14	7.323960e+03	3.375276e+03	1.712625e+03	0	3.748299e-04
5.100000e+08	2.032786e+12	0.000000e+00	6.783920e-01	6.632590e+13	3.763250e+14	1.772331e+14	7.322187e+03	3.369085e+03	1.709484e+03	0	3.733006e-04
5.200000e+08	2.008241e+12	0.000000e+00	6.783920e-01	6.606374e+13	3.713871e+14	1.763487e+14	7.320420e+03	3.363072e+03	1.706433e+03	0	3.717921e-04
5.300000e+08	1.984214e+12	0.000000e+00	6.783920e-01	6.580693e+13	3.666245e+14	1.754706e+14	7.318661e+03	3.357230e+03	1.703469e+03	0	3.703034e-04
5.400000e+08	1.960684e+12	0.000000e+00	6.783920e-01	6.555526e+13	3.620280e+14	1.745987e+14	7.316908e+03	3.351551e+03	1.700587e+03	0	3.688338e-04
5.500000e+08	1.937633e+12	0.000000e+00	6.783920e-01	6.530852e+13	3.575890e+14	1.737331e+14	7.315162e+03	3.346028e+03	1.697785e+03	0	3.673827e-04
5.600000e+08	1.915042e+12	0.000000e+00	6.783920e-01	6.506653e+13	3.532993e+14	1.728736e+14	7.313423e+03	3.340655e+03	1.695058e+03	0	3.659493e-04
5.700000e+08	1.892894e+12	0.000000e+00	6.783920e-01	6.482912e+13	3.491514e+14	1.720202e+14	7.311690e+03	3.335425e+03	1.692405e+03	0	3.645331e-04
5.800000e+08	1.871173e+12	0.000000e+00	6.783920e-01	6.459611e+13	3.451384e+14	1.711729e+14	7.309963e+03	3.330333e+03	1.689821e+03	0	3.631333e-04
5.900000e+08	1.849862e+12	0.000000e+00	6.783920e-01	6.436735e+13	3.412534e+14	1.703316e+14	7.308243e+03	3.325373e+03	1.687304e+03	0	3.617495e-04
6.000000e+08	1.828948e+12	0.000000e+00	6.783920e-01	6.414267e+13	3.374905e+14	1.694962e+14	7.306528e+03	3.320539e+03	1.684852e+03	0	3.603811e-04
6.100000e+08	1.808415e+12	0.000000e+00	6.783920e-01	6.392194e+13	3.338437e+14	1.686668e+14	7.304820e+03	3.315828e+03	1.682461e+03	0	3.590274e-04
6.200000e+08	1.788251e+12	0.000000e+00	6.783920e-01	6.370501e+13	3.303076e+14	1.678432e+14	7.303117e+03	3.311233e+03	1.680130e+03	0	3.576880e-04
6.300000e+08	1.768442e+12	0.000000e+00	6.783920e-01	6.349175e+13	3.268770e+14	1.670254e+14	7.301421e+03	3.306751e+03	1.677856e+03	0	3.563623e-04
6.400000e+08	1.748975e+12	0.000000e+00	6.783920e-01	6.328204e+13	3.235472e+14	1.662134e+14	7.299730e+03	3.302377e+03	1.675636e+03	0	3.550499e-04
6.500000e+08	1.729840e+12	0.000000e+00	6.783920e-01	6.307575e+13	3.203135e+14	1.654071e+14	7.298044e+03	3.298108e+03	1.673470e+03	0	3.537503e-04
6.600000e+08	1.711025e+12	0.000000e+00	6.783920e-01	6.287277e+13	3.171717e+14	1.646065e+14	7.296364e+03	3.293938e+03	1.671354e+03	0	3.524630e-04
6.700000e+08	1.692518e+12	0.000000e+00	6.783920e-01	6.267298e+13	3.141177e+14	1.638115e+14	7.294690e+03	3.289865e+03	1.669288e+03	0	3.511877e-04
6.800000e+08	1.674311e+12	0.000000e+00	6.783920e-01	6.247629e+13	3.111477e+14	1.630221e+14	7.293020e+03	3.285884e+03	1.667268e+03	0	3.499238e-04
6.900000e+08	1.656392e+12	0.000000e+00	6.783920e-01	6.228258e+13	3.082581e+14	1.622382e+14	7.291356e+03	3.281994e+03	1.665294e+03	0	3.486711e-04
7.000000e+08	1.638753e+12	0.000000e+00	6.783920e-01	6.209177e+13	3.054455e+14	1.614598e+14	7.289698e+03	3.278189e+03	1.663363e+03	0	3.474290e-04
7.100000e+08	1.621385e+12	0.000000e+00	6.783920e-01	6.190376e+13	3.027066e+14	1.606869e+14	7.288044e+03	3.274468e+03	1.661475e+03	0	3.461972e-04
7.200000e+08	1.604278e+12	0.000000e+00	6.783920e-01	6.171846e+13	3.000384e+14	1.599194e+14	7.286395e+03	3.270827e+03	1.659628e+03	0	3.449753e-04
7.300000e+08	1.587425e+12	0.000000e+00	6.783920e-01	6.153578e+13	2.974381e+14	1.591572e+14	7.284751e+03	3.267263e+03	1.657819e+03	0	3.437631e-04
7.400000e+08	1.570818e+12	0.000000e+00	6.783920e-01	6.135565e+13	2.949028e+14	1.584004e+14	7.283112e+03	3.263774e+03	1.656049e+03	0	3.425601e-04
7.500000e+08	1.554449e+12	0.000000e+00	6.783920e-01	6.117798e+13	2.924300e+14	1.576488e+14	7.281478e+03	3.260358e+03	1.654315e+03	0	3.413660e-04
7.600000e+08	1.538311e+12	0.000000e+00	6.783920e-01	6.100271e+13	2.900172e+14	1.569025e+14	7.279849e+03	3.257011e+03	1.652617e+03	0	3.401806e-04
7.700000e+08	1.522396e+12	0.000000e+00	6.783920e-01	6.082976e+13	2.876621e+14	1.561614e+14	7.278224e+03	3.253731e+03	1.650953e+03	0	3.390034e-04
7.800000e+08	1.506699e+12	0.000000e+00	6.783920e-01	6.065905e+13	2.853624e+14	1.554254e+14	7.276604e+03	3.250517e+03	1.649322e+03	0	3.378342e-04
7.900000e+08	1.491212e+12	0.000000e+00	6.783920e-01	6.049053e+13	2.831161e+14	1.546945e+14	7.274988e+03	3.247365e+03	1.647723e+03	0	3.366728e-04
8.000000e+08	1.475930e+12	0.000000e+00	6.783920e-01	6.032414e+13	2.809211e+14	1.539687e+14	7.273377e+03	3.244274e+03	1.646155e+03	0	3.355187e-04
8.100000e+08	1.460847e+12	0.000000e+00	6.783920e-01	6.015980e+13	2.787754e+14	1.532480e+14	7.271770e+03	3.241243e+03	1.644616e+03	0	3.343719e-04
8.200000e+08	1.445956e+12	0.000000e+00	6.783920e-01	5.999746e+13	2.766774e+14	1.525322e+14	7.270168e+03	3.238268e+03	1.643107e+03	0	3.332319e-04
8.300000e+08	1.431253e+12	0.000000e+00	6.783920e-01	5.983707e+13	2.746253e+14	1.518213e+14	7.268570e+03	3.235348e+03	1.641626e+03	0	3.320985e-04
8.400000e+08	1.416732e+12	0.000000e+00	6.783920e-01	5.967856e+13	2.726173e+14	1.511154e+14	7.266976e+03	3.232482e+03	1.640171e+03	0	3.309716e-04
8.500000e+08	1.402388e+12	0.000000e+00	6.783920e-01	5.952190e+13	2.706520e+14	1.504144e+14	7.265387e+03	3.229668e+03	1.638743e+03	0	3.298508e-04
8.600000e+08	1.388216e+12	0.000000e+00	6.783920e-01	5.936702e+13	2.687278e+14	1.497181e+14	7.263801e+03	3.226903e+03	1.637341e+03	0	3.287359e-04
8.700000e+08	1.374211e+12	0.000000e+00	6.783920e-01	5.921388e+13	2.668433e+14	1.490267e+14	7.262220e+03	3.224187e+03	1.635963e+03	0	3.276267e-04
8.800000e+08	1.360370e+12	0.000000e+00	6.783920e-01	5.906244e+13	2.649971e+14	1.483400e+14	7.260643e+03	3.221519e+03	1.634608e+03	0	3.265230e-04
8.900000e+08	1.346687e+12	0.000000e+00	6.783920e-01	5.891264e+13	2.631879e+14	1.476581e+14	7.259070e+03	3.218895e+03	1.633277e+03	0	3.254246e-04
9.000000e+08	1.333158e+12	0.000000e+00	6.783920e-01	5.876445e+13	2.614145e+14	1.469808e+14	7.257501e+03	3.216317e+03	1.631969e+03	0	3.243312e-04
9.100000e+08	1.319780e+12	0.000000e+00	6.783920e-01	5.861782e+13	2.596756e+14	1.463082e+14	7.255935e+03	3.213780e+03	1.630682e+03	0	3.232427e-04
9.200000e+08	1.306548e+12	0.000000e+00	6.783920e-01	5.847271e+13	2.579702e+14	1.456402e+14	7.254374e+03	3.211286e+03	1.629416e+03	0	3.221588e-04
9.300000e+08	1.293459e+12	0.000000e+00	6.783920e-01	5.832908e+13	2.562971e+14	1.449767e+14	7.252817e+03	3.208832e+03	1.628171e+03	0	3.210794e-04
9.400000e+08	1.280509e+12	0.000000e+00	6.783920e-01	5.818691e+13	2.546553e+14	1.443178e+14	7.251263e+03	3.206417e+03	1.626946e+03	0	3.200042e-04
9.500000e+08	1.267695e+12	0.000000e+00	6.783920e-01	5.804614e+13	2.530438e+14	1.436634e+14	7.249713e+03	3.204041e+03	1.625740e+03	0	3.189332e-04
9.600000e+08	1.255012e+12	0.000000e+00	6.783920e-01	5.790675e+13	2.514616e+14	1.430134e+14	7.248167e+03	3.201701e+03	1.624553e+03	0	3.178660e-04
9.700000e+08	1.242459e+12	0.000000e+00	6.783920e-01	5.776870e+13	2.499079e+14	1.423679e+14	7.246625e+03	3.199397e+03	1.623384e+03	0	3.168027e-04
9.800000e+08	1.230031e+12	0.000000e+00	6.783920e-01	5.763196e+13	2.483816e+14	1.417267e+14	7.245086e+03	3.197128e+03	1.622233e+03	0	3.157428e-04
9.900000e+08	1.217726e+12	0.000000e+00	6.783920e-01	5.749650e+13	2.468820e+14	1.410899e+14	7.243551e+03	3.194893e+03	1.621099e+03	0	3.146864e-04
1.000000e+09	1.205541e+12	0.000000e+00	6.783920e-01	5.736229e+13	2.454083e+14	1.404575e+14	7.242020e+03	3.192691e+03	1.619981e+03	0	3.136333e-04
1.010000e+09	1.193473e+12	0.000000e+00	6.783920e-01	5.722930e+13	2.439596e+14	1.398293e+14	7.240492e+03	3.190521e+03	1.618880e+03	0	3.125832e-04
1.020000e+09	1.181519e+12	0.000000e+00	6.783920e-01	5.709750e+13	2.425353e+14	1.392054e+14	7.238967e+03	3.188382e+03	1.617795e+03	0	3.115361e-04
1.030000e+09	1.169677e+12	0.000000e+00	6.783920e-01	5.696686e+13	2.411346e+14	1.385857e+14	7.237447e+03	3.186273e+03	1.616725e+03	0	3.104918e-04
1.040000e+09	1.157944e+12	0.000000e+00	6.783920e-01	5.683736e+13	2.397569e+14	1.379702e+14	7.235929e+03	3.184194e+03	1.615670e+03	0	3.094501e-04
1.050000e+09	1.146317e+12	0.000000e+00	6.783920e-01	5.670897e+13	2.384014e+14	1.373588e+14	7.234415e+03	3.182144e+03	1.614630e+03	0	3.084109e-04
1.060000e+09	1.134795e+12	0.000000e+00	6.783920e-01	5.658167e+13	2.370675e+14	1.367516e+14	7.232905e+03	3.180121e+03	1.613603e+03	0	3.073741e-04
1.070000e+09	1.123374e+12	0.000000e+00	6.783920e-01	5.645544e+13	2.357546e+14	1.361485e+14	7.231398e+03	3.178126e+03	1.612591e+03	0	3.063395e-04
1.080000e+09	1.112053e+12	0.000000e+00	6.783920e-01	5.633024e+13	2.344622e+14	1.355494e+14	7.229894e+03	3.176157e+03	1.611592e+03	0	3.053069e-04
1.090000e+09	1.100829e+12	0.000000e+00	6.783920e-01	5.620606e+13	2.331896e+14	1.349544e+14	7.228394e+03	3.174214e+03	1.610606e+03	0	3.042763e-04
1.100000e+09	1.089701e+12	0.000000e+00	6.783920e-01	5.608288e+13	2.319363e+14	1.343633e+14	7.226897e+03	3.172296e+03	1.609633e+03	0	3.032476e-04
1.110000e+09	1.078666e+12	0.000000e+00	6.783920e-01	5.596067e+13	2.307018e+14	1.337762e+14	7.225403e+03	3.170402e+03	1.608672e+03	0	3.022205e-04
1.120000e+09	1.067723e+12	0.000000e+00	6.783920e-01	5.583942e+13	2.294855e+14	1.331931e+14	7.223912e+03	3.168533e+03	1.607723e+03	0	3.011949e-04
1.130000e+09	1.056869e+12	0.000000e+00	6.783920e-01	5.571911e+13	2.282871e+14	1.326138e+14	7.222425e+03	3.166686e+03	1.606786e+03	0	3.001709e-04
1.140000e+09	1.046102e+12	0.000000e+00	6.783920e-01	5.559971e+13	2.271059e+14	1.320384e+14	7.220941e+03	3.164862e+03	1.605861e+03	0	2.991481e-04
1.150000e+09	1.035422e+12	0.000000e+00	6.783920e-01	5.548120e+13	2.259417e+14	1.314669e+14	7.219460e+03	3.163060e+03	1.604947e+03	0	2.981265e-04
1.160000e+09	1.024825e+12	0.000000e+00	6.783920e-01	5.536358e+13	2.247938e+14	1.308992e+14	7.217982e+03	3.161280e+03	1.604043e+03	0	2.971060e-04
1.170000e+09	1.014311e+12	0.000000e+00	6.783920e-01	5.524682e+13	2.236619e+14	1.303352e+14	7.216507e+03	3.159521e+03	1.603151e+03	0	2.960865e-04
1.180000e+09	1.003878e+12	0.000000e+00	6.783920e-01	5.513091e+13	2.225457e+14	1.297750e+14	7.215036e+03	3.157782e+03	1.602268e+03	0	2.950678e-04
1.190000e+09	9.935236e+11	0.000000e+00	6.783920e-01	5.501582e+13	2.214446e+14	1.292185e+14	7.213567e+03	3.156063e+03	1.601396e+03	0	2.940498e-04
1.200000e+09	9.832471e+11	0.000000e+00	6.783920e-01	5.490155e+13	2.203583e+14	1.286658e+14	7.212102e+03	3.154364e+03	1.600534e+03	0	2.930324e-04
1.210000e+09	9.730467e+11	0.000000e+00	6.783920e-01	5.478808e+13	2.192865e+14	1.281167e+14	7.210640e+03	3.152683e+03	1.599681e+03	0	2.920156e-04
1.220000e+09	9.629210e+11	0.000000e+00	6.783920e-01	5.467539e+13	2.182288e+14	1.275712e+14	7.209180e+03	3.151022e+03	1.598838e+03	0	2.909991e-04
1.230000e+09	9.528687e+11	0.000000e+00	6.783920e-01	5.456347e+13	2.171849e+14	1.270293e+14	7.207724e+03	3.149378e+03	1.598004e+03	0	2.899830e-04
1.240000e+09	9.428883e+11	0.000000e+00	6.783920e-01	5.445231e+13	2.161544e+14	1.264910e+14	7.206271e+03	3.147752e+03	1.597179e+03	0	2.889670e-04
1.250000e+09	9.329785e+11	0.000000e+00	6.783920e-01	5.434188e+13	2.151369e+14	1.259563e+14	7.204820e+03	3.146143e+03	1.596363e+03	0	2.879511e-04
1.260000e+09	9.231381e+11	0.000000e+00	6.783920e-01	5.423219e+13	2.141323e+14	1.254251e+14	7.203373e+03	3.144552e+03	1.595555e+03	0	2.869351e-04
1.270000e+09	9.133657e+11	0.000000e+00	6.783920e-01	5.412321e+13	2.131402e+14	1.248974e+14	7.201928e+03	3.142977e+03	1.594756e+03	0	2.859190e-04
1.280000e+09	9.036603e+11	0.000000e+00	6.783920e-01	5.401493e+13	2.121603e+14	1.243732e+14	7.200487e+03	3.141418e+03	1.593965e+03	0	2.849027e-04
1.290000e+09	8.940205e+11	0.000000e+00	6.783920e-01	5.390734e+13	2.111923e+14	1.238524e+14	7.199048e+03	3.139874e+03	1.593182e+03	0	2.838860e-04
1.300000e+09	8.844453e+11	0.000000e+00	6.783920e-01	5.380043e+13	2.102359e+14	1.233350e+14	7.197612e+03	3.138347e+03	1.592407e+03	0	2.828689e-04
1.310000e+09	8.749335e+11	0.000000e+00	6.783920e-01	5.369419e+13	2.092910e+14	1.228210e+14	7.196179e+03	3.136834e+03	1.591639e+03	0	2.818512e-04
1.320000e+09	8.654841e+11	0.000000e+00	6.783920e-01	5.358860e+13	2.083572e+14	1.223104e+14	7.194749e+03	3.135336e+03	1.590879e+03	0	2.808328e-04
1.330000e+09	8.560960e+11	0.000000e+00	6.783920e-01	5.348366e+13	2.074343e+14	1.218032e+14	7.193321e+03	3.133852e+03	1.590126e+03	0	2.798137e-04
1.340000e+09	8.467682e+11	0.000000e+00	6.783920e-01	5.337935e+13	2.065221e+14	1.212992e+14	7.191897e+03	3.132383e+03	1.589381e+03	0	2.787937e-04
1.350000e+09	8.374997e+11	0.000000e+00	6.783920e-01	5.327566e+13	2.056202e+14	1.207985e+14	7.190475e+03	3.130927e+03	1.588642e+03	0	2.777728e-04
1.360000e+09	8.282895e+11	0.000000e+00	6.783920e-01	5.317259e+13	2.047286e+14	1.203011e+14	7.189056e+03	3.129485e+03	1.587910e+03	0	2.767508e-04
