#t		Qconv[W]	Ri[Rp]		R*[Rp]		Qc[W]		Qm[W]		Qr[W]		Tcmb[K]		Tl[K]		Tup[K]		RiFlag		Bs[T]
0.000000e+00	5.533099e+12	0.000000e+00	6.783920e-01	1.114178e+14	2.639941e+15	2.478070e+14	7.753967e+03	4.778524e+03	2.367303e+03	0	5.198445e-04
1.000000e+07	5.413515e+12	0.000000e+00	6.783920e-01	1.102109e+14	2.381960e+15	2.464340e+14	7.751286e+03	4.685077e+03	2.321009e+03	0	5.160721e-04
2.000000e+07	5.285622e+12	0.000000e+00	6.783920e-01	1.089218e+14	2.165857e+15	2.450712e+14	7.748633e+03	4.601786e+03	2.279746e+03	0	5.119757e-04
3.000000e+07	5.154392e+12	0.000000e+00	6.783920e-01	1.075997e+14	1.982849e+15	2.437186e+14	7.746012e+03	4.527030e+03	2.242711e+03	0	5.077031e-04
4.000000e+07	5.022991e+12	0.000000e+00	6.783920e-01	1.062762e+14	1.826343e+15	2.423762e+14	7.743422e+03	4.459519e+03	2.209266e+03	0	5.033516e-04
5.000000e+07	4.893421e+12	0.000000e+00	6.783920e-01	1.049710e+14	1.691320e+15	2.410437e+14	7.740865e+03	4.398217e+03	2.178897e+03	0	4.989858e-04
6.000000e+07	4.766923e+12	0.000000e+00	6.783920e-01	1.036966e+14	1.573905e+15	2.397212e+14	7.738338e+03	4.342279e+03	2.151185e+03	0	4.946485e-04
7.000000e+07	4.644238e+12	0.000000e+00	6.783920e-01	1.024603e+14	1.471065e+15	2.384085e+14	7.735843e+03	4.291009e+03	2.125785e+03	0	4.903680e-04
8.000000e+07	4.525778e+12	0.000000e+00	6.783920e-01	1.012662e+14	1.380402e+15	2.371056e+14	7.733377e+03	4.243829e+03	2.102412e+03	0	4.861628e-04
9.000000e+07	4.411733e+12	0.000000e+00	6.783920e-01	1.001161e+14	1.299995e+15	2.358123e+14	7.730939e+03	4.200256e+03	2.080826e+03	0	4.820444e-04
1.000000e+08	4.302149e+12	0.000000e+00	6.783920e-01	9.901049e+13	1.228294e+15	2.345287e+14	7.728530e+03	4.159881e+03	2.060824e+03	0	4.780197e-04
1.100000e+08	4.196977e+12	0.000000e+00	6.783920e-01	9.794889e+13	1.164037e+15	2.332546e+14	7.726147e+03	4.122355e+03	2.042234e+03	0	4.740922e-04
1.200000e+08	4.096109e+12	0.000000e+00	6.783920e-01	9.693020e+13	1.106184e+15	2.319899e+14	7.723789e+03	4.087381e+03	2.024907e+03	0	4.702633e-04
1.300000e+08	3.999396e+12	0.000000e+00	6.783920e-01	9.595295e+13	1.053873e+15	2.307346e+14	7.721456e+03	4.054701e+03	2.008717e+03	0	4.665327e-04
1.400000e+08	3.906671e+12	0.000000e+00	6.783920e-01	9.501546e+13	1.006388e+15	2.294886e+14	7.719146e+03	4.024092e+03	1.993554e+03	0	4.628990e-04
1.500000e+08	3.817751e+12	0.000000e+00	6.783920e-01	9.411593e+13	9.631247e+14	2.282518e+14	7.716859e+03	3.995361e+03	1.979320e+03	0	4.593600e-04
1.600000e+08	3.732454e+12	0.000000e+00	6.783920e-01	9.325251e+13	9.235725e+14	2.270241e+14	7.714594e+03	3.968337e+03	1.965932e+03	0	4.559131e-04
1.700000e+08	3.650594e+12	0.000000e+00	6.783920e-01	9.242339e+13	8.872978e+14	2.258055e+14	7.712350e+03	3.942869e+03	1.953316e+03	0	4.525555e-04
1.800000e+08	3.571994e+12	0.000000e+00	6.783920e-01	9.162676e+13	8.539297e+14	2.245959e+14	7.710125e+03	3.918827e+03	1.941405e+03	0	4.492839e-04
1.900000e+08	3.496478e+12	0.000000e+00	6.783920e-01	9.086091e+13	8.231494e+14	2.233952e+14	7.707919e+03	3.896092e+03	1.930142e+03	0	4.460952e-04
2.000000e+08	3.423882e+12	0.000000e+00	6.783920e-01	9.012417e+13	7.946815e+14	2.222033e+14	7.705732e+03	3.874559e+03	1.919474e+03	0	4.429862e-04
2.100000e+08	3.354046e+12	0.000000e+00	6.783920e-01	8.941498e+13	7.682872e+14	2.210202e+14	7.703563e+03	3.854135e+03	1.909356e+03	0	4.399537e-04
2.200000e+08	3.286822e+12	0.000000e+00	6.783920e-01	8.873183e+13	7.437583e+14	2.198458e+14	7.701411e+03	3.834735e+03	1.899746e+03	0	4.369945e-04
2.300000e+08	3.222067e+12	0.000000e+00	6.783920e-01	8.807333e+13	7.209129e+14	2.186800e+14	7.699275e+03	3.816285e+03	1.890605e+03	0	4.341057e-04
2.400000e+08	3.159648e+12	0.000000e+00	6.783920e-01	8.743813e+13	6.995911e+14	2.175227e+14	7.697155e+03	3.798716e+03	1.881901e+03	0	4.312842e-04
2.500000e+08	3.099441e+12	0.000000e+00	6.783920e-01	8.682500e+13	6.796520e+14	2.163739e+14	7.695050e+03	3.781966e+03	1.873603e+03	0	4.285272e-04
2.600000e+08	3.041326e+12	0.000000e+00	6.783920e-01	8.623276e+13	6.609711e+14	2.152336e+14	7.692960e+03	3.765979e+03	1.865683e+03	0	4.258320e-04
2.700000e+08	2.985194e+12	0.000000e+00	6.783920e-01	8.566031e+13	6.434378e+14	2.141015e+14	7.690884e+03	3.750704e+03	1.858116e+03	0	4.231959e-04
2.800000e+08	2.930940e+12	0.000000e+00	6.783920e-01	8.510661e+13	6.269539e+14	2.129778e+14	7.688822e+03	3.736094e+03	1.850878e+03	0	4.206165e-04
2.900000e+08	2.878468e+12	0.000000e+00	6.783920e-01	8.457069e+13	6.114315e+14	2.118622e+14	7.686774e+03	3.722108e+03	1.843949e+03	0	4.180913e-04
3.000000e+08	2.827686e+12	0.000000e+00	6.783920e-01	8.405165e+13	5.967922e+14	2.107548e+14	7.684738e+03	3.708705e+03	1.837310e+03	0	4.156180e-04
3.100000e+08	2.778508e+12	0.000000e+00	6.783920e-01	8.354863e+13	5.829653e+14	2.096554e+14	7.682714e+03	3.695851e+03	1.830942e+03	0	4.131945e-04
3.200000e+08	2.730854e+12	0.000000e+00	6.783920e-01	8.306083e+13	5.698876e+14	2.085640e+14	7.680703e+03	3.683513e+03	1.824829e+03	0	4.108186e-04
3.300000e+08	2.684649e+12	0.000000e+00	6.783920e-01	8.258749e+13	5.575018e+14	2.074806e+14	7.678704e+03	3.671659e+03	1.818957e+03	0	4.084885e-04
3.400000e+08	2.639821e+12	0.000000e+00	6.783920e-01	8.212792e+13	5.457562e+14	2.064050e+14	7.676716e+03	3.660262e+03	1.813311e+03	0	4.062021e-04
3.500000e+08	2.596304e+12	0.000000e+00	6.783920e-01	8.168144e+13	5.346040e+14	2.053373e+14	7.674739e+03	3.649297e+03	1.807878e+03	0	4.039576e-04
3.600000e+08	2.554036e+12	0.000000e+00	6.783920e-01	8.124744e+13	5.240027e+14	2.042772e+14	7.672772e+03	3.638739e+03	1.802648e+03	0	4.017535e-04
3.700000e+08	2.512957e+12	0.000000e+00	6.783920e-01	8.082532e+13	5.139136e+14	2.032249e+14	7.670817e+03	3.628565e+03	1.797608e+03	0	3.995879e-04
3.800000e+08	2.473012e+12	0.000000e+00	6.783920e-01	8.041454e+13	5.043015e+14	2.021802e+14	7.668871e+03	3.618756e+03	1.792749e+03	0	3.974594e-04
3.900000e+08	2.434150e+12	0.000000e+00	6.783920e-01	8.001458e+13	4.951341e+14	2.011430e+14	7.666935e+03	3.609293e+03	1.788060e+03	0	3.953664e-04
4.000000e+08	2.396320e+12	0.000000e+00	6.783920e-01	7.962494e+13	4.863820e+14	2.001133e+14	7.665009e+03	3.600156e+03	1.783534e+03	0	3.933075e-04
4.100000e+08	2.359476e+12	0.000000e+00	6.783920e-01	7.924516e+13	4.780182e+14	1.990910e+14	7.663092e+03	3.591330e+03	1.779162e+03	0	3.912814e-04
4.200000e+08	2.323575e+12	0.000000e+00	6.783920e-01	7.887480e+13	4.700180e+14	1.980762e+14	7.661185e+03	3.582799e+03	1.774935e+03	0	3.892867e-04
4.300000e+08	2.288576e+12	0.000000e+00	6.783920e-01	7.851347e+13	4.623586e+14	1.970686e+14	7.659286e+03	3.574549e+03	1.770848e+03	0	3.873222e-04
4.400000e+08	2.254439e+12	0.000000e+00	6.783920e-01	7.816075e+13	4.550190e+14	1.960682e+14	7.657396e+03	3.566565e+03	1.766893e+03	0	3.853867e-04
4.500000e+08	2.221127e+12	0.000000e+00	6.783920e-01	7.781630e+13	4.479798e+14	1.950751e+14	7.655514e+03	3.558835e+03	1.763063e+03	0	3.834792e-04
4.600000e+08	2.188607e+12	0.000000e+00	6.783920e-01	7.747976e+13	4.412232e+14	1.940891e+14	7.653641e+03	3.551347e+03	1.759354e+03	0	3.815984e-04
4.700000e+08	2.156844e+12	0.000000e+00	6.783920e-01	7.715080e+13	4.347327e+14	1.931101e+14	7.651776e+03	3.544089e+03	1.755758e+03	0	3.797434e-04
4.800000e+08	2.125807e+12	0.000000e+00	6.783920e-01	7.682911e+13	4.284930e+14	1.921382e+14	7.649918e+03	3.537052e+03	1.752272e+03	0	3.779131e-04
4.900000e+08	2.095468e+12	0.000000e+00	6.783920e-01	7.651440e+13	4.224899e+14	1.911732e+14	7.648069e+03	3.530225e+03	1.748890e+03	0	3.761066e-04
5.000000e+08	2.065797e+12	0.000000e+00	6.783920e-01	7.620639e+13	4.167102e+14	1.902152e+14	7.646227e+03	3.523598e+03	1.745607e+03	0	3.743230e-04
5.100000e+08	2.036769e+12	0.000000e+00	6.783920e-01	7.590480e+13	4.111417e+14	1.892639e+14	7.644392e+03	3.517163e+03	1.742419e+03	0	3.725614e-04
5.200000e+08	2.008357e+12	0.000000e+00	6.783920e-01	7.560940e+13	4.057730e+14	1.883195e+14	7.642565e+03	3.510912e+03	1.739322e+03	0	3.708210e-04
5.300000e+08	1.980539e+12	0.000000e+00	6.783920e-01	7.531993e+13	4.005935e+14	1.873818e+14	7.640745e+03	3.504836e+03	1.736312e+03	0	3.691009e-04
5.400000e+08	1.953291e+12	0.000000e+00	6.783920e-01	7.503618e+13	3.955932e+14	1.864508e+14	7.638932e+03	3.498928e+03	1.733385e+03	0	3.674004e-04
5.500000e+08	1.926591e+12	0.000000e+00	6.783920e-01	7.475792e+13	3.907630e+14	1.855264e+14	7.637125e+03	3.493182e+03	1.730538e+03	0	3.657187e-04
5.600000e+08	1.900419e+12	0.000000e+00	6.783920e-01	7.448496e+13	3.860943e+14	1.846085e+14	7.635326e+03	3.487589e+03	1.727768e+03	0	3.640551e-04
5.700000e+08	1.874756e+12	0.000000e+00	6.783920e-01	7.421709e+13	3.815788e+14	1.836972e+14	7.633532e+03	3.482145e+03	1.725071e+03	0	3.624089e-04
5.800000e+08	1.849583e+12	0.000000e+00	6.783920e-01	7.395413e+13	3.772092e+14	1.827924e+14	7.631746e+03	3.476843e+03	1.722444e+03	0	3.607795e-04
5.900000e+08	1.824881e+12	0.000000e+00	6.783920e-01	7.369590e+13	3.729782e+14	1.818940e+14	7.629965e+03	3.471677e+03	1.719885e+03	0	3.591662e-04
6.000000e+08	1.800635e+12	0.000000e+00	6.783920e-01	7.344223e+13	3.688792e+14	1.810019e+14	7.628191e+03	3.466642e+03	1.717390e+03	0	3.575684e-04
6.100000e+08	1.776827e+12	0.000000e+00	6.783920e-01	7.319297e+13	3.649060e+14	1.801161e+14	7.626423e+03	3.461733e+03	1.714958e+03	0	3.559855e-04
6.200000e+08	1.753443e+12	0.000000e+00	6.783920e-01	7.294795e+13	3.610527e+14	1.792366e+14	7.624661e+03	3.456944e+03	1.712586e+03	0	3.544169e-04
6.300000e+08	1.730467e+12	0.000000e+00	6.783920e-01	7.270704e+13	3.573137e+14	1.783633e+14	7.622905e+03	3.452272e+03	1.710272e+03	0	3.528621e-04
6.400000e+08	1.707886e+12	0.000000e+00	6.783920e-01	7.247008e+13	3.536840e+14	1.774962e+14	7.621155e+03	3.447712e+03	1.708013e+03	0	3.513206e-04
6.500000e+08	1.685686e+12	0.000000e+00	6.783920e-01	7.223695e+13	3.501585e+14	1.766352e+14	7.619410e+03	3.443260e+03	1.705807e+03	0	3.497917e-04
6.600000e+08	1.663855e+12	0.000000e+00	6.783920e-01	7.200752e+13	3.467327e+14	1.757802e+14	7.617671e+03	3.438911e+03	1.703652e+03	0	3.482751e-04
6.700000e+08	1.642380e+12	0.000000e+00	6.783920e-01	7.178167e+13	3.434021e+14	1.749313e+14	7.615937e+03	3.434663e+03	1.701548e+03	0	3.467702e-04
6.800000e+08	1.621249e+12	0.000000e+00	6.783920e-01	7.155928e+13	3.401628e+14	1.740883e+14	7.614209e+03	3.430510e+03	1.699490e+03	0	3.452766e-04
6.900000e+08	1.600451e+12	0.000000e+00	6.783920e-01	7.134023e+13	3.370107e+14	1.732512e+14	7.612486e+03	3.426450e+03	1.697479e+03	0	3.437939e-04
7.000000e+08	1.579976e+12	0.000000e+00	6.783920e-01	7.112442e+13	3.339423e+14	1.724200e+14	7.610769e+03	3.422480e+03	1.695512e+03	0	3.423215e-04
7.100000e+08	1.559813e+12	0.000000e+00	6.783920e-01	7.091175e+13	3.309540e+14	1.715946e+14	7.609057e+03	3.418596e+03	1.693588e+03	0	3.408590e-04
7.200000e+08	1.539952e+12	0.000000e+00	6.783920e-01	7.070212e+13	3.280425e+14	1.707750e+14	7.607349e+03	3.414795e+03	1.691705e+03	0	3.394062e-04
7.300000e+08	1.520384e+12	0.000000e+00	6.783920e-01	7.049543e+13	3.252048e+14	1.699611e+14	7.605647e+03	3.411074e+03	1.689862e+03	0	3.379624e-04
7.400000e+08	1.501100e+12	0.000000e+00	6.783920e-01	7.029160e+13	3.224378e+14	1.691529e+14	7.603950e+03	3.407431e+03	1.688057e+03	0	3.365275e-04
7.500000e+08	1.482091e+12	0.000000e+00	6.783920e-01	7.009054e+13	3.197388e+14	1.683503e+14	7.602258e+03	3.403863e+03	1.686290e+03	0	3.351009e-04
7.600000e+08	1.463349e+12	0.000000e+00	6.783920e-01	6.989215e+13	3.171051e+14	1.675533e+14	7.600571e+03	3.400368e+03	1.684558e+03	0	3.336824e-04
7.700000e+08	1.444866e+12	0.000000e+00	6.783920e-01	6.969638e+13	3.145341e+14	1.667619e+14	7.598888e+03	3.396942e+03	1.682861e+03	0	3.322715e-04
7.800000e+08	1.426633e+12	0.000000e+00	6.783920e-01	6.950313e+13	3.120235e+14	1.659759e+14	7.597210e+03	3.393585e+03	1.681197e+03	0	3.308680e-04
7.900000e+08	1.408645e+12	0.000000e+00	6.783920e-01	6.931233e+13	3.095710e+14	1.651954e+14	7.595537e+03	3.390292e+03	1.679566e+03	0	3.294714e-04
8.000000e+08	1.390893e+12	0.000000e+00	6.783920e-01	6.912392e+13	3.071744e+14	1.644204e+14	7.593868e+03	3.387063e+03	1.677967e+03	0	3.280816e-04
8.100000e+08	1.373370e+12	0.000000e+00	6.783920e-01	6.893782e+13	3.048316e+14	1.636507e+14	7.592204e+03	3.383895e+03	1.676397e+03	0	3.266980e-04
8.200000e+08	1.356072e+12	0.000000e+00	6.783920e-01	6.875397e+13	3.025407e+14	1.628863e+14	7.590544e+03	3.380787e+03	1.674857e+03	0	3.253205e-04
8.300000e+08	1.338990e+12	0.000000e+00	6.783920e-01	6.857231e+13	3.002997e+14	1.621272e+14	7.588889e+03	3.377736e+03	1.673346e+03	0	3.239488e-04
8.400000e+08	1.322119e+12	0.000000e+00	6.783920e-01	6.839277e+13	2.981070e+14	1.613734e+14	7.587238e+03	3.374740e+03	1.671862e+03	0	3.225825e-04
8.500000e+08	1.305453e+12	0.000000e+00	6.783920e-01	6.821530e+13	2.959607e+14	1.606247e+14	7.585592e+03	3.371798e+03	1.670404e+03	0	3.212213e-04
8.600000e+08	1.288986e+12	0.000000e+00	6.783920e-01	6.803985e+13	2.938593e+14	1.598812e+14	7.583949e+03	3.368909e+03	1.668973e+03	0	3.198650e-04
8.700000e+08	1.272714e+12	0.000000e+00	6.783920e-01	6.786635e+13	2.918012e+14	1.591429e+14	7.582311e+03	3.366070e+03	1.667567e+03	0	3.185133e-04
8.800000e+08	1.256631e+12	0.000000e+00	6.783920e-01	6.769476e+13	2.897848e+14	1.584096e+14	7.580677e+03	3.363280e+03	1.666184e+03	0	3.171659e-04
8.900000e+08	1.240731e+12	0.000000e+00	6.783920e-01	6.752502e+13	2.878089e+14	1.576814e+14	7.579047e+03	3.360538e+03	1.664826e+03	0	3.158226e-04
9.000000e+08	1.225011e+12	0.000000e+00	6.783920e-01	6.735709e+13	2.858720e+14	1.569581e+14	7.577422e+03	3.357842e+03	1.663490e+03	0	3.144831e-04
9.100000e+08	1.209465e+12	0.000000e+00	6.783920e-01	6.719092e+13	2.839729e+14	1.562398e+14	7.575800e+03	3.355190e+03	1.662177e+03	0	3.131471e-04
9.200000e+08	1.194089e+12	0.000000e+00	6.783920e-01	6.702647e+13	2.821103e+14	1.555264e+14	7.574183e+03	3.352582e+03	1.660885e+03	0	3.118144e-04
9.300000e+08	1.178878e+12	0.000000e+00	6.783920e-01	6.686369e+13	2.802829e+14	1.548180e+14	7.572569e+03	3.350016e+03	1.659614e+03	0	3.104847e-04
9.400000e+08	1.163829e+12	0.000000e+00	6.783920e-01	6.670254e+13	2.784898e+14	1.541143e+14	7.570959e+03	3.347492e+03	1.658363e+03	0	3.091579e-04
9.500000e+08	1.148937e+12	0.000000e+00	6.783920e-01	6.654299e+13	2.767297e+14	1.534155e+14	7.569353e+03	3.345006e+03	1.657132e+03	0	3.078336e-04
9.600000e+08	1.134199e+12	0.000000e+00	6.783920e-01	6.638498e+13	2.750017e+14	1.527214e+14	7.567751e+03	3.342560e+03	1.655920e+03	0	3.065117e-04
9.700000e+08	1.119610e+12	0.000000e+00	6.783920e-01	6.622849e+13	2.733047e+14	1.520320e+14	7.566153e+03	3.340151e+03	1.654726e+03	0	3.051918e-04
9.800000e+08	1.105168e+12	0.000000e+00	6.783920e-01	6.607348e+13	2.716378e+14	1.513474e+14	7.564558e+03	3.337778e+03	1.653551e+03	0	3.038739e-04
9.900000e+08	1.090868e+12	0.000000e+00	6.783920e-01	6.591991e+13	2.700000e+14	1.506674e+14	7.562968e+03	3.335441e+03	1.652393e+03	0	3.025576e-04
1.000000e+09	1.076707e+12	0.000000e+00	6.783920e-01	6.576775e+13	2.683906e+14	1.499920e+14	7.561381e+03	3.333139e+03	1.651252e+03	0	3.012427e-04
1.010000e+09	1.062683e+12	0.000000e+00	6.783920e-01	6.561697e+13	2.668085e+14	1.493211e+14	7.559797e+03	3.330870e+03	1.650128e+03	0	2.999290e-04
1.020000e+09	1.048791e+12	0.000000e+00	6.783920e-01	6.546753e+13	2.652531e+14	1.486549e+14	7.558217e+03	3.328633e+03	1.649020e+03	0	2.986163e-04
1.030000e+09	1.035029e+12	0.000000e+00	6.783920e-01	6.531940e+13	2.637235e+14	1.479931e+14	7.556641e+03	3.326428e+03	1.647928e+03	0	2.973045e-04
1.040000e+09	1.021393e+12	0.000000e+00	6.783920e-01	6.517256e+13	2.622190e+14	1.473358e+14	7.555069e+03	3.324254e+03	1.646851e+03	0	2.959931e-04
1.050000e+09	1.007882e+12	0.000000e+00	6.783920e-01	6.502698e+13	2.607388e+14	1.466830e+14	7.553500e+03	3.322110e+03	1.645789e+03	0	2.946822e-04
1.060000e+09	9.944916e+11	0.000000e+00	6.783920e-01	6.488263e+13	2.592823e+14	1.460345e+14	7.551934e+03	3.319995e+03	1.644741e+03	0	2.933713e-04
1.070000e+09	9.812198e+11	0.000000e+00	6.783920e-01	6.473947e+13	2.578488e+14	1.453905e+14	7.550372e+03	3.317909e+03	1.643707e+03	0	2.920604e-04
1.080000e+09	9.680639e+11	0.000000e+00	6.783920e-01	6.459750e+13	2.564376e+14	1.447507e+14	7.548813e+03	3.315850e+03	1.642688e+03	0	2.907493e-04
1.090000e+09	9.550214e+11	0.000000e+00	6.783920e-01	6.445667e+13	2.550482e+14	1.441153e+14	7.547258e+03	3.313819e+03	1.641681e+03	0	2.894376e-04
1.100000e+09	9.420898e+11	0.000000e+00	6.783920e-01	6.431697e+13	2.536799e+14	1.434841e+14	7.545706e+03	3.311814e+03	1.640688e+03	0	2.881253e-04
1.110000e+09	9.292669e+11	0.000000e+00	6.783920e-01	6.417837e+13	2.523322e+14	1.428572e+14	7.544158e+03	3.309834e+03	1.639707e+03	0	2.868121e-04
1.120000e+09	9.165503e+11	0.000000e+00	6.783920e-01	6.404085e+13	2.510044e+14	1.422344e+14	7.542613e+03	3.307879e+03	1.638739e+03	0	2.854978e-04
1.130000e+09	9.039377e+11	0.000000e+00	6.783920e-01	6.390439e+13	2.496962e+14	1.416158e+14	7.541071e+03	3.305949e+03	1.637782e+03	0	2.841822e-04
1.140000e+09	8.914272e+11	0.000000e+00	6.783920e-01	6.376897e+13	2.484069e+14	1.410014e+14	7.539532e+03	3.304042e+03	1.636838e+03	0	2.828650e-04
1.150000e+09	8.790165e+11	0.000000e+00	6.783920e-01	6.363456e+13	2.471360e+14	1.403911e+14	7.537997e+03	3.302159e+03	1.635905e+03	0	2.815462e-04
1.160000e+09	8.667038e+11	0.000000e+00	6.783920e-01	6.350115e+13	2.458832e+14	1.397848e+14	7.536465e+03	3.300298e+03	1.634983e+03	0	2.802254e-04
1.170000e+09	8.544870e+11	0.000000e+00	6.783920e-01	6.336871e+13	2.446478e+14	1.391826e+14	7.534936e+03	3.298459e+03	1.634072e+03	0	2.789025e-04
1.180000e+09	8.423642e+11	0.000000e+00	6.783920e-01	6.323724e+13	2.434296e+14	1.385843e+14	7.533410e+03	3.296641e+03	1.633171e+03	0	2.775773e-04
1.190000e+09	8.303336e+11	0.000000e+00	6.783920e-01	6.310669e+13	2.422279e+14	1.379901e+14	7.531888e+03	3.294845e+03	1.632281e+03	0	2.762495e-04
1.200000e+09	8.183935e+11	0.000000e+00	6.783920e-01	6.297707e+13	2.410426e+14	1.373998e+14	7.530368e+03	3.293069e+03	1.631402e+03	0	2.749190e-04
1.210000e+09	8.065420e+11	0.000000e+00	6.783920e-01	6.284836e+13	2.398730e+14	1.368134e+14	7.528852e+03	3.291313e+03	1.630532e+03	0	2.735854e-04
1.220000e+09	7.947776e+11	0.000000e+00	6.783920e-01	6.272053e+13	2.387189e+14	1.362309e+14	7.527339e+03	3.289577e+03	1.629671e+03	0	2.722487e-04
1.230000e+09	7.830986e+11	0.000000e+00	6.783920e-01	6.259357e+13	2.375799e+14	1.356523e+14	7.525829e+03	3.287859e+03	1.628821e+03	0	2.709086e-04
1.240000e+09	7.715033e+11	0.000000e+00	6.783920e-01	6.246746e+13	2.364556e+14	1.350775e+14	7.524322e+03	3.286160e+03	1.627979e+03	0	2.695648e-04
1.250000e+09	7.599904e+11	0.000000e+00	6.783920e-01	6.234220e+13	2.353456e+14	1.345064e+14	7.522818e+03	3.284480e+03	1.627146e+03	0	2.682172e-04
1.260000e+09	7.485582e+11	0.000000e+00	6.783920e-01	6.221775e+13	2.342496e+14	1.339392e+14	7.521317e+03	3.282817e+03	1.626323e+03	0	2.668655e-04
1.270000e+09	7.372053e+11	0.000000e+00	6.783920e-01	6.209412e+13	2.331674e+14	1.333756e+14	7.519819e+03	3.281171e+03	1.625507e+03	0	2.655095e-04
1.280000e+09	7.259304e+11	0.000000e+00	6.783920e-01	6.197128e+13	2.320985e+14	1.328158e+14	7.518324e+03	3.279543e+03	1.624701e+03	0	2.641490e-04
1.290000e+09	7.147320e+11	0.000000e+00	6.783920e-01	6.184923e+13	2.310427e+14	1.322597e+14	7.516832e+03	3.277931e+03	1.623902e+03	0	2.627837e-04
1.300000e+09	7.036088e+11	0.000000e+00	6.783920e-01	6.172794e+13	2.299997e+14	1.317072e+14	7.515343e+03	3.276335e+03	1.623111e+03	0	2.614133e-04
1.310000e+09	6.925595e+11	0.000000e+00	6.783920e-01	6.160741e+13	2.289692e+14	1.311583e+14	7.513857e+03	3.274755e+03	1.622329e+03	0	2.600377e-04
1.320000e+09	6.815829e+11	0.000000e+00	6.783920e-01	6.148761e+13	2.279508e+14	1.306131e+14	7.512373e+03	3.273191e+03	1.621554e+03	0	2.586566e-04
1.330000e+09	6.706777e+11	0.000000e+00	6.783920e-01	6.136855e+13	2.269445e+14	1.300714e+14	7.510893e+03	3.271642e+03	1.620786e+03	0	2.572697e-04
1.340000e+09	6.598428e+11	0.000000e+00	6.783920e-01	6.125021e+13	2.259497e+14	1.295332e+14	7.509416e+03	3.270107e+03	1.620026e+03	0	2.558767e-04
1.350000e+09	6.490769e+11	0.000000e+00	6.783920e-01	6.113258e+13	2.249665e+14	1.289985e+14	7.507941e+03	3.268588e+03	1.619273e+03	0	2.544775e-04
1.360000e+09	6.383790e+11	0.000000e+00	6.783920e-01	6.101564e+13	2.239944e+14	1.284674e+14	7.506469e+03	3.267082e+03	1.618527e+03	0	2.530716e-04
