#t		Qconv[W]	Ri[Rp]		R*[Rp]		Qc[W]		Qm[W]		Qr[W]		Tcmb[K]		Tl[K]		Tup[K]		RiFlag		Bs[T]
0.000000e+00	5.804054e+12	0.000000e+00	6.783918e-01	1.850914e+14	3.115486e+15	3.265792e+14	9.277789e+03	5.540555e+03	2.475051e+03	0	5.220523e-04
1.000000e+07	5.601969e+12	0.000000e+00	6.783918e-01	1.832584e+14	2.866687e+15	3.247697e+14	9.274930e+03	5.455651e+03	2.437123e+03	0	5.159217e-04
2.000000e+07	5.395861e+12	0.000000e+00	6.783918e-01	1.813902e+14	2.652009e+15	3.229737e+14	9.272099e+03	5.378542e+03	2.402678e+03	0	5.095152e-04
3.000000e+07	5.189527e+12	0.000000e+00	6.783918e-01	1.795205e+14	2.465325e+15	3.211912e+14	9.269297e+03	5.308170e+03	2.371241e+03	0	5.029361e-04
4.000000e+07	4.985491e+12	0.000000e+00	6.783918e-01	1.776715e+14	2.301829e+15	3.194220e+14	9.266523e+03	5.243661e+03	2.342424e+03	0	4.962565e-04
5.000000e+07	4.785409e+12	0.000000e+00	6.783918e-01	1.758579e+14	2.157715e+15	3.176659e+14	9.263779e+03	5.184291e+03	2.315903e+03	0	4.895269e-04
6.000000e+07	4.590337e+12	0.000000e+00	6.783918e-01	1.740892e+14	2.029932e+15	3.159230e+14	9.261062e+03	5.129451e+03	2.291405e+03	0	4.827827e-04
7.000000e+07	4.400919e+12	0.000000e+00	6.783918e-01	1.723710e+14	1.916014e+15	3.141930e+14	9.258372e+03	5.078626e+03	2.268701e+03	0	4.760486e-04
8.000000e+07	4.217508e+12	0.000000e+00	6.783918e-01	1.707065e+14	1.813950e+15	3.124759e+14	9.255709e+03	5.031381e+03	2.247595e+03	0	4.693414e-04
9.000000e+07	4.040262e+12	0.000000e+00	6.783918e-01	1.690970e+14	1.722085e+15	3.107716e+14	9.253072e+03	4.987339e+03	2.227921e+03	0	4.626722e-04
1.000000e+08	3.869200e+12	0.000000e+00	6.783918e-01	1.675427e+14	1.639048e+15	3.090799e+14	9.250459e+03	4.946178e+03	2.209534e+03	0	4.560481e-04
1.100000e+08	3.704247e+12	0.000000e+00	6.783918e-01	1.660429e+14	1.563694e+15	3.074008e+14	9.247871e+03	4.907618e+03	2.192309e+03	0	4.494729e-04
1.200000e+08	3.545264e+12	0.000000e+00	6.783918e-01	1.645963e+14	1.495062e+15	3.057341e+14	9.245305e+03	4.871415e+03	2.176136e+03	0	4.429483e-04
1.300000e+08	3.392072e+12	0.000000e+00	6.783918e-01	1.632014e+14	1.432338e+15	3.040798e+14	9.242762e+03	4.837355e+03	2.160921e+03	0	4.364742e-04
1.400000e+08	3.244467e+12	0.000000e+00	6.783918e-01	1.618564e+14	1.374830e+15	3.024377e+14	9.240241e+03	4.805249e+03	2.146579e+03	0	4.300491e-04
1.500000e+08	3.102229e+12	0.000000e+00	6.783918e-01	1.605593e+14	1.321948e+15	3.008078e+14	9.237740e+03	4.774931e+03	2.133035e+03	0	4.236704e-04
1.600000e+08	2.965133e+12	0.000000e+00	6.783918e-01	1.593080e+14	1.273183e+15	2.991899e+14	9.235259e+03	4.746255e+03	2.120225e+03	0	4.173351e-04
1.700000e+08	2.832950e+12	0.000000e+00	6.783918e-01	1.581006e+14	1.228096e+15	2.975839e+14	9.232798e+03	4.719087e+03	2.108089e+03	0	4.110392e-04
1.800000e+08	2.705458e+12	0.000000e+00	6.783918e-01	1.569350e+14	1.186307e+15	2.959898e+14	9.230355e+03	4.693312e+03	2.096575e+03	0	4.047782e-04
1.900000e+08	2.582435e+12	0.000000e+00	6.783918e-01	1.558093e+14	1.147483e+15	2.944074e+14	9.227930e+03	4.668822e+03	2.085635e+03	0	3.985474e-04
2.000000e+08	2.463671e+12	0.000000e+00	6.783918e-01	1.547216e+14	1.111336e+15	2.928366e+14	9.225523e+03	4.645525e+03	2.075227e+03	0	3.923417e-04
2.100000e+08	2.348960e+12	0.000000e+00	6.783918e-01	1.536701e+14	1.077610e+15	2.912774e+14	9.223132e+03	4.623333e+03	2.065314e+03	0	3.861554e-04
2.200000e+08	2.238108e+12	0.000000e+00	6.783918e-01	1.526531e+14	1.046082e+15	2.897297e+14	9.220758e+03	4.602170e+03	2.055860e+03	0	3.799828e-04
2.300000e+08	2.130928e+12	0.000000e+00	6.783918e-01	1.516688e+14	1.016552e+15	2.881933e+14	9.218399e+03	4.581965e+03	2.046834e+03	0	3.738177e-04
2.400000e+08	2.027243e+12	0.000000e+00	6.783918e-01	1.507158e+14	9.888453e+14	2.866682e+14	9.216056e+03	4.562654e+03	2.038208e+03	0	3.676536e-04
2.500000e+08	1.926884e+12	0.000000e+00	6.783918e-01	1.497924e+14	9.628049e+14	2.851542e+14	9.213727e+03	4.544179e+03	2.029955e+03	0	3.614837e-04
2.600000e+08	1.829693e+12	0.000000e+00	6.783918e-01	1.488973e+14	9.382912e+14	2.836513e+14	9.211413e+03	4.526487e+03	2.022051e+03	0	3.553009e-04
2.700000e+08	1.735517e+12	0.000000e+00	6.783918e-01	1.480292e+14	9.151794e+14	2.821595e+14	9.209112e+03	4.509528e+03	2.014476e+03	0	3.490973e-04
2.800000e+08	1.644215e+12	0.000000e+00	6.783918e-01	1.471868e+14	8.933572e+14	2.806785e+14	9.206825e+03	4.493259e+03	2.007208e+03	0	3.428649e-04
2.900000e+08	1.555650e+12	0.000000e+00	6.783918e-01	1.463688e+14	8.727238e+14	2.792083e+14	9.204551e+03	4.477638e+03	2.000230e+03	0	3.365949e-04
3.000000e+08	1.469697e+12	0.000000e+00	6.783918e-01	1.455741e+14	8.531884e+14	2.777488e+14	9.202289e+03	4.462626e+03	1.993524e+03	0	3.302779e-04
3.100000e+08	1.386234e+12	0.000000e+00	6.783918e-01	1.448017e+14	8.346686e+14	2.763000e+14	9.200040e+03	4.448190e+03	1.987075e+03	0	3.239035e-04
3.200000e+08	1.305147e+12	0.000000e+00	6.783918e-01	1.440505e+14	8.170903e+14	2.748617e+14	9.197802e+03	4.434295e+03	1.980868e+03	0	3.174607e-04
3.300000e+08	1.226328e+12	0.000000e+00	6.783918e-01	1.433196e+14	8.003856e+14	2.734339e+14	9.195576e+03	4.420914e+03	1.974890e+03	0	3.109370e-04
3.400000e+08	1.149676e+12	0.000000e+00	6.783918e-01	1.426081e+14	7.844933e+14	2.720164e+14	9.193362e+03	4.408017e+03	1.969129e+03	0	3.043188e-04
3.500000e+08	1.075095e+12	0.000000e+00	6.783918e-01	1.419151e+14	7.693573e+14	2.706092e+14	9.191158e+03	4.395578e+03	1.963573e+03	0	2.975906e-04
3.600000e+08	1.002494e+12	0.000000e+00	6.783918e-01	1.412398e+14	7.549265e+14	2.692123e+14	9.188965e+03	4.383575e+03	1.958210e+03	0	2.907351e-04
3.700000e+08	9.317866e+11	0.000000e+00	6.783918e-01	1.405815e+14	7.411542e+14	2.678254e+14	9.186783e+03	4.371983e+03	1.953032e+03	0	2.837325e-04
3.800000e+08	8.628915e+11	0.000000e+00	6.783918e-01	1.399393e+14	7.279975e+14	2.664486e+14	9.184611e+03	4.360784e+03	1.948029e+03	0	2.765597e-04
3.900000e+08	7.957317e+11	0.000000e+00	6.783918e-01	1.393127e+14	7.154170e+14	2.650817e+14	9.182448e+03	4.349956e+03	1.943192e+03	0	2.691901e-04
4.000000e+08	7.302343e+11	0.000000e+00	6.783918e-01	1.387010e+14	7.033767e+14	2.637247e+14	9.180296e+03	4.339481e+03	1.938513e+03	0	2.615919e-04
4.100000e+08	6.663301e+11	0.000000e+00	6.783918e-01	1.381035e+14	6.918433e+14	2.623775e+14	9.178153e+03	4.329344e+03	1.933985e+03	0	2.537270e-04
4.200000e+08	6.039535e+11	0.000000e+00	6.783918e-01	1.375198e+14	6.807860e+14	2.610400e+14	9.176019e+03	4.319527e+03	1.929599e+03	0	2.455489e-04
4.300000e+08	5.430425e+11	0.000000e+00	6.783918e-01	1.369491e+14	6.701766e+14	2.597121e+14	9.173894e+03	4.310015e+03	1.925350e+03	0	2.369999e-04
4.400000e+08	4.835382e+11	0.000000e+00	6.783918e-01	1.363910e+14	6.599888e+14	2.583938e+14	9.171778e+03	4.300795e+03	1.921231e+03	0	2.280064e-04
4.500000e+08	4.253844e+11	0.000000e+00	6.783918e-01	1.358451e+14	6.501984e+14	2.570850e+14	9.169670e+03	4.291852e+03	1.917237e+03	0	2.184728e-04
4.600000e+08	3.685281e+11	0.000000e+00	6.783918e-01	1.353107e+14	6.407829e+14	2.557855e+14	9.167571e+03	4.283176e+03	1.913361e+03	0	2.082702e-04
4.700000e+08	3.129188e+11	0.000000e+00	6.783918e-01	1.347876e+14	6.317214e+14	2.544954e+14	9.165480e+03	4.274753e+03	1.909598e+03	0	1.972184e-04
4.800000e+08	2.585084e+11	0.000000e+00	6.783918e-01	1.342751e+14	6.229945e+14	2.532145e+14	9.163397e+03	4.266574e+03	1.905944e+03	0	1.850526e-04
4.900000e+08	2.052513e+11	0.000000e+00	6.783918e-01	1.337731e+14	6.145842e+14	2.519428e+14	9.161322e+03	4.258626e+03	1.902394e+03	0	1.713558e-04
5.000000e+08	1.531041e+11	0.000000e+00	6.783918e-01	1.332809e+14	6.064736e+14	2.506802e+14	9.159255e+03	4.250901e+03	1.898943e+03	0	1.554053e-04
5.100000e+08	1.020254e+11	0.000000e+00	6.783918e-01	1.327984e+14	5.986470e+14	2.494266e+14	9.157196e+03	4.243389e+03	1.895587e+03	0	1.357395e-04
5.200000e+08	5.197574e+10	0.000000e+00	6.783918e-01	1.323251e+14	5.910898e+14	2.481819e+14	9.155144e+03	4.236081e+03	1.892323e+03	0	1.084103e-04
5.300000e+08	2.917640e+09	0.000000e+00	6.783918e-01	1.318607e+14	5.837884e+14	2.469461e+14	9.153099e+03	4.228969e+03	1.889146e+03	0	4.150950e-05
5.400000e+08	-4.518469e+10	0.000000e+00	6.783918e-01	1.314048e+14	5.767298e+14	2.457192e+14	9.151061e+03	4.222045e+03	1.886052e+03	0	-nan
