#t		Qconv[W]	Ri[Rp]		R*[Rp]		Qc[W]		Qm[W]		Qr[W]		Tcmb[K]		Tl[K]		Tup[K]		RiFlag		Bs[T]
0.000000e+00	5.124043e+12	0.000000e+00	6.733667e-01	2.379437e+14	3.270662e+15	3.697812e+14	1.024605e+04	6.022696e+03	2.534992e+03	0	5.023895e-04
1.000000e+07	4.878632e+12	0.000000e+00	6.733667e-01	2.357675e+14	3.041024e+15	3.677324e+14	1.024294e+04	5.943590e+03	2.501696e+03	0	4.942375e-04
2.000000e+07	4.632175e+12	0.000000e+00	6.733667e-01	2.335828e+14	2.839710e+15	3.656988e+14	1.023987e+04	5.871033e+03	2.471156e+03	0	4.857707e-04
3.000000e+07	4.387541e+12	0.000000e+00	6.733667e-01	2.314143e+14	2.662108e+15	3.636805e+14	1.023682e+04	5.804218e+03	2.443034e+03	0	4.770641e-04
4.000000e+07	4.146680e+12	0.000000e+00	6.733667e-01	2.292790e+14	2.504516e+15	3.616772e+14	1.023381e+04	5.742471e+03	2.417044e+03	0	4.681695e-04
5.000000e+07	3.910890e+12	0.000000e+00	6.733667e-01	2.271879e+14	2.363933e+15	3.596889e+14	1.023082e+04	5.685220e+03	2.392947e+03	0	4.591221e-04
6.000000e+07	3.681009e+12	0.000000e+00	6.733667e-01	2.251484e+14	2.237908e+15	3.577154e+14	1.022785e+04	5.631978e+03	2.370537e+03	0	4.499441e-04
7.000000e+07	3.457547e+12	0.000000e+00	6.733667e-01	2.231647e+14	2.124421e+15	3.557566e+14	1.022492e+04	5.582327e+03	2.349638e+03	0	4.406485e-04
8.000000e+07	3.240780e+12	0.000000e+00	6.733667e-01	2.212393e+14	2.021796e+15	3.538123e+14	1.022201e+04	5.535907e+03	2.330100e+03	0	4.312405e-04
9.000000e+07	3.030818e+12	0.000000e+00	6.733667e-01	2.193730e+14	1.928631e+15	3.518825e+14	1.021912e+04	5.492405e+03	2.311789e+03	0	4.217188e-04
1.000000e+08	2.827655e+12	0.000000e+00	6.733667e-01	2.175659e+14	1.843748e+15	3.499671e+14	1.021626e+04	5.451547e+03	2.294592e+03	0	4.120771e-04
1.100000e+08	2.631201e+12	0.000000e+00	6.733667e-01	2.158172e+14	1.766149e+15	3.480658e+14	1.021342e+04	5.413097e+03	2.278408e+03	0	4.023040e-04
1.200000e+08	2.441309e+12	0.000000e+00	6.733667e-01	2.141255e+14	1.694985e+15	3.461787e+14	1.021061e+04	5.376841e+03	2.263148e+03	0	3.923834e-04
1.300000e+08	2.257797e+12	0.000000e+00	6.733667e-01	2.124892e+14	1.629529e+15	3.443055e+14	1.020782e+04	5.342596e+03	2.248734e+03	0	3.822944e-04
1.400000e+08	2.080457e+12	0.000000e+00	6.733667e-01	2.109066e+14	1.569156e+15	3.424462e+14	1.020505e+04	5.310194e+03	2.235096e+03	0	3.720111e-04
1.500000e+08	1.909064e+12	0.000000e+00	6.733667e-01	2.093757e+14	1.513327e+15	3.406006e+14	1.020230e+04	5.279490e+03	2.222172e+03	0	3.615013e-04
1.600000e+08	1.743390e+12	0.000000e+00	6.733667e-01	2.078946e+14	1.461572e+15	3.387687e+14	1.019957e+04	5.250351e+03	2.209907e+03	0	3.507259e-04
1.700000e+08	1.583203e+12	0.000000e+00	6.733667e-01	2.064611e+14	1.413484e+15	3.369503e+14	1.019685e+04	5.222659e+03	2.198252e+03	0	3.396371e-04
1.800000e+08	1.428271e+12	0.000000e+00	6.733667e-01	2.050734e+14	1.368705e+15	3.351452e+14	1.019416e+04	5.196308e+03	2.187160e+03	0	3.281758e-04
1.900000e+08	1.278368e+12	0.000000e+00	6.733667e-01	2.037294e+14	1.326921e+15	3.333535e+14	1.019149e+04	5.171202e+03	2.176593e+03	0	3.162677e-04
2.000000e+08	1.133273e+12	0.000000e+00	6.733667e-01	2.024272e+14	1.287855e+15	3.315750e+14	1.018883e+04	5.147254e+03	2.166513e+03	0	3.038187e-04
2.100000e+08	9.927738e+11	0.000000e+00	6.733667e-01	2.011649e+14	1.251263e+15	3.298095e+14	1.018619e+04	5.124385e+03	2.156887e+03	0	2.907054e-04
2.200000e+08	8.566644e+11	0.000000e+00	6.733667e-01	1.999409e+14	1.216926e+15	3.280570e+14	1.018357e+04	5.102523e+03	2.147686e+03	0	2.767621e-04
2.300000e+08	7.247479e+11	0.000000e+00	6.733667e-01	1.987533e+14	1.184653e+15	3.263174e+14	1.018096e+04	5.081604e+03	2.138880e+03	0	2.617572e-04
2.400000e+08	5.968361e+11	0.000000e+00	6.733667e-01	1.976006e+14	1.154271e+15	3.245905e+14	1.017837e+04	5.061566e+03	2.130446e+03	0	2.453511e-04
2.500000e+08	4.727492e+11	0.000000e+00	6.733667e-01	1.964812e+14	1.125624e+15	3.228763e+14	1.017579e+04	5.042355e+03	2.122360e+03	0	2.270108e-04
2.600000e+08	3.523160e+11	0.000000e+00	6.733667e-01	1.953936e+14	1.098575e+15	3.211746e+14	1.017323e+04	5.023922e+03	2.114602e+03	0	2.058166e-04
2.700000e+08	2.353738e+11	0.000000e+00	6.733667e-01	1.943364e+14	1.072999e+15	3.194854e+14	1.017068e+04	5.006219e+03	2.107150e+03	0	1.799240e-04
2.800000e+08	1.217677e+11	0.000000e+00	6.733667e-01	1.933082e+14	1.048784e+15	3.178085e+14	1.016815e+04	4.989204e+03	2.099989e+03	0	1.444376e-04
2.900000e+08	1.135064e+10	0.000000e+00	6.733667e-01	1.923078e+14	1.025827e+15	3.161438e+14	1.016563e+04	4.972837e+03	2.093100e+03	0	6.549023e-05
3.000000e+08	-9.601683e+10	0.000000e+00	6.733667e-01	1.913339e+14	1.004037e+15	3.144913e+14	1.016312e+04	4.957083e+03	2.086469e+03	0	-nan
