#t		Qconv[W]	Ri[Rp]		R*[Rp]		Qc[W]		Qm[W]		Qr[W]		Tcmb[K]		Tl[K]		Tup[K]		RiFlag		Bs[T]
0.000000e+00	2.325190e+13	0.000000e+00	8.899082e-01	4.352468e+14	4.381846e+14	1.588034e+13	9.008005e+03	2.827951e+03	2.153247e+03	0	8.013145e-04
1.000000e+07	2.272722e+13	0.000000e+00	8.899082e-01	4.255857e+14	4.396974e+14	1.579235e+13	8.953197e+03	2.833595e+03	2.157545e+03	0	7.952413e-04
2.000000e+07	2.221166e+13	0.000000e+00	8.899082e-01	4.160929e+14	4.370905e+14	1.570502e+13	8.899598e+03	2.834316e+03	2.158094e+03	0	7.891820e-04
3.000000e+07	2.170858e+13	0.000000e+00	8.899082e-01	4.068298e+14	4.319962e+14	1.561834e+13	8.847186e+03	2.831984e+03	2.156318e+03	0	7.831784e-04
4.000000e+07	2.121970e+13	0.000000e+00	8.899082e-01	3.978277e+14	4.254582e+14	1.553231e+13	8.795933e+03	2.827778e+03	2.153115e+03	0	7.772546e-04
5.000000e+07	2.074575e+13	0.000000e+00	8.899082e-01	3.891001e+14	4.181301e+14	1.544692e+13	8.745807e+03	2.822437e+03	2.149049e+03	0	7.714242e-04
6.000000e+07	2.028690e+13	0.000000e+00	8.899082e-01	3.806499e+14	4.104154e+14	1.536217e+13	8.696773e+03	2.816426e+03	2.144472e+03	0	7.656943e-04
7.000000e+07	1.984298e+13	0.000000e+00	8.899082e-01	3.724742e+14	4.025612e+14	1.527805e+13	8.648797e+03	2.810034e+03	2.139605e+03	0	7.600680e-04
8.000000e+07	1.941364e+13	0.000000e+00	8.899082e-01	3.645664e+14	3.947171e+14	1.519455e+13	8.601845e+03	2.803443e+03	2.134587e+03	0	7.545462e-04
9.000000e+07	1.899842e+13	0.000000e+00	8.899082e-01	3.569182e+14	3.869726e+14	1.511168e+13	8.555884e+03	2.796767e+03	2.129503e+03	0	7.491280e-04
1.000000e+08	1.859683e+13	0.000000e+00	8.899082e-01	3.495203e+14	3.793798e+14	1.502942e+13	8.510880e+03	2.790077e+03	2.124410e+03	0	7.438120e-04
1.100000e+08	1.820834e+13	0.000000e+00	8.899082e-01	3.423631e+14	3.719680e+14	1.494777e+13	8.466804e+03	2.783418e+03	2.119340e+03	0	7.385960e-04
1.200000e+08	1.783242e+13	0.000000e+00	8.899082e-01	3.354370e+14	3.647520e+14	1.486672e+13	8.423625e+03	2.776819e+03	2.114314e+03	0	7.334778e-04
1.300000e+08	1.746856e+13	0.000000e+00	8.899082e-01	3.287326e+14	3.577379e+14	1.478628e+13	8.381314e+03	2.770295e+03	2.109347e+03	0	7.284548e-04
1.400000e+08	1.711627e+13	0.000000e+00	8.899082e-01	3.222406e+14	3.509266e+14	1.470643e+13	8.339843e+03	2.763857e+03	2.104445e+03	0	7.235244e-04
1.500000e+08	1.677505e+13	0.000000e+00	8.899082e-01	3.159523e+14	3.443154e+14	1.462717e+13	8.299187e+03	2.757511e+03	2.099613e+03	0	7.186843e-04
1.600000e+08	1.644446e+13	0.000000e+00	8.899082e-01	3.098592e+14	3.379000e+14	1.454850e+13	8.259319e+03	2.751259e+03	2.094853e+03	0	7.139317e-04
1.700000e+08	1.612404e+13	0.000000e+00	8.899082e-01	3.039533e+14	3.316749e+14	1.447041e+13	8.220216e+03	2.745102e+03	2.090165e+03	0	7.092644e-04
1.800000e+08	1.581340e+13	0.000000e+00	8.899082e-01	2.982269e+14	3.256338e+14	1.439289e+13	8.181854e+03	2.739041e+03	2.085550e+03	0	7.046799e-04
1.900000e+08	1.551212e+13	0.000000e+00	8.899082e-01	2.926727e+14	3.197704e+14	1.431594e+13	8.144210e+03	2.733073e+03	2.081006e+03	0	7.001760e-04
2.000000e+08	1.521983e+13	0.000000e+00	8.899082e-01	2.872838e+14	3.140783e+14	1.423956e+13	8.107264e+03	2.727198e+03	2.076533e+03	0	6.957503e-04
2.100000e+08	1.493617e+13	0.000000e+00	8.899082e-01	2.820535e+14	3.085512e+14	1.416375e+13	8.070994e+03	2.721414e+03	2.072129e+03	0	6.914008e-04
2.200000e+08	1.466079e+13	0.000000e+00	8.899082e-01	2.769756e+14	3.031828e+14	1.408849e+13	8.035381e+03	2.715720e+03	2.067793e+03	0	6.871254e-04
2.300000e+08	1.439338e+13	0.000000e+00	8.899082e-01	2.720440e+14	2.979672e+14	1.401378e+13	8.000405e+03	2.710112e+03	2.063523e+03	0	6.829220e-04
2.400000e+08	1.413362e+13	0.000000e+00	8.899082e-01	2.672532e+14	2.928985e+14	1.393962e+13	7.966049e+03	2.704589e+03	2.059318e+03	0	6.787887e-04
2.500000e+08	1.388121e+13	0.000000e+00	8.899082e-01	2.625976e+14	2.879713e+14	1.386600e+13	7.932294e+03	2.699149e+03	2.055176e+03	0	6.747237e-04
2.600000e+08	1.363588e+13	0.000000e+00	8.899082e-01	2.580721e+14	2.831802e+14	1.379292e+13	7.899125e+03	2.693791e+03	2.051096e+03	0	6.707251e-04
2.700000e+08	1.339736e+13	0.000000e+00	8.899082e-01	2.536719e+14	2.785201e+14	1.372037e+13	7.866524e+03	2.688511e+03	2.047076e+03	0	6.667913e-04
2.800000e+08	1.316539e+13	0.000000e+00	8.899082e-01	2.493921e+14	2.739863e+14	1.364836e+13	7.834476e+03	2.683309e+03	2.043115e+03	0	6.629204e-04
2.900000e+08	1.293973e+13	0.000000e+00	8.899082e-01	2.452284e+14	2.695739e+14	1.357687e+13	7.802966e+03	2.678182e+03	2.039211e+03	0	6.591110e-04
3.000000e+08	1.272015e+13	0.000000e+00	8.899082e-01	2.411765e+14	2.652787e+14	1.350590e+13	7.771979e+03	2.673129e+03	2.035363e+03	0	6.553614e-04
3.100000e+08	1.250642e+13	0.000000e+00	8.899082e-01	2.372324e+14	2.610963e+14	1.343545e+13	7.741502e+03	2.668147e+03	2.031570e+03	0	6.516702e-04
3.200000e+08	1.229834e+13	0.000000e+00	8.899082e-01	2.333920e+14	2.570228e+14	1.336551e+13	7.711521e+03	2.663236e+03	2.027830e+03	0	6.480359e-04
3.300000e+08	1.209571e+13	0.000000e+00	8.899082e-01	2.296519e+14	2.530542e+14	1.329608e+13	7.682023e+03	2.658392e+03	2.024143e+03	0	6.444570e-04
3.400000e+08	1.189832e+13	0.000000e+00	8.899082e-01	2.260083e+14	2.491869e+14	1.322715e+13	7.652995e+03	2.653616e+03	2.020506e+03	0	6.409322e-04
3.500000e+08	1.170601e+13	0.000000e+00	8.899082e-01	2.224580e+14	2.454173e+14	1.315873e+13	7.624425e+03	2.648905e+03	2.016919e+03	0	6.374602e-04
3.600000e+08	1.151858e+13	0.000000e+00	8.899082e-01	2.189977e+14	2.417421e+14	1.309080e+13	7.596302e+03	2.644258e+03	2.013381e+03	0	6.340398e-04
3.700000e+08	1.133588e+13	0.000000e+00	8.899082e-01	2.156242e+14	2.381580e+14	1.302336e+13	7.568614e+03	2.639673e+03	2.009889e+03	0	6.306696e-04
3.800000e+08	1.115774e+13	0.000000e+00	8.899082e-01	2.123347e+14	2.346619e+14	1.295641e+13	7.541351e+03	2.635149e+03	2.006445e+03	0	6.273485e-04
3.900000e+08	1.098400e+13	0.000000e+00	8.899082e-01	2.091263e+14	2.312508e+14	1.288995e+13	7.514502e+03	2.630685e+03	2.003046e+03	0	6.240754e-04
4.000000e+08	1.081453e+13	0.000000e+00	8.899082e-01	2.059963e+14	2.279220e+14	1.282396e+13	7.488056e+03	2.626278e+03	1.999691e+03	0	6.208491e-04
4.100000e+08	1.064917e+13	0.000000e+00	8.899082e-01	2.029421e+14	2.246727e+14	1.275845e+13	7.462005e+03	2.621929e+03	1.996379e+03	0	6.176685e-04
4.200000e+08	1.048780e+13	0.000000e+00	8.899082e-01	1.999611e+14	2.215003e+14	1.269341e+13	7.436338e+03	2.617635e+03	1.993110e+03	0	6.145326e-04
4.300000e+08	1.033027e+13	0.000000e+00	8.899082e-01	1.970511e+14	2.184022e+14	1.262884e+13	7.411046e+03	2.613396e+03	1.989882e+03	0	6.114404e-04
4.400000e+08	1.017648e+13	0.000000e+00	8.899082e-01	1.942096e+14	2.153762e+14	1.256474e+13	7.386121e+03	2.609210e+03	1.986695e+03	0	6.083909e-04
4.500000e+08	1.002629e+13	0.000000e+00	8.899082e-01	1.914346e+14	2.124199e+14	1.250109e+13	7.361554e+03	2.605077e+03	1.983547e+03	0	6.053831e-04
4.600000e+08	9.879594e+12	0.000000e+00	8.899082e-01	1.887239e+14	2.095310e+14	1.243791e+13	7.337336e+03	2.600994e+03	1.980439e+03	0	6.024161e-04
4.700000e+08	9.736282e+12	0.000000e+00	8.899082e-01	1.860754e+14	2.067076e+14	1.237517e+13	7.313459e+03	2.596961e+03	1.977368e+03	0	5.994890e-04
4.800000e+08	9.596245e+12	0.000000e+00	8.899082e-01	1.834873e+14	2.039474e+14	1.231289e+13	7.289916e+03	2.592978e+03	1.974335e+03	0	5.966010e-04
4.900000e+08	9.459384e+12	0.000000e+00	8.899082e-01	1.809576e+14	2.012487e+14	1.225105e+13	7.266699e+03	2.589042e+03	1.971338e+03	0	5.937512e-04
5.000000e+08	9.325600e+12	0.000000e+00	8.899082e-01	1.784845e+14	1.986094e+14	1.218965e+13	7.243801e+03	2.585153e+03	1.968377e+03	0	5.909387e-04
5.100000e+08	9.194798e+12	0.000000e+00	8.899082e-01	1.760664e+14	1.960279e+14	1.212869e+13	7.221215e+03	2.581310e+03	1.965451e+03	0	5.881628e-04
5.200000e+08	9.066889e+12	0.000000e+00	8.899082e-01	1.737016e+14	1.935023e+14	1.206817e+13	7.198933e+03	2.577513e+03	1.962559e+03	0	5.854228e-04
5.300000e+08	8.941785e+12	0.000000e+00	8.899082e-01	1.713884e+14	1.910310e+14	1.200808e+13	7.176949e+03	2.573759e+03	1.959701e+03	0	5.827178e-04
5.400000e+08	8.819403e+12	0.000000e+00	8.899082e-01	1.691253e+14	1.886124e+14	1.194842e+13	7.155257e+03	2.570049e+03	1.956876e+03	0	5.800471e-04
5.500000e+08	8.699663e+12	0.000000e+00	8.899082e-01	1.669109e+14	1.862449e+14	1.188918e+13	7.133850e+03	2.566381e+03	1.954084e+03	0	5.774100e-04
5.600000e+08	8.582486e+12	0.000000e+00	8.899082e-01	1.647437e+14	1.839270e+14	1.183036e+13	7.112722e+03	2.562755e+03	1.951323e+03	0	5.748059e-04
5.700000e+08	8.467798e+12	0.000000e+00	8.899082e-01	1.626223e+14	1.816574e+14	1.177196e+13	7.091867e+03	2.559169e+03	1.948593e+03	0	5.722340e-04
5.800000e+08	8.355526e+12	0.000000e+00	8.899082e-01	1.605455e+14	1.794345e+14	1.171398e+13	7.071280e+03	2.555624e+03	1.945893e+03	0	5.696938e-04
5.900000e+08	8.245603e+12	0.000000e+00	8.899082e-01	1.585119e+14	1.772572e+14	1.165640e+13	7.050955e+03	2.552118e+03	1.943223e+03	0	5.671845e-04
6.000000e+08	8.137960e+12	0.000000e+00	8.899082e-01	1.565203e+14	1.751240e+14	1.159923e+13	7.030886e+03	2.548650e+03	1.940583e+03	0	5.647055e-04
6.100000e+08	8.032533e+12	0.000000e+00	8.899082e-01	1.545696e+14	1.730338e+14	1.154247e+13	7.011068e+03	2.545220e+03	1.937971e+03	0	5.622563e-04
6.200000e+08	7.929260e+12	0.000000e+00	8.899082e-01	1.526585e+14	1.709853e+14	1.148611e+13	6.991497e+03	2.541827e+03	1.935388e+03	0	5.598363e-04
6.300000e+08	7.828081e+12	0.000000e+00	8.899082e-01	1.507860e+14	1.689775e+14	1.143015e+13	6.972166e+03	2.538471e+03	1.932832e+03	0	5.574449e-04
6.400000e+08	7.728939e+12	0.000000e+00	8.899082e-01	1.489510e+14	1.670092e+14	1.137458e+13	6.953072e+03	2.535150e+03	1.930304e+03	0	5.550816e-04
6.500000e+08	7.631776e+12	0.000000e+00	8.899082e-01	1.471525e+14	1.650793e+14	1.131940e+13	6.934209e+03	2.531864e+03	1.927802e+03	0	5.527457e-04
6.600000e+08	7.536540e+12	0.000000e+00	8.899082e-01	1.453896e+14	1.631867e+14	1.126461e+13	6.915573e+03	2.528613e+03	1.925327e+03	0	5.504369e-04
6.700000e+08	7.443179e+12	0.000000e+00	8.899082e-01	1.436611e+14	1.613306e+14	1.121021e+13	6.897159e+03	2.525396e+03	1.922877e+03	0	5.481545e-04
6.800000e+08	7.351641e+12	0.000000e+00	8.899082e-01	1.419663e+14	1.595098e+14	1.115618e+13	6.878963e+03	2.522212e+03	1.920452e+03	0	5.458981e-04
6.900000e+08	7.261878e+12	0.000000e+00	8.899082e-01	1.403042e+14	1.577236e+14	1.110254e+13	6.860982e+03	2.519060e+03	1.918053e+03	0	5.436673e-04
7.000000e+08	7.173844e+12	0.000000e+00	8.899082e-01	1.386739e+14	1.559709e+14	1.104927e+13	6.843210e+03	2.515940e+03	1.915677e+03	0	5.414614e-04
7.100000e+08	7.087492e+12	0.000000e+00	8.899082e-01	1.370747e+14	1.542509e+14	1.099638e+13	6.825643e+03	2.512852e+03	1.913326e+03	0	5.392801e-04
7.200000e+08	7.002780e+12	0.000000e+00	8.899082e-01	1.355057e+14	1.525628e+14	1.094386e+13	6.808279e+03	2.509795e+03	1.910998e+03	0	5.371229e-04
7.300000e+08	6.919664e+12	0.000000e+00	8.899082e-01	1.339661e+14	1.509057e+14	1.089170e+13	6.791113e+03	2.506768e+03	1.908694e+03	0	5.349894e-04
7.400000e+08	6.838103e+12	0.000000e+00	8.899082e-01	1.324551e+14	1.492788e+14	1.083991e+13	6.774141e+03	2.503772e+03	1.906412e+03	0	5.328792e-04
7.500000e+08	6.758058e+12	0.000000e+00	8.899082e-01	1.309722e+14	1.476814e+14	1.078847e+13	6.757360e+03	2.500804e+03	1.904152e+03	0	5.307917e-04
7.600000e+08	6.679490e+12	0.000000e+00	8.899082e-01	1.295164e+14	1.461128e+14	1.073740e+13	6.740766e+03	2.497865e+03	1.901915e+03	0	5.287268e-04
7.700000e+08	6.602361e+12	0.000000e+00	8.899082e-01	1.280872e+14	1.445721e+14	1.068668e+13	6.724355e+03	2.494955e+03	1.899699e+03	0	5.266838e-04
7.800000e+08	6.526637e+12	0.000000e+00	8.899082e-01	1.266839e+14	1.430588e+14	1.063632e+13	6.708126e+03	2.492073e+03	1.897504e+03	0	5.246625e-04
7.900000e+08	6.452281e+12	0.000000e+00	8.899082e-01	1.253058e+14	1.415722e+14	1.058630e+13	6.692073e+03	2.489218e+03	1.895331e+03	0	5.226624e-04
8.000000e+08	6.379261e+12	0.000000e+00	8.899082e-01	1.239524e+14	1.401115e+14	1.053663e+13	6.676194e+03	2.486390e+03	1.893177e+03	0	5.206833e-04
8.100000e+08	6.307542e+12	0.000000e+00	8.899082e-01	1.226229e+14	1.386763e+14	1.048731e+13	6.660487e+03	2.483589e+03	1.891044e+03	0	5.187247e-04
8.200000e+08	6.237094e+12	0.000000e+00	8.899082e-01	1.213169e+14	1.372657e+14	1.043832e+13	6.644947e+03	2.480814e+03	1.888931e+03	0	5.167863e-04
8.300000e+08	6.167886e+12	0.000000e+00	8.899082e-01	1.200338e+14	1.358794e+14	1.038968e+13	6.629572e+03	2.478064e+03	1.886838e+03	0	5.148677e-04
8.400000e+08	6.099887e+12	0.000000e+00	8.899082e-01	1.187729e+14	1.345166e+14	1.034137e+13	6.614360e+03	2.475340e+03	1.884764e+03	0	5.129686e-04
8.500000e+08	6.033070e+12	0.000000e+00	8.899082e-01	1.175339e+14	1.331769e+14	1.029339e+13	6.599306e+03	2.472641e+03	1.882708e+03	0	5.110887e-04
8.600000e+08	5.967405e+12	0.000000e+00	8.899082e-01	1.163161e+14	1.318596e+14	1.024575e+13	6.584409e+03	2.469966e+03	1.880672e+03	0	5.092277e-04
8.700000e+08	5.902866e+12	0.000000e+00	8.899082e-01	1.151191e+14	1.305643e+14	1.019843e+13	6.569666e+03	2.467315e+03	1.878653e+03	0	5.073852e-04
8.800000e+08	5.839425e+12	0.000000e+00	8.899082e-01	1.139424e+14	1.292905e+14	1.015144e+13	6.555074e+03	2.464688e+03	1.876653e+03	0	5.055610e-04
8.900000e+08	5.777059e+12	0.000000e+00	8.899082e-01	1.127854e+14	1.280376e+14	1.010477e+13	6.540631e+03	2.462084e+03	1.874671e+03	0	5.037547e-04
9.000000e+08	5.715741e+12	0.000000e+00	8.899082e-01	1.116478e+14	1.268052e+14	1.005842e+13	6.526334e+03	2.459504e+03	1.872706e+03	0	5.019661e-04
9.100000e+08	5.655448e+12	0.000000e+00	8.899082e-01	1.105292e+14	1.255928e+14	1.001239e+13	6.512181e+03	2.456946e+03	1.870758e+03	0	5.001948e-04
9.200000e+08	5.596155e+12	0.000000e+00	8.899082e-01	1.094290e+14	1.244000e+14	9.966678e+12	6.498169e+03	2.454410e+03	1.868827e+03	0	4.984406e-04
9.300000e+08	5.537841e+12	0.000000e+00	8.899082e-01	1.083468e+14	1.232263e+14	9.921276e+12	6.484296e+03	2.451896e+03	1.866913e+03	0	4.967033e-04
9.400000e+08	5.480483e+12	0.000000e+00	8.899082e-01	1.072823e+14	1.220713e+14	9.876183e+12	6.470560e+03	2.449404e+03	1.865016e+03	0	4.949825e-04
9.500000e+08	5.424060e+12	0.000000e+00	8.899082e-01	1.062350e+14	1.209346e+14	9.831399e+12	6.456958e+03	2.446933e+03	1.863135e+03	0	4.932779e-04
9.600000e+08	5.368550e+12	0.000000e+00	8.899082e-01	1.052046e+14	1.198158e+14	9.786920e+12	6.443489e+03	2.444484e+03	1.861269e+03	0	4.915894e-04
9.700000e+08	5.313934e+12	0.000000e+00	8.899082e-01	1.041907e+14	1.187144e+14	9.742744e+12	6.430150e+03	2.442055e+03	1.859420e+03	0	4.899167e-04
9.800000e+08	5.260192e+12	0.000000e+00	8.899082e-01	1.031930e+14	1.176302e+14	9.698868e+12	6.416939e+03	2.439646e+03	1.857586e+03	0	4.882595e-04
9.900000e+08	5.207304e+12	0.000000e+00	8.899082e-01	1.022110e+14	1.165627e+14	9.655291e+12	6.403854e+03	2.437257e+03	1.855767e+03	0	4.866176e-04
1.000000e+09	5.155252e+12	0.000000e+00	8.899082e-01	1.012444e+14	1.155115e+14	9.612009e+12	6.390894e+03	2.434888e+03	1.853963e+03	0	4.849908e-04
1.010000e+09	5.104019e+12	0.000000e+00	8.899082e-01	1.002929e+14	1.144764e+14	9.569021e+12	6.378055e+03	2.432539e+03	1.852174e+03	0	4.833788e-04
1.020000e+09	5.053585e+12	0.000000e+00	8.899082e-01	9.935626e+13	1.134570e+14	9.526324e+12	6.365337e+03	2.430209e+03	1.850400e+03	0	4.817814e-04
1.030000e+09	5.003934e+12	0.000000e+00	8.899082e-01	9.843402e+13	1.124529e+14	9.483916e+12	6.352738e+03	2.427898e+03	1.848641e+03	0	4.801984e-04
1.040000e+09	4.955050e+12	0.000000e+00	8.899082e-01	9.752594e+13	1.114639e+14	9.441795e+12	6.340255e+03	2.425605e+03	1.846895e+03	0	4.786296e-04
1.050000e+09	4.906916e+12	0.000000e+00	8.899082e-01	9.663171e+13	1.104895e+14	9.399958e+12	6.327886e+03	2.423331e+03	1.845164e+03	0	4.770747e-04
1.060000e+09	4.859516e+12	0.000000e+00	8.899082e-01	9.575105e+13	1.095296e+14	9.358404e+12	6.315631e+03	2.421076e+03	1.843446e+03	0	4.755336e-04
1.070000e+09	4.812836e+12	0.000000e+00	8.899082e-01	9.488365e+13	1.085838e+14	9.317129e+12	6.303487e+03	2.418838e+03	1.841742e+03	0	4.740060e-04
1.080000e+09	4.766859e+12	0.000000e+00	8.899082e-01	9.402927e+13	1.076518e+14	9.276132e+12	6.291453e+03	2.416617e+03	1.840051e+03	0	4.724918e-04
1.090000e+09	4.721571e+12	0.000000e+00	8.899082e-01	9.318761e+13	1.067334e+14	9.235411e+12	6.279527e+03	2.414414e+03	1.838374e+03	0	4.709908e-04
1.100000e+09	4.676959e+12	0.000000e+00	8.899082e-01	9.235843e+13	1.058282e+14	9.194963e+12	6.267708e+03	2.412229e+03	1.836710e+03	0	4.695027e-04
1.110000e+09	4.633009e+12	0.000000e+00	8.899082e-01	9.154146e+13	1.049361e+14	9.154786e+12	6.255993e+03	2.410060e+03	1.835058e+03	0	4.680273e-04
1.120000e+09	4.589706e+12	0.000000e+00	8.899082e-01	9.073646e+13	1.040566e+14	9.114879e+12	6.244381e+03	2.407908e+03	1.833420e+03	0	4.665646e-04
1.130000e+09	4.547038e+12	0.000000e+00	8.899082e-01	8.994319e+13	1.031897e+14	9.075238e+12	6.232872e+03	2.405772e+03	1.831794e+03	0	4.651143e-04
1.140000e+09	4.504992e+12	0.000000e+00	8.899082e-01	8.916141e+13	1.023350e+14	9.035863e+12	6.221463e+03	2.403653e+03	1.830180e+03	0	4.636763e-04
1.150000e+09	4.463556e+12	0.000000e+00	8.899082e-01	8.839089e+13	1.014923e+14	8.996750e+12	6.210152e+03	2.401550e+03	1.828579e+03	0	4.622503e-04
1.160000e+09	4.422717e+12	0.000000e+00	8.899082e-01	8.763142e+13	1.006613e+14	8.957898e+12	6.198939e+03	2.399463e+03	1.826989e+03	0	4.608362e-04
1.170000e+09	4.382463e+12	0.000000e+00	8.899082e-01	8.688276e+13	9.984193e+13	8.919306e+12	6.187822e+03	2.397391e+03	1.825412e+03	0	4.594338e-04
1.180000e+09	4.342784e+12	0.000000e+00	8.899082e-01	8.614471e+13	9.903383e+13	8.880969e+12	6.176800e+03	2.395335e+03	1.823846e+03	0	4.580430e-04
1.190000e+09	4.303667e+12	0.000000e+00	8.899082e-01	8.541705e+13	9.823682e+13	8.842888e+12	6.165872e+03	2.393293e+03	1.822292e+03	0	4.566636e-04
1.200000e+09	4.265102e+12	0.000000e+00	8.899082e-01	8.469960e+13	9.745068e+13	8.805060e+12	6.155035e+03	2.391267e+03	1.820749e+03	0	4.552955e-04
1.210000e+09	4.227079e+12	0.000000e+00	8.899082e-01	8.399215e+13	9.667522e+13	8.767482e+12	6.144289e+03	2.389256e+03	1.819218e+03	0	4.539385e-04
1.220000e+09	4.189586e+12	0.000000e+00	8.899082e-01	8.329450e+13	9.591022e+13	8.730154e+12	6.133633e+03	2.387260e+03	1.817698e+03	0	4.525924e-04
1.230000e+09	4.152613e+12	0.000000e+00	8.899082e-01	8.260648e+13	9.515550e+13	8.693072e+12	6.123065e+03	2.385278e+03	1.816189e+03	0	4.512571e-04
1.240000e+09	4.116151e+12	0.000000e+00	8.899082e-01	8.192789e+13	9.441085e+13	8.656236e+12	6.112583e+03	2.383310e+03	1.814690e+03	0	4.499324e-04
1.250000e+09	4.080190e+12	0.000000e+00	8.899082e-01	8.125857e+13	9.367609e+13	8.619642e+12	6.102188e+03	2.381356e+03	1.813203e+03	0	4.486183e-04
1.260000e+09	4.044721e+12	0.000000e+00	8.899082e-01	8.059832e+13	9.295104e+13	8.583290e+12	6.091878e+03	2.379416e+03	1.811726e+03	0	4.473146e-04
1.270000e+09	4.009733e+12	0.000000e+00	8.899082e-01	7.994699e+13	9.223551e+13	8.547178e+12	6.081651e+03	2.377490e+03	1.810259e+03	0	4.460210e-04
1.280000e+09	3.975219e+12	0.000000e+00	8.899082e-01	7.930441e+13	9.152934e+13	8.511303e+12	6.071506e+03	2.375578e+03	1.808803e+03	0	4.447376e-04
1.290000e+09	3.941169e+12	0.000000e+00	8.899082e-01	7.867041e+13	9.083235e+13	8.475663e+12	6.061443e+03	2.373679e+03	1.807357e+03	0	4.434642e-04
1.300000e+09	3.907574e+12	0.000000e+00	8.899082e-01	7.804484e+13	9.014437e+13	8.440258e+12	6.051460e+03	2.371793e+03	1.805921e+03	0	4.422005e-04
1.310000e+09	3.874427e+12	0.000000e+00	8.899082e-01	7.742754e+13	8.946524e+13	8.405085e+12	6.041557e+03	2.369920e+03	1.804495e+03	0	4.409466e-04
1.320000e+09	3.841719e+12	0.000000e+00	8.899082e-01	7.681837e+13	8.879481e+13	8.370142e+12	6.031731e+03	2.368060e+03	1.803079e+03	0	4.397023e-04
1.330000e+09	3.809443e+12	0.000000e+00	8.899082e-01	7.621716e+13	8.813291e+13	8.335427e+12	6.021982e+03	2.366213e+03	1.801673e+03	0	4.384674e-04
1.340000e+09	3.777589e+12	0.000000e+00	8.899082e-01	7.562379e+13	8.747939e+13	8.300940e+12	6.012310e+03	2.364379e+03	1.800276e+03	0	4.372419e-04
1.350000e+09	3.746152e+12	0.000000e+00	8.899082e-01	7.503810e+13	8.683411e+13	8.266677e+12	6.002713e+03	2.362557e+03	1.798889e+03	0	4.360256e-04
1.360000e+09	3.715122e+12	0.000000e+00	8.899082e-01	7.445996e+13	8.619692e+13	8.232638e+12	5.993190e+03	2.360747e+03	1.797511e+03	0	4.348184e-04
