#t		Qconv[W]	Ri[Rp]		R*[Rp]		Qc[W]		Qm[W]		Qr[W]		Tcmb[K]		Tl[K]		Tup[K]		RiFlag		Bs[T]
0.000000e+00	3.196358e+14	0.000000e+00	8.888888e-01	3.708322e+15	1.108725e+15	3.540205e+13	1.763777e+04	3.640969e+03	2.438749e+03	0	1.841747e-03
1.000000e+07	3.142965e+14	0.000000e+00	8.888888e-01	3.647102e+15	2.293587e+15	3.520590e+13	1.746237e+04	4.162103e+03	2.787808e+03	0	1.831434e-03
2.000000e+07	3.059036e+14	0.000000e+00	8.888888e-01	3.551492e+15	3.036601e+15	3.501121e+13	1.728983e+04	4.408961e+03	2.953156e+03	0	1.814985e-03
3.000000e+07	2.967965e+14	0.000000e+00	8.888888e-01	3.447863e+15	3.328530e+15	3.481798e+13	1.712176e+04	4.502209e+03	3.015614e+03	0	1.796792e-03
4.000000e+07	2.877553e+14	0.000000e+00	8.888888e-01	3.345006e+15	3.386884e+15	3.462619e+13	1.695856e+04	4.527983e+03	3.032878e+03	0	1.778358e-03
5.000000e+07	2.790041e+14	0.000000e+00	8.888888e-01	3.245446e+15	3.348885e+15	3.443583e+13	1.680018e+04	4.526757e+03	3.032057e+03	0	1.760145e-03
6.000000e+07	2.706024e+14	0.000000e+00	8.888888e-01	3.149852e+15	3.275336e+15	3.424689e+13	1.664648e+04	4.515129e+03	3.024268e+03	0	1.742296e-03
7.000000e+07	2.625579e+14	0.000000e+00	8.888888e-01	3.058310e+15	3.190454e+15	3.405936e+13	1.649727e+04	4.499640e+03	3.013893e+03	0	1.724857e-03
8.000000e+07	2.548608e+14	0.000000e+00	8.888888e-01	2.970709e+15	3.103545e+15	3.387322e+13	1.635237e+04	4.482851e+03	3.002648e+03	0	1.707835e-03
9.000000e+07	2.474957e+14	0.000000e+00	8.888888e-01	2.886872e+15	3.018109e+15	3.368847e+13	1.621158e+04	4.465771e+03	2.991208e+03	0	1.691222e-03
1.000000e+08	2.404455e+14	0.000000e+00	8.888888e-01	2.806607e+15	2.935403e+15	3.350509e+13	1.607473e+04	4.448798e+03	2.979839e+03	0	1.675008e-03
1.100000e+08	2.336933e+14	0.000000e+00	8.888888e-01	2.729724e+15	2.855810e+15	3.332306e+13	1.594166e+04	4.432087e+03	2.968646e+03	0	1.659180e-03
1.200000e+08	2.272231e+14	0.000000e+00	8.888888e-01	2.656039e+15	2.779379e+15	3.314239e+13	1.581221e+04	4.415694e+03	2.957666e+03	0	1.643724e-03
1.300000e+08	2.210196e+14	0.000000e+00	8.888888e-01	2.585380e+15	2.706028e+15	3.296306e+13	1.568623e+04	4.399636e+03	2.946910e+03	0	1.628627e-03
1.400000e+08	2.150685e+14	0.000000e+00	8.888888e-01	2.517585e+15	2.635628e+15	3.278505e+13	1.556358e+04	4.383914e+03	2.936379e+03	0	1.613877e-03
1.500000e+08	2.093564e+14	0.000000e+00	8.888888e-01	2.452502e+15	2.568038e+15	3.260836e+13	1.544411e+04	4.368521e+03	2.926069e+03	0	1.599461e-03
1.600000e+08	2.038707e+14	0.000000e+00	8.888888e-01	2.389989e+15	2.503117e+15	3.243298e+13	1.532772e+04	4.353449e+03	2.915974e+03	0	1.585367e-03
1.700000e+08	1.985997e+14	0.000000e+00	8.888888e-01	2.329913e+15	2.440730e+15	3.225888e+13	1.521427e+04	4.338687e+03	2.906086e+03	0	1.571584e-03
1.800000e+08	1.935325e+14	0.000000e+00	8.888888e-01	2.272150e+15	2.380747e+15	3.208608e+13	1.510365e+04	4.324226e+03	2.896400e+03	0	1.558103e-03
1.900000e+08	1.886586e+14	0.000000e+00	8.888888e-01	2.216581e+15	2.323046e+15	3.191454e+13	1.499576e+04	4.310056e+03	2.886909e+03	0	1.544912e-03
2.000000e+08	1.839684e+14	0.000000e+00	8.888888e-01	2.163099e+15	2.267514e+15	3.174427e+13	1.489048e+04	4.296168e+03	2.877606e+03	0	1.532002e-03
2.100000e+08	1.794528e+14	0.000000e+00	8.888888e-01	2.111599e+15	2.214043e+15	3.157525e+13	1.478773e+04	4.282552e+03	2.868486e+03	0	1.519363e-03
2.200000e+08	1.751033e+14	0.000000e+00	8.888888e-01	2.061984e+15	2.162531e+15	3.140747e+13	1.468741e+04	4.269201e+03	2.859543e+03	0	1.506987e-03
2.300000e+08	1.709118e+14	0.000000e+00	8.888888e-01	2.014165e+15	2.112884e+15	3.124092e+13	1.458944e+04	4.256105e+03	2.850772e+03	0	1.494866e-03
2.400000e+08	1.668708e+14	0.000000e+00	8.888888e-01	1.968055e+15	2.065012e+15	3.107559e+13	1.449372e+04	4.243257e+03	2.842166e+03	0	1.482990e-03
2.500000e+08	1.629732e+14	0.000000e+00	8.888888e-01	1.923573e+15	2.018832e+15	3.091147e+13	1.440017e+04	4.230650e+03	2.833722e+03	0	1.471353e-03
2.600000e+08	1.592123e+14	0.000000e+00	8.888888e-01	1.880644e+15	1.974264e+15	3.074856e+13	1.430873e+04	4.218275e+03	2.825433e+03	0	1.459947e-03
2.700000e+08	1.555817e+14	0.000000e+00	8.888888e-01	1.839196e+15	1.931233e+15	3.058683e+13	1.421931e+04	4.206127e+03	2.817296e+03	0	1.448764e-03
2.800000e+08	1.520756e+14	0.000000e+00	8.888888e-01	1.799162e+15	1.889670e+15	3.042629e+13	1.413186e+04	4.194198e+03	2.809306e+03	0	1.437798e-03
2.900000e+08	1.486882e+14	0.000000e+00	8.888888e-01	1.760477e+15	1.849507e+15	3.026692e+13	1.404629e+04	4.182482e+03	2.801458e+03	0	1.427043e-03
3.000000e+08	1.454142e+14	0.000000e+00	8.888888e-01	1.723082e+15	1.810683e+15	3.010871e+13	1.396256e+04	4.170972e+03	2.793749e+03	0	1.416491e-03
3.100000e+08	1.422488e+14	0.000000e+00	8.888888e-01	1.686919e+15	1.773137e+15	2.995165e+13	1.388059e+04	4.159663e+03	2.786174e+03	0	1.406137e-03
3.200000e+08	1.391870e+14	0.000000e+00	8.888888e-01	1.651935e+15	1.736813e+15	2.979574e+13	1.380033e+04	4.148549e+03	2.778730e+03	0	1.395975e-03
3.300000e+08	1.362244e+14	0.000000e+00	8.888888e-01	1.618079e+15	1.701660e+15	2.964096e+13	1.372173e+04	4.137625e+03	2.771413e+03	0	1.386000e-03
3.400000e+08	1.333568e+14	0.000000e+00	8.888888e-01	1.585303e+15	1.667626e+15	2.948730e+13	1.364473e+04	4.126885e+03	2.764219e+03	0	1.376205e-03
3.500000e+08	1.305800e+14	0.000000e+00	8.888888e-01	1.553560e+15	1.634664e+15	2.933476e+13	1.356927e+04	4.116324e+03	2.757145e+03	0	1.366586e-03
3.600000e+08	1.278904e+14	0.000000e+00	8.888888e-01	1.522808e+15	1.602729e+15	2.918332e+13	1.349532e+04	4.105937e+03	2.750188e+03	0	1.357139e-03
3.700000e+08	1.252843e+14	0.000000e+00	8.888888e-01	1.493005e+15	1.571779e+15	2.903298e+13	1.342283e+04	4.095720e+03	2.743345e+03	0	1.347857e-03
3.800000e+08	1.227583e+14	0.000000e+00	8.888888e-01	1.464113e+15	1.541772e+15	2.888373e+13	1.335175e+04	4.085669e+03	2.736612e+03	0	1.338736e-03
3.900000e+08	1.203090e+14	0.000000e+00	8.888888e-01	1.436094e+15	1.512670e+15	2.873556e+13	1.328203e+04	4.075777e+03	2.729987e+03	0	1.329773e-03
4.000000e+08	1.179334e+14	0.000000e+00	8.888888e-01	1.408913e+15	1.484438e+15	2.858846e+13	1.321365e+04	4.066043e+03	2.723467e+03	0	1.320962e-03
4.100000e+08	1.156286e+14	0.000000e+00	8.888888e-01	1.382538e+15	1.457040e+15	2.844242e+13	1.314654e+04	4.056461e+03	2.717048e+03	0	1.312300e-03
4.200000e+08	1.133917e+14	0.000000e+00	8.888888e-01	1.356935e+15	1.430443e+15	2.829743e+13	1.308069e+04	4.047027e+03	2.710730e+03	0	1.303783e-03
4.300000e+08	1.112201e+14	0.000000e+00	8.888888e-01	1.332076e+15	1.404615e+15	2.815348e+13	1.301605e+04	4.037738e+03	2.704508e+03	0	1.295406e-03
4.400000e+08	1.091112e+14	0.000000e+00	8.888888e-01	1.307931e+15	1.379528e+15	2.801057e+13	1.295259e+04	4.028590e+03	2.698380e+03	0	1.287166e-03
4.500000e+08	1.070627e+14	0.000000e+00	8.888888e-01	1.284472e+15	1.355153e+15	2.786869e+13	1.289028e+04	4.019580e+03	2.692345e+03	0	1.279060e-03
4.600000e+08	1.050723e+14	0.000000e+00	8.888888e-01	1.261675e+15	1.331462e+15	2.772783e+13	1.282907e+04	4.010703e+03	2.686400e+03	0	1.271084e-03
4.700000e+08	1.031377e+14	0.000000e+00	8.888888e-01	1.239513e+15	1.308430e+15	2.758798e+13	1.276895e+04	4.001958e+03	2.680542e+03	0	1.263234e-03
4.800000e+08	1.012568e+14	0.000000e+00	8.888888e-01	1.217963e+15	1.286032e+15	2.744912e+13	1.270987e+04	3.993340e+03	2.674770e+03	0	1.255508e-03
4.900000e+08	9.942777e+13	0.000000e+00	8.888888e-01	1.197003e+15	1.264245e+15	2.731127e+13	1.265182e+04	3.984847e+03	2.669081e+03	0	1.247903e-03
5.000000e+08	9.764860e+13	0.000000e+00	8.888888e-01	1.176611e+15	1.243046e+15	2.717440e+13	1.259477e+04	3.976476e+03	2.663474e+03	0	1.240414e-03
5.100000e+08	9.591749e+13	0.000000e+00	8.888888e-01	1.156766e+15	1.222414e+15	2.703850e+13	1.253868e+04	3.968223e+03	2.657946e+03	0	1.233041e-03
5.200000e+08	9.423272e+13	0.000000e+00	8.888888e-01	1.137450e+15	1.202329e+15	2.690358e+13	1.248353e+04	3.960086e+03	2.652496e+03	0	1.225779e-03
5.300000e+08	9.259263e+13	0.000000e+00	8.888888e-01	1.118642e+15	1.182772e+15	2.676962e+13	1.242929e+04	3.952063e+03	2.647122e+03	0	1.218626e-03
5.400000e+08	9.099563e+13	0.000000e+00	8.888888e-01	1.100325e+15	1.163722e+15	2.663661e+13	1.237595e+04	3.944150e+03	2.641822e+03	0	1.211579e-03
5.500000e+08	8.944022e+13	0.000000e+00	8.888888e-01	1.082482e+15	1.145164e+15	2.650455e+13	1.232348e+04	3.936345e+03	2.636594e+03	0	1.204636e-03
5.600000e+08	8.792496e+13	0.000000e+00	8.888888e-01	1.065096e+15	1.127079e+15	2.637343e+13	1.227186e+04	3.928646e+03	2.631437e+03	0	1.197794e-03
5.700000e+08	8.644844e+13	0.000000e+00	8.888888e-01	1.048152e+15	1.109452e+15	2.624324e+13	1.222106e+04	3.921050e+03	2.626350e+03	0	1.191051e-03
5.800000e+08	8.500936e+13	0.000000e+00	8.888888e-01	1.031635e+15	1.092266e+15	2.611397e+13	1.217106e+04	3.913556e+03	2.621330e+03	0	1.184405e-03
5.900000e+08	8.360645e+13	0.000000e+00	8.888888e-01	1.015530e+15	1.075508e+15	2.598562e+13	1.212185e+04	3.906160e+03	2.616376e+03	0	1.177854e-03
6.000000e+08	8.223848e+13	0.000000e+00	8.888888e-01	9.998232e+14	1.059162e+15	2.585818e+13	1.207341e+04	3.898860e+03	2.611487e+03	0	1.171394e-03
6.100000e+08	8.090430e+13	0.000000e+00	8.888888e-01	9.845016e+14	1.043215e+15	2.573164e+13	1.202571e+04	3.891656e+03	2.606661e+03	0	1.165025e-03
6.200000e+08	7.960278e+13	0.000000e+00	8.888888e-01	9.695525e+14	1.027654e+15	2.560599e+13	1.197874e+04	3.884543e+03	2.601897e+03	0	1.158744e-03
6.300000e+08	7.833285e+13	0.000000e+00	8.888888e-01	9.549637e+14	1.012466e+15	2.548123e+13	1.193247e+04	3.877521e+03	2.597194e+03	0	1.152549e-03
6.400000e+08	7.709350e+13	0.000000e+00	8.888888e-01	9.407235e+14	9.976394e+14	2.535735e+13	1.188690e+04	3.870588e+03	2.592550e+03	0	1.146438e-03
6.500000e+08	7.588373e+13	0.000000e+00	8.888888e-01	9.268208e+14	9.831621e+14	2.523434e+13	1.184201e+04	3.863742e+03	2.587964e+03	0	1.140410e-03
6.600000e+08	7.470260e+13	0.000000e+00	8.888888e-01	9.132447e+14	9.690230e+14	2.511220e+13	1.179778e+04	3.856980e+03	2.583435e+03	0	1.134462e-03
6.700000e+08	7.354920e+13	0.000000e+00	8.888888e-01	8.999849e+14	9.552117e+14	2.499092e+13	1.175419e+04	3.850302e+03	2.578962e+03	0	1.128593e-03
6.800000e+08	7.242265e+13	0.000000e+00	8.888888e-01	8.870316e+14	9.417177e+14	2.487049e+13	1.171124e+04	3.843705e+03	2.574543e+03	0	1.122801e-03
6.900000e+08	7.132212e+13	0.000000e+00	8.888888e-01	8.743751e+14	9.285313e+14	2.475090e+13	1.166889e+04	3.837188e+03	2.570178e+03	0	1.117085e-03
7.000000e+08	7.024681e+13	0.000000e+00	8.888888e-01	8.620064e+14	9.156428e+14	2.463215e+13	1.162715e+04	3.830749e+03	2.565865e+03	0	1.111443e-03
7.100000e+08	6.919593e+13	0.000000e+00	8.888888e-01	8.499165e+14	9.030433e+14	2.451424e+13	1.158600e+04	3.824386e+03	2.561603e+03	0	1.105872e-03
7.200000e+08	6.816874e+13	0.000000e+00	8.888888e-01	8.380971e+14	8.907239e+14	2.439714e+13	1.154542e+04	3.818099e+03	2.557392e+03	0	1.100373e-03
7.300000e+08	6.716453e+13	0.000000e+00	8.888888e-01	8.265399e+14	8.786762e+14	2.428087e+13	1.150541e+04	3.811886e+03	2.553230e+03	0	1.094943e-03
7.400000e+08	6.618260e+13	0.000000e+00	8.888888e-01	8.152371e+14	8.668921e+14	2.416541e+13	1.146594e+04	3.805744e+03	2.549117e+03	0	1.089581e-03
7.500000e+08	6.522229e+13	0.000000e+00	8.888888e-01	8.041812e+14	8.553637e+14	2.405075e+13	1.142702e+04	3.799673e+03	2.545050e+03	0	1.084285e-03
7.600000e+08	6.428296e+13	0.000000e+00	8.888888e-01	7.933649e+14	8.440835e+14	2.393689e+13	1.138861e+04	3.793672e+03	2.541031e+03	0	1.079055e-03
7.700000e+08	6.336400e+13	0.000000e+00	8.888888e-01	7.827811e+14	8.330443e+14	2.382383e+13	1.135072e+04	3.787739e+03	2.537057e+03	0	1.073888e-03
7.800000e+08	6.246481e+13	0.000000e+00	8.888888e-01	7.724232e+14	8.222391e+14	2.371155e+13	1.131334e+04	3.781872e+03	2.533127e+03	0	1.068784e-03
7.900000e+08	6.158482e+13	0.000000e+00	8.888888e-01	7.622846e+14	8.116611e+14	2.360004e+13	1.127645e+04	3.776072e+03	2.529242e+03	0	1.063741e-03
8.000000e+08	6.072347e+13	0.000000e+00	8.888888e-01	7.523590e+14	8.013039e+14	2.348932e+13	1.124004e+04	3.770335e+03	2.525399e+03	0	1.058759e-03
8.100000e+08	5.988025e+13	0.000000e+00	8.888888e-01	7.426404e+14	7.911611e+14	2.337936e+13	1.120410e+04	3.764661e+03	2.521599e+03	0	1.053835e-03
8.200000e+08	5.905462e+13	0.000000e+00	8.888888e-01	7.331229e+14	7.812268e+14	2.327016e+13	1.116863e+04	3.759050e+03	2.517840e+03	0	1.048969e-03
8.300000e+08	5.824611e+13	0.000000e+00	8.888888e-01	7.238010e+14	7.714952e+14	2.316171e+13	1.113360e+04	3.753499e+03	2.514122e+03	0	1.044160e-03
8.400000e+08	5.745423e+13	0.000000e+00	8.888888e-01	7.146691e+14	7.619605e+14	2.305402e+13	1.109902e+04	3.748008e+03	2.510444e+03	0	1.039407e-03
8.500000e+08	5.667852e+13	0.000000e+00	8.888888e-01	7.057221e+14	7.526175e+14	2.294707e+13	1.106488e+04	3.742575e+03	2.506806e+03	0	1.034708e-03
8.600000e+08	5.591854e+13	0.000000e+00	8.888888e-01	6.969549e+14	7.434607e+14	2.284085e+13	1.103116e+04	3.737200e+03	2.503205e+03	0	1.030062e-03
8.700000e+08	5.517385e+13	0.000000e+00	8.888888e-01	6.883625e+14	7.344853e+14	2.273537e+13	1.099786e+04	3.731882e+03	2.499643e+03	0	1.025469e-03
8.800000e+08	5.444405e+13	0.000000e+00	8.888888e-01	6.799403e+14	7.256863e+14	2.263061e+13	1.096497e+04	3.726619e+03	2.496118e+03	0	1.020928e-03
8.900000e+08	5.372873e+13	0.000000e+00	8.888888e-01	6.716837e+14	7.170589e+14	2.252657e+13	1.093248e+04	3.721410e+03	2.492629e+03	0	1.016437e-03
9.000000e+08	5.302751e+13	0.000000e+00	8.888888e-01	6.635883e+14	7.085987e+14	2.242325e+13	1.090038e+04	3.716255e+03	2.489176e+03	0	1.011995e-03
9.100000e+08	5.234000e+13	0.000000e+00	8.888888e-01	6.556499e+14	7.003011e+14	2.232063e+13	1.086867e+04	3.711153e+03	2.485759e+03	0	1.007603e-03
9.200000e+08	5.166585e+13	0.000000e+00	8.888888e-01	6.478642e+14	6.921620e+14	2.221872e+13	1.083733e+04	3.706103e+03	2.482376e+03	0	1.003258e-03
9.300000e+08	5.100472e+13	0.000000e+00	8.888888e-01	6.402273e+14	6.841772e+14	2.211750e+13	1.080637e+04	3.701103e+03	2.479027e+03	0	9.989603e-04
9.400000e+08	5.035625e+13	0.000000e+00	8.888888e-01	6.327354e+14	6.763427e+14	2.201698e+13	1.077577e+04	3.696154e+03	2.475712e+03	0	9.947087e-04
9.500000e+08	4.972012e+13	0.000000e+00	8.888888e-01	6.253847e+14	6.686547e+14	2.191714e+13	1.074553e+04	3.691253e+03	2.472430e+03	0	9.905024e-04
9.600000e+08	4.909602e+13	0.000000e+00	8.888888e-01	6.181717e+14	6.611094e+14	2.181798e+13	1.071563e+04	3.686401e+03	2.469180e+03	0	9.863406e-04
9.700000e+08	4.848363e+13	0.000000e+00	8.888888e-01	6.110927e+14	6.537032e+14	2.171950e+13	1.068608e+04	3.681597e+03	2.465962e+03	0	9.822225e-04
9.800000e+08	4.788267e+13	0.000000e+00	8.888888e-01	6.041445e+14	6.464327e+14	2.162169e+13	1.065687e+04	3.676839e+03	2.462775e+03	0	9.781473e-04
9.900000e+08	4.729284e+13	0.000000e+00	8.888888e-01	5.973237e+14	6.392943e+14	2.152454e+13	1.062799e+04	3.672127e+03	2.459619e+03	0	9.741144e-04
1.000000e+09	4.671387e+13	0.000000e+00	8.888888e-01	5.906272e+14	6.322849e+14	2.142806e+13	1.059943e+04	3.667460e+03	2.456493e+03	0	9.701229e-04
1.010000e+09	4.614548e+13	0.000000e+00	8.888888e-01	5.840519e+14	6.254012e+14	2.133222e+13	1.057120e+04	3.662838e+03	2.453397e+03	0	9.661722e-04
1.020000e+09	4.558742e+13	0.000000e+00	8.888888e-01	5.775948e+14	6.186402e+14	2.123704e+13	1.054327e+04	3.658260e+03	2.450330e+03	0	9.622616e-04
1.030000e+09	4.503943e+13	0.000000e+00	8.888888e-01	5.712531e+14	6.119989e+14	2.114250e+13	1.051566e+04	3.653724e+03	2.447293e+03	0	9.583903e-04
1.040000e+09	4.450126e+13	0.000000e+00	8.888888e-01	5.650239e+14	6.054744e+14	2.104860e+13	1.048834e+04	3.649231e+03	2.444283e+03	0	9.545578e-04
1.050000e+09	4.397268e+13	0.000000e+00	8.888888e-01	5.589045e+14	5.990638e+14	2.095533e+13	1.046133e+04	3.644780e+03	2.441302e+03	0	9.507634e-04
1.060000e+09	4.345346e+13	0.000000e+00	8.888888e-01	5.528923e+14	5.927645e+14	2.086269e+13	1.043460e+04	3.640370e+03	2.438348e+03	0	9.470064e-04
1.070000e+09	4.294336e+13	0.000000e+00	8.888888e-01	5.469847e+14	5.865738e+14	2.077068e+13	1.040816e+04	3.636000e+03	2.435421e+03	0	9.432862e-04
1.080000e+09	4.244219e+13	0.000000e+00	8.888888e-01	5.411793e+14	5.804891e+14	2.067928e+13	1.038200e+04	3.631670e+03	2.432521e+03	0	9.396023e-04
1.090000e+09	4.194971e+13	0.000000e+00	8.888888e-01	5.354736e+14	5.745080e+14	2.058850e+13	1.035612e+04	3.627379e+03	2.429647e+03	0	9.359539e-04
1.100000e+09	4.146574e+13	0.000000e+00	8.888888e-01	5.298653e+14	5.686281e+14	2.049833e+13	1.033051e+04	3.623127e+03	2.426798e+03	0	9.323406e-04
1.110000e+09	4.099007e+13	0.000000e+00	8.888888e-01	5.243522e+14	5.628470e+14	2.040877e+13	1.030517e+04	3.618913e+03	2.423976e+03	0	9.287618e-04
1.120000e+09	4.052251e+13	0.000000e+00	8.888888e-01	5.189321e+14	5.571623e+14	2.031980e+13	1.028009e+04	3.614736e+03	2.421178e+03	0	9.252169e-04
1.130000e+09	4.006287e+13	0.000000e+00	8.888888e-01	5.136028e+14	5.515721e+14	2.023143e+13	1.025527e+04	3.610596e+03	2.418405e+03	0	9.217054e-04
1.140000e+09	3.961097e+13	0.000000e+00	8.888888e-01	5.083622e+14	5.460740e+14	2.014365e+13	1.023071e+04	3.606492e+03	2.415656e+03	0	9.182268e-04
1.150000e+09	3.916663e+13	0.000000e+00	8.888888e-01	5.032084e+14	5.406660e+14	2.005646e+13	1.020639e+04	3.602424e+03	2.412931e+03	0	9.147805e-04
1.160000e+09	3.872969e+13	0.000000e+00	8.888888e-01	4.981393e+14	5.353460e+14	1.996985e+13	1.018232e+04	3.598391e+03	2.410230e+03	0	9.113659e-04
1.170000e+09	3.829997e+13	0.000000e+00	8.888888e-01	4.931531e+14	5.301122e+14	1.988381e+13	1.015849e+04	3.594393e+03	2.407552e+03	0	9.079828e-04
1.180000e+09	3.787731e+13	0.000000e+00	8.888888e-01	4.882480e+14	5.249626e+14	1.979835e+13	1.013490e+04	3.590429e+03	2.404897e+03	0	9.046304e-04
1.190000e+09	3.746156e+13	0.000000e+00	8.888888e-01	4.834221e+14	5.198953e+14	1.971345e+13	1.011154e+04	3.586498e+03	2.402264e+03	0	9.013085e-04
1.200000e+09	3.705257e+13	0.000000e+00	8.888888e-01	4.786736e+14	5.149085e+14	1.962912e+13	1.008841e+04	3.582601e+03	2.399654e+03	0	8.980164e-04
1.210000e+09	3.665018e+13	0.000000e+00	8.888888e-01	4.740010e+14	5.100005e+14	1.954535e+13	1.006551e+04	3.578737e+03	2.397065e+03	0	8.947537e-04
1.220000e+09	3.625425e+13	0.000000e+00	8.888888e-01	4.694025e+14	5.051696e+14	1.946213e+13	1.004284e+04	3.574905e+03	2.394499e+03	0	8.915201e-04
1.230000e+09	3.586464e+13	0.000000e+00	8.888888e-01	4.648766e+14	5.004141e+14	1.937947e+13	1.002038e+04	3.571104e+03	2.391953e+03	0	8.883150e-04
1.240000e+09	3.548122e+13	0.000000e+00	8.888888e-01	4.604216e+14	4.957323e+14	1.929735e+13	9.998135e+03	3.567335e+03	2.389429e+03	0	8.851380e-04
1.250000e+09	3.510385e+13	0.000000e+00	8.888888e-01	4.560361e+14	4.911228e+14	1.921577e+13	9.976105e+03	3.563597e+03	2.386925e+03	0	8.819887e-04
1.260000e+09	3.473239e+13	0.000000e+00	8.888888e-01	4.517186e+14	4.865840e+14	1.913473e+13	9.954285e+03	3.559889e+03	2.384441e+03	0	8.788668e-04
1.270000e+09	3.436673e+13	0.000000e+00	8.888888e-01	4.474676e+14	4.821144e+14	1.905423e+13	9.932670e+03	3.556212e+03	2.381978e+03	0	8.757717e-04
1.280000e+09	3.400675e+13	0.000000e+00	8.888888e-01	4.432818e+14	4.777125e+14	1.897425e+13	9.911258e+03	3.552564e+03	2.379535e+03	0	8.727031e-04
1.290000e+09	3.365231e+13	0.000000e+00	8.888888e-01	4.391597e+14	4.733770e+14	1.889480e+13	9.890046e+03	3.548945e+03	2.377111e+03	0	8.696606e-04
1.300000e+09	3.330332e+13	0.000000e+00	8.888888e-01	4.351001e+14	4.691064e+14	1.881587e+13	9.869030e+03	3.545355e+03	2.374706e+03	0	8.666438e-04
1.310000e+09	3.295965e+13	0.000000e+00	8.888888e-01	4.311016e+14	4.648995e+14	1.873746e+13	9.848208e+03	3.541794e+03	2.372321e+03	0	8.636524e-04
1.320000e+09	3.262119e+13	0.000000e+00	8.888888e-01	4.271630e+14	4.607548e+14	1.865956e+13	9.827577e+03	3.538260e+03	2.369954e+03	0	8.606860e-04
1.330000e+09	3.228783e+13	0.000000e+00	8.888888e-01	4.232832e+14	4.566713e+14	1.858217e+13	9.807134e+03	3.534754e+03	2.367606e+03	0	8.577442e-04
1.340000e+09	3.195948e+13	0.000000e+00	8.888888e-01	4.194607e+14	4.526475e+14	1.850529e+13	9.786876e+03	3.531276e+03	2.365276e+03	0	8.548267e-04
1.350000e+09	3.163603e+13	0.000000e+00	8.888888e-01	4.156947e+14	4.486824e+14	1.842891e+13	9.766801e+03	3.527824e+03	2.362964e+03	0	8.519331e-04
1.360000e+09	3.131738e+13	0.000000e+00	8.888888e-01	4.119837e+14	4.447747e+14	1.835302e+13	9.746905e+03	3.524399e+03	2.360670e+03	0	8.490631e-04
