#t		Qconv[W]	Ri[Rp]		R*[Rp]		Qc[W]		Qm[W]		Qr[W]		Tcmb[K]		Tl[K]		Tup[K]		RiFlag		Bs[T]
0.000000e+00	1.162838e+14	0.000000e+00	8.878504e-01	1.311229e+15	8.388071e+14	4.314585e+13	1.353910e+04	3.469684e+03	2.516521e+03	0	1.304243e-03
1.000000e+07	1.156116e+14	0.000000e+00	8.878504e-01	1.303916e+15	9.750494e+14	4.290679e+13	1.348995e+04	3.560663e+03	2.582507e+03	0	1.301725e-03
2.000000e+07	1.146164e+14	0.000000e+00	8.878504e-01	1.293306e+15	1.078891e+15	4.266952e+13	1.344106e+04	3.625388e+03	2.629451e+03	0	1.297979e-03
3.000000e+07	1.133998e+14	0.000000e+00	8.878504e-01	1.280439e+15	1.152315e+15	4.243402e+13	1.339257e+04	3.669721e+03	2.661605e+03	0	1.293370e-03
4.000000e+07	1.120397e+14	0.000000e+00	8.878504e-01	1.266112e+15	1.200551e+15	4.220028e+13	1.334456e+04	3.698945e+03	2.682801e+03	0	1.288178e-03
5.000000e+07	1.105926e+14	0.000000e+00	8.878504e-01	1.250901e+15	1.229493e+15	4.196828e+13	1.329708e+04	3.717334e+03	2.696139e+03	0	1.282608e-03
6.000000e+07	1.090977e+14	0.000000e+00	8.878504e-01	1.235206e+15	1.244388e+15	4.173802e+13	1.325017e+04	3.728121e+03	2.703962e+03	0	1.276803e-03
7.000000e+07	1.075816e+14	0.000000e+00	8.878504e-01	1.219301e+15	1.249398e+15	4.150946e+13	1.320385e+04	3.733651e+03	2.707973e+03	0	1.270861e-03
8.000000e+07	1.060622e+14	0.000000e+00	8.878504e-01	1.203368e+15	1.247620e+15	4.128261e+13	1.315812e+04	3.735581e+03	2.709373e+03	0	1.264849e-03
9.000000e+07	1.045513e+14	0.000000e+00	8.878504e-01	1.187527e+15	1.241267e+15	4.105744e+13	1.311299e+04	3.735061e+03	2.708996e+03	0	1.258815e-03
1.000000e+08	1.030566e+14	0.000000e+00	8.878504e-01	1.171856e+15	1.231887e+15	4.083395e+13	1.306845e+04	3.732885e+03	2.707417e+03	0	1.252787e-03
1.100000e+08	1.015828e+14	0.000000e+00	8.878504e-01	1.156404e+15	1.220545e+15	4.061211e+13	1.302450e+04	3.729593e+03	2.705030e+03	0	1.246786e-03
1.200000e+08	1.001329e+14	0.000000e+00	8.878504e-01	1.141202e+15	1.207966e+15	4.039192e+13	1.298112e+04	3.725556e+03	2.702102e+03	0	1.240826e-03
1.300000e+08	9.870876e+13	0.000000e+00	8.878504e-01	1.126268e+15	1.194642e+15	4.017336e+13	1.293831e+04	3.721027e+03	2.698817e+03	0	1.234915e-03
1.400000e+08	9.731120e+13	0.000000e+00	8.878504e-01	1.111610e+15	1.180905e+15	3.995641e+13	1.289606e+04	3.716177e+03	2.695299e+03	0	1.229060e-03
1.500000e+08	9.594061e+13	0.000000e+00	8.878504e-01	1.097233e+15	1.166979e+15	3.974107e+13	1.285435e+04	3.711124e+03	2.691635e+03	0	1.223262e-03
1.600000e+08	9.459699e+13	0.000000e+00	8.878504e-01	1.083136e+15	1.153014e+15	3.952733e+13	1.281318e+04	3.705948e+03	2.687881e+03	0	1.217525e-03
1.700000e+08	9.328010e+13	0.000000e+00	8.878504e-01	1.069317e+15	1.139110e+15	3.931515e+13	1.277254e+04	3.700705e+03	2.684078e+03	0	1.211848e-03
1.800000e+08	9.198957e+13	0.000000e+00	8.878504e-01	1.055772e+15	1.125331e+15	3.910454e+13	1.273242e+04	3.695432e+03	2.680253e+03	0	1.206234e-03
1.900000e+08	9.072491e+13	0.000000e+00	8.878504e-01	1.042496e+15	1.111722e+15	3.889549e+13	1.269280e+04	3.690154e+03	2.676425e+03	0	1.200681e-03
2.000000e+08	8.948558e+13	0.000000e+00	8.878504e-01	1.029483e+15	1.098309e+15	3.868797e+13	1.265368e+04	3.684890e+03	2.672607e+03	0	1.195188e-03
2.100000e+08	8.827101e+13	0.000000e+00	8.878504e-01	1.016727e+15	1.085110e+15	3.848198e+13	1.261505e+04	3.679651e+03	2.668808e+03	0	1.189756e-03
2.200000e+08	8.708061e+13	0.000000e+00	8.878504e-01	1.004222e+15	1.072133e+15	3.827750e+13	1.257689e+04	3.674445e+03	2.665032e+03	0	1.184384e-03
2.300000e+08	8.591378e+13	0.000000e+00	8.878504e-01	9.919623e+14	1.059385e+15	3.807452e+13	1.253920e+04	3.669279e+03	2.661285e+03	0	1.179070e-03
2.400000e+08	8.476993e+13	0.000000e+00	8.878504e-01	9.799415e+14	1.046865e+15	3.787303e+13	1.250197e+04	3.664154e+03	2.657568e+03	0	1.173814e-03
2.500000e+08	8.364849e+13	0.000000e+00	8.878504e-01	9.681536e+14	1.034573e+15	3.767301e+13	1.246519e+04	3.659075e+03	2.653884e+03	0	1.168615e-03
2.600000e+08	8.254888e+13	0.000000e+00	8.878504e-01	9.565926e+14	1.022506e+15	3.747446e+13	1.242884e+04	3.654041e+03	2.650233e+03	0	1.163471e-03
2.700000e+08	8.147055e+13	0.000000e+00	8.878504e-01	9.452528e+14	1.010663e+15	3.727736e+13	1.239294e+04	3.649054e+03	2.646616e+03	0	1.158383e-03
2.800000e+08	8.041294e+13	0.000000e+00	8.878504e-01	9.341285e+14	9.990375e+14	3.708170e+13	1.235745e+04	3.644113e+03	2.643033e+03	0	1.153349e-03
2.900000e+08	7.937553e+13	0.000000e+00	8.878504e-01	9.232143e+14	9.876265e+14	3.688747e+13	1.232238e+04	3.639220e+03	2.639484e+03	0	1.148367e-03
3.000000e+08	7.835780e+13	0.000000e+00	8.878504e-01	9.125049e+14	9.764252e+14	3.669465e+13	1.228772e+04	3.634374e+03	2.635968e+03	0	1.143438e-03
3.100000e+08	7.735926e+13	0.000000e+00	8.878504e-01	9.019950e+14	9.654288e+14	3.650324e+13	1.225346e+04	3.629573e+03	2.632487e+03	0	1.138560e-03
3.200000e+08	7.637942e+13	0.000000e+00	8.878504e-01	8.916796e+14	9.546328e+14	3.631322e+13	1.221960e+04	3.624819e+03	2.629038e+03	0	1.133733e-03
3.300000e+08	7.541781e+13	0.000000e+00	8.878504e-01	8.815540e+14	9.440323e+14	3.612459e+13	1.218611e+04	3.620109e+03	2.625623e+03	0	1.128955e-03
3.400000e+08	7.447397e+13	0.000000e+00	8.878504e-01	8.716133e+14	9.336229e+14	3.593732e+13	1.215301e+04	3.615445e+03	2.622240e+03	0	1.124226e-03
3.500000e+08	7.354747e+13	0.000000e+00	8.878504e-01	8.618531e+14	9.234000e+14	3.575141e+13	1.212028e+04	3.610824e+03	2.618888e+03	0	1.119544e-03
3.600000e+08	7.263788e+13	0.000000e+00	8.878504e-01	8.522688e+14	9.133590e+14	3.556685e+13	1.208792e+04	3.606247e+03	2.615569e+03	0	1.114910e-03
3.700000e+08	7.174477e+13	0.000000e+00	8.878504e-01	8.428562e+14	9.034957e+14	3.538362e+13	1.205591e+04	3.601713e+03	2.612280e+03	0	1.110321e-03
3.800000e+08	7.086775e+13	0.000000e+00	8.878504e-01	8.336111e+14	8.938059e+14	3.520173e+13	1.202426e+04	3.597221e+03	2.609022e+03	0	1.105779e-03
3.900000e+08	7.000644e+13	0.000000e+00	8.878504e-01	8.245294e+14	8.842854e+14	3.502114e+13	1.199295e+04	3.592770e+03	2.605794e+03	0	1.101281e-03
4.000000e+08	6.916044e+13	0.000000e+00	8.878504e-01	8.156073e+14	8.749302e+14	3.484186e+13	1.196199e+04	3.588360e+03	2.602595e+03	0	1.096826e-03
4.100000e+08	6.832939e+13	0.000000e+00	8.878504e-01	8.068409e+14	8.657364e+14	3.466388e+13	1.193135e+04	3.583990e+03	2.599426e+03	0	1.092415e-03
4.200000e+08	6.751294e+13	0.000000e+00	8.878504e-01	7.982266e+14	8.567003e+14	3.448717e+13	1.190105e+04	3.579660e+03	2.596286e+03	0	1.088047e-03
4.300000e+08	6.671073e+13	0.000000e+00	8.878504e-01	7.897608e+14	8.478180e+14	3.431174e+13	1.187106e+04	3.575370e+03	2.593174e+03	0	1.083720e-03
4.400000e+08	6.592245e+13	0.000000e+00	8.878504e-01	7.814399e+14	8.390861e+14	3.413757e+13	1.184140e+04	3.571117e+03	2.590089e+03	0	1.079435e-03
4.500000e+08	6.514775e+13	0.000000e+00	8.878504e-01	7.732607e+14	8.305011e+14	3.396466e+13	1.181204e+04	3.566902e+03	2.587032e+03	0	1.075190e-03
4.600000e+08	6.438633e+13	0.000000e+00	8.878504e-01	7.652197e+14	8.220597e+14	3.379298e+13	1.178300e+04	3.562725e+03	2.584003e+03	0	1.070984e-03
4.700000e+08	6.363787e+13	0.000000e+00	8.878504e-01	7.573140e+14	8.137584e+14	3.362254e+13	1.175425e+04	3.558585e+03	2.581000e+03	0	1.066818e-03
4.800000e+08	6.290208e+13	0.000000e+00	8.878504e-01	7.495403e+14	8.055942e+14	3.345331e+13	1.172580e+04	3.554480e+03	2.578023e+03	0	1.062691e-03
4.900000e+08	6.217867e+13	0.000000e+00	8.878504e-01	7.418957e+14	7.975639e+14	3.328530e+13	1.169764e+04	3.550411e+03	2.575072e+03	0	1.058601e-03
5.000000e+08	6.146735e+13	0.000000e+00	8.878504e-01	7.343773e+14	7.896646e+14	3.311849e+13	1.166976e+04	3.546378e+03	2.572146e+03	0	1.054549e-03
5.100000e+08	6.076787e+13	0.000000e+00	8.878504e-01	7.269821e+14	7.818933e+14	3.295287e+13	1.164217e+04	3.542379e+03	2.569246e+03	0	1.050534e-03
5.200000e+08	6.007994e+13	0.000000e+00	8.878504e-01	7.197076e+14	7.742471e+14	3.278844e+13	1.161486e+04	3.538414e+03	2.566370e+03	0	1.046554e-03
5.300000e+08	5.940331e+13	0.000000e+00	8.878504e-01	7.125509e+14	7.667234e+14	3.262517e+13	1.158782e+04	3.534482e+03	2.563519e+03	0	1.042611e-03
5.400000e+08	5.873773e+13	0.000000e+00	8.878504e-01	7.055095e+14	7.593194e+14	3.246307e+13	1.156104e+04	3.530584e+03	2.560691e+03	0	1.038702e-03
5.500000e+08	5.808296e+13	0.000000e+00	8.878504e-01	6.985809e+14	7.520325e+14	3.230212e+13	1.153453e+04	3.526718e+03	2.557887e+03	0	1.034828e-03
5.600000e+08	5.743876e+13	0.000000e+00	8.878504e-01	6.917626e+14	7.448602e+14	3.214232e+13	1.150828e+04	3.522885e+03	2.555107e+03	0	1.030988e-03
5.700000e+08	5.680490e+13	0.000000e+00	8.878504e-01	6.850523e+14	7.378000e+14	3.198365e+13	1.148228e+04	3.519083e+03	2.552350e+03	0	1.027182e-03
5.800000e+08	5.618115e+13	0.000000e+00	8.878504e-01	6.784475e+14	7.308495e+14	3.182611e+13	1.145654e+04	3.515313e+03	2.549615e+03	0	1.023408e-03
5.900000e+08	5.556730e+13	0.000000e+00	8.878504e-01	6.719460e+14	7.240064e+14	3.166968e+13	1.143104e+04	3.511573e+03	2.546903e+03	0	1.019667e-03
6.000000e+08	5.496314e+13	0.000000e+00	8.878504e-01	6.655456e+14	7.172684e+14	3.151436e+13	1.140579e+04	3.507864e+03	2.544213e+03	0	1.015958e-03
6.100000e+08	5.436845e+13	0.000000e+00	8.878504e-01	6.592443e+14	7.106332e+14	3.136014e+13	1.138078e+04	3.504185e+03	2.541544e+03	0	1.012281e-03
6.200000e+08	5.378304e+13	0.000000e+00	8.878504e-01	6.530398e+14	7.040987e+14	3.120701e+13	1.135600e+04	3.500535e+03	2.538897e+03	0	1.008634e-03
6.300000e+08	5.320671e+13	0.000000e+00	8.878504e-01	6.469301e+14	6.976629e+14	3.105496e+13	1.133146e+04	3.496914e+03	2.536271e+03	0	1.005019e-03
6.400000e+08	5.263927e+13	0.000000e+00	8.878504e-01	6.409134e+14	6.913237e+14	3.090398e+13	1.130714e+04	3.493323e+03	2.533666e+03	0	1.001433e-03
6.500000e+08	5.208054e+13	0.000000e+00	8.878504e-01	6.349876e+14	6.850790e+14	3.075407e+13	1.128305e+04	3.489759e+03	2.531081e+03	0	9.978773e-04
6.600000e+08	5.153033e+13	0.000000e+00	8.878504e-01	6.291509e+14	6.789270e+14	3.060521e+13	1.125918e+04	3.486224e+03	2.528517e+03	0	9.943508e-04
6.700000e+08	5.098847e+13	0.000000e+00	8.878504e-01	6.234014e+14	6.728658e+14	3.045740e+13	1.123553e+04	3.482716e+03	2.525973e+03	0	9.908532e-04
6.800000e+08	5.045479e+13	0.000000e+00	8.878504e-01	6.177374e+14	6.668934e+14	3.031063e+13	1.121210e+04	3.479235e+03	2.523448e+03	0	9.873840e-04
6.900000e+08	4.992911e+13	0.000000e+00	8.878504e-01	6.121572e+14	6.610083e+14	3.016488e+13	1.118888e+04	3.475781e+03	2.520943e+03	0	9.839430e-04
7.000000e+08	4.941129e+13	0.000000e+00	8.878504e-01	6.066590e+14	6.552084e+14	3.002016e+13	1.116587e+04	3.472354e+03	2.518458e+03	0	9.805296e-04
7.100000e+08	4.890115e+13	0.000000e+00	8.878504e-01	6.012412e+14	6.494923e+14	2.987645e+13	1.114306e+04	3.468953e+03	2.515991e+03	0	9.771435e-04
7.200000e+08	4.839855e+13	0.000000e+00	8.878504e-01	5.959022e+14	6.438582e+14	2.973375e+13	1.112046e+04	3.465578e+03	2.513543e+03	0	9.737843e-04
7.300000e+08	4.790333e+13	0.000000e+00	8.878504e-01	5.906404e+14	6.383045e+14	2.959204e+13	1.109805e+04	3.462228e+03	2.511113e+03	0	9.704516e-04
7.400000e+08	4.741535e+13	0.000000e+00	8.878504e-01	5.854543e+14	6.328296e+14	2.945132e+13	1.107585e+04	3.458903e+03	2.508702e+03	0	9.671451e-04
7.500000e+08	4.693446e+13	0.000000e+00	8.878504e-01	5.803425e+14	6.274320e+14	2.931158e+13	1.105384e+04	3.455604e+03	2.506309e+03	0	9.638643e-04
7.600000e+08	4.646053e+13	0.000000e+00	8.878504e-01	5.753034e+14	6.221102e+14	2.917282e+13	1.103202e+04	3.452328e+03	2.503933e+03	0	9.606091e-04
7.700000e+08	4.599341e+13	0.000000e+00	8.878504e-01	5.703356e+14	6.168628e+14	2.903502e+13	1.101039e+04	3.449077e+03	2.501575e+03	0	9.573789e-04
7.800000e+08	4.553298e+13	0.000000e+00	8.878504e-01	5.654378e+14	6.116882e+14	2.889818e+13	1.098894e+04	3.445850e+03	2.499235e+03	0	9.541735e-04
7.900000e+08	4.507910e+13	0.000000e+00	8.878504e-01	5.606087e+14	6.065851e+14	2.876229e+13	1.096768e+04	3.442646e+03	2.496911e+03	0	9.509924e-04
8.000000e+08	4.463166e+13	0.000000e+00	8.878504e-01	5.558468e+14	6.015522e+14	2.862734e+13	1.094660e+04	3.439466e+03	2.494604e+03	0	9.478355e-04
8.100000e+08	4.419052e+13	0.000000e+00	8.878504e-01	5.511510e+14	5.965880e+14	2.849333e+13	1.092570e+04	3.436309e+03	2.492314e+03	0	9.447024e-04
8.200000e+08	4.375556e+13	0.000000e+00	8.878504e-01	5.465199e+14	5.916914e+14	2.836024e+13	1.090498e+04	3.433174e+03	2.490041e+03	0	9.415926e-04
8.300000e+08	4.332667e+13	0.000000e+00	8.878504e-01	5.419524e+14	5.868611e+14	2.822808e+13	1.088443e+04	3.430062e+03	2.487784e+03	0	9.385061e-04
8.400000e+08	4.290374e+13	0.000000e+00	8.878504e-01	5.374473e+14	5.820958e+14	2.809683e+13	1.086405e+04	3.426972e+03	2.485543e+03	0	9.354423e-04
8.500000e+08	4.248665e+13	0.000000e+00	8.878504e-01	5.330033e+14	5.773942e+14	2.796648e+13	1.084384e+04	3.423904e+03	2.483317e+03	0	9.324011e-04
8.600000e+08	4.207528e+13	0.000000e+00	8.878504e-01	5.286194e+14	5.727554e+14	2.783703e+13	1.082379e+04	3.420857e+03	2.481108e+03	0	9.293821e-04
8.700000e+08	4.166955e+13	0.000000e+00	8.878504e-01	5.242944e+14	5.681780e+14	2.770848e+13	1.080391e+04	3.417832e+03	2.478914e+03	0	9.263851e-04
8.800000e+08	4.126933e+13	0.000000e+00	8.878504e-01	5.200273e+14	5.636610e+14	2.758080e+13	1.078420e+04	3.414828e+03	2.476735e+03	0	9.234097e-04
8.900000e+08	4.087453e+13	0.000000e+00	8.878504e-01	5.158170e+14	5.592032e+14	2.745401e+13	1.076464e+04	3.411845e+03	2.474571e+03	0	9.204557e-04
9.000000e+08	4.048505e+13	0.000000e+00	8.878504e-01	5.116625e+14	5.548037e+14	2.732808e+13	1.074524e+04	3.408883e+03	2.472422e+03	0	9.175228e-04
9.100000e+08	4.010080e+13	0.000000e+00	8.878504e-01	5.075627e+14	5.504613e+14	2.720302e+13	1.072600e+04	3.405940e+03	2.470288e+03	0	9.146108e-04
9.200000e+08	3.972167e+13	0.000000e+00	8.878504e-01	5.035166e+14	5.461751e+14	2.707882e+13	1.070691e+04	3.403018e+03	2.468169e+03	0	9.117193e-04
9.300000e+08	3.934757e+13	0.000000e+00	8.878504e-01	4.995234e+14	5.419439e+14	2.695546e+13	1.068797e+04	3.400116e+03	2.466064e+03	0	9.088481e-04
9.400000e+08	3.897842e+13	0.000000e+00	8.878504e-01	4.955820e+14	5.377670e+14	2.683295e+13	1.066918e+04	3.397233e+03	2.463973e+03	0	9.059969e-04
9.500000e+08	3.861413e+13	0.000000e+00	8.878504e-01	4.916916e+14	5.336432e+14	2.671127e+13	1.065054e+04	3.394370e+03	2.461897e+03	0	9.031656e-04
9.600000e+08	3.825460e+13	0.000000e+00	8.878504e-01	4.878511e+14	5.295717e+14	2.659042e+13	1.063204e+04	3.391526e+03	2.459834e+03	0	9.003538e-04
9.700000e+08	3.789976e+13	0.000000e+00	8.878504e-01	4.840599e+14	5.255515e+14	2.647040e+13	1.061369e+04	3.388701e+03	2.457785e+03	0	8.975613e-04
9.800000e+08	3.754952e+13	0.000000e+00	8.878504e-01	4.803169e+14	5.215818e+14	2.635119e+13	1.059549e+04	3.385895e+03	2.455750e+03	0	8.947879e-04
9.900000e+08	3.720379e+13	0.000000e+00	8.878504e-01	4.766213e+14	5.176617e+14	2.623280e+13	1.057742e+04	3.383107e+03	2.453728e+03	0	8.920333e-04
1.000000e+09	3.686251e+13	0.000000e+00	8.878504e-01	4.729724e+14	5.137903e+14	2.611520e+13	1.055949e+04	3.380338e+03	2.451719e+03	0	8.892973e-04
1.010000e+09	3.652560e+13	0.000000e+00	8.878504e-01	4.693693e+14	5.099668e+14	2.599841e+13	1.054170e+04	3.377586e+03	2.449724e+03	0	8.865796e-04
1.020000e+09	3.619297e+13	0.000000e+00	8.878504e-01	4.658112e+14	5.061903e+14	2.588240e+13	1.052404e+04	3.374853e+03	2.447741e+03	0	8.838801e-04
1.030000e+09	3.586455e+13	0.000000e+00	8.878504e-01	4.622973e+14	5.024602e+14	2.576718e+13	1.050652e+04	3.372137e+03	2.445772e+03	0	8.811986e-04
1.040000e+09	3.554028e+13	0.000000e+00	8.878504e-01	4.588270e+14	4.987755e+14	2.565274e+13	1.048913e+04	3.369439e+03	2.443815e+03	0	8.785347e-04
1.050000e+09	3.522007e+13	0.000000e+00	8.878504e-01	4.553994e+14	4.951356e+14	2.553907e+13	1.047187e+04	3.366758e+03	2.441870e+03	0	8.758883e-04
1.060000e+09	3.490387e+13	0.000000e+00	8.878504e-01	4.520138e+14	4.915397e+14	2.542617e+13	1.045473e+04	3.364094e+03	2.439938e+03	0	8.732592e-04
1.070000e+09	3.459160e+13	0.000000e+00	8.878504e-01	4.486696e+14	4.879870e+14	2.531403e+13	1.043773e+04	3.361448e+03	2.438019e+03	0	8.706472e-04
1.080000e+09	3.428320e+13	0.000000e+00	8.878504e-01	4.453660e+14	4.844768e+14	2.520265e+13	1.042085e+04	3.358818e+03	2.436111e+03	0	8.680520e-04
1.090000e+09	3.397860e+13	0.000000e+00	8.878504e-01	4.421024e+14	4.810085e+14	2.509201e+13	1.040409e+04	3.356204e+03	2.434215e+03	0	8.654736e-04
1.100000e+09	3.367774e+13	0.000000e+00	8.878504e-01	4.388780e+14	4.775813e+14	2.498211e+13	1.038746e+04	3.353607e+03	2.432332e+03	0	8.629115e-04
1.110000e+09	3.338055e+13	0.000000e+00	8.878504e-01	4.356923e+14	4.741945e+14	2.487296e+13	1.037095e+04	3.351026e+03	2.430460e+03	0	8.603658e-04
1.120000e+09	3.308698e+13	0.000000e+00	8.878504e-01	4.325446e+14	4.708476e+14	2.476453e+13	1.035456e+04	3.348461e+03	2.428600e+03	0	8.578362e-04
1.130000e+09	3.279697e+13	0.000000e+00	8.878504e-01	4.294343e+14	4.675398e+14	2.465683e+13	1.033828e+04	3.345912e+03	2.426751e+03	0	8.553224e-04
1.140000e+09	3.251045e+13	0.000000e+00	8.878504e-01	4.263608e+14	4.642706e+14	2.454985e+13	1.032212e+04	3.343379e+03	2.424914e+03	0	8.528244e-04
1.150000e+09	3.222737e+13	0.000000e+00	8.878504e-01	4.233234e+14	4.610392e+14	2.444358e+13	1.030608e+04	3.340861e+03	2.423087e+03	0	8.503419e-04
1.160000e+09	3.194767e+13	0.000000e+00	8.878504e-01	4.203216e+14	4.578452e+14	2.433803e+13	1.029015e+04	3.338359e+03	2.421272e+03	0	8.478748e-04
1.170000e+09	3.167130e+13	0.000000e+00	8.878504e-01	4.173549e+14	4.546878e+14	2.423317e+13	1.027434e+04	3.335872e+03	2.419469e+03	0	8.454228e-04
1.180000e+09	3.139821e+13	0.000000e+00	8.878504e-01	4.144226e+14	4.515666e+14	2.412902e+13	1.025863e+04	3.333400e+03	2.417676e+03	0	8.429858e-04
1.190000e+09	3.112834e+13	0.000000e+00	8.878504e-01	4.115242e+14	4.484810e+14	2.402555e+13	1.024304e+04	3.330942e+03	2.415893e+03	0	8.405637e-04
1.200000e+09	3.086164e+13	0.000000e+00	8.878504e-01	4.086592e+14	4.454303e+14	2.392277e+13	1.022755e+04	3.328500e+03	2.414122e+03	0	8.381562e-04
1.210000e+09	3.059806e+13	0.000000e+00	8.878504e-01	4.058270e+14	4.424141e+14	2.382068e+13	1.021217e+04	3.326072e+03	2.412361e+03	0	8.357632e-04
1.220000e+09	3.033755e+13	0.000000e+00	8.878504e-01	4.030272e+14	4.394317e+14	2.371926e+13	1.019690e+04	3.323658e+03	2.410610e+03	0	8.333846e-04
1.230000e+09	3.008006e+13	0.000000e+00	8.878504e-01	4.002592e+14	4.364828e+14	2.361851e+13	1.018174e+04	3.321259e+03	2.408870e+03	0	8.310201e-04
1.240000e+09	2.982554e+13	0.000000e+00	8.878504e-01	3.975225e+14	4.335667e+14	2.351843e+13	1.016667e+04	3.318874e+03	2.407140e+03	0	8.286696e-04
1.250000e+09	2.957396e+13	0.000000e+00	8.878504e-01	3.948166e+14	4.306830e+14	2.341901e+13	1.015172e+04	3.316503e+03	2.405420e+03	0	8.263330e-04
1.260000e+09	2.932525e+13	0.000000e+00	8.878504e-01	3.921411e+14	4.278312e+14	2.332024e+13	1.013686e+04	3.314145e+03	2.403711e+03	0	8.240101e-04
1.270000e+09	2.907938e+13	0.000000e+00	8.878504e-01	3.894954e+14	4.250107e+14	2.322212e+13	1.012210e+04	3.311802e+03	2.402011e+03	0	8.217008e-04
1.280000e+09	2.883630e+13	0.000000e+00	8.878504e-01	3.868792e+14	4.222211e+14	2.312465e+13	1.010744e+04	3.309472e+03	2.400321e+03	0	8.194048e-04
1.290000e+09	2.859598e+13	0.000000e+00	8.878504e-01	3.842920e+14	4.194620e+14	2.302782e+13	1.009288e+04	3.307155e+03	2.398641e+03	0	8.171221e-04
1.300000e+09	2.835836e+13	0.000000e+00	8.878504e-01	3.817333e+14	4.167328e+14	2.293163e+13	1.007842e+04	3.304852e+03	2.396970e+03	0	8.148525e-04
1.310000e+09	2.812340e+13	0.000000e+00	8.878504e-01	3.792027e+14	4.140331e+14	2.283607e+13	1.006405e+04	3.302562e+03	2.395309e+03	0	8.125959e-04
1.320000e+09	2.789108e+13	0.000000e+00	8.878504e-01	3.766998e+14	4.113625e+14	2.274113e+13	1.004978e+04	3.300285e+03	2.393658e+03	0	8.103520e-04
1.330000e+09	2.766133e+13	0.000000e+00	8.878504e-01	3.742241e+14	4.087206e+14	2.264681e+13	1.003560e+04	3.298021e+03	2.392016e+03	0	8.081209e-04
1.340000e+09	2.743414e+13	0.000000e+00	8.878504e-01	3.717753e+14	4.061069e+14	2.255311e+13	1.002152e+04	3.295769e+03	2.390383e+03	0	8.059023e-04
1.350000e+09	2.720945e+13	0.000000e+00	8.878504e-01	3.693530e+14	4.035210e+14	2.246002e+13	1.000753e+04	3.293531e+03	2.388759e+03	0	8.036961e-04
1.360000e+09	2.698723e+13	0.000000e+00	8.878504e-01	3.669567e+14	4.009625e+14	2.236754e+13	9.993624e+03	3.291304e+03	2.387144e+03	0	8.015022e-04
