#t		Qconv[W]	Ri[Rp]		R*[Rp]		Qc[W]		Qm[W]		Qr[W]		Tcmb[K]		Tl[K]		Tup[K]		RiFlag		Bs[T]
0.000000e+00	7.999322e+13	0.000000e+00	8.867928e-01	9.686762e+14	7.486409e+14	6.167802e+13	1.377607e+04	3.636220e+03	2.681853e+03	0	1.138828e-03
1.000000e+07	7.980496e+13	0.000000e+00	8.867928e-01	9.665925e+14	7.967170e+14	6.133628e+13	1.375338e+04	3.672958e+03	2.708948e+03	0	1.137934e-03
2.000000e+07	7.951522e+13	0.000000e+00	8.867928e-01	9.636327e+14	8.371930e+14	6.099709e+13	1.373075e+04	3.702996e+03	2.731103e+03	0	1.136555e-03
3.000000e+07	7.914181e+13	0.000000e+00	8.867928e-01	9.599513e+14	8.705094e+14	6.066044e+13	1.370818e+04	3.727271e+03	2.749007e+03	0	1.134773e-03
4.000000e+07	7.870052e+13	0.000000e+00	8.867928e-01	9.556849e+14	8.973315e+14	6.032631e+13	1.368570e+04	3.746661e+03	2.763308e+03	0	1.132660e-03
5.000000e+07	7.820495e+13	0.000000e+00	8.867928e-01	9.509515e+14	9.184312e+14	5.999466e+13	1.366332e+04	3.761961e+03	2.774592e+03	0	1.130278e-03
6.000000e+07	7.766661e+13	0.000000e+00	8.867928e-01	9.458506e+14	9.346009e+14	5.966549e+13	1.364105e+04	3.773867e+03	2.783373e+03	0	1.127678e-03
7.000000e+07	7.709512e+13	0.000000e+00	8.867928e-01	9.404656e+14	9.465979e+14	5.933877e+13	1.361890e+04	3.782980e+03	2.790094e+03	0	1.124906e-03
8.000000e+07	7.649839e+13	0.000000e+00	8.867928e-01	9.348650e+14	9.551123e+14	5.901447e+13	1.359688e+04	3.789809e+03	2.795131e+03	0	1.121996e-03
9.000000e+07	7.588288e+13	0.000000e+00	8.867928e-01	9.291048e+14	9.607524e+14	5.869259e+13	1.357499e+04	3.794778e+03	2.798796e+03	0	1.118978e-03
1.000000e+08	7.525384e+13	0.000000e+00	8.867928e-01	9.232304e+14	9.640418e+14	5.837310e+13	1.355323e+04	3.798240e+03	2.801349e+03	0	1.115878e-03
1.100000e+08	7.461549e+13	0.000000e+00	8.867928e-01	9.172782e+14	9.654231e+14	5.805598e+13	1.353160e+04	3.800483e+03	2.803003e+03	0	1.112714e-03
1.200000e+08	7.397121e+13	0.000000e+00	8.867928e-01	9.112777e+14	9.652654e+14	5.774121e+13	1.351012e+04	3.801742e+03	2.803932e+03	0	1.109502e-03
1.300000e+08	7.332372e+13	0.000000e+00	8.867928e-01	9.052521e+14	9.638735e+14	5.742877e+13	1.348878e+04	3.802211e+03	2.804278e+03	0	1.106255e-03
1.400000e+08	7.267515e+13	0.000000e+00	8.867928e-01	8.992201e+14	9.614969e+14	5.711865e+13	1.346758e+04	3.802043e+03	2.804154e+03	0	1.102984e-03
1.500000e+08	7.202721e+13	0.000000e+00	8.867928e-01	8.931963e+14	9.583389e+14	5.681081e+13	1.344652e+04	3.801367e+03	2.803655e+03	0	1.099696e-03
1.600000e+08	7.138123e+13	0.000000e+00	8.867928e-01	8.871924e+14	9.545645e+14	5.650525e+13	1.342560e+04	3.800281e+03	2.802855e+03	0	1.096399e-03
1.700000e+08	7.073827e+13	0.000000e+00	8.867928e-01	8.812173e+14	9.503065e+14	5.620195e+13	1.340482e+04	3.798870e+03	2.801813e+03	0	1.093097e-03
1.800000e+08	7.009916e+13	0.000000e+00	8.867928e-01	8.752783e+14	9.456725e+14	5.590088e+13	1.338418e+04	3.797197e+03	2.800580e+03	0	1.089795e-03
1.900000e+08	6.946451e+13	0.000000e+00	8.867928e-01	8.693808e+14	9.407485e+14	5.560203e+13	1.336368e+04	3.795318e+03	2.799194e+03	0	1.086496e-03
2.000000e+08	6.883484e+13	0.000000e+00	8.867928e-01	8.635289e+14	9.356038e+14	5.530537e+13	1.334331e+04	3.793273e+03	2.797686e+03	0	1.083203e-03
2.100000e+08	6.821050e+13	0.000000e+00	8.867928e-01	8.577259e+14	9.302940e+14	5.501090e+13	1.332309e+04	3.791099e+03	2.796082e+03	0	1.079918e-03
2.200000e+08	6.759177e+13	0.000000e+00	8.867928e-01	8.519742e+14	9.248635e+14	5.471859e+13	1.330299e+04	3.788822e+03	2.794403e+03	0	1.076643e-03
2.300000e+08	6.697886e+13	0.000000e+00	8.867928e-01	8.462754e+14	9.193480e+14	5.442843e+13	1.328304e+04	3.786465e+03	2.792664e+03	0	1.073379e-03
2.400000e+08	6.637190e+13	0.000000e+00	8.867928e-01	8.406308e+14	9.137758e+14	5.414040e+13	1.326321e+04	3.784045e+03	2.790880e+03	0	1.070127e-03
2.500000e+08	6.577100e+13	0.000000e+00	8.867928e-01	8.350412e+14	9.081697e+14	5.385447e+13	1.324352e+04	3.781578e+03	2.789060e+03	0	1.066887e-03
2.600000e+08	6.517622e+13	0.000000e+00	8.867928e-01	8.295070e+14	9.025478e+14	5.357064e+13	1.322396e+04	3.779075e+03	2.787214e+03	0	1.063662e-03
2.700000e+08	6.458758e+13	0.000000e+00	8.867928e-01	8.240286e+14	8.969245e+14	5.328888e+13	1.320453e+04	3.776546e+03	2.785349e+03	0	1.060450e-03
2.800000e+08	6.400508e+13	0.000000e+00	8.867928e-01	8.186058e+14	8.913114e+14	5.300918e+13	1.318523e+04	3.773997e+03	2.783469e+03	0	1.057252e-03
2.900000e+08	6.342873e+13	0.000000e+00	8.867928e-01	8.132386e+14	8.857174e+14	5.273152e+13	1.316605e+04	3.771436e+03	2.781580e+03	0	1.054069e-03
3.000000e+08	6.285847e+13	0.000000e+00	8.867928e-01	8.079268e+14	8.801498e+14	5.245588e+13	1.314700e+04	3.768867e+03	2.779686e+03	0	1.050901e-03
3.100000e+08	6.229429e+13	0.000000e+00	8.867928e-01	8.026698e+14	8.746142e+14	5.218225e+13	1.312807e+04	3.766295e+03	2.777788e+03	0	1.047747e-03
3.200000e+08	6.173612e+13	0.000000e+00	8.867928e-01	7.974674e+14	8.691151e+14	5.191062e+13	1.310927e+04	3.763722e+03	2.775890e+03	0	1.044609e-03
3.300000e+08	6.118392e+13	0.000000e+00	8.867928e-01	7.923189e+14	8.636558e+14	5.164096e+13	1.309059e+04	3.761151e+03	2.773994e+03	0	1.041485e-03
3.400000e+08	6.063762e+13	0.000000e+00	8.867928e-01	7.872239e+14	8.582390e+14	5.137325e+13	1.307203e+04	3.758584e+03	2.772101e+03	0	1.038376e-03
3.500000e+08	6.009716e+13	0.000000e+00	8.867928e-01	7.821818e+14	8.528667e+14	5.110749e+13	1.305358e+04	3.756023e+03	2.770212e+03	0	1.035281e-03
3.600000e+08	5.956247e+13	0.000000e+00	8.867928e-01	7.771919e+14	8.475404e+14	5.084366e+13	1.303526e+04	3.753469e+03	2.768329e+03	0	1.032202e-03
3.700000e+08	5.903349e+13	0.000000e+00	8.867928e-01	7.722536e+14	8.422611e+14	5.058174e+13	1.301705e+04	3.750924e+03	2.766452e+03	0	1.029137e-03
3.800000e+08	5.851014e+13	0.000000e+00	8.867928e-01	7.673664e+14	8.370295e+14	5.032171e+13	1.299896e+04	3.748388e+03	2.764581e+03	0	1.026087e-03
3.900000e+08	5.799234e+13	0.000000e+00	8.867928e-01	7.625295e+14	8.318462e+14	5.006356e+13	1.298098e+04	3.745861e+03	2.762718e+03	0	1.023051e-03
4.000000e+08	5.748004e+13	0.000000e+00	8.867928e-01	7.577423e+14	8.267113e+14	4.980727e+13	1.296311e+04	3.743345e+03	2.760862e+03	0	1.020030e-03
4.100000e+08	5.697315e+13	0.000000e+00	8.867928e-01	7.530041e+14	8.216250e+14	4.955284e+13	1.294536e+04	3.740840e+03	2.759014e+03	0	1.017022e-03
4.200000e+08	5.647161e+13	0.000000e+00	8.867928e-01	7.483144e+14	8.165872e+14	4.930024e+13	1.292772e+04	3.738346e+03	2.757175e+03	0	1.014029e-03
4.300000e+08	5.597533e+13	0.000000e+00	8.867928e-01	7.436724e+14	8.115977e+14	4.904945e+13	1.291018e+04	3.735863e+03	2.755344e+03	0	1.011050e-03
4.400000e+08	5.548426e+13	0.000000e+00	8.867928e-01	7.390776e+14	8.066562e+14	4.880048e+13	1.289276e+04	3.733392e+03	2.753521e+03	0	1.008085e-03
4.500000e+08	5.499832e+13	0.000000e+00	8.867928e-01	7.345293e+14	8.017626e+14	4.855329e+13	1.287544e+04	3.730933e+03	2.751708e+03	0	1.005133e-03
4.600000e+08	5.451743e+13	0.000000e+00	8.867928e-01	7.300268e+14	7.969163e+14	4.830787e+13	1.285823e+04	3.728486e+03	2.749902e+03	0	1.002195e-03
4.700000e+08	5.404154e+13	0.000000e+00	8.867928e-01	7.255696e+14	7.921169e+14	4.806422e+13	1.284113e+04	3.726050e+03	2.748106e+03	0	9.992704e-04
4.800000e+08	5.357057e+13	0.000000e+00	8.867928e-01	7.211570e+14	7.873640e+14	4.782231e+13	1.282412e+04	3.723626e+03	2.746318e+03	0	9.963591e-04
4.900000e+08	5.310445e+13	0.000000e+00	8.867928e-01	7.167885e+14	7.826572e+14	4.758213e+13	1.280723e+04	3.721214e+03	2.744540e+03	0	9.934609e-04
5.000000e+08	5.264313e+13	0.000000e+00	8.867928e-01	7.124634e+14	7.779959e+14	4.734367e+13	1.279043e+04	3.718814e+03	2.742769e+03	0	9.905757e-04
5.100000e+08	5.218652e+13	0.000000e+00	8.867928e-01	7.081811e+14	7.733796e+14	4.710692e+13	1.277374e+04	3.716426e+03	2.741008e+03	0	9.877035e-04
5.200000e+08	5.173458e+13	0.000000e+00	8.867928e-01	7.039412e+14	7.688077e+14	4.687185e+13	1.275714e+04	3.714050e+03	2.739255e+03	0	9.848440e-04
5.300000e+08	5.128723e+13	0.000000e+00	8.867928e-01	6.997429e+14	7.642799e+14	4.663846e+13	1.274065e+04	3.711685e+03	2.737511e+03	0	9.819971e-04
5.400000e+08	5.084441e+13	0.000000e+00	8.867928e-01	6.955858e+14	7.597955e+14	4.640673e+13	1.272425e+04	3.709332e+03	2.735776e+03	0	9.791627e-04
5.500000e+08	5.040606e+13	0.000000e+00	8.867928e-01	6.914693e+14	7.553541e+14	4.617665e+13	1.270795e+04	3.706991e+03	2.734049e+03	0	9.763407e-04
5.600000e+08	4.997213e+13	0.000000e+00	8.867928e-01	6.873929e+14	7.509550e+14	4.594821e+13	1.269175e+04	3.704661e+03	2.732331e+03	0	9.735309e-04
5.700000e+08	4.954254e+13	0.000000e+00	8.867928e-01	6.833559e+14	7.465978e+14	4.572139e+13	1.267564e+04	3.702343e+03	2.730621e+03	0	9.707332e-04
5.800000e+08	4.911725e+13	0.000000e+00	8.867928e-01	6.793580e+14	7.422820e+14	4.549618e+13	1.265962e+04	3.700036e+03	2.728920e+03	0	9.679475e-04
5.900000e+08	4.869620e+13	0.000000e+00	8.867928e-01	6.753986e+14	7.380069e+14	4.527256e+13	1.264370e+04	3.697740e+03	2.727226e+03	0	9.651737e-04
6.000000e+08	4.827932e+13	0.000000e+00	8.867928e-01	6.714771e+14	7.337722e+14	4.505053e+13	1.262788e+04	3.695456e+03	2.725542e+03	0	9.624116e-04
6.100000e+08	4.786657e+13	0.000000e+00	8.867928e-01	6.675931e+14	7.295773e+14	4.483007e+13	1.261214e+04	3.693183e+03	2.723865e+03	0	9.596611e-04
6.200000e+08	4.745788e+13	0.000000e+00	8.867928e-01	6.637462e+14	7.254217e+14	4.461117e+13	1.259649e+04	3.690920e+03	2.722197e+03	0	9.569221e-04
6.300000e+08	4.705321e+13	0.000000e+00	8.867928e-01	6.599357e+14	7.213049e+14	4.439381e+13	1.258094e+04	3.688669e+03	2.720536e+03	0	9.541944e-04
6.400000e+08	4.665249e+13	0.000000e+00	8.867928e-01	6.561612e+14	7.172265e+14	4.417798e+13	1.256547e+04	3.686429e+03	2.718884e+03	0	9.514780e-04
6.500000e+08	4.625569e+13	0.000000e+00	8.867928e-01	6.524223e+14	7.131858e+14	4.396368e+13	1.255010e+04	3.684200e+03	2.717240e+03	0	9.487727e-04
6.600000e+08	4.586274e+13	0.000000e+00	8.867928e-01	6.487185e+14	7.091826e+14	4.375088e+13	1.253481e+04	3.681981e+03	2.715603e+03	0	9.460784e-04
6.700000e+08	4.547361e+13	0.000000e+00	8.867928e-01	6.450493e+14	7.052162e+14	4.353958e+13	1.251960e+04	3.679773e+03	2.713975e+03	0	9.433950e-04
6.800000e+08	4.508822e+13	0.000000e+00	8.867928e-01	6.414143e+14	7.012862e+14	4.332976e+13	1.250448e+04	3.677575e+03	2.712354e+03	0	9.407224e-04
6.900000e+08	4.470655e+13	0.000000e+00	8.867928e-01	6.378131e+14	6.973922e+14	4.312142e+13	1.248945e+04	3.675388e+03	2.710741e+03	0	9.380605e-04
7.000000e+08	4.432854e+13	0.000000e+00	8.867928e-01	6.342453e+14	6.935338e+14	4.291453e+13	1.247450e+04	3.673212e+03	2.709136e+03	0	9.354091e-04
7.100000e+08	4.395414e+13	0.000000e+00	8.867928e-01	6.307103e+14	6.897104e+14	4.270910e+13	1.245964e+04	3.671045e+03	2.707538e+03	0	9.327682e-04
7.200000e+08	4.358330e+13	0.000000e+00	8.867928e-01	6.272078e+14	6.859216e+14	4.250510e+13	1.244486e+04	3.668889e+03	2.705948e+03	0	9.301375e-04
7.300000e+08	4.321599e+13	0.000000e+00	8.867928e-01	6.237374e+14	6.821671e+14	4.230252e+13	1.243016e+04	3.666743e+03	2.704365e+03	0	9.275172e-04
7.400000e+08	4.285215e+13	0.000000e+00	8.867928e-01	6.202987e+14	6.784464e+14	4.210136e+13	1.241554e+04	3.664607e+03	2.702790e+03	0	9.249069e-04
7.500000e+08	4.249175e+13	0.000000e+00	8.867928e-01	6.168912e+14	6.747590e+14	4.190161e+13	1.240100e+04	3.662482e+03	2.701222e+03	0	9.223066e-04
7.600000e+08	4.213473e+13	0.000000e+00	8.867928e-01	6.135146e+14	6.711046e+14	4.170324e+13	1.238654e+04	3.660366e+03	2.699661e+03	0	9.197163e-04
7.700000e+08	4.178106e+13	0.000000e+00	8.867928e-01	6.101686e+14	6.674828e+14	4.150625e+13	1.237216e+04	3.658259e+03	2.698108e+03	0	9.171357e-04
7.800000e+08	4.143069e+13	0.000000e+00	8.867928e-01	6.068526e+14	6.638931e+14	4.131064e+13	1.235786e+04	3.656163e+03	2.696562e+03	0	9.145649e-04
7.900000e+08	4.108358e+13	0.000000e+00	8.867928e-01	6.035664e+14	6.603352e+14	4.111638e+13	1.234363e+04	3.654076e+03	2.695023e+03	0	9.120036e-04
8.000000e+08	4.073969e+13	0.000000e+00	8.867928e-01	6.003096e+14	6.568086e+14	4.092347e+13	1.232949e+04	3.651999e+03	2.693491e+03	0	9.094519e-04
8.100000e+08	4.039899e+13	0.000000e+00	8.867928e-01	5.970818e+14	6.533131e+14	4.073189e+13	1.231542e+04	3.649931e+03	2.691966e+03	0	9.069095e-04
8.200000e+08	4.006142e+13	0.000000e+00	8.867928e-01	5.938827e+14	6.498482e+14	4.054165e+13	1.230142e+04	3.647873e+03	2.690448e+03	0	9.043764e-04
8.300000e+08	3.972695e+13	0.000000e+00	8.867928e-01	5.907118e+14	6.464136e+14	4.035271e+13	1.228750e+04	3.645824e+03	2.688937e+03	0	9.018526e-04
8.400000e+08	3.939555e+13	0.000000e+00	8.867928e-01	5.875690e+14	6.430088e+14	4.016508e+13	1.227365e+04	3.643785e+03	2.687432e+03	0	8.993378e-04
8.500000e+08	3.906717e+13	0.000000e+00	8.867928e-01	5.844537e+14	6.396336e+14	3.997875e+13	1.225988e+04	3.641755e+03	2.685935e+03	0	8.968320e-04
8.600000e+08	3.874178e+13	0.000000e+00	8.867928e-01	5.813658e+14	6.362876e+14	3.979370e+13	1.224618e+04	3.639733e+03	2.684444e+03	0	8.943352e-04
8.700000e+08	3.841934e+13	0.000000e+00	8.867928e-01	5.783048e+14	6.329704e+14	3.960993e+13	1.223255e+04	3.637721e+03	2.682960e+03	0	8.918472e-04
8.800000e+08	3.809982e+13	0.000000e+00	8.867928e-01	5.752704e+14	6.296818e+14	3.942742e+13	1.221900e+04	3.635718e+03	2.681483e+03	0	8.893679e-04
8.900000e+08	3.778318e+13	0.000000e+00	8.867928e-01	5.722624e+14	6.264213e+14	3.924616e+13	1.220551e+04	3.633724e+03	2.680012e+03	0	8.868972e-04
9.000000e+08	3.746938e+13	0.000000e+00	8.867928e-01	5.692804e+14	6.231886e+14	3.906615e+13	1.219210e+04	3.631739e+03	2.678548e+03	0	8.844351e-04
9.100000e+08	3.715839e+13	0.000000e+00	8.867928e-01	5.663241e+14	6.199834e+14	3.888737e+13	1.217875e+04	3.629763e+03	2.677090e+03	0	8.819814e-04
9.200000e+08	3.685018e+13	0.000000e+00	8.867928e-01	5.633931e+14	6.168054e+14	3.870981e+13	1.216548e+04	3.627795e+03	2.675639e+03	0	8.795361e-04
9.300000e+08	3.654472e+13	0.000000e+00	8.867928e-01	5.604873e+14	6.136543e+14	3.853347e+13	1.215227e+04	3.625836e+03	2.674194e+03	0	8.770991e-04
9.400000e+08	3.624196e+13	0.000000e+00	8.867928e-01	5.576062e+14	6.105298e+14	3.835834e+13	1.213913e+04	3.623886e+03	2.672756e+03	0	8.746702e-04
9.500000e+08	3.594188e+13	0.000000e+00	8.867928e-01	5.547497e+14	6.074314e+14	3.818440e+13	1.212606e+04	3.621944e+03	2.671324e+03	0	8.722495e-04
9.600000e+08	3.564445e+13	0.000000e+00	8.867928e-01	5.519173e+14	6.043591e+14	3.801164e+13	1.211305e+04	3.620010e+03	2.669898e+03	0	8.698368e-04
9.700000e+08	3.534963e+13	0.000000e+00	8.867928e-01	5.491089e+14	6.013124e+14	3.784007e+13	1.210012e+04	3.618085e+03	2.668478e+03	0	8.674320e-04
9.800000e+08	3.505740e+13	0.000000e+00	8.867928e-01	5.463241e+14	5.982910e+14	3.766966e+13	1.208724e+04	3.616169e+03	2.667065e+03	0	8.650350e-04
9.900000e+08	3.476771e+13	0.000000e+00	8.867928e-01	5.435628e+14	5.952947e+14	3.750041e+13	1.207444e+04	3.614261e+03	2.665657e+03	0	8.626458e-04
1.000000e+09	3.448056e+13	0.000000e+00	8.867928e-01	5.408245e+14	5.923232e+14	3.733230e+13	1.206169e+04	3.612360e+03	2.664256e+03	0	8.602643e-04
1.010000e+09	3.419589e+13	0.000000e+00	8.867928e-01	5.381091e+14	5.893761e+14	3.716534e+13	1.204901e+04	3.610469e+03	2.662860e+03	0	8.578903e-04
1.020000e+09	3.391369e+13	0.000000e+00	8.867928e-01	5.354162e+14	5.864533e+14	3.699951e+13	1.203640e+04	3.608585e+03	2.661471e+03	0	8.555239e-04
1.030000e+09	3.363393e+13	0.000000e+00	8.867928e-01	5.327457e+14	5.835544e+14	3.683480e+13	1.202385e+04	3.606709e+03	2.660088e+03	0	8.531649e-04
1.040000e+09	3.335657e+13	0.000000e+00	8.867928e-01	5.300972e+14	5.806792e+14	3.667121e+13	1.201136e+04	3.604841e+03	2.658710e+03	0	8.508133e-04
1.050000e+09	3.308159e+13	0.000000e+00	8.867928e-01	5.274705e+14	5.778274e+14	3.650872e+13	1.199893e+04	3.602982e+03	2.657338e+03	0	8.484689e-04
1.060000e+09	3.280896e+13	0.000000e+00	8.867928e-01	5.248654e+14	5.749988e+14	3.634732e+13	1.198656e+04	3.601130e+03	2.655973e+03	0	8.461317e-04
1.070000e+09	3.253866e+13	0.000000e+00	8.867928e-01	5.222817e+14	5.721930e+14	3.618701e+13	1.197426e+04	3.599285e+03	2.654612e+03	0	8.438016e-04
1.080000e+09	3.227066e+13	0.000000e+00	8.867928e-01	5.197190e+14	5.694099e+14	3.602778e+13	1.196201e+04	3.597449e+03	2.653258e+03	0	8.414786e-04
1.090000e+09	3.200493e+13	0.000000e+00	8.867928e-01	5.171771e+14	5.666492e+14	3.586962e+13	1.194983e+04	3.595620e+03	2.651909e+03	0	8.391625e-04
1.100000e+09	3.174144e+13	0.000000e+00	8.867928e-01	5.146559e+14	5.639106e+14	3.571253e+13	1.193770e+04	3.593799e+03	2.650566e+03	0	8.368533e-04
1.110000e+09	3.148018e+13	0.000000e+00	8.867928e-01	5.121550e+14	5.611938e+14	3.555649e+13	1.192564e+04	3.591986e+03	2.649229e+03	0	8.345510e-04
1.120000e+09	3.122111e+13	0.000000e+00	8.867928e-01	5.096743e+14	5.584988e+14	3.540149e+13	1.191363e+04	3.590180e+03	2.647897e+03	0	8.322553e-04
1.130000e+09	3.096421e+13	0.000000e+00	8.867928e-01	5.072135e+14	5.558251e+14	3.524753e+13	1.190168e+04	3.588382e+03	2.646571e+03	0	8.299663e-04
1.140000e+09	3.070946e+13	0.000000e+00	8.867928e-01	5.047724e+14	5.531727e+14	3.509460e+13	1.188979e+04	3.586591e+03	2.645250e+03	0	8.276839e-04
1.150000e+09	3.045683e+13	0.000000e+00	8.867928e-01	5.023508e+14	5.505411e+14	3.494269e+13	1.187795e+04	3.584807e+03	2.643934e+03	0	8.254080e-04
1.160000e+09	3.020629e+13	0.000000e+00	8.867928e-01	4.999485e+14	5.479304e+14	3.479179e+13	1.186617e+04	3.583031e+03	2.642624e+03	0	8.231385e-04
1.170000e+09	2.995784e+13	0.000000e+00	8.867928e-01	4.975652e+14	5.453401e+14	3.464190e+13	1.185445e+04	3.581262e+03	2.641320e+03	0	8.208754e-04
1.180000e+09	2.971143e+13	0.000000e+00	8.867928e-01	4.952008e+14	5.427700e+14	3.449300e+13	1.184278e+04	3.579500e+03	2.640020e+03	0	8.186186e-04
1.190000e+09	2.946705e+13	0.000000e+00	8.867928e-01	4.928550e+14	5.402201e+14	3.434510e+13	1.183117e+04	3.577746e+03	2.638726e+03	0	8.163681e-04
1.200000e+09	2.922468e+13	0.000000e+00	8.867928e-01	4.905277e+14	5.376899e+14	3.419818e+13	1.181962e+04	3.575999e+03	2.637437e+03	0	8.141236e-04
1.210000e+09	2.898429e+13	0.000000e+00	8.867928e-01	4.882186e+14	5.351794e+14	3.405223e+13	1.180812e+04	3.574258e+03	2.636154e+03	0	8.118853e-04
1.220000e+09	2.874586e+13	0.000000e+00	8.867928e-01	4.859276e+14	5.326884e+14	3.390725e+13	1.179667e+04	3.572525e+03	2.634875e+03	0	8.096529e-04
1.230000e+09	2.850937e+13	0.000000e+00	8.867928e-01	4.836544e+14	5.302165e+14	3.376322e+13	1.178528e+04	3.570799e+03	2.633602e+03	0	8.074265e-04
1.240000e+09	2.827481e+13	0.000000e+00	8.867928e-01	4.813989e+14	5.277637e+14	3.362015e+13	1.177393e+04	3.569079e+03	2.632334e+03	0	8.052060e-04
1.250000e+09	2.804214e+13	0.000000e+00	8.867928e-01	4.791608e+14	5.253296e+14	3.347803e+13	1.176265e+04	3.567367e+03	2.631071e+03	0	8.029913e-04
1.260000e+09	2.781135e+13	0.000000e+00	8.867928e-01	4.769401e+14	5.229142e+14	3.333684e+13	1.175141e+04	3.565661e+03	2.629813e+03	0	8.007823e-04
1.270000e+09	2.758241e+13	0.000000e+00	8.867928e-01	4.747364e+14	5.205172e+14	3.319658e+13	1.174023e+04	3.563962e+03	2.628560e+03	0	7.985790e-04
1.280000e+09	2.735532e+13	0.000000e+00	8.867928e-01	4.725496e+14	5.181384e+14	3.305724e+13	1.172910e+04	3.562270e+03	2.627312e+03	0	7.963813e-04
1.290000e+09	2.713004e+13	0.000000e+00	8.867928e-01	4.703796e+14	5.157776e+14	3.291882e+13	1.171802e+04	3.560585e+03	2.626069e+03	0	7.941891e-04
1.300000e+09	2.690656e+13	0.000000e+00	8.867928e-01	4.682261e+14	5.134347e+14	3.278131e+13	1.170699e+04	3.558906e+03	2.624831e+03	0	7.920024e-04
1.310000e+09	2.668485e+13	0.000000e+00	8.867928e-01	4.660891e+14	5.111095e+14	3.264470e+13	1.169601e+04	3.557234e+03	2.623598e+03	0	7.898211e-04
1.320000e+09	2.646491e+13	0.000000e+00	8.867928e-01	4.639682e+14	5.088017e+14	3.250899e+13	1.168508e+04	3.555568e+03	2.622369e+03	0	7.876452e-04
1.330000e+09	2.624671e+13	0.000000e+00	8.867928e-01	4.618634e+14	5.065112e+14	3.237416e+13	1.167420e+04	3.553909e+03	2.621145e+03	0	7.854745e-04
1.340000e+09	2.603023e+13	0.000000e+00	8.867928e-01	4.597744e+14	5.042378e+14	3.224021e+13	1.166337e+04	3.552256e+03	2.619927e+03	0	7.833090e-04
1.350000e+09	2.581545e+13	0.000000e+00	8.867928e-01	4.577012e+14	5.019814e+14	3.210714e+13	1.165259e+04	3.550610e+03	2.618712e+03	0	7.811487e-04
1.360000e+09	2.560236e+13	0.000000e+00	8.867928e-01	4.556435e+14	4.997417e+14	3.197493e+13	1.164185e+04	3.548970e+03	2.617503e+03	0	7.789934e-04
