#t		Qconv[W]	Ri[Rp]		R*[Rp]		Qc[W]		Qm[W]		Qr[W]		Tcmb[K]		Tl[K]		Tup[K]		RiFlag		Bs[T]
0.000000e+00	2.659465e+14	0.000000e+00	8.857147e-01	2.799498e+15	9.523704e+14	8.119088e+13	1.916300e+04	4.051963e+03	2.814672e+03	0	1.684602e-03
1.000000e+07	2.689392e+14	0.000000e+00	8.857147e-01	2.821043e+15	1.295095e+15	8.074103e+13	1.911954e+04	4.247216e+03	2.950303e+03	0	1.690898e-03
2.000000e+07	2.705710e+14	0.000000e+00	8.857147e-01	2.832019e+15	1.631459e+15	8.029453e+13	1.907575e+04	4.406758e+03	3.061128e+03	0	1.694311e-03
3.000000e+07	2.710285e+14	0.000000e+00	8.857147e-01	2.833878e+15	1.932404e+15	7.985138e+13	1.903179e+04	4.531810e+03	3.147994e+03	0	1.695265e-03
4.000000e+07	2.705387e+14	0.000000e+00	8.857147e-01	2.828388e+15	2.181647e+15	7.941153e+13	1.898780e+04	4.626312e+03	3.213639e+03	0	1.694243e-03
5.000000e+07	2.693246e+14	0.000000e+00	8.857147e-01	2.817283e+15	2.375256e+15	7.897497e+13	1.894389e+04	4.695507e+03	3.261705e+03	0	1.691705e-03
6.000000e+07	2.675799e+14	0.000000e+00	8.857147e-01	2.802068e+15	2.517623e+15	7.854165e+13	1.890016e+04	4.744770e+03	3.295925e+03	0	1.688044e-03
7.000000e+07	2.654598e+14	0.000000e+00	8.857147e-01	2.783950e+15	2.617076e+15	7.811157e+13	1.885666e+04	4.778904e+03	3.319637e+03	0	1.683574e-03
8.000000e+07	2.630826e+14	0.000000e+00	8.857147e-01	2.763848e+15	2.682759e+15	7.768468e+13	1.881344e+04	4.801856e+03	3.335580e+03	0	1.678534e-03
9.000000e+07	2.605354e+14	0.000000e+00	8.857147e-01	2.742439e+15	2.722960e+15	7.726097e+13	1.877053e+04	4.816693e+03	3.345886e+03	0	1.673099e-03
1.000000e+08	2.578811e+14	0.000000e+00	8.857147e-01	2.720213e+15	2.744480e+15	7.684040e+13	1.872796e+04	4.825716e+03	3.352154e+03	0	1.667398e-03
1.100000e+08	2.551641e+14	0.000000e+00	8.857147e-01	2.697513e+15	2.752578e+15	7.642295e+13	1.868573e+04	4.830611e+03	3.355555e+03	0	1.661521e-03
1.200000e+08	2.524157e+14	0.000000e+00	8.857147e-01	2.674583e+15	2.751178e+15	7.600860e+13	1.864385e+04	4.832592e+03	3.356930e+03	0	1.655534e-03
1.300000e+08	2.496575e+14	0.000000e+00	8.857147e-01	2.651592e+15	2.743134e+15	7.559732e+13	1.860232e+04	4.832523e+03	3.356883e+03	0	1.649482e-03
1.400000e+08	2.469045e+14	0.000000e+00	8.857147e-01	2.628654e+15	2.730496e+15	7.518908e+13	1.856115e+04	4.831020e+03	3.355839e+03	0	1.643397e-03
1.500000e+08	2.441670e+14	0.000000e+00	8.857147e-01	2.605849e+15	2.714715e+15	7.478386e+13	1.852034e+04	4.828514e+03	3.354098e+03	0	1.637300e-03
1.600000e+08	2.414519e+14	0.000000e+00	8.857147e-01	2.583232e+15	2.696817e+15	7.438163e+13	1.847988e+04	4.825311e+03	3.351873e+03	0	1.631209e-03
1.700000e+08	2.387638e+14	0.000000e+00	8.857147e-01	2.560838e+15	2.677521e+15	7.398237e+13	1.843977e+04	4.821625e+03	3.349313e+03	0	1.625133e-03
1.800000e+08	2.361057e+14	0.000000e+00	8.857147e-01	2.538691e+15	2.657334e+15	7.358605e+13	1.840000e+04	4.817608e+03	3.346522e+03	0	1.619080e-03
1.900000e+08	2.334797e+14	0.000000e+00	8.857147e-01	2.516805e+15	2.636606e+15	7.319265e+13	1.836058e+04	4.813366e+03	3.343575e+03	0	1.613054e-03
2.000000e+08	2.308867e+14	0.000000e+00	8.857147e-01	2.495188e+15	2.615585e+15	7.280215e+13	1.832150e+04	4.808974e+03	3.340524e+03	0	1.607061e-03
2.100000e+08	2.283275e+14	0.000000e+00	8.857147e-01	2.473846e+15	2.594443e+15	7.241451e+13	1.828275e+04	4.804484e+03	3.337406e+03	0	1.601101e-03
2.200000e+08	2.258022e+14	0.000000e+00	8.857147e-01	2.452780e+15	2.573298e+15	7.202973e+13	1.824434e+04	4.799935e+03	3.334246e+03	0	1.595176e-03
2.300000e+08	2.233108e+14	0.000000e+00	8.857147e-01	2.431990e+15	2.552233e+15	7.164777e+13	1.820625e+04	4.795353e+03	3.331063e+03	0	1.589288e-03
2.400000e+08	2.208532e+14	0.000000e+00	8.857147e-01	2.411474e+15	2.531306e+15	7.126861e+13	1.816848e+04	4.790756e+03	3.327869e+03	0	1.583436e-03
2.500000e+08	2.184291e+14	0.000000e+00	8.857147e-01	2.391230e+15	2.510555e+15	7.089222e+13	1.813103e+04	4.786157e+03	3.324675e+03	0	1.577621e-03
2.600000e+08	2.160379e+14	0.000000e+00	8.857147e-01	2.371254e+15	2.490006e+15	7.051859e+13	1.809389e+04	4.781566e+03	3.321486e+03	0	1.571844e-03
2.700000e+08	2.136793e+14	0.000000e+00	8.857147e-01	2.351542e+15	2.469676e+15	7.014770e+13	1.805706e+04	4.776990e+03	3.318307e+03	0	1.566102e-03
2.800000e+08	2.113528e+14	0.000000e+00	8.857147e-01	2.332091e+15	2.449577e+15	6.977951e+13	1.802054e+04	4.772432e+03	3.315141e+03	0	1.560398e-03
2.900000e+08	2.090579e+14	0.000000e+00	8.857147e-01	2.312896e+15	2.429715e+15	6.941401e+13	1.798432e+04	4.767897e+03	3.311991e+03	0	1.554729e-03
3.000000e+08	2.067940e+14	0.000000e+00	8.857147e-01	2.293954e+15	2.410094e+15	6.905117e+13	1.794840e+04	4.763386e+03	3.308857e+03	0	1.549097e-03
3.100000e+08	2.045607e+14	0.000000e+00	8.857147e-01	2.275260e+15	2.390713e+15	6.869097e+13	1.791277e+04	4.758901e+03	3.305741e+03	0	1.543500e-03
3.200000e+08	2.023573e+14	0.000000e+00	8.857147e-01	2.256810e+15	2.371574e+15	6.833340e+13	1.787743e+04	4.754442e+03	3.302644e+03	0	1.537939e-03
3.300000e+08	2.001835e+14	0.000000e+00	8.857147e-01	2.238600e+15	2.352675e+15	6.797843e+13	1.784238e+04	4.750011e+03	3.299566e+03	0	1.532412e-03
3.400000e+08	1.980387e+14	0.000000e+00	8.857147e-01	2.220626e+15	2.334013e+15	6.762603e+13	1.780760e+04	4.745608e+03	3.296508e+03	0	1.526919e-03
3.500000e+08	1.959224e+14	0.000000e+00	8.857147e-01	2.202883e+15	2.315585e+15	6.727619e+13	1.777311e+04	4.741233e+03	3.293469e+03	0	1.521461e-03
3.600000e+08	1.938341e+14	0.000000e+00	8.857147e-01	2.185368e+15	2.297390e+15	6.692889e+13	1.773889e+04	4.736886e+03	3.290449e+03	0	1.516035e-03
3.700000e+08	1.917732e+14	0.000000e+00	8.857147e-01	2.168077e+15	2.279423e+15	6.658410e+13	1.770495e+04	4.732567e+03	3.287449e+03	0	1.510643e-03
3.800000e+08	1.897394e+14	0.000000e+00	8.857147e-01	2.151006e+15	2.261681e+15	6.624181e+13	1.767127e+04	4.728276e+03	3.284468e+03	0	1.505284e-03
3.900000e+08	1.877321e+14	0.000000e+00	8.857147e-01	2.134151e+15	2.244161e+15	6.590199e+13	1.763785e+04	4.724012e+03	3.281506e+03	0	1.499957e-03
4.000000e+08	1.857510e+14	0.000000e+00	8.857147e-01	2.117508e+15	2.226860e+15	6.556463e+13	1.760470e+04	4.719776e+03	3.278564e+03	0	1.494662e-03
4.100000e+08	1.837955e+14	0.000000e+00	8.857147e-01	2.101074e+15	2.209773e+15	6.522970e+13	1.757180e+04	4.715567e+03	3.275640e+03	0	1.489399e-03
4.200000e+08	1.818651e+14	0.000000e+00	8.857147e-01	2.084845e+15	2.192897e+15	6.489718e+13	1.753916e+04	4.711386e+03	3.272735e+03	0	1.484166e-03
4.300000e+08	1.799596e+14	0.000000e+00	8.857147e-01	2.068819e+15	2.176229e+15	6.456706e+13	1.750677e+04	4.707231e+03	3.269849e+03	0	1.478964e-03
4.400000e+08	1.780784e+14	0.000000e+00	8.857147e-01	2.052990e+15	2.159765e+15	6.423931e+13	1.747463e+04	4.703102e+03	3.266981e+03	0	1.473793e-03
4.500000e+08	1.762211e+14	0.000000e+00	8.857147e-01	2.037357e+15	2.143503e+15	6.391392e+13	1.744274e+04	4.699000e+03	3.264132e+03	0	1.468651e-03
4.600000e+08	1.743874e+14	0.000000e+00	8.857147e-01	2.021916e+15	2.127438e+15	6.359087e+13	1.741108e+04	4.694923e+03	3.261300e+03	0	1.463539e-03
4.700000e+08	1.725768e+14	0.000000e+00	8.857147e-01	2.006663e+15	2.111568e+15	6.327013e+13	1.737967e+04	4.690873e+03	3.258486e+03	0	1.458456e-03
4.800000e+08	1.707889e+14	0.000000e+00	8.857147e-01	1.991596e+15	2.095889e+15	6.295169e+13	1.734849e+04	4.686848e+03	3.255690e+03	0	1.453402e-03
4.900000e+08	1.690234e+14	0.000000e+00	8.857147e-01	1.976711e+15	2.080398e+15	6.263553e+13	1.731755e+04	4.682848e+03	3.252912e+03	0	1.448377e-03
5.000000e+08	1.672799e+14	0.000000e+00	8.857147e-01	1.962005e+15	2.065092e+15	6.232163e+13	1.728684e+04	4.678872e+03	3.250150e+03	0	1.443380e-03
5.100000e+08	1.655580e+14	0.000000e+00	8.857147e-01	1.947477e+15	2.049969e+15	6.200997e+13	1.725635e+04	4.674922e+03	3.247406e+03	0	1.438410e-03
5.200000e+08	1.638573e+14	0.000000e+00	8.857147e-01	1.933121e+15	2.035024e+15	6.170054e+13	1.722609e+04	4.670996e+03	3.244679e+03	0	1.433468e-03
5.300000e+08	1.621776e+14	0.000000e+00	8.857147e-01	1.918937e+15	2.020256e+15	6.139331e+13	1.719605e+04	4.667094e+03	3.241968e+03	0	1.428553e-03
5.400000e+08	1.605185e+14	0.000000e+00	8.857147e-01	1.904920e+15	2.005662e+15	6.108827e+13	1.716624e+04	4.663216e+03	3.239275e+03	0	1.423665e-03
5.500000e+08	1.588796e+14	0.000000e+00	8.857147e-01	1.891069e+15	1.991238e+15	6.078540e+13	1.713664e+04	4.659361e+03	3.236597e+03	0	1.418803e-03
5.600000e+08	1.572606e+14	0.000000e+00	8.857147e-01	1.877381e+15	1.976982e+15	6.048469e+13	1.710725e+04	4.655530e+03	3.233936e+03	0	1.413967e-03
5.700000e+08	1.556611e+14	0.000000e+00	8.857147e-01	1.863852e+15	1.962891e+15	6.018611e+13	1.707808e+04	4.651722e+03	3.231291e+03	0	1.409157e-03
5.800000e+08	1.540810e+14	0.000000e+00	8.857147e-01	1.850482e+15	1.948963e+15	5.988965e+13	1.704912e+04	4.647938e+03	3.228661e+03	0	1.404373e-03
5.900000e+08	1.525198e+14	0.000000e+00	8.857147e-01	1.837266e+15	1.935195e+15	5.959529e+13	1.702036e+04	4.644175e+03	3.226048e+03	0	1.399613e-03
6.000000e+08	1.509773e+14	0.000000e+00	8.857147e-01	1.824203e+15	1.921585e+15	5.930301e+13	1.699181e+04	4.640435e+03	3.223450e+03	0	1.394879e-03
6.100000e+08	1.494531e+14	0.000000e+00	8.857147e-01	1.811290e+15	1.908130e+15	5.901281e+13	1.696346e+04	4.636718e+03	3.220868e+03	0	1.390169e-03
6.200000e+08	1.479470e+14	0.000000e+00	8.857147e-01	1.798525e+15	1.894828e+15	5.872465e+13	1.693531e+04	4.633022e+03	3.218301e+03	0	1.385484e-03
6.300000e+08	1.464587e+14	0.000000e+00	8.857147e-01	1.785905e+15	1.881676e+15	5.843852e+13	1.690736e+04	4.629348e+03	3.215749e+03	0	1.380822e-03
6.400000e+08	1.449878e+14	0.000000e+00	8.857147e-01	1.773429e+15	1.868672e+15	5.815442e+13	1.687961e+04	4.625696e+03	3.213211e+03	0	1.376184e-03
6.500000e+08	1.435342e+14	0.000000e+00	8.857147e-01	1.761093e+15	1.855814e+15	5.787232e+13	1.685205e+04	4.622065e+03	3.210689e+03	0	1.371570e-03
6.600000e+08	1.420976e+14	0.000000e+00	8.857147e-01	1.748897e+15	1.843100e+15	5.759220e+13	1.682468e+04	4.618455e+03	3.208182e+03	0	1.366978e-03
6.700000e+08	1.406776e+14	0.000000e+00	8.857147e-01	1.736837e+15	1.830526e+15	5.731405e+13	1.679750e+04	4.614866e+03	3.205689e+03	0	1.362410e-03
6.800000e+08	1.392741e+14	0.000000e+00	8.857147e-01	1.724912e+15	1.818093e+15	5.703785e+13	1.677050e+04	4.611298e+03	3.203210e+03	0	1.357864e-03
6.900000e+08	1.378868e+14	0.000000e+00	8.857147e-01	1.713120e+15	1.805796e+15	5.676359e+13	1.674369e+04	4.607750e+03	3.200746e+03	0	1.353340e-03
7.000000e+08	1.365154e+14	0.000000e+00	8.857147e-01	1.701459e+15	1.793634e+15	5.649126e+13	1.671707e+04	4.604223e+03	3.198295e+03	0	1.348838e-03
7.100000e+08	1.351597e+14	0.000000e+00	8.857147e-01	1.689925e+15	1.781605e+15	5.622083e+13	1.669062e+04	4.600716e+03	3.195859e+03	0	1.344358e-03
7.200000e+08	1.338194e+14	0.000000e+00	8.857147e-01	1.678519e+15	1.769708e+15	5.595229e+13	1.666436e+04	4.597228e+03	3.193437e+03	0	1.339900e-03
7.300000e+08	1.324944e+14	0.000000e+00	8.857147e-01	1.667238e+15	1.757939e+15	5.568563e+13	1.663827e+04	4.593761e+03	3.191028e+03	0	1.335463e-03
7.400000e+08	1.311843e+14	0.000000e+00	8.857147e-01	1.656079e+15	1.746298e+15	5.542083e+13	1.661235e+04	4.590312e+03	3.188633e+03	0	1.331047e-03
7.500000e+08	1.298890e+14	0.000000e+00	8.857147e-01	1.645042e+15	1.734782e+15	5.515787e+13	1.658661e+04	4.586884e+03	3.186251e+03	0	1.326651e-03
7.600000e+08	1.286082e+14	0.000000e+00	8.857147e-01	1.634124e+15	1.723389e+15	5.489675e+13	1.656104e+04	4.583474e+03	3.183882e+03	0	1.322276e-03
7.700000e+08	1.273418e+14	0.000000e+00	8.857147e-01	1.623323e+15	1.712118e+15	5.463744e+13	1.653564e+04	4.580083e+03	3.181527e+03	0	1.317922e-03
7.800000e+08	1.260894e+14	0.000000e+00	8.857147e-01	1.612639e+15	1.700967e+15	5.437994e+13	1.651041e+04	4.576712e+03	3.179185e+03	0	1.313587e-03
7.900000e+08	1.248510e+14	0.000000e+00	8.857147e-01	1.602068e+15	1.689934e+15	5.412423e+13	1.648534e+04	4.573358e+03	3.176856e+03	0	1.309272e-03
8.000000e+08	1.236262e+14	0.000000e+00	8.857147e-01	1.591610e+15	1.679018e+15	5.387028e+13	1.646044e+04	4.570024e+03	3.174539e+03	0	1.304977e-03
8.100000e+08	1.224149e+14	0.000000e+00	8.857147e-01	1.581263e+15	1.668216e+15	5.361810e+13	1.643570e+04	4.566707e+03	3.172235e+03	0	1.300701e-03
8.200000e+08	1.212169e+14	0.000000e+00	8.857147e-01	1.571025e+15	1.657527e+15	5.336767e+13	1.641112e+04	4.563409e+03	3.169944e+03	0	1.296444e-03
8.300000e+08	1.200320e+14	0.000000e+00	8.857147e-01	1.560895e+15	1.646950e+15	5.311896e+13	1.638670e+04	4.560128e+03	3.167665e+03	0	1.292206e-03
8.400000e+08	1.188600e+14	0.000000e+00	8.857147e-01	1.550871e+15	1.636483e+15	5.287197e+13	1.636243e+04	4.556865e+03	3.165399e+03	0	1.287986e-03
8.500000e+08	1.177007e+14	0.000000e+00	8.857147e-01	1.540951e+15	1.626124e+15	5.262669e+13	1.633832e+04	4.553620e+03	3.163145e+03	0	1.283785e-03
8.600000e+08	1.165540e+14	0.000000e+00	8.857147e-01	1.531135e+15	1.615872e+15	5.238310e+13	1.631437e+04	4.550393e+03	3.160903e+03	0	1.279602e-03
8.700000e+08	1.154196e+14	0.000000e+00	8.857147e-01	1.521420e+15	1.605725e+15	5.214118e+13	1.629056e+04	4.547182e+03	3.158672e+03	0	1.275438e-03
8.800000e+08	1.142974e+14	0.000000e+00	8.857147e-01	1.511806e+15	1.595682e+15	5.190093e+13	1.626691e+04	4.543989e+03	3.156454e+03	0	1.271290e-03
8.900000e+08	1.131872e+14	0.000000e+00	8.857147e-01	1.502290e+15	1.585741e+15	5.166233e+13	1.624341e+04	4.540813e+03	3.154248e+03	0	1.267161e-03
9.000000e+08	1.120888e+14	0.000000e+00	8.857147e-01	1.492872e+15	1.575901e+15	5.142537e+13	1.622005e+04	4.537653e+03	3.152053e+03	0	1.263049e-03
9.100000e+08	1.110020e+14	0.000000e+00	8.857147e-01	1.483550e+15	1.566161e+15	5.119003e+13	1.619685e+04	4.534510e+03	3.149870e+03	0	1.258953e-03
9.200000e+08	1.099268e+14	0.000000e+00	8.857147e-01	1.474323e+15	1.556519e+15	5.095630e+13	1.617378e+04	4.531384e+03	3.147698e+03	0	1.254875e-03
9.300000e+08	1.088629e+14	0.000000e+00	8.857147e-01	1.465189e+15	1.546973e+15	5.072417e+13	1.615086e+04	4.528274e+03	3.145538e+03	0	1.250814e-03
9.400000e+08	1.078102e+14	0.000000e+00	8.857147e-01	1.456147e+15	1.537524e+15	5.049363e+13	1.612808e+04	4.525180e+03	3.143389e+03	0	1.246769e-03
9.500000e+08	1.067684e+14	0.000000e+00	8.857147e-01	1.447196e+15	1.528168e+15	5.026466e+13	1.610544e+04	4.522103e+03	3.141251e+03	0	1.242740e-03
9.600000e+08	1.057376e+14	0.000000e+00	8.857147e-01	1.438335e+15	1.518905e+15	5.003726e+13	1.608294e+04	4.519041e+03	3.139124e+03	0	1.238728e-03
9.700000e+08	1.047174e+14	0.000000e+00	8.857147e-01	1.429562e+15	1.509734e+15	4.981140e+13	1.606058e+04	4.515995e+03	3.137008e+03	0	1.234731e-03
9.800000e+08	1.037079e+14	0.000000e+00	8.857147e-01	1.420876e+15	1.500653e+15	4.958708e+13	1.603835e+04	4.512965e+03	3.134903e+03	0	1.230750e-03
9.900000e+08	1.027087e+14	0.000000e+00	8.857147e-01	1.412276e+15	1.491662e+15	4.936428e+13	1.601626e+04	4.509950e+03	3.132809e+03	0	1.226785e-03
1.000000e+09	1.017198e+14	0.000000e+00	8.857147e-01	1.403761e+15	1.482758e+15	4.914300e+13	1.599430e+04	4.506950e+03	3.130726e+03	0	1.222835e-03
1.010000e+09	1.007411e+14	0.000000e+00	8.857147e-01	1.395329e+15	1.473941e+15	4.892321e+13	1.597247e+04	4.503966e+03	3.128653e+03	0	1.218900e-03
1.020000e+09	9.977229e+13	0.000000e+00	8.857147e-01	1.386981e+15	1.465210e+15	4.870492e+13	1.595078e+04	4.500997e+03	3.126590e+03	0	1.214981e-03
1.030000e+09	9.881339e+13	0.000000e+00	8.857147e-01	1.378713e+15	1.456563e+15	4.848810e+13	1.592921e+04	4.498043e+03	3.124538e+03	0	1.211076e-03
1.040000e+09	9.786421e+13	0.000000e+00	8.857147e-01	1.370526e+15	1.448000e+15	4.827275e+13	1.590778e+04	4.495104e+03	3.122497e+03	0	1.207185e-03
1.050000e+09	9.692462e+13	0.000000e+00	8.857147e-01	1.362419e+15	1.439519e+15	4.805885e+13	1.588647e+04	4.492179e+03	3.120465e+03	0	1.203310e-03
1.060000e+09	9.599450e+13	0.000000e+00	8.857147e-01	1.354389e+15	1.431119e+15	4.784640e+13	1.586528e+04	4.489269e+03	3.118444e+03	0	1.199448e-03
1.070000e+09	9.507372e+13	0.000000e+00	8.857147e-01	1.346437e+15	1.422799e+15	4.763537e+13	1.584422e+04	4.486374e+03	3.116432e+03	0	1.195601e-03
1.080000e+09	9.416214e+13	0.000000e+00	8.857147e-01	1.338561e+15	1.414559e+15	4.742577e+13	1.582328e+04	4.483493e+03	3.114431e+03	0	1.191767e-03
1.090000e+09	9.325965e+13	0.000000e+00	8.857147e-01	1.330760e+15	1.406396e+15	4.721757e+13	1.580247e+04	4.480626e+03	3.112440e+03	0	1.187948e-03
1.100000e+09	9.236614e+13	0.000000e+00	8.857147e-01	1.323034e+15	1.398310e+15	4.701078e+13	1.578178e+04	4.477773e+03	3.110458e+03	0	1.184141e-03
1.110000e+09	9.148146e+13	0.000000e+00	8.857147e-01	1.315380e+15	1.390301e+15	4.680537e+13	1.576120e+04	4.474935e+03	3.108486e+03	0	1.180349e-03
1.120000e+09	9.060553e+13	0.000000e+00	8.857147e-01	1.307799e+15	1.382366e+15	4.660133e+13	1.574075e+04	4.472110e+03	3.106524e+03	0	1.176569e-03
1.130000e+09	8.973820e+13	0.000000e+00	8.857147e-01	1.300290e+15	1.374506e+15	4.639867e+13	1.572041e+04	4.469298e+03	3.104571e+03	0	1.172803e-03
1.140000e+09	8.887939e+13	0.000000e+00	8.857147e-01	1.292850e+15	1.366719e+15	4.619735e+13	1.570019e+04	4.466501e+03	3.102628e+03	0	1.169050e-03
1.150000e+09	8.802896e+13	0.000000e+00	8.857147e-01	1.285481e+15	1.359004e+15	4.599738e+13	1.568009e+04	4.463717e+03	3.100694e+03	0	1.165309e-03
1.160000e+09	8.718682e+13	0.000000e+00	8.857147e-01	1.278180e+15	1.351360e+15	4.579875e+13	1.566010e+04	4.460946e+03	3.098769e+03	0	1.161581e-03
1.170000e+09	8.635285e+13	0.000000e+00	8.857147e-01	1.270946e+15	1.343786e+15	4.560143e+13	1.564022e+04	4.458189e+03	3.096854e+03	0	1.157866e-03
1.180000e+09	8.552695e+13	0.000000e+00	8.857147e-01	1.263780e+15	1.336283e+15	4.540544e+13	1.562045e+04	4.455445e+03	3.094948e+03	0	1.154163e-03
1.190000e+09	8.470902e+13	0.000000e+00	8.857147e-01	1.256680e+15	1.328847e+15	4.521074e+13	1.560080e+04	4.452714e+03	3.093051e+03	0	1.150472e-03
1.200000e+09	8.389895e+13	0.000000e+00	8.857147e-01	1.249645e+15	1.321480e+15	4.501733e+13	1.558126e+04	4.449996e+03	3.091163e+03	0	1.146792e-03
1.210000e+09	8.309664e+13	0.000000e+00	8.857147e-01	1.242674e+15	1.314179e+15	4.482521e+13	1.556182e+04	4.447291e+03	3.089284e+03	0	1.143125e-03
1.220000e+09	8.230200e+13	0.000000e+00	8.857147e-01	1.235767e+15	1.306945e+15	4.463436e+13	1.554250e+04	4.444599e+03	3.087413e+03	0	1.139470e-03
1.230000e+09	8.151492e+13	0.000000e+00	8.857147e-01	1.228923e+15	1.299776e+15	4.444478e+13	1.552328e+04	4.441919e+03	3.085552e+03	0	1.135826e-03
1.240000e+09	8.073531e+13	0.000000e+00	8.857147e-01	1.222141e+15	1.292671e+15	4.425645e+13	1.550417e+04	4.439252e+03	3.083699e+03	0	1.132193e-03
1.250000e+09	7.996307e+13	0.000000e+00	8.857147e-01	1.215420e+15	1.285630e+15	4.406936e+13	1.548516e+04	4.436597e+03	3.081855e+03	0	1.128572e-03
1.260000e+09	7.919812e+13	0.000000e+00	8.857147e-01	1.208759e+15	1.278652e+15	4.388350e+13	1.546626e+04	4.433955e+03	3.080020e+03	0	1.124961e-03
1.270000e+09	7.844036e+13	0.000000e+00	8.857147e-01	1.202159e+15	1.271736e+15	4.369887e+13	1.544746e+04	4.431325e+03	3.078193e+03	0	1.121362e-03
1.280000e+09	7.768969e+13	0.000000e+00	8.857147e-01	1.195617e+15	1.264881e+15	4.351545e+13	1.542876e+04	4.428707e+03	3.076374e+03	0	1.117773e-03
1.290000e+09	7.694604e+13	0.000000e+00	8.857147e-01	1.189133e+15	1.258087e+15	4.333324e+13	1.541017e+04	4.426101e+03	3.074564e+03	0	1.114196e-03
1.300000e+09	7.620931e+13	0.000000e+00	8.857147e-01	1.182708e+15	1.251353e+15	4.315222e+13	1.539167e+04	4.423508e+03	3.072763e+03	0	1.110628e-03
1.310000e+09	7.547942e+13	0.000000e+00	8.857147e-01	1.176339e+15	1.244678e+15	4.297239e+13	1.537328e+04	4.420926e+03	3.070969e+03	0	1.107071e-03
1.320000e+09	7.475629e+13	0.000000e+00	8.857147e-01	1.170026e+15	1.238062e+15	4.279374e+13	1.535498e+04	4.418356e+03	3.069184e+03	0	1.103524e-03
1.330000e+09	7.403982e+13	0.000000e+00	8.857147e-01	1.163769e+15	1.231503e+15	4.261626e+13	1.533678e+04	4.415797e+03	3.067407e+03	0	1.099988e-03
1.340000e+09	7.332994e+13	0.000000e+00	8.857147e-01	1.157566e+15	1.225001e+15	4.243994e+13	1.531868e+04	4.413250e+03	3.065638e+03	0	1.096461e-03
1.350000e+09	7.262657e+13	0.000000e+00	8.857147e-01	1.151418e+15	1.218556e+15	4.226476e+13	1.530068e+04	4.410715e+03	3.063876e+03	0	1.092944e-03
1.360000e+09	7.192963e+13	0.000000e+00	8.857147e-01	1.145323e+15	1.212166e+15	4.209073e+13	1.528277e+04	4.408191e+03	3.062123e+03	0	1.089437e-03
