#t		Qconv[W]	Ri[Rp]		R*[Rp]		Qc[W]		Qm[W]		Qr[W]		Tcmb[K]		Tl[K]		Tup[K]		RiFlag		Bs[T]
0.000000e+00	2.117333e+14	0.000000e+00	8.857140e-01	2.855909e+15	8.273692e+14	9.924745e+13	2.068369e+04	4.254932e+03	2.930285e+03	0	1.554683e-03
1.000000e+07	2.160862e+14	0.000000e+00	8.857140e-01	2.885611e+15	1.103967e+15	9.869755e+13	2.065170e+04	4.436626e+03	3.055414e+03	0	1.565264e-03
2.000000e+07	2.193648e+14	0.000000e+00	8.857140e-01	2.907460e+15	1.393602e+15	9.815176e+13	2.061937e+04	4.595005e+03	3.164487e+03	0	1.573141e-03
3.000000e+07	2.216210e+14	0.000000e+00	8.857140e-01	2.921841e+15	1.676833e+15	9.761004e+13	2.058680e+04	4.729046e+03	3.256797e+03	0	1.578516e-03
4.000000e+07	2.229567e+14	0.000000e+00	8.857140e-01	2.929501e+15	1.937536e+15	9.707238e+13	2.055406e+04	4.839409e+03	3.332802e+03	0	1.581681e-03
5.000000e+07	2.235015e+14	0.000000e+00	8.857140e-01	2.931390e+15	2.165249e+15	9.653872e+13	2.052124e+04	4.928053e+03	3.393849e+03	0	1.582968e-03
6.000000e+07	2.233927e+14	0.000000e+00	8.857140e-01	2.928513e+15	2.355416e+15	9.600904e+13	2.048840e+04	4.997706e+03	3.441818e+03	0	1.582711e-03
7.000000e+07	2.227607e+14	0.000000e+00	8.857140e-01	2.921824e+15	2.508205e+15	9.548330e+13	2.045559e+04	5.051384e+03	3.478785e+03	0	1.581217e-03
8.000000e+07	2.217207e+14	0.000000e+00	8.857140e-01	2.912166e+15	2.626827e+15	9.496148e+13	2.042286e+04	5.092022e+03	3.506771e+03	0	1.578753e-03
9.000000e+07	2.203692e+14	0.000000e+00	8.857140e-01	2.900243e+15	2.715993e+15	9.444353e+13	2.039023e+04	5.122263e+03	3.527598e+03	0	1.575538e-03
1.000000e+08	2.187845e+14	0.000000e+00	8.857140e-01	2.886629e+15	2.780801e+15	9.392943e+13	2.035774e+04	5.144362e+03	3.542817e+03	0	1.571753e-03
1.100000e+08	2.170285e+14	0.000000e+00	8.857140e-01	2.871776e+15	2.826065e+15	9.341915e+13	2.032540e+04	5.160168e+03	3.553703e+03	0	1.567536e-03
1.200000e+08	2.151490e+14	0.000000e+00	8.857140e-01	2.856033e+15	2.855987e+15	9.291265e+13	2.029323e+04	5.171159e+03	3.561272e+03	0	1.562998e-03
1.300000e+08	2.131826e+14	0.000000e+00	8.857140e-01	2.839668e+15	2.874065e+15	9.240989e+13	2.026123e+04	5.178493e+03	3.566322e+03	0	1.558222e-03
1.400000e+08	2.111572e+14	0.000000e+00	8.857140e-01	2.822884e+15	2.883108e+15	9.191086e+13	2.022941e+04	5.183062e+03	3.569469e+03	0	1.553271e-03
1.500000e+08	2.090934e+14	0.000000e+00	8.857140e-01	2.805833e+15	2.885325e+15	9.141552e+13	2.019779e+04	5.185552e+03	3.571184e+03	0	1.548194e-03
1.600000e+08	2.070070e+14	0.000000e+00	8.857140e-01	2.788629e+15	2.882425e+15	9.092384e+13	2.016635e+04	5.186480e+03	3.571823e+03	0	1.543028e-03
1.700000e+08	2.049095e+14	0.000000e+00	8.857140e-01	2.771356e+15	2.875714e+15	9.043578e+13	2.013511e+04	5.186240e+03	3.571657e+03	0	1.537798e-03
1.800000e+08	2.028095e+14	0.000000e+00	8.857140e-01	2.754076e+15	2.866184e+15	8.995133e+13	2.010405e+04	5.185126e+03	3.570890e+03	0	1.532527e-03
1.900000e+08	2.007133e+14	0.000000e+00	8.857140e-01	2.736837e+15	2.854583e+15	8.947044e+13	2.007320e+04	5.183360e+03	3.569674e+03	0	1.527229e-03
2.000000e+08	1.986255e+14	0.000000e+00	8.857140e-01	2.719672e+15	2.841472e+15	8.899309e+13	2.004253e+04	5.181110e+03	3.568125e+03	0	1.521915e-03
2.100000e+08	1.965496e+14	0.000000e+00	8.857140e-01	2.702605e+15	2.827273e+15	8.851925e+13	2.001206e+04	5.178500e+03	3.566327e+03	0	1.516594e-03
2.200000e+08	1.944880e+14	0.000000e+00	8.857140e-01	2.685655e+15	2.812302e+15	8.804889e+13	1.998178e+04	5.175623e+03	3.564346e+03	0	1.511273e-03
2.300000e+08	1.924425e+14	0.000000e+00	8.857140e-01	2.668834e+15	2.796795e+15	8.758198e+13	1.995168e+04	5.172551e+03	3.562230e+03	0	1.505956e-03
2.400000e+08	1.904143e+14	0.000000e+00	8.857140e-01	2.652151e+15	2.780927e+15	8.711849e+13	1.992178e+04	5.169336e+03	3.560016e+03	0	1.500647e-03
2.500000e+08	1.884042e+14	0.000000e+00	8.857140e-01	2.635612e+15	2.764830e+15	8.665840e+13	1.989206e+04	5.166018e+03	3.557731e+03	0	1.495348e-03
2.600000e+08	1.864129e+14	0.000000e+00	8.857140e-01	2.619222e+15	2.748601e+15	8.620168e+13	1.986253e+04	5.162626e+03	3.555395e+03	0	1.490061e-03
2.700000e+08	1.844407e+14	0.000000e+00	8.857140e-01	2.602982e+15	2.732314e+15	8.574830e+13	1.983318e+04	5.159182e+03	3.553024e+03	0	1.484787e-03
2.800000e+08	1.824878e+14	0.000000e+00	8.857140e-01	2.586895e+15	2.716023e+15	8.529822e+13	1.980401e+04	5.155705e+03	3.550629e+03	0	1.479528e-03
2.900000e+08	1.805543e+14	0.000000e+00	8.857140e-01	2.570960e+15	2.699767e+15	8.485144e+13	1.977502e+04	5.152206e+03	3.548219e+03	0	1.474284e-03
3.000000e+08	1.786402e+14	0.000000e+00	8.857140e-01	2.555178e+15	2.683578e+15	8.440790e+13	1.974621e+04	5.148694e+03	3.545801e+03	0	1.469056e-03
3.100000e+08	1.767453e+14	0.000000e+00	8.857140e-01	2.539548e+15	2.667475e+15	8.396760e+13	1.971758e+04	5.145178e+03	3.543379e+03	0	1.463843e-03
3.200000e+08	1.748697e+14	0.000000e+00	8.857140e-01	2.524069e+15	2.651476e+15	8.353051e+13	1.968912e+04	5.141662e+03	3.540958e+03	0	1.458647e-03
3.300000e+08	1.730131e+14	0.000000e+00	8.857140e-01	2.508740e+15	2.635592e+15	8.309659e+13	1.966083e+04	5.138151e+03	3.538540e+03	0	1.453466e-03
3.400000e+08	1.711754e+14	0.000000e+00	8.857140e-01	2.493560e+15	2.619831e+15	8.266582e+13	1.963272e+04	5.134647e+03	3.536127e+03	0	1.448302e-03
3.500000e+08	1.693564e+14	0.000000e+00	8.857140e-01	2.478526e+15	2.604200e+15	8.223818e+13	1.960477e+04	5.131154e+03	3.533721e+03	0	1.443153e-03
3.600000e+08	1.675558e+14	0.000000e+00	8.857140e-01	2.463638e+15	2.588701e+15	8.181364e+13	1.957700e+04	5.127671e+03	3.531323e+03	0	1.438021e-03
3.700000e+08	1.657735e+14	0.000000e+00	8.857140e-01	2.448893e+15	2.573338e+15	8.139218e+13	1.954939e+04	5.124202e+03	3.528933e+03	0	1.432904e-03
3.800000e+08	1.640093e+14	0.000000e+00	8.857140e-01	2.434291e+15	2.558112e+15	8.097376e+13	1.952194e+04	5.120746e+03	3.526554e+03	0	1.427803e-03
3.900000e+08	1.622629e+14	0.000000e+00	8.857140e-01	2.419829e+15	2.543024e+15	8.055837e+13	1.949466e+04	5.117305e+03	3.524184e+03	0	1.422717e-03
4.000000e+08	1.605341e+14	0.000000e+00	8.857140e-01	2.405505e+15	2.528073e+15	8.014597e+13	1.946754e+04	5.113879e+03	3.521824e+03	0	1.417646e-03
4.100000e+08	1.588227e+14	0.000000e+00	8.857140e-01	2.391318e+15	2.513260e+15	7.973656e+13	1.944058e+04	5.110468e+03	3.519475e+03	0	1.412590e-03
4.200000e+08	1.571284e+14	0.000000e+00	8.857140e-01	2.377267e+15	2.498583e+15	7.933009e+13	1.941378e+04	5.107073e+03	3.517137e+03	0	1.407549e-03
4.300000e+08	1.554511e+14	0.000000e+00	8.857140e-01	2.363349e+15	2.484043e+15	7.892655e+13	1.938714e+04	5.103693e+03	3.514809e+03	0	1.402523e-03
4.400000e+08	1.537905e+14	0.000000e+00	8.857140e-01	2.349562e+15	2.469637e+15	7.852591e+13	1.936065e+04	5.100329e+03	3.512492e+03	0	1.397511e-03
4.500000e+08	1.521464e+14	0.000000e+00	8.857140e-01	2.335906e+15	2.455364e+15	7.812815e+13	1.933432e+04	5.096980e+03	3.510186e+03	0	1.392513e-03
4.600000e+08	1.505186e+14	0.000000e+00	8.857140e-01	2.322379e+15	2.441224e+15	7.773325e+13	1.930814e+04	5.093648e+03	3.507891e+03	0	1.387529e-03
4.700000e+08	1.489069e+14	0.000000e+00	8.857140e-01	2.308978e+15	2.427214e+15	7.734118e+13	1.928211e+04	5.090331e+03	3.505607e+03	0	1.382559e-03
4.800000e+08	1.473111e+14	0.000000e+00	8.857140e-01	2.295702e+15	2.413334e+15	7.695192e+13	1.925623e+04	5.087030e+03	3.503334e+03	0	1.377602e-03
4.900000e+08	1.457309e+14	0.000000e+00	8.857140e-01	2.282550e+15	2.399581e+15	7.656545e+13	1.923050e+04	5.083744e+03	3.501071e+03	0	1.372659e-03
5.000000e+08	1.441662e+14	0.000000e+00	8.857140e-01	2.269520e+15	2.385955e+15	7.618174e+13	1.920491e+04	5.080475e+03	3.498819e+03	0	1.367728e-03
5.100000e+08	1.426167e+14	0.000000e+00	8.857140e-01	2.256611e+15	2.372454e+15	7.580077e+13	1.917947e+04	5.077220e+03	3.496578e+03	0	1.362811e-03
5.200000e+08	1.410824e+14	0.000000e+00	8.857140e-01	2.243821e+15	2.359076e+15	7.542252e+13	1.915418e+04	5.073981e+03	3.494347e+03	0	1.357906e-03
5.300000e+08	1.395629e+14	0.000000e+00	8.857140e-01	2.231148e+15	2.345820e+15	7.504696e+13	1.912903e+04	5.070757e+03	3.492127e+03	0	1.353013e-03
5.400000e+08	1.380581e+14	0.000000e+00	8.857140e-01	2.218591e+15	2.332684e+15	7.467409e+13	1.910402e+04	5.067548e+03	3.489917e+03	0	1.348133e-03
5.500000e+08	1.365678e+14	0.000000e+00	8.857140e-01	2.206149e+15	2.319668e+15	7.430386e+13	1.907915e+04	5.064354e+03	3.487717e+03	0	1.343264e-03
5.600000e+08	1.350918e+14	0.000000e+00	8.857140e-01	2.193820e+15	2.306769e+15	7.393627e+13	1.905442e+04	5.061175e+03	3.485528e+03	0	1.338407e-03
5.700000e+08	1.336299e+14	0.000000e+00	8.857140e-01	2.181603e+15	2.293986e+15	7.357129e+13	1.902983e+04	5.058011e+03	3.483349e+03	0	1.333562e-03
5.800000e+08	1.321821e+14	0.000000e+00	8.857140e-01	2.169497e+15	2.281318e+15	7.320890e+13	1.900538e+04	5.054862e+03	3.481180e+03	0	1.328728e-03
5.900000e+08	1.307479e+14	0.000000e+00	8.857140e-01	2.157499e+15	2.268763e+15	7.284907e+13	1.898106e+04	5.051727e+03	3.479021e+03	0	1.323905e-03
6.000000e+08	1.293274e+14	0.000000e+00	8.857140e-01	2.145609e+15	2.256320e+15	7.249179e+13	1.895688e+04	5.048607e+03	3.476872e+03	0	1.319093e-03
6.100000e+08	1.279204e+14	0.000000e+00	8.857140e-01	2.133826e+15	2.243988e+15	7.213705e+13	1.893283e+04	5.045501e+03	3.474733e+03	0	1.314292e-03
6.200000e+08	1.265266e+14	0.000000e+00	8.857140e-01	2.122147e+15	2.231765e+15	7.178480e+13	1.890891e+04	5.042409e+03	3.472604e+03	0	1.309501e-03
6.300000e+08	1.251459e+14	0.000000e+00	8.857140e-01	2.110573e+15	2.219650e+15	7.143505e+13	1.888512e+04	5.039331e+03	3.470485e+03	0	1.304721e-03
6.400000e+08	1.237781e+14	0.000000e+00	8.857140e-01	2.099101e+15	2.207641e+15	7.108776e+13	1.886146e+04	5.036268e+03	3.468375e+03	0	1.299950e-03
6.500000e+08	1.224232e+14	0.000000e+00	8.857140e-01	2.087730e+15	2.195738e+15	7.074291e+13	1.883793e+04	5.033218e+03	3.466275e+03	0	1.295189e-03
6.600000e+08	1.210808e+14	0.000000e+00	8.857140e-01	2.076459e+15	2.183939e+15	7.040050e+13	1.881452e+04	5.030182e+03	3.464184e+03	0	1.290438e-03
6.700000e+08	1.197509e+14	0.000000e+00	8.857140e-01	2.065288e+15	2.172243e+15	7.006049e+13	1.879125e+04	5.027160e+03	3.462103e+03	0	1.285696e-03
6.800000e+08	1.184334e+14	0.000000e+00	8.857140e-01	2.054214e+15	2.160649e+15	6.972287e+13	1.876809e+04	5.024152e+03	3.460031e+03	0	1.280963e-03
6.900000e+08	1.171280e+14	0.000000e+00	8.857140e-01	2.043236e+15	2.149155e+15	6.938762e+13	1.874506e+04	5.021157e+03	3.457968e+03	0	1.276239e-03
7.000000e+08	1.158346e+14	0.000000e+00	8.857140e-01	2.032354e+15	2.137761e+15	6.905471e+13	1.872216e+04	5.018175e+03	3.455915e+03	0	1.271524e-03
7.100000e+08	1.145531e+14	0.000000e+00	8.857140e-01	2.021567e+15	2.126464e+15	6.872414e+13	1.869937e+04	5.015207e+03	3.453871e+03	0	1.266818e-03
7.200000e+08	1.132833e+14	0.000000e+00	8.857140e-01	2.010872e+15	2.115265e+15	6.839588e+13	1.867671e+04	5.012252e+03	3.451836e+03	0	1.262120e-03
7.300000e+08	1.120251e+14	0.000000e+00	8.857140e-01	2.000269e+15	2.104161e+15	6.806991e+13	1.865417e+04	5.009310e+03	3.449809e+03	0	1.257430e-03
7.400000e+08	1.107783e+14	0.000000e+00	8.857140e-01	1.989758e+15	2.093152e+15	6.774622e+13	1.863174e+04	5.006381e+03	3.447792e+03	0	1.252748e-03
7.500000e+08	1.095429e+14	0.000000e+00	8.857140e-01	1.979336e+15	2.082236e+15	6.742479e+13	1.860944e+04	5.003465e+03	3.445784e+03	0	1.248073e-03
7.600000e+08	1.083186e+14	0.000000e+00	8.857140e-01	1.969003e+15	2.071414e+15	6.710559e+13	1.858725e+04	5.000561e+03	3.443785e+03	0	1.243406e-03
7.700000e+08	1.071054e+14	0.000000e+00	8.857140e-01	1.958758e+15	2.060682e+15	6.678862e+13	1.856517e+04	4.997671e+03	3.441794e+03	0	1.238746e-03
7.800000e+08	1.059030e+14	0.000000e+00	8.857140e-01	1.948600e+15	2.050041e+15	6.647385e+13	1.854321e+04	4.994793e+03	3.439812e+03	0	1.234094e-03
7.900000e+08	1.047115e+14	0.000000e+00	8.857140e-01	1.938527e+15	2.039489e+15	6.616126e+13	1.852136e+04	4.991927e+03	3.437838e+03	0	1.229448e-03
8.000000e+08	1.035306e+14	0.000000e+00	8.857140e-01	1.928540e+15	2.029026e+15	6.585085e+13	1.849963e+04	4.989074e+03	3.435874e+03	0	1.224808e-03
8.100000e+08	1.023602e+14	0.000000e+00	8.857140e-01	1.918636e+15	2.018650e+15	6.554258e+13	1.847801e+04	4.986234e+03	3.433917e+03	0	1.220176e-03
8.200000e+08	1.012002e+14	0.000000e+00	8.857140e-01	1.908815e+15	2.008360e+15	6.523645e+13	1.845650e+04	4.983405e+03	3.431969e+03	0	1.215549e-03
8.300000e+08	1.000505e+14	0.000000e+00	8.857140e-01	1.899076e+15	1.998156e+15	6.493243e+13	1.843510e+04	4.980589e+03	3.430030e+03	0	1.210928e-03
8.400000e+08	9.891101e+13	0.000000e+00	8.857140e-01	1.889418e+15	1.988036e+15	6.463052e+13	1.841380e+04	4.977785e+03	3.428099e+03	0	1.206314e-03
8.500000e+08	9.778153e+13	0.000000e+00	8.857140e-01	1.879840e+15	1.977999e+15	6.433068e+13	1.839262e+04	4.974992e+03	3.426176e+03	0	1.201704e-03
8.600000e+08	9.666196e+13	0.000000e+00	8.857140e-01	1.870341e+15	1.968045e+15	6.403292e+13	1.837154e+04	4.972212e+03	3.424261e+03	0	1.197100e-03
8.700000e+08	9.555221e+13	0.000000e+00	8.857140e-01	1.860920e+15	1.958172e+15	6.373720e+13	1.835057e+04	4.969443e+03	3.422354e+03	0	1.192501e-03
8.800000e+08	9.445215e+13	0.000000e+00	8.857140e-01	1.851577e+15	1.948381e+15	6.344352e+13	1.832971e+04	4.966687e+03	3.420456e+03	0	1.187907e-03
8.900000e+08	9.336167e+13	0.000000e+00	8.857140e-01	1.842310e+15	1.938668e+15	6.315185e+13	1.830895e+04	4.963942e+03	3.418565e+03	0	1.183318e-03
9.000000e+08	9.228067e+13	0.000000e+00	8.857140e-01	1.833119e+15	1.929035e+15	6.286219e+13	1.828829e+04	4.961208e+03	3.416683e+03	0	1.178733e-03
9.100000e+08	9.120904e+13	0.000000e+00	8.857140e-01	1.824003e+15	1.919480e+15	6.257451e+13	1.826774e+04	4.958486e+03	3.414808e+03	0	1.174153e-03
9.200000e+08	9.014667e+13	0.000000e+00	8.857140e-01	1.814961e+15	1.910002e+15	6.228880e+13	1.824728e+04	4.955775e+03	3.412941e+03	0	1.169576e-03
9.300000e+08	8.909345e+13	0.000000e+00	8.857140e-01	1.805992e+15	1.900600e+15	6.200505e+13	1.822693e+04	4.953076e+03	3.411082e+03	0	1.165004e-03
9.400000e+08	8.804928e+13	0.000000e+00	8.857140e-01	1.797095e+15	1.891274e+15	6.172324e+13	1.820668e+04	4.950387e+03	3.409231e+03	0	1.160434e-03
9.500000e+08	8.701405e+13	0.000000e+00	8.857140e-01	1.788269e+15	1.882022e+15	6.144335e+13	1.818653e+04	4.947710e+03	3.407387e+03	0	1.155869e-03
9.600000e+08	8.598767e+13	0.000000e+00	8.857140e-01	1.779515e+15	1.872844e+15	6.116537e+13	1.816648e+04	4.945044e+03	3.405551e+03	0	1.151306e-03
9.700000e+08	8.497004e+13	0.000000e+00	8.857140e-01	1.770830e+15	1.863739e+15	6.088928e+13	1.814653e+04	4.942389e+03	3.403723e+03	0	1.146746e-03
9.800000e+08	8.396106e+13	0.000000e+00	8.857140e-01	1.762215e+15	1.854706e+15	6.061507e+13	1.812667e+04	4.939745e+03	3.401902e+03	0	1.142189e-03
9.900000e+08	8.296063e+13	0.000000e+00	8.857140e-01	1.753668e+15	1.845744e+15	6.034272e+13	1.810691e+04	4.937112e+03	3.400088e+03	0	1.137634e-03
1.000000e+09	8.196865e+13	0.000000e+00	8.857140e-01	1.745189e+15	1.836854e+15	6.007223e+13	1.808725e+04	4.934490e+03	3.398282e+03	0	1.133082e-03
1.010000e+09	8.098503e+13	0.000000e+00	8.857140e-01	1.736777e+15	1.828033e+15	5.980356e+13	1.806768e+04	4.931878e+03	3.396484e+03	0	1.128531e-03
1.020000e+09	8.000969e+13	0.000000e+00	8.857140e-01	1.728431e+15	1.819281e+15	5.953672e+13	1.804820e+04	4.929277e+03	3.394692e+03	0	1.123982e-03
1.030000e+09	7.904252e+13	0.000000e+00	8.857140e-01	1.720151e+15	1.810598e+15	5.927169e+13	1.802882e+04	4.926686e+03	3.392908e+03	0	1.119435e-03
1.040000e+09	7.808344e+13	0.000000e+00	8.857140e-01	1.711935e+15	1.801982e+15	5.900844e+13	1.800953e+04	4.924106e+03	3.391131e+03	0	1.114889e-03
1.050000e+09	7.713235e+13	0.000000e+00	8.857140e-01	1.703784e+15	1.793434e+15	5.874697e+13	1.799034e+04	4.921536e+03	3.389361e+03	0	1.110344e-03
1.060000e+09	7.618918e+13	0.000000e+00	8.857140e-01	1.695696e+15	1.784951e+15	5.848727e+13	1.797123e+04	4.918977e+03	3.387599e+03	0	1.105800e-03
1.070000e+09	7.525383e+13	0.000000e+00	8.857140e-01	1.687671e+15	1.776534e+15	5.822931e+13	1.795221e+04	4.916427e+03	3.385843e+03	0	1.101256e-03
1.080000e+09	7.432622e+13	0.000000e+00	8.857140e-01	1.679708e+15	1.768182e+15	5.797309e+13	1.793329e+04	4.913888e+03	3.384095e+03	0	1.096712e-03
1.090000e+09	7.340626e+13	0.000000e+00	8.857140e-01	1.671806e+15	1.759894e+15	5.771860e+13	1.791445e+04	4.911360e+03	3.382353e+03	0	1.092169e-03
1.100000e+09	7.249387e+13	0.000000e+00	8.857140e-01	1.663965e+15	1.751670e+15	5.746581e+13	1.789571e+04	4.908841e+03	3.380619e+03	0	1.087625e-03
1.110000e+09	7.158897e+13	0.000000e+00	8.857140e-01	1.656185e+15	1.743508e+15	5.721472e+13	1.787705e+04	4.906332e+03	3.378891e+03	0	1.083080e-03
1.120000e+09	7.069148e+13	0.000000e+00	8.857140e-01	1.648464e+15	1.735409e+15	5.696531e+13	1.785847e+04	4.903833e+03	3.377170e+03	0	1.078535e-03
1.130000e+09	6.980132e+13	0.000000e+00	8.857140e-01	1.640802e+15	1.727371e+15	5.671757e+13	1.783999e+04	4.901344e+03	3.375456e+03	0	1.073989e-03
1.140000e+09	6.891840e+13	0.000000e+00	8.857140e-01	1.633198e+15	1.719394e+15	5.647148e+13	1.782159e+04	4.898865e+03	3.373748e+03	0	1.069442e-03
1.150000e+09	6.804266e+13	0.000000e+00	8.857140e-01	1.625651e+15	1.711477e+15	5.622704e+13	1.780327e+04	4.896395e+03	3.372047e+03	0	1.064892e-03
1.160000e+09	6.717401e+13	0.000000e+00	8.857140e-01	1.618162e+15	1.703620e+15	5.598423e+13	1.778504e+04	4.893935e+03	3.370353e+03	0	1.060341e-03
1.170000e+09	6.631238e+13	0.000000e+00	8.857140e-01	1.610730e+15	1.695822e+15	5.574303e+13	1.776689e+04	4.891485e+03	3.368666e+03	0	1.055788e-03
1.180000e+09	6.545769e+13	0.000000e+00	8.857140e-01	1.603353e+15	1.688082e+15	5.550344e+13	1.774883e+04	4.889044e+03	3.366985e+03	0	1.051233e-03
1.190000e+09	6.460988e+13	0.000000e+00	8.857140e-01	1.596031e+15	1.680400e+15	5.526545e+13	1.773085e+04	4.886613e+03	3.365310e+03	0	1.046674e-03
1.200000e+09	6.376886e+13	0.000000e+00	8.857140e-01	1.588765e+15	1.672775e+15	5.502903e+13	1.771295e+04	4.884191e+03	3.363642e+03	0	1.042113e-03
1.210000e+09	6.293457e+13	0.000000e+00	8.857140e-01	1.581552e+15	1.665207e+15	5.479418e+13	1.769513e+04	4.881778e+03	3.361981e+03	0	1.037548e-03
1.220000e+09	6.210693e+13	0.000000e+00	8.857140e-01	1.574394e+15	1.657695e+15	5.456089e+13	1.767739e+04	4.879375e+03	3.360326e+03	0	1.032980e-03
1.230000e+09	6.128588e+13	0.000000e+00	8.857140e-01	1.567288e+15	1.650239e+15	5.432914e+13	1.765974e+04	4.876981e+03	3.358677e+03	0	1.028408e-03
1.240000e+09	6.047135e+13	0.000000e+00	8.857140e-01	1.560235e+15	1.642837e+15	5.409892e+13	1.764216e+04	4.874596e+03	3.357035e+03	0	1.023832e-03
1.250000e+09	5.966327e+13	0.000000e+00	8.857140e-01	1.553234e+15	1.635490e+15	5.387023e+13	1.762466e+04	4.872220e+03	3.355398e+03	0	1.019251e-03
1.260000e+09	5.886157e+13	0.000000e+00	8.857140e-01	1.546284e+15	1.628197e+15	5.364304e+13	1.760724e+04	4.869853e+03	3.353768e+03	0	1.014665e-03
1.270000e+09	5.806618e+13	0.000000e+00	8.857140e-01	1.539385e+15	1.620957e+15	5.341734e+13	1.758990e+04	4.867495e+03	3.352144e+03	0	1.010074e-03
1.280000e+09	5.727704e+13	0.000000e+00	8.857140e-01	1.532537e+15	1.613769e+15	5.319313e+13	1.757264e+04	4.865146e+03	3.350527e+03	0	1.005477e-03
1.290000e+09	5.649409e+13	0.000000e+00	8.857140e-01	1.525739e+15	1.606634e+15	5.297040e+13	1.755545e+04	4.862806e+03	3.348915e+03	0	1.000875e-03
1.300000e+09	5.571726e+13	0.000000e+00	8.857140e-01	1.518990e+15	1.599551e+15	5.274913e+13	1.753834e+04	4.860475e+03	3.347310e+03	0	9.962658e-04
1.310000e+09	5.494649e+13	0.000000e+00	8.857140e-01	1.512290e+15	1.592519e+15	5.252930e+13	1.752130e+04	4.858152e+03	3.345710e+03	0	9.916505e-04
1.320000e+09	5.418172e+13	0.000000e+00	8.857140e-01	1.505639e+15	1.585537e+15	5.231092e+13	1.750434e+04	4.855838e+03	3.344117e+03	0	9.870282e-04
1.330000e+09	5.342288e+13	0.000000e+00	8.857140e-01	1.499036e+15	1.578606e+15	5.209397e+13	1.748745e+04	4.853533e+03	3.342529e+03	0	9.823986e-04
1.340000e+09	5.266992e+13	0.000000e+00	8.857140e-01	1.492480e+15	1.571724e+15	5.187843e+13	1.747064e+04	4.851236e+03	3.340948e+03	0	9.777613e-04
1.350000e+09	5.192277e+13	0.000000e+00	8.857140e-01	1.485971e+15	1.564892e+15	5.166430e+13	1.745390e+04	4.848948e+03	3.339372e+03	0	9.731160e-04
1.360000e+09	5.118138e+13	0.000000e+00	8.857140e-01	1.479509e+15	1.558108e+15	5.145156e+13	1.743723e+04	4.846669e+03	3.337802e+03	0	9.684621e-04
