#t		Qconv[W]	Ri[Rp]		R*[Rp]		Qc[W]		Qm[W]		Qr[W]		Tcmb[K]		Tl[K]		Tup[K]		RiFlag		Bs[T]
0.000000e+00	9.177412e+12	0.000000e+00	7.076021e-01	1.930246e+14	9.773235e+13	1.662646e+14	7.282198e+03	3.889557e+03	2.354636e+03	0	6.078846e-04
1.000000e+07	9.124285e+12	0.000000e+00	7.076021e-01	1.923615e+14	1.002780e+14	1.653433e+14	7.274912e+03	3.904865e+03	2.363903e+03	0	6.067093e-04
2.000000e+07	9.069822e+12	0.000000e+00	7.076021e-01	1.916844e+14	1.028319e+14	1.644290e+14	7.267651e+03	3.919929e+03	2.373023e+03	0	6.054998e-04
3.000000e+07	9.014083e+12	0.000000e+00	7.076021e-01	1.909941e+14	1.053920e+14	1.635215e+14	7.260416e+03	3.934749e+03	2.381994e+03	0	6.042569e-04
4.000000e+07	8.957128e+12	0.000000e+00	7.076021e-01	1.902910e+14	1.079566e+14	1.626208e+14	7.253207e+03	3.949324e+03	2.390818e+03	0	6.029815e-04
5.000000e+07	8.899016e+12	0.000000e+00	7.076021e-01	1.895759e+14	1.105236e+14	1.617267e+14	7.246024e+03	3.963654e+03	2.399493e+03	0	6.016747e-04
6.000000e+07	8.839806e+12	0.000000e+00	7.076021e-01	1.888495e+14	1.130912e+14	1.608394e+14	7.238869e+03	3.977738e+03	2.408019e+03	0	6.003373e-04
7.000000e+07	8.779557e+12	0.000000e+00	7.076021e-01	1.881122e+14	1.156575e+14	1.599587e+14	7.231740e+03	3.991576e+03	2.416396e+03	0	5.989703e-04
8.000000e+07	8.718325e+12	0.000000e+00	7.076021e-01	1.873649e+14	1.182207e+14	1.590845e+14	7.224640e+03	4.005167e+03	2.424624e+03	0	5.975746e-04
9.000000e+07	8.656169e+12	0.000000e+00	7.076021e-01	1.866080e+14	1.207789e+14	1.582168e+14	7.217567e+03	4.018513e+03	2.432702e+03	0	5.961511e-04
1.000000e+08	8.593144e+12	0.000000e+00	7.076021e-01	1.858422e+14	1.233302e+14	1.573555e+14	7.210524e+03	4.031612e+03	2.440632e+03	0	5.947007e-04
1.100000e+08	8.529306e+12	0.000000e+00	7.076021e-01	1.850681e+14	1.258730e+14	1.565007e+14	7.203509e+03	4.044465e+03	2.448414e+03	0	5.932244e-04
1.200000e+08	8.464710e+12	0.000000e+00	7.076021e-01	1.842862e+14	1.284053e+14	1.556522e+14	7.196523e+03	4.057074e+03	2.456046e+03	0	5.917230e-04
1.300000e+08	8.399410e+12	0.000000e+00	7.076021e-01	1.834972e+14	1.309255e+14	1.548099e+14	7.189567e+03	4.069437e+03	2.463531e+03	0	5.901975e-04
1.400000e+08	8.333457e+12	0.000000e+00	7.076021e-01	1.827016e+14	1.334320e+14	1.539739e+14	7.182640e+03	4.081557e+03	2.470868e+03	0	5.886486e-04
1.500000e+08	8.266904e+12	0.000000e+00	7.076021e-01	1.819000e+14	1.359230e+14	1.531441e+14	7.175744e+03	4.093433e+03	2.478057e+03	0	5.870774e-04
1.600000e+08	8.199800e+12	0.000000e+00	7.076021e-01	1.810929e+14	1.383968e+14	1.523204e+14	7.168878e+03	4.105067e+03	2.485100e+03	0	5.854846e-04
1.700000e+08	8.132196e+12	0.000000e+00	7.076021e-01	1.802808e+14	1.408521e+14	1.515028e+14	7.162042e+03	4.116460e+03	2.491997e+03	0	5.838711e-04
1.800000e+08	8.064139e+12	0.000000e+00	7.076021e-01	1.794643e+14	1.432872e+14	1.506912e+14	7.155237e+03	4.127613e+03	2.498749e+03	0	5.822378e-04
1.900000e+08	7.995676e+12	0.000000e+00	7.076021e-01	1.786438e+14	1.457007e+14	1.498856e+14	7.148462e+03	4.138528e+03	2.505356e+03	0	5.805854e-04
2.000000e+08	7.926852e+12	0.000000e+00	7.076021e-01	1.778199e+14	1.480911e+14	1.490859e+14	7.141719e+03	4.149205e+03	2.511820e+03	0	5.789148e-04
2.100000e+08	7.857713e+12	0.000000e+00	7.076021e-01	1.769930e+14	1.504571e+14	1.482921e+14	7.135006e+03	4.159647e+03	2.518141e+03	0	5.772268e-04
2.200000e+08	7.788301e+12	0.000000e+00	7.076021e-01	1.761636e+14	1.527974e+14	1.475041e+14	7.128325e+03	4.169855e+03	2.524321e+03	0	5.755221e-04
2.300000e+08	7.718657e+12	0.000000e+00	7.076021e-01	1.753322e+14	1.551107e+14	1.467219e+14	7.121675e+03	4.179830e+03	2.530360e+03	0	5.738015e-04
2.400000e+08	7.648822e+12	0.000000e+00	7.076021e-01	1.744991e+14	1.573958e+14	1.459455e+14	7.115057e+03	4.189576e+03	2.536260e+03	0	5.720657e-04
2.500000e+08	7.578835e+12	0.000000e+00	7.076021e-01	1.736648e+14	1.596516e+14	1.451747e+14	7.108469e+03	4.199092e+03	2.542021e+03	0	5.703156e-04
2.600000e+08	7.508734e+12	0.000000e+00	7.076021e-01	1.728296e+14	1.618770e+14	1.444096e+14	7.101914e+03	4.208383e+03	2.547645e+03	0	5.685517e-04
2.700000e+08	7.438554e+12	0.000000e+00	7.076021e-01	1.719941e+14	1.640710e+14	1.436501e+14	7.095390e+03	4.217449e+03	2.553133e+03	0	5.667749e-04
2.800000e+08	7.368331e+12	0.000000e+00	7.076021e-01	1.711585e+14	1.662326e+14	1.428961e+14	7.088897e+03	4.226293e+03	2.558487e+03	0	5.649857e-04
2.900000e+08	7.298098e+12	0.000000e+00	7.076021e-01	1.703232e+14	1.683609e+14	1.421476e+14	7.082436e+03	4.234917e+03	2.563708e+03	0	5.631849e-04
3.000000e+08	7.227887e+12	0.000000e+00	7.076021e-01	1.694885e+14	1.704551e+14	1.414046e+14	7.076006e+03	4.243324e+03	2.568797e+03	0	5.613730e-04
3.100000e+08	7.157730e+12	0.000000e+00	7.076021e-01	1.686548e+14	1.725143e+14	1.406669e+14	7.069608e+03	4.251515e+03	2.573756e+03	0	5.595508e-04
3.200000e+08	7.087656e+12	0.000000e+00	7.076021e-01	1.678224e+14	1.745379e+14	1.399347e+14	7.063241e+03	4.259494e+03	2.578586e+03	0	5.577188e-04
3.300000e+08	7.017692e+12	0.000000e+00	7.076021e-01	1.669917e+14	1.765252e+14	1.392078e+14	7.056905e+03	4.267263e+03	2.583289e+03	0	5.558776e-04
3.400000e+08	6.947866e+12	0.000000e+00	7.076021e-01	1.661628e+14	1.784756e+14	1.384861e+14	7.050601e+03	4.274824e+03	2.587866e+03	0	5.540278e-04
3.500000e+08	6.878204e+12	0.000000e+00	7.076021e-01	1.653360e+14	1.803885e+14	1.377697e+14	7.044328e+03	4.282179e+03	2.592320e+03	0	5.521699e-04
3.600000e+08	6.808730e+12	0.000000e+00	7.076021e-01	1.645117e+14	1.822634e+14	1.370585e+14	7.038087e+03	4.289333e+03	2.596650e+03	0	5.503046e-04
3.700000e+08	6.739467e+12	0.000000e+00	7.076021e-01	1.636900e+14	1.840999e+14	1.363525e+14	7.031876e+03	4.296287e+03	2.600860e+03	0	5.484322e-04
3.800000e+08	6.670436e+12	0.000000e+00	7.076021e-01	1.628712e+14	1.858976e+14	1.356515e+14	7.025697e+03	4.303044e+03	2.604950e+03	0	5.465533e-04
3.900000e+08	6.601660e+12	0.000000e+00	7.076021e-01	1.620556e+14	1.876561e+14	1.349556e+14	7.019548e+03	4.309607e+03	2.608923e+03	0	5.446683e-04
4.000000e+08	6.533157e+12	0.000000e+00	7.076021e-01	1.612433e+14	1.893752e+14	1.342647e+14	7.013430e+03	4.315979e+03	2.612781e+03	0	5.427778e-04
4.100000e+08	6.464946e+12	0.000000e+00	7.076021e-01	1.604344e+14	1.910547e+14	1.335789e+14	7.007342e+03	4.322162e+03	2.616524e+03	0	5.408822e-04
4.200000e+08	6.397045e+12	0.000000e+00	7.076021e-01	1.596293e+14	1.926943e+14	1.328979e+14	7.001286e+03	4.328159e+03	2.620154e+03	0	5.389819e-04
4.300000e+08	6.329469e+12	0.000000e+00	7.076021e-01	1.588281e+14	1.942939e+14	1.322219e+14	6.995259e+03	4.333974e+03	2.623674e+03	0	5.370773e-04
4.400000e+08	6.262234e+12	0.000000e+00	7.076021e-01	1.580309e+14	1.958534e+14	1.315507e+14	6.989263e+03	4.339608e+03	2.627085e+03	0	5.351689e-04
4.500000e+08	6.195354e+12	0.000000e+00	7.076021e-01	1.572379e+14	1.973728e+14	1.308844e+14	6.983297e+03	4.345066e+03	2.630389e+03	0	5.332569e-04
4.600000e+08	6.128843e+12	0.000000e+00	7.076021e-01	1.564493e+14	1.988521e+14	1.302228e+14	6.977360e+03	4.350349e+03	2.633588e+03	0	5.313417e-04
4.700000e+08	6.062713e+12	0.000000e+00	7.076021e-01	1.556651e+14	2.002913e+14	1.295660e+14	6.971454e+03	4.355461e+03	2.636682e+03	0	5.294237e-04
4.800000e+08	5.996976e+12	0.000000e+00	7.076021e-01	1.548855e+14	2.016904e+14	1.289139e+14	6.965577e+03	4.360405e+03	2.639675e+03	0	5.275033e-04
4.900000e+08	5.931641e+12	0.000000e+00	7.076021e-01	1.541105e+14	2.030496e+14	1.282665e+14	6.959729e+03	4.365183e+03	2.642568e+03	0	5.255807e-04
5.000000e+08	5.866720e+12	0.000000e+00	7.076021e-01	1.533404e+14	2.043690e+14	1.276237e+14	6.953911e+03	4.369799e+03	2.645362e+03	0	5.236561e-04
5.100000e+08	5.802220e+12	0.000000e+00	7.076021e-01	1.525752e+14	2.056488e+14	1.269854e+14	6.948121e+03	4.374255e+03	2.648059e+03	0	5.217300e-04
5.200000e+08	5.738151e+12	0.000000e+00	7.076021e-01	1.518149e+14	2.068893e+14	1.263518e+14	6.942361e+03	4.378554e+03	2.650662e+03	0	5.198025e-04
5.300000e+08	5.674518e+12	0.000000e+00	7.076021e-01	1.510597e+14	2.080906e+14	1.257226e+14	6.936629e+03	4.382699e+03	2.653171e+03	0	5.178740e-04
5.400000e+08	5.611330e+12	0.000000e+00	7.076021e-01	1.503096e+14	2.092530e+14	1.250980e+14	6.930926e+03	4.386693e+03	2.655589e+03	0	5.159445e-04
5.500000e+08	5.548592e+12	0.000000e+00	7.076021e-01	1.495647e+14	2.103769e+14	1.244777e+14	6.925250e+03	4.390539e+03	2.657918e+03	0	5.140145e-04
5.600000e+08	5.486309e+12	0.000000e+00	7.076021e-01	1.488250e+14	2.114625e+14	1.238619e+14	6.919603e+03	4.394240e+03	2.660158e+03	0	5.120839e-04
5.700000e+08	5.424486e+12	0.000000e+00	7.076021e-01	1.480906e+14	2.125102e+14	1.232505e+14	6.913984e+03	4.397798e+03	2.662312e+03	0	5.101532e-04
5.800000e+08	5.363128e+12	0.000000e+00	7.076021e-01	1.473616e+14	2.135203e+14	1.226434e+14	6.908393e+03	4.401216e+03	2.664381e+03	0	5.082224e-04
5.900000e+08	5.302238e+12	0.000000e+00	7.076021e-01	1.466379e+14	2.144934e+14	1.220406e+14	6.902829e+03	4.404498e+03	2.666368e+03	0	5.062917e-04
6.000000e+08	5.241818e+12	0.000000e+00	7.076021e-01	1.459196e+14	2.154297e+14	1.214421e+14	6.897292e+03	4.407645e+03	2.668273e+03	0	5.043613e-04
6.100000e+08	5.181872e+12	0.000000e+00	7.076021e-01	1.452067e+14	2.163297e+14	1.208478e+14	6.891783e+03	4.410660e+03	2.670098e+03	0	5.024312e-04
6.200000e+08	5.122401e+12	0.000000e+00	7.076021e-01	1.444992e+14	2.171939e+14	1.202577e+14	6.886300e+03	4.413547e+03	2.671846e+03	0	5.005017e-04
6.300000e+08	5.063407e+12	0.000000e+00	7.076021e-01	1.437972e+14	2.180227e+14	1.196717e+14	6.880844e+03	4.416307e+03	2.673517e+03	0	4.985729e-04
6.400000e+08	5.004891e+12	0.000000e+00	7.076021e-01	1.431007e+14	2.188166e+14	1.190900e+14	6.875415e+03	4.418944e+03	2.675113e+03	0	4.966449e-04
6.500000e+08	4.946853e+12	0.000000e+00	7.076021e-01	1.424096e+14	2.195761e+14	1.185123e+14	6.870011e+03	4.421460e+03	2.676636e+03	0	4.947177e-04
6.600000e+08	4.889295e+12	0.000000e+00	7.076021e-01	1.417239e+14	2.203017e+14	1.179386e+14	6.864634e+03	4.423857e+03	2.678088e+03	0	4.927914e-04
6.700000e+08	4.832215e+12	0.000000e+00	7.076021e-01	1.410438e+14	2.209938e+14	1.173690e+14	6.859283e+03	4.426139e+03	2.679469e+03	0	4.908662e-04
6.800000e+08	4.775613e+12	0.000000e+00	7.076021e-01	1.403690e+14	2.216531e+14	1.168034e+14	6.853957e+03	4.428307e+03	2.680781e+03	0	4.889421e-04
6.900000e+08	4.719489e+12	0.000000e+00	7.076021e-01	1.396997e+14	2.222801e+14	1.162418e+14	6.848657e+03	4.430365e+03	2.682027e+03	0	4.870192e-04
7.000000e+08	4.663842e+12	0.000000e+00	7.076021e-01	1.390359e+14	2.228752e+14	1.156841e+14	6.843382e+03	4.432314e+03	2.683207e+03	0	4.850975e-04
7.100000e+08	4.608670e+12	0.000000e+00	7.076021e-01	1.383774e+14	2.234390e+14	1.151303e+14	6.838132e+03	4.434157e+03	2.684323e+03	0	4.831770e-04
7.200000e+08	4.553971e+12	0.000000e+00	7.076021e-01	1.377244e+14	2.239722e+14	1.145804e+14	6.832907e+03	4.435897e+03	2.685376e+03	0	4.812579e-04
7.300000e+08	4.499744e+12	0.000000e+00	7.076021e-01	1.370767e+14	2.244751e+14	1.140343e+14	6.827706e+03	4.437535e+03	2.686368e+03	0	4.793400e-04
7.400000e+08	4.445987e+12	0.000000e+00	7.076021e-01	1.364343e+14	2.249484e+14	1.134920e+14	6.822530e+03	4.439074e+03	2.687299e+03	0	4.774235e-04
7.500000e+08	4.392697e+12	0.000000e+00	7.076021e-01	1.357973e+14	2.253927e+14	1.129536e+14	6.817378e+03	4.440517e+03	2.688173e+03	0	4.755083e-04
7.600000e+08	4.339871e+12	0.000000e+00	7.076021e-01	1.351655e+14	2.258084e+14	1.124188e+14	6.812250e+03	4.441865e+03	2.688989e+03	0	4.735945e-04
7.700000e+08	4.287507e+12	0.000000e+00	7.076021e-01	1.345390e+14	2.261962e+14	1.118878e+14	6.807146e+03	4.443120e+03	2.689749e+03	0	4.716821e-04
7.800000e+08	4.235603e+12	0.000000e+00	7.076021e-01	1.339177e+14	2.265567e+14	1.113605e+14	6.802066e+03	4.444286e+03	2.690455e+03	0	4.697709e-04
7.900000e+08	4.184154e+12	0.000000e+00	7.076021e-01	1.333016e+14	2.268902e+14	1.108368e+14	6.797009e+03	4.445364e+03	2.691107e+03	0	4.678611e-04
8.000000e+08	4.133158e+12	0.000000e+00	7.076021e-01	1.326906e+14	2.271975e+14	1.103168e+14	6.791975e+03	4.446355e+03	2.691707e+03	0	4.659526e-04
8.100000e+08	4.082611e+12	0.000000e+00	7.076021e-01	1.320847e+14	2.274791e+14	1.098004e+14	6.786965e+03	4.447263e+03	2.692257e+03	0	4.640453e-04
8.200000e+08	4.032511e+12	0.000000e+00	7.076021e-01	1.314839e+14	2.277355e+14	1.092875e+14	6.781977e+03	4.448089e+03	2.692757e+03	0	4.621393e-04
8.300000e+08	3.982852e+12	0.000000e+00	7.076021e-01	1.308881e+14	2.279673e+14	1.087782e+14	6.777012e+03	4.448835e+03	2.693209e+03	0	4.602345e-04
8.400000e+08	3.933633e+12	0.000000e+00	7.076021e-01	1.302974e+14	2.281751e+14	1.082724e+14	6.772069e+03	4.449503e+03	2.693613e+03	0	4.583308e-04
8.500000e+08	3.884848e+12	0.000000e+00	7.076021e-01	1.297115e+14	2.283593e+14	1.077701e+14	6.767148e+03	4.450096e+03	2.693972e+03	0	4.564281e-04
8.600000e+08	3.836494e+12	0.000000e+00	7.076021e-01	1.291306e+14	2.285205e+14	1.072713e+14	6.762250e+03	4.450614e+03	2.694285e+03	0	4.545266e-04
8.700000e+08	3.788568e+12	0.000000e+00	7.076021e-01	1.285545e+14	2.286593e+14	1.067759e+14	6.757374e+03	4.451059e+03	2.694555e+03	0	4.526259e-04
8.800000e+08	3.741065e+12	0.000000e+00	7.076021e-01	1.279832e+14	2.287761e+14	1.062839e+14	6.752519e+03	4.451434e+03	2.694782e+03	0	4.507262e-04
8.900000e+08	3.693981e+12	0.000000e+00	7.076021e-01	1.274167e+14	2.288716e+14	1.057953e+14	6.747686e+03	4.451740e+03	2.694967e+03	0	4.488273e-04
9.000000e+08	3.647312e+12	0.000000e+00	7.076021e-01	1.268548e+14	2.289461e+14	1.053100e+14	6.742874e+03	4.451979e+03	2.695112e+03	0	4.469292e-04
9.100000e+08	3.601053e+12	0.000000e+00	7.076021e-01	1.262977e+14	2.290003e+14	1.048281e+14	6.738083e+03	4.452153e+03	2.695217e+03	0	4.450317e-04
9.200000e+08	3.555202e+12	0.000000e+00	7.076021e-01	1.257452e+14	2.290346e+14	1.043495e+14	6.733314e+03	4.452263e+03	2.695284e+03	0	4.431348e-04
9.300000e+08	3.509753e+12	0.000000e+00	7.076021e-01	1.251973e+14	2.290496e+14	1.038741e+14	6.728565e+03	4.452311e+03	2.695313e+03	0	4.412384e-04
9.400000e+08	3.464703e+12	0.000000e+00	7.076021e-01	1.246539e+14	2.290457e+14	1.034020e+14	6.723837e+03	4.452299e+03	2.695305e+03	0	4.393424e-04
9.500000e+08	3.420047e+12	0.000000e+00	7.076021e-01	1.241149e+14	2.290234e+14	1.029331e+14	6.719129e+03	4.452227e+03	2.695262e+03	0	4.374466e-04
9.600000e+08	3.375780e+12	0.000000e+00	7.076021e-01	1.235805e+14	2.289832e+14	1.024674e+14	6.714442e+03	4.452098e+03	2.695184e+03	0	4.355511e-04
9.700000e+08	3.331900e+12	0.000000e+00	7.076021e-01	1.230504e+14	2.289255e+14	1.020049e+14	6.709775e+03	4.451913e+03	2.695072e+03	0	4.336557e-04
9.800000e+08	3.288401e+12	0.000000e+00	7.076021e-01	1.225246e+14	2.288509e+14	1.015456e+14	6.705128e+03	4.451674e+03	2.694927e+03	0	4.317602e-04
9.900000e+08	3.245279e+12	0.000000e+00	7.076021e-01	1.220031e+14	2.287597e+14	1.010893e+14	6.700500e+03	4.451381e+03	2.694750e+03	0	4.298647e-04
1.000000e+09	3.202530e+12	0.000000e+00	7.076021e-01	1.214859e+14	2.286525e+14	1.006362e+14	6.695893e+03	4.451037e+03	2.694542e+03	0	4.279688e-04
1.010000e+09	3.160150e+12	0.000000e+00	7.076021e-01	1.209729e+14	2.285297e+14	1.001861e+14	6.691305e+03	4.450643e+03	2.694303e+03	0	4.260726e-04
1.020000e+09	3.118134e+12	0.000000e+00	7.076021e-01	1.204640e+14	2.283916e+14	9.973905e+13	6.686736e+03	4.450200e+03	2.694034e+03	0	4.241759e-04
1.030000e+09	3.076479e+12	0.000000e+00	7.076021e-01	1.199593e+14	2.282388e+14	9.929504e+13	6.682186e+03	4.449708e+03	2.693737e+03	0	4.222786e-04
1.040000e+09	3.035180e+12	0.000000e+00	7.076021e-01	1.194586e+14	2.280717e+14	9.885404e+13	6.677656e+03	4.449171e+03	2.693412e+03	0	4.203805e-04
1.050000e+09	2.994234e+12	0.000000e+00	7.076021e-01	1.189619e+14	2.278906e+14	9.841602e+13	6.673144e+03	4.448588e+03	2.693059e+03	0	4.184815e-04
1.060000e+09	2.953635e+12	0.000000e+00	7.076021e-01	1.184691e+14	2.276960e+14	9.798095e+13	6.668651e+03	4.447962e+03	2.692680e+03	0	4.165815e-04
1.070000e+09	2.913380e+12	0.000000e+00	7.076021e-01	1.179803e+14	2.274883e+14	9.754881e+13	6.664177e+03	4.447293e+03	2.692275e+03	0	4.146804e-04
1.080000e+09	2.873465e+12	0.000000e+00	7.076021e-01	1.174954e+14	2.272678e+14	9.711958e+13	6.659721e+03	4.446582e+03	2.691844e+03	0	4.127778e-04
1.090000e+09	2.833886e+12	0.000000e+00	7.076021e-01	1.170143e+14	2.270350e+14	9.669323e+13	6.655283e+03	4.445831e+03	2.691390e+03	0	4.108739e-04
1.100000e+09	2.794639e+12	0.000000e+00	7.076021e-01	1.165370e+14	2.267901e+14	9.626975e+13	6.650864e+03	4.445040e+03	2.690911e+03	0	4.089683e-04
1.110000e+09	2.755719e+12	0.000000e+00	7.076021e-01	1.160634e+14	2.265336e+14	9.584910e+13	6.646462e+03	4.444212e+03	2.690410e+03	0	4.070609e-04
1.120000e+09	2.717124e+12	0.000000e+00	7.076021e-01	1.155935e+14	2.262659e+14	9.543128e+13	6.642079e+03	4.443346e+03	2.689885e+03	0	4.051516e-04
1.130000e+09	2.678848e+12	0.000000e+00	7.076021e-01	1.151273e+14	2.259872e+14	9.501625e+13	6.637713e+03	4.442444e+03	2.689339e+03	0	4.032402e-04
1.140000e+09	2.640889e+12	0.000000e+00	7.076021e-01	1.146646e+14	2.256980e+14	9.460399e+13	6.633364e+03	4.441507e+03	2.688772e+03	0	4.013265e-04
1.150000e+09	2.603242e+12	0.000000e+00	7.076021e-01	1.142056e+14	2.253985e+14	9.419449e+13	6.629033e+03	4.440535e+03	2.688184e+03	0	3.994103e-04
1.160000e+09	2.565904e+12	0.000000e+00	7.076021e-01	1.137501e+14	2.250891e+14	9.378772e+13	6.624720e+03	4.439531e+03	2.687576e+03	0	3.974915e-04
1.170000e+09	2.528871e+12	0.000000e+00	7.076021e-01	1.132980e+14	2.247702e+14	9.338366e+13	6.620424e+03	4.438495e+03	2.686949e+03	0	3.955700e-04
1.180000e+09	2.492139e+12	0.000000e+00	7.076021e-01	1.128494e+14	2.244419e+14	9.298229e+13	6.616144e+03	4.437427e+03	2.686302e+03	0	3.936454e-04
1.190000e+09	2.455705e+12	0.000000e+00	7.076021e-01	1.124043e+14	2.241047e+14	9.258359e+13	6.611882e+03	4.436328e+03	2.685637e+03	0	3.917176e-04
1.200000e+09	2.419565e+12	0.000000e+00	7.076021e-01	1.119624e+14	2.237588e+14	9.218753e+13	6.607636e+03	4.435201e+03	2.684955e+03	0	3.897865e-04
1.210000e+09	2.383715e+12	0.000000e+00	7.076021e-01	1.115239e+14	2.234045e+14	9.179410e+13	6.603407e+03	4.434044e+03	2.684254e+03	0	3.878518e-04
1.220000e+09	2.348152e+12	0.000000e+00	7.076021e-01	1.110887e+14	2.230421e+14	9.140327e+13	6.599195e+03	4.432860e+03	2.683538e+03	0	3.859134e-04
1.230000e+09	2.312873e+12	0.000000e+00	7.076021e-01	1.106567e+14	2.226720e+14	9.101504e+13	6.594999e+03	4.431649e+03	2.682804e+03	0	3.839709e-04
1.240000e+09	2.277874e+12	0.000000e+00	7.076021e-01	1.102280e+14	2.222942e+14	9.062936e+13	6.590819e+03	4.430411e+03	2.682055e+03	0	3.820243e-04
1.250000e+09	2.243152e+12	0.000000e+00	7.076021e-01	1.098024e+14	2.219092e+14	9.024624e+13	6.586656e+03	4.429148e+03	2.681291e+03	0	3.800732e-04
1.260000e+09	2.208703e+12	0.000000e+00	7.076021e-01	1.093799e+14	2.215172e+14	8.986564e+13	6.582508e+03	4.427861e+03	2.680511e+03	0	3.781176e-04
1.270000e+09	2.174524e+12	0.000000e+00	7.076021e-01	1.089606e+14	2.211184e+14	8.948754e+13	6.578377e+03	4.426549e+03	2.679717e+03	0	3.761570e-04
1.280000e+09	2.140613e+12	0.000000e+00	7.076021e-01	1.085443e+14	2.207131e+14	8.911194e+13	6.574261e+03	4.425214e+03	2.678909e+03	0	3.741914e-04
1.290000e+09	2.106965e+12	0.000000e+00	7.076021e-01	1.081310e+14	2.203016e+14	8.873880e+13	6.570161e+03	4.423857e+03	2.678087e+03	0	3.722204e-04
1.300000e+09	2.073577e+12	0.000000e+00	7.076021e-01	1.077207e+14	2.198841e+14	8.836811e+13	6.566077e+03	4.422478e+03	2.677253e+03	0	3.702438e-04
1.310000e+09	2.040447e+12	0.000000e+00	7.076021e-01	1.073134e+14	2.194606e+14	8.799985e+13	6.562008e+03	4.421078e+03	2.676405e+03	0	3.682614e-04
1.320000e+09	2.007572e+12	0.000000e+00	7.076021e-01	1.069090e+14	2.190317e+14	8.763401e+13	6.557954e+03	4.419657e+03	2.675545e+03	0	3.662729e-04
1.330000e+09	1.974947e+12	0.000000e+00	7.076021e-01	1.065075e+14	2.185973e+14	8.727055e+13	6.553916e+03	4.418216e+03	2.674673e+03	0	3.642780e-04
1.340000e+09	1.942572e+12	0.000000e+00	7.076021e-01	1.061088e+14	2.181578e+14	8.690947e+13	6.549893e+03	4.416756e+03	2.673789e+03	0	3.622764e-04
1.350000e+09	1.910442e+12	0.000000e+00	7.076021e-01	1.057130e+14	2.177134e+14	8.655075e+13	6.545884e+03	4.415278e+03	2.672894e+03	0	3.602680e-04
1.360000e+09	1.878554e+12	0.000000e+00	7.076021e-01	1.053199e+14	2.172642e+14	8.619437e+13	6.541891e+03	4.413781e+03	2.671988e+03	0	3.582523e-04
