#t		Qconv[W]	Ri[Rp]		R*[Rp]		Qc[W]		Qm[W]		Qr[W]		Tcmb[K]		Tl[K]		Tup[K]		RiFlag		Bs[T]
0.000000e+00	3.122131e+13	0.000000e+00	7.058826e-01	6.184929e+14	1.000191e+14	2.492158e+14	1.035008e+04	4.844135e+03	2.525839e+03	0	9.016920e-04
1.000000e+07	3.109162e+13	0.000000e+00	7.058826e-01	6.169181e+14	1.046116e+14	2.478349e+14	1.033696e+04	4.876178e+03	2.542547e+03	0	9.004417e-04
2.000000e+07	3.095203e+13	0.000000e+00	7.058826e-01	6.152577e+14	1.093154e+14	2.464644e+14	1.032388e+04	4.907903e+03	2.559089e+03	0	8.990922e-04
3.000000e+07	3.080279e+13	0.000000e+00	7.058826e-01	6.135137e+14	1.141279e+14	2.451042e+14	1.031083e+04	4.939302e+03	2.575461e+03	0	8.976447e-04
4.000000e+07	3.064411e+13	0.000000e+00	7.058826e-01	6.116881e+14	1.190465e+14	2.437540e+14	1.029782e+04	4.970367e+03	2.591659e+03	0	8.961008e-04
5.000000e+07	3.047626e+13	0.000000e+00	7.058826e-01	6.097833e+14	1.240682e+14	2.424140e+14	1.028485e+04	5.001091e+03	2.607679e+03	0	8.944616e-04
6.000000e+07	3.029947e+13	0.000000e+00	7.058826e-01	6.078015e+14	1.291898e+14	2.410839e+14	1.027192e+04	5.031466e+03	2.623518e+03	0	8.927288e-04
7.000000e+07	3.011402e+13	0.000000e+00	7.058826e-01	6.057449e+14	1.344079e+14	2.397638e+14	1.025903e+04	5.061487e+03	2.639171e+03	0	8.909037e-04
8.000000e+07	2.992016e+13	0.000000e+00	7.058826e-01	6.036161e+14	1.397187e+14	2.384535e+14	1.024618e+04	5.091145e+03	2.654636e+03	0	8.889878e-04
9.000000e+07	2.971817e+13	0.000000e+00	7.058826e-01	6.014174e+14	1.451183e+14	2.371529e+14	1.023338e+04	5.120436e+03	2.669908e+03	0	8.869828e-04
1.000000e+08	2.950834e+13	0.000000e+00	7.058826e-01	5.991514e+14	1.506026e+14	2.358619e+14	1.022063e+04	5.149351e+03	2.684986e+03	0	8.848902e-04
1.100000e+08	2.929093e+13	0.000000e+00	7.058826e-01	5.968205e+14	1.561674e+14	2.345806e+14	1.020792e+04	5.177887e+03	2.699865e+03	0	8.827117e-04
1.200000e+08	2.906624e+13	0.000000e+00	7.058826e-01	5.944274e+14	1.618080e+14	2.333087e+14	1.019526e+04	5.206036e+03	2.714542e+03	0	8.804489e-04
1.300000e+08	2.883457e+13	0.000000e+00	7.058826e-01	5.919747e+14	1.675198e+14	2.320463e+14	1.018266e+04	5.233795e+03	2.729016e+03	0	8.781034e-04
1.400000e+08	2.859621e+13	0.000000e+00	7.058826e-01	5.894651e+14	1.732979e+14	2.307932e+14	1.017010e+04	5.261157e+03	2.743283e+03	0	8.756771e-04
1.500000e+08	2.835146e+13	0.000000e+00	7.058826e-01	5.869010e+14	1.791373e+14	2.295494e+14	1.015760e+04	5.288118e+03	2.757341e+03	0	8.731717e-04
1.600000e+08	2.810061e+13	0.000000e+00	7.058826e-01	5.842854e+14	1.850329e+14	2.283147e+14	1.014515e+04	5.314674e+03	2.771188e+03	0	8.705888e-04
1.700000e+08	2.784397e+13	0.000000e+00	7.058826e-01	5.816207e+14	1.909795e+14	2.270892e+14	1.013276e+04	5.340820e+03	2.784822e+03	0	8.679304e-04
1.800000e+08	2.758185e+13	0.000000e+00	7.058826e-01	5.789098e+14	1.969717e+14	2.258727e+14	1.012043e+04	5.366554e+03	2.798240e+03	0	8.651982e-04
1.900000e+08	2.731453e+13	0.000000e+00	7.058826e-01	5.761552e+14	2.030040e+14	2.246652e+14	1.010815e+04	5.391871e+03	2.811441e+03	0	8.623940e-04
2.000000e+08	2.704233e+13	0.000000e+00	7.058826e-01	5.733597e+14	2.090711e+14	2.234665e+14	1.009593e+04	5.416769e+03	2.824423e+03	0	8.595197e-04
2.100000e+08	2.676554e+13	0.000000e+00	7.058826e-01	5.705259e+14	2.151672e+14	2.222767e+14	1.008377e+04	5.441245e+03	2.837185e+03	0	8.565771e-04
2.200000e+08	2.648446e+13	0.000000e+00	7.058826e-01	5.676565e+14	2.212868e+14	2.210956e+14	1.007167e+04	5.465297e+03	2.849726e+03	0	8.535681e-04
2.300000e+08	2.619938e+13	0.000000e+00	7.058826e-01	5.647540e+14	2.274243e+14	2.199231e+14	1.005963e+04	5.488922e+03	2.862045e+03	0	8.504945e-04
2.400000e+08	2.591060e+13	0.000000e+00	7.058826e-01	5.618210e+14	2.335741e+14	2.187593e+14	1.004765e+04	5.512119e+03	2.874141e+03	0	8.473581e-04
2.500000e+08	2.561840e+13	0.000000e+00	7.058826e-01	5.588602e+14	2.397306e+14	2.176040e+14	1.003574e+04	5.534887e+03	2.886012e+03	0	8.441608e-04
2.600000e+08	2.532308e+13	0.000000e+00	7.058826e-01	5.558739e+14	2.458883e+14	2.164571e+14	1.002388e+04	5.557225e+03	2.897660e+03	0	8.409045e-04
2.700000e+08	2.502490e+13	0.000000e+00	7.058826e-01	5.528647e+14	2.520415e+14	2.153187e+14	1.001209e+04	5.579131e+03	2.909082e+03	0	8.375909e-04
2.800000e+08	2.472414e+13	0.000000e+00	7.058826e-01	5.498351e+14	2.581847e+14	2.141885e+14	1.000037e+04	5.600607e+03	2.920280e+03	0	8.342219e-04
2.900000e+08	2.442108e+13	0.000000e+00	7.058826e-01	5.467873e+14	2.643128e+14	2.130666e+14	9.988707e+03	5.621651e+03	2.931253e+03	0	8.307992e-04
3.000000e+08	2.411597e+13	0.000000e+00	7.058826e-01	5.437237e+14	2.704202e+14	2.119529e+14	9.977110e+03	5.642264e+03	2.942001e+03	0	8.273248e-04
3.100000e+08	2.380907e+13	0.000000e+00	7.058826e-01	5.406466e+14	2.765018e+14	2.108472e+14	9.965577e+03	5.662447e+03	2.952525e+03	0	8.238003e-04
3.200000e+08	2.350063e+13	0.000000e+00	7.058826e-01	5.375581e+14	2.825524e+14	2.097497e+14	9.954110e+03	5.682200e+03	2.962825e+03	0	8.202275e-04
3.300000e+08	2.319090e+13	0.000000e+00	7.058826e-01	5.344605e+14	2.885671e+14	2.086601e+14	9.942709e+03	5.701526e+03	2.972901e+03	0	8.166081e-04
3.400000e+08	2.288011e+13	0.000000e+00	7.058826e-01	5.313557e+14	2.945411e+14	2.075784e+14	9.931373e+03	5.720425e+03	2.982756e+03	0	8.129438e-04
3.500000e+08	2.256849e+13	0.000000e+00	7.058826e-01	5.282459e+14	3.004696e+14	2.065046e+14	9.920103e+03	5.738899e+03	2.992389e+03	0	8.092363e-04
3.600000e+08	2.225627e+13	0.000000e+00	7.058826e-01	5.251330e+14	3.063480e+14	2.054385e+14	9.908898e+03	5.756951e+03	3.001802e+03	0	8.054871e-04
3.700000e+08	2.194365e+13	0.000000e+00	7.058826e-01	5.220188e+14	3.121720e+14	2.043802e+14	9.897760e+03	5.774583e+03	3.010995e+03	0	8.016980e-04
3.800000e+08	2.163085e+13	0.000000e+00	7.058826e-01	5.189052e+14	3.179373e+14	2.033295e+14	9.886687e+03	5.791797e+03	3.019971e+03	0	7.978704e-04
3.900000e+08	2.131806e+13	0.000000e+00	7.058826e-01	5.157938e+14	3.236399e+14	2.022865e+14	9.875681e+03	5.808597e+03	3.028731e+03	0	7.940059e-04
4.000000e+08	2.100547e+13	0.000000e+00	7.058826e-01	5.126865e+14	3.292759e+14	2.012509e+14	9.864740e+03	5.824985e+03	3.037276e+03	0	7.901059e-04
4.100000e+08	2.069327e+13	0.000000e+00	7.058826e-01	5.095847e+14	3.348415e+14	2.002229e+14	9.853865e+03	5.840965e+03	3.045608e+03	0	7.861719e-04
4.200000e+08	2.038163e+13	0.000000e+00	7.058826e-01	5.064900e+14	3.403334e+14	1.992022e+14	9.843056e+03	5.856541e+03	3.053730e+03	0	7.822054e-04
4.300000e+08	2.007071e+13	0.000000e+00	7.058826e-01	5.034039e+14	3.457480e+14	1.981889e+14	9.832313e+03	5.871715e+03	3.061642e+03	0	7.782075e-04
4.400000e+08	1.976068e+13	0.000000e+00	7.058826e-01	5.003277e+14	3.510824e+14	1.971829e+14	9.821635e+03	5.886493e+03	3.069348e+03	0	7.741798e-04
4.500000e+08	1.945169e+13	0.000000e+00	7.058826e-01	4.972628e+14	3.563336e+14	1.961841e+14	9.811022e+03	5.900878e+03	3.076848e+03	0	7.701234e-04
4.600000e+08	1.914388e+13	0.000000e+00	7.058826e-01	4.942105e+14	3.614989e+14	1.951924e+14	9.800474e+03	5.914875e+03	3.084146e+03	0	7.660395e-04
4.700000e+08	1.883738e+13	0.000000e+00	7.058826e-01	4.911718e+14	3.665756e+14	1.942079e+14	9.789991e+03	5.928488e+03	3.091244e+03	0	7.619293e-04
4.800000e+08	1.853233e+13	0.000000e+00	7.058826e-01	4.881479e+14	3.715614e+14	1.932305e+14	9.779572e+03	5.941722e+03	3.098145e+03	0	7.577940e-04
4.900000e+08	1.822883e+13	0.000000e+00	7.058826e-01	4.851398e+14	3.764541e+14	1.922600e+14	9.769217e+03	5.954581e+03	3.104850e+03	0	7.536345e-04
5.000000e+08	1.792702e+13	0.000000e+00	7.058826e-01	4.821486e+14	3.812519e+14	1.912965e+14	9.758925e+03	5.967070e+03	3.111362e+03	0	7.494520e-04
5.100000e+08	1.762698e+13	0.000000e+00	7.058826e-01	4.791751e+14	3.859529e+14	1.903399e+14	9.748698e+03	5.979195e+03	3.117684e+03	0	7.452474e-04
5.200000e+08	1.732882e+13	0.000000e+00	7.058826e-01	4.762202e+14	3.905555e+14	1.893901e+14	9.738533e+03	5.990960e+03	3.123819e+03	0	7.410216e-04
5.300000e+08	1.703264e+13	0.000000e+00	7.058826e-01	4.732847e+14	3.950583e+14	1.884470e+14	9.728431e+03	6.002372e+03	3.129769e+03	0	7.367755e-04
5.400000e+08	1.673851e+13	0.000000e+00	7.058826e-01	4.703693e+14	3.994600e+14	1.875107e+14	9.718391e+03	6.013434e+03	3.135537e+03	0	7.325098e-04
5.500000e+08	1.644652e+13	0.000000e+00	7.058826e-01	4.674747e+14	4.037596e+14	1.865811e+14	9.708412e+03	6.024153e+03	3.141126e+03	0	7.282254e-04
5.600000e+08	1.615673e+13	0.000000e+00	7.058826e-01	4.646015e+14	4.079561e+14	1.856580e+14	9.698495e+03	6.034533e+03	3.146539e+03	0	7.239229e-04
5.700000e+08	1.586922e+13	0.000000e+00	7.058826e-01	4.617503e+14	4.120489e+14	1.847415e+14	9.688639e+03	6.044581e+03	3.151778e+03	0	7.196031e-04
5.800000e+08	1.558404e+13	0.000000e+00	7.058826e-01	4.589216e+14	4.160374e+14	1.838315e+14	9.678844e+03	6.054302e+03	3.156847e+03	0	7.152664e-04
5.900000e+08	1.530125e+13	0.000000e+00	7.058826e-01	4.561159e+14	4.199210e+14	1.829280e+14	9.669108e+03	6.063702e+03	3.161748e+03	0	7.109136e-04
6.000000e+08	1.502090e+13	0.000000e+00	7.058826e-01	4.533335e+14	4.236995e+14	1.820309e+14	9.659432e+03	6.072785e+03	3.166484e+03	0	7.065449e-04
6.100000e+08	1.474303e+13	0.000000e+00	7.058826e-01	4.505749e+14	4.273730e+14	1.811401e+14	9.649814e+03	6.081559e+03	3.171059e+03	0	7.021610e-04
6.200000e+08	1.446768e+13	0.000000e+00	7.058826e-01	4.478403e+14	4.309412e+14	1.802556e+14	9.640255e+03	6.090028e+03	3.175475e+03	0	6.977622e-04
6.300000e+08	1.419489e+13	0.000000e+00	7.058826e-01	4.451301e+14	4.344043e+14	1.793773e+14	9.630754e+03	6.098198e+03	3.179735e+03	0	6.933489e-04
6.400000e+08	1.392468e+13	0.000000e+00	7.058826e-01	4.424445e+14	4.377627e+14	1.785052e+14	9.621311e+03	6.106075e+03	3.183842e+03	0	6.889213e-04
6.500000e+08	1.365709e+13	0.000000e+00	7.058826e-01	4.397837e+14	4.410166e+14	1.776393e+14	9.611924e+03	6.113664e+03	3.187799e+03	0	6.844796e-04
6.600000e+08	1.339212e+13	0.000000e+00	7.058826e-01	4.371479e+14	4.441666e+14	1.767795e+14	9.602594e+03	6.120972e+03	3.191610e+03	0	6.800241e-04
6.700000e+08	1.312981e+13	0.000000e+00	7.058826e-01	4.345372e+14	4.472131e+14	1.759257e+14	9.593319e+03	6.128003e+03	3.195276e+03	0	6.755549e-04
6.800000e+08	1.287016e+13	0.000000e+00	7.058826e-01	4.319517e+14	4.501569e+14	1.750779e+14	9.584100e+03	6.134764e+03	3.198801e+03	0	6.710720e-04
6.900000e+08	1.261318e+13	0.000000e+00	7.058826e-01	4.293915e+14	4.529989e+14	1.742361e+14	9.574936e+03	6.141260e+03	3.202189e+03	0	6.665756e-04
7.000000e+08	1.235889e+13	0.000000e+00	7.058826e-01	4.268566e+14	4.557399e+14	1.734002e+14	9.565826e+03	6.147497e+03	3.205440e+03	0	6.620655e-04
7.100000e+08	1.210728e+13	0.000000e+00	7.058826e-01	4.243471e+14	4.583808e+14	1.725701e+14	9.556769e+03	6.153479e+03	3.208560e+03	0	6.575418e-04
7.200000e+08	1.185835e+13	0.000000e+00	7.058826e-01	4.218629e+14	4.609227e+14	1.717458e+14	9.547766e+03	6.159214e+03	3.211550e+03	0	6.530042e-04
7.300000e+08	1.161211e+13	0.000000e+00	7.058826e-01	4.194040e+14	4.633665e+14	1.709273e+14	9.538816e+03	6.164705e+03	3.214413e+03	0	6.484526e-04
7.400000e+08	1.136855e+13	0.000000e+00	7.058826e-01	4.169704e+14	4.657136e+14	1.701145e+14	9.529917e+03	6.169959e+03	3.217153e+03	0	6.438867e-04
7.500000e+08	1.112766e+13	0.000000e+00	7.058826e-01	4.145619e+14	4.679651e+14	1.693073e+14	9.521070e+03	6.174980e+03	3.219771e+03	0	6.393064e-04
7.600000e+08	1.088943e+13	0.000000e+00	7.058826e-01	4.121785e+14	4.701223e+14	1.685058e+14	9.512274e+03	6.179775e+03	3.222271e+03	0	6.347112e-04
7.700000e+08	1.065385e+13	0.000000e+00	7.058826e-01	4.098200e+14	4.721866e+14	1.677099e+14	9.503529e+03	6.184347e+03	3.224655e+03	0	6.301007e-04
7.800000e+08	1.042091e+13	0.000000e+00	7.058826e-01	4.074863e+14	4.741593e+14	1.669195e+14	9.494833e+03	6.188704e+03	3.226927e+03	0	6.254746e-04
7.900000e+08	1.019059e+13	0.000000e+00	7.058826e-01	4.051773e+14	4.760418e+14	1.661346e+14	9.486187e+03	6.192848e+03	3.229088e+03	0	6.208322e-04
8.000000e+08	9.962874e+12	0.000000e+00	7.058826e-01	4.028928e+14	4.778356e+14	1.653551e+14	9.477590e+03	6.196786e+03	3.231141e+03	0	6.161731e-04
8.100000e+08	9.737748e+12	0.000000e+00	7.058826e-01	4.006326e+14	4.795422e+14	1.645810e+14	9.469042e+03	6.200522e+03	3.233089e+03	0	6.114965e-04
8.200000e+08	9.515190e+12	0.000000e+00	7.058826e-01	3.983965e+14	4.811631e+14	1.638123e+14	9.460541e+03	6.204062e+03	3.234935e+03	0	6.068020e-04
8.300000e+08	9.295178e+12	0.000000e+00	7.058826e-01	3.961844e+14	4.826998e+14	1.630489e+14	9.452087e+03	6.207410e+03	3.236680e+03	0	6.020886e-04
8.400000e+08	9.077690e+12	0.000000e+00	7.058826e-01	3.939960e+14	4.841539e+14	1.622908e+14	9.443681e+03	6.210570e+03	3.238328e+03	0	5.973556e-04
8.500000e+08	8.862703e+12	0.000000e+00	7.058826e-01	3.918310e+14	4.855269e+14	1.615379e+14	9.435321e+03	6.213548e+03	3.239881e+03	0	5.926022e-04
8.600000e+08	8.650192e+12	0.000000e+00	7.058826e-01	3.896893e+14	4.868204e+14	1.607902e+14	9.427006e+03	6.216348e+03	3.241341e+03	0	5.878273e-04
8.700000e+08	8.440133e+12	0.000000e+00	7.058826e-01	3.875707e+14	4.880361e+14	1.600476e+14	9.418737e+03	6.218974e+03	3.242710e+03	0	5.830300e-04
8.800000e+08	8.232499e+12	0.000000e+00	7.058826e-01	3.854748e+14	4.891756e+14	1.593101e+14	9.410513e+03	6.221431e+03	3.243992e+03	0	5.782093e-04
8.900000e+08	8.027264e+12	0.000000e+00	7.058826e-01	3.834014e+14	4.902403e+14	1.585778e+14	9.402334e+03	6.223724e+03	3.245187e+03	0	5.733639e-04
9.000000e+08	7.824400e+12	0.000000e+00	7.058826e-01	3.813503e+14	4.912321e+14	1.578504e+14	9.394198e+03	6.225856e+03	3.246299e+03	0	5.684926e-04
9.100000e+08	7.623881e+12	0.000000e+00	7.058826e-01	3.793213e+14	4.921524e+14	1.571280e+14	9.386106e+03	6.227831e+03	3.247329e+03	0	5.635942e-04
9.200000e+08	7.425676e+12	0.000000e+00	7.058826e-01	3.773140e+14	4.930029e+14	1.564106e+14	9.378057e+03	6.229654e+03	3.248279e+03	0	5.586672e-04
9.300000e+08	7.229759e+12	0.000000e+00	7.058826e-01	3.753281e+14	4.937852e+14	1.556981e+14	9.370050e+03	6.231329e+03	3.249153e+03	0	5.537101e-04
9.400000e+08	7.036100e+12	0.000000e+00	7.058826e-01	3.733635e+14	4.945009e+14	1.549904e+14	9.362085e+03	6.232860e+03	3.249951e+03	0	5.487213e-04
9.500000e+08	6.844670e+12	0.000000e+00	7.058826e-01	3.714199e+14	4.951515e+14	1.542876e+14	9.354162e+03	6.234250e+03	3.250675e+03	0	5.436992e-04
9.600000e+08	6.655440e+12	0.000000e+00	7.058826e-01	3.694969e+14	4.957387e+14	1.535896e+14	9.346281e+03	6.235503e+03	3.251329e+03	0	5.386418e-04
9.700000e+08	6.468380e+12	0.000000e+00	7.058826e-01	3.675943e+14	4.962640e+14	1.528963e+14	9.338439e+03	6.236623e+03	3.251913e+03	0	5.335474e-04
9.800000e+08	6.283460e+12	0.000000e+00	7.058826e-01	3.657118e+14	4.967290e+14	1.522078e+14	9.330639e+03	6.237614e+03	3.252430e+03	0	5.284138e-04
9.900000e+08	6.100652e+12	0.000000e+00	7.058826e-01	3.638492e+14	4.971351e+14	1.515239e+14	9.322878e+03	6.238479e+03	3.252881e+03	0	5.232388e-04
1.000000e+09	5.919924e+12	0.000000e+00	7.058826e-01	3.620062e+14	4.974840e+14	1.508446e+14	9.315157e+03	6.239222e+03	3.253268e+03	0	5.180200e-04
1.010000e+09	5.741249e+12	0.000000e+00	7.058826e-01	3.601825e+14	4.977771e+14	1.501700e+14	9.307474e+03	6.239845e+03	3.253593e+03	0	5.127551e-04
1.020000e+09	5.564596e+12	0.000000e+00	7.058826e-01	3.583778e+14	4.980158e+14	1.495000e+14	9.299831e+03	6.240353e+03	3.253858e+03	0	5.074412e-04
1.030000e+09	5.389936e+12	0.000000e+00	7.058826e-01	3.565919e+14	4.982018e+14	1.488344e+14	9.292225e+03	6.240749e+03	3.254064e+03	0	5.020755e-04
1.040000e+09	5.217240e+12	0.000000e+00	7.058826e-01	3.548244e+14	4.983363e+14	1.481734e+14	9.284657e+03	6.241035e+03	3.254213e+03	0	4.966549e-04
1.050000e+09	5.046478e+12	0.000000e+00	7.058826e-01	3.530752e+14	4.984209e+14	1.475169e+14	9.277127e+03	6.241214e+03	3.254307e+03	0	4.911762e-04
1.060000e+09	4.877622e+12	0.000000e+00	7.058826e-01	3.513440e+14	4.984569e+14	1.468647e+14	9.269634e+03	6.241291e+03	3.254347e+03	0	4.856356e-04
1.070000e+09	4.710643e+12	0.000000e+00	7.058826e-01	3.496304e+14	4.984456e+14	1.462170e+14	9.262178e+03	6.241267e+03	3.254334e+03	0	4.800295e-04
1.080000e+09	4.545512e+12	0.000000e+00	7.058826e-01	3.479343e+14	4.983886e+14	1.455736e+14	9.254758e+03	6.241146e+03	3.254271e+03	0	4.743535e-04
1.090000e+09	4.382202e+12	0.000000e+00	7.058826e-01	3.462553e+14	4.982871e+14	1.449346e+14	9.247374e+03	6.240930e+03	3.254159e+03	0	4.686032e-04
1.100000e+09	4.220684e+12	0.000000e+00	7.058826e-01	3.445933e+14	4.981423e+14	1.442998e+14	9.240025e+03	6.240622e+03	3.253998e+03	0	4.627738e-04
1.110000e+09	4.060931e+12	0.000000e+00	7.058826e-01	3.429479e+14	4.979556e+14	1.436693e+14	9.232712e+03	6.240225e+03	3.253791e+03	0	4.568599e-04
1.120000e+09	3.902915e+12	0.000000e+00	7.058826e-01	3.413189e+14	4.977283e+14	1.430430e+14	9.225433e+03	6.239742e+03	3.253539e+03	0	4.508557e-04
1.130000e+09	3.746610e+12	0.000000e+00	7.058826e-01	3.397061e+14	4.974616e+14	1.424209e+14	9.218189e+03	6.239174e+03	3.253243e+03	0	4.447548e-04
1.140000e+09	3.591989e+12	0.000000e+00	7.058826e-01	3.381092e+14	4.971567e+14	1.418030e+14	9.210980e+03	6.238525e+03	3.252905e+03	0	4.385504e-04
1.150000e+09	3.439025e+12	0.000000e+00	7.058826e-01	3.365280e+14	4.968146e+14	1.411892e+14	9.203804e+03	6.237797e+03	3.252525e+03	0	4.322347e-04
1.160000e+09	3.287693e+12	0.000000e+00	7.058826e-01	3.349622e+14	4.964368e+14	1.405795e+14	9.196661e+03	6.236992e+03	3.252105e+03	0	4.257993e-04
1.170000e+09	3.137967e+12	0.000000e+00	7.058826e-01	3.334116e+14	4.960242e+14	1.399738e+14	9.189552e+03	6.236112e+03	3.251646e+03	0	4.192348e-04
1.180000e+09	2.989821e+12	0.000000e+00	7.058826e-01	3.318760e+14	4.955780e+14	1.393722e+14	9.182476e+03	6.235160e+03	3.251150e+03	0	4.125307e-04
1.190000e+09	2.843232e+12	0.000000e+00	7.058826e-01	3.303551e+14	4.950993e+14	1.387746e+14	9.175432e+03	6.234138e+03	3.250617e+03	0	4.056753e-04
1.200000e+09	2.698173e+12	0.000000e+00	7.058826e-01	3.288487e+14	4.945890e+14	1.381809e+14	9.168420e+03	6.233048e+03	3.250049e+03	0	3.986555e-04
1.210000e+09	2.554622e+12	0.000000e+00	7.058826e-01	3.273566e+14	4.940485e+14	1.375912e+14	9.161441e+03	6.231892e+03	3.249446e+03	0	3.914564e-04
1.220000e+09	2.412554e+12	0.000000e+00	7.058826e-01	3.258786e+14	4.934785e+14	1.370054e+14	9.154493e+03	6.230673e+03	3.248810e+03	0	3.840610e-04
1.230000e+09	2.271947e+12	0.000000e+00	7.058826e-01	3.244144e+14	4.928801e+14	1.364234e+14	9.147576e+03	6.229391e+03	3.248142e+03	0	3.764499e-04
1.240000e+09	2.132776e+12	0.000000e+00	7.058826e-01	3.229639e+14	4.922542e+14	1.358454e+14	9.140690e+03	6.228049e+03	3.247442e+03	0	3.686008e-04
1.250000e+09	1.995019e+12	0.000000e+00	7.058826e-01	3.215268e+14	4.916019e+14	1.352711e+14	9.133835e+03	6.226650e+03	3.246713e+03	0	3.604875e-04
1.260000e+09	1.858655e+12	0.000000e+00	7.058826e-01	3.201030e+14	4.909239e+14	1.347006e+14	9.127011e+03	6.225193e+03	3.245953e+03	0	3.520795e-04
1.270000e+09	1.723661e+12	0.000000e+00	7.058826e-01	3.186921e+14	4.902213e+14	1.341339e+14	9.120216e+03	6.223683e+03	3.245166e+03	0	3.433406e-04
1.280000e+09	1.590016e+12	0.000000e+00	7.058826e-01	3.172942e+14	4.894949e+14	1.335709e+14	9.113452e+03	6.222119e+03	3.244350e+03	0	3.342271e-04
1.290000e+09	1.457699e+12	0.000000e+00	7.058826e-01	3.159088e+14	4.887456e+14	1.330116e+14	9.106717e+03	6.220504e+03	3.243508e+03	0	3.246861e-04
1.300000e+09	1.326688e+12	0.000000e+00	7.058826e-01	3.145359e+14	4.879741e+14	1.324559e+14	9.100012e+03	6.218840e+03	3.242641e+03	0	3.146522e-04
1.310000e+09	1.196964e+12	0.000000e+00	7.058826e-01	3.131752e+14	4.871813e+14	1.319040e+14	9.093336e+03	6.217128e+03	3.241748e+03	0	3.040429e-04
1.320000e+09	1.068507e+12	0.000000e+00	7.058826e-01	3.118267e+14	4.863681e+14	1.313556e+14	9.086688e+03	6.215369e+03	3.240831e+03	0	2.927523e-04
1.330000e+09	9.412967e+11	0.000000e+00	7.058826e-01	3.104900e+14	4.855351e+14	1.308108e+14	9.080069e+03	6.213566e+03	3.239890e+03	0	2.806403e-04
1.340000e+09	8.153141e+11	0.000000e+00	7.058826e-01	3.091650e+14	4.846831e+14	1.302696e+14	9.073479e+03	6.211719e+03	3.238927e+03	0	2.675158e-04
1.350000e+09	6.905403e+11	0.000000e+00	7.058826e-01	3.078516e+14	4.838129e+14	1.297319e+14	9.066916e+03	6.209830e+03	3.237942e+03	0	2.531070e-04
1.360000e+09	5.669568e+11	0.000000e+00	7.058826e-01	3.065496e+14	4.829252e+14	1.291977e+14	9.060381e+03	6.207900e+03	3.236936e+03	0	2.370052e-04
