#t		Qconv[W]	Ri[Rp]		R*[Rp]		Qc[W]		Qm[W]		Qr[W]		Tcmb[K]		Tl[K]		Tup[K]		RiFlag		Bs[T]
0.000000e+00	2.593792e+13	0.000000e+00	7.058824e-01	7.691804e+14	9.822867e+13	2.901259e+14	1.140819e+04	5.181697e+03	2.594823e+03	0	8.435664e-04
1.000000e+07	2.588210e+13	0.000000e+00	7.058824e-01	7.680972e+14	1.029305e+14	2.885184e+14	1.139541e+04	5.216749e+03	2.612376e+03	0	8.429609e-04
2.000000e+07	2.581323e+13	0.000000e+00	7.058824e-01	7.669071e+14	1.077645e+14	2.869229e+14	1.138264e+04	5.251528e+03	2.629792e+03	0	8.422125e-04
3.000000e+07	2.573149e+13	0.000000e+00	7.058824e-01	7.656115e+14	1.127293e+14	2.853393e+14	1.136989e+04	5.286027e+03	2.647068e+03	0	8.413226e-04
4.000000e+07	2.563708e+13	0.000000e+00	7.058824e-01	7.642123e+14	1.178235e+14	2.837676e+14	1.135716e+04	5.320236e+03	2.664199e+03	0	8.402924e-04
5.000000e+07	2.553020e+13	0.000000e+00	7.058824e-01	7.627112e+14	1.230453e+14	2.822075e+14	1.134446e+04	5.354149e+03	2.681181e+03	0	8.391230e-04
6.000000e+07	2.541108e+13	0.000000e+00	7.058824e-01	7.611102e+14	1.283927e+14	2.806592e+14	1.133178e+04	5.387756e+03	2.698011e+03	0	8.378159e-04
7.000000e+07	2.527994e+13	0.000000e+00	7.058824e-01	7.594111e+14	1.338634e+14	2.791223e+14	1.131912e+04	5.421050e+03	2.714683e+03	0	8.363721e-04
8.000000e+07	2.513702e+13	0.000000e+00	7.058824e-01	7.576161e+14	1.394549e+14	2.775969e+14	1.130650e+04	5.454023e+03	2.731195e+03	0	8.347931e-04
9.000000e+07	2.498259e+13	0.000000e+00	7.058824e-01	7.557274e+14	1.451643e+14	2.760828e+14	1.129390e+04	5.486668e+03	2.747543e+03	0	8.330800e-04
1.000000e+08	2.481690e+13	0.000000e+00	7.058824e-01	7.537472e+14	1.509885e+14	2.745799e+14	1.128134e+04	5.518979e+03	2.763723e+03	0	8.312342e-04
1.100000e+08	2.464022e+13	0.000000e+00	7.058824e-01	7.516778e+14	1.569243e+14	2.730882e+14	1.126881e+04	5.550946e+03	2.779731e+03	0	8.292569e-04
1.200000e+08	2.445285e+13	0.000000e+00	7.058824e-01	7.495216e+14	1.629680e+14	2.716076e+14	1.125631e+04	5.582565e+03	2.795564e+03	0	8.271496e-04
1.300000e+08	2.425506e+13	0.000000e+00	7.058824e-01	7.472812e+14	1.691158e+14	2.701379e+14	1.124385e+04	5.613827e+03	2.811220e+03	0	8.249134e-04
1.400000e+08	2.404716e+13	0.000000e+00	7.058824e-01	7.449590e+14	1.753638e+14	2.686791e+14	1.123143e+04	5.644727e+03	2.826693e+03	0	8.225497e-04
1.500000e+08	2.382946e+13	0.000000e+00	7.058824e-01	7.425576e+14	1.817075e+14	2.672311e+14	1.121904e+04	5.675258e+03	2.841983e+03	0	8.200599e-04
1.600000e+08	2.360225e+13	0.000000e+00	7.058824e-01	7.400798e+14	1.881427e+14	2.657938e+14	1.120670e+04	5.705416e+03	2.857084e+03	0	8.174453e-04
1.700000e+08	2.336587e+13	0.000000e+00	7.058824e-01	7.375280e+14	1.946645e+14	2.643671e+14	1.119440e+04	5.735192e+03	2.871995e+03	0	8.147072e-04
1.800000e+08	2.312064e+13	0.000000e+00	7.058824e-01	7.349052e+14	2.012682e+14	2.629509e+14	1.118213e+04	5.764584e+03	2.886714e+03	0	8.118470e-04
1.900000e+08	2.286688e+13	0.000000e+00	7.058824e-01	7.322141e+14	2.079487e+14	2.615451e+14	1.116992e+04	5.793585e+03	2.901236e+03	0	8.088659e-04
2.000000e+08	2.260493e+13	0.000000e+00	7.058824e-01	7.294574e+14	2.147009e+14	2.601497e+14	1.115774e+04	5.822190e+03	2.915561e+03	0	8.057654e-04
2.100000e+08	2.233512e+13	0.000000e+00	7.058824e-01	7.266380e+14	2.215194e+14	2.587646e+14	1.114562e+04	5.850395e+03	2.929685e+03	0	8.025467e-04
2.200000e+08	2.205778e+13	0.000000e+00	7.058824e-01	7.237587e+14	2.283987e+14	2.573896e+14	1.113354e+04	5.878196e+03	2.943607e+03	0	7.992111e-04
2.300000e+08	2.177326e+13	0.000000e+00	7.058824e-01	7.208223e+14	2.353334e+14	2.560247e+14	1.112150e+04	5.905588e+03	2.957324e+03	0	7.957599e-04
2.400000e+08	2.148190e+13	0.000000e+00	7.058824e-01	7.178318e+14	2.423176e+14	2.546698e+14	1.110952e+04	5.932569e+03	2.970835e+03	0	7.921945e-04
2.500000e+08	2.118403e+13	0.000000e+00	7.058824e-01	7.147900e+14	2.493457e+14	2.533248e+14	1.109759e+04	5.959135e+03	2.984138e+03	0	7.885159e-04
2.600000e+08	2.088000e+13	0.000000e+00	7.058824e-01	7.116996e+14	2.564119e+14	2.519897e+14	1.108570e+04	5.985282e+03	2.997232e+03	0	7.847255e-04
2.700000e+08	2.057015e+13	0.000000e+00	7.058824e-01	7.085636e+14	2.635102e+14	2.506644e+14	1.107387e+04	6.011009e+03	3.010115e+03	0	7.808243e-04
2.800000e+08	2.025480e+13	0.000000e+00	7.058824e-01	7.053848e+14	2.706348e+14	2.493487e+14	1.106209e+04	6.036312e+03	3.022786e+03	0	7.768137e-04
2.900000e+08	1.993430e+13	0.000000e+00	7.058824e-01	7.021660e+14	2.777797e+14	2.480426e+14	1.105036e+04	6.061189e+03	3.035244e+03	0	7.726946e-04
3.000000e+08	1.960898e+13	0.000000e+00	7.058824e-01	6.989099e+14	2.849389e+14	2.467460e+14	1.103869e+04	6.085640e+03	3.047488e+03	0	7.684681e-04
3.100000e+08	1.927916e+13	0.000000e+00	7.058824e-01	6.956193e+14	2.921066e+14	2.454589e+14	1.102707e+04	6.109662e+03	3.059518e+03	0	7.641353e-04
3.200000e+08	1.894517e+13	0.000000e+00	7.058824e-01	6.922970e+14	2.992768e+14	2.441812e+14	1.101550e+04	6.133255e+03	3.071332e+03	0	7.596970e-04
3.300000e+08	1.860734e+13	0.000000e+00	7.058824e-01	6.889455e+14	3.064437e+14	2.429127e+14	1.100399e+04	6.156416e+03	3.082931e+03	0	7.551542e-04
3.400000e+08	1.826597e+13	0.000000e+00	7.058824e-01	6.855675e+14	3.136015e+14	2.416535e+14	1.099254e+04	6.179147e+03	3.094314e+03	0	7.505076e-04
3.500000e+08	1.792137e+13	0.000000e+00	7.058824e-01	6.821655e+14	3.207444e+14	2.404034e+14	1.098114e+04	6.201447e+03	3.105481e+03	0	7.457581e-04
3.600000e+08	1.757386e+13	0.000000e+00	7.058824e-01	6.787422e+14	3.278666e+14	2.391623e+14	1.096980e+04	6.223316e+03	3.116432e+03	0	7.409062e-04
3.700000e+08	1.722371e+13	0.000000e+00	7.058824e-01	6.752999e+14	3.349628e+14	2.379303e+14	1.095852e+04	6.244754e+03	3.127167e+03	0	7.359526e-04
3.800000e+08	1.687124e+13	0.000000e+00	7.058824e-01	6.718412e+14	3.420275e+14	2.367072e+14	1.094729e+04	6.265762e+03	3.137687e+03	0	7.308976e-04
3.900000e+08	1.651671e+13	0.000000e+00	7.058824e-01	6.683683e+14	3.490552e+14	2.354929e+14	1.093612e+04	6.286341e+03	3.147993e+03	0	7.257417e-04
4.000000e+08	1.616041e+13	0.000000e+00	7.058824e-01	6.648835e+14	3.560407e+14	2.342873e+14	1.092501e+04	6.306492e+03	3.158084e+03	0	7.204851e-04
4.100000e+08	1.580260e+13	0.000000e+00	7.058824e-01	6.613891e+14	3.629791e+14	2.330905e+14	1.091395e+04	6.326217e+03	3.167961e+03	0	7.151279e-04
4.200000e+08	1.544355e+13	0.000000e+00	7.058824e-01	6.578872e+14	3.698652e+14	2.319023e+14	1.090295e+04	6.345518e+03	3.177626e+03	0	7.096702e-04
4.300000e+08	1.508350e+13	0.000000e+00	7.058824e-01	6.543800e+14	3.766945e+14	2.307226e+14	1.089202e+04	6.364396e+03	3.187080e+03	0	7.041118e-04
4.400000e+08	1.472271e+13	0.000000e+00	7.058824e-01	6.508694e+14	3.834623e+14	2.295515e+14	1.088114e+04	6.382854e+03	3.196323e+03	0	6.984524e-04
4.500000e+08	1.436141e+13	0.000000e+00	7.058824e-01	6.473574e+14	3.901641e+14	2.283887e+14	1.087031e+04	6.400895e+03	3.205357e+03	0	6.926915e-04
4.600000e+08	1.399982e+13	0.000000e+00	7.058824e-01	6.438460e+14	3.967956e+14	2.272343e+14	1.085955e+04	6.418521e+03	3.214184e+03	0	6.868286e-04
4.700000e+08	1.363817e+13	0.000000e+00	7.058824e-01	6.403368e+14	4.033529e+14	2.260882e+14	1.084885e+04	6.435734e+03	3.222804e+03	0	6.808627e-04
4.800000e+08	1.327666e+13	0.000000e+00	7.058824e-01	6.368317e+14	4.098318e+14	2.249503e+14	1.083820e+04	6.452539e+03	3.231219e+03	0	6.747929e-04
4.900000e+08	1.291550e+13	0.000000e+00	7.058824e-01	6.333322e+14	4.162289e+14	2.238205e+14	1.082761e+04	6.468939e+03	3.239432e+03	0	6.686179e-04
5.000000e+08	1.255489e+13	0.000000e+00	7.058824e-01	6.298401e+14	4.225405e+14	2.226988e+14	1.081708e+04	6.484937e+03	3.247443e+03	0	6.623362e-04
5.100000e+08	1.219500e+13	0.000000e+00	7.058824e-01	6.263568e+14	4.287634e+14	2.215852e+14	1.080661e+04	6.500537e+03	3.255255e+03	0	6.559461e-04
5.200000e+08	1.183602e+13	0.000000e+00	7.058824e-01	6.228838e+14	4.348943e+14	2.204794e+14	1.079619e+04	6.515743e+03	3.262869e+03	0	6.494455e-04
5.300000e+08	1.147810e+13	0.000000e+00	7.058824e-01	6.194225e+14	4.409304e+14	2.193816e+14	1.078584e+04	6.530559e+03	3.270289e+03	0	6.428321e-04
5.400000e+08	1.112142e+13	0.000000e+00	7.058824e-01	6.159741e+14	4.468690e+14	2.182916e+14	1.077554e+04	6.544989e+03	3.277515e+03	0	6.361032e-04
5.500000e+08	1.076612e+13	0.000000e+00	7.058824e-01	6.125399e+14	4.527074e+14	2.172093e+14	1.076529e+04	6.559038e+03	3.284550e+03	0	6.292558e-04
5.600000e+08	1.041234e+13	0.000000e+00	7.058824e-01	6.091211e+14	4.584434e+14	2.161348e+14	1.075511e+04	6.572709e+03	3.291396e+03	0	6.222864e-04
5.700000e+08	1.006022e+13	0.000000e+00	7.058824e-01	6.057187e+14	4.640746e+14	2.150678e+14	1.074498e+04	6.586009e+03	3.298056e+03	0	6.151911e-04
5.800000e+08	9.709890e+12	0.000000e+00	7.058824e-01	6.023339e+14	4.695994e+14	2.140085e+14	1.073491e+04	6.598941e+03	3.304532e+03	0	6.079656e-04
5.900000e+08	9.361465e+12	0.000000e+00	7.058824e-01	5.989676e+14	4.750160e+14	2.129566e+14	1.072489e+04	6.611510e+03	3.310827e+03	0	6.006048e-04
6.000000e+08	9.015057e+12	0.000000e+00	7.058824e-01	5.956206e+14	4.803225e+14	2.119122e+14	1.071493e+04	6.623722e+03	3.316942e+03	0	5.931034e-04
6.100000e+08	8.670771e+12	0.000000e+00	7.058824e-01	5.922939e+14	4.855178e+14	2.108752e+14	1.070503e+04	6.635581e+03	3.322880e+03	0	5.854549e-04
6.200000e+08	8.328705e+12	0.000000e+00	7.058824e-01	5.889882e+14	4.906004e+14	2.098455e+14	1.069518e+04	6.647092e+03	3.328645e+03	0	5.776526e-04
6.300000e+08	7.988947e+12	0.000000e+00	7.058824e-01	5.857043e+14	4.955694e+14	2.088230e+14	1.068539e+04	6.658261e+03	3.334238e+03	0	5.696884e-04
6.400000e+08	7.651583e+12	0.000000e+00	7.058824e-01	5.824428e+14	5.004239e+14	2.078078e+14	1.067565e+04	6.669093e+03	3.339662e+03	0	5.615537e-04
6.500000e+08	7.316688e+12	0.000000e+00	7.058824e-01	5.792043e+14	5.051633e+14	2.067998e+14	1.066596e+04	6.679592e+03	3.344920e+03	0	5.532385e-04
6.600000e+08	6.984334e+12	0.000000e+00	7.058824e-01	5.759895e+14	5.097869e+14	2.057988e+14	1.065633e+04	6.689766e+03	3.350014e+03	0	5.447316e-04
6.700000e+08	6.654584e+12	0.000000e+00	7.058824e-01	5.727987e+14	5.142942e+14	2.048049e+14	1.064675e+04	6.699618e+03	3.354948e+03	0	5.360202e-04
6.800000e+08	6.327497e+12	0.000000e+00	7.058824e-01	5.696326e+14	5.186851e+14	2.038179e+14	1.063723e+04	6.709154e+03	3.359723e+03	0	5.270901e-04
6.900000e+08	6.003127e+12	0.000000e+00	7.058824e-01	5.664914e+14	5.229594e+14	2.028379e+14	1.062775e+04	6.718380e+03	3.364343e+03	0	5.179248e-04
7.000000e+08	5.681520e+12	0.000000e+00	7.058824e-01	5.633756e+14	5.271173e+14	2.018647e+14	1.061833e+04	6.727301e+03	3.368811e+03	0	5.085056e-04
7.100000e+08	5.362719e+12	0.000000e+00	7.058824e-01	5.602856e+14	5.311586e+14	2.008984e+14	1.060896e+04	6.735922e+03	3.373128e+03	0	4.988109e-04
7.200000e+08	5.046761e+12	0.000000e+00	7.058824e-01	5.572215e+14	5.350839e+14	1.999388e+14	1.059965e+04	6.744250e+03	3.377298e+03	0	4.888157e-04
7.300000e+08	4.733678e+12	0.000000e+00	7.058824e-01	5.541836e+14	5.388934e+14	1.989859e+14	1.059038e+04	6.752289e+03	3.381324e+03	0	4.784910e-04
7.400000e+08	4.423499e+12	0.000000e+00	7.058824e-01	5.511722e+14	5.425877e+14	1.980397e+14	1.058117e+04	6.760044e+03	3.385208e+03	0	4.678028e-04
7.500000e+08	4.116246e+12	0.000000e+00	7.058824e-01	5.481875e+14	5.461673e+14	1.971000e+14	1.057200e+04	6.767522e+03	3.388952e+03	0	4.567109e-04
7.600000e+08	3.811940e+12	0.000000e+00	7.058824e-01	5.452294e+14	5.496332e+14	1.961669e+14	1.056288e+04	6.774727e+03	3.392560e+03	0	4.451669e-04
7.700000e+08	3.510595e+12	0.000000e+00	7.058824e-01	5.422983e+14	5.529857e+14	1.952403e+14	1.055382e+04	6.781666e+03	3.396035e+03	0	4.331129e-04
7.800000e+08	3.212224e+12	0.000000e+00	7.058824e-01	5.393941e+14	5.562262e+14	1.943202e+14	1.054480e+04	6.788343e+03	3.399378e+03	0	4.204776e-04
7.900000e+08	2.916835e+12	0.000000e+00	7.058824e-01	5.365168e+14	5.593555e+14	1.934064e+14	1.053583e+04	6.794763e+03	3.402594e+03	0	4.071723e-04
8.000000e+08	2.624433e+12	0.000000e+00	7.058824e-01	5.336666e+14	5.623745e+14	1.924990e+14	1.052690e+04	6.800932e+03	3.405683e+03	0	3.930846e-04
8.100000e+08	2.335019e+12	0.000000e+00	7.058824e-01	5.308434e+14	5.652846e+14	1.915978e+14	1.051803e+04	6.806856e+03	3.408649e+03	0	3.780690e-04
8.200000e+08	2.048592e+12	0.000000e+00	7.058824e-01	5.280471e+14	5.680869e+14	1.907029e+14	1.050920e+04	6.812539e+03	3.411495e+03	0	3.619312e-04
8.300000e+08	1.765149e+12	0.000000e+00	7.058824e-01	5.252778e+14	5.707827e+14	1.898142e+14	1.050042e+04	6.817986e+03	3.414223e+03	0	3.444039e-04
8.400000e+08	1.484683e+12	0.000000e+00	7.058824e-01	5.225352e+14	5.733733e+14	1.889316e+14	1.049168e+04	6.823203e+03	3.416835e+03	0	3.251014e-04
8.500000e+08	1.207184e+12	0.000000e+00	7.058824e-01	5.198195e+14	5.758600e+14	1.880552e+14	1.048299e+04	6.828194e+03	3.419335e+03	0	3.034348e-04
8.600000e+08	9.326428e+11	0.000000e+00	7.058824e-01	5.171303e+14	5.782442e+14	1.871847e+14	1.047435e+04	6.832965e+03	3.421724e+03	0	2.784278e-04
8.700000e+08	6.610446e+11	0.000000e+00	7.058824e-01	5.144677e+14	5.805277e+14	1.863203e+14	1.046575e+04	6.837520e+03	3.424005e+03	0	2.482473e-04
8.800000e+08	3.923744e+11	0.000000e+00	7.058824e-01	5.118314e+14	5.827118e+14	1.854617e+14	1.045719e+04	6.841865e+03	3.426181e+03	0	2.086289e-04
8.900000e+08	1.266152e+11	0.000000e+00	7.058824e-01	5.092212e+14	5.847977e+14	1.846091e+14	1.044868e+04	6.846004e+03	3.428253e+03	0	1.430989e-04
9.000000e+08	-1.362519e+11	0.000000e+00	7.058824e-01	5.066371e+14	5.867876e+14	1.837624e+14	1.044021e+04	6.849941e+03	3.430225e+03	0	nan
