#t		Qconv[W]	Ri[Rp]		R*[Rp]		Qc[W]		Qm[W]		Qr[W]		Tcmb[K]		Tl[K]		Tup[K]		RiFlag		Bs[T]
0.000000e+00	1.566482e+13	0.000000e+00	6.021505e-01	4.562338e+14	3.579423e+13	6.059305e+13	9.556471e+03	2.884314e+03	2.382167e+03	0	8.907918e-04
1.000000e+07	1.485176e+13	0.000000e+00	6.021505e-01	4.327211e+14	4.164317e+13	6.025732e+13	9.415467e+03	2.951757e+03	2.437869e+03	0	8.751055e-04
2.000000e+07	1.409733e+13	0.000000e+00	6.021505e-01	4.109025e+14	4.775721e+13	5.992410e+13	9.281577e+03	3.014991e+03	2.490094e+03	0	8.600296e-04
3.000000e+07	1.339602e+13	0.000000e+00	6.021505e-01	3.906186e+14	5.407556e+13	5.959337e+13	9.154301e+03	3.074222e+03	2.539013e+03	0	8.455247e-04
4.000000e+07	1.274296e+13	0.000000e+00	6.021505e-01	3.717292e+14	6.053748e+13	5.926511e+13	9.033185e+03	3.129642e+03	2.584785e+03	0	8.315554e-04
5.000000e+07	1.213389e+13	0.000000e+00	6.021505e-01	3.541112e+14	6.708355e+13	5.893930e+13	8.917815e+03	3.181432e+03	2.627559e+03	0	8.180901e-04
6.000000e+07	1.156504e+13	0.000000e+00	6.021505e-01	3.376553e+14	7.365686e+13	5.861592e+13	8.807814e+03	3.229765e+03	2.667477e+03	0	8.051006e-04
7.000000e+07	1.103305e+13	0.000000e+00	6.021505e-01	3.222646e+14	8.020395e+13	5.829494e+13	8.702835e+03	3.274803e+03	2.704674e+03	0	7.925614e-04
8.000000e+07	1.053491e+13	0.000000e+00	6.021505e-01	3.078526e+14	8.667537e+13	5.797636e+13	8.602559e+03	3.316707e+03	2.739282e+03	0	7.804494e-04
9.000000e+07	1.006796e+13	0.000000e+00	6.021505e-01	2.943418e+14	9.302637e+13	5.766014e+13	8.506693e+03	3.355626e+03	2.771426e+03	0	7.687436e-04
1.000000e+08	9.629766e+12	0.000000e+00	6.021505e-01	2.816624e+14	9.921715e+13	5.734627e+13	8.414968e+03	3.391710e+03	2.801228e+03	0	7.574250e-04
1.100000e+08	9.218162e+12	0.000000e+00	6.021505e-01	2.697515e+14	1.052130e+14	5.703473e+13	8.327132e+03	3.425100e+03	2.828805e+03	0	7.464760e-04
1.200000e+08	8.831172e+12	0.000000e+00	6.021505e-01	2.585522e+14	1.109843e+14	5.672549e+13	8.242955e+03	3.455935e+03	2.854272e+03	0	7.358803e-04
1.300000e+08	8.467003e+12	0.000000e+00	6.021505e-01	2.480125e+14	1.165067e+14	5.641855e+13	8.162221e+03	3.484350e+03	2.877740e+03	0	7.256229e-04
1.400000e+08	8.124019e+12	0.000000e+00	6.021505e-01	2.380854e+14	1.217603e+14	5.611388e+13	8.084732e+03	3.510474e+03	2.899315e+03	0	7.156896e-04
1.500000e+08	7.800728e+12	0.000000e+00	6.021505e-01	2.287275e+14	1.267303e+14	5.581146e+13	8.010301e+03	3.534432e+03	2.919103e+03	0	7.060674e-04
1.600000e+08	7.495761e+12	0.000000e+00	6.021505e-01	2.198994e+14	1.314058e+14	5.551128e+13	7.938756e+03	3.556347e+03	2.937203e+03	0	6.967436e-04
1.700000e+08	7.207859e+12	0.000000e+00	6.021505e-01	2.115647e+14	1.357799e+14	5.521331e+13	7.869935e+03	3.576336e+03	2.953711e+03	0	6.877066e-04
1.800000e+08	6.935868e+12	0.000000e+00	6.021505e-01	2.036901e+14	1.398492e+14	5.491753e+13	7.803690e+03	3.594511e+03	2.968722e+03	0	6.789452e-04
1.900000e+08	6.678722e+12	0.000000e+00	6.021505e-01	1.962446e+14	1.436135e+14	5.462394e+13	7.739880e+03	3.610980e+03	2.982324e+03	0	6.704487e-04
2.000000e+08	6.435435e+12	0.000000e+00	6.021505e-01	1.891999e+14	1.470751e+14	5.433250e+13	7.678373e+03	3.625848e+03	2.994604e+03	0	6.622069e-04
2.100000e+08	6.205100e+12	0.000000e+00	6.021505e-01	1.825298e+14	1.502389e+14	5.404321e+13	7.619048e+03	3.639214e+03	3.005643e+03	0	6.542102e-04
2.200000e+08	5.986874e+12	0.000000e+00	6.021505e-01	1.762098e+14	1.531115e+14	5.375605e+13	7.561790e+03	3.651172e+03	3.015519e+03	0	6.464493e-04
2.300000e+08	5.779979e+12	0.000000e+00	6.021505e-01	1.702175e+14	1.557013e+14	5.347099e+13	7.506491e+03	3.661812e+03	3.024307e+03	0	6.389151e-04
2.400000e+08	5.583691e+12	0.000000e+00	6.021505e-01	1.645319e+14	1.580180e+14	5.318802e+13	7.453052e+03	3.671221e+03	3.032077e+03	0	6.315992e-04
2.500000e+08	5.397341e+12	0.000000e+00	6.021505e-01	1.591337e+14	1.600721e+14	5.290712e+13	7.401378e+03	3.679479e+03	3.038898e+03	0	6.244932e-04
2.600000e+08	5.220305e+12	0.000000e+00	6.021505e-01	1.540050e+14	1.618751e+14	5.262828e+13	7.351381e+03	3.686664e+03	3.044832e+03	0	6.175892e-04
2.700000e+08	5.052005e+12	0.000000e+00	6.021505e-01	1.491289e+14	1.634390e+14	5.235148e+13	7.302979e+03	3.692849e+03	3.049940e+03	0	6.108797e-04
2.800000e+08	4.891903e+12	0.000000e+00	6.021505e-01	1.444899e+14	1.647760e+14	5.207670e+13	7.256093e+03	3.698102e+03	3.054279e+03	0	6.043572e-04
2.900000e+08	4.739500e+12	0.000000e+00	6.021505e-01	1.400736e+14	1.658986e+14	5.180392e+13	7.210651e+03	3.702489e+03	3.057901e+03	0	5.980148e-04
3.000000e+08	4.594330e+12	0.000000e+00	6.021505e-01	1.358666e+14	1.668191e+14	5.153314e+13	7.166583e+03	3.706070e+03	3.060859e+03	0	5.918457e-04
3.100000e+08	4.455959e+12	0.000000e+00	6.021505e-01	1.318562e+14	1.675500e+14	5.126432e+13	7.123827e+03	3.708903e+03	3.063199e+03	0	5.858433e-04
3.200000e+08	4.323984e+12	0.000000e+00	6.021505e-01	1.280308e+14	1.681034e+14	5.099746e+13	7.082320e+03	3.711041e+03	3.064965e+03	0	5.800015e-04
3.300000e+08	4.198028e+12	0.000000e+00	6.021505e-01	1.243796e+14	1.684910e+14	5.073255e+13	7.042006e+03	3.712537e+03	3.066200e+03	0	5.743142e-04
3.400000e+08	4.077741e+12	0.000000e+00	6.021505e-01	1.208925e+14	1.687244e+14	5.046955e+13	7.002830e+03	3.713436e+03	3.066943e+03	0	5.687756e-04
3.500000e+08	3.962797e+12	0.000000e+00	6.021505e-01	1.175598e+14	1.688146e+14	5.020847e+13	6.964743e+03	3.713783e+03	3.067229e+03	0	5.633803e-04
3.600000e+08	3.852888e+12	0.000000e+00	6.021505e-01	1.143729e+14	1.687722e+14	4.994927e+13	6.927697e+03	3.713620e+03	3.067095e+03	0	5.581230e-04
3.700000e+08	3.747731e+12	0.000000e+00	6.021505e-01	1.113235e+14	1.686074e+14	4.969196e+13	6.891645e+03	3.712985e+03	3.066571e+03	0	5.529984e-04
3.800000e+08	3.647060e+12	0.000000e+00	6.021505e-01	1.084039e+14	1.683299e+14	4.943650e+13	6.856547e+03	3.711916e+03	3.065687e+03	0	5.480019e-04
3.900000e+08	3.550625e+12	0.000000e+00	6.021505e-01	1.056069e+14	1.679488e+14	4.918290e+13	6.822361e+03	3.710445e+03	3.064472e+03	0	5.431286e-04
4.000000e+08	3.458194e+12	0.000000e+00	6.021505e-01	1.029257e+14	1.674728e+14	4.893112e+13	6.789049e+03	3.708604e+03	3.062952e+03	0	5.383741e-04
4.100000e+08	3.369550e+12	0.000000e+00	6.021505e-01	1.003542e+14	1.669100e+14	4.868116e+13	6.756577e+03	3.706423e+03	3.061150e+03	0	5.337342e-04
4.200000e+08	3.284488e+12	0.000000e+00	6.021505e-01	9.788631e+13	1.662682e+14	4.843300e+13	6.724908e+03	3.703928e+03	3.059091e+03	0	5.292047e-04
4.300000e+08	3.202820e+12	0.000000e+00	6.021505e-01	9.551666e+13	1.655546e+14	4.818663e+13	6.694013e+03	3.701147e+03	3.056793e+03	0	5.247816e-04
4.400000e+08	3.124365e+12	0.000000e+00	6.021505e-01	9.324004e+13	1.647759e+14	4.794203e+13	6.663859e+03	3.698102e+03	3.054278e+03	0	5.204612e-04
4.500000e+08	3.048957e+12	0.000000e+00	6.021505e-01	9.105161e+13	1.639384e+14	4.769919e+13	6.634418e+03	3.694815e+03	3.051564e+03	0	5.162399e-04
4.600000e+08	2.976439e+12	0.000000e+00	6.021505e-01	8.894684e+13	1.630481e+14	4.745809e+13	6.605663e+03	3.691307e+03	3.048666e+03	0	5.121141e-04
4.700000e+08	2.906664e+12	0.000000e+00	6.021505e-01	8.692148e+13	1.621104e+14	4.721872e+13	6.577567e+03	3.687597e+03	3.045603e+03	0	5.080807e-04
4.800000e+08	2.839493e+12	0.000000e+00	6.021505e-01	8.497151e+13	1.611304e+14	4.698107e+13	6.550106e+03	3.683703e+03	3.042387e+03	0	5.041363e-04
4.900000e+08	2.774796e+12	0.000000e+00	6.021505e-01	8.309320e+13	1.601128e+14	4.674512e+13	6.523257e+03	3.679642e+03	3.039032e+03	0	5.002781e-04
5.000000e+08	2.712453e+12	0.000000e+00	6.021505e-01	8.128301e+13	1.590621e+14	4.651085e+13	6.496997e+03	3.675428e+03	3.035552e+03	0	4.965029e-04
5.100000e+08	2.652347e+12	0.000000e+00	6.021505e-01	7.953763e+13	1.579823e+14	4.627826e+13	6.471305e+03	3.671077e+03	3.031958e+03	0	4.928081e-04
5.200000e+08	2.594372e+12	0.000000e+00	6.021505e-01	7.785393e+13	1.568771e+14	4.604733e+13	6.446160e+03	3.666600e+03	3.028261e+03	0	4.891910e-04
5.300000e+08	2.538425e+12	0.000000e+00	6.021505e-01	7.622898e+13	1.557500e+14	4.581805e+13	6.421544e+03	3.662011e+03	3.024471e+03	0	4.856490e-04
5.400000e+08	2.484411e+12	0.000000e+00	6.021505e-01	7.466002e+13	1.546043e+14	4.559040e+13	6.397438e+03	3.657321e+03	3.020597e+03	0	4.821797e-04
5.500000e+08	2.432240e+12	0.000000e+00	6.021505e-01	7.314442e+13	1.534427e+14	4.536437e+13	6.373825e+03	3.652540e+03	3.016649e+03	0	4.787806e-04
5.600000e+08	2.381827e+12	0.000000e+00	6.021505e-01	7.167975e+13	1.522681e+14	4.513994e+13	6.350687e+03	3.647678e+03	3.012633e+03	0	4.754496e-04
5.700000e+08	2.333092e+12	0.000000e+00	6.021505e-01	7.026367e+13	1.510830e+14	4.491711e+13	6.328010e+03	3.642745e+03	3.008559e+03	0	4.721845e-04
5.800000e+08	2.285958e+12	0.000000e+00	6.021505e-01	6.889400e+13	1.498895e+14	4.469586e+13	6.305778e+03	3.637748e+03	3.004432e+03	0	4.689831e-04
5.900000e+08	2.240355e+12	0.000000e+00	6.021505e-01	6.756866e+13	1.486899e+14	4.447618e+13	6.283977e+03	3.632696e+03	3.000259e+03	0	4.658435e-04
6.000000e+08	2.196216e+12	0.000000e+00	6.021505e-01	6.628571e+13	1.474859e+14	4.425805e+13	6.262592e+03	3.627596e+03	2.996047e+03	0	4.627638e-04
6.100000e+08	2.153475e+12	0.000000e+00	6.021505e-01	6.504330e+13	1.462793e+14	4.404147e+13	6.241611e+03	3.622453e+03	2.991800e+03	0	4.597422e-04
6.200000e+08	2.112073e+12	0.000000e+00	6.021505e-01	6.383968e+13	1.450718e+14	4.382642e+13	6.221020e+03	3.617276e+03	2.987524e+03	0	4.567768e-04
6.300000e+08	2.071952e+12	0.000000e+00	6.021505e-01	6.267319e+13	1.438647e+14	4.361288e+13	6.200808e+03	3.612068e+03	2.983223e+03	0	4.538660e-04
6.400000e+08	2.033059e+12	0.000000e+00	6.021505e-01	6.154227e+13	1.426595e+14	4.340085e+13	6.180963e+03	3.606837e+03	2.978902e+03	0	4.510082e-04
6.500000e+08	1.995342e+12	0.000000e+00	6.021505e-01	6.044543e+13	1.414572e+14	4.319032e+13	6.161473e+03	3.601585e+03	2.974565e+03	0	4.482017e-04
6.600000e+08	1.958753e+12	0.000000e+00	6.021505e-01	5.938127e+13	1.402589e+14	4.298126e+13	6.142329e+03	3.596319e+03	2.970216e+03	0	4.454452e-04
6.700000e+08	1.923244e+12	0.000000e+00	6.021505e-01	5.834845e+13	1.390657e+14	4.277368e+13	6.123520e+03	3.591042e+03	2.965857e+03	0	4.427371e-04
6.800000e+08	1.888774e+12	0.000000e+00	6.021505e-01	5.734570e+13	1.378784e+14	4.256755e+13	6.105037e+03	3.585758e+03	2.961493e+03	0	4.400760e-04
6.900000e+08	1.855299e+12	0.000000e+00	6.021505e-01	5.637182e+13	1.366979e+14	4.236287e+13	6.086869e+03	3.580470e+03	2.957126e+03	0	4.374607e-04
7.000000e+08	1.822781e+12	0.000000e+00	6.021505e-01	5.542567e+13	1.355247e+14	4.215963e+13	6.069007e+03	3.575183e+03	2.952759e+03	0	4.348898e-04
7.100000e+08	1.791182e+12	0.000000e+00	6.021505e-01	5.450616e+13	1.343596e+14	4.195781e+13	6.051444e+03	3.569898e+03	2.948394e+03	0	4.323621e-04
7.200000e+08	1.760466e+12	0.000000e+00	6.021505e-01	5.361226e+13	1.332031e+14	4.175739e+13	6.034170e+03	3.564619e+03	2.944034e+03	0	4.298764e-04
7.300000e+08	1.730599e+12	0.000000e+00	6.021505e-01	5.274298e+13	1.320557e+14	4.155838e+13	6.017179e+03	3.559348e+03	2.939681e+03	0	4.274316e-04
7.400000e+08	1.701550e+12	0.000000e+00	6.021505e-01	5.189739e+13	1.309179e+14	4.136076e+13	6.000461e+03	3.554088e+03	2.935336e+03	0	4.250264e-04
7.500000e+08	1.673286e+12	0.000000e+00	6.021505e-01	5.107460e+13	1.297901e+14	4.116452e+13	5.984009e+03	3.548840e+03	2.931002e+03	0	4.226600e-04
7.600000e+08	1.645780e+12	0.000000e+00	6.021505e-01	5.027377e+13	1.286726e+14	4.096964e+13	5.967817e+03	3.543607e+03	2.926681e+03	0	4.203312e-04
7.700000e+08	1.619003e+12	0.000000e+00	6.021505e-01	4.949407e+13	1.275657e+14	4.077612e+13	5.951878e+03	3.538391e+03	2.922372e+03	0	4.180391e-04
7.800000e+08	1.592928e+12	0.000000e+00	6.021505e-01	4.873475e+13	1.264696e+14	4.058395e+13	5.936184e+03	3.533193e+03	2.918079e+03	0	4.157827e-04
7.900000e+08	1.567530e+12	0.000000e+00	6.021505e-01	4.799505e+13	1.253846e+14	4.039311e+13	5.920730e+03	3.528014e+03	2.913802e+03	0	4.135611e-04
8.000000e+08	1.542784e+12	0.000000e+00	6.021505e-01	4.727429e+13	1.243108e+14	4.020359e+13	5.905509e+03	3.522857e+03	2.909543e+03	0	4.113734e-04
8.100000e+08	1.518669e+12	0.000000e+00	6.021505e-01	4.657179e+13	1.232485e+14	4.001538e+13	5.890516e+03	3.517722e+03	2.905302e+03	0	4.092187e-04
8.200000e+08	1.495160e+12	0.000000e+00	6.021505e-01	4.588692e+13	1.221977e+14	3.982848e+13	5.875744e+03	3.512610e+03	2.901080e+03	0	4.070961e-04
8.300000e+08	1.472238e+12	0.000000e+00	6.021505e-01	4.521905e+13	1.211585e+14	3.964287e+13	5.861188e+03	3.507523e+03	2.896879e+03	0	4.050050e-04
8.400000e+08	1.449882e+12	0.000000e+00	6.021505e-01	4.456760e+13	1.201309e+14	3.945855e+13	5.846843e+03	3.502462e+03	2.892698e+03	0	4.029446e-04
8.500000e+08	1.428073e+12	0.000000e+00	6.021505e-01	4.393201e+13	1.191151e+14	3.927549e+13	5.832704e+03	3.497427e+03	2.888540e+03	0	4.009140e-04
8.600000e+08	1.406791e+12	0.000000e+00	6.021505e-01	4.331175e+13	1.181111e+14	3.909370e+13	5.818765e+03	3.492418e+03	2.884404e+03	0	3.989125e-04
8.700000e+08	1.386021e+12	0.000000e+00	6.021505e-01	4.270631e+13	1.171188e+14	3.891315e+13	5.805022e+03	3.487438e+03	2.880290e+03	0	3.969395e-04
8.800000e+08	1.365744e+12	0.000000e+00	6.021505e-01	4.211518e+13	1.161383e+14	3.873385e+13	5.791471e+03	3.482486e+03	2.876200e+03	0	3.949943e-04
8.900000e+08	1.345944e+12	0.000000e+00	6.021505e-01	4.153791e+13	1.151696e+14	3.855578e+13	5.778106e+03	3.477563e+03	2.872134e+03	0	3.930762e-04
9.000000e+08	1.326606e+12	0.000000e+00	6.021505e-01	4.097404e+13	1.142125e+14	3.837894e+13	5.764923e+03	3.472669e+03	2.868092e+03	0	3.911846e-04
9.100000e+08	1.307714e+12	0.000000e+00	6.021505e-01	4.042314e+13	1.132671e+14	3.820330e+13	5.751918e+03	3.467805e+03	2.864075e+03	0	3.893188e-04
9.200000e+08	1.289256e+12	0.000000e+00	6.021505e-01	3.988479e+13	1.123333e+14	3.802887e+13	5.739088e+03	3.462971e+03	2.860083e+03	0	3.874783e-04
9.300000e+08	1.271216e+12	0.000000e+00	6.021505e-01	3.935860e+13	1.114111e+14	3.785563e+13	5.726427e+03	3.458168e+03	2.856116e+03	0	3.856626e-04
9.400000e+08	1.253581e+12	0.000000e+00	6.021505e-01	3.884418e+13	1.105002e+14	3.768358e+13	5.713933e+03	3.453395e+03	2.852174e+03	0	3.838709e-04
9.500000e+08	1.236340e+12	0.000000e+00	6.021505e-01	3.834117e+13	1.096008e+14	3.751270e+13	5.701601e+03	3.448653e+03	2.848258e+03	0	3.821029e-04
9.600000e+08	1.219479e+12	0.000000e+00	6.021505e-01	3.784921e+13	1.087126e+14	3.734299e+13	5.689429e+03	3.443943e+03	2.844367e+03	0	3.803580e-04
9.700000e+08	1.202987e+12	0.000000e+00	6.021505e-01	3.736798e+13	1.078356e+14	3.717443e+13	5.677411e+03	3.439263e+03	2.840502e+03	0	3.786356e-04
9.800000e+08	1.186853e+12	0.000000e+00	6.021505e-01	3.689713e+13	1.069696e+14	3.700702e+13	5.665546e+03	3.434615e+03	2.836664e+03	0	3.769353e-04
9.900000e+08	1.171067e+12	0.000000e+00	6.021505e-01	3.643636e+13	1.061146e+14	3.684074e+13	5.653830e+03	3.429999e+03	2.832851e+03	0	3.752566e-04
1.000000e+09	1.155617e+12	0.000000e+00	6.021505e-01	3.598537e+13	1.052705e+14	3.667560e+13	5.642259e+03	3.425413e+03	2.829064e+03	0	3.735990e-04
1.010000e+09	1.140493e+12	0.000000e+00	6.021505e-01	3.554388e+13	1.044371e+14	3.651157e+13	5.630831e+03	3.420860e+03	2.825303e+03	0	3.719621e-04
1.020000e+09	1.125687e+12	0.000000e+00	6.021505e-01	3.511159e+13	1.036143e+14	3.634866e+13	5.619543e+03	3.416338e+03	2.821568e+03	0	3.703454e-04
1.030000e+09	1.111189e+12	0.000000e+00	6.021505e-01	3.468824e+13	1.028019e+14	3.618685e+13	5.608391e+03	3.411847e+03	2.817859e+03	0	3.687486e-04
1.040000e+09	1.096990e+12	0.000000e+00	6.021505e-01	3.427358e+13	1.020000e+14	3.602613e+13	5.597373e+03	3.407388e+03	2.814176e+03	0	3.671712e-04
1.050000e+09	1.083081e+12	0.000000e+00	6.021505e-01	3.386736e+13	1.012082e+14	3.586649e+13	5.586486e+03	3.402960e+03	2.810519e+03	0	3.656128e-04
1.060000e+09	1.069454e+12	0.000000e+00	6.021505e-01	3.346933e+13	1.004266e+14	3.570794e+13	5.575728e+03	3.398563e+03	2.806888e+03	0	3.640730e-04
1.070000e+09	1.056102e+12	0.000000e+00	6.021505e-01	3.307927e+13	9.965485e+13	3.555045e+13	5.565095e+03	3.394197e+03	2.803282e+03	0	3.625515e-04
1.080000e+09	1.043016e+12	0.000000e+00	6.021505e-01	3.269695e+13	9.889299e+13	3.539402e+13	5.554586e+03	3.389862e+03	2.799702e+03	0	3.610478e-04
1.090000e+09	1.030189e+12	0.000000e+00	6.021505e-01	3.232216e+13	9.814085e+13	3.523865e+13	5.544198e+03	3.385559e+03	2.796148e+03	0	3.595616e-04
1.100000e+09	1.017614e+12	0.000000e+00	6.021505e-01	3.195469e+13	9.739826e+13	3.508431e+13	5.533929e+03	3.381286e+03	2.792618e+03	0	3.580926e-04
1.110000e+09	1.005284e+12	0.000000e+00	6.021505e-01	3.159434e+13	9.666513e+13	3.493101e+13	5.523776e+03	3.377043e+03	2.789115e+03	0	3.566405e-04
1.120000e+09	9.931923e+11	0.000000e+00	6.021505e-01	3.124093e+13	9.594128e+13	3.477874e+13	5.513737e+03	3.372831e+03	2.785636e+03	0	3.552048e-04
1.130000e+09	9.813327e+11	0.000000e+00	6.021505e-01	3.089425e+13	9.522662e+13	3.462749e+13	5.503810e+03	3.368649e+03	2.782182e+03	0	3.537854e-04
1.140000e+09	9.696990e+11	0.000000e+00	6.021505e-01	3.055414e+13	9.452099e+13	3.447725e+13	5.493992e+03	3.364497e+03	2.778753e+03	0	3.523817e-04
1.150000e+09	9.582851e+11	0.000000e+00	6.021505e-01	3.022042e+13	9.382429e+13	3.432801e+13	5.484282e+03	3.360375e+03	2.775348e+03	0	3.509937e-04
1.160000e+09	9.470852e+11	0.000000e+00	6.021505e-01	2.989292e+13	9.313636e+13	3.417977e+13	5.474678e+03	3.356283e+03	2.771968e+03	0	3.496209e-04
1.170000e+09	9.360937e+11	0.000000e+00	6.021505e-01	2.957147e+13	9.245707e+13	3.403252e+13	5.465177e+03	3.352219e+03	2.768613e+03	0	3.482632e-04
1.180000e+09	9.253052e+11	0.000000e+00	6.021505e-01	2.925593e+13	9.178632e+13	3.388624e+13	5.455779e+03	3.348185e+03	2.765281e+03	0	3.469201e-04
1.190000e+09	9.147146e+11	0.000000e+00	6.021505e-01	2.894614e+13	9.112395e+13	3.374094e+13	5.446480e+03	3.344181e+03	2.761973e+03	0	3.455914e-04
1.200000e+09	9.043166e+11	0.000000e+00	6.021505e-01	2.864196e+13	9.046985e+13	3.359660e+13	5.437279e+03	3.340204e+03	2.758689e+03	0	3.442769e-04
1.210000e+09	8.941065e+11	0.000000e+00	6.021505e-01	2.834324e+13	8.982391e+13	3.345322e+13	5.428174e+03	3.336257e+03	2.755429e+03	0	3.429763e-04
1.220000e+09	8.840795e+11	0.000000e+00	6.021505e-01	2.804984e+13	8.918595e+13	3.331079e+13	5.419165e+03	3.332337e+03	2.752192e+03	0	3.416894e-04
1.230000e+09	8.742310e+11	0.000000e+00	6.021505e-01	2.776163e+13	8.855593e+13	3.316930e+13	5.410248e+03	3.328446e+03	2.748978e+03	0	3.404159e-04
1.240000e+09	8.645566e+11	0.000000e+00	6.021505e-01	2.747849e+13	8.793365e+13	3.302875e+13	5.401422e+03	3.324582e+03	2.745787e+03	0	3.391555e-04
1.250000e+09	8.550520e+11	0.000000e+00	6.021505e-01	2.720028e+13	8.731904e+13	3.288912e+13	5.392686e+03	3.320746e+03	2.742618e+03	0	3.379081e-04
1.260000e+09	8.457131e+11	0.000000e+00	6.021505e-01	2.692690e+13	8.671198e+13	3.275041e+13	5.384038e+03	3.316937e+03	2.739473e+03	0	3.366734e-04
1.270000e+09	8.365357e+11	0.000000e+00	6.021505e-01	2.665821e+13	8.611234e+13	3.261262e+13	5.375477e+03	3.313155e+03	2.736349e+03	0	3.354511e-04
1.280000e+09	8.275161e+11	0.000000e+00	6.021505e-01	2.639412e+13	8.551998e+13	3.247574e+13	5.367001e+03	3.309400e+03	2.733248e+03	0	3.342411e-04
1.290000e+09	8.186504e+11	0.000000e+00	6.021505e-01	2.613450e+13	8.493482e+13	3.233975e+13	5.358608e+03	3.305672e+03	2.730169e+03	0	3.330432e-04
1.300000e+09	8.099349e+11	0.000000e+00	6.021505e-01	2.587925e+13	8.435675e+13	3.220466e+13	5.350298e+03	3.301970e+03	2.727111e+03	0	3.318571e-04
1.310000e+09	8.013662e+11	0.000000e+00	6.021505e-01	2.562827e+13	8.378565e+13	3.207045e+13	5.342069e+03	3.298293e+03	2.724075e+03	0	3.306827e-04
1.320000e+09	7.929407e+11	0.000000e+00	6.021505e-01	2.538146e+13	8.322140e+13	3.193712e+13	5.333919e+03	3.294643e+03	2.721060e+03	0	3.295196e-04
1.330000e+09	7.846551e+11	0.000000e+00	6.021505e-01	2.513872e+13	8.266391e+13	3.180467e+13	5.325847e+03	3.291018e+03	2.718066e+03	0	3.283679e-04
1.340000e+09	7.765062e+11	0.000000e+00	6.021505e-01	2.489996e+13	8.211307e+13	3.167308e+13	5.317853e+03	3.287419e+03	2.715094e+03	0	3.272272e-04
1.350000e+09	7.684907e+11	0.000000e+00	6.021505e-01	2.466509e+13	8.156875e+13	3.154235e+13	5.309934e+03	3.283845e+03	2.712142e+03	0	3.260974e-04
1.360000e+09	7.606058e+11	0.000000e+00	6.021505e-01	2.443401e+13	8.103091e+13	3.141247e+13	5.302089e+03	3.280295e+03	2.709210e+03	0	3.249782e-04
