#t		Qconv[W]	Ri[Rp]		R*[Rp]		Qc[W]		Qm[W]		Qr[W]		Tcmb[K]		Tl[K]		Tup[K]		RiFlag		Bs[T]
0.000000e+00	2.279311e+14	0.000000e+00	5.913979e-01	5.065240e+15	3.758107e+13	9.492680e+13	1.873692e+04	3.437705e+03	2.545445e+03	0	2.141835e-03
1.000000e+07	1.949780e+14	0.000000e+00	5.913979e-01	4.334850e+15	8.939701e+13	9.440084e+13	1.778396e+04	3.920524e+03	2.902948e+03	0	2.033200e-03
2.000000e+07	1.682771e+14	0.000000e+00	5.913979e-01	3.742984e+15	1.645024e+14	9.387881e+13	1.696135e+04	4.328124e+03	3.204755e+03	0	1.935797e-03
3.000000e+07	1.463863e+14	0.000000e+00	5.913979e-01	3.257696e+15	2.575884e+14	9.336068e+13	1.624583e+04	4.671636e+03	3.459108e+03	0	1.847928e-03
4.000000e+07	1.282593e+14	0.000000e+00	5.913979e-01	2.855807e+15	3.614538e+14	9.284642e+13	1.561914e+04	4.959776e+03	3.672461e+03	0	1.768267e-03
5.000000e+07	1.131219e+14	0.000000e+00	5.913979e-01	2.520170e+15	4.688162e+14	9.233599e+13	1.506675e+04	5.199764e+03	3.850160e+03	0	1.695771e-03
6.000000e+07	1.003897e+14	0.000000e+00	5.913979e-01	2.237834e+15	5.734010e+14	9.182937e+13	1.457696e+04	5.397843e+03	3.996828e+03	0	1.629601e-03
7.000000e+07	8.961235e+13	0.000000e+00	5.913979e-01	1.998823e+15	6.704464e+14	9.132652e+13	1.414021e+04	5.559560e+03	4.116571e+03	0	1.569065e-03
8.000000e+07	8.043695e+13	0.000000e+00	5.913979e-01	1.795317e+15	7.567966e+14	9.082742e+13	1.374866e+04	5.689891e+03	4.213074e+03	0	1.513573e-03
9.000000e+07	7.258294e+13	0.000000e+00	5.913979e-01	1.621100e+15	8.307430e+14	9.033202e+13	1.339581e+04	5.793298e+03	4.289642e+03	0	1.462614e-03
1.000000e+08	6.582482e+13	0.000000e+00	5.913979e-01	1.471174e+15	8.917396e+14	8.984030e+13	1.307626e+04	5.873766e+03	4.349224e+03	0	1.415733e-03
1.100000e+08	5.997989e+13	0.000000e+00	5.913979e-01	1.341491e+15	9.400889e+14	8.935223e+13	1.278549e+04	5.934810e+03	4.394424e+03	0	1.372525e-03
1.200000e+08	5.489923e+13	0.000000e+00	5.913979e-01	1.228751e+15	9.766523e+14	8.886778e+13	1.251972e+04	5.979508e+03	4.427521e+03	0	1.332622e-03
1.300000e+08	5.046089e+13	0.000000e+00	5.913979e-01	1.130251e+15	1.002612e+15	8.838691e+13	1.227575e+04	6.010528e+03	4.450490e+03	0	1.295696e-03
1.400000e+08	4.656466e+13	0.000000e+00	5.913979e-01	1.043771e+15	1.019293e+15	8.790961e+13	1.205090e+04	6.030161e+03	4.465027e+03	0	1.261451e-03
1.500000e+08	4.312790e+13	0.000000e+00	5.913979e-01	9.674780e+14	1.028036e+15	8.743583e+13	1.184288e+04	6.040361e+03	4.472579e+03	0	1.229620e-03
1.600000e+08	4.008226e+13	0.000000e+00	5.913979e-01	8.998580e+14	1.030121e+15	8.696555e+13	1.164974e+04	6.042783e+03	4.474373e+03	0	1.199966e-03
1.700000e+08	3.737099e+13	0.000000e+00	5.913979e-01	8.396533e+14	1.026716e+15	8.649874e+13	1.146983e+04	6.038825e+03	4.471441e+03	0	1.172276e-03
1.800000e+08	3.494687e+13	0.000000e+00	5.913979e-01	7.858169e+14	1.018863e+15	8.603538e+13	1.130172e+04	6.029658e+03	4.464654e+03	0	1.146360e-03
1.900000e+08	3.277043e+13	0.000000e+00	5.913979e-01	7.374738e+14	1.007464e+15	8.557542e+13	1.114418e+04	6.016263e+03	4.454736e+03	0	1.122050e-03
2.000000e+08	3.080856e+13	0.000000e+00	5.913979e-01	6.938904e+14	9.932942e+14	8.511885e+13	1.099616e+04	5.999461e+03	4.442295e+03	0	1.099197e-03
2.100000e+08	2.903341e+13	0.000000e+00	5.913979e-01	6.544488e+14	9.770036e+14	8.466564e+13	1.085672e+04	5.979932e+03	4.427835e+03	0	1.077666e-03
2.200000e+08	2.742141e+13	0.000000e+00	5.913979e-01	6.186268e+14	9.591350e+14	8.421576e+13	1.072508e+04	5.958245e+03	4.411776e+03	0	1.057340e-03
2.300000e+08	2.595257e+13	0.000000e+00	5.913979e-01	5.859812e+14	9.401365e+14	8.376918e+13	1.060051e+04	5.934869e+03	4.394468e+03	0	1.038114e-03
2.400000e+08	2.460988e+13	0.000000e+00	5.913979e-01	5.561344e+14	9.203754e+14	8.332587e+13	1.048242e+04	5.910196e+03	4.376198e+03	0	1.019893e-03
2.500000e+08	2.337875e+13	0.000000e+00	5.913979e-01	5.287634e+14	9.001480e+14	8.288581e+13	1.037024e+04	5.884548e+03	4.357207e+03	0	1.002594e-03
2.600000e+08	2.224667e+13	0.000000e+00	5.913979e-01	5.035906e+14	8.796944e+14	8.244897e+13	1.026349e+04	5.858193e+03	4.337693e+03	0	9.861430e-04
2.700000e+08	2.120284e+13	0.000000e+00	5.913979e-01	4.803767e+14	8.592051e+14	8.201532e+13	1.016175e+04	5.831352e+03	4.317818e+03	0	9.704718e-04
2.800000e+08	2.023793e+13	0.000000e+00	5.913979e-01	4.589143e+14	8.388317e+14	8.158484e+13	1.006463e+04	5.804206e+03	4.297718e+03	0	9.555211e-04
2.900000e+08	1.934381e+13	0.000000e+00	5.913979e-01	4.390235e+14	8.186908e+14	8.115751e+13	9.971787e+03	5.776905e+03	4.277503e+03	0	9.412368e-04
3.000000e+08	1.851340e+13	0.000000e+00	5.913979e-01	4.205469e+14	7.988737e+14	8.073328e+13	9.882909e+03	5.749571e+03	4.257264e+03	0	9.275705e-04
3.100000e+08	1.774049e+13	0.000000e+00	5.913979e-01	4.033472e+14	7.794491e+14	8.031215e+13	9.797720e+03	5.722306e+03	4.237076e+03	0	9.144783e-04
3.200000e+08	1.701964e+13	0.000000e+00	5.913979e-01	3.873033e+14	7.604675e+14	7.989408e+13	9.715967e+03	5.695190e+03	4.216998e+03	0	9.019206e-04
3.300000e+08	1.634604e+13	0.000000e+00	5.913979e-01	3.723088e+14	7.419652e+14	7.947906e+13	9.637423e+03	5.668290e+03	4.197079e+03	0	8.898614e-04
3.400000e+08	1.571544e+13	0.000000e+00	5.913979e-01	3.582694e+14	7.239665e+14	7.906704e+13	9.561879e+03	5.641658e+03	4.177360e+03	0	8.782681e-04
3.500000e+08	1.512408e+13	0.000000e+00	5.913979e-01	3.451016e+14	7.064869e+14	7.865802e+13	9.489148e+03	5.615337e+03	4.157871e+03	0	8.671108e-04
3.600000e+08	1.456861e+13	0.000000e+00	5.913979e-01	3.327307e+14	6.895338e+14	7.825196e+13	9.419057e+03	5.589361e+03	4.138636e+03	0	8.563624e-04
3.700000e+08	1.404603e+13	0.000000e+00	5.913979e-01	3.210906e+14	6.731092e+14	7.784884e+13	9.351447e+03	5.563754e+03	4.119676e+03	0	8.459981e-04
3.800000e+08	1.355366e+13	0.000000e+00	5.913979e-01	3.101218e+14	6.572102e+14	7.744864e+13	9.286175e+03	5.538537e+03	4.101004e+03	0	8.359951e-04
3.900000e+08	1.308910e+13	0.000000e+00	5.913979e-01	2.997709e+14	6.418303e+14	7.705133e+13	9.223105e+03	5.513725e+03	4.082632e+03	0	8.263324e-04
4.000000e+08	1.265019e+13	0.000000e+00	5.913979e-01	2.899899e+14	6.269603e+14	7.665689e+13	9.162117e+03	5.489326e+03	4.064566e+03	0	8.169909e-04
4.100000e+08	1.223498e+13	0.000000e+00	5.913979e-01	2.807357e+14	6.125890e+14	7.626530e+13	9.103095e+03	5.465348e+03	4.046811e+03	0	8.079528e-04
4.200000e+08	1.184171e+13	0.000000e+00	5.913979e-01	2.719691e+14	5.987038e+14	7.587653e+13	9.045937e+03	5.441794e+03	4.029371e+03	0	7.992016e-04
4.300000e+08	1.146878e+13	0.000000e+00	5.913979e-01	2.636546e+14	5.852906e+14	7.549055e+13	8.990543e+03	5.418665e+03	4.012245e+03	0	7.907223e-04
4.400000e+08	1.111475e+13	0.000000e+00	5.913979e-01	2.557602e+14	5.723348e+14	7.510736e+13	8.936825e+03	5.395961e+03	3.995434e+03	0	7.825008e-04
4.500000e+08	1.077829e+13	0.000000e+00	5.913979e-01	2.482565e+14	5.598214e+14	7.472692e+13	8.884698e+03	5.373679e+03	3.978935e+03	0	7.745240e-04
4.600000e+08	1.045821e+13	0.000000e+00	5.913979e-01	2.411168e+14	5.477352e+14	7.434920e+13	8.834085e+03	5.351814e+03	3.962745e+03	0	7.667797e-04
4.700000e+08	1.015340e+13	0.000000e+00	5.913979e-01	2.343168e+14	5.360607e+14	7.397420e+13	8.784913e+03	5.330362e+03	3.946861e+03	0	7.592568e-04
4.800000e+08	9.862861e+12	0.000000e+00	5.913979e-01	2.278342e+14	5.247829e+14	7.360189e+13	8.737113e+03	5.309318e+03	3.931279e+03	0	7.519446e-04
4.900000e+08	9.585676e+12	0.000000e+00	5.913979e-01	2.216485e+14	5.138870e+14	7.323224e+13	8.690623e+03	5.288674e+03	3.915993e+03	0	7.448334e-04
5.000000e+08	9.320996e+12	0.000000e+00	5.913979e-01	2.157410e+14	5.033582e+14	7.286523e+13	8.645383e+03	5.268423e+03	3.900998e+03	0	7.379139e-04
5.100000e+08	9.068045e+12	0.000000e+00	5.913979e-01	2.100943e+14	4.931819e+14	7.250085e+13	8.601337e+03	5.248559e+03	3.886290e+03	0	7.311775e-04
5.200000e+08	8.826107e+12	0.000000e+00	5.913979e-01	2.046927e+14	4.833447e+14	7.213907e+13	8.558434e+03	5.229072e+03	3.871861e+03	0	7.246161e-04
5.300000e+08	8.594520e+12	0.000000e+00	5.913979e-01	1.995213e+14	4.738325e+14	7.177986e+13	8.516623e+03	5.209956e+03	3.857707e+03	0	7.182221e-04
5.400000e+08	8.372674e+12	0.000000e+00	5.913979e-01	1.945667e+14	4.646328e+14	7.142322e+13	8.475858e+03	5.191202e+03	3.843820e+03	0	7.119885e-04
5.500000e+08	8.160005e+12	0.000000e+00	5.913979e-01	1.898163e+14	4.557326e+14	7.106911e+13	8.436098e+03	5.172802e+03	3.830196e+03	0	7.059084e-04
5.600000e+08	7.955990e+12	0.000000e+00	5.913979e-01	1.852585e+14	4.471203e+14	7.071752e+13	8.397299e+03	5.154748e+03	3.816828e+03	0	6.999757e-04
5.700000e+08	7.760142e+12	0.000000e+00	5.913979e-01	1.808825e+14	4.387839e+14	7.036843e+13	8.359424e+03	5.137031e+03	3.803709e+03	0	6.941843e-04
5.800000e+08	7.572012e+12	0.000000e+00	5.913979e-01	1.766782e+14	4.307125e+14	7.002181e+13	8.322436e+03	5.119644e+03	3.790835e+03	0	6.885286e-04
5.900000e+08	7.391181e+12	0.000000e+00	5.913979e-01	1.726364e+14	4.228951e+14	6.967765e+13	8.286300e+03	5.102577e+03	3.778198e+03	0	6.830034e-04
6.000000e+08	7.217257e+12	0.000000e+00	5.913979e-01	1.687484e+14	4.153218e+14	6.933593e+13	8.250984e+03	5.085825e+03	3.765794e+03	0	6.776035e-04
6.100000e+08	7.049877e+12	0.000000e+00	5.913979e-01	1.650061e+14	4.079826e+14	6.899662e+13	8.216457e+03	5.069377e+03	3.753615e+03	0	6.723242e-04
6.200000e+08	6.888701e+12	0.000000e+00	5.913979e-01	1.614020e+14	4.008682e+14	6.865972e+13	8.182690e+03	5.053227e+03	3.741657e+03	0	6.671610e-04
6.300000e+08	6.733413e+12	0.000000e+00	5.913979e-01	1.579289e+14	3.939697e+14	6.832519e+13	8.149654e+03	5.037368e+03	3.729914e+03	0	6.621098e-04
6.400000e+08	6.583716e+12	0.000000e+00	5.913979e-01	1.545804e+14	3.872783e+14	6.799302e+13	8.117324e+03	5.021792e+03	3.718380e+03	0	6.571663e-04
6.500000e+08	6.439332e+12	0.000000e+00	5.913979e-01	1.513502e+14	3.807862e+14	6.766319e+13	8.085673e+03	5.006491e+03	3.707051e+03	0	6.523267e-04
6.600000e+08	6.300001e+12	0.000000e+00	5.913979e-01	1.482325e+14	3.744852e+14	6.733568e+13	8.054680e+03	4.991458e+03	3.695920e+03	0	6.475875e-04
6.700000e+08	6.165479e+12	0.000000e+00	5.913979e-01	1.452220e+14	3.683682e+14	6.701047e+13	8.024319e+03	4.976688e+03	3.684983e+03	0	6.429450e-04
6.800000e+08	6.035538e+12	0.000000e+00	5.913979e-01	1.423135e+14	3.624276e+14	6.668755e+13	7.994571e+03	4.962172e+03	3.674235e+03	0	6.383961e-04
6.900000e+08	5.909961e+12	0.000000e+00	5.913979e-01	1.395023e+14	3.566570e+14	6.636689e+13	7.965414e+03	4.947905e+03	3.663671e+03	0	6.339375e-04
7.000000e+08	5.788547e+12	0.000000e+00	5.913979e-01	1.367839e+14	3.510497e+14	6.604848e+13	7.936829e+03	4.933880e+03	3.653286e+03	0	6.295662e-04
7.100000e+08	5.671105e+12	0.000000e+00	5.913979e-01	1.341539e+14	3.455996e+14	6.573230e+13	7.908798e+03	4.920091e+03	3.643076e+03	0	6.252794e-04
7.200000e+08	5.557456e+12	0.000000e+00	5.913979e-01	1.316085e+14	3.403006e+14	6.541833e+13	7.881301e+03	4.906532e+03	3.633036e+03	0	6.210743e-04
7.300000e+08	5.447431e+12	0.000000e+00	5.913979e-01	1.291439e+14	3.351472e+14	6.510655e+13	7.854322e+03	4.893197e+03	3.623162e+03	0	6.169483e-04
7.400000e+08	5.340870e+12	0.000000e+00	5.913979e-01	1.267565e+14	3.301339e+14	6.479695e+13	7.827845e+03	4.880080e+03	3.613450e+03	0	6.128990e-04
7.500000e+08	5.237622e+12	0.000000e+00	5.913979e-01	1.244429e+14	3.252555e+14	6.448951e+13	7.801855e+03	4.867177e+03	3.603896e+03	0	6.089238e-04
7.600000e+08	5.137546e+12	0.000000e+00	5.913979e-01	1.222001e+14	3.205071e+14	6.418421e+13	7.776335e+03	4.854481e+03	3.594495e+03	0	6.050206e-04
7.700000e+08	5.040507e+12	0.000000e+00	5.913979e-01	1.200250e+14	3.158840e+14	6.388104e+13	7.751272e+03	4.841987e+03	3.585245e+03	0	6.011871e-04
7.800000e+08	4.946378e+12	0.000000e+00	5.913979e-01	1.179147e+14	3.113815e+14	6.357997e+13	7.726653e+03	4.829691e+03	3.576140e+03	0	5.974212e-04
7.900000e+08	4.855037e+12	0.000000e+00	5.913979e-01	1.158667e+14	3.069955e+14	6.328099e+13	7.702464e+03	4.817588e+03	3.567178e+03	0	5.937210e-04
8.000000e+08	4.766371e+12	0.000000e+00	5.913979e-01	1.138783e+14	3.027218e+14	6.298409e+13	7.678692e+03	4.805672e+03	3.558355e+03	0	5.900845e-04
8.100000e+08	4.680272e+12	0.000000e+00	5.913979e-01	1.119471e+14	2.985563e+14	6.268924e+13	7.655325e+03	4.793940e+03	3.549668e+03	0	5.865098e-04
8.200000e+08	4.596637e+12	0.000000e+00	5.913979e-01	1.100710e+14	2.944954e+14	6.239644e+13	7.632352e+03	4.782386e+03	3.541113e+03	0	5.829952e-04
8.300000e+08	4.515369e+12	0.000000e+00	5.913979e-01	1.082476e+14	2.905354e+14	6.210566e+13	7.609762e+03	4.771006e+03	3.532687e+03	0	5.795390e-04
8.400000e+08	4.436374e+12	0.000000e+00	5.913979e-01	1.064750e+14	2.866727e+14	6.181688e+13	7.587544e+03	4.759797e+03	3.524387e+03	0	5.761395e-04
8.500000e+08	4.359566e+12	0.000000e+00	5.913979e-01	1.047511e+14	2.829042e+14	6.153010e+13	7.565687e+03	4.748754e+03	3.516210e+03	0	5.727951e-04
8.600000e+08	4.284860e+12	0.000000e+00	5.913979e-01	1.030741e+14	2.792266e+14	6.124530e+13	7.544182e+03	4.737873e+03	3.508153e+03	0	5.695044e-04
8.700000e+08	4.212176e+12	0.000000e+00	5.913979e-01	1.014423e+14	2.756368e+14	6.096246e+13	7.523020e+03	4.727151e+03	3.500214e+03	0	5.662659e-04
8.800000e+08	4.141440e+12	0.000000e+00	5.913979e-01	9.985399e+13	2.721320e+14	6.068156e+13	7.502190e+03	4.716583e+03	3.492389e+03	0	5.630782e-04
8.900000e+08	4.072578e+12	0.000000e+00	5.913979e-01	9.830750e+13	2.687092e+14	6.040259e+13	7.481685e+03	4.706166e+03	3.484676e+03	0	5.599399e-04
9.000000e+08	4.005523e+12	0.000000e+00	5.913979e-01	9.680132e+13	2.653659e+14	6.012554e+13	7.461495e+03	4.695897e+03	3.477072e+03	0	5.568497e-04
9.100000e+08	3.940208e+12	0.000000e+00	5.913979e-01	9.533401e+13	2.620995e+14	5.985039e+13	7.441613e+03	4.685772e+03	3.469575e+03	0	5.538064e-04
9.200000e+08	3.876572e+12	0.000000e+00	5.913979e-01	9.390416e+13	2.589075e+14	5.957712e+13	7.422031e+03	4.675788e+03	3.462182e+03	0	5.508088e-04
9.300000e+08	3.814554e+12	0.000000e+00	5.913979e-01	9.251046e+13	2.557874e+14	5.930572e+13	7.402741e+03	4.665941e+03	3.454891e+03	0	5.478556e-04
9.400000e+08	3.754097e+12	0.000000e+00	5.913979e-01	9.115162e+13	2.527370e+14	5.903617e+13	7.383736e+03	4.656229e+03	3.447700e+03	0	5.449459e-04
9.500000e+08	3.695147e+12	0.000000e+00	5.913979e-01	8.982644e+13	2.497542e+14	5.876847e+13	7.365008e+03	4.646649e+03	3.440606e+03	0	5.420785e-04
9.600000e+08	3.637653e+12	0.000000e+00	5.913979e-01	8.853377e+13	2.468367e+14	5.850259e+13	7.346551e+03	4.637197e+03	3.433607e+03	0	5.392523e-04
9.700000e+08	3.581563e+12	0.000000e+00	5.913979e-01	8.727248e+13	2.439827e+14	5.823852e+13	7.328358e+03	4.627870e+03	3.426702e+03	0	5.364663e-04
9.800000e+08	3.526832e+12	0.000000e+00	5.913979e-01	8.604153e+13	2.411901e+14	5.797625e+13	7.310423e+03	4.618667e+03	3.419887e+03	0	5.337196e-04
9.900000e+08	3.473413e+12	0.000000e+00	5.913979e-01	8.483989e+13	2.384570e+14	5.771576e+13	7.292740e+03	4.609584e+03	3.413162e+03	0	5.310112e-04
1.000000e+09	3.421262e+12	0.000000e+00	5.913979e-01	8.366661e+13	2.357818e+14	5.745704e+13	7.275302e+03	4.600618e+03	3.406523e+03	0	5.283402e-04
1.010000e+09	3.370338e+12	0.000000e+00	5.913979e-01	8.252074e+13	2.331626e+14	5.720007e+13	7.258104e+03	4.591768e+03	3.399970e+03	0	5.257057e-04
1.020000e+09	3.320601e+12	0.000000e+00	5.913979e-01	8.140139e+13	2.305978e+14	5.694484e+13	7.241141e+03	4.583031e+03	3.393500e+03	0	5.231069e-04
1.030000e+09	3.272013e+12	0.000000e+00	5.913979e-01	8.030772e+13	2.280857e+14	5.669135e+13	7.224406e+03	4.574403e+03	3.387112e+03	0	5.205430e-04
1.040000e+09	3.224537e+12	0.000000e+00	5.913979e-01	7.923890e+13	2.256249e+14	5.643956e+13	7.207895e+03	4.565884e+03	3.380804e+03	0	5.180130e-04
1.050000e+09	3.178137e+12	0.000000e+00	5.913979e-01	7.819415e+13	2.232137e+14	5.618948e+13	7.191603e+03	4.557470e+03	3.374574e+03	0	5.155163e-04
1.060000e+09	3.132780e+12	0.000000e+00	5.913979e-01	7.717270e+13	2.208509e+14	5.594108e+13	7.175525e+03	4.549160e+03	3.368421e+03	0	5.130522e-04
1.070000e+09	3.088433e+12	0.000000e+00	5.913979e-01	7.617385e+13	2.185349e+14	5.569435e+13	7.159656e+03	4.540951e+03	3.362342e+03	0	5.106198e-04
1.080000e+09	3.045065e+12	0.000000e+00	5.913979e-01	7.519689e+13	2.162647e+14	5.544929e+13	7.143991e+03	4.532841e+03	3.356338e+03	0	5.082184e-04
1.090000e+09	3.002646e+12	0.000000e+00	5.913979e-01	7.424115e+13	2.140387e+14	5.520587e+13	7.128526e+03	4.524829e+03	3.350405e+03	0	5.058475e-04
1.100000e+09	2.961148e+12	0.000000e+00	5.913979e-01	7.330599e+13	2.118557e+14	5.496409e+13	7.113256e+03	4.516911e+03	3.344542e+03	0	5.035063e-04
1.110000e+09	2.920542e+12	0.000000e+00	5.913979e-01	7.239080e+13	2.097147e+14	5.472393e+13	7.098178e+03	4.509088e+03	3.338749e+03	0	5.011942e-04
1.120000e+09	2.880802e+12	0.000000e+00	5.913979e-01	7.149498e+13	2.076144e+14	5.448537e+13	7.083288e+03	4.501355e+03	3.333024e+03	0	4.989105e-04
1.130000e+09	2.841902e+12	0.000000e+00	5.913979e-01	7.061796e+13	2.055537e+14	5.424842e+13	7.068581e+03	4.493712e+03	3.327365e+03	0	4.966548e-04
1.140000e+09	2.803818e+12	0.000000e+00	5.913979e-01	6.975918e+13	2.035316e+14	5.401305e+13	7.054053e+03	4.486157e+03	3.321771e+03	0	4.944262e-04
1.150000e+09	2.766526e+12	0.000000e+00	5.913979e-01	6.891813e+13	2.015469e+14	5.377925e+13	7.039701e+03	4.478689e+03	3.316240e+03	0	4.922244e-04
1.160000e+09	2.730003e+12	0.000000e+00	5.913979e-01	6.809429e+13	1.995988e+14	5.354700e+13	7.025522e+03	4.471304e+03	3.310773e+03	0	4.900487e-04
1.170000e+09	2.694227e+12	0.000000e+00	5.913979e-01	6.728716e+13	1.976862e+14	5.331631e+13	7.011511e+03	4.464003e+03	3.305366e+03	0	4.878987e-04
1.180000e+09	2.659177e+12	0.000000e+00	5.913979e-01	6.649628e+13	1.958082e+14	5.308715e+13	6.997666e+03	4.456783e+03	3.300020e+03	0	4.857737e-04
1.190000e+09	2.624832e+12	0.000000e+00	5.913979e-01	6.572120e+13	1.939639e+14	5.285952e+13	6.983983e+03	4.449642e+03	3.294733e+03	0	4.836733e-04
1.200000e+09	2.591173e+12	0.000000e+00	5.913979e-01	6.496146e+13	1.921524e+14	5.263339e+13	6.970458e+03	4.442580e+03	3.289504e+03	0	4.815969e-04
1.210000e+09	2.558181e+12	0.000000e+00	5.913979e-01	6.421664e+13	1.903730e+14	5.240877e+13	6.957089e+03	4.435595e+03	3.284331e+03	0	4.795442e-04
1.220000e+09	2.525837e+12	0.000000e+00	5.913979e-01	6.348635e+13	1.886247e+14	5.218563e+13	6.943873e+03	4.428684e+03	3.279215e+03	0	4.775146e-04
1.230000e+09	2.494124e+12	0.000000e+00	5.913979e-01	6.277017e+13	1.869068e+14	5.196397e+13	6.930807e+03	4.421848e+03	3.274153e+03	0	4.755077e-04
1.240000e+09	2.463024e+12	0.000000e+00	5.913979e-01	6.206774e+13	1.852185e+14	5.174378e+13	6.917887e+03	4.415084e+03	3.269144e+03	0	4.735231e-04
1.250000e+09	2.432522e+12	0.000000e+00	5.913979e-01	6.137868e+13	1.835591e+14	5.152503e+13	6.905111e+03	4.408391e+03	3.264189e+03	0	4.715602e-04
1.260000e+09	2.402600e+12	0.000000e+00	5.913979e-01	6.070263e+13	1.819278e+14	5.130774e+13	6.892476e+03	4.401769e+03	3.259285e+03	0	4.696187e-04
1.270000e+09	2.373245e+12	0.000000e+00	5.913979e-01	6.003926e+13	1.803241e+14	5.109187e+13	6.879981e+03	4.395214e+03	3.254432e+03	0	4.676982e-04
1.280000e+09	2.344440e+12	0.000000e+00	5.913979e-01	5.938823e+13	1.787472e+14	5.087742e+13	6.867621e+03	4.388728e+03	3.249629e+03	0	4.657983e-04
1.290000e+09	2.316172e+12	0.000000e+00	5.913979e-01	5.874923e+13	1.771963e+14	5.066438e+13	6.855394e+03	4.382307e+03	3.244875e+03	0	4.639186e-04
1.300000e+09	2.288426e+12	0.000000e+00	5.913979e-01	5.812193e+13	1.756711e+14	5.045274e+13	6.843299e+03	4.375951e+03	3.240169e+03	0	4.620587e-04
1.310000e+09	2.261190e+12	0.000000e+00	5.913979e-01	5.750604e+13	1.741707e+14	5.024249e+13	6.831332e+03	4.369660e+03	3.235510e+03	0	4.602183e-04
1.320000e+09	2.234450e+12	0.000000e+00	5.913979e-01	5.690128e+13	1.726946e+14	5.003361e+13	6.819491e+03	4.363431e+03	3.230898e+03	0	4.583970e-04
1.330000e+09	2.208193e+12	0.000000e+00	5.913979e-01	5.630735e+13	1.712423e+14	4.982610e+13	6.807775e+03	4.357263e+03	3.226331e+03	0	4.565944e-04
1.340000e+09	2.182408e+12	0.000000e+00	5.913979e-01	5.572399e+13	1.698132e+14	4.961995e+13	6.796180e+03	4.351157e+03	3.221809e+03	0	4.548102e-04
1.350000e+09	2.157083e+12	0.000000e+00	5.913979e-01	5.515094e+13	1.684067e+14	4.941514e+13	6.784705e+03	4.345110e+03	3.217332e+03	0	4.530441e-04
1.360000e+09	2.132206e+12	0.000000e+00	5.913979e-01	5.458794e+13	1.670224e+14	4.921167e+13	6.773348e+03	4.339121e+03	3.212898e+03	0	4.512958e-04
