#t		Qconv[W]	Ri[Rp]		R*[Rp]		Qc[W]		Qm[W]		Qr[W]		Tcmb[K]		Tl[K]		Tup[K]		RiFlag		Bs[T]
0.000000e+00	1.012903e+14	0.000000e+00	5.934065e-01	1.997464e+15	3.324078e+13	1.142487e+14	1.624292e+04	3.451820e+03	2.680122e+03	0	1.630391e-03
1.000000e+07	9.508461e+13	0.000000e+00	5.934065e-01	1.876245e+15	4.574684e+13	1.136157e+14	1.592656e+04	3.612402e+03	2.804804e+03	0	1.596391e-03
2.000000e+07	8.940639e+13	0.000000e+00	5.934065e-01	1.765314e+15	6.043263e+13	1.129874e+14	1.562888e+04	3.762488e+03	2.921336e+03	0	1.563959e-03
3.000000e+07	8.419614e+13	0.000000e+00	5.934065e-01	1.663513e+15	7.716853e+13	1.123638e+14	1.534835e+04	3.902711e+03	3.030211e+03	0	1.532969e-03
4.000000e+07	7.940287e+13	0.000000e+00	5.934065e-01	1.569848e+15	9.576490e+13	1.117449e+14	1.508360e+04	4.033627e+03	3.131859e+03	0	1.503308e-03
5.000000e+07	7.498274e+13	0.000000e+00	5.934065e-01	1.483464e+15	1.159858e+14	1.111306e+14	1.483341e+04	4.155731e+03	3.226665e+03	0	1.474879e-03
6.000000e+07	7.089783e+13	0.000000e+00	5.934065e-01	1.403622e+15	1.375625e+14	1.105208e+14	1.459668e+04	4.269473e+03	3.314978e+03	0	1.447594e-03
7.000000e+07	6.711526e+13	0.000000e+00	5.934065e-01	1.329681e+15	1.602063e+14	1.099156e+14	1.437241e+04	4.375265e+03	3.397119e+03	0	1.421378e-03
8.000000e+07	6.360637e+13	0.000000e+00	5.934065e-01	1.261082e+15	1.836194e+14	1.093149e+14	1.415971e+04	4.473494e+03	3.473387e+03	0	1.396163e-03
9.000000e+07	6.034605e+13	0.000000e+00	5.934065e-01	1.197335e+15	2.075056e+14	1.087187e+14	1.395776e+04	4.564526e+03	3.544068e+03	0	1.371888e-03
1.000000e+08	5.731221e+13	0.000000e+00	5.934065e-01	1.138009e+15	2.315786e+14	1.081269e+14	1.376582e+04	4.648711e+03	3.609433e+03	0	1.348502e-03
1.100000e+08	5.448530e+13	0.000000e+00	5.934065e-01	1.082724e+15	2.555687e+14	1.075395e+14	1.358322e+04	4.726390e+03	3.669746e+03	0	1.325955e-03
1.200000e+08	5.184795e+13	0.000000e+00	5.934065e-01	1.031139e+15	2.792284e+14	1.069564e+14	1.340932e+04	4.797891e+03	3.725262e+03	0	1.304207e-03
1.300000e+08	4.938465e+13	0.000000e+00	5.934065e-01	9.829536e+14	3.023363e+14	1.063777e+14	1.324357e+04	4.863536e+03	3.776231e+03	0	1.283216e-03
1.400000e+08	4.708148e+13	0.000000e+00	5.934065e-01	9.378949e+14	3.246992e+14	1.058032e+14	1.308543e+04	4.923639e+03	3.822897e+03	0	1.262949e-03
1.500000e+08	4.492591e+13	0.000000e+00	5.934065e-01	8.957185e+14	3.461533e+14	1.052330e+14	1.293443e+04	4.978507e+03	3.865499e+03	0	1.243373e-03
1.600000e+08	4.290659e+13	0.000000e+00	5.934065e-01	8.562032e+14	3.665643e+14	1.046670e+14	1.279010e+04	5.028439e+03	3.904268e+03	0	1.224458e-03
1.700000e+08	4.101322e+13	0.000000e+00	5.934065e-01	8.191478e+14	3.858265e+14	1.041052e+14	1.265205e+04	5.073728e+03	3.939432e+03	0	1.206175e-03
1.800000e+08	3.923641e+13	0.000000e+00	5.934065e-01	7.843694e+14	4.038613e+14	1.035475e+14	1.251988e+04	5.114655e+03	3.971209e+03	0	1.188499e-03
1.900000e+08	3.756761e+13	0.000000e+00	5.934065e-01	7.517006e+14	4.206149e+14	1.029939e+14	1.239324e+04	5.151496e+03	3.999814e+03	0	1.171405e-03
2.000000e+08	3.599897e+13	0.000000e+00	5.934065e-01	7.209886e+14	4.360563e+14	1.024444e+14	1.227180e+04	5.184514e+03	4.025450e+03	0	1.154869e-03
2.100000e+08	3.452329e+13	0.000000e+00	5.934065e-01	6.920927e+14	4.501740e+14	1.018989e+14	1.215525e+04	5.213965e+03	4.048317e+03	0	1.138868e-03
2.200000e+08	3.313396e+13	0.000000e+00	5.934065e-01	6.648839e+14	4.629742e+14	1.013575e+14	1.204331e+04	5.240090e+03	4.068602e+03	0	1.123381e-03
2.300000e+08	3.182491e+13	0.000000e+00	5.934065e-01	6.392435e+14	4.744773e+14	1.008200e+14	1.193572e+04	5.263124e+03	4.086486e+03	0	1.108387e-03
2.400000e+08	3.059051e+13	0.000000e+00	5.934065e-01	6.150620e+14	4.847160e+14	1.002865e+14	1.183222e+04	5.283287e+03	4.102141e+03	0	1.093868e-03
2.500000e+08	2.942561e+13	0.000000e+00	5.934065e-01	5.922385e+14	4.937329e+14	9.975684e+13	1.173259e+04	5.300788e+03	4.115730e+03	0	1.079802e-03
2.600000e+08	2.832543e+13	0.000000e+00	5.934065e-01	5.706799e+14	5.015777e+14	9.923108e+13	1.163660e+04	5.315826e+03	4.127406e+03	0	1.066174e-03
2.700000e+08	2.728556e+13	0.000000e+00	5.934065e-01	5.503001e+14	5.083060e+14	9.870917e+13	1.154407e+04	5.328589e+03	4.137315e+03	0	1.052964e-03
2.800000e+08	2.630194e+13	0.000000e+00	5.934065e-01	5.310196e+14	5.139773e+14	9.819107e+13	1.145481e+04	5.339252e+03	4.145594e+03	0	1.040156e-03
2.900000e+08	2.537079e+13	0.000000e+00	5.934065e-01	5.127649e+14	5.186535e+14	9.767675e+13	1.136864e+04	5.347979e+03	4.152371e+03	0	1.027733e-03
3.000000e+08	2.448864e+13	0.000000e+00	5.934065e-01	4.954680e+14	5.223978e+14	9.716618e+13	1.128540e+04	5.354927e+03	4.157765e+03	0	1.015681e-03
3.100000e+08	2.365226e+13	0.000000e+00	5.934065e-01	4.790660e+14	5.252735e+14	9.665933e+13	1.120493e+04	5.360238e+03	4.161889e+03	0	1.003984e-03
3.200000e+08	2.285868e+13	0.000000e+00	5.934065e-01	4.635006e+14	5.273430e+14	9.615616e+13	1.112710e+04	5.364047e+03	4.164846e+03	0	9.926273e-04
3.300000e+08	2.210512e+13	0.000000e+00	5.934065e-01	4.487179e+14	5.286680e+14	9.565666e+13	1.105177e+04	5.366480e+03	4.166735e+03	0	9.815976e-04
3.400000e+08	2.138903e+13	0.000000e+00	5.934065e-01	4.346679e+14	5.293075e+14	9.516078e+13	1.097882e+04	5.367653e+03	4.167646e+03	0	9.708814e-04
3.500000e+08	2.070803e+13	0.000000e+00	5.934065e-01	4.213042e+14	5.293189e+14	9.466850e+13	1.090813e+04	5.367674e+03	4.167662e+03	0	9.604663e-04
3.600000e+08	2.005993e+13	0.000000e+00	5.934065e-01	4.085839e+14	5.287564e+14	9.417979e+13	1.083959e+04	5.366642e+03	4.166861e+03	0	9.503400e-04
3.700000e+08	1.944269e+13	0.000000e+00	5.934065e-01	3.964671e+14	5.276719e+14	9.369462e+13	1.077310e+04	5.364651e+03	4.165315e+03	0	9.404910e-04
3.800000e+08	1.885441e+13	0.000000e+00	5.934065e-01	3.849169e+14	5.261142e+14	9.321296e+13	1.070856e+04	5.361786e+03	4.163091e+03	0	9.309081e-04
3.900000e+08	1.829333e+13	0.000000e+00	5.934065e-01	3.738989e+14	5.241290e+14	9.273478e+13	1.064588e+04	5.358127e+03	4.160250e+03	0	9.215808e-04
4.000000e+08	1.775782e+13	0.000000e+00	5.934065e-01	3.633812e+14	5.217596e+14	9.226005e+13	1.058499e+04	5.353745e+03	4.156847e+03	0	9.124991e-04
4.100000e+08	1.724637e+13	0.000000e+00	5.934065e-01	3.533341e+14	5.190456e+14	9.178875e+13	1.052578e+04	5.348709e+03	4.152937e+03	0	9.036531e-04
4.200000e+08	1.675756e+13	0.000000e+00	5.934065e-01	3.437301e+14	5.160245e+14	9.132085e+13	1.046821e+04	5.343080e+03	4.148566e+03	0	8.950337e-04
4.300000e+08	1.629007e+13	0.000000e+00	5.934065e-01	3.345435e+14	5.127305e+14	9.085631e+13	1.041218e+04	5.336915e+03	4.143780e+03	0	8.866322e-04
4.400000e+08	1.584269e+13	0.000000e+00	5.934065e-01	3.257504e+14	5.091956e+14	9.039512e+13	1.035763e+04	5.330267e+03	4.138618e+03	0	8.784401e-04
4.500000e+08	1.541427e+13	0.000000e+00	5.934065e-01	3.173285e+14	5.054490e+14	8.993724e+13	1.030451e+04	5.323185e+03	4.133119e+03	0	8.704494e-04
4.600000e+08	1.500376e+13	0.000000e+00	5.934065e-01	3.092570e+14	5.015175e+14	8.948265e+13	1.025275e+04	5.315712e+03	4.127317e+03	0	8.626525e-04
4.700000e+08	1.461016e+13	0.000000e+00	5.934065e-01	3.015167e+14	4.974261e+14	8.903132e+13	1.020230e+04	5.307889e+03	4.121243e+03	0	8.550420e-04
4.800000e+08	1.423254e+13	0.000000e+00	5.934065e-01	2.940894e+14	4.931969e+14	8.858322e+13	1.015309e+04	5.299754e+03	4.114927e+03	0	8.476111e-04
4.900000e+08	1.387005e+13	0.000000e+00	5.934065e-01	2.869583e+14	4.888509e+14	8.813833e+13	1.010509e+04	5.291341e+03	4.108395e+03	0	8.403532e-04
5.000000e+08	1.352187e+13	0.000000e+00	5.934065e-01	2.801075e+14	4.844069e+14	8.769662e+13	1.005825e+04	5.282682e+03	4.101672e+03	0	8.332618e-04
5.100000e+08	1.318726e+13	0.000000e+00	5.934065e-01	2.735223e+14	4.798817e+14	8.725807e+13	1.001251e+04	5.273806e+03	4.094780e+03	0	8.263309e-04
5.200000e+08	1.286550e+13	0.000000e+00	5.934065e-01	2.671890e+14	4.752911e+14	8.682265e+13	9.967838e+03	5.264738e+03	4.087739e+03	0	8.195549e-04
5.300000e+08	1.255593e+13	0.000000e+00	5.934065e-01	2.610944e+14	4.706489e+14	8.639033e+13	9.924195e+03	5.255504e+03	4.080569e+03	0	8.129281e-04
5.400000e+08	1.225793e+13	0.000000e+00	5.934065e-01	2.552267e+14	4.659681e+14	8.596109e+13	9.881539e+03	5.246125e+03	4.073287e+03	0	8.064453e-04
5.500000e+08	1.197093e+13	0.000000e+00	5.934065e-01	2.495743e+14	4.612599e+14	8.553491e+13	9.839835e+03	5.236622e+03	4.065909e+03	0	8.001016e-04
5.600000e+08	1.169437e+13	0.000000e+00	5.934065e-01	2.441266e+14	4.565348e+14	8.511175e+13	9.799047e+03	5.227014e+03	4.058449e+03	0	7.938921e-04
5.700000e+08	1.142775e+13	0.000000e+00	5.934065e-01	2.388735e+14	4.518023e+14	8.469160e+13	9.759143e+03	5.217318e+03	4.050920e+03	0	7.878122e-04
5.800000e+08	1.117057e+13	0.000000e+00	5.934065e-01	2.338058e+14	4.470703e+14	8.427444e+13	9.720092e+03	5.207548e+03	4.043335e+03	0	7.818576e-04
5.900000e+08	1.092240e+13	0.000000e+00	5.934065e-01	2.289144e+14	4.423464e+14	8.386022e+13	9.681863e+03	5.197721e+03	4.035704e+03	0	7.760241e-04
6.000000e+08	1.068280e+13	0.000000e+00	5.934065e-01	2.241912e+14	4.376375e+14	8.344895e+13	9.644429e+03	5.187847e+03	4.028038e+03	0	7.703077e-04
6.100000e+08	1.045137e+13	0.000000e+00	5.934065e-01	2.196281e+14	4.329492e+14	8.304058e+13	9.607761e+03	5.177940e+03	4.020346e+03	0	7.647045e-04
6.200000e+08	1.022774e+13	0.000000e+00	5.934065e-01	2.152179e+14	4.282871e+14	8.263509e+13	9.571835e+03	5.168010e+03	4.012636e+03	0	7.592109e-04
6.300000e+08	1.001155e+13	0.000000e+00	5.934065e-01	2.109536e+14	4.236556e+14	8.223247e+13	9.536625e+03	5.158067e+03	4.004916e+03	0	7.538234e-04
6.400000e+08	9.802459e+12	0.000000e+00	5.934065e-01	2.068287e+14	4.190590e+14	8.183269e+13	9.502108e+03	5.148120e+03	3.997192e+03	0	7.485386e-04
6.500000e+08	9.600154e+12	0.000000e+00	5.934065e-01	2.028368e+14	4.145008e+14	8.143572e+13	9.468262e+03	5.138177e+03	3.989473e+03	0	7.433533e-04
6.600000e+08	9.404336e+12	0.000000e+00	5.934065e-01	1.989721e+14	4.099840e+14	8.104155e+13	9.435065e+03	5.128246e+03	3.981762e+03	0	7.382643e-04
6.700000e+08	9.214721e+12	0.000000e+00	5.934065e-01	1.952292e+14	4.055116e+14	8.065015e+13	9.402496e+03	5.118333e+03	3.974065e+03	0	7.332689e-04
6.800000e+08	9.031042e+12	0.000000e+00	5.934065e-01	1.916028e+14	4.010858e+14	8.026149e+13	9.370535e+03	5.108445e+03	3.966387e+03	0	7.283640e-04
6.900000e+08	8.853046e+12	0.000000e+00	5.934065e-01	1.880878e+14	3.967088e+14	7.987557e+13	9.339165e+03	5.098586e+03	3.958733e+03	0	7.235470e-04
7.000000e+08	8.680493e+12	0.000000e+00	5.934065e-01	1.846797e+14	3.923819e+14	7.949235e+13	9.308367e+03	5.088763e+03	3.951106e+03	0	7.188153e-04
7.100000e+08	8.513156e+12	0.000000e+00	5.934065e-01	1.813740e+14	3.881070e+14	7.911181e+13	9.278123e+03	5.078979e+03	3.943509e+03	0	7.141663e-04
7.200000e+08	8.350820e+12	0.000000e+00	5.934065e-01	1.781664e+14	3.838851e+14	7.873393e+13	9.248417e+03	5.069239e+03	3.935947e+03	0	7.095977e-04
7.300000e+08	8.193280e+12	0.000000e+00	5.934065e-01	1.750530e+14	3.797172e+14	7.835870e+13	9.219234e+03	5.059547e+03	3.928421e+03	0	7.051071e-04
7.400000e+08	8.040343e+12	0.000000e+00	5.934065e-01	1.720300e+14	3.756039e+14	7.798608e+13	9.190557e+03	5.049904e+03	3.920934e+03	0	7.006923e-04
7.500000e+08	7.891825e+12	0.000000e+00	5.934065e-01	1.690937e+14	3.715459e+14	7.761606e+13	9.162373e+03	5.040316e+03	3.913489e+03	0	6.963512e-04
7.600000e+08	7.747552e+12	0.000000e+00	5.934065e-01	1.662408e+14	3.675435e+14	7.724862e+13	9.134667e+03	5.030783e+03	3.906088e+03	0	6.920817e-04
7.700000e+08	7.607357e+12	0.000000e+00	5.934065e-01	1.634681e+14	3.635971e+14	7.688373e+13	9.107426e+03	5.021309e+03	3.898732e+03	0	6.878817e-04
7.800000e+08	7.471083e+12	0.000000e+00	5.934065e-01	1.607723e+14	3.597068e+14	7.652139e+13	9.080636e+03	5.011896e+03	3.891423e+03	0	6.837495e-04
7.900000e+08	7.338579e+12	0.000000e+00	5.934065e-01	1.581506e+14	3.558724e+14	7.616155e+13	9.054286e+03	5.002545e+03	3.884163e+03	0	6.796832e-04
8.000000e+08	7.209703e+12	0.000000e+00	5.934065e-01	1.556002e+14	3.520941e+14	7.580422e+13	9.028363e+03	4.993258e+03	3.876952e+03	0	6.756809e-04
8.100000e+08	7.084318e+12	0.000000e+00	5.934065e-01	1.531183e+14	3.483716e+14	7.544936e+13	9.002856e+03	4.984037e+03	3.869792e+03	0	6.717410e-04
8.200000e+08	6.962295e+12	0.000000e+00	5.934065e-01	1.507026e+14	3.447045e+14	7.509695e+13	8.977754e+03	4.974882e+03	3.862684e+03	0	6.678619e-04
8.300000e+08	6.843510e+12	0.000000e+00	5.934065e-01	1.483505e+14	3.410925e+14	7.474698e+13	8.953045e+03	4.965794e+03	3.855628e+03	0	6.640419e-04
8.400000e+08	6.727845e+12	0.000000e+00	5.934065e-01	1.460597e+14	3.375353e+14	7.439943e+13	8.928720e+03	4.956775e+03	3.848625e+03	0	6.602795e-04
8.500000e+08	6.615188e+12	0.000000e+00	5.934065e-01	1.438280e+14	3.340324e+14	7.405428e+13	8.904769e+03	4.947826e+03	3.841676e+03	0	6.565733e-04
8.600000e+08	6.505431e+12	0.000000e+00	5.934065e-01	1.416534e+14	3.305831e+14	7.371151e+13	8.881181e+03	4.938946e+03	3.834782e+03	0	6.529218e-04
8.700000e+08	6.398471e+12	0.000000e+00	5.934065e-01	1.395337e+14	3.271872e+14	7.337109e+13	8.857949e+03	4.930136e+03	3.827942e+03	0	6.493237e-04
8.800000e+08	6.294212e+12	0.000000e+00	5.934065e-01	1.374672e+14	3.238436e+14	7.303302e+13	8.835062e+03	4.921397e+03	3.821156e+03	0	6.457776e-04
8.900000e+08	6.192558e+12	0.000000e+00	5.934065e-01	1.354519e+14	3.205521e+14	7.269727e+13	8.812512e+03	4.912728e+03	3.814426e+03	0	6.422822e-04
9.000000e+08	6.093421e+12	0.000000e+00	5.934065e-01	1.334861e+14	3.173119e+14	7.236382e+13	8.790292e+03	4.904131e+03	3.807750e+03	0	6.388363e-04
9.100000e+08	5.996715e+12	0.000000e+00	5.934065e-01	1.315682e+14	3.141223e+14	7.203266e+13	8.768392e+03	4.895605e+03	3.801130e+03	0	6.354387e-04
9.200000e+08	5.902357e+12	0.000000e+00	5.934065e-01	1.296964e+14	3.109824e+14	7.170377e+13	8.746806e+03	4.887149e+03	3.794565e+03	0	6.320882e-04
9.300000e+08	5.810270e+12	0.000000e+00	5.934065e-01	1.278693e+14	3.078919e+14	7.137713e+13	8.725525e+03	4.878765e+03	3.788055e+03	0	6.287837e-04
9.400000e+08	5.720379e+12	0.000000e+00	5.934065e-01	1.260855e+14	3.048498e+14	7.105272e+13	8.704542e+03	4.870451e+03	3.781600e+03	0	6.255242e-04
9.500000e+08	5.632610e+12	0.000000e+00	5.934065e-01	1.243434e+14	3.018554e+14	7.073052e+13	8.683851e+03	4.862208e+03	3.775200e+03	0	6.223085e-04
9.600000e+08	5.546895e+12	0.000000e+00	5.934065e-01	1.226417e+14	2.989079e+14	7.041053e+13	8.663444e+03	4.854036e+03	3.768854e+03	0	6.191357e-04
9.700000e+08	5.463169e+12	0.000000e+00	5.934065e-01	1.209792e+14	2.960067e+14	7.009271e+13	8.643315e+03	4.845933e+03	3.762563e+03	0	6.160047e-04
9.800000e+08	5.381366e+12	0.000000e+00	5.934065e-01	1.193545e+14	2.931509e+14	6.977705e+13	8.623458e+03	4.837900e+03	3.756326e+03	0	6.129147e-04
9.900000e+08	5.301428e+12	0.000000e+00	5.934065e-01	1.177666e+14	2.903398e+14	6.946354e+13	8.603866e+03	4.829936e+03	3.750143e+03	0	6.098646e-04
1.000000e+09	5.223294e+12	0.000000e+00	5.934065e-01	1.162141e+14	2.875727e+14	6.915216e+13	8.584533e+03	4.822041e+03	3.744013e+03	0	6.068537e-04
1.010000e+09	5.146909e+12	0.000000e+00	5.934065e-01	1.146962e+14	2.848487e+14	6.884289e+13	8.565455e+03	4.814215e+03	3.737936e+03	0	6.038810e-04
1.020000e+09	5.072218e+12	0.000000e+00	5.934065e-01	1.132116e+14	2.821671e+14	6.853571e+13	8.546624e+03	4.806457e+03	3.731912e+03	0	6.009456e-04
1.030000e+09	4.999171e+12	0.000000e+00	5.934065e-01	1.117593e+14	2.795273e+14	6.823061e+13	8.528036e+03	4.798765e+03	3.725941e+03	0	5.980468e-04
1.040000e+09	4.927717e+12	0.000000e+00	5.934065e-01	1.103385e+14	2.769284e+14	6.792758e+13	8.509685e+03	4.791141e+03	3.720021e+03	0	5.951838e-04
1.050000e+09	4.857808e+12	0.000000e+00	5.934065e-01	1.089481e+14	2.743698e+14	6.762659e+13	8.491567e+03	4.783583e+03	3.714153e+03	0	5.923558e-04
1.060000e+09	4.789398e+12	0.000000e+00	5.934065e-01	1.075872e+14	2.718506e+14	6.732763e+13	8.473676e+03	4.776091e+03	3.708335e+03	0	5.895620e-04
1.070000e+09	4.722442e+12	0.000000e+00	5.934065e-01	1.062551e+14	2.693702e+14	6.703069e+13	8.456008e+03	4.768664e+03	3.702569e+03	0	5.868017e-04
1.080000e+09	4.656899e+12	0.000000e+00	5.934065e-01	1.049507e+14	2.669280e+14	6.673574e+13	8.438557e+03	4.761302e+03	3.696852e+03	0	5.840743e-04
1.090000e+09	4.592727e+12	0.000000e+00	5.934065e-01	1.036734e+14	2.645230e+14	6.644278e+13	8.421320e+03	4.754003e+03	3.691185e+03	0	5.813790e-04
1.100000e+09	4.529885e+12	0.000000e+00	5.934065e-01	1.024223e+14	2.621548e+14	6.615178e+13	8.404291e+03	4.746768e+03	3.685568e+03	0	5.787152e-04
1.110000e+09	4.468337e+12	0.000000e+00	5.934065e-01	1.011967e+14	2.598225e+14	6.586273e+13	8.387467e+03	4.739595e+03	3.679999e+03	0	5.760823e-04
1.120000e+09	4.408046e+12	0.000000e+00	5.934065e-01	9.999584e+13	2.575256e+14	6.557563e+13	8.370844e+03	4.732485e+03	3.674478e+03	0	5.734795e-04
1.130000e+09	4.348975e+12	0.000000e+00	5.934065e-01	9.881910e+13	2.552633e+14	6.529044e+13	8.354417e+03	4.725436e+03	3.669005e+03	0	5.709063e-04
1.140000e+09	4.291092e+12	0.000000e+00	5.934065e-01	9.766577e+13	2.530351e+14	6.500716e+13	8.338183e+03	4.718448e+03	3.663579e+03	0	5.683621e-04
1.150000e+09	4.234362e+12	0.000000e+00	5.934065e-01	9.653520e+13	2.508403e+14	6.472577e+13	8.322137e+03	4.711520e+03	3.658200e+03	0	5.658463e-04
1.160000e+09	4.178754e+12	0.000000e+00	5.934065e-01	9.542676e+13	2.486781e+14	6.444626e+13	8.306277e+03	4.704651e+03	3.652867e+03	0	5.633584e-04
1.170000e+09	4.124237e+12	0.000000e+00	5.934065e-01	9.433985e+13	2.465482e+14	6.416860e+13	8.290597e+03	4.697841e+03	3.647579e+03	0	5.608978e-04
1.180000e+09	4.070783e+12	0.000000e+00	5.934065e-01	9.327390e+13	2.444497e+14	6.389280e+13	8.275096e+03	4.691089e+03	3.642337e+03	0	5.584640e-04
1.190000e+09	4.018361e+12	0.000000e+00	5.934065e-01	9.222834e+13	2.423822e+14	6.361883e+13	8.259769e+03	4.684395e+03	3.637139e+03	0	5.560564e-04
1.200000e+09	3.966945e+12	0.000000e+00	5.934065e-01	9.120262e+13	2.403451e+14	6.334668e+13	8.244613e+03	4.677758e+03	3.631986e+03	0	5.536746e-04
1.210000e+09	3.916508e+12	0.000000e+00	5.934065e-01	9.019623e+13	2.383377e+14	6.307634e+13	8.229625e+03	4.671177e+03	3.626876e+03	0	5.513180e-04
1.220000e+09	3.867024e+12	0.000000e+00	5.934065e-01	8.920865e+13	2.363595e+14	6.280778e+13	8.214802e+03	4.664651e+03	3.621809e+03	0	5.489863e-04
1.230000e+09	3.818468e+12	0.000000e+00	5.934065e-01	8.823939e+13	2.344100e+14	6.254100e+13	8.200141e+03	4.658180e+03	3.616785e+03	0	5.466788e-04
1.240000e+09	3.770817e+12	0.000000e+00	5.934065e-01	8.728799e+13	2.324886e+14	6.227599e+13	8.185638e+03	4.651764e+03	3.611803e+03	0	5.443952e-04
1.250000e+09	3.724046e+12	0.000000e+00	5.934065e-01	8.635399e+13	2.305948e+14	6.201272e+13	8.171291e+03	4.645401e+03	3.606863e+03	0	5.421351e-04
1.260000e+09	3.678133e+12	0.000000e+00	5.934065e-01	8.543693e+13	2.287281e+14	6.175119e+13	8.157097e+03	4.639091e+03	3.601964e+03	0	5.398979e-04
1.270000e+09	3.633057e+12	0.000000e+00	5.934065e-01	8.453640e+13	2.268879e+14	6.149139e+13	8.143053e+03	4.632834e+03	3.597105e+03	0	5.376833e-04
1.280000e+09	3.588796e+12	0.000000e+00	5.934065e-01	8.365197e+13	2.250738e+14	6.123329e+13	8.129157e+03	4.626628e+03	3.592287e+03	0	5.354909e-04
1.290000e+09	3.545330e+12	0.000000e+00	5.934065e-01	8.278325e+13	2.232853e+14	6.097689e+13	8.115405e+03	4.620474e+03	3.587508e+03	0	5.333202e-04
1.300000e+09	3.502639e+12	0.000000e+00	5.934065e-01	8.192985e+13	2.215218e+14	6.072217e+13	8.101796e+03	4.614370e+03	3.582769e+03	0	5.311709e-04
1.310000e+09	3.460704e+12	0.000000e+00	5.934065e-01	8.109139e+13	2.197830e+14	6.046912e+13	8.088327e+03	4.608315e+03	3.578068e+03	0	5.290426e-04
1.320000e+09	3.419507e+12	0.000000e+00	5.934065e-01	8.026750e+13	2.180683e+14	6.021773e+13	8.074995e+03	4.602310e+03	3.573406e+03	0	5.269350e-04
1.330000e+09	3.379029e+12	0.000000e+00	5.934065e-01	7.945784e+13	2.163774e+14	5.996798e+13	8.061798e+03	4.596354e+03	3.568781e+03	0	5.248475e-04
1.340000e+09	3.339254e+12	0.000000e+00	5.934065e-01	7.866205e+13	2.147097e+14	5.971987e+13	8.048733e+03	4.590446e+03	3.564194e+03	0	5.227800e-04
1.350000e+09	3.300163e+12	0.000000e+00	5.934065e-01	7.787982e+13	2.130649e+14	5.947337e+13	8.035799e+03	4.584585e+03	3.559643e+03	0	5.207321e-04
1.360000e+09	3.261742e+12	0.000000e+00	5.934065e-01	7.711081e+13	2.114425e+14	5.922848e+13	8.022993e+03	4.578772e+03	3.555129e+03	0	5.187033e-04
