#t		Qconv[W]	Ri[Rp]		R*[Rp]		Qc[W]		Qm[W]		Qr[W]		Tcmb[K]		Tl[K]		Tup[K]		RiFlag		Bs[T]
0.000000e+00	1.193074e+14	0.000000e+00	5.978261e-01	2.148485e+15	3.544242e+13	1.247635e+14	1.636349e+04	3.478359e+03	2.682534e+03	0	1.695574e-03
1.000000e+07	1.123588e+14	0.000000e+00	5.978261e-01	2.024677e+15	4.845436e+13	1.240722e+14	1.605873e+04	3.636574e+03	2.804551e+03	0	1.661996e-03
2.000000e+07	1.059670e+14	0.000000e+00	5.978261e-01	1.910775e+15	6.372394e+13	1.233861e+14	1.577108e+04	3.784958e+03	2.918986e+03	0	1.629863e-03
3.000000e+07	1.000728e+14	0.000000e+00	5.978261e-01	1.805726e+15	8.113693e+13	1.227051e+14	1.549922e+04	3.924059e+03	3.026261e+03	0	1.599066e-03
4.000000e+07	9.462492e+13	0.000000e+00	5.978261e-01	1.708620e+15	1.005181e+14	1.220292e+14	1.524195e+04	4.054356e+03	3.126747e+03	0	1.569505e-03
5.000000e+07	8.957905e+13	0.000000e+00	5.978261e-01	1.618669e+15	1.216435e+14	1.213583e+14	1.499820e+04	4.176284e+03	3.220778e+03	0	1.541096e-03
6.000000e+07	8.489651e+13	0.000000e+00	5.978261e-01	1.535184e+15	1.442532e+14	1.206925e+14	1.476701e+04	4.290233e+03	3.308657e+03	0	1.513762e-03
7.000000e+07	8.054353e+13	0.000000e+00	5.978261e-01	1.457566e+15	1.680633e+14	1.200316e+14	1.454748e+04	4.396569e+03	3.390664e+03	0	1.487434e-03
8.000000e+07	7.649049e+13	0.000000e+00	5.978261e-01	1.385287e+15	1.927770e+14	1.193756e+14	1.433884e+04	4.495632e+03	3.467062e+03	0	1.462054e-03
9.000000e+07	7.271128e+13	0.000000e+00	5.978261e-01	1.317884e+15	2.180948e+14	1.187245e+14	1.414034e+04	4.587748e+03	3.538102e+03	0	1.437567e-03
1.000000e+08	6.918278e+13	0.000000e+00	5.978261e-01	1.254944e+15	2.437230e+14	1.180782e+14	1.395132e+04	4.673230e+03	3.604027e+03	0	1.413927e-03
1.100000e+08	6.588446e+13	0.000000e+00	5.978261e-01	1.196104e+15	2.693813e+14	1.174367e+14	1.377116e+04	4.752384e+03	3.665071e+03	0	1.391090e-03
1.200000e+08	6.279793e+13	0.000000e+00	5.978261e-01	1.141034e+15	2.948090e+14	1.168000e+14	1.359930e+04	4.825507e+03	3.721464e+03	0	1.369019e-03
1.300000e+08	5.990673e+13	0.000000e+00	5.978261e-01	1.089444e+15	3.197685e+14	1.161680e+14	1.343522e+04	4.892893e+03	3.773432e+03	0	1.347678e-03
1.400000e+08	5.719598e+13	0.000000e+00	5.978261e-01	1.041068e+15	3.440494e+14	1.155407e+14	1.327843e+04	4.954829e+03	3.821198e+03	0	1.327036e-03
1.500000e+08	5.465224e+13	0.000000e+00	5.978261e-01	9.956657e+14	3.674696e+14	1.149180e+14	1.312850e+04	5.011597e+03	3.864978e+03	0	1.307064e-03
1.600000e+08	5.226326e+13	0.000000e+00	5.978261e-01	9.530207e+14	3.898762e+14	1.142999e+14	1.298500e+04	5.063477e+03	3.904988e+03	0	1.287735e-03
1.700000e+08	5.001789e+13	0.000000e+00	5.978261e-01	9.129340e+14	4.111448e+14	1.136863e+14	1.284756e+04	5.110739e+03	3.941437e+03	0	1.269023e-03
1.800000e+08	4.790592e+13	0.000000e+00	5.978261e-01	8.752238e+14	4.311794e+14	1.130773e+14	1.271582e+04	5.153651e+03	3.974531e+03	0	1.250904e-03
1.900000e+08	4.591798e+13	0.000000e+00	5.978261e-01	8.397235e+14	4.499096e+14	1.124728e+14	1.258944e+04	5.192470e+03	4.004468e+03	0	1.233356e-03
2.000000e+08	4.404546e+13	0.000000e+00	5.978261e-01	8.062795e+14	4.672890e+14	1.118727e+14	1.246811e+04	5.227449e+03	4.031444e+03	0	1.216358e-03
2.100000e+08	4.228040e+13	0.000000e+00	5.978261e-01	7.747505e+14	4.832927e+14	1.112771e+14	1.235156e+04	5.258830e+03	4.055645e+03	0	1.199888e-03
2.200000e+08	4.061549e+13	0.000000e+00	5.978261e-01	7.450060e+14	4.979151e+14	1.106858e+14	1.223950e+04	5.286847e+03	4.077252e+03	0	1.183927e-03
2.300000e+08	3.904395e+13	0.000000e+00	5.978261e-01	7.169255e+14	5.111666e+14	1.100988e+14	1.213168e+04	5.311725e+03	4.096438e+03	0	1.168456e-03
2.400000e+08	3.755951e+13	0.000000e+00	5.978261e-01	6.903972e+14	5.230717e+14	1.095162e+14	1.202788e+04	5.333678e+03	4.113369e+03	0	1.153456e-03
2.500000e+08	3.615635e+13	0.000000e+00	5.978261e-01	6.653179e+14	5.336663e+14	1.089378e+14	1.192788e+04	5.352911e+03	4.128201e+03	0	1.138909e-03
2.600000e+08	3.482912e+13	0.000000e+00	5.978261e-01	6.415917e+14	5.429954e+14	1.083637e+14	1.183146e+04	5.369618e+03	4.141086e+03	0	1.124799e-03
2.700000e+08	3.357280e+13	0.000000e+00	5.978261e-01	6.191297e+14	5.511115e+14	1.077937e+14	1.173844e+04	5.383984e+03	4.152165e+03	0	1.111109e-03
2.800000e+08	3.238278e+13	0.000000e+00	5.978261e-01	5.978496e+14	5.580721e+14	1.072280e+14	1.164864e+04	5.396183e+03	4.161573e+03	0	1.097823e-03
2.900000e+08	3.125476e+13	0.000000e+00	5.978261e-01	5.776750e+14	5.639378e+14	1.066663e+14	1.156189e+04	5.406378e+03	4.169435e+03	0	1.084925e-03
3.000000e+08	3.018476e+13	0.000000e+00	5.978261e-01	5.585347e+14	5.687729e+14	1.061087e+14	1.147804e+04	5.414723e+03	4.175871e+03	0	1.072400e-03
3.100000e+08	2.916907e+13	0.000000e+00	5.978261e-01	5.403628e+14	5.726414e+14	1.055552e+14	1.139694e+04	5.421364e+03	4.180993e+03	0	1.060234e-03
3.200000e+08	2.820425e+13	0.000000e+00	5.978261e-01	5.230982e+14	5.756082e+14	1.050058e+14	1.131844e+04	5.426434e+03	4.184903e+03	0	1.048413e-03
3.300000e+08	2.728711e+13	0.000000e+00	5.978261e-01	5.066840e+14	5.777374e+14	1.044603e+14	1.124243e+04	5.430061e+03	4.187700e+03	0	1.036924e-03
3.400000e+08	2.641469e+13	0.000000e+00	5.978261e-01	4.910672e+14	5.790910e+14	1.039188e+14	1.116878e+04	5.432362e+03	4.189475e+03	0	1.025753e-03
3.500000e+08	2.558421e+13	0.000000e+00	5.978261e-01	4.761988e+14	5.797302e+14	1.033812e+14	1.109738e+04	5.433448e+03	4.190312e+03	0	1.014888e-03
3.600000e+08	2.479313e+13	0.000000e+00	5.978261e-01	4.620330e+14	5.797130e+14	1.028475e+14	1.102811e+04	5.433418e+03	4.190289e+03	0	1.004318e-03
3.700000e+08	2.403904e+13	0.000000e+00	5.978261e-01	4.485273e+14	5.790954e+14	1.023177e+14	1.096089e+04	5.432370e+03	4.189481e+03	0	9.940312e-04
3.800000e+08	2.331974e+13	0.000000e+00	5.978261e-01	4.356423e+14	5.779302e+14	1.017917e+14	1.089561e+04	5.430389e+03	4.187953e+03	0	9.840161e-04
3.900000e+08	2.263316e+13	0.000000e+00	5.978261e-01	4.233410e+14	5.762675e+14	1.012695e+14	1.083219e+04	5.427558e+03	4.185770e+03	0	9.742626e-04
4.000000e+08	2.197737e+13	0.000000e+00	5.978261e-01	4.115893e+14	5.741548e+14	1.007511e+14	1.077055e+04	5.423952e+03	4.182989e+03	0	9.647605e-04
4.100000e+08	2.135059e+13	0.000000e+00	5.978261e-01	4.003552e+14	5.716358e+14	1.002364e+14	1.071060e+04	5.419641e+03	4.179664e+03	0	9.555004e-04
4.200000e+08	2.075113e+13	0.000000e+00	5.978261e-01	3.896090e+14	5.687523e+14	9.972544e+13	1.065227e+04	5.414688e+03	4.175844e+03	0	9.464730e-04
4.300000e+08	2.017746e+13	0.000000e+00	5.978261e-01	3.793230e+14	5.655422e+14	9.921815e+13	1.059549e+04	5.409153e+03	4.171575e+03	0	9.376694e-04
4.400000e+08	1.962811e+13	0.000000e+00	5.978261e-01	3.694712e+14	5.620417e+14	9.871451e+13	1.054020e+04	5.403091e+03	4.166900e+03	0	9.290814e-04
4.500000e+08	1.910173e+13	0.000000e+00	5.978261e-01	3.600295e+14	5.582833e+14	9.821449e+13	1.048634e+04	5.396552e+03	4.161857e+03	0	9.207007e-04
4.600000e+08	1.859705e+13	0.000000e+00	5.978261e-01	3.509755e+14	5.542979e+14	9.771806e+13	1.043384e+04	5.389582e+03	4.156483e+03	0	9.125198e-04
4.700000e+08	1.811290e+13	0.000000e+00	5.978261e-01	3.422879e+14	5.501135e+14	9.722519e+13	1.038264e+04	5.382226e+03	4.150809e+03	0	9.045313e-04
4.800000e+08	1.764817e+13	0.000000e+00	5.978261e-01	3.339472e+14	5.457557e+14	9.673586e+13	1.033271e+04	5.374521e+03	4.144868e+03	0	8.967282e-04
4.900000e+08	1.720182e+13	0.000000e+00	5.978261e-01	3.259349e+14	5.412484e+14	9.625002e+13	1.028398e+04	5.366505e+03	4.138685e+03	0	8.891037e-04
5.000000e+08	1.677290e+13	0.000000e+00	5.978261e-01	3.182338e+14	5.366130e+14	9.576766e+13	1.023641e+04	5.358211e+03	4.132289e+03	0	8.816515e-04
5.100000e+08	1.636048e+13	0.000000e+00	5.978261e-01	3.108277e+14	5.318695e+14	9.528875e+13	1.018996e+04	5.349669e+03	4.125701e+03	0	8.743654e-04
5.200000e+08	1.596373e+13	0.000000e+00	5.978261e-01	3.037014e+14	5.270359e+14	9.481325e+13	1.014458e+04	5.340907e+03	4.118944e+03	0	8.672396e-04
5.300000e+08	1.558185e+13	0.000000e+00	5.978261e-01	2.968409e+14	5.221287e+14	9.434115e+13	1.010023e+04	5.331952e+03	4.112038e+03	0	8.602684e-04
5.400000e+08	1.521409e+13	0.000000e+00	5.978261e-01	2.902328e+14	5.171627e+14	9.387240e+13	1.005688e+04	5.322828e+03	4.105001e+03	0	8.534465e-04
5.500000e+08	1.485976e+13	0.000000e+00	5.978261e-01	2.838646e+14	5.121514e+14	9.340700e+13	1.001448e+04	5.313555e+03	4.097850e+03	0	8.467689e-04
5.600000e+08	1.451819e+13	0.000000e+00	5.978261e-01	2.777246e+14	5.071072e+14	9.294490e+13	9.973009e+03	5.304154e+03	4.090600e+03	0	8.402305e-04
5.700000e+08	1.418876e+13	0.000000e+00	5.978261e-01	2.718017e+14	5.020410e+14	9.248608e+13	9.932427e+03	5.294644e+03	4.083265e+03	0	8.338267e-04
5.800000e+08	1.387090e+13	0.000000e+00	5.978261e-01	2.660856e+14	4.969629e+14	9.203052e+13	9.892704e+03	5.285041e+03	4.075860e+03	0	8.275531e-04
5.900000e+08	1.356406e+13	0.000000e+00	5.978261e-01	2.605664e+14	4.918818e+14	9.157819e+13	9.853811e+03	5.275361e+03	4.068394e+03	0	8.214053e-04
6.000000e+08	1.326771e+13	0.000000e+00	5.978261e-01	2.552351e+14	4.868060e+14	9.112906e+13	9.815719e+03	5.265617e+03	4.060880e+03	0	8.153792e-04
6.100000e+08	1.298139e+13	0.000000e+00	5.978261e-01	2.500829e+14	4.817424e+14	9.068310e+13	9.778401e+03	5.255823e+03	4.053327e+03	0	8.094710e-04
6.200000e+08	1.270461e+13	0.000000e+00	5.978261e-01	2.451016e+14	4.766976e+14	9.024030e+13	9.741832e+03	5.245991e+03	4.045744e+03	0	8.036768e-04
6.300000e+08	1.243697e+13	0.000000e+00	5.978261e-01	2.402836e+14	4.716775e+14	8.980062e+13	9.705985e+03	5.236131e+03	4.038140e+03	0	7.979930e-04
6.400000e+08	1.217804e+13	0.000000e+00	5.978261e-01	2.356215e+14	4.666869e+14	8.936405e+13	9.670839e+03	5.226253e+03	4.030522e+03	0	7.924163e-04
6.500000e+08	1.192744e+13	0.000000e+00	5.978261e-01	2.311086e+14	4.617307e+14	8.893055e+13	9.636370e+03	5.216367e+03	4.022898e+03	0	7.869432e-04
6.600000e+08	1.168481e+13	0.000000e+00	5.978261e-01	2.267382e+14	4.568127e+14	8.850010e+13	9.602557e+03	5.206480e+03	4.015273e+03	0	7.815705e-04
6.700000e+08	1.144980e+13	0.000000e+00	5.978261e-01	2.225043e+14	4.519364e+14	8.807267e+13	9.569380e+03	5.196600e+03	4.007653e+03	0	7.762953e-04
6.800000e+08	1.122210e+13	0.000000e+00	5.978261e-01	2.184011e+14	4.471047e+14	8.764825e+13	9.536818e+03	5.186733e+03	4.000044e+03	0	7.711146e-04
6.900000e+08	1.100138e+13	0.000000e+00	5.978261e-01	2.144229e+14	4.423207e+14	8.722681e+13	9.504853e+03	5.176887e+03	3.992450e+03	0	7.660256e-04
7.000000e+08	1.078736e+13	0.000000e+00	5.978261e-01	2.105647e+14	4.375864e+14	8.680832e+13	9.473466e+03	5.167066e+03	3.984876e+03	0	7.610256e-04
7.100000e+08	1.057975e+13	0.000000e+00	5.978261e-01	2.068214e+14	4.329038e+14	8.639276e+13	9.442641e+03	5.157276e+03	3.977326e+03	0	7.561120e-04
7.200000e+08	1.037831e+13	0.000000e+00	5.978261e-01	2.031884e+14	4.282747e+14	8.598010e+13	9.412360e+03	5.147521e+03	3.969803e+03	0	7.512823e-04
7.300000e+08	1.018277e+13	0.000000e+00	5.978261e-01	1.996612e+14	4.237003e+14	8.557033e+13	9.382608e+03	5.137805e+03	3.962310e+03	0	7.465341e-04
7.400000e+08	9.992910e+12	0.000000e+00	5.978261e-01	1.962356e+14	4.191819e+14	8.516342e+13	9.353370e+03	5.128133e+03	3.954851e+03	0	7.418651e-04
7.500000e+08	9.808493e+12	0.000000e+00	5.978261e-01	1.929076e+14	4.147205e+14	8.475935e+13	9.324630e+03	5.118508e+03	3.947428e+03	0	7.372731e-04
7.600000e+08	9.629310e+12	0.000000e+00	5.978261e-01	1.896734e+14	4.103165e+14	8.435809e+13	9.296375e+03	5.108932e+03	3.940043e+03	0	7.327559e-04
7.700000e+08	9.455157e+12	0.000000e+00	5.978261e-01	1.865293e+14	4.059707e+14	8.395963e+13	9.268591e+03	5.099409e+03	3.932699e+03	0	7.283115e-04
7.800000e+08	9.285842e+12	0.000000e+00	5.978261e-01	1.834719e+14	4.016836e+14	8.356393e+13	9.241265e+03	5.089941e+03	3.925397e+03	0	7.239380e-04
7.900000e+08	9.121179e+12	0.000000e+00	5.978261e-01	1.804979e+14	3.974552e+14	8.317098e+13	9.214384e+03	5.080530e+03	3.918139e+03	0	7.196333e-04
8.000000e+08	8.960996e+12	0.000000e+00	5.978261e-01	1.776041e+14	3.932857e+14	8.278075e+13	9.187937e+03	5.071178e+03	3.910927e+03	0	7.153958e-04
8.100000e+08	8.805123e+12	0.000000e+00	5.978261e-01	1.747877e+14	3.891751e+14	8.239323e+13	9.161911e+03	5.061887e+03	3.903762e+03	0	7.112235e-04
8.200000e+08	8.653404e+12	0.000000e+00	5.978261e-01	1.720458e+14	3.851233e+14	8.200840e+13	9.136296e+03	5.052658e+03	3.896644e+03	0	7.071148e-04
8.300000e+08	8.505685e+12	0.000000e+00	5.978261e-01	1.693755e+14	3.811300e+14	8.162622e+13	9.111080e+03	5.043493e+03	3.889576e+03	0	7.030681e-04
8.400000e+08	8.361822e+12	0.000000e+00	5.978261e-01	1.667745e+14	3.771951e+14	8.124668e+13	9.086254e+03	5.034392e+03	3.882558e+03	0	6.990817e-04
8.500000e+08	8.221678e+12	0.000000e+00	5.978261e-01	1.642401e+14	3.733182e+14	8.086976e+13	9.061807e+03	5.025358e+03	3.875590e+03	0	6.951541e-04
8.600000e+08	8.085120e+12	0.000000e+00	5.978261e-01	1.617700e+14	3.694986e+14	8.049544e+13	9.037729e+03	5.016389e+03	3.868673e+03	0	6.912839e-04
8.700000e+08	7.952022e+12	0.000000e+00	5.978261e-01	1.593621e+14	3.657362e+14	8.012370e+13	9.014012e+03	5.007488e+03	3.861809e+03	0	6.874696e-04
8.800000e+08	7.822265e+12	0.000000e+00	5.978261e-01	1.570141e+14	3.620303e+14	7.975451e+13	8.990646e+03	4.998655e+03	3.854997e+03	0	6.837098e-04
8.900000e+08	7.695732e+12	0.000000e+00	5.978261e-01	1.547239e+14	3.583802e+14	7.938786e+13	8.967622e+03	4.989889e+03	3.848237e+03	0	6.800031e-04
9.000000e+08	7.572314e+12	0.000000e+00	5.978261e-01	1.524896e+14	3.547855e+14	7.902373e+13	8.944933e+03	4.981193e+03	3.841530e+03	0	6.763484e-04
9.100000e+08	7.451906e+12	0.000000e+00	5.978261e-01	1.503094e+14	3.512453e+14	7.866209e+13	8.922570e+03	4.972565e+03	3.834876e+03	0	6.727444e-04
9.200000e+08	7.334406e+12	0.000000e+00	5.978261e-01	1.481814e+14	3.477592e+14	7.830293e+13	8.900524e+03	4.964006e+03	3.828275e+03	0	6.691897e-04
9.300000e+08	7.219718e+12	0.000000e+00	5.978261e-01	1.461038e+14	3.443264e+14	7.794623e+13	8.878790e+03	4.955516e+03	3.821728e+03	0	6.656833e-04
9.400000e+08	7.107750e+12	0.000000e+00	5.978261e-01	1.440751e+14	3.409461e+14	7.759196e+13	8.857358e+03	4.947095e+03	3.815234e+03	0	6.622241e-04
9.500000e+08	6.998412e+12	0.000000e+00	5.978261e-01	1.420936e+14	3.376177e+14	7.724011e+13	8.836223e+03	4.938743e+03	3.808793e+03	0	6.588109e-04
9.600000e+08	6.891621e+12	0.000000e+00	5.978261e-01	1.401579e+14	3.343402e+14	7.689066e+13	8.815377e+03	4.930460e+03	3.802405e+03	0	6.554427e-04
9.700000e+08	6.787293e+12	0.000000e+00	5.978261e-01	1.382664e+14	3.311131e+14	7.654359e+13	8.794814e+03	4.922246e+03	3.796070e+03	0	6.521184e-04
9.800000e+08	6.685352e+12	0.000000e+00	5.978261e-01	1.364178e+14	3.279356e+14	7.619889e+13	8.774527e+03	4.914100e+03	3.789787e+03	0	6.488371e-04
9.900000e+08	6.585721e+12	0.000000e+00	5.978261e-01	1.346107e+14	3.248068e+14	7.585652e+13	8.754510e+03	4.906022e+03	3.783557e+03	0	6.455978e-04
1.000000e+09	6.488329e+12	0.000000e+00	5.978261e-01	1.328438e+14	3.217260e+14	7.551648e+13	8.734757e+03	4.898012e+03	3.777380e+03	0	6.423995e-04
1.010000e+09	6.393106e+12	0.000000e+00	5.978261e-01	1.311159e+14	3.186924e+14	7.517875e+13	8.715262e+03	4.890069e+03	3.771255e+03	0	6.392414e-04
1.020000e+09	6.299986e+12	0.000000e+00	5.978261e-01	1.294258e+14	3.157053e+14	7.484330e+13	8.696019e+03	4.882194e+03	3.765181e+03	0	6.361226e-04
1.030000e+09	6.208905e+12	0.000000e+00	5.978261e-01	1.277724e+14	3.127639e+14	7.451013e+13	8.677024e+03	4.874385e+03	3.759159e+03	0	6.330421e-04
1.040000e+09	6.119801e+12	0.000000e+00	5.978261e-01	1.261545e+14	3.098673e+14	7.417920e+13	8.658270e+03	4.866642e+03	3.753187e+03	0	6.299993e-04
1.050000e+09	6.032616e+12	0.000000e+00	5.978261e-01	1.245710e+14	3.070149e+14	7.385051e+13	8.639752e+03	4.858965e+03	3.747267e+03	0	6.269932e-04
1.060000e+09	5.947292e+12	0.000000e+00	5.978261e-01	1.230211e+14	3.042059e+14	7.352404e+13	8.621466e+03	4.851353e+03	3.741396e+03	0	6.240231e-04
1.070000e+09	5.863774e+12	0.000000e+00	5.978261e-01	1.215036e+14	3.014394e+14	7.319976e+13	8.603406e+03	4.843806e+03	3.735576e+03	0	6.210883e-04
1.080000e+09	5.782010e+12	0.000000e+00	5.978261e-01	1.200177e+14	2.987148e+14	7.287767e+13	8.585568e+03	4.836323e+03	3.729805e+03	0	6.181880e-04
1.090000e+09	5.701949e+12	0.000000e+00	5.978261e-01	1.185624e+14	2.960313e+14	7.255775e+13	8.567948e+03	4.828903e+03	3.724083e+03	0	6.153214e-04
1.100000e+09	5.623541e+12	0.000000e+00	5.978261e-01	1.171369e+14	2.933882e+14	7.223997e+13	8.550540e+03	4.821547e+03	3.718410e+03	0	6.124880e-04
1.110000e+09	5.546741e+12	0.000000e+00	5.978261e-01	1.157403e+14	2.907847e+14	7.192432e+13	8.533341e+03	4.814253e+03	3.712785e+03	0	6.096870e-04
1.120000e+09	5.471502e+12	0.000000e+00	5.978261e-01	1.143718e+14	2.882203e+14	7.161079e+13	8.516345e+03	4.807021e+03	3.707207e+03	0	6.069177e-04
1.130000e+09	5.397781e+12	0.000000e+00	5.978261e-01	1.130306e+14	2.856940e+14	7.129936e+13	8.499550e+03	4.799850e+03	3.701677e+03	0	6.041796e-04
1.140000e+09	5.325535e+12	0.000000e+00	5.978261e-01	1.117159e+14	2.832054e+14	7.099000e+13	8.482951e+03	4.792740e+03	3.696194e+03	0	6.014719e-04
1.150000e+09	5.254723e+12	0.000000e+00	5.978261e-01	1.104271e+14	2.807535e+14	7.068272e+13	8.466545e+03	4.785690e+03	3.690757e+03	0	5.987942e-04
1.160000e+09	5.185307e+12	0.000000e+00	5.978261e-01	1.091634e+14	2.783378e+14	7.037748e+13	8.450327e+03	4.778700e+03	3.685366e+03	0	5.961457e-04
1.170000e+09	5.117248e+12	0.000000e+00	5.978261e-01	1.079241e+14	2.759576e+14	7.007428e+13	8.434294e+03	4.771768e+03	3.680020e+03	0	5.935260e-04
1.180000e+09	5.050510e+12	0.000000e+00	5.978261e-01	1.067086e+14	2.736124e+14	6.977309e+13	8.418442e+03	4.764895e+03	3.674719e+03	0	5.909345e-04
1.190000e+09	4.985057e+12	0.000000e+00	5.978261e-01	1.055163e+14	2.713013e+14	6.947391e+13	8.402767e+03	4.758079e+03	3.669463e+03	0	5.883706e-04
1.200000e+09	4.920855e+12	0.000000e+00	5.978261e-01	1.043465e+14	2.690238e+14	6.917671e+13	8.387268e+03	4.751320e+03	3.664250e+03	0	5.858338e-04
1.210000e+09	4.857871e+12	0.000000e+00	5.978261e-01	1.031986e+14	2.667793e+14	6.888148e+13	8.371939e+03	4.744617e+03	3.659081e+03	0	5.833237e-04
1.220000e+09	4.796072e+12	0.000000e+00	5.978261e-01	1.020721e+14	2.645671e+14	6.858821e+13	8.356779e+03	4.737971e+03	3.653955e+03	0	5.808396e-04
1.230000e+09	4.735429e+12	0.000000e+00	5.978261e-01	1.009665e+14	2.623867e+14	6.829688e+13	8.341783e+03	4.731379e+03	3.648872e+03	0	5.783811e-04
1.240000e+09	4.675912e+12	0.000000e+00	5.978261e-01	9.988106e+13	2.602375e+14	6.800747e+13	8.326949e+03	4.724842e+03	3.643830e+03	0	5.759477e-04
1.250000e+09	4.617491e+12	0.000000e+00	5.978261e-01	9.881542e+13	2.581189e+14	6.771998e+13	8.312275e+03	4.718359e+03	3.638830e+03	0	5.735390e-04
1.260000e+09	4.560138e+12	0.000000e+00	5.978261e-01	9.776905e+13	2.560303e+14	6.743438e+13	8.297756e+03	4.711929e+03	3.633872e+03	0	5.711545e-04
1.270000e+09	4.503827e+12	0.000000e+00	5.978261e-01	9.674145e+13	2.539712e+14	6.715066e+13	8.283390e+03	4.705551e+03	3.628953e+03	0	5.687938e-04
1.280000e+09	4.448531e+12	0.000000e+00	5.978261e-01	9.573216e+13	2.519410e+14	6.686881e+13	8.269174e+03	4.699226e+03	3.624075e+03	0	5.664564e-04
1.290000e+09	4.394225e+12	0.000000e+00	5.978261e-01	9.474072e+13	2.499392e+14	6.658881e+13	8.255107e+03	4.692952e+03	3.619237e+03	0	5.641419e-04
1.300000e+09	4.340885e+12	0.000000e+00	5.978261e-01	9.376669e+13	2.479653e+14	6.631065e+13	8.241185e+03	4.686730e+03	3.614438e+03	0	5.618500e-04
1.310000e+09	4.288486e+12	0.000000e+00	5.978261e-01	9.280965e+13	2.460188e+14	6.603431e+13	8.227405e+03	4.680557e+03	3.609677e+03	0	5.595801e-04
1.320000e+09	4.237007e+12	0.000000e+00	5.978261e-01	9.186918e+13	2.440991e+14	6.575979e+13	8.213765e+03	4.674434e+03	3.604955e+03	0	5.573320e-04
1.330000e+09	4.186423e+12	0.000000e+00	5.978261e-01	9.094489e+13	2.422058e+14	6.548705e+13	8.200263e+03	4.668360e+03	3.600271e+03	0	5.551052e-04
1.340000e+09	4.136715e+12	0.000000e+00	5.978261e-01	9.003638e+13	2.403383e+14	6.521610e+13	8.186897e+03	4.662335e+03	3.595624e+03	0	5.528994e-04
1.350000e+09	4.087860e+12	0.000000e+00	5.978261e-01	8.914328e+13	2.384964e+14	6.494692e+13	8.173663e+03	4.656357e+03	3.591014e+03	0	5.507142e-04
1.360000e+09	4.039839e+12	0.000000e+00	5.978261e-01	8.826523e+13	2.366793e+14	6.467949e+13	8.160561e+03	4.650427e+03	3.586441e+03	0	5.485493e-04
