#t		Qconv[W]	Ri[Rp]		R*[Rp]		Qc[W]		Qm[W]		Qr[W]		Tcmb[K]		Tl[K]		Tup[K]		RiFlag		Bs[T]
0.000000e+00	1.710123e+14	0.000000e+00	5.978261e-01	2.808787e+15	3.359212e+13	1.430803e+14	1.815313e+04	3.614273e+03	2.747332e+03	0	1.900194e-03
1.000000e+07	1.611763e+14	0.000000e+00	5.978261e-01	2.649151e+15	4.769383e+13	1.422875e+14	1.781232e+04	3.795555e+03	2.885131e+03	0	1.863041e-03
2.000000e+07	1.521133e+14	0.000000e+00	5.978261e-01	2.502038e+15	6.473089e+13	1.415007e+14	1.749039e+04	3.965878e+03	3.014599e+03	0	1.827446e-03
3.000000e+07	1.437425e+14	0.000000e+00	5.978261e-01	2.366142e+15	8.464303e+13	1.407197e+14	1.718589e+04	4.125840e+03	3.136192e+03	0	1.793290e-03
4.000000e+07	1.359940e+14	0.000000e+00	5.978261e-01	2.240330e+15	1.072780e+14	1.399446e+14	1.689753e+04	4.275967e+03	3.250308e+03	0	1.760470e-03
5.000000e+07	1.288068e+14	0.000000e+00	5.978261e-01	2.123618e+15	1.324059e+14	1.391753e+14	1.662416e+04	4.416723e+03	3.357302e+03	0	1.728894e-03
6.000000e+07	1.221279e+14	0.000000e+00	5.978261e-01	2.015144e+15	1.597352e+14	1.384116e+14	1.636471e+04	4.548529e+03	3.457492e+03	0	1.698480e-03
7.000000e+07	1.159108e+14	0.000000e+00	5.978261e-01	1.914156e+15	1.889280e+14	1.376537e+14	1.611824e+04	4.671772e+03	3.551173e+03	0	1.669155e-03
8.000000e+07	1.101145e+14	0.000000e+00	5.978261e-01	1.819993e+15	2.196160e+14	1.369014e+14	1.588387e+04	4.786813e+03	3.638620e+03	0	1.640855e-03
9.000000e+07	1.047032e+14	0.000000e+00	5.978261e-01	1.732070e+15	2.514147e+14	1.361547e+14	1.566081e+04	4.893996e+03	3.720094e+03	0	1.613524e-03
1.000000e+08	9.964480e+13	0.000000e+00	5.978261e-01	1.649873e+15	2.839362e+14	1.354136e+14	1.544831e+04	4.993654e+03	3.795847e+03	0	1.587110e-03
1.100000e+08	9.491102e+13	0.000000e+00	5.978261e-01	1.572939e+15	3.168012e+14	1.346779e+14	1.524572e+04	5.086109e+03	3.866125e+03	0	1.561568e-03
1.200000e+08	9.047643e+13	0.000000e+00	5.978261e-01	1.500858e+15	3.496481e+14	1.339477e+14	1.505241e+04	5.171681e+03	3.931171e+03	0	1.536859e-03
1.300000e+08	8.631824e+13	0.000000e+00	5.978261e-01	1.433261e+15	3.821410e+14	1.332229e+14	1.486780e+04	5.250682e+03	3.991222e+03	0	1.512944e-03
1.400000e+08	8.241587e+13	0.000000e+00	5.978261e-01	1.369814e+15	4.139755e+14	1.325035e+14	1.469138e+04	5.323424e+03	4.046516e+03	0	1.489792e-03
1.500000e+08	7.875066e+13	0.000000e+00	5.978261e-01	1.310215e+15	4.448821e+14	1.317894e+14	1.452263e+04	5.390216e+03	4.097287e+03	0	1.467372e-03
1.600000e+08	7.530563e+13	0.000000e+00	5.978261e-01	1.254188e+15	4.746295e+14	1.310805e+14	1.436112e+04	5.451363e+03	4.143767e+03	0	1.445655e-03
1.700000e+08	7.206527e+13	0.000000e+00	5.978261e-01	1.201482e+15	5.030242e+14	1.303769e+14	1.420641e+04	5.507166e+03	4.186184e+03	0	1.424615e-03
1.800000e+08	6.901535e+13	0.000000e+00	5.978261e-01	1.151866e+15	5.299104e+14	1.296785e+14	1.405810e+04	5.557920e+03	4.224765e+03	0	1.404227e-03
1.900000e+08	6.614279e+13	0.000000e+00	5.978261e-01	1.105128e+15	5.551696e+14	1.289852e+14	1.391583e+04	5.603918e+03	4.259729e+03	0	1.384468e-03
2.000000e+08	6.343552e+13	0.000000e+00	5.978261e-01	1.061074e+15	5.787158e+14	1.282971e+14	1.377925e+04	5.645441e+03	4.291292e+03	0	1.365315e-03
2.100000e+08	6.088242e+13	0.000000e+00	5.978261e-01	1.019521e+15	6.004950e+14	1.276140e+14	1.364805e+04	5.682767e+03	4.319665e+03	0	1.346747e-03
2.200000e+08	5.847316e+13	0.000000e+00	5.978261e-01	9.803028e+14	6.204810e+14	1.269359e+14	1.352191e+04	5.716162e+03	4.345050e+03	0	1.328743e-03
2.300000e+08	5.619820e+13	0.000000e+00	5.978261e-01	9.432647e+14	6.386718e+14	1.262627e+14	1.340057e+04	5.745884e+03	4.367643e+03	0	1.311282e-03
2.400000e+08	5.404867e+13	0.000000e+00	5.978261e-01	9.082629e+14	6.550863e+14	1.255946e+14	1.328375e+04	5.772181e+03	4.387631e+03	0	1.294346e-03
2.500000e+08	5.201634e+13	0.000000e+00	5.978261e-01	8.751639e+14	6.697611e+14	1.249313e+14	1.317121e+04	5.795288e+03	4.405196e+03	0	1.277915e-03
2.600000e+08	5.009357e+13	0.000000e+00	5.978261e-01	8.438436e+14	6.827473e+14	1.242728e+14	1.306272e+04	5.815432e+03	4.420508e+03	0	1.261971e-03
2.700000e+08	4.827325e+13	0.000000e+00	5.978261e-01	8.141870e+14	6.941074e+14	1.236192e+14	1.295807e+04	5.832826e+03	4.433730e+03	0	1.246496e-03
2.800000e+08	4.654878e+13	0.000000e+00	5.978261e-01	7.860867e+14	7.039124e+14	1.229704e+14	1.285706e+04	5.847675e+03	4.445017e+03	0	1.231473e-03
2.900000e+08	4.491401e+13	0.000000e+00	5.978261e-01	7.594433e+14	7.122400e+14	1.223263e+14	1.275949e+04	5.860168e+03	4.454514e+03	0	1.216885e-03
3.000000e+08	4.336323e+13	0.000000e+00	5.978261e-01	7.341641e+14	7.191723e+14	1.216868e+14	1.266520e+04	5.870488e+03	4.462358e+03	0	1.202715e-03
3.100000e+08	4.189114e+13	0.000000e+00	5.978261e-01	7.101628e+14	7.247934e+14	1.210521e+14	1.257400e+04	5.878803e+03	4.468679e+03	0	1.188948e-03
3.200000e+08	4.049278e+13	0.000000e+00	5.978261e-01	6.873593e+14	7.291891e+14	1.204219e+14	1.248576e+04	5.885273e+03	4.473597e+03	0	1.175569e-03
3.300000e+08	3.916355e+13	0.000000e+00	5.978261e-01	6.656791e+14	7.324436e+14	1.197964e+14	1.240032e+04	5.890045e+03	4.477224e+03	0	1.162562e-03
3.400000e+08	3.789919e+13	0.000000e+00	5.978261e-01	6.450525e+14	7.346414e+14	1.191754e+14	1.231755e+04	5.893259e+03	4.479667e+03	0	1.149914e-03
3.500000e+08	3.669570e+13	0.000000e+00	5.978261e-01	6.254152e+14	7.358641e+14	1.185589e+14	1.223732e+04	5.895044e+03	4.481024e+03	0	1.137611e-03
3.600000e+08	3.554937e+13	0.000000e+00	5.978261e-01	6.067068e+14	7.361901e+14	1.179468e+14	1.215951e+04	5.895519e+03	4.481385e+03	0	1.125640e-03
3.700000e+08	3.445677e+13	0.000000e+00	5.978261e-01	5.888715e+14	7.356953e+14	1.173392e+14	1.208400e+04	5.894798e+03	4.480837e+03	0	1.113987e-03
3.800000e+08	3.341467e+13	0.000000e+00	5.978261e-01	5.718572e+14	7.344515e+14	1.167360e+14	1.201069e+04	5.892982e+03	4.479456e+03	0	1.102642e-03
3.900000e+08	3.242008e+13	0.000000e+00	5.978261e-01	5.556151e+14	7.325272e+14	1.161371e+14	1.193947e+04	5.890167e+03	4.477317e+03	0	1.091591e-03
4.000000e+08	3.147022e+13	0.000000e+00	5.978261e-01	5.401002e+14	7.299867e+14	1.155426e+14	1.187026e+04	5.886444e+03	4.474487e+03	0	1.080825e-03
4.100000e+08	3.056248e+13	0.000000e+00	5.978261e-01	5.252702e+14	7.268901e+14	1.149524e+14	1.180297e+04	5.881893e+03	4.471027e+03	0	1.070331e-03
4.200000e+08	2.969444e+13	0.000000e+00	5.978261e-01	5.110858e+14	7.232946e+14	1.143664e+14	1.173751e+04	5.876590e+03	4.466997e+03	0	1.060101e-03
4.300000e+08	2.886385e+13	0.000000e+00	5.978261e-01	4.975103e+14	7.192520e+14	1.137846e+14	1.167380e+04	5.870606e+03	4.462448e+03	0	1.050123e-03
4.400000e+08	2.806859e+13	0.000000e+00	5.978261e-01	4.845095e+14	7.148114e+14	1.132070e+14	1.161176e+04	5.864005e+03	4.457430e+03	0	1.040389e-03
4.500000e+08	2.730670e+13	0.000000e+00	5.978261e-01	4.720515e+14	7.100184e+14	1.126336e+14	1.155134e+04	5.856845e+03	4.451988e+03	0	1.030889e-03
4.600000e+08	2.657634e+13	0.000000e+00	5.978261e-01	4.601064e+14	7.049142e+14	1.120643e+14	1.149245e+04	5.849183e+03	4.446164e+03	0	1.021615e-03
4.700000e+08	2.587578e+13	0.000000e+00	5.978261e-01	4.486464e+14	6.995373e+14	1.114991e+14	1.143505e+04	5.841068e+03	4.439995e+03	0	1.012558e-03
4.800000e+08	2.520343e+13	0.000000e+00	5.978261e-01	4.376452e+14	6.939234e+14	1.109379e+14	1.137906e+04	5.832546e+03	4.433517e+03	0	1.003711e-03
4.900000e+08	2.455778e+13	0.000000e+00	5.978261e-01	4.270787e+14	6.881047e+14	1.103807e+14	1.132443e+04	5.823661e+03	4.426763e+03	0	9.950658e-04
5.000000e+08	2.393743e+13	0.000000e+00	5.978261e-01	4.169238e+14	6.821105e+14	1.098276e+14	1.127111e+04	5.814451e+03	4.419762e+03	0	9.866155e-04
5.100000e+08	2.334105e+13	0.000000e+00	5.978261e-01	4.071592e+14	6.759684e+14	1.092783e+14	1.121905e+04	5.804952e+03	4.412542e+03	0	9.783530e-04
5.200000e+08	2.276742e+13	0.000000e+00	5.978261e-01	3.977650e+14	6.697028e+14	1.087330e+14	1.116820e+04	5.795197e+03	4.405127e+03	0	9.702717e-04
5.300000e+08	2.221538e+13	0.000000e+00	5.978261e-01	3.887222e+14	6.633359e+14	1.081916e+14	1.111851e+04	5.785217e+03	4.397540e+03	0	9.623654e-04
5.400000e+08	2.168383e+13	0.000000e+00	5.978261e-01	3.800132e+14	6.568884e+14	1.076541e+14	1.106994e+04	5.775039e+03	4.389804e+03	0	9.546279e-04
5.500000e+08	2.117177e+13	0.000000e+00	5.978261e-01	3.716216e+14	6.503786e+14	1.071203e+14	1.102246e+04	5.764688e+03	4.381936e+03	0	9.470534e-04
5.600000e+08	2.067823e+13	0.000000e+00	5.978261e-01	3.635316e+14	6.438232e+14	1.065904e+14	1.097601e+04	5.754189e+03	4.373956e+03	0	9.396365e-04
5.700000e+08	2.020232e+13	0.000000e+00	5.978261e-01	3.557288e+14	6.372372e+14	1.060642e+14	1.093057e+04	5.743563e+03	4.365878e+03	0	9.323719e-04
5.800000e+08	1.974319e+13	0.000000e+00	5.978261e-01	3.481994e+14	6.306340e+14	1.055418e+14	1.088610e+04	5.732828e+03	4.357718e+03	0	9.252544e-04
5.900000e+08	1.930004e+13	0.000000e+00	5.978261e-01	3.409304e+14	6.240262e+14	1.050230e+14	1.084256e+04	5.722004e+03	4.349490e+03	0	9.182793e-04
6.000000e+08	1.887212e+13	0.000000e+00	5.978261e-01	3.339097e+14	6.174245e+14	1.045080e+14	1.079992e+04	5.711106e+03	4.341207e+03	0	9.114419e-04
6.100000e+08	1.845873e+13	0.000000e+00	5.978261e-01	3.271257e+14	6.108384e+14	1.039965e+14	1.075816e+04	5.700150e+03	4.332878e+03	0	9.047377e-04
6.200000e+08	1.805920e+13	0.000000e+00	5.978261e-01	3.205677e+14	6.042774e+14	1.034887e+14	1.071724e+04	5.689148e+03	4.324516e+03	0	8.981624e-04
6.300000e+08	1.767290e+13	0.000000e+00	5.978261e-01	3.142254e+14	5.977483e+14	1.029845e+14	1.067713e+04	5.678115e+03	4.316129e+03	0	8.917121e-04
6.400000e+08	1.729924e+13	0.000000e+00	5.978261e-01	3.080892e+14	5.912587e+14	1.024838e+14	1.063781e+04	5.667060e+03	4.307726e+03	0	8.853828e-04
6.500000e+08	1.693766e+13	0.000000e+00	5.978261e-01	3.021500e+14	5.848145e+14	1.019867e+14	1.059926e+04	5.655995e+03	4.299315e+03	0	8.791707e-04
6.600000e+08	1.658763e+13	0.000000e+00	5.978261e-01	2.963991e+14	5.784208e+14	1.014930e+14	1.056144e+04	5.644929e+03	4.290903e+03	0	8.730722e-04
6.700000e+08	1.624865e+13	0.000000e+00	5.978261e-01	2.908285e+14	5.720827e+14	1.010029e+14	1.052434e+04	5.633870e+03	4.282497e+03	0	8.670840e-04
6.800000e+08	1.592024e+13	0.000000e+00	5.978261e-01	2.854304e+14	5.658042e+14	1.005161e+14	1.048793e+04	5.622828e+03	4.274103e+03	0	8.612026e-04
6.900000e+08	1.560197e+13	0.000000e+00	5.978261e-01	2.801975e+14	5.595886e+14	1.000328e+14	1.045219e+04	5.611807e+03	4.265726e+03	0	8.554249e-04
7.000000e+08	1.529339e+13	0.000000e+00	5.978261e-01	2.751230e+14	5.534393e+14	9.955288e+13	1.041710e+04	5.600816e+03	4.257371e+03	0	8.497478e-04
7.100000e+08	1.499412e+13	0.000000e+00	5.978261e-01	2.702003e+14	5.473587e+14	9.907631e+13	1.038265e+04	5.589860e+03	4.249043e+03	0	8.441684e-04
7.200000e+08	1.470377e+13	0.000000e+00	5.978261e-01	2.654232e+14	5.413491e+14	9.860307e+13	1.034881e+04	5.578944e+03	4.240746e+03	0	8.386838e-04
7.300000e+08	1.442197e+13	0.000000e+00	5.978261e-01	2.607858e+14	5.354122e+14	9.813314e+13	1.031556e+04	5.568073e+03	4.232482e+03	0	8.332915e-04
7.400000e+08	1.414839e+13	0.000000e+00	5.978261e-01	2.562824e+14	5.295498e+14	9.766649e+13	1.028289e+04	5.557252e+03	4.224257e+03	0	8.279887e-04
7.500000e+08	1.388269e+13	0.000000e+00	5.978261e-01	2.519079e+14	5.237628e+14	9.720309e+13	1.025078e+04	5.546484e+03	4.216072e+03	0	8.227729e-04
7.600000e+08	1.362457e+13	0.000000e+00	5.978261e-01	2.476571e+14	5.180523e+14	9.674292e+13	1.021922e+04	5.535773e+03	4.207930e+03	0	8.176417e-04
7.700000e+08	1.337374e+13	0.000000e+00	5.978261e-01	2.435252e+14	5.124190e+14	9.628596e+13	1.018818e+04	5.525121e+03	4.199833e+03	0	8.125928e-04
7.800000e+08	1.312990e+13	0.000000e+00	5.978261e-01	2.395077e+14	5.068633e+14	9.583217e+13	1.015766e+04	5.514533e+03	4.191784e+03	0	8.076240e-04
7.900000e+08	1.289280e+13	0.000000e+00	5.978261e-01	2.356003e+14	5.013855e+14	9.538153e+13	1.012764e+04	5.504009e+03	4.183785e+03	0	8.027331e-04
8.000000e+08	1.266218e+13	0.000000e+00	5.978261e-01	2.317988e+14	4.959859e+14	9.493401e+13	1.009811e+04	5.493553e+03	4.175837e+03	0	7.979180e-04
8.100000e+08	1.243780e+13	0.000000e+00	5.978261e-01	2.280992e+14	4.906642e+14	9.448960e+13	1.006905e+04	5.483166e+03	4.167942e+03	0	7.931767e-04
8.200000e+08	1.221943e+13	0.000000e+00	5.978261e-01	2.244977e+14	4.854204e+14	9.404826e+13	1.004046e+04	5.472850e+03	4.160100e+03	0	7.885073e-04
8.300000e+08	1.200684e+13	0.000000e+00	5.978261e-01	2.209909e+14	4.802539e+14	9.360998e+13	1.001231e+04	5.462607e+03	4.152314e+03	0	7.839079e-04
8.400000e+08	1.179983e+13	0.000000e+00	5.978261e-01	2.175753e+14	4.751648e+14	9.317472e+13	9.984600e+03	5.452437e+03	4.144584e+03	0	7.793767e-04
8.500000e+08	1.159820e+13	0.000000e+00	5.978261e-01	2.142477e+14	4.701520e+14	9.274247e+13	9.957316e+03	5.442342e+03	4.136910e+03	0	7.749119e-04
8.600000e+08	1.140176e+13	0.000000e+00	5.978261e-01	2.110048e+14	4.652153e+14	9.231319e+13	9.930446e+03	5.432323e+03	4.129294e+03	0	7.705120e-04
8.700000e+08	1.121032e+13	0.000000e+00	5.978261e-01	2.078438e+14	4.603539e+14	9.188687e+13	9.903982e+03	5.422381e+03	4.121737e+03	0	7.661752e-04
8.800000e+08	1.102371e+13	0.000000e+00	5.978261e-01	2.047617e+14	4.555671e+14	9.146348e+13	9.877912e+03	5.412515e+03	4.114237e+03	0	7.619000e-04
8.900000e+08	1.084176e+13	0.000000e+00	5.978261e-01	2.017560e+14	4.508541e+14	9.104300e+13	9.852226e+03	5.402727e+03	4.106797e+03	0	7.576850e-04
9.000000e+08	1.066431e+13	0.000000e+00	5.978261e-01	1.988239e+14	4.462139e+14	9.062541e+13	9.826916e+03	5.393017e+03	4.099416e+03	0	7.535285e-04
9.100000e+08	1.049121e+13	0.000000e+00	5.978261e-01	1.959629e+14	4.416458e+14	9.021068e+13	9.801971e+03	5.383385e+03	4.092095e+03	0	7.494293e-04
9.200000e+08	1.032232e+13	0.000000e+00	5.978261e-01	1.931708e+14	4.371489e+14	8.979879e+13	9.777384e+03	5.373832e+03	4.084833e+03	0	7.453859e-04
9.300000e+08	1.015749e+13	0.000000e+00	5.978261e-01	1.904452e+14	4.327221e+14	8.938972e+13	9.753145e+03	5.364357e+03	4.077630e+03	0	7.413971e-04
9.400000e+08	9.996586e+12	0.000000e+00	5.978261e-01	1.877839e+14	4.283644e+14	8.898344e+13	9.729247e+03	5.354960e+03	4.070488e+03	0	7.374615e-04
9.500000e+08	9.839485e+12	0.000000e+00	5.978261e-01	1.851848e+14	4.240749e+14	8.857994e+13	9.705681e+03	5.345641e+03	4.063404e+03	0	7.335778e-04
9.600000e+08	9.686060e+12	0.000000e+00	5.978261e-01	1.826460e+14	4.198527e+14	8.817918e+13	9.682440e+03	5.336401e+03	4.056380e+03	0	7.297450e-04
9.700000e+08	9.536195e+12	0.000000e+00	5.978261e-01	1.801654e+14	4.156966e+14	8.778116e+13	9.659516e+03	5.327238e+03	4.049416e+03	0	7.259618e-04
9.800000e+08	9.389775e+12	0.000000e+00	5.978261e-01	1.777413e+14	4.116055e+14	8.738585e+13	9.636901e+03	5.318154e+03	4.042510e+03	0	7.222272e-04
9.900000e+08	9.246692e+12	0.000000e+00	5.978261e-01	1.753719e+14	4.075785e+14	8.699322e+13	9.614590e+03	5.309146e+03	4.035663e+03	0	7.185399e-04
1.000000e+09	9.106842e+12	0.000000e+00	5.978261e-01	1.730554e+14	4.036146e+14	8.660326e+13	9.592575e+03	5.300215e+03	4.028874e+03	0	7.148990e-04
1.010000e+09	8.970123e+12	0.000000e+00	5.978261e-01	1.707902e+14	3.997125e+14	8.621594e+13	9.570849e+03	5.291361e+03	4.022144e+03	0	7.113034e-04
1.020000e+09	8.836440e+12	0.000000e+00	5.978261e-01	1.685748e+14	3.958715e+14	8.583124e+13	9.549406e+03	5.282582e+03	4.015471e+03	0	7.077521e-04
1.030000e+09	8.705699e+12	0.000000e+00	5.978261e-01	1.664076e+14	3.920903e+14	8.544915e+13	9.528240e+03	5.273880e+03	4.008856e+03	0	7.042443e-04
1.040000e+09	8.577813e+12	0.000000e+00	5.978261e-01	1.642872e+14	3.883678e+14	8.506964e+13	9.507345e+03	5.265252e+03	4.002297e+03	0	7.007788e-04
1.050000e+09	8.452694e+12	0.000000e+00	5.978261e-01	1.622122e+14	3.847033e+14	8.469270e+13	9.486715e+03	5.256698e+03	3.995796e+03	0	6.973548e-04
1.060000e+09	8.330262e+12	0.000000e+00	5.978261e-01	1.601812e+14	3.810955e+14	8.431830e+13	9.466345e+03	5.248218e+03	3.989350e+03	0	6.939715e-04
1.070000e+09	8.210435e+12	0.000000e+00	5.978261e-01	1.581930e+14	3.775436e+14	8.394641e+13	9.446229e+03	5.239812e+03	3.982960e+03	0	6.906279e-04
1.080000e+09	8.093139e+12	0.000000e+00	5.978261e-01	1.562463e+14	3.740464e+14	8.357704e+13	9.426361e+03	5.231478e+03	3.976625e+03	0	6.873233e-04
1.090000e+09	7.978298e+12	0.000000e+00	5.978261e-01	1.543399e+14	3.706029e+14	8.321014e+13	9.406736e+03	5.223216e+03	3.970345e+03	0	6.840568e-04
1.100000e+09	7.865844e+12	0.000000e+00	5.978261e-01	1.524726e+14	3.672123e+14	8.284571e+13	9.387350e+03	5.215025e+03	3.964119e+03	0	6.808277e-04
1.110000e+09	7.755707e+12	0.000000e+00	5.978261e-01	1.506433e+14	3.638735e+14	8.248372e+13	9.368198e+03	5.206905e+03	3.957946e+03	0	6.776351e-04
1.120000e+09	7.647821e+12	0.000000e+00	5.978261e-01	1.488510e+14	3.605855e+14	8.212416e+13	9.349274e+03	5.198855e+03	3.951827e+03	0	6.744783e-04
1.130000e+09	7.542124e+12	0.000000e+00	5.978261e-01	1.470946e+14	3.573476e+14	8.176700e+13	9.330575e+03	5.190874e+03	3.945761e+03	0	6.713567e-04
1.140000e+09	7.438553e+12	0.000000e+00	5.978261e-01	1.453732e+14	3.541586e+14	8.141223e+13	9.312095e+03	5.182962e+03	3.939746e+03	0	6.682694e-04
1.150000e+09	7.337051e+12	0.000000e+00	5.978261e-01	1.436857e+14	3.510177e+14	8.105983e+13	9.293831e+03	5.175118e+03	3.933783e+03	0	6.652159e-04
1.160000e+09	7.237560e+12	0.000000e+00	5.978261e-01	1.420312e+14	3.479241e+14	8.070978e+13	9.275778e+03	5.167340e+03	3.927872e+03	0	6.621954e-04
1.170000e+09	7.140025e+12	0.000000e+00	5.978261e-01	1.404088e+14	3.448767e+14	8.036206e+13	9.257932e+03	5.159629e+03	3.922010e+03	0	6.592073e-04
1.180000e+09	7.044394e+12	0.000000e+00	5.978261e-01	1.388177e+14	3.418749e+14	8.001666e+13	9.240289e+03	5.151984e+03	3.916199e+03	0	6.562510e-04
1.190000e+09	6.950614e+12	0.000000e+00	5.978261e-01	1.372571e+14	3.389176e+14	7.967355e+13	9.222845e+03	5.144404e+03	3.910437e+03	0	6.533258e-04
1.200000e+09	6.858637e+12	0.000000e+00	5.978261e-01	1.357260e+14	3.360040e+14	7.933272e+13	9.205597e+03	5.136888e+03	3.904724e+03	0	6.504312e-04
1.210000e+09	6.768415e+12	0.000000e+00	5.978261e-01	1.342238e+14	3.331334e+14	7.899415e+13	9.188540e+03	5.129436e+03	3.899059e+03	0	6.475666e-04
1.220000e+09	6.679901e+12	0.000000e+00	5.978261e-01	1.327497e+14	3.303050e+14	7.865782e+13	9.171672e+03	5.122047e+03	3.893442e+03	0	6.447313e-04
1.230000e+09	6.593052e+12	0.000000e+00	5.978261e-01	1.313029e+14	3.275179e+14	7.832372e+13	9.154987e+03	5.114719e+03	3.887873e+03	0	6.419249e-04
1.240000e+09	6.507823e+12	0.000000e+00	5.978261e-01	1.298828e+14	3.247714e+14	7.799183e+13	9.138484e+03	5.107454e+03	3.882350e+03	0	6.391469e-04
1.250000e+09	6.424174e+12	0.000000e+00	5.978261e-01	1.284886e+14	3.220646e+14	7.766213e+13	9.122159e+03	5.100249e+03	3.876873e+03	0	6.363966e-04
1.260000e+09	6.342063e+12	0.000000e+00	5.978261e-01	1.271197e+14	3.193968e+14	7.733460e+13	9.106009e+03	5.093104e+03	3.871442e+03	0	6.336736e-04
1.270000e+09	6.261451e+12	0.000000e+00	5.978261e-01	1.257755e+14	3.167675e+14	7.700923e+13	9.090029e+03	5.086018e+03	3.866056e+03	0	6.309773e-04
1.280000e+09	6.182302e+12	0.000000e+00	5.978261e-01	1.244554e+14	3.141756e+14	7.668600e+13	9.074219e+03	5.078991e+03	3.860715e+03	0	6.283074e-04
1.290000e+09	6.104578e+12	0.000000e+00	5.978261e-01	1.231587e+14	3.116208e+14	7.636489e+13	9.058573e+03	5.072022e+03	3.855417e+03	0	6.256632e-04
1.300000e+09	6.028244e+12	0.000000e+00	5.978261e-01	1.218848e+14	3.091021e+14	7.604589e+13	9.043090e+03	5.065111e+03	3.850163e+03	0	6.230444e-04
1.310000e+09	5.953265e+12	0.000000e+00	5.978261e-01	1.206333e+14	3.066189e+14	7.572898e+13	9.027767e+03	5.058256e+03	3.844953e+03	0	6.204505e-04
1.320000e+09	5.879609e+12	0.000000e+00	5.978261e-01	1.194035e+14	3.041706e+14	7.541415e+13	9.012600e+03	5.051457e+03	3.839784e+03	0	6.178811e-04
1.330000e+09	5.807242e+12	0.000000e+00	5.978261e-01	1.181950e+14	3.017565e+14	7.510138e+13	8.997587e+03	5.044713e+03	3.834658e+03	0	6.153356e-04
1.340000e+09	5.736135e+12	0.000000e+00	5.978261e-01	1.170072e+14	2.993760e+14	7.479065e+13	8.982726e+03	5.038023e+03	3.829573e+03	0	6.128138e-04
1.350000e+09	5.666256e+12	0.000000e+00	5.978261e-01	1.158396e+14	2.970284e+14	7.448195e+13	8.968014e+03	5.031388e+03	3.824530e+03	0	6.103152e-04
1.360000e+09	5.597577e+12	0.000000e+00	5.978261e-01	1.146918e+14	2.947132e+14	7.417526e+13	8.953448e+03	5.024806e+03	3.819527e+03	0	6.078393e-04
