#t		Qconv[W]	Ri[Rp]		R*[Rp]		Qc[W]		Qm[W]		Qr[W]		Tcmb[K]		Tl[K]		Tup[K]		RiFlag		Bs[T]
0.000000e+00	1.922978e+14	0.000000e+00	5.934066e-01	3.241363e+15	3.156596e+13	1.440298e+14	1.919986e+04	3.655554e+03	2.771750e+03	0	1.992644e-03
1.000000e+07	1.803172e+14	0.000000e+00	5.934066e-01	3.041602e+15	4.700395e+13	1.432317e+14	1.880570e+04	3.863272e+03	2.929247e+03	0	1.950372e-03
2.000000e+07	1.693597e+14	0.000000e+00	5.934066e-01	2.858874e+15	6.617096e+13	1.424397e+14	1.843515e+04	4.057466e+03	3.076491e+03	0	1.910036e-03
3.000000e+07	1.593097e+14	0.000000e+00	5.934066e-01	2.691255e+15	8.901946e+13	1.416535e+14	1.808627e+04	4.238964e+03	3.214109e+03	0	1.871482e-03
4.000000e+07	1.500682e+14	0.000000e+00	5.934066e-01	2.537097e+15	1.153627e+14	1.408733e+14	1.775733e+04	4.408481e+03	3.342642e+03	0	1.834571e-03
5.000000e+07	1.415496e+14	0.000000e+00	5.934066e-01	2.394979e+15	1.448974e+14	1.400988e+14	1.744677e+04	4.566645e+03	3.462566e+03	0	1.799179e-03
6.000000e+07	1.336803e+14	0.000000e+00	5.934066e-01	2.263675e+15	1.772292e+14	1.393301e+14	1.715321e+04	4.714017e+03	3.574308e+03	0	1.765201e-03
7.000000e+07	1.263964e+14	0.000000e+00	5.934066e-01	2.142123e+15	2.118969e+14	1.385672e+14	1.687537e+04	4.851109e+03	3.678255e+03	0	1.732540e-03
8.000000e+07	1.196423e+14	0.000000e+00	5.934066e-01	2.029396e+15	2.483975e+14	1.378099e+14	1.661214e+04	4.978397e+03	3.774768e+03	0	1.701113e-03
9.000000e+07	1.133694e+14	0.000000e+00	5.934066e-01	1.924685e+15	2.862075e+14	1.370582e+14	1.636247e+04	5.096331e+03	3.864190e+03	0	1.670848e-03
1.000000e+08	1.075349e+14	0.000000e+00	5.934066e-01	1.827280e+15	3.248037e+14	1.363122e+14	1.612543e+04	5.205345e+03	3.946847e+03	0	1.641678e-03
1.100000e+08	1.021011e+14	0.000000e+00	5.934066e-01	1.736553e+15	3.636796e+14	1.355716e+14	1.590015e+04	5.305859e+03	4.023060e+03	0	1.613547e-03
1.200000e+08	9.703444e+13	0.000000e+00	5.934066e-01	1.651944e+15	4.023586e+14	1.348366e+14	1.568586e+04	5.398285e+03	4.093140e+03	0	1.586403e-03
1.300000e+08	9.230511e+13	0.000000e+00	5.934066e-01	1.572957e+15	4.404060e+14	1.341070e+14	1.548181e+04	5.483030e+03	4.157397e+03	0	1.560200e-03
1.400000e+08	8.788625e+13	0.000000e+00	5.934066e-01	1.499145e+15	4.774352e+14	1.333828e+14	1.528736e+04	5.560495e+03	4.216133e+03	0	1.534895e-03
1.500000e+08	8.375368e+13	0.000000e+00	5.934066e-01	1.430105e+15	5.131125e+14	1.326639e+14	1.510188e+04	5.631074e+03	4.269648e+03	0	1.510450e-03
1.600000e+08	7.988550e+13	0.000000e+00	5.934066e-01	1.365473e+15	5.471597e+14	1.319504e+14	1.492480e+04	5.695158e+03	4.318238e+03	0	1.486829e-03
1.700000e+08	7.626181e+13	0.000000e+00	5.934066e-01	1.304917e+15	5.793535e+14	1.312421e+14	1.475560e+04	5.753128e+03	4.362192e+03	0	1.463999e-03
1.800000e+08	7.286446e+13	0.000000e+00	5.934066e-01	1.248135e+15	6.095226e+14	1.305391e+14	1.459378e+04	5.805358e+03	4.401795e+03	0	1.441928e-03
1.900000e+08	6.967685e+13	0.000000e+00	5.934066e-01	1.194850e+15	6.375457e+14	1.298412e+14	1.443891e+04	5.852212e+03	4.437321e+03	0	1.420587e-03
2.000000e+08	6.668373e+13	0.000000e+00	5.934066e-01	1.144808e+15	6.633462e+14	1.291485e+14	1.429055e+04	5.894045e+03	4.469040e+03	0	1.399947e-03
2.100000e+08	6.387112e+13	0.000000e+00	5.934066e-01	1.097776e+15	6.868886e+14	1.284608e+14	1.414832e+04	5.931196e+03	4.497209e+03	0	1.379981e-03
2.200000e+08	6.122612e+13	0.000000e+00	5.934066e-01	1.053540e+15	7.081707e+14	1.277782e+14	1.401185e+04	5.963993e+03	4.522077e+03	0	1.360663e-03
2.300000e+08	5.873686e+13	0.000000e+00	5.934066e-01	1.011901e+15	7.272213e+14	1.271006e+14	1.388080e+04	5.992751e+03	4.543882e+03	0	1.341967e-03
2.400000e+08	5.639237e+13	0.000000e+00	5.934066e-01	9.726769e+14	7.440927e+14	1.264280e+14	1.375487e+04	6.017766e+03	4.562849e+03	0	1.323869e-03
2.500000e+08	5.418255e+13	0.000000e+00	5.934066e-01	9.356993e+14	7.588577e+14	1.257603e+14	1.363376e+04	6.039323e+03	4.579194e+03	0	1.306346e-03
2.600000e+08	5.209803e+13	0.000000e+00	5.934066e-01	9.008122e+14	7.716038e+14	1.250975e+14	1.351720e+04	6.057689e+03	4.593120e+03	0	1.289374e-03
2.700000e+08	5.013019e+13	0.000000e+00	5.934066e-01	8.678718e+14	7.824298e+14	1.244395e+14	1.340492e+04	6.073117e+03	4.604818e+03	0	1.272931e-03
2.800000e+08	4.827104e+13	0.000000e+00	5.934066e-01	8.367448e+14	7.914429e+14	1.237864e+14	1.329671e+04	6.085844e+03	4.614468e+03	0	1.256996e-03
2.900000e+08	4.651319e+13	0.000000e+00	5.934066e-01	8.073083e+14	7.987549e+14	1.231380e+14	1.319233e+04	6.096092e+03	4.622238e+03	0	1.241548e-03
3.000000e+08	4.484980e+13	0.000000e+00	5.934066e-01	7.794484e+14	8.044794e+14	1.224943e+14	1.309158e+04	6.104068e+03	4.628286e+03	0	1.226569e-03
3.100000e+08	4.327457e+13	0.000000e+00	5.934066e-01	7.530597e+14	8.087312e+14	1.218554e+14	1.299427e+04	6.109966e+03	4.632758e+03	0	1.212037e-03
3.200000e+08	4.178165e+13	0.000000e+00	5.934066e-01	7.280449e+14	8.116227e+14	1.212211e+14	1.290021e+04	6.113964e+03	4.635789e+03	0	1.197936e-03
3.300000e+08	4.036562e+13	0.000000e+00	5.934066e-01	7.043136e+14	8.132650e+14	1.205913e+14	1.280925e+04	6.116230e+03	4.637507e+03	0	1.184247e-03
3.400000e+08	3.902147e+13	0.000000e+00	5.934066e-01	6.817825e+14	8.137637e+14	1.199662e+14	1.272122e+04	6.116917e+03	4.638028e+03	0	1.170953e-03
3.500000e+08	3.774456e+13	0.000000e+00	5.934066e-01	6.603742e+14	8.132208e+14	1.193456e+14	1.263598e+04	6.116169e+03	4.637461e+03	0	1.158039e-03
3.600000e+08	3.653061e+13	0.000000e+00	5.934066e-01	6.400171e+14	8.117332e+14	1.187295e+14	1.255339e+04	6.114116e+03	4.635905e+03	0	1.145488e-03
3.700000e+08	3.537563e+13	0.000000e+00	5.934066e-01	6.206447e+14	8.093925e+14	1.181179e+14	1.247331e+04	6.110881e+03	4.633452e+03	0	1.133286e-03
3.800000e+08	3.427592e+13	0.000000e+00	5.934066e-01	6.021957e+14	8.062844e+14	1.175106e+14	1.239564e+04	6.106575e+03	4.630187e+03	0	1.121419e-03
3.900000e+08	3.322808e+13	0.000000e+00	5.934066e-01	5.846128e+14	8.024892e+14	1.169078e+14	1.232026e+04	6.101300e+03	4.626187e+03	0	1.109873e-03
4.000000e+08	3.222891e+13	0.000000e+00	5.934066e-01	5.678433e+14	7.980817e+14	1.163094e+14	1.224705e+04	6.095151e+03	4.621525e+03	0	1.098635e-03
4.100000e+08	3.127548e+13	0.000000e+00	5.934066e-01	5.518379e+14	7.931304e+14	1.157152e+14	1.217593e+04	6.088215e+03	4.616266e+03	0	1.087693e-03
4.200000e+08	3.036506e+13	0.000000e+00	5.934066e-01	5.365511e+14	7.876997e+14	1.151253e+14	1.210679e+04	6.080571e+03	4.610470e+03	0	1.077035e-03
4.300000e+08	2.949509e+13	0.000000e+00	5.934066e-01	5.219404e+14	7.818483e+14	1.145397e+14	1.203954e+04	6.072292e+03	4.604193e+03	0	1.066649e-03
4.400000e+08	2.866322e+13	0.000000e+00	5.934066e-01	5.079664e+14	7.756296e+14	1.139583e+14	1.197412e+04	6.063444e+03	4.597484e+03	0	1.056525e-03
4.500000e+08	2.786724e+13	0.000000e+00	5.934066e-01	4.945924e+14	7.690934e+14	1.133811e+14	1.191043e+04	6.054089e+03	4.590391e+03	0	1.046654e-03
4.600000e+08	2.710510e+13	0.000000e+00	5.934066e-01	4.817843e+14	7.622845e+14	1.128080e+14	1.184840e+04	6.044283e+03	4.582955e+03	0	1.037024e-03
4.700000e+08	2.637491e+13	0.000000e+00	5.934066e-01	4.695102e+14	7.552441e+14	1.122390e+14	1.178796e+04	6.034075e+03	4.575215e+03	0	1.027627e-03
4.800000e+08	2.567489e+13	0.000000e+00	5.934066e-01	4.577405e+14	7.480091e+14	1.116741e+14	1.172906e+04	6.023514e+03	4.567207e+03	0	1.018453e-03
4.900000e+08	2.500336e+13	0.000000e+00	5.934066e-01	4.464475e+14	7.406136e+14	1.111132e+14	1.167161e+04	6.012641e+03	4.558963e+03	0	1.009496e-03
5.000000e+08	2.435880e+13	0.000000e+00	5.934066e-01	4.356054e+14	7.330875e+14	1.105564e+14	1.161557e+04	6.001496e+03	4.550513e+03	0	1.000745e-03
5.100000e+08	2.373975e+13	0.000000e+00	5.934066e-01	4.251901e+14	7.254589e+14	1.100035e+14	1.156089e+04	5.990113e+03	4.541882e+03	0	9.921949e-04
5.200000e+08	2.314486e+13	0.000000e+00	5.934066e-01	4.151790e+14	7.177522e+14	1.094546e+14	1.150749e+04	5.978526e+03	4.533096e+03	0	9.838370e-04
5.300000e+08	2.257286e+13	0.000000e+00	5.934066e-01	4.055511e+14	7.099900e+14	1.089096e+14	1.145535e+04	5.966764e+03	4.524178e+03	0	9.756646e-04
5.400000e+08	2.202259e+13	0.000000e+00	5.934066e-01	3.962865e+14	7.021920e+14	1.083684e+14	1.140441e+04	5.954853e+03	4.515146e+03	0	9.676710e-04
5.500000e+08	2.149291e+13	0.000000e+00	5.934066e-01	3.873668e+14	6.943761e+14	1.078312e+14	1.135462e+04	5.942818e+03	4.506021e+03	0	9.598501e-04
5.600000e+08	2.098281e+13	0.000000e+00	5.934066e-01	3.787747e+14	6.865583e+14	1.072977e+14	1.130594e+04	5.930681e+03	4.496819e+03	0	9.521957e-04
5.700000e+08	2.049130e+13	0.000000e+00	5.934066e-01	3.704939e+14	6.787528e+14	1.067680e+14	1.125834e+04	5.918463e+03	4.487555e+03	0	9.447020e-04
5.800000e+08	2.001748e+13	0.000000e+00	5.934066e-01	3.625090e+14	6.709722e+14	1.062421e+14	1.121176e+04	5.906182e+03	4.478243e+03	0	9.373636e-04
5.900000e+08	1.956047e+13	0.000000e+00	5.934066e-01	3.548059e+14	6.632275e+14	1.057200e+14	1.116619e+04	5.893855e+03	4.468896e+03	0	9.301751e-04
6.000000e+08	1.911948e+13	0.000000e+00	5.934066e-01	3.473710e+14	6.555286e+14	1.052015e+14	1.112157e+04	5.881496e+03	4.459525e+03	0	9.231316e-04
6.100000e+08	1.869374e+13	0.000000e+00	5.934066e-01	3.401915e+14	6.478842e+14	1.046866e+14	1.107789e+04	5.869120e+03	4.450142e+03	0	9.162283e-04
6.200000e+08	1.828254e+13	0.000000e+00	5.934066e-01	3.332557e+14	6.403019e+14	1.041755e+14	1.103510e+04	5.856739e+03	4.440754e+03	0	9.094605e-04
6.300000e+08	1.788521e+13	0.000000e+00	5.934066e-01	3.265522e+14	6.327880e+14	1.036679e+14	1.099318e+04	5.844365e+03	4.431371e+03	0	9.028238e-04
6.400000e+08	1.750111e+13	0.000000e+00	5.934066e-01	3.200704e+14	6.253485e+14	1.031639e+14	1.095209e+04	5.832007e+03	4.422001e+03	0	8.963140e-04
6.500000e+08	1.712965e+13	0.000000e+00	5.934066e-01	3.138004e+14	6.179881e+14	1.026635e+14	1.091182e+04	5.819675e+03	4.412650e+03	0	8.899272e-04
6.600000e+08	1.677026e+13	0.000000e+00	5.934066e-01	3.077327e+14	6.107111e+14	1.021665e+14	1.087233e+04	5.807377e+03	4.403326e+03	0	8.836594e-04
6.700000e+08	1.642240e+13	0.000000e+00	5.934066e-01	3.018584e+14	6.035210e+14	1.016731e+14	1.083359e+04	5.795120e+03	4.394032e+03	0	8.775069e-04
6.800000e+08	1.608558e+13	0.000000e+00	5.934066e-01	2.961690e+14	5.964206e+14	1.011831e+14	1.079560e+04	5.782912e+03	4.384776e+03	0	8.714663e-04
6.900000e+08	1.575932e+13	0.000000e+00	5.934066e-01	2.906567e+14	5.894125e+14	1.006966e+14	1.075831e+04	5.770758e+03	4.375561e+03	0	8.655340e-04
7.000000e+08	1.544316e+13	0.000000e+00	5.934066e-01	2.853138e+14	5.824988e+14	1.002135e+14	1.072171e+04	5.758664e+03	4.366391e+03	0	8.597068e-04
7.100000e+08	1.513668e+13	0.000000e+00	5.934066e-01	2.801334e+14	5.756807e+14	9.973377e+13	1.068578e+04	5.746635e+03	4.357270e+03	0	8.539817e-04
7.200000e+08	1.483948e+13	0.000000e+00	5.934066e-01	2.751085e+14	5.689596e+14	9.925740e+13	1.065050e+04	5.734675e+03	4.348201e+03	0	8.483555e-04
7.300000e+08	1.455117e+13	0.000000e+00	5.934066e-01	2.702328e+14	5.623364e+14	9.878435e+13	1.061585e+04	5.722787e+03	4.339187e+03	0	8.428254e-04
7.400000e+08	1.427139e+13	0.000000e+00	5.934066e-01	2.655002e+14	5.558112e+14	9.831460e+13	1.058181e+04	5.710976e+03	4.330231e+03	0	8.373887e-04
7.500000e+08	1.399980e+13	0.000000e+00	5.934066e-01	2.609050e+14	5.493848e+14	9.784813e+13	1.054837e+04	5.699243e+03	4.321336e+03	0	8.320427e-04
7.600000e+08	1.373607e+13	0.000000e+00	5.934066e-01	2.564417e+14	5.430569e+14	9.738491e+13	1.051549e+04	5.687593e+03	4.312502e+03	0	8.267847e-04
7.700000e+08	1.347988e+13	0.000000e+00	5.934066e-01	2.521051e+14	5.368275e+14	9.692491e+13	1.048318e+04	5.676026e+03	4.303732e+03	0	8.216124e-04
7.800000e+08	1.323094e+13	0.000000e+00	5.934066e-01	2.478902e+14	5.306962e+14	9.646811e+13	1.045141e+04	5.664545e+03	4.295027e+03	0	8.165233e-04
7.900000e+08	1.298898e+13	0.000000e+00	5.934066e-01	2.437924e+14	5.246623e+14	9.601448e+13	1.042017e+04	5.653152e+03	4.286388e+03	0	8.115152e-04
8.000000e+08	1.275372e+13	0.000000e+00	5.934066e-01	2.398072e+14	5.187253e+14	9.556399e+13	1.038944e+04	5.641848e+03	4.277817e+03	0	8.065859e-04
8.100000e+08	1.252492e+13	0.000000e+00	5.934066e-01	2.359303e+14	5.128844e+14	9.511663e+13	1.035921e+04	5.630635e+03	4.269315e+03	0	8.017333e-04
8.200000e+08	1.230232e+13	0.000000e+00	5.934066e-01	2.321577e+14	5.071388e+14	9.467237e+13	1.032947e+04	5.619512e+03	4.260882e+03	0	7.969553e-04
8.300000e+08	1.208570e+13	0.000000e+00	5.934066e-01	2.284856e+14	5.014871e+14	9.423117e+13	1.030020e+04	5.608482e+03	4.252518e+03	0	7.922500e-04
8.400000e+08	1.187484e+13	0.000000e+00	5.934066e-01	2.249102e+14	4.959288e+14	9.379303e+13	1.027139e+04	5.597545e+03	4.244225e+03	0	7.876154e-04
8.500000e+08	1.166952e+13	0.000000e+00	5.934066e-01	2.214280e+14	4.904623e+14	9.335790e+13	1.024303e+04	5.586700e+03	4.236002e+03	0	7.830497e-04
8.600000e+08	1.146956e+13	0.000000e+00	5.934066e-01	2.180357e+14	4.850866e+14	9.292578e+13	1.021511e+04	5.575949e+03	4.227850e+03	0	7.785512e-04
8.700000e+08	1.127475e+13	0.000000e+00	5.934066e-01	2.147301e+14	4.798003e+14	9.249663e+13	1.018761e+04	5.565291e+03	4.219770e+03	0	7.741182e-04
8.800000e+08	1.108492e+13	0.000000e+00	5.934066e-01	2.115081e+14	4.746023e+14	9.207043e+13	1.016052e+04	5.554728e+03	4.211760e+03	0	7.697489e-04
8.900000e+08	1.089988e+13	0.000000e+00	5.934066e-01	2.083669e+14	4.694911e+14	9.164716e+13	1.013384e+04	5.544257e+03	4.203821e+03	0	7.654419e-04
9.000000e+08	1.071948e+13	0.000000e+00	5.934066e-01	2.053036e+14	4.644655e+14	9.122680e+13	1.010756e+04	5.533880e+03	4.195953e+03	0	7.611956e-04
9.100000e+08	1.054356e+13	0.000000e+00	5.934066e-01	2.023155e+14	4.595239e+14	9.080932e+13	1.008166e+04	5.523597e+03	4.188155e+03	0	7.570085e-04
9.200000e+08	1.037196e+13	0.000000e+00	5.934066e-01	1.994002e+14	4.546651e+14	9.039469e+13	1.005613e+04	5.513406e+03	4.180428e+03	0	7.528791e-04
9.300000e+08	1.020454e+13	0.000000e+00	5.934066e-01	1.965551e+14	4.498875e+14	8.998290e+13	1.003097e+04	5.503308e+03	4.172771e+03	0	7.488061e-04
9.400000e+08	1.004115e+13	0.000000e+00	5.934066e-01	1.937779e+14	4.451900e+14	8.957393e+13	1.000617e+04	5.493301e+03	4.165184e+03	0	7.447882e-04
9.500000e+08	9.881666e+12	0.000000e+00	5.934066e-01	1.910664e+14	4.405711e+14	8.916775e+13	9.981717e+03	5.483386e+03	4.157667e+03	0	7.408240e-04
9.600000e+08	9.725958e+12	0.000000e+00	5.934066e-01	1.884185e+14	4.360291e+14	8.876434e+13	9.957604e+03	5.473562e+03	4.150218e+03	0	7.369122e-04
9.700000e+08	9.573903e+12	0.000000e+00	5.934066e-01	1.858320e+14	4.315629e+14	8.836367e+13	9.933824e+03	5.463828e+03	4.142837e+03	0	7.330518e-04
9.800000e+08	9.425383e+12	0.000000e+00	5.934066e-01	1.833051e+14	4.271710e+14	8.796574e+13	9.910368e+03	5.454184e+03	4.135525e+03	0	7.292414e-04
9.900000e+08	9.280284e+12	0.000000e+00	5.934066e-01	1.808357e+14	4.228521e+14	8.757050e+13	9.887230e+03	5.444629e+03	4.128279e+03	0	7.254799e-04
1.000000e+09	9.138499e+12	0.000000e+00	5.934066e-01	1.784222e+14	4.186047e+14	8.717795e+13	9.864402e+03	5.435161e+03	4.121101e+03	0	7.217663e-04
1.010000e+09	8.999924e+12	0.000000e+00	5.934066e-01	1.760627e+14	4.144275e+14	8.678806e+13	9.841878e+03	5.425782e+03	4.113989e+03	0	7.180994e-04
1.020000e+09	8.864458e+12	0.000000e+00	5.934066e-01	1.737556e+14	4.103190e+14	8.640082e+13	9.819650e+03	5.416488e+03	4.106943e+03	0	7.144783e-04
1.030000e+09	8.732005e+12	0.000000e+00	5.934066e-01	1.714993e+14	4.062781e+14	8.601619e+13	9.797711e+03	5.407281e+03	4.099961e+03	0	7.109018e-04
1.040000e+09	8.602474e+12	0.000000e+00	5.934066e-01	1.692921e+14	4.023033e+14	8.563416e+13	9.776057e+03	5.398158e+03	4.093044e+03	0	7.073691e-04
1.050000e+09	8.475776e+12	0.000000e+00	5.934066e-01	1.671327e+14	3.983936e+14	8.525472e+13	9.754680e+03	5.389119e+03	4.086191e+03	0	7.038792e-04
1.060000e+09	8.351825e+12	0.000000e+00	5.934066e-01	1.650196e+14	3.945473e+14	8.487783e+13	9.733574e+03	5.380164e+03	4.079400e+03	0	7.004311e-04
1.070000e+09	8.230539e+12	0.000000e+00	5.934066e-01	1.629515e+14	3.907636e+14	8.450348e+13	9.712734e+03	5.371291e+03	4.072673e+03	0	6.970240e-04
1.080000e+09	8.111840e+12	0.000000e+00	5.934066e-01	1.609269e+14	3.870409e+14	8.413165e+13	9.692155e+03	5.362499e+03	4.066006e+03	0	6.936570e-04
1.090000e+09	7.995651e+12	0.000000e+00	5.934066e-01	1.589447e+14	3.833781e+14	8.376232e+13	9.671829e+03	5.353788e+03	4.059401e+03	0	6.903292e-04
1.100000e+09	7.881900e+12	0.000000e+00	5.934066e-01	1.570036e+14	3.797739e+14	8.339547e+13	9.651753e+03	5.345157e+03	4.052857e+03	0	6.870399e-04
1.110000e+09	7.770516e+12	0.000000e+00	5.934066e-01	1.551023e+14	3.762275e+14	8.303108e+13	9.631922e+03	5.336604e+03	4.046372e+03	0	6.837882e-04
1.120000e+09	7.661431e+12	0.000000e+00	5.934066e-01	1.532399e+14	3.727373e+14	8.266913e+13	9.612329e+03	5.328129e+03	4.039946e+03	0	6.805733e-04
1.130000e+09	7.554580e+12	0.000000e+00	5.934066e-01	1.514152e+14	3.693024e+14	8.230960e+13	9.592971e+03	5.319731e+03	4.033578e+03	0	6.773946e-04
1.140000e+09	7.449899e+12	0.000000e+00	5.934066e-01	1.496270e+14	3.659217e+14	8.195248e+13	9.573842e+03	5.311409e+03	4.027268e+03	0	6.742513e-04
1.150000e+09	7.347329e+12	0.000000e+00	5.934066e-01	1.478745e+14	3.625940e+14	8.159774e+13	9.554938e+03	5.303162e+03	4.021015e+03	0	6.711426e-04
1.160000e+09	7.246809e+12	0.000000e+00	5.934066e-01	1.461566e+14	3.593183e+14	8.124537e+13	9.536255e+03	5.294990e+03	4.014819e+03	0	6.680679e-04
1.170000e+09	7.148285e+12	0.000000e+00	5.934066e-01	1.444724e+14	3.560936e+14	8.089534e+13	9.517788e+03	5.286890e+03	4.008678e+03	0	6.650265e-04
1.180000e+09	7.051700e+12	0.000000e+00	5.934066e-01	1.428209e+14	3.529188e+14	8.054765e+13	9.499533e+03	5.278863e+03	4.002591e+03	0	6.620177e-04
1.190000e+09	6.957004e+12	0.000000e+00	5.934066e-01	1.412013e+14	3.497931e+14	8.020226e+13	9.481485e+03	5.270908e+03	3.996559e+03	0	6.590409e-04
1.200000e+09	6.864143e+12	0.000000e+00	5.934066e-01	1.396127e+14	3.467151e+14	7.985917e+13	9.463642e+03	5.263023e+03	3.990581e+03	0	6.560955e-04
1.210000e+09	6.773070e+12	0.000000e+00	5.934066e-01	1.380543e+14	3.436843e+14	7.951835e+13	9.445999e+03	5.255208e+03	3.984655e+03	0	6.531809e-04
1.220000e+09	6.683738e+12	0.000000e+00	5.934066e-01	1.365253e+14	3.406994e+14	7.917980e+13	9.428551e+03	5.247462e+03	3.978782e+03	0	6.502965e-04
1.230000e+09	6.596099e+12	0.000000e+00	5.934066e-01	1.350249e+14	3.377596e+14	7.884348e+13	9.411297e+03	5.239784e+03	3.972960e+03	0	6.474417e-04
1.240000e+09	6.510110e+12	0.000000e+00	5.934066e-01	1.335524e+14	3.348642e+14	7.850938e+13	9.394231e+03	5.232173e+03	3.967189e+03	0	6.446160e-04
1.250000e+09	6.425728e+12	0.000000e+00	5.934066e-01	1.321070e+14	3.320121e+14	7.817749e+13	9.377350e+03	5.224628e+03	3.961469e+03	0	6.418188e-04
1.260000e+09	6.342912e+12	0.000000e+00	5.934066e-01	1.306881e+14	3.292025e+14	7.784779e+13	9.360652e+03	5.217149e+03	3.955798e+03	0	6.390496e-04
1.270000e+09	6.261621e+12	0.000000e+00	5.934066e-01	1.292950e+14	3.264345e+14	7.752026e+13	9.344132e+03	5.209735e+03	3.950176e+03	0	6.363078e-04
1.280000e+09	6.181817e+12	0.000000e+00	5.934066e-01	1.279270e+14	3.237074e+14	7.719488e+13	9.327788e+03	5.202384e+03	3.944602e+03	0	6.335930e-04
1.290000e+09	6.103462e+12	0.000000e+00	5.934066e-01	1.265835e+14	3.210202e+14	7.687165e+13	9.311616e+03	5.195096e+03	3.939076e+03	0	6.309046e-04
1.300000e+09	6.026519e+12	0.000000e+00	5.934066e-01	1.252639e+14	3.183724e+14	7.655053e+13	9.295613e+03	5.187871e+03	3.933598e+03	0	6.282423e-04
1.310000e+09	5.950954e+12	0.000000e+00	5.934066e-01	1.239676e+14	3.157631e+14	7.623152e+13	9.279777e+03	5.180706e+03	3.928166e+03	0	6.256054e-04
1.320000e+09	5.876733e+12	0.000000e+00	5.934066e-01	1.226940e+14	3.131914e+14	7.591460e+13	9.264103e+03	5.173603e+03	3.922779e+03	0	6.229937e-04
1.330000e+09	5.803822e+12	0.000000e+00	5.934066e-01	1.214426e+14	3.106567e+14	7.559975e+13	9.248591e+03	5.166559e+03	3.917439e+03	0	6.204065e-04
1.340000e+09	5.732190e+12	0.000000e+00	5.934066e-01	1.202128e+14	3.081582e+14	7.528696e+13	9.233236e+03	5.159574e+03	3.912143e+03	0	6.178435e-04
1.350000e+09	5.661805e+12	0.000000e+00	5.934066e-01	1.190041e+14	3.056954e+14	7.497621e+13	9.218035e+03	5.152648e+03	3.906891e+03	0	6.153043e-04
1.360000e+09	5.592638e+12	0.000000e+00	5.934066e-01	1.178161e+14	3.032674e+14	7.466748e+13	9.202988e+03	5.145779e+03	3.901683e+03	0	6.127884e-04
