#t		Qconv[W]	Ri[Rp]		R*[Rp]		Qc[W]		Qm[W]		Qr[W]		Tcmb[K]		Tl[K]		Tup[K]		RiFlag		Bs[T]
0.000000e+00	2.226133e+14	0.000000e+00	5.934066e-01	3.625582e+15	3.083430e+13	1.515736e+14	2.000399e+04	3.707888e+03	2.794959e+03	0	2.087518e-03
1.000000e+07	2.086969e+14	0.000000e+00	5.934066e-01	3.401466e+15	4.693733e+13	1.507338e+14	1.958836e+04	3.929034e+03	2.961656e+03	0	2.043079e-03
2.000000e+07	1.959687e+14	0.000000e+00	5.934066e-01	3.196453e+15	6.724187e+13	1.499003e+14	1.919771e+04	4.135797e+03	3.117512e+03	0	2.000670e-03
3.000000e+07	1.842947e+14	0.000000e+00	5.934066e-01	3.008392e+15	9.174580e+13	1.490729e+14	1.882997e+04	4.329058e+03	3.263190e+03	0	1.960127e-03
4.000000e+07	1.735597e+14	0.000000e+00	5.934066e-01	2.835433e+15	1.202794e+14	1.482518e+14	1.848331e+04	4.509577e+03	3.399262e+03	0	1.921305e-03
5.000000e+07	1.636648e+14	0.000000e+00	5.934066e-01	2.675984e+15	1.525304e+14	1.474368e+14	1.815609e+04	4.678016e+03	3.526230e+03	0	1.884075e-03
6.000000e+07	1.545242e+14	0.000000e+00	5.934066e-01	2.528670e+15	1.880724e+14	1.466278e+14	1.784684e+04	4.834968e+03	3.644538e+03	0	1.848327e-03
7.000000e+07	1.460638e+14	0.000000e+00	5.934066e-01	2.392298e+15	2.263943e+14	1.458249e+14	1.755424e+04	4.980971e+03	3.754593e+03	0	1.813959e-03
8.000000e+07	1.382190e+14	0.000000e+00	5.934066e-01	2.265832e+15	2.669283e+14	1.450280e+14	1.727707e+04	5.116525e+03	3.856772e+03	0	1.780885e-03
9.000000e+07	1.309334e+14	0.000000e+00	5.934066e-01	2.148365e+15	3.090771e+14	1.442370e+14	1.701425e+04	5.242102e+03	3.951430e+03	0	1.749028e-03
1.000000e+08	1.241574e+14	0.000000e+00	5.934066e-01	2.039099e+15	3.522380e+14	1.434518e+14	1.676478e+04	5.358158e+03	4.038911e+03	0	1.718320e-03
1.100000e+08	1.178473e+14	0.000000e+00	5.934066e-01	1.937330e+15	3.958232e+14	1.426725e+14	1.652775e+04	5.465135e+03	4.119549e+03	0	1.688702e-03
1.200000e+08	1.119641e+14	0.000000e+00	5.934066e-01	1.842435e+15	4.392775e+14	1.418989e+14	1.630234e+04	5.563468e+03	4.193672e+03	0	1.660120e-03
1.300000e+08	1.064733e+14	0.000000e+00	5.934066e-01	1.753855e+15	4.820909e+14	1.411311e+14	1.608777e+04	5.653589e+03	4.261604e+03	0	1.632526e-03
1.400000e+08	1.013437e+14	0.000000e+00	5.934066e-01	1.671090e+15	5.238089e+14	1.403690e+14	1.588333e+04	5.735921e+03	4.323665e+03	0	1.605876e-03
1.500000e+08	9.654720e+13	0.000000e+00	5.934066e-01	1.593688e+15	5.640379e+14	1.396125e+14	1.568838e+04	5.810887e+03	4.380173e+03	0	1.580131e-03
1.600000e+08	9.205843e+13	0.000000e+00	5.934066e-01	1.521241e+15	6.024485e+14	1.388616e+14	1.550231e+04	5.878901e+03	4.431441e+03	0	1.555253e-03
1.700000e+08	8.785427e+13	0.000000e+00	5.934066e-01	1.453377e+15	6.387745e+14	1.381162e+14	1.532457e+04	5.940374e+03	4.477779e+03	0	1.531208e-03
1.800000e+08	8.391363e+13	0.000000e+00	5.934066e-01	1.389757e+15	6.728132e+14	1.373763e+14	1.515464e+04	5.995705e+03	4.519487e+03	0	1.507963e-03
1.900000e+08	8.021719e+13	0.000000e+00	5.934066e-01	1.330069e+15	7.044188e+14	1.366419e+14	1.499203e+04	6.045287e+03	4.556861e+03	0	1.485488e-03
2.000000e+08	7.674721e+13	0.000000e+00	5.934066e-01	1.274029e+15	7.334990e+14	1.359129e+14	1.483631e+04	6.089499e+03	4.590187e+03	0	1.463752e-03
2.100000e+08	7.348741e+13	0.000000e+00	5.934066e-01	1.221375e+15	7.600090e+14	1.351892e+14	1.468705e+04	6.128708e+03	4.619742e+03	0	1.442727e-03
2.200000e+08	7.042277e+13	0.000000e+00	5.934066e-01	1.171864e+15	7.839454e+14	1.344709e+14	1.454388e+04	6.163266e+03	4.645792e+03	0	1.422386e-03
2.300000e+08	6.753943e+13	0.000000e+00	5.934066e-01	1.125273e+15	8.053394e+14	1.337578e+14	1.440644e+04	6.193513e+03	4.668592e+03	0	1.402703e-03
2.400000e+08	6.482463e+13	0.000000e+00	5.934066e-01	1.081398e+15	8.242511e+14	1.330499e+14	1.427438e+04	6.219769e+03	4.688383e+03	0	1.383651e-03
2.500000e+08	6.226654e+13	0.000000e+00	5.934066e-01	1.040048e+15	8.407633e+14	1.323473e+14	1.414742e+04	6.242340e+03	4.705397e+03	0	1.365206e-03
2.600000e+08	5.985426e+13	0.000000e+00	5.934066e-01	1.001048e+15	8.549784e+14	1.316498e+14	1.402524e+04	6.261515e+03	4.719851e+03	0	1.347343e-03
2.700000e+08	5.757771e+13	0.000000e+00	5.934066e-01	9.642345e+14	8.670097e+14	1.309573e+14	1.390759e+04	6.277566e+03	4.731950e+03	0	1.330040e-03
2.800000e+08	5.542756e+13	0.000000e+00	5.934066e-01	9.294584e+14	8.769817e+14	1.302700e+14	1.379422e+04	6.290747e+03	4.741886e+03	0	1.313273e-03
2.900000e+08	5.339519e+13	0.000000e+00	5.934066e-01	8.965807e+14	8.850232e+14	1.295876e+14	1.368488e+04	6.301298e+03	4.749839e+03	0	1.297022e-03
3.000000e+08	5.147262e+13	0.000000e+00	5.934066e-01	8.654729e+14	8.912664e+14	1.289103e+14	1.357937e+04	6.309442e+03	4.755978e+03	0	1.281264e-03
3.100000e+08	4.965248e+13	0.000000e+00	5.934066e-01	8.360163e+14	8.958430e+14	1.282378e+14	1.347748e+04	6.315386e+03	4.760458e+03	0	1.265980e-03
3.200000e+08	4.792793e+13	0.000000e+00	5.934066e-01	8.081010e+14	8.988836e+14	1.275703e+14	1.337902e+04	6.319322e+03	4.763425e+03	0	1.251150e-03
3.300000e+08	4.629267e+13	0.000000e+00	5.934066e-01	7.816254e+14	9.005147e+14	1.269076e+14	1.328381e+04	6.321430e+03	4.765014e+03	0	1.236756e-03
3.400000e+08	4.474085e+13	0.000000e+00	5.934066e-01	7.564954e+14	9.008587e+14	1.262497e+14	1.319169e+04	6.321874e+03	4.765349e+03	0	1.222779e-03
3.500000e+08	4.326707e+13	0.000000e+00	5.934066e-01	7.326238e+14	9.000331e+14	1.255966e+14	1.310250e+04	6.320808e+03	4.764545e+03	0	1.209203e-03
3.600000e+08	4.186629e+13	0.000000e+00	5.934066e-01	7.099299e+14	8.981483e+14	1.249482e+14	1.301609e+04	6.318371e+03	4.762708e+03	0	1.196010e-03
3.700000e+08	4.053390e+13	0.000000e+00	5.934066e-01	6.883391e+14	8.953095e+14	1.243045e+14	1.293234e+04	6.314694e+03	4.759936e+03	0	1.183185e-03
3.800000e+08	3.926559e+13	0.000000e+00	5.934066e-01	6.677821e+14	8.916144e+14	1.236655e+14	1.285110e+04	6.309895e+03	4.756319e+03	0	1.170713e-03
3.900000e+08	3.805737e+13	0.000000e+00	5.934066e-01	6.481947e+14	8.871545e+14	1.230311e+14	1.277227e+04	6.304083e+03	4.751938e+03	0	1.158580e-03
4.000000e+08	3.690554e+13	0.000000e+00	5.934066e-01	6.295173e+14	8.820151e+14	1.224013e+14	1.269573e+04	6.297360e+03	4.746870e+03	0	1.146772e-03
4.100000e+08	3.580669e+13	0.000000e+00	5.934066e-01	6.116948e+14	8.762745e+14	1.217760e+14	1.262137e+04	6.289816e+03	4.741184e+03	0	1.135275e-03
4.200000e+08	3.475761e+13	0.000000e+00	5.934066e-01	5.946758e+14	8.700051e+14	1.211553e+14	1.254910e+04	6.281537e+03	4.734943e+03	0	1.124078e-03
4.300000e+08	3.375536e+13	0.000000e+00	5.934066e-01	5.784127e+14	8.632731e+14	1.205390e+14	1.247882e+04	6.272599e+03	4.728206e+03	0	1.113168e-03
4.400000e+08	3.279718e+13	0.000000e+00	5.934066e-01	5.628612e+14	8.561401e+14	1.199271e+14	1.241045e+04	6.263072e+03	4.721025e+03	0	1.102534e-03
4.500000e+08	3.188053e+13	0.000000e+00	5.934066e-01	5.479801e+14	8.486608e+14	1.193196e+14	1.234390e+04	6.253022e+03	4.713449e+03	0	1.092165e-03
4.600000e+08	3.100301e+13	0.000000e+00	5.934066e-01	5.337312e+14	8.408865e+14	1.187165e+14	1.227909e+04	6.242507e+03	4.705523e+03	0	1.082051e-03
4.700000e+08	3.016242e+13	0.000000e+00	5.934066e-01	5.200786e+14	8.328627e+14	1.181177e+14	1.221596e+04	6.231581e+03	4.697287e+03	0	1.072182e-03
4.800000e+08	2.935670e+13	0.000000e+00	5.934066e-01	5.069891e+14	8.246315e+14	1.175233e+14	1.215442e+04	6.220293e+03	4.688778e+03	0	1.062549e-03
4.900000e+08	2.858391e+13	0.000000e+00	5.934066e-01	4.944318e+14	8.162303e+14	1.169330e+14	1.209442e+04	6.208688e+03	4.680030e+03	0	1.053142e-03
5.000000e+08	2.784226e+13	0.000000e+00	5.934066e-01	4.823777e+14	8.076936e+14	1.163470e+14	1.203590e+04	6.196806e+03	4.671074e+03	0	1.043954e-03
5.100000e+08	2.713008e+13	0.000000e+00	5.934066e-01	4.707997e+14	7.990514e+14	1.157652e+14	1.197879e+04	6.184684e+03	4.661937e+03	0	1.034976e-03
5.200000e+08	2.644580e+13	0.000000e+00	5.934066e-01	4.596726e+14	7.903314e+14	1.151875e+14	1.192304e+04	6.172357e+03	4.652645e+03	0	1.026200e-03
5.300000e+08	2.578796e+13	0.000000e+00	5.934066e-01	4.489728e+14	7.815583e+14	1.146139e+14	1.186859e+04	6.159855e+03	4.643221e+03	0	1.017620e-03
5.400000e+08	2.515518e+13	0.000000e+00	5.934066e-01	4.386782e+14	7.727545e+14	1.140445e+14	1.181541e+04	6.147206e+03	4.633686e+03	0	1.009227e-03
5.500000e+08	2.454618e+13	0.000000e+00	5.934066e-01	4.287680e+14	7.639390e+14	1.134791e+14	1.176343e+04	6.134435e+03	4.624060e+03	0	1.001016e-03
5.600000e+08	2.395975e+13	0.000000e+00	5.934066e-01	4.192230e+14	7.551300e+14	1.129177e+14	1.171262e+04	6.121566e+03	4.614359e+03	0	9.929804e-04
5.700000e+08	2.339478e+13	0.000000e+00	5.934066e-01	4.100249e+14	7.463424e+14	1.123602e+14	1.166294e+04	6.108620e+03	4.604601e+03	0	9.851134e-04
5.800000e+08	2.285020e+13	0.000000e+00	5.934066e-01	4.011566e+14	7.375904e+14	1.118068e+14	1.161433e+04	6.095616e+03	4.594799e+03	0	9.774095e-04
5.900000e+08	2.232502e+13	0.000000e+00	5.934066e-01	3.926021e+14	7.288858e+14	1.112573e+14	1.156677e+04	6.082571e+03	4.584965e+03	0	9.698632e-04
6.000000e+08	2.181830e+13	0.000000e+00	5.934066e-01	3.843463e+14	7.202396e+14	1.107116e+14	1.152022e+04	6.069501e+03	4.575113e+03	0	9.624692e-04
6.100000e+08	2.132916e+13	0.000000e+00	5.934066e-01	3.763752e+14	7.116606e+14	1.101698e+14	1.147464e+04	6.056419e+03	4.565252e+03	0	9.552224e-04
6.200000e+08	2.085679e+13	0.000000e+00	5.934066e-01	3.686752e+14	7.031575e+14	1.096319e+14	1.142999e+04	6.043340e+03	4.555393e+03	0	9.481180e-04
6.300000e+08	2.040040e+13	0.000000e+00	5.934066e-01	3.612339e+14	6.947367e+14	1.090977e+14	1.138626e+04	6.030273e+03	4.545544e+03	0	9.411513e-04
6.400000e+08	1.995925e+13	0.000000e+00	5.934066e-01	3.540395e+14	6.864048e+14	1.085673e+14	1.134340e+04	6.017231e+03	4.535712e+03	0	9.343178e-04
6.500000e+08	1.953266e+13	0.000000e+00	5.934066e-01	3.470807e+14	6.781668e+14	1.080407e+14	1.130138e+04	6.004221e+03	4.525906e+03	0	9.276135e-04
6.600000e+08	1.911998e+13	0.000000e+00	5.934066e-01	3.403471e+14	6.700268e+14	1.075177e+14	1.126019e+04	5.991253e+03	4.516131e+03	0	9.210341e-04
6.700000e+08	1.872059e+13	0.000000e+00	5.934066e-01	3.338287e+14	6.619889e+14	1.069985e+14	1.121980e+04	5.978335e+03	4.506393e+03	0	9.145758e-04
6.800000e+08	1.833390e+13	0.000000e+00	5.934066e-01	3.275161e+14	6.540555e+14	1.064828e+14	1.118017e+04	5.965473e+03	4.496698e+03	0	9.082348e-04
6.900000e+08	1.795936e+13	0.000000e+00	5.934066e-01	3.214004e+14	6.462298e+14	1.059708e+14	1.114128e+04	5.952673e+03	4.487050e+03	0	9.020076e-04
7.000000e+08	1.759647e+13	0.000000e+00	5.934066e-01	3.154733e+14	6.385133e+14	1.054624e+14	1.110312e+04	5.939941e+03	4.477452e+03	0	8.958908e-04
7.100000e+08	1.724472e+13	0.000000e+00	5.934066e-01	3.097267e+14	6.309075e+14	1.049575e+14	1.106566e+04	5.927281e+03	4.467909e+03	0	8.898810e-04
7.200000e+08	1.690364e+13	0.000000e+00	5.934066e-01	3.041532e+14	6.234135e+14	1.044562e+14	1.102887e+04	5.914698e+03	4.458425e+03	0	8.839750e-04
7.300000e+08	1.657280e+13	0.000000e+00	5.934066e-01	2.987456e+14	6.160319e+14	1.039584e+14	1.099275e+04	5.902196e+03	4.449001e+03	0	8.781699e-04
7.400000e+08	1.625178e+13	0.000000e+00	5.934066e-01	2.934972e+14	6.087632e+14	1.034640e+14	1.095726e+04	5.889778e+03	4.439640e+03	0	8.724627e-04
7.500000e+08	1.594018e+13	0.000000e+00	5.934066e-01	2.884014e+14	6.016076e+14	1.029731e+14	1.092239e+04	5.877447e+03	4.430345e+03	0	8.668507e-04
7.600000e+08	1.563762e+13	0.000000e+00	5.934066e-01	2.834523e+14	5.945647e+14	1.024857e+14	1.088812e+04	5.865205e+03	4.421118e+03	0	8.613311e-04
7.700000e+08	1.534374e+13	0.000000e+00	5.934066e-01	2.786440e+14	5.876345e+14	1.020016e+14	1.085444e+04	5.853056e+03	4.411959e+03	0	8.559013e-04
7.800000e+08	1.505821e+13	0.000000e+00	5.934066e-01	2.739711e+14	5.808161e+14	1.015208e+14	1.082132e+04	5.841000e+03	4.402872e+03	0	8.505588e-04
7.900000e+08	1.478070e+13	0.000000e+00	5.934066e-01	2.694282e+14	5.741089e+14	1.010434e+14	1.078876e+04	5.829039e+03	4.393856e+03	0	8.453012e-04
8.000000e+08	1.451089e+13	0.000000e+00	5.934066e-01	2.650105e+14	5.675117e+14	1.005694e+14	1.075674e+04	5.817175e+03	4.384913e+03	0	8.401263e-04
8.100000e+08	1.424851e+13	0.000000e+00	5.934066e-01	2.607131e+14	5.610239e+14	1.000986e+14	1.072523e+04	5.805408e+03	4.376043e+03	0	8.350318e-04
8.200000e+08	1.399326e+13	0.000000e+00	5.934066e-01	2.565316e+14	5.546440e+14	9.963103e+13	1.069424e+04	5.793740e+03	4.367248e+03	0	8.300156e-04
8.300000e+08	1.374489e+13	0.000000e+00	5.934066e-01	2.524617e+14	5.483710e+14	9.916673e+13	1.066374e+04	5.782171e+03	4.358528e+03	0	8.250755e-04
8.400000e+08	1.350314e+13	0.000000e+00	5.934066e-01	2.484993e+14	5.422034e+14	9.870564e+13	1.063372e+04	5.770703e+03	4.349883e+03	0	8.202096e-04
8.500000e+08	1.326777e+13	0.000000e+00	5.934066e-01	2.446404e+14	5.361399e+14	9.824772e+13	1.060417e+04	5.759334e+03	4.341313e+03	0	8.154160e-04
8.600000e+08	1.303855e+13	0.000000e+00	5.934066e-01	2.408814e+14	5.301790e+14	9.779296e+13	1.057507e+04	5.748066e+03	4.332819e+03	0	8.106927e-04
8.700000e+08	1.281525e+13	0.000000e+00	5.934066e-01	2.372187e+14	5.243193e+14	9.734134e+13	1.054643e+04	5.736898e+03	4.324401e+03	0	8.060381e-04
8.800000e+08	1.259767e+13	0.000000e+00	5.934066e-01	2.336488e+14	5.185591e+14	9.689282e+13	1.051821e+04	5.725830e+03	4.316059e+03	0	8.014504e-04
8.900000e+08	1.238561e+13	0.000000e+00	5.934066e-01	2.301686e+14	5.128968e+14	9.644738e+13	1.049042e+04	5.714863e+03	4.307792e+03	0	7.969279e-04
9.000000e+08	1.217888e+13	0.000000e+00	5.934066e-01	2.267749e+14	5.073309e+14	9.600500e+13	1.046303e+04	5.703996e+03	4.299600e+03	0	7.924690e-04
9.100000e+08	1.197728e+13	0.000000e+00	5.934066e-01	2.234648e+14	5.018598e+14	9.556565e+13	1.043605e+04	5.693228e+03	4.291483e+03	0	7.880722e-04
9.200000e+08	1.178066e+13	0.000000e+00	5.934066e-01	2.202353e+14	4.964819e+14	9.512931e+13	1.040947e+04	5.682560e+03	4.283442e+03	0	7.837359e-04
9.300000e+08	1.158883e+13	0.000000e+00	5.934066e-01	2.170839e+14	4.911956e+14	9.469595e+13	1.038326e+04	5.671990e+03	4.275474e+03	0	7.794587e-04
9.400000e+08	1.140164e+13	0.000000e+00	5.934066e-01	2.140079e+14	4.859989e+14	9.426556e+13	1.035743e+04	5.661518e+03	4.267581e+03	0	7.752391e-04
9.500000e+08	1.121893e+13	0.000000e+00	5.934066e-01	2.110049e+14	4.808906e+14	9.383810e+13	1.033196e+04	5.651143e+03	4.259760e+03	0	7.710758e-04
9.600000e+08	1.104057e+13	0.000000e+00	5.934066e-01	2.080723e+14	4.758686e+14	9.341356e+13	1.030685e+04	5.640866e+03	4.252013e+03	0	7.669676e-04
9.700000e+08	1.086639e+13	0.000000e+00	5.934066e-01	2.052080e+14	4.709318e+14	9.299191e+13	1.028208e+04	5.630684e+03	4.244339e+03	0	7.629130e-04
9.800000e+08	1.069628e+13	0.000000e+00	5.934066e-01	2.024097e+14	4.660783e+14	9.257313e+13	1.025765e+04	5.620598e+03	4.236736e+03	0	7.589109e-04
9.900000e+08	1.053009e+13	0.000000e+00	5.934066e-01	1.996754e+14	4.613065e+14	9.215719e+13	1.023356e+04	5.610606e+03	4.229204e+03	0	7.549601e-04
1.000000e+09	1.036772e+13	0.000000e+00	5.934066e-01	1.970029e+14	4.566149e+14	9.174408e+13	1.020979e+04	5.600707e+03	4.221743e+03	0	7.510593e-04
1.010000e+09	1.020902e+13	0.000000e+00	5.934066e-01	1.943905e+14	4.520019e+14	9.133377e+13	1.018633e+04	5.590902e+03	4.214351e+03	0	7.472076e-04
1.020000e+09	1.005390e+13	0.000000e+00	5.934066e-01	1.918362e+14	4.474658e+14	9.092624e+13	1.016319e+04	5.581188e+03	4.207029e+03	0	7.434037e-04
1.030000e+09	9.902236e+12	0.000000e+00	5.934066e-01	1.893381e+14	4.430055e+14	9.052147e+13	1.014035e+04	5.571566e+03	4.199776e+03	0	7.396467e-04
1.040000e+09	9.753926e+12	0.000000e+00	5.934066e-01	1.868947e+14	4.386190e+14	9.011944e+13	1.011780e+04	5.562033e+03	4.192590e+03	0	7.359354e-04
1.050000e+09	9.608869e+12	0.000000e+00	5.934066e-01	1.845043e+14	4.343052e+14	8.972011e+13	1.009555e+04	5.552589e+03	4.185472e+03	0	7.322690e-04
1.060000e+09	9.466965e+12	0.000000e+00	5.934066e-01	1.821652e+14	4.300624e+14	8.932349e+13	1.007357e+04	5.543234e+03	4.178420e+03	0	7.286464e-04
1.070000e+09	9.328121e+12	0.000000e+00	5.934066e-01	1.798760e+14	4.258893e+14	8.892953e+13	1.005188e+04	5.533965e+03	4.171433e+03	0	7.250667e-04
1.080000e+09	9.192245e+12	0.000000e+00	5.934066e-01	1.776351e+14	4.217844e+14	8.853822e+13	1.003046e+04	5.524783e+03	4.164512e+03	0	7.215289e-04
1.090000e+09	9.059251e+12	0.000000e+00	5.934066e-01	1.754411e+14	4.177463e+14	8.814955e+13	1.000930e+04	5.515686e+03	4.157655e+03	0	7.180323e-04
1.100000e+09	8.929053e+12	0.000000e+00	5.934066e-01	1.732928e+14	4.137739e+14	8.776349e+13	9.988401e+03	5.506673e+03	4.150861e+03	0	7.145759e-04
1.110000e+09	8.801573e+12	0.000000e+00	5.934066e-01	1.711887e+14	4.098655e+14	8.738001e+13	9.967758e+03	5.497744e+03	4.144130e+03	0	7.111589e-04
1.120000e+09	8.676730e+12	0.000000e+00	5.934066e-01	1.691276e+14	4.060201e+14	8.699910e+13	9.947365e+03	5.488897e+03	4.137461e+03	0	7.077805e-04
1.130000e+09	8.554450e+12	0.000000e+00	5.934066e-01	1.671083e+14	4.022361e+14	8.662075e+13	9.927216e+03	5.480131e+03	4.130853e+03	0	7.044399e-04
1.140000e+09	8.434661e+12	0.000000e+00	5.934066e-01	1.651296e+14	3.985126e+14	8.624492e+13	9.907307e+03	5.471445e+03	4.124306e+03	0	7.011363e-04
1.150000e+09	8.317293e+12	0.000000e+00	5.934066e-01	1.631904e+14	3.948481e+14	8.587160e+13	9.887633e+03	5.462839e+03	4.117819e+03	0	6.978690e-04
1.160000e+09	8.202278e+12	0.000000e+00	5.934066e-01	1.612896e+14	3.912416e+14	8.550077e+13	9.868188e+03	5.454311e+03	4.111390e+03	0	6.946372e-04
1.170000e+09	8.089552e+12	0.000000e+00	5.934066e-01	1.594261e+14	3.876917e+14	8.513241e+13	9.848970e+03	5.445860e+03	4.105020e+03	0	6.914403e-04
1.180000e+09	7.979051e+12	0.000000e+00	5.934066e-01	1.575989e+14	3.841974e+14	8.476650e+13	9.829972e+03	5.437485e+03	4.098708e+03	0	6.882776e-04
1.190000e+09	7.870715e+12	0.000000e+00	5.934066e-01	1.558071e+14	3.807575e+14	8.440303e+13	9.811192e+03	5.429187e+03	4.092452e+03	0	6.851483e-04
1.200000e+09	7.764486e+12	0.000000e+00	5.934066e-01	1.540496e+14	3.773710e+14	8.404197e+13	9.792624e+03	5.420962e+03	4.086253e+03	0	6.820519e-04
1.210000e+09	7.660306e+12	0.000000e+00	5.934066e-01	1.523256e+14	3.740367e+14	8.368330e+13	9.774265e+03	5.412811e+03	4.080109e+03	0	6.789877e-04
1.220000e+09	7.558123e+12	0.000000e+00	5.934066e-01	1.506342e+14	3.707537e+14	8.332701e+13	9.756110e+03	5.404733e+03	4.074019e+03	0	6.759551e-04
1.230000e+09	7.457882e+12	0.000000e+00	5.934066e-01	1.489745e+14	3.675207e+14	8.297307e+13	9.738156e+03	5.396726e+03	4.067984e+03	0	6.729535e-04
1.240000e+09	7.359533e+12	0.000000e+00	5.934066e-01	1.473456e+14	3.643369e+14	8.262148e+13	9.720399e+03	5.388790e+03	4.062002e+03	0	6.699823e-04
1.250000e+09	7.263027e+12	0.000000e+00	5.934066e-01	1.457469e+14	3.612012e+14	8.227220e+13	9.702836e+03	5.380924e+03	4.056073e+03	0	6.670409e-04
1.260000e+09	7.168316e+12	0.000000e+00	5.934066e-01	1.441775e+14	3.581127e+14	8.192523e+13	9.685463e+03	5.373127e+03	4.050195e+03	0	6.641287e-04
1.270000e+09	7.075354e+12	0.000000e+00	5.934066e-01	1.426367e+14	3.550704e+14	8.158055e+13	9.668276e+03	5.365398e+03	4.044369e+03	0	6.612453e-04
1.280000e+09	6.984096e+12	0.000000e+00	5.934066e-01	1.411237e+14	3.520736e+14	8.123813e+13	9.651272e+03	5.357736e+03	4.038594e+03	0	6.583901e-04
1.290000e+09	6.894500e+12	0.000000e+00	5.934066e-01	1.396379e+14	3.491211e+14	8.089796e+13	9.634447e+03	5.350140e+03	4.032868e+03	0	6.555626e-04
1.300000e+09	6.806523e+12	0.000000e+00	5.934066e-01	1.381785e+14	3.462121e+14	8.056003e+13	9.617799e+03	5.342610e+03	4.027192e+03	0	6.527622e-04
1.310000e+09	6.720126e+12	0.000000e+00	5.934066e-01	1.367450e+14	3.433456e+14	8.022431e+13	9.601325e+03	5.335144e+03	4.021564e+03	0	6.499885e-04
1.320000e+09	6.635268e+12	0.000000e+00	5.934066e-01	1.353367e+14	3.405211e+14	7.989079e+13	9.585021e+03	5.327742e+03	4.015985e+03	0	6.472410e-04
1.330000e+09	6.551913e+12	0.000000e+00	5.934066e-01	1.339529e+14	3.377376e+14	7.955945e+13	9.568884e+03	5.320403e+03	4.010453e+03	0	6.445193e-04
1.340000e+09	6.470023e+12	0.000000e+00	5.934066e-01	1.325930e+14	3.349942e+14	7.923027e+13	9.552911e+03	5.313126e+03	4.004967e+03	0	6.418228e-04
1.350000e+09	6.389564e+12	0.000000e+00	5.934066e-01	1.312566e+14	3.322903e+14	7.890325e+13	9.537100e+03	5.305910e+03	3.999528e+03	0	6.391512e-04
1.360000e+09	6.310499e+12	0.000000e+00	5.934066e-01	1.299430e+14	3.296249e+14	7.857835e+13	9.521448e+03	5.298755e+03	3.994134e+03	0	6.365040e-04
