#t		Qconv[W]	Ri[Rp]		R*[Rp]		Qc[W]		Qm[W]		Qr[W]		Tcmb[K]		Tl[K]		Tup[K]		RiFlag		Bs[T]
0.000000e+00	3.239642e+14	0.000000e+00	5.934066e-01	4.829397e+15	3.087218e+13	1.715288e+14	2.170648e+04	3.799373e+03	2.827874e+03	0	2.341190e-03
1.000000e+07	3.027487e+14	0.000000e+00	5.934066e-01	4.516774e+15	5.007354e+13	1.705784e+14	2.122502e+04	4.059059e+03	3.021158e+03	0	2.288926e-03
2.000000e+07	2.834164e+14	0.000000e+00	5.934066e-01	4.231855e+15	7.527076e+13	1.696351e+14	2.077381e+04	4.301170e+03	3.201361e+03	0	2.239130e-03
3.000000e+07	2.657480e+14	0.000000e+00	5.934066e-01	3.971414e+15	1.065903e+14	1.686989e+14	2.035028e+04	4.526839e+03	3.369326e+03	0	2.191599e-03
4.000000e+07	2.495557e+14	0.000000e+00	5.934066e-01	3.732694e+15	1.438715e+14	1.677696e+14	1.995211e+04	4.737029e+03	3.525771e+03	0	2.146151e-03
5.000000e+07	2.346787e+14	0.000000e+00	5.934066e-01	3.513329e+15	1.867059e+14	1.668473e+14	1.957727e+04	4.932576e+03	3.671316e+03	0	2.102627e-03
6.000000e+07	2.209788e+14	0.000000e+00	5.934066e-01	3.311289e+15	2.344841e+14	1.659319e+14	1.922392e+04	5.114217e+03	3.806512e+03	0	2.060889e-03
7.000000e+07	2.083365e+14	0.000000e+00	5.934066e-01	3.124818e+15	2.864459e+14	1.650232e+14	1.889042e+04	5.282620e+03	3.931855e+03	0	2.020813e-03
8.000000e+07	1.966486e+14	0.000000e+00	5.934066e-01	2.952397e+15	3.417299e+14	1.641214e+14	1.857528e+04	5.438404e+03	4.047805e+03	0	1.982294e-03
9.000000e+07	1.858252e+14	0.000000e+00	5.934066e-01	2.792705e+15	3.994206e+14	1.632262e+14	1.827715e+04	5.582155e+03	4.154798e+03	0	1.945237e-03
1.000000e+08	1.757874e+14	0.000000e+00	5.934066e-01	2.644582e+15	4.585902e+14	1.623377e+14	1.799482e+04	5.714436e+03	4.253255e+03	0	1.909561e-03
1.100000e+08	1.664661e+14	0.000000e+00	5.934066e-01	2.507010e+15	5.183349e+14	1.614558e+14	1.772717e+04	5.835801e+03	4.343587e+03	0	1.875194e-03
1.200000e+08	1.577998e+14	0.000000e+00	5.934066e-01	2.379086e+15	5.778048e+14	1.605804e+14	1.747318e+04	5.946794e+03	4.426199e+03	0	1.842072e-03
1.300000e+08	1.497340e+14	0.000000e+00	5.934066e-01	2.260006e+15	6.362254e+14	1.597115e+14	1.723191e+04	6.047956e+03	4.501494e+03	0	1.810136e-03
1.400000e+08	1.422196e+14	0.000000e+00	5.934066e-01	2.149050e+15	6.929152e+14	1.588490e+14	1.700250e+04	6.139822e+03	4.569870e+03	0	1.779334e-03
1.500000e+08	1.352127e+14	0.000000e+00	5.934066e-01	2.045569e+15	7.472924e+14	1.579929e+14	1.678416e+04	6.222926e+03	4.631724e+03	0	1.749619e-03
1.600000e+08	1.286733e+14	0.000000e+00	5.934066e-01	1.948977e+15	7.988813e+14	1.571431e+14	1.657616e+04	6.297792e+03	4.687447e+03	0	1.720946e-03
1.700000e+08	1.225652e+14	0.000000e+00	5.934066e-01	1.858740e+15	8.473089e+14	1.562996e+14	1.637782e+04	6.364937e+03	4.737423e+03	0	1.693272e-03
1.800000e+08	1.168554e+14	0.000000e+00	5.934066e-01	1.774372e+15	8.923017e+14	1.554624e+14	1.618852e+04	6.424867e+03	4.782029e+03	0	1.666559e-03
1.900000e+08	1.115137e+14	0.000000e+00	5.934066e-01	1.695427e+15	9.336770e+14	1.546312e+14	1.600769e+04	6.478076e+03	4.821632e+03	0	1.640768e-03
2.000000e+08	1.065123e+14	0.000000e+00	5.934066e-01	1.621499e+15	9.713341e+14	1.538062e+14	1.583478e+04	6.525039e+03	4.856587e+03	0	1.615862e-03
2.100000e+08	1.018258e+14	0.000000e+00	5.934066e-01	1.552212e+15	1.005244e+15	1.529873e+14	1.566930e+04	6.566215e+03	4.887234e+03	0	1.591807e-03
2.200000e+08	9.743091e+13	0.000000e+00	5.934066e-01	1.487223e+15	1.035439e+15	1.521744e+14	1.551080e+04	6.602043e+03	4.913901e+03	0	1.568568e-03
2.300000e+08	9.330601e+13	0.000000e+00	5.934066e-01	1.426215e+15	1.062000e+15	1.513674e+14	1.535884e+04	6.632940e+03	4.936898e+03	0	1.546112e-03
2.400000e+08	8.943134e+13	0.000000e+00	5.934066e-01	1.368895e+15	1.085049e+15	1.505664e+14	1.521303e+04	6.659303e+03	4.956520e+03	0	1.524407e-03
2.500000e+08	8.578864e+13	0.000000e+00	5.934066e-01	1.314996e+15	1.104738e+15	1.497712e+14	1.507301e+04	6.681506e+03	4.973045e+03	0	1.503422e-03
2.600000e+08	8.236110e+13	0.000000e+00	5.934066e-01	1.264269e+15	1.121243e+15	1.489819e+14	1.493843e+04	6.699898e+03	4.986734e+03	0	1.483127e-03
2.700000e+08	7.913321e+13	0.000000e+00	5.934066e-01	1.216487e+15	1.134752e+15	1.481983e+14	1.480897e+04	6.714808e+03	4.997832e+03	0	1.463493e-03
2.800000e+08	7.609072e+13	0.000000e+00	5.934066e-01	1.171439e+15	1.145466e+15	1.474204e+14	1.468435e+04	6.726542e+03	5.006565e+03	0	1.444491e-03
2.900000e+08	7.322045e+13	0.000000e+00	5.934066e-01	1.128931e+15	1.153588e+15	1.466482e+14	1.456429e+04	6.735384e+03	5.013147e+03	0	1.426095e-03
3.000000e+08	7.051028e+13	0.000000e+00	5.934066e-01	1.088785e+15	1.159321e+15	1.458817e+14	1.444854e+04	6.741599e+03	5.017773e+03	0	1.408278e-03
3.100000e+08	6.794903e+13	0.000000e+00	5.934066e-01	1.050836e+15	1.162865e+15	1.451207e+14	1.433685e+04	6.745430e+03	5.020624e+03	0	1.391016e-03
3.200000e+08	6.552639e+13	0.000000e+00	5.934066e-01	1.014933e+15	1.164414e+15	1.443653e+14	1.422902e+04	6.747102e+03	5.021868e+03	0	1.374284e-03
3.300000e+08	6.323287e+13	0.000000e+00	5.934066e-01	9.809344e+14	1.164154e+15	1.436154e+14	1.412483e+04	6.746821e+03	5.021659e+03	0	1.358059e-03
3.400000e+08	6.105971e+13	0.000000e+00	5.934066e-01	9.487124e+14	1.162261e+15	1.428709e+14	1.402409e+04	6.744778e+03	5.020139e+03	0	1.342320e-03
3.500000e+08	5.899881e+13	0.000000e+00	5.934066e-01	9.181477e+14	1.158903e+15	1.421318e+14	1.392662e+04	6.741147e+03	5.017436e+03	0	1.327044e-03
3.600000e+08	5.704273e+13	0.000000e+00	5.934066e-01	8.891302e+14	1.154236e+15	1.413980e+14	1.383227e+04	6.736088e+03	5.013671e+03	0	1.312213e-03
3.700000e+08	5.518458e+13	0.000000e+00	5.934066e-01	8.615586e+14	1.148405e+15	1.406696e+14	1.374086e+04	6.729746e+03	5.008951e+03	0	1.297807e-03
3.800000e+08	5.341800e+13	0.000000e+00	5.934066e-01	8.353393e+14	1.141544e+15	1.399465e+14	1.365226e+04	6.722256e+03	5.003376e+03	0	1.283808e-03
3.900000e+08	5.173712e+13	0.000000e+00	5.934066e-01	8.103855e+14	1.133779e+15	1.392286e+14	1.356633e+04	6.713739e+03	4.997036e+03	0	1.270199e-03
4.000000e+08	5.013651e+13	0.000000e+00	5.934066e-01	7.866172e+14	1.125223e+15	1.385158e+14	1.348295e+04	6.704305e+03	4.990014e+03	0	1.256963e-03
4.100000e+08	4.861113e+13	0.000000e+00	5.934066e-01	7.639605e+14	1.115981e+15	1.378082e+14	1.340198e+04	6.694055e+03	4.982386e+03	0	1.244084e-03
4.200000e+08	4.715635e+13	0.000000e+00	5.934066e-01	7.423467e+14	1.106146e+15	1.371057e+14	1.332333e+04	6.683082e+03	4.974219e+03	0	1.231547e-03
4.300000e+08	4.576785e+13	0.000000e+00	5.934066e-01	7.217123e+14	1.095807e+15	1.364083e+14	1.324688e+04	6.671470e+03	4.965575e+03	0	1.219339e-03
4.400000e+08	4.444164e+13	0.000000e+00	5.934066e-01	7.019984e+14	1.085040e+15	1.357159e+14	1.317253e+04	6.659293e+03	4.956512e+03	0	1.207446e-03
4.500000e+08	4.317401e+13	0.000000e+00	5.934066e-01	6.831504e+14	1.073916e+15	1.350284e+14	1.310020e+04	6.646621e+03	4.947080e+03	0	1.195855e-03
4.600000e+08	4.196152e+13	0.000000e+00	5.934066e-01	6.651177e+14	1.062500e+15	1.343459e+14	1.302979e+04	6.633516e+03	4.937327e+03	0	1.184554e-03
4.700000e+08	4.080099e+13	0.000000e+00	5.934066e-01	6.478530e+14	1.050848e+15	1.336683e+14	1.296123e+04	6.620036e+03	4.927293e+03	0	1.173531e-03
4.800000e+08	3.968944e+13	0.000000e+00	5.934066e-01	6.313127e+14	1.039012e+15	1.329956e+14	1.289443e+04	6.606232e+03	4.917019e+03	0	1.162776e-03
4.900000e+08	3.862411e+13	0.000000e+00	5.934066e-01	6.154559e+14	1.027037e+15	1.323276e+14	1.282932e+04	6.592150e+03	4.906537e+03	0	1.152278e-03
5.000000e+08	3.760242e+13	0.000000e+00	5.934066e-01	6.002447e+14	1.014964e+15	1.316645e+14	1.276584e+04	6.577832e+03	4.895881e+03	0	1.142027e-03
5.100000e+08	3.662198e+13	0.000000e+00	5.934066e-01	5.856436e+14	1.002830e+15	1.310060e+14	1.270391e+04	6.563317e+03	4.885077e+03	0	1.132014e-03
5.200000e+08	3.568056e+13	0.000000e+00	5.934066e-01	5.716198e+14	9.906672e+14	1.303523e+14	1.264347e+04	6.548639e+03	4.874153e+03	0	1.122229e-03
5.300000e+08	3.477605e+13	0.000000e+00	5.934066e-01	5.581424e+14	9.785035e+14	1.297032e+14	1.258447e+04	6.533830e+03	4.863130e+03	0	1.112665e-03
5.400000e+08	3.390652e+13	0.000000e+00	5.934066e-01	5.451826e+14	9.663646e+14	1.290588e+14	1.252685e+04	6.518918e+03	4.852031e+03	0	1.103313e-03
5.500000e+08	3.307014e+13	0.000000e+00	5.934066e-01	5.327136e+14	9.542723e+14	1.284189e+14	1.247056e+04	6.503927e+03	4.840874e+03	0	1.094166e-03
5.600000e+08	3.226520e+13	0.000000e+00	5.934066e-01	5.207100e+14	9.422463e+14	1.277836e+14	1.241554e+04	6.488882e+03	4.829675e+03	0	1.085215e-03
5.700000e+08	3.149012e+13	0.000000e+00	5.934066e-01	5.091485e+14	9.303039e+14	1.271528e+14	1.236176e+04	6.473803e+03	4.818452e+03	0	1.076455e-03
5.800000e+08	3.074338e+13	0.000000e+00	5.934066e-01	4.980068e+14	9.184587e+14	1.265265e+14	1.230916e+04	6.458708e+03	4.807217e+03	0	1.067878e-03
5.900000e+08	3.002359e+13	0.000000e+00	5.934066e-01	4.872643e+14	9.067243e+14	1.259046e+14	1.225770e+04	6.443614e+03	4.795982e+03	0	1.059478e-03
6.000000e+08	2.932943e+13	0.000000e+00	5.934066e-01	4.769014e+14	8.951114e+14	1.252872e+14	1.220735e+04	6.428537e+03	4.784760e+03	0	1.051249e-03
6.100000e+08	2.865967e+13	0.000000e+00	5.934066e-01	4.669000e+14	8.836293e+14	1.246740e+14	1.215806e+04	6.413489e+03	4.773560e+03	0	1.043185e-03
6.200000e+08	2.801314e+13	0.000000e+00	5.934066e-01	4.572429e+14	8.722857e+14	1.240653e+14	1.210979e+04	6.398483e+03	4.762392e+03	0	1.035281e-03
6.300000e+08	2.738874e+13	0.000000e+00	5.934066e-01	4.479138e+14	8.610876e+14	1.234608e+14	1.206252e+04	6.383530e+03	4.751262e+03	0	1.027531e-03
6.400000e+08	2.678545e+13	0.000000e+00	5.934066e-01	4.388977e+14	8.500398e+14	1.228606e+14	1.201620e+04	6.368639e+03	4.740179e+03	0	1.019931e-03
6.500000e+08	2.620230e+13	0.000000e+00	5.934066e-01	4.301800e+14	8.391475e+14	1.222646e+14	1.197081e+04	6.353820e+03	4.729148e+03	0	1.012475e-03
6.600000e+08	2.563837e+13	0.000000e+00	5.934066e-01	4.217475e+14	8.284133e+14	1.216728e+14	1.192632e+04	6.339078e+03	4.718176e+03	0	1.005158e-03
6.700000e+08	2.509281e+13	0.000000e+00	5.934066e-01	4.135872e+14	8.178409e+14	1.210851e+14	1.188269e+04	6.324422e+03	4.707268e+03	0	9.979776e-04
6.800000e+08	2.456479e+13	0.000000e+00	5.934066e-01	4.056872e+14	8.074317e+14	1.205016e+14	1.183990e+04	6.309858e+03	4.696427e+03	0	9.909279e-04
6.900000e+08	2.405355e+13	0.000000e+00	5.934066e-01	3.980362e+14	7.971868e+14	1.199222e+14	1.179793e+04	6.295389e+03	4.685659e+03	0	9.840053e-04
7.000000e+08	2.355836e+13	0.000000e+00	5.934066e-01	3.906233e+14	7.871078e+14	1.193469e+14	1.175674e+04	6.281022e+03	4.674965e+03	0	9.772059e-04
7.100000e+08	2.307854e+13	0.000000e+00	5.934066e-01	3.834384e+14	7.771944e+14	1.187755e+14	1.171631e+04	6.266761e+03	4.664350e+03	0	9.705259e-04
7.200000e+08	2.261344e+13	0.000000e+00	5.934066e-01	3.764720e+14	7.674465e+14	1.182082e+14	1.167662e+04	6.252608e+03	4.653816e+03	0	9.639619e-04
7.300000e+08	2.216243e+13	0.000000e+00	5.934066e-01	3.697148e+14	7.578636e+14	1.176448e+14	1.163765e+04	6.238566e+03	4.643365e+03	0	9.575104e-04
7.400000e+08	2.172494e+13	0.000000e+00	5.934066e-01	3.631584e+14	7.484450e+14	1.170854e+14	1.159937e+04	6.224639e+03	4.632999e+03	0	9.511680e-04
7.500000e+08	2.130041e+13	0.000000e+00	5.934066e-01	3.567944e+14	7.391895e+14	1.165299e+14	1.156177e+04	6.210828e+03	4.622720e+03	0	9.449316e-04
7.600000e+08	2.088833e+13	0.000000e+00	5.934066e-01	3.506151e+14	7.300959e+14	1.159782e+14	1.152482e+04	6.197135e+03	4.612528e+03	0	9.387982e-04
7.700000e+08	2.048818e+13	0.000000e+00	5.934066e-01	3.446133e+14	7.211621e+14	1.154304e+14	1.148851e+04	6.183562e+03	4.602425e+03	0	9.327648e-04
7.800000e+08	2.009950e+13	0.000000e+00	5.934066e-01	3.387818e+14	7.123868e+14	1.148864e+14	1.145282e+04	6.170109e+03	4.592413e+03	0	9.268287e-04
7.900000e+08	1.972184e+13	0.000000e+00	5.934066e-01	3.331140e+14	7.037678e+14	1.143461e+14	1.141773e+04	6.156778e+03	4.582490e+03	0	9.209871e-04
8.000000e+08	1.935478e+13	0.000000e+00	5.934066e-01	3.276037e+14	6.953030e+14	1.138096e+14	1.138322e+04	6.143570e+03	4.572659e+03	0	9.152374e-04
8.100000e+08	1.899789e+13	0.000000e+00	5.934066e-01	3.222447e+14	6.869901e+14	1.132769e+14	1.134928e+04	6.130484e+03	4.562919e+03	0	9.095771e-04
8.200000e+08	1.865081e+13	0.000000e+00	5.934066e-01	3.170314e+14	6.788272e+14	1.127478e+14	1.131589e+04	6.117520e+03	4.553271e+03	0	9.040038e-04
8.300000e+08	1.831316e+13	0.000000e+00	5.934066e-01	3.119583e+14	6.708116e+14	1.122223e+14	1.128303e+04	6.104680e+03	4.543714e+03	0	8.985152e-04
8.400000e+08	1.798459e+13	0.000000e+00	5.934066e-01	3.070203e+14	6.629410e+14	1.117005e+14	1.125071e+04	6.091963e+03	4.534248e+03	0	8.931091e-04
8.500000e+08	1.766476e+13	0.000000e+00	5.934066e-01	3.022123e+14	6.552128e+14	1.111823e+14	1.121889e+04	6.079368e+03	4.524874e+03	0	8.877832e-04
8.600000e+08	1.735336e+13	0.000000e+00	5.934066e-01	2.975297e+14	6.476247e+14	1.106677e+14	1.118756e+04	6.066895e+03	4.515590e+03	0	8.825356e-04
8.700000e+08	1.705009e+13	0.000000e+00	5.934066e-01	2.929680e+14	6.401740e+14	1.101566e+14	1.115672e+04	6.054544e+03	4.506397e+03	0	8.773641e-04
8.800000e+08	1.675464e+13	0.000000e+00	5.934066e-01	2.885228e+14	6.328583e+14	1.096491e+14	1.112635e+04	6.042314e+03	4.497294e+03	0	8.722669e-04
8.900000e+08	1.646675e+13	0.000000e+00	5.934066e-01	2.841900e+14	6.256746e+14	1.091450e+14	1.109644e+04	6.030204e+03	4.488281e+03	0	8.672421e-04
9.000000e+08	1.618616e+13	0.000000e+00	5.934066e-01	2.799657e+14	6.186209e+14	1.086444e+14	1.106697e+04	6.018214e+03	4.479357e+03	0	8.622878e-04
9.100000e+08	1.591260e+13	0.000000e+00	5.934066e-01	2.758463e+14	6.116945e+14	1.081472e+14	1.103794e+04	6.006342e+03	4.470521e+03	0	8.574024e-04
9.200000e+08	1.564583e+13	0.000000e+00	5.934066e-01	2.718280e+14	6.048929e+14	1.076534e+14	1.100933e+04	5.994588e+03	4.461772e+03	0	8.525841e-04
9.300000e+08	1.538563e+13	0.000000e+00	5.934066e-01	2.679075e+14	5.982135e+14	1.071630e+14	1.098114e+04	5.982951e+03	4.453110e+03	0	8.478313e-04
9.400000e+08	1.513177e+13	0.000000e+00	5.934066e-01	2.640814e+14	5.916537e+14	1.066759e+14	1.095336e+04	5.971429e+03	4.444535e+03	0	8.431425e-04
9.500000e+08	1.488405e+13	0.000000e+00	5.934066e-01	2.603467e+14	5.852111e+14	1.061922e+14	1.092597e+04	5.960022e+03	4.436045e+03	0	8.385160e-04
9.600000e+08	1.464225e+13	0.000000e+00	5.934066e-01	2.567003e+14	5.788835e+14	1.057118e+14	1.089896e+04	5.948729e+03	4.427639e+03	0	8.339505e-04
9.700000e+08	1.440618e+13	0.000000e+00	5.934066e-01	2.531393e+14	5.726683e+14	1.052346e+14	1.087233e+04	5.937547e+03	4.419317e+03	0	8.294444e-04
9.800000e+08	1.417566e+13	0.000000e+00	5.934066e-01	2.496609e+14	5.665631e+14	1.047607e+14	1.084607e+04	5.926477e+03	4.411077e+03	0	8.249965e-04
9.900000e+08	1.395050e+13	0.000000e+00	5.934066e-01	2.462626e+14	5.605658e+14	1.042900e+14	1.082017e+04	5.915517e+03	4.402920e+03	0	8.206053e-04
1.000000e+09	1.373055e+13	0.000000e+00	5.934066e-01	2.429418e+14	5.546738e+14	1.038225e+14	1.079462e+04	5.904666e+03	4.394843e+03	0	8.162696e-04
1.010000e+09	1.351562e+13	0.000000e+00	5.934066e-01	2.396959e+14	5.488852e+14	1.033582e+14	1.076941e+04	5.893922e+03	4.386847e+03	0	8.119881e-04
1.020000e+09	1.330556e+13	0.000000e+00	5.934066e-01	2.365228e+14	5.431973e+14	1.028970e+14	1.074454e+04	5.883284e+03	4.378929e+03	0	8.077596e-04
1.030000e+09	1.310023e+13	0.000000e+00	5.934066e-01	2.334200e+14	5.376085e+14	1.024389e+14	1.071999e+04	5.872752e+03	4.371089e+03	0	8.035829e-04
1.040000e+09	1.289947e+13	0.000000e+00	5.934066e-01	2.303856e+14	5.321164e+14	1.019839e+14	1.069577e+04	5.862323e+03	4.363327e+03	0	7.994569e-04
1.050000e+09	1.270315e+13	0.000000e+00	5.934066e-01	2.274173e+14	5.267188e+14	1.015321e+14	1.067186e+04	5.851996e+03	4.355641e+03	0	7.953804e-04
1.060000e+09	1.251113e+13	0.000000e+00	5.934066e-01	2.245132e+14	5.214140e+14	1.010832e+14	1.064825e+04	5.841771e+03	4.348030e+03	0	7.913523e-04
1.070000e+09	1.232328e+13	0.000000e+00	5.934066e-01	2.216713e+14	5.161994e+14	1.006374e+14	1.062495e+04	5.831645e+03	4.340494e+03	0	7.873717e-04
1.080000e+09	1.213948e+13	0.000000e+00	5.934066e-01	2.188899e+14	5.110736e+14	1.001946e+14	1.060194e+04	5.821618e+03	4.333031e+03	0	7.834375e-04
1.090000e+09	1.195960e+13	0.000000e+00	5.934066e-01	2.161671e+14	5.060346e+14	9.975472e+13	1.057921e+04	5.811689e+03	4.325640e+03	0	7.795487e-04
1.100000e+09	1.178354e+13	0.000000e+00	5.934066e-01	2.135012e+14	5.010803e+14	9.931783e+13	1.055677e+04	5.801855e+03	4.318321e+03	0	7.757044e-04
1.110000e+09	1.161117e+13	0.000000e+00	5.934066e-01	2.108906e+14	4.962092e+14	9.888386e+13	1.053460e+04	5.792117e+03	4.311073e+03	0	7.719035e-04
1.120000e+09	1.144240e+13	0.000000e+00	5.934066e-01	2.083337e+14	4.914190e+14	9.845281e+13	1.051271e+04	5.782472e+03	4.303894e+03	0	7.681453e-04
1.130000e+09	1.127712e+13	0.000000e+00	5.934066e-01	2.058289e+14	4.867084e+14	9.802464e+13	1.049108e+04	5.772919e+03	4.296784e+03	0	7.644289e-04
1.140000e+09	1.111523e+13	0.000000e+00	5.934066e-01	2.033748e+14	4.820754e+14	9.759933e+13	1.046970e+04	5.763457e+03	4.289741e+03	0	7.607533e-04
1.150000e+09	1.095663e+13	0.000000e+00	5.934066e-01	2.009700e+14	4.775186e+14	9.717687e+13	1.044858e+04	5.754085e+03	4.282766e+03	0	7.571177e-04
1.160000e+09	1.080124e+13	0.000000e+00	5.934066e-01	1.986130e+14	4.730363e+14	9.675722e+13	1.042771e+04	5.744802e+03	4.275856e+03	0	7.535214e-04
1.170000e+09	1.064896e+13	0.000000e+00	5.934066e-01	1.963026e+14	4.686266e+14	9.634036e+13	1.040709e+04	5.735606e+03	4.269012e+03	0	7.499636e-04
1.180000e+09	1.049972e+13	0.000000e+00	5.934066e-01	1.940374e+14	4.642883e+14	9.592628e+13	1.038670e+04	5.726497e+03	4.262232e+03	0	7.464434e-04
1.190000e+09	1.035341e+13	0.000000e+00	5.934066e-01	1.918164e+14	4.600198e+14	9.551495e+13	1.036655e+04	5.717472e+03	4.255515e+03	0	7.429601e-04
1.200000e+09	1.020997e+13	0.000000e+00	5.934066e-01	1.896381e+14	4.558194e+14	9.510636e+13	1.034662e+04	5.708532e+03	4.248861e+03	0	7.395131e-04
1.210000e+09	1.006932e+13	0.000000e+00	5.934066e-01	1.875016e+14	4.516859e+14	9.470047e+13	1.032692e+04	5.699674e+03	4.242268e+03	0	7.361016e-04
1.220000e+09	9.931384e+12	0.000000e+00	5.934066e-01	1.854057e+14	4.476178e+14	9.429727e+13	1.030745e+04	5.690898e+03	4.235736e+03	0	7.327249e-04
1.230000e+09	9.796087e+12	0.000000e+00	5.934066e-01	1.833493e+14	4.436137e+14	9.389674e+13	1.028819e+04	5.682203e+03	4.229264e+03	0	7.293823e-04
1.240000e+09	9.663363e+12	0.000000e+00	5.934066e-01	1.813314e+14	4.396724e+14	9.349886e+13	1.026914e+04	5.673586e+03	4.222851e+03	0	7.260733e-04
1.250000e+09	9.533142e+12	0.000000e+00	5.934066e-01	1.793510e+14	4.357922e+14	9.310360e+13	1.025030e+04	5.665049e+03	4.216496e+03	0	7.227971e-04
1.260000e+09	9.405361e+12	0.000000e+00	5.934066e-01	1.774071e+14	4.319722e+14	9.271095e+13	1.023167e+04	5.656588e+03	4.210199e+03	0	7.195531e-04
1.270000e+09	9.279956e+12	0.000000e+00	5.934066e-01	1.754988e+14	4.282110e+14	9.232089e+13	1.021324e+04	5.648204e+03	4.203958e+03	0	7.163408e-04
1.280000e+09	9.156866e+12	0.000000e+00	5.934066e-01	1.736252e+14	4.245074e+14	9.193339e+13	1.019500e+04	5.639894e+03	4.197774e+03	0	7.131595e-04
1.290000e+09	9.036033e+12	0.000000e+00	5.934066e-01	1.717854e+14	4.208601e+14	9.154844e+13	1.017696e+04	5.631659e+03	4.191644e+03	0	7.100086e-04
1.300000e+09	8.917399e+12	0.000000e+00	5.934066e-01	1.699785e+14	4.172682e+14	9.116601e+13	1.015911e+04	5.623497e+03	4.185569e+03	0	7.068877e-04
1.310000e+09	8.800910e+12	0.000000e+00	5.934066e-01	1.682038e+14	4.137303e+14	9.078609e+13	1.014145e+04	5.615407e+03	4.179548e+03	0	7.037961e-04
1.320000e+09	8.686511e+12	0.000000e+00	5.934066e-01	1.664604e+14	4.102454e+14	9.040866e+13	1.012397e+04	5.607388e+03	4.173579e+03	0	7.007334e-04
1.330000e+09	8.574151e+12	0.000000e+00	5.934066e-01	1.647476e+14	4.068124e+14	9.003370e+13	1.010667e+04	5.599439e+03	4.167663e+03	0	6.976990e-04
1.340000e+09	8.463781e+12	0.000000e+00	5.934066e-01	1.630646e+14	4.034303e+14	8.966119e+13	1.008955e+04	5.591560e+03	4.161798e+03	0	6.946923e-04
1.350000e+09	8.355351e+12	0.000000e+00	5.934066e-01	1.614107e+14	4.000978e+14	8.929111e+13	1.007260e+04	5.583748e+03	4.155984e+03	0	6.917130e-04
1.360000e+09	8.248814e+12	0.000000e+00	5.934066e-01	1.597852e+14	3.968144e+14	8.892344e+13	1.005582e+04	5.576004e+03	4.150220e+03	0	6.887605e-04
