#t		Qconv[W]	Ri[Rp]		R*[Rp]		Qc[W]		Qm[W]		Qr[W]		Tcmb[K]		Tl[K]		Tup[K]		RiFlag		Bs[T]
0.000000e+00	4.690451e+14	0.000000e+00	5.934067e-01	6.349589e+15	2.711308e+13	1.974512e+14	2.443041e+04	3.970143e+03	2.906265e+03	0	2.639420e-03
1.000000e+07	4.390240e+14	0.000000e+00	5.934067e-01	5.948532e+15	4.676952e+13	1.963571e+14	2.389007e+04	4.269298e+03	3.125255e+03	0	2.581862e-03
2.000000e+07	4.115828e+14	0.000000e+00	5.934067e-01	5.581872e+15	7.378253e+13	1.952713e+14	2.338285e+04	4.548905e+03	3.329936e+03	0	2.526907e-03
3.000000e+07	3.864309e+14	0.000000e+00	5.934067e-01	5.245738e+15	1.086216e+14	1.941936e+14	2.290602e+04	4.810196e+03	3.521208e+03	0	2.474348e-03
4.000000e+07	3.633182e+14	0.000000e+00	5.934067e-01	4.936801e+15	1.513676e+14	1.931239e+14	2.245715e+04	5.054210e+03	3.699834e+03	0	2.424000e-03
5.000000e+07	3.420289e+14	0.000000e+00	5.934067e-01	4.652184e+15	2.017438e+14	1.920622e+14	2.203403e+04	5.281839e+03	3.866466e+03	0	2.375697e-03
6.000000e+07	3.223764e+14	0.000000e+00	5.934067e-01	4.389406e+15	2.591650e+14	1.910084e+14	2.163472e+04	5.493864e+03	4.021674e+03	0	2.329296e-03
7.000000e+07	3.041994e+14	0.000000e+00	5.934067e-01	4.146315e+15	3.227971e+14	1.899625e+14	2.125743e+04	5.690981e+03	4.165970e+03	0	2.284667e-03
8.000000e+07	2.873575e+14	0.000000e+00	5.934067e-01	3.921041e+15	3.916206e+14	1.889243e+14	2.090057e+04	5.873834e+03	4.299824e+03	0	2.241701e-03
9.000000e+07	2.717284e+14	0.000000e+00	5.934067e-01	3.711954e+15	4.644937e+14	1.878939e+14	2.056269e+04	6.043029e+03	4.423680e+03	0	2.200300e-03
1.000000e+08	2.572047e+14	0.000000e+00	5.934067e-01	3.517623e+15	5.402123e+14	1.868711e+14	2.024245e+04	6.199151e+03	4.537966e+03	0	2.160379e-03
1.100000e+08	2.436920e+14	0.000000e+00	5.934067e-01	3.336787e+15	6.175645e+14	1.858559e+14	1.993864e+04	6.342775e+03	4.643103e+03	0	2.121863e-03
1.200000e+08	2.311062e+14	0.000000e+00	5.934067e-01	3.168328e+15	6.953767e+14	1.848482e+14	1.965016e+04	6.474474e+03	4.739511e+03	0	2.084686e-03
1.300000e+08	2.193725e+14	0.000000e+00	5.934067e-01	3.011248e+15	7.725512e+14	1.838480e+14	1.937597e+04	6.594821e+03	4.827609e+03	0	2.048791e-03
1.400000e+08	2.084239e+14	0.000000e+00	5.934067e-01	2.864650e+15	8.480953e+14	1.828551e+14	1.911513e+04	6.704393e+03	4.907818e+03	0	2.014123e-03
1.500000e+08	1.981996e+14	0.000000e+00	5.934067e-01	2.727727e+15	9.211408e+14	1.818697e+14	1.886678e+04	6.803765e+03	4.980561e+03	0	1.980635e-03
1.600000e+08	1.886447e+14	0.000000e+00	5.934067e-01	2.599743e+15	9.909542e+14	1.808915e+14	1.863010e+04	6.893515e+03	5.046261e+03	0	1.948282e-03
1.700000e+08	1.797090e+14	0.000000e+00	5.934067e-01	2.480030e+15	1.056942e+15	1.799205e+14	1.840434e+04	6.974217e+03	5.105338e+03	0	1.917021e-03
1.800000e+08	1.713465e+14	0.000000e+00	5.934067e-01	2.367975e+15	1.118646e+15	1.789567e+14	1.818882e+04	7.046438e+03	5.158205e+03	0	1.886812e-03
1.900000e+08	1.635152e+14	0.000000e+00	5.934067e-01	2.263016e+15	1.175739e+15	1.780000e+14	1.798289e+04	7.110735e+03	5.205273e+03	0	1.857617e-03
2.000000e+08	1.561763e+14	0.000000e+00	5.934067e-01	2.164635e+15	1.228011e+15	1.770503e+14	1.778595e+04	7.167651e+03	5.246937e+03	0	1.829400e-03
2.100000e+08	1.492939e+14	0.000000e+00	5.934067e-01	2.072355e+15	1.275359e+15	1.761076e+14	1.759745e+04	7.217713e+03	5.283584e+03	0	1.802122e-03
2.200000e+08	1.428351e+14	0.000000e+00	5.934067e-01	1.985735e+15	1.317771e+15	1.751718e+14	1.741687e+04	7.261429e+03	5.315585e+03	0	1.775750e-03
2.300000e+08	1.367694e+14	0.000000e+00	5.934067e-01	1.904367e+15	1.355311e+15	1.742429e+14	1.724374e+04	7.299284e+03	5.343297e+03	0	1.750249e-03
2.400000e+08	1.310685e+14	0.000000e+00	5.934067e-01	1.827877e+15	1.388107e+15	1.733208e+14	1.707761e+04	7.331742e+03	5.367057e+03	0	1.725585e-03
2.500000e+08	1.257065e+14	0.000000e+00	5.934067e-01	1.755915e+15	1.416337e+15	1.724055e+14	1.691807e+04	7.359241e+03	5.387187e+03	0	1.701725e-03
2.600000e+08	1.206591e+14	0.000000e+00	5.934067e-01	1.688160e+15	1.440215e+15	1.714968e+14	1.676472e+04	7.382195e+03	5.403990e+03	0	1.678637e-03
2.700000e+08	1.159041e+14	0.000000e+00	5.934067e-01	1.624314e+15	1.459982e+15	1.705948e+14	1.661722e+04	7.400991e+03	5.417749e+03	0	1.656290e-03
2.800000e+08	1.114209e+14	0.000000e+00	5.934067e-01	1.564102e+15	1.475899e+15	1.696994e+14	1.647524e+04	7.415992e+03	5.428730e+03	0	1.634654e-03
2.900000e+08	1.071905e+14	0.000000e+00	5.934067e-01	1.507271e+15	1.488233e+15	1.688105e+14	1.633845e+04	7.427537e+03	5.437181e+03	0	1.613698e-03
3.000000e+08	1.031953e+14	0.000000e+00	5.934067e-01	1.453585e+15	1.497256e+15	1.679281e+14	1.620657e+04	7.435940e+03	5.443332e+03	0	1.593395e-03
3.100000e+08	9.941904e+13	0.000000e+00	5.934067e-01	1.402827e+15	1.503239e+15	1.670522e+14	1.607934e+04	7.441491e+03	5.447396e+03	0	1.573717e-03
3.200000e+08	9.584668e+13	0.000000e+00	5.934067e-01	1.354798e+15	1.506445e+15	1.661826e+14	1.595650e+04	7.444458e+03	5.449568e+03	0	1.554638e-03
3.300000e+08	9.246439e+13	0.000000e+00	5.934067e-01	1.309311e+15	1.507128e+15	1.653193e+14	1.583782e+04	7.445090e+03	5.450031e+03	0	1.536131e-03
3.400000e+08	8.925936e+13	0.000000e+00	5.934067e-01	1.266197e+15	1.505532e+15	1.644623e+14	1.572309e+04	7.443614e+03	5.448950e+03	0	1.518174e-03
3.500000e+08	8.621977e+13	0.000000e+00	5.934067e-01	1.225296e+15	1.501888e+15	1.636115e+14	1.561209e+04	7.440238e+03	5.446479e+03	0	1.500741e-03
3.600000e+08	8.333468e+13	0.000000e+00	5.934067e-01	1.186464e+15	1.496411e+15	1.627669e+14	1.550464e+04	7.435154e+03	5.442757e+03	0	1.483812e-03
3.700000e+08	8.059400e+13	0.000000e+00	5.934067e-01	1.149564e+15	1.489304e+15	1.619284e+14	1.540056e+04	7.428536e+03	5.437913e+03	0	1.467364e-03
3.800000e+08	7.798840e+13	0.000000e+00	5.934067e-01	1.114474e+15	1.480754e+15	1.610960e+14	1.529968e+04	7.420544e+03	5.432063e+03	0	1.451377e-03
3.900000e+08	7.550924e+13	0.000000e+00	5.934067e-01	1.081076e+15	1.470933e+15	1.602695e+14	1.520186e+04	7.411324e+03	5.425313e+03	0	1.435832e-03
4.000000e+08	7.314853e+13	0.000000e+00	5.934067e-01	1.049265e+15	1.460002e+15	1.594491e+14	1.510693e+04	7.401009e+03	5.417762e+03	0	1.420710e-03
4.100000e+08	7.089888e+13	0.000000e+00	5.934067e-01	1.018942e+15	1.448105e+15	1.586346e+14	1.501478e+04	7.389719e+03	5.409497e+03	0	1.405994e-03
4.200000e+08	6.875343e+13	0.000000e+00	5.934067e-01	9.900145e+14	1.435375e+15	1.578259e+14	1.492526e+04	7.377564e+03	5.400600e+03	0	1.391666e-03
4.300000e+08	6.670584e+13	0.000000e+00	5.934067e-01	9.623984e+14	1.421932e+15	1.570231e+14	1.483826e+04	7.364645e+03	5.391142e+03	0	1.377711e-03
4.400000e+08	6.475022e+13	0.000000e+00	5.934067e-01	9.360149e+14	1.407886e+15	1.562260e+14	1.475367e+04	7.351051e+03	5.381191e+03	0	1.364114e-03
4.500000e+08	6.288112e+13	0.000000e+00	5.934067e-01	9.107911e+14	1.393336e+15	1.554347e+14	1.467137e+04	7.336866e+03	5.370807e+03	0	1.350860e-03
4.600000e+08	6.109345e+13	0.000000e+00	5.934067e-01	8.866589e+14	1.378369e+15	1.546490e+14	1.459127e+04	7.322163e+03	5.360045e+03	0	1.337935e-03
4.700000e+08	5.938251e+13	0.000000e+00	5.934067e-01	8.635556e+14	1.363067e+15	1.538690e+14	1.451328e+04	7.307012e+03	5.348953e+03	0	1.325327e-03
4.800000e+08	5.774392e+13	0.000000e+00	5.934067e-01	8.414224e+14	1.347501e+15	1.530946e+14	1.443730e+04	7.291472e+03	5.337578e+03	0	1.313023e-03
4.900000e+08	5.617358e+13	0.000000e+00	5.934067e-01	8.202048e+14	1.331734e+15	1.523257e+14	1.436325e+04	7.275599e+03	5.325958e+03	0	1.301011e-03
5.000000e+08	5.466771e+13	0.000000e+00	5.934067e-01	7.998520e+14	1.315824e+15	1.515623e+14	1.429105e+04	7.259445e+03	5.314133e+03	0	1.289280e-03
5.100000e+08	5.322276e+13	0.000000e+00	5.934067e-01	7.803166e+14	1.299821e+15	1.508044e+14	1.422063e+04	7.243053e+03	5.302133e+03	0	1.277819e-03
5.200000e+08	5.183543e+13	0.000000e+00	5.934067e-01	7.615545e+14	1.283770e+15	1.500519e+14	1.415192e+04	7.226465e+03	5.289991e+03	0	1.266618e-03
5.300000e+08	5.050263e+13	0.000000e+00	5.934067e-01	7.435244e+14	1.267712e+15	1.493047e+14	1.408484e+04	7.209719e+03	5.277732e+03	0	1.255668e-03
5.400000e+08	4.922149e+13	0.000000e+00	5.934067e-01	7.261877e+14	1.251679e+15	1.485629e+14	1.401934e+04	7.192847e+03	5.265381e+03	0	1.244959e-03
5.500000e+08	4.798932e+13	0.000000e+00	5.934067e-01	7.095084e+14	1.235705e+15	1.478263e+14	1.395536e+04	7.175880e+03	5.252961e+03	0	1.234483e-03
5.600000e+08	4.680358e+13	0.000000e+00	5.934067e-01	6.934528e+14	1.219815e+15	1.470950e+14	1.389283e+04	7.158844e+03	5.240490e+03	0	1.224231e-03
5.700000e+08	4.566193e+13	0.000000e+00	5.934067e-01	6.779893e+14	1.204034e+15	1.463689e+14	1.383171e+04	7.141765e+03	5.227988e+03	0	1.214195e-03
5.800000e+08	4.456215e+13	0.000000e+00	5.934067e-01	6.630882e+14	1.188381e+15	1.456479e+14	1.377194e+04	7.124665e+03	5.215470e+03	0	1.204367e-03
5.900000e+08	4.350216e+13	0.000000e+00	5.934067e-01	6.487219e+14	1.172873e+15	1.449320e+14	1.371348e+04	7.107562e+03	5.202950e+03	0	1.194741e-03
6.000000e+08	4.248002e+13	0.000000e+00	5.934067e-01	6.348642e+14	1.157527e+15	1.442212e+14	1.365627e+04	7.090476e+03	5.190442e+03	0	1.185310e-03
6.100000e+08	4.149391e+13	0.000000e+00	5.934067e-01	6.214907e+14	1.142355e+15	1.435155e+14	1.360028e+04	7.073421e+03	5.177958e+03	0	1.176066e-03
6.200000e+08	4.054210e+13	0.000000e+00	5.934067e-01	6.085784e+14	1.127368e+15	1.428147e+14	1.354546e+04	7.056412e+03	5.165507e+03	0	1.167004e-03
6.300000e+08	3.962297e+13	0.000000e+00	5.934067e-01	5.961055e+14	1.112575e+15	1.421189e+14	1.349177e+04	7.039462e+03	5.153099e+03	0	1.158117e-03
6.400000e+08	3.873501e+13	0.000000e+00	5.934067e-01	5.840518e+14	1.097983e+15	1.414279e+14	1.343917e+04	7.022582e+03	5.140742e+03	0	1.149401e-03
6.500000e+08	3.787678e+13	0.000000e+00	5.934067e-01	5.723980e+14	1.083599e+15	1.407419e+14	1.338763e+04	7.005783e+03	5.128444e+03	0	1.140848e-03
6.600000e+08	3.704693e+13	0.000000e+00	5.934067e-01	5.611260e+14	1.069427e+15	1.400606e+14	1.333711e+04	6.989072e+03	5.116212e+03	0	1.132455e-03
6.700000e+08	3.624419e+13	0.000000e+00	5.934067e-01	5.502187e+14	1.055471e+15	1.393842e+14	1.328758e+04	6.972458e+03	5.104050e+03	0	1.124216e-03
6.800000e+08	3.546735e+13	0.000000e+00	5.934067e-01	5.396600e+14	1.041733e+15	1.387125e+14	1.323900e+04	6.955949e+03	5.091965e+03	0	1.116126e-03
6.900000e+08	3.471528e+13	0.000000e+00	5.934067e-01	5.294347e+14	1.028217e+15	1.380455e+14	1.319135e+04	6.939549e+03	5.079960e+03	0	1.108180e-03
7.000000e+08	3.398690e+13	0.000000e+00	5.934067e-01	5.195284e+14	1.014922e+15	1.373832e+14	1.314460e+04	6.923266e+03	5.068040e+03	0	1.100375e-03
7.100000e+08	3.328120e+13	0.000000e+00	5.934067e-01	5.099275e+14	1.001849e+15	1.367255e+14	1.309872e+04	6.907102e+03	5.056207e+03	0	1.092706e-03
7.200000e+08	3.259722e+13	0.000000e+00	5.934067e-01	5.006191e+14	9.889972e+14	1.360725e+14	1.305368e+04	6.891063e+03	5.044466e+03	0	1.085168e-03
7.300000e+08	3.193405e+13	0.000000e+00	5.934067e-01	4.915909e+14	9.763672e+14	1.354240e+14	1.300945e+04	6.875151e+03	5.032818e+03	0	1.077759e-03
7.400000e+08	3.129082e+13	0.000000e+00	5.934067e-01	4.828315e+14	9.639568e+14	1.347800e+14	1.296602e+04	6.859370e+03	5.021266e+03	0	1.070473e-03
7.500000e+08	3.066672e+13	0.000000e+00	5.934067e-01	4.743298e+14	9.517651e+14	1.341405e+14	1.292336e+04	6.843723e+03	5.009812e+03	0	1.063309e-03
7.600000e+08	3.006097e+13	0.000000e+00	5.934067e-01	4.660755e+14	9.397897e+14	1.335055e+14	1.288145e+04	6.828210e+03	4.998456e+03	0	1.056261e-03
7.700000e+08	2.947285e+13	0.000000e+00	5.934067e-01	4.580587e+14	9.280284e+14	1.328749e+14	1.284026e+04	6.812835e+03	4.987201e+03	0	1.049327e-03
7.800000e+08	2.890164e+13	0.000000e+00	5.934067e-01	4.502700e+14	9.164790e+14	1.322486e+14	1.279978e+04	6.797598e+03	4.976047e+03	0	1.042504e-03
7.900000e+08	2.834668e+13	0.000000e+00	5.934067e-01	4.427005e+14	9.051385e+14	1.316267e+14	1.275997e+04	6.782500e+03	4.964995e+03	0	1.035788e-03
8.000000e+08	2.780735e+13	0.000000e+00	5.934067e-01	4.353417e+14	8.940048e+14	1.310092e+14	1.272084e+04	6.767542e+03	4.954045e+03	0	1.029177e-03
8.100000e+08	2.728304e+13	0.000000e+00	5.934067e-01	4.281856e+14	8.830739e+14	1.303959e+14	1.268235e+04	6.752725e+03	4.943198e+03	0	1.022668e-03
8.200000e+08	2.677319e+13	0.000000e+00	5.934067e-01	4.212245e+14	8.723432e+14	1.297868e+14	1.264449e+04	6.738048e+03	4.932455e+03	0	1.016257e-03
8.300000e+08	2.627724e+13	0.000000e+00	5.934067e-01	4.144511e+14	8.618094e+14	1.291820e+14	1.260725e+04	6.723512e+03	4.921814e+03	0	1.009943e-03
8.400000e+08	2.579469e+13	0.000000e+00	5.934067e-01	4.078584e+14	8.514689e+14	1.285813e+14	1.257059e+04	6.709117e+03	4.911276e+03	0	1.003722e-03
8.500000e+08	2.532503e+13	0.000000e+00	5.934067e-01	4.014398e+14	8.413188e+14	1.279848e+14	1.253452e+04	6.694862e+03	4.900841e+03	0	9.975933e-04
8.600000e+08	2.486779e+13	0.000000e+00	5.934067e-01	3.951890e+14	8.313555e+14	1.273924e+14	1.249902e+04	6.680747e+03	4.890508e+03	0	9.915531e-04
8.700000e+08	2.442253e+13	0.000000e+00	5.934067e-01	3.891000e+14	8.215758e+14	1.268041e+14	1.246406e+04	6.666771e+03	4.880277e+03	0	9.855995e-04
8.800000e+08	2.398882e+13	0.000000e+00	5.934067e-01	3.831669e+14	8.119755e+14	1.262198e+14	1.242964e+04	6.652933e+03	4.870148e+03	0	9.797303e-04
8.900000e+08	2.356625e+13	0.000000e+00	5.934067e-01	3.773843e+14	8.025520e+14	1.256396e+14	1.239574e+04	6.639233e+03	4.860119e+03	0	9.739434e-04
9.000000e+08	2.315443e+13	0.000000e+00	5.934067e-01	3.717469e+14	7.933013e+14	1.250633e+14	1.236235e+04	6.625670e+03	4.850191e+03	0	9.682368e-04
9.100000e+08	2.275297e+13	0.000000e+00	5.934067e-01	3.662497e+14	7.842201e+14	1.244910e+14	1.232946e+04	6.612243e+03	4.840361e+03	0	9.626083e-04
9.200000e+08	2.236154e+13	0.000000e+00	5.934067e-01	3.608879e+14	7.753049e+14	1.239226e+14	1.229705e+04	6.598950e+03	4.830631e+03	0	9.570562e-04
9.300000e+08	2.197977e+13	0.000000e+00	5.934067e-01	3.556569e+14	7.665525e+14	1.233580e+14	1.226511e+04	6.585791e+03	4.820998e+03	0	9.515785e-04
9.400000e+08	2.160736e+13	0.000000e+00	5.934067e-01	3.505523e+14	7.579595e+14	1.227974e+14	1.223363e+04	6.572764e+03	4.811462e+03	0	9.461735e-04
9.500000e+08	2.124397e+13	0.000000e+00	5.934067e-01	3.455698e+14	7.495222e+14	1.222405e+14	1.220260e+04	6.559868e+03	4.802021e+03	0	9.408394e-04
9.600000e+08	2.088932e+13	0.000000e+00	5.934067e-01	3.407055e+14	7.412380e+14	1.216875e+14	1.217202e+04	6.547101e+03	4.792676e+03	0	9.355744e-04
9.700000e+08	2.054312e+13	0.000000e+00	5.934067e-01	3.359555e+14	7.331032e+14	1.211382e+14	1.214186e+04	6.534464e+03	4.783425e+03	0	9.303771e-04
9.800000e+08	2.020509e+13	0.000000e+00	5.934067e-01	3.313160e+14	7.251145e+14	1.205927e+14	1.211211e+04	6.521953e+03	4.774266e+03	0	9.252458e-04
9.900000e+08	1.987496e+13	0.000000e+00	5.934067e-01	3.267836e+14	7.172690e+14	1.200509e+14	1.208278e+04	6.509567e+03	4.765200e+03	0	9.201790e-04
1.000000e+09	1.955249e+13	0.000000e+00	5.934067e-01	3.223547e+14	7.095635e+14	1.195127e+14	1.205385e+04	6.497306e+03	4.756224e+03	0	9.151751e-04
1.010000e+09	1.923742e+13	0.000000e+00	5.934067e-01	3.180262e+14	7.019951e+14	1.189782e+14	1.202531e+04	6.485168e+03	4.747339e+03	0	9.102329e-04
1.020000e+09	1.892953e+13	0.000000e+00	5.934067e-01	3.137949e+14	6.945606e+14	1.184473e+14	1.199714e+04	6.473151e+03	4.738542e+03	0	9.053508e-04
1.030000e+09	1.862860e+13	0.000000e+00	5.934067e-01	3.096578e+14	6.872573e+14	1.179200e+14	1.196936e+04	6.461253e+03	4.729833e+03	0	9.005275e-04
1.040000e+09	1.833440e+13	0.000000e+00	5.934067e-01	3.056119e+14	6.800823e+14	1.173963e+14	1.194193e+04	6.449474e+03	4.721210e+03	0	8.957617e-04
1.050000e+09	1.804674e+13	0.000000e+00	5.934067e-01	3.016546e+14	6.730328e+14	1.168761e+14	1.191486e+04	6.437812e+03	4.712673e+03	0	8.910521e-04
1.060000e+09	1.776540e+13	0.000000e+00	5.934067e-01	2.977830e+14	6.661059e+14	1.163595e+14	1.188815e+04	6.426266e+03	4.704221e+03	0	8.863976e-04
1.070000e+09	1.749021e+13	0.000000e+00	5.934067e-01	2.939947e+14	6.592992e+14	1.158463e+14	1.186177e+04	6.414833e+03	4.695852e+03	0	8.817969e-04
1.080000e+09	1.722097e+13	0.000000e+00	5.934067e-01	2.902872e+14	6.526096e+14	1.153365e+14	1.183573e+04	6.403513e+03	4.687565e+03	0	8.772488e-04
1.090000e+09	1.695751e+13	0.000000e+00	5.934067e-01	2.866580e+14	6.460350e+14	1.148302e+14	1.181001e+04	6.392304e+03	4.679360e+03	0	8.727522e-04
1.100000e+09	1.669967e+13	0.000000e+00	5.934067e-01	2.831049e+14	6.395727e+14	1.143273e+14	1.178462e+04	6.381204e+03	4.671234e+03	0	8.683061e-04
1.110000e+09	1.644727e+13	0.000000e+00	5.934067e-01	2.796258e+14	6.332201e+14	1.138277e+14	1.175953e+04	6.370213e+03	4.663188e+03	0	8.639093e-04
1.120000e+09	1.620015e+13	0.000000e+00	5.934067e-01	2.762183e+14	6.269750e+14	1.133315e+14	1.173476e+04	6.359328e+03	4.655220e+03	0	8.595608e-04
1.130000e+09	1.595818e+13	0.000000e+00	5.934067e-01	2.728806e+14	6.208350e+14	1.128387e+14	1.171029e+04	6.348549e+03	4.647329e+03	0	8.552597e-04
1.140000e+09	1.572119e+13	0.000000e+00	5.934067e-01	2.696106e+14	6.147977e+14	1.123491e+14	1.168611e+04	6.337873e+03	4.639514e+03	0	8.510048e-04
1.150000e+09	1.548905e+13	0.000000e+00	5.934067e-01	2.664064e+14	6.088610e+14	1.118628e+14	1.166221e+04	6.327300e+03	4.631774e+03	0	8.467954e-04
1.160000e+09	1.526163e+13	0.000000e+00	5.934067e-01	2.632662e+14	6.030226e+14	1.113797e+14	1.163861e+04	6.316827e+03	4.624108e+03	0	8.426305e-04
1.170000e+09	1.503878e+13	0.000000e+00	5.934067e-01	2.601882e+14	5.972804e+14	1.108998e+14	1.161527e+04	6.306455e+03	4.616515e+03	0	8.385091e-04
1.180000e+09	1.482039e+13	0.000000e+00	5.934067e-01	2.571707e+14	5.916325e+14	1.104232e+14	1.159221e+04	6.296180e+03	4.608994e+03	0	8.344303e-04
1.190000e+09	1.460633e+13	0.000000e+00	5.934067e-01	2.542121e+14	5.860766e+14	1.099497e+14	1.156942e+04	6.286003e+03	4.601544e+03	0	8.303935e-04
1.200000e+09	1.439648e+13	0.000000e+00	5.934067e-01	2.513107e+14	5.806107e+14	1.094794e+14	1.154689e+04	6.275921e+03	4.594164e+03	0	8.263976e-04
1.210000e+09	1.419074e+13	0.000000e+00	5.934067e-01	2.484651e+14	5.752331e+14	1.090121e+14	1.152461e+04	6.265933e+03	4.586852e+03	0	8.224419e-04
1.220000e+09	1.398898e+13	0.000000e+00	5.934067e-01	2.456737e+14	5.699418e+14	1.085480e+14	1.150259e+04	6.256038e+03	4.579609e+03	0	8.185256e-04
1.230000e+09	1.379111e+13	0.000000e+00	5.934067e-01	2.429351e+14	5.647348e+14	1.080869e+14	1.148081e+04	6.246235e+03	4.572433e+03	0	8.146480e-04
1.240000e+09	1.359702e+13	0.000000e+00	5.934067e-01	2.402479e+14	5.596106e+14	1.076289e+14	1.145927e+04	6.236523e+03	4.565323e+03	0	8.108082e-04
1.250000e+09	1.340661e+13	0.000000e+00	5.934067e-01	2.376108e+14	5.545671e+14	1.071739e+14	1.143797e+04	6.226899e+03	4.558278e+03	0	8.070056e-04
1.260000e+09	1.321979e+13	0.000000e+00	5.934067e-01	2.350225e+14	5.496030e+14	1.067219e+14	1.141691e+04	6.217364e+03	4.551298e+03	0	8.032395e-04
1.270000e+09	1.303646e+13	0.000000e+00	5.934067e-01	2.324817e+14	5.447162e+14	1.062729e+14	1.139607e+04	6.207915e+03	4.544381e+03	0	7.995091e-04
1.280000e+09	1.285653e+13	0.000000e+00	5.934067e-01	2.299873e+14	5.399054e+14	1.058269e+14	1.137546e+04	6.198551e+03	4.537527e+03	0	7.958138e-04
1.290000e+09	1.267992e+13	0.000000e+00	5.934067e-01	2.275379e+14	5.351687e+14	1.053837e+14	1.135507e+04	6.189272e+03	4.530734e+03	0	7.921529e-04
1.300000e+09	1.250654e+13	0.000000e+00	5.934067e-01	2.251326e+14	5.305048e+14	1.049435e+14	1.133489e+04	6.180076e+03	4.524003e+03	0	7.885258e-04
1.310000e+09	1.233631e+13	0.000000e+00	5.934067e-01	2.227702e+14	5.259122e+14	1.045062e+14	1.131493e+04	6.170962e+03	4.517331e+03	0	7.849319e-04
1.320000e+09	1.216916e+13	0.000000e+00	5.934067e-01	2.204496e+14	5.213892e+14	1.040717e+14	1.129517e+04	6.161929e+03	4.510718e+03	0	7.813705e-04
1.330000e+09	1.200500e+13	0.000000e+00	5.934067e-01	2.181699e+14	5.169346e+14	1.036401e+14	1.127562e+04	6.152976e+03	4.504164e+03	0	7.778411e-04
1.340000e+09	1.184376e+13	0.000000e+00	5.934067e-01	2.159299e+14	5.125467e+14	1.032113e+14	1.125627e+04	6.144101e+03	4.497667e+03	0	7.743430e-04
1.350000e+09	1.168537e+13	0.000000e+00	5.934067e-01	2.137289e+14	5.082247e+14	1.027853e+14	1.123712e+04	6.135303e+03	4.491227e+03	0	7.708758e-04
1.360000e+09	1.152977e+13	0.000000e+00	5.934067e-01	2.115657e+14	5.039665e+14	1.023620e+14	1.121816e+04	6.126583e+03	4.484844e+03	0	7.674387e-04
