#t		Qconv[W]	Ri[Rp]		R*[Rp]		Qc[W]		Qm[W]		Qr[W]		Tcmb[K]		Tl[K]		Tup[K]		RiFlag		Bs[T]
0.000000e+00	5.863593e+14	0.000000e+00	5.999999e-01	7.417278e+15	2.459924e+13	2.096586e+14	2.612850e+04	4.042954e+03	2.952243e+03	0	2.819215e-03
1.000000e+07	5.506511e+14	0.000000e+00	5.999999e-01	6.972004e+15	4.464823e+13	2.084969e+14	2.556367e+04	4.371866e+03	3.192421e+03	0	2.760783e-03
2.000000e+07	5.177857e+14	0.000000e+00	5.999999e-01	6.562105e+15	7.330703e+13	2.073440e+14	2.503177e+04	4.680389e+03	3.417710e+03	0	2.704728e-03
3.000000e+07	4.874687e+14	0.000000e+00	5.999999e-01	6.183921e+15	1.114495e+14	2.061996e+14	2.453027e+04	4.969663e+03	3.628943e+03	0	2.650874e-03
4.000000e+07	4.594426e+14	0.000000e+00	5.999999e-01	5.834254e+15	1.594650e+14	2.050638e+14	2.405693e+04	5.240640e+03	3.826816e+03	0	2.599066e-03
5.000000e+07	4.334831e+14	0.000000e+00	5.999999e-01	5.510315e+15	2.172681e+14	2.039364e+14	2.360968e+04	5.494129e+03	4.011918e+03	0	2.549163e-03
6.000000e+07	4.093943e+14	0.000000e+00	5.999999e-01	5.209671e+15	2.843399e+14	2.028175e+14	2.318666e+04	5.730830e+03	4.184763e+03	0	2.501041e-03
7.000000e+07	3.870053e+14	0.000000e+00	5.999999e-01	4.930195e+15	3.597925e+14	2.017069e+14	2.278620e+04	5.951370e+03	4.345805e+03	0	2.454591e-03
8.000000e+07	3.661666e+14	0.000000e+00	5.999999e-01	4.670030e+15	4.424442e+14	2.006046e+14	2.240674e+04	6.156328e+03	4.495469e+03	0	2.409719e-03
9.000000e+07	3.467470e+14	0.000000e+00	5.999999e-01	4.427540e+15	5.309019e+14	1.995104e+14	2.204689e+04	6.346256e+03	4.634158e+03	0	2.366343e-03
1.000000e+08	3.286304e+14	0.000000e+00	5.999999e-01	4.201287e+15	6.236428e+14	1.984244e+14	2.170535e+04	6.521704e+03	4.762273e+03	0	2.324392e-03
1.100000e+08	3.117144e+14	0.000000e+00	5.999999e-01	3.989992e+15	7.190918e+14	1.973464e+14	2.138091e+04	6.683222e+03	4.880217e+03	0	2.283806e-03
1.200000e+08	2.959071e+14	0.000000e+00	5.999999e-01	3.792514e+15	8.156913e+14	1.962764e+14	2.107249e+04	6.831375e+03	4.988401e+03	0	2.244530e-03
1.300000e+08	2.811262e+14	0.000000e+00	5.999999e-01	3.607825e+15	9.119597e+14	1.952144e+14	2.077906e+04	6.966745e+03	5.087251e+03	0	2.206517e-03
1.400000e+08	2.672969e+14	0.000000e+00	5.999999e-01	3.434998e+15	1.006538e+15	1.941602e+14	2.049966e+04	7.089930e+03	5.177203e+03	0	2.169726e-03
1.500000e+08	2.543513e+14	0.000000e+00	5.999999e-01	3.273184e+15	1.098224e+15	1.931138e+14	2.023342e+04	7.201544e+03	5.258706e+03	0	2.134117e-03
1.600000e+08	2.422270e+14	0.000000e+00	5.999999e-01	3.121608e+15	1.185990e+15	1.920751e+14	1.997952e+04	7.302212e+03	5.332216e+03	0	2.099654e-03
1.700000e+08	2.308666e+14	0.000000e+00	5.999999e-01	2.979554e+15	1.269000e+15	1.910441e+14	1.973719e+04	7.392567e+03	5.398195e+03	0	2.066302e-03
1.800000e+08	2.202170e+14	0.000000e+00	5.999999e-01	2.846362e+15	1.346601e+15	1.900207e+14	1.950572e+04	7.473243e+03	5.457106e+03	0	2.034029e-03
1.900000e+08	2.102289e+14	0.000000e+00	5.999999e-01	2.721416e+15	1.418321e+15	1.890048e+14	1.928444e+04	7.544868e+03	5.509408e+03	0	2.002800e-03
2.000000e+08	2.008565e+14	0.000000e+00	5.999999e-01	2.604147e+15	1.483855e+15	1.879964e+14	1.907274e+04	7.608062e+03	5.555553e+03	0	1.972584e-03
2.100000e+08	1.920571e+14	0.000000e+00	5.999999e-01	2.494022e+15	1.543043e+15	1.869954e+14	1.887003e+04	7.663430e+03	5.595984e+03	0	1.943347e-03
2.200000e+08	1.837909e+14	0.000000e+00	5.999999e-01	2.390547e+15	1.595857e+15	1.860018e+14	1.867577e+04	7.711558e+03	5.631128e+03	0	1.915056e-03
2.300000e+08	1.760210e+14	0.000000e+00	5.999999e-01	2.293262e+15	1.642376e+15	1.850155e+14	1.848946e+04	7.753008e+03	5.661396e+03	0	1.887680e-03
2.400000e+08	1.687130e+14	0.000000e+00	5.999999e-01	2.201736e+15	1.682768e+15	1.840364e+14	1.831064e+04	7.788319e+03	5.687180e+03	0	1.861185e-03
2.500000e+08	1.618346e+14	0.000000e+00	5.999999e-01	2.115570e+15	1.717269e+15	1.830644e+14	1.813886e+04	7.818001e+03	5.708854e+03	0	1.835540e-03
2.600000e+08	1.553561e+14	0.000000e+00	5.999999e-01	2.034392e+15	1.746167e+15	1.820996e+14	1.797372e+04	7.842535e+03	5.726770e+03	0	1.810713e-03
2.700000e+08	1.492498e+14	0.000000e+00	5.999999e-01	1.957858e+15	1.769789e+15	1.811419e+14	1.781484e+04	7.862373e+03	5.741256e+03	0	1.786672e-03
2.800000e+08	1.434898e+14	0.000000e+00	5.999999e-01	1.885645e+15	1.788485e+15	1.801911e+14	1.766186e+04	7.877939e+03	5.752622e+03	0	1.763385e-03
2.900000e+08	1.380524e+14	0.000000e+00	5.999999e-01	1.817458e+15	1.802611e+15	1.792473e+14	1.751446e+04	7.889625e+03	5.761156e+03	0	1.740824e-03
3.000000e+08	1.329154e+14	0.000000e+00	5.999999e-01	1.753019e+15	1.812538e+15	1.783103e+14	1.737233e+04	7.897796e+03	5.767122e+03	0	1.718958e-03
3.100000e+08	1.280583e+14	0.000000e+00	5.999999e-01	1.692074e+15	1.818622e+15	1.773802e+14	1.723518e+04	7.902789e+03	5.770768e+03	0	1.697759e-03
3.200000e+08	1.234620e+14	0.000000e+00	5.999999e-01	1.634386e+15	1.821216e+15	1.764568e+14	1.710275e+04	7.904914e+03	5.772320e+03	0	1.677199e-03
3.300000e+08	1.191091e+14	0.000000e+00	5.999999e-01	1.579736e+15	1.820658e+15	1.755402e+14	1.697478e+04	7.904457e+03	5.771986e+03	0	1.657252e-03
3.400000e+08	1.149832e+14	0.000000e+00	5.999999e-01	1.527921e+15	1.817268e+15	1.746302e+14	1.685105e+04	7.901679e+03	5.769958e+03	0	1.637891e-03
3.500000e+08	1.110693e+14	0.000000e+00	5.999999e-01	1.478754e+15	1.811348e+15	1.737268e+14	1.673133e+04	7.896819e+03	5.766409e+03	0	1.619092e-03
3.600000e+08	1.073535e+14	0.000000e+00	5.999999e-01	1.432061e+15	1.803181e+15	1.728300e+14	1.661542e+04	7.890095e+03	5.761499e+03	0	1.600832e-03
3.700000e+08	1.038230e+14	0.000000e+00	5.999999e-01	1.387683e+15	1.793031e+15	1.719396e+14	1.650314e+04	7.881708e+03	5.755374e+03	0	1.583087e-03
3.800000e+08	1.004657e+14	0.000000e+00	5.999999e-01	1.345469e+15	1.781139e+15	1.710557e+14	1.639430e+04	7.871837e+03	5.748167e+03	0	1.565835e-03
3.900000e+08	9.727069e+13	0.000000e+00	5.999999e-01	1.305284e+15	1.767726e+15	1.701782e+14	1.628874e+04	7.860648e+03	5.739996e+03	0	1.549057e-03
4.000000e+08	9.422775e+13	0.000000e+00	5.999999e-01	1.266999e+15	1.752997e+15	1.693070e+14	1.618631e+04	7.848290e+03	5.730972e+03	0	1.532733e-03
4.100000e+08	9.132742e+13	0.000000e+00	5.999999e-01	1.230497e+15	1.737135e+15	1.684422e+14	1.608685e+04	7.834899e+03	5.721194e+03	0	1.516843e-03
4.200000e+08	8.856094e+13	0.000000e+00	5.999999e-01	1.195669e+15	1.720310e+15	1.675835e+14	1.599022e+04	7.820597e+03	5.710750e+03	0	1.501369e-03
4.300000e+08	8.592018e+13	0.000000e+00	5.999999e-01	1.162413e+15	1.702672e+15	1.667310e+14	1.589631e+04	7.805496e+03	5.699723e+03	0	1.486296e-03
4.400000e+08	8.339761e+13	0.000000e+00	5.999999e-01	1.130635e+15	1.684358e+15	1.658847e+14	1.580499e+04	7.789696e+03	5.688186e+03	0	1.471605e-03
4.500000e+08	8.098623e+13	0.000000e+00	5.999999e-01	1.100248e+15	1.665489e+15	1.650444e+14	1.571614e+04	7.773289e+03	5.676205e+03	0	1.457283e-03
4.600000e+08	7.867955e+13	0.000000e+00	5.999999e-01	1.071171e+15	1.646176e+15	1.642102e+14	1.562966e+04	7.756357e+03	5.663841e+03	0	1.443314e-03
4.700000e+08	7.647153e+13	0.000000e+00	5.999999e-01	1.043329e+15	1.626517e+15	1.633820e+14	1.554544e+04	7.738973e+03	5.651147e+03	0	1.429684e-03
4.800000e+08	7.435655e+13	0.000000e+00	5.999999e-01	1.016652e+15	1.606597e+15	1.625597e+14	1.546340e+04	7.721204e+03	5.638172e+03	0	1.416380e-03
4.900000e+08	7.232938e+13	0.000000e+00	5.999999e-01	9.910734e+14	1.586495e+15	1.617432e+14	1.538343e+04	7.703111e+03	5.624960e+03	0	1.403390e-03
5.000000e+08	7.038516e+13	0.000000e+00	5.999999e-01	9.665338e+14	1.566279e+15	1.609327e+14	1.530546e+04	7.684748e+03	5.611551e+03	0	1.390701e-03
5.100000e+08	6.851934e+13	0.000000e+00	5.999999e-01	9.429761e+14	1.546009e+15	1.601279e+14	1.522941e+04	7.666164e+03	5.597980e+03	0	1.378303e-03
5.200000e+08	6.672769e+13	0.000000e+00	5.999999e-01	9.203474e+14	1.525738e+15	1.593288e+14	1.515519e+04	7.647403e+03	5.584281e+03	0	1.366183e-03
5.300000e+08	6.500625e+13	0.000000e+00	5.999999e-01	8.985983e+14	1.505513e+15	1.585355e+14	1.508274e+04	7.628504e+03	5.570480e+03	0	1.354332e-03
5.400000e+08	6.335132e+13	0.000000e+00	5.999999e-01	8.776827e+14	1.485374e+15	1.577478e+14	1.501199e+04	7.609503e+03	5.556605e+03	0	1.342740e-03
5.500000e+08	6.175945e+13	0.000000e+00	5.999999e-01	8.575574e+14	1.465357e+15	1.569657e+14	1.494288e+04	7.590432e+03	5.542679e+03	0	1.331398e-03
5.600000e+08	6.022741e+13	0.000000e+00	5.999999e-01	8.381821e+14	1.445492e+15	1.561891e+14	1.487533e+04	7.571319e+03	5.528722e+03	0	1.320297e-03
5.700000e+08	5.875216e+13	0.000000e+00	5.999999e-01	8.195188e+14	1.425804e+15	1.554181e+14	1.480930e+04	7.552189e+03	5.514754e+03	0	1.309427e-03
5.800000e+08	5.733087e+13	0.000000e+00	5.999999e-01	8.015321e+14	1.406319e+15	1.546526e+14	1.474473e+04	7.533067e+03	5.500790e+03	0	1.298782e-03
5.900000e+08	5.596087e+13	0.000000e+00	5.999999e-01	7.841888e+14	1.387054e+15	1.538925e+14	1.468157e+04	7.513971e+03	5.486846e+03	0	1.288353e-03
6.000000e+08	5.463966e+13	0.000000e+00	5.999999e-01	7.674575e+14	1.368025e+15	1.531377e+14	1.461977e+04	7.494920e+03	5.472935e+03	0	1.278133e-03
6.100000e+08	5.336490e+13	0.000000e+00	5.999999e-01	7.513090e+14	1.349245e+15	1.523883e+14	1.455927e+04	7.475931e+03	5.459069e+03	0	1.268115e-03
6.200000e+08	5.213437e+13	0.000000e+00	5.999999e-01	7.357156e+14	1.330727e+15	1.516442e+14	1.450004e+04	7.457018e+03	5.445258e+03	0	1.258292e-03
6.300000e+08	5.094600e+13	0.000000e+00	5.999999e-01	7.206514e+14	1.312479e+15	1.509054e+14	1.444203e+04	7.438194e+03	5.431512e+03	0	1.248658e-03
6.400000e+08	4.979783e+13	0.000000e+00	5.999999e-01	7.060919e+14	1.294508e+15	1.501717e+14	1.438520e+04	7.419470e+03	5.417839e+03	0	1.239206e-03
6.500000e+08	4.868802e+13	0.000000e+00	5.999999e-01	6.920140e+14	1.276820e+15	1.494432e+14	1.432950e+04	7.400855e+03	5.404247e+03	0	1.229931e-03
6.600000e+08	4.761483e+13	0.000000e+00	5.999999e-01	6.783961e+14	1.259418e+15	1.487199e+14	1.427492e+04	7.382359e+03	5.390741e+03	0	1.220827e-03
6.700000e+08	4.657662e+13	0.000000e+00	5.999999e-01	6.652177e+14	1.242305e+15	1.480016e+14	1.422140e+04	7.363990e+03	5.377327e+03	0	1.211889e-03
6.800000e+08	4.557185e+13	0.000000e+00	5.999999e-01	6.524593e+14	1.225484e+15	1.472884e+14	1.416891e+04	7.345753e+03	5.364010e+03	0	1.203111e-03
6.900000e+08	4.459905e+13	0.000000e+00	5.999999e-01	6.401027e+14	1.208955e+15	1.465802e+14	1.411742e+04	7.327656e+03	5.350795e+03	0	1.194489e-03
7.000000e+08	4.365684e+13	0.000000e+00	5.999999e-01	6.281307e+14	1.192717e+15	1.458769e+14	1.406690e+04	7.309702e+03	5.337685e+03	0	1.186017e-03
7.100000e+08	4.274392e+13	0.000000e+00	5.999999e-01	6.165268e+14	1.176770e+15	1.451786e+14	1.401732e+04	7.291896e+03	5.324683e+03	0	1.177692e-03
7.200000e+08	4.185905e+13	0.000000e+00	5.999999e-01	6.052755e+14	1.161112e+15	1.444852e+14	1.396865e+04	7.274242e+03	5.311791e+03	0	1.169508e-03
7.300000e+08	4.100105e+13	0.000000e+00	5.999999e-01	5.943623e+14	1.145741e+15	1.437966e+14	1.392086e+04	7.256742e+03	5.299013e+03	0	1.161462e-03
7.400000e+08	4.016882e+13	0.000000e+00	5.999999e-01	5.837732e+14	1.130655e+15	1.431128e+14	1.387393e+04	7.239400e+03	5.286349e+03	0	1.153550e-03
7.500000e+08	3.936130e+13	0.000000e+00	5.999999e-01	5.734950e+14	1.115849e+15	1.424338e+14	1.382783e+04	7.222217e+03	5.273802e+03	0	1.145768e-03
7.600000e+08	3.857750e+13	0.000000e+00	5.999999e-01	5.635152e+14	1.101321e+15	1.417595e+14	1.378254e+04	7.205195e+03	5.261372e+03	0	1.138112e-03
7.700000e+08	3.781647e+13	0.000000e+00	5.999999e-01	5.538220e+14	1.087068e+15	1.410899e+14	1.373803e+04	7.188334e+03	5.249060e+03	0	1.130578e-03
7.800000e+08	3.707730e+13	0.000000e+00	5.999999e-01	5.444041e+14	1.073085e+15	1.404249e+14	1.369428e+04	7.171636e+03	5.236867e+03	0	1.123163e-03
7.900000e+08	3.635914e+13	0.000000e+00	5.999999e-01	5.352507e+14	1.059367e+15	1.397646e+14	1.365128e+04	7.155102e+03	5.224793e+03	0	1.115864e-03
8.000000e+08	3.566118e+13	0.000000e+00	5.999999e-01	5.263516e+14	1.045911e+15	1.391088e+14	1.360899e+04	7.138731e+03	5.212838e+03	0	1.108678e-03
8.100000e+08	3.498264e+13	0.000000e+00	5.999999e-01	5.176972e+14	1.032713e+15	1.384576e+14	1.356740e+04	7.122523e+03	5.201003e+03	0	1.101601e-03
8.200000e+08	3.432279e+13	0.000000e+00	5.999999e-01	5.092783e+14	1.019767e+15	1.378109e+14	1.352649e+04	7.106479e+03	5.189287e+03	0	1.094631e-03
8.300000e+08	3.368092e+13	0.000000e+00	5.999999e-01	5.010859e+14	1.007069e+15	1.371687e+14	1.348624e+04	7.090597e+03	5.177690e+03	0	1.087764e-03
8.400000e+08	3.305637e+13	0.000000e+00	5.999999e-01	4.931118e+14	9.946148e+14	1.365309e+14	1.344664e+04	7.074878e+03	5.166212e+03	0	1.080999e-03
8.500000e+08	3.244850e+13	0.000000e+00	5.999999e-01	4.853480e+14	9.823989e+14	1.358975e+14	1.340766e+04	7.059320e+03	5.154851e+03	0	1.074332e-03
8.600000e+08	3.185670e+13	0.000000e+00	5.999999e-01	4.777868e+14	9.704172e+14	1.352685e+14	1.336929e+04	7.043922e+03	5.143607e+03	0	1.067760e-03
8.700000e+08	3.128039e+13	0.000000e+00	5.999999e-01	4.704209e+14	9.586646e+14	1.346438e+14	1.333152e+04	7.028684e+03	5.132480e+03	0	1.061282e-03
8.800000e+08	3.071902e+13	0.000000e+00	5.999999e-01	4.632435e+14	9.471362e+14	1.340234e+14	1.329433e+04	7.013603e+03	5.121468e+03	0	1.054895e-03
8.900000e+08	3.017206e+13	0.000000e+00	5.999999e-01	4.562479e+14	9.358279e+14	1.334072e+14	1.325770e+04	6.998680e+03	5.110571e+03	0	1.048597e-03
9.000000e+08	2.963900e+13	0.000000e+00	5.999999e-01	4.494278e+14	9.247347e+14	1.327953e+14	1.322162e+04	6.983912e+03	5.099787e+03	0	1.042385e-03
9.100000e+08	2.911937e+13	0.000000e+00	5.999999e-01	4.427770e+14	9.138516e+14	1.321876e+14	1.318608e+04	6.969298e+03	5.089116e+03	0	1.036257e-03
9.200000e+08	2.861270e+13	0.000000e+00	5.999999e-01	4.362898e+14	9.031747e+14	1.315841e+14	1.315106e+04	6.954837e+03	5.078556e+03	0	1.030212e-03
9.300000e+08	2.811854e+13	0.000000e+00	5.999999e-01	4.299607e+14	8.926994e+14	1.309846e+14	1.311655e+04	6.940527e+03	5.068106e+03	0	1.024246e-03
9.400000e+08	2.763648e+13	0.000000e+00	5.999999e-01	4.237844e+14	8.824209e+14	1.303893e+14	1.308254e+04	6.926367e+03	5.057766e+03	0	1.018359e-03
9.500000e+08	2.716611e+13	0.000000e+00	5.999999e-01	4.177557e+14	8.723350e+14	1.297981e+14	1.304902e+04	6.912354e+03	5.047534e+03	0	1.012549e-03
9.600000e+08	2.670705e+13	0.000000e+00	5.999999e-01	4.118699e+14	8.624375e+14	1.292108e+14	1.301597e+04	6.898487e+03	5.037408e+03	0	1.006813e-03
9.700000e+08	2.625892e+13	0.000000e+00	5.999999e-01	4.061222e+14	8.527239e+14	1.286276e+14	1.298338e+04	6.884765e+03	5.027387e+03	0	1.001150e-03
9.800000e+08	2.582137e+13	0.000000e+00	5.999999e-01	4.005081e+14	8.431904e+14	1.280483e+14	1.295125e+04	6.871185e+03	5.017471e+03	0	9.955580e-04
9.900000e+08	2.539405e+13	0.000000e+00	5.999999e-01	3.950235e+14	8.338330e+14	1.274730e+14	1.291956e+04	6.857746e+03	5.007658e+03	0	9.900356e-04
1.000000e+09	2.497663e+13	0.000000e+00	5.999999e-01	3.896641e+14	8.246473e+14	1.269016e+14	1.288830e+04	6.844447e+03	4.997947e+03	0	9.845811e-04
1.010000e+09	2.456882e+13	0.000000e+00	5.999999e-01	3.844260e+14	8.156295e+14	1.263340e+14	1.285746e+04	6.831285e+03	4.988335e+03	0	9.791929e-04
1.020000e+09	2.417029e+13	0.000000e+00	5.999999e-01	3.793055e+14	8.067761e+14	1.257703e+14	1.282704e+04	6.818258e+03	4.978823e+03	0	9.738696e-04
1.030000e+09	2.378077e+13	0.000000e+00	5.999999e-01	3.742988e+14	7.980830e+14	1.252105e+14	1.279702e+04	6.805366e+03	4.969409e+03	0	9.686096e-04
1.040000e+09	2.339997e+13	0.000000e+00	5.999999e-01	3.694026e+14	7.895468e+14	1.246544e+14	1.276739e+04	6.792605e+03	4.960091e+03	0	9.634117e-04
1.050000e+09	2.302762e+13	0.000000e+00	5.999999e-01	3.646134e+14	7.811638e+14	1.241020e+14	1.273815e+04	6.779975e+03	4.950868e+03	0	9.582744e-04
1.060000e+09	2.266348e+13	0.000000e+00	5.999999e-01	3.599279e+14	7.729304e+14	1.235534e+14	1.270929e+04	6.767473e+03	4.941739e+03	0	9.531963e-04
1.070000e+09	2.230729e+13	0.000000e+00	5.999999e-01	3.553432e+14	7.648434e+14	1.230085e+14	1.268080e+04	6.755099e+03	4.932703e+03	0	9.481763e-04
1.080000e+09	2.195881e+13	0.000000e+00	5.999999e-01	3.508561e+14	7.568994e+14	1.224672e+14	1.265267e+04	6.742849e+03	4.923758e+03	0	9.432130e-04
1.090000e+09	2.161782e+13	0.000000e+00	5.999999e-01	3.464639e+14	7.490952e+14	1.219296e+14	1.262489e+04	6.730723e+03	4.914903e+03	0	9.383052e-04
1.100000e+09	2.128409e+13	0.000000e+00	5.999999e-01	3.421637e+14	7.414275e+14	1.213956e+14	1.259745e+04	6.718718e+03	4.906137e+03	0	9.334517e-04
1.110000e+09	2.095742e+13	0.000000e+00	5.999999e-01	3.379529e+14	7.338931e+14	1.208651e+14	1.257036e+04	6.706833e+03	4.897458e+03	0	9.286515e-04
1.120000e+09	2.063759e+13	0.000000e+00	5.999999e-01	3.338289e+14	7.264894e+14	1.203383e+14	1.254360e+04	6.695066e+03	4.888866e+03	0	9.239033e-04
1.130000e+09	2.032442e+13	0.000000e+00	5.999999e-01	3.297893e+14	7.192128e+14	1.198149e+14	1.251716e+04	6.683416e+03	4.880359e+03	0	9.192061e-04
1.140000e+09	2.001771e+13	0.000000e+00	5.999999e-01	3.258315e+14	7.120611e+14	1.192951e+14	1.249105e+04	6.671881e+03	4.871936e+03	0	9.145588e-04
1.150000e+09	1.971728e+13	0.000000e+00	5.999999e-01	3.219535e+14	7.050311e+14	1.187787e+14	1.246524e+04	6.660459e+03	4.863595e+03	0	9.099605e-04
1.160000e+09	1.942296e+13	0.000000e+00	5.999999e-01	3.181528e+14	6.981201e+14	1.182658e+14	1.243974e+04	6.649149e+03	4.855336e+03	0	9.054100e-04
1.170000e+09	1.913457e+13	0.000000e+00	5.999999e-01	3.144274e+14	6.913254e+14	1.177562e+14	1.241454e+04	6.637949e+03	4.847158e+03	0	9.009065e-04
1.180000e+09	1.885194e+13	0.000000e+00	5.999999e-01	3.107753e+14	6.846449e+14	1.172501e+14	1.238964e+04	6.626857e+03	4.839058e+03	0	8.964489e-04
1.190000e+09	1.857493e+13	0.000000e+00	5.999999e-01	3.071943e+14	6.780753e+14	1.167473e+14	1.236502e+04	6.615872e+03	4.831037e+03	0	8.920364e-04
1.200000e+09	1.830338e+13	0.000000e+00	5.999999e-01	3.036827e+14	6.716147e+14	1.162479e+14	1.234069e+04	6.604993e+03	4.823093e+03	0	8.876681e-04
1.210000e+09	1.803714e+13	0.000000e+00	5.999999e-01	3.002385e+14	6.652606e+14	1.157518e+14	1.231663e+04	6.594217e+03	4.815224e+03	0	8.833431e-04
1.220000e+09	1.777607e+13	0.000000e+00	5.999999e-01	2.968599e+14	6.590104e+14	1.152590e+14	1.229284e+04	6.583544e+03	4.807431e+03	0	8.790605e-04
1.230000e+09	1.752003e+13	0.000000e+00	5.999999e-01	2.935453e+14	6.528618e+14	1.147694e+14	1.226932e+04	6.572972e+03	4.799711e+03	0	8.748195e-04
1.240000e+09	1.726889e+13	0.000000e+00	5.999999e-01	2.902929e+14	6.468130e+14	1.142831e+14	1.224606e+04	6.562499e+03	4.792063e+03	0	8.706193e-04
1.250000e+09	1.702252e+13	0.000000e+00	5.999999e-01	2.871011e+14	6.408615e+14	1.138000e+14	1.222306e+04	6.552124e+03	4.784487e+03	0	8.664592e-04
1.260000e+09	1.678079e+13	0.000000e+00	5.999999e-01	2.839683e+14	6.350051e+14	1.133200e+14	1.220031e+04	6.541846e+03	4.776982e+03	0	8.623382e-04
1.270000e+09	1.654359e+13	0.000000e+00	5.999999e-01	2.808931e+14	6.292421e+14	1.128433e+14	1.217781e+04	6.531663e+03	4.769546e+03	0	8.582558e-04
1.280000e+09	1.631080e+13	0.000000e+00	5.999999e-01	2.778739e+14	6.235704e+14	1.123696e+14	1.215555e+04	6.521574e+03	4.762179e+03	0	8.542111e-04
1.290000e+09	1.608230e+13	0.000000e+00	5.999999e-01	2.749094e+14	6.179875e+14	1.118991e+14	1.213353e+04	6.511578e+03	4.754879e+03	0	8.502035e-04
1.300000e+09	1.585799e+13	0.000000e+00	5.999999e-01	2.719982e+14	6.124923e+14	1.114317e+14	1.211175e+04	6.501672e+03	4.747646e+03	0	8.462323e-04
1.310000e+09	1.563777e+13	0.000000e+00	5.999999e-01	2.691388e+14	6.070825e+14	1.109673e+14	1.209019e+04	6.491857e+03	4.740479e+03	0	8.422967e-04
1.320000e+09	1.542152e+13	0.000000e+00	5.999999e-01	2.663302e+14	6.017563e+14	1.105060e+14	1.206886e+04	6.482130e+03	4.733376e+03	0	8.383961e-04
1.330000e+09	1.520916e+13	0.000000e+00	5.999999e-01	2.635709e+14	5.965119e+14	1.100476e+14	1.204775e+04	6.472490e+03	4.726337e+03	0	8.345299e-04
1.340000e+09	1.500058e+13	0.000000e+00	5.999999e-01	2.608599e+14	5.913477e+14	1.095923e+14	1.202686e+04	6.462937e+03	4.719361e+03	0	8.306974e-04
1.350000e+09	1.479569e+13	0.000000e+00	5.999999e-01	2.581959e+14	5.862620e+14	1.091400e+14	1.200618e+04	6.453469e+03	4.712447e+03	0	8.268980e-04
1.360000e+09	1.459441e+13	0.000000e+00	5.999999e-01	2.555777e+14	5.812532e+14	1.086906e+14	1.198572e+04	6.444084e+03	4.705594e+03	0	8.231312e-04
