#t		Qconv[W]	Ri[Rp]		R*[Rp]		Qc[W]		Qm[W]		Qr[W]		Tcmb[K]		Tl[K]		Tup[K]		RiFlag		Bs[T]
0.000000e+00	3.405356e+16	0.000000e+00	6.043958e-01	3.758002e+17	2.248616e+13	2.413784e+14	9.766838e+04	5.329890e+03	2.996998e+03	0	1.073689e-02
1.000000e+07	1.879110e+16	0.000000e+00	6.043958e-01	2.075882e+17	4.239296e+16	2.400410e+14	7.863373e+04	2.067801e+04	1.162725e+04	0	8.806602e-03
2.000000e+07	1.170216e+16	0.000000e+00	6.043958e-01	1.294389e+17	1.074623e+17	2.387135e+14	6.751558e+04	2.628137e+04	1.477802e+04	0	7.520495e-03
3.000000e+07	8.432235e+15	0.000000e+00	6.043958e-01	9.337318e+16	1.182435e+17	2.373961e+14	6.037580e+04	2.696448e+04	1.516213e+04	0	6.742256e-03
4.000000e+07	6.573460e+15	0.000000e+00	6.043958e-01	7.286134e+16	1.063673e+17	2.360884e+14	5.513475e+04	2.620952e+04	1.473762e+04	0	6.205199e-03
5.000000e+07	5.327821e+15	0.000000e+00	6.043958e-01	5.911000e+16	9.127458e+16	2.347905e+14	5.099338e+04	2.516550e+04	1.415057e+04	0	5.785500e-03
6.000000e+07	4.419807e+15	0.000000e+00	6.043958e-01	4.908261e+16	7.784097e+16	2.335023e+14	4.759925e+04	2.413582e+04	1.357157e+04	0	5.436159e-03
7.000000e+07	3.728111e+15	0.000000e+00	6.043958e-01	4.144179e+16	6.674195e+16	2.322236e+14	4.475633e+04	2.319247e+04	1.304113e+04	0	5.136342e-03
8.000000e+07	3.186684e+15	0.000000e+00	6.043958e-01	3.545921e+16	5.771138e+16	2.309545e+14	4.233774e+04	2.234498e+04	1.256458e+04	0	4.874582e-03
9.000000e+07	2.754501e+15	0.000000e+00	6.043958e-01	3.068241e+16	5.034845e+16	2.296948e+14	4.025445e+04	2.158617e+04	1.213791e+04	0	4.643428e-03
1.000000e+08	2.404095e+15	0.000000e+00	6.043958e-01	2.680835e+16	4.429902e+16	2.284445e+14	3.844110e+04	2.090532e+04	1.175506e+04	0	4.437532e-03
1.100000e+08	2.116220e+15	0.000000e+00	6.043958e-01	2.362474e+16	3.928249e+16	2.272034e+14	3.684832e+04	2.029193e+04	1.141016e+04	0	4.252829e-03
1.200000e+08	1.876983e+15	0.000000e+00	6.043958e-01	2.097825e+16	3.508305e+16	2.259716e+14	3.543802e+04	1.973675e+04	1.109798e+04	0	4.086120e-03
1.300000e+08	1.676127e+15	0.000000e+00	6.043958e-01	1.875568e+16	3.153573e+16	2.247488e+14	3.418034e+04	1.923191e+04	1.081411e+04	0	3.934836e-03
1.400000e+08	1.505939e+15	0.000000e+00	6.043958e-01	1.687193e+16	2.851371e+16	2.235352e+14	3.305155e+04	1.877078e+04	1.055481e+04	0	3.796880e-03
1.500000e+08	1.360536e+15	0.000000e+00	6.043958e-01	1.526202e+16	2.591902e+16	2.223304e+14	3.203257e+04	1.834780e+04	1.031697e+04	0	3.670521e-03
1.600000e+08	1.235365e+15	0.000000e+00	6.043958e-01	1.387570e+16	2.367508e+16	2.211346e+14	3.110788e+04	1.795828e+04	1.009794e+04	0	3.554316e-03
1.700000e+08	1.126863e+15	0.000000e+00	6.043958e-01	1.267364e+16	2.172147e+16	2.199476e+14	3.026472e+04	1.759826e+04	9.895506e+03	0	3.447054e-03
1.800000e+08	1.032213e+15	0.000000e+00	6.043958e-01	1.162471e+16	2.001015e+16	2.187694e+14	2.949254e+04	1.726439e+04	9.707769e+03	0	3.347707e-03
1.900000e+08	9.491617e+14	0.000000e+00	6.043958e-01	1.070404e+16	1.850253e+16	2.175998e+14	2.878253e+04	1.695379e+04	9.533118e+03	0	3.255400e-03
2.000000e+08	8.758937e+14	0.000000e+00	6.043958e-01	9.891567e+15	1.716735e+16	2.164389e+14	2.812727e+04	1.666399e+04	9.370167e+03	0	3.169384e-03
2.100000e+08	8.109326e+14	0.000000e+00	6.043958e-01	9.170982e+15	1.597914e+16	2.152864e+14	2.752047e+04	1.639288e+04	9.217719e+03	0	3.089010e-03
2.200000e+08	7.530687e+14	0.000000e+00	6.043958e-01	8.528919e+15	1.491692e+16	2.141425e+14	2.695679e+04	1.613860e+04	9.074738e+03	0	3.013718e-03
2.300000e+08	7.013036e+14	0.000000e+00	6.043958e-01	7.954344e+15	1.396332e+16	2.130069e+14	2.643162e+04	1.589955e+04	8.940321e+03	0	2.943019e-03
2.400000e+08	6.548076e+14	0.000000e+00	6.043958e-01	7.438088e+15	1.310387e+16	2.118797e+14	2.594102e+04	1.567433e+04	8.813678e+03	0	2.876486e-03
2.500000e+08	6.128867e+14	0.000000e+00	6.043958e-01	6.972480e+15	1.232643e+16	2.107607e+14	2.548153e+04	1.546169e+04	8.694112e+03	0	2.813743e-03
2.600000e+08	5.749574e+14	0.000000e+00	6.043958e-01	6.551069e+15	1.162075e+16	2.096499e+14	2.505018e+04	1.526055e+04	8.581011e+03	0	2.754459e-03
2.700000e+08	5.405260e+14	0.000000e+00	6.043958e-01	6.168394e+15	1.097814e+16	2.085473e+14	2.464435e+04	1.506994e+04	8.473832e+03	0	2.698339e-03
2.800000e+08	5.091726e+14	0.000000e+00	6.043958e-01	5.819814e+15	1.039119e+16	2.074526e+14	2.426173e+04	1.488901e+04	8.372091e+03	0	2.645124e-03
2.900000e+08	4.805384e+14	0.000000e+00	6.043958e-01	5.501359e+15	9.853543e+15	2.063660e+14	2.390030e+04	1.471697e+04	8.275358e+03	0	2.594580e-03
3.000000e+08	4.543153e+14	0.000000e+00	6.043958e-01	5.209623e+15	9.359740e+15	2.052873e+14	2.355826e+04	1.455316e+04	8.183246e+03	0	2.546499e-03
3.100000e+08	4.302378e+14	0.000000e+00	6.043958e-01	4.941667e+15	8.905050e+15	2.042165e+14	2.323401e+04	1.439696e+04	8.095411e+03	0	2.500694e-03
3.200000e+08	4.080758e+14	0.000000e+00	6.043958e-01	4.694945e+15	8.485380e+15	2.031534e+14	2.292612e+04	1.424780e+04	8.011539e+03	0	2.456997e-03
3.300000e+08	3.876294e+14	0.000000e+00	6.043958e-01	4.467245e+15	8.097143e+15	2.020981e+14	2.263334e+04	1.410519e+04	7.931350e+03	0	2.415256e-03
3.400000e+08	3.687239e+14	0.000000e+00	6.043958e-01	4.256635e+15	7.737211e+15	2.010504e+14	2.235450e+04	1.396867e+04	7.854588e+03	0	2.375335e-03
3.500000e+08	3.512066e+14	0.000000e+00	6.043958e-01	4.061422e+15	7.402841e+15	2.000104e+14	2.208858e+04	1.383784e+04	7.781023e+03	0	2.337107e-03
3.600000e+08	3.349432e+14	0.000000e+00	6.043958e-01	3.880120e+15	7.091615e+15	1.989778e+14	2.183464e+04	1.371232e+04	7.710443e+03	0	2.300460e-03
3.700000e+08	3.198152e+14	0.000000e+00	6.043958e-01	3.711418e+15	6.801395e+15	1.979528e+14	2.159186e+04	1.359177e+04	7.642656e+03	0	2.265291e-03
3.800000e+08	3.057179e+14	0.000000e+00	6.043958e-01	3.554157e+15	6.530290e+15	1.969352e+14	2.135946e+04	1.347588e+04	7.577488e+03	0	2.231506e-03
3.900000e+08	2.925586e+14	0.000000e+00	6.043958e-01	3.407307e+15	6.276608e+15	1.959249e+14	2.113676e+04	1.336435e+04	7.514778e+03	0	2.199017e-03
4.000000e+08	2.802545e+14	0.000000e+00	6.043958e-01	3.269953e+15	6.038858e+15	1.949219e+14	2.092312e+04	1.325693e+04	7.454377e+03	0	2.167747e-03
4.100000e+08	2.687320e+14	0.000000e+00	6.043958e-01	3.141280e+15	5.815699e+15	1.939262e+14	2.071795e+04	1.315339e+04	7.396151e+03	0	2.137621e-03
4.200000e+08	2.579252e+14	0.000000e+00	6.043958e-01	3.020558e+15	5.605919e+15	1.929376e+14	2.052075e+04	1.305348e+04	7.339975e+03	0	2.108574e-03
4.300000e+08	2.477751e+14	0.000000e+00	6.043958e-01	2.907132e+15	5.408450e+15	1.919562e+14	2.033101e+04	1.295702e+04	7.285733e+03	0	2.080544e-03
4.400000e+08	2.382287e+14	0.000000e+00	6.043958e-01	2.800414e+15	5.222314e+15	1.909818e+14	2.014829e+04	1.286380e+04	7.233319e+03	0	2.053473e-03
4.500000e+08	2.292383e+14	0.000000e+00	6.043958e-01	2.699875e+15	5.046641e+15	1.900144e+14	1.997219e+04	1.277367e+04	7.182635e+03	0	2.027310e-03
4.600000e+08	2.207606e+14	0.000000e+00	6.043958e-01	2.605037e+15	4.880631e+15	1.890540e+14	1.980233e+04	1.268644e+04	7.133588e+03	0	2.002004e-03
4.700000e+08	2.127568e+14	0.000000e+00	6.043958e-01	2.515469e+15	4.723569e+15	1.881004e+14	1.963835e+04	1.260198e+04	7.086094e+03	0	1.977511e-03
4.800000e+08	2.051914e+14	0.000000e+00	6.043958e-01	2.430777e+15	4.574807e+15	1.871537e+14	1.947994e+04	1.252014e+04	7.040075e+03	0	1.953788e-03
4.900000e+08	1.980326e+14	0.000000e+00	6.043958e-01	2.350607e+15	4.433752e+15	1.862138e+14	1.932679e+04	1.244078e+04	6.995456e+03	0	1.930797e-03
5.000000e+08	1.912510e+14	0.000000e+00	6.043958e-01	2.274635e+15	4.299859e+15	1.852806e+14	1.917863e+04	1.236380e+04	6.952168e+03	0	1.908500e-03
5.100000e+08	1.848202e+14	0.000000e+00	6.043958e-01	2.202566e+15	4.172637e+15	1.843540e+14	1.903520e+04	1.228907e+04	6.910149e+03	0	1.886865e-03
5.200000e+08	1.787158e+14	0.000000e+00	6.043958e-01	2.134131e+15	4.051637e+15	1.834341e+14	1.889626e+04	1.221649e+04	6.869337e+03	0	1.865858e-03
5.300000e+08	1.729156e+14	0.000000e+00	6.043958e-01	2.069084e+15	3.936447e+15	1.825207e+14	1.876158e+04	1.214596e+04	6.829678e+03	0	1.845451e-03
5.400000e+08	1.673995e+14	0.000000e+00	6.043958e-01	2.007199e+15	3.826686e+15	1.816138e+14	1.863096e+04	1.207739e+04	6.791118e+03	0	1.825614e-03
5.500000e+08	1.621487e+14	0.000000e+00	6.043958e-01	1.948270e+15	3.722005e+15	1.807134e+14	1.850420e+04	1.201068e+04	6.753608e+03	0	1.806323e-03
5.600000e+08	1.571461e+14	0.000000e+00	6.043958e-01	1.892106e+15	3.622088e+15	1.798194e+14	1.838112e+04	1.194576e+04	6.717102e+03	0	1.787553e-03
5.700000e+08	1.523760e+14	0.000000e+00	6.043958e-01	1.838532e+15	3.526637e+15	1.789317e+14	1.826155e+04	1.188254e+04	6.681556e+03	0	1.769280e-03
5.800000e+08	1.478238e+14	0.000000e+00	6.043958e-01	1.787389e+15	3.435383e+15	1.780504e+14	1.814533e+04	1.182096e+04	6.646929e+03	0	1.751483e-03
5.900000e+08	1.434763e+14	0.000000e+00	6.043958e-01	1.738526e+15	3.348070e+15	1.771752e+14	1.803231e+04	1.176095e+04	6.613184e+03	0	1.734141e-03
6.000000e+08	1.393210e+14	0.000000e+00	6.043958e-01	1.691806e+15	3.264469e+15	1.763063e+14	1.792234e+04	1.170244e+04	6.580282e+03	0	1.717236e-03
6.100000e+08	1.353466e+14	0.000000e+00	6.043958e-01	1.647104e+15	3.184365e+15	1.754435e+14	1.781530e+04	1.164537e+04	6.548191e+03	0	1.700749e-03
6.200000e+08	1.315423e+14	0.000000e+00	6.043958e-01	1.604300e+15	3.107554e+15	1.745868e+14	1.771105e+04	1.158968e+04	6.516878e+03	0	1.684662e-03
6.300000e+08	1.278985e+14	0.000000e+00	6.043958e-01	1.563286e+15	3.033856e+15	1.737362e+14	1.760949e+04	1.153532e+04	6.486311e+03	0	1.668961e-03
6.400000e+08	1.244060e+14	0.000000e+00	6.043958e-01	1.523961e+15	2.963098e+15	1.728916e+14	1.751050e+04	1.148223e+04	6.456463e+03	0	1.653629e-03
6.500000e+08	1.210564e+14	0.000000e+00	6.043958e-01	1.486230e+15	2.895114e+15	1.720529e+14	1.741397e+04	1.143038e+04	6.427305e+03	0	1.638653e-03
6.600000e+08	1.178417e+14	0.000000e+00	6.043958e-01	1.450006e+15	2.829761e+15	1.712201e+14	1.731982e+04	1.137971e+04	6.398811e+03	0	1.624017e-03
6.700000e+08	1.147547e+14	0.000000e+00	6.043958e-01	1.415208e+15	2.766897e+15	1.703932e+14	1.722793e+04	1.133017e+04	6.370957e+03	0	1.609711e-03
6.800000e+08	1.117884e+14	0.000000e+00	6.043958e-01	1.381759e+15	2.706392e+15	1.695720e+14	1.713823e+04	1.128173e+04	6.343720e+03	0	1.595720e-03
6.900000e+08	1.089366e+14	0.000000e+00	6.043958e-01	1.349588e+15	2.648124e+15	1.687567e+14	1.705063e+04	1.123435e+04	6.317076e+03	0	1.582034e-03
7.000000e+08	1.061933e+14	0.000000e+00	6.043958e-01	1.318629e+15	2.591981e+15	1.679470e+14	1.696505e+04	1.118798e+04	6.291005e+03	0	1.568640e-03
7.100000e+08	1.035529e+14	0.000000e+00	6.043958e-01	1.288821e+15	2.537855e+15	1.671430e+14	1.688141e+04	1.114260e+04	6.265486e+03	0	1.555530e-03
7.200000e+08	1.010102e+14	0.000000e+00	6.043958e-01	1.260105e+15	2.485648e+15	1.663447e+14	1.679965e+04	1.109817e+04	6.240502e+03	0	1.542692e-03
7.300000e+08	9.856022e+13	0.000000e+00	6.043958e-01	1.232426e+15	2.435264e+15	1.655519e+14	1.671969e+04	1.105465e+04	6.216032e+03	0	1.530118e-03
7.400000e+08	9.619851e+13	0.000000e+00	6.043958e-01	1.205734e+15	2.386617e+15	1.647647e+14	1.664148e+04	1.101202e+04	6.192059e+03	0	1.517797e-03
7.500000e+08	9.392072e+13	0.000000e+00	6.043958e-01	1.179981e+15	2.339625e+15	1.639829e+14	1.656494e+04	1.097024e+04	6.168568e+03	0	1.505722e-03
7.600000e+08	9.172283e+13	0.000000e+00	6.043958e-01	1.155122e+15	2.294209e+15	1.632066e+14	1.649003e+04	1.092929e+04	6.145543e+03	0	1.493884e-03
7.700000e+08	8.960105e+13	0.000000e+00	6.043958e-01	1.131114e+15	2.250296e+15	1.624357e+14	1.641668e+04	1.088914e+04	6.122967e+03	0	1.482275e-03
7.800000e+08	8.755180e+13	0.000000e+00	6.043958e-01	1.107919e+15	2.207820e+15	1.616701e+14	1.634484e+04	1.084977e+04	6.100827e+03	0	1.470887e-03
7.900000e+08	8.557172e+13	0.000000e+00	6.043958e-01	1.085498e+15	2.166712e+15	1.609099e+14	1.627447e+04	1.081114e+04	6.079108e+03	0	1.459714e-03
8.000000e+08	8.365767e+13	0.000000e+00	6.043958e-01	1.063816e+15	2.126914e+15	1.601549e+14	1.620550e+04	1.077325e+04	6.057798e+03	0	1.448748e-03
8.100000e+08	8.180665e+13	0.000000e+00	6.043958e-01	1.042840e+15	2.088368e+15	1.594052e+14	1.613791e+04	1.073605e+04	6.036884e+03	0	1.437983e-03
8.200000e+08	8.001585e+13	0.000000e+00	6.043958e-01	1.022539e+15	2.051019e+15	1.586607e+14	1.607163e+04	1.069954e+04	6.016354e+03	0	1.427413e-03
8.300000e+08	7.828262e+13	0.000000e+00	6.043958e-01	1.002884e+15	2.014815e+15	1.579213e+14	1.600664e+04	1.066369e+04	5.996196e+03	0	1.417031e-03
8.400000e+08	7.660445e+13	0.000000e+00	6.043958e-01	9.838449e+14	1.979709e+15	1.571870e+14	1.594288e+04	1.062848e+04	5.976398e+03	0	1.406832e-03
8.500000e+08	7.497896e+13	0.000000e+00	6.043958e-01	9.653969e+14	1.945654e+15	1.564578e+14	1.588033e+04	1.059390e+04	5.956951e+03	0	1.396810e-03
8.600000e+08	7.340391e+13	0.000000e+00	6.043958e-01	9.475145e+14	1.912606e+15	1.557336e+14	1.581894e+04	1.055992e+04	5.937844e+03	0	1.386960e-03
8.700000e+08	7.187718e+13	0.000000e+00	6.043958e-01	9.301741e+14	1.880524e+15	1.550144e+14	1.575868e+04	1.052653e+04	5.919068e+03	0	1.377277e-03
8.800000e+08	7.039676e+13	0.000000e+00	6.043958e-01	9.133532e+14	1.849370e+15	1.543001e+14	1.569951e+04	1.049370e+04	5.900612e+03	0	1.367756e-03
8.900000e+08	6.896074e+13	0.000000e+00	6.043958e-01	8.970304e+14	1.819105e+15	1.535908e+14	1.564141e+04	1.046144e+04	5.882467e+03	0	1.358392e-03
9.000000e+08	6.756732e+13	0.000000e+00	6.043958e-01	8.811858e+14	1.789695e+15	1.528863e+14	1.558434e+04	1.042971e+04	5.864626e+03	0	1.349180e-03
9.100000e+08	6.621477e+13	0.000000e+00	6.043958e-01	8.658000e+14	1.761106e+15	1.521866e+14	1.552826e+04	1.039850e+04	5.847079e+03	0	1.340117e-03
9.200000e+08	6.490147e+13	0.000000e+00	6.043958e-01	8.508548e+14	1.733306e+15	1.514918e+14	1.547317e+04	1.036780e+04	5.829819e+03	0	1.331198e-03
9.300000e+08	6.362586e+13	0.000000e+00	6.043958e-01	8.363332e+14	1.706264e+15	1.508016e+14	1.541901e+04	1.033760e+04	5.812837e+03	0	1.322419e-03
9.400000e+08	6.238649e+13	0.000000e+00	6.043958e-01	8.222185e+14	1.679954e+15	1.501162e+14	1.536577e+04	1.030789e+04	5.796127e+03	0	1.313776e-03
9.500000e+08	6.118196e+13	0.000000e+00	6.043958e-01	8.084951e+14	1.654345e+15	1.494355e+14	1.531343e+04	1.027864e+04	5.779680e+03	0	1.305265e-03
9.600000e+08	6.001092e+13	0.000000e+00	6.043958e-01	7.951483e+14	1.629413e+15	1.487595e+14	1.526195e+04	1.024985e+04	5.763491e+03	0	1.296884e-03
9.700000e+08	5.887211e+13	0.000000e+00	6.043958e-01	7.821638e+14	1.605133e+15	1.480880e+14	1.521132e+04	1.022150e+04	5.747552e+03	0	1.288628e-03
9.800000e+08	5.776434e+13	0.000000e+00	6.043958e-01	7.695282e+14	1.581481e+15	1.474211e+14	1.516151e+04	1.019359e+04	5.731857e+03	0	1.280494e-03
9.900000e+08	5.668644e+13	0.000000e+00	6.043958e-01	7.572286e+14	1.558434e+15	1.467587e+14	1.511250e+04	1.016610e+04	5.716400e+03	0	1.272479e-03
1.000000e+09	5.563732e+13	0.000000e+00	6.043958e-01	7.452527e+14	1.535970e+15	1.461008e+14	1.506426e+04	1.013902e+04	5.701174e+03	0	1.264580e-03
1.010000e+09	5.461594e+13	0.000000e+00	6.043958e-01	7.335889e+14	1.514069e+15	1.454474e+14	1.501679e+04	1.011235e+04	5.686174e+03	0	1.256794e-03
1.020000e+09	5.362130e+13	0.000000e+00	6.043958e-01	7.222260e+14	1.492712e+15	1.447984e+14	1.497005e+04	1.008606e+04	5.671395e+03	0	1.249118e-03
1.030000e+09	5.265245e+13	0.000000e+00	6.043958e-01	7.111533e+14	1.471880e+15	1.441539e+14	1.492403e+04	1.006016e+04	5.656831e+03	0	1.241549e-03
1.040000e+09	5.170846e+13	0.000000e+00	6.043958e-01	7.003607e+14	1.451554e+15	1.435136e+14	1.487872e+04	1.003463e+04	5.642476e+03	0	1.234085e-03
1.050000e+09	5.078849e+13	0.000000e+00	6.043958e-01	6.898384e+14	1.431718e+15	1.428777e+14	1.483408e+04	1.000947e+04	5.628326e+03	0	1.226722e-03
1.060000e+09	4.989169e+13	0.000000e+00	6.043958e-01	6.795772e+14	1.412354e+15	1.422461e+14	1.479012e+04	9.984658e+03	5.614375e+03	0	1.219459e-03
1.070000e+09	4.901727e+13	0.000000e+00	6.043958e-01	6.695681e+14	1.393447e+15	1.416187e+14	1.474680e+04	9.960195e+03	5.600620e+03	0	1.212292e-03
1.080000e+09	4.816447e+13	0.000000e+00	6.043958e-01	6.598026e+14	1.374982e+15	1.409956e+14	1.470412e+04	9.936072e+03	5.587055e+03	0	1.205221e-03
1.090000e+09	4.733256e+13	0.000000e+00	6.043958e-01	6.502725e+14	1.356945e+15	1.403766e+14	1.466205e+04	9.912278e+03	5.573676e+03	0	1.198241e-03
1.100000e+09	4.652084e+13	0.000000e+00	6.043958e-01	6.409702e+14	1.339322e+15	1.397618e+14	1.462060e+04	9.888809e+03	5.560479e+03	0	1.191352e-03
1.110000e+09	4.572865e+13	0.000000e+00	6.043958e-01	6.318880e+14	1.322099e+15	1.391511e+14	1.457973e+04	9.865655e+03	5.547460e+03	0	1.184551e-03
1.120000e+09	4.495535e+13	0.000000e+00	6.043958e-01	6.230188e+14	1.305264e+15	1.385445e+14	1.453943e+04	9.842809e+03	5.534614e+03	0	1.177836e-03
1.130000e+09	4.420032e+13	0.000000e+00	6.043958e-01	6.143557e+14	1.288804e+15	1.379420e+14	1.449970e+04	9.820266e+03	5.521937e+03	0	1.171205e-03
1.140000e+09	4.346297e+13	0.000000e+00	6.043958e-01	6.058922e+14	1.272708e+15	1.373435e+14	1.446052e+04	9.798017e+03	5.509427e+03	0	1.164655e-03
1.150000e+09	4.274274e+13	0.000000e+00	6.043958e-01	5.976219e+14	1.256964e+15	1.367490e+14	1.442187e+04	9.776058e+03	5.497079e+03	0	1.158186e-03
1.160000e+09	4.203908e+13	0.000000e+00	6.043958e-01	5.895388e+14	1.241562e+15	1.361585e+14	1.438375e+04	9.754380e+03	5.484890e+03	0	1.151796e-03
1.170000e+09	4.135149e+13	0.000000e+00	6.043958e-01	5.816369e+14	1.226491e+15	1.355719e+14	1.434614e+04	9.732979e+03	5.472856e+03	0	1.145481e-03
1.180000e+09	4.067945e+13	0.000000e+00	6.043958e-01	5.739108e+14	1.211741e+15	1.349892e+14	1.430904e+04	9.711848e+03	5.460974e+03	0	1.139242e-03
1.190000e+09	4.002249e+13	0.000000e+00	6.043958e-01	5.663550e+14	1.197303e+15	1.344103e+14	1.427242e+04	9.690981e+03	5.449241e+03	0	1.133076e-03
1.200000e+09	3.938014e+13	0.000000e+00	6.043958e-01	5.589643e+14	1.183167e+15	1.338354e+14	1.423628e+04	9.670374e+03	5.437653e+03	0	1.126981e-03
1.210000e+09	3.875197e+13	0.000000e+00	6.043958e-01	5.517338e+14	1.169324e+15	1.332642e+14	1.420061e+04	9.650020e+03	5.426208e+03	0	1.120957e-03
1.220000e+09	3.813754e+13	0.000000e+00	6.043958e-01	5.446587e+14	1.155767e+15	1.326968e+14	1.416541e+04	9.629914e+03	5.414903e+03	0	1.115001e-03
1.230000e+09	3.753645e+13	0.000000e+00	6.043958e-01	5.377343e+14	1.142486e+15	1.321332e+14	1.413065e+04	9.610051e+03	5.403734e+03	0	1.109112e-03
1.240000e+09	3.694829e+13	0.000000e+00	6.043958e-01	5.309563e+14	1.129474e+15	1.315733e+14	1.409633e+04	9.590427e+03	5.392699e+03	0	1.103289e-03
1.250000e+09	3.637270e+13	0.000000e+00	6.043958e-01	5.243204e+14	1.116723e+15	1.310170e+14	1.406244e+04	9.571035e+03	5.381795e+03	0	1.097530e-03
1.260000e+09	3.580930e+13	0.000000e+00	6.043958e-01	5.178225e+14	1.104225e+15	1.304645e+14	1.402897e+04	9.551873e+03	5.371020e+03	0	1.091833e-03
1.270000e+09	3.525775e+13	0.000000e+00	6.043958e-01	5.114586e+14	1.091974e+15	1.299156e+14	1.399591e+04	9.532934e+03	5.360371e+03	0	1.086199e-03
1.280000e+09	3.471769e+13	0.000000e+00	6.043958e-01	5.052248e+14	1.079963e+15	1.293703e+14	1.396326e+04	9.514215e+03	5.349845e+03	0	1.080624e-03
1.290000e+09	3.418881e+13	0.000000e+00	6.043958e-01	4.991176e+14	1.068184e+15	1.288286e+14	1.393100e+04	9.495712e+03	5.339441e+03	0	1.075109e-03
1.300000e+09	3.367079e+13	0.000000e+00	6.043958e-01	4.931334e+14	1.056633e+15	1.282904e+14	1.389914e+04	9.477419e+03	5.329155e+03	0	1.069651e-03
1.310000e+09	3.316332e+13	0.000000e+00	6.043958e-01	4.872687e+14	1.045301e+15	1.277558e+14	1.386765e+04	9.459334e+03	5.318985e+03	0	1.064250e-03
1.320000e+09	3.266611e+13	0.000000e+00	6.043958e-01	4.815203e+14	1.034186e+15	1.272247e+14	1.383654e+04	9.441451e+03	5.308930e+03	0	1.058905e-03
1.330000e+09	3.217888e+13	0.000000e+00	6.043958e-01	4.758849e+14	1.023278e+15	1.266970e+14	1.380579e+04	9.423768e+03	5.298987e+03	0	1.053614e-03
1.340000e+09	3.170136e+13	0.000000e+00	6.043958e-01	4.703596e+14	1.012574e+15	1.261728e+14	1.377539e+04	9.406280e+03	5.289153e+03	0	1.048376e-03
1.350000e+09	3.123327e+13	0.000000e+00	6.043958e-01	4.649413e+14	1.002068e+15	1.256520e+14	1.374535e+04	9.388984e+03	5.279428e+03	0	1.043190e-03
1.360000e+09	3.077437e+13	0.000000e+00	6.043958e-01	4.596271e+14	9.917543e+14	1.251346e+14	1.371566e+04	9.371876e+03	5.269808e+03	0	1.038056e-03
