#t		Qconv[W]	Ri[Rp]		R*[Rp]		Qc[W]		Qm[W]		Qr[W]		Tcmb[K]		Tl[K]		Tup[K]		RiFlag		Bs[T]
0.000000e+00	2.696712e+12	0.000000e+00	8.160919e-01	5.562247e+13	3.519422e+13	3.312492e+13	6.515280e+03	2.700397e+03	2.416263e+03	0	4.120468e-04
1.000000e+07	2.692679e+12	0.000000e+00	8.160919e-01	5.554294e+13	3.633600e+13	3.294138e+13	6.508284e+03	2.713424e+03	2.427919e+03	0	4.118412e-04
2.000000e+07	2.688171e+12	0.000000e+00	8.160919e-01	5.545516e+13	3.747429e+13	3.275922e+13	6.501299e+03	2.726106e+03	2.439267e+03	0	4.116113e-04
3.000000e+07	2.683204e+12	0.000000e+00	8.160919e-01	5.535939e+13	3.860727e+13	3.257841e+13	6.494324e+03	2.738442e+03	2.450304e+03	0	4.113577e-04
4.000000e+07	2.677792e+12	0.000000e+00	8.160919e-01	5.525589e+13	3.973315e+13	3.239896e+13	6.487362e+03	2.750432e+03	2.461032e+03	0	4.110809e-04
5.000000e+07	2.671950e+12	0.000000e+00	8.160919e-01	5.514491e+13	4.085019e+13	3.222085e+13	6.480412e+03	2.762075e+03	2.471451e+03	0	4.107817e-04
6.000000e+07	2.665693e+12	0.000000e+00	8.160919e-01	5.502673e+13	4.195671e+13	3.204406e+13	6.473477e+03	2.773374e+03	2.481561e+03	0	4.104608e-04
7.000000e+07	2.659037e+12	0.000000e+00	8.160919e-01	5.490161e+13	4.305109e+13	3.186859e+13	6.466556e+03	2.784330e+03	2.491364e+03	0	4.101189e-04
8.000000e+07	2.651997e+12	0.000000e+00	8.160919e-01	5.476983e+13	4.413178e+13	3.169443e+13	6.459651e+03	2.794943e+03	2.500861e+03	0	4.097566e-04
9.000000e+07	2.644588e+12	0.000000e+00	8.160919e-01	5.463165e+13	4.519730e+13	3.152156e+13	6.452762e+03	2.805217e+03	2.510054e+03	0	4.093747e-04
1.000000e+08	2.636826e+12	0.000000e+00	8.160919e-01	5.448734e+13	4.624626e+13	3.134997e+13	6.445891e+03	2.815154e+03	2.518945e+03	0	4.089738e-04
1.100000e+08	2.628726e+12	0.000000e+00	8.160919e-01	5.433718e+13	4.727734e+13	3.117966e+13	6.439038e+03	2.824758e+03	2.527538e+03	0	4.085546e-04
1.200000e+08	2.620304e+12	0.000000e+00	8.160919e-01	5.418143e+13	4.828932e+13	3.101061e+13	6.432204e+03	2.834030e+03	2.535835e+03	0	4.081178e-04
1.300000e+08	2.611575e+12	0.000000e+00	8.160919e-01	5.402036e+13	4.928105e+13	3.084281e+13	6.425390e+03	2.842977e+03	2.543840e+03	0	4.076641e-04
1.400000e+08	2.602554e+12	0.000000e+00	8.160919e-01	5.385423e+13	5.025148e+13	3.067625e+13	6.418596e+03	2.851600e+03	2.551556e+03	0	4.071942e-04
1.500000e+08	2.593256e+12	0.000000e+00	8.160919e-01	5.368330e+13	5.119968e+13	3.051092e+13	6.411822e+03	2.859906e+03	2.558988e+03	0	4.067087e-04
1.600000e+08	2.583696e+12	0.000000e+00	8.160919e-01	5.350783e+13	5.212475e+13	3.034682e+13	6.405070e+03	2.867898e+03	2.566139e+03	0	4.062083e-04
1.700000e+08	2.573886e+12	0.000000e+00	8.160919e-01	5.332806e+13	5.302594e+13	3.018393e+13	6.398340e+03	2.875582e+03	2.573015e+03	0	4.056936e-04
1.800000e+08	2.563843e+12	0.000000e+00	8.160919e-01	5.314424e+13	5.390256e+13	3.002223e+13	6.391633e+03	2.882963e+03	2.579619e+03	0	4.051652e-04
1.900000e+08	2.553579e+12	0.000000e+00	8.160919e-01	5.295661e+13	5.475402e+13	2.986173e+13	6.384949e+03	2.890046e+03	2.585956e+03	0	4.046238e-04
2.000000e+08	2.543108e+12	0.000000e+00	8.160919e-01	5.276540e+13	5.557982e+13	2.970241e+13	6.378288e+03	2.896836e+03	2.592033e+03	0	4.040700e-04
2.100000e+08	2.532443e+12	0.000000e+00	8.160919e-01	5.257085e+13	5.637954e+13	2.954426e+13	6.371651e+03	2.903341e+03	2.597853e+03	0	4.035043e-04
2.200000e+08	2.521596e+12	0.000000e+00	8.160919e-01	5.237317e+13	5.715285e+13	2.938727e+13	6.365039e+03	2.909565e+03	2.603422e+03	0	4.029274e-04
2.300000e+08	2.510580e+12	0.000000e+00	8.160919e-01	5.217257e+13	5.789948e+13	2.923144e+13	6.358451e+03	2.915514e+03	2.608745e+03	0	4.023398e-04
2.400000e+08	2.499407e+12	0.000000e+00	8.160919e-01	5.196927e+13	5.861926e+13	2.907674e+13	6.351889e+03	2.921195e+03	2.613828e+03	0	4.017421e-04
2.500000e+08	2.488088e+12	0.000000e+00	8.160919e-01	5.176347e+13	5.931210e+13	2.892318e+13	6.345352e+03	2.926614e+03	2.618677e+03	0	4.011347e-04
2.600000e+08	2.476635e+12	0.000000e+00	8.160919e-01	5.155536e+13	5.997794e+13	2.877075e+13	6.338841e+03	2.931778e+03	2.623298e+03	0	4.005183e-04
2.700000e+08	2.465058e+12	0.000000e+00	8.160919e-01	5.134512e+13	6.061683e+13	2.861943e+13	6.332357e+03	2.936692e+03	2.627695e+03	0	3.998932e-04
2.800000e+08	2.453367e+12	0.000000e+00	8.160919e-01	5.113295e+13	6.122885e+13	2.846921e+13	6.325898e+03	2.941363e+03	2.631874e+03	0	3.992601e-04
2.900000e+08	2.441574e+12	0.000000e+00	8.160919e-01	5.091901e+13	6.181416e+13	2.832009e+13	6.319467e+03	2.945798e+03	2.635842e+03	0	3.986192e-04
3.000000e+08	2.429686e+12	0.000000e+00	8.160919e-01	5.070348e+13	6.237295e+13	2.817206e+13	6.313062e+03	2.950002e+03	2.639604e+03	0	3.979712e-04
3.100000e+08	2.417713e+12	0.000000e+00	8.160919e-01	5.048650e+13	6.290547e+13	2.802510e+13	6.306684e+03	2.953983e+03	2.643166e+03	0	3.973165e-04
3.200000e+08	2.405665e+12	0.000000e+00	8.160919e-01	5.026824e+13	6.341203e+13	2.787922e+13	6.300333e+03	2.957746e+03	2.646533e+03	0	3.966554e-04
3.300000e+08	2.393549e+12	0.000000e+00	8.160919e-01	5.004884e+13	6.389297e+13	2.773439e+13	6.294010e+03	2.961298e+03	2.649712e+03	0	3.959884e-04
3.400000e+08	2.381374e+12	0.000000e+00	8.160919e-01	4.982845e+13	6.434866e+13	2.759062e+13	6.287715e+03	2.964645e+03	2.652707e+03	0	3.953158e-04
3.500000e+08	2.369148e+12	0.000000e+00	8.160919e-01	4.960719e+13	6.477951e+13	2.744789e+13	6.281447e+03	2.967793e+03	2.655524e+03	0	3.946381e-04
3.600000e+08	2.356877e+12	0.000000e+00	8.160919e-01	4.938520e+13	6.518596e+13	2.730619e+13	6.275207e+03	2.970749e+03	2.658168e+03	0	3.939556e-04
3.700000e+08	2.344568e+12	0.000000e+00	8.160919e-01	4.916259e+13	6.556848e+13	2.716552e+13	6.268994e+03	2.973518e+03	2.660646e+03	0	3.932686e-04
3.800000e+08	2.332230e+12	0.000000e+00	8.160919e-01	4.893950e+13	6.592756e+13	2.702587e+13	6.262810e+03	2.976107e+03	2.662962e+03	0	3.925775e-04
3.900000e+08	2.319867e+12	0.000000e+00	8.160919e-01	4.871601e+13	6.626371e+13	2.688723e+13	6.256654e+03	2.978520e+03	2.665122e+03	0	3.918826e-04
4.000000e+08	2.307485e+12	0.000000e+00	8.160919e-01	4.849225e+13	6.657746e+13	2.674959e+13	6.250526e+03	2.980765e+03	2.667130e+03	0	3.911842e-04
4.100000e+08	2.295092e+12	0.000000e+00	8.160919e-01	4.826831e+13	6.686936e+13	2.661294e+13	6.244425e+03	2.982846e+03	2.668992e+03	0	3.904826e-04
4.200000e+08	2.282691e+12	0.000000e+00	8.160919e-01	4.804428e+13	6.713995e+13	2.647728e+13	6.238353e+03	2.984769e+03	2.670713e+03	0	3.897780e-04
4.300000e+08	2.270289e+12	0.000000e+00	8.160919e-01	4.782026e+13	6.738979e+13	2.634259e+13	6.232310e+03	2.986539e+03	2.672297e+03	0	3.890708e-04
4.400000e+08	2.257889e+12	0.000000e+00	8.160919e-01	4.759633e+13	6.761946e+13	2.620888e+13	6.226294e+03	2.988163e+03	2.673749e+03	0	3.883612e-04
4.500000e+08	2.245497e+12	0.000000e+00	8.160919e-01	4.737257e+13	6.782955e+13	2.607612e+13	6.220306e+03	2.989644e+03	2.675075e+03	0	3.876495e-04
4.600000e+08	2.233118e+12	0.000000e+00	8.160919e-01	4.714906e+13	6.802060e+13	2.594432e+13	6.214347e+03	2.990988e+03	2.676277e+03	0	3.869358e-04
4.700000e+08	2.220754e+12	0.000000e+00	8.160919e-01	4.692587e+13	6.819322e+13	2.581346e+13	6.208415e+03	2.992200e+03	2.677362e+03	0	3.862203e-04
4.800000e+08	2.208411e+12	0.000000e+00	8.160919e-01	4.670306e+13	6.834796e+13	2.568354e+13	6.202512e+03	2.993284e+03	2.678332e+03	0	3.855034e-04
4.900000e+08	2.196091e+12	0.000000e+00	8.160919e-01	4.648070e+13	6.848541e+13	2.555455e+13	6.196636e+03	2.994246e+03	2.679193e+03	0	3.847853e-04
5.000000e+08	2.183798e+12	0.000000e+00	8.160919e-01	4.625886e+13	6.860613e+13	2.542648e+13	6.190789e+03	2.995089e+03	2.679947e+03	0	3.840660e-04
5.100000e+08	2.171536e+12	0.000000e+00	8.160919e-01	4.603758e+13	6.871070e+13	2.529933e+13	6.184969e+03	2.995819e+03	2.680600e+03	0	3.833458e-04
5.200000e+08	2.159307e+12	0.000000e+00	8.160919e-01	4.581692e+13	6.879966e+13	2.517308e+13	6.179177e+03	2.996439e+03	2.681155e+03	0	3.826248e-04
5.300000e+08	2.147115e+12	0.000000e+00	8.160919e-01	4.559693e+13	6.887358e+13	2.504774e+13	6.173413e+03	2.996954e+03	2.681616e+03	0	3.819033e-04
5.400000e+08	2.134962e+12	0.000000e+00	8.160919e-01	4.537766e+13	6.893299e+13	2.492329e+13	6.167677e+03	2.997367e+03	2.681986e+03	0	3.811814e-04
5.500000e+08	2.122850e+12	0.000000e+00	8.160919e-01	4.515915e+13	6.897841e+13	2.479972e+13	6.161968e+03	2.997683e+03	2.682269e+03	0	3.804592e-04
5.600000e+08	2.110782e+12	0.000000e+00	8.160919e-01	4.494144e+13	6.901038e+13	2.467703e+13	6.156286e+03	2.997906e+03	2.682467e+03	0	3.797369e-04
5.700000e+08	2.098761e+12	0.000000e+00	8.160919e-01	4.472457e+13	6.902942e+13	2.455522e+13	6.150632e+03	2.998038e+03	2.682586e+03	0	3.790146e-04
5.800000e+08	2.086787e+12	0.000000e+00	8.160919e-01	4.450857e+13	6.903602e+13	2.443426e+13	6.145005e+03	2.998084e+03	2.682627e+03	0	3.782925e-04
5.900000e+08	2.074864e+12	0.000000e+00	8.160919e-01	4.429348e+13	6.903067e+13	2.431417e+13	6.139405e+03	2.998047e+03	2.682594e+03	0	3.775706e-04
6.000000e+08	2.062992e+12	0.000000e+00	8.160919e-01	4.407933e+13	6.901385e+13	2.419492e+13	6.133833e+03	2.997930e+03	2.682489e+03	0	3.768491e-04
6.100000e+08	2.051174e+12	0.000000e+00	8.160919e-01	4.386615e+13	6.898603e+13	2.407652e+13	6.128287e+03	2.997736e+03	2.682316e+03	0	3.761282e-04
6.200000e+08	2.039411e+12	0.000000e+00	8.160919e-01	4.365397e+13	6.894767e+13	2.395896e+13	6.122768e+03	2.997470e+03	2.682077e+03	0	3.754078e-04
6.300000e+08	2.027705e+12	0.000000e+00	8.160919e-01	4.344280e+13	6.889921e+13	2.384222e+13	6.117275e+03	2.997132e+03	2.681775e+03	0	3.746881e-04
6.400000e+08	2.016056e+12	0.000000e+00	8.160919e-01	4.323267e+13	6.884107e+13	2.372631e+13	6.111809e+03	2.996728e+03	2.681413e+03	0	3.739692e-04
6.500000e+08	2.004466e+12	0.000000e+00	8.160919e-01	4.302360e+13	6.877368e+13	2.361122e+13	6.106370e+03	2.996258e+03	2.680993e+03	0	3.732512e-04
6.600000e+08	1.992936e+12	0.000000e+00	8.160919e-01	4.281562e+13	6.869745e+13	2.349693e+13	6.100956e+03	2.995727e+03	2.680518e+03	0	3.725342e-04
6.700000e+08	1.981467e+12	0.000000e+00	8.160919e-01	4.260873e+13	6.861276e+13	2.338345e+13	6.095569e+03	2.995136e+03	2.679989e+03	0	3.718182e-04
6.800000e+08	1.970061e+12	0.000000e+00	8.160919e-01	4.240296e+13	6.852001e+13	2.327076e+13	6.090208e+03	2.994488e+03	2.679409e+03	0	3.711033e-04
6.900000e+08	1.958717e+12	0.000000e+00	8.160919e-01	4.219831e+13	6.841954e+13	2.315887e+13	6.084873e+03	2.993785e+03	2.678780e+03	0	3.703897e-04
7.000000e+08	1.947436e+12	0.000000e+00	8.160919e-01	4.199481e+13	6.831175e+13	2.304776e+13	6.079563e+03	2.993030e+03	2.678105e+03	0	3.696773e-04
7.100000e+08	1.936220e+12	0.000000e+00	8.160919e-01	4.179246e+13	6.819694e+13	2.293743e+13	6.074279e+03	2.992226e+03	2.677385e+03	0	3.689662e-04
7.200000e+08	1.925069e+12	0.000000e+00	8.160919e-01	4.159128e+13	6.807547e+13	2.282787e+13	6.069020e+03	2.991373e+03	2.676622e+03	0	3.682565e-04
7.300000e+08	1.913984e+12	0.000000e+00	8.160919e-01	4.139127e+13	6.794767e+13	2.271907e+13	6.063787e+03	2.990475e+03	2.675819e+03	0	3.675483e-04
7.400000e+08	1.902964e+12	0.000000e+00	8.160919e-01	4.119244e+13	6.781383e+13	2.261104e+13	6.058579e+03	2.989533e+03	2.674976e+03	0	3.668415e-04
7.500000e+08	1.892011e+12	0.000000e+00	8.160919e-01	4.099480e+13	6.767426e+13	2.250376e+13	6.053395e+03	2.988549e+03	2.674095e+03	0	3.661363e-04
7.600000e+08	1.881124e+12	0.000000e+00	8.160919e-01	4.079835e+13	6.752925e+13	2.239722e+13	6.048237e+03	2.987525e+03	2.673179e+03	0	3.654327e-04
7.700000e+08	1.870304e+12	0.000000e+00	8.160919e-01	4.060311e+13	6.737908e+13	2.229143e+13	6.043103e+03	2.986464e+03	2.672229e+03	0	3.647308e-04
7.800000e+08	1.859552e+12	0.000000e+00	8.160919e-01	4.040907e+13	6.722401e+13	2.218637e+13	6.037994e+03	2.985365e+03	2.671246e+03	0	3.640305e-04
7.900000e+08	1.848867e+12	0.000000e+00	8.160919e-01	4.021623e+13	6.706431e+13	2.208204e+13	6.032909e+03	2.984232e+03	2.670232e+03	0	3.633319e-04
8.000000e+08	1.838250e+12	0.000000e+00	8.160919e-01	4.002461e+13	6.690023e+13	2.197844e+13	6.027849e+03	2.983065e+03	2.669189e+03	0	3.626351e-04
8.100000e+08	1.827701e+12	0.000000e+00	8.160919e-01	3.983420e+13	6.673201e+13	2.187555e+13	6.022812e+03	2.981867e+03	2.668117e+03	0	3.619401e-04
8.200000e+08	1.817220e+12	0.000000e+00	8.160919e-01	3.964501e+13	6.655986e+13	2.177337e+13	6.017799e+03	2.980639e+03	2.667018e+03	0	3.612469e-04
8.300000e+08	1.806806e+12	0.000000e+00	8.160919e-01	3.945703e+13	6.638402e+13	2.167190e+13	6.012810e+03	2.979382e+03	2.665893e+03	0	3.605556e-04
8.400000e+08	1.796461e+12	0.000000e+00	8.160919e-01	3.927027e+13	6.620469e+13	2.157114e+13	6.007845e+03	2.978097e+03	2.664743e+03	0	3.598661e-04
8.500000e+08	1.786184e+12	0.000000e+00	8.160919e-01	3.908472e+13	6.602210e+13	2.147106e+13	6.002903e+03	2.976786e+03	2.663570e+03	0	3.591785e-04
8.600000e+08	1.775974e+12	0.000000e+00	8.160919e-01	3.890039e+13	6.583642e+13	2.137168e+13	5.997985e+03	2.975451e+03	2.662375e+03	0	3.584929e-04
8.700000e+08	1.765833e+12	0.000000e+00	8.160919e-01	3.871727e+13	6.564785e+13	2.127298e+13	5.993090e+03	2.974091e+03	2.661159e+03	0	3.578092e-04
8.800000e+08	1.755759e+12	0.000000e+00	8.160919e-01	3.853536e+13	6.545655e+13	2.117496e+13	5.988217e+03	2.972709e+03	2.659922e+03	0	3.571275e-04
8.900000e+08	1.745752e+12	0.000000e+00	8.160919e-01	3.835465e+13	6.526274e+13	2.107762e+13	5.983368e+03	2.971306e+03	2.658666e+03	0	3.564478e-04
9.000000e+08	1.735814e+12	0.000000e+00	8.160919e-01	3.817516e+13	6.506654e+13	2.098094e+13	5.978541e+03	2.969882e+03	2.657393e+03	0	3.557700e-04
9.100000e+08	1.725942e+12	0.000000e+00	8.160919e-01	3.799686e+13	6.486811e+13	2.088492e+13	5.973737e+03	2.968439e+03	2.656101e+03	0	3.550943e-04
9.200000e+08	1.716138e+12	0.000000e+00	8.160919e-01	3.781976e+13	6.466764e+13	2.078957e+13	5.968955e+03	2.966978e+03	2.654794e+03	0	3.544207e-04
9.300000e+08	1.706400e+12	0.000000e+00	8.160919e-01	3.764386e+13	6.446525e+13	2.069486e+13	5.964196e+03	2.965499e+03	2.653470e+03	0	3.537491e-04
9.400000e+08	1.696729e+12	0.000000e+00	8.160919e-01	3.746915e+13	6.426109e+13	2.060080e+13	5.959458e+03	2.964003e+03	2.652132e+03	0	3.530795e-04
9.500000e+08	1.687125e+12	0.000000e+00	8.160919e-01	3.729562e+13	6.405528e+13	2.050739e+13	5.954743e+03	2.962492e+03	2.650780e+03	0	3.524120e-04
9.600000e+08	1.677587e+12	0.000000e+00	8.160919e-01	3.712327e+13	6.384796e+13	2.041461e+13	5.950049e+03	2.960966e+03	2.649415e+03	0	3.517467e-04
9.700000e+08	1.668114e+12	0.000000e+00	8.160919e-01	3.695210e+13	6.363925e+13	2.032246e+13	5.945377e+03	2.959427e+03	2.648037e+03	0	3.510834e-04
9.800000e+08	1.658707e+12	0.000000e+00	8.160919e-01	3.678209e+13	6.342927e+13	2.023094e+13	5.940726e+03	2.957874e+03	2.646648e+03	0	3.504222e-04
9.900000e+08	1.649365e+12	0.000000e+00	8.160919e-01	3.661325e+13	6.321812e+13	2.014004e+13	5.936097e+03	2.956308e+03	2.645247e+03	0	3.497631e-04
1.000000e+09	1.640088e+12	0.000000e+00	8.160919e-01	3.644557e+13	6.300592e+13	2.004976e+13	5.931489e+03	2.954731e+03	2.643836e+03	0	3.491061e-04
1.010000e+09	1.630876e+12	0.000000e+00	8.160919e-01	3.627905e+13	6.279278e+13	1.996009e+13	5.926903e+03	2.953143e+03	2.642414e+03	0	3.484512e-04
1.020000e+09	1.621728e+12	0.000000e+00	8.160919e-01	3.611366e+13	6.257878e+13	1.987103e+13	5.922337e+03	2.951544e+03	2.640984e+03	0	3.477985e-04
1.030000e+09	1.612644e+12	0.000000e+00	8.160919e-01	3.594942e+13	6.236402e+13	1.978257e+13	5.917791e+03	2.949935e+03	2.639545e+03	0	3.471478e-04
1.040000e+09	1.603623e+12	0.000000e+00	8.160919e-01	3.578631e+13	6.214860e+13	1.969471e+13	5.913267e+03	2.948318e+03	2.638097e+03	0	3.464993e-04
1.050000e+09	1.594665e+12	0.000000e+00	8.160919e-01	3.562433e+13	6.193259e+13	1.960744e+13	5.908763e+03	2.946691e+03	2.636642e+03	0	3.458530e-04
1.060000e+09	1.585770e+12	0.000000e+00	8.160919e-01	3.546347e+13	6.171607e+13	1.952076e+13	5.904279e+03	2.945057e+03	2.635179e+03	0	3.452087e-04
1.070000e+09	1.576938e+12	0.000000e+00	8.160919e-01	3.530372e+13	6.149914e+13	1.943467e+13	5.899816e+03	2.943415e+03	2.633710e+03	0	3.445666e-04
1.080000e+09	1.568167e+12	0.000000e+00	8.160919e-01	3.514507e+13	6.128185e+13	1.934915e+13	5.895372e+03	2.941766e+03	2.632235e+03	0	3.439266e-04
1.090000e+09	1.559458e+12	0.000000e+00	8.160919e-01	3.498753e+13	6.106428e+13	1.926421e+13	5.890949e+03	2.940111e+03	2.630754e+03	0	3.432888e-04
1.100000e+09	1.550811e+12	0.000000e+00	8.160919e-01	3.483108e+13	6.084651e+13	1.917984e+13	5.886545e+03	2.938449e+03	2.629267e+03	0	3.426530e-04
1.110000e+09	1.542224e+12	0.000000e+00	8.160919e-01	3.467571e+13	6.062860e+13	1.909603e+13	5.882161e+03	2.936782e+03	2.627775e+03	0	3.420194e-04
1.120000e+09	1.533697e+12	0.000000e+00	8.160919e-01	3.452141e+13	6.041059e+13	1.901279e+13	5.877797e+03	2.935110e+03	2.626279e+03	0	3.413879e-04
1.130000e+09	1.525230e+12	0.000000e+00	8.160919e-01	3.436819e+13	6.019255e+13	1.893010e+13	5.873452e+03	2.933433e+03	2.624779e+03	0	3.407586e-04
1.140000e+09	1.516823e+12	0.000000e+00	8.160919e-01	3.421603e+13	5.997455e+13	1.884797e+13	5.869126e+03	2.931752e+03	2.623274e+03	0	3.401313e-04
1.150000e+09	1.508475e+12	0.000000e+00	8.160919e-01	3.406493e+13	5.975663e+13	1.876639e+13	5.864819e+03	2.930066e+03	2.621766e+03	0	3.395062e-04
1.160000e+09	1.500185e+12	0.000000e+00	8.160919e-01	3.391487e+13	5.953884e+13	1.868534e+13	5.860532e+03	2.928378e+03	2.620255e+03	0	3.388831e-04
1.170000e+09	1.491954e+12	0.000000e+00	8.160919e-01	3.376585e+13	5.932123e+13	1.860484e+13	5.856263e+03	2.926686e+03	2.618741e+03	0	3.382622e-04
1.180000e+09	1.483781e+12	0.000000e+00	8.160919e-01	3.361786e+13	5.910386e+13	1.852488e+13	5.852013e+03	2.924991e+03	2.617224e+03	0	3.376434e-04
1.190000e+09	1.475665e+12	0.000000e+00	8.160919e-01	3.347090e+13	5.888675e+13	1.844544e+13	5.847781e+03	2.923293e+03	2.615706e+03	0	3.370266e-04
1.200000e+09	1.467606e+12	0.000000e+00	8.160919e-01	3.332495e+13	5.866995e+13	1.836654e+13	5.843568e+03	2.921593e+03	2.614185e+03	0	3.364120e-04
1.210000e+09	1.459603e+12	0.000000e+00	8.160919e-01	3.318002e+13	5.845351e+13	1.828815e+13	5.839374e+03	2.919892e+03	2.612662e+03	0	3.357994e-04
1.220000e+09	1.451657e+12	0.000000e+00	8.160919e-01	3.303608e+13	5.823745e+13	1.821029e+13	5.835197e+03	2.918188e+03	2.611138e+03	0	3.351889e-04
1.230000e+09	1.443766e+12	0.000000e+00	8.160919e-01	3.289314e+13	5.802181e+13	1.813294e+13	5.831039e+03	2.916483e+03	2.609612e+03	0	3.345805e-04
1.240000e+09	1.435931e+12	0.000000e+00	8.160919e-01	3.275118e+13	5.780663e+13	1.805610e+13	5.826898e+03	2.914777e+03	2.608086e+03	0	3.339741e-04
1.250000e+09	1.428150e+12	0.000000e+00	8.160919e-01	3.261020e+13	5.759194e+13	1.797977e+13	5.822776e+03	2.913070e+03	2.606559e+03	0	3.333698e-04
1.260000e+09	1.420424e+12	0.000000e+00	8.160919e-01	3.247020e+13	5.737777e+13	1.790395e+13	5.818671e+03	2.911363e+03	2.605031e+03	0	3.327676e-04
1.270000e+09	1.412752e+12	0.000000e+00	8.160919e-01	3.233115e+13	5.716414e+13	1.782862e+13	5.814584e+03	2.909655e+03	2.603502e+03	0	3.321674e-04
1.280000e+09	1.405133e+12	0.000000e+00	8.160919e-01	3.219307e+13	5.695109e+13	1.775379e+13	5.810514e+03	2.907947e+03	2.601974e+03	0	3.315692e-04
1.290000e+09	1.397568e+12	0.000000e+00	8.160919e-01	3.205593e+13	5.673863e+13	1.767945e+13	5.806462e+03	2.906239e+03	2.600446e+03	0	3.309730e-04
1.300000e+09	1.390055e+12	0.000000e+00	8.160919e-01	3.191973e+13	5.652681e+13	1.760559e+13	5.802426e+03	2.904531e+03	2.598918e+03	0	3.303789e-04
1.310000e+09	1.382594e+12	0.000000e+00	8.160919e-01	3.178446e+13	5.631563e+13	1.753223e+13	5.798408e+03	2.902823e+03	2.597390e+03	0	3.297868e-04
1.320000e+09	1.375185e+12	0.000000e+00	8.160919e-01	3.165012e+13	5.610511e+13	1.745934e+13	5.794407e+03	2.901117e+03	2.595862e+03	0	3.291966e-04
1.330000e+09	1.367828e+12	0.000000e+00	8.160919e-01	3.151669e+13	5.589528e+13	1.738693e+13	5.790423e+03	2.899411e+03	2.594336e+03	0	3.286085e-04
1.340000e+09	1.360521e+12	0.000000e+00	8.160919e-01	3.138418e+13	5.568617e+13	1.731499e+13	5.786456e+03	2.897705e+03	2.592810e+03	0	3.280224e-04
1.350000e+09	1.353265e+12	0.000000e+00	8.160919e-01	3.125257e+13	5.547778e+13	1.724352e+13	5.782505e+03	2.896001e+03	2.591286e+03	0	3.274382e-04
1.360000e+09	1.346060e+12	0.000000e+00	8.160919e-01	3.112185e+13	5.527013e+13	1.717252e+13	5.778571e+03	2.894299e+03	2.589762e+03	0	3.268560e-04
