#t		Qconv[W]	Ri[Rp]		R*[Rp]		Qc[W]		Qm[W]		Qr[W]		Tcmb[K]		Tl[K]		Tup[K]		RiFlag		Bs[T]
0.000000e+00	5.034894e+12	0.000000e+00	8.139534e-01	9.278367e+13	3.450629e+13	4.549951e+13	8.012881e+03	2.917645e+03	2.566485e+03	0	5.021997e-04
1.000000e+07	5.039833e+12	0.000000e+00	8.139534e-01	9.283342e+13	3.605448e+13	4.524741e+13	8.004674e+03	2.936310e+03	2.582904e+03	0	5.023638e-04
2.000000e+07	5.043715e+12	0.000000e+00	8.139534e-01	9.286799e+13	3.762742e+13	4.499720e+13	7.996463e+03	2.954655e+03	2.599041e+03	0	5.024928e-04
3.000000e+07	5.046548e+12	0.000000e+00	8.139534e-01	9.288752e+13	3.922293e+13	4.474885e+13	7.988248e+03	2.972674e+03	2.614891e+03	0	5.025868e-04
4.000000e+07	5.048343e+12	0.000000e+00	8.139534e-01	9.289217e+13	4.083874e+13	4.450236e+13	7.980032e+03	2.990360e+03	2.630448e+03	0	5.026464e-04
5.000000e+07	5.049113e+12	0.000000e+00	8.139534e-01	9.288211e+13	4.247252e+13	4.425771e+13	7.971816e+03	3.007707e+03	2.645707e+03	0	5.026720e-04
6.000000e+07	5.048872e+12	0.000000e+00	8.139534e-01	9.285754e+13	4.412183e+13	4.401488e+13	7.963600e+03	3.024711e+03	2.660664e+03	0	5.026640e-04
7.000000e+07	5.047633e+12	0.000000e+00	8.139534e-01	9.281868e+13	4.578418e+13	4.377386e+13	7.955387e+03	3.041365e+03	2.675315e+03	0	5.026228e-04
8.000000e+07	5.045413e+12	0.000000e+00	8.139534e-01	9.276576e+13	4.745706e+13	4.353463e+13	7.947177e+03	3.057667e+03	2.689654e+03	0	5.025492e-04
9.000000e+07	5.042230e+12	0.000000e+00	8.139534e-01	9.269904e+13	4.913789e+13	4.329718e+13	7.938971e+03	3.073611e+03	2.703680e+03	0	5.024434e-04
1.000000e+08	5.038102e+12	0.000000e+00	8.139534e-01	9.261878e+13	5.082410e+13	4.306149e+13	7.930772e+03	3.089195e+03	2.717388e+03	0	5.023063e-04
1.100000e+08	5.033049e+12	0.000000e+00	8.139534e-01	9.252527e+13	5.251308e+13	4.282755e+13	7.922579e+03	3.104416e+03	2.730777e+03	0	5.021383e-04
1.200000e+08	5.027090e+12	0.000000e+00	8.139534e-01	9.241880e+13	5.420224e+13	4.259535e+13	7.914395e+03	3.119271e+03	2.743844e+03	0	5.019401e-04
1.300000e+08	5.020249e+12	0.000000e+00	8.139534e-01	9.229969e+13	5.588900e+13	4.236487e+13	7.906221e+03	3.133758e+03	2.756587e+03	0	5.017123e-04
1.400000e+08	5.012546e+12	0.000000e+00	8.139534e-01	9.216826e+13	5.757083e+13	4.213609e+13	7.898057e+03	3.147876e+03	2.769006e+03	0	5.014555e-04
1.500000e+08	5.004005e+12	0.000000e+00	8.139534e-01	9.202484e+13	5.924521e+13	4.190900e+13	7.889904e+03	3.161625e+03	2.781100e+03	0	5.011706e-04
1.600000e+08	4.994649e+12	0.000000e+00	8.139534e-01	9.186977e+13	6.090968e+13	4.168359e+13	7.881764e+03	3.175004e+03	2.792869e+03	0	5.008580e-04
1.700000e+08	4.984503e+12	0.000000e+00	8.139534e-01	9.170339e+13	6.256186e+13	4.145984e+13	7.873638e+03	3.188013e+03	2.804312e+03	0	5.005186e-04
1.800000e+08	4.973591e+12	0.000000e+00	8.139534e-01	9.152607e+13	6.419942e+13	4.123775e+13	7.865526e+03	3.200653e+03	2.815431e+03	0	5.001531e-04
1.900000e+08	4.961937e+12	0.000000e+00	8.139534e-01	9.133816e+13	6.582013e+13	4.101729e+13	7.857431e+03	3.212925e+03	2.826226e+03	0	4.997622e-04
2.000000e+08	4.949568e+12	0.000000e+00	8.139534e-01	9.114003e+13	6.742182e+13	4.079845e+13	7.849351e+03	3.224831e+03	2.836699e+03	0	4.993466e-04
2.100000e+08	4.936508e+12	0.000000e+00	8.139534e-01	9.093204e+13	6.900245e+13	4.058122e+13	7.841290e+03	3.236372e+03	2.846851e+03	0	4.989070e-04
2.200000e+08	4.922784e+12	0.000000e+00	8.139534e-01	9.071457e+13	7.056005e+13	4.036558e+13	7.833246e+03	3.247552e+03	2.856685e+03	0	4.984442e-04
2.300000e+08	4.908420e+12	0.000000e+00	8.139534e-01	9.048797e+13	7.209279e+13	4.015153e+13	7.825222e+03	3.258373e+03	2.866204e+03	0	4.979590e-04
2.400000e+08	4.893443e+12	0.000000e+00	8.139534e-01	9.025263e+13	7.359893e+13	3.993905e+13	7.817218e+03	3.268839e+03	2.875410e+03	0	4.974520e-04
2.500000e+08	4.877877e+12	0.000000e+00	8.139534e-01	9.000891e+13	7.507687e+13	3.972812e+13	7.809235e+03	3.278952e+03	2.884307e+03	0	4.969239e-04
2.600000e+08	4.861749e+12	0.000000e+00	8.139534e-01	8.975717e+13	7.652509e+13	3.951874e+13	7.801273e+03	3.288718e+03	2.892897e+03	0	4.963757e-04
2.700000e+08	4.845083e+12	0.000000e+00	8.139534e-01	8.949778e+13	7.794222e+13	3.931089e+13	7.793333e+03	3.298141e+03	2.901186e+03	0	4.958078e-04
2.800000e+08	4.827904e+12	0.000000e+00	8.139534e-01	8.923109e+13	7.932701e+13	3.910456e+13	7.785417e+03	3.307225e+03	2.909176e+03	0	4.952211e-04
2.900000e+08	4.810237e+12	0.000000e+00	8.139534e-01	8.895747e+13	8.067834e+13	3.889973e+13	7.777524e+03	3.315974e+03	2.916873e+03	0	4.946163e-04
3.000000e+08	4.792106e+12	0.000000e+00	8.139534e-01	8.867725e+13	8.199518e+13	3.869639e+13	7.769655e+03	3.324395e+03	2.924280e+03	0	4.939941e-04
3.100000e+08	4.773535e+12	0.000000e+00	8.139534e-01	8.839078e+13	8.327664e+13	3.849454e+13	7.761810e+03	3.332493e+03	2.931403e+03	0	4.933552e-04
3.200000e+08	4.754547e+12	0.000000e+00	8.139534e-01	8.809840e+13	8.452196e+13	3.829416e+13	7.753992e+03	3.340273e+03	2.938247e+03	0	4.927001e-04
3.300000e+08	4.735165e+12	0.000000e+00	8.139534e-01	8.780043e+13	8.573047e+13	3.809523e+13	7.746198e+03	3.347742e+03	2.944816e+03	0	4.920297e-04
3.400000e+08	4.715411e+12	0.000000e+00	8.139534e-01	8.749721e+13	8.690164e+13	3.789774e+13	7.738432e+03	3.354904e+03	2.951117e+03	0	4.913446e-04
3.500000e+08	4.695308e+12	0.000000e+00	8.139534e-01	8.718904e+13	8.803503e+13	3.770169e+13	7.730692e+03	3.361766e+03	2.957153e+03	0	4.906453e-04
3.600000e+08	4.674876e+12	0.000000e+00	8.139534e-01	8.687622e+13	8.913029e+13	3.750707e+13	7.722979e+03	3.368336e+03	2.962932e+03	0	4.899326e-04
3.700000e+08	4.654137e+12	0.000000e+00	8.139534e-01	8.655907e+13	9.018721e+13	3.731385e+13	7.715294e+03	3.374617e+03	2.968458e+03	0	4.892070e-04
3.800000e+08	4.633110e+12	0.000000e+00	8.139534e-01	8.623786e+13	9.120566e+13	3.712203e+13	7.707637e+03	3.380619e+03	2.973736e+03	0	4.884692e-04
3.900000e+08	4.611815e+12	0.000000e+00	8.139534e-01	8.591289e+13	9.218559e+13	3.693159e+13	7.700008e+03	3.386346e+03	2.978774e+03	0	4.877196e-04
4.000000e+08	4.590270e+12	0.000000e+00	8.139534e-01	8.558441e+13	9.312706e+13	3.674253e+13	7.692408e+03	3.391805e+03	2.983576e+03	0	4.869590e-04
4.100000e+08	4.568496e+12	0.000000e+00	8.139534e-01	8.525270e+13	9.403018e+13	3.655484e+13	7.684837e+03	3.397003e+03	2.988149e+03	0	4.861878e-04
4.200000e+08	4.546508e+12	0.000000e+00	8.139534e-01	8.491802e+13	9.489517e+13	3.636849e+13	7.677295e+03	3.401947e+03	2.992498e+03	0	4.854065e-04
4.300000e+08	4.524324e+12	0.000000e+00	8.139534e-01	8.458060e+13	9.572229e+13	3.618349e+13	7.669783e+03	3.406643e+03	2.996628e+03	0	4.846158e-04
4.400000e+08	4.501961e+12	0.000000e+00	8.139534e-01	8.424068e+13	9.651190e+13	3.599982e+13	7.662300e+03	3.411097e+03	3.000547e+03	0	4.838160e-04
4.500000e+08	4.479435e+12	0.000000e+00	8.139534e-01	8.389850e+13	9.726436e+13	3.581747e+13	7.654848e+03	3.415317e+03	3.004258e+03	0	4.830077e-04
4.600000e+08	4.456760e+12	0.000000e+00	8.139534e-01	8.355427e+13	9.798018e+13	3.563643e+13	7.647426e+03	3.419308e+03	3.007770e+03	0	4.821913e-04
4.700000e+08	4.433953e+12	0.000000e+00	8.139534e-01	8.320821e+13	9.865985e+13	3.545669e+13	7.640034e+03	3.423078e+03	3.011086e+03	0	4.813674e-04
4.800000e+08	4.411025e+12	0.000000e+00	8.139534e-01	8.286052e+13	9.930392e+13	3.527823e+13	7.632673e+03	3.426632e+03	3.014212e+03	0	4.805363e-04
4.900000e+08	4.387993e+12	0.000000e+00	8.139534e-01	8.251139e+13	9.991298e+13	3.510106e+13	7.625343e+03	3.429978e+03	3.017155e+03	0	4.796984e-04
5.000000e+08	4.364867e+12	0.000000e+00	8.139534e-01	8.216101e+13	1.004877e+14	3.492515e+13	7.618043e+03	3.433121e+03	3.019919e+03	0	4.788542e-04
5.100000e+08	4.341662e+12	0.000000e+00	8.139534e-01	8.180956e+13	1.010287e+14	3.475049e+13	7.610774e+03	3.436067e+03	3.022511e+03	0	4.780041e-04
5.200000e+08	4.318387e+12	0.000000e+00	8.139534e-01	8.145721e+13	1.015367e+14	3.457709e+13	7.603537e+03	3.438822e+03	3.024935e+03	0	4.771484e-04
5.300000e+08	4.295056e+12	0.000000e+00	8.139534e-01	8.110412e+13	1.020124e+14	3.440492e+13	7.596330e+03	3.441393e+03	3.027197e+03	0	4.762876e-04
5.400000e+08	4.271679e+12	0.000000e+00	8.139534e-01	8.075045e+13	1.024565e+14	3.423397e+13	7.589155e+03	3.443786e+03	3.029301e+03	0	4.754219e-04
5.500000e+08	4.248267e+12	0.000000e+00	8.139534e-01	8.039634e+13	1.028699e+14	3.406424e+13	7.582011e+03	3.446006e+03	3.031254e+03	0	4.745517e-04
5.600000e+08	4.224828e+12	0.000000e+00	8.139534e-01	8.004195e+13	1.032532e+14	3.389572e+13	7.574898e+03	3.448058e+03	3.033059e+03	0	4.736774e-04
5.700000e+08	4.201373e+12	0.000000e+00	8.139534e-01	7.968741e+13	1.036073e+14	3.372840e+13	7.567816e+03	3.449949e+03	3.034722e+03	0	4.727992e-04
5.800000e+08	4.177910e+12	0.000000e+00	8.139534e-01	7.933283e+13	1.039329e+14	3.356226e+13	7.560766e+03	3.451684e+03	3.036248e+03	0	4.719174e-04
5.900000e+08	4.154449e+12	0.000000e+00	8.139534e-01	7.897835e+13	1.042309e+14	3.339730e+13	7.553747e+03	3.453267e+03	3.037641e+03	0	4.710324e-04
6.000000e+08	4.130996e+12	0.000000e+00	8.139534e-01	7.862409e+13	1.045020e+14	3.323351e+13	7.546759e+03	3.454705e+03	3.038906e+03	0	4.701444e-04
6.100000e+08	4.107561e+12	0.000000e+00	8.139534e-01	7.827014e+13	1.047470e+14	3.307088e+13	7.539803e+03	3.456003e+03	3.040047e+03	0	4.692536e-04
6.200000e+08	4.084149e+12	0.000000e+00	8.139534e-01	7.791662e+13	1.049668e+14	3.290939e+13	7.532878e+03	3.457164e+03	3.041069e+03	0	4.683604e-04
6.300000e+08	4.060769e+12	0.000000e+00	8.139534e-01	7.756363e+13	1.051620e+14	3.274905e+13	7.525984e+03	3.458195e+03	3.041976e+03	0	4.674650e-04
6.400000e+08	4.037426e+12	0.000000e+00	8.139534e-01	7.721125e+13	1.053336e+14	3.258984e+13	7.519122e+03	3.459099e+03	3.042771e+03	0	4.665675e-04
6.500000e+08	4.014127e+12	0.000000e+00	8.139534e-01	7.685958e+13	1.054822e+14	3.243174e+13	7.512290e+03	3.459881e+03	3.043459e+03	0	4.656683e-04
6.600000e+08	3.990877e+12	0.000000e+00	8.139534e-01	7.650871e+13	1.056087e+14	3.227477e+13	7.505490e+03	3.460547e+03	3.044045e+03	0	4.647675e-04
6.700000e+08	3.967683e+12	0.000000e+00	8.139534e-01	7.615870e+13	1.057138e+14	3.211889e+13	7.498720e+03	3.461099e+03	3.044530e+03	0	4.638654e-04
6.800000e+08	3.944549e+12	0.000000e+00	8.139534e-01	7.580964e+13	1.057982e+14	3.196411e+13	7.491982e+03	3.461542e+03	3.044920e+03	0	4.629621e-04
6.900000e+08	3.921480e+12	0.000000e+00	8.139534e-01	7.546159e+13	1.058627e+14	3.181041e+13	7.485274e+03	3.461881e+03	3.045218e+03	0	4.620578e-04
7.000000e+08	3.898481e+12	0.000000e+00	8.139534e-01	7.511463e+13	1.059079e+14	3.165780e+13	7.478597e+03	3.462118e+03	3.045427e+03	0	4.611527e-04
7.100000e+08	3.875557e+12	0.000000e+00	8.139534e-01	7.476881e+13	1.059347e+14	3.150625e+13	7.471951e+03	3.462259e+03	3.045551e+03	0	4.602470e-04
7.200000e+08	3.852710e+12	0.000000e+00	8.139534e-01	7.442419e+13	1.059437e+14	3.135576e+13	7.465335e+03	3.462306e+03	3.045592e+03	0	4.593409e-04
7.300000e+08	3.829946e+12	0.000000e+00	8.139534e-01	7.408082e+13	1.059356e+14	3.120632e+13	7.458750e+03	3.462263e+03	3.045555e+03	0	4.584344e-04
7.400000e+08	3.807268e+12	0.000000e+00	8.139534e-01	7.373877e+13	1.059110e+14	3.105793e+13	7.452195e+03	3.462134e+03	3.045441e+03	0	4.575278e-04
7.500000e+08	3.784679e+12	0.000000e+00	8.139534e-01	7.339807e+13	1.058706e+14	3.091057e+13	7.445670e+03	3.461922e+03	3.045255e+03	0	4.566211e-04
7.600000e+08	3.762182e+12	0.000000e+00	8.139534e-01	7.305877e+13	1.058151e+14	3.076423e+13	7.439175e+03	3.461631e+03	3.044998e+03	0	4.557145e-04
7.700000e+08	3.739780e+12	0.000000e+00	8.139534e-01	7.272091e+13	1.057449e+14	3.061892e+13	7.432711e+03	3.461262e+03	3.044674e+03	0	4.548082e-04
7.800000e+08	3.717476e+12	0.000000e+00	8.139534e-01	7.238453e+13	1.056608e+14	3.047461e+13	7.426276e+03	3.460821e+03	3.044285e+03	0	4.539023e-04
7.900000e+08	3.695273e+12	0.000000e+00	8.139534e-01	7.204967e+13	1.055633e+14	3.033131e+13	7.419871e+03	3.460308e+03	3.043835e+03	0	4.529968e-04
8.000000e+08	3.673172e+12	0.000000e+00	8.139534e-01	7.171637e+13	1.054531e+14	3.018900e+13	7.413495e+03	3.459728e+03	3.043324e+03	0	4.520919e-04
8.100000e+08	3.651177e+12	0.000000e+00	8.139534e-01	7.138464e+13	1.053305e+14	3.004768e+13	7.407149e+03	3.459082e+03	3.042757e+03	0	4.511877e-04
8.200000e+08	3.629289e+12	0.000000e+00	8.139534e-01	7.105453e+13	1.051962e+14	2.990733e+13	7.400832e+03	3.458375e+03	3.042134e+03	0	4.502843e-04
8.300000e+08	3.607509e+12	0.000000e+00	8.139534e-01	7.072605e+13	1.050507e+14	2.976796e+13	7.394545e+03	3.457607e+03	3.041459e+03	0	4.493818e-04
8.400000e+08	3.585841e+12	0.000000e+00	8.139534e-01	7.039924e+13	1.048944e+14	2.962955e+13	7.388286e+03	3.456782e+03	3.040733e+03	0	4.484802e-04
8.500000e+08	3.564284e+12	0.000000e+00	8.139534e-01	7.007411e+13	1.047280e+14	2.949209e+13	7.382056e+03	3.455902e+03	3.039959e+03	0	4.475797e-04
8.600000e+08	3.542842e+12	0.000000e+00	8.139534e-01	6.975068e+13	1.045518e+14	2.935558e+13	7.375855e+03	3.454969e+03	3.039138e+03	0	4.466804e-04
8.700000e+08	3.521514e+12	0.000000e+00	8.139534e-01	6.942898e+13	1.043663e+14	2.922001e+13	7.369683e+03	3.453986e+03	3.038273e+03	0	4.457823e-04
8.800000e+08	3.500303e+12	0.000000e+00	8.139534e-01	6.910902e+13	1.041718e+14	2.908537e+13	7.363539e+03	3.452954e+03	3.037365e+03	0	4.448854e-04
8.900000e+08	3.479209e+12	0.000000e+00	8.139534e-01	6.879081e+13	1.039690e+14	2.895166e+13	7.357423e+03	3.451876e+03	3.036417e+03	0	4.439899e-04
9.000000e+08	3.458233e+12	0.000000e+00	8.139534e-01	6.847437e+13	1.037582e+14	2.881886e+13	7.351336e+03	3.450753e+03	3.035430e+03	0	4.430959e-04
9.100000e+08	3.437377e+12	0.000000e+00	8.139534e-01	6.815972e+13	1.035396e+14	2.868698e+13	7.345276e+03	3.449588e+03	3.034405e+03	0	4.422033e-04
9.200000e+08	3.416640e+12	0.000000e+00	8.139534e-01	6.784685e+13	1.033139e+14	2.855600e+13	7.339244e+03	3.448382e+03	3.033344e+03	0	4.413123e-04
9.300000e+08	3.396024e+12	0.000000e+00	8.139534e-01	6.753578e+13	1.030812e+14	2.842591e+13	7.333240e+03	3.447138e+03	3.032250e+03	0	4.404229e-04
9.400000e+08	3.375529e+12	0.000000e+00	8.139534e-01	6.722652e+13	1.028420e+14	2.829672e+13	7.327263e+03	3.445856e+03	3.031122e+03	0	4.395351e-04
9.500000e+08	3.355156e+12	0.000000e+00	8.139534e-01	6.691908e+13	1.025966e+14	2.816840e+13	7.321314e+03	3.444539e+03	3.029964e+03	0	4.386491e-04
9.600000e+08	3.334905e+12	0.000000e+00	8.139534e-01	6.661346e+13	1.023454e+14	2.804097e+13	7.315392e+03	3.443188e+03	3.028775e+03	0	4.377648e-04
9.700000e+08	3.314776e+12	0.000000e+00	8.139534e-01	6.630966e+13	1.020886e+14	2.791439e+13	7.309496e+03	3.441805e+03	3.027558e+03	0	4.368822e-04
9.800000e+08	3.294770e+12	0.000000e+00	8.139534e-01	6.600770e+13	1.018266e+14	2.778868e+13	7.303628e+03	3.440390e+03	3.026314e+03	0	4.360015e-04
9.900000e+08	3.274887e+12	0.000000e+00	8.139534e-01	6.570756e+13	1.015596e+14	2.766383e+13	7.297786e+03	3.438946e+03	3.025044e+03	0	4.351227e-04
1.000000e+09	3.255128e+12	0.000000e+00	8.139534e-01	6.540926e+13	1.012879e+14	2.753982e+13	7.291971e+03	3.437474e+03	3.023749e+03	0	4.342458e-04
1.010000e+09	3.235491e+12	0.000000e+00	8.139534e-01	6.511279e+13	1.010119e+14	2.741665e+13	7.286182e+03	3.435975e+03	3.022431e+03	0	4.333708e-04
1.020000e+09	3.215977e+12	0.000000e+00	8.139534e-01	6.481815e+13	1.007317e+14	2.729432e+13	7.280420e+03	3.434451e+03	3.021089e+03	0	4.324979e-04
1.030000e+09	3.196587e+12	0.000000e+00	8.139534e-01	6.452535e+13	1.004476e+14	2.717282e+13	7.274683e+03	3.432902e+03	3.019727e+03	0	4.316269e-04
1.040000e+09	3.177319e+12	0.000000e+00	8.139534e-01	6.423438e+13	1.001599e+14	2.705213e+13	7.268972e+03	3.431330e+03	3.018344e+03	0	4.307579e-04
1.050000e+09	3.158175e+12	0.000000e+00	8.139534e-01	6.394523e+13	9.986876e+13	2.693226e+13	7.263287e+03	3.429736e+03	3.016942e+03	0	4.298910e-04
1.060000e+09	3.139153e+12	0.000000e+00	8.139534e-01	6.365792e+13	9.957444e+13	2.681320e+13	7.257628e+03	3.428120e+03	3.015521e+03	0	4.290262e-04
1.070000e+09	3.120254e+12	0.000000e+00	8.139534e-01	6.337242e+13	9.927714e+13	2.669495e+13	7.251994e+03	3.426485e+03	3.014082e+03	0	4.281635e-04
1.080000e+09	3.101477e+12	0.000000e+00	8.139534e-01	6.308875e+13	9.897705e+13	2.657748e+13	7.246385e+03	3.424831e+03	3.012627e+03	0	4.273029e-04
1.090000e+09	3.082822e+12	0.000000e+00	8.139534e-01	6.280688e+13	9.867439e+13	2.646081e+13	7.240801e+03	3.423159e+03	3.011156e+03	0	4.264445e-04
1.100000e+09	3.064289e+12	0.000000e+00	8.139534e-01	6.252683e+13	9.836935e+13	2.634492e+13	7.235242e+03	3.421469e+03	3.009670e+03	0	4.255882e-04
1.110000e+09	3.045877e+12	0.000000e+00	8.139534e-01	6.224858e+13	9.806208e+13	2.622981e+13	7.229708e+03	3.419764e+03	3.008170e+03	0	4.247341e-04
1.120000e+09	3.027586e+12	0.000000e+00	8.139534e-01	6.197213e+13	9.775278e+13	2.611547e+13	7.224199e+03	3.418043e+03	3.006656e+03	0	4.238822e-04
1.130000e+09	3.009416e+12	0.000000e+00	8.139534e-01	6.169746e+13	9.744160e+13	2.600189e+13	7.218714e+03	3.416307e+03	3.005130e+03	0	4.230325e-04
1.140000e+09	2.991365e+12	0.000000e+00	8.139534e-01	6.142458e+13	9.712873e+13	2.588908e+13	7.213253e+03	3.414558e+03	3.003591e+03	0	4.221850e-04
1.150000e+09	2.973434e+12	0.000000e+00	8.139534e-01	6.115348e+13	9.681428e+13	2.577701e+13	7.207816e+03	3.412796e+03	3.002041e+03	0	4.213397e-04
1.160000e+09	2.955622e+12	0.000000e+00	8.139534e-01	6.088414e+13	9.649840e+13	2.566570e+13	7.202404e+03	3.411021e+03	3.000480e+03	0	4.204967e-04
1.170000e+09	2.937929e+12	0.000000e+00	8.139534e-01	6.061657e+13	9.618126e+13	2.555512e+13	7.197015e+03	3.409235e+03	2.998909e+03	0	4.196560e-04
1.180000e+09	2.920353e+12	0.000000e+00	8.139534e-01	6.035075e+13	9.586297e+13	2.544528e+13	7.191649e+03	3.407438e+03	2.997328e+03	0	4.188175e-04
1.190000e+09	2.902895e+12	0.000000e+00	8.139534e-01	6.008667e+13	9.554365e+13	2.533618e+13	7.186308e+03	3.405631e+03	2.995738e+03	0	4.179812e-04
1.200000e+09	2.885554e+12	0.000000e+00	8.139534e-01	5.982433e+13	9.522344e+13	2.522779e+13	7.180989e+03	3.403814e+03	2.994140e+03	0	4.171472e-04
1.210000e+09	2.868329e+12	0.000000e+00	8.139534e-01	5.956371e+13	9.490244e+13	2.512013e+13	7.175694e+03	3.401988e+03	2.992534e+03	0	4.163155e-04
1.220000e+09	2.851220e+12	0.000000e+00	8.139534e-01	5.930481e+13	9.458079e+13	2.501317e+13	7.170422e+03	3.400154e+03	2.990920e+03	0	4.154861e-04
1.230000e+09	2.834225e+12	0.000000e+00	8.139534e-01	5.904762e+13	9.425858e+13	2.490693e+13	7.165172e+03	3.398312e+03	2.989300e+03	0	4.146590e-04
1.240000e+09	2.817345e+12	0.000000e+00	8.139534e-01	5.879213e+13	9.393588e+13	2.480139e+13	7.159946e+03	3.396462e+03	2.987673e+03	0	4.138341e-04
1.250000e+09	2.800579e+12	0.000000e+00	8.139534e-01	5.853832e+13	9.361285e+13	2.469654e+13	7.154742e+03	3.394606e+03	2.986040e+03	0	4.130116e-04
1.260000e+09	2.783925e+12	0.000000e+00	8.139534e-01	5.828619e+13	9.328953e+13	2.459239e+13	7.149560e+03	3.392743e+03	2.984401e+03	0	4.121913e-04
1.270000e+09	2.767384e+12	0.000000e+00	8.139534e-01	5.803574e+13	9.296602e+13	2.448892e+13	7.144401e+03	3.390874e+03	2.982758e+03	0	4.113733e-04
1.280000e+09	2.750955e+12	0.000000e+00	8.139534e-01	5.778693e+13	9.264243e+13	2.438613e+13	7.139264e+03	3.389000e+03	2.981109e+03	0	4.105576e-04
1.290000e+09	2.734637e+12	0.000000e+00	8.139534e-01	5.753978e+13	9.231882e+13	2.428402e+13	7.134149e+03	3.387121e+03	2.979456e+03	0	4.097442e-04
1.300000e+09	2.718428e+12	0.000000e+00	8.139534e-01	5.729427e+13	9.199526e+13	2.418258e+13	7.129055e+03	3.385237e+03	2.977799e+03	0	4.089331e-04
1.310000e+09	2.702330e+12	0.000000e+00	8.139534e-01	5.705038e+13	9.167185e+13	2.408180e+13	7.123984e+03	3.383349e+03	2.976138e+03	0	4.081243e-04
1.320000e+09	2.686340e+12	0.000000e+00	8.139534e-01	5.680810e+13	9.134863e+13	2.398169e+13	7.118934e+03	3.381457e+03	2.974474e+03	0	4.073177e-04
1.330000e+09	2.670458e+12	0.000000e+00	8.139534e-01	5.656744e+13	9.102568e+13	2.388223e+13	7.113905e+03	3.379562e+03	2.972807e+03	0	4.065134e-04
1.340000e+09	2.654684e+12	0.000000e+00	8.139534e-01	5.632836e+13	9.070307e+13	2.378341e+13	7.108898e+03	3.377663e+03	2.971137e+03	0	4.057114e-04
1.350000e+09	2.639016e+12	0.000000e+00	8.139534e-01	5.609088e+13	9.038085e+13	2.368525e+13	7.103911e+03	3.375762e+03	2.969465e+03	0	4.049117e-04
1.360000e+09	2.623455e+12	0.000000e+00	8.139534e-01	5.585496e+13	9.005908e+13	2.358772e+13	7.098946e+03	3.373859e+03	2.967790e+03	0	4.041142e-04
