#t		Qconv[W]	Ri[Rp]		R*[Rp]		Qc[W]		Qm[W]		Qr[W]		Tcmb[K]		Tl[K]		Tup[K]		RiFlag		Bs[T]
0.000000e+00	1.093136e+15	0.000000e+00	8.160920e-01	1.371798e+16	3.497622e+13	5.433519e+13	2.810070e+04	3.625841e+03	2.614518e+03	0	2.966219e-03
1.000000e+07	1.016864e+15	0.000000e+00	8.160920e-01	1.276485e+16	6.489369e+14	5.403414e+13	2.718827e+04	5.852305e+03	4.219974e+03	0	2.895562e-03
2.000000e+07	9.159571e+14	0.000000e+00	8.160920e-01	1.150524e+16	2.590019e+15	5.373533e+13	2.633676e+04	7.716319e+03	5.564076e+03	0	2.796428e-03
3.000000e+07	8.172367e+14	0.000000e+00	8.160920e-01	1.027317e+16	5.175147e+15	5.343876e+13	2.556720e+04	8.984128e+03	6.478267e+03	0	2.692121e-03
4.000000e+07	7.364413e+14	0.000000e+00	8.160920e-01	9.264584e+15	7.111242e+15	5.314440e+13	2.487848e+04	9.665328e+03	6.969465e+03	0	2.600307e-03
5.000000e+07	6.735460e+14	0.000000e+00	8.160920e-01	8.479117e+15	8.035503e+15	5.285224e+13	2.425620e+04	9.946262e+03	7.172041e+03	0	2.524068e-03
6.000000e+07	6.231220e+14	0.000000e+00	8.160920e-01	7.849122e+15	8.250832e+15	5.256225e+13	2.368581e+04	1.000853e+04	7.216943e+03	0	2.459440e-03
7.000000e+07	5.807385e+14	0.000000e+00	8.160920e-01	7.319397e+15	8.099133e+15	5.227443e+13	2.315710e+04	9.964778e+03	7.185393e+03	0	2.402364e-03
8.000000e+07	5.437890e+14	0.000000e+00	8.160920e-01	6.857462e+15	7.787797e+15	5.198874e+13	2.266349e+04	9.873215e+03	7.119368e+03	0	2.350293e-03
9.000000e+07	5.108374e+14	0.000000e+00	8.160920e-01	6.445420e+15	7.420177e+15	5.170518e+13	2.220052e+04	9.761848e+03	7.039064e+03	0	2.301827e-03
1.000000e+08	4.810566e+14	0.000000e+00	8.160920e-01	6.072962e+15	7.043658e+15	5.142373e+13	2.176492e+04	9.643834e+03	6.953966e+03	0	2.256198e-03
1.100000e+08	4.539250e+14	0.000000e+00	8.160920e-01	5.733582e+15	6.678734e+15	5.114436e+13	2.135410e+04	9.525297e+03	6.868492e+03	0	2.212958e-03
1.200000e+08	4.290782e+14	0.000000e+00	8.160920e-01	5.422737e+15	6.333557e+15	5.086707e+13	2.096588e+04	9.409050e+03	6.784669e+03	0	2.171821e-03
1.300000e+08	4.062399e+14	0.000000e+00	8.160920e-01	5.136977e+15	6.010636e+15	5.059182e+13	2.059838e+04	9.296329e+03	6.703388e+03	0	2.132584e-03
1.400000e+08	3.851875e+14	0.000000e+00	8.160920e-01	4.873526e+15	5.709990e+15	5.031862e+13	2.024997e+04	9.187613e+03	6.624995e+03	0	2.095090e-03
1.500000e+08	3.657347e+14	0.000000e+00	8.160920e-01	4.630059e+15	5.430582e+15	5.004743e+13	1.991916e+04	9.083016e+03	6.549572e+03	0	2.059210e-03
1.600000e+08	3.477220e+14	0.000000e+00	8.160920e-01	4.404584e+15	5.170947e+15	4.977825e+13	1.960464e+04	8.982475e+03	6.477074e+03	0	2.024833e-03
1.700000e+08	3.310106e+14	0.000000e+00	8.160920e-01	4.195369e+15	4.929534e+15	4.951105e+13	1.930522e+04	8.885845e+03	6.407397e+03	0	1.991862e-03
1.800000e+08	3.154787e+14	0.000000e+00	8.160920e-01	4.000894e+15	4.704834e+15	4.924583e+13	1.901982e+04	8.792949e+03	6.340411e+03	0	1.960207e-03
1.900000e+08	3.010186e+14	0.000000e+00	8.160920e-01	3.819813e+15	4.495424e+15	4.898255e+13	1.874748e+04	8.703595e+03	6.275980e+03	0	1.929788e-03
2.000000e+08	2.875348e+14	0.000000e+00	8.160920e-01	3.650934e+15	4.299996e+15	4.872122e+13	1.848730e+04	8.617596e+03	6.213968e+03	0	1.900533e-03
2.100000e+08	2.749421e+14	0.000000e+00	8.160920e-01	3.493193e+15	4.117371e+15	4.846180e+13	1.823847e+04	8.534767e+03	6.154242e+03	0	1.872373e-03
2.200000e+08	2.631642e+14	0.000000e+00	8.160920e-01	3.345638e+15	3.946470e+15	4.820429e+13	1.800025e+04	8.454937e+03	6.096678e+03	0	1.845246e-03
2.300000e+08	2.521331e+14	0.000000e+00	8.160920e-01	3.207418e+15	3.786321e+15	4.794867e+13	1.777197e+04	8.377942e+03	6.041159e+03	0	1.819094e-03
2.400000e+08	2.417873e+14	0.000000e+00	8.160920e-01	3.077767e+15	3.636052e+15	4.769493e+13	1.755301e+04	8.303630e+03	5.987573e+03	0	1.793865e-03
2.500000e+08	2.320716e+14	0.000000e+00	8.160920e-01	2.955995e+15	3.494873e+15	4.744304e+13	1.734279e+04	8.231857e+03	5.935819e+03	0	1.769508e-03
2.600000e+08	2.229362e+14	0.000000e+00	8.160920e-01	2.841479e+15	3.362066e+15	4.719300e+13	1.714078e+04	8.162490e+03	5.885801e+03	0	1.745978e-03
2.700000e+08	2.143361e+14	0.000000e+00	8.160920e-01	2.733657e+15	3.236987e+15	4.694479e+13	1.694651e+04	8.095407e+03	5.837428e+03	0	1.723232e-03
2.800000e+08	2.062304e+14	0.000000e+00	8.160920e-01	2.632020e+15	3.119043e+15	4.669838e+13	1.675953e+04	8.030489e+03	5.790617e+03	0	1.701229e-03
2.900000e+08	1.985822e+14	0.000000e+00	8.160920e-01	2.536104e+15	3.007705e+15	4.645378e+13	1.657942e+04	7.967630e+03	5.745291e+03	0	1.679933e-03
3.000000e+08	1.913577e+14	0.000000e+00	8.160920e-01	2.445489e+15	2.902489e+15	4.621096e+13	1.640580e+04	7.906727e+03	5.701375e+03	0	1.659309e-03
3.100000e+08	1.845264e+14	0.000000e+00	8.160920e-01	2.359792e+15	2.802952e+15	4.596991e+13	1.623832e+04	7.847686e+03	5.658802e+03	0	1.639324e-03
3.200000e+08	1.780602e+14	0.000000e+00	8.160920e-01	2.278665e+15	2.708691e+15	4.573061e+13	1.607664e+04	7.790419e+03	5.617508e+03	0	1.619947e-03
3.300000e+08	1.719338e+14	0.000000e+00	8.160920e-01	2.201788e+15	2.619340e+15	4.549305e+13	1.592046e+04	7.734843e+03	5.577433e+03	0	1.601151e-03
3.400000e+08	1.661236e+14	0.000000e+00	8.160920e-01	2.128868e+15	2.534561e+15	4.525722e+13	1.576949e+04	7.680878e+03	5.538520e+03	0	1.582908e-03
3.500000e+08	1.606083e+14	0.000000e+00	8.160920e-01	2.059640e+15	2.454046e+15	4.502310e+13	1.562348e+04	7.628453e+03	5.500718e+03	0	1.565193e-03
3.600000e+08	1.553684e+14	0.000000e+00	8.160920e-01	1.993857e+15	2.377512e+15	4.479067e+13	1.548216e+04	7.577499e+03	5.463976e+03	0	1.547983e-03
3.700000e+08	1.503856e+14	0.000000e+00	8.160920e-01	1.931294e+15	2.304700e+15	4.455993e+13	1.534531e+04	7.527950e+03	5.428247e+03	0	1.531254e-03
3.800000e+08	1.456436e+14	0.000000e+00	8.160920e-01	1.871744e+15	2.235370e+15	4.433086e+13	1.521271e+04	7.479747e+03	5.393489e+03	0	1.514987e-03
3.900000e+08	1.411269e+14	0.000000e+00	8.160920e-01	1.815016e+15	2.169302e+15	4.410344e+13	1.508417e+04	7.432830e+03	5.359658e+03	0	1.499162e-03
4.000000e+08	1.368215e+14	0.000000e+00	8.160920e-01	1.760933e+15	2.106293e+15	4.387767e+13	1.495948e+04	7.387148e+03	5.326717e+03	0	1.483759e-03
4.100000e+08	1.327144e+14	0.000000e+00	8.160920e-01	1.709332e+15	2.046155e+15	4.365353e+13	1.483847e+04	7.342647e+03	5.294629e+03	0	1.468761e-03
4.200000e+08	1.287935e+14	0.000000e+00	8.160920e-01	1.660065e+15	1.988713e+15	4.343100e+13	1.472097e+04	7.299281e+03	5.263358e+03	0	1.454152e-03
4.300000e+08	1.250478e+14	0.000000e+00	8.160920e-01	1.612990e+15	1.933809e+15	4.321007e+13	1.460684e+04	7.257002e+03	5.232872e+03	0	1.439916e-03
4.400000e+08	1.214668e+14	0.000000e+00	8.160920e-01	1.567979e+15	1.881294e+15	4.299073e+13	1.449590e+04	7.215770e+03	5.203140e+03	0	1.426038e-03
4.500000e+08	1.180410e+14	0.000000e+00	8.160920e-01	1.524912e+15	1.831028e+15	4.277297e+13	1.438804e+04	7.175541e+03	5.174132e+03	0	1.412504e-03
4.600000e+08	1.147616e+14	0.000000e+00	8.160920e-01	1.483679e+15	1.782884e+15	4.255677e+13	1.428311e+04	7.136278e+03	5.145821e+03	0	1.399300e-03
4.700000e+08	1.116202e+14	0.000000e+00	8.160920e-01	1.444175e+15	1.736743e+15	4.234213e+13	1.418100e+04	7.097944e+03	5.118178e+03	0	1.386414e-03
4.800000e+08	1.086092e+14	0.000000e+00	8.160920e-01	1.406305e+15	1.692492e+15	4.212902e+13	1.408158e+04	7.060503e+03	5.091181e+03	0	1.373834e-03
4.900000e+08	1.057215e+14	0.000000e+00	8.160920e-01	1.369979e+15	1.650030e+15	4.191743e+13	1.398475e+04	7.023924e+03	5.064804e+03	0	1.361548e-03
5.000000e+08	1.029502e+14	0.000000e+00	8.160920e-01	1.335113e+15	1.609260e+15	4.170736e+13	1.389039e+04	6.988173e+03	5.039025e+03	0	1.349546e-03
5.100000e+08	1.002892e+14	0.000000e+00	8.160920e-01	1.301630e+15	1.570091e+15	4.149879e+13	1.379842e+04	6.953222e+03	5.013823e+03	0	1.337817e-03
5.200000e+08	9.773274e+13	0.000000e+00	8.160920e-01	1.269456e+15	1.532439e+15	4.129171e+13	1.370874e+04	6.919042e+03	4.989177e+03	0	1.326351e-03
5.300000e+08	9.527527e+13	0.000000e+00	8.160920e-01	1.238523e+15	1.496227e+15	4.108611e+13	1.362125e+04	6.885606e+03	4.965066e+03	0	1.315140e-03
5.400000e+08	9.291174e+13	0.000000e+00	8.160920e-01	1.208768e+15	1.461379e+15	4.088197e+13	1.353588e+04	6.852888e+03	4.941474e+03	0	1.304174e-03
5.500000e+08	9.063738e+13	0.000000e+00	8.160920e-01	1.180131e+15	1.427829e+15	4.067928e+13	1.345255e+04	6.820863e+03	4.918381e+03	0	1.293444e-03
5.600000e+08	8.844770e+13	0.000000e+00	8.160920e-01	1.152556e+15	1.395509e+15	4.047803e+13	1.337117e+04	6.789508e+03	4.895772e+03	0	1.282943e-03
5.700000e+08	8.633853e+13	0.000000e+00	8.160920e-01	1.125991e+15	1.364361e+15	4.027822e+13	1.329169e+04	6.758800e+03	4.873629e+03	0	1.272663e-03
5.800000e+08	8.430591e+13	0.000000e+00	8.160920e-01	1.100386e+15	1.334327e+15	4.007982e+13	1.321402e+04	6.728718e+03	4.851938e+03	0	1.262596e-03
5.900000e+08	8.234616e+13	0.000000e+00	8.160920e-01	1.075694e+15	1.305354e+15	3.988282e+13	1.313810e+04	6.699242e+03	4.830683e+03	0	1.252736e-03
6.000000e+08	8.045578e+13	0.000000e+00	8.160920e-01	1.051873e+15	1.277391e+15	3.968722e+13	1.306387e+04	6.670351e+03	4.809851e+03	0	1.243076e-03
6.100000e+08	7.863151e+13	0.000000e+00	8.160920e-01	1.028881e+15	1.250390e+15	3.949301e+13	1.299128e+04	6.642028e+03	4.789427e+03	0	1.233609e-03
6.200000e+08	7.687026e+13	0.000000e+00	8.160920e-01	1.006680e+15	1.224309e+15	3.930017e+13	1.292026e+04	6.614254e+03	4.769400e+03	0	1.224329e-03
6.300000e+08	7.516913e+13	0.000000e+00	8.160920e-01	9.852334e+14	1.199103e+15	3.910868e+13	1.285077e+04	6.587013e+03	4.749757e+03	0	1.215230e-03
6.400000e+08	7.352538e+13	0.000000e+00	8.160920e-01	9.645067e+14	1.174734e+15	3.891855e+13	1.278274e+04	6.560287e+03	4.730486e+03	0	1.206306e-03
6.500000e+08	7.193643e+13	0.000000e+00	8.160920e-01	9.444677e+14	1.151165e+15	3.872976e+13	1.271613e+04	6.534062e+03	4.711575e+03	0	1.197553e-03
6.600000e+08	7.039984e+13	0.000000e+00	8.160920e-01	9.250859e+14	1.128359e+15	3.854230e+13	1.265090e+04	6.508321e+03	4.693014e+03	0	1.188965e-03
6.700000e+08	6.891329e+13	0.000000e+00	8.160920e-01	9.063323e+14	1.106284e+15	3.835615e+13	1.258700e+04	6.483051e+03	4.674792e+03	0	1.180537e-03
6.800000e+08	6.747462e+13	0.000000e+00	8.160920e-01	8.881797e+14	1.084907e+15	3.817131e+13	1.252439e+04	6.458237e+03	4.656900e+03	0	1.172264e-03
6.900000e+08	6.608175e+13	0.000000e+00	8.160920e-01	8.706022e+14	1.064200e+15	3.798777e+13	1.246302e+04	6.433867e+03	4.639327e+03	0	1.164141e-03
7.000000e+08	6.473274e+13	0.000000e+00	8.160920e-01	8.535753e+14	1.044133e+15	3.780552e+13	1.240286e+04	6.409928e+03	4.622065e+03	0	1.156165e-03
7.100000e+08	6.342574e+13	0.000000e+00	8.160920e-01	8.370760e+14	1.024680e+15	3.762454e+13	1.234386e+04	6.386406e+03	4.605104e+03	0	1.148331e-03
7.200000e+08	6.215899e+13	0.000000e+00	8.160920e-01	8.210822e+14	1.005816e+15	3.744483e+13	1.228600e+04	6.363291e+03	4.588436e+03	0	1.140635e-03
7.300000e+08	6.093084e+13	0.000000e+00	8.160920e-01	8.055732e+14	9.875166e+14	3.726637e+13	1.222924e+04	6.340571e+03	4.572053e+03	0	1.133072e-03
7.400000e+08	5.973971e+13	0.000000e+00	8.160920e-01	7.905292e+14	9.697584e+14	3.708916e+13	1.217354e+04	6.318235e+03	4.555947e+03	0	1.125640e-03
7.500000e+08	5.858411e+13	0.000000e+00	8.160920e-01	7.759315e+14	9.525202e+14	3.691318e+13	1.211888e+04	6.296272e+03	4.540110e+03	0	1.118335e-03
7.600000e+08	5.746260e+13	0.000000e+00	8.160920e-01	7.617622e+14	9.357809e+14	3.673843e+13	1.206522e+04	6.274673e+03	4.524535e+03	0	1.111152e-03
7.700000e+08	5.637385e+13	0.000000e+00	8.160920e-01	7.480044e+14	9.195214e+14	3.656490e+13	1.201254e+04	6.253428e+03	4.509216e+03	0	1.104090e-03
7.800000e+08	5.531657e+13	0.000000e+00	8.160920e-01	7.346420e+14	9.037230e+14	3.639257e+13	1.196080e+04	6.232526e+03	4.494144e+03	0	1.097144e-03
7.900000e+08	5.428953e+13	0.000000e+00	8.160920e-01	7.216598e+14	8.883677e+14	3.622144e+13	1.190998e+04	6.211960e+03	4.479314e+03	0	1.090311e-03
8.000000e+08	5.329158e+13	0.000000e+00	8.160920e-01	7.090431e+14	8.734388e+14	3.605149e+13	1.186005e+04	6.191720e+03	4.464720e+03	0	1.083589e-03
8.100000e+08	5.232161e+13	0.000000e+00	8.160920e-01	6.967781e+14	8.589200e+14	3.588272e+13	1.181099e+04	6.171798e+03	4.450355e+03	0	1.076975e-03
8.200000e+08	5.137857e+13	0.000000e+00	8.160920e-01	6.848516e+14	8.447962e+14	3.571512e+13	1.176277e+04	6.152186e+03	4.436213e+03	0	1.070465e-03
8.300000e+08	5.046144e+13	0.000000e+00	8.160920e-01	6.732509e+14	8.310530e+14	3.554868e+13	1.171538e+04	6.132876e+03	4.422289e+03	0	1.064057e-03
8.400000e+08	4.956927e+13	0.000000e+00	8.160920e-01	6.619641e+14	8.176761e+14	3.538339e+13	1.166878e+04	6.113860e+03	4.408577e+03	0	1.057749e-03
8.500000e+08	4.870116e+13	0.000000e+00	8.160920e-01	6.509797e+14	8.046524e+14	3.521924e+13	1.162296e+04	6.095132e+03	4.395072e+03	0	1.051538e-03
8.600000e+08	4.785621e+13	0.000000e+00	8.160920e-01	6.402867e+14	7.919690e+14	3.505622e+13	1.157789e+04	6.076683e+03	4.381769e+03	0	1.045421e-03
8.700000e+08	4.703362e+13	0.000000e+00	8.160920e-01	6.298747e+14	7.796139e+14	3.489433e+13	1.153357e+04	6.058507e+03	4.368663e+03	0	1.039397e-03
8.800000e+08	4.623256e+13	0.000000e+00	8.160920e-01	6.197338e+14	7.675753e+14	3.473355e+13	1.148996e+04	6.040598e+03	4.355749e+03	0	1.033462e-03
8.900000e+08	4.545230e+13	0.000000e+00	8.160920e-01	6.098544e+14	7.558427e+14	3.457387e+13	1.144704e+04	6.022949e+03	4.343022e+03	0	1.027615e-03
9.000000e+08	4.469210e+13	0.000000e+00	8.160920e-01	6.002273e+14	7.444052e+14	3.441528e+13	1.140481e+04	6.005554e+03	4.330479e+03	0	1.021854e-03
9.100000e+08	4.395126e+13	0.000000e+00	8.160920e-01	5.908439e+14	7.332524e+14	3.425779e+13	1.136324e+04	5.988407e+03	4.318115e+03	0	1.016176e-03
9.200000e+08	4.322912e+13	0.000000e+00	8.160920e-01	5.816958e+14	7.223749e+14	3.410137e+13	1.132232e+04	5.971502e+03	4.305925e+03	0	1.010580e-03
9.300000e+08	4.252505e+13	0.000000e+00	8.160920e-01	5.727750e+14	7.117637e+14	3.394603e+13	1.128202e+04	5.954833e+03	4.293906e+03	0	1.005063e-03
9.400000e+08	4.183843e+13	0.000000e+00	8.160920e-01	5.640739e+14	7.014094e+14	3.379174e+13	1.124235e+04	5.938396e+03	4.282053e+03	0	9.996247e-04
9.500000e+08	4.116868e+13	0.000000e+00	8.160920e-01	5.555852e+14	6.913038e+14	3.363851e+13	1.120327e+04	5.922184e+03	4.270363e+03	0	9.942620e-04
9.600000e+08	4.051524e+13	0.000000e+00	8.160920e-01	5.473017e+14	6.814384e+14	3.348632e+13	1.116477e+04	5.906193e+03	4.258832e+03	0	9.889736e-04
9.700000e+08	3.987758e+13	0.000000e+00	8.160920e-01	5.392169e+14	6.718059e+14	3.333517e+13	1.112685e+04	5.890418e+03	4.247457e+03	0	9.837577e-04
9.800000e+08	3.925518e+13	0.000000e+00	8.160920e-01	5.313243e+14	6.623984e+14	3.318505e+13	1.108949e+04	5.874854e+03	4.236234e+03	0	9.786128e-04
9.900000e+08	3.864755e+13	0.000000e+00	8.160920e-01	5.236176e+14	6.532087e+14	3.303595e+13	1.105267e+04	5.859497e+03	4.225160e+03	0	9.735372e-04
1.000000e+09	3.805421e+13	0.000000e+00	8.160920e-01	5.160909e+14	6.442301e+14	3.288786e+13	1.101638e+04	5.844341e+03	4.214232e+03	0	9.685294e-04
1.010000e+09	3.747471e+13	0.000000e+00	8.160920e-01	5.087385e+14	6.354558e+14	3.274077e+13	1.098061e+04	5.829383e+03	4.203446e+03	0	9.635879e-04
1.020000e+09	3.690862e+13	0.000000e+00	8.160920e-01	5.015550e+14	6.268797e+14	3.259468e+13	1.094534e+04	5.814617e+03	4.192799e+03	0	9.587112e-04
1.030000e+09	3.635551e+13	0.000000e+00	8.160920e-01	4.945350e+14	6.184952e+14	3.244958e+13	1.091058e+04	5.800041e+03	4.182288e+03	0	9.538981e-04
1.040000e+09	3.581499e+13	0.000000e+00	8.160920e-01	4.876736e+14	6.102970e+14	3.230546e+13	1.087629e+04	5.785651e+03	4.171911e+03	0	9.491470e-04
1.050000e+09	3.528665e+13	0.000000e+00	8.160920e-01	4.809658e+14	6.022789e+14	3.216232e+13	1.084249e+04	5.771441e+03	4.161665e+03	0	9.444567e-04
1.060000e+09	3.477015e+13	0.000000e+00	8.160920e-01	4.744070e+14	5.944358e+14	3.202014e+13	1.080914e+04	5.757409e+03	4.151547e+03	0	9.398259e-04
1.070000e+09	3.426510e+13	0.000000e+00	8.160920e-01	4.679927e+14	5.867622e+14	3.187891e+13	1.077624e+04	5.743551e+03	4.141554e+03	0	9.352533e-04
1.080000e+09	3.377118e+13	0.000000e+00	8.160920e-01	4.617185e+14	5.792534e+14	3.173864e+13	1.074379e+04	5.729862e+03	4.131684e+03	0	9.307377e-04
1.090000e+09	3.328805e+13	0.000000e+00	8.160920e-01	4.555803e+14	5.719044e+14	3.159931e+13	1.071177e+04	5.716341e+03	4.121934e+03	0	9.262780e-04
1.100000e+09	3.281539e+13	0.000000e+00	8.160920e-01	4.495741e+14	5.647103e+14	3.146092e+13	1.068018e+04	5.702983e+03	4.112302e+03	0	9.218729e-04
1.110000e+09	3.235289e+13	0.000000e+00	8.160920e-01	4.436961e+14	5.576670e+14	3.132345e+13	1.064900e+04	5.689786e+03	4.102785e+03	0	9.175215e-04
1.120000e+09	3.190026e+13	0.000000e+00	8.160920e-01	4.379424e+14	5.507699e+14	3.118691e+13	1.061823e+04	5.676745e+03	4.093382e+03	0	9.132225e-04
1.130000e+09	3.145721e+13	0.000000e+00	8.160920e-01	4.323096e+14	5.440149e+14	3.105128e+13	1.058785e+04	5.663858e+03	4.084089e+03	0	9.089750e-04
1.140000e+09	3.102347e+13	0.000000e+00	8.160920e-01	4.267942e+14	5.373980e+14	3.091655e+13	1.055786e+04	5.651122e+03	4.074906e+03	0	9.047779e-04
1.150000e+09	3.059876e+13	0.000000e+00	8.160920e-01	4.213927e+14	5.309153e+14	3.078273e+13	1.052826e+04	5.638534e+03	4.065829e+03	0	9.006302e-04
1.160000e+09	3.018285e+13	0.000000e+00	8.160920e-01	4.161022e+14	5.245630e+14	3.064979e+13	1.049902e+04	5.626091e+03	4.056857e+03	0	8.965310e-04
1.170000e+09	2.977548e+13	0.000000e+00	8.160920e-01	4.109193e+14	5.183376e+14	3.051775e+13	1.047015e+04	5.613791e+03	4.047987e+03	0	8.924792e-04
1.180000e+09	2.937641e+13	0.000000e+00	8.160920e-01	4.058412e+14	5.122354e+14	3.038658e+13	1.044164e+04	5.601630e+03	4.039218e+03	0	8.884741e-04
1.190000e+09	2.898541e+13	0.000000e+00	8.160920e-01	4.008650e+14	5.062532e+14	3.025628e+13	1.041348e+04	5.589605e+03	4.030547e+03	0	8.845146e-04
1.200000e+09	2.860226e+13	0.000000e+00	8.160920e-01	3.959878e+14	5.003879e+14	3.012685e+13	1.038567e+04	5.577716e+03	4.021974e+03	0	8.806000e-04
1.210000e+09	2.822675e+13	0.000000e+00	8.160920e-01	3.912070e+14	4.946361e+14	2.999828e+13	1.035819e+04	5.565958e+03	4.013496e+03	0	8.767293e-04
1.220000e+09	2.785867e+13	0.000000e+00	8.160920e-01	3.865201e+14	4.889948e+14	2.987056e+13	1.033104e+04	5.554330e+03	4.005111e+03	0	8.729018e-04
1.230000e+09	2.749783e+13	0.000000e+00	8.160920e-01	3.819243e+14	4.834613e+14	2.974368e+13	1.030422e+04	5.542829e+03	3.996818e+03	0	8.691165e-04
1.240000e+09	2.714402e+13	0.000000e+00	8.160920e-01	3.774175e+14	4.780325e+14	2.961764e+13	1.027771e+04	5.531452e+03	3.988614e+03	0	8.653729e-04
1.250000e+09	2.679706e+13	0.000000e+00	8.160920e-01	3.729971e+14	4.727056e+14	2.949244e+13	1.025152e+04	5.520198e+03	3.980499e+03	0	8.616700e-04
1.260000e+09	2.645678e+13	0.000000e+00	8.160920e-01	3.686610e+14	4.674783e+14	2.936806e+13	1.022563e+04	5.509065e+03	3.972471e+03	0	8.580071e-04
1.270000e+09	2.612300e+13	0.000000e+00	8.160920e-01	3.644070e+14	4.623478e+14	2.924450e+13	1.020004e+04	5.498049e+03	3.964528e+03	0	8.543836e-04
1.280000e+09	2.579554e+13	0.000000e+00	8.160920e-01	3.602329e+14	4.573117e+14	2.912175e+13	1.017474e+04	5.487150e+03	3.956669e+03	0	8.507986e-04
1.290000e+09	2.547425e+13	0.000000e+00	8.160920e-01	3.561366e+14	4.523676e+14	2.899981e+13	1.014973e+04	5.476365e+03	3.948892e+03	0	8.472515e-04
1.300000e+09	2.515897e+13	0.000000e+00	8.160920e-01	3.521163e+14	4.475131e+14	2.887867e+13	1.012501e+04	5.465692e+03	3.941196e+03	0	8.437417e-04
1.310000e+09	2.484954e+13	0.000000e+00	8.160920e-01	3.481699e+14	4.427460e+14	2.875832e+13	1.010056e+04	5.455129e+03	3.933579e+03	0	8.402684e-04
1.320000e+09	2.454582e+13	0.000000e+00	8.160920e-01	3.442957e+14	4.380642e+14	2.863876e+13	1.007639e+04	5.444674e+03	3.926040e+03	0	8.368310e-04
1.330000e+09	2.424767e+13	0.000000e+00	8.160920e-01	3.404918e+14	4.334655e+14	2.851998e+13	1.005249e+04	5.434325e+03	3.918578e+03	0	8.334289e-04
1.340000e+09	2.395495e+13	0.000000e+00	8.160920e-01	3.367564e+14	4.289478e+14	2.840198e+13	1.002885e+04	5.424081e+03	3.911192e+03	0	8.300615e-04
1.350000e+09	2.366751e+13	0.000000e+00	8.160920e-01	3.330879e+14	4.245094e+14	2.828475e+13	1.000546e+04	5.413940e+03	3.903879e+03	0	8.267282e-04
1.360000e+09	2.338524e+13	0.000000e+00	8.160920e-01	3.294847e+14	4.201480e+14	2.816829e+13	9.982333e+03	5.403900e+03	3.896639e+03	0	8.234284e-04
