#t		Qconv[W]	Ri[Rp]		R*[Rp]		Qc[W]		Qm[W]		Qr[W]		Tcmb[K]		Tl[K]		Tup[K]		RiFlag		Bs[T]
0.000000e+00	8.998579e+15	0.000000e+00	8.045977e-01	1.053992e+17	3.306234e+13	6.574894e+13	6.349053e+04	4.276257e+03	2.678562e+03	0	5.999649e-03
1.000000e+07	5.996071e+15	0.000000e+00	8.045977e-01	7.030879e+16	4.131927e+16	6.538465e+13	5.771058e+04	1.753881e+04	1.098596e+04	0	5.240307e-03
2.000000e+07	4.815515e+15	0.000000e+00	8.045977e-01	5.650328e+16	6.150229e+16	6.502307e+13	5.378215e+04	1.953158e+04	1.223419e+04	0	4.870970e-03
3.000000e+07	4.180279e+15	0.000000e+00	8.045977e-01	4.906943e+16	5.787004e+16	6.466420e+13	5.060610e+04	1.920851e+04	1.203182e+04	0	4.646610e-03
4.000000e+07	3.693216e+15	0.000000e+00	8.045977e-01	4.336788e+16	5.143544e+16	6.430801e+13	4.783800e+04	1.860203e+04	1.165194e+04	0	4.458643e-03
5.000000e+07	3.284745e+15	0.000000e+00	8.045977e-01	3.858568e+16	4.564143e+16	6.395448e+13	4.538399e+04	1.801187e+04	1.128227e+04	0	4.287805e-03
6.000000e+07	2.936097e+15	0.000000e+00	8.045977e-01	3.450337e+16	4.070089e+16	6.360358e+13	4.319430e+04	1.746851e+04	1.094192e+04	0	4.130392e-03
7.000000e+07	2.636482e+15	0.000000e+00	8.045977e-01	3.099478e+16	3.648747e+16	6.325529e+13	4.123097e+04	1.696976e+04	1.062952e+04	0	3.984827e-03
8.000000e+07	2.377651e+15	0.000000e+00	8.045977e-01	2.796342e+16	3.287160e+16	6.290960e+13	3.946278e+04	1.651057e+04	1.034189e+04	0	3.849910e-03
9.000000e+07	2.152953e+15	0.000000e+00	8.045977e-01	2.533149e+16	2.974846e+16	6.256647e+13	3.786368e+04	1.608633e+04	1.007616e+04	0	3.724597e-03
1.000000e+08	1.956964e+15	0.000000e+00	8.045977e-01	2.303555e+16	2.703494e+16	6.222589e+13	3.641181e+04	1.569314e+04	9.829868e+03	0	3.607963e-03
1.100000e+08	1.785243e+15	0.000000e+00	8.045977e-01	2.102364e+16	2.466451e+16	6.188784e+13	3.508870e+04	1.532768e+04	9.600951e+03	0	3.499185e-03
1.200000e+08	1.634132e+15	0.000000e+00	8.045977e-01	1.925298e+16	2.258339e+16	6.155229e+13	3.387872e+04	1.498710e+04	9.387621e+03	0	3.397532e-03
1.300000e+08	1.500609e+15	0.000000e+00	8.045977e-01	1.768819e+16	2.074775e+16	6.121923e+13	3.276854e+04	1.466895e+04	9.188334e+03	0	3.302354e-03
1.400000e+08	1.382161e+15	0.000000e+00	8.045977e-01	1.629989e+16	1.912167e+16	6.088864e+13	3.174676e+04	1.437106e+04	9.001746e+03	0	3.213074e-03
1.500000e+08	1.276691e+15	0.000000e+00	8.045977e-01	1.506353e+16	1.767536e+16	6.056049e+13	3.080358e+04	1.409158e+04	8.826681e+03	0	3.129175e-03
1.600000e+08	1.182443e+15	0.000000e+00	8.045977e-01	1.395857e+16	1.638402e+16	6.023476e+13	2.993055e+04	1.382883e+04	8.662099e+03	0	3.050197e-03
1.700000e+08	1.097936e+15	0.000000e+00	8.045977e-01	1.296767e+16	1.522687e+16	5.991143e+13	2.912033e+04	1.358135e+04	8.507084e+03	0	2.975730e-03
1.800000e+08	1.021918e+15	0.000000e+00	8.045977e-01	1.207618e+16	1.418646e+16	5.959049e+13	2.836655e+04	1.334784e+04	8.360821e+03	0	2.905404e-03
1.900000e+08	9.533250e+14	0.000000e+00	8.045977e-01	1.127166e+16	1.324797e+16	5.927192e+13	2.766364e+04	1.312715e+04	8.222582e+03	0	2.838887e-03
2.000000e+08	8.912505e+14	0.000000e+00	8.045977e-01	1.054349e+16	1.239887e+16	5.895569e+13	2.700671e+04	1.291823e+04	8.091720e+03	0	2.775883e-03
2.100000e+08	8.349178e+14	0.000000e+00	8.045977e-01	9.882574e+15	1.162840e+16	5.864178e+13	2.639147e+04	1.272016e+04	7.967653e+03	0	2.716121e-03
2.200000e+08	7.836592e+14	0.000000e+00	8.045977e-01	9.281102e+15	1.092734e+16	5.833018e+13	2.581413e+04	1.253210e+04	7.849858e+03	0	2.659359e-03
2.300000e+08	7.368990e+14	0.000000e+00	8.045977e-01	8.732334e+15	1.028779e+16	5.802086e+13	2.527134e+04	1.235331e+04	7.737864e+03	0	2.605376e-03
2.400000e+08	6.941387e+14	0.000000e+00	8.045977e-01	8.230433e+15	9.702882e+15	5.771381e+13	2.476010e+04	1.218309e+04	7.631245e+03	0	2.553975e-03
2.500000e+08	6.549454e+14	0.000000e+00	8.045977e-01	7.770330e+15	9.166687e+15	5.740902e+13	2.427777e+04	1.202084e+04	7.529615e+03	0	2.504972e-03
2.600000e+08	6.189418e+14	0.000000e+00	8.045977e-01	7.347608e+15	8.674022e+15	5.710645e+13	2.382197e+04	1.186600e+04	7.432625e+03	0	2.458203e-03
2.700000e+08	5.857981e+14	0.000000e+00	8.045977e-01	6.958405e+15	8.220386e+15	5.680609e+13	2.339057e+04	1.171806e+04	7.339958e+03	0	2.413518e-03
2.800000e+08	5.552252e+14	0.000000e+00	8.045977e-01	6.599335e+15	7.801815e+15	5.650793e+13	2.298168e+04	1.157655e+04	7.251322e+03	0	2.370778e-03
2.900000e+08	5.269688e+14	0.000000e+00	8.045977e-01	6.267420e+15	7.414839e+15	5.621195e+13	2.259356e+04	1.144106e+04	7.166453e+03	0	2.329858e-03
3.000000e+08	5.008046e+14	0.000000e+00	8.045977e-01	5.960035e+15	7.056393e+15	5.591812e+13	2.222468e+04	1.131120e+04	7.085109e+03	0	2.290642e-03
3.100000e+08	4.765346e+14	0.000000e+00	8.045977e-01	5.674857e+15	6.723776e+15	5.562643e+13	2.187363e+04	1.118661e+04	7.007069e+03	0	2.253025e-03
3.200000e+08	4.539829e+14	0.000000e+00	8.045977e-01	5.409829e+15	6.414588e+15	5.533686e+13	2.153913e+04	1.106697e+04	6.932128e+03	0	2.216908e-03
3.300000e+08	4.329935e+14	0.000000e+00	8.045977e-01	5.163121e+15	6.126698e+15	5.504940e+13	2.122003e+04	1.095198e+04	6.860098e+03	0	2.182202e-03
3.400000e+08	4.134271e+14	0.000000e+00	8.045977e-01	4.933102e+15	5.858216e+15	5.476403e+13	2.091529e+04	1.084136e+04	6.790809e+03	0	2.148824e-03
3.500000e+08	3.951596e+14	0.000000e+00	8.045977e-01	4.718319e+15	5.607439e+15	5.448073e+13	2.062394e+04	1.073486e+04	6.724099e+03	0	2.116697e-03
3.600000e+08	3.780798e+14	0.000000e+00	8.045977e-01	4.517468e+15	5.372868e+15	5.419948e+13	2.034510e+04	1.063224e+04	6.659823e+03	0	2.085750e-03
3.700000e+08	3.620881e+14	0.000000e+00	8.045977e-01	4.329382e+15	5.153132e+15	5.392027e+13	2.007798e+04	1.053329e+04	6.597843e+03	0	2.055919e-03
3.800000e+08	3.470949e+14	0.000000e+00	8.045977e-01	4.153011e+15	4.947018e+15	5.364308e+13	1.982184e+04	1.043781e+04	6.538034e+03	0	2.027141e-03
3.900000e+08	3.330194e+14	0.000000e+00	8.045977e-01	3.987408e+15	4.753421e+15	5.336789e+13	1.957600e+04	1.034560e+04	6.480279e+03	0	1.999360e-03
4.000000e+08	3.197889e+14	0.000000e+00	8.045977e-01	3.831722e+15	4.571357e+15	5.309469e+13	1.933984e+04	1.025650e+04	6.424469e+03	0	1.972524e-03
4.100000e+08	3.073376e+14	0.000000e+00	8.045977e-01	3.685180e+15	4.399928e+15	5.282347e+13	1.911279e+04	1.017035e+04	6.370503e+03	0	1.946584e-03
4.200000e+08	2.956059e+14	0.000000e+00	8.045977e-01	3.547084e+15	4.238324e+15	5.255419e+13	1.889431e+04	1.008699e+04	6.318286e+03	0	1.921493e-03
4.300000e+08	2.845397e+14	0.000000e+00	8.045977e-01	3.416801e+15	4.085806e+15	5.228686e+13	1.868393e+04	1.000628e+04	6.267731e+03	0	1.897210e-03
4.400000e+08	2.740899e+14	0.000000e+00	8.045977e-01	3.293753e+15	3.941709e+15	5.202144e+13	1.848119e+04	9.928089e+03	6.218756e+03	0	1.873695e-03
4.500000e+08	2.642117e+14	0.000000e+00	8.045977e-01	3.177418e+15	3.805419e+15	5.175794e+13	1.828566e+04	9.852301e+03	6.171284e+03	0	1.850910e-03
4.600000e+08	2.548644e+14	0.000000e+00	8.045977e-01	3.067315e+15	3.676384e+15	5.149633e+13	1.809696e+04	9.778798e+03	6.125243e+03	0	1.828820e-03
4.700000e+08	2.460107e+14	0.000000e+00	8.045977e-01	2.963010e+15	3.554099e+15	5.123659e+13	1.791473e+04	9.707472e+03	6.080566e+03	0	1.807393e-03
4.800000e+08	2.376166e+14	0.000000e+00	8.045977e-01	2.864101e+15	3.438094e+15	5.097872e+13	1.773862e+04	9.638224e+03	6.037190e+03	0	1.786598e-03
4.900000e+08	2.296508e+14	0.000000e+00	8.045977e-01	2.770224e+15	3.327949e+15	5.072269e+13	1.756833e+04	9.570958e+03	5.995056e+03	0	1.766406e-03
5.000000e+08	2.220847e+14	0.000000e+00	8.045977e-01	2.681043e+15	3.223274e+15	5.046849e+13	1.740356e+04	9.505585e+03	5.954108e+03	0	1.746790e-03
5.100000e+08	2.148922e+14	0.000000e+00	8.045977e-01	2.596249e+15	3.123708e+15	5.021610e+13	1.724405e+04	9.442023e+03	5.914294e+03	0	1.727725e-03
5.200000e+08	2.080488e+14	0.000000e+00	8.045977e-01	2.515559e+15	3.028926e+15	4.996552e+13	1.708952e+04	9.380192e+03	5.875565e+03	0	1.709187e-03
5.300000e+08	2.015325e+14	0.000000e+00	8.045977e-01	2.438712e+15	2.938621e+15	4.971673e+13	1.693975e+04	9.320019e+03	5.837873e+03	0	1.691153e-03
5.400000e+08	1.953227e+14	0.000000e+00	8.045977e-01	2.365466e+15	2.852514e+15	4.946971e+13	1.679451e+04	9.261433e+03	5.801176e+03	0	1.673602e-03
5.500000e+08	1.894005e+14	0.000000e+00	8.045977e-01	2.295600e+15	2.770350e+15	4.922444e+13	1.665358e+04	9.204370e+03	5.765433e+03	0	1.656513e-03
5.600000e+08	1.837482e+14	0.000000e+00	8.045977e-01	2.228908e+15	2.691885e+15	4.898092e+13	1.651678e+04	9.148765e+03	5.730603e+03	0	1.639868e-03
5.700000e+08	1.783498e+14	0.000000e+00	8.045977e-01	2.165199e+15	2.616901e+15	4.873913e+13	1.638392e+04	9.094562e+03	5.696651e+03	0	1.623649e-03
5.800000e+08	1.731902e+14	0.000000e+00	8.045977e-01	2.104298e+15	2.545194e+15	4.849905e+13	1.625482e+04	9.041703e+03	5.663542e+03	0	1.607838e-03
5.900000e+08	1.682555e+14	0.000000e+00	8.045977e-01	2.046041e+15	2.476572e+15	4.826068e+13	1.612931e+04	8.990136e+03	5.631241e+03	0	1.592420e-03
6.000000e+08	1.635327e+14	0.000000e+00	8.045977e-01	1.990276e+15	2.410859e+15	4.802399e+13	1.600725e+04	8.939812e+03	5.599719e+03	0	1.577379e-03
6.100000e+08	1.590098e+14	0.000000e+00	8.045977e-01	1.936863e+15	2.347892e+15	4.778898e+13	1.588848e+04	8.890683e+03	5.568946e+03	0	1.562701e-03
6.200000e+08	1.546757e+14	0.000000e+00	8.045977e-01	1.885670e+15	2.287518e+15	4.755563e+13	1.577287e+04	8.842703e+03	5.538892e+03	0	1.548371e-03
6.300000e+08	1.505199e+14	0.000000e+00	8.045977e-01	1.836574e+15	2.229594e+15	4.732392e+13	1.566029e+04	8.795830e+03	5.509532e+03	0	1.534378e-03
6.400000e+08	1.465327e+14	0.000000e+00	8.045977e-01	1.789462e+15	2.173988e+15	4.709385e+13	1.555062e+04	8.750025e+03	5.480840e+03	0	1.520709e-03
6.500000e+08	1.427051e+14	0.000000e+00	8.045977e-01	1.744227e+15	2.120578e+15	4.686540e+13	1.544373e+04	8.705247e+03	5.452792e+03	0	1.507351e-03
6.600000e+08	1.390286e+14	0.000000e+00	8.045977e-01	1.700771e+15	2.069245e+15	4.663856e+13	1.533953e+04	8.661460e+03	5.425365e+03	0	1.494293e-03
6.700000e+08	1.354953e+14	0.000000e+00	8.045977e-01	1.658999e+15	2.019884e+15	4.641331e+13	1.523789e+04	8.618630e+03	5.398537e+03	0	1.481526e-03
6.800000e+08	1.320979e+14	0.000000e+00	8.045977e-01	1.618826e+15	1.972391e+15	4.618965e+13	1.513874e+04	8.576723e+03	5.372288e+03	0	1.469038e-03
6.900000e+08	1.288293e+14	0.000000e+00	8.045977e-01	1.580171e+15	1.926675e+15	4.596755e+13	1.504196e+04	8.535707e+03	5.346596e+03	0	1.456820e-03
7.000000e+08	1.256831e+14	0.000000e+00	8.045977e-01	1.542956e+15	1.882644e+15	4.574701e+13	1.494748e+04	8.495553e+03	5.321444e+03	0	1.444863e-03
7.100000e+08	1.226532e+14	0.000000e+00	8.045977e-01	1.507110e+15	1.840217e+15	4.552802e+13	1.485520e+04	8.456230e+03	5.296813e+03	0	1.433158e-03
7.200000e+08	1.197340e+14	0.000000e+00	8.045977e-01	1.472566e+15	1.799314e+15	4.531055e+13	1.476505e+04	8.417712e+03	5.272686e+03	0	1.421697e-03
7.300000e+08	1.169199e+14	0.000000e+00	8.045977e-01	1.439262e+15	1.759862e+15	4.509461e+13	1.467696e+04	8.379972e+03	5.249047e+03	0	1.410470e-03
7.400000e+08	1.142061e+14	0.000000e+00	8.045977e-01	1.407137e+15	1.721793e+15	4.488017e+13	1.459083e+04	8.342986e+03	5.225879e+03	0	1.399472e-03
7.500000e+08	1.115876e+14	0.000000e+00	8.045977e-01	1.376137e+15	1.685042e+15	4.466723e+13	1.450662e+04	8.306728e+03	5.203168e+03	0	1.388694e-03
7.600000e+08	1.090602e+14	0.000000e+00	8.045977e-01	1.346208e+15	1.649546e+15	4.445577e+13	1.442425e+04	8.271177e+03	5.180899e+03	0	1.378129e-03
7.700000e+08	1.066195e+14	0.000000e+00	8.045977e-01	1.317301e+15	1.615248e+15	4.424578e+13	1.434365e+04	8.236309e+03	5.159059e+03	0	1.367771e-03
7.800000e+08	1.042616e+14	0.000000e+00	8.045977e-01	1.289370e+15	1.582095e+15	4.403726e+13	1.426477e+04	8.202104e+03	5.137634e+03	0	1.357613e-03
7.900000e+08	1.019828e+14	0.000000e+00	8.045977e-01	1.262370e+15	1.550034e+15	4.383018e+13	1.418756e+04	8.168541e+03	5.116611e+03	0	1.347649e-03
8.000000e+08	9.977943e+13	0.000000e+00	8.045977e-01	1.236260e+15	1.519018e+15	4.362453e+13	1.411194e+04	8.135601e+03	5.095978e+03	0	1.337873e-03
8.100000e+08	9.764827e+13	0.000000e+00	8.045977e-01	1.211001e+15	1.489000e+15	4.342031e+13	1.403788e+04	8.103266e+03	5.075724e+03	0	1.328279e-03
8.200000e+08	9.558613e+13	0.000000e+00	8.045977e-01	1.186555e+15	1.459937e+15	4.321751e+13	1.396533e+04	8.071518e+03	5.055837e+03	0	1.318862e-03
8.300000e+08	9.359002e+13	0.000000e+00	8.045977e-01	1.162887e+15	1.431788e+15	4.301611e+13	1.389423e+04	8.040338e+03	5.036307e+03	0	1.309617e-03
8.400000e+08	9.165712e+13	0.000000e+00	8.045977e-01	1.139965e+15	1.404515e+15	4.281609e+13	1.382453e+04	8.009712e+03	5.017123e+03	0	1.300539e-03
8.500000e+08	8.978476e+13	0.000000e+00	8.045977e-01	1.117757e+15	1.378081e+15	4.261746e+13	1.375620e+04	7.979623e+03	4.998276e+03	0	1.291622e-03
8.600000e+08	8.797040e+13	0.000000e+00	8.045977e-01	1.096232e+15	1.352450e+15	4.242020e+13	1.368919e+04	7.950056e+03	4.979756e+03	0	1.282862e-03
8.700000e+08	8.621163e+13	0.000000e+00	8.045977e-01	1.075363e+15	1.327590e+15	4.222429e+13	1.362347e+04	7.920996e+03	4.961553e+03	0	1.274255e-03
8.800000e+08	8.450618e+13	0.000000e+00	8.045977e-01	1.055123e+15	1.303469e+15	4.202974e+13	1.355899e+04	7.892429e+03	4.943659e+03	0	1.265797e-03
8.900000e+08	8.285188e+13	0.000000e+00	8.045977e-01	1.035487e+15	1.280059e+15	4.183652e+13	1.349571e+04	7.864342e+03	4.926066e+03	0	1.257483e-03
9.000000e+08	8.124669e+13	0.000000e+00	8.045977e-01	1.016430e+15	1.257330e+15	4.164462e+13	1.343360e+04	7.836721e+03	4.908765e+03	0	1.249309e-03
9.100000e+08	7.968864e+13	0.000000e+00	8.045977e-01	9.979285e+14	1.235255e+15	4.145404e+13	1.337263e+04	7.809554e+03	4.891748e+03	0	1.241271e-03
9.200000e+08	7.817588e+13	0.000000e+00	8.045977e-01	9.799619e+14	1.213810e+15	4.126477e+13	1.331276e+04	7.782829e+03	4.875008e+03	0	1.233366e-03
9.300000e+08	7.670665e+13	0.000000e+00	8.045977e-01	9.625089e+14	1.192970e+15	4.107679e+13	1.325396e+04	7.756535e+03	4.858538e+03	0	1.225591e-03
9.400000e+08	7.527927e+13	0.000000e+00	8.045977e-01	9.455499e+14	1.172711e+15	4.089010e+13	1.319620e+04	7.730659e+03	4.842330e+03	0	1.217941e-03
9.500000e+08	7.389213e+13	0.000000e+00	8.045977e-01	9.290660e+14	1.153012e+15	4.070468e+13	1.313946e+04	7.705192e+03	4.826378e+03	0	1.210414e-03
9.600000e+08	7.254372e+13	0.000000e+00	8.045977e-01	9.130393e+14	1.133852e+15	4.052052e+13	1.308370e+04	7.680122e+03	4.810675e+03	0	1.203006e-03
9.700000e+08	7.123259e+13	0.000000e+00	8.045977e-01	8.974526e+14	1.115210e+15	4.033762e+13	1.302889e+04	7.655440e+03	4.795214e+03	0	1.195714e-03
9.800000e+08	6.995735e+13	0.000000e+00	8.045977e-01	8.822898e+14	1.097068e+15	4.015596e+13	1.297501e+04	7.631135e+03	4.779990e+03	0	1.188536e-03
9.900000e+08	6.871669e+13	0.000000e+00	8.045977e-01	8.675352e+14	1.079408e+15	3.997554e+13	1.292204e+04	7.607199e+03	4.764997e+03	0	1.181468e-03
1.000000e+09	6.750933e+13	0.000000e+00	8.045977e-01	8.531741e+14	1.062212e+15	3.979634e+13	1.286995e+04	7.583622e+03	4.750229e+03	0	1.174507e-03
1.010000e+09	6.633409e+13	0.000000e+00	8.045977e-01	8.391923e+14	1.045463e+15	3.961836e+13	1.281871e+04	7.560396e+03	4.735681e+03	0	1.167652e-03
1.020000e+09	6.518981e+13	0.000000e+00	8.045977e-01	8.255762e+14	1.029146e+15	3.944158e+13	1.276832e+04	7.537512e+03	4.721346e+03	0	1.160899e-03
1.030000e+09	6.407540e+13	0.000000e+00	8.045977e-01	8.123130e+14	1.013246e+15	3.926600e+13	1.271873e+04	7.514961e+03	4.707221e+03	0	1.154246e-03
1.040000e+09	6.298980e+13	0.000000e+00	8.045977e-01	7.993903e+14	9.977483e+14	3.909161e+13	1.266993e+04	7.492736e+03	4.693300e+03	0	1.147690e-03
1.050000e+09	6.193203e+13	0.000000e+00	8.045977e-01	7.867964e+14	9.826385e+14	3.891839e+13	1.262191e+04	7.470830e+03	4.679578e+03	0	1.141229e-03
1.060000e+09	6.090110e+13	0.000000e+00	8.045977e-01	7.745198e+14	9.679036e+14	3.874635e+13	1.257464e+04	7.449234e+03	4.666051e+03	0	1.134862e-03
1.070000e+09	5.989612e+13	0.000000e+00	8.045977e-01	7.625498e+14	9.535313e+14	3.857546e+13	1.252811e+04	7.427941e+03	4.652714e+03	0	1.128584e-03
1.080000e+09	5.891620e+13	0.000000e+00	8.045977e-01	7.508761e+14	9.395091e+14	3.840572e+13	1.248228e+04	7.406946e+03	4.639562e+03	0	1.122396e-03
1.090000e+09	5.796050e+13	0.000000e+00	8.045977e-01	7.394887e+14	9.258251e+14	3.823712e+13	1.243716e+04	7.386239e+03	4.626592e+03	0	1.116294e-03
1.100000e+09	5.702821e+13	0.000000e+00	8.045977e-01	7.283781e+14	9.124691e+14	3.806966e+13	1.239272e+04	7.365816e+03	4.613800e+03	0	1.110276e-03
1.110000e+09	5.611855e+13	0.000000e+00	8.045977e-01	7.175352e+14	8.994297e+14	3.790331e+13	1.234894e+04	7.345670e+03	4.601181e+03	0	1.104341e-03
1.120000e+09	5.523080e+13	0.000000e+00	8.045977e-01	7.069513e+14	8.866967e+14	3.773809e+13	1.230581e+04	7.325794e+03	4.588731e+03	0	1.098487e-03
1.130000e+09	5.436424e+13	0.000000e+00	8.045977e-01	6.966180e+14	8.742602e+14	3.757396e+13	1.226331e+04	7.306184e+03	4.576447e+03	0	1.092712e-03
1.140000e+09	5.351818e+13	0.000000e+00	8.045977e-01	6.865273e+14	8.621110e+14	3.741094e+13	1.222143e+04	7.286832e+03	4.564325e+03	0	1.087014e-03
1.150000e+09	5.269197e+13	0.000000e+00	8.045977e-01	6.766715e+14	8.502399e+14	3.724900e+13	1.218015e+04	7.267733e+03	4.552362e+03	0	1.081391e-03
1.160000e+09	5.188499e+13	0.000000e+00	8.045977e-01	6.670431e+14	8.386386e+14	3.708814e+13	1.213947e+04	7.248882e+03	4.540555e+03	0	1.075842e-03
1.170000e+09	5.109663e+13	0.000000e+00	8.045977e-01	6.576350e+14	8.272981e+14	3.692836e+13	1.209935e+04	7.230274e+03	4.528899e+03	0	1.070365e-03
1.180000e+09	5.032630e+13	0.000000e+00	8.045977e-01	6.484405e+14	8.162107e+14	3.676964e+13	1.205981e+04	7.211903e+03	4.517392e+03	0	1.064959e-03
1.190000e+09	4.957346e+13	0.000000e+00	8.045977e-01	6.394528e+14	8.053685e+14	3.661197e+13	1.202081e+04	7.193765e+03	4.506030e+03	0	1.059622e-03
1.200000e+09	4.883757e+13	0.000000e+00	8.045977e-01	6.306658e+14	7.947646e+14	3.645535e+13	1.198235e+04	7.175854e+03	4.494811e+03	0	1.054353e-03
1.210000e+09	4.811811e+13	0.000000e+00	8.045977e-01	6.220733e+14	7.843910e+14	3.629977e+13	1.194441e+04	7.158166e+03	4.483732e+03	0	1.049149e-03
1.220000e+09	4.741459e+13	0.000000e+00	8.045977e-01	6.136695e+14	7.742417e+14	3.614522e+13	1.190699e+04	7.140696e+03	4.472789e+03	0	1.044011e-03
1.230000e+09	4.672652e+13	0.000000e+00	8.045977e-01	6.054487e+14	7.643092e+14	3.599169e+13	1.187008e+04	7.123441e+03	4.461981e+03	0	1.038936e-03
1.240000e+09	4.605346e+13	0.000000e+00	8.045977e-01	5.974056e+14	7.545880e+14	3.583918e+13	1.183365e+04	7.106395e+03	4.451303e+03	0	1.033924e-03
1.250000e+09	4.539495e+13	0.000000e+00	8.045977e-01	5.895349e+14	7.450712e+14	3.568767e+13	1.179771e+04	7.089554e+03	4.440755e+03	0	1.028972e-03
1.260000e+09	4.475058e+13	0.000000e+00	8.045977e-01	5.818316e+14	7.357535e+14	3.553716e+13	1.176224e+04	7.072914e+03	4.430332e+03	0	1.024080e-03
1.270000e+09	4.411993e+13	0.000000e+00	8.045977e-01	5.742909e+14	7.266290e+14	3.538765e+13	1.172722e+04	7.056472e+03	4.420033e+03	0	1.019247e-03
1.280000e+09	4.350261e+13	0.000000e+00	8.045977e-01	5.669081e+14	7.176919e+14	3.523912e+13	1.169267e+04	7.040223e+03	4.409855e+03	0	1.014471e-03
1.290000e+09	4.289823e+13	0.000000e+00	8.045977e-01	5.596788e+14	7.089374e+14	3.509156e+13	1.165855e+04	7.024164e+03	4.399796e+03	0	1.009751e-03
1.300000e+09	4.230644e+13	0.000000e+00	8.045977e-01	5.525984e+14	7.003598e+14	3.494497e+13	1.162487e+04	7.008291e+03	4.389853e+03	0	1.005086e-03
1.310000e+09	4.172686e+13	0.000000e+00	8.045977e-01	5.456630e+14	6.919549e+14	3.479934e+13	1.159161e+04	6.992600e+03	4.380025e+03	0	1.000475e-03
1.320000e+09	4.115918e+13	0.000000e+00	8.045977e-01	5.388685e+14	6.837175e+14	3.465467e+13	1.155876e+04	6.977088e+03	4.370309e+03	0	9.959176e-04
1.330000e+09	4.060304e+13	0.000000e+00	8.045977e-01	5.322109e+14	6.756428e+14	3.451094e+13	1.152632e+04	6.961752e+03	4.360702e+03	0	9.914117e-04
1.340000e+09	4.005814e+13	0.000000e+00	8.045977e-01	5.256865e+14	6.677270e+14	3.436816e+13	1.149429e+04	6.946588e+03	4.351204e+03	0	9.869567e-04
1.350000e+09	3.952417e+13	0.000000e+00	8.045977e-01	5.192916e+14	6.599653e+14	3.422630e+13	1.146264e+04	6.931594e+03	4.341811e+03	0	9.825517e-04
1.360000e+09	3.900083e+13	0.000000e+00	8.045977e-01	5.130229e+14	6.523537e+14	3.408537e+13	1.143138e+04	6.916765e+03	4.332523e+03	0	9.781958e-04
