#t		Qconv[W]	Ri[Rp]		R*[Rp]		Qc[W]		Qm[W]		Qr[W]		Tcmb[K]		Tl[K]		Tup[K]		RiFlag		Bs[T]
0.000000e+00	1.055983e+13	0.000000e+00	8.117647e-01	1.782149e+14	3.168056e+13	6.687440e+13	1.026515e+04	3.178427e+03	2.734497e+03	0	6.328372e-04
1.000000e+07	1.060295e+13	0.000000e+00	8.117647e-01	1.786477e+14	3.363654e+13	6.650387e+13	1.025503e+04	3.204895e+03	2.757268e+03	0	6.336974e-04
2.000000e+07	1.064375e+13	0.000000e+00	8.117647e-01	1.790540e+14	3.566564e+13	6.613610e+13	1.024488e+04	3.231121e+03	2.779831e+03	0	6.345092e-04
3.000000e+07	1.068221e+13	0.000000e+00	8.117647e-01	1.794336e+14	3.776719e+13	6.577109e+13	1.023471e+04	3.257096e+03	2.802178e+03	0	6.352726e-04
4.000000e+07	1.071831e+13	0.000000e+00	8.117647e-01	1.797861e+14	3.994022e+13	6.540880e+13	1.022452e+04	3.282805e+03	2.824297e+03	0	6.359874e-04
5.000000e+07	1.075203e+13	0.000000e+00	8.117647e-01	1.801115e+14	4.218352e+13	6.504922e+13	1.021431e+04	3.308238e+03	2.846178e+03	0	6.366536e-04
6.000000e+07	1.078334e+13	0.000000e+00	8.117647e-01	1.804094e+14	4.449561e+13	6.469231e+13	1.020408e+04	3.333383e+03	2.867811e+03	0	6.372710e-04
7.000000e+07	1.081223e+13	0.000000e+00	8.117647e-01	1.806798e+14	4.687472e+13	6.433806e+13	1.019383e+04	3.358229e+03	2.889186e+03	0	6.378396e-04
8.000000e+07	1.083869e+13	0.000000e+00	8.117647e-01	1.809224e+14	4.931882e+13	6.398645e+13	1.018357e+04	3.382763e+03	2.910293e+03	0	6.383596e-04
9.000000e+07	1.086272e+13	0.000000e+00	8.117647e-01	1.811373e+14	5.182561e+13	6.363745e+13	1.017329e+04	3.406975e+03	2.931124e+03	0	6.388309e-04
1.000000e+08	1.088430e+13	0.000000e+00	8.117647e-01	1.813243e+14	5.439254e+13	6.329104e+13	1.016301e+04	3.430855e+03	2.951668e+03	0	6.392537e-04
1.100000e+08	1.090345e+13	0.000000e+00	8.117647e-01	1.814836e+14	5.701680e+13	6.294720e+13	1.015271e+04	3.454390e+03	2.971917e+03	0	6.396283e-04
1.200000e+08	1.092015e+13	0.000000e+00	8.117647e-01	1.816150e+14	5.969532e+13	6.260591e+13	1.014240e+04	3.477573e+03	2.991861e+03	0	6.399547e-04
1.300000e+08	1.093442e+13	0.000000e+00	8.117647e-01	1.817188e+14	6.242486e+13	6.226715e+13	1.013209e+04	3.500392e+03	3.011493e+03	0	6.402334e-04
1.400000e+08	1.094627e+13	0.000000e+00	8.117647e-01	1.817949e+14	6.520187e+13	6.193090e+13	1.012176e+04	3.522839e+03	3.030805e+03	0	6.404645e-04
1.500000e+08	1.095571e+13	0.000000e+00	8.117647e-01	1.818437e+14	6.802267e+13	6.159713e+13	1.011144e+04	3.544904e+03	3.049788e+03	0	6.406485e-04
1.600000e+08	1.096275e+13	0.000000e+00	8.117647e-01	1.818653e+14	7.088335e+13	6.126583e+13	1.010111e+04	3.566579e+03	3.068436e+03	0	6.407859e-04
1.700000e+08	1.096743e+13	0.000000e+00	8.117647e-01	1.818599e+14	7.377988e+13	6.093697e+13	1.009078e+04	3.587858e+03	3.086742e+03	0	6.408769e-04
1.800000e+08	1.096976e+13	0.000000e+00	8.117647e-01	1.818278e+14	7.670803e+13	6.061053e+13	1.008045e+04	3.608731e+03	3.104700e+03	0	6.409223e-04
1.900000e+08	1.096976e+13	0.000000e+00	8.117647e-01	1.817694e+14	7.966344e+13	6.028650e+13	1.007013e+04	3.629193e+03	3.122305e+03	0	6.409224e-04
2.000000e+08	1.096748e+13	0.000000e+00	8.117647e-01	1.816849e+14	8.264174e+13	5.996486e+13	1.005980e+04	3.649238e+03	3.139549e+03	0	6.408780e-04
2.100000e+08	1.096294e+13	0.000000e+00	8.117647e-01	1.815748e+14	8.563836e+13	5.964558e+13	1.004949e+04	3.668859e+03	3.156430e+03	0	6.407896e-04
2.200000e+08	1.095618e+13	0.000000e+00	8.117647e-01	1.814395e+14	8.864871e+13	5.932864e+13	1.003917e+04	3.688052e+03	3.172943e+03	0	6.406579e-04
2.300000e+08	1.094724e+13	0.000000e+00	8.117647e-01	1.812795e+14	9.166817e+13	5.901403e+13	1.002887e+04	3.706814e+03	3.189084e+03	0	6.404835e-04
2.400000e+08	1.093616e+13	0.000000e+00	8.117647e-01	1.810952e+14	9.469212e+13	5.870173e+13	1.001857e+04	3.725139e+03	3.204850e+03	0	6.402674e-04
2.500000e+08	1.092299e+13	0.000000e+00	8.117647e-01	1.808871e+14	9.771591e+13	5.839171e+13	1.000829e+04	3.743025e+03	3.220238e+03	0	6.400101e-04
2.600000e+08	1.090776e+13	0.000000e+00	8.117647e-01	1.806558e+14	1.007350e+14	5.808397e+13	9.998014e+03	3.760470e+03	3.235246e+03	0	6.397126e-04
2.700000e+08	1.089053e+13	0.000000e+00	8.117647e-01	1.804018e+14	1.037447e+14	5.777847e+13	9.987753e+03	3.777472e+03	3.249874e+03	0	6.393755e-04
2.800000e+08	1.087134e+13	0.000000e+00	8.117647e-01	1.801257e+14	1.067407e+14	5.747520e+13	9.977507e+03	3.794030e+03	3.264119e+03	0	6.389999e-04
2.900000e+08	1.085026e+13	0.000000e+00	8.117647e-01	1.798280e+14	1.097186e+14	5.717415e+13	9.967277e+03	3.810144e+03	3.277982e+03	0	6.385865e-04
3.000000e+08	1.082733e+13	0.000000e+00	8.117647e-01	1.795094e+14	1.126740e+14	5.687529e+13	9.957064e+03	3.825813e+03	3.291462e+03	0	6.381363e-04
3.100000e+08	1.080260e+13	0.000000e+00	8.117647e-01	1.791705e+14	1.156029e+14	5.657861e+13	9.946869e+03	3.841038e+03	3.304561e+03	0	6.376501e-04
3.200000e+08	1.077613e+13	0.000000e+00	8.117647e-01	1.788120e+14	1.185013e+14	5.628409e+13	9.936692e+03	3.855821e+03	3.317279e+03	0	6.371289e-04
3.300000e+08	1.074798e+13	0.000000e+00	8.117647e-01	1.784344e+14	1.213653e+14	5.599171e+13	9.926537e+03	3.870163e+03	3.329618e+03	0	6.365736e-04
3.400000e+08	1.071819e+13	0.000000e+00	8.117647e-01	1.780385e+14	1.241913e+14	5.570145e+13	9.916402e+03	3.884066e+03	3.341580e+03	0	6.359851e-04
3.500000e+08	1.068684e+13	0.000000e+00	8.117647e-01	1.776248e+14	1.269757e+14	5.541330e+13	9.906290e+03	3.897535e+03	3.353167e+03	0	6.353644e-04
3.600000e+08	1.065398e+13	0.000000e+00	8.117647e-01	1.771940e+14	1.297154e+14	5.512724e+13	9.896202e+03	3.910572e+03	3.364383e+03	0	6.347124e-04
3.700000e+08	1.061966e+13	0.000000e+00	8.117647e-01	1.767468e+14	1.324072e+14	5.484325e+13	9.886138e+03	3.923180e+03	3.375231e+03	0	6.340301e-04
3.800000e+08	1.058394e+13	0.000000e+00	8.117647e-01	1.762839e+14	1.350483e+14	5.456132e+13	9.876099e+03	3.935366e+03	3.385714e+03	0	6.333184e-04
3.900000e+08	1.054687e+13	0.000000e+00	8.117647e-01	1.758059e+14	1.376360e+14	5.428142e+13	9.866087e+03	3.947132e+03	3.395837e+03	0	6.325783e-04
4.000000e+08	1.050853e+13	0.000000e+00	8.117647e-01	1.753134e+14	1.401679e+14	5.400354e+13	9.856102e+03	3.958485e+03	3.405604e+03	0	6.318107e-04
4.100000e+08	1.046895e+13	0.000000e+00	8.117647e-01	1.748071e+14	1.426417e+14	5.372767e+13	9.846144e+03	3.969430e+03	3.415020e+03	0	6.310166e-04
4.200000e+08	1.042820e+13	0.000000e+00	8.117647e-01	1.742876e+14	1.450555e+14	5.345379e+13	9.836216e+03	3.979972e+03	3.424091e+03	0	6.301968e-04
4.300000e+08	1.038634e+13	0.000000e+00	8.117647e-01	1.737556e+14	1.474075e+14	5.318188e+13	9.826317e+03	3.990119e+03	3.432820e+03	0	6.293524e-04
4.400000e+08	1.034341e+13	0.000000e+00	8.117647e-01	1.732117e+14	1.496960e+14	5.291192e+13	9.816448e+03	3.999876e+03	3.441214e+03	0	6.284841e-04
4.500000e+08	1.029947e+13	0.000000e+00	8.117647e-01	1.726565e+14	1.519198e+14	5.264390e+13	9.806609e+03	4.009251e+03	3.449280e+03	0	6.275929e-04
4.600000e+08	1.025458e+13	0.000000e+00	8.117647e-01	1.720906e+14	1.540777e+14	5.237781e+13	9.796803e+03	4.018249e+03	3.457021e+03	0	6.266797e-04
4.700000e+08	1.020878e+13	0.000000e+00	8.117647e-01	1.715146e+14	1.561686e+14	5.211363e+13	9.787028e+03	4.026880e+03	3.464446e+03	0	6.257453e-04
4.800000e+08	1.016212e+13	0.000000e+00	8.117647e-01	1.709290e+14	1.581920e+14	5.185134e+13	9.777286e+03	4.035149e+03	3.471560e+03	0	6.247906e-04
4.900000e+08	1.011466e+13	0.000000e+00	8.117647e-01	1.703345e+14	1.601471e+14	5.159093e+13	9.767577e+03	4.043064e+03	3.478370e+03	0	6.238164e-04
5.000000e+08	1.006644e+13	0.000000e+00	8.117647e-01	1.697315e+14	1.620336e+14	5.133238e+13	9.757902e+03	4.050633e+03	3.484882e+03	0	6.228235e-04
5.100000e+08	1.001751e+13	0.000000e+00	8.117647e-01	1.691207e+14	1.638513e+14	5.107568e+13	9.748262e+03	4.057864e+03	3.491103e+03	0	6.218127e-04
5.200000e+08	9.967912e+12	0.000000e+00	8.117647e-01	1.685025e+14	1.656002e+14	5.082081e+13	9.738655e+03	4.064765e+03	3.497040e+03	0	6.207849e-04
5.300000e+08	9.917696e+12	0.000000e+00	8.117647e-01	1.678774e+14	1.672802e+14	5.056775e+13	9.729084e+03	4.071343e+03	3.502700e+03	0	6.197406e-04
5.400000e+08	9.866901e+12	0.000000e+00	8.117647e-01	1.672460e+14	1.688918e+14	5.031650e+13	9.719549e+03	4.077607e+03	3.508088e+03	0	6.186808e-04
5.500000e+08	9.815571e+12	0.000000e+00	8.117647e-01	1.666087e+14	1.704351e+14	5.006704e+13	9.710049e+03	4.083564e+03	3.513213e+03	0	6.176061e-04
5.600000e+08	9.763744e+12	0.000000e+00	8.117647e-01	1.659659e+14	1.719109e+14	4.981935e+13	9.700585e+03	4.089222e+03	3.518081e+03	0	6.165172e-04
5.700000e+08	9.711460e+12	0.000000e+00	8.117647e-01	1.653182e+14	1.733196e+14	4.957342e+13	9.691158e+03	4.094589e+03	3.522699e+03	0	6.154147e-04
5.800000e+08	9.658756e+12	0.000000e+00	8.117647e-01	1.646659e+14	1.746619e+14	4.932924e+13	9.681767e+03	4.099674e+03	3.527073e+03	0	6.142994e-04
5.900000e+08	9.605669e+12	0.000000e+00	8.117647e-01	1.640094e+14	1.759389e+14	4.908678e+13	9.672414e+03	4.104483e+03	3.531211e+03	0	6.131719e-04
6.000000e+08	9.552234e+12	0.000000e+00	8.117647e-01	1.633492e+14	1.771513e+14	4.884604e+13	9.663097e+03	4.109026e+03	3.535119e+03	0	6.120328e-04
6.100000e+08	9.498484e+12	0.000000e+00	8.117647e-01	1.626856e+14	1.783001e+14	4.860701e+13	9.653819e+03	4.113308e+03	3.538804e+03	0	6.108827e-04
6.200000e+08	9.444452e+12	0.000000e+00	8.117647e-01	1.620191e+14	1.793865e+14	4.836966e+13	9.644577e+03	4.117340e+03	3.542272e+03	0	6.097222e-04
6.300000e+08	9.390169e+12	0.000000e+00	8.117647e-01	1.613499e+14	1.804116e+14	4.813399e+13	9.635374e+03	4.121126e+03	3.545530e+03	0	6.085517e-04
6.400000e+08	9.335664e+12	0.000000e+00	8.117647e-01	1.606783e+14	1.813765e+14	4.789998e+13	9.626208e+03	4.124677e+03	3.548584e+03	0	6.073720e-04
6.500000e+08	9.280966e+12	0.000000e+00	8.117647e-01	1.600049e+14	1.822826e+14	4.766762e+13	9.617081e+03	4.127997e+03	3.551441e+03	0	6.061835e-04
6.600000e+08	9.226102e+12	0.000000e+00	8.117647e-01	1.593297e+14	1.831310e+14	4.743690e+13	9.607992e+03	4.131096e+03	3.554107e+03	0	6.049867e-04
6.700000e+08	9.171100e+12	0.000000e+00	8.117647e-01	1.586532e+14	1.839232e+14	4.720779e+13	9.598941e+03	4.133979e+03	3.556587e+03	0	6.037820e-04
6.800000e+08	9.115983e+12	0.000000e+00	8.117647e-01	1.579756e+14	1.846605e+14	4.698030e+13	9.589928e+03	4.136654e+03	3.558889e+03	0	6.025701e-04
6.900000e+08	9.060776e+12	0.000000e+00	8.117647e-01	1.572972e+14	1.853442e+14	4.675440e+13	9.580954e+03	4.139128e+03	3.561017e+03	0	6.013512e-04
7.000000e+08	9.005501e+12	0.000000e+00	8.117647e-01	1.566182e+14	1.859758e+14	4.653009e+13	9.572019e+03	4.141407e+03	3.562978e+03	0	6.001259e-04
7.100000e+08	8.950181e+12	0.000000e+00	8.117647e-01	1.559390e+14	1.865567e+14	4.630734e+13	9.563121e+03	4.143498e+03	3.564777e+03	0	5.988945e-04
7.200000e+08	8.894836e+12	0.000000e+00	8.117647e-01	1.552596e+14	1.870883e+14	4.608616e+13	9.554263e+03	4.145407e+03	3.566419e+03	0	5.976575e-04
7.300000e+08	8.839486e+12	0.000000e+00	8.117647e-01	1.545805e+14	1.875720e+14	4.586651e+13	9.545443e+03	4.147141e+03	3.567911e+03	0	5.964152e-04
7.400000e+08	8.784149e+12	0.000000e+00	8.117647e-01	1.539017e+14	1.880092e+14	4.564841e+13	9.536661e+03	4.148705e+03	3.569257e+03	0	5.951681e-04
7.500000e+08	8.728845e+12	0.000000e+00	8.117647e-01	1.532235e+14	1.884014e+14	4.543182e+13	9.527918e+03	4.150106e+03	3.570462e+03	0	5.939164e-04
7.600000e+08	8.673589e+12	0.000000e+00	8.117647e-01	1.525460e+14	1.887500e+14	4.521674e+13	9.519213e+03	4.151349e+03	3.571532e+03	0	5.926605e-04
7.700000e+08	8.618398e+12	0.000000e+00	8.117647e-01	1.518696e+14	1.890564e+14	4.500316e+13	9.510547e+03	4.152441e+03	3.572470e+03	0	5.914008e-04
7.800000e+08	8.563287e+12	0.000000e+00	8.117647e-01	1.511942e+14	1.893219e+14	4.479106e+13	9.501919e+03	4.153385e+03	3.573283e+03	0	5.901375e-04
7.900000e+08	8.508272e+12	0.000000e+00	8.117647e-01	1.505202e+14	1.895479e+14	4.458044e+13	9.493330e+03	4.154189e+03	3.573974e+03	0	5.888710e-04
8.000000e+08	8.453364e+12	0.000000e+00	8.117647e-01	1.498476e+14	1.897359e+14	4.437127e+13	9.484779e+03	4.154856e+03	3.574549e+03	0	5.876015e-04
8.100000e+08	8.398578e+12	0.000000e+00	8.117647e-01	1.491765e+14	1.898870e+14	4.416356e+13	9.476266e+03	4.155393e+03	3.575010e+03	0	5.863294e-04
8.200000e+08	8.343926e+12	0.000000e+00	8.117647e-01	1.485073e+14	1.900027e+14	4.395728e+13	9.467790e+03	4.155803e+03	3.575363e+03	0	5.850548e-04
8.300000e+08	8.289419e+12	0.000000e+00	8.117647e-01	1.478399e+14	1.900842e+14	4.375243e+13	9.459353e+03	4.156092e+03	3.575612e+03	0	5.837780e-04
8.400000e+08	8.235069e+12	0.000000e+00	8.117647e-01	1.471745e+14	1.901328e+14	4.354900e+13	9.450954e+03	4.156265e+03	3.575760e+03	0	5.824994e-04
8.500000e+08	8.180885e+12	0.000000e+00	8.117647e-01	1.465112e+14	1.901497e+14	4.334696e+13	9.442593e+03	4.156325e+03	3.575812e+03	0	5.812190e-04
8.600000e+08	8.126878e+12	0.000000e+00	8.117647e-01	1.458501e+14	1.901361e+14	4.314633e+13	9.434269e+03	4.156276e+03	3.575770e+03	0	5.799372e-04
8.700000e+08	8.073056e+12	0.000000e+00	8.117647e-01	1.451913e+14	1.900933e+14	4.294707e+13	9.425982e+03	4.156124e+03	3.575640e+03	0	5.786541e-04
8.800000e+08	8.019429e+12	0.000000e+00	8.117647e-01	1.445350e+14	1.900223e+14	4.274918e+13	9.417733e+03	4.155873e+03	3.575423e+03	0	5.773700e-04
8.900000e+08	7.966003e+12	0.000000e+00	8.117647e-01	1.438811e+14	1.899243e+14	4.255265e+13	9.409522e+03	4.155525e+03	3.575124e+03	0	5.760850e-04
9.000000e+08	7.912788e+12	0.000000e+00	8.117647e-01	1.432299e+14	1.898003e+14	4.235747e+13	9.401347e+03	4.155085e+03	3.574746e+03	0	5.747993e-04
9.100000e+08	7.859789e+12	0.000000e+00	8.117647e-01	1.425813e+14	1.896516e+14	4.216363e+13	9.393209e+03	4.154557e+03	3.574291e+03	0	5.735131e-04
9.200000e+08	7.807013e+12	0.000000e+00	8.117647e-01	1.419355e+14	1.894790e+14	4.197112e+13	9.385108e+03	4.153944e+03	3.573764e+03	0	5.722266e-04
9.300000e+08	7.754467e+12	0.000000e+00	8.117647e-01	1.412925e+14	1.892836e+14	4.177992e+13	9.377044e+03	4.153249e+03	3.573166e+03	0	5.709399e-04
9.400000e+08	7.702157e+12	0.000000e+00	8.117647e-01	1.406524e+14	1.890664e+14	4.159003e+13	9.369016e+03	4.152477e+03	3.572501e+03	0	5.696531e-04
9.500000e+08	7.650087e+12	0.000000e+00	8.117647e-01	1.400152e+14	1.888284e+14	4.140144e+13	9.361024e+03	4.151629e+03	3.571772e+03	0	5.683665e-04
9.600000e+08	7.598262e+12	0.000000e+00	8.117647e-01	1.393810e+14	1.885704e+14	4.121413e+13	9.353069e+03	4.150709e+03	3.570980e+03	0	5.670802e-04
9.700000e+08	7.546688e+12	0.000000e+00	8.117647e-01	1.387499e+14	1.882933e+14	4.102810e+13	9.345150e+03	4.149720e+03	3.570130e+03	0	5.657942e-04
9.800000e+08	7.495368e+12	0.000000e+00	8.117647e-01	1.381218e+14	1.879980e+14	4.084333e+13	9.337266e+03	4.148665e+03	3.569222e+03	0	5.645088e-04
9.900000e+08	7.444307e+12	0.000000e+00	8.117647e-01	1.374969e+14	1.876854e+14	4.065982e+13	9.329418e+03	4.147547e+03	3.568260e+03	0	5.632240e-04
1.000000e+09	7.393507e+12	0.000000e+00	8.117647e-01	1.368752e+14	1.873562e+14	4.047755e+13	9.321606e+03	4.146368e+03	3.567246e+03	0	5.619399e-04
1.010000e+09	7.342973e+12	0.000000e+00	8.117647e-01	1.362567e+14	1.870113e+14	4.029653e+13	9.313828e+03	4.145131e+03	3.566181e+03	0	5.606567e-04
1.020000e+09	7.292707e+12	0.000000e+00	8.117647e-01	1.356414e+14	1.866513e+14	4.011672e+13	9.306086e+03	4.143838e+03	3.565069e+03	0	5.593745e-04
1.030000e+09	7.242711e+12	0.000000e+00	8.117647e-01	1.350295e+14	1.862771e+14	3.993814e+13	9.298379e+03	4.142492e+03	3.563911e+03	0	5.580933e-04
1.040000e+09	7.192989e+12	0.000000e+00	8.117647e-01	1.344208e+14	1.858892e+14	3.976076e+13	9.290706e+03	4.141095e+03	3.562709e+03	0	5.568132e-04
1.050000e+09	7.143543e+12	0.000000e+00	8.117647e-01	1.338154e+14	1.854885e+14	3.958458e+13	9.283068e+03	4.139649e+03	3.561465e+03	0	5.555344e-04
1.060000e+09	7.094374e+12	0.000000e+00	8.117647e-01	1.332134e+14	1.850755e+14	3.940959e+13	9.275465e+03	4.138157e+03	3.560181e+03	0	5.542569e-04
1.070000e+09	7.045484e+12	0.000000e+00	8.117647e-01	1.326148e+14	1.846509e+14	3.923577e+13	9.267895e+03	4.136619e+03	3.558859e+03	0	5.529807e-04
1.080000e+09	6.996875e+12	0.000000e+00	8.117647e-01	1.320195e+14	1.842153e+14	3.906313e+13	9.260360e+03	4.135040e+03	3.557500e+03	0	5.517061e-04
1.090000e+09	6.948549e+12	0.000000e+00	8.117647e-01	1.314277e+14	1.837693e+14	3.889164e+13	9.252858e+03	4.133419e+03	3.556106e+03	0	5.504329e-04
1.100000e+09	6.900506e+12	0.000000e+00	8.117647e-01	1.308392e+14	1.833133e+14	3.872131e+13	9.245390e+03	4.131760e+03	3.554678e+03	0	5.491614e-04
1.110000e+09	6.852747e+12	0.000000e+00	8.117647e-01	1.302542e+14	1.828481e+14	3.855212e+13	9.237955e+03	4.130064e+03	3.553219e+03	0	5.478916e-04
1.120000e+09	6.805273e+12	0.000000e+00	8.117647e-01	1.296726e+14	1.823741e+14	3.838407e+13	9.230553e+03	4.128332e+03	3.551729e+03	0	5.466234e-04
1.130000e+09	6.758085e+12	0.000000e+00	8.117647e-01	1.290945e+14	1.818917e+14	3.821713e+13	9.223185e+03	4.126566e+03	3.550210e+03	0	5.453571e-04
1.140000e+09	6.711184e+12	0.000000e+00	8.117647e-01	1.285198e+14	1.814016e+14	3.805132e+13	9.215849e+03	4.124769e+03	3.548663e+03	0	5.440925e-04
1.150000e+09	6.664569e+12	0.000000e+00	8.117647e-01	1.279485e+14	1.809040e+14	3.788661e+13	9.208546e+03	4.122940e+03	3.547090e+03	0	5.428299e-04
1.160000e+09	6.618240e+12	0.000000e+00	8.117647e-01	1.273807e+14	1.803996e+14	3.772300e+13	9.201275e+03	4.121082e+03	3.545492e+03	0	5.415691e-04
1.170000e+09	6.572199e+12	0.000000e+00	8.117647e-01	1.268163e+14	1.798887e+14	3.756048e+13	9.194036e+03	4.119197e+03	3.543870e+03	0	5.403104e-04
1.180000e+09	6.526445e+12	0.000000e+00	8.117647e-01	1.262553e+14	1.793717e+14	3.739904e+13	9.186830e+03	4.117285e+03	3.542225e+03	0	5.390536e-04
1.190000e+09	6.480977e+12	0.000000e+00	8.117647e-01	1.256978e+14	1.788491e+14	3.723868e+13	9.179655e+03	4.115348e+03	3.540558e+03	0	5.377989e-04
1.200000e+09	6.435795e+12	0.000000e+00	8.117647e-01	1.251438e+14	1.783211e+14	3.707937e+13	9.172512e+03	4.113386e+03	3.538871e+03	0	5.365462e-04
1.210000e+09	6.390900e+12	0.000000e+00	8.117647e-01	1.245931e+14	1.777882e+14	3.692113e+13	9.165400e+03	4.111403e+03	3.537164e+03	0	5.352957e-04
1.220000e+09	6.346290e+12	0.000000e+00	8.117647e-01	1.240459e+14	1.772508e+14	3.676393e+13	9.158320e+03	4.109397e+03	3.535439e+03	0	5.340473e-04
1.230000e+09	6.301966e+12	0.000000e+00	8.117647e-01	1.235021e+14	1.767090e+14	3.660778e+13	9.151271e+03	4.107371e+03	3.533696e+03	0	5.328010e-04
1.240000e+09	6.257925e+12	0.000000e+00	8.117647e-01	1.229617e+14	1.761633e+14	3.645265e+13	9.144252e+03	4.105326e+03	3.531936e+03	0	5.315570e-04
1.250000e+09	6.214168e+12	0.000000e+00	8.117647e-01	1.224247e+14	1.756140e+14	3.629855e+13	9.137264e+03	4.103262e+03	3.530160e+03	0	5.303152e-04
1.260000e+09	6.170694e+12	0.000000e+00	8.117647e-01	1.218911e+14	1.750614e+14	3.614547e+13	9.130307e+03	4.101181e+03	3.528370e+03	0	5.290756e-04
1.270000e+09	6.127502e+12	0.000000e+00	8.117647e-01	1.213609e+14	1.745057e+14	3.599340e+13	9.123380e+03	4.099083e+03	3.526565e+03	0	5.278383e-04
1.280000e+09	6.084591e+12	0.000000e+00	8.117647e-01	1.208340e+14	1.739472e+14	3.584232e+13	9.116483e+03	4.096970e+03	3.524747e+03	0	5.266032e-04
1.290000e+09	6.041960e+12	0.000000e+00	8.117647e-01	1.203105e+14	1.733862e+14	3.569224e+13	9.109616e+03	4.094842e+03	3.522917e+03	0	5.253705e-04
1.300000e+09	5.999608e+12	0.000000e+00	8.117647e-01	1.197904e+14	1.728229e+14	3.554314e+13	9.102779e+03	4.092700e+03	3.521074e+03	0	5.241400e-04
1.310000e+09	5.957533e+12	0.000000e+00	8.117647e-01	1.192735e+14	1.722575e+14	3.539502e+13	9.095971e+03	4.090546e+03	3.519220e+03	0	5.229119e-04
1.320000e+09	5.915735e+12	0.000000e+00	8.117647e-01	1.187600e+14	1.716904e+14	3.524787e+13	9.089192e+03	4.088379e+03	3.517356e+03	0	5.216861e-04
1.330000e+09	5.874212e+12	0.000000e+00	8.117647e-01	1.182497e+14	1.711216e+14	3.510168e+13	9.082443e+03	4.086200e+03	3.515482e+03	0	5.204627e-04
1.340000e+09	5.832964e+12	0.000000e+00	8.117647e-01	1.177427e+14	1.705515e+14	3.495645e+13	9.075723e+03	4.084011e+03	3.513598e+03	0	5.192416e-04
1.350000e+09	5.791988e+12	0.000000e+00	8.117647e-01	1.172390e+14	1.699801e+14	3.481217e+13	9.069031e+03	4.081812e+03	3.511706e+03	0	5.180229e-04
1.360000e+09	5.751283e+12	0.000000e+00	8.117647e-01	1.167386e+14	1.694078e+14	3.466882e+13	9.062368e+03	4.079603e+03	3.509806e+03	0	5.168065e-04
