#t		Qconv[W]	Ri[Rp]		R*[Rp]		Qc[W]		Qm[W]		Qr[W]		Tcmb[K]		Tl[K]		Tup[K]		RiFlag		Bs[T]
0.000000e+00	1.210187e+13	0.000000e+00	8.117647e-01	2.244827e+14	2.814810e+13	8.192668e+13	1.160604e+04	3.337075e+03	2.836280e+03	0	6.572842e-04
1.000000e+07	1.218425e+13	0.000000e+00	8.117647e-01	2.252250e+14	2.998639e+13	8.147275e+13	1.159616e+04	3.365450e+03	2.860397e+03	0	6.587722e-04
2.000000e+07	1.226407e+13	0.000000e+00	8.117647e-01	2.259414e+14	3.190562e+13	8.102221e+13	1.158625e+04	3.393662e+03	2.884375e+03	0	6.602077e-04
3.000000e+07	1.234130e+13	0.000000e+00	8.117647e-01	2.266312e+14	3.390652e+13	8.057504e+13	1.157630e+04	3.421701e+03	2.908206e+03	0	6.615905e-04
4.000000e+07	1.241586e+13	0.000000e+00	8.117647e-01	2.272940e+14	3.598960e+13	8.013120e+13	1.156633e+04	3.449555e+03	2.931881e+03	0	6.629203e-04
5.000000e+07	1.248773e+13	0.000000e+00	8.117647e-01	2.279294e+14	3.815515e+13	7.969068e+13	1.155632e+04	3.477215e+03	2.955390e+03	0	6.641968e-04
6.000000e+07	1.255684e+13	0.000000e+00	8.117647e-01	2.285368e+14	4.040325e+13	7.925344e+13	1.154629e+04	3.504669e+03	2.978724e+03	0	6.654200e-04
7.000000e+07	1.262317e+13	0.000000e+00	8.117647e-01	2.291158e+14	4.273372e+13	7.881946e+13	1.153623e+04	3.531906e+03	3.001873e+03	0	6.665895e-04
8.000000e+07	1.268666e+13	0.000000e+00	8.117647e-01	2.296662e+14	4.514618e+13	7.838870e+13	1.152615e+04	3.558916e+03	3.024829e+03	0	6.677052e-04
9.000000e+07	1.274728e+13	0.000000e+00	8.117647e-01	2.301874e+14	4.763992e+13	7.796115e+13	1.151604e+04	3.585686e+03	3.047583e+03	0	6.687671e-04
1.000000e+08	1.280500e+13	0.000000e+00	8.117647e-01	2.306791e+14	5.021405e+13	7.753677e+13	1.150590e+04	3.612207e+03	3.070123e+03	0	6.697749e-04
1.100000e+08	1.285979e+13	0.000000e+00	8.117647e-01	2.311411e+14	5.286738e+13	7.711554e+13	1.149575e+04	3.638467e+03	3.092443e+03	0	6.707287e-04
1.200000e+08	1.291160e+13	0.000000e+00	8.117647e-01	2.315731e+14	5.559844e+13	7.669743e+13	1.148558e+04	3.664456e+03	3.114532e+03	0	6.716284e-04
1.300000e+08	1.296044e+13	0.000000e+00	8.117647e-01	2.319748e+14	5.840552e+13	7.628242e+13	1.147538e+04	3.690163e+03	3.136381e+03	0	6.724741e-04
1.400000e+08	1.300626e+13	0.000000e+00	8.117647e-01	2.323460e+14	6.128663e+13	7.587048e+13	1.146517e+04	3.715578e+03	3.157981e+03	0	6.732656e-04
1.500000e+08	1.304905e+13	0.000000e+00	8.117647e-01	2.326866e+14	6.423951e+13	7.546159e+13	1.145495e+04	3.740690e+03	3.179325e+03	0	6.740033e-04
1.600000e+08	1.308881e+13	0.000000e+00	8.117647e-01	2.329965e+14	6.726168e+13	7.505571e+13	1.144471e+04	3.765489e+03	3.200402e+03	0	6.746871e-04
1.700000e+08	1.312552e+13	0.000000e+00	8.117647e-01	2.332755e+14	7.035032e+13	7.465283e+13	1.143445e+04	3.789965e+03	3.221206e+03	0	6.753172e-04
1.800000e+08	1.315917e+13	0.000000e+00	8.117647e-01	2.335237e+14	7.350246e+13	7.425292e+13	1.142418e+04	3.814110e+03	3.241727e+03	0	6.758939e-04
1.900000e+08	1.318977e+13	0.000000e+00	8.117647e-01	2.337410e+14	7.671482e+13	7.385596e+13	1.141390e+04	3.837913e+03	3.261958e+03	0	6.764173e-04
2.000000e+08	1.321731e+13	0.000000e+00	8.117647e-01	2.339274e+14	7.998395e+13	7.346192e+13	1.140362e+04	3.861366e+03	3.281891e+03	0	6.768878e-04
2.100000e+08	1.324180e+13	0.000000e+00	8.117647e-01	2.340831e+14	8.330611e+13	7.307077e+13	1.139332e+04	3.884461e+03	3.301520e+03	0	6.773057e-04
2.200000e+08	1.326326e+13	0.000000e+00	8.117647e-01	2.342081e+14	8.667742e+13	7.268250e+13	1.138302e+04	3.907189e+03	3.320837e+03	0	6.776713e-04
2.300000e+08	1.328169e+13	0.000000e+00	8.117647e-01	2.343027e+14	9.009381e+13	7.229708e+13	1.137271e+04	3.929542e+03	3.339836e+03	0	6.779851e-04
2.400000e+08	1.329712e+13	0.000000e+00	8.117647e-01	2.343669e+14	9.355104e+13	7.191448e+13	1.136240e+04	3.951514e+03	3.358511e+03	0	6.782475e-04
2.500000e+08	1.330957e+13	0.000000e+00	8.117647e-01	2.344011e+14	9.704470e+13	7.153469e+13	1.135208e+04	3.973098e+03	3.376856e+03	0	6.784591e-04
2.600000e+08	1.331906e+13	0.000000e+00	8.117647e-01	2.344054e+14	1.005702e+14	7.115767e+13	1.134176e+04	3.994287e+03	3.394865e+03	0	6.786203e-04
2.700000e+08	1.332562e+13	0.000000e+00	8.117647e-01	2.343803e+14	1.041230e+14	7.078341e+13	1.133145e+04	4.015076e+03	3.412534e+03	0	6.787316e-04
2.800000e+08	1.332928e+13	0.000000e+00	8.117647e-01	2.343260e+14	1.076984e+14	7.041189e+13	1.132113e+04	4.035459e+03	3.429858e+03	0	6.787938e-04
2.900000e+08	1.333008e+13	0.000000e+00	8.117647e-01	2.342429e+14	1.112914e+14	7.004307e+13	1.131082e+04	4.055431e+03	3.446833e+03	0	6.788075e-04
3.000000e+08	1.332807e+13	0.000000e+00	8.117647e-01	2.341314e+14	1.148973e+14	6.967695e+13	1.130051e+04	4.074989e+03	3.463455e+03	0	6.787733e-04
3.100000e+08	1.332327e+13	0.000000e+00	8.117647e-01	2.339921e+14	1.185113e+14	6.931349e+13	1.129020e+04	4.094128e+03	3.479723e+03	0	6.786919e-04
3.200000e+08	1.331575e+13	0.000000e+00	8.117647e-01	2.338252e+14	1.221283e+14	6.895268e+13	1.127990e+04	4.112845e+03	3.495631e+03	0	6.785640e-04
3.300000e+08	1.330553e+13	0.000000e+00	8.117647e-01	2.336314e+14	1.257436e+14	6.859448e+13	1.126961e+04	4.131139e+03	3.511179e+03	0	6.783905e-04
3.400000e+08	1.329269e+13	0.000000e+00	8.117647e-01	2.334111e+14	1.293523e+14	6.823890e+13	1.125933e+04	4.149006e+03	3.526365e+03	0	6.781721e-04
3.500000e+08	1.327726e+13	0.000000e+00	8.117647e-01	2.331649e+14	1.329497e+14	6.788589e+13	1.124905e+04	4.166446e+03	3.541188e+03	0	6.779097e-04
3.600000e+08	1.325931e+13	0.000000e+00	8.117647e-01	2.328934e+14	1.365310e+14	6.753544e+13	1.123879e+04	4.183456e+03	3.555645e+03	0	6.776040e-04
3.700000e+08	1.323889e+13	0.000000e+00	8.117647e-01	2.325971e+14	1.400916e+14	6.718753e+13	1.122854e+04	4.200038e+03	3.569738e+03	0	6.772560e-04
3.800000e+08	1.321606e+13	0.000000e+00	8.117647e-01	2.322767e+14	1.436271e+14	6.684213e+13	1.121830e+04	4.216190e+03	3.583467e+03	0	6.768664e-04
3.900000e+08	1.319088e+13	0.000000e+00	8.117647e-01	2.319327e+14	1.471332e+14	6.649923e+13	1.120808e+04	4.231914e+03	3.596831e+03	0	6.764363e-04
4.000000e+08	1.316341e+13	0.000000e+00	8.117647e-01	2.315658e+14	1.506055e+14	6.615881e+13	1.119787e+04	4.247210e+03	3.609832e+03	0	6.759664e-04
4.100000e+08	1.313371e+13	0.000000e+00	8.117647e-01	2.311766e+14	1.540400e+14	6.582085e+13	1.118768e+04	4.262080e+03	3.622470e+03	0	6.754577e-04
4.200000e+08	1.310186e+13	0.000000e+00	8.117647e-01	2.307658e+14	1.574328e+14	6.548532e+13	1.117750e+04	4.276526e+03	3.634749e+03	0	6.749112e-04
4.300000e+08	1.306790e+13	0.000000e+00	8.117647e-01	2.303341e+14	1.607803e+14	6.515220e+13	1.116735e+04	4.290551e+03	3.646669e+03	0	6.743277e-04
4.400000e+08	1.303192e+13	0.000000e+00	8.117647e-01	2.298820e+14	1.640788e+14	6.482149e+13	1.115721e+04	4.304158e+03	3.658233e+03	0	6.737082e-04
4.500000e+08	1.299397e+13	0.000000e+00	8.117647e-01	2.294104e+14	1.673251e+14	6.449314e+13	1.114709e+04	4.317349e+03	3.669445e+03	0	6.730536e-04
4.600000e+08	1.295413e+13	0.000000e+00	8.117647e-01	2.289198e+14	1.705160e+14	6.416716e+13	1.113699e+04	4.330130e+03	3.680307e+03	0	6.723649e-04
4.700000e+08	1.291245e+13	0.000000e+00	8.117647e-01	2.284110e+14	1.736486e+14	6.384352e+13	1.112692e+04	4.342502e+03	3.690823e+03	0	6.716430e-04
4.800000e+08	1.286900e+13	0.000000e+00	8.117647e-01	2.278845e+14	1.767203e+14	6.352219e+13	1.111686e+04	4.354472e+03	3.700997e+03	0	6.708889e-04
4.900000e+08	1.282385e+13	0.000000e+00	8.117647e-01	2.273411e+14	1.797285e+14	6.320316e+13	1.110683e+04	4.366044e+03	3.710833e+03	0	6.701034e-04
5.000000e+08	1.277707e+13	0.000000e+00	8.117647e-01	2.267815e+14	1.826709e+14	6.288642e+13	1.109683e+04	4.377224e+03	3.720334e+03	0	6.692875e-04
5.100000e+08	1.272871e+13	0.000000e+00	8.117647e-01	2.262062e+14	1.855456e+14	6.257194e+13	1.108684e+04	4.388015e+03	3.729506e+03	0	6.684422e-04
5.200000e+08	1.267886e+13	0.000000e+00	8.117647e-01	2.256161e+14	1.883506e+14	6.225970e+13	1.107689e+04	4.398426e+03	3.738354e+03	0	6.675683e-04
5.300000e+08	1.262755e+13	0.000000e+00	8.117647e-01	2.250116e+14	1.910843e+14	6.194969e+13	1.106696e+04	4.408460e+03	3.746883e+03	0	6.666667e-04
5.400000e+08	1.257487e+13	0.000000e+00	8.117647e-01	2.243935e+14	1.937454e+14	6.164189e+13	1.105705e+04	4.418124e+03	3.755097e+03	0	6.657383e-04
5.500000e+08	1.252088e+13	0.000000e+00	8.117647e-01	2.237623e+14	1.963325e+14	6.133627e+13	1.104717e+04	4.427425e+03	3.763002e+03	0	6.647840e-04
5.600000e+08	1.246562e+13	0.000000e+00	8.117647e-01	2.231188e+14	1.988448e+14	6.103283e+13	1.103733e+04	4.436369e+03	3.770604e+03	0	6.638047e-04
5.700000e+08	1.240918e+13	0.000000e+00	8.117647e-01	2.224634e+14	2.012812e+14	6.073155e+13	1.102750e+04	4.444963e+03	3.777908e+03	0	6.628012e-04
5.800000e+08	1.235159e+13	0.000000e+00	8.117647e-01	2.217969e+14	2.036414e+14	6.043240e+13	1.101771e+04	4.453214e+03	3.784921e+03	0	6.617744e-04
5.900000e+08	1.229293e+13	0.000000e+00	8.117647e-01	2.211198e+14	2.059246e+14	6.013537e+13	1.100795e+04	4.461128e+03	3.791647e+03	0	6.607250e-04
6.000000e+08	1.223324e+13	0.000000e+00	8.117647e-01	2.204326e+14	2.081308e+14	5.984045e+13	1.099822e+04	4.468713e+03	3.798094e+03	0	6.596540e-04
6.100000e+08	1.217259e+13	0.000000e+00	8.117647e-01	2.197359e+14	2.102597e+14	5.954761e+13	1.098851e+04	4.475975e+03	3.804266e+03	0	6.585620e-04
6.200000e+08	1.211102e+13	0.000000e+00	8.117647e-01	2.190304e+14	2.123115e+14	5.925684e+13	1.097884e+04	4.482922e+03	3.810170e+03	0	6.574498e-04
6.300000e+08	1.204859e+13	0.000000e+00	8.117647e-01	2.183164e+14	2.142863e+14	5.896813e+13	1.096920e+04	4.489561e+03	3.815813e+03	0	6.563182e-04
6.400000e+08	1.198536e+13	0.000000e+00	8.117647e-01	2.175945e+14	2.161843e+14	5.868145e+13	1.095959e+04	4.495899e+03	3.821200e+03	0	6.551679e-04
6.500000e+08	1.192136e+13	0.000000e+00	8.117647e-01	2.168653e+14	2.180062e+14	5.839679e+13	1.095001e+04	4.501944e+03	3.826337e+03	0	6.539997e-04
6.600000e+08	1.185665e+13	0.000000e+00	8.117647e-01	2.161292e+14	2.197523e+14	5.811413e+13	1.094046e+04	4.507702e+03	3.831231e+03	0	6.528143e-04
6.700000e+08	1.179128e+13	0.000000e+00	8.117647e-01	2.153867e+14	2.214235e+14	5.783346e+13	1.093095e+04	4.513181e+03	3.835888e+03	0	6.516123e-04
6.800000e+08	1.172528e+13	0.000000e+00	8.117647e-01	2.146382e+14	2.230205e+14	5.755476e+13	1.092147e+04	4.518388e+03	3.840314e+03	0	6.503944e-04
6.900000e+08	1.165871e+13	0.000000e+00	8.117647e-01	2.138842e+14	2.245443e+14	5.727801e+13	1.091202e+04	4.523330e+03	3.844514e+03	0	6.491612e-04
7.000000e+08	1.159161e+13	0.000000e+00	8.117647e-01	2.131252e+14	2.259958e+14	5.700321e+13	1.090261e+04	4.528015e+03	3.848496e+03	0	6.479134e-04
7.100000e+08	1.152402e+13	0.000000e+00	8.117647e-01	2.123615e+14	2.273760e+14	5.673033e+13	1.089322e+04	4.532448e+03	3.852264e+03	0	6.466515e-04
7.200000e+08	1.145597e+13	0.000000e+00	8.117647e-01	2.115935e+14	2.286862e+14	5.645936e+13	1.088388e+04	4.536638e+03	3.855825e+03	0	6.453763e-04
7.300000e+08	1.138752e+13	0.000000e+00	8.117647e-01	2.108217e+14	2.299274e+14	5.619028e+13	1.087456e+04	4.540591e+03	3.859185e+03	0	6.440882e-04
7.400000e+08	1.131868e+13	0.000000e+00	8.117647e-01	2.100464e+14	2.311009e+14	5.592308e+13	1.086528e+04	4.544314e+03	3.862350e+03	0	6.427878e-04
7.500000e+08	1.124951e+13	0.000000e+00	8.117647e-01	2.092680e+14	2.322082e+14	5.565774e+13	1.085603e+04	4.547814e+03	3.865324e+03	0	6.414756e-04
7.600000e+08	1.118002e+13	0.000000e+00	8.117647e-01	2.084867e+14	2.332504e+14	5.539425e+13	1.084682e+04	4.551097e+03	3.868114e+03	0	6.401522e-04
7.700000e+08	1.111027e+13	0.000000e+00	8.117647e-01	2.077031e+14	2.342290e+14	5.513260e+13	1.083764e+04	4.554169e+03	3.870726e+03	0	6.388181e-04
7.800000e+08	1.104027e+13	0.000000e+00	8.117647e-01	2.069173e+14	2.351455e+14	5.487276e+13	1.082850e+04	4.557038e+03	3.873164e+03	0	6.374737e-04
7.900000e+08	1.097006e+13	0.000000e+00	8.117647e-01	2.061296e+14	2.360012e+14	5.461473e+13	1.081939e+04	4.559709e+03	3.875434e+03	0	6.361195e-04
8.000000e+08	1.089968e+13	0.000000e+00	8.117647e-01	2.053405e+14	2.367975e+14	5.435849e+13	1.081032e+04	4.562188e+03	3.877541e+03	0	6.347561e-04
8.100000e+08	1.082913e+13	0.000000e+00	8.117647e-01	2.045501e+14	2.375361e+14	5.410402e+13	1.080128e+04	4.564482e+03	3.879490e+03	0	6.333837e-04
8.200000e+08	1.075846e+13	0.000000e+00	8.117647e-01	2.037588e+14	2.382184e+14	5.385131e+13	1.079227e+04	4.566596e+03	3.881287e+03	0	6.320029e-04
8.300000e+08	1.068769e+13	0.000000e+00	8.117647e-01	2.029667e+14	2.388459e+14	5.360035e+13	1.078330e+04	4.568536e+03	3.882936e+03	0	6.306141e-04
8.400000e+08	1.061685e+13	0.000000e+00	8.117647e-01	2.021742e+14	2.394200e+14	5.335113e+13	1.077437e+04	4.570308e+03	3.884443e+03	0	6.292176e-04
8.500000e+08	1.054595e+13	0.000000e+00	8.117647e-01	2.013814e+14	2.399423e+14	5.310362e+13	1.076547e+04	4.571918e+03	3.885810e+03	0	6.278138e-04
8.600000e+08	1.047502e+13	0.000000e+00	8.117647e-01	2.005887e+14	2.404143e+14	5.285782e+13	1.075660e+04	4.573370e+03	3.887045e+03	0	6.264031e-04
8.700000e+08	1.040408e+13	0.000000e+00	8.117647e-01	1.997962e+14	2.408375e+14	5.261372e+13	1.074777e+04	4.574670e+03	3.888150e+03	0	6.249859e-04
8.800000e+08	1.033316e+13	0.000000e+00	8.117647e-01	1.990041e+14	2.412132e+14	5.237129e+13	1.073898e+04	4.575823e+03	3.889130e+03	0	6.235625e-04
8.900000e+08	1.026226e+13	0.000000e+00	8.117647e-01	1.982127e+14	2.415431e+14	5.213052e+13	1.073021e+04	4.576834e+03	3.889989e+03	0	6.221332e-04
9.000000e+08	1.019142e+13	0.000000e+00	8.117647e-01	1.974220e+14	2.418285e+14	5.189141e+13	1.072149e+04	4.577708e+03	3.890732e+03	0	6.206983e-04
9.100000e+08	1.012065e+13	0.000000e+00	8.117647e-01	1.966324e+14	2.420710e+14	5.165394e+13	1.071280e+04	4.578450e+03	3.891362e+03	0	6.192582e-04
9.200000e+08	1.004996e+13	0.000000e+00	8.117647e-01	1.958439e+14	2.422717e+14	5.141810e+13	1.070414e+04	4.579064e+03	3.891884e+03	0	6.178131e-04
9.300000e+08	9.979375e+12	0.000000e+00	8.117647e-01	1.950568e+14	2.424323e+14	5.118386e+13	1.069552e+04	4.579554e+03	3.892301e+03	0	6.163633e-04
9.400000e+08	9.908907e+12	0.000000e+00	8.117647e-01	1.942712e+14	2.425540e+14	5.095123e+13	1.068693e+04	4.579926e+03	3.892617e+03	0	6.149091e-04
9.500000e+08	9.838570e+12	0.000000e+00	8.117647e-01	1.934872e+14	2.426382e+14	5.072019e+13	1.067838e+04	4.580183e+03	3.892835e+03	0	6.134507e-04
9.600000e+08	9.768380e+12	0.000000e+00	8.117647e-01	1.927049e+14	2.426861e+14	5.049072e+13	1.066986e+04	4.580329e+03	3.892960e+03	0	6.119884e-04
9.700000e+08	9.698348e+12	0.000000e+00	8.117647e-01	1.919246e+14	2.426991e+14	5.026282e+13	1.066137e+04	4.580369e+03	3.892994e+03	0	6.105224e-04
9.800000e+08	9.628488e+12	0.000000e+00	8.117647e-01	1.911463e+14	2.426785e+14	5.003646e+13	1.065292e+04	4.580306e+03	3.892940e+03	0	6.090529e-04
9.900000e+08	9.558812e+12	0.000000e+00	8.117647e-01	1.903702e+14	2.426254e+14	4.981165e+13	1.064451e+04	4.580144e+03	3.892802e+03	0	6.075802e-04
1.000000e+09	9.489330e+12	0.000000e+00	8.117647e-01	1.895963e+14	2.425411e+14	4.958836e+13	1.063613e+04	4.579887e+03	3.892584e+03	0	6.061045e-04
1.010000e+09	9.420054e+12	0.000000e+00	8.117647e-01	1.888248e+14	2.424268e+14	4.936658e+13	1.062778e+04	4.579537e+03	3.892287e+03	0	6.046260e-04
1.020000e+09	9.350992e+12	0.000000e+00	8.117647e-01	1.880557e+14	2.422835e+14	4.914631e+13	1.061947e+04	4.579100e+03	3.891915e+03	0	6.031448e-04
1.030000e+09	9.282156e+12	0.000000e+00	8.117647e-01	1.872892e+14	2.421126e+14	4.892753e+13	1.061119e+04	4.578577e+03	3.891470e+03	0	6.016611e-04
1.040000e+09	9.213553e+12	0.000000e+00	8.117647e-01	1.865254e+14	2.419149e+14	4.871022e+13	1.060294e+04	4.577972e+03	3.890957e+03	0	6.001752e-04
1.050000e+09	9.145193e+12	0.000000e+00	8.117647e-01	1.857643e+14	2.416916e+14	4.849439e+13	1.059473e+04	4.577289e+03	3.890376e+03	0	5.986872e-04
1.060000e+09	9.077082e+12	0.000000e+00	8.117647e-01	1.850060e+14	2.414437e+14	4.828001e+13	1.058655e+04	4.576529e+03	3.889730e+03	0	5.971972e-04
1.070000e+09	9.009229e+12	0.000000e+00	8.117647e-01	1.842506e+14	2.411722e+14	4.806707e+13	1.057840e+04	4.575697e+03	3.889023e+03	0	5.957054e-04
1.080000e+09	8.941640e+12	0.000000e+00	8.117647e-01	1.834982e+14	2.408782e+14	4.785557e+13	1.057029e+04	4.574795e+03	3.888256e+03	0	5.942120e-04
1.090000e+09	8.874323e+12	0.000000e+00	8.117647e-01	1.827488e+14	2.405624e+14	4.764549e+13	1.056221e+04	4.573825e+03	3.887432e+03	0	5.927170e-04
1.100000e+09	8.807282e+12	0.000000e+00	8.117647e-01	1.820025e+14	2.402259e+14	4.743681e+13	1.055417e+04	4.572790e+03	3.886552e+03	0	5.912207e-04
1.110000e+09	8.740525e+12	0.000000e+00	8.117647e-01	1.812593e+14	2.398696e+14	4.722954e+13	1.054615e+04	4.571694e+03	3.885620e+03	0	5.897231e-04
1.120000e+09	8.674055e+12	0.000000e+00	8.117647e-01	1.805193e+14	2.394942e+14	4.702366e+13	1.053817e+04	4.570537e+03	3.884637e+03	0	5.882244e-04
1.130000e+09	8.607879e+12	0.000000e+00	8.117647e-01	1.797825e+14	2.391007e+14	4.681916e+13	1.053022e+04	4.569323e+03	3.883605e+03	0	5.867247e-04
1.140000e+09	8.542001e+12	0.000000e+00	8.117647e-01	1.790490e+14	2.386898e+14	4.661602e+13	1.052231e+04	4.568054e+03	3.882527e+03	0	5.852241e-04
1.150000e+09	8.476425e+12	0.000000e+00	8.117647e-01	1.783189e+14	2.382624e+14	4.641424e+13	1.051442e+04	4.566732e+03	3.881403e+03	0	5.837227e-04
1.160000e+09	8.411155e+12	0.000000e+00	8.117647e-01	1.775921e+14	2.378192e+14	4.621380e+13	1.050657e+04	4.565359e+03	3.880236e+03	0	5.822206e-04
1.170000e+09	8.346194e+12	0.000000e+00	8.117647e-01	1.768687e+14	2.373608e+14	4.601470e+13	1.049875e+04	4.563938e+03	3.879028e+03	0	5.807178e-04
1.180000e+09	8.281547e+12	0.000000e+00	8.117647e-01	1.761488e+14	2.368881e+14	4.581692e+13	1.049096e+04	4.562470e+03	3.877780e+03	0	5.792146e-04
1.190000e+09	8.217217e+12	0.000000e+00	8.117647e-01	1.754323e+14	2.364018e+14	4.562046e+13	1.048321e+04	4.560957e+03	3.876494e+03	0	5.777109e-04
1.200000e+09	8.153205e+12	0.000000e+00	8.117647e-01	1.747193e+14	2.359023e+14	4.542531e+13	1.047548e+04	4.559401e+03	3.875172e+03	0	5.762069e-04
1.210000e+09	8.089515e+12	0.000000e+00	8.117647e-01	1.740099e+14	2.353905e+14	4.523144e+13	1.046779e+04	4.557803e+03	3.873814e+03	0	5.747026e-04
1.220000e+09	8.026149e+12	0.000000e+00	8.117647e-01	1.733039e+14	2.348670e+14	4.503887e+13	1.046013e+04	4.556167e+03	3.872423e+03	0	5.731981e-04
1.230000e+09	7.963109e+12	0.000000e+00	8.117647e-01	1.726016e+14	2.343322e+14	4.484756e+13	1.045250e+04	4.554493e+03	3.871000e+03	0	5.716935e-04
1.240000e+09	7.900398e+12	0.000000e+00	8.117647e-01	1.719028e+14	2.337869e+14	4.465752e+13	1.044490e+04	4.552782e+03	3.869547e+03	0	5.701888e-04
1.250000e+09	7.838016e+12	0.000000e+00	8.117647e-01	1.712076e+14	2.332315e+14	4.446874e+13	1.043733e+04	4.551037e+03	3.868064e+03	0	5.686840e-04
1.260000e+09	7.775965e+12	0.000000e+00	8.117647e-01	1.705160e+14	2.326666e+14	4.428120e+13	1.042979e+04	4.549259e+03	3.866552e+03	0	5.671794e-04
1.270000e+09	7.714247e+12	0.000000e+00	8.117647e-01	1.698280e+14	2.320927e+14	4.409489e+13	1.042228e+04	4.547450e+03	3.865014e+03	0	5.656748e-04
1.280000e+09	7.652862e+12	0.000000e+00	8.117647e-01	1.691437e+14	2.315103e+14	4.390981e+13	1.041480e+04	4.545610e+03	3.863450e+03	0	5.641704e-04
1.290000e+09	7.591812e+12	0.000000e+00	8.117647e-01	1.684630e+14	2.309199e+14	4.372595e+13	1.040735e+04	4.543741e+03	3.861862e+03	0	5.626662e-04
1.300000e+09	7.531097e+12	0.000000e+00	8.117647e-01	1.677859e+14	2.303218e+14	4.354329e+13	1.039993e+04	4.541844e+03	3.860250e+03	0	5.611622e-04
1.310000e+09	7.470718e+12	0.000000e+00	8.117647e-01	1.671125e+14	2.297167e+14	4.336183e+13	1.039255e+04	4.539921e+03	3.858616e+03	0	5.596585e-04
1.320000e+09	7.410675e+12	0.000000e+00	8.117647e-01	1.664427e+14	2.291047e+14	4.318156e+13	1.038519e+04	4.537973e+03	3.856960e+03	0	5.581551e-04
1.330000e+09	7.350970e+12	0.000000e+00	8.117647e-01	1.657766e+14	2.284866e+14	4.300247e+13	1.037786e+04	4.536001e+03	3.855284e+03	0	5.566521e-04
1.340000e+09	7.291601e+12	0.000000e+00	8.117647e-01	1.651141e+14	2.278626e+14	4.282455e+13	1.037056e+04	4.534006e+03	3.853588e+03	0	5.551495e-04
1.350000e+09	7.232569e+12	0.000000e+00	8.117647e-01	1.644553e+14	2.272329e+14	4.264779e+13	1.036329e+04	4.531990e+03	3.851874e+03	0	5.536473e-04
1.360000e+09	7.173873e+12	0.000000e+00	8.117647e-01	1.638001e+14	2.265982e+14	4.247218e+13	1.035604e+04	4.529952e+03	3.850143e+03	0	5.521455e-04
