#t		Qconv[W]	Ri[Rp]		R*[Rp]		Qc[W]		Qm[W]		Qr[W]		Tcmb[K]		Tl[K]		Tup[K]		RiFlag		Bs[T]
0.000000e+00	1.564653e+13	0.000000e+00	8.095238e-01	2.872050e+14	2.492786e+13	8.931780e+13	1.281098e+04	3.432342e+03	2.896617e+03	0	7.183093e-04
1.000000e+07	1.577143e+13	0.000000e+00	8.095238e-01	2.882973e+14	2.682401e+13	8.882292e+13	1.279948e+04	3.465473e+03	2.924576e+03	0	7.202156e-04
2.000000e+07	1.589309e+13	0.000000e+00	8.095238e-01	2.893575e+14	2.882335e+13	8.833173e+13	1.278793e+04	3.498476e+03	2.952428e+03	0	7.220628e-04
3.000000e+07	1.601141e+13	0.000000e+00	8.095238e-01	2.903849e+14	3.092818e+13	8.784422e+13	1.277635e+04	3.531339e+03	2.980162e+03	0	7.238502e-04
4.000000e+07	1.612631e+13	0.000000e+00	8.095238e-01	2.913785e+14	3.314057e+13	8.736034e+13	1.276472e+04	3.564049e+03	3.007767e+03	0	7.255775e-04
5.000000e+07	1.623769e+13	0.000000e+00	8.095238e-01	2.923376e+14	3.546237e+13	8.688008e+13	1.275305e+04	3.596593e+03	3.035231e+03	0	7.272441e-04
6.000000e+07	1.634547e+13	0.000000e+00	8.095238e-01	2.932613e+14	3.789514e+13	8.640339e+13	1.274134e+04	3.628958e+03	3.062544e+03	0	7.288497e-04
7.000000e+07	1.644957e+13	0.000000e+00	8.095238e-01	2.941489e+14	4.044019e+13	8.593026e+13	1.272960e+04	3.661130e+03	3.089695e+03	0	7.303937e-04
8.000000e+07	1.654992e+13	0.000000e+00	8.095238e-01	2.949996e+14	4.309851e+13	8.546064e+13	1.271782e+04	3.693095e+03	3.116671e+03	0	7.318759e-04
9.000000e+07	1.664643e+13	0.000000e+00	8.095238e-01	2.958127e+14	4.587076e+13	8.499452e+13	1.270601e+04	3.724840e+03	3.143461e+03	0	7.332958e-04
1.000000e+08	1.673904e+13	0.000000e+00	8.095238e-01	2.965875e+14	4.875729e+13	8.453185e+13	1.269416e+04	3.756350e+03	3.170053e+03	0	7.346531e-04
1.100000e+08	1.682767e+13	0.000000e+00	8.095238e-01	2.973233e+14	5.175809e+13	8.407262e+13	1.268229e+04	3.787612e+03	3.196436e+03	0	7.359475e-04
1.200000e+08	1.691227e+13	0.000000e+00	8.095238e-01	2.980197e+14	5.487275e+13	8.361679e+13	1.267038e+04	3.818611e+03	3.222596e+03	0	7.371787e-04
1.300000e+08	1.699277e+13	0.000000e+00	8.095238e-01	2.986759e+14	5.810050e+13	8.316434e+13	1.265845e+04	3.849332e+03	3.248523e+03	0	7.383465e-04
1.400000e+08	1.706912e+13	0.000000e+00	8.095238e-01	2.992915e+14	6.144019e+13	8.271524e+13	1.264649e+04	3.879763e+03	3.274204e+03	0	7.394506e-04
1.500000e+08	1.714126e+13	0.000000e+00	8.095238e-01	2.998660e+14	6.489022e+13	8.226945e+13	1.263450e+04	3.909889e+03	3.299628e+03	0	7.404910e-04
1.600000e+08	1.720917e+13	0.000000e+00	8.095238e-01	3.003991e+14	6.844863e+13	8.182696e+13	1.262250e+04	3.939696e+03	3.324782e+03	0	7.414675e-04
1.700000e+08	1.727278e+13	0.000000e+00	8.095238e-01	3.008903e+14	7.211304e+13	8.138774e+13	1.261047e+04	3.969170e+03	3.349656e+03	0	7.423800e-04
1.800000e+08	1.733209e+13	0.000000e+00	8.095238e-01	3.013394e+14	7.588062e+13	8.095175e+13	1.259842e+04	3.998297e+03	3.374237e+03	0	7.432286e-04
1.900000e+08	1.738704e+13	0.000000e+00	8.095238e-01	3.017460e+14	7.974817e+13	8.051897e+13	1.258635e+04	4.027066e+03	3.398515e+03	0	7.440133e-04
2.000000e+08	1.743763e+13	0.000000e+00	8.095238e-01	3.021101e+14	8.371210e+13	8.008938e+13	1.257427e+04	4.055461e+03	3.422479e+03	0	7.447343e-04
2.100000e+08	1.748385e+13	0.000000e+00	8.095238e-01	3.024314e+14	8.776838e+13	7.966295e+13	1.256218e+04	4.083471e+03	3.446117e+03	0	7.453916e-04
2.200000e+08	1.752567e+13	0.000000e+00	8.095238e-01	3.027100e+14	9.191263e+13	7.923965e+13	1.255007e+04	4.111084e+03	3.469420e+03	0	7.459855e-04
2.300000e+08	1.756310e+13	0.000000e+00	8.095238e-01	3.029458e+14	9.614009e+13	7.881945e+13	1.253794e+04	4.138288e+03	3.492377e+03	0	7.465162e-04
2.400000e+08	1.759615e+13	0.000000e+00	8.095238e-01	3.031389e+14	1.004457e+14	7.840234e+13	1.252581e+04	4.165070e+03	3.514980e+03	0	7.469841e-04
2.500000e+08	1.762482e+13	0.000000e+00	8.095238e-01	3.032894e+14	1.048239e+14	7.798828e+13	1.251368e+04	4.191422e+03	3.537218e+03	0	7.473896e-04
2.600000e+08	1.764913e+13	0.000000e+00	8.095238e-01	3.033974e+14	1.092691e+14	7.757725e+13	1.250153e+04	4.217331e+03	3.559083e+03	0	7.477330e-04
2.700000e+08	1.766910e+13	0.000000e+00	8.095238e-01	3.034633e+14	1.137753e+14	7.716923e+13	1.248938e+04	4.242788e+03	3.580567e+03	0	7.480150e-04
2.800000e+08	1.768477e+13	0.000000e+00	8.095238e-01	3.034873e+14	1.183361e+14	7.676419e+13	1.247723e+04	4.267785e+03	3.601663e+03	0	7.482360e-04
2.900000e+08	1.769616e+13	0.000000e+00	8.095238e-01	3.034698e+14	1.229450e+14	7.636210e+13	1.246508e+04	4.292312e+03	3.622362e+03	0	7.483967e-04
3.000000e+08	1.770333e+13	0.000000e+00	8.095238e-01	3.034112e+14	1.275955e+14	7.596295e+13	1.245293e+04	4.316362e+03	3.642658e+03	0	7.484977e-04
3.100000e+08	1.770631e+13	0.000000e+00	8.095238e-01	3.033120e+14	1.322805e+14	7.556670e+13	1.244078e+04	4.339927e+03	3.662545e+03	0	7.485397e-04
3.200000e+08	1.770516e+13	0.000000e+00	8.095238e-01	3.031726e+14	1.369933e+14	7.517333e+13	1.242864e+04	4.363002e+03	3.682018e+03	0	7.485235e-04
3.300000e+08	1.769993e+13	0.000000e+00	8.095238e-01	3.029938e+14	1.417267e+14	7.478283e+13	1.241650e+04	4.385579e+03	3.701071e+03	0	7.484498e-04
3.400000e+08	1.769070e+13	0.000000e+00	8.095238e-01	3.027761e+14	1.464737e+14	7.439516e+13	1.240436e+04	4.407655e+03	3.719701e+03	0	7.483197e-04
3.500000e+08	1.767752e+13	0.000000e+00	8.095238e-01	3.025201e+14	1.512271e+14	7.401030e+13	1.239224e+04	4.429224e+03	3.737904e+03	0	7.481338e-04
3.600000e+08	1.766047e+13	0.000000e+00	8.095238e-01	3.022266e+14	1.559797e+14	7.362824e+13	1.238013e+04	4.450283e+03	3.755676e+03	0	7.478932e-04
3.700000e+08	1.763963e+13	0.000000e+00	8.095238e-01	3.018964e+14	1.607247e+14	7.324894e+13	1.236803e+04	4.470830e+03	3.773016e+03	0	7.475989e-04
3.800000e+08	1.761507e+13	0.000000e+00	8.095238e-01	3.015302e+14	1.654548e+14	7.287238e+13	1.235594e+04	4.490862e+03	3.789921e+03	0	7.472518e-04
3.900000e+08	1.758688e+13	0.000000e+00	8.095238e-01	3.011289e+14	1.701634e+14	7.249855e+13	1.234386e+04	4.510377e+03	3.806390e+03	0	7.468529e-04
4.000000e+08	1.755514e+13	0.000000e+00	8.095238e-01	3.006933e+14	1.748437e+14	7.212742e+13	1.233181e+04	4.529375e+03	3.822423e+03	0	7.464034e-04
4.100000e+08	1.751995e+13	0.000000e+00	8.095238e-01	3.002244e+14	1.794890e+14	7.175896e+13	1.231977e+04	4.547856e+03	3.838020e+03	0	7.459043e-04
4.200000e+08	1.748139e+13	0.000000e+00	8.095238e-01	2.997229e+14	1.840931e+14	7.139316e+13	1.230774e+04	4.565821e+03	3.853181e+03	0	7.453567e-04
4.300000e+08	1.743957e+13	0.000000e+00	8.095238e-01	2.991899e+14	1.886498e+14	7.103000e+13	1.229574e+04	4.583271e+03	3.867907e+03	0	7.447618e-04
4.400000e+08	1.739457e+13	0.000000e+00	8.095238e-01	2.986262e+14	1.931533e+14	7.066944e+13	1.228376e+04	4.600208e+03	3.882201e+03	0	7.441207e-04
4.500000e+08	1.734649e+13	0.000000e+00	8.095238e-01	2.980329e+14	1.975979e+14	7.031148e+13	1.227181e+04	4.616635e+03	3.896063e+03	0	7.434345e-04
4.600000e+08	1.729544e+13	0.000000e+00	8.095238e-01	2.974110e+14	2.019782e+14	6.995609e+13	1.225987e+04	4.632554e+03	3.909498e+03	0	7.427045e-04
4.700000e+08	1.724151e+13	0.000000e+00	8.095238e-01	2.967613e+14	2.062893e+14	6.960324e+13	1.224796e+04	4.647971e+03	3.922508e+03	0	7.419317e-04
4.800000e+08	1.718480e+13	0.000000e+00	8.095238e-01	2.960849e+14	2.105263e+14	6.925293e+13	1.223608e+04	4.662888e+03	3.935097e+03	0	7.411173e-04
4.900000e+08	1.712541e+13	0.000000e+00	8.095238e-01	2.953828e+14	2.146848e+14	6.890512e+13	1.222422e+04	4.677312e+03	3.947270e+03	0	7.402627e-04
5.000000e+08	1.706345e+13	0.000000e+00	8.095238e-01	2.946560e+14	2.187609e+14	6.855980e+13	1.221240e+04	4.691247e+03	3.959030e+03	0	7.393688e-04
5.100000e+08	1.699901e+13	0.000000e+00	8.095238e-01	2.939053e+14	2.227505e+14	6.821695e+13	1.220060e+04	4.704700e+03	3.970383e+03	0	7.384369e-04
5.200000e+08	1.693219e+13	0.000000e+00	8.095238e-01	2.931320e+14	2.266503e+14	6.787654e+13	1.218883e+04	4.717676e+03	3.981334e+03	0	7.374681e-04
5.300000e+08	1.686310e+13	0.000000e+00	8.095238e-01	2.923368e+14	2.304573e+14	6.753856e+13	1.217709e+04	4.730183e+03	3.991889e+03	0	7.364636e-04
5.400000e+08	1.679183e+13	0.000000e+00	8.095238e-01	2.915208e+14	2.341686e+14	6.720299e+13	1.216538e+04	4.742227e+03	4.002053e+03	0	7.354246e-04
5.500000e+08	1.671848e+13	0.000000e+00	8.095238e-01	2.906849e+14	2.377818e+14	6.686981e+13	1.215371e+04	4.753817e+03	4.011834e+03	0	7.343522e-04
5.600000e+08	1.664314e+13	0.000000e+00	8.095238e-01	2.898300e+14	2.412947e+14	6.653899e+13	1.214207e+04	4.764959e+03	4.021237e+03	0	7.332474e-04
5.700000e+08	1.656591e+13	0.000000e+00	8.095238e-01	2.889572e+14	2.447056e+14	6.621053e+13	1.213047e+04	4.775661e+03	4.030269e+03	0	7.321115e-04
5.800000e+08	1.648688e+13	0.000000e+00	8.095238e-01	2.880673e+14	2.480129e+14	6.588439e+13	1.211889e+04	4.785933e+03	4.038937e+03	0	7.309455e-04
5.900000e+08	1.640615e+13	0.000000e+00	8.095238e-01	2.871611e+14	2.512154e+14	6.556057e+13	1.210736e+04	4.795782e+03	4.047249e+03	0	7.297504e-04
6.000000e+08	1.632380e+13	0.000000e+00	8.095238e-01	2.862397e+14	2.543122e+14	6.523904e+13	1.209586e+04	4.805217e+03	4.055212e+03	0	7.285274e-04
6.100000e+08	1.623992e+13	0.000000e+00	8.095238e-01	2.853037e+14	2.573027e+14	6.491978e+13	1.208440e+04	4.814247e+03	4.062832e+03	0	7.272774e-04
6.200000e+08	1.615460e+13	0.000000e+00	8.095238e-01	2.843542e+14	2.601864e+14	6.460278e+13	1.207297e+04	4.822881e+03	4.070118e+03	0	7.260015e-04
6.300000e+08	1.606791e+13	0.000000e+00	8.095238e-01	2.833918e+14	2.629633e+14	6.428801e+13	1.206159e+04	4.831127e+03	4.077077e+03	0	7.247006e-04
6.400000e+08	1.597995e+13	0.000000e+00	8.095238e-01	2.824174e+14	2.656333e+14	6.397547e+13	1.205024e+04	4.838995e+03	4.083717e+03	0	7.233758e-04
6.500000e+08	1.589079e+13	0.000000e+00	8.095238e-01	2.814317e+14	2.681971e+14	6.366513e+13	1.203893e+04	4.846494e+03	4.090046e+03	0	7.220279e-04
6.600000e+08	1.580051e+13	0.000000e+00	8.095238e-01	2.804356e+14	2.706549e+14	6.335697e+13	1.202766e+04	4.853634e+03	4.096071e+03	0	7.206579e-04
6.700000e+08	1.570918e+13	0.000000e+00	8.095238e-01	2.794297e+14	2.730076e+14	6.305098e+13	1.201643e+04	4.860423e+03	4.101800e+03	0	7.192667e-04
6.800000e+08	1.561687e+13	0.000000e+00	8.095238e-01	2.784148e+14	2.752560e+14	6.274714e+13	1.200524e+04	4.866870e+03	4.107241e+03	0	7.178552e-04
6.900000e+08	1.552366e+13	0.000000e+00	8.095238e-01	2.773915e+14	2.774014e+14	6.244543e+13	1.199409e+04	4.872985e+03	4.112402e+03	0	7.164242e-04
7.000000e+08	1.542962e+13	0.000000e+00	8.095238e-01	2.763605e+14	2.794448e+14	6.214583e+13	1.198298e+04	4.878777e+03	4.117290e+03	0	7.149744e-04
7.100000e+08	1.533480e+13	0.000000e+00	8.095238e-01	2.753224e+14	2.813877e+14	6.184833e+13	1.197191e+04	4.884255e+03	4.121913e+03	0	7.135069e-04
7.200000e+08	1.523927e+13	0.000000e+00	8.095238e-01	2.742779e+14	2.832316e+14	6.155291e+13	1.196089e+04	4.889427e+03	4.126278e+03	0	7.120222e-04
7.300000e+08	1.514310e+13	0.000000e+00	8.095238e-01	2.732276e+14	2.849781e+14	6.125956e+13	1.194990e+04	4.894303e+03	4.130393e+03	0	7.105212e-04
7.400000e+08	1.504633e+13	0.000000e+00	8.095238e-01	2.721720e+14	2.866289e+14	6.096826e+13	1.193896e+04	4.898892e+03	4.134266e+03	0	7.090046e-04
7.500000e+08	1.494904e+13	0.000000e+00	8.095238e-01	2.711116e+14	2.881859e+14	6.067898e+13	1.192806e+04	4.903202e+03	4.137903e+03	0	7.074731e-04
7.600000e+08	1.485127e+13	0.000000e+00	8.095238e-01	2.700471e+14	2.896510e+14	6.039172e+13	1.191720e+04	4.907242e+03	4.141312e+03	0	7.059274e-04
7.700000e+08	1.475308e+13	0.000000e+00	8.095238e-01	2.689789e+14	2.910260e+14	6.010646e+13	1.190639e+04	4.911019e+03	4.144500e+03	0	7.043681e-04
7.800000e+08	1.465451e+13	0.000000e+00	8.095238e-01	2.679075e+14	2.923131e+14	5.982318e+13	1.189562e+04	4.914543e+03	4.147474e+03	0	7.027959e-04
7.900000e+08	1.455561e+13	0.000000e+00	8.095238e-01	2.668334e+14	2.935143e+14	5.954187e+13	1.188489e+04	4.917821e+03	4.150240e+03	0	7.012114e-04
8.000000e+08	1.445643e+13	0.000000e+00	8.095238e-01	2.657571e+14	2.946316e+14	5.926251e+13	1.187420e+04	4.920862e+03	4.152806e+03	0	6.996152e-04
8.100000e+08	1.435702e+13	0.000000e+00	8.095238e-01	2.646788e+14	2.956674e+14	5.898509e+13	1.186356e+04	4.923672e+03	4.155178e+03	0	6.980078e-04
8.200000e+08	1.425742e+13	0.000000e+00	8.095238e-01	2.635992e+14	2.966236e+14	5.870958e+13	1.185296e+04	4.926261e+03	4.157363e+03	0	6.963899e-04
8.300000e+08	1.415766e+13	0.000000e+00	8.095238e-01	2.625185e+14	2.975026e+14	5.843598e+13	1.184240e+04	4.928634e+03	4.159366e+03	0	6.947619e-04
8.400000e+08	1.405779e+13	0.000000e+00	8.095238e-01	2.614372e+14	2.983063e+14	5.816427e+13	1.183189e+04	4.930801e+03	4.161194e+03	0	6.931243e-04
8.500000e+08	1.395784e+13	0.000000e+00	8.095238e-01	2.603556e+14	2.990372e+14	5.789444e+13	1.182142e+04	4.932767e+03	4.162853e+03	0	6.914777e-04
8.600000e+08	1.385784e+13	0.000000e+00	8.095238e-01	2.592740e+14	2.996972e+14	5.762646e+13	1.181099e+04	4.934539e+03	4.164349e+03	0	6.898225e-04
8.700000e+08	1.375784e+13	0.000000e+00	8.095238e-01	2.581928e+14	3.002887e+14	5.736033e+13	1.180060e+04	4.936125e+03	4.165687e+03	0	6.881592e-04
8.800000e+08	1.365787e+13	0.000000e+00	8.095238e-01	2.571123e+14	3.008138e+14	5.709603e+13	1.179026e+04	4.937530e+03	4.166873e+03	0	6.864883e-04
8.900000e+08	1.355794e+13	0.000000e+00	8.095238e-01	2.560328e+14	3.012745e+14	5.683355e+13	1.177997e+04	4.938762e+03	4.167913e+03	0	6.848100e-04
9.000000e+08	1.345810e+13	0.000000e+00	8.095238e-01	2.549545e+14	3.016730e+14	5.657287e+13	1.176971e+04	4.939827e+03	4.168811e+03	0	6.831249e-04
9.100000e+08	1.335837e+13	0.000000e+00	8.095238e-01	2.538778e+14	3.020115e+14	5.631397e+13	1.175950e+04	4.940730e+03	4.169574e+03	0	6.814333e-04
9.200000e+08	1.325878e+13	0.000000e+00	8.095238e-01	2.528028e+14	3.022920e+14	5.605685e+13	1.174933e+04	4.941478e+03	4.170205e+03	0	6.797356e-04
9.300000e+08	1.315935e+13	0.000000e+00	8.095238e-01	2.517299e+14	3.025164e+14	5.580148e+13	1.173921e+04	4.942076e+03	4.170710e+03	0	6.780322e-04
9.400000e+08	1.306010e+13	0.000000e+00	8.095238e-01	2.506592e+14	3.026868e+14	5.554787e+13	1.172912e+04	4.942530e+03	4.171093e+03	0	6.763233e-04
9.500000e+08	1.296106e+13	0.000000e+00	8.095238e-01	2.495910e+14	3.028052e+14	5.529598e+13	1.171909e+04	4.942846e+03	4.171359e+03	0	6.746094e-04
9.600000e+08	1.286225e+13	0.000000e+00	8.095238e-01	2.485254e+14	3.028734e+14	5.504581e+13	1.170909e+04	4.943027e+03	4.171512e+03	0	6.728907e-04
9.700000e+08	1.276369e+13	0.000000e+00	8.095238e-01	2.474627e+14	3.028934e+14	5.479734e+13	1.169913e+04	4.943080e+03	4.171557e+03	0	6.711675e-04
9.800000e+08	1.266540e+13	0.000000e+00	8.095238e-01	2.464031e+14	3.028669e+14	5.455057e+13	1.168922e+04	4.943010e+03	4.171498e+03	0	6.694402e-04
9.900000e+08	1.256739e+13	0.000000e+00	8.095238e-01	2.453467e+14	3.027959e+14	5.430547e+13	1.167935e+04	4.942821e+03	4.171338e+03	0	6.677089e-04
1.000000e+09	1.246968e+13	0.000000e+00	8.095238e-01	2.442937e+14	3.026819e+14	5.406204e+13	1.166953e+04	4.942517e+03	4.171082e+03	0	6.659740e-04
1.010000e+09	1.237229e+13	0.000000e+00	8.095238e-01	2.432441e+14	3.025269e+14	5.382025e+13	1.165974e+04	4.942104e+03	4.170733e+03	0	6.642357e-04
1.020000e+09	1.227524e+13	0.000000e+00	8.095238e-01	2.421983e+14	3.023323e+14	5.358011e+13	1.165000e+04	4.941586e+03	4.170295e+03	0	6.624942e-04
1.030000e+09	1.217853e+13	0.000000e+00	8.095238e-01	2.411563e+14	3.020997e+14	5.334159e+13	1.164030e+04	4.940966e+03	4.169772e+03	0	6.607498e-04
1.040000e+09	1.208218e+13	0.000000e+00	8.095238e-01	2.401182e+14	3.018309e+14	5.310468e+13	1.163064e+04	4.940248e+03	4.169167e+03	0	6.590027e-04
1.050000e+09	1.198620e+13	0.000000e+00	8.095238e-01	2.390842e+14	3.015273e+14	5.286937e+13	1.162102e+04	4.939438e+03	4.168483e+03	0	6.572531e-04
1.060000e+09	1.189061e+13	0.000000e+00	8.095238e-01	2.380544e+14	3.011903e+14	5.263565e+13	1.161144e+04	4.938538e+03	4.167723e+03	0	6.555012e-04
1.070000e+09	1.179541e+13	0.000000e+00	8.095238e-01	2.370288e+14	3.008215e+14	5.240351e+13	1.160191e+04	4.937551e+03	4.166891e+03	0	6.537472e-04
1.080000e+09	1.170062e+13	0.000000e+00	8.095238e-01	2.360076e+14	3.004223e+14	5.217292e+13	1.159241e+04	4.936482e+03	4.165989e+03	0	6.519912e-04
1.090000e+09	1.160624e+13	0.000000e+00	8.095238e-01	2.349908e+14	2.999938e+14	5.194389e+13	1.158296e+04	4.935334e+03	4.165020e+03	0	6.502334e-04
1.100000e+09	1.151228e+13	0.000000e+00	8.095238e-01	2.339786e+14	2.995376e+14	5.171639e+13	1.157355e+04	4.934111e+03	4.163987e+03	0	6.484741e-04
1.110000e+09	1.141876e+13	0.000000e+00	8.095238e-01	2.329710e+14	2.990548e+14	5.149042e+13	1.156417e+04	4.932814e+03	4.162893e+03	0	6.467132e-04
1.120000e+09	1.132567e+13	0.000000e+00	8.095238e-01	2.319681e+14	2.985467e+14	5.126596e+13	1.155484e+04	4.931448e+03	4.161740e+03	0	6.449511e-04
1.130000e+09	1.123303e+13	0.000000e+00	8.095238e-01	2.309699e+14	2.980144e+14	5.104301e+13	1.154555e+04	4.930015e+03	4.160530e+03	0	6.431878e-04
1.140000e+09	1.114085e+13	0.000000e+00	8.095238e-01	2.299766e+14	2.974592e+14	5.082154e+13	1.153630e+04	4.928518e+03	4.159267e+03	0	6.414235e-04
1.150000e+09	1.104912e+13	0.000000e+00	8.095238e-01	2.289881e+14	2.968820e+14	5.060156e+13	1.152709e+04	4.926959e+03	4.157952e+03	0	6.396583e-04
1.160000e+09	1.095785e+13	0.000000e+00	8.095238e-01	2.280046e+14	2.962840e+14	5.038304e+13	1.151791e+04	4.925342e+03	4.156587e+03	0	6.378922e-04
1.170000e+09	1.086706e+13	0.000000e+00	8.095238e-01	2.270260e+14	2.956663e+14	5.016598e+13	1.150878e+04	4.923669e+03	4.155176e+03	0	6.361255e-04
1.180000e+09	1.077673e+13	0.000000e+00	8.095238e-01	2.260525e+14	2.950296e+14	4.995036e+13	1.149968e+04	4.921943e+03	4.153718e+03	0	6.343582e-04
1.190000e+09	1.068689e+13	0.000000e+00	8.095238e-01	2.250840e+14	2.943752e+14	4.973617e+13	1.149063e+04	4.920165e+03	4.152218e+03	0	6.325904e-04
1.200000e+09	1.059753e+13	0.000000e+00	8.095238e-01	2.241206e+14	2.937039e+14	4.952341e+13	1.148161e+04	4.918337e+03	4.150676e+03	0	6.308222e-04
1.210000e+09	1.050865e+13	0.000000e+00	8.095238e-01	2.231623e+14	2.930164e+14	4.931206e+13	1.147263e+04	4.916463e+03	4.149094e+03	0	6.290538e-04
1.220000e+09	1.042026e+13	0.000000e+00	8.095238e-01	2.222091e+14	2.923138e+14	4.910211e+13	1.146369e+04	4.914545e+03	4.147475e+03	0	6.272851e-04
1.230000e+09	1.033236e+13	0.000000e+00	8.095238e-01	2.212611e+14	2.915968e+14	4.889354e+13	1.145479e+04	4.912583e+03	4.145820e+03	0	6.255163e-04
1.240000e+09	1.024495e+13	0.000000e+00	8.095238e-01	2.203183e+14	2.908662e+14	4.868636e+13	1.144593e+04	4.910581e+03	4.144130e+03	0	6.237474e-04
1.250000e+09	1.015803e+13	0.000000e+00	8.095238e-01	2.193807e+14	2.901228e+14	4.848054e+13	1.143710e+04	4.908539e+03	4.142407e+03	0	6.219785e-04
1.260000e+09	1.007162e+13	0.000000e+00	8.095238e-01	2.184483e+14	2.893674e+14	4.827608e+13	1.142832e+04	4.906461e+03	4.140653e+03	0	6.202097e-04
1.270000e+09	9.985698e+12	0.000000e+00	8.095238e-01	2.175212e+14	2.886005e+14	4.807297e+13	1.141956e+04	4.904347e+03	4.138869e+03	0	6.184410e-04
1.280000e+09	9.900277e+12	0.000000e+00	8.095238e-01	2.165993e+14	2.878229e+14	4.787119e+13	1.141085e+04	4.902199e+03	4.137056e+03	0	6.166725e-04
1.290000e+09	9.815355e+12	0.000000e+00	8.095238e-01	2.156826e+14	2.870353e+14	4.767074e+13	1.140217e+04	4.900019e+03	4.135216e+03	0	6.149043e-04
1.300000e+09	9.730935e+12	0.000000e+00	8.095238e-01	2.147712e+14	2.862382e+14	4.747161e+13	1.139353e+04	4.897808e+03	4.133351e+03	0	6.131363e-04
1.310000e+09	9.647014e+12	0.000000e+00	8.095238e-01	2.138650e+14	2.854324e+14	4.727378e+13	1.138493e+04	4.895568e+03	4.131461e+03	0	6.113686e-04
1.320000e+09	9.563595e+12	0.000000e+00	8.095238e-01	2.129641e+14	2.846183e+14	4.707725e+13	1.137636e+04	4.893301e+03	4.129547e+03	0	6.096013e-04
1.330000e+09	9.480677e+12	0.000000e+00	8.095238e-01	2.120684e+14	2.837964e+14	4.688200e+13	1.136783e+04	4.891007e+03	4.127611e+03	0	6.078344e-04
1.340000e+09	9.398260e+12	0.000000e+00	8.095238e-01	2.111780e+14	2.829674e+14	4.668802e+13	1.135933e+04	4.888688e+03	4.125654e+03	0	6.060679e-04
1.350000e+09	9.316342e+12	0.000000e+00	8.095238e-01	2.102928e+14	2.821318e+14	4.649532e+13	1.135087e+04	4.886345e+03	4.123677e+03	0	6.043019e-04
1.360000e+09	9.234925e+12	0.000000e+00	8.095238e-01	2.094128e+14	2.812899e+14	4.630387e+13	1.134245e+04	4.883980e+03	4.121681e+03	0	6.025364e-04
