#t		Qconv[W]	Ri[Rp]		R*[Rp]		Qc[W]		Qm[W]		Qr[W]		Tcmb[K]		Tl[K]		Tup[K]		RiFlag		Bs[T]
0.000000e+00	1.486212e+13	0.000000e+00	8.095238e-01	2.967030e+14	2.351247e+13	9.413705e+13	1.321542e+04	3.478896e+03	2.927381e+03	0	7.051245e-04
1.000000e+07	1.500089e+13	0.000000e+00	8.095238e-01	2.978793e+14	2.528441e+13	9.361547e+13	1.320431e+04	3.511792e+03	2.955062e+03	0	7.073124e-04
2.000000e+07	1.513660e+13	0.000000e+00	8.095238e-01	2.990262e+14	2.715341e+13	9.309778e+13	1.319316e+04	3.544584e+03	2.982656e+03	0	7.094390e-04
3.000000e+07	1.526915e+13	0.000000e+00	8.095238e-01	3.001429e+14	2.912189e+13	9.258396e+13	1.318197e+04	3.577261e+03	3.010152e+03	0	7.115038e-04
4.000000e+07	1.539845e+13	0.000000e+00	8.095238e-01	3.012284e+14	3.119211e+13	9.207398e+13	1.317073e+04	3.609810e+03	3.037541e+03	0	7.135066e-04
5.000000e+07	1.552442e+13	0.000000e+00	8.095238e-01	3.022821e+14	3.336612e+13	9.156780e+13	1.315946e+04	3.642220e+03	3.064813e+03	0	7.154470e-04
6.000000e+07	1.564698e+13	0.000000e+00	8.095238e-01	3.033030e+14	3.564581e+13	9.106539e+13	1.314814e+04	3.674480e+03	3.091959e+03	0	7.173246e-04
7.000000e+07	1.576602e+13	0.000000e+00	8.095238e-01	3.042905e+14	3.803279e+13	9.056673e+13	1.313679e+04	3.706577e+03	3.118967e+03	0	7.191392e-04
8.000000e+07	1.588148e+13	0.000000e+00	8.095238e-01	3.052437e+14	4.052847e+13	9.007177e+13	1.312540e+04	3.738499e+03	3.145829e+03	0	7.208904e-04
9.000000e+07	1.599327e+13	0.000000e+00	8.095238e-01	3.061619e+14	4.313399e+13	8.958050e+13	1.311397e+04	3.770233e+03	3.172532e+03	0	7.225779e-04
1.000000e+08	1.610131e+13	0.000000e+00	8.095238e-01	3.070444e+14	4.585019e+13	8.909287e+13	1.310251e+04	3.801766e+03	3.199066e+03	0	7.242014e-04
1.100000e+08	1.620553e+13	0.000000e+00	8.095238e-01	3.078905e+14	4.867765e+13	8.860886e+13	1.309102e+04	3.833086e+03	3.225421e+03	0	7.257606e-04
1.200000e+08	1.630587e+13	0.000000e+00	8.095238e-01	3.086995e+14	5.161659e+13	8.812844e+13	1.307950e+04	3.864180e+03	3.251585e+03	0	7.272553e-04
1.300000e+08	1.640224e+13	0.000000e+00	8.095238e-01	3.094709e+14	5.466694e+13	8.765157e+13	1.306794e+04	3.895034e+03	3.277548e+03	0	7.286853e-04
1.400000e+08	1.649459e+13	0.000000e+00	8.095238e-01	3.102040e+14	5.782829e+13	8.717824e+13	1.305636e+04	3.925636e+03	3.303299e+03	0	7.300503e-04
1.500000e+08	1.658286e+13	0.000000e+00	8.095238e-01	3.108984e+14	6.109985e+13	8.670840e+13	1.304475e+04	3.955972e+03	3.328826e+03	0	7.313502e-04
1.600000e+08	1.666699e+13	0.000000e+00	8.095238e-01	3.115534e+14	6.448052e+13	8.624204e+13	1.303311e+04	3.986030e+03	3.354119e+03	0	7.325849e-04
1.700000e+08	1.674693e+13	0.000000e+00	8.095238e-01	3.121686e+14	6.796877e+13	8.577911e+13	1.302145e+04	4.015797e+03	3.379166e+03	0	7.337543e-04
1.800000e+08	1.682264e+13	0.000000e+00	8.095238e-01	3.127437e+14	7.156277e+13	8.531960e+13	1.300977e+04	4.045259e+03	3.403958e+03	0	7.348584e-04
1.900000e+08	1.689407e+13	0.000000e+00	8.095238e-01	3.132783e+14	7.526023e+13	8.486347e+13	1.299806e+04	4.074404e+03	3.428483e+03	0	7.358971e-04
2.000000e+08	1.696120e+13	0.000000e+00	8.095238e-01	3.137719e+14	7.905856e+13	8.441070e+13	1.298633e+04	4.103220e+03	3.452730e+03	0	7.368704e-04
2.100000e+08	1.702398e+13	0.000000e+00	8.095238e-01	3.142245e+14	8.295478e+13	8.396126e+13	1.297459e+04	4.131694e+03	3.476690e+03	0	7.377785e-04
2.200000e+08	1.708241e+13	0.000000e+00	8.095238e-01	3.146357e+14	8.694551e+13	8.351512e+13	1.296283e+04	4.159814e+03	3.500352e+03	0	7.386215e-04
2.300000e+08	1.713644e+13	0.000000e+00	8.095238e-01	3.150055e+14	9.102704e+13	8.307225e+13	1.295105e+04	4.187569e+03	3.523707e+03	0	7.393996e-04
2.400000e+08	1.718609e+13	0.000000e+00	8.095238e-01	3.153337e+14	9.519531e+13	8.263263e+13	1.293926e+04	4.214946e+03	3.546744e+03	0	7.401129e-04
2.500000e+08	1.723133e+13	0.000000e+00	8.095238e-01	3.156202e+14	9.944589e+13	8.219623e+13	1.292746e+04	4.241936e+03	3.569455e+03	0	7.407618e-04
2.600000e+08	1.727218e+13	0.000000e+00	8.095238e-01	3.158651e+14	1.037741e+14	8.176303e+13	1.291565e+04	4.268526e+03	3.591830e+03	0	7.413466e-04
2.700000e+08	1.730862e+13	0.000000e+00	8.095238e-01	3.160685e+14	1.081748e+14	8.133299e+13	1.290382e+04	4.294708e+03	3.613861e+03	0	7.418676e-04
2.800000e+08	1.734068e+13	0.000000e+00	8.095238e-01	3.162305e+14	1.126428e+14	8.090609e+13	1.289199e+04	4.320471e+03	3.635540e+03	0	7.423254e-04
2.900000e+08	1.736837e+13	0.000000e+00	8.095238e-01	3.163512e+14	1.171725e+14	8.048231e+13	1.288016e+04	4.345807e+03	3.656859e+03	0	7.427203e-04
3.000000e+08	1.739172e+13	0.000000e+00	8.095238e-01	3.164309e+14	1.217579e+14	8.006162e+13	1.286832e+04	4.370705e+03	3.677811e+03	0	7.430530e-04
3.100000e+08	1.741075e+13	0.000000e+00	8.095238e-01	3.164699e+14	1.263932e+14	7.964399e+13	1.285647e+04	4.395160e+03	3.698388e+03	0	7.433239e-04
3.200000e+08	1.742550e+13	0.000000e+00	8.095238e-01	3.164685e+14	1.310721e+14	7.922940e+13	1.284463e+04	4.419161e+03	3.718585e+03	0	7.435337e-04
3.300000e+08	1.743600e+13	0.000000e+00	8.095238e-01	3.164272e+14	1.357882e+14	7.881782e+13	1.283278e+04	4.442704e+03	3.738395e+03	0	7.436831e-04
3.400000e+08	1.744231e+13	0.000000e+00	8.095238e-01	3.163463e+14	1.405349e+14	7.840924e+13	1.282094e+04	4.465781e+03	3.757814e+03	0	7.437728e-04
3.500000e+08	1.744448e+13	0.000000e+00	8.095238e-01	3.162263e+14	1.453057e+14	7.800362e+13	1.280910e+04	4.488386e+03	3.776835e+03	0	7.438036e-04
3.600000e+08	1.744255e+13	0.000000e+00	8.095238e-01	3.160679e+14	1.500940e+14	7.760094e+13	1.279727e+04	4.510515e+03	3.795456e+03	0	7.437762e-04
3.700000e+08	1.743659e+13	0.000000e+00	8.095238e-01	3.158715e+14	1.548930e+14	7.720117e+13	1.278544e+04	4.532163e+03	3.813672e+03	0	7.436914e-04
3.800000e+08	1.742666e+13	0.000000e+00	8.095238e-01	3.156378e+14	1.596959e+14	7.680430e+13	1.277361e+04	4.553327e+03	3.831481e+03	0	7.435503e-04
3.900000e+08	1.741284e+13	0.000000e+00	8.095238e-01	3.153675e+14	1.644961e+14	7.641030e+13	1.276180e+04	4.574002e+03	3.848878e+03	0	7.433537e-04
4.000000e+08	1.739519e+13	0.000000e+00	8.095238e-01	3.150613e+14	1.692869e+14	7.601914e+13	1.274999e+04	4.594187e+03	3.865863e+03	0	7.431024e-04
4.100000e+08	1.737379e+13	0.000000e+00	8.095238e-01	3.147199e+14	1.740617e+14	7.563080e+13	1.273820e+04	4.613880e+03	3.882434e+03	0	7.427976e-04
4.200000e+08	1.734873e+13	0.000000e+00	8.095238e-01	3.143440e+14	1.788142e+14	7.524527e+13	1.272642e+04	4.633079e+03	3.898590e+03	0	7.424402e-04
4.300000e+08	1.732007e+13	0.000000e+00	8.095238e-01	3.139345e+14	1.835380e+14	7.486250e+13	1.271466e+04	4.651785e+03	3.914330e+03	0	7.420312e-04
4.400000e+08	1.728791e+13	0.000000e+00	8.095238e-01	3.134921e+14	1.882270e+14	7.448250e+13	1.270291e+04	4.669996e+03	3.929654e+03	0	7.415717e-04
4.500000e+08	1.725234e+13	0.000000e+00	8.095238e-01	3.130178e+14	1.928750e+14	7.410522e+13	1.269117e+04	4.687714e+03	3.944564e+03	0	7.410627e-04
4.600000e+08	1.721345e+13	0.000000e+00	8.095238e-01	3.125124e+14	1.974765e+14	7.373065e+13	1.267946e+04	4.704941e+03	3.959059e+03	0	7.405054e-04
4.700000e+08	1.717132e+13	0.000000e+00	8.095238e-01	3.119767e+14	2.020257e+14	7.335877e+13	1.266776e+04	4.721677e+03	3.973142e+03	0	7.399008e-04
4.800000e+08	1.712605e+13	0.000000e+00	8.095238e-01	3.114116e+14	2.065175e+14	7.298955e+13	1.265608e+04	4.737926e+03	3.986815e+03	0	7.392501e-04
4.900000e+08	1.707774e+13	0.000000e+00	8.095238e-01	3.108182e+14	2.109468e+14	7.262298e+13	1.264443e+04	4.753691e+03	4.000080e+03	0	7.385543e-04
5.000000e+08	1.702648e+13	0.000000e+00	8.095238e-01	3.101971e+14	2.153088e+14	7.225903e+13	1.263279e+04	4.768974e+03	4.012941e+03	0	7.378146e-04
5.100000e+08	1.697237e+13	0.000000e+00	8.095238e-01	3.095495e+14	2.195990e+14	7.189767e+13	1.262118e+04	4.783780e+03	4.025400e+03	0	7.370321e-04
5.200000e+08	1.691549e+13	0.000000e+00	8.095238e-01	3.088762e+14	2.238131e+14	7.153890e+13	1.260960e+04	4.798114e+03	4.037461e+03	0	7.362080e-04
5.300000e+08	1.685596e+13	0.000000e+00	8.095238e-01	3.081781e+14	2.279472e+14	7.118269e+13	1.259804e+04	4.811980e+03	4.049129e+03	0	7.353433e-04
5.400000e+08	1.679387e+13	0.000000e+00	8.095238e-01	3.074561e+14	2.319978e+14	7.082901e+13	1.258650e+04	4.825384e+03	4.060408e+03	0	7.344392e-04
5.500000e+08	1.672931e+13	0.000000e+00	8.095238e-01	3.067112e+14	2.359615e+14	7.047785e+13	1.257499e+04	4.838331e+03	4.071303e+03	0	7.334969e-04
5.600000e+08	1.666238e+13	0.000000e+00	8.095238e-01	3.059443e+14	2.398353e+14	7.012918e+13	1.256351e+04	4.850828e+03	4.081819e+03	0	7.325174e-04
5.700000e+08	1.659317e+13	0.000000e+00	8.095238e-01	3.051563e+14	2.436165e+14	6.978299e+13	1.255206e+04	4.862881e+03	4.091961e+03	0	7.315018e-04
5.800000e+08	1.652178e+13	0.000000e+00	8.095238e-01	3.043481e+14	2.473026e+14	6.943926e+13	1.254064e+04	4.874497e+03	4.101735e+03	0	7.304513e-04
5.900000e+08	1.644831e+13	0.000000e+00	8.095238e-01	3.035206e+14	2.508915e+14	6.909797e+13	1.252925e+04	4.885683e+03	4.111148e+03	0	7.293669e-04
6.000000e+08	1.637284e+13	0.000000e+00	8.095238e-01	3.026747e+14	2.543815e+14	6.875909e+13	1.251789e+04	4.896445e+03	4.120204e+03	0	7.282496e-04
6.100000e+08	1.629547e+13	0.000000e+00	8.095238e-01	3.018112e+14	2.577710e+14	6.842260e+13	1.250656e+04	4.906793e+03	4.128911e+03	0	7.271007e-04
6.200000e+08	1.621628e+13	0.000000e+00	8.095238e-01	3.009309e+14	2.610587e+14	6.808850e+13	1.249526e+04	4.916733e+03	4.137275e+03	0	7.259210e-04
6.300000e+08	1.613537e+13	0.000000e+00	8.095238e-01	3.000348e+14	2.642435e+14	6.775675e+13	1.248400e+04	4.926273e+03	4.145303e+03	0	7.247116e-04
6.400000e+08	1.605281e+13	0.000000e+00	8.095238e-01	2.991236e+14	2.673249e+14	6.742734e+13	1.247277e+04	4.935421e+03	4.153001e+03	0	7.234735e-04
6.500000e+08	1.596870e+13	0.000000e+00	8.095238e-01	2.981982e+14	2.703023e+14	6.710026e+13	1.246157e+04	4.944186e+03	4.160376e+03	0	7.222078e-04
6.600000e+08	1.588312e+13	0.000000e+00	8.095238e-01	2.972593e+14	2.731754e+14	6.677547e+13	1.245041e+04	4.952576e+03	4.167436e+03	0	7.209153e-04
6.700000e+08	1.579614e+13	0.000000e+00	8.095238e-01	2.963076e+14	2.759440e+14	6.645297e+13	1.243928e+04	4.960599e+03	4.174187e+03	0	7.195969e-04
6.800000e+08	1.570786e+13	0.000000e+00	8.095238e-01	2.953441e+14	2.786086e+14	6.613273e+13	1.242819e+04	4.968263e+03	4.180637e+03	0	7.182538e-04
6.900000e+08	1.561833e+13	0.000000e+00	8.095238e-01	2.943693e+14	2.811695e+14	6.581474e+13	1.241713e+04	4.975578e+03	4.186792e+03	0	7.168866e-04
7.000000e+08	1.552764e+13	0.000000e+00	8.095238e-01	2.933839e+14	2.836271e+14	6.549898e+13	1.240612e+04	4.982551e+03	4.192659e+03	0	7.154964e-04
7.100000e+08	1.543587e+13	0.000000e+00	8.095238e-01	2.923888e+14	2.859823e+14	6.518543e+13	1.239513e+04	4.989191e+03	4.198247e+03	0	7.140840e-04
7.200000e+08	1.534307e+13	0.000000e+00	8.095238e-01	2.913844e+14	2.882359e+14	6.487408e+13	1.238419e+04	4.995507e+03	4.203561e+03	0	7.126501e-04
7.300000e+08	1.524932e+13	0.000000e+00	8.095238e-01	2.903716e+14	2.903890e+14	6.456489e+13	1.237328e+04	5.001507e+03	4.208610e+03	0	7.111957e-04
7.400000e+08	1.515469e+13	0.000000e+00	8.095238e-01	2.893509e+14	2.924427e+14	6.425787e+13	1.236241e+04	5.007199e+03	4.213399e+03	0	7.097215e-04
7.500000e+08	1.505924e+13	0.000000e+00	8.095238e-01	2.883228e+14	2.943986e+14	6.395299e+13	1.235158e+04	5.012591e+03	4.217937e+03	0	7.082283e-04
7.600000e+08	1.496303e+13	0.000000e+00	8.095238e-01	2.872881e+14	2.962578e+14	6.365023e+13	1.234079e+04	5.017693e+03	4.222230e+03	0	7.067169e-04
7.700000e+08	1.486612e+13	0.000000e+00	8.095238e-01	2.862473e+14	2.980220e+14	6.334958e+13	1.233003e+04	5.022512e+03	4.226285e+03	0	7.051878e-04
7.800000e+08	1.476857e+13	0.000000e+00	8.095238e-01	2.852009e+14	2.996928e+14	6.305101e+13	1.231932e+04	5.027057e+03	4.230109e+03	0	7.036420e-04
7.900000e+08	1.467044e+13	0.000000e+00	8.095238e-01	2.841495e+14	3.012719e+14	6.275452e+13	1.230864e+04	5.031334e+03	4.233709e+03	0	7.020800e-04
8.000000e+08	1.457177e+13	0.000000e+00	8.095238e-01	2.830935e+14	3.027612e+14	6.246009e+13	1.229800e+04	5.035353e+03	4.237090e+03	0	7.005025e-04
8.100000e+08	1.447263e+13	0.000000e+00	8.095238e-01	2.820334e+14	3.041624e+14	6.216770e+13	1.228741e+04	5.039121e+03	4.240261e+03	0	6.989102e-04
8.200000e+08	1.437305e+13	0.000000e+00	8.095238e-01	2.809698e+14	3.054774e+14	6.187733e+13	1.227685e+04	5.042645e+03	4.243227e+03	0	6.973037e-04
8.300000e+08	1.427310e+13	0.000000e+00	8.095238e-01	2.799030e+14	3.067082e+14	6.158896e+13	1.226633e+04	5.045934e+03	4.245994e+03	0	6.956835e-04
8.400000e+08	1.417281e+13	0.000000e+00	8.095238e-01	2.788336e+14	3.078569e+14	6.130259e+13	1.225585e+04	5.048994e+03	4.248569e+03	0	6.940502e-04
8.500000e+08	1.407222e+13	0.000000e+00	8.095238e-01	2.777619e+14	3.089253e+14	6.101820e+13	1.224541e+04	5.051832e+03	4.250957e+03	0	6.924044e-04
8.600000e+08	1.397139e+13	0.000000e+00	8.095238e-01	2.766883e+14	3.099156e+14	6.073577e+13	1.223502e+04	5.054457e+03	4.253166e+03	0	6.907467e-04
8.700000e+08	1.387035e+13	0.000000e+00	8.095238e-01	2.756133e+14	3.108298e+14	6.045528e+13	1.222466e+04	5.056874e+03	4.255200e+03	0	6.890776e-04
8.800000e+08	1.376914e+13	0.000000e+00	8.095238e-01	2.745371e+14	3.116700e+14	6.017672e+13	1.221434e+04	5.059091e+03	4.257065e+03	0	6.873974e-04
8.900000e+08	1.366780e+13	0.000000e+00	8.095238e-01	2.734601e+14	3.124381e+14	5.990007e+13	1.220406e+04	5.061114e+03	4.258767e+03	0	6.857069e-04
9.000000e+08	1.356636e+13	0.000000e+00	8.095238e-01	2.723827e+14	3.131363e+14	5.962532e+13	1.219383e+04	5.062949e+03	4.260312e+03	0	6.840063e-04
9.100000e+08	1.346486e+13	0.000000e+00	8.095238e-01	2.713052e+14	3.137666e+14	5.935246e+13	1.218363e+04	5.064604e+03	4.261704e+03	0	6.822962e-04
9.200000e+08	1.336333e+13	0.000000e+00	8.095238e-01	2.702279e+14	3.143312e+14	5.908146e+13	1.217347e+04	5.066084e+03	4.262949e+03	0	6.805769e-04
9.300000e+08	1.326180e+13	0.000000e+00	8.095238e-01	2.691511e+14	3.148319e+14	5.881232e+13	1.216336e+04	5.067394e+03	4.264052e+03	0	6.788489e-04
9.400000e+08	1.316031e+13	0.000000e+00	8.095238e-01	2.680750e+14	3.152708e+14	5.854502e+13	1.215328e+04	5.068542e+03	4.265018e+03	0	6.771127e-04
9.500000e+08	1.305887e+13	0.000000e+00	8.095238e-01	2.670000e+14	3.156500e+14	5.827954e+13	1.214324e+04	5.069533e+03	4.265851e+03	0	6.753685e-04
9.600000e+08	1.295751e+13	0.000000e+00	8.095238e-01	2.659263e+14	3.159713e+14	5.801587e+13	1.213325e+04	5.070371e+03	4.266557e+03	0	6.736167e-04
9.700000e+08	1.285627e+13	0.000000e+00	8.095238e-01	2.648541e+14	3.162367e+14	5.775400e+13	1.212329e+04	5.071063e+03	4.267140e+03	0	6.718577e-04
9.800000e+08	1.275517e+13	0.000000e+00	8.095238e-01	2.637836e+14	3.164480e+14	5.749391e+13	1.211338e+04	5.071614e+03	4.267603e+03	0	6.700918e-04
9.900000e+08	1.265422e+13	0.000000e+00	8.095238e-01	2.627152e+14	3.166073e+14	5.723559e+13	1.210350e+04	5.072029e+03	4.267953e+03	0	6.683194e-04
1.000000e+09	1.255345e+13	0.000000e+00	8.095238e-01	2.616489e+14	3.167162e+14	5.697902e+13	1.209367e+04	5.072313e+03	4.268191e+03	0	6.665407e-04
1.010000e+09	1.245289e+13	0.000000e+00	8.095238e-01	2.605850e+14	3.167767e+14	5.672419e+13	1.208387e+04	5.072471e+03	4.268324e+03	0	6.647561e-04
1.020000e+09	1.235255e+13	0.000000e+00	8.095238e-01	2.595236e+14	3.167905e+14	5.647109e+13	1.207411e+04	5.072506e+03	4.268354e+03	0	6.629658e-04
1.030000e+09	1.225245e+13	0.000000e+00	8.095238e-01	2.584650e+14	3.167592e+14	5.621970e+13	1.206440e+04	5.072425e+03	4.268285e+03	0	6.611702e-04
1.040000e+09	1.215261e+13	0.000000e+00	8.095238e-01	2.574093e+14	3.166846e+14	5.597001e+13	1.205472e+04	5.072231e+03	4.268122e+03	0	6.593694e-04
1.050000e+09	1.205304e+13	0.000000e+00	8.095238e-01	2.563567e+14	3.165683e+14	5.572200e+13	1.204508e+04	5.071928e+03	4.267867e+03	0	6.575637e-04
1.060000e+09	1.195377e+13	0.000000e+00	8.095238e-01	2.553072e+14	3.164120e+14	5.547567e+13	1.203549e+04	5.071520e+03	4.267524e+03	0	6.557534e-04
1.070000e+09	1.185480e+13	0.000000e+00	8.095238e-01	2.542612e+14	3.162171e+14	5.523100e+13	1.202593e+04	5.071013e+03	4.267097e+03	0	6.539386e-04
1.080000e+09	1.175615e+13	0.000000e+00	8.095238e-01	2.532186e+14	3.159853e+14	5.498797e+13	1.201641e+04	5.070408e+03	4.266588e+03	0	6.521197e-04
1.090000e+09	1.165784e+13	0.000000e+00	8.095238e-01	2.521796e+14	3.157180e+14	5.474658e+13	1.200693e+04	5.069710e+03	4.266001e+03	0	6.502968e-04
1.100000e+09	1.155987e+13	0.000000e+00	8.095238e-01	2.511444e+14	3.154167e+14	5.450681e+13	1.199748e+04	5.068923e+03	4.265339e+03	0	6.484700e-04
1.110000e+09	1.146226e+13	0.000000e+00	8.095238e-01	2.501129e+14	3.150827e+14	5.426865e+13	1.198808e+04	5.068050e+03	4.264604e+03	0	6.466397e-04
1.120000e+09	1.136502e+13	0.000000e+00	8.095238e-01	2.490855e+14	3.147174e+14	5.403208e+13	1.197872e+04	5.067095e+03	4.263800e+03	0	6.448059e-04
1.130000e+09	1.126816e+13	0.000000e+00	8.095238e-01	2.480620e+14	3.143221e+14	5.379709e+13	1.196939e+04	5.066060e+03	4.262929e+03	0	6.429689e-04
1.140000e+09	1.117169e+13	0.000000e+00	8.095238e-01	2.470427e+14	3.138982e+14	5.356368e+13	1.196010e+04	5.064949e+03	4.261994e+03	0	6.411288e-04
1.150000e+09	1.107562e+13	0.000000e+00	8.095238e-01	2.460276e+14	3.134468e+14	5.333183e+13	1.195085e+04	5.063765e+03	4.260998e+03	0	6.392857e-04
1.160000e+09	1.097996e+13	0.000000e+00	8.095238e-01	2.450168e+14	3.129692e+14	5.310152e+13	1.194164e+04	5.062510e+03	4.259943e+03	0	6.374398e-04
1.170000e+09	1.088471e+13	0.000000e+00	8.095238e-01	2.440104e+14	3.124665e+14	5.287274e+13	1.193247e+04	5.061189e+03	4.258830e+03	0	6.355913e-04
1.180000e+09	1.078989e+13	0.000000e+00	8.095238e-01	2.430084e+14	3.119399e+14	5.264549e+13	1.192333e+04	5.059802e+03	4.257664e+03	0	6.337402e-04
1.190000e+09	1.069550e+13	0.000000e+00	8.095238e-01	2.420109e+14	3.113903e+14	5.241975e+13	1.191423e+04	5.058354e+03	4.256445e+03	0	6.318868e-04
1.200000e+09	1.060154e+13	0.000000e+00	8.095238e-01	2.410179e+14	3.108191e+14	5.219551e+13	1.190517e+04	5.056846e+03	4.255176e+03	0	6.300310e-04
1.210000e+09	1.050803e+13	0.000000e+00	8.095238e-01	2.400296e+14	3.102271e+14	5.197275e+13	1.189615e+04	5.055281e+03	4.253859e+03	0	6.281731e-04
1.220000e+09	1.041496e+13	0.000000e+00	8.095238e-01	2.390459e+14	3.096152e+14	5.175147e+13	1.188716e+04	5.053661e+03	4.252496e+03	0	6.263131e-04
1.230000e+09	1.032235e+13	0.000000e+00	8.095238e-01	2.380670e+14	3.089845e+14	5.153165e+13	1.187821e+04	5.051989e+03	4.251089e+03	0	6.244511e-04
1.240000e+09	1.023019e+13	0.000000e+00	8.095238e-01	2.370927e+14	3.083359e+14	5.131329e+13	1.186929e+04	5.050267e+03	4.249640e+03	0	6.225872e-04
1.250000e+09	1.013849e+13	0.000000e+00	8.095238e-01	2.361233e+14	3.076703e+14	5.109637e+13	1.186042e+04	5.048497e+03	4.248151e+03	0	6.207215e-04
1.260000e+09	1.004727e+13	0.000000e+00	8.095238e-01	2.351587e+14	3.069885e+14	5.088088e+13	1.185157e+04	5.046681e+03	4.246623e+03	0	6.188541e-04
1.270000e+09	9.956507e+12	0.000000e+00	8.095238e-01	2.341989e+14	3.062914e+14	5.066681e+13	1.184277e+04	5.044821e+03	4.245057e+03	0	6.169850e-04
1.280000e+09	9.866219e+12	0.000000e+00	8.095238e-01	2.332440e+14	3.055796e+14	5.045414e+13	1.183400e+04	5.042919e+03	4.243457e+03	0	6.151144e-04
1.290000e+09	9.776407e+12	0.000000e+00	8.095238e-01	2.322940e+14	3.048542e+14	5.024288e+13	1.182527e+04	5.040976e+03	4.241822e+03	0	6.132422e-04
1.300000e+09	9.687073e+12	0.000000e+00	8.095238e-01	2.313489e+14	3.041156e+14	5.003300e+13	1.181657e+04	5.038995e+03	4.240155e+03	0	6.113686e-04
1.310000e+09	9.598218e+12	0.000000e+00	8.095238e-01	2.304088e+14	3.033647e+14	4.982449e+13	1.180791e+04	5.036977e+03	4.238457e+03	0	6.094936e-04
1.320000e+09	9.509845e+12	0.000000e+00	8.095238e-01	2.294736e+14	3.026021e+14	4.961735e+13	1.179928e+04	5.034924e+03	4.236730e+03	0	6.076172e-04
1.330000e+09	9.421955e+12	0.000000e+00	8.095238e-01	2.285434e+14	3.018286e+14	4.941157e+13	1.179068e+04	5.032838e+03	4.234974e+03	0	6.057396e-04
1.340000e+09	9.334550e+12	0.000000e+00	8.095238e-01	2.276182e+14	3.010446e+14	4.920713e+13	1.178213e+04	5.030719e+03	4.233192e+03	0	6.038607e-04
1.350000e+09	9.247631e+12	0.000000e+00	8.095238e-01	2.266979e+14	3.002509e+14	4.900403e+13	1.177360e+04	5.028570e+03	4.231383e+03	0	6.019805e-04
1.360000e+09	9.161199e+12	0.000000e+00	8.095238e-01	2.257827e+14	2.994481e+14	4.880225e+13	1.176511e+04	5.026392e+03	4.229550e+03	0	6.000992e-04
