#t		Qconv[W]	Ri[Rp]		R*[Rp]		Qc[W]		Qm[W]		Qr[W]		Tcmb[K]		Tl[K]		Tup[K]		RiFlag		Bs[T]
0.000000e+00	1.925070e+13	0.000000e+00	8.095239e-01	3.922129e+14	2.267772e+13	1.070655e+14	1.430287e+04	3.559316e+03	2.967100e+03	0	7.623091e-04
1.000000e+07	1.947018e+13	0.000000e+00	8.095239e-01	3.939431e+14	2.462528e+13	1.064723e+14	1.429046e+04	3.596938e+03	2.998462e+03	0	7.651952e-04
2.000000e+07	1.968547e+13	0.000000e+00	8.095239e-01	3.956357e+14	2.669830e+13	1.058835e+14	1.427800e+04	3.634492e+03	3.029768e+03	0	7.680052e-04
3.000000e+07	1.989641e+13	0.000000e+00	8.095239e-01	3.972893e+14	2.890121e+13	1.052991e+14	1.426549e+04	3.671964e+03	3.061005e+03	0	7.707387e-04
4.000000e+07	2.010286e+13	0.000000e+00	8.095239e-01	3.989028e+14	3.123829e+13	1.047191e+14	1.425293e+04	3.709342e+03	3.092163e+03	0	7.733953e-04
5.000000e+07	2.030466e+13	0.000000e+00	8.095239e-01	4.004747e+14	3.371362e+13	1.041434e+14	1.424031e+04	3.746610e+03	3.123231e+03	0	7.759746e-04
6.000000e+07	2.050166e+13	0.000000e+00	8.095239e-01	4.020038e+14	3.633109e+13	1.035720e+14	1.422765e+04	3.783757e+03	3.154197e+03	0	7.784761e-04
7.000000e+07	2.069372e+13	0.000000e+00	8.095239e-01	4.034887e+14	3.909433e+13	1.030049e+14	1.421493e+04	3.820766e+03	3.185049e+03	0	7.808994e-04
8.000000e+07	2.088068e+13	0.000000e+00	8.095239e-01	4.049283e+14	4.200670e+13	1.024419e+14	1.420217e+04	3.857624e+03	3.215774e+03	0	7.832441e-04
9.000000e+07	2.106241e+13	0.000000e+00	8.095239e-01	4.063213e+14	4.507121e+13	1.018832e+14	1.418937e+04	3.894314e+03	3.246360e+03	0	7.855097e-04
1.000000e+08	2.123875e+13	0.000000e+00	8.095239e-01	4.076664e+14	4.829055e+13	1.013286e+14	1.417652e+04	3.930822e+03	3.276793e+03	0	7.876959e-04
1.100000e+08	2.140958e+13	0.000000e+00	8.095239e-01	4.089625e+14	5.166705e+13	1.007781e+14	1.416363e+04	3.967132e+03	3.307062e+03	0	7.898021e-04
1.200000e+08	2.157476e+13	0.000000e+00	8.095239e-01	4.102084e+14	5.520259e+13	1.002317e+14	1.415069e+04	4.003228e+03	3.337152e+03	0	7.918281e-04
1.300000e+08	2.173416e+13	0.000000e+00	8.095239e-01	4.114030e+14	5.889862e+13	9.968936e+13	1.413772e+04	4.039093e+03	3.367049e+03	0	7.937734e-04
1.400000e+08	2.188765e+13	0.000000e+00	8.095239e-01	4.125453e+14	6.275612e+13	9.915101e+13	1.412471e+04	4.074710e+03	3.396741e+03	0	7.956376e-04
1.500000e+08	2.203513e+13	0.000000e+00	8.095239e-01	4.136343e+14	6.677556e+13	9.861665e+13	1.411167e+04	4.110064e+03	3.426212e+03	0	7.974206e-04
1.600000e+08	2.217647e+13	0.000000e+00	8.095239e-01	4.146689e+14	7.095689e+13	9.808624e+13	1.409859e+04	4.145138e+03	3.455450e+03	0	7.991219e-04
1.700000e+08	2.231156e+13	0.000000e+00	8.095239e-01	4.156483e+14	7.529951e+13	9.755974e+13	1.408547e+04	4.179914e+03	3.484440e+03	0	8.007413e-04
1.800000e+08	2.244032e+13	0.000000e+00	8.095239e-01	4.165717e+14	7.980227e+13	9.703712e+13	1.407233e+04	4.214376e+03	3.513168e+03	0	8.022787e-04
1.900000e+08	2.256266e+13	0.000000e+00	8.095239e-01	4.174383e+14	8.446341e+13	9.651835e+13	1.405916e+04	4.248507e+03	3.541620e+03	0	8.037339e-04
2.000000e+08	2.267848e+13	0.000000e+00	8.095239e-01	4.182473e+14	8.928059e+13	9.600339e+13	1.404596e+04	4.282291e+03	3.569783e+03	0	8.051069e-04
2.100000e+08	2.278771e+13	0.000000e+00	8.095239e-01	4.189983e+14	9.425085e+13	9.549223e+13	1.403273e+04	4.315711e+03	3.597643e+03	0	8.063975e-04
2.200000e+08	2.289030e+13	0.000000e+00	8.095239e-01	4.196906e+14	9.937065e+13	9.498482e+13	1.401948e+04	4.348751e+03	3.625185e+03	0	8.076058e-04
2.300000e+08	2.298619e+13	0.000000e+00	8.095239e-01	4.203238e+14	1.046358e+14	9.448113e+13	1.400621e+04	4.381395e+03	3.652397e+03	0	8.087318e-04
2.400000e+08	2.307532e+13	0.000000e+00	8.095239e-01	4.208975e+14	1.100416e+14	9.398113e+13	1.399292e+04	4.413626e+03	3.679266e+03	0	8.097758e-04
2.500000e+08	2.315767e+13	0.000000e+00	8.095239e-01	4.214114e+14	1.155826e+14	9.348480e+13	1.397961e+04	4.445431e+03	3.705779e+03	0	8.107380e-04
2.600000e+08	2.323321e+13	0.000000e+00	8.095239e-01	4.218654e+14	1.212530e+14	9.299210e+13	1.396628e+04	4.476793e+03	3.731923e+03	0	8.116185e-04
2.700000e+08	2.330192e+13	0.000000e+00	8.095239e-01	4.222593e+14	1.270461e+14	9.250300e+13	1.395294e+04	4.507698e+03	3.757686e+03	0	8.124179e-04
2.800000e+08	2.336380e+13	0.000000e+00	8.095239e-01	4.225931e+14	1.329551e+14	9.201747e+13	1.393959e+04	4.538133e+03	3.783057e+03	0	8.131364e-04
2.900000e+08	2.341886e+13	0.000000e+00	8.095239e-01	4.228670e+14	1.389723e+14	9.153549e+13	1.392623e+04	4.568084e+03	3.808025e+03	0	8.137746e-04
3.000000e+08	2.346710e+13	0.000000e+00	8.095239e-01	4.230810e+14	1.450898e+14	9.105702e+13	1.391285e+04	4.597539e+03	3.832578e+03	0	8.143330e-04
3.100000e+08	2.350856e+13	0.000000e+00	8.095239e-01	4.232354e+14	1.512990e+14	9.058204e+13	1.389948e+04	4.626485e+03	3.856708e+03	0	8.148123e-04
3.200000e+08	2.354327e+13	0.000000e+00	8.095239e-01	4.233306e+14	1.575913e+14	9.011051e+13	1.388609e+04	4.654911e+03	3.880404e+03	0	8.152132e-04
3.300000e+08	2.357129e+13	0.000000e+00	8.095239e-01	4.233671e+14	1.639573e+14	8.964241e+13	1.387271e+04	4.682806e+03	3.903658e+03	0	8.155364e-04
3.400000e+08	2.359265e+13	0.000000e+00	8.095239e-01	4.233452e+14	1.703875e+14	8.917771e+13	1.385932e+04	4.710160e+03	3.926461e+03	0	8.157827e-04
3.500000e+08	2.360744e+13	0.000000e+00	8.095239e-01	4.232657e+14	1.768723e+14	8.871638e+13	1.384593e+04	4.736966e+03	3.948806e+03	0	8.159531e-04
3.600000e+08	2.361573e+13	0.000000e+00	8.095239e-01	4.231292e+14	1.834016e+14	8.825840e+13	1.383255e+04	4.763213e+03	3.970687e+03	0	8.160486e-04
3.700000e+08	2.361759e+13	0.000000e+00	8.095239e-01	4.229365e+14	1.899652e+14	8.780373e+13	1.381917e+04	4.788895e+03	3.992096e+03	0	8.160700e-04
3.800000e+08	2.361312e+13	0.000000e+00	8.095239e-01	4.226884e+14	1.965531e+14	8.735235e+13	1.380579e+04	4.814006e+03	4.013028e+03	0	8.160186e-04
3.900000e+08	2.360243e+13	0.000000e+00	8.095239e-01	4.223858e+14	2.031548e+14	8.690424e+13	1.379243e+04	4.838539e+03	4.033480e+03	0	8.158954e-04
4.000000e+08	2.358562e+13	0.000000e+00	8.095239e-01	4.220298e+14	2.097601e+14	8.645936e+13	1.377907e+04	4.862490e+03	4.053446e+03	0	8.157016e-04
4.100000e+08	2.356280e+13	0.000000e+00	8.095239e-01	4.216212e+14	2.163587e+14	8.601769e+13	1.376573e+04	4.885856e+03	4.072924e+03	0	8.154384e-04
4.200000e+08	2.353409e+13	0.000000e+00	8.095239e-01	4.211613e+14	2.229405e+14	8.557921e+13	1.375239e+04	4.908632e+03	4.091911e+03	0	8.151072e-04
4.300000e+08	2.349963e+13	0.000000e+00	8.095239e-01	4.206512e+14	2.294956e+14	8.514388e+13	1.373908e+04	4.930818e+03	4.110405e+03	0	8.147092e-04
4.400000e+08	2.345955e+13	0.000000e+00	8.095239e-01	4.200920e+14	2.360141e+14	8.471168e+13	1.372577e+04	4.952412e+03	4.128406e+03	0	8.142457e-04
4.500000e+08	2.341398e+13	0.000000e+00	8.095239e-01	4.194850e+14	2.424864e+14	8.428259e+13	1.371249e+04	4.973413e+03	4.145913e+03	0	8.137182e-04
4.600000e+08	2.336307e+13	0.000000e+00	8.095239e-01	4.188315e+14	2.489033e+14	8.385658e+13	1.369923e+04	4.993822e+03	4.162926e+03	0	8.131280e-04
4.700000e+08	2.330697e+13	0.000000e+00	8.095239e-01	4.181327e+14	2.552558e+14	8.343363e+13	1.368598e+04	5.013640e+03	4.179447e+03	0	8.124765e-04
4.800000e+08	2.324581e+13	0.000000e+00	8.095239e-01	4.173900e+14	2.615354e+14	8.301370e+13	1.367276e+04	5.032870e+03	4.195477e+03	0	8.117653e-04
4.900000e+08	2.317976e+13	0.000000e+00	8.095239e-01	4.166048e+14	2.677337e+14	8.259678e+13	1.365956e+04	5.051514e+03	4.211019e+03	0	8.109957e-04
5.000000e+08	2.310897e+13	0.000000e+00	8.095239e-01	4.157784e+14	2.738431e+14	8.218285e+13	1.364639e+04	5.069576e+03	4.226075e+03	0	8.101693e-04
5.100000e+08	2.303359e+13	0.000000e+00	8.095239e-01	4.149123e+14	2.798559e+14	8.177187e+13	1.363324e+04	5.087060e+03	4.240650e+03	0	8.092874e-04
5.200000e+08	2.295379e+13	0.000000e+00	8.095239e-01	4.140077e+14	2.857655e+14	8.136382e+13	1.362012e+04	5.103971e+03	4.254748e+03	0	8.083517e-04
5.300000e+08	2.286972e+13	0.000000e+00	8.095239e-01	4.130662e+14	2.915652e+14	8.095869e+13	1.360703e+04	5.120315e+03	4.268372e+03	0	8.073636e-04
5.400000e+08	2.278154e+13	0.000000e+00	8.095239e-01	4.120891e+14	2.972492e+14	8.055644e+13	1.359396e+04	5.136098e+03	4.281529e+03	0	8.063246e-04
5.500000e+08	2.268940e+13	0.000000e+00	8.095239e-01	4.110778e+14	3.028119e+14	8.015705e+13	1.358093e+04	5.151327e+03	4.294224e+03	0	8.052361e-04
5.600000e+08	2.259347e+13	0.000000e+00	8.095239e-01	4.100338e+14	3.082482e+14	7.976050e+13	1.356793e+04	5.166009e+03	4.306463e+03	0	8.040997e-04
5.700000e+08	2.249390e+13	0.000000e+00	8.095239e-01	4.089584e+14	3.135536e+14	7.936676e+13	1.355497e+04	5.180152e+03	4.318253e+03	0	8.029167e-04
5.800000e+08	2.239085e+13	0.000000e+00	8.095239e-01	4.078530e+14	3.187242e+14	7.897583e+13	1.354203e+04	5.193764e+03	4.329601e+03	0	8.016887e-04
5.900000e+08	2.228447e+13	0.000000e+00	8.095239e-01	4.067190e+14	3.237564e+14	7.858766e+13	1.352914e+04	5.206854e+03	4.340513e+03	0	8.004171e-04
6.000000e+08	2.217492e+13	0.000000e+00	8.095239e-01	4.055577e+14	3.286469e+14	7.820224e+13	1.351627e+04	5.219431e+03	4.350997e+03	0	7.991033e-04
6.100000e+08	2.206234e+13	0.000000e+00	8.095239e-01	4.043704e+14	3.333933e+14	7.781954e+13	1.350345e+04	5.231504e+03	4.361062e+03	0	7.977487e-04
6.200000e+08	2.194688e+13	0.000000e+00	8.095239e-01	4.031585e+14	3.379935e+14	7.743955e+13	1.349066e+04	5.243084e+03	4.370714e+03	0	7.963546e-04
6.300000e+08	2.182868e+13	0.000000e+00	8.095239e-01	4.019232e+14	3.424455e+14	7.706224e+13	1.347791e+04	5.254179e+03	4.379963e+03	0	7.949224e-04
6.400000e+08	2.170789e+13	0.000000e+00	8.095239e-01	4.006657e+14	3.467483e+14	7.668760e+13	1.346520e+04	5.264800e+03	4.388817e+03	0	7.934535e-04
6.500000e+08	2.158465e+13	0.000000e+00	8.095239e-01	3.993874e+14	3.509009e+14	7.631559e+13	1.345253e+04	5.274957e+03	4.397285e+03	0	7.919490e-04
6.600000e+08	2.145909e+13	0.000000e+00	8.095239e-01	3.980894e+14	3.549026e+14	7.594620e+13	1.343990e+04	5.284662e+03	4.405374e+03	0	7.904104e-04
6.700000e+08	2.133134e+13	0.000000e+00	8.095239e-01	3.967729e+14	3.587536e+14	7.557941e+13	1.342731e+04	5.293923e+03	4.413095e+03	0	7.888389e-04
6.800000e+08	2.120154e+13	0.000000e+00	8.095239e-01	3.954390e+14	3.624538e+14	7.521519e+13	1.341476e+04	5.302753e+03	4.420455e+03	0	7.872355e-04
6.900000e+08	2.106980e+13	0.000000e+00	8.095239e-01	3.940888e+14	3.660039e+14	7.485353e+13	1.340226e+04	5.311161e+03	4.427465e+03	0	7.856017e-04
7.000000e+08	2.093626e+13	0.000000e+00	8.095239e-01	3.927234e+14	3.694046e+14	7.449440e+13	1.338980e+04	5.319159e+03	4.434132e+03	0	7.839384e-04
7.100000e+08	2.080102e+13	0.000000e+00	8.095239e-01	3.913439e+14	3.726573e+14	7.413779e+13	1.337738e+04	5.326758e+03	4.440466e+03	0	7.822468e-04
7.200000e+08	2.066421e+13	0.000000e+00	8.095239e-01	3.899512e+14	3.757630e+14	7.378367e+13	1.336500e+04	5.333967e+03	4.446476e+03	0	7.805280e-04
7.300000e+08	2.052593e+13	0.000000e+00	8.095239e-01	3.885463e+14	3.787237e+14	7.343203e+13	1.335267e+04	5.340798e+03	4.452171e+03	0	7.787831e-04
7.400000e+08	2.038629e+13	0.000000e+00	8.095239e-01	3.871303e+14	3.815408e+14	7.308284e+13	1.334038e+04	5.347262e+03	4.457559e+03	0	7.770131e-04
7.500000e+08	2.024540e+13	0.000000e+00	8.095239e-01	3.857039e+14	3.842168e+14	7.273608e+13	1.332814e+04	5.353368e+03	4.462649e+03	0	7.752189e-04
7.600000e+08	2.010336e+13	0.000000e+00	8.095239e-01	3.842682e+14	3.867538e+14	7.239175e+13	1.331594e+04	5.359129e+03	4.467451e+03	0	7.734017e-04
7.700000e+08	1.996025e+13	0.000000e+00	8.095239e-01	3.828239e+14	3.891539e+14	7.204980e+13	1.330378e+04	5.364552e+03	4.471972e+03	0	7.715622e-04
7.800000e+08	1.981619e+13	0.000000e+00	8.095239e-01	3.813718e+14	3.914200e+14	7.171024e+13	1.329168e+04	5.369650e+03	4.476222e+03	0	7.697014e-04
7.900000e+08	1.967124e+13	0.000000e+00	8.095239e-01	3.799127e+14	3.935547e+14	7.137303e+13	1.327962e+04	5.374433e+03	4.480209e+03	0	7.678201e-04
8.000000e+08	1.952551e+13	0.000000e+00	8.095239e-01	3.784475e+14	3.955605e+14	7.103816e+13	1.326760e+04	5.378909e+03	4.483940e+03	0	7.659193e-04
8.100000e+08	1.937907e+13	0.000000e+00	8.095239e-01	3.769768e+14	3.974405e+14	7.070561e+13	1.325563e+04	5.383089e+03	4.487425e+03	0	7.639997e-04
8.200000e+08	1.923200e+13	0.000000e+00	8.095239e-01	3.755013e+14	3.991977e+14	7.037536e+13	1.324371e+04	5.386982e+03	4.490670e+03	0	7.620622e-04
8.300000e+08	1.908438e+13	0.000000e+00	8.095239e-01	3.740217e+14	4.008349e+14	7.004739e+13	1.323183e+04	5.390599e+03	4.493685e+03	0	7.601073e-04
8.400000e+08	1.893628e+13	0.000000e+00	8.095239e-01	3.725387e+14	4.023552e+14	6.972170e+13	1.322000e+04	5.393947e+03	4.496476e+03	0	7.581360e-04
8.500000e+08	1.878777e+13	0.000000e+00	8.095239e-01	3.710527e+14	4.037618e+14	6.939824e+13	1.320822e+04	5.397037e+03	4.499052e+03	0	7.561489e-04
8.600000e+08	1.863892e+13	0.000000e+00	8.095239e-01	3.695646e+14	4.050578e+14	6.907702e+13	1.319649e+04	5.399876e+03	4.501419e+03	0	7.541467e-04
8.700000e+08	1.848979e+13	0.000000e+00	8.095239e-01	3.680747e+14	4.062464e+14	6.875801e+13	1.318480e+04	5.402474e+03	4.503585e+03	0	7.521300e-04
8.800000e+08	1.834045e+13	0.000000e+00	8.095239e-01	3.665836e+14	4.073306e+14	6.844119e+13	1.317316e+04	5.404840e+03	4.505556e+03	0	7.500995e-04
8.900000e+08	1.819094e+13	0.000000e+00	8.095239e-01	3.650918e+14	4.083135e+14	6.812655e+13	1.316156e+04	5.406980e+03	4.507341e+03	0	7.480557e-04
9.000000e+08	1.804133e+13	0.000000e+00	8.095239e-01	3.635999e+14	4.091984e+14	6.781407e+13	1.315001e+04	5.408903e+03	4.508944e+03	0	7.459993e-04
9.100000e+08	1.789167e+13	0.000000e+00	8.095239e-01	3.621083e+14	4.099883e+14	6.750373e+13	1.313851e+04	5.410618e+03	4.510373e+03	0	7.439307e-04
9.200000e+08	1.774200e+13	0.000000e+00	8.095239e-01	3.606174e+14	4.106865e+14	6.719552e+13	1.312706e+04	5.412131e+03	4.511635e+03	0	7.418506e-04
9.300000e+08	1.759238e+13	0.000000e+00	8.095239e-01	3.591276e+14	4.112959e+14	6.688941e+13	1.311565e+04	5.413450e+03	4.512734e+03	0	7.397593e-04
9.400000e+08	1.744285e+13	0.000000e+00	8.095239e-01	3.576394e+14	4.118194e+14	6.658540e+13	1.310430e+04	5.414582e+03	4.513678e+03	0	7.376575e-04
9.500000e+08	1.729346e+13	0.000000e+00	8.095239e-01	3.561530e+14	4.122601e+14	6.628346e+13	1.309298e+04	5.415535e+03	4.514472e+03	0	7.355455e-04
9.600000e+08	1.714425e+13	0.000000e+00	8.095239e-01	3.546690e+14	4.126209e+14	6.598358e+13	1.308172e+04	5.416314e+03	4.515121e+03	0	7.334239e-04
9.700000e+08	1.699525e+13	0.000000e+00	8.095239e-01	3.531876e+14	4.129048e+14	6.568575e+13	1.307050e+04	5.416926e+03	4.515632e+03	0	7.312930e-04
9.800000e+08	1.684650e+13	0.000000e+00	8.095239e-01	3.517091e+14	4.131145e+14	6.538994e+13	1.305933e+04	5.417379e+03	4.516009e+03	0	7.291532e-04
9.900000e+08	1.669804e+13	0.000000e+00	8.095239e-01	3.502339e+14	4.132527e+14	6.509614e+13	1.304820e+04	5.417677e+03	4.516258e+03	0	7.270050e-04
1.000000e+09	1.654990e+13	0.000000e+00	8.095239e-01	3.487622e+14	4.133223e+14	6.480433e+13	1.303713e+04	5.417827e+03	4.516383e+03	0	7.248486e-04
1.010000e+09	1.640210e+13	0.000000e+00	8.095239e-01	3.472943e+14	4.133259e+14	6.451451e+13	1.302609e+04	5.417834e+03	4.516389e+03	0	7.226845e-04
1.020000e+09	1.625470e+13	0.000000e+00	8.095239e-01	3.458304e+14	4.132660e+14	6.422665e+13	1.301511e+04	5.417705e+03	4.516281e+03	0	7.205130e-04
1.030000e+09	1.610769e+13	0.000000e+00	8.095239e-01	3.443709e+14	4.131451e+14	6.394073e+13	1.300417e+04	5.417445e+03	4.516064e+03	0	7.183345e-04
1.040000e+09	1.596113e+13	0.000000e+00	8.095239e-01	3.429159e+14	4.129658e+14	6.365675e+13	1.299328e+04	5.417058e+03	4.515742e+03	0	7.161491e-04
1.050000e+09	1.581502e+13	0.000000e+00	8.095239e-01	3.414657e+14	4.127304e+14	6.337468e+13	1.298243e+04	5.416550e+03	4.515318e+03	0	7.139572e-04
1.060000e+09	1.566940e+13	0.000000e+00	8.095239e-01	3.400204e+14	4.124413e+14	6.309452e+13	1.297163e+04	5.415926e+03	4.514798e+03	0	7.117591e-04
1.070000e+09	1.552428e+13	0.000000e+00	8.095239e-01	3.385802e+14	4.121006e+14	6.281625e+13	1.296087e+04	5.415190e+03	4.514185e+03	0	7.095551e-04
1.080000e+09	1.537969e+13	0.000000e+00	8.095239e-01	3.371454e+14	4.117108e+14	6.253984e+13	1.295016e+04	5.414347e+03	4.513482e+03	0	7.073453e-04
1.090000e+09	1.523565e+13	0.000000e+00	8.095239e-01	3.357161e+14	4.112737e+14	6.226530e+13	1.293950e+04	5.413402e+03	4.512694e+03	0	7.051300e-04
1.100000e+09	1.509216e+13	0.000000e+00	8.095239e-01	3.342924e+14	4.107915e+14	6.199260e+13	1.292888e+04	5.412358e+03	4.511824e+03	0	7.029095e-04
1.110000e+09	1.494926e+13	0.000000e+00	8.095239e-01	3.328745e+14	4.102663e+14	6.172173e+13	1.291831e+04	5.411220e+03	4.510875e+03	0	7.006839e-04
1.120000e+09	1.480696e+13	0.000000e+00	8.095239e-01	3.314625e+14	4.096999e+14	6.145267e+13	1.290778e+04	5.409992e+03	4.509851e+03	0	6.984535e-04
1.130000e+09	1.466526e+13	0.000000e+00	8.095239e-01	3.300565e+14	4.090942e+14	6.118541e+13	1.289729e+04	5.408677e+03	4.508755e+03	0	6.962184e-04
1.140000e+09	1.452419e+13	0.000000e+00	8.095239e-01	3.286568e+14	4.084510e+14	6.091994e+13	1.288685e+04	5.407279e+03	4.507590e+03	0	6.939788e-04
1.150000e+09	1.438376e+13	0.000000e+00	8.095239e-01	3.272633e+14	4.077721e+14	6.065625e+13	1.287645e+04	5.405801e+03	4.506358e+03	0	6.917349e-04
1.160000e+09	1.424397e+13	0.000000e+00	8.095239e-01	3.258762e+14	4.070591e+14	6.039431e+13	1.286610e+04	5.404248e+03	4.505063e+03	0	6.894868e-04
1.170000e+09	1.410485e+13	0.000000e+00	8.095239e-01	3.244956e+14	4.063139e+14	6.013411e+13	1.285579e+04	5.402622e+03	4.503708e+03	0	6.872347e-04
1.180000e+09	1.396640e+13	0.000000e+00	8.095239e-01	3.231215e+14	4.055379e+14	5.987565e+13	1.284553e+04	5.400926e+03	4.502294e+03	0	6.849787e-04
1.190000e+09	1.382863e+13	0.000000e+00	8.095239e-01	3.217541e+14	4.047324e+14	5.961891e+13	1.283531e+04	5.399164e+03	4.500825e+03	0	6.827189e-04
1.200000e+09	1.369154e+13	0.000000e+00	8.095239e-01	3.203934e+14	4.038992e+14	5.936387e+13	1.282513e+04	5.397338e+03	4.499303e+03	0	6.804555e-04
1.210000e+09	1.355516e+13	0.000000e+00	8.095239e-01	3.190395e+14	4.030396e+14	5.911052e+13	1.281499e+04	5.395452e+03	4.497730e+03	0	6.781885e-04
1.220000e+09	1.341947e+13	0.000000e+00	8.095239e-01	3.176924e+14	4.021550e+14	5.885885e+13	1.280490e+04	5.393507e+03	4.496109e+03	0	6.759181e-04
1.230000e+09	1.328450e+13	0.000000e+00	8.095239e-01	3.163521e+14	4.012465e+14	5.860884e+13	1.279485e+04	5.391506e+03	4.494442e+03	0	6.736443e-04
1.240000e+09	1.315024e+13	0.000000e+00	8.095239e-01	3.150189e+14	4.003156e+14	5.836049e+13	1.278484e+04	5.389453e+03	4.492730e+03	0	6.713673e-04
1.250000e+09	1.301671e+13	0.000000e+00	8.095239e-01	3.136926e+14	3.993635e+14	5.811378e+13	1.277488e+04	5.387349e+03	4.490976e+03	0	6.690870e-04
1.260000e+09	1.288390e+13	0.000000e+00	8.095239e-01	3.123733e+14	3.983912e+14	5.786869e+13	1.276495e+04	5.385197e+03	4.489182e+03	0	6.668037e-04
1.270000e+09	1.275182e+13	0.000000e+00	8.095239e-01	3.110611e+14	3.974000e+14	5.762522e+13	1.275507e+04	5.382999e+03	4.487350e+03	0	6.645173e-04
1.280000e+09	1.262047e+13	0.000000e+00	8.095239e-01	3.097560e+14	3.963908e+14	5.738335e+13	1.274523e+04	5.380757e+03	4.485481e+03	0	6.622279e-04
1.290000e+09	1.248986e+13	0.000000e+00	8.095239e-01	3.084579e+14	3.953648e+14	5.714307e+13	1.273543e+04	5.378473e+03	4.483577e+03	0	6.599355e-04
1.300000e+09	1.236000e+13	0.000000e+00	8.095239e-01	3.071671e+14	3.943229e+14	5.690437e+13	1.272567e+04	5.376149e+03	4.481640e+03	0	6.576402e-04
1.310000e+09	1.223087e+13	0.000000e+00	8.095239e-01	3.058833e+14	3.932661e+14	5.666723e+13	1.271595e+04	5.373787e+03	4.479671e+03	0	6.553420e-04
1.320000e+09	1.210249e+13	0.000000e+00	8.095239e-01	3.046067e+14	3.921952e+14	5.643164e+13	1.270628e+04	5.371389e+03	4.477672e+03	0	6.530410e-04
1.330000e+09	1.197485e+13	0.000000e+00	8.095239e-01	3.033373e+14	3.911113e+14	5.619760e+13	1.269664e+04	5.368957e+03	4.475644e+03	0	6.507372e-04
1.340000e+09	1.184797e+13	0.000000e+00	8.095239e-01	3.020750e+14	3.900151e+14	5.596508e+13	1.268704e+04	5.366492e+03	4.473590e+03	0	6.484306e-04
1.350000e+09	1.172182e+13	0.000000e+00	8.095239e-01	3.008199e+14	3.889074e+14	5.573408e+13	1.267749e+04	5.363996e+03	4.471509e+03	0	6.461212e-04
1.360000e+09	1.159643e+13	0.000000e+00	8.095239e-01	2.995721e+14	3.877890e+14	5.550459e+13	1.266797e+04	5.361471e+03	4.469404e+03	0	6.438090e-04
