#t		Qconv[W]	Ri[Rp]		R*[Rp]		Qc[W]		Qm[W]		Qr[W]		Tcmb[K]		Tl[K]		Tup[K]		RiFlag		Bs[T]
0.000000e+00	4.202792e+12	0.000000e+00	5.283019e-01	1.882257e+14	3.565953e+13	5.313255e+13	7.215316e+03	2.732260e+03	2.232455e+03	0	6.303518e-04
1.000000e+07	3.944746e+12	0.000000e+00	5.283019e-01	1.767366e+14	3.851622e+13	5.283815e+13	7.107669e+03	2.765479e+03	2.259598e+03	0	6.171774e-04
2.000000e+07	3.710646e+12	0.000000e+00	5.283019e-01	1.663130e+14	4.131920e+13	5.254596e+13	7.006447e+03	2.796319e+03	2.284797e+03	0	6.047189e-04
3.000000e+07	3.497528e+12	0.000000e+00	5.283019e-01	1.568229e+14	4.405725e+13	5.225595e+13	6.911067e+03	2.824965e+03	2.308202e+03	0	5.929127e-04
4.000000e+07	3.302886e+12	0.000000e+00	5.283019e-01	1.481550e+14	4.672089e+13	5.196811e+13	6.821019e+03	2.851580e+03	2.329949e+03	0	5.817033e-04
5.000000e+07	3.124586e+12	0.000000e+00	5.283019e-01	1.402143e+14	4.930226e+13	5.168242e+13	6.735850e+03	2.876311e+03	2.350155e+03	0	5.710417e-04
6.000000e+07	2.960804e+12	0.000000e+00	5.283019e-01	1.329197e+14	5.179496e+13	5.139885e+13	6.655159e+03	2.899290e+03	2.368931e+03	0	5.608847e-04
7.000000e+07	2.809970e+12	0.000000e+00	5.283019e-01	1.262013e+14	5.419388e+13	5.111739e+13	6.578589e+03	2.920638e+03	2.386374e+03	0	5.511937e-04
8.000000e+07	2.670727e+12	0.000000e+00	5.283019e-01	1.199987e+14	5.649513e+13	5.083803e+13	6.505821e+03	2.940464e+03	2.402574e+03	0	5.419346e-04
9.000000e+07	2.541895e+12	0.000000e+00	5.283019e-01	1.142596e+14	5.869585e+13	5.056075e+13	6.436568e+03	2.958870e+03	2.417612e+03	0	5.330765e-04
1.000000e+08	2.422446e+12	0.000000e+00	5.283019e-01	1.089380e+14	6.079418e+13	5.028552e+13	6.370573e+03	2.975946e+03	2.431565e+03	0	5.245921e-04
1.100000e+08	2.311477e+12	0.000000e+00	5.283019e-01	1.039939e+14	6.278903e+13	5.001234e+13	6.307602e+03	2.991779e+03	2.444502e+03	0	5.164562e-04
1.200000e+08	2.208194e+12	0.000000e+00	5.283019e-01	9.939195e+13	6.468011e+13	4.974118e+13	6.247444e+03	3.006447e+03	2.456486e+03	0	5.086465e-04
1.300000e+08	2.111897e+12	0.000000e+00	5.283019e-01	9.510096e+13	6.646777e+13	4.947203e+13	6.189909e+03	3.020023e+03	2.467579e+03	0	5.011425e-04
1.400000e+08	2.021964e+12	0.000000e+00	5.283019e-01	9.109328e+13	6.815290e+13	4.920487e+13	6.134821e+03	3.032574e+03	2.477834e+03	0	4.939255e-04
1.500000e+08	1.937842e+12	0.000000e+00	5.283019e-01	8.734433e+13	6.973687e+13	4.893969e+13	6.082022e+03	3.044163e+03	2.487303e+03	0	4.869785e-04
1.600000e+08	1.859040e+12	0.000000e+00	5.283019e-01	8.383218e+13	7.122150e+13	4.867647e+13	6.031365e+03	3.054850e+03	2.496035e+03	0	4.802860e-04
1.700000e+08	1.785115e+12	0.000000e+00	5.283019e-01	8.053721e+13	7.260890e+13	4.841518e+13	5.982718e+03	3.064689e+03	2.504074e+03	0	4.738335e-04
1.800000e+08	1.715673e+12	0.000000e+00	5.283019e-01	7.744180e+13	7.390154e+13	4.815583e+13	5.935958e+03	3.073731e+03	2.511462e+03	0	4.676079e-04
1.900000e+08	1.650357e+12	0.000000e+00	5.283019e-01	7.453014e+13	7.510206e+13	4.789838e+13	5.890972e+03	3.082025e+03	2.518239e+03	0	4.615970e-04
2.000000e+08	1.588847e+12	0.000000e+00	5.283019e-01	7.178792e+13	7.621331e+13	4.764283e+13	5.847657e+03	3.089615e+03	2.524440e+03	0	4.557895e-04
2.100000e+08	1.530852e+12	0.000000e+00	5.283019e-01	6.920224e+13	7.723830e+13	4.738916e+13	5.805916e+03	3.096543e+03	2.530102e+03	0	4.501750e-04
2.200000e+08	1.476109e+12	0.000000e+00	5.283019e-01	6.676140e+13	7.818009e+13	4.713735e+13	5.765660e+03	3.102850e+03	2.535254e+03	0	4.447437e-04
2.300000e+08	1.424381e+12	0.000000e+00	5.283019e-01	6.445478e+13	7.904190e+13	4.688739e+13	5.726808e+03	3.108572e+03	2.539930e+03	0	4.394866e-04
2.400000e+08	1.375449e+12	0.000000e+00	5.283019e-01	6.227271e+13	7.982690e+13	4.663926e+13	5.689282e+03	3.113743e+03	2.544155e+03	0	4.343953e-04
2.500000e+08	1.329116e+12	0.000000e+00	5.283019e-01	6.020638e+13	8.053833e+13	4.639295e+13	5.653013e+03	3.118398e+03	2.547959e+03	0	4.294619e-04
2.600000e+08	1.285201e+12	0.000000e+00	5.283019e-01	5.824776e+13	8.117941e+13	4.614844e+13	5.617935e+03	3.122567e+03	2.551365e+03	0	4.246789e-04
2.700000e+08	1.243539e+12	0.000000e+00	5.283019e-01	5.638948e+13	8.175335e+13	4.590572e+13	5.583985e+03	3.126278e+03	2.554397e+03	0	4.200395e-04
2.800000e+08	1.203978e+12	0.000000e+00	5.283019e-01	5.462480e+13	8.226328e+13	4.566477e+13	5.551107e+03	3.129560e+03	2.557078e+03	0	4.155372e-04
2.900000e+08	1.166380e+12	0.000000e+00	5.283019e-01	5.294753e+13	8.271233e+13	4.542558e+13	5.519248e+03	3.132437e+03	2.559429e+03	0	4.111659e-04
3.000000e+08	1.130617e+12	0.000000e+00	5.283019e-01	5.135199e+13	8.310353e+13	4.518813e+13	5.488357e+03	3.134934e+03	2.561470e+03	0	4.069198e-04
3.100000e+08	1.096570e+12	0.000000e+00	5.283019e-01	4.983294e+13	8.343983e+13	4.495242e+13	5.458387e+03	3.137074e+03	2.563218e+03	0	4.027935e-04
3.200000e+08	1.064132e+12	0.000000e+00	5.283019e-01	4.838555e+13	8.372411e+13	4.471842e+13	5.429296e+03	3.138878e+03	2.564692e+03	0	3.987820e-04
3.300000e+08	1.033203e+12	0.000000e+00	5.283019e-01	4.700538e+13	8.395918e+13	4.448611e+13	5.401042e+03	3.140366e+03	2.565908e+03	0	3.948804e-04
3.400000e+08	1.003690e+12	0.000000e+00	5.283019e-01	4.568830e+13	8.414774e+13	4.425550e+13	5.373586e+03	3.141557e+03	2.566881e+03	0	3.910841e-04
3.500000e+08	9.755078e+11	0.000000e+00	5.283019e-01	4.443052e+13	8.429238e+13	4.402656e+13	5.346892e+03	3.142470e+03	2.567627e+03	0	3.873890e-04
3.600000e+08	9.485770e+11	0.000000e+00	5.283019e-01	4.322849e+13	8.439561e+13	4.379928e+13	5.320926e+03	3.143121e+03	2.568159e+03	0	3.837908e-04
3.700000e+08	9.228244e+11	0.000000e+00	5.283019e-01	4.207896e+13	8.445986e+13	4.357365e+13	5.295657e+03	3.143525e+03	2.568489e+03	0	3.802857e-04
3.800000e+08	8.981816e+11	0.000000e+00	5.283019e-01	4.097889e+13	8.448742e+13	4.334965e+13	5.271054e+03	3.143699e+03	2.568631e+03	0	3.768701e-04
3.900000e+08	8.745853e+11	0.000000e+00	5.283019e-01	3.992545e+13	8.448052e+13	4.312727e+13	5.247088e+03	3.143655e+03	2.568596e+03	0	3.735405e-04
4.000000e+08	8.519766e+11	0.000000e+00	5.283019e-01	3.891602e+13	8.444125e+13	4.290649e+13	5.223734e+03	3.143408e+03	2.568394e+03	0	3.702936e-04
4.100000e+08	8.303005e+11	0.000000e+00	5.283019e-01	3.794815e+13	8.437165e+13	4.268731e+13	5.200965e+03	3.142970e+03	2.568035e+03	0	3.671263e-04
4.200000e+08	8.095060e+11	0.000000e+00	5.283019e-01	3.701958e+13	8.427366e+13	4.246970e+13	5.178757e+03	3.142352e+03	2.567531e+03	0	3.640355e-04
4.300000e+08	7.895452e+11	0.000000e+00	5.283019e-01	3.612816e+13	8.414910e+13	4.225367e+13	5.157089e+03	3.141566e+03	2.566888e+03	0	3.610184e-04
4.400000e+08	7.703736e+11	0.000000e+00	5.283019e-01	3.527192e+13	8.399971e+13	4.203918e+13	5.135938e+03	3.140622e+03	2.566117e+03	0	3.580724e-04
4.500000e+08	7.519496e+11	0.000000e+00	5.283019e-01	3.444900e+13	8.382713e+13	4.182624e+13	5.115285e+03	3.139530e+03	2.565225e+03	0	3.551948e-04
4.600000e+08	7.342342e+11	0.000000e+00	5.283019e-01	3.365767e+13	8.363298e+13	4.161483e+13	5.095109e+03	3.138300e+03	2.564220e+03	0	3.523832e-04
4.700000e+08	7.171909e+11	0.000000e+00	5.283019e-01	3.289630e+13	8.341874e+13	4.140493e+13	5.075394e+03	3.136940e+03	2.563108e+03	0	3.496353e-04
4.800000e+08	7.007855e+11	0.000000e+00	5.283019e-01	3.216336e+13	8.318580e+13	4.119654e+13	5.056121e+03	3.135458e+03	2.561898e+03	0	3.469488e-04
4.900000e+08	6.849861e+11	0.000000e+00	5.283019e-01	3.145744e+13	8.293551e+13	4.098964e+13	5.037275e+03	3.133863e+03	2.560594e+03	0	3.443216e-04
5.000000e+08	6.697625e+11	0.000000e+00	5.283019e-01	3.077720e+13	8.266917e+13	4.078422e+13	5.018839e+03	3.132161e+03	2.559204e+03	0	3.417517e-04
5.100000e+08	6.550865e+11	0.000000e+00	5.283019e-01	3.012137e+13	8.238793e+13	4.058026e+13	5.000799e+03	3.130360e+03	2.557732e+03	0	3.392370e-04
5.200000e+08	6.409316e+11	0.000000e+00	5.283019e-01	2.948877e+13	8.209296e+13	4.037777e+13	4.983140e+03	3.128465e+03	2.556184e+03	0	3.367758e-04
5.300000e+08	6.272729e+11	0.000000e+00	5.283019e-01	2.887829e+13	8.178532e+13	4.017671e+13	4.965850e+03	3.126484e+03	2.554566e+03	0	3.343663e-04
5.400000e+08	6.140868e+11	0.000000e+00	5.283019e-01	2.828889e+13	8.146602e+13	3.997709e+13	4.948915e+03	3.124423e+03	2.552881e+03	0	3.320068e-04
5.500000e+08	6.013513e+11	0.000000e+00	5.283019e-01	2.771959e+13	8.113600e+13	3.977889e+13	4.932324e+03	3.122285e+03	2.551135e+03	0	3.296956e-04
5.600000e+08	5.890455e+11	0.000000e+00	5.283019e-01	2.716944e+13	8.079617e+13	3.958210e+13	4.916064e+03	3.120078e+03	2.549331e+03	0	3.274311e-04
5.700000e+08	5.771497e+11	0.000000e+00	5.283019e-01	2.663759e+13	8.044736e+13	3.938670e+13	4.900125e+03	3.117805e+03	2.547474e+03	0	3.252120e-04
5.800000e+08	5.656455e+11	0.000000e+00	5.283019e-01	2.612319e+13	8.009040e+13	3.919270e+13	4.884495e+03	3.115471e+03	2.545567e+03	0	3.230367e-04
5.900000e+08	5.545154e+11	0.000000e+00	5.283019e-01	2.562548e+13	7.972600e+13	3.900006e+13	4.869166e+03	3.113081e+03	2.543614e+03	0	3.209038e-04
6.000000e+08	5.437428e+11	0.000000e+00	5.283019e-01	2.514372e+13	7.935488e+13	3.880879e+13	4.854127e+03	3.110638e+03	2.541618e+03	0	3.188121e-04
6.100000e+08	5.333120e+11	0.000000e+00	5.283019e-01	2.467721e+13	7.897772e+13	3.861888e+13	4.839368e+03	3.108147e+03	2.539583e+03	0	3.167603e-04
6.200000e+08	5.232084e+11	0.000000e+00	5.283019e-01	2.422528e+13	7.859512e+13	3.843030e+13	4.824882e+03	3.105611e+03	2.537511e+03	0	3.147472e-04
6.300000e+08	5.134178e+11	0.000000e+00	5.283019e-01	2.378733e+13	7.820766e+13	3.824306e+13	4.810659e+03	3.103034e+03	2.535405e+03	0	3.127716e-04
6.400000e+08	5.039272e+11	0.000000e+00	5.283019e-01	2.336275e+13	7.781590e+13	3.805713e+13	4.796692e+03	3.100418e+03	2.533267e+03	0	3.108324e-04
6.500000e+08	4.947239e+11	0.000000e+00	5.283019e-01	2.295099e+13	7.742037e+13	3.787252e+13	4.782973e+03	3.097767e+03	2.531101e+03	0	3.089285e-04
6.600000e+08	4.857960e+11	0.000000e+00	5.283019e-01	2.255152e+13	7.702153e+13	3.768921e+13	4.769494e+03	3.095084e+03	2.528909e+03	0	3.070589e-04
6.700000e+08	4.771322e+11	0.000000e+00	5.283019e-01	2.216384e+13	7.661983e+13	3.750718e+13	4.756248e+03	3.092371e+03	2.526692e+03	0	3.052225e-04
6.800000e+08	4.687219e+11	0.000000e+00	5.283019e-01	2.178746e+13	7.621570e+13	3.732644e+13	4.743229e+03	3.089631e+03	2.524454e+03	0	3.034185e-04
6.900000e+08	4.605548e+11	0.000000e+00	5.283019e-01	2.142194e+13	7.580955e+13	3.714696e+13	4.730429e+03	3.086867e+03	2.522195e+03	0	3.016459e-04
7.000000e+08	4.526214e+11	0.000000e+00	5.283019e-01	2.106684e+13	7.540173e+13	3.696874e+13	4.717843e+03	3.084080e+03	2.519918e+03	0	2.999038e-04
7.100000e+08	4.449123e+11	0.000000e+00	5.283019e-01	2.072176e+13	7.499260e+13	3.679176e+13	4.705464e+03	3.081273e+03	2.517624e+03	0	2.981914e-04
7.200000e+08	4.374190e+11	0.000000e+00	5.283019e-01	2.038630e+13	7.458246e+13	3.661603e+13	4.693287e+03	3.078447e+03	2.515316e+03	0	2.965079e-04
7.300000e+08	4.301331e+11	0.000000e+00	5.283019e-01	2.006010e+13	7.417167e+13	3.644152e+13	4.681306e+03	3.075606e+03	2.512994e+03	0	2.948524e-04
7.400000e+08	4.230466e+11	0.000000e+00	5.283019e-01	1.974280e+13	7.376044e+13	3.626823e+13	4.669516e+03	3.072750e+03	2.510661e+03	0	2.932242e-04
7.500000e+08	4.161522e+11	0.000000e+00	5.283019e-01	1.943407e+13	7.334908e+13	3.609615e+13	4.657911e+03	3.069881e+03	2.508317e+03	0	2.916225e-04
7.600000e+08	4.094425e+11	0.000000e+00	5.283019e-01	1.913359e+13	7.293782e+13	3.592527e+13	4.646486e+03	3.067001e+03	2.505963e+03	0	2.900467e-04
7.700000e+08	4.029107e+11	0.000000e+00	5.283019e-01	1.884106e+13	7.252690e+13	3.575557e+13	4.635238e+03	3.064111e+03	2.503602e+03	0	2.884961e-04
7.800000e+08	3.965504e+11	0.000000e+00	5.283019e-01	1.855617e+13	7.211652e+13	3.558706e+13	4.624160e+03	3.061213e+03	2.501234e+03	0	2.869700e-04
7.900000e+08	3.903553e+11	0.000000e+00	5.283019e-01	1.827867e+13	7.170688e+13	3.541972e+13	4.613249e+03	3.058308e+03	2.498861e+03	0	2.854678e-04
8.000000e+08	3.843195e+11	0.000000e+00	5.283019e-01	1.800827e+13	7.129818e+13	3.525353e+13	4.602500e+03	3.055398e+03	2.496483e+03	0	2.839888e-04
8.100000e+08	3.784373e+11	0.000000e+00	5.283019e-01	1.774473e+13	7.089055e+13	3.508850e+13	4.591909e+03	3.052482e+03	2.494101e+03	0	2.825325e-04
8.200000e+08	3.727033e+11	0.000000e+00	5.283019e-01	1.748781e+13	7.048420e+13	3.492461e+13	4.581473e+03	3.049564e+03	2.491716e+03	0	2.810982e-04
8.300000e+08	3.671123e+11	0.000000e+00	5.283019e-01	1.723727e+13	7.007923e+13	3.476185e+13	4.571187e+03	3.046643e+03	2.489329e+03	0	2.796855e-04
8.400000e+08	3.616594e+11	0.000000e+00	5.283019e-01	1.699290e+13	6.967581e+13	3.460022e+13	4.561047e+03	3.043720e+03	2.486941e+03	0	2.782939e-04
8.500000e+08	3.563399e+11	0.000000e+00	5.283019e-01	1.675448e+13	6.927404e+13	3.443971e+13	4.551051e+03	3.040797e+03	2.484553e+03	0	2.769227e-04
8.600000e+08	3.511491e+11	0.000000e+00	5.283019e-01	1.652182e+13	6.887406e+13	3.428030e+13	4.541194e+03	3.037875e+03	2.482165e+03	0	2.755714e-04
8.700000e+08	3.460828e+11	0.000000e+00	5.283019e-01	1.629472e+13	6.847595e+13	3.412198e+13	4.531473e+03	3.034954e+03	2.479778e+03	0	2.742397e-04
8.800000e+08	3.411369e+11	0.000000e+00	5.283019e-01	1.607299e+13	6.807981e+13	3.396476e+13	4.521886e+03	3.032034e+03	2.477393e+03	0	2.729271e-04
8.900000e+08	3.363073e+11	0.000000e+00	5.283019e-01	1.585646e+13	6.768576e+13	3.380861e+13	4.512428e+03	3.029118e+03	2.475010e+03	0	2.716330e-04
9.000000e+08	3.315903e+11	0.000000e+00	5.283019e-01	1.564495e+13	6.729384e+13	3.365354e+13	4.503097e+03	3.026205e+03	2.472630e+03	0	2.703570e-04
9.100000e+08	3.269822e+11	0.000000e+00	5.283019e-01	1.543831e+13	6.690416e+13	3.349953e+13	4.493889e+03	3.023295e+03	2.470253e+03	0	2.690988e-04
9.200000e+08	3.224795e+11	0.000000e+00	5.283019e-01	1.523638e+13	6.651677e+13	3.334658e+13	4.484803e+03	3.020391e+03	2.467879e+03	0	2.678578e-04
9.300000e+08	3.180788e+11	0.000000e+00	5.283019e-01	1.503900e+13	6.613172e+13	3.319467e+13	4.475835e+03	3.017492e+03	2.465511e+03	0	2.666338e-04
9.400000e+08	3.137769e+11	0.000000e+00	5.283019e-01	1.484605e+13	6.574909e+13	3.304380e+13	4.466983e+03	3.014598e+03	2.463146e+03	0	2.654263e-04
9.500000e+08	3.095708e+11	0.000000e+00	5.283019e-01	1.465736e+13	6.536892e+13	3.289396e+13	4.458244e+03	3.011710e+03	2.460787e+03	0	2.642350e-04
9.600000e+08	3.054574e+11	0.000000e+00	5.283019e-01	1.447282e+13	6.499126e+13	3.274514e+13	4.449615e+03	3.008830e+03	2.458433e+03	0	2.630594e-04
9.700000e+08	3.014339e+11	0.000000e+00	5.283019e-01	1.429230e+13	6.461614e+13	3.259734e+13	4.441095e+03	3.005956e+03	2.456085e+03	0	2.618993e-04
9.800000e+08	2.974976e+11	0.000000e+00	5.283019e-01	1.411568e+13	6.424359e+13	3.245054e+13	4.432680e+03	3.003090e+03	2.453743e+03	0	2.607543e-04
9.900000e+08	2.936457e+11	0.000000e+00	5.283019e-01	1.394283e+13	6.387367e+13	3.230474e+13	4.424369e+03	3.000231e+03	2.451408e+03	0	2.596240e-04
1.000000e+09	2.898759e+11	0.000000e+00	5.283019e-01	1.377364e+13	6.350638e+13	3.215992e+13	4.416159e+03	2.997381e+03	2.449079e+03	0	2.585082e-04
1.010000e+09	2.861856e+11	0.000000e+00	5.283019e-01	1.360801e+13	6.314176e+13	3.201609e+13	4.408048e+03	2.994540e+03	2.446757e+03	0	2.574065e-04
1.020000e+09	2.825725e+11	0.000000e+00	5.283019e-01	1.344582e+13	6.277982e+13	3.187324e+13	4.400035e+03	2.991707e+03	2.444443e+03	0	2.563187e-04
1.030000e+09	2.790343e+11	0.000000e+00	5.283019e-01	1.328699e+13	6.242059e+13	3.173135e+13	4.392116e+03	2.988883e+03	2.442136e+03	0	2.552444e-04
1.040000e+09	2.755689e+11	0.000000e+00	5.283019e-01	1.313141e+13	6.206407e+13	3.159042e+13	4.384291e+03	2.986069e+03	2.439836e+03	0	2.541833e-04
1.050000e+09	2.721741e+11	0.000000e+00	5.283019e-01	1.297899e+13	6.171027e+13	3.145044e+13	4.376557e+03	2.983264e+03	2.437544e+03	0	2.531352e-04
1.060000e+09	2.688480e+11	0.000000e+00	5.283019e-01	1.282964e+13	6.135920e+13	3.131141e+13	4.368912e+03	2.980470e+03	2.435261e+03	0	2.520999e-04
1.070000e+09	2.655886e+11	0.000000e+00	5.283019e-01	1.268327e+13	6.101089e+13	3.117331e+13	4.361355e+03	2.977685e+03	2.432986e+03	0	2.510769e-04
1.080000e+09	2.623940e+11	0.000000e+00	5.283019e-01	1.253979e+13	6.066531e+13	3.103614e+13	4.353883e+03	2.974910e+03	2.430719e+03	0	2.500662e-04
1.090000e+09	2.592625e+11	0.000000e+00	5.283019e-01	1.239914e+13	6.032249e+13	3.089990e+13	4.346496e+03	2.972146e+03	2.428460e+03	0	2.490674e-04
1.100000e+09	2.561922e+11	0.000000e+00	5.283019e-01	1.226122e+13	5.998240e+13	3.076457e+13	4.339192e+03	2.969393e+03	2.426210e+03	0	2.480803e-04
1.110000e+09	2.531816e+11	0.000000e+00	5.283019e-01	1.212597e+13	5.964507e+13	3.063014e+13	4.331968e+03	2.966650e+03	2.423969e+03	0	2.471047e-04
1.120000e+09	2.502289e+11	0.000000e+00	5.283019e-01	1.199331e+13	5.931047e+13	3.049662e+13	4.324824e+03	2.963918e+03	2.421737e+03	0	2.461403e-04
1.130000e+09	2.473326e+11	0.000000e+00	5.283019e-01	1.186318e+13	5.897862e+13	3.036399e+13	4.317757e+03	2.961197e+03	2.419514e+03	0	2.451870e-04
1.140000e+09	2.444912e+11	0.000000e+00	5.283019e-01	1.173550e+13	5.864948e+13	3.023225e+13	4.310767e+03	2.958487e+03	2.417300e+03	0	2.442445e-04
1.150000e+09	2.417032e+11	0.000000e+00	5.283019e-01	1.161021e+13	5.832308e+13	3.010139e+13	4.303852e+03	2.955789e+03	2.415095e+03	0	2.433125e-04
1.160000e+09	2.389673e+11	0.000000e+00	5.283019e-01	1.148724e+13	5.799938e+13	2.997140e+13	4.297010e+03	2.953101e+03	2.412899e+03	0	2.423910e-04
1.170000e+09	2.362820e+11	0.000000e+00	5.283019e-01	1.136654e+13	5.767837e+13	2.984227e+13	4.290241e+03	2.950425e+03	2.410712e+03	0	2.414797e-04
1.180000e+09	2.336461e+11	0.000000e+00	5.283019e-01	1.124805e+13	5.736006e+13	2.971401e+13	4.283542e+03	2.947761e+03	2.408535e+03	0	2.405783e-04
1.190000e+09	2.310582e+11	0.000000e+00	5.283019e-01	1.113171e+13	5.704443e+13	2.958659e+13	4.276913e+03	2.945107e+03	2.406367e+03	0	2.396868e-04
1.200000e+09	2.285172e+11	0.000000e+00	5.283019e-01	1.101746e+13	5.673145e+13	2.946003e+13	4.270353e+03	2.942466e+03	2.404209e+03	0	2.388049e-04
1.210000e+09	2.260218e+11	0.000000e+00	5.283019e-01	1.090526e+13	5.642111e+13	2.933430e+13	4.263859e+03	2.939836e+03	2.402060e+03	0	2.379325e-04
1.220000e+09	2.235709e+11	0.000000e+00	5.283019e-01	1.079505e+13	5.611341e+13	2.920941e+13	4.257431e+03	2.937218e+03	2.399921e+03	0	2.370694e-04
1.230000e+09	2.211634e+11	0.000000e+00	5.283019e-01	1.068677e+13	5.580832e+13	2.908534e+13	4.251068e+03	2.934611e+03	2.397791e+03	0	2.362153e-04
1.240000e+09	2.187982e+11	0.000000e+00	5.283019e-01	1.058039e+13	5.550584e+13	2.896209e+13	4.244769e+03	2.932016e+03	2.395671e+03	0	2.353702e-04
1.250000e+09	2.164742e+11	0.000000e+00	5.283019e-01	1.047586e+13	5.520593e+13	2.883966e+13	4.238532e+03	2.929433e+03	2.393560e+03	0	2.345340e-04
1.260000e+09	2.141905e+11	0.000000e+00	5.283019e-01	1.037312e+13	5.490858e+13	2.871803e+13	4.232356e+03	2.926861e+03	2.391459e+03	0	2.337063e-04
1.270000e+09	2.119460e+11	0.000000e+00	5.283019e-01	1.027215e+13	5.461378e+13	2.859720e+13	4.226241e+03	2.924302e+03	2.389368e+03	0	2.328871e-04
1.280000e+09	2.097398e+11	0.000000e+00	5.283019e-01	1.017288e+13	5.432150e+13	2.847717e+13	4.220185e+03	2.921754e+03	2.387286e+03	0	2.320762e-04
1.290000e+09	2.075710e+11	0.000000e+00	5.283019e-01	1.007529e+13	5.403173e+13	2.835793e+13	4.214187e+03	2.919217e+03	2.385213e+03	0	2.312735e-04
1.300000e+09	2.054388e+11	0.000000e+00	5.283019e-01	9.979337e+12	5.374445e+13	2.823947e+13	4.208247e+03	2.916693e+03	2.383150e+03	0	2.304789e-04
1.310000e+09	2.033421e+11	0.000000e+00	5.283019e-01	9.884975e+12	5.345963e+13	2.812179e+13	4.202363e+03	2.914180e+03	2.381097e+03	0	2.296921e-04
1.320000e+09	2.012802e+11	0.000000e+00	5.283019e-01	9.792171e+12	5.317726e+13	2.800488e+13	4.196534e+03	2.911679e+03	2.379054e+03	0	2.289131e-04
1.330000e+09	1.992524e+11	0.000000e+00	5.283019e-01	9.700887e+12	5.289732e+13	2.788873e+13	4.190761e+03	2.909189e+03	2.377020e+03	0	2.281418e-04
1.340000e+09	1.972577e+11	0.000000e+00	5.283019e-01	9.611090e+12	5.261977e+13	2.777334e+13	4.185040e+03	2.906711e+03	2.374995e+03	0	2.273779e-04
1.350000e+09	1.952954e+11	0.000000e+00	5.283019e-01	9.522744e+12	5.234461e+13	2.765870e+13	4.179373e+03	2.904245e+03	2.372980e+03	0	2.266215e-04
1.360000e+09	1.933648e+11	0.000000e+00	5.283019e-01	9.435816e+12	5.207181e+13	2.754481e+13	4.173757e+03	2.901791e+03	2.370974e+03	0	2.258722e-04
