#t		Qconv[W]	Ri[Rp]		R*[Rp]		Qc[W]		Qm[W]		Qr[W]		Tcmb[K]		Tl[K]		Tup[K]		RiFlag		Bs[T]
0.000000e+00	2.631241e+13	0.000000e+00	5.283019e-01	7.226678e+14	4.361084e+13	1.064625e+14	1.123052e+04	3.265947e+03	2.479136e+03	0	1.113721e-03
1.000000e+07	2.460729e+13	0.000000e+00	5.283019e-01	6.762819e+14	4.986164e+13	1.058726e+14	1.103726e+04	3.331870e+03	2.529177e+03	0	1.089125e-03
2.000000e+07	2.306930e+13	0.000000e+00	5.283019e-01	6.344369e+14	5.627818e+13	1.052872e+14	1.085609e+04	3.393300e+03	2.575807e+03	0	1.065944e-03
3.000000e+07	2.167648e+13	0.000000e+00	5.283019e-01	5.965364e+14	6.281085e+13	1.047061e+14	1.068587e+04	3.450607e+03	2.619309e+03	0	1.044045e-03
4.000000e+07	2.041044e+13	0.000000e+00	5.283019e-01	5.620813e+14	6.941364e+13	1.041293e+14	1.052558e+04	3.504117e+03	2.659927e+03	0	1.023310e-03
5.000000e+07	1.925571e+13	0.000000e+00	5.283019e-01	5.306512e+14	7.604427e+13	1.035569e+14	1.037435e+04	3.554117e+03	2.697882e+03	0	1.003636e-03
6.000000e+07	1.819917e+13	0.000000e+00	5.283019e-01	5.018899e+14	8.266423e+13	1.029887e+14	1.023139e+04	3.600861e+03	2.733364e+03	0	9.849333e-04
7.000000e+07	1.722964e+13	0.000000e+00	5.283019e-01	4.754935e+14	8.923871e+13	1.024247e+14	1.009603e+04	3.644577e+03	2.766548e+03	0	9.671229e-04
8.000000e+07	1.633751e+13	0.000000e+00	5.283019e-01	4.512015e+14	9.573662e+13	1.018650e+14	9.967644e+03	3.685469e+03	2.797589e+03	0	9.501341e-04
9.000000e+07	1.551454e+13	0.000000e+00	5.283019e-01	4.287896e+14	1.021302e+14	1.013094e+14	9.845693e+03	3.723724e+03	2.826627e+03	0	9.339047e-04
1.000000e+08	1.475356e+13	0.000000e+00	5.283019e-01	4.080632e+14	1.083954e+14	1.007579e+14	9.729689e+03	3.759509e+03	2.853791e+03	0	9.183789e-04
1.100000e+08	1.404835e+13	0.000000e+00	5.283019e-01	3.888533e+14	1.145109e+14	1.002105e+14	9.619193e+03	3.792979e+03	2.879198e+03	0	9.035067e-04
1.200000e+08	1.339347e+13	0.000000e+00	5.283019e-01	3.710121e+14	1.204589e+14	9.966717e+13	9.513809e+03	3.824275e+03	2.902955e+03	0	8.892435e-04
1.300000e+08	1.278415e+13	0.000000e+00	5.283019e-01	3.544100e+14	1.262238e+14	9.912787e+13	9.413181e+03	3.853528e+03	2.925160e+03	0	8.755486e-04
1.400000e+08	1.221619e+13	0.000000e+00	5.283019e-01	3.389328e+14	1.317932e+14	9.859256e+13	9.316983e+03	3.880859e+03	2.945907e+03	0	8.623857e-04
1.500000e+08	1.168587e+13	0.000000e+00	5.283019e-01	3.244794e+14	1.371568e+14	9.806121e+13	9.224920e+03	3.906379e+03	2.965279e+03	0	8.497216e-04
1.600000e+08	1.118989e+13	0.000000e+00	5.283019e-01	3.109602e+14	1.423065e+14	9.753378e+13	9.136723e+03	3.930194e+03	2.983356e+03	0	8.375260e-04
1.700000e+08	1.072533e+13	0.000000e+00	5.283019e-01	2.982957e+14	1.472364e+14	9.701025e+13	9.052147e+03	3.952399e+03	3.000212e+03	0	8.257714e-04
1.800000e+08	1.028955e+13	0.000000e+00	5.283019e-01	2.864144e+14	1.519424e+14	9.649057e+13	8.970967e+03	3.973088e+03	3.015916e+03	0	8.144326e-04
1.900000e+08	9.880223e+12	0.000000e+00	5.283019e-01	2.752527e+14	1.564220e+14	9.597472e+13	8.892974e+03	3.992344e+03	3.030533e+03	0	8.034864e-04
2.000000e+08	9.495229e+12	0.000000e+00	5.283019e-01	2.647533e+14	1.606740e+14	9.546267e+13	8.817980e+03	4.010247e+03	3.044124e+03	0	7.929116e-04
2.100000e+08	9.132675e+12	0.000000e+00	5.283019e-01	2.548645e+14	1.646990e+14	9.495438e+13	8.745808e+03	4.026875e+03	3.056745e+03	0	7.826885e-04
2.200000e+08	8.790847e+12	0.000000e+00	5.283019e-01	2.455398e+14	1.684982e+14	9.444983e+13	8.676297e+03	4.042296e+03	3.068451e+03	0	7.727989e-04
2.300000e+08	8.468194e+12	0.000000e+00	5.283019e-01	2.367371e+14	1.720742e+14	9.394898e+13	8.609297e+03	4.056578e+03	3.079292e+03	0	7.632261e-04
2.400000e+08	8.163309e+12	0.000000e+00	5.283019e-01	2.284180e+14	1.754304e+14	9.345180e+13	8.544670e+03	4.069784e+03	3.089317e+03	0	7.539543e-04
2.500000e+08	7.874916e+12	0.000000e+00	5.283019e-01	2.205478e+14	1.785709e+14	9.295826e+13	8.482286e+03	4.081973e+03	3.098569e+03	0	7.449691e-04
2.600000e+08	7.601847e+12	0.000000e+00	5.283019e-01	2.130949e+14	1.815005e+14	9.246834e+13	8.422027e+03	4.093201e+03	3.107093e+03	0	7.362568e-04
2.700000e+08	7.343042e+12	0.000000e+00	5.283019e-01	2.060303e+14	1.842244e+14	9.198199e+13	8.363780e+03	4.103522e+03	3.114927e+03	0	7.278049e-04
2.800000e+08	7.097526e+12	0.000000e+00	5.283019e-01	1.993276e+14	1.867484e+14	9.149920e+13	8.307443e+03	4.112986e+03	3.122111e+03	0	7.196013e-04
2.900000e+08	6.864411e+12	0.000000e+00	5.283019e-01	1.929625e+14	1.890786e+14	9.101993e+13	8.252918e+03	4.121639e+03	3.128680e+03	0	7.116351e-04
3.000000e+08	6.642878e+12	0.000000e+00	5.283019e-01	1.869129e+14	1.912215e+14	9.054416e+13	8.200116e+03	4.129527e+03	3.134668e+03	0	7.038958e-04
3.100000e+08	6.432177e+12	0.000000e+00	5.283019e-01	1.811583e+14	1.931834e+14	9.007185e+13	8.148951e+03	4.136693e+03	3.140107e+03	0	6.963736e-04
3.200000e+08	6.231616e+12	0.000000e+00	5.283019e-01	1.756799e+14	1.949711e+14	8.960298e+13	8.099346e+03	4.143176e+03	3.145028e+03	0	6.890592e-04
3.300000e+08	6.040559e+12	0.000000e+00	5.283019e-01	1.704604e+14	1.965914e+14	8.913751e+13	8.051225e+03	4.149014e+03	3.149459e+03	0	6.819439e-04
3.400000e+08	5.858416e+12	0.000000e+00	5.283019e-01	1.654837e+14	1.980512e+14	8.867543e+13	8.004520e+03	4.154243e+03	3.153429e+03	0	6.750196e-04
3.500000e+08	5.684645e+12	0.000000e+00	5.283019e-01	1.607351e+14	1.993572e+14	8.821670e+13	7.959165e+03	4.158897e+03	3.156962e+03	0	6.682784e-04
3.600000e+08	5.518742e+12	0.000000e+00	5.283019e-01	1.562008e+14	2.005163e+14	8.776130e+13	7.915099e+03	4.163009e+03	3.160083e+03	0	6.617130e-04
3.700000e+08	5.360241e+12	0.000000e+00	5.283019e-01	1.518683e+14	2.015350e+14	8.730919e+13	7.872264e+03	4.166608e+03	3.162815e+03	0	6.553164e-04
3.800000e+08	5.208710e+12	0.000000e+00	5.283019e-01	1.477256e+14	2.024200e+14	8.686036e+13	7.830607e+03	4.169725e+03	3.165181e+03	0	6.490821e-04
3.900000e+08	5.063745e+12	0.000000e+00	5.283019e-01	1.437620e+14	2.031777e+14	8.641477e+13	7.790075e+03	4.172385e+03	3.167200e+03	0	6.430039e-04
4.000000e+08	4.924976e+12	0.000000e+00	5.283019e-01	1.399671e+14	2.038145e+14	8.597239e+13	7.750621e+03	4.174615e+03	3.168893e+03	0	6.370756e-04
4.100000e+08	4.792052e+12	0.000000e+00	5.283019e-01	1.363317e+14	2.043365e+14	8.553321e+13	7.712199e+03	4.176439e+03	3.170277e+03	0	6.312918e-04
4.200000e+08	4.664652e+12	0.000000e+00	5.283019e-01	1.328467e+14	2.047497e+14	8.509720e+13	7.674767e+03	4.177880e+03	3.171372e+03	0	6.256470e-04
4.300000e+08	4.542472e+12	0.000000e+00	5.283019e-01	1.295041e+14	2.050599e+14	8.466432e+13	7.638283e+03	4.178961e+03	3.172192e+03	0	6.201361e-04
4.400000e+08	4.425231e+12	0.000000e+00	5.283019e-01	1.262962e+14	2.052726e+14	8.423456e+13	7.602710e+03	4.179701e+03	3.172754e+03	0	6.147543e-04
4.500000e+08	4.312666e+12	0.000000e+00	5.283019e-01	1.232157e+14	2.053933e+14	8.380788e+13	7.568011e+03	4.180121e+03	3.173073e+03	0	6.094970e-04
4.600000e+08	4.204530e+12	0.000000e+00	5.283019e-01	1.202560e+14	2.054273e+14	8.338427e+13	7.534151e+03	4.180239e+03	3.173162e+03	0	6.043596e-04
4.700000e+08	4.100593e+12	0.000000e+00	5.283019e-01	1.174108e+14	2.053795e+14	8.296370e+13	7.501097e+03	4.180073e+03	3.173036e+03	0	5.993380e-04
4.800000e+08	4.000639e+12	0.000000e+00	5.283019e-01	1.146742e+14	2.052546e+14	8.254614e+13	7.468820e+03	4.179639e+03	3.172706e+03	0	5.944282e-04
4.900000e+08	3.904466e+12	0.000000e+00	5.283019e-01	1.120407e+14	2.050574e+14	8.213157e+13	7.437289e+03	4.178952e+03	3.172185e+03	0	5.896263e-04
5.000000e+08	3.811885e+12	0.000000e+00	5.283019e-01	1.095052e+14	2.047923e+14	8.171997e+13	7.406477e+03	4.178029e+03	3.171484e+03	0	5.849286e-04
5.100000e+08	3.722717e+12	0.000000e+00	5.283019e-01	1.070629e+14	2.044634e+14	8.131130e+13	7.376356e+03	4.176882e+03	3.170614e+03	0	5.803317e-04
5.200000e+08	3.636794e+12	0.000000e+00	5.283019e-01	1.047090e+14	2.040749e+14	8.090555e+13	7.346903e+03	4.175525e+03	3.169584e+03	0	5.758321e-04
5.300000e+08	3.553960e+12	0.000000e+00	5.283019e-01	1.024394e+14	2.036305e+14	8.050270e+13	7.318092e+03	4.173971e+03	3.168404e+03	0	5.714266e-04
5.400000e+08	3.474067e+12	0.000000e+00	5.283019e-01	1.002501e+14	2.031339e+14	8.010271e+13	7.289901e+03	4.172231e+03	3.167083e+03	0	5.671122e-04
5.500000e+08	3.396975e+12	0.000000e+00	5.283019e-01	9.813719e+13	2.025886e+14	7.970558e+13	7.262308e+03	4.170317e+03	3.165631e+03	0	5.628859e-04
5.600000e+08	3.322553e+12	0.000000e+00	5.283019e-01	9.609716e+13	2.019980e+14	7.931126e+13	7.235293e+03	4.168240e+03	3.164054e+03	0	5.587449e-04
5.700000e+08	3.250677e+12	0.000000e+00	5.283019e-01	9.412661e+13	2.013651e+14	7.891975e+13	7.208835e+03	4.166009e+03	3.162360e+03	0	5.546865e-04
5.800000e+08	3.181231e+12	0.000000e+00	5.283019e-01	9.222239e+13	2.006930e+14	7.853101e+13	7.182917e+03	4.163634e+03	3.160558e+03	0	5.507080e-04
5.900000e+08	3.114105e+12	0.000000e+00	5.283019e-01	9.038148e+13	1.999845e+14	7.814503e+13	7.157519e+03	4.161124e+03	3.158652e+03	0	5.468070e-04
6.000000e+08	3.049195e+12	0.000000e+00	5.283019e-01	8.860106e+13	1.992423e+14	7.776178e+13	7.132624e+03	4.158488e+03	3.156651e+03	0	5.429810e-04
6.100000e+08	2.986401e+12	0.000000e+00	5.283019e-01	8.687844e+13	1.984689e+14	7.738124e+13	7.108217e+03	4.155734e+03	3.154560e+03	0	5.392279e-04
6.200000e+08	2.925633e+12	0.000000e+00	5.283019e-01	8.521110e+13	1.976668e+14	7.700339e+13	7.084281e+03	4.152868e+03	3.152385e+03	0	5.355453e-04
6.300000e+08	2.866801e+12	0.000000e+00	5.283019e-01	8.359664e+13	1.968382e+14	7.662820e+13	7.060801e+03	4.149899e+03	3.150132e+03	0	5.319312e-04
6.400000e+08	2.809822e+12	0.000000e+00	5.283019e-01	8.203280e+13	1.959853e+14	7.625567e+13	7.037764e+03	4.146834e+03	3.147805e+03	0	5.283835e-04
6.500000e+08	2.754618e+12	0.000000e+00	5.283019e-01	8.051742e+13	1.951101e+14	7.588576e+13	7.015154e+03	4.143678e+03	3.145409e+03	0	5.249002e-04
6.600000e+08	2.701114e+12	0.000000e+00	5.283019e-01	7.904848e+13	1.942146e+14	7.551845e+13	6.992960e+03	4.140438e+03	3.142949e+03	0	5.214795e-04
6.700000e+08	2.649240e+12	0.000000e+00	5.283019e-01	7.762403e+13	1.933006e+14	7.515372e+13	6.971168e+03	4.137119e+03	3.140431e+03	0	5.181196e-04
6.800000e+08	2.598927e+12	0.000000e+00	5.283019e-01	7.624227e+13	1.923698e+14	7.479155e+13	6.949766e+03	4.133728e+03	3.137856e+03	0	5.148187e-04
6.900000e+08	2.550113e+12	0.000000e+00	5.283019e-01	7.490144e+13	1.914238e+14	7.443193e+13	6.928743e+03	4.130269e+03	3.135230e+03	0	5.115751e-04
7.000000e+08	2.502737e+12	0.000000e+00	5.283019e-01	7.359989e+13	1.904641e+14	7.407483e+13	6.908088e+03	4.126747e+03	3.132557e+03	0	5.083873e-04
7.100000e+08	2.456741e+12	0.000000e+00	5.283019e-01	7.233607e+13	1.894921e+14	7.372022e+13	6.887789e+03	4.123166e+03	3.129839e+03	0	5.052536e-04
7.200000e+08	2.412071e+12	0.000000e+00	5.283019e-01	7.110848e+13	1.885093e+14	7.336810e+13	6.867837e+03	4.119532e+03	3.127080e+03	0	5.021726e-04
7.300000e+08	2.368676e+12	0.000000e+00	5.283019e-01	6.991571e+13	1.875169e+14	7.301844e+13	6.848221e+03	4.115848e+03	3.124284e+03	0	4.991428e-04
7.400000e+08	2.326504e+12	0.000000e+00	5.283019e-01	6.875640e+13	1.865160e+14	7.267121e+13	6.828933e+03	4.112118e+03	3.121452e+03	0	4.961628e-04
7.500000e+08	2.285510e+12	0.000000e+00	5.283019e-01	6.762927e+13	1.855078e+14	7.232641e+13	6.809963e+03	4.108346e+03	3.118589e+03	0	4.932313e-04
7.600000e+08	2.245649e+12	0.000000e+00	5.283019e-01	6.653311e+13	1.844933e+14	7.198401e+13	6.791301e+03	4.104535e+03	3.115696e+03	0	4.903470e-04
7.700000e+08	2.206877e+12	0.000000e+00	5.283019e-01	6.546675e+13	1.834736e+14	7.164399e+13	6.772941e+03	4.100689e+03	3.112776e+03	0	4.875087e-04
7.800000e+08	2.169155e+12	0.000000e+00	5.283019e-01	6.442907e+13	1.824495e+14	7.130634e+13	6.754873e+03	4.096810e+03	3.109832e+03	0	4.847150e-04
7.900000e+08	2.132443e+12	0.000000e+00	5.283019e-01	6.341903e+13	1.814220e+14	7.097103e+13	6.737090e+03	4.092902e+03	3.106866e+03	0	4.819649e-04
8.000000e+08	2.096705e+12	0.000000e+00	5.283019e-01	6.243561e+13	1.803918e+14	7.063805e+13	6.719585e+03	4.088968e+03	3.103879e+03	0	4.792573e-04
8.100000e+08	2.061905e+12	0.000000e+00	5.283019e-01	6.147785e+13	1.793596e+14	7.030737e+13	6.702349e+03	4.085009e+03	3.100874e+03	0	4.765910e-04
8.200000e+08	2.028010e+12	0.000000e+00	5.283019e-01	6.054483e+13	1.783263e+14	6.997898e+13	6.685376e+03	4.081029e+03	3.097853e+03	0	4.739650e-04
8.300000e+08	1.994987e+12	0.000000e+00	5.283019e-01	5.963567e+13	1.772925e+14	6.965286e+13	6.668660e+03	4.077030e+03	3.094818e+03	0	4.713783e-04
8.400000e+08	1.962805e+12	0.000000e+00	5.283019e-01	5.874953e+13	1.762587e+14	6.932900e+13	6.652193e+03	4.073014e+03	3.091769e+03	0	4.688299e-04
8.500000e+08	1.931436e+12	0.000000e+00	5.283019e-01	5.788561e+13	1.752257e+14	6.900737e+13	6.635970e+03	4.068983e+03	3.088709e+03	0	4.663189e-04
8.600000e+08	1.900850e+12	0.000000e+00	5.283019e-01	5.704314e+13	1.741938e+14	6.868796e+13	6.619984e+03	4.064940e+03	3.085640e+03	0	4.638443e-04
8.700000e+08	1.871022e+12	0.000000e+00	5.283019e-01	5.622139e+13	1.731637e+14	6.837074e+13	6.604229e+03	4.060885e+03	3.082562e+03	0	4.614053e-04
8.800000e+08	1.841925e+12	0.000000e+00	5.283019e-01	5.541966e+13	1.721358e+14	6.805571e+13	6.588701e+03	4.056822e+03	3.079478e+03	0	4.590009e-04
8.900000e+08	1.813534e+12	0.000000e+00	5.283019e-01	5.463726e+13	1.711105e+14	6.774284e+13	6.573392e+03	4.052751e+03	3.076387e+03	0	4.566305e-04
9.000000e+08	1.785827e+12	0.000000e+00	5.283019e-01	5.387357e+13	1.700882e+14	6.743212e+13	6.558299e+03	4.048673e+03	3.073292e+03	0	4.542931e-04
9.100000e+08	1.758781e+12	0.000000e+00	5.283019e-01	5.312795e+13	1.690693e+14	6.712353e+13	6.543416e+03	4.044592e+03	3.070194e+03	0	4.519879e-04
9.200000e+08	1.732373e+12	0.000000e+00	5.283019e-01	5.239983e+13	1.680543e+14	6.681705e+13	6.528737e+03	4.040507e+03	3.067094e+03	0	4.497143e-04
9.300000e+08	1.706583e+12	0.000000e+00	5.283019e-01	5.168862e+13	1.670433e+14	6.651267e+13	6.514259e+03	4.036421e+03	3.063992e+03	0	4.474715e-04
9.400000e+08	1.681391e+12	0.000000e+00	5.283019e-01	5.099380e+13	1.660367e+14	6.621037e+13	6.499977e+03	4.032334e+03	3.060889e+03	0	4.452588e-04
9.500000e+08	1.656778e+12	0.000000e+00	5.283019e-01	5.031482e+13	1.650347e+14	6.591013e+13	6.485885e+03	4.028248e+03	3.057788e+03	0	4.430755e-04
9.600000e+08	1.632726e+12	0.000000e+00	5.283019e-01	4.965120e+13	1.640377e+14	6.561194e+13	6.471980e+03	4.024164e+03	3.054687e+03	0	4.409210e-04
9.700000e+08	1.609217e+12	0.000000e+00	5.283019e-01	4.900245e+13	1.630458e+14	6.531578e+13	6.458258e+03	4.020082e+03	3.051589e+03	0	4.387945e-04
9.800000e+08	1.586234e+12	0.000000e+00	5.283019e-01	4.836812e+13	1.620593e+14	6.502164e+13	6.444715e+03	4.016004e+03	3.048494e+03	0	4.366955e-04
9.900000e+08	1.563761e+12	0.000000e+00	5.283019e-01	4.774775e+13	1.610784e+14	6.472950e+13	6.431345e+03	4.011931e+03	3.045402e+03	0	4.346234e-04
1.000000e+09	1.541782e+12	0.000000e+00	5.283019e-01	4.714091e+13	1.601031e+14	6.443933e+13	6.418147e+03	4.007864e+03	3.042315e+03	0	4.325775e-04
1.010000e+09	1.520282e+12	0.000000e+00	5.283019e-01	4.654721e+13	1.591339e+14	6.415114e+13	6.405115e+03	4.003803e+03	3.039232e+03	0	4.305573e-04
1.020000e+09	1.499246e+12	0.000000e+00	5.283019e-01	4.596624e+13	1.581706e+14	6.386490e+13	6.392247e+03	3.999750e+03	3.036155e+03	0	4.285623e-04
1.030000e+09	1.478662e+12	0.000000e+00	5.283019e-01	4.539763e+13	1.572136e+14	6.358060e+13	6.379539e+03	3.995704e+03	3.033084e+03	0	4.265919e-04
1.040000e+09	1.458515e+12	0.000000e+00	5.283019e-01	4.484100e+13	1.562629e+14	6.329821e+13	6.366987e+03	3.991667e+03	3.030019e+03	0	4.246456e-04
1.050000e+09	1.438793e+12	0.000000e+00	5.283019e-01	4.429601e+13	1.553185e+14	6.301774e+13	6.354589e+03	3.987639e+03	3.026962e+03	0	4.227228e-04
1.060000e+09	1.419483e+12	0.000000e+00	5.283019e-01	4.376232e+13	1.543807e+14	6.273915e+13	6.342340e+03	3.983620e+03	3.023911e+03	0	4.208232e-04
1.070000e+09	1.400573e+12	0.000000e+00	5.283019e-01	4.323961e+13	1.534496e+14	6.246244e+13	6.330239e+03	3.979613e+03	3.020869e+03	0	4.189461e-04
1.080000e+09	1.382051e+12	0.000000e+00	5.283019e-01	4.272755e+13	1.525251e+14	6.218760e+13	6.318281e+03	3.975616e+03	3.017835e+03	0	4.170912e-04
1.090000e+09	1.363908e+12	0.000000e+00	5.283019e-01	4.222585e+13	1.516073e+14	6.191460e+13	6.306465e+03	3.971630e+03	3.014810e+03	0	4.152580e-04
1.100000e+09	1.346131e+12	0.000000e+00	5.283019e-01	4.173421e+13	1.506964e+14	6.164344e+13	6.294786e+03	3.967657e+03	3.011794e+03	0	4.134460e-04
1.110000e+09	1.328711e+12	0.000000e+00	5.283019e-01	4.125236e+13	1.497923e+14	6.137409e+13	6.283243e+03	3.963695e+03	3.008787e+03	0	4.116548e-04
1.120000e+09	1.311638e+12	0.000000e+00	5.283019e-01	4.078001e+13	1.488951e+14	6.110655e+13	6.271833e+03	3.959746e+03	3.005789e+03	0	4.098840e-04
1.130000e+09	1.294902e+12	0.000000e+00	5.283019e-01	4.031692e+13	1.480049e+14	6.084080e+13	6.260553e+03	3.955811e+03	3.002802e+03	0	4.081332e-04
1.140000e+09	1.278494e+12	0.000000e+00	5.283019e-01	3.986282e+13	1.471216e+14	6.057682e+13	6.249400e+03	3.951888e+03	2.999824e+03	0	4.064021e-04
1.150000e+09	1.262405e+12	0.000000e+00	5.283019e-01	3.941747e+13	1.462453e+14	6.031461e+13	6.238373e+03	3.947980e+03	2.996857e+03	0	4.046901e-04
1.160000e+09	1.246627e+12	0.000000e+00	5.283019e-01	3.898064e+13	1.453760e+14	6.005415e+13	6.227468e+03	3.944085e+03	2.993901e+03	0	4.029970e-04
1.170000e+09	1.231150e+12	0.000000e+00	5.283019e-01	3.855210e+13	1.445137e+14	5.979542e+13	6.216684e+03	3.940205e+03	2.990955e+03	0	4.013223e-04
1.180000e+09	1.215968e+12	0.000000e+00	5.283019e-01	3.813163e+13	1.436585e+14	5.953841e+13	6.206018e+03	3.936339e+03	2.988021e+03	0	3.996658e-04
1.190000e+09	1.201072e+12	0.000000e+00	5.283019e-01	3.771902e+13	1.428102e+14	5.928311e+13	6.195467e+03	3.932488e+03	2.985098e+03	0	3.980271e-04
1.200000e+09	1.186454e+12	0.000000e+00	5.283019e-01	3.731406e+13	1.419689e+14	5.902951e+13	6.185030e+03	3.928652e+03	2.982186e+03	0	3.964058e-04
1.210000e+09	1.172108e+12	0.000000e+00	5.283019e-01	3.691655e+13	1.411346e+14	5.877759e+13	6.174705e+03	3.924831e+03	2.979285e+03	0	3.948016e-04
1.220000e+09	1.158027e+12	0.000000e+00	5.283019e-01	3.652630e+13	1.403073e+14	5.852734e+13	6.164490e+03	3.921026e+03	2.976397e+03	0	3.932142e-04
1.230000e+09	1.144203e+12	0.000000e+00	5.283019e-01	3.614313e+13	1.394870e+14	5.827874e+13	6.154382e+03	3.917236e+03	2.973520e+03	0	3.916433e-04
1.240000e+09	1.130630e+12	0.000000e+00	5.283019e-01	3.576685e+13	1.386736e+14	5.803179e+13	6.144380e+03	3.913461e+03	2.970655e+03	0	3.900885e-04
1.250000e+09	1.117303e+12	0.000000e+00	5.283019e-01	3.539730e+13	1.378670e+14	5.778646e+13	6.134481e+03	3.909703e+03	2.967802e+03	0	3.885497e-04
1.260000e+09	1.104213e+12	0.000000e+00	5.283019e-01	3.503430e+13	1.370674e+14	5.754276e+13	6.124684e+03	3.905960e+03	2.964961e+03	0	3.870264e-04
1.270000e+09	1.091357e+12	0.000000e+00	5.283019e-01	3.467770e+13	1.362747e+14	5.730066e+13	6.114988e+03	3.902234e+03	2.962132e+03	0	3.855185e-04
1.280000e+09	1.078727e+12	0.000000e+00	5.283019e-01	3.432732e+13	1.354887e+14	5.706015e+13	6.105390e+03	3.898523e+03	2.959315e+03	0	3.840256e-04
1.290000e+09	1.066319e+12	0.000000e+00	5.283019e-01	3.398303e+13	1.347096e+14	5.682122e+13	6.095888e+03	3.894829e+03	2.956511e+03	0	3.825475e-04
1.300000e+09	1.054127e+12	0.000000e+00	5.283019e-01	3.364467e+13	1.339372e+14	5.658386e+13	6.086481e+03	3.891151e+03	2.953719e+03	0	3.810839e-04
1.310000e+09	1.042145e+12	0.000000e+00	5.283019e-01	3.331210e+13	1.331715e+14	5.634806e+13	6.077168e+03	3.887490e+03	2.950940e+03	0	3.796346e-04
1.320000e+09	1.030370e+12	0.000000e+00	5.283019e-01	3.298519e+13	1.324125e+14	5.611380e+13	6.067947e+03	3.883844e+03	2.948173e+03	0	3.781992e-04
1.330000e+09	1.018794e+12	0.000000e+00	5.283019e-01	3.266379e+13	1.316601e+14	5.588107e+13	6.058815e+03	3.880216e+03	2.945418e+03	0	3.767776e-04
1.340000e+09	1.007415e+12	0.000000e+00	5.283019e-01	3.234777e+13	1.309143e+14	5.564987e+13	6.049772e+03	3.876604e+03	2.942676e+03	0	3.753696e-04
1.350000e+09	9.962271e+11	0.000000e+00	5.283019e-01	3.203701e+13	1.301750e+14	5.542017e+13	6.040817e+03	3.873008e+03	2.939947e+03	0	3.739749e-04
1.360000e+09	9.852260e+11	0.000000e+00	5.283019e-01	3.173139e+13	1.294423e+14	5.519197e+13	6.031947e+03	3.869429e+03	2.937230e+03	0	3.725932e-04
