#t		Qconv[W]	Ri[Rp]		R*[Rp]		Qc[W]		Qm[W]		Qr[W]		Tcmb[K]		Tl[K]		Tup[K]		RiFlag		Bs[T]
0.000000e+00	1.009819e+14	0.000000e+00	5.333333e-01	1.914056e+15	4.139813e+13	1.737043e+14	1.602144e+04	3.754475e+03	2.692065e+03	0	1.688250e-03
1.000000e+07	9.451097e+13	0.000000e+00	5.333333e-01	1.793155e+15	5.062246e+13	1.727418e+14	1.573240e+04	3.862593e+03	2.769588e+03	0	1.651390e-03
2.000000e+07	8.866379e+13	0.000000e+00	5.333333e-01	1.683883e+15	6.061291e+13	1.717866e+14	1.546115e+04	3.963747e+03	2.842119e+03	0	1.616607e-03
3.000000e+07	8.335963e+13	0.000000e+00	5.333333e-01	1.584738e+15	7.128207e+13	1.708385e+14	1.520602e+04	4.058516e+03	2.910071e+03	0	1.583705e-03
4.000000e+07	7.853073e+13	0.000000e+00	5.333333e-01	1.494457e+15	8.253961e+13	1.698974e+14	1.496555e+04	4.147404e+03	2.973806e+03	0	1.552514e-03
5.000000e+07	7.411983e+13	0.000000e+00	5.333333e-01	1.411973e+15	9.429444e+13	1.689634e+14	1.473847e+04	4.230850e+03	3.033639e+03	0	1.522885e-03
6.000000e+07	7.007825e+13	0.000000e+00	5.333333e-01	1.336380e+15	1.064565e+14	1.680364e+14	1.452365e+04	4.309245e+03	3.089850e+03	0	1.494686e-03
7.000000e+07	6.636441e+13	0.000000e+00	5.333333e-01	1.266902e+15	1.189382e+14	1.671162e+14	1.432009e+04	4.382934e+03	3.142687e+03	0	1.467802e-03
8.000000e+07	6.294258e+13	0.000000e+00	5.333333e-01	1.202873e+15	1.316552e+14	1.662029e+14	1.412689e+04	4.452227e+03	3.192373e+03	0	1.442128e-03
9.000000e+07	5.978192e+13	0.000000e+00	5.333333e-01	1.143719e+15	1.445275e+14	1.652964e+14	1.394327e+04	4.517403e+03	3.239106e+03	0	1.417574e-03
1.000000e+08	5.685570e+13	0.000000e+00	5.333333e-01	1.088942e+15	1.574799e+14	1.643966e+14	1.376851e+04	4.578714e+03	3.283067e+03	0	1.394056e-03
1.100000e+08	5.414061e+13	0.000000e+00	5.333333e-01	1.038106e+15	1.704421e+14	1.635035e+14	1.360196e+04	4.636389e+03	3.324422e+03	0	1.371503e-03
1.200000e+08	5.161629e+13	0.000000e+00	5.333333e-01	9.908328e+14	1.833494e+14	1.626170e+14	1.344305e+04	4.690640e+03	3.363321e+03	0	1.349847e-03
1.300000e+08	4.926486e+13	0.000000e+00	5.333333e-01	9.467880e+14	1.961425e+14	1.617371e+14	1.329125e+04	4.741659e+03	3.399904e+03	0	1.329030e-03
1.400000e+08	4.707053e+13	0.000000e+00	5.333333e-01	9.056778e+14	2.087676e+14	1.608637e+14	1.314608e+04	4.789626e+03	3.434297e+03	0	1.308997e-03
1.500000e+08	4.501937e+13	0.000000e+00	5.333333e-01	8.672419e+14	2.211767e+14	1.599967e+14	1.300712e+04	4.834706e+03	3.466621e+03	0	1.289700e-03
1.600000e+08	4.309899e+13	0.000000e+00	5.333333e-01	8.312494e+14	2.333267e+14	1.591362e+14	1.287396e+04	4.877054e+03	3.496986e+03	0	1.271095e-03
1.700000e+08	4.129836e+13	0.000000e+00	5.333333e-01	7.974945e+14	2.451800e+14	1.582820e+14	1.274624e+04	4.916815e+03	3.525495e+03	0	1.253141e-03
1.800000e+08	3.960763e+13	0.000000e+00	5.333333e-01	7.657934e+14	2.567041e+14	1.574341e+14	1.262364e+04	4.954123e+03	3.552246e+03	0	1.235801e-03
1.900000e+08	3.801796e+13	0.000000e+00	5.333333e-01	7.359813e+14	2.678710e+14	1.565924e+14	1.250583e+04	4.989107e+03	3.577331e+03	0	1.219042e-03
2.000000e+08	3.652143e+13	0.000000e+00	5.333333e-01	7.079102e+14	2.786574e+14	1.557569e+14	1.239255e+04	5.021886e+03	3.600834e+03	0	1.202832e-03
2.100000e+08	3.511087e+13	0.000000e+00	5.333333e-01	6.814464e+14	2.890442e+14	1.549276e+14	1.228353e+04	5.052573e+03	3.622837e+03	0	1.187143e-03
2.200000e+08	3.377984e+13	0.000000e+00	5.333333e-01	6.564694e+14	2.990162e+14	1.541044e+14	1.217853e+04	5.081275e+03	3.643418e+03	0	1.171948e-03
2.300000e+08	3.252246e+13	0.000000e+00	5.333333e-01	6.328700e+14	3.085620e+14	1.532872e+14	1.207732e+04	5.108094e+03	3.662648e+03	0	1.157222e-03
2.400000e+08	3.133344e+13	0.000000e+00	5.333333e-01	6.105488e+14	3.176732e+14	1.524760e+14	1.197971e+04	5.133126e+03	3.680597e+03	0	1.142944e-03
2.500000e+08	3.020793e+13	0.000000e+00	5.333333e-01	5.894158e+14	3.263448e+14	1.516707e+14	1.188550e+04	5.156463e+03	3.697329e+03	0	1.129092e-03
2.600000e+08	2.914153e+13	0.000000e+00	5.333333e-01	5.693884e+14	3.345743e+14	1.508714e+14	1.179451e+04	5.178189e+03	3.712908e+03	0	1.115646e-03
2.700000e+08	2.813020e+13	0.000000e+00	5.333333e-01	5.503914e+14	3.423619e+14	1.500779e+14	1.170658e+04	5.198389e+03	3.727392e+03	0	1.102588e-03
2.800000e+08	2.717027e+13	0.000000e+00	5.333333e-01	5.323561e+14	3.497098e+14	1.492901e+14	1.162154e+04	5.217139e+03	3.740836e+03	0	1.089901e-03
2.900000e+08	2.625833e+13	0.000000e+00	5.333333e-01	5.152190e+14	3.566223e+14	1.485082e+14	1.153926e+04	5.234516e+03	3.753296e+03	0	1.077568e-03
3.000000e+08	2.539130e+13	0.000000e+00	5.333333e-01	4.989223e+14	3.631054e+14	1.477319e+14	1.145960e+04	5.250588e+03	3.764820e+03	0	1.065575e-03
3.100000e+08	2.456630e+13	0.000000e+00	5.333333e-01	4.834125e+14	3.691665e+14	1.469613e+14	1.138244e+04	5.265425e+03	3.775458e+03	0	1.053907e-03
3.200000e+08	2.378070e+13	0.000000e+00	5.333333e-01	4.686402e+14	3.748143e+14	1.461963e+14	1.130764e+04	5.279089e+03	3.785256e+03	0	1.042551e-03
3.300000e+08	2.303206e+13	0.000000e+00	5.333333e-01	4.545601e+14	3.800587e+14	1.454368e+14	1.123511e+04	5.291642e+03	3.794257e+03	0	1.031494e-03
3.400000e+08	2.231815e+13	0.000000e+00	5.333333e-01	4.411300e+14	3.849103e+14	1.446829e+14	1.116473e+04	5.303141e+03	3.802502e+03	0	1.020724e-03
3.500000e+08	2.163686e+13	0.000000e+00	5.333333e-01	4.283111e+14	3.893805e+14	1.439344e+14	1.109641e+04	5.313643e+03	3.810032e+03	0	1.010230e-03
3.600000e+08	2.098628e+13	0.000000e+00	5.333333e-01	4.160672e+14	3.934814e+14	1.431914e+14	1.103006e+04	5.323200e+03	3.816885e+03	0	1.000002e-03
3.700000e+08	2.036462e+13	0.000000e+00	5.333333e-01	4.043649e+14	3.972254e+14	1.424537e+14	1.096559e+04	5.331861e+03	3.823095e+03	0	9.900287e-04
3.800000e+08	1.977020e+13	0.000000e+00	5.333333e-01	3.931732e+14	4.006252e+14	1.417214e+14	1.090291e+04	5.339674e+03	3.828697e+03	0	9.803008e-04
3.900000e+08	1.920148e+13	0.000000e+00	5.333333e-01	3.824629e+14	4.036940e+14	1.409944e+14	1.084195e+04	5.346684e+03	3.833724e+03	0	9.708092e-04
4.000000e+08	1.865702e+13	0.000000e+00	5.333333e-01	3.722072e+14	4.064448e+14	1.402726e+14	1.078263e+04	5.352935e+03	3.838206e+03	0	9.615453e-04
4.100000e+08	1.813547e+13	0.000000e+00	5.333333e-01	3.623811e+14	4.088906e+14	1.395560e+14	1.072490e+04	5.358467e+03	3.842172e+03	0	9.525008e-04
4.200000e+08	1.763560e+13	0.000000e+00	5.333333e-01	3.529610e+14	4.110447e+14	1.388446e+14	1.066867e+04	5.363319e+03	3.845651e+03	0	9.436677e-04
4.300000e+08	1.715621e+13	0.000000e+00	5.333333e-01	3.439250e+14	4.129200e+14	1.381383e+14	1.061389e+04	5.367527e+03	3.848669e+03	0	9.350385e-04
4.400000e+08	1.669623e+13	0.000000e+00	5.333333e-01	3.352528e+14	4.145292e+14	1.374371e+14	1.056050e+04	5.371128e+03	3.851251e+03	0	9.266061e-04
4.500000e+08	1.625462e+13	0.000000e+00	5.333333e-01	3.269251e+14	4.158853e+14	1.367410e+14	1.050845e+04	5.374154e+03	3.853420e+03	0	9.183635e-04
4.600000e+08	1.583043e+13	0.000000e+00	5.333333e-01	3.189241e+14	4.170001e+14	1.360498e+14	1.045768e+04	5.376636e+03	3.855200e+03	0	9.103044e-04
4.700000e+08	1.542277e+13	0.000000e+00	5.333333e-01	3.112330e+14	4.178862e+14	1.353636e+14	1.040814e+04	5.378606e+03	3.856612e+03	0	9.024223e-04
4.800000e+08	1.503078e+13	0.000000e+00	5.333333e-01	3.038360e+14	4.185551e+14	1.346823e+14	1.035978e+04	5.380090e+03	3.857677e+03	0	8.947113e-04
4.900000e+08	1.465369e+13	0.000000e+00	5.333333e-01	2.967184e+14	4.190182e+14	1.340059e+14	1.031257e+04	5.381117e+03	3.858413e+03	0	8.871657e-04
5.000000e+08	1.429075e+13	0.000000e+00	5.333333e-01	2.898663e+14	4.192867e+14	1.333343e+14	1.026645e+04	5.381712e+03	3.858840e+03	0	8.797800e-04
5.100000e+08	1.394127e+13	0.000000e+00	5.333333e-01	2.832666e+14	4.193713e+14	1.326676e+14	1.022139e+04	5.381900e+03	3.858974e+03	0	8.725489e-04
5.200000e+08	1.360458e+13	0.000000e+00	5.333333e-01	2.769072e+14	4.192822e+14	1.320055e+14	1.017735e+04	5.381702e+03	3.858833e+03	0	8.654674e-04
5.300000e+08	1.328007e+13	0.000000e+00	5.333333e-01	2.707763e+14	4.190295e+14	1.313482e+14	1.013429e+04	5.381142e+03	3.858431e+03	0	8.585307e-04
5.400000e+08	1.296717e+13	0.000000e+00	5.333333e-01	2.648633e+14	4.186228e+14	1.306956e+14	1.009218e+04	5.380240e+03	3.857785e+03	0	8.517342e-04
5.500000e+08	1.266532e+13	0.000000e+00	5.333333e-01	2.591578e+14	4.180712e+14	1.300477e+14	1.005097e+04	5.379016e+03	3.856907e+03	0	8.450733e-04
5.600000e+08	1.237401e+13	0.000000e+00	5.333333e-01	2.536502e+14	4.173835e+14	1.294043e+14	1.001065e+04	5.377489e+03	3.855811e+03	0	8.385440e-04
5.700000e+08	1.209275e+13	0.000000e+00	5.333333e-01	2.483313e+14	4.165683e+14	1.287655e+14	9.971185e+03	5.375675e+03	3.854511e+03	0	8.321419e-04
5.800000e+08	1.182109e+13	0.000000e+00	5.333333e-01	2.431927e+14	4.156336e+14	1.281312e+14	9.932537e+03	5.373593e+03	3.853018e+03	0	8.258633e-04
5.900000e+08	1.155858e+13	0.000000e+00	5.333333e-01	2.382261e+14	4.145871e+14	1.275015e+14	9.894683e+03	5.371257e+03	3.851343e+03	0	8.197044e-04
6.000000e+08	1.130483e+13	0.000000e+00	5.333333e-01	2.334239e+14	4.134361e+14	1.268761e+14	9.857597e+03	5.368683e+03	3.849498e+03	0	8.136614e-04
6.100000e+08	1.105944e+13	0.000000e+00	5.333333e-01	2.287788e+14	4.121878e+14	1.262553e+14	9.821254e+03	5.365886e+03	3.847492e+03	0	8.077310e-04
6.200000e+08	1.082205e+13	0.000000e+00	5.333333e-01	2.242840e+14	4.108487e+14	1.256388e+14	9.785629e+03	5.362878e+03	3.845335e+03	0	8.019098e-04
6.300000e+08	1.059230e+13	0.000000e+00	5.333333e-01	2.199329e+14	4.094252e+14	1.250266e+14	9.750699e+03	5.359673e+03	3.843037e+03	0	7.961945e-04
6.400000e+08	1.036988e+13	0.000000e+00	5.333333e-01	2.157194e+14	4.079234e+14	1.244188e+14	9.716443e+03	5.356282e+03	3.840606e+03	0	7.905820e-04
6.500000e+08	1.015447e+13	0.000000e+00	5.333333e-01	2.116378e+14	4.063489e+14	1.238152e+14	9.682838e+03	5.352718e+03	3.838050e+03	0	7.850694e-04
6.600000e+08	9.945767e+12	0.000000e+00	5.333333e-01	2.076823e+14	4.047074e+14	1.232159e+14	9.649866e+03	5.348991e+03	3.835378e+03	0	7.796538e-04
6.700000e+08	9.743503e+12	0.000000e+00	5.333333e-01	2.038479e+14	4.030038e+14	1.226208e+14	9.617505e+03	5.345111e+03	3.832596e+03	0	7.743323e-04
6.800000e+08	9.547407e+12	0.000000e+00	5.333333e-01	2.001294e+14	4.012432e+14	1.220299e+14	9.585739e+03	5.341089e+03	3.829711e+03	0	7.691024e-04
6.900000e+08	9.357229e+12	0.000000e+00	5.333333e-01	1.965223e+14	3.994300e+14	1.214432e+14	9.554548e+03	5.336933e+03	3.826732e+03	0	7.639614e-04
7.000000e+08	9.172728e+12	0.000000e+00	5.333333e-01	1.930219e+14	3.975688e+14	1.208605e+14	9.523916e+03	5.332652e+03	3.823662e+03	0	7.589069e-04
7.100000e+08	8.993676e+12	0.000000e+00	5.333333e-01	1.896241e+14	3.956635e+14	1.202819e+14	9.493826e+03	5.328255e+03	3.820509e+03	0	7.539365e-04
7.200000e+08	8.819859e+12	0.000000e+00	5.333333e-01	1.863248e+14	3.937183e+14	1.197074e+14	9.464263e+03	5.323750e+03	3.817279e+03	0	7.490479e-04
7.300000e+08	8.651068e+12	0.000000e+00	5.333333e-01	1.831201e+14	3.917367e+14	1.191369e+14	9.435211e+03	5.319143e+03	3.813976e+03	0	7.442387e-04
7.400000e+08	8.487110e+12	0.000000e+00	5.333333e-01	1.800063e+14	3.897222e+14	1.185704e+14	9.406656e+03	5.314442e+03	3.810605e+03	0	7.395070e-04
7.500000e+08	8.327797e+12	0.000000e+00	5.333333e-01	1.769800e+14	3.876782e+14	1.180078e+14	9.378584e+03	5.309654e+03	3.807172e+03	0	7.348506e-04
7.600000e+08	8.172952e+12	0.000000e+00	5.333333e-01	1.740377e+14	3.856076e+14	1.174491e+14	9.350981e+03	5.304785e+03	3.803681e+03	0	7.302676e-04
7.700000e+08	8.022406e+12	0.000000e+00	5.333333e-01	1.711765e+14	3.835134e+14	1.168944e+14	9.323834e+03	5.299841e+03	3.800136e+03	0	7.257559e-04
7.800000e+08	7.875997e+12	0.000000e+00	5.333333e-01	1.683931e+14	3.813985e+14	1.163435e+14	9.297131e+03	5.294828e+03	3.796541e+03	0	7.213138e-04
7.900000e+08	7.733572e+12	0.000000e+00	5.333333e-01	1.656848e+14	3.792653e+14	1.157964e+14	9.270860e+03	5.289751e+03	3.792901e+03	0	7.169393e-04
8.000000e+08	7.594984e+12	0.000000e+00	5.333333e-01	1.630488e+14	3.771163e+14	1.152531e+14	9.245009e+03	5.284615e+03	3.789218e+03	0	7.126309e-04
8.100000e+08	7.460093e+12	0.000000e+00	5.333333e-01	1.604824e+14	3.749538e+14	1.147135e+14	9.219567e+03	5.279424e+03	3.785496e+03	0	7.083868e-04
8.200000e+08	7.328766e+12	0.000000e+00	5.333333e-01	1.579832e+14	3.727800e+14	1.141777e+14	9.194523e+03	5.274184e+03	3.781739e+03	0	7.042053e-04
8.300000e+08	7.200873e+12	0.000000e+00	5.333333e-01	1.555487e+14	3.705967e+14	1.136456e+14	9.169867e+03	5.268899e+03	3.777950e+03	0	7.000850e-04
8.400000e+08	7.076295e+12	0.000000e+00	5.333333e-01	1.531767e+14	3.684060e+14	1.131172e+14	9.145589e+03	5.263573e+03	3.774131e+03	0	6.960242e-04
8.500000e+08	6.954914e+12	0.000000e+00	5.333333e-01	1.508649e+14	3.662095e+14	1.125925e+14	9.121680e+03	5.258209e+03	3.770285e+03	0	6.920215e-04
8.600000e+08	6.836618e+12	0.000000e+00	5.333333e-01	1.486113e+14	3.640091e+14	1.120713e+14	9.098129e+03	5.252812e+03	3.766415e+03	0	6.880756e-04
8.700000e+08	6.721301e+12	0.000000e+00	5.333333e-01	1.464139e+14	3.618061e+14	1.115537e+14	9.074929e+03	5.247384e+03	3.762523e+03	0	6.841849e-04
8.800000e+08	6.608861e+12	0.000000e+00	5.333333e-01	1.442707e+14	3.596021e+14	1.110397e+14	9.052070e+03	5.241929e+03	3.758612e+03	0	6.803482e-04
8.900000e+08	6.499199e+12	0.000000e+00	5.333333e-01	1.421800e+14	3.573984e+14	1.105292e+14	9.029543e+03	5.236451e+03	3.754683e+03	0	6.765641e-04
9.000000e+08	6.392223e+12	0.000000e+00	5.333333e-01	1.401399e+14	3.551963e+14	1.100223e+14	9.007342e+03	5.230951e+03	3.750740e+03	0	6.728315e-04
9.100000e+08	6.287844e+12	0.000000e+00	5.333333e-01	1.381488e+14	3.529969e+14	1.095188e+14	8.985457e+03	5.225434e+03	3.746784e+03	0	6.691492e-04
9.200000e+08	6.185973e+12	0.000000e+00	5.333333e-01	1.362051e+14	3.508013e+14	1.090187e+14	8.963882e+03	5.219900e+03	3.742816e+03	0	6.655158e-04
9.300000e+08	6.086531e+12	0.000000e+00	5.333333e-01	1.343071e+14	3.486107e+14	1.085221e+14	8.942609e+03	5.214353e+03	3.738839e+03	0	6.619304e-04
9.400000e+08	5.989437e+12	0.000000e+00	5.333333e-01	1.324535e+14	3.464260e+14	1.080289e+14	8.921631e+03	5.208796e+03	3.734854e+03	0	6.583917e-04
9.500000e+08	5.894615e+12	0.000000e+00	5.333333e-01	1.306428e+14	3.442479e+14	1.075390e+14	8.900941e+03	5.203230e+03	3.730863e+03	0	6.548988e-04
9.600000e+08	5.801994e+12	0.000000e+00	5.333333e-01	1.288737e+14	3.420775e+14	1.070525e+14	8.880533e+03	5.197657e+03	3.726867e+03	0	6.514505e-04
9.700000e+08	5.711503e+12	0.000000e+00	5.333333e-01	1.271448e+14	3.399153e+14	1.065693e+14	8.860399e+03	5.192079e+03	3.722868e+03	0	6.480460e-04
9.800000e+08	5.623075e+12	0.000000e+00	5.333333e-01	1.254548e+14	3.377621e+14	1.060893e+14	8.840535e+03	5.186499e+03	3.718867e+03	0	6.446841e-04
9.900000e+08	5.536646e+12	0.000000e+00	5.333333e-01	1.238026e+14	3.356186e+14	1.056127e+14	8.820933e+03	5.180918e+03	3.714865e+03	0	6.413640e-04
1.000000e+09	5.452154e+12	0.000000e+00	5.333333e-01	1.221870e+14	3.334855e+14	1.051392e+14	8.801588e+03	5.175337e+03	3.710863e+03	0	6.380848e-04
1.010000e+09	5.369539e+12	0.000000e+00	5.333333e-01	1.206069e+14	3.313631e+14	1.046690e+14	8.782495e+03	5.169759e+03	3.706863e+03	0	6.348455e-04
1.020000e+09	5.288745e+12	0.000000e+00	5.333333e-01	1.190611e+14	3.292521e+14	1.042020e+14	8.763647e+03	5.164184e+03	3.702866e+03	0	6.316452e-04
1.030000e+09	5.209716e+12	0.000000e+00	5.333333e-01	1.175488e+14	3.271529e+14	1.037381e+14	8.745040e+03	5.158614e+03	3.698872e+03	0	6.284832e-04
1.040000e+09	5.132399e+12	0.000000e+00	5.333333e-01	1.160688e+14	3.250659e+14	1.032774e+14	8.726668e+03	5.153050e+03	3.694882e+03	0	6.253586e-04
1.050000e+09	5.056744e+12	0.000000e+00	5.333333e-01	1.146202e+14	3.229917e+14	1.028198e+14	8.708527e+03	5.147494e+03	3.690899e+03	0	6.222707e-04
1.060000e+09	4.982701e+12	0.000000e+00	5.333333e-01	1.132021e+14	3.209303e+14	1.023652e+14	8.690611e+03	5.141946e+03	3.686921e+03	0	6.192186e-04
1.070000e+09	4.910223e+12	0.000000e+00	5.333333e-01	1.118136e+14	3.188823e+14	1.019138e+14	8.672915e+03	5.136408e+03	3.682950e+03	0	6.162015e-04
1.080000e+09	4.839266e+12	0.000000e+00	5.333333e-01	1.104539e+14	3.168479e+14	1.014653e+14	8.655436e+03	5.130881e+03	3.678987e+03	0	6.132189e-04
1.090000e+09	4.769784e+12	0.000000e+00	5.333333e-01	1.091221e+14	3.148274e+14	1.010199e+14	8.638168e+03	5.125366e+03	3.675032e+03	0	6.102699e-04
1.100000e+09	4.701736e+12	0.000000e+00	5.333333e-01	1.078174e+14	3.128210e+14	1.005775e+14	8.621108e+03	5.119863e+03	3.671086e+03	0	6.073538e-04
1.110000e+09	4.635082e+12	0.000000e+00	5.333333e-01	1.065391e+14	3.108290e+14	1.001380e+14	8.604251e+03	5.114373e+03	3.667150e+03	0	6.044701e-04
1.120000e+09	4.569781e+12	0.000000e+00	5.333333e-01	1.052864e+14	3.088515e+14	9.970147e+13	8.587593e+03	5.108898e+03	3.663224e+03	0	6.016180e-04
1.130000e+09	4.505796e+12	0.000000e+00	5.333333e-01	1.040586e+14	3.068886e+14	9.926787e+13	8.571129e+03	5.103438e+03	3.659309e+03	0	5.987969e-04
1.140000e+09	4.443092e+12	0.000000e+00	5.333333e-01	1.028551e+14	3.049406e+14	9.883717e+13	8.554858e+03	5.097993e+03	3.655405e+03	0	5.960062e-04
1.150000e+09	4.381631e+12	0.000000e+00	5.333333e-01	1.016751e+14	3.030076e+14	9.840934e+13	8.538773e+03	5.092565e+03	3.651513e+03	0	5.932453e-04
1.160000e+09	4.321381e+12	0.000000e+00	5.333333e-01	1.005180e+14	3.010896e+14	9.798437e+13	8.522872e+03	5.087153e+03	3.647633e+03	0	5.905136e-04
1.170000e+09	4.262308e+12	0.000000e+00	5.333333e-01	9.938326e+13	2.991867e+14	9.756223e+13	8.507152e+03	5.081759e+03	3.643765e+03	0	5.878105e-04
1.180000e+09	4.204381e+12	0.000000e+00	5.333333e-01	9.827020e+13	2.972991e+14	9.714290e+13	8.491608e+03	5.076384e+03	3.639911e+03	0	5.851354e-04
1.190000e+09	4.147570e+12	0.000000e+00	5.333333e-01	9.717827e+13	2.954266e+14	9.672635e+13	8.476238e+03	5.071026e+03	3.636069e+03	0	5.824879e-04
1.200000e+09	4.091844e+12	0.000000e+00	5.333333e-01	9.610692e+13	2.935697e+14	9.631258e+13	8.461038e+03	5.065688e+03	3.632241e+03	0	5.798674e-04
1.210000e+09	4.037175e+12	0.000000e+00	5.333333e-01	9.505560e+13	2.917279e+14	9.590154e+13	8.446005e+03	5.060368e+03	3.628427e+03	0	5.772734e-04
1.220000e+09	3.983535e+12	0.000000e+00	5.333333e-01	9.402379e+13	2.899016e+14	9.549323e+13	8.431135e+03	5.055069e+03	3.624627e+03	0	5.747054e-04
1.230000e+09	3.930898e+12	0.000000e+00	5.333333e-01	9.301100e+13	2.880906e+14	9.508762e+13	8.416427e+03	5.049790e+03	3.620842e+03	0	5.721628e-04
1.240000e+09	3.879238e+12	0.000000e+00	5.333333e-01	9.201672e+13	2.862950e+14	9.468469e+13	8.401876e+03	5.044531e+03	3.617071e+03	0	5.696453e-04
1.250000e+09	3.828530e+12	0.000000e+00	5.333333e-01	9.104049e+13	2.845147e+14	9.428442e+13	8.387480e+03	5.039293e+03	3.613315e+03	0	5.671523e-04
1.260000e+09	3.778749e+12	0.000000e+00	5.333333e-01	9.008186e+13	2.827497e+14	9.388679e+13	8.373236e+03	5.034076e+03	3.609575e+03	0	5.646835e-04
1.270000e+09	3.729873e+12	0.000000e+00	5.333333e-01	8.914038e+13	2.810001e+14	9.349178e+13	8.359142e+03	5.028880e+03	3.605849e+03	0	5.622382e-04
1.280000e+09	3.681878e+12	0.000000e+00	5.333333e-01	8.821563e+13	2.792656e+14	9.309936e+13	8.345194e+03	5.023706e+03	3.602139e+03	0	5.598162e-04
1.290000e+09	3.634743e+12	0.000000e+00	5.333333e-01	8.730718e+13	2.775464e+14	9.270953e+13	8.331391e+03	5.018553e+03	3.598445e+03	0	5.574170e-04
1.300000e+09	3.588445e+12	0.000000e+00	5.333333e-01	8.641465e+13	2.758423e+14	9.232225e+13	8.317729e+03	5.013423e+03	3.594766e+03	0	5.550402e-04
1.310000e+09	3.542966e+12	0.000000e+00	5.333333e-01	8.553764e+13	2.741533e+14	9.193752e+13	8.304207e+03	5.008315e+03	3.591103e+03	0	5.526854e-04
1.320000e+09	3.498284e+12	0.000000e+00	5.333333e-01	8.467577e+13	2.724793e+14	9.155530e+13	8.290821e+03	5.003229e+03	3.587456e+03	0	5.503522e-04
1.330000e+09	3.454381e+12	0.000000e+00	5.333333e-01	8.382869e+13	2.708202e+14	9.117558e+13	8.277570e+03	4.998165e+03	3.583826e+03	0	5.480402e-04
1.340000e+09	3.411238e+12	0.000000e+00	5.333333e-01	8.299603e+13	2.691759e+14	9.079835e+13	8.264450e+03	4.993124e+03	3.580211e+03	0	5.457491e-04
1.350000e+09	3.368836e+12	0.000000e+00	5.333333e-01	8.217745e+13	2.675465e+14	9.042357e+13	8.251461e+03	4.988106e+03	3.576613e+03	0	5.434784e-04
1.360000e+09	3.327158e+12	0.000000e+00	5.333333e-01	8.137263e+13	2.659317e+14	9.005124e+13	8.238599e+03	4.983110e+03	3.573031e+03	0	5.412279e-04
