#t		Qconv[W]	Ri[Rp]		R*[Rp]		Qc[W]		Qm[W]		Qr[W]		Tcmb[K]		Tl[K]		Tup[K]		RiFlag		Bs[T]
0.000000e+00	1.232752e+14	0.000000e+00	5.238095e-01	2.333383e+15	3.956264e+13	1.863261e+14	1.729755e+04	3.862846e+03	2.729192e+03	0	1.824761e-03
1.000000e+07	1.146078e+14	0.000000e+00	5.238095e-01	2.171588e+15	4.955942e+13	1.852937e+14	1.695390e+04	3.986319e+03	2.816429e+03	0	1.780952e-03
2.000000e+07	1.068599e+14	0.000000e+00	5.238095e-01	2.026921e+15	6.050604e+13	1.842690e+14	1.663342e+04	4.101146e+03	2.897557e+03	0	1.739878e-03
3.000000e+07	9.990102e+13	0.000000e+00	5.238095e-01	1.896958e+15	7.229302e+13	1.832520e+14	1.633372e+04	4.208137e+03	2.973149e+03	0	1.701260e-03
4.000000e+07	9.362375e+13	0.000000e+00	5.238095e-01	1.779696e+15	8.480689e+13	1.822426e+14	1.605274e+04	4.307986e+03	3.043694e+03	0	1.664854e-03
5.000000e+07	8.793862e+13	0.000000e+00	5.238095e-01	1.673471e+15	9.793349e+13	1.812407e+14	1.578870e+04	4.401295e+03	3.109619e+03	0	1.630449e-03
6.000000e+07	8.277070e+13	0.000000e+00	5.238095e-01	1.576887e+15	1.115605e+14	1.802463e+14	1.554006e+04	4.488586e+03	3.171292e+03	0	1.597863e-03
7.000000e+07	7.805687e+13	0.000000e+00	5.238095e-01	1.488769e+15	1.255792e+14	1.792593e+14	1.530544e+04	4.570319e+03	3.229038e+03	0	1.566935e-03
8.000000e+07	7.374356e+13	0.000000e+00	5.238095e-01	1.408120e+15	1.398859e+14	1.782796e+14	1.508364e+04	4.646899e+03	3.283144e+03	0	1.537525e-03
9.000000e+07	6.978513e+13	0.000000e+00	5.238095e-01	1.334090e+15	1.543828e+14	1.773073e+14	1.487361e+04	4.718687e+03	3.333864e+03	0	1.509506e-03
1.000000e+08	6.614241e+13	0.000000e+00	5.238095e-01	1.265949e+15	1.689785e+14	1.763421e+14	1.467440e+04	4.786008e+03	3.381428e+03	0	1.482771e-03
1.100000e+08	6.278168e+13	0.000000e+00	5.238095e-01	1.203068e+15	1.835884e+14	1.753841e+14	1.448517e+04	4.849152e+03	3.426041e+03	0	1.457220e-03
1.200000e+08	5.967372e+13	0.000000e+00	5.238095e-01	1.144904e+15	1.981352e+14	1.744332e+14	1.430516e+04	4.908383e+03	3.467889e+03	0	1.432765e-03
1.300000e+08	5.679313e+13	0.000000e+00	5.238095e-01	1.090983e+15	2.125487e+14	1.734893e+14	1.413369e+04	4.963942e+03	3.507143e+03	0	1.409330e-03
1.400000e+08	5.411770e+13	0.000000e+00	5.238095e-01	1.040892e+15	2.267655e+14	1.725525e+14	1.397015e+04	5.016050e+03	3.543958e+03	0	1.386843e-03
1.500000e+08	5.162799e+13	0.000000e+00	5.238095e-01	9.942667e+14	2.407295e+14	1.716225e+14	1.381400e+04	5.064908e+03	3.578477e+03	0	1.365240e-03
1.600000e+08	4.930685e+13	0.000000e+00	5.238095e-01	9.507891e+14	2.543909e+14	1.706994e+14	1.366472e+04	5.110704e+03	3.610834e+03	0	1.344466e-03
1.700000e+08	4.713913e+13	0.000000e+00	5.238095e-01	9.101764e+14	2.677066e+14	1.697832e+14	1.352187e+04	5.153612e+03	3.641149e+03	0	1.324467e-03
1.800000e+08	4.511141e+13	0.000000e+00	5.238095e-01	8.721782e+14	2.806394e+14	1.688736e+14	1.338503e+04	5.193794e+03	3.669538e+03	0	1.305197e-03
1.900000e+08	4.321174e+13	0.000000e+00	5.238095e-01	8.365717e+14	2.931580e+14	1.679708e+14	1.325381e+04	5.231399e+03	3.696107e+03	0	1.286613e-03
2.000000e+08	4.142944e+13	0.000000e+00	5.238095e-01	8.031579e+14	3.052365e+14	1.670746e+14	1.312787e+04	5.266569e+03	3.720956e+03	0	1.268675e-03
2.100000e+08	3.975497e+13	0.000000e+00	5.238095e-01	7.717587e+14	3.168539e+14	1.661851e+14	1.300688e+04	5.299436e+03	3.744177e+03	0	1.251347e-03
2.200000e+08	3.817975e+13	0.000000e+00	5.238095e-01	7.422142e+14	3.279937e+14	1.653020e+14	1.289056e+04	5.330124e+03	3.765859e+03	0	1.234597e-03
2.300000e+08	3.669607e+13	0.000000e+00	5.238095e-01	7.143803e+14	3.386441e+14	1.644254e+14	1.277864e+04	5.358751e+03	3.786084e+03	0	1.218392e-03
2.400000e+08	3.529695e+13	0.000000e+00	5.238095e-01	6.881271e+14	3.487965e+14	1.635553e+14	1.267085e+04	5.385426e+03	3.804931e+03	0	1.202707e-03
2.500000e+08	3.397609e+13	0.000000e+00	5.238095e-01	6.633368e+14	3.584465e+14	1.626915e+14	1.256697e+04	5.410254e+03	3.822472e+03	0	1.187513e-03
2.600000e+08	3.272777e+13	0.000000e+00	5.238095e-01	6.399028e+14	3.675922e+14	1.618341e+14	1.246679e+04	5.433333e+03	3.838779e+03	0	1.172788e-03
2.700000e+08	3.154679e+13	0.000000e+00	5.238095e-01	6.177279e+14	3.762349e+14	1.609829e+14	1.237011e+04	5.454757e+03	3.853915e+03	0	1.158508e-03
2.800000e+08	3.042842e+13	0.000000e+00	5.238095e-01	5.967239e+14	3.843781e+14	1.601380e+14	1.227673e+04	5.474613e+03	3.867944e+03	0	1.144653e-03
2.900000e+08	2.936832e+13	0.000000e+00	5.238095e-01	5.768099e+14	3.920279e+14	1.592992e+14	1.218650e+04	5.492985e+03	3.880924e+03	0	1.131203e-03
3.000000e+08	2.836256e+13	0.000000e+00	5.238095e-01	5.579122e+14	3.991918e+14	1.584665e+14	1.209923e+04	5.509953e+03	3.892912e+03	0	1.118139e-03
3.100000e+08	2.740750e+13	0.000000e+00	5.238095e-01	5.399632e+14	4.058792e+14	1.576399e+14	1.201480e+04	5.525590e+03	3.903960e+03	0	1.105445e-03
3.200000e+08	2.649982e+13	0.000000e+00	5.238095e-01	5.229007e+14	4.121008e+14	1.568193e+14	1.193305e+04	5.539969e+03	3.914119e+03	0	1.093104e-03
3.300000e+08	2.563646e+13	0.000000e+00	5.238095e-01	5.066677e+14	4.178684e+14	1.560046e+14	1.185386e+04	5.553157e+03	3.923437e+03	0	1.081102e-03
3.400000e+08	2.481461e+13	0.000000e+00	5.238095e-01	4.912116e+14	4.231950e+14	1.551959e+14	1.177710e+04	5.565217e+03	3.931958e+03	0	1.069424e-03
3.500000e+08	2.403168e+13	0.000000e+00	5.238095e-01	4.764840e+14	4.280938e+14	1.543931e+14	1.170266e+04	5.576211e+03	3.939725e+03	0	1.058056e-03
3.600000e+08	2.328527e+13	0.000000e+00	5.238095e-01	4.624400e+14	4.325791e+14	1.535960e+14	1.163042e+04	5.586197e+03	3.946780e+03	0	1.046987e-03
3.700000e+08	2.257317e+13	0.000000e+00	5.238095e-01	4.490383e+14	4.366655e+14	1.528048e+14	1.156030e+04	5.595228e+03	3.953161e+03	0	1.036203e-03
3.800000e+08	2.189331e+13	0.000000e+00	5.238095e-01	4.362406e+14	4.403680e+14	1.520193e+14	1.149218e+04	5.603357e+03	3.958904e+03	0	1.025694e-03
3.900000e+08	2.124380e+13	0.000000e+00	5.238095e-01	4.240113e+14	4.437013e+14	1.512394e+14	1.142599e+04	5.610633e+03	3.964045e+03	0	1.015449e-03
4.000000e+08	2.062288e+13	0.000000e+00	5.238095e-01	4.123174e+14	4.466807e+14	1.504652e+14	1.136164e+04	5.617102e+03	3.968616e+03	0	1.005458e-03
4.100000e+08	2.002891e+13	0.000000e+00	5.238095e-01	4.011284e+14	4.493213e+14	1.496965e+14	1.129904e+04	5.622809e+03	3.972648e+03	0	9.957106e-04
4.200000e+08	1.946036e+13	0.000000e+00	5.238095e-01	3.904156e+14	4.516381e+14	1.489334e+14	1.123813e+04	5.627797e+03	3.976172e+03	0	9.861984e-04
4.300000e+08	1.891581e+13	0.000000e+00	5.238095e-01	3.801525e+14	4.536460e+14	1.481758e+14	1.117883e+04	5.632103e+03	3.979214e+03	0	9.769124e-04
4.400000e+08	1.839393e+13	0.000000e+00	5.238095e-01	3.703145e+14	4.553594e+14	1.474237e+14	1.112107e+04	5.635768e+03	3.981803e+03	0	9.678444e-04
4.500000e+08	1.789350e+13	0.000000e+00	5.238095e-01	3.608783e+14	4.567928e+14	1.466769e+14	1.106480e+04	5.638825e+03	3.983964e+03	0	9.589864e-04
4.600000e+08	1.741335e+13	0.000000e+00	5.238095e-01	3.518225e+14	4.579602e+14	1.459356e+14	1.100995e+04	5.641310e+03	3.985719e+03	0	9.503309e-04
4.700000e+08	1.695242e+13	0.000000e+00	5.238095e-01	3.431269e+14	4.588750e+14	1.451995e+14	1.095646e+04	5.643255e+03	3.987093e+03	0	9.418707e-04
4.800000e+08	1.650969e+13	0.000000e+00	5.238095e-01	3.347726e+14	4.595508e+14	1.444687e+14	1.090429e+04	5.644689e+03	3.988106e+03	0	9.335989e-04
4.900000e+08	1.608422e+13	0.000000e+00	5.238095e-01	3.267420e+14	4.600001e+14	1.437431e+14	1.085337e+04	5.645642e+03	3.988780e+03	0	9.255091e-04
5.000000e+08	1.567513e+13	0.000000e+00	5.238095e-01	3.190185e+14	4.602357e+14	1.430228e+14	1.080367e+04	5.646141e+03	3.989132e+03	0	9.175950e-04
5.100000e+08	1.528158e+13	0.000000e+00	5.238095e-01	3.115866e+14	4.602693e+14	1.423075e+14	1.075513e+04	5.646212e+03	3.989183e+03	0	9.098506e-04
5.200000e+08	1.490279e+13	0.000000e+00	5.238095e-01	3.044318e+14	4.601127e+14	1.415974e+14	1.070771e+04	5.645880e+03	3.988948e+03	0	9.022701e-04
5.300000e+08	1.453805e+13	0.000000e+00	5.238095e-01	2.975404e+14	4.597769e+14	1.408924e+14	1.066137e+04	5.645168e+03	3.988445e+03	0	8.948482e-04
5.400000e+08	1.418665e+13	0.000000e+00	5.238095e-01	2.908995e+14	4.592725e+14	1.401923e+14	1.061608e+04	5.644098e+03	3.987689e+03	0	8.875797e-04
5.500000e+08	1.384796e+13	0.000000e+00	5.238095e-01	2.844970e+14	4.586099e+14	1.394973e+14	1.057179e+04	5.642692e+03	3.986695e+03	0	8.804594e-04
5.600000e+08	1.352137e+13	0.000000e+00	5.238095e-01	2.783217e+14	4.577990e+14	1.388071e+14	1.052846e+04	5.640968e+03	3.985477e+03	0	8.734826e-04
5.700000e+08	1.320630e+13	0.000000e+00	5.238095e-01	2.723627e+14	4.568489e+14	1.381219e+14	1.048607e+04	5.638945e+03	3.984048e+03	0	8.666447e-04
5.800000e+08	1.290221e+13	0.000000e+00	5.238095e-01	2.666099e+14	4.557688e+14	1.374416e+14	1.044458e+04	5.636642e+03	3.982421e+03	0	8.599412e-04
5.900000e+08	1.260861e+13	0.000000e+00	5.238095e-01	2.610540e+14	4.545671e+14	1.367661e+14	1.040396e+04	5.634075e+03	3.980607e+03	0	8.533681e-04
6.000000e+08	1.232500e+13	0.000000e+00	5.238095e-01	2.556857e+14	4.532520e+14	1.360953e+14	1.036418e+04	5.631259e+03	3.978618e+03	0	8.469211e-04
6.100000e+08	1.205093e+13	0.000000e+00	5.238095e-01	2.504968e+14	4.518313e+14	1.354293e+14	1.032521e+04	5.628211e+03	3.976465e+03	0	8.405964e-04
6.200000e+08	1.178598e+13	0.000000e+00	5.238095e-01	2.454791e+14	4.503123e+14	1.347680e+14	1.028703e+04	5.624945e+03	3.974157e+03	0	8.343903e-04
6.300000e+08	1.152974e+13	0.000000e+00	5.238095e-01	2.406252e+14	4.487019e+14	1.341114e+14	1.024961e+04	5.621473e+03	3.971704e+03	0	8.282991e-04
6.400000e+08	1.128183e+13	0.000000e+00	5.238095e-01	2.359278e+14	4.470070e+14	1.334594e+14	1.021292e+04	5.617809e+03	3.969115e+03	0	8.223194e-04
6.500000e+08	1.104189e+13	0.000000e+00	5.238095e-01	2.313801e+14	4.452337e+14	1.328120e+14	1.017695e+04	5.613964e+03	3.966399e+03	0	8.164479e-04
6.600000e+08	1.080957e+13	0.000000e+00	5.238095e-01	2.269758e+14	4.433881e+14	1.321691e+14	1.014166e+04	5.609951e+03	3.963563e+03	0	8.106813e-04
6.700000e+08	1.058456e+13	0.000000e+00	5.238095e-01	2.227087e+14	4.414759e+14	1.315308e+14	1.010704e+04	5.605780e+03	3.960616e+03	0	8.050167e-04
6.800000e+08	1.036653e+13	0.000000e+00	5.238095e-01	2.185732e+14	4.395022e+14	1.308970e+14	1.007307e+04	5.601461e+03	3.957565e+03	0	7.994510e-04
6.900000e+08	1.015521e+13	0.000000e+00	5.238095e-01	2.145637e+14	4.374724e+14	1.302676e+14	1.003972e+04	5.597004e+03	3.954416e+03	0	7.939814e-04
7.000000e+08	9.950316e+12	0.000000e+00	5.238095e-01	2.106750e+14	4.353911e+14	1.296426e+14	1.000699e+04	5.592418e+03	3.951176e+03	0	7.886052e-04
7.100000e+08	9.751583e+12	0.000000e+00	5.238095e-01	2.069023e+14	4.332630e+14	1.290220e+14	9.974838e+03	5.587712e+03	3.947851e+03	0	7.833197e-04
7.200000e+08	9.558763e+12	0.000000e+00	5.238095e-01	2.032408e+14	4.310920e+14	1.284057e+14	9.943262e+03	5.582895e+03	3.944447e+03	0	7.781224e-04
7.300000e+08	9.371620e+12	0.000000e+00	5.238095e-01	1.996862e+14	4.288827e+14	1.277937e+14	9.912242e+03	5.577973e+03	3.940970e+03	0	7.730108e-04
7.400000e+08	9.189928e+12	0.000000e+00	5.238095e-01	1.962341e+14	4.266384e+14	1.271860e+14	9.881761e+03	5.572955e+03	3.937425e+03	0	7.679826e-04
7.500000e+08	9.013472e+12	0.000000e+00	5.238095e-01	1.928806e+14	4.243629e+14	1.265826e+14	9.851803e+03	5.567847e+03	3.933816e+03	0	7.630355e-04
7.600000e+08	8.842051e+12	0.000000e+00	5.238095e-01	1.896219e+14	4.220595e+14	1.259833e+14	9.822355e+03	5.562656e+03	3.930148e+03	0	7.581673e-04
7.700000e+08	8.675468e+12	0.000000e+00	5.238095e-01	1.864543e+14	4.197314e+14	1.253882e+14	9.793401e+03	5.557388e+03	3.926426e+03	0	7.533758e-04
7.800000e+08	8.513540e+12	0.000000e+00	5.238095e-01	1.833744e+14	4.173818e+14	1.247973e+14	9.764928e+03	5.552049e+03	3.922654e+03	0	7.486591e-04
7.900000e+08	8.356091e+12	0.000000e+00	5.238095e-01	1.803788e+14	4.150131e+14	1.242104e+14	9.736923e+03	5.546645e+03	3.918836e+03	0	7.440151e-04
8.000000e+08	8.202952e+12	0.000000e+00	5.238095e-01	1.774645e+14	4.126282e+14	1.236277e+14	9.709373e+03	5.541181e+03	3.914975e+03	0	7.394420e-04
8.100000e+08	8.053965e+12	0.000000e+00	5.238095e-01	1.746283e+14	4.102297e+14	1.230489e+14	9.682266e+03	5.535662e+03	3.911076e+03	0	7.349378e-04
8.200000e+08	7.908977e+12	0.000000e+00	5.238095e-01	1.718675e+14	4.078195e+14	1.224742e+14	9.655589e+03	5.530092e+03	3.907141e+03	0	7.305010e-04
8.300000e+08	7.767841e+12	0.000000e+00	5.238095e-01	1.691793e+14	4.054002e+14	1.219034e+14	9.629332e+03	5.524477e+03	3.903173e+03	0	7.261296e-04
8.400000e+08	7.630419e+12	0.000000e+00	5.238095e-01	1.665611e+14	4.029736e+14	1.213366e+14	9.603483e+03	5.518819e+03	3.899177e+03	0	7.218221e-04
8.500000e+08	7.496578e+12	0.000000e+00	5.238095e-01	1.640105e+14	4.005418e+14	1.207737e+14	9.578032e+03	5.513125e+03	3.895153e+03	0	7.175768e-04
8.600000e+08	7.366191e+12	0.000000e+00	5.238095e-01	1.615249e+14	3.981063e+14	1.202147e+14	9.552969e+03	5.507396e+03	3.891106e+03	0	7.133922e-04
8.700000e+08	7.239138e+12	0.000000e+00	5.238095e-01	1.591022e+14	3.956691e+14	1.196595e+14	9.528284e+03	5.501638e+03	3.887037e+03	0	7.092668e-04
8.800000e+08	7.115301e+12	0.000000e+00	5.238095e-01	1.567402e+14	3.932315e+14	1.191082e+14	9.503967e+03	5.495852e+03	3.882950e+03	0	7.051992e-04
8.900000e+08	6.994571e+12	0.000000e+00	5.238095e-01	1.544368e+14	3.907952e+14	1.185606e+14	9.480009e+03	5.490043e+03	3.878845e+03	0	7.011878e-04
9.000000e+08	6.876840e+12	0.000000e+00	5.238095e-01	1.521900e+14	3.883614e+14	1.180168e+14	9.456401e+03	5.484213e+03	3.874726e+03	0	6.972315e-04
9.100000e+08	6.762008e+12	0.000000e+00	5.238095e-01	1.499979e+14	3.859313e+14	1.174767e+14	9.433135e+03	5.478365e+03	3.870595e+03	0	6.933288e-04
9.200000e+08	6.649976e+12	0.000000e+00	5.238095e-01	1.478586e+14	3.835063e+14	1.169403e+14	9.410203e+03	5.472502e+03	3.866452e+03	0	6.894785e-04
9.300000e+08	6.540653e+12	0.000000e+00	5.238095e-01	1.457705e+14	3.810874e+14	1.164076e+14	9.387596e+03	5.466627e+03	3.862301e+03	0	6.856793e-04
9.400000e+08	6.433948e+12	0.000000e+00	5.238095e-01	1.437317e+14	3.786755e+14	1.158785e+14	9.365307e+03	5.460741e+03	3.858143e+03	0	6.819301e-04
9.500000e+08	6.329775e+12	0.000000e+00	5.238095e-01	1.417408e+14	3.762718e+14	1.153531e+14	9.343328e+03	5.454848e+03	3.853979e+03	0	6.782297e-04
9.600000e+08	6.228053e+12	0.000000e+00	5.238095e-01	1.397962e+14	3.738771e+14	1.148312e+14	9.321652e+03	5.448949e+03	3.849811e+03	0	6.745769e-04
9.700000e+08	6.128703e+12	0.000000e+00	5.238095e-01	1.378964e+14	3.714920e+14	1.143129e+14	9.300272e+03	5.443046e+03	3.845641e+03	0	6.709707e-04
9.800000e+08	6.031649e+12	0.000000e+00	5.238095e-01	1.360400e+14	3.691174e+14	1.137981e+14	9.279181e+03	5.437141e+03	3.841469e+03	0	6.674100e-04
9.900000e+08	5.936818e+12	0.000000e+00	5.238095e-01	1.342255e+14	3.667541e+14	1.132868e+14	9.258373e+03	5.431236e+03	3.837297e+03	0	6.638938e-04
1.000000e+09	5.844141e+12	0.000000e+00	5.238095e-01	1.324518e+14	3.644026e+14	1.127789e+14	9.237841e+03	5.425333e+03	3.833126e+03	0	6.604211e-04
1.010000e+09	5.753551e+12	0.000000e+00	5.238095e-01	1.307175e+14	3.620635e+14	1.122746e+14	9.217579e+03	5.419433e+03	3.828958e+03	0	6.569909e-04
1.020000e+09	5.664983e+12	0.000000e+00	5.238095e-01	1.290214e+14	3.597374e+14	1.117736e+14	9.197581e+03	5.413538e+03	3.824793e+03	0	6.536023e-04
1.030000e+09	5.578376e+12	0.000000e+00	5.238095e-01	1.273624e+14	3.574249e+14	1.112760e+14	9.177842e+03	5.407649e+03	3.820632e+03	0	6.502544e-04
1.040000e+09	5.493669e+12	0.000000e+00	5.238095e-01	1.257393e+14	3.551262e+14	1.107818e+14	9.158355e+03	5.401768e+03	3.816477e+03	0	6.469462e-04
1.050000e+09	5.410806e+12	0.000000e+00	5.238095e-01	1.241512e+14	3.528419e+14	1.102909e+14	9.139116e+03	5.395895e+03	3.812328e+03	0	6.436770e-04
1.060000e+09	5.329732e+12	0.000000e+00	5.238095e-01	1.225968e+14	3.505723e+14	1.098034e+14	9.120118e+03	5.390032e+03	3.808186e+03	0	6.404460e-04
1.070000e+09	5.250394e+12	0.000000e+00	5.238095e-01	1.210753e+14	3.483177e+14	1.093191e+14	9.101357e+03	5.384181e+03	3.804051e+03	0	6.372522e-04
1.080000e+09	5.172740e+12	0.000000e+00	5.238095e-01	1.195856e+14	3.460785e+14	1.088381e+14	9.082828e+03	5.378341e+03	3.799925e+03	0	6.340949e-04
1.090000e+09	5.096721e+12	0.000000e+00	5.238095e-01	1.181269e+14	3.438550e+14	1.083603e+14	9.064526e+03	5.372515e+03	3.795809e+03	0	6.309733e-04
1.100000e+09	5.022291e+12	0.000000e+00	5.238095e-01	1.166983e+14	3.416473e+14	1.078857e+14	9.046446e+03	5.366702e+03	3.791702e+03	0	6.278867e-04
1.110000e+09	4.949403e+12	0.000000e+00	5.238095e-01	1.152988e+14	3.394558e+14	1.074143e+14	9.028584e+03	5.360905e+03	3.787606e+03	0	6.248345e-04
1.120000e+09	4.878014e+12	0.000000e+00	5.238095e-01	1.139278e+14	3.372805e+14	1.069460e+14	9.010936e+03	5.355123e+03	3.783521e+03	0	6.218157e-04
1.130000e+09	4.808081e+12	0.000000e+00	5.238095e-01	1.125843e+14	3.351217e+14	1.064809e+14	8.993496e+03	5.349358e+03	3.779448e+03	0	6.188299e-04
1.140000e+09	4.739564e+12	0.000000e+00	5.238095e-01	1.112676e+14	3.329795e+14	1.060189e+14	8.976261e+03	5.343609e+03	3.775386e+03	0	6.158763e-04
1.150000e+09	4.672422e+12	0.000000e+00	5.238095e-01	1.099770e+14	3.308540e+14	1.055600e+14	8.959227e+03	5.337879e+03	3.771338e+03	0	6.129542e-04
1.160000e+09	4.606619e+12	0.000000e+00	5.238095e-01	1.087117e+14	3.287453e+14	1.051042e+14	8.942390e+03	5.332167e+03	3.767302e+03	0	6.100631e-04
1.170000e+09	4.542116e+12	0.000000e+00	5.238095e-01	1.074711e+14	3.266537e+14	1.046514e+14	8.925745e+03	5.326473e+03	3.763280e+03	0	6.072024e-04
1.180000e+09	4.478880e+12	0.000000e+00	5.238095e-01	1.062545e+14	3.245789e+14	1.042016e+14	8.909290e+03	5.320800e+03	3.759271e+03	0	6.043713e-04
1.190000e+09	4.416875e+12	0.000000e+00	5.238095e-01	1.050612e+14	3.225212e+14	1.037547e+14	8.893020e+03	5.315146e+03	3.755277e+03	0	6.015694e-04
1.200000e+09	4.356068e+12	0.000000e+00	5.238095e-01	1.038907e+14	3.204806e+14	1.033109e+14	8.876932e+03	5.309513e+03	3.751297e+03	0	5.987960e-04
1.210000e+09	4.296429e+12	0.000000e+00	5.238095e-01	1.027422e+14	3.184571e+14	1.028700e+14	8.861023e+03	5.303901e+03	3.747332e+03	0	5.960507e-04
1.220000e+09	4.237925e+12	0.000000e+00	5.238095e-01	1.016153e+14	3.164507e+14	1.024320e+14	8.845289e+03	5.298310e+03	3.743382e+03	0	5.933329e-04
1.230000e+09	4.180527e+12	0.000000e+00	5.238095e-01	1.005094e+14	3.144614e+14	1.019969e+14	8.829727e+03	5.292741e+03	3.739447e+03	0	5.906420e-04
1.240000e+09	4.124206e+12	0.000000e+00	5.238095e-01	9.942393e+13	3.124892e+14	1.015647e+14	8.814334e+03	5.287194e+03	3.735528e+03	0	5.879776e-04
1.250000e+09	4.068934e+12	0.000000e+00	5.238095e-01	9.835835e+13	3.105340e+14	1.011354e+14	8.799106e+03	5.281669e+03	3.731624e+03	0	5.853391e-04
1.260000e+09	4.014685e+12	0.000000e+00	5.238095e-01	9.731218e+13	3.085958e+14	1.007089e+14	8.784041e+03	5.276167e+03	3.727737e+03	0	5.827261e-04
1.270000e+09	3.961431e+12	0.000000e+00	5.238095e-01	9.628491e+13	3.066746e+14	1.002851e+14	8.769135e+03	5.270687e+03	3.723865e+03	0	5.801381e-04
1.280000e+09	3.909149e+12	0.000000e+00	5.238095e-01	9.527607e+13	3.047704e+14	9.986421e+13	8.754387e+03	5.265231e+03	3.720010e+03	0	5.775746e-04
1.290000e+09	3.857814e+12	0.000000e+00	5.238095e-01	9.428521e+13	3.028831e+14	9.944605e+13	8.739792e+03	5.259798e+03	3.716172e+03	0	5.750352e-04
1.300000e+09	3.807401e+12	0.000000e+00	5.238095e-01	9.331187e+13	3.010125e+14	9.903063e+13	8.725348e+03	5.254388e+03	3.712350e+03	0	5.725194e-04
1.310000e+09	3.757888e+12	0.000000e+00	5.238095e-01	9.235563e+13	2.991585e+14	9.861794e+13	8.711053e+03	5.249003e+03	3.708545e+03	0	5.700268e-04
1.320000e+09	3.709253e+12	0.000000e+00	5.238095e-01	9.141605e+13	2.973212e+14	9.820795e+13	8.696904e+03	5.243641e+03	3.704756e+03	0	5.675570e-04
1.330000e+09	3.661475e+12	0.000000e+00	5.238095e-01	9.049275e+13	2.955006e+14	9.780064e+13	8.682898e+03	5.238303e+03	3.700985e+03	0	5.651096e-04
1.340000e+09	3.614532e+12	0.000000e+00	5.238095e-01	8.958533e+13	2.936963e+14	9.739600e+13	8.669034e+03	5.232989e+03	3.697231e+03	0	5.626842e-04
1.350000e+09	3.568404e+12	0.000000e+00	5.238095e-01	8.869339e+13	2.919084e+14	9.699399e+13	8.655308e+03	5.227699e+03	3.693493e+03	0	5.602803e-04
1.360000e+09	3.523072e+12	0.000000e+00	5.238095e-01	8.781659e+13	2.901368e+14	9.659460e+13	8.641718e+03	5.222434e+03	3.689773e+03	0	5.578976e-04
