#t		Qconv[W]	Ri[Rp]		R*[Rp]		Qc[W]		Qm[W]		Qr[W]		Tcmb[K]		Tl[K]		Tup[K]		RiFlag		Bs[T]
0.000000e+00	5.312747e+14	0.000000e+00	5.288461e-01	6.919470e+15	3.016972e+13	3.111454e+14	2.560977e+04	4.474830e+03	2.955784e+03	0	2.870618e-03
1.000000e+07	4.937424e+14	0.000000e+00	5.288461e-01	6.440394e+15	4.367895e+13	3.094214e+14	2.506281e+04	4.694934e+03	3.101170e+03	0	2.801362e-03
2.000000e+07	4.601370e+14	0.000000e+00	5.288461e-01	6.011285e+15	6.013313e+13	3.077103e+14	2.455262e+04	4.899867e+03	3.236536e+03	0	2.736307e-03
3.000000e+07	4.299130e+14	0.000000e+00	5.288461e-01	5.625211e+15	7.949397e+13	3.060120e+14	2.407548e+04	5.091071e+03	3.362833e+03	0	2.675034e-03
4.000000e+07	4.026173e+14	0.000000e+00	5.288461e-01	5.276416e+15	1.016494e+14	3.043264e+14	2.362818e+04	5.269774e+03	3.480872e+03	0	2.617178e-03
5.000000e+07	3.778717e+14	0.000000e+00	5.288461e-01	4.960093e+15	1.264302e+14	3.026534e+14	2.320790e+04	5.437035e+03	3.591354e+03	0	2.562421e-03
6.000000e+07	3.553577e+14	0.000000e+00	5.288461e-01	4.672194e+15	1.536241e+14	3.009928e+14	2.281221e+04	5.593769e+03	3.694883e+03	0	2.510485e-03
7.000000e+07	3.348063e+14	0.000000e+00	5.288461e-01	4.409298e+15	1.829889e+14	2.993446e+14	2.243895e+04	5.740778e+03	3.791987e+03	0	2.461125e-03
8.000000e+07	3.159886e+14	0.000000e+00	5.288461e-01	4.168496e+15	2.142625e+14	2.977086e+14	2.208621e+04	5.878765e+03	3.883132e+03	0	2.414124e-03
9.000000e+07	2.987090e+14	0.000000e+00	5.288461e-01	3.947298e+15	2.471718e+14	2.960849e+14	2.175233e+04	6.008350e+03	3.968728e+03	0	2.369292e-03
1.000000e+08	2.827994e+14	0.000000e+00	5.288461e-01	3.743568e+15	2.814399e+14	2.944731e+14	2.143579e+04	6.130089e+03	4.049141e+03	0	2.326458e-03
1.100000e+08	2.681147e+14	0.000000e+00	5.288461e-01	3.555459e+15	3.167918e+14	2.928734e+14	2.113526e+04	6.244479e+03	4.124700e+03	0	2.285472e-03
1.200000e+08	2.545292e+14	0.000000e+00	5.288461e-01	3.381370e+15	3.529589e+14	2.912855e+14	2.084953e+04	6.351970e+03	4.195701e+03	0	2.246199e-03
1.300000e+08	2.419334e+14	0.000000e+00	5.288461e-01	3.219909e+15	3.896829e+14	2.897093e+14	2.057754e+04	6.452969e+03	4.262415e+03	0	2.208518e-03
1.400000e+08	2.302314e+14	0.000000e+00	5.288461e-01	3.069855e+15	4.267185e+14	2.881448e+14	2.031829e+04	6.547851e+03	4.325087e+03	0	2.172321e-03
1.500000e+08	2.193392e+14	0.000000e+00	5.288461e-01	2.930138e+15	4.638355e+14	2.865919e+14	2.007091e+04	6.636958e+03	4.383946e+03	0	2.137509e-03
1.600000e+08	2.091828e+14	0.000000e+00	5.288461e-01	2.799816e+15	5.008201e+14	2.850505e+14	1.983460e+04	6.720609e+03	4.439200e+03	0	2.103994e-03
1.700000e+08	1.996967e+14	0.000000e+00	5.288461e-01	2.678053e+15	5.374765e+14	2.835204e+14	1.960863e+04	6.799097e+03	4.491045e+03	0	2.071696e-03
1.800000e+08	1.908227e+14	0.000000e+00	5.288461e-01	2.564110e+15	5.736265e+14	2.820016e+14	1.939233e+04	6.872699e+03	4.539661e+03	0	2.040543e-03
1.900000e+08	1.825091e+14	0.000000e+00	5.288461e-01	2.457327e+15	6.091104e+14	2.804940e+14	1.918508e+04	6.941672e+03	4.585220e+03	0	2.010468e-03
2.000000e+08	1.747096e+14	0.000000e+00	5.288461e-01	2.357114e+15	6.437872e+14	2.789975e+14	1.898634e+04	7.006257e+03	4.627881e+03	0	1.981411e-03
2.100000e+08	1.673828e+14	0.000000e+00	5.288461e-01	2.262943e+15	6.775329e+14	2.775119e+14	1.879558e+04	7.066683e+03	4.667794e+03	0	1.953317e-03
2.200000e+08	1.604915e+14	0.000000e+00	5.288461e-01	2.174340e+15	7.102412e+14	2.760373e+14	1.861233e+04	7.123165e+03	4.705103e+03	0	1.926134e-03
2.300000e+08	1.540022e+14	0.000000e+00	5.288461e-01	2.090877e+15	7.418221e+14	2.745736e+14	1.843616e+04	7.175907e+03	4.739941e+03	0	1.899815e-03
2.400000e+08	1.478845e+14	0.000000e+00	5.288461e-01	2.012168e+15	7.722013e+14	2.731205e+14	1.826666e+04	7.225102e+03	4.772436e+03	0	1.874318e-03
2.500000e+08	1.421109e+14	0.000000e+00	5.288461e-01	1.937861e+15	8.013189e+14	2.716781e+14	1.810345e+04	7.270934e+03	4.802709e+03	0	1.849602e-03
2.600000e+08	1.366567e+14	0.000000e+00	5.288461e-01	1.867640e+15	8.291286e+14	2.702463e+14	1.794620e+04	7.313577e+03	4.830877e+03	0	1.825630e-03
2.700000e+08	1.314990e+14	0.000000e+00	5.288461e-01	1.801214e+15	8.555969e+14	2.688249e+14	1.779457e+04	7.353197e+03	4.857047e+03	0	1.802367e-03
2.800000e+08	1.266171e+14	0.000000e+00	5.288461e-01	1.738319e+15	8.807014e+14	2.674139e+14	1.764826e+04	7.389952e+03	4.881325e+03	0	1.779781e-03
2.900000e+08	1.219922e+14	0.000000e+00	5.288461e-01	1.678715e+15	9.044302e+14	2.660132e+14	1.750701e+04	7.423992e+03	4.903810e+03	0	1.757842e-03
3.000000e+08	1.176070e+14	0.000000e+00	5.288461e-01	1.622179e+15	9.267802e+14	2.646227e+14	1.737054e+04	7.455461e+03	4.924596e+03	0	1.736521e-03
3.100000e+08	1.134454e+14	0.000000e+00	5.288461e-01	1.568509e+15	9.477575e+14	2.632423e+14	1.723861e+04	7.484494e+03	4.943773e+03	0	1.715793e-03
3.200000e+08	1.094931e+14	0.000000e+00	5.288461e-01	1.517519e+15	9.673751e+14	2.618720e+14	1.711100e+04	7.511222e+03	4.961428e+03	0	1.695631e-03
3.300000e+08	1.057364e+14	0.000000e+00	5.288461e-01	1.469036e+15	9.856516e+14	2.605117e+14	1.698749e+04	7.535768e+03	4.977642e+03	0	1.676013e-03
3.400000e+08	1.021631e+14	0.000000e+00	5.288461e-01	1.422903e+15	1.002612e+15	2.591612e+14	1.686788e+04	7.558250e+03	4.992492e+03	0	1.656916e-03
3.500000e+08	9.876166e+13	0.000000e+00	5.288461e-01	1.378973e+15	1.018285e+15	2.578205e+14	1.675199e+04	7.578779e+03	5.006052e+03	0	1.638319e-03
3.600000e+08	9.552152e+13	0.000000e+00	5.288461e-01	1.337111e+15	1.032704e+15	2.564896e+14	1.663965e+04	7.597463e+03	5.018394e+03	0	1.620203e-03
3.700000e+08	9.243291e+13	0.000000e+00	5.288461e-01	1.297193e+15	1.045906e+15	2.551682e+14	1.653067e+04	7.614404e+03	5.029583e+03	0	1.602549e-03
3.800000e+08	8.948675e+13	0.000000e+00	5.288461e-01	1.259101e+15	1.057930e+15	2.538565e+14	1.642492e+04	7.629696e+03	5.039685e+03	0	1.585339e-03
3.900000e+08	8.667462e+13	0.000000e+00	5.288461e-01	1.222730e+15	1.068816e+15	2.525542e+14	1.632224e+04	7.643432e+03	5.048758e+03	0	1.568555e-03
4.000000e+08	8.398871e+13	0.000000e+00	5.288461e-01	1.187977e+15	1.078607e+15	2.512613e+14	1.622250e+04	7.655700e+03	5.056861e+03	0	1.552182e-03
4.100000e+08	8.142173e+13	0.000000e+00	5.288461e-01	1.154751e+15	1.087346e+15	2.499778e+14	1.612557e+04	7.666581e+03	5.064048e+03	0	1.536205e-03
4.200000e+08	7.896693e+13	0.000000e+00	5.288461e-01	1.122966e+15	1.095077e+15	2.487035e+14	1.603132e+04	7.676154e+03	5.070372e+03	0	1.520609e-03
4.300000e+08	7.661800e+13	0.000000e+00	5.288461e-01	1.092539e+15	1.101846e+15	2.474384e+14	1.593965e+04	7.684494e+03	5.075881e+03	0	1.505380e-03
4.400000e+08	7.436905e+13	0.000000e+00	5.288461e-01	1.063396e+15	1.107694e+15	2.461824e+14	1.585043e+04	7.691672e+03	5.080622e+03	0	1.490504e-03
4.500000e+08	7.221460e+13	0.000000e+00	5.288461e-01	1.035468e+15	1.112668e+15	2.449354e+14	1.576358e+04	7.697754e+03	5.084639e+03	0	1.475970e-03
4.600000e+08	7.014952e+13	0.000000e+00	5.288461e-01	1.008687e+15	1.116811e+15	2.436974e+14	1.567898e+04	7.702804e+03	5.087975e+03	0	1.461764e-03
4.700000e+08	6.816901e+13	0.000000e+00	5.288461e-01	9.829930e+14	1.120164e+15	2.424682e+14	1.559656e+04	7.706882e+03	5.090668e+03	0	1.447876e-03
4.800000e+08	6.626858e+13	0.000000e+00	5.288461e-01	9.583284e+14	1.122770e+15	2.412478e+14	1.551621e+04	7.710045e+03	5.092758e+03	0	1.434294e-03
4.900000e+08	6.444404e+13	0.000000e+00	5.288461e-01	9.346393e+14	1.124670e+15	2.400362e+14	1.543787e+04	7.712347e+03	5.094279e+03	0	1.421009e-03
5.000000e+08	6.269144e+13	0.000000e+00	5.288461e-01	9.118753e+14	1.125903e+15	2.388333e+14	1.536144e+04	7.713840e+03	5.095265e+03	0	1.408008e-03
5.100000e+08	6.100711e+13	0.000000e+00	5.288461e-01	8.899891e+14	1.126507e+15	2.376389e+14	1.528687e+04	7.714571e+03	5.095748e+03	0	1.395284e-03
5.200000e+08	5.938756e+13	0.000000e+00	5.288461e-01	8.689364e+14	1.126520e+15	2.364531e+14	1.521406e+04	7.714587e+03	5.095758e+03	0	1.382826e-03
5.300000e+08	5.782956e+13	0.000000e+00	5.288461e-01	8.486755e+14	1.125978e+15	2.352757e+14	1.514297e+04	7.713931e+03	5.095325e+03	0	1.370626e-03
5.400000e+08	5.633003e+13	0.000000e+00	5.288461e-01	8.291672e+14	1.124914e+15	2.341067e+14	1.507352e+04	7.712643e+03	5.094474e+03	0	1.358676e-03
5.500000e+08	5.488612e+13	0.000000e+00	5.288461e-01	8.103748e+14	1.123362e+15	2.329461e+14	1.500566e+04	7.710763e+03	5.093232e+03	0	1.346966e-03
5.600000e+08	5.349512e+13	0.000000e+00	5.288461e-01	7.922634e+14	1.121354e+15	2.317936e+14	1.493932e+04	7.708327e+03	5.091623e+03	0	1.335490e-03
5.700000e+08	5.215447e+13	0.000000e+00	5.288461e-01	7.748007e+14	1.118920e+15	2.306494e+14	1.487445e+04	7.705370e+03	5.089670e+03	0	1.324239e-03
5.800000e+08	5.086179e+13	0.000000e+00	5.288461e-01	7.579557e+14	1.116088e+15	2.295133e+14	1.481101e+04	7.701924e+03	5.087393e+03	0	1.313206e-03
5.900000e+08	4.961482e+13	0.000000e+00	5.288461e-01	7.416995e+14	1.112886e+15	2.283852e+14	1.474893e+04	7.698020e+03	5.084815e+03	0	1.302386e-03
6.000000e+08	4.841142e+13	0.000000e+00	5.288461e-01	7.260049e+14	1.109341e+15	2.272651e+14	1.468818e+04	7.693687e+03	5.081953e+03	0	1.291770e-03
6.100000e+08	4.724958e+13	0.000000e+00	5.288461e-01	7.108460e+14	1.105477e+15	2.261530e+14	1.462870e+04	7.688954e+03	5.078827e+03	0	1.281352e-03
6.200000e+08	4.612742e+13	0.000000e+00	5.288461e-01	6.961985e+14	1.101318e+15	2.250487e+14	1.457045e+04	7.683846e+03	5.075452e+03	0	1.271127e-03
6.300000e+08	4.504312e+13	0.000000e+00	5.288461e-01	6.820394e+14	1.096886e+15	2.239522e+14	1.451340e+04	7.678387e+03	5.071847e+03	0	1.261088e-03
6.400000e+08	4.399501e+13	0.000000e+00	5.288461e-01	6.683469e+14	1.092203e+15	2.228634e+14	1.445750e+04	7.672601e+03	5.068025e+03	0	1.251229e-03
6.500000e+08	4.298148e+13	0.000000e+00	5.288461e-01	6.551005e+14	1.087289e+15	2.217823e+14	1.440271e+04	7.666510e+03	5.064001e+03	0	1.241546e-03
6.600000e+08	4.200101e+13	0.000000e+00	5.288461e-01	6.422808e+14	1.082162e+15	2.207088e+14	1.434900e+04	7.660134e+03	5.059790e+03	0	1.232033e-03
6.700000e+08	4.105216e+13	0.000000e+00	5.288461e-01	6.298693e+14	1.076840e+15	2.196429e+14	1.429634e+04	7.653493e+03	5.055403e+03	0	1.222685e-03
6.800000e+08	4.013359e+13	0.000000e+00	5.288461e-01	6.178485e+14	1.071342e+15	2.185844e+14	1.424468e+04	7.646605e+03	5.050854e+03	0	1.213496e-03
6.900000e+08	3.924400e+13	0.000000e+00	5.288461e-01	6.062020e+14	1.065681e+15	2.175334e+14	1.419401e+04	7.639488e+03	5.046152e+03	0	1.204463e-03
7.000000e+08	3.838217e+13	0.000000e+00	5.288461e-01	5.949141e+14	1.059875e+15	2.164897e+14	1.414429e+04	7.632158e+03	5.041311e+03	0	1.195581e-03
7.100000e+08	3.754695e+13	0.000000e+00	5.288461e-01	5.839699e+14	1.053936e+15	2.154534e+14	1.409548e+04	7.624630e+03	5.036338e+03	0	1.186845e-03
7.200000e+08	3.673723e+13	0.000000e+00	5.288461e-01	5.733553e+14	1.047878e+15	2.144243e+14	1.404757e+04	7.616920e+03	5.031245e+03	0	1.178251e-03
7.300000e+08	3.595198e+13	0.000000e+00	5.288461e-01	5.630569e+14	1.041713e+15	2.134023e+14	1.400052e+04	7.609040e+03	5.026040e+03	0	1.169796e-03
7.400000e+08	3.519020e+13	0.000000e+00	5.288461e-01	5.530619e+14	1.035454e+15	2.123876e+14	1.395432e+04	7.601004e+03	5.020732e+03	0	1.161474e-03
7.500000e+08	3.445095e+13	0.000000e+00	5.288461e-01	5.433584e+14	1.029110e+15	2.113798e+14	1.390893e+04	7.592824e+03	5.015329e+03	0	1.153284e-03
7.600000e+08	3.373334e+13	0.000000e+00	5.288461e-01	5.339347e+14	1.022693e+15	2.103792e+14	1.386433e+04	7.584512e+03	5.009839e+03	0	1.145220e-03
7.700000e+08	3.303652e+13	0.000000e+00	5.288461e-01	5.247799e+14	1.016213e+15	2.093854e+14	1.382050e+04	7.576078e+03	5.004268e+03	0	1.137279e-03
7.800000e+08	3.235967e+13	0.000000e+00	5.288461e-01	5.158837e+14	1.009677e+15	2.083986e+14	1.377741e+04	7.567533e+03	4.998624e+03	0	1.129459e-03
7.900000e+08	3.170203e+13	0.000000e+00	5.288461e-01	5.072361e+14	1.003095e+15	2.074186e+14	1.373506e+04	7.558886e+03	4.992912e+03	0	1.121755e-03
8.000000e+08	3.106287e+13	0.000000e+00	5.288461e-01	4.988276e+14	9.964749e+14	2.064455e+14	1.369341e+04	7.550147e+03	4.987140e+03	0	1.114165e-03
8.100000e+08	3.044148e+13	0.000000e+00	5.288461e-01	4.906494e+14	9.898232e+14	2.054790e+14	1.365244e+04	7.541324e+03	4.981312e+03	0	1.106686e-03
8.200000e+08	2.983719e+13	0.000000e+00	5.288461e-01	4.826927e+14	9.831479e+14	2.045193e+14	1.361215e+04	7.532425e+03	4.975434e+03	0	1.099314e-03
8.300000e+08	2.924938e+13	0.000000e+00	5.288461e-01	4.749494e+14	9.764546e+14	2.035662e+14	1.357250e+04	7.523458e+03	4.969510e+03	0	1.092047e-03
8.400000e+08	2.867743e+13	0.000000e+00	5.288461e-01	4.674117e+14	9.697495e+14	2.026197e+14	1.353348e+04	7.514430e+03	4.963547e+03	0	1.084882e-03
8.500000e+08	2.812077e+13	0.000000e+00	5.288461e-01	4.600722e+14	9.630379e+14	2.016797e+14	1.349509e+04	7.505347e+03	4.957548e+03	0	1.077816e-03
8.600000e+08	2.757884e+13	0.000000e+00	5.288461e-01	4.529238e+14	9.563259e+14	2.007462e+14	1.345729e+04	7.496217e+03	4.951517e+03	0	1.070848e-03
8.700000e+08	2.705112e+13	0.000000e+00	5.288461e-01	4.459596e+14	9.496173e+14	1.998191e+14	1.342007e+04	7.487045e+03	4.945458e+03	0	1.063974e-03
8.800000e+08	2.653710e+13	0.000000e+00	5.288461e-01	4.391731e+14	9.429171e+14	1.988984e+14	1.338343e+04	7.477837e+03	4.939376e+03	0	1.057191e-03
8.900000e+08	2.603630e+13	0.000000e+00	5.288461e-01	4.325582e+14	9.362293e+14	1.979840e+14	1.334734e+04	7.468597e+03	4.933273e+03	0	1.050499e-03
9.000000e+08	2.554826e+13	0.000000e+00	5.288461e-01	4.261089e+14	9.295579e+14	1.970759e+14	1.331179e+04	7.459332e+03	4.927153e+03	0	1.043894e-03
9.100000e+08	2.507254e+13	0.000000e+00	5.288461e-01	4.198196e+14	9.229061e+14	1.961740e+14	1.327677e+04	7.450046e+03	4.921019e+03	0	1.037374e-03
9.200000e+08	2.460871e+13	0.000000e+00	5.288461e-01	4.136847e+14	9.162772e+14	1.952783e+14	1.324226e+04	7.440743e+03	4.914874e+03	0	1.030937e-03
9.300000e+08	2.415638e+13	0.000000e+00	5.288461e-01	4.076991e+14	9.096745e+14	1.943887e+14	1.320825e+04	7.431427e+03	4.908721e+03	0	1.024581e-03
9.400000e+08	2.371516e+13	0.000000e+00	5.288461e-01	4.018578e+14	9.031009e+14	1.935052e+14	1.317473e+04	7.422103e+03	4.902562e+03	0	1.018305e-03
9.500000e+08	2.328467e+13	0.000000e+00	5.288461e-01	3.961561e+14	8.965584e+14	1.926278e+14	1.314170e+04	7.412773e+03	4.896399e+03	0	1.012106e-03
9.600000e+08	2.286456e+13	0.000000e+00	5.288461e-01	3.905892e+14	8.900498e+14	1.917563e+14	1.310912e+04	7.403442e+03	4.890236e+03	0	1.005982e-03
9.700000e+08	2.245449e+13	0.000000e+00	5.288461e-01	3.851530e+14	8.835771e+14	1.908907e+14	1.307701e+04	7.394113e+03	4.884073e+03	0	9.999314e-04
9.800000e+08	2.205414e+13	0.000000e+00	5.288461e-01	3.798430e+14	8.771422e+14	1.900311e+14	1.304533e+04	7.384788e+03	4.877914e+03	0	9.939529e-04
9.900000e+08	2.166319e+13	0.000000e+00	5.288461e-01	3.746554e+14	8.707471e+14	1.891772e+14	1.301410e+04	7.375471e+03	4.871760e+03	0	9.880446e-04
1.000000e+09	2.128134e+13	0.000000e+00	5.288461e-01	3.695862e+14	8.643933e+14	1.883292e+14	1.298328e+04	7.366165e+03	4.865613e+03	0	9.822048e-04
1.010000e+09	2.090830e+13	0.000000e+00	5.288461e-01	3.646317e+14	8.580823e+14	1.874870e+14	1.295289e+04	7.356871e+03	4.859474e+03	0	9.764320e-04
1.020000e+09	2.054379e+13	0.000000e+00	5.288461e-01	3.597883e+14	8.518153e+14	1.866504e+14	1.292289e+04	7.347592e+03	4.853345e+03	0	9.707245e-04
1.030000e+09	2.018756e+13	0.000000e+00	5.288461e-01	3.550525e+14	8.455936e+14	1.858195e+14	1.289330e+04	7.338331e+03	4.847227e+03	0	9.650809e-04
1.040000e+09	1.983934e+13	0.000000e+00	5.288461e-01	3.504212e+14	8.394185e+14	1.849942e+14	1.286409e+04	7.329089e+03	4.841123e+03	0	9.594996e-04
1.050000e+09	1.949888e+13	0.000000e+00	5.288461e-01	3.458911e+14	8.332906e+14	1.841745e+14	1.283526e+04	7.319868e+03	4.835032e+03	0	9.539794e-04
1.060000e+09	1.916596e+13	0.000000e+00	5.288461e-01	3.414591e+14	8.272110e+14	1.833603e+14	1.280681e+04	7.310670e+03	4.828957e+03	0	9.485189e-04
1.070000e+09	1.884034e+13	0.000000e+00	5.288461e-01	3.371223e+14	8.211801e+14	1.825516e+14	1.277871e+04	7.301498e+03	4.822898e+03	0	9.431166e-04
1.080000e+09	1.852181e+13	0.000000e+00	5.288461e-01	3.328780e+14	8.151992e+14	1.817483e+14	1.275097e+04	7.292352e+03	4.816857e+03	0	9.377712e-04
1.090000e+09	1.821015e+13	0.000000e+00	5.288461e-01	3.287233e+14	8.092683e+14	1.809505e+14	1.272358e+04	7.283233e+03	4.810834e+03	0	9.324817e-04
1.100000e+09	1.790517e+13	0.000000e+00	5.288461e-01	3.246556e+14	8.033882e+14	1.801580e+14	1.269653e+04	7.274144e+03	4.804830e+03	0	9.272466e-04
1.110000e+09	1.760666e+13	0.000000e+00	5.288461e-01	3.206725e+14	7.975589e+14	1.793708e+14	1.266981e+04	7.265085e+03	4.798846e+03	0	9.220648e-04
1.120000e+09	1.731444e+13	0.000000e+00	5.288461e-01	3.167714e+14	7.917814e+14	1.785889e+14	1.264342e+04	7.256058e+03	4.792884e+03	0	9.169351e-04
1.130000e+09	1.702833e+13	0.000000e+00	5.288461e-01	3.129502e+14	7.860554e+14	1.778122e+14	1.261735e+04	7.247064e+03	4.786943e+03	0	9.118565e-04
1.140000e+09	1.674816e+13	0.000000e+00	5.288461e-01	3.092064e+14	7.803810e+14	1.770407e+14	1.259159e+04	7.238104e+03	4.781024e+03	0	9.068277e-04
1.150000e+09	1.647375e+13	0.000000e+00	5.288461e-01	3.055379e+14	7.747591e+14	1.762744e+14	1.256614e+04	7.229178e+03	4.775128e+03	0	9.018478e-04
1.160000e+09	1.620494e+13	0.000000e+00	5.288461e-01	3.019427e+14	7.691889e+14	1.755132e+14	1.254099e+04	7.220288e+03	4.769256e+03	0	8.969157e-04
1.170000e+09	1.594159e+13	0.000000e+00	5.288461e-01	2.984187e+14	7.636712e+14	1.747570e+14	1.251613e+04	7.211435e+03	4.763408e+03	0	8.920303e-04
1.180000e+09	1.568352e+13	0.000000e+00	5.288461e-01	2.949639e+14	7.582055e+14	1.740059e+14	1.249156e+04	7.202618e+03	4.757584e+03	0	8.871907e-04
1.190000e+09	1.543061e+13	0.000000e+00	5.288461e-01	2.915765e+14	7.527922e+14	1.732597e+14	1.246728e+04	7.193839e+03	4.751786e+03	0	8.823959e-04
1.200000e+09	1.518271e+13	0.000000e+00	5.288461e-01	2.882546e+14	7.474307e+14	1.725186e+14	1.244327e+04	7.185099e+03	4.746013e+03	0	8.776450e-04
1.210000e+09	1.493969e+13	0.000000e+00	5.288461e-01	2.849964e+14	7.421211e+14	1.717823e+14	1.241954e+04	7.176398e+03	4.740265e+03	0	8.729371e-04
1.220000e+09	1.470140e+13	0.000000e+00	5.288461e-01	2.818004e+14	7.368635e+14	1.710509e+14	1.239607e+04	7.167736e+03	4.734544e+03	0	8.682712e-04
1.230000e+09	1.446774e+13	0.000000e+00	5.288461e-01	2.786648e+14	7.316574e+14	1.703244e+14	1.237287e+04	7.159115e+03	4.728849e+03	0	8.636464e-04
1.240000e+09	1.423857e+13	0.000000e+00	5.288461e-01	2.755880e+14	7.265027e+14	1.696026e+14	1.234992e+04	7.150533e+03	4.723181e+03	0	8.590620e-04
1.250000e+09	1.401377e+13	0.000000e+00	5.288461e-01	2.725685e+14	7.213992e+14	1.688857e+14	1.232723e+04	7.141993e+03	4.717539e+03	0	8.545171e-04
1.260000e+09	1.379324e+13	0.000000e+00	5.288461e-01	2.696049e+14	7.163464e+14	1.681734e+14	1.230478e+04	7.133494e+03	4.711925e+03	0	8.500109e-04
1.270000e+09	1.357685e+13	0.000000e+00	5.288461e-01	2.666957e+14	7.113442e+14	1.674659e+14	1.228257e+04	7.125036e+03	4.706338e+03	0	8.455426e-04
1.280000e+09	1.336451e+13	0.000000e+00	5.288461e-01	2.638395e+14	7.063923e+14	1.667629e+14	1.226061e+04	7.116619e+03	4.700779e+03	0	8.411114e-04
1.290000e+09	1.315612e+13	0.000000e+00	5.288461e-01	2.610349e+14	7.014905e+14	1.660647e+14	1.223888e+04	7.108245e+03	4.695248e+03	0	8.367165e-04
1.300000e+09	1.295156e+13	0.000000e+00	5.288461e-01	2.582808e+14	6.966382e+14	1.653710e+14	1.221738e+04	7.099913e+03	4.689744e+03	0	8.323573e-04
1.310000e+09	1.275074e+13	0.000000e+00	5.288461e-01	2.555757e+14	6.918352e+14	1.646818e+14	1.219610e+04	7.091623e+03	4.684268e+03	0	8.280329e-04
1.320000e+09	1.255358e+13	0.000000e+00	5.288461e-01	2.529185e+14	6.870811e+14	1.639972e+14	1.217505e+04	7.083375e+03	4.678820e+03	0	8.237428e-04
1.330000e+09	1.235997e+13	0.000000e+00	5.288461e-01	2.503081e+14	6.823756e+14	1.633170e+14	1.215421e+04	7.075170e+03	4.673401e+03	0	8.194862e-04
1.340000e+09	1.216984e+13	0.000000e+00	5.288461e-01	2.477432e+14	6.777180e+14	1.626413e+14	1.213359e+04	7.067008e+03	4.668009e+03	0	8.152624e-04
1.350000e+09	1.198309e+13	0.000000e+00	5.288461e-01	2.452227e+14	6.731082e+14	1.619700e+14	1.211318e+04	7.058888e+03	4.662646e+03	0	8.110707e-04
1.360000e+09	1.179965e+13	0.000000e+00	5.288461e-01	2.427457e+14	6.685458e+14	1.613030e+14	1.209298e+04	7.050811e+03	4.657311e+03	0	8.069106e-04
