#t		Qconv[W]	Ri[Rp]		R*[Rp]		Qc[W]		Qm[W]		Qr[W]		Tcmb[K]		Tl[K]		Tup[K]		RiFlag		Bs[T]
0.000000e+00	7.240804e+14	0.000000e+00	5.339807e-01	8.685210e+15	2.421557e+13	3.412125e+14	2.873880e+04	4.658748e+03	3.037605e+03	0	3.171975e-03
1.000000e+07	6.754621e+14	0.000000e+00	5.339807e-01	8.115372e+15	3.690924e+13	3.393220e+14	2.814332e+04	4.912429e+03	3.203011e+03	0	3.099330e-03
2.000000e+07	6.316396e+14	0.000000e+00	5.339807e-01	7.601537e+15	5.304056e+13	3.374455e+14	2.758580e+04	5.149582e+03	3.357640e+03	0	3.030800e-03
3.000000e+07	5.919845e+14	0.000000e+00	5.339807e-01	7.136380e+15	7.271398e+13	3.355831e+14	2.706263e+04	5.371686e+03	3.502456e+03	0	2.965999e-03
4.000000e+07	5.559689e+14	0.000000e+00	5.339807e-01	6.713746e+15	9.592934e+13	3.337346e+14	2.657065e+04	5.580015e+03	3.638292e+03	0	2.904587e-03
5.000000e+07	5.231469e+14	0.000000e+00	5.339807e-01	6.328435e+15	1.225973e+14	3.318999e+14	2.610707e+04	5.775670e+03	3.765863e+03	0	2.846266e-03
6.000000e+07	4.931398e+14	0.000000e+00	5.339807e-01	5.976032e+15	1.525554e+14	3.300789e+14	2.566946e+04	5.959609e+03	3.885795e+03	0	2.790771e-03
7.000000e+07	4.656245e+14	0.000000e+00	5.339807e-01	5.652768e+15	1.855832e+14	3.282714e+14	2.525566e+04	6.132669e+03	3.998634e+03	0	2.737870e-03
8.000000e+07	4.403239e+14	0.000000e+00	5.339807e-01	5.355410e+15	2.214160e+14	3.264774e+14	2.486375e+04	6.295591e+03	4.104863e+03	0	2.687355e-03
9.000000e+07	4.169994e+14	0.000000e+00	5.339807e-01	5.081172e+15	2.597569e+14	3.246967e+14	2.449201e+04	6.449030e+03	4.204908e+03	0	2.639040e-03
1.000000e+08	3.954445e+14	0.000000e+00	5.339807e-01	4.827645e+15	3.002880e+14	3.229292e+14	2.413891e+04	6.593572e+03	4.299153e+03	0	2.592763e-03
1.100000e+08	3.754798e+14	0.000000e+00	5.339807e-01	4.592734e+15	3.426786e+14	3.211748e+14	2.380308e+04	6.729745e+03	4.387940e+03	0	2.548374e-03
1.200000e+08	3.569489e+14	0.000000e+00	5.339807e-01	4.374612e+15	3.865938e+14	3.194335e+14	2.348328e+04	6.858026e+03	4.471582e+03	0	2.505741e-03
1.300000e+08	3.397146e+14	0.000000e+00	5.339807e-01	4.171678e+15	4.317005e+14	3.177050e+14	2.317839e+04	6.978850e+03	4.550363e+03	0	2.464747e-03
1.400000e+08	3.236567e+14	0.000000e+00	5.339807e-01	3.982527e+15	4.776732e+14	3.159894e+14	2.288738e+04	7.092618e+03	4.624542e+03	0	2.425283e-03
1.500000e+08	3.086689e+14	0.000000e+00	5.339807e-01	3.805916e+15	5.241979e+14	3.142864e+14	2.260934e+04	7.199698e+03	4.694360e+03	0	2.387253e-03
1.600000e+08	2.946571e+14	0.000000e+00	5.339807e-01	3.640747e+15	5.709756e+14	3.125960e+14	2.234342e+04	7.300434e+03	4.760042e+03	0	2.350570e-03
1.700000e+08	2.815378e+14	0.000000e+00	5.339807e-01	3.486042e+15	6.177259e+14	3.109180e+14	2.208885e+04	7.395144e+03	4.821795e+03	0	2.315154e-03
1.800000e+08	2.692367e+14	0.000000e+00	5.339807e-01	3.340933e+15	6.641878e+14	3.092525e+14	2.184493e+04	7.484129e+03	4.879816e+03	0	2.280932e-03
1.900000e+08	2.576870e+14	0.000000e+00	5.339807e-01	3.204639e+15	7.101219e+14	3.075992e+14	2.161100e+04	7.567672e+03	4.934287e+03	0	2.247838e-03
2.000000e+08	2.468292e+14	0.000000e+00	5.339807e-01	3.076464e+15	7.553111e+14	3.059581e+14	2.138648e+04	7.646039e+03	4.985384e+03	0	2.215813e-03
2.100000e+08	2.366095e+14	0.000000e+00	5.339807e-01	2.955779e+15	7.995609e+14	3.043290e+14	2.117080e+04	7.719483e+03	5.033272e+03	0	2.184800e-03
2.200000e+08	2.269797e+14	0.000000e+00	5.339807e-01	2.842018e+15	8.426991e+14	3.027119e+14	2.096346e+04	7.788246e+03	5.078106e+03	0	2.154748e-03
2.300000e+08	2.178958e+14	0.000000e+00	5.339807e-01	2.734668e+15	8.845753e+14	3.011067e+14	2.076400e+04	7.852556e+03	5.120038e+03	0	2.125611e-03
2.400000e+08	2.093181e+14	0.000000e+00	5.339807e-01	2.633263e+15	9.250619e+14	2.995132e+14	2.057196e+04	7.912631e+03	5.159208e+03	0	2.097345e-03
2.500000e+08	2.012107e+14	0.000000e+00	5.339807e-01	2.537383e+15	9.640508e+14	2.979314e+14	2.038695e+04	7.968681e+03	5.195754e+03	0	2.069909e-03
2.600000e+08	1.935405e+14	0.000000e+00	5.339807e-01	2.446640e+15	1.001454e+15	2.963612e+14	2.020859e+04	8.020904e+03	5.229805e+03	0	2.043266e-03
2.700000e+08	1.862776e+14	0.000000e+00	5.339807e-01	2.360684e+15	1.037201e+15	2.948025e+14	2.003653e+04	8.069493e+03	5.261486e+03	0	2.017380e-03
2.800000e+08	1.793945e+14	0.000000e+00	5.339807e-01	2.279192e+15	1.071240e+15	2.932551e+14	1.987044e+04	8.114630e+03	5.290916e+03	0	1.992220e-03
2.900000e+08	1.728660e+14	0.000000e+00	5.339807e-01	2.201870e+15	1.103534e+15	2.917191e+14	1.971002e+04	8.156489e+03	5.318209e+03	0	1.967754e-03
3.000000e+08	1.666689e+14	0.000000e+00	5.339807e-01	2.128445e+15	1.134059e+15	2.901942e+14	1.955497e+04	8.195239e+03	5.343475e+03	0	1.943953e-03
3.100000e+08	1.607819e+14	0.000000e+00	5.339807e-01	2.058669e+15	1.162807e+15	2.886805e+14	1.940504e+04	8.231039e+03	5.366817e+03	0	1.920790e-03
3.200000e+08	1.551855e+14	0.000000e+00	5.339807e-01	1.992310e+15	1.189779e+15	2.871777e+14	1.925997e+04	8.264043e+03	5.388337e+03	0	1.898240e-03
3.300000e+08	1.498613e+14	0.000000e+00	5.339807e-01	1.929156e+15	1.214987e+15	2.856859e+14	1.911952e+04	8.294398e+03	5.408128e+03	0	1.876279e-03
3.400000e+08	1.447928e+14	0.000000e+00	5.339807e-01	1.869011e+15	1.238453e+15	2.842049e+14	1.898347e+04	8.322243e+03	5.426284e+03	0	1.854883e-03
3.500000e+08	1.399643e+14	0.000000e+00	5.339807e-01	1.811691e+15	1.260206e+15	2.827347e+14	1.885162e+04	8.347713e+03	5.442891e+03	0	1.834031e-03
3.600000e+08	1.353616e+14	0.000000e+00	5.339807e-01	1.757030e+15	1.280281e+15	2.812751e+14	1.872377e+04	8.370935e+03	5.458032e+03	0	1.813702e-03
3.700000e+08	1.309711e+14	0.000000e+00	5.339807e-01	1.704869e+15	1.298721e+15	2.798261e+14	1.859974e+04	8.392031e+03	5.471787e+03	0	1.793877e-03
3.800000e+08	1.267805e+14	0.000000e+00	5.339807e-01	1.655063e+15	1.315570e+15	2.783876e+14	1.847936e+04	8.411118e+03	5.484233e+03	0	1.774537e-03
3.900000e+08	1.227783e+14	0.000000e+00	5.339807e-01	1.607476e+15	1.330880e+15	2.769595e+14	1.836246e+04	8.428307e+03	5.495440e+03	0	1.755664e-03
4.000000e+08	1.189537e+14	0.000000e+00	5.339807e-01	1.561983e+15	1.344703e+15	2.755417e+14	1.824889e+04	8.443702e+03	5.505478e+03	0	1.737242e-03
4.100000e+08	1.152967e+14	0.000000e+00	5.339807e-01	1.518465e+15	1.357094e+15	2.741341e+14	1.813850e+04	8.457405e+03	5.514413e+03	0	1.719253e-03
4.200000e+08	1.117979e+14	0.000000e+00	5.339807e-01	1.476812e+15	1.368110e+15	2.727367e+14	1.803116e+04	8.469512e+03	5.522306e+03	0	1.701683e-03
4.300000e+08	1.084486e+14	0.000000e+00	5.339807e-01	1.436923e+15	1.377810e+15	2.713493e+14	1.792673e+04	8.480112e+03	5.529218e+03	0	1.684518e-03
4.400000e+08	1.052407e+14	0.000000e+00	5.339807e-01	1.398701e+15	1.386251e+15	2.699719e+14	1.782510e+04	8.489292e+03	5.535204e+03	0	1.667742e-03
4.500000e+08	1.021665e+14	0.000000e+00	5.339807e-01	1.362057e+15	1.393491e+15	2.686044e+14	1.772615e+04	8.497135e+03	5.540318e+03	0	1.651342e-03
4.600000e+08	9.921880e+13	0.000000e+00	5.339807e-01	1.326906e+15	1.399590e+15	2.672468e+14	1.762977e+04	8.503718e+03	5.544610e+03	0	1.635305e-03
4.700000e+08	9.639102e+13	0.000000e+00	5.339807e-01	1.293170e+15	1.404605e+15	2.658988e+14	1.753586e+04	8.509115e+03	5.548129e+03	0	1.619620e-03
4.800000e+08	9.367685e+13	0.000000e+00	5.339807e-01	1.260776e+15	1.408592e+15	2.645606e+14	1.744431e+04	8.513396e+03	5.550920e+03	0	1.604273e-03
4.900000e+08	9.107042e+13	0.000000e+00	5.339807e-01	1.229654e+15	1.411606e+15	2.632319e+14	1.735504e+04	8.516627e+03	5.553027e+03	0	1.589254e-03
5.000000e+08	8.856620e+13	0.000000e+00	5.339807e-01	1.199739e+15	1.413702e+15	2.619127e+14	1.726796e+04	8.518871e+03	5.554490e+03	0	1.574552e-03
5.100000e+08	8.615902e+13	0.000000e+00	5.339807e-01	1.170971e+15	1.414932e+15	2.606029e+14	1.718297e+04	8.520187e+03	5.555348e+03	0	1.560155e-03
5.200000e+08	8.384400e+13	0.000000e+00	5.339807e-01	1.143292e+15	1.415349e+15	2.593025e+14	1.710001e+04	8.520632e+03	5.555638e+03	0	1.546055e-03
5.300000e+08	8.161657e+13	0.000000e+00	5.339807e-01	1.116648e+15	1.415000e+15	2.580113e+14	1.701899e+04	8.520259e+03	5.555395e+03	0	1.532241e-03
5.400000e+08	7.947243e+13	0.000000e+00	5.339807e-01	1.090989e+15	1.413933e+15	2.567294e+14	1.693985e+04	8.519118e+03	5.554651e+03	0	1.518704e-03
5.500000e+08	7.740751e+13	0.000000e+00	5.339807e-01	1.066267e+15	1.412194e+15	2.554565e+14	1.686251e+04	8.517257e+03	5.553438e+03	0	1.505435e-03
5.600000e+08	7.541800e+13	0.000000e+00	5.339807e-01	1.042437e+15	1.409827e+15	2.541927e+14	1.678691e+04	8.514722e+03	5.551784e+03	0	1.492425e-03
5.700000e+08	7.350032e+13	0.000000e+00	5.339807e-01	1.019456e+15	1.406874e+15	2.529379e+14	1.671298e+04	8.511553e+03	5.549719e+03	0	1.479667e-03
5.800000e+08	7.165105e+13	0.000000e+00	5.339807e-01	9.972858e+14	1.403374e+15	2.516920e+14	1.664068e+04	8.507793e+03	5.547267e+03	0	1.467152e-03
5.900000e+08	6.986701e+13	0.000000e+00	5.339807e-01	9.758872e+14	1.399367e+15	2.504550e+14	1.656993e+04	8.503478e+03	5.544453e+03	0	1.454873e-03
6.000000e+08	6.814518e+13	0.000000e+00	5.339807e-01	9.552252e+14	1.394887e+15	2.492266e+14	1.650070e+04	8.498644e+03	5.541301e+03	0	1.442821e-03
6.100000e+08	6.648270e+13	0.000000e+00	5.339807e-01	9.352662e+14	1.389971e+15	2.480070e+14	1.643292e+04	8.493326e+03	5.537834e+03	0	1.430992e-03
6.200000e+08	6.487689e+13	0.000000e+00	5.339807e-01	9.159784e+14	1.384650e+15	2.467960e+14	1.636654e+04	8.487555e+03	5.534071e+03	0	1.419376e-03
6.300000e+08	6.332519e+13	0.000000e+00	5.339807e-01	8.973318e+14	1.378956e+15	2.455935e+14	1.630153e+04	8.481361e+03	5.530033e+03	0	1.407969e-03
6.400000e+08	6.182521e+13	0.000000e+00	5.339807e-01	8.792981e+14	1.372919e+15	2.443996e+14	1.623783e+04	8.474773e+03	5.525737e+03	0	1.396763e-03
6.500000e+08	6.037466e+13	0.000000e+00	5.339807e-01	8.618505e+14	1.366566e+15	2.432140e+14	1.617540e+04	8.467818e+03	5.521202e+03	0	1.385753e-03
6.600000e+08	5.897138e+13	0.000000e+00	5.339807e-01	8.449635e+14	1.359923e+15	2.420368e+14	1.611420e+04	8.460521e+03	5.516444e+03	0	1.374932e-03
6.700000e+08	5.761334e+13	0.000000e+00	5.339807e-01	8.286130e+14	1.353015e+15	2.408678e+14	1.605419e+04	8.452905e+03	5.511479e+03	0	1.364296e-03
6.800000e+08	5.629859e+13	0.000000e+00	5.339807e-01	8.127762e+14	1.345867e+15	2.397071e+14	1.599534e+04	8.444994e+03	5.506320e+03	0	1.353838e-03
6.900000e+08	5.502532e+13	0.000000e+00	5.339807e-01	7.974316e+14	1.338501e+15	2.385545e+14	1.593760e+04	8.436808e+03	5.500983e+03	0	1.343554e-03
7.000000e+08	5.379177e+13	0.000000e+00	5.339807e-01	7.825585e+14	1.330934e+15	2.374100e+14	1.588095e+04	8.428368e+03	5.495480e+03	0	1.333438e-03
7.100000e+08	5.259629e+13	0.000000e+00	5.339807e-01	7.681375e+14	1.323190e+15	2.362735e+14	1.582534e+04	8.419691e+03	5.489823e+03	0	1.323486e-03
7.200000e+08	5.143732e+13	0.000000e+00	5.339807e-01	7.541502e+14	1.315286e+15	2.351449e+14	1.577076e+04	8.410797e+03	5.484023e+03	0	1.313692e-03
7.300000e+08	5.031338e+13	0.000000e+00	5.339807e-01	7.405789e+14	1.307238e+15	2.340242e+14	1.571716e+04	8.401702e+03	5.478093e+03	0	1.304053e-03
7.400000e+08	4.922304e+13	0.000000e+00	5.339807e-01	7.274070e+14	1.299064e+15	2.329114e+14	1.566452e+04	8.392421e+03	5.472042e+03	0	1.294565e-03
7.500000e+08	4.816497e+13	0.000000e+00	5.339807e-01	7.146185e+14	1.290777e+15	2.318063e+14	1.561282e+04	8.382970e+03	5.465879e+03	0	1.285222e-03
7.600000e+08	4.713789e+13	0.000000e+00	5.339807e-01	7.021985e+14	1.282393e+15	2.307089e+14	1.556201e+04	8.373362e+03	5.459615e+03	0	1.276020e-03
7.700000e+08	4.614057e+13	0.000000e+00	5.339807e-01	6.901326e+14	1.273924e+15	2.296191e+14	1.551209e+04	8.363610e+03	5.453256e+03	0	1.266957e-03
7.800000e+08	4.517187e+13	0.000000e+00	5.339807e-01	6.784071e+14	1.265384e+15	2.285370e+14	1.546301e+04	8.353728e+03	5.446813e+03	0	1.258028e-03
7.900000e+08	4.423068e+13	0.000000e+00	5.339807e-01	6.670089e+14	1.256783e+15	2.274623e+14	1.541477e+04	8.343726e+03	5.440291e+03	0	1.249229e-03
8.000000e+08	4.331596e+13	0.000000e+00	5.339807e-01	6.559258e+14	1.248131e+15	2.263951e+14	1.536733e+04	8.333615e+03	5.433699e+03	0	1.240557e-03
8.100000e+08	4.242670e+13	0.000000e+00	5.339807e-01	6.451457e+14	1.239441e+15	2.253353e+14	1.532068e+04	8.323407e+03	5.427043e+03	0	1.232009e-03
8.200000e+08	4.156195e+13	0.000000e+00	5.339807e-01	6.346576e+14	1.230721e+15	2.242828e+14	1.527478e+04	8.313110e+03	5.420329e+03	0	1.223581e-03
8.300000e+08	4.072080e+13	0.000000e+00	5.339807e-01	6.244507e+14	1.221978e+15	2.232376e+14	1.522963e+04	8.302735e+03	5.413564e+03	0	1.215271e-03
8.400000e+08	3.990238e+13	0.000000e+00	5.339807e-01	6.145146e+14	1.213223e+15	2.221996e+14	1.518521e+04	8.292288e+03	5.406753e+03	0	1.207074e-03
8.500000e+08	3.910587e+13	0.000000e+00	5.339807e-01	6.048396e+14	1.204461e+15	2.211688e+14	1.514148e+04	8.281780e+03	5.399901e+03	0	1.198988e-03
8.600000e+08	3.833048e+13	0.000000e+00	5.339807e-01	5.954163e+14	1.195701e+15	2.201450e+14	1.509844e+04	8.271216e+03	5.393014e+03	0	1.191011e-03
8.700000e+08	3.757544e+13	0.000000e+00	5.339807e-01	5.862358e+14	1.186948e+15	2.191284e+14	1.505607e+04	8.260605e+03	5.386095e+03	0	1.183138e-03
8.800000e+08	3.684004e+13	0.000000e+00	5.339807e-01	5.772896e+14	1.178209e+15	2.181187e+14	1.501435e+04	8.249953e+03	5.379150e+03	0	1.175369e-03
8.900000e+08	3.612359e+13	0.000000e+00	5.339807e-01	5.685695e+14	1.169489e+15	2.171159e+14	1.497326e+04	8.239267e+03	5.372182e+03	0	1.167700e-03
9.000000e+08	3.542543e+13	0.000000e+00	5.339807e-01	5.600677e+14	1.160793e+15	2.161201e+14	1.493279e+04	8.228552e+03	5.365196e+03	0	1.160128e-03
9.100000e+08	3.474492e+13	0.000000e+00	5.339807e-01	5.517766e+14	1.152126e+15	2.151310e+14	1.489292e+04	8.217815e+03	5.358195e+03	0	1.152651e-03
9.200000e+08	3.408147e+13	0.000000e+00	5.339807e-01	5.436893e+14	1.143493e+15	2.141488e+14	1.485363e+04	8.207059e+03	5.351182e+03	0	1.145268e-03
9.300000e+08	3.343449e+13	0.000000e+00	5.339807e-01	5.357987e+14	1.134897e+15	2.131732e+14	1.481492e+04	8.196291e+03	5.344161e+03	0	1.137974e-03
9.400000e+08	3.280343e+13	0.000000e+00	5.339807e-01	5.280983e+14	1.126341e+15	2.122044e+14	1.477677e+04	8.185515e+03	5.337134e+03	0	1.130769e-03
9.500000e+08	3.218776e+13	0.000000e+00	5.339807e-01	5.205819e+14	1.117831e+15	2.112421e+14	1.473917e+04	8.174735e+03	5.330106e+03	0	1.123650e-03
9.600000e+08	3.158697e+13	0.000000e+00	5.339807e-01	5.132434e+14	1.109368e+15	2.102864e+14	1.470209e+04	8.163955e+03	5.323077e+03	0	1.116615e-03
9.700000e+08	3.100058e+13	0.000000e+00	5.339807e-01	5.060770e+14	1.100955e+15	2.093372e+14	1.466554e+04	8.153180e+03	5.316051e+03	0	1.109662e-03
9.800000e+08	3.042811e+13	0.000000e+00	5.339807e-01	4.990772e+14	1.092595e+15	2.083945e+14	1.462950e+04	8.142412e+03	5.309030e+03	0	1.102789e-03
9.900000e+08	2.986911e+13	0.000000e+00	5.339807e-01	4.922387e+14	1.084289e+15	2.074582e+14	1.459395e+04	8.131655e+03	5.302017e+03	0	1.095994e-03
1.000000e+09	2.932317e+13	0.000000e+00	5.339807e-01	4.855563e+14	1.076042e+15	2.065282e+14	1.455888e+04	8.120913e+03	5.295012e+03	0	1.089276e-03
1.010000e+09	2.878985e+13	0.000000e+00	5.339807e-01	4.790252e+14	1.067854e+15	2.056045e+14	1.452429e+04	8.110187e+03	5.288019e+03	0	1.082632e-03
1.020000e+09	2.826877e+13	0.000000e+00	5.339807e-01	4.726407e+14	1.059726e+15	2.046871e+14	1.449017e+04	8.099482e+03	5.281039e+03	0	1.076060e-03
1.030000e+09	2.775955e+13	0.000000e+00	5.339807e-01	4.663981e+14	1.051661e+15	2.037759e+14	1.445649e+04	8.088799e+03	5.274073e+03	0	1.069560e-03
1.040000e+09	2.726181e+13	0.000000e+00	5.339807e-01	4.602932e+14	1.043660e+15	2.028709e+14	1.442326e+04	8.078141e+03	5.267124e+03	0	1.063129e-03
1.050000e+09	2.677521e+13	0.000000e+00	5.339807e-01	4.543218e+14	1.035724e+15	2.019720e+14	1.439046e+04	8.067510e+03	5.260192e+03	0	1.056765e-03
1.060000e+09	2.629941e+13	0.000000e+00	5.339807e-01	4.484798e+14	1.027853e+15	2.010791e+14	1.435809e+04	8.056908e+03	5.253280e+03	0	1.050468e-03
1.070000e+09	2.583407e+13	0.000000e+00	5.339807e-01	4.427634e+14	1.020050e+15	2.001923e+14	1.432613e+04	8.046337e+03	5.246388e+03	0	1.044236e-03
1.080000e+09	2.537890e+13	0.000000e+00	5.339807e-01	4.371689e+14	1.012315e+15	1.993114e+14	1.429458e+04	8.035800e+03	5.239517e+03	0	1.038066e-03
1.090000e+09	2.493357e+13	0.000000e+00	5.339807e-01	4.316926e+14	1.004648e+15	1.984364e+14	1.426342e+04	8.025297e+03	5.232669e+03	0	1.031959e-03
1.100000e+09	2.449782e+13	0.000000e+00	5.339807e-01	4.263312e+14	9.970493e+14	1.975673e+14	1.423265e+04	8.014830e+03	5.225844e+03	0	1.025912e-03
1.110000e+09	2.407135e+13	0.000000e+00	5.339807e-01	4.210813e+14	9.895206e+14	1.967041e+14	1.420226e+04	8.004401e+03	5.219044e+03	0	1.019924e-03
1.120000e+09	2.365389e+13	0.000000e+00	5.339807e-01	4.159397e+14	9.820619e+14	1.958466e+14	1.417224e+04	7.994011e+03	5.212270e+03	0	1.013993e-03
1.130000e+09	2.324520e+13	0.000000e+00	5.339807e-01	4.109032e+14	9.746731e+14	1.949949e+14	1.414259e+04	7.983661e+03	5.205521e+03	0	1.008119e-03
1.140000e+09	2.284501e+13	0.000000e+00	5.339807e-01	4.059690e+14	9.673544e+14	1.941488e+14	1.411330e+04	7.973353e+03	5.198800e+03	0	1.002301e-03
1.150000e+09	2.245308e+13	0.000000e+00	5.339807e-01	4.011342e+14	9.601062e+14	1.933084e+14	1.408436e+04	7.963087e+03	5.192106e+03	0	9.965357e-04
1.160000e+09	2.206919e+13	0.000000e+00	5.339807e-01	3.963960e+14	9.529285e+14	1.924737e+14	1.405576e+04	7.952864e+03	5.185441e+03	0	9.908236e-04
1.170000e+09	2.169310e+13	0.000000e+00	5.339807e-01	3.917517e+14	9.458213e+14	1.916444e+14	1.402749e+04	7.942686e+03	5.178805e+03	0	9.851630e-04
1.180000e+09	2.132461e+13	0.000000e+00	5.339807e-01	3.871987e+14	9.387844e+14	1.908207e+14	1.399956e+04	7.932553e+03	5.172198e+03	0	9.795529e-04
1.190000e+09	2.096350e+13	0.000000e+00	5.339807e-01	3.827346e+14	9.318179e+14	1.900025e+14	1.397195e+04	7.922466e+03	5.165621e+03	0	9.739922e-04
1.200000e+09	2.060957e+13	0.000000e+00	5.339807e-01	3.783569e+14	9.249210e+14	1.891897e+14	1.394466e+04	7.912425e+03	5.159074e+03	0	9.684797e-04
1.210000e+09	2.026263e+13	0.000000e+00	5.339807e-01	3.740634e+14	9.180943e+14	1.883823e+14	1.391768e+04	7.902432e+03	5.152558e+03	0	9.630144e-04
1.220000e+09	1.992248e+13	0.000000e+00	5.339807e-01	3.698518e+14	9.113372e+14	1.875802e+14	1.389100e+04	7.892486e+03	5.146073e+03	0	9.575954e-04
1.230000e+09	1.958895e+13	0.000000e+00	5.339807e-01	3.657199e+14	9.046489e+14	1.867835e+14	1.386462e+04	7.882589e+03	5.139620e+03	0	9.522215e-04
1.240000e+09	1.926187e+13	0.000000e+00	5.339807e-01	3.616656e+14	8.980298e+14	1.859920e+14	1.383854e+04	7.872741e+03	5.133199e+03	0	9.468918e-04
1.250000e+09	1.894105e+13	0.000000e+00	5.339807e-01	3.576870e+14	8.914792e+14	1.852057e+14	1.381274e+04	7.862941e+03	5.126809e+03	0	9.416054e-04
1.260000e+09	1.862634e+13	0.000000e+00	5.339807e-01	3.537820e+14	8.849967e+14	1.844247e+14	1.378723e+04	7.853191e+03	5.120452e+03	0	9.363612e-04
1.270000e+09	1.831759e+13	0.000000e+00	5.339807e-01	3.499488e+14	8.785818e+14	1.836487e+14	1.376199e+04	7.843491e+03	5.114127e+03	0	9.311585e-04
1.280000e+09	1.801462e+13	0.000000e+00	5.339807e-01	3.461856e+14	8.722339e+14	1.828779e+14	1.373703e+04	7.833841e+03	5.107835e+03	0	9.259963e-04
1.290000e+09	1.771731e+13	0.000000e+00	5.339807e-01	3.424905e+14	8.659530e+14	1.821121e+14	1.371233e+04	7.824241e+03	5.101576e+03	0	9.208738e-04
1.300000e+09	1.742549e+13	0.000000e+00	5.339807e-01	3.388618e+14	8.597380e+14	1.813514e+14	1.368790e+04	7.814691e+03	5.095349e+03	0	9.157900e-04
1.310000e+09	1.713904e+13	0.000000e+00	5.339807e-01	3.352980e+14	8.535890e+14	1.805956e+14	1.366372e+04	7.805193e+03	5.089156e+03	0	9.107442e-04
1.320000e+09	1.685782e+13	0.000000e+00	5.339807e-01	3.317973e+14	8.475047e+14	1.798448e+14	1.363980e+04	7.795744e+03	5.082996e+03	0	9.057355e-04
1.330000e+09	1.658170e+13	0.000000e+00	5.339807e-01	3.283582e+14	8.414850e+14	1.790990e+14	1.361612e+04	7.786347e+03	5.076868e+03	0	9.007631e-04
1.340000e+09	1.631056e+13	0.000000e+00	5.339807e-01	3.249793e+14	8.355296e+14	1.783579e+14	1.359269e+04	7.777001e+03	5.070774e+03	0	8.958263e-04
1.350000e+09	1.604426e+13	0.000000e+00	5.339807e-01	3.216591e+14	8.296372e+14	1.776218e+14	1.356951e+04	7.767705e+03	5.064714e+03	0	8.909243e-04
1.360000e+09	1.578270e+13	0.000000e+00	5.339807e-01	3.183961e+14	8.238079e+14	1.768904e+14	1.354655e+04	7.758461e+03	5.058686e+03	0	8.860562e-04
