#t		Qconv[W]	Ri[Rp]		R*[Rp]		Qc[W]		Qm[W]		Qr[W]		Tcmb[K]		Tl[K]		Tup[K]		RiFlag		Bs[T]
0.000000e+00	8.919691e+14	0.000000e+00	5.242719e-01	1.076590e+16	2.249696e+13	3.623747e+14	3.100009e+04	4.777739e+03	3.065962e+03	0	3.438639e-03
1.000000e+07	8.247232e+14	0.000000e+00	5.242719e-01	9.971338e+15	3.652591e+13	3.603669e+14	3.027529e+04	5.075192e+03	3.256843e+03	0	3.349958e-03
2.000000e+07	7.649340e+14	0.000000e+00	5.242719e-01	9.264582e+15	5.497267e+13	3.583741e+14	2.960232e+04	5.350861e+03	3.433745e+03	0	3.266966e-03
3.000000e+07	7.115105e+14	0.000000e+00	5.242719e-01	8.632804e+15	7.799903e+13	3.563961e+14	2.897564e+04	5.606979e+03	3.598101e+03	0	3.189068e-03
4.000000e+07	6.635556e+14	0.000000e+00	5.242719e-01	8.065458e+15	1.056015e+14	3.544330e+14	2.839049e+04	5.845434e+03	3.751122e+03	0	3.115749e-03
5.000000e+07	6.203265e+14	0.000000e+00	5.242719e-01	7.553807e+15	1.376401e+14	3.524845e+14	2.784276e+04	6.067831e+03	3.893838e+03	0	3.046563e-03
6.000000e+07	5.812039e+14	0.000000e+00	5.242719e-01	7.090567e+15	1.738670e+14	3.505505e+14	2.732887e+04	6.275548e+03	4.027134e+03	0	2.981120e-03
7.000000e+07	5.456684e+14	0.000000e+00	5.242719e-01	6.669627e+15	2.139534e+14	3.486309e+14	2.684572e+04	6.469774e+03	4.151772e+03	0	2.919082e-03
8.000000e+07	5.132815e+14	0.000000e+00	5.242719e-01	6.285828e+15	2.575117e+14	3.467256e+14	2.639057e+04	6.651546e+03	4.268419e+03	0	2.860148e-03
9.000000e+07	4.836715e+14	0.000000e+00	5.242719e-01	5.934793e+15	3.041158e+14	3.448345e+14	2.596101e+04	6.821772e+03	4.377655e+03	0	2.804057e-03
1.000000e+08	4.565209e+14	0.000000e+00	5.242719e-01	5.612787e+15	3.533173e+14	3.429574e+14	2.555491e+04	6.981253e+03	4.479998e+03	0	2.750575e-03
1.100000e+08	4.315578e+14	0.000000e+00	5.242719e-01	5.316606e+15	4.046585e+14	3.410942e+14	2.517038e+04	7.130706e+03	4.575904e+03	0	2.699498e-03
1.200000e+08	4.085479e+14	0.000000e+00	5.242719e-01	5.043490e+15	4.576839e+14	3.392449e+14	2.480573e+04	7.270772e+03	4.665787e+03	0	2.650641e-03
1.300000e+08	3.872882e+14	0.000000e+00	5.242719e-01	4.791050e+15	5.119482e+14	3.374092e+14	2.445944e+04	7.402029e+03	4.750017e+03	0	2.603843e-03
1.400000e+08	3.676025e+14	0.000000e+00	5.242719e-01	4.557207e+15	5.670238e+14	3.355872e+14	2.413015e+04	7.525006e+03	4.828933e+03	0	2.558956e-03
1.500000e+08	3.493368e+14	0.000000e+00	5.242719e-01	4.340149e+15	6.225057e+14	3.337786e+14	2.381664e+04	7.640184e+03	4.902845e+03	0	2.515850e-03
1.600000e+08	3.323562e+14	0.000000e+00	5.242719e-01	4.138283e+15	6.780157e+14	3.319833e+14	2.351780e+04	7.748007e+03	4.972038e+03	0	2.474408e-03
1.700000e+08	3.165420e+14	0.000000e+00	5.242719e-01	3.950211e+15	7.332046e+14	3.302013e+14	2.323261e+04	7.848889e+03	5.036775e+03	0	2.434522e-03
1.800000e+08	3.017892e+14	0.000000e+00	5.242719e-01	3.774694e+15	7.877547e+14	3.284324e+14	2.296017e+04	7.943210e+03	5.097303e+03	0	2.396098e-03
1.900000e+08	2.880050e+14	0.000000e+00	5.242719e-01	3.610636e+15	8.413799e+14	3.266766e+14	2.269964e+04	8.031330e+03	5.153851e+03	0	2.359047e-03
2.000000e+08	2.751065e+14	0.000000e+00	5.242719e-01	3.457061e+15	8.938266e+14	3.249337e+14	2.245026e+04	8.113583e+03	5.206635e+03	0	2.323291e-03
2.100000e+08	2.630199e+14	0.000000e+00	5.242719e-01	3.313098e+15	9.448731e+14	3.232036e+14	2.221132e+04	8.190287e+03	5.255857e+03	0	2.288756e-03
2.200000e+08	2.516791e+14	0.000000e+00	5.242719e-01	3.177965e+15	9.943280e+14	3.214862e+14	2.198218e+04	8.261739e+03	5.301708e+03	0	2.255377e-03
2.300000e+08	2.410248e+14	0.000000e+00	5.242719e-01	3.050964e+15	1.042031e+15	3.197814e+14	2.176225e+04	8.328220e+03	5.344371e+03	0	2.223091e-03
2.400000e+08	2.310036e+14	0.000000e+00	5.242719e-01	2.931461e+15	1.087848e+15	3.180891e+14	2.155099e+04	8.389998e+03	5.384015e+03	0	2.191844e-03
2.500000e+08	2.215670e+14	0.000000e+00	5.242719e-01	2.818886e+15	1.131674e+15	3.164092e+14	2.134789e+04	8.447327e+03	5.420804e+03	0	2.161582e-03
2.600000e+08	2.126715e+14	0.000000e+00	5.242719e-01	2.712724e+15	1.173426e+15	3.147417e+14	2.115249e+04	8.500446e+03	5.454891e+03	0	2.132258e-03
2.700000e+08	2.042773e+14	0.000000e+00	5.242719e-01	2.612506e+15	1.213045e+15	3.130862e+14	2.096435e+04	8.549585e+03	5.486425e+03	0	2.103827e-03
2.800000e+08	1.963484e+14	0.000000e+00	5.242719e-01	2.517805e+15	1.250493e+15	3.114429e+14	2.078307e+04	8.594960e+03	5.515543e+03	0	2.076247e-03
2.900000e+08	1.888519e+14	0.000000e+00	5.242719e-01	2.428232e+15	1.285748e+15	3.098116e+14	2.060828e+04	8.636779e+03	5.542379e+03	0	2.049480e-03
3.000000e+08	1.817576e+14	0.000000e+00	5.242719e-01	2.343431e+15	1.318809e+15	3.081922e+14	2.043963e+04	8.675238e+03	5.567059e+03	0	2.023489e-03
3.100000e+08	1.750382e+14	0.000000e+00	5.242719e-01	2.263079e+15	1.349684e+15	3.065845e+14	2.027681e+04	8.710524e+03	5.589702e+03	0	1.998240e-03
3.200000e+08	1.686684e+14	0.000000e+00	5.242719e-01	2.186875e+15	1.378400e+15	3.049886e+14	2.011950e+04	8.742815e+03	5.610424e+03	0	1.973701e-03
3.300000e+08	1.626251e+14	0.000000e+00	5.242719e-01	2.114547e+15	1.404989e+15	3.034043e+14	1.996743e+04	8.772280e+03	5.629332e+03	0	1.949841e-03
3.400000e+08	1.568869e+14	0.000000e+00	5.242719e-01	2.045843e+15	1.429495e+15	3.018314e+14	1.982033e+04	8.799079e+03	5.646529e+03	0	1.926632e-03
3.500000e+08	1.514342e+14	0.000000e+00	5.242719e-01	1.980529e+15	1.451972e+15	3.002700e+14	1.967796e+04	8.823365e+03	5.662114e+03	0	1.904048e-03
3.600000e+08	1.462489e+14	0.000000e+00	5.242719e-01	1.918393e+15	1.472478e+15	2.987199e+14	1.954008e+04	8.845283e+03	5.676179e+03	0	1.882063e-03
3.700000e+08	1.413143e+14	0.000000e+00	5.242719e-01	1.859234e+15	1.491076e+15	2.971811e+14	1.940649e+04	8.864969e+03	5.688813e+03	0	1.860653e-03
3.800000e+08	1.366149e+14	0.000000e+00	5.242719e-01	1.802872e+15	1.507834e+15	2.956533e+14	1.927697e+04	8.882556e+03	5.700098e+03	0	1.839795e-03
3.900000e+08	1.321364e+14	0.000000e+00	5.242719e-01	1.749135e+15	1.522823e+15	2.941366e+14	1.915134e+04	8.898166e+03	5.710115e+03	0	1.819467e-03
4.000000e+08	1.278655e+14	0.000000e+00	5.242719e-01	1.697867e+15	1.536116e+15	2.926309e+14	1.902942e+04	8.911916e+03	5.718939e+03	0	1.799649e-03
4.100000e+08	1.237899e+14	0.000000e+00	5.242719e-01	1.648922e+15	1.547787e+15	2.911360e+14	1.891104e+04	8.923917e+03	5.726640e+03	0	1.780321e-03
4.200000e+08	1.198981e+14	0.000000e+00	5.242719e-01	1.602163e+15	1.557911e+15	2.896519e+14	1.879604e+04	8.934274e+03	5.733287e+03	0	1.761465e-03
4.300000e+08	1.161794e+14	0.000000e+00	5.242719e-01	1.557465e+15	1.566564e+15	2.881785e+14	1.868426e+04	8.943087e+03	5.738942e+03	0	1.743063e-03
4.400000e+08	1.126240e+14	0.000000e+00	5.242719e-01	1.514710e+15	1.573820e+15	2.867157e+14	1.857558e+04	8.950450e+03	5.743667e+03	0	1.725098e-03
4.500000e+08	1.092227e+14	0.000000e+00	5.242719e-01	1.473788e+15	1.579751e+15	2.852634e+14	1.846985e+04	8.956451e+03	5.747518e+03	0	1.707553e-03
4.600000e+08	1.059667e+14	0.000000e+00	5.242719e-01	1.434598e+15	1.584431e+15	2.838215e+14	1.836696e+04	8.961174e+03	5.750549e+03	0	1.690414e-03
4.700000e+08	1.028481e+14	0.000000e+00	5.242719e-01	1.397045e+15	1.587931e+15	2.823900e+14	1.826677e+04	8.964699e+03	5.752811e+03	0	1.673666e-03
4.800000e+08	9.985944e+13	0.000000e+00	5.242719e-01	1.361038e+15	1.590317e+15	2.809687e+14	1.816919e+04	8.967100e+03	5.754352e+03	0	1.657295e-03
4.900000e+08	9.699360e+13	0.000000e+00	5.242719e-01	1.326496e+15	1.591659e+15	2.795576e+14	1.807410e+04	8.968448e+03	5.755217e+03	0	1.641286e-03
5.000000e+08	9.424405e+13	0.000000e+00	5.242719e-01	1.293340e+15	1.592019e+15	2.781566e+14	1.798140e+04	8.968810e+03	5.755449e+03	0	1.625629e-03
5.100000e+08	9.160466e+13	0.000000e+00	5.242719e-01	1.261497e+15	1.591461e+15	2.767656e+14	1.789101e+04	8.968249e+03	5.755089e+03	0	1.610309e-03
5.200000e+08	8.906967e+13	0.000000e+00	5.242719e-01	1.230899e+15	1.590043e+15	2.753845e+14	1.780281e+04	8.966824e+03	5.754174e+03	0	1.595316e-03
5.300000e+08	8.663369e+13	0.000000e+00	5.242719e-01	1.201482e+15	1.587823e+15	2.740133e+14	1.771674e+04	8.964590e+03	5.752741e+03	0	1.580637e-03
5.400000e+08	8.429167e+13	0.000000e+00	5.242719e-01	1.173187e+15	1.584855e+15	2.726518e+14	1.763272e+04	8.961601e+03	5.750823e+03	0	1.566264e-03
5.500000e+08	8.203887e+13	0.000000e+00	5.242719e-01	1.145956e+15	1.581193e+15	2.713001e+14	1.755065e+04	8.957906e+03	5.748452e+03	0	1.552184e-03
5.600000e+08	7.987081e+13	0.000000e+00	5.242719e-01	1.119737e+15	1.576884e+15	2.699579e+14	1.747048e+04	8.953552e+03	5.745658e+03	0	1.538389e-03
5.700000e+08	7.778333e+13	0.000000e+00	5.242719e-01	1.094479e+15	1.571979e+15	2.686253e+14	1.739212e+04	8.948583e+03	5.742469e+03	0	1.524868e-03
5.800000e+08	7.577246e+13	0.000000e+00	5.242719e-01	1.070138e+15	1.566519e+15	2.673021e+14	1.731552e+04	8.943041e+03	5.738913e+03	0	1.511612e-03
5.900000e+08	7.383453e+13	0.000000e+00	5.242719e-01	1.046667e+15	1.560548e+15	2.659883e+14	1.724061e+04	8.936964e+03	5.735013e+03	0	1.498614e-03
6.000000e+08	7.196602e+13	0.000000e+00	5.242719e-01	1.024026e+15	1.554108e+15	2.646838e+14	1.716733e+04	8.930389e+03	5.730794e+03	0	1.485864e-03
6.100000e+08	7.016366e+13	0.000000e+00	5.242719e-01	1.002176e+15	1.547235e+15	2.633885e+14	1.709563e+04	8.923351e+03	5.726277e+03	0	1.473355e-03
6.200000e+08	6.842434e+13	0.000000e+00	5.242719e-01	9.810795e+14	1.539966e+15	2.621024e+14	1.702544e+04	8.915882e+03	5.721484e+03	0	1.461078e-03
6.300000e+08	6.674516e+13	0.000000e+00	5.242719e-01	9.607023e+14	1.532334e+15	2.608254e+14	1.695672e+04	8.908013e+03	5.716435e+03	0	1.449027e-03
6.400000e+08	6.512334e+13	0.000000e+00	5.242719e-01	9.410114e+14	1.524373e+15	2.595573e+14	1.688942e+04	8.899773e+03	5.711147e+03	0	1.437195e-03
6.500000e+08	6.355629e+13	0.000000e+00	5.242719e-01	9.219759e+14	1.516110e+15	2.582982e+14	1.682349e+04	8.891189e+03	5.705638e+03	0	1.425573e-03
6.600000e+08	6.204155e+13	0.000000e+00	5.242719e-01	9.035664e+14	1.507575e+15	2.570480e+14	1.675889e+04	8.882286e+03	5.699925e+03	0	1.414157e-03
6.700000e+08	6.057679e+13	0.000000e+00	5.242719e-01	8.857555e+14	1.498795e+15	2.558065e+14	1.669556e+04	8.873089e+03	5.694023e+03	0	1.402939e-03
6.800000e+08	5.915981e+13	0.000000e+00	5.242719e-01	8.685168e+14	1.489795e+15	2.545738e+14	1.663348e+04	8.863619e+03	5.687946e+03	0	1.391914e-03
6.900000e+08	5.778854e+13	0.000000e+00	5.242719e-01	8.518257e+14	1.480595e+15	2.533497e+14	1.657259e+04	8.853898e+03	5.681708e+03	0	1.381075e-03
7.000000e+08	5.646101e+13	0.000000e+00	5.242719e-01	8.356587e+14	1.471221e+15	2.521342e+14	1.651287e+04	8.843946e+03	5.675321e+03	0	1.370417e-03
7.100000e+08	5.517535e+13	0.000000e+00	5.242719e-01	8.199936e+14	1.461691e+15	2.509272e+14	1.645427e+04	8.833781e+03	5.668799e+03	0	1.359936e-03
7.200000e+08	5.392980e+13	0.000000e+00	5.242719e-01	8.048094e+14	1.452025e+15	2.497287e+14	1.639677e+04	8.823422e+03	5.662151e+03	0	1.349624e-03
7.300000e+08	5.272267e+13	0.000000e+00	5.242719e-01	7.900861e+14	1.442241e+15	2.485385e+14	1.634032e+04	8.812884e+03	5.655389e+03	0	1.339479e-03
7.400000e+08	5.155239e+13	0.000000e+00	5.242719e-01	7.758047e+14	1.432354e+15	2.473566e+14	1.628490e+04	8.802184e+03	5.648522e+03	0	1.329494e-03
7.500000e+08	5.041743e+13	0.000000e+00	5.242719e-01	7.619473e+14	1.422382e+15	2.461830e+14	1.623048e+04	8.791335e+03	5.641560e+03	0	1.319665e-03
7.600000e+08	4.931638e+13	0.000000e+00	5.242719e-01	7.484968e+14	1.412338e+15	2.450176e+14	1.617702e+04	8.780352e+03	5.634512e+03	0	1.309987e-03
7.700000e+08	4.824786e+13	0.000000e+00	5.242719e-01	7.354370e+14	1.402234e+15	2.438602e+14	1.612450e+04	8.769247e+03	5.627386e+03	0	1.300457e-03
7.800000e+08	4.721059e+13	0.000000e+00	5.242719e-01	7.227525e+14	1.392085e+15	2.427109e+14	1.607290e+04	8.758033e+03	5.620189e+03	0	1.291070e-03
7.900000e+08	4.620334e+13	0.000000e+00	5.242719e-01	7.104285e+14	1.381902e+15	2.415696e+14	1.602217e+04	8.746720e+03	5.612930e+03	0	1.281822e-03
8.000000e+08	4.522493e+13	0.000000e+00	5.242719e-01	6.984512e+14	1.371695e+15	2.404362e+14	1.597231e+04	8.735320e+03	5.605614e+03	0	1.272709e-03
8.100000e+08	4.427425e+13	0.000000e+00	5.242719e-01	6.868073e+14	1.361474e+15	2.393106e+14	1.592328e+04	8.723843e+03	5.598249e+03	0	1.263728e-03
8.200000e+08	4.335024e+13	0.000000e+00	5.242719e-01	6.754841e+14	1.351249e+15	2.381929e+14	1.587506e+04	8.712297e+03	5.590840e+03	0	1.254875e-03
8.300000e+08	4.245190e+13	0.000000e+00	5.242719e-01	6.644696e+14	1.341029e+15	2.370829e+14	1.582764e+04	8.700692e+03	5.583393e+03	0	1.246146e-03
8.400000e+08	4.157825e+13	0.000000e+00	5.242719e-01	6.537522e+14	1.330820e+15	2.359805e+14	1.578098e+04	8.689036e+03	5.575913e+03	0	1.237539e-03
8.500000e+08	4.072839e+13	0.000000e+00	5.242719e-01	6.433210e+14	1.320630e+15	2.348857e+14	1.573508e+04	8.677336e+03	5.568405e+03	0	1.229049e-03
8.600000e+08	3.990143e+13	0.000000e+00	5.242719e-01	6.331657e+14	1.310466e+15	2.337985e+14	1.568990e+04	8.665601e+03	5.560874e+03	0	1.220673e-03
8.700000e+08	3.909655e+13	0.000000e+00	5.242719e-01	6.232761e+14	1.300335e+15	2.327188e+14	1.564543e+04	8.653836e+03	5.553324e+03	0	1.212410e-03
8.800000e+08	3.831294e+13	0.000000e+00	5.242719e-01	6.136427e+14	1.290241e+15	2.316465e+14	1.560165e+04	8.642048e+03	5.545760e+03	0	1.204255e-03
8.900000e+08	3.754984e+13	0.000000e+00	5.242719e-01	6.042566e+14	1.280191e+15	2.305816e+14	1.555854e+04	8.630244e+03	5.538185e+03	0	1.196206e-03
9.000000e+08	3.680653e+13	0.000000e+00	5.242719e-01	5.951089e+14	1.270189e+15	2.295239e+14	1.551610e+04	8.618428e+03	5.530602e+03	0	1.188260e-03
9.100000e+08	3.608232e+13	0.000000e+00	5.242719e-01	5.861914e+14	1.260238e+15	2.284736e+14	1.547429e+04	8.606606e+03	5.523016e+03	0	1.180415e-03
9.200000e+08	3.537652e+13	0.000000e+00	5.242719e-01	5.774961e+14	1.250345e+15	2.274304e+14	1.543310e+04	8.594783e+03	5.515429e+03	0	1.172668e-03
9.300000e+08	3.468852e+13	0.000000e+00	5.242719e-01	5.690154e+14	1.240511e+15	2.263943e+14	1.539252e+04	8.582963e+03	5.507844e+03	0	1.165016e-03
9.400000e+08	3.401770e+13	0.000000e+00	5.242719e-01	5.607420e+14	1.230740e+15	2.253654e+14	1.535253e+04	8.571151e+03	5.500264e+03	0	1.157457e-03
9.500000e+08	3.336348e+13	0.000000e+00	5.242719e-01	5.526691e+14	1.221035e+15	2.243434e+14	1.531313e+04	8.559351e+03	5.492692e+03	0	1.149989e-03
9.600000e+08	3.272529e+13	0.000000e+00	5.242719e-01	5.447898e+14	1.211399e+15	2.233285e+14	1.527428e+04	8.547567e+03	5.485130e+03	0	1.142610e-03
9.700000e+08	3.210262e+13	0.000000e+00	5.242719e-01	5.370978e+14	1.201834e+15	2.223204e+14	1.523599e+04	8.535801e+03	5.477579e+03	0	1.135316e-03
9.800000e+08	3.149494e+13	0.000000e+00	5.242719e-01	5.295870e+14	1.192343e+15	2.213192e+14	1.519824e+04	8.524058e+03	5.470044e+03	0	1.128107e-03
9.900000e+08	3.090177e+13	0.000000e+00	5.242719e-01	5.222514e+14	1.182928e+15	2.203248e+14	1.516101e+04	8.512340e+03	5.462524e+03	0	1.120980e-03
1.000000e+09	3.032263e+13	0.000000e+00	5.242719e-01	5.150856e+14	1.173589e+15	2.193372e+14	1.512429e+04	8.500650e+03	5.455022e+03	0	1.113933e-03
1.010000e+09	2.975707e+13	0.000000e+00	5.242719e-01	5.080839e+14	1.164328e+15	2.183562e+14	1.508808e+04	8.488991e+03	5.447541e+03	0	1.106964e-03
1.020000e+09	2.920467e+13	0.000000e+00	5.242719e-01	5.012414e+14	1.155148e+15	2.173819e+14	1.505235e+04	8.477365e+03	5.440080e+03	0	1.100071e-03
1.030000e+09	2.866499e+13	0.000000e+00	5.242719e-01	4.945529e+14	1.146049e+15	2.164142e+14	1.501711e+04	8.465775e+03	5.432642e+03	0	1.093253e-03
1.040000e+09	2.813765e+13	0.000000e+00	5.242719e-01	4.880137e+14	1.137032e+15	2.154530e+14	1.498233e+04	8.454223e+03	5.425229e+03	0	1.086507e-03
1.050000e+09	2.762226e+13	0.000000e+00	5.242719e-01	4.816191e+14	1.128097e+15	2.144984e+14	1.494801e+04	8.442710e+03	5.417841e+03	0	1.079833e-03
1.060000e+09	2.711845e+13	0.000000e+00	5.242719e-01	4.753649e+14	1.119246e+15	2.135501e+14	1.491414e+04	8.431238e+03	5.410479e+03	0	1.073227e-03
1.070000e+09	2.662587e+13	0.000000e+00	5.242719e-01	4.692466e+14	1.110479e+15	2.126083e+14	1.488071e+04	8.419810e+03	5.403146e+03	0	1.066689e-03
1.080000e+09	2.614417e+13	0.000000e+00	5.242719e-01	4.632603e+14	1.101798e+15	2.116728e+14	1.484770e+04	8.408426e+03	5.395840e+03	0	1.060217e-03
1.090000e+09	2.567303e+13	0.000000e+00	5.242719e-01	4.574020e+14	1.093200e+15	2.107435e+14	1.481512e+04	8.397089e+03	5.388565e+03	0	1.053810e-03
1.100000e+09	2.521214e+13	0.000000e+00	5.242719e-01	4.516678e+14	1.084688e+15	2.098205e+14	1.478294e+04	8.385799e+03	5.381320e+03	0	1.047466e-03
1.110000e+09	2.476118e+13	0.000000e+00	5.242719e-01	4.460543e+14	1.076260e+15	2.089038e+14	1.475117e+04	8.374557e+03	5.374106e+03	0	1.041183e-03
1.120000e+09	2.431988e+13	0.000000e+00	5.242719e-01	4.405578e+14	1.067919e+15	2.079931e+14	1.471979e+04	8.363365e+03	5.366924e+03	0	1.034961e-03
1.130000e+09	2.388793e+13	0.000000e+00	5.242719e-01	4.351749e+14	1.059662e+15	2.070885e+14	1.468879e+04	8.352225e+03	5.359775e+03	0	1.028797e-03
1.140000e+09	2.346509e+13	0.000000e+00	5.242719e-01	4.299025e+14	1.051490e+15	2.061900e+14	1.465817e+04	8.341135e+03	5.352659e+03	0	1.022690e-03
1.150000e+09	2.305107e+13	0.000000e+00	5.242719e-01	4.247374e+14	1.043403e+15	2.052975e+14	1.462792e+04	8.330099e+03	5.345576e+03	0	1.016640e-03
1.160000e+09	2.264564e+13	0.000000e+00	5.242719e-01	4.196765e+14	1.035401e+15	2.044110e+14	1.459803e+04	8.319115e+03	5.338528e+03	0	1.010644e-03
1.170000e+09	2.224855e+13	0.000000e+00	5.242719e-01	4.147170e+14	1.027483e+15	2.035303e+14	1.456850e+04	8.308186e+03	5.331515e+03	0	1.004702e-03
1.180000e+09	2.185957e+13	0.000000e+00	5.242719e-01	4.098560e+14	1.019648e+15	2.026555e+14	1.453932e+04	8.297312e+03	5.324536e+03	0	9.988122e-04
1.190000e+09	2.147846e+13	0.000000e+00	5.242719e-01	4.050909e+14	1.011898e+15	2.017865e+14	1.451047e+04	8.286492e+03	5.317593e+03	0	9.929737e-04
1.200000e+09	2.110502e+13	0.000000e+00	5.242719e-01	4.004189e+14	1.004230e+15	2.009233e+14	1.448196e+04	8.275728e+03	5.310686e+03	0	9.871851e-04
1.210000e+09	2.073903e+13	0.000000e+00	5.242719e-01	3.958376e+14	9.966446e+14	2.000658e+14	1.445378e+04	8.265021e+03	5.303815e+03	0	9.814454e-04
1.220000e+09	2.038028e+13	0.000000e+00	5.242719e-01	3.913445e+14	9.891416e+14	1.992140e+14	1.442592e+04	8.254370e+03	5.296980e+03	0	9.757534e-04
1.230000e+09	2.002859e+13	0.000000e+00	5.242719e-01	3.869373e+14	9.817195e+14	1.983679e+14	1.439837e+04	8.243775e+03	5.290181e+03	0	9.701082e-04
1.240000e+09	1.968377e+13	0.000000e+00	5.242719e-01	3.826137e+14	9.743787e+14	1.975273e+14	1.437113e+04	8.233238e+03	5.283419e+03	0	9.645086e-04
1.250000e+09	1.934562e+13	0.000000e+00	5.242719e-01	3.783715e+14	9.671179e+14	1.966923e+14	1.434420e+04	8.222758e+03	5.276694e+03	0	9.589536e-04
1.260000e+09	1.901398e+13	0.000000e+00	5.242719e-01	3.742085e+14	9.599363e+14	1.958627e+14	1.431756e+04	8.212336e+03	5.270006e+03	0	9.534422e-04
1.270000e+09	1.868868e+13	0.000000e+00	5.242719e-01	3.701227e+14	9.528336e+14	1.950387e+14	1.429121e+04	8.201971e+03	5.263355e+03	0	9.479735e-04
1.280000e+09	1.836954e+13	0.000000e+00	5.242719e-01	3.661122e+14	9.458090e+14	1.942201e+14	1.426516e+04	8.191665e+03	5.256741e+03	0	9.425464e-04
1.290000e+09	1.805641e+13	0.000000e+00	5.242719e-01	3.621749e+14	9.388618e+14	1.934068e+14	1.423938e+04	8.181416e+03	5.250164e+03	0	9.371601e-04
1.300000e+09	1.774913e+13	0.000000e+00	5.242719e-01	3.583091e+14	9.319912e+14	1.925989e+14	1.421388e+04	8.171225e+03	5.243624e+03	0	9.318136e-04
1.310000e+09	1.744756e+13	0.000000e+00	5.242719e-01	3.545129e+14	9.251964e+14	1.917963e+14	1.418865e+04	8.161091e+03	5.237121e+03	0	9.265060e-04
1.320000e+09	1.715155e+13	0.000000e+00	5.242719e-01	3.507846e+14	9.184770e+14	1.909989e+14	1.416368e+04	8.151016e+03	5.230656e+03	0	9.212364e-04
1.330000e+09	1.686096e+13	0.000000e+00	5.242719e-01	3.471225e+14	9.118316e+14	1.902067e+14	1.413898e+04	8.140999e+03	5.224228e+03	0	9.160041e-04
1.340000e+09	1.657565e+13	0.000000e+00	5.242719e-01	3.435249e+14	9.052602e+14	1.894198e+14	1.411454e+04	8.131039e+03	5.217836e+03	0	9.108081e-04
1.350000e+09	1.629550e+13	0.000000e+00	5.242719e-01	3.399904e+14	8.987612e+14	1.886379e+14	1.409034e+04	8.121138e+03	5.211482e+03	0	9.056475e-04
1.360000e+09	1.602037e+13	0.000000e+00	5.242719e-01	3.365172e+14	8.923345e+14	1.878612e+14	1.406640e+04	8.111293e+03	5.205165e+03	0	9.005217e-04
