#t		Qconv[W]	Ri[Rp]		R*[Rp]		Qc[W]		Qm[W]		Qr[W]		Tcmb[K]		Tl[K]		Tup[K]		RiFlag		Bs[T]
0.000000e+00	4.136497e+07	0.000000e+00	4.929860e-01	2.008871e+10	2.610453e+13	2.211256e+12	1.865561e+03	1.792121e+03	1.728260e+03	0	1.855957e-05
1.000000e+07	9.278373e+07	0.000000e+00	4.929860e-01	4.491082e+10	2.134148e+13	2.199004e+12	1.865152e+03	1.715743e+03	1.654604e+03	0	2.429486e-05
2.000000e+07	1.297178e+08	0.000000e+00	4.929860e-01	6.274049e+10	1.789421e+13	2.186844e+12	1.864238e+03	1.653880e+03	1.594945e+03	0	2.716587e-05
3.000000e+07	1.550660e+08	0.000000e+00	4.929860e-01	7.497710e+10	1.531361e+13	2.174775e+12	1.862962e+03	1.602695e+03	1.545584e+03	0	2.883119e-05
4.000000e+07	1.722279e+08	0.000000e+00	4.929860e-01	8.326182e+10	1.332849e+13	2.162795e+12	1.861437e+03	1.559602e+03	1.504027e+03	0	2.985783e-05
5.000000e+07	1.837234e+08	0.000000e+00	4.929860e-01	8.881109e+10	1.176624e+13	2.150905e+12	1.859743e+03	1.522797e+03	1.468534e+03	0	3.050787e-05
6.000000e+07	1.912879e+08	0.000000e+00	4.929860e-01	9.246270e+10	1.051267e+13	2.139104e+12	1.857937e+03	1.490978e+03	1.437848e+03	0	3.092095e-05
7.000000e+07	1.961021e+08	0.000000e+00	4.929860e-01	9.478664e+10	9.489865e+12	2.127390e+12	1.856056e+03	1.463184e+03	1.411045e+03	0	3.117821e-05
8.000000e+07	1.989737e+08	0.000000e+00	4.929860e-01	9.617277e+10	8.643143e+12	2.115764e+12	1.854128e+03	1.438690e+03	1.387423e+03	0	3.132966e-05
9.000000e+07	2.004612e+08	0.000000e+00	4.929860e-01	9.689069e+10	7.933238e+12	2.104224e+12	1.852171e+03	1.416935e+03	1.366444e+03	0	3.140753e-05
1.000000e+08	2.009555e+08	0.000000e+00	4.929860e-01	9.712922e+10	7.331347e+12	2.092770e+12	1.850200e+03	1.397484e+03	1.347685e+03	0	3.143333e-05
1.100000e+08	2.007342e+08	0.000000e+00	4.929860e-01	9.702224e+10	6.815946e+12	2.081400e+12	1.848223e+03	1.379988e+03	1.330813e+03	0	3.142179e-05
1.200000e+08	1.999962e+08	0.000000e+00	4.929860e-01	9.666583e+10	6.370679e+12	2.070115e+12	1.846249e+03	1.364167e+03	1.315556e+03	0	3.138323e-05
1.300000e+08	1.988857e+08	0.000000e+00	4.929860e-01	9.612962e+10	5.982934e+12	2.058914e+12	1.844281e+03	1.349793e+03	1.301694e+03	0	3.132504e-05
1.400000e+08	1.975084e+08	0.000000e+00	4.929860e-01	9.546461e+10	5.642849e+12	2.047795e+12	1.842325e+03	1.336679e+03	1.289048e+03	0	3.125256e-05
1.500000e+08	1.959421e+08	0.000000e+00	4.929860e-01	9.470838e+10	5.342623e+12	2.036759e+12	1.840382e+03	1.324668e+03	1.277464e+03	0	3.116973e-05
1.600000e+08	1.942448e+08	0.000000e+00	4.929860e-01	9.388887e+10	5.076012e+12	2.025804e+12	1.838454e+03	1.313628e+03	1.266818e+03	0	3.107946e-05
1.700000e+08	1.924595e+08	0.000000e+00	4.929860e-01	9.302691e+10	4.837967e+12	2.014930e+12	1.836542e+03	1.303449e+03	1.257001e+03	0	3.098395e-05
1.800000e+08	1.906186e+08	0.000000e+00	4.929860e-01	9.213812e+10	4.624372e+12	2.004137e+12	1.834649e+03	1.294036e+03	1.247924e+03	0	3.088485e-05
1.900000e+08	1.887464e+08	0.000000e+00	4.929860e-01	9.123422e+10	4.431836e+12	1.993422e+12	1.832773e+03	1.285308e+03	1.239507e+03	0	3.078341e-05
2.000000e+08	1.868612e+08	0.000000e+00	4.929860e-01	9.032403e+10	4.257549e+12	1.982787e+12	1.830915e+03	1.277195e+03	1.231683e+03	0	3.068058e-05
2.100000e+08	1.849767e+08	0.000000e+00	4.929860e-01	8.941416e+10	4.099163e+12	1.972229e+12	1.829076e+03	1.269636e+03	1.224394e+03	0	3.057709e-05
2.200000e+08	1.831030e+08	0.000000e+00	4.929860e-01	8.850954e+10	3.954701e+12	1.961750e+12	1.827255e+03	1.262579e+03	1.217588e+03	0	3.047349e-05
2.300000e+08	1.812478e+08	0.000000e+00	4.929860e-01	8.761384e+10	3.822491e+12	1.951347e+12	1.825453e+03	1.255975e+03	1.211220e+03	0	3.037023e-05
2.400000e+08	1.794167e+08	0.000000e+00	4.929860e-01	8.672974e+10	3.701109e+12	1.941020e+12	1.823669e+03	1.249786e+03	1.205251e+03	0	3.026760e-05
2.500000e+08	1.776136e+08	0.000000e+00	4.929860e-01	8.585919e+10	3.589336e+12	1.930769e+12	1.821902e+03	1.243974e+03	1.199646e+03	0	3.016587e-05
2.600000e+08	1.758413e+08	0.000000e+00	4.929860e-01	8.500354e+10	3.486122e+12	1.920594e+12	1.820154e+03	1.238507e+03	1.194374e+03	0	3.006520e-05
2.700000e+08	1.741019e+08	0.000000e+00	4.929860e-01	8.416371e+10	3.390561e+12	1.910492e+12	1.818422e+03	1.233356e+03	1.189407e+03	0	2.996573e-05
2.800000e+08	1.723964e+08	0.000000e+00	4.929860e-01	8.334029e+10	3.301865e+12	1.900464e+12	1.816708e+03	1.228497e+03	1.184720e+03	0	2.986756e-05
2.900000e+08	1.707255e+08	0.000000e+00	4.929860e-01	8.253357e+10	3.219345e+12	1.890510e+12	1.815011e+03	1.223905e+03	1.180292e+03	0	2.977076e-05
3.000000e+08	1.690895e+08	0.000000e+00	4.929860e-01	8.174367e+10	3.142401e+12	1.880628e+12	1.813329e+03	1.219561e+03	1.176102e+03	0	2.967536e-05
3.100000e+08	1.674882e+08	0.000000e+00	4.929860e-01	8.097055e+10	3.070503e+12	1.870818e+12	1.811664e+03	1.215444e+03	1.172133e+03	0	2.958138e-05
3.200000e+08	1.659213e+08	0.000000e+00	4.929860e-01	8.021404e+10	3.003184e+12	1.861079e+12	1.810015e+03	1.211540e+03	1.168367e+03	0	2.948885e-05
3.300000e+08	1.643883e+08	0.000000e+00	4.929860e-01	7.947390e+10	2.940031e+12	1.851411e+12	1.808381e+03	1.207831e+03	1.164791e+03	0	2.939775e-05
3.400000e+08	1.628886e+08	0.000000e+00	4.929860e-01	7.874981e+10	2.880677e+12	1.841814e+12	1.806762e+03	1.204305e+03	1.161390e+03	0	2.930808e-05
3.500000e+08	1.614214e+08	0.000000e+00	4.929860e-01	7.804141e+10	2.824796e+12	1.832286e+12	1.805157e+03	1.200948e+03	1.158153e+03	0	2.921981e-05
3.600000e+08	1.599858e+08	0.000000e+00	4.929860e-01	7.734832e+10	2.772095e+12	1.822827e+12	1.803567e+03	1.197749e+03	1.155068e+03	0	2.913294e-05
3.700000e+08	1.585812e+08	0.000000e+00	4.929860e-01	7.667011e+10	2.722313e+12	1.813437e+12	1.801991e+03	1.194698e+03	1.152126e+03	0	2.904742e-05
3.800000e+08	1.572064e+08	0.000000e+00	4.929860e-01	7.600636e+10	2.675216e+12	1.804114e+12	1.800429e+03	1.191784e+03	1.149315e+03	0	2.896324e-05
3.900000e+08	1.558607e+08	0.000000e+00	4.929860e-01	7.535663e+10	2.630591e+12	1.794859e+12	1.798881e+03	1.188998e+03	1.146629e+03	0	2.888036e-05
4.000000e+08	1.545432e+08	0.000000e+00	4.929860e-01	7.472050e+10	2.588249e+12	1.785671e+12	1.797345e+03	1.186333e+03	1.144059e+03	0	2.879875e-05
4.100000e+08	1.532529e+08	0.000000e+00	4.929860e-01	7.409752e+10	2.548017e+12	1.776549e+12	1.795823e+03	1.183781e+03	1.141598e+03	0	2.871838e-05
4.200000e+08	1.519890e+08	0.000000e+00	4.929860e-01	7.348728e+10	2.509739e+12	1.767493e+12	1.794313e+03	1.181335e+03	1.139239e+03	0	2.863922e-05
4.300000e+08	1.507506e+08	0.000000e+00	4.929860e-01	7.288936e+10	2.473273e+12	1.758502e+12	1.792815e+03	1.178988e+03	1.136976e+03	0	2.856122e-05
4.400000e+08	1.495369e+08	0.000000e+00	4.929860e-01	7.230335e+10	2.438489e+12	1.749576e+12	1.791330e+03	1.176734e+03	1.134802e+03	0	2.848436e-05
4.500000e+08	1.483470e+08	0.000000e+00	4.929860e-01	7.172886e+10	2.405270e+12	1.740713e+12	1.789857e+03	1.174569e+03	1.132714e+03	0	2.840861e-05
4.600000e+08	1.471802e+08	0.000000e+00	4.929860e-01	7.116549e+10	2.373509e+12	1.731915e+12	1.788395e+03	1.172486e+03	1.130705e+03	0	2.833394e-05
4.700000e+08	1.460357e+08	0.000000e+00	4.929860e-01	7.061289e+10	2.343107e+12	1.723180e+12	1.786945e+03	1.170480e+03	1.128771e+03	0	2.826030e-05
4.800000e+08	1.449127e+08	0.000000e+00	4.929860e-01	7.007069e+10	2.313973e+12	1.714507e+12	1.785506e+03	1.168549e+03	1.126909e+03	0	2.818768e-05
4.900000e+08	1.438106e+08	0.000000e+00	4.929860e-01	6.953854e+10	2.286027e+12	1.705896e+12	1.784078e+03	1.166687e+03	1.125113e+03	0	2.811603e-05
5.000000e+08	1.427286e+08	0.000000e+00	4.929860e-01	6.901612e+10	2.259191e+12	1.697347e+12	1.782660e+03	1.164890e+03	1.123380e+03	0	2.804534e-05
5.100000e+08	1.416661e+08	0.000000e+00	4.929860e-01	6.850311e+10	2.233395e+12	1.688859e+12	1.781254e+03	1.163155e+03	1.121707e+03	0	2.797558e-05
5.200000e+08	1.406224e+08	0.000000e+00	4.929860e-01	6.799920e+10	2.208575e+12	1.680431e+12	1.779858e+03	1.161478e+03	1.120090e+03	0	2.790671e-05
5.300000e+08	1.395970e+08	0.000000e+00	4.929860e-01	6.750409e+10	2.184672e+12	1.672064e+12	1.778472e+03	1.159857e+03	1.118527e+03	0	2.783871e-05
5.400000e+08	1.385892e+08	0.000000e+00	4.929860e-01	6.701750e+10	2.161630e+12	1.663756e+12	1.777096e+03	1.158289e+03	1.117014e+03	0	2.777156e-05
5.500000e+08	1.375985e+08	0.000000e+00	4.929860e-01	6.653916e+10	2.139399e+12	1.655507e+12	1.775730e+03	1.156770e+03	1.115549e+03	0	2.770522e-05
5.600000e+08	1.366244e+08	0.000000e+00	4.929860e-01	6.606882e+10	2.117931e+12	1.647317e+12	1.774374e+03	1.155298e+03	1.114130e+03	0	2.763969e-05
5.700000e+08	1.356663e+08	0.000000e+00	4.929860e-01	6.560622e+10	2.097183e+12	1.639185e+12	1.773027e+03	1.153871e+03	1.112754e+03	0	2.757493e-05
5.800000e+08	1.347237e+08	0.000000e+00	4.929860e-01	6.515112e+10	2.077114e+12	1.631111e+12	1.771690e+03	1.152487e+03	1.111419e+03	0	2.751092e-05
5.900000e+08	1.337963e+08	0.000000e+00	4.929860e-01	6.470329e+10	2.057687e+12	1.623094e+12	1.770362e+03	1.151142e+03	1.110122e+03	0	2.744764e-05
6.000000e+08	1.328834e+08	0.000000e+00	4.929860e-01	6.426253e+10	2.038866e+12	1.615134e+12	1.769043e+03	1.149836e+03	1.108863e+03	0	2.738508e-05
6.100000e+08	1.319847e+08	0.000000e+00	4.929860e-01	6.382861e+10	2.020618e+12	1.607230e+12	1.767733e+03	1.148567e+03	1.107638e+03	0	2.732320e-05
6.200000e+08	1.310998e+08	0.000000e+00	4.929860e-01	6.340134e+10	2.002914e+12	1.599382e+12	1.766432e+03	1.147332e+03	1.106447e+03	0	2.726200e-05
6.300000e+08	1.302282e+08	0.000000e+00	4.929860e-01	6.298052e+10	1.985724e+12	1.591590e+12	1.765139e+03	1.146129e+03	1.105288e+03	0	2.720145e-05
6.400000e+08	1.293697e+08	0.000000e+00	4.929860e-01	6.256596e+10	1.969023e+12	1.583852e+12	1.763855e+03	1.144959e+03	1.104159e+03	0	2.714154e-05
6.500000e+08	1.285237e+08	0.000000e+00	4.929860e-01	6.215750e+10	1.952785e+12	1.576169e+12	1.762580e+03	1.143818e+03	1.103059e+03	0	2.708226e-05
6.600000e+08	1.276900e+08	0.000000e+00	4.929860e-01	6.175496e+10	1.936987e+12	1.568540e+12	1.761313e+03	1.142706e+03	1.101986e+03	0	2.702357e-05
6.700000e+08	1.268683e+08	0.000000e+00	4.929860e-01	6.135818e+10	1.921607e+12	1.560964e+12	1.760054e+03	1.141621e+03	1.100940e+03	0	2.696548e-05
6.800000e+08	1.260581e+08	0.000000e+00	4.929860e-01	6.096700e+10	1.906625e+12	1.553442e+12	1.758803e+03	1.140562e+03	1.099919e+03	0	2.690795e-05
6.900000e+08	1.252592e+08	0.000000e+00	4.929860e-01	6.058127e+10	1.892021e+12	1.545972e+12	1.757560e+03	1.139527e+03	1.098921e+03	0	2.685099e-05
7.000000e+08	1.244714e+08	0.000000e+00	4.929860e-01	6.020085e+10	1.877779e+12	1.538555e+12	1.756325e+03	1.138516e+03	1.097946e+03	0	2.679458e-05
7.100000e+08	1.236942e+08	0.000000e+00	4.929860e-01	5.982560e+10	1.863880e+12	1.531190e+12	1.755098e+03	1.137528e+03	1.096993e+03	0	2.673869e-05
7.200000e+08	1.229275e+08	0.000000e+00	4.929860e-01	5.945539e+10	1.850310e+12	1.523876e+12	1.753878e+03	1.136561e+03	1.096061e+03	0	2.668333e-05
7.300000e+08	1.221709e+08	0.000000e+00	4.929860e-01	5.909008e+10	1.837052e+12	1.516614e+12	1.752666e+03	1.135615e+03	1.095149e+03	0	2.662848e-05
7.400000e+08	1.214242e+08	0.000000e+00	4.929860e-01	5.872956e+10	1.824094e+12	1.509402e+12	1.751461e+03	1.134689e+03	1.094255e+03	0	2.657412e-05
7.500000e+08	1.206873e+08	0.000000e+00	4.929860e-01	5.837371e+10	1.811422e+12	1.502240e+12	1.750264e+03	1.133782e+03	1.093380e+03	0	2.652025e-05
7.600000e+08	1.199597e+08	0.000000e+00	4.929860e-01	5.802241e+10	1.799023e+12	1.495128e+12	1.749074e+03	1.132892e+03	1.092523e+03	0	2.646685e-05
7.700000e+08	1.192414e+08	0.000000e+00	4.929860e-01	5.767556e+10	1.786885e+12	1.488066e+12	1.747891e+03	1.132020e+03	1.091682e+03	0	2.641391e-05
7.800000e+08	1.185320e+08	0.000000e+00	4.929860e-01	5.733304e+10	1.774999e+12	1.481053e+12	1.746715e+03	1.131165e+03	1.090857e+03	0	2.636143e-05
7.900000e+08	1.178314e+08	0.000000e+00	4.929860e-01	5.699477e+10	1.763352e+12	1.474088e+12	1.745546e+03	1.130325e+03	1.090047e+03	0	2.630939e-05
8.000000e+08	1.171394e+08	0.000000e+00	4.929860e-01	5.666063e+10	1.751936e+12	1.467172e+12	1.744383e+03	1.129501e+03	1.089252e+03	0	2.625779e-05
8.100000e+08	1.164558e+08	0.000000e+00	4.929860e-01	5.633054e+10	1.740741e+12	1.460304e+12	1.743228e+03	1.128691e+03	1.088471e+03	0	2.620661e-05
8.200000e+08	1.157804e+08	0.000000e+00	4.929860e-01	5.600441e+10	1.729758e+12	1.453483e+12	1.742080e+03	1.127895e+03	1.087704e+03	0	2.615584e-05
8.300000e+08	1.151130e+08	0.000000e+00	4.929860e-01	5.568215e+10	1.718978e+12	1.446710e+12	1.740938e+03	1.127113e+03	1.086949e+03	0	2.610549e-05
8.400000e+08	1.144534e+08	0.000000e+00	4.929860e-01	5.536367e+10	1.708395e+12	1.439983e+12	1.739802e+03	1.126344e+03	1.086208e+03	0	2.605553e-05
8.500000e+08	1.138015e+08	0.000000e+00	4.929860e-01	5.504889e+10	1.697999e+12	1.433303e+12	1.738673e+03	1.125587e+03	1.085478e+03	0	2.600597e-05
8.600000e+08	1.131571e+08	0.000000e+00	4.929860e-01	5.473773e+10	1.687785e+12	1.426668e+12	1.737551e+03	1.124842e+03	1.084759e+03	0	2.595679e-05
8.700000e+08	1.125200e+08	0.000000e+00	4.929860e-01	5.443013e+10	1.677745e+12	1.420080e+12	1.736435e+03	1.124109e+03	1.084052e+03	0	2.590799e-05
8.800000e+08	1.118902e+08	0.000000e+00	4.929860e-01	5.412600e+10	1.667874e+12	1.413536e+12	1.735325e+03	1.123386e+03	1.083355e+03	0	2.585956e-05
8.900000e+08	1.112674e+08	0.000000e+00	4.929860e-01	5.382527e+10	1.658164e+12	1.407038e+12	1.734221e+03	1.122674e+03	1.082669e+03	0	2.581149e-05
9.000000e+08	1.106515e+08	0.000000e+00	4.929860e-01	5.352787e+10	1.648610e+12	1.400584e+12	1.733123e+03	1.121973e+03	1.081992e+03	0	2.576377e-05
9.100000e+08	1.100423e+08	0.000000e+00	4.929860e-01	5.323375e+10	1.639207e+12	1.394175e+12	1.732032e+03	1.121281e+03	1.081325e+03	0	2.571641e-05
9.200000e+08	1.094398e+08	0.000000e+00	4.929860e-01	5.294282e+10	1.629950e+12	1.387809e+12	1.730946e+03	1.120599e+03	1.080667e+03	0	2.566939e-05
9.300000e+08	1.088438e+08	0.000000e+00	4.929860e-01	5.265504e+10	1.620833e+12	1.381487e+12	1.729867e+03	1.119926e+03	1.080018e+03	0	2.562271e-05
9.400000e+08	1.082542e+08	0.000000e+00	4.929860e-01	5.237034e+10	1.611852e+12	1.375208e+12	1.728793e+03	1.119262e+03	1.079378e+03	0	2.557636e-05
9.500000e+08	1.076709e+08	0.000000e+00	4.929860e-01	5.208866e+10	1.603002e+12	1.368972e+12	1.727725e+03	1.118606e+03	1.078745e+03	0	2.553033e-05
9.600000e+08	1.070937e+08	0.000000e+00	4.929860e-01	5.180995e+10	1.594280e+12	1.362779e+12	1.726663e+03	1.117958e+03	1.078121e+03	0	2.548463e-05
9.700000e+08	1.065225e+08	0.000000e+00	4.929860e-01	5.153415e+10	1.585680e+12	1.356627e+12	1.725606e+03	1.117319e+03	1.077504e+03	0	2.543924e-05
9.800000e+08	1.059572e+08	0.000000e+00	4.929860e-01	5.126120e+10	1.577200e+12	1.350518e+12	1.724555e+03	1.116687e+03	1.076895e+03	0	2.539416e-05
9.900000e+08	1.053978e+08	0.000000e+00	4.929860e-01	5.099107e+10	1.568834e+12	1.344450e+12	1.723510e+03	1.116062e+03	1.076292e+03	0	2.534939e-05
1.000000e+09	1.048440e+08	0.000000e+00	4.929860e-01	5.072368e+10	1.560581e+12	1.338423e+12	1.722470e+03	1.115445e+03	1.075697e+03	0	2.530492e-05
1.010000e+09	1.042959e+08	0.000000e+00	4.929860e-01	5.045901e+10	1.552436e+12	1.332437e+12	1.721435e+03	1.114834e+03	1.075108e+03	0	2.526075e-05
1.020000e+09	1.037533e+08	0.000000e+00	4.929860e-01	5.019699e+10	1.544397e+12	1.326492e+12	1.720406e+03	1.114230e+03	1.074526e+03	0	2.521686e-05
1.030000e+09	1.032161e+08	0.000000e+00	4.929860e-01	4.993759e+10	1.536459e+12	1.320587e+12	1.719382e+03	1.113633e+03	1.073949e+03	0	2.517326e-05
1.040000e+09	1.026842e+08	0.000000e+00	4.929860e-01	4.968076e+10	1.528621e+12	1.314722e+12	1.718364e+03	1.113042e+03	1.073379e+03	0	2.512995e-05
1.050000e+09	1.021575e+08	0.000000e+00	4.929860e-01	4.942646e+10	1.520880e+12	1.308896e+12	1.717351e+03	1.112457e+03	1.072815e+03	0	2.508691e-05
1.060000e+09	1.016360e+08	0.000000e+00	4.929860e-01	4.917463e+10	1.513232e+12	1.303110e+12	1.716343e+03	1.111877e+03	1.072256e+03	0	2.504415e-05
1.070000e+09	1.011196e+08	0.000000e+00	4.929860e-01	4.892525e+10	1.505675e+12	1.297363e+12	1.715340e+03	1.111304e+03	1.071703e+03	0	2.500166e-05
1.080000e+09	1.006081e+08	0.000000e+00	4.929860e-01	4.867827e+10	1.498207e+12	1.291654e+12	1.714342e+03	1.110736e+03	1.071155e+03	0	2.495943e-05
1.090000e+09	1.001015e+08	0.000000e+00	4.929860e-01	4.843366e+10	1.490826e+12	1.285984e+12	1.713349e+03	1.110173e+03	1.070613e+03	0	2.491747e-05
1.100000e+09	9.959972e+07	0.000000e+00	4.929860e-01	4.819137e+10	1.483529e+12	1.280352e+12	1.712361e+03	1.109615e+03	1.070075e+03	0	2.487577e-05
1.110000e+09	9.910269e+07	0.000000e+00	4.929860e-01	4.795137e+10	1.476313e+12	1.274757e+12	1.711378e+03	1.109063e+03	1.069542e+03	0	2.483432e-05
1.120000e+09	9.861032e+07	0.000000e+00	4.929860e-01	4.771362e+10	1.469178e+12	1.269200e+12	1.710400e+03	1.108515e+03	1.069014e+03	0	2.479312e-05
1.130000e+09	9.812255e+07	0.000000e+00	4.929860e-01	4.747809e+10	1.462120e+12	1.263681e+12	1.709427e+03	1.107972e+03	1.068490e+03	0	2.475217e-05
1.140000e+09	9.763930e+07	0.000000e+00	4.929860e-01	4.724474e+10	1.455138e+12	1.258198e+12	1.708458e+03	1.107434e+03	1.067971e+03	0	2.471147e-05
1.150000e+09	9.716050e+07	0.000000e+00	4.929860e-01	4.701354e+10	1.448231e+12	1.252752e+12	1.707495e+03	1.106900e+03	1.067456e+03	0	2.467101e-05
1.160000e+09	9.668609e+07	0.000000e+00	4.929860e-01	4.678446e+10	1.441396e+12	1.247342e+12	1.706536e+03	1.106370e+03	1.066946e+03	0	2.463079e-05
1.170000e+09	9.621599e+07	0.000000e+00	4.929860e-01	4.655746e+10	1.434631e+12	1.241968e+12	1.705582e+03	1.105845e+03	1.066439e+03	0	2.459081e-05
1.180000e+09	9.575015e+07	0.000000e+00	4.929860e-01	4.633252e+10	1.427936e+12	1.236630e+12	1.704632e+03	1.105324e+03	1.065936e+03	0	2.455106e-05
1.190000e+09	9.528851e+07	0.000000e+00	4.929860e-01	4.610960e+10	1.421308e+12	1.231327e+12	1.703687e+03	1.104806e+03	1.065438e+03	0	2.451154e-05
1.200000e+09	9.483099e+07	0.000000e+00	4.929860e-01	4.588867e+10	1.414747e+12	1.226060e+12	1.702746e+03	1.104293e+03	1.064943e+03	0	2.447225e-05
1.210000e+09	9.437754e+07	0.000000e+00	4.929860e-01	4.566971e+10	1.408250e+12	1.220827e+12	1.701810e+03	1.103784e+03	1.064451e+03	0	2.443318e-05
1.220000e+09	9.392811e+07	0.000000e+00	4.929860e-01	4.545269e+10	1.401816e+12	1.215629e+12	1.700879e+03	1.103278e+03	1.063963e+03	0	2.439433e-05
1.230000e+09	9.348263e+07	0.000000e+00	4.929860e-01	4.523758e+10	1.395443e+12	1.210466e+12	1.699952e+03	1.102776e+03	1.063479e+03	0	2.435571e-05
1.240000e+09	9.304105e+07	0.000000e+00	4.929860e-01	4.502435e+10	1.389132e+12	1.205337e+12	1.699029e+03	1.102277e+03	1.062998e+03	0	2.431730e-05
1.250000e+09	9.260332e+07	0.000000e+00	4.929860e-01	4.481298e+10	1.382880e+12	1.200241e+12	1.698110e+03	1.101782e+03	1.062520e+03	0	2.427910e-05
1.260000e+09	9.216937e+07	0.000000e+00	4.929860e-01	4.460343e+10	1.376686e+12	1.195179e+12	1.697196e+03	1.101290e+03	1.062046e+03	0	2.424112e-05
1.270000e+09	9.173917e+07	0.000000e+00	4.929860e-01	4.439570e+10	1.370548e+12	1.190151e+12	1.696286e+03	1.100801e+03	1.061575e+03	0	2.420334e-05
1.280000e+09	9.131265e+07	0.000000e+00	4.929860e-01	4.418974e+10	1.364467e+12	1.185155e+12	1.695381e+03	1.100315e+03	1.061107e+03	0	2.416578e-05
1.290000e+09	9.088977e+07	0.000000e+00	4.929860e-01	4.398554e+10	1.358441e+12	1.180193e+12	1.694479e+03	1.099833e+03	1.060641e+03	0	2.412841e-05
1.300000e+09	9.047048e+07	0.000000e+00	4.929860e-01	4.378307e+10	1.352468e+12	1.175263e+12	1.693582e+03	1.099354e+03	1.060179e+03	0	2.409125e-05
1.310000e+09	9.005473e+07	0.000000e+00	4.929860e-01	4.358231e+10	1.346548e+12	1.170365e+12	1.692689e+03	1.098877e+03	1.059720e+03	0	2.405429e-05
1.320000e+09	8.964248e+07	0.000000e+00	4.929860e-01	4.338324e+10	1.340679e+12	1.165500e+12	1.691800e+03	1.098404e+03	1.059263e+03	0	2.401753e-05
1.330000e+09	8.923367e+07	0.000000e+00	4.929860e-01	4.318584e+10	1.334862e+12	1.160666e+12	1.690915e+03	1.097933e+03	1.058809e+03	0	2.398097e-05
1.340000e+09	8.882826e+07	0.000000e+00	4.929860e-01	4.299007e+10	1.329094e+12	1.155864e+12	1.690034e+03	1.097466e+03	1.058358e+03	0	2.394459e-05
1.350000e+09	8.842622e+07	0.000000e+00	4.929860e-01	4.279593e+10	1.323376e+12	1.151093e+12	1.689157e+03	1.097000e+03	1.057910e+03	0	2.390841e-05
1.360000e+09	8.802749e+07	0.000000e+00	4.929860e-01	4.260339e+10	1.317706e+12	1.146353e+12	1.688284e+03	1.096538e+03	1.057464e+03	0	2.387242e-05
