#t		Qconv[W]	Ri[Rp]		R*[Rp]		Qc[W]		Qm[W]		Qr[W]		Tcmb[K]		Tl[K]		Tup[K]		RiFlag		Bs[T]
0.000000e+00	9.123723e+06	0.000000e+00	3.065327e-01	1.228832e+10	2.771012e+13	2.153211e+12	1.857663e+03	1.787380e+03	1.726265e+03	0	1.557083e-05
1.000000e+07	2.183769e+07	0.000000e+00	3.065327e-01	2.938366e+10	2.221033e+13	2.141281e+12	1.856478e+03	1.704486e+03	1.646205e+03	0	2.082844e-05
2.000000e+07	3.036490e+07	0.000000e+00	3.065327e-01	4.084941e+10	1.834487e+13	2.129439e+12	1.853651e+03	1.638493e+03	1.582469e+03	0	2.324761e-05
3.000000e+07	3.570138e+07	0.000000e+00	3.065327e-01	4.802487e+10	1.551709e+13	2.117687e+12	1.849724e+03	1.584609e+03	1.530427e+03	0	2.453670e-05
4.000000e+07	3.890025e+07	0.000000e+00	3.065327e-01	5.232606e+10	1.338134e+13	2.106022e+12	1.845107e+03	1.539715e+03	1.487068e+03	0	2.524867e-05
5.000000e+07	4.069668e+07	0.000000e+00	3.065327e-01	5.474150e+10	1.172527e+13	2.094444e+12	1.840075e+03	1.501689e+03	1.450342e+03	0	2.563150e-05
6.000000e+07	4.157282e+07	0.000000e+00	3.065327e-01	5.591951e+10	1.041250e+13	2.082952e+12	1.834809e+03	1.469036e+03	1.418806e+03	0	2.581413e-05
7.000000e+07	4.184254e+07	0.000000e+00	3.065327e-01	5.628213e+10	9.352162e+12	2.071546e+12	1.829428e+03	1.440674e+03	1.391414e+03	0	2.586984e-05
8.000000e+07	4.171176e+07	0.000000e+00	3.065327e-01	5.610621e+10	8.481812e+12	2.060225e+12	1.824010e+03	1.415795e+03	1.367386e+03	0	2.584286e-05
9.000000e+07	4.131712e+07	0.000000e+00	3.065327e-01	5.557551e+10	7.757364e+12	2.048988e+12	1.818607e+03	1.393788e+03	1.346131e+03	0	2.576110e-05
1.000000e+08	4.075040e+07	0.000000e+00	3.065327e-01	5.481344e+10	7.146954e+12	2.037834e+12	1.813252e+03	1.374178e+03	1.327191e+03	0	2.564278e-05
1.100000e+08	4.007392e+07	0.000000e+00	3.065327e-01	5.390378e+10	6.627070e+12	2.026764e+12	1.807970e+03	1.356591e+03	1.310205e+03	0	2.550009e-05
1.200000e+08	3.933034e+07	0.000000e+00	3.065327e-01	5.290389e+10	6.180043e+12	2.015775e+12	1.802773e+03	1.340729e+03	1.294886e+03	0	2.534138e-05
1.300000e+08	3.854904e+07	0.000000e+00	3.065327e-01	5.185330e+10	5.792376e+12	2.004868e+12	1.797671e+03	1.326351e+03	1.281000e+03	0	2.517246e-05
1.400000e+08	3.775035e+07	0.000000e+00	3.065327e-01	5.077931e+10	5.453606e+12	1.994041e+12	1.792668e+03	1.313259e+03	1.268355e+03	0	2.499739e-05
1.500000e+08	3.694829e+07	0.000000e+00	3.065327e-01	4.970080e+10	5.155516e+12	1.983294e+12	1.787768e+03	1.301290e+03	1.256795e+03	0	2.481909e-05
1.600000e+08	3.615252e+07	0.000000e+00	3.065327e-01	4.863074e+10	4.891575e+12	1.972627e+12	1.782970e+03	1.290306e+03	1.246187e+03	0	2.463962e-05
1.700000e+08	3.536958e+07	0.000000e+00	3.065327e-01	4.757794e+10	4.656535e+12	1.962038e+12	1.778275e+03	1.280194e+03	1.236421e+03	0	2.446045e-05
1.800000e+08	3.460386e+07	0.000000e+00	3.065327e-01	4.654829e+10	4.446136e+12	1.951528e+12	1.773680e+03	1.270855e+03	1.227401e+03	0	2.428264e-05
1.900000e+08	3.385817e+07	0.000000e+00	3.065327e-01	4.554558e+10	4.256891e+12	1.941095e+12	1.769183e+03	1.262206e+03	1.219048e+03	0	2.410695e-05
2.000000e+08	3.313422e+07	0.000000e+00	3.065327e-01	4.457209e+10	4.085920e+12	1.930739e+12	1.764783e+03	1.254176e+03	1.211292e+03	0	2.393389e-05
2.100000e+08	3.243292e+07	0.000000e+00	3.065327e-01	4.362908e+10	3.930825e+12	1.920458e+12	1.760475e+03	1.246702e+03	1.204074e+03	0	2.376383e-05
2.200000e+08	3.175464e+07	0.000000e+00	3.065327e-01	4.271700e+10	3.789599e+12	1.910254e+12	1.756258e+03	1.239729e+03	1.197340e+03	0	2.359700e-05
2.300000e+08	3.109932e+07	0.000000e+00	3.065327e-01	4.183581e+10	3.660546e+12	1.900124e+12	1.752128e+03	1.233212e+03	1.191045e+03	0	2.343355e-05
2.400000e+08	3.046665e+07	0.000000e+00	3.065327e-01	4.098506e+10	3.542229e+12	1.890069e+12	1.748082e+03	1.227107e+03	1.185149e+03	0	2.327355e-05
2.500000e+08	2.985611e+07	0.000000e+00	3.065327e-01	4.016408e+10	3.433418e+12	1.880087e+12	1.744118e+03	1.221379e+03	1.179617e+03	0	2.311704e-05
2.600000e+08	2.926706e+07	0.000000e+00	3.065327e-01	3.937199e+10	3.333060e+12	1.870178e+12	1.740233e+03	1.215995e+03	1.174417e+03	0	2.296399e-05
2.700000e+08	2.869878e+07	0.000000e+00	3.065327e-01	3.860784e+10	3.240247e+12	1.860342e+12	1.736424e+03	1.210926e+03	1.169521e+03	0	2.281439e-05
2.800000e+08	2.815049e+07	0.000000e+00	3.065327e-01	3.787057e+10	3.154190e+12	1.850577e+12	1.732688e+03	1.206146e+03	1.164905e+03	0	2.266817e-05
2.900000e+08	2.762142e+07	0.000000e+00	3.065327e-01	3.715913e+10	3.074204e+12	1.840884e+12	1.729023e+03	1.201633e+03	1.160546e+03	0	2.252526e-05
3.000000e+08	2.711076e+07	0.000000e+00	3.065327e-01	3.647244e+10	2.999689e+12	1.831261e+12	1.725426e+03	1.197364e+03	1.156423e+03	0	2.238558e-05
3.100000e+08	2.661771e+07	0.000000e+00	3.065327e-01	3.580945e+10	2.930120e+12	1.821709e+12	1.721896e+03	1.193322e+03	1.152519e+03	0	2.224904e-05
3.200000e+08	2.614151e+07	0.000000e+00	3.065327e-01	3.516910e+10	2.865033e+12	1.812226e+12	1.718429e+03	1.189490e+03	1.148818e+03	0	2.211556e-05
3.300000e+08	2.568139e+07	0.000000e+00	3.065327e-01	3.455039e+10	2.804020e+12	1.802812e+12	1.715023e+03	1.185851e+03	1.145304e+03	0	2.198504e-05
3.400000e+08	2.523665e+07	0.000000e+00	3.065327e-01	3.395234e+10	2.746718e+12	1.793466e+12	1.711677e+03	1.182393e+03	1.141964e+03	0	2.185739e-05
3.500000e+08	2.480656e+07	0.000000e+00	3.065327e-01	3.337401e+10	2.692804e+12	1.784188e+12	1.708389e+03	1.179103e+03	1.138786e+03	0	2.173251e-05
3.600000e+08	2.439048e+07	0.000000e+00	3.065327e-01	3.281451e+10	2.641990e+12	1.774978e+12	1.705156e+03	1.175969e+03	1.135759e+03	0	2.161032e-05
3.700000e+08	2.398776e+07	0.000000e+00	3.065327e-01	3.227297e+10	2.594018e+12	1.765834e+12	1.701977e+03	1.172980e+03	1.132872e+03	0	2.149072e-05
3.800000e+08	2.359779e+07	0.000000e+00	3.065327e-01	3.174858e+10	2.548659e+12	1.756756e+12	1.698851e+03	1.170126e+03	1.130117e+03	0	2.137363e-05
3.900000e+08	2.322001e+07	0.000000e+00	3.065327e-01	3.124057e+10	2.505704e+12	1.747744e+12	1.695775e+03	1.167400e+03	1.127484e+03	0	2.125895e-05
4.000000e+08	2.285385e+07	0.000000e+00	3.065327e-01	3.074819e+10	2.464966e+12	1.738797e+12	1.692747e+03	1.164792e+03	1.124965e+03	0	2.114661e-05
4.100000e+08	2.249880e+07	0.000000e+00	3.065327e-01	3.027076e+10	2.426277e+12	1.729915e+12	1.689767e+03	1.162296e+03	1.122554e+03	0	2.103653e-05
4.200000e+08	2.215437e+07	0.000000e+00	3.065327e-01	2.980761e+10	2.389482e+12	1.721096e+12	1.686833e+03	1.159904e+03	1.120243e+03	0	2.092863e-05
4.300000e+08	2.182009e+07	0.000000e+00	3.065327e-01	2.935810e+10	2.354445e+12	1.712341e+12	1.683944e+03	1.157609e+03	1.118027e+03	0	2.082284e-05
4.400000e+08	2.149553e+07	0.000000e+00	3.065327e-01	2.892165e+10	2.321037e+12	1.703649e+12	1.681098e+03	1.155407e+03	1.115900e+03	0	2.071908e-05
4.500000e+08	2.118026e+07	0.000000e+00	3.065327e-01	2.849770e+10	2.289144e+12	1.695020e+12	1.678294e+03	1.153290e+03	1.113856e+03	0	2.061729e-05
4.600000e+08	2.087388e+07	0.000000e+00	3.065327e-01	2.808572e+10	2.258662e+12	1.686452e+12	1.675531e+03	1.151255e+03	1.111891e+03	0	2.051739e-05
4.700000e+08	2.057602e+07	0.000000e+00	3.065327e-01	2.768519e+10	2.229495e+12	1.677946e+12	1.672808e+03	1.149297e+03	1.110000e+03	0	2.041933e-05
4.800000e+08	2.028633e+07	0.000000e+00	3.065327e-01	2.729564e+10	2.201554e+12	1.669501e+12	1.670124e+03	1.147411e+03	1.108178e+03	0	2.032305e-05
4.900000e+08	2.000448e+07	0.000000e+00	3.065327e-01	2.691662e+10	2.174759e+12	1.661116e+12	1.667476e+03	1.145593e+03	1.106422e+03	0	2.022849e-05
5.000000e+08	1.973013e+07	0.000000e+00	3.065327e-01	2.654770e+10	2.149037e+12	1.652792e+12	1.664866e+03	1.143839e+03	1.104728e+03	0	2.013559e-05
5.100000e+08	1.946299e+07	0.000000e+00	3.065327e-01	2.618847e+10	2.124319e+12	1.644526e+12	1.662291e+03	1.142146e+03	1.103093e+03	0	2.004430e-05
5.200000e+08	1.920277e+07	0.000000e+00	3.065327e-01	2.583855e+10	2.100542e+12	1.636320e+12	1.659751e+03	1.140510e+03	1.101513e+03	0	1.995457e-05
5.300000e+08	1.894921e+07	0.000000e+00	3.065327e-01	2.549758e+10	2.077649e+12	1.628172e+12	1.657244e+03	1.138929e+03	1.099986e+03	0	1.986635e-05
5.400000e+08	1.870204e+07	0.000000e+00	3.065327e-01	2.516520e+10	2.055587e+12	1.620082e+12	1.654771e+03	1.137399e+03	1.098509e+03	0	1.977959e-05
5.500000e+08	1.846101e+07	0.000000e+00	3.065327e-01	2.484109e+10	2.034306e+12	1.612050e+12	1.652330e+03	1.135918e+03	1.097078e+03	0	1.969426e-05
5.600000e+08	1.822590e+07	0.000000e+00	3.065327e-01	2.452493e+10	2.013761e+12	1.604075e+12	1.649919e+03	1.134483e+03	1.095692e+03	0	1.961029e-05
5.700000e+08	1.799649e+07	0.000000e+00	3.065327e-01	2.421644e+10	1.993908e+12	1.596157e+12	1.647540e+03	1.133092e+03	1.094349e+03	0	1.952767e-05
5.800000e+08	1.777256e+07	0.000000e+00	3.065327e-01	2.391531e+10	1.974709e+12	1.588295e+12	1.645190e+03	1.131742e+03	1.093045e+03	0	1.944633e-05
5.900000e+08	1.755391e+07	0.000000e+00	3.065327e-01	2.362129e+10	1.956127e+12	1.580488e+12	1.642869e+03	1.130432e+03	1.091780e+03	0	1.936626e-05
6.000000e+08	1.734036e+07	0.000000e+00	3.065327e-01	2.333412e+10	1.938129e+12	1.572737e+12	1.640577e+03	1.129159e+03	1.090550e+03	0	1.928741e-05
6.100000e+08	1.713173e+07	0.000000e+00	3.065327e-01	2.305356e+10	1.920682e+12	1.565040e+12	1.638312e+03	1.127922e+03	1.089356e+03	0	1.920974e-05
6.200000e+08	1.692783e+07	0.000000e+00	3.065327e-01	2.277938e+10	1.903758e+12	1.557398e+12	1.636075e+03	1.126719e+03	1.088193e+03	0	1.913322e-05
6.300000e+08	1.672851e+07	0.000000e+00	3.065327e-01	2.251134e+10	1.887328e+12	1.549810e+12	1.633864e+03	1.125548e+03	1.087062e+03	0	1.905783e-05
6.400000e+08	1.653361e+07	0.000000e+00	3.065327e-01	2.224925e+10	1.871367e+12	1.542276e+12	1.631679e+03	1.124408e+03	1.085961e+03	0	1.898353e-05
6.500000e+08	1.634298e+07	0.000000e+00	3.065327e-01	2.199291e+10	1.855851e+12	1.534794e+12	1.629519e+03	1.123297e+03	1.084888e+03	0	1.891029e-05
6.600000e+08	1.615648e+07	0.000000e+00	3.065327e-01	2.174211e+10	1.840757e+12	1.527365e+12	1.627384e+03	1.122213e+03	1.083842e+03	0	1.883808e-05
6.700000e+08	1.597396e+07	0.000000e+00	3.065327e-01	2.149668e+10	1.826066e+12	1.519989e+12	1.625273e+03	1.121157e+03	1.082821e+03	0	1.876688e-05
6.800000e+08	1.579531e+07	0.000000e+00	3.065327e-01	2.125644e+10	1.811756e+12	1.512664e+12	1.623186e+03	1.120125e+03	1.081825e+03	0	1.869665e-05
6.900000e+08	1.562040e+07	0.000000e+00	3.065327e-01	2.102122e+10	1.797809e+12	1.505390e+12	1.621122e+03	1.119118e+03	1.080853e+03	0	1.862738e-05
7.000000e+08	1.544910e+07	0.000000e+00	3.065327e-01	2.079087e+10	1.784209e+12	1.498168e+12	1.619081e+03	1.118134e+03	1.079902e+03	0	1.855904e-05
7.100000e+08	1.528131e+07	0.000000e+00	3.065327e-01	2.056523e+10	1.770938e+12	1.490996e+12	1.617063e+03	1.117172e+03	1.078973e+03	0	1.849160e-05
7.200000e+08	1.511691e+07	0.000000e+00	3.065327e-01	2.034416e+10	1.757983e+12	1.483874e+12	1.615066e+03	1.116231e+03	1.078064e+03	0	1.842505e-05
7.300000e+08	1.495580e+07	0.000000e+00	3.065327e-01	2.012751e+10	1.745327e+12	1.476802e+12	1.613090e+03	1.115310e+03	1.077175e+03	0	1.835936e-05
7.400000e+08	1.479788e+07	0.000000e+00	3.065327e-01	1.991514e+10	1.732958e+12	1.469780e+12	1.611136e+03	1.114409e+03	1.076304e+03	0	1.829452e-05
7.500000e+08	1.464305e+07	0.000000e+00	3.065327e-01	1.970694e+10	1.720864e+12	1.462806e+12	1.609201e+03	1.113525e+03	1.075451e+03	0	1.823049e-05
7.600000e+08	1.449123e+07	0.000000e+00	3.065327e-01	1.950278e+10	1.709031e+12	1.455881e+12	1.607288e+03	1.112660e+03	1.074615e+03	0	1.816726e-05
7.700000e+08	1.434232e+07	0.000000e+00	3.065327e-01	1.930253e+10	1.697449e+12	1.449004e+12	1.605393e+03	1.111811e+03	1.073796e+03	0	1.810482e-05
7.800000e+08	1.419624e+07	0.000000e+00	3.065327e-01	1.910608e+10	1.686107e+12	1.442175e+12	1.603519e+03	1.110979e+03	1.072992e+03	0	1.804314e-05
7.900000e+08	1.405290e+07	0.000000e+00	3.065327e-01	1.891333e+10	1.674996e+12	1.435394e+12	1.601663e+03	1.110162e+03	1.072203e+03	0	1.798221e-05
8.000000e+08	1.391223e+07	0.000000e+00	3.065327e-01	1.872417e+10	1.664104e+12	1.428659e+12	1.599826e+03	1.109360e+03	1.071428e+03	0	1.792201e-05
8.100000e+08	1.377416e+07	0.000000e+00	3.065327e-01	1.853850e+10	1.653425e+12	1.421971e+12	1.598007e+03	1.108572e+03	1.070667e+03	0	1.786252e-05
8.200000e+08	1.363861e+07	0.000000e+00	3.065327e-01	1.835622e+10	1.642948e+12	1.415329e+12	1.596206e+03	1.107798e+03	1.069919e+03	0	1.780374e-05
8.300000e+08	1.350551e+07	0.000000e+00	3.065327e-01	1.817723e+10	1.632667e+12	1.408734e+12	1.594423e+03	1.107037e+03	1.069184e+03	0	1.774563e-05
8.400000e+08	1.337480e+07	0.000000e+00	3.065327e-01	1.800145e+10	1.622572e+12	1.402183e+12	1.592657e+03	1.106288e+03	1.068461e+03	0	1.768819e-05
8.500000e+08	1.324641e+07	0.000000e+00	3.065327e-01	1.782879e+10	1.612658e+12	1.395678e+12	1.590908e+03	1.105552e+03	1.067750e+03	0	1.763141e-05
8.600000e+08	1.312027e+07	0.000000e+00	3.065327e-01	1.765917e+10	1.602918e+12	1.389218e+12	1.589176e+03	1.104827e+03	1.067050e+03	0	1.757527e-05
8.700000e+08	1.299634e+07	0.000000e+00	3.065327e-01	1.749251e+10	1.593344e+12	1.382803e+12	1.587460e+03	1.104114e+03	1.066361e+03	0	1.751976e-05
8.800000e+08	1.287455e+07	0.000000e+00	3.065327e-01	1.732873e+10	1.583931e+12	1.376431e+12	1.585761e+03	1.103411e+03	1.065682e+03	0	1.746486e-05
8.900000e+08	1.275484e+07	0.000000e+00	3.065327e-01	1.716775e+10	1.574673e+12	1.370103e+12	1.584077e+03	1.102718e+03	1.065014e+03	0	1.741056e-05
9.000000e+08	1.263716e+07	0.000000e+00	3.065327e-01	1.700950e+10	1.565565e+12	1.363819e+12	1.582409e+03	1.102036e+03	1.064355e+03	0	1.735685e-05
9.100000e+08	1.252147e+07	0.000000e+00	3.065327e-01	1.685392e+10	1.556600e+12	1.357578e+12	1.580756e+03	1.101363e+03	1.063705e+03	0	1.730372e-05
9.200000e+08	1.240770e+07	0.000000e+00	3.065327e-01	1.670093e+10	1.547775e+12	1.351379e+12	1.579118e+03	1.100700e+03	1.063064e+03	0	1.725116e-05
9.300000e+08	1.229582e+07	0.000000e+00	3.065327e-01	1.655047e+10	1.539084e+12	1.345223e+12	1.577495e+03	1.100045e+03	1.062431e+03	0	1.719915e-05
9.400000e+08	1.218577e+07	0.000000e+00	3.065327e-01	1.640248e+10	1.530523e+12	1.339109e+12	1.575887e+03	1.099399e+03	1.061807e+03	0	1.714768e-05
9.500000e+08	1.207751e+07	0.000000e+00	3.065327e-01	1.625690e+10	1.522088e+12	1.333037e+12	1.574293e+03	1.098761e+03	1.061191e+03	0	1.709675e-05
9.600000e+08	1.197101e+07	0.000000e+00	3.065327e-01	1.611367e+10	1.513774e+12	1.327006e+12	1.572713e+03	1.098131e+03	1.060583e+03	0	1.704635e-05
9.700000e+08	1.186620e+07	0.000000e+00	3.065327e-01	1.597274e+10	1.505578e+12	1.321016e+12	1.571147e+03	1.097509e+03	1.059982e+03	0	1.699645e-05
9.800000e+08	1.176306e+07	0.000000e+00	3.065327e-01	1.583404e+10	1.497495e+12	1.315067e+12	1.569594e+03	1.096894e+03	1.059389e+03	0	1.694707e-05
9.900000e+08	1.166155e+07	0.000000e+00	3.065327e-01	1.569752e+10	1.489523e+12	1.309158e+12	1.568055e+03	1.096287e+03	1.058802e+03	0	1.689818e-05
1.000000e+09	1.156162e+07	0.000000e+00	3.065327e-01	1.556314e+10	1.481658e+12	1.303290e+12	1.566530e+03	1.095686e+03	1.058222e+03	0	1.684977e-05
1.010000e+09	1.146324e+07	0.000000e+00	3.065327e-01	1.543085e+10	1.473896e+12	1.297461e+12	1.565017e+03	1.095092e+03	1.057648e+03	0	1.680184e-05
1.020000e+09	1.136638e+07	0.000000e+00	3.065327e-01	1.530059e+10	1.466236e+12	1.291672e+12	1.563517e+03	1.094505e+03	1.057081e+03	0	1.675438e-05
1.030000e+09	1.127100e+07	0.000000e+00	3.065327e-01	1.517232e+10	1.458672e+12	1.285922e+12	1.562030e+03	1.093924e+03	1.056520e+03	0	1.670739e-05
1.040000e+09	1.117706e+07	0.000000e+00	3.065327e-01	1.504600e+10	1.451204e+12	1.280210e+12	1.560555e+03	1.093349e+03	1.055965e+03	0	1.666084e-05
1.050000e+09	1.108454e+07	0.000000e+00	3.065327e-01	1.492157e+10	1.443828e+12	1.274538e+12	1.559092e+03	1.092780e+03	1.055415e+03	0	1.661474e-05
1.060000e+09	1.099340e+07	0.000000e+00	3.065327e-01	1.479901e+10	1.436541e+12	1.268903e+12	1.557642e+03	1.092217e+03	1.054871e+03	0	1.656908e-05
1.070000e+09	1.090361e+07	0.000000e+00	3.065327e-01	1.467826e+10	1.429342e+12	1.263307e+12	1.556203e+03	1.091659e+03	1.054332e+03	0	1.652385e-05
1.080000e+09	1.081515e+07	0.000000e+00	3.065327e-01	1.455930e+10	1.422227e+12	1.257748e+12	1.554776e+03	1.091106e+03	1.053799e+03	0	1.647904e-05
1.090000e+09	1.072798e+07	0.000000e+00	3.065327e-01	1.444207e+10	1.415195e+12	1.252227e+12	1.553360e+03	1.090559e+03	1.053270e+03	0	1.643465e-05
1.100000e+09	1.064207e+07	0.000000e+00	3.065327e-01	1.432654e+10	1.408243e+12	1.246742e+12	1.551956e+03	1.090017e+03	1.052746e+03	0	1.639066e-05
1.110000e+09	1.055740e+07	0.000000e+00	3.065327e-01	1.421268e+10	1.401370e+12	1.241295e+12	1.550563e+03	1.089479e+03	1.052227e+03	0	1.634708e-05
1.120000e+09	1.047395e+07	0.000000e+00	3.065327e-01	1.410045e+10	1.394573e+12	1.235884e+12	1.549182e+03	1.088947e+03	1.051713e+03	0	1.630389e-05
1.130000e+09	1.039168e+07	0.000000e+00	3.065327e-01	1.398982e+10	1.387850e+12	1.230509e+12	1.547811e+03	1.088419e+03	1.051203e+03	0	1.626109e-05
1.140000e+09	1.031057e+07	0.000000e+00	3.065327e-01	1.388074e+10	1.381200e+12	1.225170e+12	1.546450e+03	1.087895e+03	1.050697e+03	0	1.621867e-05
1.150000e+09	1.023060e+07	0.000000e+00	3.065327e-01	1.377320e+10	1.374621e+12	1.219867e+12	1.545101e+03	1.087376e+03	1.050196e+03	0	1.617663e-05
1.160000e+09	1.015175e+07	0.000000e+00	3.065327e-01	1.366716e+10	1.368111e+12	1.214599e+12	1.543761e+03	1.086861e+03	1.049698e+03	0	1.613496e-05
1.170000e+09	1.007398e+07	0.000000e+00	3.065327e-01	1.356258e+10	1.361668e+12	1.209366e+12	1.542433e+03	1.086350e+03	1.049205e+03	0	1.609366e-05
1.180000e+09	9.997289e+06	0.000000e+00	3.065327e-01	1.345944e+10	1.355291e+12	1.204168e+12	1.541114e+03	1.085843e+03	1.048715e+03	0	1.605272e-05
1.190000e+09	9.921643e+06	0.000000e+00	3.065327e-01	1.335771e+10	1.348979e+12	1.199005e+12	1.539805e+03	1.085340e+03	1.048229e+03	0	1.601212e-05
1.200000e+09	9.847024e+06	0.000000e+00	3.065327e-01	1.325737e+10	1.342730e+12	1.193876e+12	1.538506e+03	1.084841e+03	1.047747e+03	0	1.597188e-05
1.210000e+09	9.773411e+06	0.000000e+00	3.065327e-01	1.315837e+10	1.336543e+12	1.188780e+12	1.537217e+03	1.084345e+03	1.047269e+03	0	1.593198e-05
1.220000e+09	9.700785e+06	0.000000e+00	3.065327e-01	1.306070e+10	1.330416e+12	1.183719e+12	1.535937e+03	1.083853e+03	1.046793e+03	0	1.589242e-05
1.230000e+09	9.629126e+06	0.000000e+00	3.065327e-01	1.296434e+10	1.324348e+12	1.178691e+12	1.534667e+03	1.083365e+03	1.046322e+03	0	1.585319e-05
1.240000e+09	9.558416e+06	0.000000e+00	3.065327e-01	1.286924e+10	1.318338e+12	1.173697e+12	1.533406e+03	1.082880e+03	1.045853e+03	0	1.581429e-05
1.250000e+09	9.488636e+06	0.000000e+00	3.065327e-01	1.277540e+10	1.312384e+12	1.168735e+12	1.532154e+03	1.082398e+03	1.045388e+03	0	1.577571e-05
1.260000e+09	9.419768e+06	0.000000e+00	3.065327e-01	1.268279e+10	1.306486e+12	1.163806e+12	1.530912e+03	1.081920e+03	1.044926e+03	0	1.573745e-05
1.270000e+09	9.351795e+06	0.000000e+00	3.065327e-01	1.259138e+10	1.300643e+12	1.158909e+12	1.529679e+03	1.081444e+03	1.044467e+03	0	1.569951e-05
1.280000e+09	9.284699e+06	0.000000e+00	3.065327e-01	1.250115e+10	1.294853e+12	1.154045e+12	1.528454e+03	1.080972e+03	1.044011e+03	0	1.566187e-05
1.290000e+09	9.218466e+06	0.000000e+00	3.065327e-01	1.241207e+10	1.289115e+12	1.149213e+12	1.527238e+03	1.080503e+03	1.043558e+03	0	1.562454e-05
1.300000e+09	9.153077e+06	0.000000e+00	3.065327e-01	1.232414e+10	1.283428e+12	1.144412e+12	1.526031e+03	1.080037e+03	1.043108e+03	0	1.558751e-05
1.310000e+09	9.088518e+06	0.000000e+00	3.065327e-01	1.223732e+10	1.277792e+12	1.139643e+12	1.524832e+03	1.079574e+03	1.042660e+03	0	1.555078e-05
1.320000e+09	9.024774e+06	0.000000e+00	3.065327e-01	1.215159e+10	1.272205e+12	1.134905e+12	1.523642e+03	1.079113e+03	1.042216e+03	0	1.551434e-05
1.330000e+09	8.961828e+06	0.000000e+00	3.065327e-01	1.206694e+10	1.266667e+12	1.130198e+12	1.522460e+03	1.078656e+03	1.041774e+03	0	1.547818e-05
1.340000e+09	8.899668e+06	0.000000e+00	3.065327e-01	1.198335e+10	1.261176e+12	1.125522e+12	1.521286e+03	1.078201e+03	1.041334e+03	0	1.544231e-05
1.350000e+09	8.838278e+06	0.000000e+00	3.065327e-01	1.190079e+10	1.255732e+12	1.120876e+12	1.520120e+03	1.077748e+03	1.040897e+03	0	1.540672e-05
1.360000e+09	8.777645e+06	0.000000e+00	3.065327e-01	1.181925e+10	1.250334e+12	1.116261e+12	1.518963e+03	1.077299e+03	1.040463e+03	0	1.537141e-05
