#t		Qconv[W]	Ri[Rp]		R*[Rp]		Qc[W]		Qm[W]		Qr[W]		Tcmb[K]		Tl[K]		Tup[K]		RiFlag		Bs[T]
0.000000e+00	9.031744e+12	0.000000e+00	6.883118e-01	1.614693e+14	8.074427e+13	1.416609e+14	7.189435e+03	3.535522e+03	2.375493e+03	0	6.249174e-04
1.000000e+07	8.984956e+12	0.000000e+00	6.883118e-01	1.608291e+14	8.296296e+13	1.408760e+14	7.180166e+03	3.550128e+03	2.385307e+03	0	6.238365e-04
2.000000e+07	8.937219e+12	0.000000e+00	6.883118e-01	1.601775e+14	8.518977e+13	1.400970e+14	7.170934e+03	3.564492e+03	2.394958e+03	0	6.227297e-04
3.000000e+07	8.888576e+12	0.000000e+00	6.883118e-01	1.595150e+14	8.742289e+13	1.393237e+14	7.161739e+03	3.578614e+03	2.404446e+03	0	6.215978e-04
4.000000e+07	8.839069e+12	0.000000e+00	6.883118e-01	1.588422e+14	8.966055e+13	1.385563e+14	7.152582e+03	3.592494e+03	2.413772e+03	0	6.204417e-04
5.000000e+07	8.788742e+12	0.000000e+00	6.883118e-01	1.581596e+14	9.190090e+13	1.377946e+14	7.143463e+03	3.606130e+03	2.422934e+03	0	6.192619e-04
6.000000e+07	8.737638e+12	0.000000e+00	6.883118e-01	1.574676e+14	9.414217e+13	1.370385e+14	7.134384e+03	3.619523e+03	2.431933e+03	0	6.180593e-04
7.000000e+07	8.685798e+12	0.000000e+00	6.883118e-01	1.567669e+14	9.638258e+13	1.362881e+14	7.125345e+03	3.632673e+03	2.440768e+03	0	6.168345e-04
8.000000e+07	8.633264e+12	0.000000e+00	6.883118e-01	1.560580e+14	9.862035e+13	1.355433e+14	7.116345e+03	3.645578e+03	2.449439e+03	0	6.155884e-04
9.000000e+07	8.580078e+12	0.000000e+00	6.883118e-01	1.553413e+14	1.008537e+14	1.348040e+14	7.107387e+03	3.658240e+03	2.457947e+03	0	6.143217e-04
1.000000e+08	8.526281e+12	0.000000e+00	6.883118e-01	1.546174e+14	1.030810e+14	1.340702e+14	7.098469e+03	3.670658e+03	2.466290e+03	0	6.130351e-04
1.100000e+08	8.471913e+12	0.000000e+00	6.883118e-01	1.538868e+14	1.053004e+14	1.333419e+14	7.089593e+03	3.682833e+03	2.474471e+03	0	6.117293e-04
1.200000e+08	8.417013e+12	0.000000e+00	6.883118e-01	1.531499e+14	1.075103e+14	1.326189e+14	7.080758e+03	3.694766e+03	2.482488e+03	0	6.104050e-04
1.300000e+08	8.361621e+12	0.000000e+00	6.883118e-01	1.524072e+14	1.097091e+14	1.319013e+14	7.071966e+03	3.706456e+03	2.490342e+03	0	6.090631e-04
1.400000e+08	8.305775e+12	0.000000e+00	6.883118e-01	1.516593e+14	1.118951e+14	1.311890e+14	7.063217e+03	3.717905e+03	2.498035e+03	0	6.077041e-04
1.500000e+08	8.249512e+12	0.000000e+00	6.883118e-01	1.509066e+14	1.140668e+14	1.304820e+14	7.054510e+03	3.729113e+03	2.505566e+03	0	6.063288e-04
1.600000e+08	8.192869e+12	0.000000e+00	6.883118e-01	1.501495e+14	1.162227e+14	1.297802e+14	7.045847e+03	3.740082e+03	2.512936e+03	0	6.049379e-04
1.700000e+08	8.135883e+12	0.000000e+00	6.883118e-01	1.493885e+14	1.183612e+14	1.290836e+14	7.037227e+03	3.750813e+03	2.520146e+03	0	6.035320e-04
1.800000e+08	8.078587e+12	0.000000e+00	6.883118e-01	1.486240e+14	1.204809e+14	1.283921e+14	7.028650e+03	3.761306e+03	2.527196e+03	0	6.021119e-04
1.900000e+08	8.021017e+12	0.000000e+00	6.883118e-01	1.478564e+14	1.225805e+14	1.277057e+14	7.020117e+03	3.771565e+03	2.534088e+03	0	6.006783e-04
2.000000e+08	7.963206e+12	0.000000e+00	6.883118e-01	1.470861e+14	1.246586e+14	1.270243e+14	7.011629e+03	3.781588e+03	2.540824e+03	0	5.992317e-04
2.100000e+08	7.905186e+12	0.000000e+00	6.883118e-01	1.463136e+14	1.267139e+14	1.263480e+14	7.003184e+03	3.791380e+03	2.547402e+03	0	5.977728e-04
2.200000e+08	7.846988e+12	0.000000e+00	6.883118e-01	1.455393e+14	1.287453e+14	1.256766e+14	6.994784e+03	3.800941e+03	2.553826e+03	0	5.963022e-04
2.300000e+08	7.788644e+12	0.000000e+00	6.883118e-01	1.447634e+14	1.307514e+14	1.250102e+14	6.986428e+03	3.810273e+03	2.560096e+03	0	5.948207e-04
2.400000e+08	7.730183e+12	0.000000e+00	6.883118e-01	1.439864e+14	1.327313e+14	1.243486e+14	6.978117e+03	3.819377e+03	2.566214e+03	0	5.933287e-04
2.500000e+08	7.671633e+12	0.000000e+00	6.883118e-01	1.432086e+14	1.346837e+14	1.236919e+14	6.969850e+03	3.828257e+03	2.572180e+03	0	5.918269e-04
2.600000e+08	7.613022e+12	0.000000e+00	6.883118e-01	1.424304e+14	1.366079e+14	1.230400e+14	6.961627e+03	3.836914e+03	2.577997e+03	0	5.903159e-04
2.700000e+08	7.554377e+12	0.000000e+00	6.883118e-01	1.416521e+14	1.385027e+14	1.223929e+14	6.953450e+03	3.845351e+03	2.583665e+03	0	5.887962e-04
2.800000e+08	7.495724e+12	0.000000e+00	6.883118e-01	1.408740e+14	1.403673e+14	1.217505e+14	6.945317e+03	3.853569e+03	2.589187e+03	0	5.872684e-04
2.900000e+08	7.437087e+12	0.000000e+00	6.883118e-01	1.400965e+14	1.422009e+14	1.211127e+14	6.937228e+03	3.861571e+03	2.594563e+03	0	5.857330e-04
3.000000e+08	7.378490e+12	0.000000e+00	6.883118e-01	1.393197e+14	1.440027e+14	1.204797e+14	6.929184e+03	3.869359e+03	2.599796e+03	0	5.841906e-04
3.100000e+08	7.319956e+12	0.000000e+00	6.883118e-01	1.385440e+14	1.457720e+14	1.198512e+14	6.921185e+03	3.876936e+03	2.604887e+03	0	5.826417e-04
3.200000e+08	7.261507e+12	0.000000e+00	6.883118e-01	1.377697e+14	1.475082e+14	1.192273e+14	6.913230e+03	3.884305e+03	2.609838e+03	0	5.810868e-04
3.300000e+08	7.203164e+12	0.000000e+00	6.883118e-01	1.369969e+14	1.492105e+14	1.186080e+14	6.905319e+03	3.891467e+03	2.614650e+03	0	5.795264e-04
3.400000e+08	7.144946e+12	0.000000e+00	6.883118e-01	1.362261e+14	1.508786e+14	1.179931e+14	6.897453e+03	3.898427e+03	2.619326e+03	0	5.779609e-04
3.500000e+08	7.086874e+12	0.000000e+00	6.883118e-01	1.354573e+14	1.525119e+14	1.173827e+14	6.889631e+03	3.905185e+03	2.623867e+03	0	5.763908e-04
3.600000e+08	7.028965e+12	0.000000e+00	6.883118e-01	1.346908e+14	1.541100e+14	1.167767e+14	6.881853e+03	3.911746e+03	2.628275e+03	0	5.748165e-04
3.700000e+08	6.971236e+12	0.000000e+00	6.883118e-01	1.339269e+14	1.556725e+14	1.161752e+14	6.874119e+03	3.918112e+03	2.632553e+03	0	5.732385e-04
3.800000e+08	6.913704e+12	0.000000e+00	6.883118e-01	1.331657e+14	1.571990e+14	1.155779e+14	6.866429e+03	3.924285e+03	2.636700e+03	0	5.716572e-04
3.900000e+08	6.856384e+12	0.000000e+00	6.883118e-01	1.324074e+14	1.586894e+14	1.149850e+14	6.858782e+03	3.930269e+03	2.640721e+03	0	5.700730e-04
4.000000e+08	6.799292e+12	0.000000e+00	6.883118e-01	1.316522e+14	1.601433e+14	1.143964e+14	6.851179e+03	3.936067e+03	2.644616e+03	0	5.684863e-04
4.100000e+08	6.742441e+12	0.000000e+00	6.883118e-01	1.309003e+14	1.615606e+14	1.138120e+14	6.843619e+03	3.941680e+03	2.648388e+03	0	5.668974e-04
4.200000e+08	6.685844e+12	0.000000e+00	6.883118e-01	1.301518e+14	1.629412e+14	1.132318e+14	6.836102e+03	3.947113e+03	2.652039e+03	0	5.653068e-04
4.300000e+08	6.629514e+12	0.000000e+00	6.883118e-01	1.294069e+14	1.642850e+14	1.126558e+14	6.828628e+03	3.952369e+03	2.655570e+03	0	5.637147e-04
4.400000e+08	6.573462e+12	0.000000e+00	6.883118e-01	1.286657e+14	1.655919e+14	1.120840e+14	6.821197e+03	3.957449e+03	2.658983e+03	0	5.621214e-04
4.500000e+08	6.517699e+12	0.000000e+00	6.883118e-01	1.279283e+14	1.668620e+14	1.115163e+14	6.813808e+03	3.962358e+03	2.662281e+03	0	5.605274e-04
4.600000e+08	6.462236e+12	0.000000e+00	6.883118e-01	1.271950e+14	1.680952e+14	1.109526e+14	6.806462e+03	3.967097e+03	2.665466e+03	0	5.589329e-04
4.700000e+08	6.407081e+12	0.000000e+00	6.883118e-01	1.264657e+14	1.692917e+14	1.103930e+14	6.799158e+03	3.971671e+03	2.668539e+03	0	5.573382e-04
4.800000e+08	6.352244e+12	0.000000e+00	6.883118e-01	1.257406e+14	1.704515e+14	1.098374e+14	6.791895e+03	3.976082e+03	2.671502e+03	0	5.557436e-04
4.900000e+08	6.297733e+12	0.000000e+00	6.883118e-01	1.250198e+14	1.715749e+14	1.092857e+14	6.784674e+03	3.980333e+03	2.674358e+03	0	5.541494e-04
5.000000e+08	6.243555e+12	0.000000e+00	6.883118e-01	1.243035e+14	1.726619e+14	1.087380e+14	6.777494e+03	3.984426e+03	2.677109e+03	0	5.525557e-04
5.100000e+08	6.189718e+12	0.000000e+00	6.883118e-01	1.235915e+14	1.737129e+14	1.081943e+14	6.770356e+03	3.988366e+03	2.679756e+03	0	5.509629e-04
5.200000e+08	6.136228e+12	0.000000e+00	6.883118e-01	1.228842e+14	1.747279e+14	1.076544e+14	6.763258e+03	3.992154e+03	2.682301e+03	0	5.493712e-04
5.300000e+08	6.083090e+12	0.000000e+00	6.883118e-01	1.221814e+14	1.757075e+14	1.071183e+14	6.756200e+03	3.995794e+03	2.684747e+03	0	5.477809e-04
5.400000e+08	6.030311e+12	0.000000e+00	6.883118e-01	1.214834e+14	1.766517e+14	1.065861e+14	6.749184e+03	3.999289e+03	2.687095e+03	0	5.461920e-04
5.500000e+08	5.977894e+12	0.000000e+00	6.883118e-01	1.207901e+14	1.775610e+14	1.060577e+14	6.742207e+03	4.002641e+03	2.689347e+03	0	5.446048e-04
5.600000e+08	5.925844e+12	0.000000e+00	6.883118e-01	1.201015e+14	1.784357e+14	1.055330e+14	6.735269e+03	4.005853e+03	2.691506e+03	0	5.430196e-04
5.700000e+08	5.874166e+12	0.000000e+00	6.883118e-01	1.194178e+14	1.792761e+14	1.050120e+14	6.728372e+03	4.008929e+03	2.693572e+03	0	5.414365e-04
5.800000e+08	5.822862e+12	0.000000e+00	6.883118e-01	1.187390e+14	1.800827e+14	1.044948e+14	6.721513e+03	4.011871e+03	2.695549e+03	0	5.398556e-04
5.900000e+08	5.771936e+12	0.000000e+00	6.883118e-01	1.180651e+14	1.808558e+14	1.039812e+14	6.714693e+03	4.014681e+03	2.697437e+03	0	5.382771e-04
6.000000e+08	5.721389e+12	0.000000e+00	6.883118e-01	1.173962e+14	1.815959e+14	1.034712e+14	6.707912e+03	4.017363e+03	2.699239e+03	0	5.367012e-04
6.100000e+08	5.671226e+12	0.000000e+00	6.883118e-01	1.167322e+14	1.823034e+14	1.029648e+14	6.701170e+03	4.019920e+03	2.700957e+03	0	5.351281e-04
6.200000e+08	5.621446e+12	0.000000e+00	6.883118e-01	1.160732e+14	1.829788e+14	1.024621e+14	6.694465e+03	4.022353e+03	2.702592e+03	0	5.335578e-04
6.300000e+08	5.572052e+12	0.000000e+00	6.883118e-01	1.154192e+14	1.836225e+14	1.019628e+14	6.687798e+03	4.024666e+03	2.704146e+03	0	5.319904e-04
6.400000e+08	5.523045e+12	0.000000e+00	6.883118e-01	1.147703e+14	1.842350e+14	1.014671e+14	6.681169e+03	4.026862e+03	2.705621e+03	0	5.304262e-04
6.500000e+08	5.474425e+12	0.000000e+00	6.883118e-01	1.141263e+14	1.848168e+14	1.009749e+14	6.674577e+03	4.028942e+03	2.707019e+03	0	5.288651e-04
6.600000e+08	5.426194e+12	0.000000e+00	6.883118e-01	1.134874e+14	1.853685e+14	1.004862e+14	6.668022e+03	4.030910e+03	2.708341e+03	0	5.273074e-04
6.700000e+08	5.378352e+12	0.000000e+00	6.883118e-01	1.128536e+14	1.858904e+14	1.000009e+14	6.661503e+03	4.032768e+03	2.709589e+03	0	5.257531e-04
6.800000e+08	5.330898e+12	0.000000e+00	6.883118e-01	1.122247e+14	1.863832e+14	9.951897e+13	6.655021e+03	4.034519e+03	2.710766e+03	0	5.242023e-04
6.900000e+08	5.283832e+12	0.000000e+00	6.883118e-01	1.116009e+14	1.868472e+14	9.904045e+13	6.648575e+03	4.036164e+03	2.711871e+03	0	5.226550e-04
7.000000e+08	5.237155e+12	0.000000e+00	6.883118e-01	1.109821e+14	1.872832e+14	9.856528e+13	6.642165e+03	4.037707e+03	2.712908e+03	0	5.211114e-04
7.100000e+08	5.190864e+12	0.000000e+00	6.883118e-01	1.103683e+14	1.876915e+14	9.809343e+13	6.635790e+03	4.039150e+03	2.713877e+03	0	5.195715e-04
7.200000e+08	5.144960e+12	0.000000e+00	6.883118e-01	1.097596e+14	1.880728e+14	9.762489e+13	6.629450e+03	4.040495e+03	2.714781e+03	0	5.180354e-04
7.300000e+08	5.099441e+12	0.000000e+00	6.883118e-01	1.091557e+14	1.884276e+14	9.715962e+13	6.623145e+03	4.041745e+03	2.715621e+03	0	5.165031e-04
7.400000e+08	5.054307e+12	0.000000e+00	6.883118e-01	1.085569e+14	1.887563e+14	9.669760e+13	6.616875e+03	4.042902e+03	2.716398e+03	0	5.149748e-04
7.500000e+08	5.009554e+12	0.000000e+00	6.883118e-01	1.079630e+14	1.890596e+14	9.623881e+13	6.610639e+03	4.043967e+03	2.717114e+03	0	5.134504e-04
7.600000e+08	4.965183e+12	0.000000e+00	6.883118e-01	1.073740e+14	1.893379e+14	9.578320e+13	6.604438e+03	4.044944e+03	2.717770e+03	0	5.119299e-04
7.700000e+08	4.921191e+12	0.000000e+00	6.883118e-01	1.067899e+14	1.895918e+14	9.533077e+13	6.598270e+03	4.045834e+03	2.718368e+03	0	5.104135e-04
7.800000e+08	4.877575e+12	0.000000e+00	6.883118e-01	1.062107e+14	1.898219e+14	9.488148e+13	6.592135e+03	4.046640e+03	2.718910e+03	0	5.089012e-04
7.900000e+08	4.834336e+12	0.000000e+00	6.883118e-01	1.056364e+14	1.900287e+14	9.443531e+13	6.586034e+03	4.047364e+03	2.719396e+03	0	5.073929e-04
8.000000e+08	4.791469e+12	0.000000e+00	6.883118e-01	1.050668e+14	1.902126e+14	9.399224e+13	6.579966e+03	4.048007e+03	2.719828e+03	0	5.058887e-04
8.100000e+08	4.748973e+12	0.000000e+00	6.883118e-01	1.045021e+14	1.903742e+14	9.355223e+13	6.573930e+03	4.048572e+03	2.720208e+03	0	5.043887e-04
8.200000e+08	4.706846e+12	0.000000e+00	6.883118e-01	1.039421e+14	1.905141e+14	9.311527e+13	6.567927e+03	4.049061e+03	2.720536e+03	0	5.028928e-04
8.300000e+08	4.665085e+12	0.000000e+00	6.883118e-01	1.033868e+14	1.906328e+14	9.268134e+13	6.561955e+03	4.049475e+03	2.720815e+03	0	5.014011e-04
8.400000e+08	4.623687e+12	0.000000e+00	6.883118e-01	1.028362e+14	1.907308e+14	9.225040e+13	6.556016e+03	4.049817e+03	2.721044e+03	0	4.999135e-04
8.500000e+08	4.582650e+12	0.000000e+00	6.883118e-01	1.022903e+14	1.908085e+14	9.182243e+13	6.550108e+03	4.050088e+03	2.721226e+03	0	4.984302e-04
8.600000e+08	4.541971e+12	0.000000e+00	6.883118e-01	1.017490e+14	1.908666e+14	9.139741e+13	6.544232e+03	4.050290e+03	2.721362e+03	0	4.969510e-04
8.700000e+08	4.501648e+12	0.000000e+00	6.883118e-01	1.012123e+14	1.909054e+14	9.097532e+13	6.538387e+03	4.050426e+03	2.721453e+03	0	4.954760e-04
8.800000e+08	4.461678e+12	0.000000e+00	6.883118e-01	1.006801e+14	1.909255e+14	9.055613e+13	6.532572e+03	4.050496e+03	2.721501e+03	0	4.940052e-04
8.900000e+08	4.422057e+12	0.000000e+00	6.883118e-01	1.001525e+14	1.909275e+14	9.013983e+13	6.526788e+03	4.050503e+03	2.721505e+03	0	4.925385e-04
9.000000e+08	4.382784e+12	0.000000e+00	6.883118e-01	9.962933e+13	1.909117e+14	8.972638e+13	6.521034e+03	4.050447e+03	2.721468e+03	0	4.910761e-04
9.100000e+08	4.343854e+12	0.000000e+00	6.883118e-01	9.911060e+13	1.908785e+14	8.931576e+13	6.515310e+03	4.050332e+03	2.721390e+03	0	4.896178e-04
9.200000e+08	4.305265e+12	0.000000e+00	6.883118e-01	9.859627e+13	1.908286e+14	8.890796e+13	6.509616e+03	4.050158e+03	2.721274e+03	0	4.881636e-04
9.300000e+08	4.267015e+12	0.000000e+00	6.883118e-01	9.808631e+13	1.907624e+14	8.850294e+13	6.503951e+03	4.049927e+03	2.721118e+03	0	4.867136e-04
9.400000e+08	4.229099e+12	0.000000e+00	6.883118e-01	9.758067e+13	1.906803e+14	8.810069e+13	6.498316e+03	4.049640e+03	2.720926e+03	0	4.852677e-04
9.500000e+08	4.191515e+12	0.000000e+00	6.883118e-01	9.707931e+13	1.905827e+14	8.770119e+13	6.492710e+03	4.049300e+03	2.720697e+03	0	4.838259e-04
9.600000e+08	4.154260e+12	0.000000e+00	6.883118e-01	9.658219e+13	1.904701e+14	8.730442e+13	6.487132e+03	4.048907e+03	2.720433e+03	0	4.823882e-04
9.700000e+08	4.117331e+12	0.000000e+00	6.883118e-01	9.608928e+13	1.903429e+14	8.691034e+13	6.481583e+03	4.048463e+03	2.720134e+03	0	4.809545e-04
9.800000e+08	4.080725e+12	0.000000e+00	6.883118e-01	9.560054e+13	1.902016e+14	8.651895e+13	6.476062e+03	4.047969e+03	2.719803e+03	0	4.795249e-04
9.900000e+08	4.044438e+12	0.000000e+00	6.883118e-01	9.511592e+13	1.900466e+14	8.613022e+13	6.470569e+03	4.047427e+03	2.719438e+03	0	4.780993e-04
1.000000e+09	4.008467e+12	0.000000e+00	6.883118e-01	9.463538e+13	1.898782e+14	8.574412e+13	6.465104e+03	4.046837e+03	2.719042e+03	0	4.766777e-04
1.010000e+09	3.972810e+12	0.000000e+00	6.883118e-01	9.415889e+13	1.896970e+14	8.536065e+13	6.459667e+03	4.046203e+03	2.718616e+03	0	4.752601e-04
1.020000e+09	3.937463e+12	0.000000e+00	6.883118e-01	9.368641e+13	1.895031e+14	8.497977e+13	6.454257e+03	4.045523e+03	2.718160e+03	0	4.738464e-04
1.030000e+09	3.902422e+12	0.000000e+00	6.883118e-01	9.321789e+13	1.892972e+14	8.460147e+13	6.448874e+03	4.044801e+03	2.717674e+03	0	4.724366e-04
1.040000e+09	3.867686e+12	0.000000e+00	6.883118e-01	9.275329e+13	1.890795e+14	8.422572e+13	6.443518e+03	4.044037e+03	2.717161e+03	0	4.710307e-04
1.050000e+09	3.833251e+12	0.000000e+00	6.883118e-01	9.229258e+13	1.888504e+14	8.385252e+13	6.438188e+03	4.043232e+03	2.716620e+03	0	4.696286e-04
1.060000e+09	3.799113e+12	0.000000e+00	6.883118e-01	9.183571e+13	1.886102e+14	8.348183e+13	6.432885e+03	4.042388e+03	2.716053e+03	0	4.682303e-04
1.070000e+09	3.765271e+12	0.000000e+00	6.883118e-01	9.138265e+13	1.883594e+14	8.311364e+13	6.427609e+03	4.041505e+03	2.715460e+03	0	4.668358e-04
1.080000e+09	3.731719e+12	0.000000e+00	6.883118e-01	9.093336e+13	1.880982e+14	8.274792e+13	6.422358e+03	4.040585e+03	2.714841e+03	0	4.654451e-04
1.090000e+09	3.698457e+12	0.000000e+00	6.883118e-01	9.048780e+13	1.878271e+14	8.238467e+13	6.417133e+03	4.039628e+03	2.714199e+03	0	4.640580e-04
1.100000e+09	3.665479e+12	0.000000e+00	6.883118e-01	9.004592e+13	1.875462e+14	8.202385e+13	6.411933e+03	4.038637e+03	2.713533e+03	0	4.626746e-04
1.110000e+09	3.632785e+12	0.000000e+00	6.883118e-01	8.960770e+13	1.872561e+14	8.166545e+13	6.406759e+03	4.037611e+03	2.712844e+03	0	4.612949e-04
1.120000e+09	3.600369e+12	0.000000e+00	6.883118e-01	8.917309e+13	1.869570e+14	8.130946e+13	6.401610e+03	4.036553e+03	2.712132e+03	0	4.599188e-04
1.130000e+09	3.568231e+12	0.000000e+00	6.883118e-01	8.874205e+13	1.866491e+14	8.095584e+13	6.396486e+03	4.035462e+03	2.711399e+03	0	4.585462e-04
1.140000e+09	3.536366e+12	0.000000e+00	6.883118e-01	8.831455e+13	1.863328e+14	8.060459e+13	6.391386e+03	4.034340e+03	2.710645e+03	0	4.571771e-04
1.150000e+09	3.504771e+12	0.000000e+00	6.883118e-01	8.789055e+13	1.860084e+14	8.025569e+13	6.386312e+03	4.033188e+03	2.709871e+03	0	4.558115e-04
1.160000e+09	3.473444e+12	0.000000e+00	6.883118e-01	8.747001e+13	1.856762e+14	7.990911e+13	6.381261e+03	4.032006e+03	2.709077e+03	0	4.544494e-04
1.170000e+09	3.442382e+12	0.000000e+00	6.883118e-01	8.705289e+13	1.853365e+14	7.956484e+13	6.376235e+03	4.030796e+03	2.708264e+03	0	4.530907e-04
1.180000e+09	3.411582e+12	0.000000e+00	6.883118e-01	8.663916e+13	1.849895e+14	7.922287e+13	6.371232e+03	4.029558e+03	2.707433e+03	0	4.517353e-04
1.190000e+09	3.381041e+12	0.000000e+00	6.883118e-01	8.622879e+13	1.846355e+14	7.888316e+13	6.366254e+03	4.028294e+03	2.706583e+03	0	4.503833e-04
1.200000e+09	3.350757e+12	0.000000e+00	6.883118e-01	8.582173e+13	1.842748e+14	7.854571e+13	6.361298e+03	4.027004e+03	2.705717e+03	0	4.490345e-04
1.210000e+09	3.320726e+12	0.000000e+00	6.883118e-01	8.541795e+13	1.839076e+14	7.821050e+13	6.356367e+03	4.025689e+03	2.704833e+03	0	4.476890e-04
1.220000e+09	3.290945e+12	0.000000e+00	6.883118e-01	8.501741e+13	1.835342e+14	7.787751e+13	6.351458e+03	4.024349e+03	2.703933e+03	0	4.463467e-04
1.230000e+09	3.261413e+12	0.000000e+00	6.883118e-01	8.462009e+13	1.831548e+14	7.754673e+13	6.346572e+03	4.022986e+03	2.703017e+03	0	4.450075e-04
1.240000e+09	3.232126e+12	0.000000e+00	6.883118e-01	8.422594e+13	1.827697e+14	7.721812e+13	6.341709e+03	4.021600e+03	2.702086e+03	0	4.436715e-04
1.250000e+09	3.203082e+12	0.000000e+00	6.883118e-01	8.383493e+13	1.823790e+14	7.689169e+13	6.336869e+03	4.020192e+03	2.701140e+03	0	4.423385e-04
1.260000e+09	3.174277e+12	0.000000e+00	6.883118e-01	8.344703e+13	1.819831e+14	7.656741e+13	6.332051e+03	4.018763e+03	2.700180e+03	0	4.410086e-04
1.270000e+09	3.145710e+12	0.000000e+00	6.883118e-01	8.306221e+13	1.815820e+14	7.624527e+13	6.327256e+03	4.017313e+03	2.699205e+03	0	4.396816e-04
1.280000e+09	3.117378e+12	0.000000e+00	6.883118e-01	8.268042e+13	1.811761e+14	7.592525e+13	6.322482e+03	4.015843e+03	2.698218e+03	0	4.383576e-04
1.290000e+09	3.089278e+12	0.000000e+00	6.883118e-01	8.230165e+13	1.807656e+14	7.560732e+13	6.317730e+03	4.014354e+03	2.697217e+03	0	4.370365e-04
1.300000e+09	3.061407e+12	0.000000e+00	6.883118e-01	8.192585e+13	1.803506e+14	7.529149e+13	6.313001e+03	4.012846e+03	2.696204e+03	0	4.357183e-04
1.310000e+09	3.033764e+12	0.000000e+00	6.883118e-01	8.155299e+13	1.799314e+14	7.497773e+13	6.308292e+03	4.011320e+03	2.695178e+03	0	4.344029e-04
1.320000e+09	3.006346e+12	0.000000e+00	6.883118e-01	8.118304e+13	1.795081e+14	7.466602e+13	6.303605e+03	4.009776e+03	2.694141e+03	0	4.330902e-04
1.330000e+09	2.979149e+12	0.000000e+00	6.883118e-01	8.081598e+13	1.790809e+14	7.435635e+13	6.298940e+03	4.008216e+03	2.693093e+03	0	4.317803e-04
1.340000e+09	2.952173e+12	0.000000e+00	6.883118e-01	8.045177e+13	1.786500e+14	7.404870e+13	6.294295e+03	4.006639e+03	2.692033e+03	0	4.304731e-04
1.350000e+09	2.925413e+12	0.000000e+00	6.883118e-01	8.009037e+13	1.782157e+14	7.374306e+13	6.289671e+03	4.005046e+03	2.690963e+03	0	4.291685e-04
1.360000e+09	2.898869e+12	0.000000e+00	6.883118e-01	7.973176e+13	1.777779e+14	7.343941e+13	6.285068e+03	4.003439e+03	2.689883e+03	0	4.278665e-04
