#t		Qconv[W]	Ri[Rp]		R*[Rp]		Qc[W]		Qm[W]		Qr[W]		Tcmb[K]		Tl[K]		Tup[K]		RiFlag		Bs[T]
0.000000e+00	6.978576e+13	0.000000e+00	6.818182e-01	8.770863e+14	8.113179e+13	1.998025e+14	1.109012e+04	4.444018e+03	2.516543e+03	0	1.226455e-03
1.000000e+07	6.919338e+13	0.000000e+00	6.818182e-01	8.705144e+14	8.757083e+13	1.986954e+14	1.105679e+04	4.494336e+03	2.545037e+03	0	1.222975e-03
2.000000e+07	6.858468e+13	0.000000e+00	6.818182e-01	8.637782e+14	9.429158e+13	1.975967e+14	1.102371e+04	4.543931e+03	2.573121e+03	0	1.219378e-03
3.000000e+07	6.796052e+13	0.000000e+00	6.818182e-01	8.568868e+14	1.012883e+14	1.965061e+14	1.099088e+04	4.592780e+03	2.600783e+03	0	1.215668e-03
4.000000e+07	6.732180e+13	0.000000e+00	6.818182e-01	8.498492e+14	1.085539e+14	1.954237e+14	1.095831e+04	4.640863e+03	2.628012e+03	0	1.211848e-03
5.000000e+07	6.666941e+13	0.000000e+00	6.818182e-01	8.426749e+14	1.160800e+14	1.943493e+14	1.092601e+04	4.688160e+03	2.654795e+03	0	1.207920e-03
6.000000e+07	6.600429e+13	0.000000e+00	6.818182e-01	8.353735e+14	1.238569e+14	1.932830e+14	1.089399e+04	4.734650e+03	2.681121e+03	0	1.203890e-03
7.000000e+07	6.532737e+13	0.000000e+00	6.818182e-01	8.279547e+14	1.318735e+14	1.922246e+14	1.086224e+04	4.780315e+03	2.706980e+03	0	1.199760e-03
8.000000e+07	6.463959e+13	0.000000e+00	6.818182e-01	8.204284e+14	1.401176e+14	1.911741e+14	1.083077e+04	4.825138e+03	2.732362e+03	0	1.195535e-03
9.000000e+07	6.394192e+13	0.000000e+00	6.818182e-01	8.128043e+14	1.485761e+14	1.901314e+14	1.079958e+04	4.869103e+03	2.757258e+03	0	1.191218e-03
1.000000e+08	6.323532e+13	0.000000e+00	6.818182e-01	8.050925e+14	1.572345e+14	1.890964e+14	1.076868e+04	4.912194e+03	2.781660e+03	0	1.186814e-03
1.100000e+08	6.252073e+13	0.000000e+00	6.818182e-01	7.973028e+14	1.660777e+14	1.880691e+14	1.073808e+04	4.954397e+03	2.805559e+03	0	1.182327e-03
1.200000e+08	6.179913e+13	0.000000e+00	6.818182e-01	7.894452e+14	1.750894e+14	1.870494e+14	1.070777e+04	4.995701e+03	2.828948e+03	0	1.177760e-03
1.300000e+08	6.107145e+13	0.000000e+00	6.818182e-01	7.815293e+14	1.842528e+14	1.860373e+14	1.067776e+04	5.036094e+03	2.851821e+03	0	1.173119e-03
1.400000e+08	6.033863e+13	0.000000e+00	6.818182e-01	7.735649e+14	1.935503e+14	1.850327e+14	1.064805e+04	5.075565e+03	2.874173e+03	0	1.168408e-03
1.500000e+08	5.960160e+13	0.000000e+00	6.818182e-01	7.655615e+14	2.029641e+14	1.840354e+14	1.061864e+04	5.114108e+03	2.895999e+03	0	1.163631e-03
1.600000e+08	5.886127e+13	0.000000e+00	6.818182e-01	7.575285e+14	2.124754e+14	1.830456e+14	1.058953e+04	5.151713e+03	2.917294e+03	0	1.158793e-03
1.700000e+08	5.811851e+13	0.000000e+00	6.818182e-01	7.494749e+14	2.220657e+14	1.820631e+14	1.056073e+04	5.188377e+03	2.938056e+03	0	1.153898e-03
1.800000e+08	5.737420e+13	0.000000e+00	6.818182e-01	7.414097e+14	2.317159e+14	1.810878e+14	1.053223e+04	5.224095e+03	2.958282e+03	0	1.148951e-03
1.900000e+08	5.662917e+13	0.000000e+00	6.818182e-01	7.333415e+14	2.414071e+14	1.801196e+14	1.050404e+04	5.258864e+03	2.977971e+03	0	1.143956e-03
2.000000e+08	5.588423e+13	0.000000e+00	6.818182e-01	7.252786e+14	2.511203e+14	1.791587e+14	1.047615e+04	5.292682e+03	2.997121e+03	0	1.138918e-03
2.100000e+08	5.514017e+13	0.000000e+00	6.818182e-01	7.172292e+14	2.608367e+14	1.782047e+14	1.044857e+04	5.325550e+03	3.015734e+03	0	1.133841e-03
2.200000e+08	5.439774e+13	0.000000e+00	6.818182e-01	7.092008e+14	2.705378e+14	1.772578e+14	1.042130e+04	5.357469e+03	3.033809e+03	0	1.128729e-03
2.300000e+08	5.365764e+13	0.000000e+00	6.818182e-01	7.012010e+14	2.802053e+14	1.763179e+14	1.039433e+04	5.388442e+03	3.051348e+03	0	1.123587e-03
2.400000e+08	5.292057e+13	0.000000e+00	6.818182e-01	6.932365e+14	2.898216e+14	1.753848e+14	1.036766e+04	5.418472e+03	3.068353e+03	0	1.118418e-03
2.500000e+08	5.218717e+13	0.000000e+00	6.818182e-01	6.853142e+14	2.993694e+14	1.744585e+14	1.034129e+04	5.447565e+03	3.084828e+03	0	1.113228e-03
2.600000e+08	5.145805e+13	0.000000e+00	6.818182e-01	6.774402e+14	3.088321e+14	1.735391e+14	1.031523e+04	5.475728e+03	3.100776e+03	0	1.108019e-03
2.700000e+08	5.073379e+13	0.000000e+00	6.818182e-01	6.696204e+14	3.181939e+14	1.726263e+14	1.028946e+04	5.502966e+03	3.116200e+03	0	1.102796e-03
2.800000e+08	5.001492e+13	0.000000e+00	6.818182e-01	6.618604e+14	3.274396e+14	1.717203e+14	1.026399e+04	5.529291e+03	3.131107e+03	0	1.097563e-03
2.900000e+08	4.930194e+13	0.000000e+00	6.818182e-01	6.541652e+14	3.365547e+14	1.708208e+14	1.023882e+04	5.554710e+03	3.145501e+03	0	1.092322e-03
3.000000e+08	4.859532e+13	0.000000e+00	6.818182e-01	6.465396e+14	3.455258e+14	1.699279e+14	1.021393e+04	5.579234e+03	3.159389e+03	0	1.087079e-03
3.100000e+08	4.789548e+13	0.000000e+00	6.818182e-01	6.389878e+14	3.543400e+14	1.690415e+14	1.018934e+04	5.602875e+03	3.172777e+03	0	1.081835e-03
3.200000e+08	4.720281e+13	0.000000e+00	6.818182e-01	6.315139e+14	3.629857e+14	1.681615e+14	1.016503e+04	5.625646e+03	3.185671e+03	0	1.076594e-03
3.300000e+08	4.651766e+13	0.000000e+00	6.818182e-01	6.241215e+14	3.714521e+14	1.672880e+14	1.014100e+04	5.647559e+03	3.198080e+03	0	1.071360e-03
3.400000e+08	4.584035e+13	0.000000e+00	6.818182e-01	6.168138e+14	3.797290e+14	1.664208e+14	1.011726e+04	5.668629e+03	3.210011e+03	0	1.066135e-03
3.500000e+08	4.517118e+13	0.000000e+00	6.818182e-01	6.095937e+14	3.878076e+14	1.655599e+14	1.009379e+04	5.688869e+03	3.221473e+03	0	1.060921e-03
3.600000e+08	4.451039e+13	0.000000e+00	6.818182e-01	6.024637e+14	3.956797e+14	1.647052e+14	1.007060e+04	5.708295e+03	3.232473e+03	0	1.055723e-03
3.700000e+08	4.385820e+13	0.000000e+00	6.818182e-01	5.954262e+14	4.033382e+14	1.638567e+14	1.004767e+04	5.726922e+03	3.243021e+03	0	1.050541e-03
3.800000e+08	4.321481e+13	0.000000e+00	6.818182e-01	5.884829e+14	4.107768e+14	1.630143e+14	1.002502e+04	5.744766e+03	3.253126e+03	0	1.045379e-03
3.900000e+08	4.258038e+13	0.000000e+00	6.818182e-01	5.816357e+14	4.179901e+14	1.621781e+14	1.000263e+04	5.761844e+03	3.262796e+03	0	1.040238e-03
4.000000e+08	4.195505e+13	0.000000e+00	6.818182e-01	5.748856e+14	4.249736e+14	1.613479e+14	9.980493e+03	5.778172e+03	3.272043e+03	0	1.035120e-03
4.100000e+08	4.133892e+13	0.000000e+00	6.818182e-01	5.682340e+14	4.317235e+14	1.605236e+14	9.958616e+03	5.793767e+03	3.280874e+03	0	1.030028e-03
4.200000e+08	4.073208e+13	0.000000e+00	6.818182e-01	5.616816e+14	4.382370e+14	1.597054e+14	9.936991e+03	5.808648e+03	3.289300e+03	0	1.024963e-03
4.300000e+08	4.013459e+13	0.000000e+00	6.818182e-01	5.552289e+14	4.445119e+14	1.588930e+14	9.915615e+03	5.822830e+03	3.297331e+03	0	1.019927e-03
4.400000e+08	3.954650e+13	0.000000e+00	6.818182e-01	5.488763e+14	4.505469e+14	1.580864e+14	9.894484e+03	5.836331e+03	3.304977e+03	0	1.014921e-03
4.500000e+08	3.896782e+13	0.000000e+00	6.818182e-01	5.426240e+14	4.563412e+14	1.572856e+14	9.873594e+03	5.849170e+03	3.312247e+03	0	1.009946e-03
4.600000e+08	3.839856e+13	0.000000e+00	6.818182e-01	5.364720e+14	4.618947e+14	1.564906e+14	9.852941e+03	5.861363e+03	3.319152e+03	0	1.005004e-03
4.700000e+08	3.783869e+13	0.000000e+00	6.818182e-01	5.304200e+14	4.672080e+14	1.557013e+14	9.832521e+03	5.872928e+03	3.325701e+03	0	1.000095e-03
4.800000e+08	3.728819e+13	0.000000e+00	6.818182e-01	5.244677e+14	4.722822e+14	1.549177e+14	9.812332e+03	5.883883e+03	3.331904e+03	0	9.952218e-04
4.900000e+08	3.674701e+13	0.000000e+00	6.818182e-01	5.186144e+14	4.771189e+14	1.541396e+14	9.792368e+03	5.894245e+03	3.337772e+03	0	9.903836e-04
5.000000e+08	3.621509e+13	0.000000e+00	6.818182e-01	5.128596e+14	4.817202e+14	1.533672e+14	9.772626e+03	5.904031e+03	3.343314e+03	0	9.855817e-04
5.100000e+08	3.569236e+13	0.000000e+00	6.818182e-01	5.072025e+14	4.860887e+14	1.526002e+14	9.753103e+03	5.913259e+03	3.348540e+03	0	9.808167e-04
5.200000e+08	3.517874e+13	0.000000e+00	6.818182e-01	5.016420e+14	4.902273e+14	1.518387e+14	9.733794e+03	5.921946e+03	3.353459e+03	0	9.760892e-04
5.300000e+08	3.467412e+13	0.000000e+00	6.818182e-01	4.961774e+14	4.941396e+14	1.510827e+14	9.714697e+03	5.930108e+03	3.358081e+03	0	9.713996e-04
5.400000e+08	3.417842e+13	0.000000e+00	6.818182e-01	4.908073e+14	4.978289e+14	1.503320e+14	9.695807e+03	5.937762e+03	3.362415e+03	0	9.667483e-04
5.500000e+08	3.369151e+13	0.000000e+00	6.818182e-01	4.855307e+14	5.012994e+14	1.495867e+14	9.677121e+03	5.944924e+03	3.366470e+03	0	9.621356e-04
5.600000e+08	3.321329e+13	0.000000e+00	6.818182e-01	4.803463e+14	5.045553e+14	1.488467e+14	9.658635e+03	5.951609e+03	3.370256e+03	0	9.575617e-04
5.700000e+08	3.274364e+13	0.000000e+00	6.818182e-01	4.752527e+14	5.076010e+14	1.481119e+14	9.640346e+03	5.957835e+03	3.373782e+03	0	9.530267e-04
5.800000e+08	3.228241e+13	0.000000e+00	6.818182e-01	4.702487e+14	5.104412e+14	1.473823e+14	9.622250e+03	5.963616e+03	3.377056e+03	0	9.485308e-04
5.900000e+08	3.182948e+13	0.000000e+00	6.818182e-01	4.653328e+14	5.130807e+14	1.466579e+14	9.604344e+03	5.968968e+03	3.380086e+03	0	9.440739e-04
6.000000e+08	3.138472e+13	0.000000e+00	6.818182e-01	4.605035e+14	5.155243e+14	1.459387e+14	9.586625e+03	5.973904e+03	3.382881e+03	0	9.396560e-04
6.100000e+08	3.094799e+13	0.000000e+00	6.818182e-01	4.557595e+14	5.177773e+14	1.452245e+14	9.569089e+03	5.978440e+03	3.385450e+03	0	9.352770e-04
6.200000e+08	3.051914e+13	0.000000e+00	6.818182e-01	4.510991e+14	5.198447e+14	1.445154e+14	9.551734e+03	5.982590e+03	3.387800e+03	0	9.309368e-04
6.300000e+08	3.009802e+13	0.000000e+00	6.818182e-01	4.465209e+14	5.217318e+14	1.438113e+14	9.534555e+03	5.986367e+03	3.389939e+03	0	9.266352e-04
6.400000e+08	2.968451e+13	0.000000e+00	6.818182e-01	4.420233e+14	5.234438e+14	1.431121e+14	9.517550e+03	5.989785e+03	3.391874e+03	0	9.223719e-04
6.500000e+08	2.927845e+13	0.000000e+00	6.818182e-01	4.376047e+14	5.249861e+14	1.424179e+14	9.500716e+03	5.992858e+03	3.393614e+03	0	9.181468e-04
6.600000e+08	2.887969e+13	0.000000e+00	6.818182e-01	4.332638e+14	5.263638e+14	1.417285e+14	9.484050e+03	5.995597e+03	3.395165e+03	0	9.139594e-04
6.700000e+08	2.848808e+13	0.000000e+00	6.818182e-01	4.289988e+14	5.275824e+14	1.410440e+14	9.467549e+03	5.998015e+03	3.396535e+03	0	9.098096e-04
6.800000e+08	2.810350e+13	0.000000e+00	6.818182e-01	4.248083e+14	5.286470e+14	1.403643e+14	9.451209e+03	6.000124e+03	3.397729e+03	0	9.056969e-04
6.900000e+08	2.772578e+13	0.000000e+00	6.818182e-01	4.206907e+14	5.295628e+14	1.396894e+14	9.435029e+03	6.001936e+03	3.398755e+03	0	9.016210e-04
7.000000e+08	2.735478e+13	0.000000e+00	6.818182e-01	4.166446e+14	5.303353e+14	1.390192e+14	9.419005e+03	6.003462e+03	3.399620e+03	0	8.975814e-04
7.100000e+08	2.699037e+13	0.000000e+00	6.818182e-01	4.126683e+14	5.309693e+14	1.383537e+14	9.403135e+03	6.004714e+03	3.400328e+03	0	8.935778e-04
7.200000e+08	2.663239e+13	0.000000e+00	6.818182e-01	4.087605e+14	5.314698e+14	1.376929e+14	9.387416e+03	6.005702e+03	3.400887e+03	0	8.896097e-04
7.300000e+08	2.628072e+13	0.000000e+00	6.818182e-01	4.049196e+14	5.318419e+14	1.370367e+14	9.371846e+03	6.006435e+03	3.401303e+03	0	8.856766e-04
7.400000e+08	2.593521e+13	0.000000e+00	6.818182e-01	4.011441e+14	5.320906e+14	1.363850e+14	9.356421e+03	6.006926e+03	3.401581e+03	0	8.817782e-04
7.500000e+08	2.559572e+13	0.000000e+00	6.818182e-01	3.974327e+14	5.322206e+14	1.357379e+14	9.341139e+03	6.007182e+03	3.401726e+03	0	8.779138e-04
7.600000e+08	2.526213e+13	0.000000e+00	6.818182e-01	3.937840e+14	5.322365e+14	1.350953e+14	9.325999e+03	6.007213e+03	3.401743e+03	0	8.740832e-04
7.700000e+08	2.493430e+13	0.000000e+00	6.818182e-01	3.901965e+14	5.321431e+14	1.344572e+14	9.310997e+03	6.007029e+03	3.401639e+03	0	8.702856e-04
7.800000e+08	2.461210e+13	0.000000e+00	6.818182e-01	3.866689e+14	5.319446e+14	1.338235e+14	9.296132e+03	6.006638e+03	3.401418e+03	0	8.665208e-04
7.900000e+08	2.429540e+13	0.000000e+00	6.818182e-01	3.831998e+14	5.316456e+14	1.331942e+14	9.281400e+03	6.006048e+03	3.401084e+03	0	8.627881e-04
8.000000e+08	2.398409e+13	0.000000e+00	6.818182e-01	3.797880e+14	5.312505e+14	1.325693e+14	9.266801e+03	6.005269e+03	3.400642e+03	0	8.590870e-04
8.100000e+08	2.367803e+13	0.000000e+00	6.818182e-01	3.764321e+14	5.307630e+14	1.319487e+14	9.252331e+03	6.004307e+03	3.400098e+03	0	8.554172e-04
8.200000e+08	2.337711e+13	0.000000e+00	6.818182e-01	3.731309e+14	5.301876e+14	1.313324e+14	9.237988e+03	6.003171e+03	3.399454e+03	0	8.517779e-04
8.300000e+08	2.308121e+13	0.000000e+00	6.818182e-01	3.698831e+14	5.295281e+14	1.307204e+14	9.223771e+03	6.001867e+03	3.398716e+03	0	8.481689e-04
8.400000e+08	2.279022e+13	0.000000e+00	6.818182e-01	3.666876e+14	5.287881e+14	1.301125e+14	9.209678e+03	6.000403e+03	3.397887e+03	0	8.445894e-04
8.500000e+08	2.250403e+13	0.000000e+00	6.818182e-01	3.635431e+14	5.279717e+14	1.295089e+14	9.195705e+03	5.998786e+03	3.396972e+03	0	8.410391e-04
8.600000e+08	2.222252e+13	0.000000e+00	6.818182e-01	3.604486e+14	5.270822e+14	1.289095e+14	9.181853e+03	5.997023e+03	3.395973e+03	0	8.375174e-04
8.700000e+08	2.194559e+13	0.000000e+00	6.818182e-01	3.574029e+14	5.261230e+14	1.283141e+14	9.168117e+03	5.995118e+03	3.394894e+03	0	8.340239e-04
8.800000e+08	2.167313e+13	0.000000e+00	6.818182e-01	3.544048e+14	5.250978e+14	1.277229e+14	9.154498e+03	5.993080e+03	3.393740e+03	0	8.305580e-04
8.900000e+08	2.140505e+13	0.000000e+00	6.818182e-01	3.514533e+14	5.240095e+14	1.271357e+14	9.140993e+03	5.990913e+03	3.392513e+03	0	8.271193e-04
9.000000e+08	2.114124e+13	0.000000e+00	6.818182e-01	3.485475e+14	5.228615e+14	1.265526e+14	9.127599e+03	5.988624e+03	3.391217e+03	0	8.237073e-04
9.100000e+08	2.088160e+13	0.000000e+00	6.818182e-01	3.456861e+14	5.216566e+14	1.259734e+14	9.114316e+03	5.986217e+03	3.389854e+03	0	8.203214e-04
9.200000e+08	2.062605e+13	0.000000e+00	6.818182e-01	3.428684e+14	5.203979e+14	1.253983e+14	9.101142e+03	5.983698e+03	3.388427e+03	0	8.169613e-04
9.300000e+08	2.037450e+13	0.000000e+00	6.818182e-01	3.400932e+14	5.190882e+14	1.248270e+14	9.088075e+03	5.981073e+03	3.386941e+03	0	8.136265e-04
9.400000e+08	2.012684e+13	0.000000e+00	6.818182e-01	3.373596e+14	5.177301e+14	1.242597e+14	9.075114e+03	5.978345e+03	3.385396e+03	0	8.103164e-04
9.500000e+08	1.988299e+13	0.000000e+00	6.818182e-01	3.346668e+14	5.163264e+14	1.236962e+14	9.062256e+03	5.975521e+03	3.383797e+03	0	8.070306e-04
9.600000e+08	1.964288e+13	0.000000e+00	6.818182e-01	3.320138e+14	5.148795e+14	1.231366e+14	9.049501e+03	5.972603e+03	3.382145e+03	0	8.037688e-04
9.700000e+08	1.940641e+13	0.000000e+00	6.818182e-01	3.293998e+14	5.133919e+14	1.225808e+14	9.036846e+03	5.969597e+03	3.380442e+03	0	8.005304e-04
9.800000e+08	1.917350e+13	0.000000e+00	6.818182e-01	3.268238e+14	5.118658e+14	1.220287e+14	9.024291e+03	5.966507e+03	3.378693e+03	0	7.973150e-04
9.900000e+08	1.894409e+13	0.000000e+00	6.818182e-01	3.242851e+14	5.103036e+14	1.214805e+14	9.011834e+03	5.963337e+03	3.376897e+03	0	7.941222e-04
1.000000e+09	1.871808e+13	0.000000e+00	6.818182e-01	3.217829e+14	5.087073e+14	1.209359e+14	8.999473e+03	5.960090e+03	3.375059e+03	0	7.909515e-04
1.010000e+09	1.849541e+13	0.000000e+00	6.818182e-01	3.193164e+14	5.070792e+14	1.203950e+14	8.987208e+03	5.956770e+03	3.373179e+03	0	7.878026e-04
1.020000e+09	1.827600e+13	0.000000e+00	6.818182e-01	3.168848e+14	5.054211e+14	1.198578e+14	8.975036e+03	5.953382e+03	3.371260e+03	0	7.846750e-04
1.030000e+09	1.805979e+13	0.000000e+00	6.818182e-01	3.144874e+14	5.037349e+14	1.193243e+14	8.962957e+03	5.949928e+03	3.369304e+03	0	7.815684e-04
1.040000e+09	1.784670e+13	0.000000e+00	6.818182e-01	3.121234e+14	5.020225e+14	1.187943e+14	8.950969e+03	5.946411e+03	3.367313e+03	0	7.784823e-04
1.050000e+09	1.763667e+13	0.000000e+00	6.818182e-01	3.097921e+14	5.002856e+14	1.182679e+14	8.939070e+03	5.942835e+03	3.365288e+03	0	7.754163e-04
1.060000e+09	1.742963e+13	0.000000e+00	6.818182e-01	3.074930e+14	4.985260e+14	1.177451e+14	8.927261e+03	5.939203e+03	3.363231e+03	0	7.723702e-04
1.070000e+09	1.722552e+13	0.000000e+00	6.818182e-01	3.052252e+14	4.967453e+14	1.172258e+14	8.915539e+03	5.935518e+03	3.361144e+03	0	7.693434e-04
1.080000e+09	1.702428e+13	0.000000e+00	6.818182e-01	3.029881e+14	4.949449e+14	1.167100e+14	8.903903e+03	5.931782e+03	3.359029e+03	0	7.663357e-04
1.090000e+09	1.682585e+13	0.000000e+00	6.818182e-01	3.007812e+14	4.931265e+14	1.161976e+14	8.892352e+03	5.927999e+03	3.356886e+03	0	7.633466e-04
1.100000e+09	1.663017e+13	0.000000e+00	6.818182e-01	2.986037e+14	4.912912e+14	1.156887e+14	8.880885e+03	5.924170e+03	3.354718e+03	0	7.603759e-04
1.110000e+09	1.643718e+13	0.000000e+00	6.818182e-01	2.964552e+14	4.894405e+14	1.151832e+14	8.869501e+03	5.920299e+03	3.352526e+03	0	7.574231e-04
1.120000e+09	1.624683e+13	0.000000e+00	6.818182e-01	2.943349e+14	4.875759e+14	1.146811e+14	8.858198e+03	5.916387e+03	3.350311e+03	0	7.544880e-04
1.130000e+09	1.605906e+13	0.000000e+00	6.818182e-01	2.922424e+14	4.856984e+14	1.141824e+14	8.846976e+03	5.912437e+03	3.348074e+03	0	7.515702e-04
1.140000e+09	1.587383e+13	0.000000e+00	6.818182e-01	2.901771e+14	4.838092e+14	1.136870e+14	8.835834e+03	5.908452e+03	3.345817e+03	0	7.486693e-04
1.150000e+09	1.569108e+13	0.000000e+00	6.818182e-01	2.881384e+14	4.819095e+14	1.131949e+14	8.824770e+03	5.904433e+03	3.343541e+03	0	7.457851e-04
1.160000e+09	1.551076e+13	0.000000e+00	6.818182e-01	2.861259e+14	4.800005e+14	1.127060e+14	8.813784e+03	5.900382e+03	3.341247e+03	0	7.429173e-04
1.170000e+09	1.533282e+13	0.000000e+00	6.818182e-01	2.841389e+14	4.780830e+14	1.122205e+14	8.802874e+03	5.896301e+03	3.338937e+03	0	7.400654e-04
1.180000e+09	1.515722e+13	0.000000e+00	6.818182e-01	2.821771e+14	4.761581e+14	1.117381e+14	8.792040e+03	5.892193e+03	3.336610e+03	0	7.372294e-04
1.190000e+09	1.498391e+13	0.000000e+00	6.818182e-01	2.802399e+14	4.742267e+14	1.112590e+14	8.781281e+03	5.888058e+03	3.334269e+03	0	7.344087e-04
1.200000e+09	1.481284e+13	0.000000e+00	6.818182e-01	2.783269e+14	4.722897e+14	1.107831e+14	8.770595e+03	5.883899e+03	3.331914e+03	0	7.316032e-04
1.210000e+09	1.464398e+13	0.000000e+00	6.818182e-01	2.764376e+14	4.703481e+14	1.103103e+14	8.759982e+03	5.879717e+03	3.329546e+03	0	7.288125e-04
1.220000e+09	1.447728e+13	0.000000e+00	6.818182e-01	2.745715e+14	4.684025e+14	1.098406e+14	8.749441e+03	5.875514e+03	3.327166e+03	0	7.260364e-04
1.230000e+09	1.431269e+13	0.000000e+00	6.818182e-01	2.727282e+14	4.664537e+14	1.093741e+14	8.738970e+03	5.871292e+03	3.324774e+03	0	7.232746e-04
1.240000e+09	1.415019e+13	0.000000e+00	6.818182e-01	2.709073e+14	4.645026e+14	1.089106e+14	8.728570e+03	5.867051e+03	3.322373e+03	0	7.205269e-04
1.250000e+09	1.398972e+13	0.000000e+00	6.818182e-01	2.691084e+14	4.625499e+14	1.084502e+14	8.718239e+03	5.862794e+03	3.319962e+03	0	7.177929e-04
1.260000e+09	1.383126e+13	0.000000e+00	6.818182e-01	2.673311e+14	4.605960e+14	1.079928e+14	8.707977e+03	5.858521e+03	3.317543e+03	0	7.150724e-04
1.270000e+09	1.367476e+13	0.000000e+00	6.818182e-01	2.655749e+14	4.586419e+14	1.075385e+14	8.697782e+03	5.854234e+03	3.315115e+03	0	7.123651e-04
1.280000e+09	1.352018e+13	0.000000e+00	6.818182e-01	2.638395e+14	4.566879e+14	1.070871e+14	8.687654e+03	5.849934e+03	3.312680e+03	0	7.096709e-04
1.290000e+09	1.336750e+13	0.000000e+00	6.818182e-01	2.621246e+14	4.547348e+14	1.066387e+14	8.677592e+03	5.845622e+03	3.310238e+03	0	7.069894e-04
1.300000e+09	1.321668e+13	0.000000e+00	6.818182e-01	2.604296e+14	4.527830e+14	1.061932e+14	8.667596e+03	5.841300e+03	3.307791e+03	0	7.043204e-04
1.310000e+09	1.306768e+13	0.000000e+00	6.818182e-01	2.587544e+14	4.508331e+14	1.057507e+14	8.657663e+03	5.836968e+03	3.305338e+03	0	7.016636e-04
1.320000e+09	1.292048e+13	0.000000e+00	6.818182e-01	2.570985e+14	4.488855e+14	1.053110e+14	8.647795e+03	5.832627e+03	3.302880e+03	0	6.990189e-04
1.330000e+09	1.277503e+13	0.000000e+00	6.818182e-01	2.554616e+14	4.469408e+14	1.048743e+14	8.637989e+03	5.828280e+03	3.300418e+03	0	6.963861e-04
1.340000e+09	1.263131e+13	0.000000e+00	6.818182e-01	2.538434e+14	4.449994e+14	1.044404e+14	8.628246e+03	5.823925e+03	3.297952e+03	0	6.937648e-04
1.350000e+09	1.248929e+13	0.000000e+00	6.818182e-01	2.522436e+14	4.430617e+14	1.040093e+14	8.618565e+03	5.819565e+03	3.295483e+03	0	6.911548e-04
1.360000e+09	1.234894e+13	0.000000e+00	6.818182e-01	2.506617e+14	4.411280e+14	1.035810e+14	8.608944e+03	5.815200e+03	3.293011e+03	0	6.885560e-04
