#t		Qconv[W]	Ri[Rp]		R*[Rp]		Qc[W]		Qm[W]		Qr[W]		Tcmb[K]		Tl[K]		Tup[K]		RiFlag		Bs[T]
0.000000e+00	7.601129e+13	0.000000e+00	6.732024e-01	1.027116e+15	7.726829e+13	2.756370e+14	1.277785e+04	4.853993e+03	2.656905e+03	0	1.255816e-03
1.000000e+07	7.568911e+13	0.000000e+00	6.732024e-01	1.023515e+15	8.251817e+13	2.741097e+14	1.275109e+04	4.899442e+03	2.681782e+03	0	1.254039e-03
2.000000e+07	7.534863e+13	0.000000e+00	6.732024e-01	1.019753e+15	8.798981e+13	2.725939e+14	1.272443e+04	4.944502e+03	2.706446e+03	0	1.252156e-03
3.000000e+07	7.499022e+13	0.000000e+00	6.732024e-01	1.015834e+15	9.368338e+13	2.710895e+14	1.269787e+04	4.989158e+03	2.730889e+03	0	1.250168e-03
4.000000e+07	7.461425e+13	0.000000e+00	6.732024e-01	1.011762e+15	9.959842e+13	2.695962e+14	1.267140e+04	5.033396e+03	2.755104e+03	0	1.248075e-03
5.000000e+07	7.422112e+13	0.000000e+00	6.732024e-01	1.007540e+15	1.057339e+14	2.681141e+14	1.264505e+04	5.077204e+03	2.779083e+03	0	1.245879e-03
6.000000e+07	7.381125e+13	0.000000e+00	6.732024e-01	1.003172e+15	1.120881e+14	2.666430e+14	1.261880e+04	5.120567e+03	2.802818e+03	0	1.243581e-03
7.000000e+07	7.338507e+13	0.000000e+00	6.732024e-01	9.986622e+14	1.186587e+14	2.651829e+14	1.259267e+04	5.163473e+03	2.826304e+03	0	1.241183e-03
8.000000e+07	7.294306e+13	0.000000e+00	6.732024e-01	9.940145e+14	1.254427e+14	2.637337e+14	1.256665e+04	5.205909e+03	2.849532e+03	0	1.238686e-03
9.000000e+07	7.248567e+13	0.000000e+00	6.732024e-01	9.892333e+14	1.324365e+14	2.622952e+14	1.254076e+04	5.247862e+03	2.872495e+03	0	1.236092e-03
1.000000e+08	7.201340e+13	0.000000e+00	6.732024e-01	9.843231e+14	1.396359e+14	2.608674e+14	1.251499e+04	5.289321e+03	2.895188e+03	0	1.233402e-03
1.100000e+08	7.152676e+13	0.000000e+00	6.732024e-01	9.792885e+14	1.470360e+14	2.594502e+14	1.248934e+04	5.330272e+03	2.917603e+03	0	1.230617e-03
1.200000e+08	7.102627e+13	0.000000e+00	6.732024e-01	9.741342e+14	1.546312e+14	2.580435e+14	1.246383e+04	5.370704e+03	2.939735e+03	0	1.227740e-03
1.300000e+08	7.051246e+13	0.000000e+00	6.732024e-01	9.688651e+14	1.624154e+14	2.566472e+14	1.243845e+04	5.410607e+03	2.961576e+03	0	1.224772e-03
1.400000e+08	6.998588e+13	0.000000e+00	6.732024e-01	9.634860e+14	1.703820e+14	2.552613e+14	1.241321e+04	5.449970e+03	2.983122e+03	0	1.221716e-03
1.500000e+08	6.944709e+13	0.000000e+00	6.732024e-01	9.580021e+14	1.785237e+14	2.538856e+14	1.238811e+04	5.488781e+03	3.004366e+03	0	1.218573e-03
1.600000e+08	6.889665e+13	0.000000e+00	6.732024e-01	9.524185e+14	1.868326e+14	2.525201e+14	1.236315e+04	5.527032e+03	3.025303e+03	0	1.215345e-03
1.700000e+08	6.833513e+13	0.000000e+00	6.732024e-01	9.467402e+14	1.953005e+14	2.511646e+14	1.233834e+04	5.564712e+03	3.045928e+03	0	1.212034e-03
1.800000e+08	6.776312e+13	0.000000e+00	6.732024e-01	9.409727e+14	2.039185e+14	2.498191e+14	1.231367e+04	5.601813e+03	3.066235e+03	0	1.208642e-03
1.900000e+08	6.718120e+13	0.000000e+00	6.732024e-01	9.351210e+14	2.126773e+14	2.484836e+14	1.228915e+04	5.638327e+03	3.086222e+03	0	1.205173e-03
2.000000e+08	6.658997e+13	0.000000e+00	6.732024e-01	9.291906e+14	2.215674e+14	2.471578e+14	1.226479e+04	5.674245e+03	3.105882e+03	0	1.201627e-03
2.100000e+08	6.599001e+13	0.000000e+00	6.732024e-01	9.231868e+14	2.305785e+14	2.458419e+14	1.224058e+04	5.709561e+03	3.125213e+03	0	1.198007e-03
2.200000e+08	6.538191e+13	0.000000e+00	6.732024e-01	9.171149e+14	2.397004e+14	2.445355e+14	1.221652e+04	5.744268e+03	3.144210e+03	0	1.194316e-03
2.300000e+08	6.476628e+13	0.000000e+00	6.732024e-01	9.109802e+14	2.489223e+14	2.432388e+14	1.219263e+04	5.778359e+03	3.162871e+03	0	1.190556e-03
2.400000e+08	6.414369e+13	0.000000e+00	6.732024e-01	9.047880e+14	2.582332e+14	2.419516e+14	1.216889e+04	5.811829e+03	3.181191e+03	0	1.186729e-03
2.500000e+08	6.351474e+13	0.000000e+00	6.732024e-01	8.985436e+14	2.676220e+14	2.406738e+14	1.214532e+04	5.844674e+03	3.199169e+03	0	1.182837e-03
2.600000e+08	6.288000e+13	0.000000e+00	6.732024e-01	8.922522e+14	2.770773e+14	2.394053e+14	1.212190e+04	5.876889e+03	3.216802e+03	0	1.178884e-03
2.700000e+08	6.224006e+13	0.000000e+00	6.732024e-01	8.859189e+14	2.865877e+14	2.381462e+14	1.209865e+04	5.908470e+03	3.234089e+03	0	1.174871e-03
2.800000e+08	6.159547e+13	0.000000e+00	6.732024e-01	8.795488e+14	2.961415e+14	2.368962e+14	1.207557e+04	5.939415e+03	3.251027e+03	0	1.170801e-03
2.900000e+08	6.094681e+13	0.000000e+00	6.732024e-01	8.731470e+14	3.057273e+14	2.356554e+14	1.205265e+04	5.969720e+03	3.267615e+03	0	1.166676e-03
3.000000e+08	6.029461e+13	0.000000e+00	6.732024e-01	8.667183e+14	3.153333e+14	2.344235e+14	1.202989e+04	5.999384e+03	3.283852e+03	0	1.162500e-03
3.100000e+08	5.963943e+13	0.000000e+00	6.732024e-01	8.602676e+14	3.249481e+14	2.332007e+14	1.200731e+04	6.028406e+03	3.299738e+03	0	1.158274e-03
3.200000e+08	5.898178e+13	0.000000e+00	6.732024e-01	8.537996e+14	3.345601e+14	2.319868e+14	1.198489e+04	6.056786e+03	3.315271e+03	0	1.154001e-03
3.300000e+08	5.832218e+13	0.000000e+00	6.732024e-01	8.473188e+14	3.441581e+14	2.307817e+14	1.196264e+04	6.084522e+03	3.330454e+03	0	1.149683e-03
3.400000e+08	5.766114e+13	0.000000e+00	6.732024e-01	8.408298e+14	3.537308e+14	2.295853e+14	1.194056e+04	6.111617e+03	3.345284e+03	0	1.145323e-03
3.500000e+08	5.699914e+13	0.000000e+00	6.732024e-01	8.343369e+14	3.632672e+14	2.283976e+14	1.191864e+04	6.138070e+03	3.359764e+03	0	1.140923e-03
3.600000e+08	5.633665e+13	0.000000e+00	6.732024e-01	8.278443e+14	3.727567e+14	2.272186e+14	1.189690e+04	6.163885e+03	3.373894e+03	0	1.136485e-03
3.700000e+08	5.567413e+13	0.000000e+00	6.732024e-01	8.213560e+14	3.821887e+14	2.260481e+14	1.187532e+04	6.189062e+03	3.387675e+03	0	1.132012e-03
3.800000e+08	5.501202e+13	0.000000e+00	6.732024e-01	8.148760e+14	3.915530e+14	2.248860e+14	1.185391e+04	6.213605e+03	3.401109e+03	0	1.127507e-03
3.900000e+08	5.435074e+13	0.000000e+00	6.732024e-01	8.084081e+14	4.008397e+14	2.237323e+14	1.183268e+04	6.237517e+03	3.414197e+03	0	1.122971e-03
4.000000e+08	5.369071e+13	0.000000e+00	6.732024e-01	8.019558e+14	4.100395e+14	2.225870e+14	1.181161e+04	6.260802e+03	3.426943e+03	0	1.118407e-03
4.100000e+08	5.303231e+13	0.000000e+00	6.732024e-01	7.955227e+14	4.191428e+14	2.214499e+14	1.179070e+04	6.283464e+03	3.439347e+03	0	1.113816e-03
4.200000e+08	5.237591e+13	0.000000e+00	6.732024e-01	7.891120e+14	4.281413e+14	2.203211e+14	1.176997e+04	6.305509e+03	3.451414e+03	0	1.109202e-03
4.300000e+08	5.172188e+13	0.000000e+00	6.732024e-01	7.827269e+14	4.370264e+14	2.192003e+14	1.174940e+04	6.326940e+03	3.463145e+03	0	1.104566e-03
4.400000e+08	5.107054e+13	0.000000e+00	6.732024e-01	7.763703e+14	4.457900e+14	2.180877e+14	1.172900e+04	6.347765e+03	3.474543e+03	0	1.099909e-03
4.500000e+08	5.042222e+13	0.000000e+00	6.732024e-01	7.700451e+14	4.544249e+14	2.169830e+14	1.170876e+04	6.367988e+03	3.485613e+03	0	1.095235e-03
4.600000e+08	4.977722e+13	0.000000e+00	6.732024e-01	7.637541e+14	4.629238e+14	2.158862e+14	1.168869e+04	6.387616e+03	3.496357e+03	0	1.090545e-03
4.700000e+08	4.913583e+13	0.000000e+00	6.732024e-01	7.574996e+14	4.712802e+14	2.147973e+14	1.166878e+04	6.406657e+03	3.506779e+03	0	1.085841e-03
4.800000e+08	4.849831e+13	0.000000e+00	6.732024e-01	7.512840e+14	4.794877e+14	2.137163e+14	1.164903e+04	6.425116e+03	3.516883e+03	0	1.081124e-03
4.900000e+08	4.786492e+13	0.000000e+00	6.732024e-01	7.451097e+14	4.875408e+14	2.126429e+14	1.162945e+04	6.443002e+03	3.526673e+03	0	1.076397e-03
5.000000e+08	4.723589e+13	0.000000e+00	6.732024e-01	7.389785e+14	4.954340e+14	2.115773e+14	1.161002e+04	6.460322e+03	3.536153e+03	0	1.071661e-03
5.100000e+08	4.661144e+13	0.000000e+00	6.732024e-01	7.328925e+14	5.031627e+14	2.105192e+14	1.159076e+04	6.477084e+03	3.545328e+03	0	1.066918e-03
5.200000e+08	4.599178e+13	0.000000e+00	6.732024e-01	7.268534e+14	5.107222e+14	2.094687e+14	1.157165e+04	6.493296e+03	3.554202e+03	0	1.062169e-03
5.300000e+08	4.537708e+13	0.000000e+00	6.732024e-01	7.208628e+14	5.181089e+14	2.084257e+14	1.155270e+04	6.508967e+03	3.562779e+03	0	1.057415e-03
5.400000e+08	4.476752e+13	0.000000e+00	6.732024e-01	7.149222e+14	5.253191e+14	2.073901e+14	1.153391e+04	6.524104e+03	3.571065e+03	0	1.052659e-03
5.500000e+08	4.416326e+13	0.000000e+00	6.732024e-01	7.090330e+14	5.323496e+14	2.063619e+14	1.151527e+04	6.538718e+03	3.579064e+03	0	1.047901e-03
5.600000e+08	4.356443e+13	0.000000e+00	6.732024e-01	7.031964e+14	5.391981e+14	2.053410e+14	1.149679e+04	6.552817e+03	3.586781e+03	0	1.043144e-03
5.700000e+08	4.297118e+13	0.000000e+00	6.732024e-01	6.974135e+14	5.458620e+14	2.043273e+14	1.147845e+04	6.566409e+03	3.594221e+03	0	1.038387e-03
5.800000e+08	4.238361e+13	0.000000e+00	6.732024e-01	6.916854e+14	5.523396e+14	2.033209e+14	1.146027e+04	6.579504e+03	3.601389e+03	0	1.033632e-03
5.900000e+08	4.180182e+13	0.000000e+00	6.732024e-01	6.860128e+14	5.586295e+14	2.023215e+14	1.144223e+04	6.592112e+03	3.608290e+03	0	1.028881e-03
6.000000e+08	4.122591e+13	0.000000e+00	6.732024e-01	6.803966e+14	5.647304e+14	2.013293e+14	1.142435e+04	6.604241e+03	3.614929e+03	0	1.024134e-03
6.100000e+08	4.065596e+13	0.000000e+00	6.732024e-01	6.748374e+14	5.706416e+14	2.003441e+14	1.140661e+04	6.615901e+03	3.621312e+03	0	1.019393e-03
6.200000e+08	4.009203e+13	0.000000e+00	6.732024e-01	6.693357e+14	5.763628e+14	1.993658e+14	1.138901e+04	6.627102e+03	3.627443e+03	0	1.014657e-03
6.300000e+08	3.953418e+13	0.000000e+00	6.732024e-01	6.638921e+14	5.818936e+14	1.983944e+14	1.137156e+04	6.637853e+03	3.633327e+03	0	1.009929e-03
6.400000e+08	3.898246e+13	0.000000e+00	6.732024e-01	6.585069e+14	5.872344e+14	1.974299e+14	1.135425e+04	6.648163e+03	3.638970e+03	0	1.005209e-03
6.500000e+08	3.843690e+13	0.000000e+00	6.732024e-01	6.531804e+14	5.923858e+14	1.964722e+14	1.133708e+04	6.658042e+03	3.644378e+03	0	1.000498e-03
6.600000e+08	3.789753e+13	0.000000e+00	6.732024e-01	6.479128e+14	5.973485e+14	1.955212e+14	1.132004e+04	6.667499e+03	3.649554e+03	0	9.957959e-04
6.700000e+08	3.736437e+13	0.000000e+00	6.732024e-01	6.427043e+14	6.021234e+14	1.945769e+14	1.130315e+04	6.676544e+03	3.654505e+03	0	9.911041e-04
6.800000e+08	3.683743e+13	0.000000e+00	6.732024e-01	6.375548e+14	6.067118e+14	1.936392e+14	1.128639e+04	6.685186e+03	3.659236e+03	0	9.864230e-04
6.900000e+08	3.631672e+13	0.000000e+00	6.732024e-01	6.324644e+14	6.111155e+14	1.927081e+14	1.126976e+04	6.693435e+03	3.663751e+03	0	9.817531e-04
7.000000e+08	3.580224e+13	0.000000e+00	6.732024e-01	6.274331e+14	6.153357e+14	1.917836e+14	1.125327e+04	6.701300e+03	3.668056e+03	0	9.770950e-04
7.100000e+08	3.529396e+13	0.000000e+00	6.732024e-01	6.224606e+14	6.193749e+14	1.908655e+14	1.123690e+04	6.708789e+03	3.672155e+03	0	9.724491e-04
7.200000e+08	3.479188e+13	0.000000e+00	6.732024e-01	6.175468e+14	6.232347e+14	1.899538e+14	1.122067e+04	6.715913e+03	3.676055e+03	0	9.678158e-04
7.300000e+08	3.429598e+13	0.000000e+00	6.732024e-01	6.126914e+14	6.269176e+14	1.890485e+14	1.120457e+04	6.722680e+03	3.679759e+03	0	9.631955e-04
7.400000e+08	3.380622e+13	0.000000e+00	6.732024e-01	6.078943e+14	6.304260e+14	1.881496e+14	1.118859e+04	6.729100e+03	3.683272e+03	0	9.585886e-04
7.500000e+08	3.332257e+13	0.000000e+00	6.732024e-01	6.031549e+14	6.337624e+14	1.872569e+14	1.117273e+04	6.735180e+03	3.686601e+03	0	9.539953e-04
7.600000e+08	3.284500e+13	0.000000e+00	6.732024e-01	5.984731e+14	6.369295e+14	1.863704e+14	1.115700e+04	6.740930e+03	3.689748e+03	0	9.494159e-04
7.700000e+08	3.237347e+13	0.000000e+00	6.732024e-01	5.938483e+14	6.399303e+14	1.854900e+14	1.114139e+04	6.746358e+03	3.692719e+03	0	9.448506e-04
7.800000e+08	3.190793e+13	0.000000e+00	6.732024e-01	5.892801e+14	6.427672e+14	1.846158e+14	1.112590e+04	6.751473e+03	3.695519e+03	0	9.402996e-04
7.900000e+08	3.144833e+13	0.000000e+00	6.732024e-01	5.847680e+14	6.454437e+14	1.837477e+14	1.111053e+04	6.756284e+03	3.698152e+03	0	9.357631e-04
8.000000e+08	3.099462e+13	0.000000e+00	6.732024e-01	5.803116e+14	6.479625e+14	1.828856e+14	1.109528e+04	6.760798e+03	3.700623e+03	0	9.312411e-04
8.100000e+08	3.054674e+13	0.000000e+00	6.732024e-01	5.759103e+14	6.503270e+14	1.820294e+14	1.108014e+04	6.765023e+03	3.702936e+03	0	9.267338e-04
8.200000e+08	3.010464e+13	0.000000e+00	6.732024e-01	5.715635e+14	6.525402e+14	1.811792e+14	1.106512e+04	6.768968e+03	3.705095e+03	0	9.222413e-04
8.300000e+08	2.966826e+13	0.000000e+00	6.732024e-01	5.672708e+14	6.546053e+14	1.803349e+14	1.105021e+04	6.772640e+03	3.707105e+03	0	9.177634e-04
8.400000e+08	2.923753e+13	0.000000e+00	6.732024e-01	5.630314e+14	6.565258e+14	1.794964e+14	1.103542e+04	6.776047e+03	3.708970e+03	0	9.133004e-04
8.500000e+08	2.881240e+13	0.000000e+00	6.732024e-01	5.588448e+14	6.583046e+14	1.786637e+14	1.102073e+04	6.779197e+03	3.710694e+03	0	9.088521e-04
8.600000e+08	2.839279e+13	0.000000e+00	6.732024e-01	5.547105e+14	6.599456e+14	1.778367e+14	1.100615e+04	6.782096e+03	3.712281e+03	0	9.044185e-04
8.700000e+08	2.797865e+13	0.000000e+00	6.732024e-01	5.506276e+14	6.614514e+14	1.770154e+14	1.099168e+04	6.784753e+03	3.713735e+03	0	8.999996e-04
8.800000e+08	2.756989e+13	0.000000e+00	6.732024e-01	5.465957e+14	6.628258e+14	1.761998e+14	1.097732e+04	6.787174e+03	3.715060e+03	0	8.955952e-04
8.900000e+08	2.716646e+13	0.000000e+00	6.732024e-01	5.426140e+14	6.640722e+14	1.753897e+14	1.096306e+04	6.789365e+03	3.716260e+03	0	8.912053e-04
9.000000e+08	2.676828e+13	0.000000e+00	6.732024e-01	5.386819e+14	6.651937e+14	1.745853e+14	1.094890e+04	6.791335e+03	3.717338e+03	0	8.868297e-04
9.100000e+08	2.637529e+13	0.000000e+00	6.732024e-01	5.347988e+14	6.661937e+14	1.737863e+14	1.093485e+04	6.793089e+03	3.718298e+03	0	8.824684e-04
9.200000e+08	2.598741e+13	0.000000e+00	6.732024e-01	5.309639e+14	6.670754e+14	1.729928e+14	1.092090e+04	6.794635e+03	3.719144e+03	0	8.781210e-04
9.300000e+08	2.560456e+13	0.000000e+00	6.732024e-01	5.271766e+14	6.678423e+14	1.722048e+14	1.090705e+04	6.795977e+03	3.719879e+03	0	8.737876e-04
9.400000e+08	2.522669e+13	0.000000e+00	6.732024e-01	5.234363e+14	6.684972e+14	1.714221e+14	1.089329e+04	6.797123e+03	3.720506e+03	0	8.694678e-04
9.500000e+08	2.485372e+13	0.000000e+00	6.732024e-01	5.197422e+14	6.690439e+14	1.706448e+14	1.087964e+04	6.798079e+03	3.721029e+03	0	8.651615e-04
9.600000e+08	2.448557e+13	0.000000e+00	6.732024e-01	5.160937e+14	6.694852e+14	1.698727e+14	1.086608e+04	6.798850e+03	3.721451e+03	0	8.608684e-04
9.700000e+08	2.412217e+13	0.000000e+00	6.732024e-01	5.124901e+14	6.698243e+14	1.691060e+14	1.085261e+04	6.799442e+03	3.721776e+03	0	8.565884e-04
9.800000e+08	2.376346e+13	0.000000e+00	6.732024e-01	5.089308e+14	6.700642e+14	1.683444e+14	1.083924e+04	6.799861e+03	3.722005e+03	0	8.523212e-04
9.900000e+08	2.340936e+13	0.000000e+00	6.732024e-01	5.054150e+14	6.702081e+14	1.675880e+14	1.082596e+04	6.800113e+03	3.722142e+03	0	8.480665e-04
1.000000e+09	2.305980e+13	0.000000e+00	6.732024e-01	5.019422e+14	6.702591e+14	1.668368e+14	1.081278e+04	6.800201e+03	3.722191e+03	0	8.438241e-04
1.010000e+09	2.271472e+13	0.000000e+00	6.732024e-01	4.985117e+14	6.702202e+14	1.660907e+14	1.079968e+04	6.800133e+03	3.722154e+03	0	8.395937e-04
1.020000e+09	2.237403e+13	0.000000e+00	6.732024e-01	4.951228e+14	6.700939e+14	1.653496e+14	1.078667e+04	6.799913e+03	3.722033e+03	0	8.353750e-04
1.030000e+09	2.203768e+13	0.000000e+00	6.732024e-01	4.917749e+14	6.698833e+14	1.646135e+14	1.077375e+04	6.799545e+03	3.721832e+03	0	8.311678e-04
1.040000e+09	2.170559e+13	0.000000e+00	6.732024e-01	4.884673e+14	6.695911e+14	1.638824e+14	1.076092e+04	6.799035e+03	3.721553e+03	0	8.269716e-04
1.050000e+09	2.137770e+13	0.000000e+00	6.732024e-01	4.851994e+14	6.692204e+14	1.631562e+14	1.074818e+04	6.798387e+03	3.721198e+03	0	8.227863e-04
1.060000e+09	2.105394e+13	0.000000e+00	6.732024e-01	4.819706e+14	6.687736e+14	1.624349e+14	1.073552e+04	6.797606e+03	3.720771e+03	0	8.186115e-04
1.070000e+09	2.073424e+13	0.000000e+00	6.732024e-01	4.787803e+14	6.682532e+14	1.617185e+14	1.072294e+04	6.796696e+03	3.720273e+03	0	8.144469e-04
1.080000e+09	2.041854e+13	0.000000e+00	6.732024e-01	4.756278e+14	6.676622e+14	1.610069e+14	1.071045e+04	6.795662e+03	3.719706e+03	0	8.102921e-04
1.090000e+09	2.010676e+13	0.000000e+00	6.732024e-01	4.725125e+14	6.670028e+14	1.603001e+14	1.069803e+04	6.794507e+03	3.719074e+03	0	8.061468e-04
1.100000e+09	1.979886e+13	0.000000e+00	6.732024e-01	4.694340e+14	6.662774e+14	1.595981e+14	1.068570e+04	6.793236e+03	3.718379e+03	0	8.020107e-04
1.110000e+09	1.949477e+13	0.000000e+00	6.732024e-01	4.663914e+14	6.654887e+14	1.589007e+14	1.067345e+04	6.791853e+03	3.717621e+03	0	7.978834e-04
1.120000e+09	1.919441e+13	0.000000e+00	6.732024e-01	4.633844e+14	6.646387e+14	1.582080e+14	1.066128e+04	6.790361e+03	3.716805e+03	0	7.937645e-04
1.130000e+09	1.889774e+13	0.000000e+00	6.732024e-01	4.604123e+14	6.637301e+14	1.575200e+14	1.064919e+04	6.788764e+03	3.715931e+03	0	7.896537e-04
1.140000e+09	1.860469e+13	0.000000e+00	6.732024e-01	4.574746e+14	6.627647e+14	1.568366e+14	1.063718e+04	6.787066e+03	3.715001e+03	0	7.855507e-04
1.150000e+09	1.831520e+13	0.000000e+00	6.732024e-01	4.545706e+14	6.617451e+14	1.561577e+14	1.062524e+04	6.785270e+03	3.714018e+03	0	7.814550e-04
1.160000e+09	1.802922e+13	0.000000e+00	6.732024e-01	4.516999e+14	6.606731e+14	1.554833e+14	1.061337e+04	6.783381e+03	3.712984e+03	0	7.773663e-04
1.170000e+09	1.774668e+13	0.000000e+00	6.732024e-01	4.488620e+14	6.595511e+14	1.548135e+14	1.060159e+04	6.781400e+03	3.711900e+03	0	7.732842e-04
1.180000e+09	1.746754e+13	0.000000e+00	6.732024e-01	4.460562e+14	6.583806e+14	1.541481e+14	1.058987e+04	6.779331e+03	3.710767e+03	0	7.692083e-04
1.190000e+09	1.719172e+13	0.000000e+00	6.732024e-01	4.432821e+14	6.571639e+14	1.534871e+14	1.057823e+04	6.777178e+03	3.709589e+03	0	7.651382e-04
1.200000e+09	1.691919e+13	0.000000e+00	6.732024e-01	4.405392e+14	6.559031e+14	1.528305e+14	1.056666e+04	6.774943e+03	3.708366e+03	0	7.610735e-04
1.210000e+09	1.664988e+13	0.000000e+00	6.732024e-01	4.378269e+14	6.545996e+14	1.521782e+14	1.055516e+04	6.772630e+03	3.707099e+03	0	7.570138e-04
1.220000e+09	1.638375e+13	0.000000e+00	6.732024e-01	4.351449e+14	6.532554e+14	1.515303e+14	1.054374e+04	6.770241e+03	3.705792e+03	0	7.529587e-04
1.230000e+09	1.612073e+13	0.000000e+00	6.732024e-01	4.324925e+14	6.518721e+14	1.508867e+14	1.053238e+04	6.767778e+03	3.704444e+03	0	7.489078e-04
1.240000e+09	1.586079e+13	0.000000e+00	6.732024e-01	4.298693e+14	6.504517e+14	1.502473e+14	1.052109e+04	6.765246e+03	3.703058e+03	0	7.448606e-04
1.250000e+09	1.560387e+13	0.000000e+00	6.732024e-01	4.272749e+14	6.489957e+14	1.496122e+14	1.050987e+04	6.762645e+03	3.701634e+03	0	7.408168e-04
1.260000e+09	1.534991e+13	0.000000e+00	6.732024e-01	4.247088e+14	6.475056e+14	1.489812e+14	1.049872e+04	6.759980e+03	3.700175e+03	0	7.367758e-04
1.270000e+09	1.509888e+13	0.000000e+00	6.732024e-01	4.221705e+14	6.459829e+14	1.483544e+14	1.048764e+04	6.757251e+03	3.698682e+03	0	7.327373e-04
1.280000e+09	1.485072e+13	0.000000e+00	6.732024e-01	4.196596e+14	6.444293e+14	1.477317e+14	1.047662e+04	6.754462e+03	3.697155e+03	0	7.287008e-04
1.290000e+09	1.460540e+13	0.000000e+00	6.732024e-01	4.171757e+14	6.428463e+14	1.471131e+14	1.046566e+04	6.751615e+03	3.695597e+03	0	7.246659e-04
1.300000e+09	1.436285e+13	0.000000e+00	6.732024e-01	4.147183e+14	6.412348e+14	1.464986e+14	1.045477e+04	6.748713e+03	3.694008e+03	0	7.206321e-04
1.310000e+09	1.412305e+13	0.000000e+00	6.732024e-01	4.122871e+14	6.395968e+14	1.458881e+14	1.044395e+04	6.745756e+03	3.692390e+03	0	7.165990e-04
1.320000e+09	1.388593e+13	0.000000e+00	6.732024e-01	4.098815e+14	6.379333e+14	1.452816e+14	1.043319e+04	6.742748e+03	3.690743e+03	0	7.125660e-04
1.330000e+09	1.365147e+13	0.000000e+00	6.732024e-01	4.075013e+14	6.362455e+14	1.446790e+14	1.042249e+04	6.739690e+03	3.689069e+03	0	7.085327e-04
1.340000e+09	1.341962e+13	0.000000e+00	6.732024e-01	4.051460e+14	6.345348e+14	1.440804e+14	1.041185e+04	6.736584e+03	3.687369e+03	0	7.044986e-04
1.350000e+09	1.319034e+13	0.000000e+00	6.732024e-01	4.028153e+14	6.328025e+14	1.434857e+14	1.040128e+04	6.733433e+03	3.685644e+03	0	7.004633e-04
1.360000e+09	1.296358e+13	0.000000e+00	6.732024e-01	4.005087e+14	6.310495e+14	1.428949e+14	1.039076e+04	6.730238e+03	3.683895e+03	0	6.964262e-04
