#t		Qconv[W]	Ri[Rp]		R*[Rp]		Qc[W]		Qm[W]		Qr[W]		Tcmb[K]		Tl[K]		Tup[K]		RiFlag		Bs[T]
0.000000e+00	8.795819e+13	0.000000e+00	6.732026e-01	1.252025e+15	7.420786e+13	3.119104e+14	1.390933e+04	5.112072e+03	2.714133e+03	0	1.313065e-03
1.000000e+07	8.771174e+13	0.000000e+00	6.732026e-01	1.248955e+15	7.951756e+13	3.101822e+14	1.388223e+04	5.161545e+03	2.740399e+03	0	1.311837e-03
2.000000e+07	8.744098e+13	0.000000e+00	6.732026e-01	1.245684e+15	8.507657e+13	3.084669e+14	1.385519e+04	5.210678e+03	2.766485e+03	0	1.310486e-03
3.000000e+07	8.714621e+13	0.000000e+00	6.732026e-01	1.242213e+15	9.088733e+13	3.067645e+14	1.382822e+04	5.259455e+03	2.792382e+03	0	1.309012e-03
4.000000e+07	8.682776e+13	0.000000e+00	6.732026e-01	1.238547e+15	9.695173e+13	3.050747e+14	1.380133e+04	5.307863e+03	2.818083e+03	0	1.307415e-03
5.000000e+07	8.648598e+13	0.000000e+00	6.732026e-01	1.234687e+15	1.032710e+14	3.033975e+14	1.377452e+04	5.355887e+03	2.843580e+03	0	1.305698e-03
6.000000e+07	8.612125e+13	0.000000e+00	6.732026e-01	1.230638e+15	1.098458e+14	3.017329e+14	1.374779e+04	5.403512e+03	2.868866e+03	0	1.303860e-03
7.000000e+07	8.573398e+13	0.000000e+00	6.732026e-01	1.226403e+15	1.166760e+14	3.000806e+14	1.372115e+04	5.450724e+03	2.893932e+03	0	1.301902e-03
8.000000e+07	8.532459e+13	0.000000e+00	6.732026e-01	1.221986e+15	1.237609e+14	2.984407e+14	1.369460e+04	5.497508e+03	2.918771e+03	0	1.299827e-03
9.000000e+07	8.489355e+13	0.000000e+00	6.732026e-01	1.217391e+15	1.310992e+14	2.968129e+14	1.366815e+04	5.543852e+03	2.943376e+03	0	1.297634e-03
1.000000e+08	8.444134e+13	0.000000e+00	6.732026e-01	1.212621e+15	1.386887e+14	2.951972e+14	1.364179e+04	5.589739e+03	2.967739e+03	0	1.295326e-03
1.100000e+08	8.396848e+13	0.000000e+00	6.732026e-01	1.207682e+15	1.465266e+14	2.935935e+14	1.361554e+04	5.635158e+03	2.991853e+03	0	1.292904e-03
1.200000e+08	8.347548e+13	0.000000e+00	6.732026e-01	1.202578e+15	1.546094e+14	2.920017e+14	1.358939e+04	5.680094e+03	3.015710e+03	0	1.290368e-03
1.300000e+08	8.296291e+13	0.000000e+00	6.732026e-01	1.197313e+15	1.629328e+14	2.904217e+14	1.356336e+04	5.724534e+03	3.039305e+03	0	1.287722e-03
1.400000e+08	8.243134e+13	0.000000e+00	6.732026e-01	1.191894e+15	1.714920e+14	2.888533e+14	1.353744e+04	5.768466e+03	3.062629e+03	0	1.284966e-03
1.500000e+08	8.188136e+13	0.000000e+00	6.732026e-01	1.186324e+15	1.802814e+14	2.872966e+14	1.351163e+04	5.811876e+03	3.085677e+03	0	1.282102e-03
1.600000e+08	8.131359e+13	0.000000e+00	6.732026e-01	1.180609e+15	1.892945e+14	2.857513e+14	1.348595e+04	5.854753e+03	3.108441e+03	0	1.279131e-03
1.700000e+08	8.072866e+13	0.000000e+00	6.732026e-01	1.174754e+15	1.985245e+14	2.842175e+14	1.346039e+04	5.897085e+03	3.130917e+03	0	1.276057e-03
1.800000e+08	8.012722e+13	0.000000e+00	6.732026e-01	1.168766e+15	2.079636e+14	2.826950e+14	1.343496e+04	5.938861e+03	3.153096e+03	0	1.272880e-03
1.900000e+08	7.950992e+13	0.000000e+00	6.732026e-01	1.162649e+15	2.176038e+14	2.811837e+14	1.340965e+04	5.980069e+03	3.174975e+03	0	1.269603e-03
2.000000e+08	7.887744e+13	0.000000e+00	6.732026e-01	1.156410e+15	2.274360e+14	2.796835e+14	1.338448e+04	6.020699e+03	3.196546e+03	0	1.266227e-03
2.100000e+08	7.823046e+13	0.000000e+00	6.732026e-01	1.150054e+15	2.374509e+14	2.781943e+14	1.335944e+04	6.060741e+03	3.217806e+03	0	1.262756e-03
2.200000e+08	7.756968e+13	0.000000e+00	6.732026e-01	1.143587e+15	2.476385e+14	2.767161e+14	1.333454e+04	6.100186e+03	3.238748e+03	0	1.259190e-03
2.300000e+08	7.689579e+13	0.000000e+00	6.732026e-01	1.137015e+15	2.579884e+14	2.752487e+14	1.330978e+04	6.139025e+03	3.259369e+03	0	1.255533e-03
2.400000e+08	7.620951e+13	0.000000e+00	6.732026e-01	1.130345e+15	2.684896e+14	2.737921e+14	1.328516e+04	6.177250e+03	3.279663e+03	0	1.251787e-03
2.500000e+08	7.551154e+13	0.000000e+00	6.732026e-01	1.123581e+15	2.791307e+14	2.723461e+14	1.326069e+04	6.214852e+03	3.299627e+03	0	1.247954e-03
2.600000e+08	7.480260e+13	0.000000e+00	6.732026e-01	1.116731e+15	2.899001e+14	2.709108e+14	1.323636e+04	6.251825e+03	3.319257e+03	0	1.244036e-03
2.700000e+08	7.408339e+13	0.000000e+00	6.732026e-01	1.109800e+15	3.007856e+14	2.694859e+14	1.321218e+04	6.288162e+03	3.338549e+03	0	1.240036e-03
2.800000e+08	7.335465e+13	0.000000e+00	6.732026e-01	1.102795e+15	3.117751e+14	2.680714e+14	1.318815e+04	6.323856e+03	3.357501e+03	0	1.235957e-03
2.900000e+08	7.261706e+13	0.000000e+00	6.732026e-01	1.095721e+15	3.228557e+14	2.666673e+14	1.316427e+04	6.358904e+03	3.376108e+03	0	1.231800e-03
3.000000e+08	7.187135e+13	0.000000e+00	6.732026e-01	1.088585e+15	3.340147e+14	2.652734e+14	1.314054e+04	6.393299e+03	3.394369e+03	0	1.227569e-03
3.100000e+08	7.111820e+13	0.000000e+00	6.732026e-01	1.081391e+15	3.452391e+14	2.638896e+14	1.311697e+04	6.427037e+03	3.412282e+03	0	1.223266e-03
3.200000e+08	7.035832e+13	0.000000e+00	6.732026e-01	1.074147e+15	3.565160e+14	2.625159e+14	1.309355e+04	6.460116e+03	3.429844e+03	0	1.218894e-03
3.300000e+08	6.959238e+13	0.000000e+00	6.732026e-01	1.066858e+15	3.678320e+14	2.611522e+14	1.307029e+04	6.492532e+03	3.447055e+03	0	1.214455e-03
3.400000e+08	6.882106e+13	0.000000e+00	6.732026e-01	1.059530e+15	3.791742e+14	2.597984e+14	1.304719e+04	6.524283e+03	3.463912e+03	0	1.209951e-03
3.500000e+08	6.804502e+13	0.000000e+00	6.732026e-01	1.052167e+15	3.905295e+14	2.584545e+14	1.302424e+04	6.555367e+03	3.480416e+03	0	1.205386e-03
3.600000e+08	6.726491e+13	0.000000e+00	6.732026e-01	1.044777e+15	4.018849e+14	2.571202e+14	1.300146e+04	6.585784e+03	3.496565e+03	0	1.200762e-03
3.700000e+08	6.648137e+13	0.000000e+00	6.732026e-01	1.037363e+15	4.132274e+14	2.557957e+14	1.297883e+04	6.615532e+03	3.512359e+03	0	1.196081e-03
3.800000e+08	6.569501e+13	0.000000e+00	6.732026e-01	1.029932e+15	4.245444e+14	2.544807e+14	1.295637e+04	6.644613e+03	3.527799e+03	0	1.191347e-03
3.900000e+08	6.490644e+13	0.000000e+00	6.732026e-01	1.022488e+15	4.358234e+14	2.531752e+14	1.293406e+04	6.673027e+03	3.542884e+03	0	1.186561e-03
4.000000e+08	6.411625e+13	0.000000e+00	6.732026e-01	1.015037e+15	4.470520e+14	2.518792e+14	1.291192e+04	6.700775e+03	3.557616e+03	0	1.181726e-03
4.100000e+08	6.332500e+13	0.000000e+00	6.732026e-01	1.007582e+15	4.582185e+14	2.505925e+14	1.288994e+04	6.727859e+03	3.571996e+03	0	1.176845e-03
4.200000e+08	6.253325e+13	0.000000e+00	6.732026e-01	1.000130e+15	4.693110e+14	2.493150e+14	1.286811e+04	6.754281e+03	3.586024e+03	0	1.171919e-03
4.300000e+08	6.174152e+13	0.000000e+00	6.732026e-01	9.926830e+14	4.803181e+14	2.480468e+14	1.284645e+04	6.780046e+03	3.599704e+03	0	1.166952e-03
4.400000e+08	6.095034e+13	0.000000e+00	6.732026e-01	9.852470e+14	4.912291e+14	2.467877e+14	1.282495e+04	6.805156e+03	3.613035e+03	0	1.161946e-03
4.500000e+08	6.016019e+13	0.000000e+00	6.732026e-01	9.778255e+14	5.020333e+14	2.455376e+14	1.280361e+04	6.829615e+03	3.626021e+03	0	1.156903e-03
4.600000e+08	5.937155e+13	0.000000e+00	6.732026e-01	9.704227e+14	5.127206e+14	2.442966e+14	1.278243e+04	6.853427e+03	3.638664e+03	0	1.151826e-03
4.700000e+08	5.858486e+13	0.000000e+00	6.732026e-01	9.630421e+14	5.232812e+14	2.430644e+14	1.276142e+04	6.876599e+03	3.650966e+03	0	1.146716e-03
4.800000e+08	5.780057e+13	0.000000e+00	6.732026e-01	9.556875e+14	5.337060e+14	2.418410e+14	1.274056e+04	6.899134e+03	3.662931e+03	0	1.141576e-03
4.900000e+08	5.701907e+13	0.000000e+00	6.732026e-01	9.483623e+14	5.439862e+14	2.406264e+14	1.271986e+04	6.921040e+03	3.674561e+03	0	1.136408e-03
5.000000e+08	5.624076e+13	0.000000e+00	6.732026e-01	9.410698e+14	5.541136e+14	2.394205e+14	1.269931e+04	6.942322e+03	3.685860e+03	0	1.131213e-03
5.100000e+08	5.546602e+13	0.000000e+00	6.732026e-01	9.338129e+14	5.640801e+14	2.382232e+14	1.267893e+04	6.962986e+03	3.696831e+03	0	1.125995e-03
5.200000e+08	5.469518e+13	0.000000e+00	6.732026e-01	9.265946e+14	5.738788e+14	2.370345e+14	1.265870e+04	6.983041e+03	3.707479e+03	0	1.120754e-03
5.300000e+08	5.392858e+13	0.000000e+00	6.732026e-01	9.194177e+14	5.835025e+14	2.358542e+14	1.263863e+04	7.002492e+03	3.717806e+03	0	1.115494e-03
5.400000e+08	5.316652e+13	0.000000e+00	6.732026e-01	9.122846e+14	5.929452e+14	2.346824e+14	1.261872e+04	7.021348e+03	3.727817e+03	0	1.110214e-03
5.500000e+08	5.240930e+13	0.000000e+00	6.732026e-01	9.051979e+14	6.022010e+14	2.335188e+14	1.259895e+04	7.039616e+03	3.737516e+03	0	1.104918e-03
5.600000e+08	5.165718e+13	0.000000e+00	6.732026e-01	8.981596e+14	6.112646e+14	2.323636e+14	1.257934e+04	7.057305e+03	3.746908e+03	0	1.099607e-03
5.700000e+08	5.091042e+13	0.000000e+00	6.732026e-01	8.911719e+14	6.201313e+14	2.312165e+14	1.255989e+04	7.074423e+03	3.755996e+03	0	1.094283e-03
5.800000e+08	5.016925e+13	0.000000e+00	6.732026e-01	8.842367e+14	6.287966e+14	2.300776e+14	1.254058e+04	7.090979e+03	3.764786e+03	0	1.088947e-03
5.900000e+08	4.943388e+13	0.000000e+00	6.732026e-01	8.773558e+14	6.372570e+14	2.289468e+14	1.252143e+04	7.106981e+03	3.773282e+03	0	1.083600e-03
6.000000e+08	4.870450e+13	0.000000e+00	6.732026e-01	8.705307e+14	6.455087e+14	2.278240e+14	1.250242e+04	7.122438e+03	3.781488e+03	0	1.078244e-03
6.100000e+08	4.798131e+13	0.000000e+00	6.732026e-01	8.637629e+14	6.535490e+14	2.267091e+14	1.248356e+04	7.137359e+03	3.789411e+03	0	1.072881e-03
6.200000e+08	4.726446e+13	0.000000e+00	6.732026e-01	8.570537e+14	6.613756e+14	2.256021e+14	1.246485e+04	7.151754e+03	3.797053e+03	0	1.067511e-03
6.300000e+08	4.655409e+13	0.000000e+00	6.732026e-01	8.504044e+14	6.689864e+14	2.245029e+14	1.244628e+04	7.165633e+03	3.804422e+03	0	1.062136e-03
6.400000e+08	4.585035e+13	0.000000e+00	6.732026e-01	8.438160e+14	6.763799e+14	2.234114e+14	1.242785e+04	7.179003e+03	3.811520e+03	0	1.056757e-03
6.500000e+08	4.515335e+13	0.000000e+00	6.732026e-01	8.372895e+14	6.835546e+14	2.223276e+14	1.240957e+04	7.191876e+03	3.818355e+03	0	1.051374e-03
6.600000e+08	4.446319e+13	0.000000e+00	6.732026e-01	8.308256e+14	6.905099e+14	2.212515e+14	1.239143e+04	7.204260e+03	3.824930e+03	0	1.045990e-03
6.700000e+08	4.377997e+13	0.000000e+00	6.732026e-01	8.244251e+14	6.972454e+14	2.201830e+14	1.237343e+04	7.216166e+03	3.831251e+03	0	1.040605e-03
6.800000e+08	4.310376e+13	0.000000e+00	6.732026e-01	8.180886e+14	7.037610e+14	2.191219e+14	1.235557e+04	7.227602e+03	3.837323e+03	0	1.035220e-03
6.900000e+08	4.243463e+13	0.000000e+00	6.732026e-01	8.118166e+14	7.100570e+14	2.180683e+14	1.233784e+04	7.238579e+03	3.843151e+03	0	1.029835e-03
7.000000e+08	4.177263e+13	0.000000e+00	6.732026e-01	8.056094e+14	7.161341e+14	2.170220e+14	1.232025e+04	7.249107e+03	3.848740e+03	0	1.024451e-03
7.100000e+08	4.111781e+13	0.000000e+00	6.732026e-01	7.994674e+14	7.219929e+14	2.159831e+14	1.230280e+04	7.259194e+03	3.854096e+03	0	1.019070e-03
7.200000e+08	4.047019e+13	0.000000e+00	6.732026e-01	7.933909e+14	7.276349e+14	2.149515e+14	1.228547e+04	7.268851e+03	3.859223e+03	0	1.013692e-03
7.300000e+08	3.982981e+13	0.000000e+00	6.732026e-01	7.873799e+14	7.330611e+14	2.139271e+14	1.226828e+04	7.278088e+03	3.864127e+03	0	1.008316e-03
7.400000e+08	3.919667e+13	0.000000e+00	6.732026e-01	7.814346e+14	7.382739e+14	2.129098e+14	1.225122e+04	7.286913e+03	3.868812e+03	0	1.002945e-03
7.500000e+08	3.857078e+13	0.000000e+00	6.732026e-01	7.755548e+14	7.432747e+14	2.118996e+14	1.223429e+04	7.295336e+03	3.873285e+03	0	9.975780e-04
7.600000e+08	3.795214e+13	0.000000e+00	6.732026e-01	7.697406e+14	7.480657e+14	2.108964e+14	1.221748e+04	7.303368e+03	3.877549e+03	0	9.922158e-04
7.700000e+08	3.734074e+13	0.000000e+00	6.732026e-01	7.639918e+14	7.526496e+14	2.099003e+14	1.220080e+04	7.311016e+03	3.881610e+03	0	9.868588e-04
7.800000e+08	3.673655e+13	0.000000e+00	6.732026e-01	7.583082e+14	7.570287e+14	2.089110e+14	1.218424e+04	7.318291e+03	3.885472e+03	0	9.815073e-04
7.900000e+08	3.613956e+13	0.000000e+00	6.732026e-01	7.526896e+14	7.612058e+14	2.079286e+14	1.216781e+04	7.325202e+03	3.889141e+03	0	9.761615e-04
8.000000e+08	3.554973e+13	0.000000e+00	6.732026e-01	7.471355e+14	7.651836e+14	2.069531e+14	1.215150e+04	7.331757e+03	3.892622e+03	0	9.708218e-04
8.100000e+08	3.496703e+13	0.000000e+00	6.732026e-01	7.416457e+14	7.689655e+14	2.059843e+14	1.213531e+04	7.337966e+03	3.895918e+03	0	9.654882e-04
8.200000e+08	3.439142e+13	0.000000e+00	6.732026e-01	7.362199e+14	7.725543e+14	2.050222e+14	1.211924e+04	7.343838e+03	3.899035e+03	0	9.601611e-04
8.300000e+08	3.382285e+13	0.000000e+00	6.732026e-01	7.308574e+14	7.759532e+14	2.040667e+14	1.210328e+04	7.349380e+03	3.901978e+03	0	9.548404e-04
8.400000e+08	3.326127e+13	0.000000e+00	6.732026e-01	7.255579e+14	7.791662e+14	2.031179e+14	1.208744e+04	7.354602e+03	3.904751e+03	0	9.495263e-04
8.500000e+08	3.270662e+13	0.000000e+00	6.732026e-01	7.203209e+14	7.821959e+14	2.021756e+14	1.207172e+04	7.359513e+03	3.907358e+03	0	9.442187e-04
8.600000e+08	3.215885e+13	0.000000e+00	6.732026e-01	7.151458e+14	7.850464e+14	2.012398e+14	1.205610e+04	7.364120e+03	3.909804e+03	0	9.389177e-04
8.700000e+08	3.161789e+13	0.000000e+00	6.732026e-01	7.100320e+14	7.877211e+14	2.003104e+14	1.204060e+04	7.368432e+03	3.912093e+03	0	9.336233e-04
8.800000e+08	3.108368e+13	0.000000e+00	6.732026e-01	7.049789e+14	7.902238e+14	1.993874e+14	1.202522e+04	7.372456e+03	3.914230e+03	0	9.283353e-04
8.900000e+08	3.055616e+13	0.000000e+00	6.732026e-01	6.999861e+14	7.925580e+14	1.984708e+14	1.200994e+04	7.376201e+03	3.916218e+03	0	9.230537e-04
9.000000e+08	3.003525e+13	0.000000e+00	6.732026e-01	6.950527e+14	7.947273e+14	1.975605e+14	1.199476e+04	7.379675e+03	3.918062e+03	0	9.177783e-04
9.100000e+08	2.952088e+13	0.000000e+00	6.732026e-01	6.901781e+14	7.967357e+14	1.966564e+14	1.197970e+04	7.382885e+03	3.919766e+03	0	9.125090e-04
9.200000e+08	2.901297e+13	0.000000e+00	6.732026e-01	6.853618e+14	7.985870e+14	1.957585e+14	1.196474e+04	7.385838e+03	3.921334e+03	0	9.072454e-04
9.300000e+08	2.851146e+13	0.000000e+00	6.732026e-01	6.806029e+14	8.002847e+14	1.948667e+14	1.194989e+04	7.388542e+03	3.922770e+03	0	9.019875e-04
9.400000e+08	2.801626e+13	0.000000e+00	6.732026e-01	6.759008e+14	8.018329e+14	1.939810e+14	1.193513e+04	7.391004e+03	3.924077e+03	0	8.967349e-04
9.500000e+08	2.752729e+13	0.000000e+00	6.732026e-01	6.712549e+14	8.032354e+14	1.931014e+14	1.192048e+04	7.393231e+03	3.925260e+03	0	8.914874e-04
9.600000e+08	2.704448e+13	0.000000e+00	6.732026e-01	6.666643e+14	8.044955e+14	1.922278e+14	1.190593e+04	7.395230e+03	3.926321e+03	0	8.862447e-04
9.700000e+08	2.656775e+13	0.000000e+00	6.732026e-01	6.621285e+14	8.056173e+14	1.913601e+14	1.189148e+04	7.397008e+03	3.927265e+03	0	8.810063e-04
9.800000e+08	2.609702e+13	0.000000e+00	6.732026e-01	6.576466e+14	8.066044e+14	1.904983e+14	1.187713e+04	7.398570e+03	3.928094e+03	0	8.757719e-04
9.900000e+08	2.563220e+13	0.000000e+00	6.732026e-01	6.532179e+14	8.074606e+14	1.896424e+14	1.186287e+04	7.399924e+03	3.928813e+03	0	8.705412e-04
1.000000e+09	2.517321e+13	0.000000e+00	6.732026e-01	6.488417e+14	8.081895e+14	1.887923e+14	1.184871e+04	7.401076e+03	3.929425e+03	0	8.653137e-04
1.010000e+09	2.471997e+13	0.000000e+00	6.732026e-01	6.445173e+14	8.087945e+14	1.879480e+14	1.183465e+04	7.402032e+03	3.929932e+03	0	8.600890e-04
1.020000e+09	2.427241e+13	0.000000e+00	6.732026e-01	6.402440e+14	8.092796e+14	1.871093e+14	1.182068e+04	7.402798e+03	3.930339e+03	0	8.548666e-04
1.030000e+09	2.383043e+13	0.000000e+00	6.732026e-01	6.360210e+14	8.096483e+14	1.862764e+14	1.180680e+04	7.403380e+03	3.930648e+03	0	8.496460e-04
1.040000e+09	2.339396e+13	0.000000e+00	6.732026e-01	6.318476e+14	8.099038e+14	1.854491e+14	1.179301e+04	7.403783e+03	3.930862e+03	0	8.444267e-04
1.050000e+09	2.296292e+13	0.000000e+00	6.732026e-01	6.277231e+14	8.100493e+14	1.846273e+14	1.177931e+04	7.404013e+03	3.930984e+03	0	8.392082e-04
1.060000e+09	2.253722e+13	0.000000e+00	6.732026e-01	6.236468e+14	8.100888e+14	1.838112e+14	1.176570e+04	7.404075e+03	3.931017e+03	0	8.339900e-04
1.070000e+09	2.211678e+13	0.000000e+00	6.732026e-01	6.196179e+14	8.100254e+14	1.830005e+14	1.175218e+04	7.403975e+03	3.930964e+03	0	8.287713e-04
1.080000e+09	2.170153e+13	0.000000e+00	6.732026e-01	6.156358e+14	8.098623e+14	1.821952e+14	1.173875e+04	7.403717e+03	3.930827e+03	0	8.235517e-04
1.090000e+09	2.129139e+13	0.000000e+00	6.732026e-01	6.116997e+14	8.096027e+14	1.813954e+14	1.172540e+04	7.403308e+03	3.930610e+03	0	8.183305e-04
1.100000e+09	2.088628e+13	0.000000e+00	6.732026e-01	6.078090e+14	8.092499e+14	1.806010e+14	1.171214e+04	7.402751e+03	3.930314e+03	0	8.131071e-04
1.110000e+09	2.048611e+13	0.000000e+00	6.732026e-01	6.039629e+14	8.088067e+14	1.798118e+14	1.169896e+04	7.402052e+03	3.929943e+03	0	8.078807e-04
1.120000e+09	2.009082e+13	0.000000e+00	6.732026e-01	6.001609e+14	8.082766e+14	1.790280e+14	1.168587e+04	7.401214e+03	3.929498e+03	0	8.026508e-04
1.130000e+09	1.970033e+13	0.000000e+00	6.732026e-01	5.964021e+14	8.076621e+14	1.782494e+14	1.167286e+04	7.400243e+03	3.928982e+03	0	7.974165e-04
1.140000e+09	1.931456e+13	0.000000e+00	6.732026e-01	5.926860e+14	8.069663e+14	1.774760e+14	1.165993e+04	7.399143e+03	3.928398e+03	0	7.921771e-04
1.150000e+09	1.893343e+13	0.000000e+00	6.732026e-01	5.890119e+14	8.061921e+14	1.767078e+14	1.164708e+04	7.397918e+03	3.927748e+03	0	7.869319e-04
1.160000e+09	1.855688e+13	0.000000e+00	6.732026e-01	5.853791e+14	8.053422e+14	1.759447e+14	1.163430e+04	7.396572e+03	3.927033e+03	0	7.816801e-04
1.170000e+09	1.818483e+13	0.000000e+00	6.732026e-01	5.817869e+14	8.044194e+14	1.751867e+14	1.162161e+04	7.395109e+03	3.926257e+03	0	7.764208e-04
1.180000e+09	1.781721e+13	0.000000e+00	6.732026e-01	5.782349e+14	8.034263e+14	1.744337e+14	1.160900e+04	7.393534e+03	3.925420e+03	0	7.711531e-04
1.190000e+09	1.745395e+13	0.000000e+00	6.732026e-01	5.747223e+14	8.023652e+14	1.736858e+14	1.159646e+04	7.391850e+03	3.924526e+03	0	7.658763e-04
1.200000e+09	1.709498e+13	0.000000e+00	6.732026e-01	5.712485e+14	8.012390e+14	1.729428e+14	1.158400e+04	7.390060e+03	3.923576e+03	0	7.605894e-04
1.210000e+09	1.674023e+13	0.000000e+00	6.732026e-01	5.678129e+14	8.000503e+14	1.722047e+14	1.157161e+04	7.388169e+03	3.922572e+03	0	7.552914e-04
1.220000e+09	1.638964e+13	0.000000e+00	6.732026e-01	5.644150e+14	7.988009e+14	1.714715e+14	1.155930e+04	7.386179e+03	3.921515e+03	0	7.499814e-04
1.230000e+09	1.604313e+13	0.000000e+00	6.732026e-01	5.610541e+14	7.974935e+14	1.707432e+14	1.154706e+04	7.384094e+03	3.920409e+03	0	7.446584e-04
1.240000e+09	1.570064e+13	0.000000e+00	6.732026e-01	5.577296e+14	7.961304e+14	1.700197e+14	1.153490e+04	7.381918e+03	3.919253e+03	0	7.393213e-04
1.250000e+09	1.536212e+13	0.000000e+00	6.732026e-01	5.544410e+14	7.947137e+14	1.693009e+14	1.152280e+04	7.379653e+03	3.918051e+03	0	7.339691e-04
1.260000e+09	1.502749e+13	0.000000e+00	6.732026e-01	5.511878e+14	7.932458e+14	1.685869e+14	1.151078e+04	7.377304e+03	3.916803e+03	0	7.286006e-04
1.270000e+09	1.469669e+13	0.000000e+00	6.732026e-01	5.479693e+14	7.917284e+14	1.678776e+14	1.149883e+04	7.374871e+03	3.915512e+03	0	7.232147e-04
1.280000e+09	1.436966e+13	0.000000e+00	6.732026e-01	5.447851e+14	7.901639e+14	1.671730e+14	1.148694e+04	7.372360e+03	3.914178e+03	0	7.178101e-04
1.290000e+09	1.404635e+13	0.000000e+00	6.732026e-01	5.416346e+14	7.885539e+14	1.664730e+14	1.147513e+04	7.369772e+03	3.912804e+03	0	7.123857e-04
1.300000e+09	1.372669e+13	0.000000e+00	6.732026e-01	5.385172e+14	7.869006e+14	1.657776e+14	1.146338e+04	7.367110e+03	3.911391e+03	0	7.069401e-04
1.310000e+09	1.341062e+13	0.000000e+00	6.732026e-01	5.354326e+14	7.852059e+14	1.650867e+14	1.145171e+04	7.364377e+03	3.909940e+03	0	7.014720e-04
1.320000e+09	1.309809e+13	0.000000e+00	6.732026e-01	5.323801e+14	7.834712e+14	1.644004e+14	1.144009e+04	7.361575e+03	3.908453e+03	0	6.959800e-04
1.330000e+09	1.278904e+13	0.000000e+00	6.732026e-01	5.293592e+14	7.816988e+14	1.637186e+14	1.142855e+04	7.358708e+03	3.906930e+03	0	6.904625e-04
1.340000e+09	1.248342e+13	0.000000e+00	6.732026e-01	5.263696e+14	7.798899e+14	1.630412e+14	1.141707e+04	7.355777e+03	3.905374e+03	0	6.849181e-04
1.350000e+09	1.218118e+13	0.000000e+00	6.732026e-01	5.234106e+14	7.780467e+14	1.623682e+14	1.140565e+04	7.352784e+03	3.903785e+03	0	6.793451e-04
1.360000e+09	1.188225e+13	0.000000e+00	6.732026e-01	5.204819e+14	7.761703e+14	1.616997e+14	1.139430e+04	7.349733e+03	3.902165e+03	0	6.737420e-04
