#t		Qconv[W]	Ri[Rp]		R*[Rp]		Qc[W]		Qm[W]		Qr[W]		Tcmb[K]		Tl[K]		Tup[K]		RiFlag		Bs[T]
0.000000e+00	8.836462e+13	0.000000e+00	6.732027e-01	1.314663e+15	7.237106e+13	3.259526e+14	1.430834e+04	5.205637e+03	2.737670e+03	0	1.313560e-03
1.000000e+07	8.817727e+13	0.000000e+00	6.732027e-01	1.312028e+15	7.755313e+13	3.241466e+14	1.428171e+04	5.255678e+03	2.763987e+03	0	1.312631e-03
2.000000e+07	8.796442e+13	0.000000e+00	6.732027e-01	1.309185e+15	8.298288e+13	3.223541e+14	1.425513e+04	5.305407e+03	2.790140e+03	0	1.311574e-03
3.000000e+07	8.772632e+13	0.000000e+00	6.732027e-01	1.306137e+15	8.866345e+13	3.205750e+14	1.422861e+04	5.354811e+03	2.816122e+03	0	1.310390e-03
4.000000e+07	8.746325e+13	0.000000e+00	6.732027e-01	1.302885e+15	9.459737e+13	3.188092e+14	1.420215e+04	5.403875e+03	2.841925e+03	0	1.309079e-03
5.000000e+07	8.717548e+13	0.000000e+00	6.732027e-01	1.299434e+15	1.007867e+14	3.170565e+14	1.417576e+04	5.452585e+03	2.867541e+03	0	1.307642e-03
6.000000e+07	8.686337e+13	0.000000e+00	6.732027e-01	1.295785e+15	1.072329e+14	3.153169e+14	1.414944e+04	5.500926e+03	2.892964e+03	0	1.306079e-03
7.000000e+07	8.652725e+13	0.000000e+00	6.732027e-01	1.291941e+15	1.139368e+14	3.135903e+14	1.412319e+04	5.548885e+03	2.918186e+03	0	1.304392e-03
8.000000e+07	8.616751e+13	0.000000e+00	6.732027e-01	1.287906e+15	1.208985e+14	3.118765e+14	1.409702e+04	5.596448e+03	2.943200e+03	0	1.302582e-03
9.000000e+07	8.578457e+13	0.000000e+00	6.732027e-01	1.283684e+15	1.281177e+14	3.101754e+14	1.407093e+04	5.643600e+03	2.967997e+03	0	1.300650e-03
1.000000e+08	8.537884e+13	0.000000e+00	6.732027e-01	1.279277e+15	1.355933e+14	3.084870e+14	1.404493e+04	5.690329e+03	2.992572e+03	0	1.298596e-03
1.100000e+08	8.495080e+13	0.000000e+00	6.732027e-01	1.274691e+15	1.433234e+14	3.068111e+14	1.401901e+04	5.736619e+03	3.016916e+03	0	1.296422e-03
1.200000e+08	8.450093e+13	0.000000e+00	6.732027e-01	1.269929e+15	1.513056e+14	3.051476e+14	1.399319e+04	5.782458e+03	3.041023e+03	0	1.294130e-03
1.300000e+08	8.402974e+13	0.000000e+00	6.732027e-01	1.264995e+15	1.595367e+14	3.034965e+14	1.396746e+04	5.827832e+03	3.064886e+03	0	1.291720e-03
1.400000e+08	8.353777e+13	0.000000e+00	6.732027e-01	1.259894e+15	1.680131e+14	3.018575e+14	1.394184e+04	5.872729e+03	3.088497e+03	0	1.289194e-03
1.500000e+08	8.302556e+13	0.000000e+00	6.732027e-01	1.254632e+15	1.767301e+14	3.002307e+14	1.391632e+04	5.917136e+03	3.111851e+03	0	1.286554e-03
1.600000e+08	8.249369e+13	0.000000e+00	6.732027e-01	1.249211e+15	1.856825e+14	2.986159e+14	1.389090e+04	5.961040e+03	3.134940e+03	0	1.283800e-03
1.700000e+08	8.194277e+13	0.000000e+00	6.732027e-01	1.243639e+15	1.948646e+14	2.970130e+14	1.386559e+04	6.004429e+03	3.157759e+03	0	1.280936e-03
1.800000e+08	8.137340e+13	0.000000e+00	6.732027e-01	1.237919e+15	2.042698e+14	2.954219e+14	1.384040e+04	6.047292e+03	3.180301e+03	0	1.277962e-03
1.900000e+08	8.078621e+13	0.000000e+00	6.732027e-01	1.232057e+15	2.138909e+14	2.938426e+14	1.381532e+04	6.089617e+03	3.202559e+03	0	1.274881e-03
2.000000e+08	8.018187e+13	0.000000e+00	6.732027e-01	1.226060e+15	2.237202e+14	2.922748e+14	1.379036e+04	6.131393e+03	3.224530e+03	0	1.271694e-03
2.100000e+08	7.956101e+13	0.000000e+00	6.732027e-01	1.219931e+15	2.337494e+14	2.907186e+14	1.376552e+04	6.172609e+03	3.246206e+03	0	1.268403e-03
2.200000e+08	7.892433e+13	0.000000e+00	6.732027e-01	1.213677e+15	2.439694e+14	2.891738e+14	1.374081e+04	6.213257e+03	3.267582e+03	0	1.265011e-03
2.300000e+08	7.827250e+13	0.000000e+00	6.732027e-01	1.207303e+15	2.543707e+14	2.876404e+14	1.371622e+04	6.253325e+03	3.288655e+03	0	1.261519e-03
2.400000e+08	7.760623e+13	0.000000e+00	6.732027e-01	1.200816e+15	2.649435e+14	2.861182e+14	1.369176e+04	6.292805e+03	3.309417e+03	0	1.257929e-03
2.500000e+08	7.692620e+13	0.000000e+00	6.732027e-01	1.194222e+15	2.756772e+14	2.846072e+14	1.366743e+04	6.331689e+03	3.329867e+03	0	1.254244e-03
2.600000e+08	7.623314e+13	0.000000e+00	6.732027e-01	1.187525e+15	2.865608e+14	2.831072e+14	1.364323e+04	6.369968e+03	3.349998e+03	0	1.250466e-03
2.700000e+08	7.552775e+13	0.000000e+00	6.732027e-01	1.180733e+15	2.975831e+14	2.816181e+14	1.361917e+04	6.407635e+03	3.369807e+03	0	1.246597e-03
2.800000e+08	7.481075e+13	0.000000e+00	6.732027e-01	1.173850e+15	3.087324e+14	2.801400e+14	1.359525e+04	6.444682e+03	3.389290e+03	0	1.242640e-03
2.900000e+08	7.408287e+13	0.000000e+00	6.732027e-01	1.166884e+15	3.199967e+14	2.786726e+14	1.357147e+04	6.481104e+03	3.408445e+03	0	1.238597e-03
3.000000e+08	7.334480e+13	0.000000e+00	6.732027e-01	1.159840e+15	3.313638e+14	2.772160e+14	1.354783e+04	6.516894e+03	3.427267e+03	0	1.234470e-03
3.100000e+08	7.259727e+13	0.000000e+00	6.732027e-01	1.152724e+15	3.428210e+14	2.757699e+14	1.352433e+04	6.552048e+03	3.445755e+03	0	1.230261e-03
3.200000e+08	7.184099e+13	0.000000e+00	6.732027e-01	1.145542e+15	3.543557e+14	2.743344e+14	1.350097e+04	6.586561e+03	3.463905e+03	0	1.225974e-03
3.300000e+08	7.107667e+13	0.000000e+00	6.732027e-01	1.138299e+15	3.659552e+14	2.729093e+14	1.347776e+04	6.620428e+03	3.481716e+03	0	1.221611e-03
3.400000e+08	7.030499e+13	0.000000e+00	6.732027e-01	1.131002e+15	3.776062e+14	2.714946e+14	1.345469e+04	6.653646e+03	3.499185e+03	0	1.217174e-03
3.500000e+08	6.952665e+13	0.000000e+00	6.732027e-01	1.123656e+15	3.892961e+14	2.700901e+14	1.343178e+04	6.686213e+03	3.516312e+03	0	1.212666e-03
3.600000e+08	6.874234e+13	0.000000e+00	6.732027e-01	1.116267e+15	4.010118e+14	2.686958e+14	1.340901e+04	6.718125e+03	3.533095e+03	0	1.208088e-03
3.700000e+08	6.795271e+13	0.000000e+00	6.732027e-01	1.108841e+15	4.127402e+14	2.673116e+14	1.338639e+04	6.749382e+03	3.549534e+03	0	1.203445e-03
3.800000e+08	6.715843e+13	0.000000e+00	6.732027e-01	1.101382e+15	4.244685e+14	2.659374e+14	1.336392e+04	6.779983e+03	3.565626e+03	0	1.198738e-03
3.900000e+08	6.636014e+13	0.000000e+00	6.732027e-01	1.093897e+15	4.361840e+14	2.645732e+14	1.334160e+04	6.809926e+03	3.581374e+03	0	1.193969e-03
4.000000e+08	6.555846e+13	0.000000e+00	6.732027e-01	1.086390e+15	4.478742e+14	2.632188e+14	1.331944e+04	6.839212e+03	3.596775e+03	0	1.189141e-03
4.100000e+08	6.475402e+13	0.000000e+00	6.732027e-01	1.078867e+15	4.595264e+14	2.618741e+14	1.329742e+04	6.867841e+03	3.611832e+03	0	1.184258e-03
4.200000e+08	6.394741e+13	0.000000e+00	6.732027e-01	1.071331e+15	4.711287e+14	2.605392e+14	1.327556e+04	6.895815e+03	3.626543e+03	0	1.179320e-03
4.300000e+08	6.313921e+13	0.000000e+00	6.732027e-01	1.063789e+15	4.826691e+14	2.592139e+14	1.325385e+04	6.923136e+03	3.640911e+03	0	1.174330e-03
4.400000e+08	6.232998e+13	0.000000e+00	6.732027e-01	1.056245e+15	4.941359e+14	2.578981e+14	1.323229e+04	6.949805e+03	3.654937e+03	0	1.169292e-03
4.500000e+08	6.152026e+13	0.000000e+00	6.732027e-01	1.048703e+15	5.055180e+14	2.565918e+14	1.321089e+04	6.975826e+03	3.668621e+03	0	1.164206e-03
4.600000e+08	6.071059e+13	0.000000e+00	6.732027e-01	1.041168e+15	5.168045e+14	2.552948e+14	1.318963e+04	7.001201e+03	3.681966e+03	0	1.159076e-03
4.700000e+08	5.990147e+13	0.000000e+00	6.732027e-01	1.033644e+15	5.279847e+14	2.540072e+14	1.316853e+04	7.025935e+03	3.694974e+03	0	1.153904e-03
4.800000e+08	5.909338e+13	0.000000e+00	6.732027e-01	1.026134e+15	5.390485e+14	2.527287e+14	1.314759e+04	7.050032e+03	3.707647e+03	0	1.148692e-03
4.900000e+08	5.828679e+13	0.000000e+00	6.732027e-01	1.018643e+15	5.499864e+14	2.514595e+14	1.312679e+04	7.073495e+03	3.719986e+03	0	1.143442e-03
5.000000e+08	5.748214e+13	0.000000e+00	6.732027e-01	1.011174e+15	5.607890e+14	2.501993e+14	1.310615e+04	7.096332e+03	3.731996e+03	0	1.138155e-03
5.100000e+08	5.667987e+13	0.000000e+00	6.732027e-01	1.003731e+15	5.714474e+14	2.489481e+14	1.308565e+04	7.118545e+03	3.743678e+03	0	1.132836e-03
5.200000e+08	5.588038e+13	0.000000e+00	6.732027e-01	9.963164e+14	5.819535e+14	2.477058e+14	1.306531e+04	7.140143e+03	3.755037e+03	0	1.127484e-03
5.300000e+08	5.508405e+13	0.000000e+00	6.732027e-01	9.889344e+14	5.922991e+14	2.464724e+14	1.304512e+04	7.161131e+03	3.766074e+03	0	1.122103e-03
5.400000e+08	5.429124e+13	0.000000e+00	6.732027e-01	9.815876e+14	6.024771e+14	2.452478e+14	1.302507e+04	7.181514e+03	3.776794e+03	0	1.116693e-03
5.500000e+08	5.350231e+13	0.000000e+00	6.732027e-01	9.742787e+14	6.124803e+14	2.440319e+14	1.300518e+04	7.201302e+03	3.787200e+03	0	1.111258e-03
5.600000e+08	5.271758e+13	0.000000e+00	6.732027e-01	9.670105e+14	6.223027e+14	2.428246e+14	1.298543e+04	7.220499e+03	3.797296e+03	0	1.105798e-03
5.700000e+08	5.193735e+13	0.000000e+00	6.732027e-01	9.597853e+14	6.319381e+14	2.416259e+14	1.296583e+04	7.239115e+03	3.807086e+03	0	1.100315e-03
5.800000e+08	5.116191e+13	0.000000e+00	6.732027e-01	9.526056e+14	6.413809e+14	2.404357e+14	1.294638e+04	7.257156e+03	3.816574e+03	0	1.094812e-03
5.900000e+08	5.039152e+13	0.000000e+00	6.732027e-01	9.454734e+14	6.506265e+14	2.392540e+14	1.292707e+04	7.274631e+03	3.825765e+03	0	1.089289e-03
6.000000e+08	4.962644e+13	0.000000e+00	6.732027e-01	9.383909e+14	6.596701e+14	2.380806e+14	1.290790e+04	7.291548e+03	3.834661e+03	0	1.083748e-03
6.100000e+08	4.886690e+13	0.000000e+00	6.732027e-01	9.313597e+14	6.685079e+14	2.369155e+14	1.288888e+04	7.307915e+03	3.843269e+03	0	1.078191e-03
6.200000e+08	4.811312e+13	0.000000e+00	6.732027e-01	9.243818e+14	6.771364e+14	2.357587e+14	1.287000e+04	7.323741e+03	3.851591e+03	0	1.072618e-03
6.300000e+08	4.736527e+13	0.000000e+00	6.732027e-01	9.174585e+14	6.855523e+14	2.346100e+14	1.285126e+04	7.339034e+03	3.859634e+03	0	1.067032e-03
6.400000e+08	4.662356e+13	0.000000e+00	6.732027e-01	9.105915e+14	6.937532e+14	2.334694e+14	1.283267e+04	7.353803e+03	3.867402e+03	0	1.061433e-03
6.500000e+08	4.588814e+13	0.000000e+00	6.732027e-01	9.037819e+14	7.017365e+14	2.323368e+14	1.281421e+04	7.368058e+03	3.874898e+03	0	1.055822e-03
6.600000e+08	4.515915e+13	0.000000e+00	6.732027e-01	8.970310e+14	7.095007e+14	2.312123e+14	1.279589e+04	7.381807e+03	3.882129e+03	0	1.050201e-03
6.700000e+08	4.443674e+13	0.000000e+00	6.732027e-01	8.903398e+14	7.170442e+14	2.300956e+14	1.277770e+04	7.395059e+03	3.889098e+03	0	1.044571e-03
6.800000e+08	4.372103e+13	0.000000e+00	6.732027e-01	8.837092e+14	7.243663e+14	2.289868e+14	1.275965e+04	7.407825e+03	3.895812e+03	0	1.038933e-03
6.900000e+08	4.301211e+13	0.000000e+00	6.732027e-01	8.771400e+14	7.314660e+14	2.278857e+14	1.274174e+04	7.420112e+03	3.902274e+03	0	1.033287e-03
7.000000e+08	4.231009e+13	0.000000e+00	6.732027e-01	8.706331e+14	7.383434e+14	2.267924e+14	1.272396e+04	7.431930e+03	3.908489e+03	0	1.027634e-03
7.100000e+08	4.161503e+13	0.000000e+00	6.732027e-01	8.641889e+14	7.449982e+14	2.257067e+14	1.270631e+04	7.443290e+03	3.914463e+03	0	1.021976e-03
7.200000e+08	4.092702e+13	0.000000e+00	6.732027e-01	8.578080e+14	7.514308e+14	2.246286e+14	1.268879e+04	7.454199e+03	3.920200e+03	0	1.016313e-03
7.300000e+08	4.024611e+13	0.000000e+00	6.732027e-01	8.514908e+14	7.576420e+14	2.235581e+14	1.267139e+04	7.464668e+03	3.925706e+03	0	1.010645e-03
7.400000e+08	3.957234e+13	0.000000e+00	6.732027e-01	8.452377e+14	7.636329e+14	2.224950e+14	1.265413e+04	7.474705e+03	3.930985e+03	0	1.004973e-03
7.500000e+08	3.890575e+13	0.000000e+00	6.732027e-01	8.390488e+14	7.694045e+14	2.214393e+14	1.263699e+04	7.484321e+03	3.936041e+03	0	9.992984e-04
7.600000e+08	3.824636e+13	0.000000e+00	6.732027e-01	8.329243e+14	7.749585e+14	2.203910e+14	1.261998e+04	7.493524e+03	3.940881e+03	0	9.936207e-04
7.700000e+08	3.759420e+13	0.000000e+00	6.732027e-01	8.268644e+14	7.802964e+14	2.193500e+14	1.260310e+04	7.502323e+03	3.945509e+03	0	9.879407e-04
7.800000e+08	3.694927e+13	0.000000e+00	6.732027e-01	8.208691e+14	7.854205e+14	2.183162e+14	1.258633e+04	7.510729e+03	3.949929e+03	0	9.822587e-04
7.900000e+08	3.631158e+13	0.000000e+00	6.732027e-01	8.149382e+14	7.903329e+14	2.172896e+14	1.256969e+04	7.518749e+03	3.954147e+03	0	9.765751e-04
8.000000e+08	3.568111e+13	0.000000e+00	6.732027e-01	8.090717e+14	7.950359e+14	2.162701e+14	1.255316e+04	7.526393e+03	3.958167e+03	0	9.708901e-04
8.100000e+08	3.505785e+13	0.000000e+00	6.732027e-01	8.032695e+14	7.995320e+14	2.152577e+14	1.253676e+04	7.533669e+03	3.961994e+03	0	9.652038e-04
8.200000e+08	3.444179e+13	0.000000e+00	6.732027e-01	7.975313e+14	8.038241e+14	2.142523e+14	1.252047e+04	7.540588e+03	3.965632e+03	0	9.595166e-04
8.300000e+08	3.383289e+13	0.000000e+00	6.732027e-01	7.918568e+14	8.079149e+14	2.132538e+14	1.250430e+04	7.547157e+03	3.969087e+03	0	9.538285e-04
8.400000e+08	3.323113e+13	0.000000e+00	6.732027e-01	7.862457e+14	8.118075e+14	2.122622e+14	1.248824e+04	7.553385e+03	3.972362e+03	0	9.481396e-04
8.500000e+08	3.263646e+13	0.000000e+00	6.732027e-01	7.806976e+14	8.155052e+14	2.112775e+14	1.247230e+04	7.559280e+03	3.975463e+03	0	9.424499e-04
8.600000e+08	3.204884e+13	0.000000e+00	6.732027e-01	7.752123e+14	8.190108e+14	2.102996e+14	1.245647e+04	7.564852e+03	3.978393e+03	0	9.367594e-04
8.700000e+08	3.146824e+13	0.000000e+00	6.732027e-01	7.697891e+14	8.223281e+14	2.093284e+14	1.244075e+04	7.570107e+03	3.981157e+03	0	9.310680e-04
8.800000e+08	3.089458e+13	0.000000e+00	6.732027e-01	7.644277e+14	8.254603e+14	2.083639e+14	1.242514e+04	7.575056e+03	3.983759e+03	0	9.253756e-04
8.900000e+08	3.032783e+13	0.000000e+00	6.732027e-01	7.591275e+14	8.284109e+14	2.074060e+14	1.240964e+04	7.579705e+03	3.986204e+03	0	9.196821e-04
9.000000e+08	2.976792e+13	0.000000e+00	6.732027e-01	7.538880e+14	8.311836e+14	2.064546e+14	1.239425e+04	7.584062e+03	3.988496e+03	0	9.139872e-04
9.100000e+08	2.921480e+13	0.000000e+00	6.732027e-01	7.487087e+14	8.337818e+14	2.055098e+14	1.237896e+04	7.588136e+03	3.990638e+03	0	9.082908e-04
9.200000e+08	2.866839e+13	0.000000e+00	6.732027e-01	7.435890e+14	8.362093e+14	2.045715e+14	1.236377e+04	7.591933e+03	3.992635e+03	0	9.025925e-04
9.300000e+08	2.812863e+13	0.000000e+00	6.732027e-01	7.385283e+14	8.384698e+14	2.036396e+14	1.234869e+04	7.595462e+03	3.994491e+03	0	8.968920e-04
9.400000e+08	2.759546e+13	0.000000e+00	6.732027e-01	7.335259e+14	8.405670e+14	2.027140e+14	1.233372e+04	7.598730e+03	3.996210e+03	0	8.911890e-04
9.500000e+08	2.706880e+13	0.000000e+00	6.732027e-01	7.285813e+14	8.425045e+14	2.017948e+14	1.231884e+04	7.601744e+03	3.997795e+03	0	8.854830e-04
9.600000e+08	2.654857e+13	0.000000e+00	6.732027e-01	7.236938e+14	8.442862e+14	2.008819e+14	1.230406e+04	7.604511e+03	3.999250e+03	0	8.797737e-04
9.700000e+08	2.603472e+13	0.000000e+00	6.732027e-01	7.188627e+14	8.459158e+14	1.999751e+14	1.228939e+04	7.607037e+03	4.000579e+03	0	8.740606e-04
9.800000e+08	2.552715e+13	0.000000e+00	6.732027e-01	7.140874e+14	8.473970e+14	1.990746e+14	1.227481e+04	7.609331e+03	4.001785e+03	0	8.683431e-04
9.900000e+08	2.502579e+13	0.000000e+00	6.732027e-01	7.093672e+14	8.487337e+14	1.981801e+14	1.226033e+04	7.611399e+03	4.002872e+03	0	8.626207e-04
1.000000e+09	2.453058e+13	0.000000e+00	6.732027e-01	7.047014e+14	8.499296e+14	1.972917e+14	1.224594e+04	7.613246e+03	4.003844e+03	0	8.568929e-04
1.010000e+09	2.404142e+13	0.000000e+00	6.732027e-01	7.000894e+14	8.509881e+14	1.964094e+14	1.223165e+04	7.614880e+03	4.004703e+03	0	8.511589e-04
1.020000e+09	2.355824e+13	0.000000e+00	6.732027e-01	6.955304e+14	8.519132e+14	1.955330e+14	1.221745e+04	7.616306e+03	4.005453e+03	0	8.454181e-04
1.030000e+09	2.308096e+13	0.000000e+00	6.732027e-01	6.910237e+14	8.527082e+14	1.946626e+14	1.220334e+04	7.617532e+03	4.006098e+03	0	8.396699e-04
1.040000e+09	2.260950e+13	0.000000e+00	6.732027e-01	6.865687e+14	8.533771e+14	1.937980e+14	1.218933e+04	7.618562e+03	4.006639e+03	0	8.339134e-04
1.050000e+09	2.214379e+13	0.000000e+00	6.732027e-01	6.821646e+14	8.539232e+14	1.929393e+14	1.217540e+04	7.619402e+03	4.007081e+03	0	8.281479e-04
1.060000e+09	2.168374e+13	0.000000e+00	6.732027e-01	6.778108e+14	8.543501e+14	1.920863e+14	1.216156e+04	7.620059e+03	4.007427e+03	0	8.223726e-04
1.070000e+09	2.122927e+13	0.000000e+00	6.732027e-01	6.735066e+14	8.546612e+14	1.912392e+14	1.214782e+04	7.620538e+03	4.007678e+03	0	8.165866e-04
1.080000e+09	2.078030e+13	0.000000e+00	6.732027e-01	6.692512e+14	8.548601e+14	1.903977e+14	1.213415e+04	7.620843e+03	4.007839e+03	0	8.107890e-04
1.090000e+09	2.033676e+13	0.000000e+00	6.732027e-01	6.650440e+14	8.549500e+14	1.895618e+14	1.212058e+04	7.620982e+03	4.007912e+03	0	8.049789e-04
1.100000e+09	1.989856e+13	0.000000e+00	6.732027e-01	6.608842e+14	8.549346e+14	1.887316e+14	1.210709e+04	7.620957e+03	4.007899e+03	0	7.991553e-04
1.110000e+09	1.946563e+13	0.000000e+00	6.732027e-01	6.567713e+14	8.548165e+14	1.879070e+14	1.209368e+04	7.620776e+03	4.007804e+03	0	7.933170e-04
1.120000e+09	1.903790e+13	0.000000e+00	6.732027e-01	6.527045e+14	8.545994e+14	1.870878e+14	1.208036e+04	7.620442e+03	4.007628e+03	0	7.874632e-04
1.130000e+09	1.861527e+13	0.000000e+00	6.732027e-01	6.486832e+14	8.542863e+14	1.862742e+14	1.206712e+04	7.619961e+03	4.007375e+03	0	7.815925e-04
1.140000e+09	1.819768e+13	0.000000e+00	6.732027e-01	6.447066e+14	8.538803e+14	1.854660e+14	1.205396e+04	7.619336e+03	4.007047e+03	0	7.757038e-04
1.150000e+09	1.778505e+13	0.000000e+00	6.732027e-01	6.407742e+14	8.533844e+14	1.846632e+14	1.204088e+04	7.618573e+03	4.006645e+03	0	7.697960e-04
1.160000e+09	1.737731e+13	0.000000e+00	6.732027e-01	6.368852e+14	8.528018e+14	1.838657e+14	1.202789e+04	7.617676e+03	4.006173e+03	0	7.638676e-04
1.170000e+09	1.697437e+13	0.000000e+00	6.732027e-01	6.330390e+14	8.521353e+14	1.830736e+14	1.201497e+04	7.616649e+03	4.005633e+03	0	7.579174e-04
1.180000e+09	1.657618e+13	0.000000e+00	6.732027e-01	6.292351e+14	8.513878e+14	1.822867e+14	1.200213e+04	7.615496e+03	4.005027e+03	0	7.519439e-04
1.190000e+09	1.618265e+13	0.000000e+00	6.732027e-01	6.254727e+14	8.505617e+14	1.815051e+14	1.198936e+04	7.614222e+03	4.004357e+03	0	7.459456e-04
1.200000e+09	1.579371e+13	0.000000e+00	6.732027e-01	6.217512e+14	8.496602e+14	1.807287e+14	1.197667e+04	7.612830e+03	4.003625e+03	0	7.399210e-04
1.210000e+09	1.540930e+13	0.000000e+00	6.732027e-01	6.180700e+14	8.486859e+14	1.799574e+14	1.196406e+04	7.611324e+03	4.002833e+03	0	7.338684e-04
1.220000e+09	1.502933e+13	0.000000e+00	6.732027e-01	6.144285e+14	8.476411e+14	1.791912e+14	1.195152e+04	7.609709e+03	4.001984e+03	0	7.277862e-04
1.230000e+09	1.465375e+13	0.000000e+00	6.732027e-01	6.108261e+14	8.465286e+14	1.784300e+14	1.193905e+04	7.607987e+03	4.001078e+03	0	7.216726e-04
1.240000e+09	1.428249e+13	0.000000e+00	6.732027e-01	6.072622e+14	8.453510e+14	1.776740e+14	1.192666e+04	7.606162e+03	4.000118e+03	0	7.155257e-04
1.250000e+09	1.391548e+13	0.000000e+00	6.732027e-01	6.037363e+14	8.441105e+14	1.769229e+14	1.191434e+04	7.604238e+03	3.999106e+03	0	7.093435e-04
1.260000e+09	1.355264e+13	0.000000e+00	6.732027e-01	6.002477e+14	8.428095e+14	1.761767e+14	1.190209e+04	7.602218e+03	3.998044e+03	0	7.031240e-04
1.270000e+09	1.319393e+13	0.000000e+00	6.732027e-01	5.967958e+14	8.414503e+14	1.754355e+14	1.188992e+04	7.600105e+03	3.996933e+03	0	6.968649e-04
1.280000e+09	1.283926e+13	0.000000e+00	6.732027e-01	5.933802e+14	8.400351e+14	1.746991e+14	1.187781e+04	7.597902e+03	3.995774e+03	0	6.905641e-04
1.290000e+09	1.248859e+13	0.000000e+00	6.732027e-01	5.900003e+14	8.385662e+14	1.739676e+14	1.186577e+04	7.595613e+03	3.994570e+03	0	6.842189e-04
1.300000e+09	1.214185e+13	0.000000e+00	6.732027e-01	5.866555e+14	8.370455e+14	1.732409e+14	1.185380e+04	7.593240e+03	3.993322e+03	0	6.778270e-04
1.310000e+09	1.179897e+13	0.000000e+00	6.732027e-01	5.833453e+14	8.354755e+14	1.725189e+14	1.184190e+04	7.590786e+03	3.992032e+03	0	6.713855e-04
1.320000e+09	1.145990e+13	0.000000e+00	6.732027e-01	5.800692e+14	8.338576e+14	1.718017e+14	1.183006e+04	7.588255e+03	3.990701e+03	0	6.648916e-04
1.330000e+09	1.112458e+13	0.000000e+00	6.732027e-01	5.768266e+14	8.321944e+14	1.710892e+14	1.181829e+04	7.585648e+03	3.989330e+03	0	6.583423e-04
1.340000e+09	1.079295e+13	0.000000e+00	6.732027e-01	5.736171e+14	8.304873e+14	1.703813e+14	1.180659e+04	7.582969e+03	3.987921e+03	0	6.517343e-04
1.350000e+09	1.046495e+13	0.000000e+00	6.732027e-01	5.704402e+14	8.287383e+14	1.696781e+14	1.179495e+04	7.580220e+03	3.986475e+03	0	6.450642e-04
1.360000e+09	1.014053e+13	0.000000e+00	6.732027e-01	5.672953e+14	8.269491e+14	1.689794e+14	1.178338e+04	7.577403e+03	3.984994e+03	0	6.383283e-04
