#t		Qconv[W]	Ri[Rp]		R*[Rp]		Qc[W]		Qm[W]		Qr[W]		Tcmb[K]		Tl[K]		Tup[K]		RiFlag		Bs[T]
0.000000e+00	3.961186e+15	0.000000e+00	6.754965e-01	3.195238e+16	5.238782e+13	4.436134e+14	3.368011e+04	8.104429e+03	2.913252e+03	0	4.625984e-03
1.000000e+07	3.886383e+15	0.000000e+00	6.754965e-01	3.137331e+16	1.135380e+14	4.411555e+14	3.330641e+04	8.991037e+03	3.231956e+03	0	4.596680e-03
2.000000e+07	3.790801e+15	0.000000e+00	6.754965e-01	3.064363e+16	2.165592e+14	4.387159e+14	3.293938e+04	9.859470e+03	3.544127e+03	0	4.558683e-03
3.000000e+07	3.676881e+15	0.000000e+00	6.754965e-01	2.978126e+16	3.738323e+14	4.362946e+14	3.258078e+04	1.070428e+04	3.847804e+03	0	4.512552e-03
4.000000e+07	3.547504e+15	0.000000e+00	6.754965e-01	2.880732e+16	5.957039e+14	4.338913e+14	3.223216e+04	1.152018e+04	4.141093e+03	0	4.458992e-03
5.000000e+07	3.405856e+15	0.000000e+00	6.754965e-01	2.774512e+16	8.890239e+14	4.315060e+14	3.189483e+04	1.230225e+04	4.422219e+03	0	4.398836e-03
6.000000e+07	3.255275e+15	0.000000e+00	6.754965e-01	2.661904e+16	1.256172e+15	4.291384e+14	3.156983e+04	1.304606e+04	4.689592e+03	0	4.333029e-03
7.000000e+07	3.099089e+15	0.000000e+00	6.754965e-01	2.545338e+16	1.694689e+15	4.267885e+14	3.125792e+04	1.374786e+04	4.941864e+03	0	4.262591e-03
8.000000e+07	2.940467e+15	0.000000e+00	6.754965e-01	2.427125e+16	2.197518e+15	4.244561e+14	3.095957e+04	1.440469e+04	5.177970e+03	0	4.188589e-03
9.000000e+07	2.782289e+15	0.000000e+00	6.754965e-01	2.309363e+16	2.753759e+15	4.221410e+14	3.067497e+04	1.501448e+04	5.397166e+03	0	4.112095e-03
1.000000e+08	2.627050e+15	0.000000e+00	6.754965e-01	2.193866e+16	3.349788e+15	4.198431e+14	3.040410e+04	1.557606e+04	5.599035e+03	0	4.034148e-03
1.100000e+08	2.476799e+15	0.000000e+00	6.754965e-01	2.082126e+16	3.970517e+15	4.175622e+14	3.014668e+04	1.608917e+04	5.783480e+03	0	3.955724e-03
1.200000e+08	2.333123e+15	0.000000e+00	6.754965e-01	1.975291e+16	4.600640e+15	4.152983e+14	2.990230e+04	1.655437e+04	5.950705e+03	0	3.877706e-03
1.300000e+08	2.197154e+15	0.000000e+00	6.754965e-01	1.874181e+16	5.225705e+15	4.130511e+14	2.967038e+04	1.697296e+04	6.101171e+03	0	3.800865e-03
1.400000e+08	2.069610e+15	0.000000e+00	6.754965e-01	1.779312e+16	5.832903e+15	4.108205e+14	2.945027e+04	1.734681e+04	6.235558e+03	0	3.725848e-03
1.500000e+08	1.950849e+15	0.000000e+00	6.754965e-01	1.690939e+16	6.411596e+15	4.086065e+14	2.924124e+04	1.767829e+04	6.354712e+03	0	3.653173e-03
1.600000e+08	1.840934e+15	0.000000e+00	6.754965e-01	1.609099e+16	6.953528e+15	4.064088e+14	2.904253e+04	1.797006e+04	6.459595e+03	0	3.583233e-03
1.700000e+08	1.739694e+15	0.000000e+00	6.754965e-01	1.533662e+16	7.452830e+15	4.042273e+14	2.885340e+04	1.822503e+04	6.551246e+03	0	3.516306e-03
1.800000e+08	1.646788e+15	0.000000e+00	6.754965e-01	1.464372e+16	7.905850e+15	4.020619e+14	2.867308e+04	1.844616e+04	6.630736e+03	0	3.452563e-03
1.900000e+08	1.561758e+15	0.000000e+00	6.754965e-01	1.400890e+16	8.310858e+15	3.999124e+14	2.850087e+04	1.863645e+04	6.699138e+03	0	3.392087e-03
2.000000e+08	1.484072e+15	0.000000e+00	6.754965e-01	1.342821e+16	8.667742e+15	3.977787e+14	2.833609e+04	1.879881e+04	6.757499e+03	0	3.334883e-03
2.100000e+08	1.413161e+15	0.000000e+00	6.754965e-01	1.289747e+16	8.977625e+15	3.956608e+14	2.817810e+04	1.893603e+04	6.806823e+03	0	3.280899e-03
2.200000e+08	1.348448e+15	0.000000e+00	6.754965e-01	1.241240e+16	9.242570e+15	3.935584e+14	2.802632e+04	1.905074e+04	6.848059e+03	0	3.230034e-03
2.300000e+08	1.289364e+15	0.000000e+00	6.754965e-01	1.196884e+16	9.465276e+15	3.914714e+14	2.788023e+04	1.914540e+04	6.882085e+03	0	3.182152e-03
2.400000e+08	1.235368e+15	0.000000e+00	6.754965e-01	1.156279e+16	9.648844e+15	3.893997e+14	2.773933e+04	1.922226e+04	6.909714e+03	0	3.137096e-03
2.500000e+08	1.185948e+15	0.000000e+00	6.754965e-01	1.119048e+16	9.796589e+15	3.873432e+14	2.760319e+04	1.928338e+04	6.931685e+03	0	3.094693e-03
2.600000e+08	1.140633e+15	0.000000e+00	6.754965e-01	1.084846e+16	9.911872e+15	3.853018e+14	2.747140e+04	1.933063e+04	6.948668e+03	0	3.054764e-03
2.700000e+08	1.098991e+15	0.000000e+00	6.754965e-01	1.053354e+16	9.997992e+15	3.832753e+14	2.734363e+04	1.936567e+04	6.961266e+03	0	3.017128e-03
2.800000e+08	1.060631e+15	0.000000e+00	6.754965e-01	1.024284e+16	1.005813e+16	3.812636e+14	2.721954e+04	1.939002e+04	6.970018e+03	0	2.981607e-03
2.900000e+08	1.025200e+15	0.000000e+00	6.754965e-01	9.973785e+15	1.009528e+16	3.792665e+14	2.709887e+04	1.940501e+04	6.975405e+03	0	2.948030e-03
3.000000e+08	9.923829e+14	0.000000e+00	6.754965e-01	9.724043e+15	1.011218e+16	3.772840e+14	2.698134e+04	1.941182e+04	6.977853e+03	0	2.916232e-03
3.100000e+08	9.618990e+14	0.000000e+00	6.754965e-01	9.491553e+15	1.011140e+16	3.753160e+14	2.686674e+04	1.941150e+04	6.977740e+03	0	2.886061e-03
3.200000e+08	9.334989e+14	0.000000e+00	6.754965e-01	9.274483e+15	1.009523e+16	3.733623e+14	2.675487e+04	1.940499e+04	6.975399e+03	0	2.857373e-03
3.300000e+08	9.069617e+14	0.000000e+00	6.754965e-01	9.071206e+15	1.006575e+16	3.714228e+14	2.664555e+04	1.939310e+04	6.971124e+03	0	2.830036e-03
3.400000e+08	8.820922e+14	0.000000e+00	6.754965e-01	8.880289e+15	1.002481e+16	3.694973e+14	2.653860e+04	1.937654e+04	6.965173e+03	0	2.803929e-03
3.500000e+08	8.587181e+14	0.000000e+00	6.754965e-01	8.700463e+15	9.974059e+15	3.675859e+14	2.643390e+04	1.935596e+04	6.957773e+03	0	2.778940e-03
3.600000e+08	8.366875e+14	0.000000e+00	6.754965e-01	8.530610e+15	9.914974e+15	3.656883e+14	2.633130e+04	1.933189e+04	6.949123e+03	0	2.754969e-03
3.700000e+08	8.158664e+14	0.000000e+00	6.754965e-01	8.369744e+15	9.848828e+15	3.638044e+14	2.623070e+04	1.930484e+04	6.939397e+03	0	2.731925e-03
3.800000e+08	7.961367e+14	0.000000e+00	6.754965e-01	8.216998e+15	9.776751e+15	3.619342e+14	2.613199e+04	1.927521e+04	6.928748e+03	0	2.709723e-03
3.900000e+08	7.773944e+14	0.000000e+00	6.754965e-01	8.071603e+15	9.699751e+15	3.600775e+14	2.603506e+04	1.924339e+04	6.917310e+03	0	2.688290e-03
4.000000e+08	7.595476e+14	0.000000e+00	6.754965e-01	7.932885e+15	9.618679e+15	3.582342e+14	2.593984e+04	1.920970e+04	6.905199e+03	0	2.667559e-03
4.100000e+08	7.425153e+14	0.000000e+00	6.754965e-01	7.800245e+15	9.534305e+15	3.564042e+14	2.584625e+04	1.917442e+04	6.892518e+03	0	2.647469e-03
4.200000e+08	7.262257e+14	0.000000e+00	6.754965e-01	7.673155e+15	9.447276e+15	3.545874e+14	2.575421e+04	1.913780e+04	6.879356e+03	0	2.627965e-03
4.300000e+08	7.106155e+14	0.000000e+00	6.754965e-01	7.551148e+15	9.358166e+15	3.527836e+14	2.566367e+04	1.910007e+04	6.865791e+03	0	2.608999e-03
4.400000e+08	6.956286e+14	0.000000e+00	6.754965e-01	7.433810e+15	9.267480e+15	3.509929e+14	2.557456e+04	1.906140e+04	6.851893e+03	0	2.590527e-03
4.500000e+08	6.812150e+14	0.000000e+00	6.754965e-01	7.320772e+15	9.175632e+15	3.492150e+14	2.548682e+04	1.902198e+04	6.837719e+03	0	2.572510e-03
4.600000e+08	6.673304e+14	0.000000e+00	6.754965e-01	7.211708e+15	9.082996e+15	3.474499e+14	2.540041e+04	1.898193e+04	6.823323e+03	0	2.554912e-03
4.700000e+08	6.539354e+14	0.000000e+00	6.754965e-01	7.106325e+15	8.989885e+15	3.456974e+14	2.531529e+04	1.894139e+04	6.808750e+03	0	2.537702e-03
4.800000e+08	6.409948e+14	0.000000e+00	6.754965e-01	7.004364e+15	8.896580e+15	3.439575e+14	2.523139e+04	1.890046e+04	6.794040e+03	0	2.520851e-03
4.900000e+08	6.284770e+14	0.000000e+00	6.754965e-01	6.905592e+15	8.803307e+15	3.422300e+14	2.514870e+04	1.885925e+04	6.779227e+03	0	2.504333e-03
5.000000e+08	6.163538e+14	0.000000e+00	6.754965e-01	6.809799e+15	8.710275e+15	3.405149e+14	2.506716e+04	1.881784e+04	6.764341e+03	0	2.488126e-03
5.100000e+08	6.046000e+14	0.000000e+00	6.754965e-01	6.716799e+15	8.617649e+15	3.388121e+14	2.498675e+04	1.877631e+04	6.749410e+03	0	2.472208e-03
5.200000e+08	5.931926e+14	0.000000e+00	6.754965e-01	6.626421e+15	8.525575e+15	3.371214e+14	2.490744e+04	1.873470e+04	6.734455e+03	0	2.456561e-03
5.300000e+08	5.821111e+14	0.000000e+00	6.754965e-01	6.538513e+15	8.434163e+15	3.354428e+14	2.482918e+04	1.869309e+04	6.719497e+03	0	2.441168e-03
5.400000e+08	5.713368e+14	0.000000e+00	6.754965e-01	6.452938e+15	8.343538e+15	3.337761e+14	2.475196e+04	1.865152e+04	6.704553e+03	0	2.426013e-03
5.500000e+08	5.608529e+14	0.000000e+00	6.754965e-01	6.369568e+15	8.253764e+15	3.321213e+14	2.467574e+04	1.861003e+04	6.689638e+03	0	2.411082e-03
5.600000e+08	5.506439e+14	0.000000e+00	6.754965e-01	6.288291e+15	8.164923e+15	3.304782e+14	2.460050e+04	1.856865e+04	6.674766e+03	0	2.396363e-03
5.700000e+08	5.406960e+14	0.000000e+00	6.754965e-01	6.209002e+15	8.077071e+15	3.288468e+14	2.452621e+04	1.852743e+04	6.659947e+03	0	2.381845e-03
5.800000e+08	5.309962e+14	0.000000e+00	6.754965e-01	6.131606e+15	7.990257e+15	3.272270e+14	2.445286e+04	1.848638e+04	6.645191e+03	0	2.367516e-03
5.900000e+08	5.215329e+14	0.000000e+00	6.754965e-01	6.056015e+15	7.904513e+15	3.256187e+14	2.438042e+04	1.844553e+04	6.630507e+03	0	2.353367e-03
6.000000e+08	5.122953e+14	0.000000e+00	6.754965e-01	5.982149e+15	7.819878e+15	3.240217e+14	2.430886e+04	1.840490e+04	6.615901e+03	0	2.339389e-03
6.100000e+08	5.032735e+14	0.000000e+00	6.754965e-01	5.909933e+15	7.736363e+15	3.224361e+14	2.423817e+04	1.836450e+04	6.601381e+03	0	2.325575e-03
6.200000e+08	4.944582e+14	0.000000e+00	6.754965e-01	5.839300e+15	7.653990e+15	3.208617e+14	2.416834e+04	1.832436e+04	6.586950e+03	0	2.311917e-03
6.300000e+08	4.858411e+14	0.000000e+00	6.754965e-01	5.770186e+15	7.572768e+15	3.192983e+14	2.409933e+04	1.828448e+04	6.572615e+03	0	2.298408e-03
6.400000e+08	4.774142e+14	0.000000e+00	6.754965e-01	5.702532e+15	7.492706e+15	3.177460e+14	2.403113e+04	1.824487e+04	6.558377e+03	0	2.285042e-03
6.500000e+08	4.691703e+14	0.000000e+00	6.754965e-01	5.636283e+15	7.413804e+15	3.162046e+14	2.396373e+04	1.820554e+04	6.544241e+03	0	2.271813e-03
6.600000e+08	4.611024e+14	0.000000e+00	6.754965e-01	5.571388e+15	7.336057e+15	3.146741e+14	2.389711e+04	1.816651e+04	6.530208e+03	0	2.258715e-03
6.700000e+08	4.532043e+14	0.000000e+00	6.754965e-01	5.507799e+15	7.259471e+15	3.131544e+14	2.383125e+04	1.812776e+04	6.516282e+03	0	2.245745e-03
6.800000e+08	4.454699e+14	0.000000e+00	6.754965e-01	5.445471e+15	7.184034e+15	3.116453e+14	2.376614e+04	1.808932e+04	6.502463e+03	0	2.232896e-03
6.900000e+08	4.378936e+14	0.000000e+00	6.754965e-01	5.384362e+15	7.109736e+15	3.101468e+14	2.370176e+04	1.805118e+04	6.488752e+03	0	2.220165e-03
7.000000e+08	4.304702e+14	0.000000e+00	6.754965e-01	5.324431e+15	7.036566e+15	3.086588e+14	2.363810e+04	1.801334e+04	6.475152e+03	0	2.207548e-03
7.100000e+08	4.231947e+14	0.000000e+00	6.754965e-01	5.265643e+15	6.964516e+15	3.071812e+14	2.357515e+04	1.797581e+04	6.461661e+03	0	2.195040e-03
7.200000e+08	4.160624e+14	0.000000e+00	6.754965e-01	5.207961e+15	6.893574e+15	3.057139e+14	2.351289e+04	1.793859e+04	6.448282e+03	0	2.182639e-03
7.300000e+08	4.090688e+14	0.000000e+00	6.754965e-01	5.151352e+15	6.823727e+15	3.042570e+14	2.345130e+04	1.790168e+04	6.435013e+03	0	2.170340e-03
7.400000e+08	4.022098e+14	0.000000e+00	6.754965e-01	5.095783e+15	6.754950e+15	3.028101e+14	2.339039e+04	1.786508e+04	6.421856e+03	0	2.158141e-03
7.500000e+08	3.954813e+14	0.000000e+00	6.754965e-01	5.041225e+15	6.687243e+15	3.013734e+14	2.333012e+04	1.782878e+04	6.408809e+03	0	2.146039e-03
7.600000e+08	3.888795e+14	0.000000e+00	6.754965e-01	4.987649e+15	6.620579e+15	2.999467e+14	2.327050e+04	1.779279e+04	6.395872e+03	0	2.134031e-03
7.700000e+08	3.824009e+14	0.000000e+00	6.754965e-01	4.935028e+15	6.554946e+15	2.985299e+14	2.321151e+04	1.775711e+04	6.383045e+03	0	2.122114e-03
7.800000e+08	3.760419e+14	0.000000e+00	6.754965e-01	4.883335e+15	6.490330e+15	2.971229e+14	2.315314e+04	1.772173e+04	6.370328e+03	0	2.110285e-03
7.900000e+08	3.697993e+14	0.000000e+00	6.754965e-01	4.832546e+15	6.426703e+15	2.957257e+14	2.309537e+04	1.768665e+04	6.357719e+03	0	2.098542e-03
8.000000e+08	3.636699e+14	0.000000e+00	6.754965e-01	4.782636e+15	6.364063e+15	2.943382e+14	2.303821e+04	1.765188e+04	6.345218e+03	0	2.086883e-03
8.100000e+08	3.576507e+14	0.000000e+00	6.754965e-01	4.733582e+15	6.302383e+15	2.929603e+14	2.298163e+04	1.761740e+04	6.332824e+03	0	2.075306e-03
8.200000e+08	3.517389e+14	0.000000e+00	6.754965e-01	4.685363e+15	6.241653e+15	2.915920e+14	2.292563e+04	1.758322e+04	6.320537e+03	0	2.063807e-03
8.300000e+08	3.459315e+14	0.000000e+00	6.754965e-01	4.637958e+15	6.181851e+15	2.902331e+14	2.287019e+04	1.754933e+04	6.308355e+03	0	2.052386e-03
8.400000e+08	3.402261e+14	0.000000e+00	6.754965e-01	4.591345e+15	6.122960e+15	2.888836e+14	2.281532e+04	1.751573e+04	6.296277e+03	0	2.041040e-03
8.500000e+08	3.346200e+14	0.000000e+00	6.754965e-01	4.545507e+15	6.064968e+15	2.875434e+14	2.276099e+04	1.748241e+04	6.284302e+03	0	2.029768e-03
8.600000e+08	3.291107e+14	0.000000e+00	6.754965e-01	4.500423e+15	6.007856e+15	2.862125e+14	2.270720e+04	1.744939e+04	6.272430e+03	0	2.018566e-03
8.700000e+08	3.236959e+14	0.000000e+00	6.754965e-01	4.456076e+15	5.951607e+15	2.848907e+14	2.265395e+04	1.741664e+04	6.260659e+03	0	2.007435e-03
8.800000e+08	3.183733e+14	0.000000e+00	6.754965e-01	4.412449e+15	5.896203e+15	2.835780e+14	2.260122e+04	1.738417e+04	6.248988e+03	0	1.996371e-03
8.900000e+08	3.131406e+14	0.000000e+00	6.754965e-01	4.369524e+15	5.841632e+15	2.822743e+14	2.254900e+04	1.735198e+04	6.237417e+03	0	1.985373e-03
9.000000e+08	3.079958e+14	0.000000e+00	6.754965e-01	4.327285e+15	5.787878e+15	2.809796e+14	2.249728e+04	1.732006e+04	6.225943e+03	0	1.974440e-03
9.100000e+08	3.029368e+14	0.000000e+00	6.754965e-01	4.285717e+15	5.734924e+15	2.796938e+14	2.244607e+04	1.728841e+04	6.214566e+03	0	1.963570e-03
9.200000e+08	2.979616e+14	0.000000e+00	6.754965e-01	4.244805e+15	5.682754e+15	2.784167e+14	2.239534e+04	1.725703e+04	6.203285e+03	0	1.952761e-03
9.300000e+08	2.930683e+14	0.000000e+00	6.754965e-01	4.204532e+15	5.631353e+15	2.771484e+14	2.234510e+04	1.722591e+04	6.192098e+03	0	1.942012e-03
9.400000e+08	2.882550e+14	0.000000e+00	6.754965e-01	4.164886e+15	5.580710e+15	2.758888e+14	2.229533e+04	1.719505e+04	6.181005e+03	0	1.931322e-03
9.500000e+08	2.835199e+14	0.000000e+00	6.754965e-01	4.125853e+15	5.530806e+15	2.746377e+14	2.224602e+04	1.716445e+04	6.170005e+03	0	1.920688e-03
9.600000e+08	2.788613e+14	0.000000e+00	6.754965e-01	4.087419e+15	5.481632e+15	2.733952e+14	2.219718e+04	1.713410e+04	6.159095e+03	0	1.910110e-03
9.700000e+08	2.742774e+14	0.000000e+00	6.754965e-01	4.049571e+15	5.433168e+15	2.721612e+14	2.214879e+04	1.710400e+04	6.148276e+03	0	1.899586e-03
9.800000e+08	2.697667e+14	0.000000e+00	6.754965e-01	4.012297e+15	5.385404e+15	2.709355e+14	2.210085e+04	1.707415e+04	6.137546e+03	0	1.889115e-03
9.900000e+08	2.653275e+14	0.000000e+00	6.754965e-01	3.975584e+15	5.338330e+15	2.697182e+14	2.205334e+04	1.704455e+04	6.126904e+03	0	1.878696e-03
1.000000e+09	2.609583e+14	0.000000e+00	6.754965e-01	3.939420e+15	5.291926e+15	2.685091e+14	2.200627e+04	1.701518e+04	6.116349e+03	0	1.868326e-03
1.010000e+09	2.566576e+14	0.000000e+00	6.754965e-01	3.903795e+15	5.246182e+15	2.673083e+14	2.195962e+04	1.698606e+04	6.105879e+03	0	1.858006e-03
1.020000e+09	2.524239e+14	0.000000e+00	6.754965e-01	3.868696e+15	5.201088e+15	2.661155e+14	2.191340e+04	1.695717e+04	6.095495e+03	0	1.847733e-03
1.030000e+09	2.482559e+14	0.000000e+00	6.754965e-01	3.834114e+15	5.156628e+15	2.649309e+14	2.186759e+04	1.692851e+04	6.085194e+03	0	1.837506e-03
1.040000e+09	2.441521e+14	0.000000e+00	6.754965e-01	3.800036e+15	5.112792e+15	2.637542e+14	2.182218e+04	1.690008e+04	6.074975e+03	0	1.827325e-03
1.050000e+09	2.401112e+14	0.000000e+00	6.754965e-01	3.766454e+15	5.069571e+15	2.625855e+14	2.177718e+04	1.687189e+04	6.064839e+03	0	1.817188e-03
1.060000e+09	2.361319e+14	0.000000e+00	6.754965e-01	3.733357e+15	5.026946e+15	2.614247e+14	2.173257e+04	1.684391e+04	6.054783e+03	0	1.807093e-03
1.070000e+09	2.322130e+14	0.000000e+00	6.754965e-01	3.700735e+15	4.984913e+15	2.602717e+14	2.168836e+04	1.681616e+04	6.044806e+03	0	1.797040e-03
1.080000e+09	2.283531e+14	0.000000e+00	6.754965e-01	3.668580e+15	4.943458e+15	2.591265e+14	2.164453e+04	1.678862e+04	6.034908e+03	0	1.787028e-03
1.090000e+09	2.245512e+14	0.000000e+00	6.754965e-01	3.636880e+15	4.902573e+15	2.579889e+14	2.160108e+04	1.676130e+04	6.025088e+03	0	1.777055e-03
1.100000e+09	2.208060e+14	0.000000e+00	6.754965e-01	3.605629e+15	4.862241e+15	2.568590e+14	2.155800e+04	1.673420e+04	6.015344e+03	0	1.767120e-03
1.110000e+09	2.171164e+14	0.000000e+00	6.754965e-01	3.574816e+15	4.822459e+15	2.557367e+14	2.151529e+04	1.670730e+04	6.005676e+03	0	1.757222e-03
1.120000e+09	2.134814e+14	0.000000e+00	6.754965e-01	3.544434e+15	4.783212e+15	2.546219e+14	2.147294e+04	1.668061e+04	5.996083e+03	0	1.747360e-03
1.130000e+09	2.098997e+14	0.000000e+00	6.754965e-01	3.514474e+15	4.744494e+15	2.535145e+14	2.143095e+04	1.665413e+04	5.986564e+03	0	1.737533e-03
1.140000e+09	2.063705e+14	0.000000e+00	6.754965e-01	3.484927e+15	4.706291e+15	2.524146e+14	2.138932e+04	1.662785e+04	5.977118e+03	0	1.727739e-03
1.150000e+09	2.028925e+14	0.000000e+00	6.754965e-01	3.455787e+15	4.668598e+15	2.513220e+14	2.134803e+04	1.660177e+04	5.967743e+03	0	1.717978e-03
1.160000e+09	1.994650e+14	0.000000e+00	6.754965e-01	3.427045e+15	4.631404e+15	2.502367e+14	2.130709e+04	1.657589e+04	5.958440e+03	0	1.708249e-03
1.170000e+09	1.960868e+14	0.000000e+00	6.754965e-01	3.398694e+15	4.594699e+15	2.491586e+14	2.126649e+04	1.655021e+04	5.949207e+03	0	1.698550e-03
1.180000e+09	1.927570e+14	0.000000e+00	6.754965e-01	3.370727e+15	4.558474e+15	2.480877e+14	2.122622e+04	1.652471e+04	5.940043e+03	0	1.688881e-03
1.190000e+09	1.894748e+14	0.000000e+00	6.754965e-01	3.343136e+15	4.522724e+15	2.470239e+14	2.118628e+04	1.649941e+04	5.930948e+03	0	1.679240e-03
1.200000e+09	1.862391e+14	0.000000e+00	6.754965e-01	3.315914e+15	4.487435e+15	2.459672e+14	2.114667e+04	1.647430e+04	5.921921e+03	0	1.669626e-03
1.210000e+09	1.830492e+14	0.000000e+00	6.754965e-01	3.289054e+15	4.452603e+15	2.449175e+14	2.110738e+04	1.644937e+04	5.912961e+03	0	1.660039e-03
1.220000e+09	1.799041e+14	0.000000e+00	6.754965e-01	3.262551e+15	4.418219e+15	2.438747e+14	2.106840e+04	1.642463e+04	5.904066e+03	0	1.650477e-03
1.230000e+09	1.768031e+14	0.000000e+00	6.754965e-01	3.236397e+15	4.384275e+15	2.428388e+14	2.102974e+04	1.640007e+04	5.895237e+03	0	1.640938e-03
1.240000e+09	1.737452e+14	0.000000e+00	6.754965e-01	3.210586e+15	4.350763e+15	2.418098e+14	2.099139e+04	1.637568e+04	5.886473e+03	0	1.631423e-03
1.250000e+09	1.707298e+14	0.000000e+00	6.754965e-01	3.185112e+15	4.317674e+15	2.407876e+14	2.095334e+04	1.635148e+04	5.877772e+03	0	1.621930e-03
1.260000e+09	1.677560e+14	0.000000e+00	6.754965e-01	3.159969e+15	4.285004e+15	2.397721e+14	2.091559e+04	1.632745e+04	5.869134e+03	0	1.612458e-03
1.270000e+09	1.648230e+14	0.000000e+00	6.754965e-01	3.135150e+15	4.252743e+15	2.387633e+14	2.087814e+04	1.630359e+04	5.860558e+03	0	1.603005e-03
1.280000e+09	1.619302e+14	0.000000e+00	6.754965e-01	3.110651e+15	4.220885e+15	2.377611e+14	2.084098e+04	1.627991e+04	5.852044e+03	0	1.593572e-03
1.290000e+09	1.590767e+14	0.000000e+00	6.754965e-01	3.086465e+15	4.189426e+15	2.367656e+14	2.080412e+04	1.625639e+04	5.843590e+03	0	1.584156e-03
1.300000e+09	1.562619e+14	0.000000e+00	6.754965e-01	3.062587e+15	4.158352e+15	2.357765e+14	2.076753e+04	1.623304e+04	5.835197e+03	0	1.574756e-03
1.310000e+09	1.534851e+14	0.000000e+00	6.754965e-01	3.039012e+15	4.127663e+15	2.347940e+14	2.073123e+04	1.620986e+04	5.826863e+03	0	1.565373e-03
1.320000e+09	1.507456e+14	0.000000e+00	6.754965e-01	3.015734e+15	4.097350e+15	2.338179e+14	2.069521e+04	1.618683e+04	5.818587e+03	0	1.556003e-03
1.330000e+09	1.480427e+14	0.000000e+00	6.754965e-01	2.992748e+15	4.067407e+15	2.328481e+14	2.065946e+04	1.616397e+04	5.810370e+03	0	1.546648e-03
1.340000e+09	1.453758e+14	0.000000e+00	6.754965e-01	2.970049e+15	4.037826e+15	2.318847e+14	2.062398e+04	1.614127e+04	5.802210e+03	0	1.537304e-03
1.350000e+09	1.427443e+14	0.000000e+00	6.754965e-01	2.947633e+15	4.008604e+15	2.309276e+14	2.058877e+04	1.611873e+04	5.794106e+03	0	1.527972e-03
1.360000e+09	1.401475e+14	0.000000e+00	6.754965e-01	2.925493e+15	3.979732e+15	2.299767e+14	2.055383e+04	1.609634e+04	5.786058e+03	0	1.518649e-03
