#t		Qconv[W]	Ri[Rp]		R*[Rp]		Qc[W]		Qm[W]		Qr[W]		Tcmb[K]		Tl[K]		Tup[K]		RiFlag		Bs[T]
0.000000e+00	4.016765e+15	0.000000e+00	6.754967e-01	3.239546e+16	5.052822e+13	4.572851e+14	3.417502e+04	8.190934e+03	2.931518e+03	0	4.645462e-03
1.000000e+07	3.949433e+15	0.000000e+00	6.754967e-01	3.187376e+16	1.081267e+14	4.547514e+14	3.381499e+04	9.064596e+03	3.244199e+03	0	4.619358e-03
2.000000e+07	3.861470e+15	0.000000e+00	6.754967e-01	3.120384e+16	2.047697e+14	4.522366e+14	3.346067e+04	9.922256e+03	3.551154e+03	0	4.584806e-03
3.000000e+07	3.755023e+15	0.000000e+00	6.754967e-01	3.040134e+16	3.522635e+14	4.497407e+14	3.311371e+04	1.075877e+04	3.850540e+03	0	4.542284e-03
4.000000e+07	3.632678e+15	0.000000e+00	6.754967e-01	2.948508e+16	5.608258e+14	4.472633e+14	3.277558e+04	1.156910e+04	4.140556e+03	0	4.492407e-03
5.000000e+07	3.497352e+15	0.000000e+00	6.754967e-01	2.847620e+16	8.377223e+14	4.448045e+14	3.244754e+04	1.234849e+04	4.419499e+03	0	4.435915e-03
6.000000e+07	3.352153e+15	0.000000e+00	6.754967e-01	2.739724e+16	1.186284e+15	4.423640e+14	3.213063e+04	1.309260e+04	4.685814e+03	0	4.373657e-03
7.000000e+07	3.200239e+15	0.000000e+00	6.754967e-01	2.627104e+16	1.605431e+15	4.399417e+14	3.182564e+04	1.379765e+04	4.938151e+03	0	4.306564e-03
8.000000e+07	3.044677e+15	0.000000e+00	6.754967e-01	2.511978e+16	2.089729e+15	4.375373e+14	3.153310e+04	1.446058e+04	5.175409e+03	0	4.235622e-03
9.000000e+07	2.888311e+15	0.000000e+00	6.754967e-01	2.396400e+16	2.629938e+15	4.351509e+14	3.125328e+04	1.507908e+04	5.396769e+03	0	4.161834e-03
1.000000e+08	2.733669e+15	0.000000e+00	6.754967e-01	2.282193e+16	3.213915e+15	4.327822e+14	3.098626e+04	1.565170e+04	5.601710e+03	0	4.086191e-03
1.100000e+08	2.582887e+15	0.000000e+00	6.754967e-01	2.170897e+16	3.827730e+15	4.304310e+14	3.073189e+04	1.617783e+04	5.790011e+03	0	4.009638e-03
1.200000e+08	2.437681e+15	0.000000e+00	6.754967e-01	2.063746e+16	4.456801e+15	4.280973e+14	3.048985e+04	1.665764e+04	5.961734e+03	0	3.933046e-03
1.300000e+08	2.299338e+15	0.000000e+00	6.754967e-01	1.961664e+16	5.086939e+15	4.257808e+14	3.025969e+04	1.709202e+04	6.117196e+03	0	3.857190e-03
1.400000e+08	2.168745e+15	0.000000e+00	6.754967e-01	1.865284e+16	5.705186e+15	4.234815e+14	3.004086e+04	1.748246e+04	6.256934e+03	0	3.782738e-03
1.500000e+08	2.046427e+15	0.000000e+00	6.754967e-01	1.774980e+16	6.300394e+15	4.211992e+14	2.983272e+04	1.783095e+04	6.381660e+03	0	3.710241e-03
1.600000e+08	1.932601e+15	0.000000e+00	6.754967e-01	1.690902e+16	6.863553e+15	4.189338e+14	2.963460e+04	1.813986e+04	6.492217e+03	0	3.640135e-03
1.700000e+08	1.827239e+15	0.000000e+00	6.754967e-01	1.613020e+16	7.387888e+15	4.166851e+14	2.944582e+04	1.841178e+04	6.589538e+03	0	3.572744e-03
1.800000e+08	1.730117e+15	0.000000e+00	6.754967e-01	1.541169e+16	7.868797e+15	4.144529e+14	2.926569e+04	1.864948e+04	6.674609e+03	0	3.508288e-03
1.900000e+08	1.640873e+15	0.000000e+00	6.754967e-01	1.475080e+16	8.303603e+15	4.122372e+14	2.909355e+04	1.885575e+04	6.748433e+03	0	3.446898e-03
2.000000e+08	1.559054e+15	0.000000e+00	6.754967e-01	1.414418e+16	8.691319e+15	4.100378e+14	2.892875e+04	1.903338e+04	6.812005e+03	0	3.388627e-03
2.100000e+08	1.484146e+15	0.000000e+00	6.754967e-01	1.358809e+16	9.032308e+15	4.078546e+14	2.877070e+04	1.918506e+04	6.866293e+03	0	3.333463e-03
2.200000e+08	1.415613e+15	0.000000e+00	6.754967e-01	1.307860e+16	9.328000e+15	4.056874e+14	2.861883e+04	1.931338e+04	6.912217e+03	0	3.281343e-03
2.300000e+08	1.352913e+15	0.000000e+00	6.754967e-01	1.261175e+16	9.580575e+15	4.035361e+14	2.847263e+04	1.942075e+04	6.950645e+03	0	3.232164e-03
2.400000e+08	1.295519e+15	0.000000e+00	6.754967e-01	1.218367e+16	9.792748e+15	4.014006e+14	2.833162e+04	1.950943e+04	6.982382e+03	0	3.185796e-03
2.500000e+08	1.242925e+15	0.000000e+00	6.754967e-01	1.179070e+16	9.967559e+15	3.992807e+14	2.819538e+04	1.958148e+04	7.008170e+03	0	3.142088e-03
2.600000e+08	1.194659e+15	0.000000e+00	6.754967e-01	1.142938e+16	1.010817e+16	3.971763e+14	2.806350e+04	1.963880e+04	7.028686e+03	0	3.100878e-03
2.700000e+08	1.150283e+15	0.000000e+00	6.754967e-01	1.109652e+16	1.021780e+16	3.950874e+14	2.793565e+04	1.968311e+04	7.044541e+03	0	3.061999e-03
2.800000e+08	1.109397e+15	0.000000e+00	6.754967e-01	1.078919e+16	1.029955e+16	3.930136e+14	2.781151e+04	1.971593e+04	7.056290e+03	0	3.025281e-03
2.900000e+08	1.071637e+15	0.000000e+00	6.754967e-01	1.050476e+16	1.035644e+16	3.909551e+14	2.769079e+04	1.973867e+04	7.064427e+03	0	2.990561e-03
3.000000e+08	1.036675e+15	0.000000e+00	6.754967e-01	1.024083e+16	1.039128e+16	3.889115e+14	2.757323e+04	1.975255e+04	7.069394e+03	0	2.957678e-03
3.100000e+08	1.004217e+15	0.000000e+00	6.754967e-01	9.995243e+15	1.040667e+16	3.868828e+14	2.745861e+04	1.975867e+04	7.071585e+03	0	2.926482e-03
3.200000e+08	9.739993e+14	0.000000e+00	6.754967e-01	9.766095e+15	1.040501e+16	3.848689e+14	2.734673e+04	1.975801e+04	7.071349e+03	0	2.896830e-03
3.300000e+08	9.457888e+14	0.000000e+00	6.754967e-01	9.551677e+15	1.038848e+16	3.828696e+14	2.723740e+04	1.975143e+04	7.068995e+03	0	2.868588e-03
3.400000e+08	9.193774e+14	0.000000e+00	6.754967e-01	9.350474e+15	1.035904e+16	3.808848e+14	2.713046e+04	1.973970e+04	7.064797e+03	0	2.841633e-03
3.500000e+08	8.945807e+14	0.000000e+00	6.754967e-01	9.161140e+15	1.031844e+16	3.789144e+14	2.702576e+04	1.972349e+04	7.058995e+03	0	2.815853e-03
3.600000e+08	8.712356e+14	0.000000e+00	6.754967e-01	8.982488e+15	1.026827e+16	3.769584e+14	2.692316e+04	1.970339e+04	7.051802e+03	0	2.791142e-03
3.700000e+08	8.491979e+14	0.000000e+00	6.754967e-01	8.813463e+15	1.020990e+16	3.750164e+14	2.682256e+04	1.967993e+04	7.043404e+03	0	2.767407e-03
3.800000e+08	8.283399e+14	0.000000e+00	6.754967e-01	8.653136e+15	1.014458e+16	3.730886e+14	2.672384e+04	1.965355e+04	7.033965e+03	0	2.744561e-03
3.900000e+08	8.085488e+14	0.000000e+00	6.754967e-01	8.500683e+15	1.007339e+16	3.711746e+14	2.662691e+04	1.962468e+04	7.023630e+03	0	2.722527e-03
4.000000e+08	7.897249e+14	0.000000e+00	6.754967e-01	8.355376e+15	9.997293e+15	3.692745e+14	2.653168e+04	1.959365e+04	7.012525e+03	0	2.701233e-03
4.100000e+08	7.717800e+14	0.000000e+00	6.754967e-01	8.216570e+15	9.917117e+15	3.673881e+14	2.643806e+04	1.956078e+04	7.000762e+03	0	2.680616e-03
4.200000e+08	7.546360e+14	0.000000e+00	6.754967e-01	8.083695e+15	9.833598e+15	3.655153e+14	2.634599e+04	1.952635e+04	6.988437e+03	0	2.660618e-03
4.300000e+08	7.382236e+14	0.000000e+00	6.754967e-01	7.956245e+15	9.747385e+15	3.636560e+14	2.625541e+04	1.949058e+04	6.975637e+03	0	2.641188e-03
4.400000e+08	7.224815e+14	0.000000e+00	6.754967e-01	7.833772e+15	9.659024e+15	3.618101e+14	2.616624e+04	1.945370e+04	6.962436e+03	0	2.622280e-03
4.500000e+08	7.073550e+14	0.000000e+00	6.754967e-01	7.715877e+15	9.569002e+15	3.599774e+14	2.607844e+04	1.941587e+04	6.948900e+03	0	2.603850e-03
4.600000e+08	6.927959e+14	0.000000e+00	6.754967e-01	7.602204e+15	9.477747e+15	3.581579e+14	2.599195e+04	1.937728e+04	6.935086e+03	0	2.585861e-03
4.700000e+08	6.787607e+14	0.000000e+00	6.754967e-01	7.492437e+15	9.385613e+15	3.563514e+14	2.590674e+04	1.933805e+04	6.921046e+03	0	2.568280e-03
4.800000e+08	6.652110e+14	0.000000e+00	6.754967e-01	7.386294e+15	9.292924e+15	3.545579e+14	2.582274e+04	1.929831e+04	6.906823e+03	0	2.551075e-03
4.900000e+08	6.521122e+14	0.000000e+00	6.754967e-01	7.283522e+15	9.199944e+15	3.527772e+14	2.573993e+04	1.925816e+04	6.892456e+03	0	2.534219e-03
5.000000e+08	6.394335e+14	0.000000e+00	6.754967e-01	7.183895e+15	9.106919e+15	3.510092e+14	2.565826e+04	1.921771e+04	6.877978e+03	0	2.517688e-03
5.100000e+08	6.271472e+14	0.000000e+00	6.754967e-01	7.087209e+15	9.014041e+15	3.492539e+14	2.557771e+04	1.917704e+04	6.863421e+03	0	2.501458e-03
5.200000e+08	6.152283e+14	0.000000e+00	6.754967e-01	6.993281e+15	8.921484e+15	3.475111e+14	2.549823e+04	1.913621e+04	6.848808e+03	0	2.485510e-03
5.300000e+08	6.036544e+14	0.000000e+00	6.754967e-01	6.901946e+15	8.829393e+15	3.457807e+14	2.541980e+04	1.909529e+04	6.834164e+03	0	2.469825e-03
5.400000e+08	5.924051e+14	0.000000e+00	6.754967e-01	6.813054e+15	8.737895e+15	3.440627e+14	2.534240e+04	1.905434e+04	6.819507e+03	0	2.454387e-03
5.500000e+08	5.814620e+14	0.000000e+00	6.754967e-01	6.726471e+15	8.647096e+15	3.423569e+14	2.526598e+04	1.901340e+04	6.804856e+03	0	2.439180e-03
5.600000e+08	5.708085e+14	0.000000e+00	6.754967e-01	6.642072e+15	8.557085e+15	3.406632e+14	2.519053e+04	1.897252e+04	6.790225e+03	0	2.424191e-03
5.700000e+08	5.604293e+14	0.000000e+00	6.754967e-01	6.559746e+15	8.467937e+15	3.389815e+14	2.511602e+04	1.893173e+04	6.775627e+03	0	2.409408e-03
5.800000e+08	5.503105e+14	0.000000e+00	6.754967e-01	6.479391e+15	8.379713e+15	3.373118e+14	2.504242e+04	1.889107e+04	6.761074e+03	0	2.394819e-03
5.900000e+08	5.404395e+14	0.000000e+00	6.754967e-01	6.400912e+15	8.292462e+15	3.356539e+14	2.496973e+04	1.885056e+04	6.746575e+03	0	2.380414e-03
6.000000e+08	5.308047e+14	0.000000e+00	6.754967e-01	6.324225e+15	8.206221e+15	3.340077e+14	2.489791e+04	1.881022e+04	6.732139e+03	0	2.366183e-03
6.100000e+08	5.213954e+14	0.000000e+00	6.754967e-01	6.249250e+15	8.121036e+15	3.323732e+14	2.482695e+04	1.877009e+04	6.717774e+03	0	2.352118e-03
6.200000e+08	5.122017e+14	0.000000e+00	6.754967e-01	6.175914e+15	8.036917e+15	3.307502e+14	2.475682e+04	1.873016e+04	6.703485e+03	0	2.338211e-03
6.300000e+08	5.032146e+14	0.000000e+00	6.754967e-01	6.104149e+15	7.953892e+15	3.291387e+14	2.468751e+04	1.869047e+04	6.689278e+03	0	2.324455e-03
6.400000e+08	4.944255e+14	0.000000e+00	6.754967e-01	6.033894e+15	7.871976e+15	3.275386e+14	2.461901e+04	1.865102e+04	6.675159e+03	0	2.310843e-03
6.500000e+08	4.858268e+14	0.000000e+00	6.754967e-01	5.965090e+15	7.791174e+15	3.259497e+14	2.455129e+04	1.861182e+04	6.661129e+03	0	2.297368e-03
6.600000e+08	4.774111e+14	0.000000e+00	6.754967e-01	5.897683e+15	7.711488e+15	3.243720e+14	2.448433e+04	1.857288e+04	6.647194e+03	0	2.284025e-03
6.700000e+08	4.691717e+14	0.000000e+00	6.754967e-01	5.831622e+15	7.632930e+15	3.228054e+14	2.441813e+04	1.853421e+04	6.633356e+03	0	2.270809e-03
6.800000e+08	4.611022e+14	0.000000e+00	6.754967e-01	5.766861e+15	7.555488e+15	3.212498e+14	2.435267e+04	1.849582e+04	6.619616e+03	0	2.257715e-03
6.900000e+08	4.531966e+14	0.000000e+00	6.754967e-01	5.703355e+15	7.479167e+15	3.197051e+14	2.428793e+04	1.845772e+04	6.605977e+03	0	2.244738e-03
7.000000e+08	4.454495e+14	0.000000e+00	6.754967e-01	5.641063e+15	7.403949e+15	3.181713e+14	2.422390e+04	1.841989e+04	6.592441e+03	0	2.231874e-03
7.100000e+08	4.378556e+14	0.000000e+00	6.754967e-01	5.579946e+15	7.329836e+15	3.166482e+14	2.416057e+04	1.838236e+04	6.579007e+03	0	2.219118e-03
7.200000e+08	4.304099e+14	0.000000e+00	6.754967e-01	5.519966e+15	7.256817e+15	3.151357e+14	2.409791e+04	1.834512e+04	6.565678e+03	0	2.206467e-03
7.300000e+08	4.231078e+14	0.000000e+00	6.754967e-01	5.461088e+15	7.184880e+15	3.136338e+14	2.403593e+04	1.830817e+04	6.552454e+03	0	2.193918e-03
7.400000e+08	4.159449e+14	0.000000e+00	6.754967e-01	5.403281e+15	7.114017e+15	3.121424e+14	2.397461e+04	1.827151e+04	6.539335e+03	0	2.181467e-03
7.500000e+08	4.089170e+14	0.000000e+00	6.754967e-01	5.346512e+15	7.044203e+15	3.106614e+14	2.391393e+04	1.823515e+04	6.526321e+03	0	2.169111e-03
7.600000e+08	4.020202e+14	0.000000e+00	6.754967e-01	5.290751e+15	6.975437e+15	3.091907e+14	2.385389e+04	1.819908e+04	6.513413e+03	0	2.156847e-03
7.700000e+08	3.952506e+14	0.000000e+00	6.754967e-01	5.235971e+15	6.907699e+15	3.077302e+14	2.379447e+04	1.816331e+04	6.500609e+03	0	2.144672e-03
7.800000e+08	3.886046e+14	0.000000e+00	6.754967e-01	5.182145e+15	6.840974e+15	3.062799e+14	2.373566e+04	1.812783e+04	6.487911e+03	0	2.132584e-03
7.900000e+08	3.820790e+14	0.000000e+00	6.754967e-01	5.129246e+15	6.775251e+15	3.048396e+14	2.367746e+04	1.809264e+04	6.475316e+03	0	2.120579e-03
8.000000e+08	3.756703e+14	0.000000e+00	6.754967e-01	5.077250e+15	6.710509e+15	3.034094e+14	2.361984e+04	1.805774e+04	6.462826e+03	0	2.108656e-03
8.100000e+08	3.693755e+14	0.000000e+00	6.754967e-01	5.026133e+15	6.646737e+15	3.019890e+14	2.356281e+04	1.802313e+04	6.450439e+03	0	2.096812e-03
8.200000e+08	3.631915e+14	0.000000e+00	6.754967e-01	4.975873e+15	6.583917e+15	3.005785e+14	2.350634e+04	1.798881e+04	6.438155e+03	0	2.085045e-03
8.300000e+08	3.571156e+14	0.000000e+00	6.754967e-01	4.926449e+15	6.522029e+15	2.991778e+14	2.345044e+04	1.795477e+04	6.425973e+03	0	2.073352e-03
8.400000e+08	3.511449e+14	0.000000e+00	6.754967e-01	4.877839e+15	6.461065e+15	2.977867e+14	2.339510e+04	1.792101e+04	6.413891e+03	0	2.061732e-03
8.500000e+08	3.452769e+14	0.000000e+00	6.754967e-01	4.830024e+15	6.401006e+15	2.964052e+14	2.334029e+04	1.788753e+04	6.401910e+03	0	2.050183e-03
8.600000e+08	3.395089e+14	0.000000e+00	6.754967e-01	4.782984e+15	6.341837e+15	2.950332e+14	2.328602e+04	1.785434e+04	6.390029e+03	0	2.038702e-03
8.700000e+08	3.338385e+14	0.000000e+00	6.754967e-01	4.736700e+15	6.283537e+15	2.936707e+14	2.323228e+04	1.782141e+04	6.378246e+03	0	2.027288e-03
8.800000e+08	3.282634e+14	0.000000e+00	6.754967e-01	4.691156e+15	6.226098e+15	2.923176e+14	2.317906e+04	1.778876e+04	6.366560e+03	0	2.015940e-03
8.900000e+08	3.227813e+14	0.000000e+00	6.754967e-01	4.646334e+15	6.169502e+15	2.909737e+14	2.312634e+04	1.775638e+04	6.354971e+03	0	2.004655e-03
9.000000e+08	3.173900e+14	0.000000e+00	6.754967e-01	4.602217e+15	6.113729e+15	2.896391e+14	2.307412e+04	1.772427e+04	6.343477e+03	0	1.993431e-03
9.100000e+08	3.120874e+14	0.000000e+00	6.754967e-01	4.558789e+15	6.058773e+15	2.883136e+14	2.302240e+04	1.769242e+04	6.332079e+03	0	1.982267e-03
9.200000e+08	3.068715e+14	0.000000e+00	6.754967e-01	4.516035e+15	6.004609e+15	2.869972e+14	2.297117e+04	1.766083e+04	6.320773e+03	0	1.971162e-03
9.300000e+08	3.017402e+14	0.000000e+00	6.754967e-01	4.473939e+15	5.951231e+15	2.856898e+14	2.292041e+04	1.762950e+04	6.309560e+03	0	1.960113e-03
9.400000e+08	2.966917e+14	0.000000e+00	6.754967e-01	4.432487e+15	5.898621e+15	2.843913e+14	2.287013e+04	1.759843e+04	6.298439e+03	0	1.949120e-03
9.500000e+08	2.917242e+14	0.000000e+00	6.754967e-01	4.391666e+15	5.846767e+15	2.831017e+14	2.282030e+04	1.756761e+04	6.287408e+03	0	1.938181e-03
9.600000e+08	2.868357e+14	0.000000e+00	6.754967e-01	4.351461e+15	5.795648e+15	2.818209e+14	2.277094e+04	1.753703e+04	6.276467e+03	0	1.927293e-03
9.700000e+08	2.820247e+14	0.000000e+00	6.754967e-01	4.311860e+15	5.745257e+15	2.805488e+14	2.272202e+04	1.750671e+04	6.265614e+03	0	1.916457e-03
9.800000e+08	2.772894e+14	0.000000e+00	6.754967e-01	4.272849e+15	5.695583e+15	2.792854e+14	2.267355e+04	1.747663e+04	6.254848e+03	0	1.905671e-03
9.900000e+08	2.726281e+14	0.000000e+00	6.754967e-01	4.234416e+15	5.646606e+15	2.780306e+14	2.262551e+04	1.744679e+04	6.244169e+03	0	1.894932e-03
1.000000e+09	2.680394e+14	0.000000e+00	6.754967e-01	4.196548e+15	5.598317e+15	2.767843e+14	2.257791e+04	1.741719e+04	6.233575e+03	0	1.884240e-03
1.010000e+09	2.635216e+14	0.000000e+00	6.754967e-01	4.159236e+15	5.550702e+15	2.755464e+14	2.253073e+04	1.738783e+04	6.223065e+03	0	1.873594e-03
1.020000e+09	2.590733e+14	0.000000e+00	6.754967e-01	4.122466e+15	5.503749e+15	2.743169e+14	2.248396e+04	1.735869e+04	6.212639e+03	0	1.862992e-03
1.030000e+09	2.546929e+14	0.000000e+00	6.754967e-01	4.086227e+15	5.457444e+15	2.730957e+14	2.243761e+04	1.732979e+04	6.202295e+03	0	1.852432e-03
1.040000e+09	2.503792e+14	0.000000e+00	6.754967e-01	4.050510e+15	5.411779e+15	2.718828e+14	2.239167e+04	1.730112e+04	6.192033e+03	0	1.841915e-03
1.050000e+09	2.461308e+14	0.000000e+00	6.754967e-01	4.015304e+15	5.366740e+15	2.706781e+14	2.234612e+04	1.727267e+04	6.181850e+03	0	1.831437e-03
1.060000e+09	2.419462e+14	0.000000e+00	6.754967e-01	3.980598e+15	5.322313e+15	2.694815e+14	2.230097e+04	1.724444e+04	6.171747e+03	0	1.820999e-03
1.070000e+09	2.378242e+14	0.000000e+00	6.754967e-01	3.946382e+15	5.278492e+15	2.682930e+14	2.225620e+04	1.721643e+04	6.161723e+03	0	1.810598e-03
1.080000e+09	2.337636e+14	0.000000e+00	6.754967e-01	3.912647e+15	5.235264e+15	2.671124e+14	2.221182e+04	1.718864e+04	6.151776e+03	0	1.800234e-03
1.090000e+09	2.297631e+14	0.000000e+00	6.754967e-01	3.879383e+15	5.192617e+15	2.659398e+14	2.216782e+04	1.716106e+04	6.141906e+03	0	1.789906e-03
1.100000e+09	2.258215e+14	0.000000e+00	6.754967e-01	3.846582e+15	5.150542e+15	2.647751e+14	2.212419e+04	1.713369e+04	6.132111e+03	0	1.779611e-03
1.110000e+09	2.219376e+14	0.000000e+00	6.754967e-01	3.814234e+15	5.109026e+15	2.636182e+14	2.208093e+04	1.710653e+04	6.122391e+03	0	1.769350e-03
1.120000e+09	2.181104e+14	0.000000e+00	6.754967e-01	3.782331e+15	5.068062e+15	2.624690e+14	2.203803e+04	1.707958e+04	6.112745e+03	0	1.759120e-03
1.130000e+09	2.143387e+14	0.000000e+00	6.754967e-01	3.750864e+15	5.027640e+15	2.613276e+14	2.199548e+04	1.705283e+04	6.103171e+03	0	1.748921e-03
1.140000e+09	2.106214e+14	0.000000e+00	6.754967e-01	3.719825e+15	4.987747e+15	2.601937e+14	2.195329e+04	1.702628e+04	6.093670e+03	0	1.738752e-03
1.150000e+09	2.069575e+14	0.000000e+00	6.754967e-01	3.689206e+15	4.948377e+15	2.590675e+14	2.191145e+04	1.699993e+04	6.084240e+03	0	1.728611e-03
1.160000e+09	2.033460e+14	0.000000e+00	6.754967e-01	3.658999e+15	4.909520e+15	2.579487e+14	2.186995e+04	1.697378e+04	6.074880e+03	0	1.718496e-03
1.170000e+09	1.997859e+14	0.000000e+00	6.754967e-01	3.629196e+15	4.871166e+15	2.568374e+14	2.182879e+04	1.694782e+04	6.065589e+03	0	1.708408e-03
1.180000e+09	1.962761e+14	0.000000e+00	6.754967e-01	3.599790e+15	4.833306e+15	2.557335e+14	2.178796e+04	1.692206e+04	6.056368e+03	0	1.698345e-03
1.190000e+09	1.928158e+14	0.000000e+00	6.754967e-01	3.570774e+15	4.795933e+15	2.546369e+14	2.174746e+04	1.689648e+04	6.047214e+03	0	1.688305e-03
1.200000e+09	1.894039e+14	0.000000e+00	6.754967e-01	3.542140e+15	4.759035e+15	2.535476e+14	2.170729e+04	1.687109e+04	6.038127e+03	0	1.678288e-03
1.210000e+09	1.860397e+14	0.000000e+00	6.754967e-01	3.513882e+15	4.722609e+15	2.524655e+14	2.166744e+04	1.684588e+04	6.029106e+03	0	1.668292e-03
1.220000e+09	1.827222e+14	0.000000e+00	6.754967e-01	3.485992e+15	4.686643e+15	2.513906e+14	2.162790e+04	1.682086e+04	6.020151e+03	0	1.658316e-03
1.230000e+09	1.794506e+14	0.000000e+00	6.754967e-01	3.458465e+15	4.651130e+15	2.503228e+14	2.158868e+04	1.679602e+04	6.011260e+03	0	1.648359e-03
1.240000e+09	1.762240e+14	0.000000e+00	6.754967e-01	3.431293e+15	4.616062e+15	2.492621e+14	2.154976e+04	1.677136e+04	6.002433e+03	0	1.638419e-03
1.250000e+09	1.730416e+14	0.000000e+00	6.754967e-01	3.404470e+15	4.581431e+15	2.482084e+14	2.151115e+04	1.674687e+04	5.993669e+03	0	1.628497e-03
1.260000e+09	1.699025e+14	0.000000e+00	6.754967e-01	3.377991e+15	4.547231e+15	2.471616e+14	2.147284e+04	1.672256e+04	5.984968e+03	0	1.618589e-03
1.270000e+09	1.668061e+14	0.000000e+00	6.754967e-01	3.351848e+15	4.513454e+15	2.461217e+14	2.143483e+04	1.669842e+04	5.976329e+03	0	1.608696e-03
1.280000e+09	1.637515e+14	0.000000e+00	6.754967e-01	3.326037e+15	4.480092e+15	2.450887e+14	2.139711e+04	1.667445e+04	5.967750e+03	0	1.598816e-03
1.290000e+09	1.607380e+14	0.000000e+00	6.754967e-01	3.300551e+15	4.447138e+15	2.440624e+14	2.135968e+04	1.665065e+04	5.959232e+03	0	1.588948e-03
1.300000e+09	1.577649e+14	0.000000e+00	6.754967e-01	3.275384e+15	4.414587e+15	2.430429e+14	2.132254e+04	1.662701e+04	5.950773e+03	0	1.579090e-03
1.310000e+09	1.548314e+14	0.000000e+00	6.754967e-01	3.250532e+15	4.382430e+15	2.420301e+14	2.128568e+04	1.660354e+04	5.942373e+03	0	1.569242e-03
1.320000e+09	1.519369e+14	0.000000e+00	6.754967e-01	3.225989e+15	4.350662e+15	2.410238e+14	2.124909e+04	1.658024e+04	5.934031e+03	0	1.559401e-03
1.330000e+09	1.490806e+14	0.000000e+00	6.754967e-01	3.201749e+15	4.319276e+15	2.400242e+14	2.121278e+04	1.655709e+04	5.925747e+03	0	1.549567e-03
1.340000e+09	1.462619e+14	0.000000e+00	6.754967e-01	3.177808e+15	4.288264e+15	2.390311e+14	2.117675e+04	1.653410e+04	5.917519e+03	0	1.539739e-03
1.350000e+09	1.434801e+14	0.000000e+00	6.754967e-01	3.154160e+15	4.257624e+15	2.380445e+14	2.114098e+04	1.651127e+04	5.909348e+03	0	1.529915e-03
1.360000e+09	1.407347e+14	0.000000e+00	6.754967e-01	3.130800e+15	4.227345e+15	2.370643e+14	2.110548e+04	1.648859e+04	5.901232e+03	0	1.520094e-03
