#t		Qconv[W]	Ri[Rp]		R*[Rp]		Qc[W]		Qm[W]		Qr[W]		Tcmb[K]		Tl[K]		Tup[K]		RiFlag		Bs[T]
0.000000e+00	3.269111e+13	0.000000e+00	6.688742e-01	2.548565e+15	4.746823e+13	5.043955e+14	1.994892e+04	6.283217e+03	2.984296e+03	0	9.386966e-04
1.000000e+07	3.363978e+13	0.000000e+00	6.688742e-01	2.552170e+15	5.146339e+13	5.016008e+14	1.992235e+04	6.347903e+03	3.015020e+03	0	9.476903e-04
2.000000e+07	3.454295e+13	0.000000e+00	6.688742e-01	2.555449e+15	5.571436e+13	4.988270e+14	1.989575e+04	6.412519e+03	3.045710e+03	0	9.560968e-04
3.000000e+07	3.540016e+13	0.000000e+00	6.688742e-01	2.558401e+15	6.023116e+13	4.960739e+14	1.986912e+04	6.477051e+03	3.076360e+03	0	9.639410e-04
4.000000e+07	3.621095e+13	0.000000e+00	6.688742e-01	2.561021e+15	6.502377e+13	4.933413e+14	1.984245e+04	6.541488e+03	3.106965e+03	0	9.712448e-04
5.000000e+07	3.697490e+13	0.000000e+00	6.688742e-01	2.563308e+15	7.010209e+13	4.906292e+14	1.981576e+04	6.605816e+03	3.137518e+03	0	9.780275e-04
6.000000e+07	3.769162e+13	0.000000e+00	6.688742e-01	2.565259e+15	7.547592e+13	4.879372e+14	1.978904e+04	6.670022e+03	3.168014e+03	0	9.843064e-04
7.000000e+07	3.836075e+13	0.000000e+00	6.688742e-01	2.566872e+15	8.115490e+13	4.852653e+14	1.976230e+04	6.734094e+03	3.198446e+03	0	9.900970e-04
8.000000e+07	3.898197e+13	0.000000e+00	6.688742e-01	2.568145e+15	8.714848e+13	4.826133e+14	1.973555e+04	6.798017e+03	3.228807e+03	0	9.954130e-04
9.000000e+07	3.955501e+13	0.000000e+00	6.688742e-01	2.569077e+15	9.346586e+13	4.799810e+14	1.970878e+04	6.861778e+03	3.259091e+03	0	1.000267e-03
1.000000e+08	4.007961e+13	0.000000e+00	6.688742e-01	2.569665e+15	1.001160e+14	4.773683e+14	1.968200e+04	6.925363e+03	3.289292e+03	0	1.004670e-03
1.100000e+08	4.055558e+13	0.000000e+00	6.688742e-01	2.569911e+15	1.071077e+14	4.747749e+14	1.965522e+04	6.988758e+03	3.319402e+03	0	1.008631e-03
1.200000e+08	4.098274e+13	0.000000e+00	6.688742e-01	2.569811e+15	1.144490e+14	4.722007e+14	1.962843e+04	7.051948e+03	3.349415e+03	0	1.012160e-03
1.300000e+08	4.136097e+13	0.000000e+00	6.688742e-01	2.569367e+15	1.221481e+14	4.696457e+14	1.960165e+04	7.114918e+03	3.379323e+03	0	1.015264e-03
1.400000e+08	4.169019e+13	0.000000e+00	6.688742e-01	2.568577e+15	1.302123e+14	4.671095e+14	1.957487e+04	7.177654e+03	3.409121e+03	0	1.017951e-03
1.500000e+08	4.197036e+13	0.000000e+00	6.688742e-01	2.567443e+15	1.386488e+14	4.645921e+14	1.954809e+04	7.240141e+03	3.438800e+03	0	1.020226e-03
1.600000e+08	4.220150e+13	0.000000e+00	6.688742e-01	2.565963e+15	1.474640e+14	4.620932e+14	1.952133e+04	7.302364e+03	3.468353e+03	0	1.022095e-03
1.700000e+08	4.238365e+13	0.000000e+00	6.688742e-01	2.564141e+15	1.566640e+14	4.596128e+14	1.949459e+04	7.364307e+03	3.497774e+03	0	1.023564e-03
1.800000e+08	4.251692e+13	0.000000e+00	6.688742e-01	2.561975e+15	1.662543e+14	4.571507e+14	1.946786e+04	7.425955e+03	3.527054e+03	0	1.024635e-03
1.900000e+08	4.260146e+13	0.000000e+00	6.688742e-01	2.559469e+15	1.762394e+14	4.547067e+14	1.944116e+04	7.487293e+03	3.556188e+03	0	1.025314e-03
2.000000e+08	4.263745e+13	0.000000e+00	6.688742e-01	2.556623e+15	1.866238e+14	4.522808e+14	1.941448e+04	7.548305e+03	3.585166e+03	0	1.025603e-03
2.100000e+08	4.262515e+13	0.000000e+00	6.688742e-01	2.553440e+15	1.974107e+14	4.498726e+14	1.938784e+04	7.608975e+03	3.613982e+03	0	1.025504e-03
2.200000e+08	4.256486e+13	0.000000e+00	6.688742e-01	2.549922e+15	2.086029e+14	4.474821e+14	1.936122e+04	7.669289e+03	3.642629e+03	0	1.025020e-03
2.300000e+08	4.245690e+13	0.000000e+00	6.688742e-01	2.546072e+15	2.202026e+14	4.451092e+14	1.933464e+04	7.729229e+03	3.671098e+03	0	1.024153e-03
2.400000e+08	4.230167e+13	0.000000e+00	6.688742e-01	2.541894e+15	2.322107e+14	4.427537e+14	1.930811e+04	7.788782e+03	3.699384e+03	0	1.022903e-03
2.500000e+08	4.209960e+13	0.000000e+00	6.688742e-01	2.537390e+15	2.446279e+14	4.404154e+14	1.928161e+04	7.847930e+03	3.727477e+03	0	1.021272e-03
2.600000e+08	4.185119e+13	0.000000e+00	6.688742e-01	2.532565e+15	2.574536e+14	4.380943e+14	1.925517e+04	7.906660e+03	3.755371e+03	0	1.019259e-03
2.700000e+08	4.155697e+13	0.000000e+00	6.688742e-01	2.527422e+15	2.706867e+14	4.357901e+14	1.922877e+04	7.964955e+03	3.783059e+03	0	1.016865e-03
2.800000e+08	4.121752e+13	0.000000e+00	6.688742e-01	2.521967e+15	2.843250e+14	4.335027e+14	1.920243e+04	8.022800e+03	3.810534e+03	0	1.014089e-03
2.900000e+08	4.083346e+13	0.000000e+00	6.688742e-01	2.516204e+15	2.983656e+14	4.312321e+14	1.917614e+04	8.080180e+03	3.837787e+03	0	1.010929e-03
3.000000e+08	4.040548e+13	0.000000e+00	6.688742e-01	2.510138e+15	3.128046e+14	4.289779e+14	1.914991e+04	8.137081e+03	3.864813e+03	0	1.007385e-03
3.100000e+08	3.993428e+13	0.000000e+00	6.688742e-01	2.503774e+15	3.276373e+14	4.267403e+14	1.912375e+04	8.193487e+03	3.891604e+03	0	1.003454e-03
3.200000e+08	3.942063e+13	0.000000e+00	6.688742e-01	2.497119e+15	3.428580e+14	4.245188e+14	1.909765e+04	8.249384e+03	3.918153e+03	0	9.991329e-04
3.300000e+08	3.886533e+13	0.000000e+00	6.688742e-01	2.490177e+15	3.584602e+14	4.223136e+14	1.907163e+04	8.304758e+03	3.944453e+03	0	9.944192e-04
3.400000e+08	3.826922e+13	0.000000e+00	6.688742e-01	2.482957e+15	3.744367e+14	4.201243e+14	1.904567e+04	8.359595e+03	3.970499e+03	0	9.893089e-04
3.500000e+08	3.763319e+13	0.000000e+00	6.688742e-01	2.475463e+15	3.907789e+14	4.179510e+14	1.901979e+04	8.413881e+03	3.996282e+03	0	9.837975e-04
3.600000e+08	3.695815e+13	0.000000e+00	6.688742e-01	2.467704e+15	4.074778e+14	4.157934e+14	1.899399e+04	8.467603e+03	4.021798e+03	0	9.778798e-04
3.700000e+08	3.624505e+13	0.000000e+00	6.688742e-01	2.459685e+15	4.245236e+14	4.136514e+14	1.896827e+04	8.520747e+03	4.047040e+03	0	9.715496e-04
3.800000e+08	3.549489e+13	0.000000e+00	6.688742e-01	2.451415e+15	4.419053e+14	4.115249e+14	1.894263e+04	8.573303e+03	4.072002e+03	0	9.648001e-04
3.900000e+08	3.470867e+13	0.000000e+00	6.688742e-01	2.442900e+15	4.596114e+14	4.094138e+14	1.891708e+04	8.625256e+03	4.096678e+03	0	9.576233e-04
4.000000e+08	3.388745e+13	0.000000e+00	6.688742e-01	2.434149e+15	4.776296e+14	4.073179e+14	1.889161e+04	8.676596e+03	4.121062e+03	0	9.500104e-04
4.100000e+08	3.303229e+13	0.000000e+00	6.688742e-01	2.425169e+15	4.959467e+14	4.052372e+14	1.886624e+04	8.727310e+03	4.145150e+03	0	9.419510e-04
4.200000e+08	3.214430e+13	0.000000e+00	6.688742e-01	2.415968e+15	5.145487e+14	4.031715e+14	1.884096e+04	8.777389e+03	4.168935e+03	0	9.334335e-04
4.300000e+08	3.122459e+13	0.000000e+00	6.688742e-01	2.406555e+15	5.334216e+14	4.011206e+14	1.881578e+04	8.826821e+03	4.192414e+03	0	9.244447e-04
4.400000e+08	3.027429e+13	0.000000e+00	6.688742e-01	2.396937e+15	5.525499e+14	3.990845e+14	1.879069e+04	8.875597e+03	4.215581e+03	0	9.149697e-04
4.500000e+08	2.929457e+13	0.000000e+00	6.688742e-01	2.387124e+15	5.719180e+14	3.970630e+14	1.876571e+04	8.923707e+03	4.238431e+03	0	9.049913e-04
4.600000e+08	2.828658e+13	0.000000e+00	6.688742e-01	2.377123e+15	5.915098e+14	3.950560e+14	1.874083e+04	8.971143e+03	4.260962e+03	0	8.944901e-04
4.700000e+08	2.725151e+13	0.000000e+00	6.688742e-01	2.366943e+15	6.113085e+14	3.930634e+14	1.871605e+04	9.017896e+03	4.283167e+03	0	8.834438e-04
4.800000e+08	2.619055e+13	0.000000e+00	6.688742e-01	2.356592e+15	6.312969e+14	3.910851e+14	1.869137e+04	9.063958e+03	4.305045e+03	0	8.718269e-04
4.900000e+08	2.510490e+13	0.000000e+00	6.688742e-01	2.346080e+15	6.514576e+14	3.891210e+14	1.866681e+04	9.109322e+03	4.326591e+03	0	8.596101e-04
5.000000e+08	2.399574e+13	0.000000e+00	6.688742e-01	2.335415e+15	6.717725e+14	3.871709e+14	1.864235e+04	9.153981e+03	4.347803e+03	0	8.467595e-04
5.100000e+08	2.286429e+13	0.000000e+00	6.688742e-01	2.324606e+15	6.922237e+14	3.852347e+14	1.861801e+04	9.197929e+03	4.368676e+03	0	8.332358e-04
5.200000e+08	2.171173e+13	0.000000e+00	6.688742e-01	2.313661e+15	7.127926e+14	3.833124e+14	1.859378e+04	9.241160e+03	4.389210e+03	0	8.189930e-04
5.300000e+08	2.053927e+13	0.000000e+00	6.688742e-01	2.302588e+15	7.334603e+14	3.814038e+14	1.856966e+04	9.283671e+03	4.409401e+03	0	8.039772e-04
5.400000e+08	1.934811e+13	0.000000e+00	6.688742e-01	2.291397e+15	7.542088e+14	3.795087e+14	1.854566e+04	9.325455e+03	4.429247e+03	0	7.881246e-04
5.500000e+08	1.813941e+13	0.000000e+00	6.688742e-01	2.280096e+15	7.750189e+14	3.776272e+14	1.852177e+04	9.366510e+03	4.448746e+03	0	7.713587e-04
5.600000e+08	1.691435e+13	0.000000e+00	6.688742e-01	2.268693e+15	7.958716e+14	3.757590e+14	1.849800e+04	9.406833e+03	4.467898e+03	0	7.535877e-04
5.700000e+08	1.567409e+13	0.000000e+00	6.688742e-01	2.257197e+15	8.167484e+14	3.739041e+14	1.847435e+04	9.446419e+03	4.486700e+03	0	7.346991e-04
5.800000e+08	1.441978e+13	0.000000e+00	6.688742e-01	2.245616e+15	8.376310e+14	3.720623e+14	1.845082e+04	9.485269e+03	4.505152e+03	0	7.145538e-04
5.900000e+08	1.315255e+13	0.000000e+00	6.688742e-01	2.233957e+15	8.585000e+14	3.702336e+14	1.842741e+04	9.523379e+03	4.523253e+03	0	6.929769e-04
6.000000e+08	1.187351e+13	0.000000e+00	6.688742e-01	2.222230e+15	8.793378e+14	3.684179e+14	1.840413e+04	9.560750e+03	4.541003e+03	0	6.697434e-04
6.100000e+08	1.058375e+13	0.000000e+00	6.688742e-01	2.210440e+15	9.001256e+14	3.666150e+14	1.838096e+04	9.597380e+03	4.558401e+03	0	6.445578e-04
6.200000e+08	9.284338e+12	0.000000e+00	6.688742e-01	2.198598e+15	9.208461e+14	3.648248e+14	1.835792e+04	9.633271e+03	4.575448e+03	0	6.170197e-04
6.300000e+08	7.976327e+12	0.000000e+00	6.688742e-01	2.186708e+15	9.414816e+14	3.630473e+14	1.833500e+04	9.668422e+03	4.592143e+03	0	5.865653e-04
6.400000e+08	6.660739e+12	0.000000e+00	6.688742e-01	2.174780e+15	9.620147e+14	3.612823e+14	1.831220e+04	9.702835e+03	4.608488e+03	0	5.523608e-04
6.500000e+08	5.338575e+12	0.000000e+00	6.688742e-01	2.162820e+15	9.824288e+14	3.595297e+14	1.828953e+04	9.736513e+03	4.624484e+03	0	5.130864e-04
6.600000e+08	4.010805e+12	0.000000e+00	6.688742e-01	2.150834e+15	1.002708e+15	3.577895e+14	1.826698e+04	9.769456e+03	4.640131e+03	0	4.664366e-04
6.700000e+08	2.678377e+12	0.000000e+00	6.688742e-01	2.138830e+15	1.022836e+15	3.560615e+14	1.824456e+04	9.801669e+03	4.655431e+03	0	4.076987e-04
6.800000e+08	1.342206e+12	0.000000e+00	6.688742e-01	2.126815e+15	1.042797e+15	3.543456e+14	1.822226e+04	9.833153e+03	4.670385e+03	0	3.238335e-04
6.900000e+08	3.182611e+09	0.000000e+00	6.688742e-01	2.114794e+15	1.062577e+15	3.526418e+14	1.820009e+04	9.863914e+03	4.684995e+03	0	4.318271e-05
7.000000e+08	-1.337835e+12	0.000000e+00	6.688742e-01	2.102773e+15	1.082161e+15	3.509499e+14	1.817804e+04	9.893956e+03	4.699263e+03	0	nan
