#t		Qconv[W]	Ri[Rp]		R*[Rp]		Qc[W]		Qm[W]		Qr[W]		Tcmb[K]		Tl[K]		Tup[K]		RiFlag		Bs[T]
0.000000e+00	1.566482e+13	0.000000e+00	6.021505e-01	4.562338e+14	7.742849e+14	6.059305e+13	9.556471e+03	2.884314e+03	2.382167e+03	0	8.907918e-04
1.000000e+07	1.455417e+13	0.000000e+00	6.021505e-01	4.241396e+14	7.100309e+14	6.025732e+13	9.415467e+03	2.851559e+03	2.355115e+03	0	8.692211e-04
2.000000e+07	1.357223e+13	0.000000e+00	6.021505e-01	3.957614e+14	6.561465e+14	5.992410e+13	9.284176e+03	2.822671e+03	2.331256e+03	0	8.492160e-04
3.000000e+07	1.269844e+13	0.000000e+00	6.021505e-01	3.705061e+14	6.102239e+14	5.959337e+13	9.161494e+03	2.796865e+03	2.309943e+03	0	8.305860e-04
4.000000e+07	1.191643e+13	0.000000e+00	6.021505e-01	3.479009e+14	5.705596e+14	5.926511e+13	9.046490e+03	2.773565e+03	2.290699e+03	0	8.131734e-04
5.000000e+07	1.121296e+13	0.000000e+00	6.021505e-01	3.275639e+14	5.359131e+14	5.893930e+13	8.938373e+03	2.752338e+03	2.273168e+03	0	7.968462e-04
6.000000e+07	1.057721e+13	0.000000e+00	6.021505e-01	3.091828e+14	5.053589e+14	5.861592e+13	8.836463e+03	2.732854e+03	2.257076e+03	0	7.814926e-04
7.000000e+07	1.000026e+13	0.000000e+00	6.021505e-01	2.924998e+14	4.781909e+14	5.829494e+13	8.740174e+03	2.714854e+03	2.242209e+03	0	7.670168e-04
8.000000e+07	9.474657e+12	0.000000e+00	6.021505e-01	2.772999e+14	4.538608e+14	5.797636e+13	8.648994e+03	2.698131e+03	2.228398e+03	0	7.533363e-04
9.000000e+07	8.994144e+12	0.000000e+00	6.021505e-01	2.634025e+14	4.319357e+14	5.766014e+13	8.562475e+03	2.682520e+03	2.215505e+03	0	7.403795e-04
1.000000e+08	8.553429e+12	0.000000e+00	6.021505e-01	2.506548e+14	4.120683e+14	5.734627e+13	8.480225e+03	2.667886e+03	2.203419e+03	0	7.280835e-04
1.100000e+08	8.147999e+12	0.000000e+00	6.021505e-01	2.389265e+14	3.939769e+14	5.703473e+13	8.401895e+03	2.654117e+03	2.192047e+03	0	7.163931e-04
1.200000e+08	7.773989e+12	0.000000e+00	6.021505e-01	2.281058e+14	3.774303e+14	5.672549e+13	8.327177e+03	2.641120e+03	2.181312e+03	0	7.052597e-04
1.300000e+08	7.428063e+12	0.000000e+00	6.021505e-01	2.180967e+14	3.622364e+14	5.641855e+13	8.255794e+03	2.628816e+03	2.171150e+03	0	6.946397e-04
1.400000e+08	7.107334e+12	0.000000e+00	6.021505e-01	2.088156e+14	3.482343e+14	5.611388e+13	8.187499e+03	2.617137e+03	2.161505e+03	0	6.844946e-04
1.500000e+08	6.809288e+12	0.000000e+00	6.021505e-01	2.001900e+14	3.352883e+14	5.581146e+13	8.122072e+03	2.606026e+03	2.152328e+03	0	6.747895e-04
1.600000e+08	6.531726e+12	0.000000e+00	6.021505e-01	1.921563e+14	3.232827e+14	5.551128e+13	8.059312e+03	2.595433e+03	2.143580e+03	0	6.654934e-04
1.700000e+08	6.272717e+12	0.000000e+00	6.021505e-01	1.846589e+14	3.121185e+14	5.521331e+13	7.999039e+03	2.585315e+03	2.135223e+03	0	6.565780e-04
1.800000e+08	6.030561e+12	0.000000e+00	6.021505e-01	1.776485e+14	3.017102e+14	5.491753e+13	7.941087e+03	2.575633e+03	2.127227e+03	0	6.480179e-04
1.900000e+08	5.803753e+12	0.000000e+00	6.021505e-01	1.710817e+14	2.919837e+14	5.462394e+13	7.885309e+03	2.566354e+03	2.119563e+03	0	6.397899e-04
2.000000e+08	5.590956e+12	0.000000e+00	6.021505e-01	1.649199e+14	2.828743e+14	5.433250e+13	7.831569e+03	2.557448e+03	2.112207e+03	0	6.318730e-04
2.100000e+08	5.390983e+12	0.000000e+00	6.021505e-01	1.591288e+14	2.743254e+14	5.404321e+13	7.779741e+03	2.548888e+03	2.105138e+03	0	6.242479e-04
2.200000e+08	5.202771e+12	0.000000e+00	6.021505e-01	1.536778e+14	2.662870e+14	5.375605e+13	7.729713e+03	2.540650e+03	2.098334e+03	0	6.168970e-04
2.300000e+08	5.025369e+12	0.000000e+00	6.021505e-01	1.485392e+14	2.587150e+14	5.347099e+13	7.681380e+03	2.532713e+03	2.091779e+03	0	6.098042e-04
2.400000e+08	4.857922e+12	0.000000e+00	6.021505e-01	1.436885e+14	2.515702e+14	5.318802e+13	7.634645e+03	2.525058e+03	2.085456e+03	0	6.029546e-04
2.500000e+08	4.699662e+12	0.000000e+00	6.021505e-01	1.391034e+14	2.448178e+14	5.290712e+13	7.589420e+03	2.517666e+03	2.079352e+03	0	5.963345e-04
2.600000e+08	4.549894e+12	0.000000e+00	6.021505e-01	1.347639e+14	2.384265e+14	5.262828e+13	7.545623e+03	2.510523e+03	2.073452e+03	0	5.899314e-04
2.700000e+08	4.407991e+12	0.000000e+00	6.021505e-01	1.306518e+14	2.323684e+14	5.235148e+13	7.503179e+03	2.503613e+03	2.067745e+03	0	5.837336e-04
2.800000e+08	4.273384e+12	0.000000e+00	6.021505e-01	1.267507e+14	2.266183e+14	5.207670e+13	7.462017e+03	2.496923e+03	2.062219e+03	0	5.777302e-04
2.900000e+08	4.145554e+12	0.000000e+00	6.021505e-01	1.230457e+14	2.211535e+14	5.180392e+13	7.422072e+03	2.490441e+03	2.056866e+03	0	5.719112e-04
3.000000e+08	4.024032e+12	0.000000e+00	6.021505e-01	1.195230e+14	2.159534e+14	5.153314e+13	7.383284e+03	2.484155e+03	2.051674e+03	0	5.662674e-04
3.100000e+08	3.908386e+12	0.000000e+00	6.021505e-01	1.161704e+14	2.109994e+14	5.126432e+13	7.345595e+03	2.478055e+03	2.046637e+03	0	5.607900e-04
3.200000e+08	3.798226e+12	0.000000e+00	6.021505e-01	1.129764e+14	2.062747e+14	5.099746e+13	7.308954e+03	2.472132e+03	2.041745e+03	0	5.554709e-04
3.300000e+08	3.693191e+12	0.000000e+00	6.021505e-01	1.099307e+14	2.017637e+14	5.073255e+13	7.273311e+03	2.466377e+03	2.036992e+03	0	5.503027e-04
3.400000e+08	3.592951e+12	0.000000e+00	6.021505e-01	1.070237e+14	1.974524e+14	5.046955e+13	7.238621e+03	2.460781e+03	2.032370e+03	0	5.452783e-04
3.500000e+08	3.497204e+12	0.000000e+00	6.021505e-01	1.042467e+14	1.933280e+14	5.020847e+13	7.204840e+03	2.455337e+03	2.027874e+03	0	5.403910e-04
3.600000e+08	3.405672e+12	0.000000e+00	6.021505e-01	1.015917e+14	1.893785e+14	4.994927e+13	7.171928e+03	2.450038e+03	2.023497e+03	0	5.356347e-04
3.700000e+08	3.318096e+12	0.000000e+00	6.021505e-01	9.905114e+13	1.855933e+14	4.969196e+13	7.139847e+03	2.444876e+03	2.019234e+03	0	5.310035e-04
3.800000e+08	3.234241e+12	0.000000e+00	6.021505e-01	9.661826e+13	1.819622e+14	4.943650e+13	7.108562e+03	2.439846e+03	2.015080e+03	0	5.264921e-04
3.900000e+08	3.153888e+12	0.000000e+00	6.021505e-01	9.428670e+13	1.784762e+14	4.918290e+13	7.078039e+03	2.434942e+03	2.011029e+03	0	5.220953e-04
4.000000e+08	3.076833e+12	0.000000e+00	6.021505e-01	9.205062e+13	1.751267e+14	4.893112e+13	7.048247e+03	2.430158e+03	2.007078e+03	0	5.178083e-04
4.100000e+08	3.002889e+12	0.000000e+00	6.021505e-01	8.990457e+13	1.719059e+14	4.868116e+13	7.019156e+03	2.425490e+03	2.003222e+03	0	5.136266e-04
4.200000e+08	2.931881e+12	0.000000e+00	6.021505e-01	8.784352e+13	1.688065e+14	4.843300e+13	6.990737e+03	2.420932e+03	1.999458e+03	0	5.095458e-04
4.300000e+08	2.863649e+12	0.000000e+00	6.021505e-01	8.586280e+13	1.658219e+14	4.818663e+13	6.962966e+03	2.416479e+03	1.995781e+03	0	5.055619e-04
4.400000e+08	2.798040e+12	0.000000e+00	6.021505e-01	8.395805e+13	1.629457e+14	4.794203e+13	6.935815e+03	2.412128e+03	1.992187e+03	0	5.016711e-04
4.500000e+08	2.734916e+12	0.000000e+00	6.021505e-01	8.212521e+13	1.601721e+14	4.769919e+13	6.909263e+03	2.407875e+03	1.988674e+03	0	4.978698e-04
4.600000e+08	2.674145e+12	0.000000e+00	6.021505e-01	8.036051e+13	1.574959e+14	4.745809e+13	6.883286e+03	2.403715e+03	1.985239e+03	0	4.941545e-04
4.700000e+08	2.615606e+12	0.000000e+00	6.021505e-01	7.866041e+13	1.549118e+14	4.721872e+13	6.857863e+03	2.399646e+03	1.981878e+03	0	4.905220e-04
4.800000e+08	2.559184e+12	0.000000e+00	6.021505e-01	7.702163e+13	1.524153e+14	4.698107e+13	6.832974e+03	2.395663e+03	1.978588e+03	0	4.869693e-04
4.900000e+08	2.504773e+12	0.000000e+00	6.021505e-01	7.544109e+13	1.500020e+14	4.674512e+13	6.808600e+03	2.391763e+03	1.975368e+03	0	4.834934e-04
5.000000e+08	2.452273e+12	0.000000e+00	6.021505e-01	7.391589e+13	1.476676e+14	4.651085e+13	6.784723e+03	2.387944e+03	1.972213e+03	0	4.800915e-04
5.100000e+08	2.401591e+12	0.000000e+00	6.021505e-01	7.244333e+13	1.454085e+14	4.627826e+13	6.761325e+03	2.384202e+03	1.969123e+03	0	4.767611e-04
5.200000e+08	2.352639e+12	0.000000e+00	6.021505e-01	7.102089e+13	1.432210e+14	4.604733e+13	6.738391e+03	2.380535e+03	1.966094e+03	0	4.734995e-04
5.300000e+08	2.305335e+12	0.000000e+00	6.021505e-01	6.964618e+13	1.411016e+14	4.581805e+13	6.715904e+03	2.376940e+03	1.963125e+03	0	4.703045e-04
5.400000e+08	2.259602e+12	0.000000e+00	6.021505e-01	6.831696e+13	1.390474e+14	4.559040e+13	6.693849e+03	2.373415e+03	1.960214e+03	0	4.671737e-04
5.500000e+08	2.215366e+12	0.000000e+00	6.021505e-01	6.703114e+13	1.370552e+14	4.536437e+13	6.672212e+03	2.369956e+03	1.957357e+03	0	4.641050e-04
5.600000e+08	2.172560e+12	0.000000e+00	6.021505e-01	6.578673e+13	1.351223e+14	4.513994e+13	6.650980e+03	2.366563e+03	1.954555e+03	0	4.610964e-04
5.700000e+08	2.131119e+12	0.000000e+00	6.021505e-01	6.458186e+13	1.332461e+14	4.491711e+13	6.630140e+03	2.363232e+03	1.951804e+03	0	4.581458e-04
5.800000e+08	2.090983e+12	0.000000e+00	6.021505e-01	6.341479e+13	1.314240e+14	4.469586e+13	6.609679e+03	2.359962e+03	1.949103e+03	0	4.552513e-04
5.900000e+08	2.052093e+12	0.000000e+00	6.021505e-01	6.228386e+13	1.296538e+14	4.447618e+13	6.589585e+03	2.356750e+03	1.946450e+03	0	4.524113e-04
6.000000e+08	2.014397e+12	0.000000e+00	6.021505e-01	6.118750e+13	1.279331e+14	4.425805e+13	6.569848e+03	2.353596e+03	1.943845e+03	0	4.496239e-04
6.100000e+08	1.977842e+12	0.000000e+00	6.021505e-01	6.012422e+13	1.262600e+14	4.404147e+13	6.550456e+03	2.350496e+03	1.941285e+03	0	4.468876e-04
6.200000e+08	1.942381e+12	0.000000e+00	6.021505e-01	5.909264e+13	1.246324e+14	4.382642e+13	6.531399e+03	2.347450e+03	1.938769e+03	0	4.442007e-04
6.300000e+08	1.907968e+12	0.000000e+00	6.021505e-01	5.809143e+13	1.230485e+14	4.361288e+13	6.512668e+03	2.344455e+03	1.936296e+03	0	4.415617e-04
6.400000e+08	1.874559e+12	0.000000e+00	6.021505e-01	5.711934e+13	1.215065e+14	4.340085e+13	6.494251e+03	2.341510e+03	1.933864e+03	0	4.389693e-04
6.500000e+08	1.842114e+12	0.000000e+00	6.021505e-01	5.617519e+13	1.200048e+14	4.319032e+13	6.476142e+03	2.338614e+03	1.931472e+03	0	4.364220e-04
6.600000e+08	1.810594e+12	0.000000e+00	6.021505e-01	5.525783e+13	1.185417e+14	4.298126e+13	6.458329e+03	2.335765e+03	1.929119e+03	0	4.339184e-04
6.700000e+08	1.779962e+12	0.000000e+00	6.021505e-01	5.436622e+13	1.171157e+14	4.277368e+13	6.440807e+03	2.332962e+03	1.926803e+03	0	4.314574e-04
6.800000e+08	1.750182e+12	0.000000e+00	6.021505e-01	5.349934e+13	1.157255e+14	4.256755e+13	6.423565e+03	2.330203e+03	1.924525e+03	0	4.290378e-04
6.900000e+08	1.721222e+12	0.000000e+00	6.021505e-01	5.265623e+13	1.143696e+14	4.236287e+13	6.406597e+03	2.327487e+03	1.922282e+03	0	4.266582e-04
7.000000e+08	1.693051e+12	0.000000e+00	6.021505e-01	5.183596e+13	1.130469e+14	4.215963e+13	6.389894e+03	2.324813e+03	1.920073e+03	0	4.243176e-04
7.100000e+08	1.665637e+12	0.000000e+00	6.021505e-01	5.103768e+13	1.117560e+14	4.195781e+13	6.373451e+03	2.322180e+03	1.917898e+03	0	4.220150e-04
7.200000e+08	1.638953e+12	0.000000e+00	6.021505e-01	5.026056e+13	1.104957e+14	4.175739e+13	6.357259e+03	2.319586e+03	1.915756e+03	0	4.197493e-04
7.300000e+08	1.612972e+12	0.000000e+00	6.021505e-01	4.950381e+13	1.092651e+14	4.155838e+13	6.341313e+03	2.317031e+03	1.913646e+03	0	4.175194e-04
7.400000e+08	1.587666e+12	0.000000e+00	6.021505e-01	4.876667e+13	1.080629e+14	4.136076e+13	6.325606e+03	2.314513e+03	1.911566e+03	0	4.153245e-04
7.500000e+08	1.563013e+12	0.000000e+00	6.021505e-01	4.804844e+13	1.068883e+14	4.116452e+13	6.310131e+03	2.312032e+03	1.909517e+03	0	4.131635e-04
7.600000e+08	1.538988e+12	0.000000e+00	6.021505e-01	4.734844e+13	1.057402e+14	4.096964e+13	6.294883e+03	2.309586e+03	1.907497e+03	0	4.110356e-04
7.700000e+08	1.515568e+12	0.000000e+00	6.021505e-01	4.666600e+13	1.046177e+14	4.077612e+13	6.279856e+03	2.307174e+03	1.905505e+03	0	4.089400e-04
7.800000e+08	1.492734e+12	0.000000e+00	6.021505e-01	4.600053e+13	1.035201e+14	4.058395e+13	6.265045e+03	2.304797e+03	1.903541e+03	0	4.068758e-04
7.900000e+08	1.470463e+12	0.000000e+00	6.021505e-01	4.535141e+13	1.024463e+14	4.039311e+13	6.250444e+03	2.302451e+03	1.901605e+03	0	4.048422e-04
8.000000e+08	1.448736e+12	0.000000e+00	6.021505e-01	4.471809e+13	1.013956e+14	4.020359e+13	6.236047e+03	2.300138e+03	1.899694e+03	0	4.028384e-04
8.100000e+08	1.427535e+12	0.000000e+00	6.021505e-01	4.410003e+13	1.003673e+14	4.001538e+13	6.221851e+03	2.297856e+03	1.897809e+03	0	4.008637e-04
8.200000e+08	1.406842e+12	0.000000e+00	6.021505e-01	4.349670e+13	9.936068e+13	3.982848e+13	6.207851e+03	2.295604e+03	1.895950e+03	0	3.989173e-04
8.300000e+08	1.386640e+12	0.000000e+00	6.021505e-01	4.290762e+13	9.837494e+13	3.964287e+13	6.194041e+03	2.293382e+03	1.894114e+03	0	3.969986e-04
8.400000e+08	1.366913e+12	0.000000e+00	6.021505e-01	4.233231e+13	9.740947e+13	3.945855e+13	6.180417e+03	2.291189e+03	1.892303e+03	0	3.951069e-04
8.500000e+08	1.347644e+12	0.000000e+00	6.021505e-01	4.177032e+13	9.646361e+13	3.927549e+13	6.166974e+03	2.289023e+03	1.890514e+03	0	3.932416e-04
8.600000e+08	1.328819e+12	0.000000e+00	6.021505e-01	4.122121e+13	9.553676e+13	3.909370e+13	6.153710e+03	2.286885e+03	1.888749e+03	0	3.914020e-04
8.700000e+08	1.310424e+12	0.000000e+00	6.021505e-01	4.068457e+13	9.462832e+13	3.891315e+13	6.140619e+03	2.284774e+03	1.887005e+03	0	3.895875e-04
8.800000e+08	1.292444e+12	0.000000e+00	6.021505e-01	4.016000e+13	9.373774e+13	3.873385e+13	6.127698e+03	2.282689e+03	1.885283e+03	0	3.877975e-04
8.900000e+08	1.274867e+12	0.000000e+00	6.021505e-01	3.964712e+13	9.286447e+13	3.855578e+13	6.114943e+03	2.280630e+03	1.883582e+03	0	3.860315e-04
9.000000e+08	1.257680e+12	0.000000e+00	6.021505e-01	3.914555e+13	9.200799e+13	3.837894e+13	6.102349e+03	2.278595e+03	1.881902e+03	0	3.842889e-04
9.100000e+08	1.240871e+12	0.000000e+00	6.021505e-01	3.865496e+13	9.116779e+13	3.820330e+13	6.089915e+03	2.276585e+03	1.880242e+03	0	3.825691e-04
9.200000e+08	1.224427e+12	0.000000e+00	6.021505e-01	3.817499e+13	9.034341e+13	3.802887e+13	6.077635e+03	2.274599e+03	1.878601e+03	0	3.808718e-04
9.300000e+08	1.208339e+12	0.000000e+00	6.021505e-01	3.770533e+13	8.953439e+13	3.785563e+13	6.065508e+03	2.272636e+03	1.876980e+03	0	3.791962e-04
9.400000e+08	1.192595e+12	0.000000e+00	6.021505e-01	3.724566e+13	8.874027e+13	3.768358e+13	6.053529e+03	2.270696e+03	1.875377e+03	0	3.775421e-04
9.500000e+08	1.177184e+12	0.000000e+00	6.021505e-01	3.679569e+13	8.796063e+13	3.751270e+13	6.041695e+03	2.268778e+03	1.873793e+03	0	3.759089e-04
9.600000e+08	1.162097e+12	0.000000e+00	6.021505e-01	3.635512e+13	8.719506e+13	3.734299e+13	6.030004e+03	2.266881e+03	1.872227e+03	0	3.742961e-04
9.700000e+08	1.147325e+12	0.000000e+00	6.021505e-01	3.592368e+13	8.644318e+13	3.717443e+13	6.018452e+03	2.265006e+03	1.870679e+03	0	3.727033e-04
9.800000e+08	1.132858e+12	0.000000e+00	6.021505e-01	3.550110e+13	8.570459e+13	3.700702e+13	6.007037e+03	2.263152e+03	1.869147e+03	0	3.711301e-04
9.900000e+08	1.118686e+12	0.000000e+00	6.021505e-01	3.508712e+13	8.497893e+13	3.684074e+13	5.995756e+03	2.261318e+03	1.867633e+03	0	3.695761e-04
1.000000e+09	1.104803e+12	0.000000e+00	6.021505e-01	3.468150e+13	8.426586e+13	3.667560e+13	5.984605e+03	2.259505e+03	1.866135e+03	0	3.680408e-04
1.010000e+09	1.091199e+12	0.000000e+00	6.021505e-01	3.428400e+13	8.356503e+13	3.651157e+13	5.973583e+03	2.257710e+03	1.864653e+03	0	3.665240e-04
1.020000e+09	1.077866e+12	0.000000e+00	6.021505e-01	3.389439e+13	8.287612e+13	3.634866e+13	5.962687e+03	2.255935e+03	1.863187e+03	0	3.650251e-04
1.030000e+09	1.064798e+12	0.000000e+00	6.021505e-01	3.351245e+13	8.219880e+13	3.618685e+13	5.951914e+03	2.254178e+03	1.861736e+03	0	3.635438e-04
1.040000e+09	1.051985e+12	0.000000e+00	6.021505e-01	3.313796e+13	8.153279e+13	3.602613e+13	5.941262e+03	2.252440e+03	1.860300e+03	0	3.620798e-04
1.050000e+09	1.039423e+12	0.000000e+00	6.021505e-01	3.277073e+13	8.087777e+13	3.586649e+13	5.930728e+03	2.250720e+03	1.858879e+03	0	3.606328e-04
1.060000e+09	1.027103e+12	0.000000e+00	6.021505e-01	3.241054e+13	8.023347e+13	3.570794e+13	5.920311e+03	2.249017e+03	1.857473e+03	0	3.592023e-04
1.070000e+09	1.015019e+12	0.000000e+00	6.021505e-01	3.205722e+13	7.959962e+13	3.555045e+13	5.910008e+03	2.247332e+03	1.856081e+03	0	3.577880e-04
1.080000e+09	1.003165e+12	0.000000e+00	6.021505e-01	3.171057e+13	7.897595e+13	3.539402e+13	5.899817e+03	2.245664e+03	1.854703e+03	0	3.563897e-04
1.090000e+09	9.915338e+11	0.000000e+00	6.021505e-01	3.137042e+13	7.836221e+13	3.523865e+13	5.889736e+03	2.244012e+03	1.853339e+03	0	3.550070e-04
1.100000e+09	9.801206e+11	0.000000e+00	6.021505e-01	3.103659e+13	7.775815e+13	3.508431e+13	5.879762e+03	2.242376e+03	1.851988e+03	0	3.536396e-04
1.110000e+09	9.689193e+11	0.000000e+00	6.021505e-01	3.070892e+13	7.716352e+13	3.493101e+13	5.869894e+03	2.240756e+03	1.850650e+03	0	3.522873e-04
1.120000e+09	9.579243e+11	0.000000e+00	6.021505e-01	3.038726e+13	7.657811e+13	3.477874e+13	5.860130e+03	2.239152e+03	1.849325e+03	0	3.509496e-04
1.130000e+09	9.471302e+11	0.000000e+00	6.021505e-01	3.007143e+13	7.600169e+13	3.462749e+13	5.850468e+03	2.237563e+03	1.848013e+03	0	3.496265e-04
1.140000e+09	9.365320e+11	0.000000e+00	6.021505e-01	2.976130e+13	7.543404e+13	3.447725e+13	5.840906e+03	2.235989e+03	1.846713e+03	0	3.483175e-04
1.150000e+09	9.261245e+11	0.000000e+00	6.021505e-01	2.945672e+13	7.487496e+13	3.432801e+13	5.831442e+03	2.234430e+03	1.845426e+03	0	3.470224e-04
1.160000e+09	9.159030e+11	0.000000e+00	6.021505e-01	2.915754e+13	7.432423e+13	3.417977e+13	5.822075e+03	2.232886e+03	1.844150e+03	0	3.457410e-04
1.170000e+09	9.058628e+11	0.000000e+00	6.021505e-01	2.886364e+13	7.378168e+13	3.403252e+13	5.812802e+03	2.231356e+03	1.842886e+03	0	3.444730e-04
1.180000e+09	8.959993e+11	0.000000e+00	6.021505e-01	2.857487e+13	7.324710e+13	3.388624e+13	5.803623e+03	2.229839e+03	1.841634e+03	0	3.432182e-04
1.190000e+09	8.863082e+11	0.000000e+00	6.021505e-01	2.829113e+13	7.272032e+13	3.374094e+13	5.794535e+03	2.228337e+03	1.840393e+03	0	3.419763e-04
1.200000e+09	8.767851e+11	0.000000e+00	6.021505e-01	2.801227e+13	7.220115e+13	3.359660e+13	5.785537e+03	2.226847e+03	1.839163e+03	0	3.407471e-04
1.210000e+09	8.674261e+11	0.000000e+00	6.021505e-01	2.773818e+13	7.168942e+13	3.345322e+13	5.776627e+03	2.225371e+03	1.837944e+03	0	3.395303e-04
1.220000e+09	8.582271e+11	0.000000e+00	6.021505e-01	2.746875e+13	7.118498e+13	3.331079e+13	5.767805e+03	2.223908e+03	1.836736e+03	0	3.383258e-04
1.230000e+09	8.491843e+11	0.000000e+00	6.021505e-01	2.720386e+13	7.068765e+13	3.316930e+13	5.759067e+03	2.222458e+03	1.835538e+03	0	3.371334e-04
1.240000e+09	8.402939e+11	0.000000e+00	6.021505e-01	2.694340e+13	7.019728e+13	3.302875e+13	5.750414e+03	2.221020e+03	1.834350e+03	0	3.359527e-04
1.250000e+09	8.315523e+11	0.000000e+00	6.021505e-01	2.668728e+13	6.971371e+13	3.288912e+13	5.741843e+03	2.219595e+03	1.833173e+03	0	3.347837e-04
1.260000e+09	8.229561e+11	0.000000e+00	6.021505e-01	2.643539e+13	6.923680e+13	3.275041e+13	5.733354e+03	2.218182e+03	1.832006e+03	0	3.336261e-04
1.270000e+09	8.145017e+11	0.000000e+00	6.021505e-01	2.618762e+13	6.876641e+13	3.261262e+13	5.724944e+03	2.216780e+03	1.830848e+03	0	3.324797e-04
1.280000e+09	8.061859e+11	0.000000e+00	6.021505e-01	2.594389e+13	6.830240e+13	3.247574e+13	5.716613e+03	2.215391e+03	1.829701e+03	0	3.313443e-04
1.290000e+09	7.980055e+11	0.000000e+00	6.021505e-01	2.570410e+13	6.784462e+13	3.233975e+13	5.708359e+03	2.214012e+03	1.828562e+03	0	3.302197e-04
1.300000e+09	7.899573e+11	0.000000e+00	6.021505e-01	2.546816e+13	6.739296e+13	3.220466e+13	5.700182e+03	2.212645e+03	1.827433e+03	0	3.291059e-04
1.310000e+09	7.820385e+11	0.000000e+00	6.021505e-01	2.523598e+13	6.694728e+13	3.207045e+13	5.692079e+03	2.211290e+03	1.826314e+03	0	3.280025e-04
1.320000e+09	7.742459e+11	0.000000e+00	6.021505e-01	2.500748e+13	6.650745e+13	3.193712e+13	5.684049e+03	2.209945e+03	1.825203e+03	0	3.269094e-04
1.330000e+09	7.665769e+11	0.000000e+00	6.021505e-01	2.478257e+13	6.607337e+13	3.180467e+13	5.676093e+03	2.208611e+03	1.824101e+03	0	3.258264e-04
1.340000e+09	7.590286e+11	0.000000e+00	6.021505e-01	2.456118e+13	6.564490e+13	3.167308e+13	5.668207e+03	2.207287e+03	1.823008e+03	0	3.247535e-04
1.350000e+09	7.515984e+11	0.000000e+00	6.021505e-01	2.434323e+13	6.522194e+13	3.154235e+13	5.660392e+03	2.205974e+03	1.821924e+03	0	3.236903e-04
1.360000e+09	7.442836e+11	0.000000e+00	6.021505e-01	2.412864e+13	6.480438e+13	3.141247e+13	5.652646e+03	2.204671e+03	1.820848e+03	0	3.226368e-04
