#t		Qconv[W]	Ri[Rp]		R*[Rp]		Qc[W]		Qm[W]		Qr[W]		Tcmb[K]		Tl[K]		Tup[K]		RiFlag		Bs[T]
0.000000e+00	2.279311e+14	0.000000e+00	5.913979e-01	5.065240e+15	1.763142e+15	9.492680e+13	1.873692e+04	3.437705e+03	2.545445e+03	0	2.141835e-03
1.000000e+07	1.922288e+14	0.000000e+00	5.913979e-01	4.274004e+15	2.594407e+15	9.440084e+13	1.778396e+04	3.712508e+03	2.748922e+03	0	2.023599e-03
2.000000e+07	1.634327e+14	0.000000e+00	5.913979e-01	3.635775e+15	3.009259e+15	9.387881e+13	1.697249e+04	3.851856e+03	2.852103e+03	0	1.917040e-03
3.000000e+07	1.402717e+14	0.000000e+00	5.913979e-01	3.122395e+15	3.093643e+15	9.336068e+13	1.627674e+04	3.907933e+03	2.893625e+03	0	1.821832e-03
4.000000e+07	1.215833e+14	0.000000e+00	5.913979e-01	2.708111e+15	2.992754e+15	9.284642e+13	1.567518e+04	3.917453e+03	2.900674e+03	0	1.737039e-03
5.000000e+07	1.063919e+14	0.000000e+00	5.913979e-01	2.371306e+15	2.809332e+15	9.233599e+13	1.515036e+04	3.902339e+03	2.889483e+03	0	1.661452e-03
6.000000e+07	9.392589e+13	0.000000e+00	5.913979e-01	2.094893e+15	2.600081e+15	9.182937e+13	1.468848e+04	3.874822e+03	2.869108e+03	0	1.593847e-03
7.000000e+07	8.359270e+13	0.000000e+00	5.913979e-01	1.865742e+15	2.392558e+15	9.132652e+13	1.427862e+04	3.841565e+03	2.844483e+03	0	1.533114e-03
8.000000e+07	7.494153e+13	0.000000e+00	5.913979e-01	1.673866e+15	2.198686e+15	9.082742e+13	1.391216e+04	3.806160e+03	2.818267e+03	0	1.478288e-03
9.000000e+07	6.762936e+13	0.000000e+00	5.913979e-01	1.511666e+15	2.022623e+15	9.033202e+13	1.358227e+04	3.770533e+03	2.791888e+03	0	1.428554e-03
1.000000e+08	6.139375e+13	0.000000e+00	5.913979e-01	1.373328e+15	1.864880e+15	8.984030e+13	1.328343e+04	3.735696e+03	2.766092e+03	0	1.383225e-03
1.100000e+08	5.603225e+13	0.000000e+00	5.913979e-01	1.254365e+15	1.724373e+15	8.935223e+13	1.301120e+04	3.702154e+03	2.741256e+03	0	1.341727e-03
1.200000e+08	5.138725e+13	0.000000e+00	5.913979e-01	1.151285e+15	1.599427e+15	8.886778e+13	1.276195e+04	3.670138e+03	2.717550e+03	0	1.303577e-03
1.300000e+08	4.733483e+13	0.000000e+00	5.913979e-01	1.061343e+15	1.488239e+15	8.838691e+13	1.253267e+04	3.639719e+03	2.695026e+03	0	1.268368e-03
1.400000e+08	4.377668e+13	0.000000e+00	5.913979e-01	9.823593e+14	1.389093e+15	8.790961e+13	1.232089e+04	3.610885e+03	2.673676e+03	0	1.235755e-03
1.500000e+08	4.063404e+13	0.000000e+00	5.913979e-01	9.125890e+14	1.300442e+15	8.743583e+13	1.212452e+04	3.583580e+03	2.653458e+03	0	1.205447e-03
1.600000e+08	3.784327e+13	0.000000e+00	5.913979e-01	8.506215e+14	1.220923e+15	8.696555e+13	1.194179e+04	3.557724e+03	2.634313e+03	0	1.177193e-03
1.700000e+08	3.535251e+13	0.000000e+00	5.913979e-01	7.953076e+14	1.149359e+15	8.649874e+13	1.177121e+04	3.533227e+03	2.616174e+03	0	1.150778e-03
1.800000e+08	3.311918e+13	0.000000e+00	5.913979e-01	7.457032e+14	1.084737e+15	8.603538e+13	1.161151e+04	3.509998e+03	2.598975e+03	0	1.126017e-03
1.900000e+08	3.110806e+13	0.000000e+00	5.913979e-01	7.010274e+14	1.026191e+15	8.557542e+13	1.146158e+04	3.487950e+03	2.582649e+03	0	1.102747e-03
2.000000e+08	2.928978e+13	0.000000e+00	5.913979e-01	6.606295e+14	9.729761e+14	8.511885e+13	1.132046e+04	3.466997e+03	2.567134e+03	0	1.080829e-03
2.100000e+08	2.763975e+13	0.000000e+00	5.913979e-01	6.239640e+14	9.244566e+14	8.466564e+13	1.118733e+04	3.447061e+03	2.552373e+03	0	1.060139e-03
2.200000e+08	2.613719e+13	0.000000e+00	5.913979e-01	5.905706e+14	8.800852e+14	8.421576e+13	1.106146e+04	3.428068e+03	2.538310e+03	0	1.040570e-03
2.300000e+08	2.476449e+13	0.000000e+00	5.913979e-01	5.600585e+14	8.393909e+14	8.376918e+13	1.094222e+04	3.409952e+03	2.524896e+03	0	1.022025e-03
2.400000e+08	2.350662e+13	0.000000e+00	5.913979e-01	5.320946e+14	8.019669e+14	8.332587e+13	1.082903e+04	3.392651e+03	2.512085e+03	0	1.004419e-03
2.500000e+08	2.235069e+13	0.000000e+00	5.913979e-01	5.063930e+14	7.674608e+14	8.288581e+13	1.072141e+04	3.376108e+03	2.499836e+03	0	9.876776e-04
2.600000e+08	2.128561e+13	0.000000e+00	5.913979e-01	4.827077e+14	7.355663e+14	8.244897e+13	1.061891e+04	3.360271e+03	2.488109e+03	0	9.717329e-04
2.700000e+08	2.030175e+13	0.000000e+00	5.913979e-01	4.608254e+14	7.060163e+14	8.201532e+13	1.052114e+04	3.345093e+03	2.476871e+03	0	9.565244e-04
2.800000e+08	1.939078e+13	0.000000e+00	5.913979e-01	4.405609e+14	6.785772e+14	8.158484e+13	1.042773e+04	3.330532e+03	2.466089e+03	0	9.419980e-04
2.900000e+08	1.854540e+13	0.000000e+00	5.913979e-01	4.217527e+14	6.530439e+14	8.115751e+13	1.033837e+04	3.316546e+03	2.455733e+03	0	9.281047e-04
3.000000e+08	1.775924e+13	0.000000e+00	5.913979e-01	4.042590e+14	6.292360e+14	8.073328e+13	1.025278e+04	3.303100e+03	2.445777e+03	0	9.148003e-04
3.100000e+08	1.702666e+13	0.000000e+00	5.913979e-01	3.879554e+14	6.069939e+14	8.031215e+13	1.017069e+04	3.290160e+03	2.436196e+03	0	9.020448e-04
3.200000e+08	1.634274e+13	0.000000e+00	5.913979e-01	3.727321e+14	5.861765e+14	7.989408e+13	1.009186e+04	3.277697e+03	2.426967e+03	0	8.898016e-04
3.300000e+08	1.570308e+13	0.000000e+00	5.913979e-01	3.584918e+14	5.666584e+14	7.947906e+13	1.001610e+04	3.265681e+03	2.418070e+03	0	8.780377e-04
3.400000e+08	1.510379e+13	0.000000e+00	5.913979e-01	3.451483e+14	5.483279e+14	7.906704e+13	9.943187e+03	3.254086e+03	2.409485e+03	0	8.667228e-04
3.500000e+08	1.454142e+13	0.000000e+00	5.913979e-01	3.326245e+14	5.310853e+14	7.865802e+13	9.872959e+03	3.242889e+03	2.401194e+03	0	8.558293e-04
3.600000e+08	1.401285e+13	0.000000e+00	5.913979e-01	3.208520e+14	5.148413e+14	7.825196e+13	9.805250e+03	3.232067e+03	2.393181e+03	0	8.453316e-04
3.700000e+08	1.351534e+13	0.000000e+00	5.913979e-01	3.097692e+14	4.995157e+14	7.784884e+13	9.739910e+03	3.221601e+03	2.385431e+03	0	8.352065e-04
3.800000e+08	1.304638e+13	0.000000e+00	5.913979e-01	2.993209e+14	4.850365e+14	7.744864e+13	9.676802e+03	3.211470e+03	2.377930e+03	0	8.254326e-04
3.900000e+08	1.260375e+13	0.000000e+00	5.913979e-01	2.894575e+14	4.713385e+14	7.705133e+13	9.615800e+03	3.201657e+03	2.370664e+03	0	8.159900e-04
4.000000e+08	1.218542e+13	0.000000e+00	5.913979e-01	2.801343e+14	4.583631e+14	7.665689e+13	9.556786e+03	3.192147e+03	2.363622e+03	0	8.068605e-04
4.100000e+08	1.178958e+13	0.000000e+00	5.913979e-01	2.713107e+14	4.460569e+14	7.626530e+13	9.499653e+03	3.182923e+03	2.356792e+03	0	7.980271e-04
4.200000e+08	1.141456e+13	0.000000e+00	5.913979e-01	2.629500e+14	4.343719e+14	7.587653e+13	9.444301e+03	3.173971e+03	2.350163e+03	0	7.894742e-04
4.300000e+08	1.105887e+13	0.000000e+00	5.913979e-01	2.550189e+14	4.232639e+14	7.549055e+13	9.390638e+03	3.165278e+03	2.343727e+03	0	7.811872e-04
4.400000e+08	1.072114e+13	0.000000e+00	5.913979e-01	2.474872e+14	4.126931e+14	7.510736e+13	9.338578e+03	3.156832e+03	2.337473e+03	0	7.731526e-04
4.500000e+08	1.040013e+13	0.000000e+00	5.913979e-01	2.403272e+14	4.026229e+14	7.472692e+13	9.288041e+03	3.148621e+03	2.331393e+03	0	7.653578e-04
4.600000e+08	1.009471e+13	0.000000e+00	5.913979e-01	2.335137e+14	3.930199e+14	7.434920e+13	9.238951e+03	3.140635e+03	2.325480e+03	0	7.577911e-04
4.700000e+08	9.803833e+12	0.000000e+00	5.913979e-01	2.270236e+14	3.838535e+14	7.397420e+13	9.191241e+03	3.132863e+03	2.319725e+03	0	7.504415e-04
4.800000e+08	9.526550e+12	0.000000e+00	5.913979e-01	2.208359e+14	3.750958e+14	7.360189e+13	9.144845e+03	3.125295e+03	2.314121e+03	0	7.432988e-04
4.900000e+08	9.261988e+12	0.000000e+00	5.913979e-01	2.149310e+14	3.667210e+14	7.323224e+13	9.099702e+03	3.117922e+03	2.308662e+03	0	7.363534e-04
5.000000e+08	9.009345e+12	0.000000e+00	5.913979e-01	2.092913e+14	3.587053e+14	7.286523e+13	9.055755e+03	3.110737e+03	2.303342e+03	0	7.295963e-04
5.100000e+08	8.767881e+12	0.000000e+00	5.913979e-01	2.039003e+14	3.510268e+14	7.250085e+13	9.012952e+03	3.103731e+03	2.298155e+03	0	7.230191e-04
5.200000e+08	8.536915e+12	0.000000e+00	5.913979e-01	1.987428e+14	3.436655e+14	7.213907e+13	8.971241e+03	3.096897e+03	2.293094e+03	0	7.166139e-04
5.300000e+08	8.315820e+12	0.000000e+00	5.913979e-01	1.938049e+14	3.366027e+14	7.177986e+13	8.930578e+03	3.090228e+03	2.288156e+03	0	7.103732e-04
5.400000e+08	8.104012e+12	0.000000e+00	5.913979e-01	1.890737e+14	3.298212e+14	7.142322e+13	8.890916e+03	3.083716e+03	2.283335e+03	0	7.042901e-04
5.500000e+08	7.900956e+12	0.000000e+00	5.913979e-01	1.845372e+14	3.233049e+14	7.106911e+13	8.852214e+03	3.077357e+03	2.278626e+03	0	6.983580e-04
5.600000e+08	7.706150e+12	0.000000e+00	5.913979e-01	1.801843e+14	3.170391e+14	7.071752e+13	8.814434e+03	3.071143e+03	2.274024e+03	0	6.925706e-04
5.700000e+08	7.519134e+12	0.000000e+00	5.913979e-01	1.760048e+14	3.110099e+14	7.036843e+13	8.777538e+03	3.065069e+03	2.269527e+03	0	6.869221e-04
5.800000e+08	7.339476e+12	0.000000e+00	5.913979e-01	1.719891e+14	3.052046e+14	7.002181e+13	8.741492e+03	3.059130e+03	2.265130e+03	0	6.814070e-04
5.900000e+08	7.166777e+12	0.000000e+00	5.913979e-01	1.681283e+14	2.996112e+14	6.967765e+13	8.706261e+03	3.053321e+03	2.260828e+03	0	6.760200e-04
6.000000e+08	7.000664e+12	0.000000e+00	5.913979e-01	1.644141e+14	2.942186e+14	6.933593e+13	8.671816e+03	3.047636e+03	2.256619e+03	0	6.707561e-04
6.100000e+08	6.840790e+12	0.000000e+00	5.913979e-01	1.608389e+14	2.890165e+14	6.899662e+13	8.638126e+03	3.042072e+03	2.252499e+03	0	6.656107e-04
6.200000e+08	6.686831e+12	0.000000e+00	5.913979e-01	1.573953e+14	2.839951e+14	6.865972e+13	8.605163e+03	3.036624e+03	2.248465e+03	0	6.605794e-04
6.300000e+08	6.538484e+12	0.000000e+00	5.913979e-01	1.540767e+14	2.791455e+14	6.832519e+13	8.572901e+03	3.031288e+03	2.244514e+03	0	6.556578e-04
6.400000e+08	6.395465e+12	0.000000e+00	5.913979e-01	1.508768e+14	2.744591e+14	6.799302e+13	8.541315e+03	3.026060e+03	2.240643e+03	0	6.508421e-04
6.500000e+08	6.257510e+12	0.000000e+00	5.913979e-01	1.477897e+14	2.699279e+14	6.766319e+13	8.510379e+03	3.020936e+03	2.236849e+03	0	6.461283e-04
6.600000e+08	6.124370e+12	0.000000e+00	5.913979e-01	1.448098e+14	2.655446e+14	6.733568e+13	8.480073e+03	3.015913e+03	2.233130e+03	0	6.415129e-04
6.700000e+08	5.995812e+12	0.000000e+00	5.913979e-01	1.419320e+14	2.613021e+14	6.701047e+13	8.450374e+03	3.010987e+03	2.229482e+03	0	6.369924e-04
6.800000e+08	5.871618e+12	0.000000e+00	5.913979e-01	1.391514e+14	2.571939e+14	6.668755e+13	8.421260e+03	3.006155e+03	2.225905e+03	0	6.325636e-04
6.900000e+08	5.751582e+12	0.000000e+00	5.913979e-01	1.364635e+14	2.532138e+14	6.636689e+13	8.392714e+03	3.001415e+03	2.222394e+03	0	6.282233e-04
7.000000e+08	5.635511e+12	0.000000e+00	5.913979e-01	1.338640e+14	2.493560e+14	6.604848e+13	8.364715e+03	2.996762e+03	2.218949e+03	0	6.239685e-04
7.100000e+08	5.523224e+12	0.000000e+00	5.913979e-01	1.313487e+14	2.456150e+14	6.573230e+13	8.337247e+03	2.992194e+03	2.215567e+03	0	6.197965e-04
7.200000e+08	5.414548e+12	0.000000e+00	5.913979e-01	1.289140e+14	2.419856e+14	6.541833e+13	8.310291e+03	2.987709e+03	2.212246e+03	0	6.157045e-04
7.300000e+08	5.309323e+12	0.000000e+00	5.913979e-01	1.265562e+14	2.384631e+14	6.510655e+13	8.283832e+03	2.983304e+03	2.208984e+03	0	6.116899e-04
7.400000e+08	5.207396e+12	0.000000e+00	5.913979e-01	1.242719e+14	2.350427e+14	6.479695e+13	8.257853e+03	2.978976e+03	2.205780e+03	0	6.077502e-04
7.500000e+08	5.108625e+12	0.000000e+00	5.913979e-01	1.220579e+14	2.317202e+14	6.448951e+13	8.232341e+03	2.974724e+03	2.202631e+03	0	6.038831e-04
7.600000e+08	5.012872e+12	0.000000e+00	5.913979e-01	1.199112e+14	2.284915e+14	6.418421e+13	8.207281e+03	2.970544e+03	2.199536e+03	0	6.000864e-04
7.700000e+08	4.920009e+12	0.000000e+00	5.913979e-01	1.178290e+14	2.253527e+14	6.388104e+13	8.182659e+03	2.966435e+03	2.196494e+03	0	5.963578e-04
7.800000e+08	4.829917e+12	0.000000e+00	5.913979e-01	1.158086e+14	2.223000e+14	6.357997e+13	8.158461e+03	2.962394e+03	2.193502e+03	0	5.926952e-04
7.900000e+08	4.742478e+12	0.000000e+00	5.913979e-01	1.138474e+14	2.193301e+14	6.328099e+13	8.134677e+03	2.958420e+03	2.190559e+03	0	5.890968e-04
8.000000e+08	4.657585e+12	0.000000e+00	5.913979e-01	1.119429e+14	2.164396e+14	6.298409e+13	8.111293e+03	2.954511e+03	2.187665e+03	0	5.855606e-04
8.100000e+08	4.575135e+12	0.000000e+00	5.913979e-01	1.100929e+14	2.136254e+14	6.268924e+13	8.088297e+03	2.950664e+03	2.184816e+03	0	5.820847e-04
8.200000e+08	4.495029e+12	0.000000e+00	5.913979e-01	1.082952e+14	2.108845e+14	6.239644e+13	8.065680e+03	2.946879e+03	2.182013e+03	0	5.786674e-04
8.300000e+08	4.417174e+12	0.000000e+00	5.913979e-01	1.065478e+14	2.082142e+14	6.210566e+13	8.043430e+03	2.943153e+03	2.179254e+03	0	5.753071e-04
8.400000e+08	4.341484e+12	0.000000e+00	5.913979e-01	1.048486e+14	2.056116e+14	6.181688e+13	8.021537e+03	2.939484e+03	2.176538e+03	0	5.720021e-04
8.500000e+08	4.267873e+12	0.000000e+00	5.913979e-01	1.031959e+14	2.030744e+14	6.153010e+13	7.999992e+03	2.935872e+03	2.173863e+03	0	5.687508e-04
8.600000e+08	4.196262e+12	0.000000e+00	5.913979e-01	1.015878e+14	2.006000e+14	6.124530e+13	7.978784e+03	2.932314e+03	2.171229e+03	0	5.655518e-04
8.700000e+08	4.126575e+12	0.000000e+00	5.913979e-01	1.000226e+14	1.981862e+14	6.096246e+13	7.957905e+03	2.928809e+03	2.168633e+03	0	5.624037e-04
8.800000e+08	4.058741e+12	0.000000e+00	5.913979e-01	9.849879e+13	1.958307e+14	6.068156e+13	7.937346e+03	2.925356e+03	2.166077e+03	0	5.593050e-04
8.900000e+08	3.992690e+12	0.000000e+00	5.913979e-01	9.701478e+13	1.935315e+14	6.040259e+13	7.917098e+03	2.921953e+03	2.163557e+03	0	5.562544e-04
9.000000e+08	3.928358e+12	0.000000e+00	5.913979e-01	9.556914e+13	1.912865e+14	6.012554e+13	7.897154e+03	2.918599e+03	2.161074e+03	0	5.532506e-04
9.100000e+08	3.865681e+12	0.000000e+00	5.913979e-01	9.416047e+13	1.890939e+14	5.985039e+13	7.877506e+03	2.915293e+03	2.158626e+03	0	5.502925e-04
9.200000e+08	3.804601e+12	0.000000e+00	5.913979e-01	9.278744e+13	1.869519e+14	5.957712e+13	7.858146e+03	2.912034e+03	2.156212e+03	0	5.473787e-04
9.300000e+08	3.745060e+12	0.000000e+00	5.913979e-01	9.144879e+13	1.848586e+14	5.930572e+13	7.839067e+03	2.908820e+03	2.153833e+03	0	5.445083e-04
9.400000e+08	3.687005e+12	0.000000e+00	5.913979e-01	9.014332e+13	1.828125e+14	5.903617e+13	7.820262e+03	2.905650e+03	2.151486e+03	0	5.416800e-04
9.500000e+08	3.630383e+12	0.000000e+00	5.913979e-01	8.886987e+13	1.808120e+14	5.876847e+13	7.801723e+03	2.902523e+03	2.149170e+03	0	5.388928e-04
9.600000e+08	3.575145e+12	0.000000e+00	5.913979e-01	8.762735e+13	1.788555e+14	5.850259e+13	7.783446e+03	2.899439e+03	2.146887e+03	0	5.361457e-04
9.700000e+08	3.521244e+12	0.000000e+00	5.913979e-01	8.641469e+13	1.769416e+14	5.823852e+13	7.765423e+03	2.896395e+03	2.144633e+03	0	5.334376e-04
9.800000e+08	3.468635e+12	0.000000e+00	5.913979e-01	8.523089e+13	1.750689e+14	5.797625e+13	7.747648e+03	2.893392e+03	2.142409e+03	0	5.307677e-04
9.900000e+08	3.417275e+12	0.000000e+00	5.913979e-01	8.407498e+13	1.732361e+14	5.771576e+13	7.730115e+03	2.890428e+03	2.140214e+03	0	5.281349e-04
1.000000e+09	3.367121e+12	0.000000e+00	5.913979e-01	8.294606e+13	1.714419e+14	5.745704e+13	7.712820e+03	2.887502e+03	2.138048e+03	0	5.255384e-04
1.010000e+09	3.318135e+12	0.000000e+00	5.913979e-01	8.184322e+13	1.696851e+14	5.720007e+13	7.695755e+03	2.884613e+03	2.135909e+03	0	5.229774e-04
1.020000e+09	3.270279e+12	0.000000e+00	5.913979e-01	8.076562e+13	1.679645e+14	5.694484e+13	7.678916e+03	2.881761e+03	2.133797e+03	0	5.204510e-04
1.030000e+09	3.223515e+12	0.000000e+00	5.913979e-01	7.971246e+13	1.662790e+14	5.669135e+13	7.662298e+03	2.878944e+03	2.131711e+03	0	5.179583e-04
1.040000e+09	3.177809e+12	0.000000e+00	5.913979e-01	7.868295e+13	1.646275e+14	5.643956e+13	7.645896e+03	2.876162e+03	2.129651e+03	0	5.154986e-04
1.050000e+09	3.133128e+12	0.000000e+00	5.913979e-01	7.767635e+13	1.630090e+14	5.618948e+13	7.629704e+03	2.873414e+03	2.127617e+03	0	5.130712e-04
1.060000e+09	3.089439e+12	0.000000e+00	5.913979e-01	7.669193e+13	1.614225e+14	5.594108e+13	7.613719e+03	2.870700e+03	2.125607e+03	0	5.106752e-04
1.070000e+09	3.046712e+12	0.000000e+00	5.913979e-01	7.572903e+13	1.598670e+14	5.569435e+13	7.597936e+03	2.868018e+03	2.123621e+03	0	5.083101e-04
1.080000e+09	3.004917e+12	0.000000e+00	5.913979e-01	7.478696e+13	1.583417e+14	5.544929e+13	7.582350e+03	2.865367e+03	2.121658e+03	0	5.059750e-04
1.090000e+09	2.964026e+12	0.000000e+00	5.913979e-01	7.386511e+13	1.568457e+14	5.520587e+13	7.566957e+03	2.862748e+03	2.119719e+03	0	5.036694e-04
1.100000e+09	2.924011e+12	0.000000e+00	5.913979e-01	7.296285e+13	1.553780e+14	5.496409e+13	7.551752e+03	2.860159e+03	2.117802e+03	0	5.013926e-04
1.110000e+09	2.884845e+12	0.000000e+00	5.913979e-01	7.207960e+13	1.539379e+14	5.472393e+13	7.536733e+03	2.857600e+03	2.115907e+03	0	4.991439e-04
1.120000e+09	2.846504e+12	0.000000e+00	5.913979e-01	7.121481e+13	1.525246e+14	5.448537e+13	7.521895e+03	2.855070e+03	2.114034e+03	0	4.969227e-04
1.130000e+09	2.808964e+12	0.000000e+00	5.913979e-01	7.036792e+13	1.511374e+14	5.424842e+13	7.507234e+03	2.852569e+03	2.112182e+03	0	4.947285e-04
1.140000e+09	2.772200e+12	0.000000e+00	5.913979e-01	6.953842e+13	1.497755e+14	5.401305e+13	7.492747e+03	2.850096e+03	2.110350e+03	0	4.925607e-04
1.150000e+09	2.736191e+12	0.000000e+00	5.913979e-01	6.872580e+13	1.484382e+14	5.377925e+13	7.478430e+03	2.847649e+03	2.108539e+03	0	4.904187e-04
1.160000e+09	2.700915e+12	0.000000e+00	5.913979e-01	6.792957e+13	1.471249e+14	5.354700e+13	7.464280e+03	2.845230e+03	2.106748e+03	0	4.883020e-04
1.170000e+09	2.666350e+12	0.000000e+00	5.913979e-01	6.714928e+13	1.458349e+14	5.331631e+13	7.450292e+03	2.842837e+03	2.104976e+03	0	4.862101e-04
1.180000e+09	2.632477e+12	0.000000e+00	5.913979e-01	6.638448e+13	1.445675e+14	5.308715e+13	7.436465e+03	2.840470e+03	2.103223e+03	0	4.841424e-04
1.190000e+09	2.599277e+12	0.000000e+00	5.913979e-01	6.563473e+13	1.433222e+14	5.285952e+13	7.422795e+03	2.838128e+03	2.101489e+03	0	4.820985e-04
1.200000e+09	2.566730e+12	0.000000e+00	5.913979e-01	6.489961e+13	1.420984e+14	5.263339e+13	7.409279e+03	2.835810e+03	2.099773e+03	0	4.800778e-04
1.210000e+09	2.534818e+12	0.000000e+00	5.913979e-01	6.417872e+13	1.408955e+14	5.240877e+13	7.395913e+03	2.833517e+03	2.098075e+03	0	4.780799e-04
1.220000e+09	2.503525e+12	0.000000e+00	5.913979e-01	6.347167e+13	1.397130e+14	5.218563e+13	7.382695e+03	2.831248e+03	2.096394e+03	0	4.761044e-04
1.230000e+09	2.472833e+12	0.000000e+00	5.913979e-01	6.277810e+13	1.385504e+14	5.196397e+13	7.369622e+03	2.829002e+03	2.094731e+03	0	4.741508e-04
1.240000e+09	2.442726e+12	0.000000e+00	5.913979e-01	6.209763e+13	1.374071e+14	5.174378e+13	7.356692e+03	2.826778e+03	2.093085e+03	0	4.722187e-04
1.250000e+09	2.413189e+12	0.000000e+00	5.913979e-01	6.142991e+13	1.362827e+14	5.152503e+13	7.343901e+03	2.824577e+03	2.091455e+03	0	4.703076e-04
1.260000e+09	2.384206e+12	0.000000e+00	5.913979e-01	6.077462e+13	1.351766e+14	5.130774e+13	7.331248e+03	2.822398e+03	2.089842e+03	0	4.684172e-04
1.270000e+09	2.355763e+12	0.000000e+00	5.913979e-01	6.013142e+13	1.340885e+14	5.109187e+13	7.318728e+03	2.820241e+03	2.088244e+03	0	4.665470e-04
1.280000e+09	2.327846e+12	0.000000e+00	5.913979e-01	5.950001e+13	1.330179e+14	5.087742e+13	7.306341e+03	2.818105e+03	2.086663e+03	0	4.646967e-04
1.290000e+09	2.300441e+12	0.000000e+00	5.913979e-01	5.888007e+13	1.319643e+14	5.066438e+13	7.294084e+03	2.815989e+03	2.085096e+03	0	4.628660e-04
1.300000e+09	2.273534e+12	0.000000e+00	5.913979e-01	5.827131e+13	1.309274e+14	5.045274e+13	7.281953e+03	2.813894e+03	2.083545e+03	0	4.610543e-04
1.310000e+09	2.247114e+12	0.000000e+00	5.913979e-01	5.767344e+13	1.299067e+14	5.024249e+13	7.269948e+03	2.811819e+03	2.082008e+03	0	4.592614e-04
1.320000e+09	2.221168e+12	0.000000e+00	5.913979e-01	5.708620e+13	1.289019e+14	5.003361e+13	7.258065e+03	2.809763e+03	2.080486e+03	0	4.574869e-04
1.330000e+09	2.195683e+12	0.000000e+00	5.913979e-01	5.650931e+13	1.279125e+14	4.982610e+13	7.246303e+03	2.807727e+03	2.078979e+03	0	4.557305e-04
1.340000e+09	2.170649e+12	0.000000e+00	5.913979e-01	5.594252e+13	1.269383e+14	4.961995e+13	7.234660e+03	2.805710e+03	2.077485e+03	0	4.539919e-04
1.350000e+09	2.146055e+12	0.000000e+00	5.913979e-01	5.538558e+13	1.259788e+14	4.941514e+13	7.223133e+03	2.803711e+03	2.076005e+03	0	4.522707e-04
1.360000e+09	2.121888e+12	0.000000e+00	5.913979e-01	5.483825e+13	1.250338e+14	4.921167e+13	7.211720e+03	2.801731e+03	2.074539e+03	0	4.505667e-04
