#t		Qconv[W]	Ri[Rp]		R*[Rp]		Qc[W]		Qm[W]		Qr[W]		Tcmb[K]		Tl[K]		Tup[K]		RiFlag		Bs[T]
0.000000e+00	7.891972e+13	0.000000e+00	5.978260e-01	1.596870e+15	1.219114e+15	1.065749e+14	1.458861e+04	3.332523e+03	2.610592e+03	0	1.487511e-03
1.000000e+07	7.323913e+13	0.000000e+00	5.978260e-01	1.483088e+15	1.271960e+15	1.059844e+14	1.432140e+04	3.368855e+03	2.639054e+03	0	1.450929e-03
2.000000e+07	6.809762e+13	0.000000e+00	5.978260e-01	1.380094e+15	1.297242e+15	1.053983e+14	1.407276e+04	3.392604e+03	2.657658e+03	0	1.416149e-03
3.000000e+07	6.344617e+13	0.000000e+00	5.978260e-01	1.286907e+15	1.301145e+15	1.048166e+14	1.384099e+04	3.406694e+03	2.668695e+03	0	1.383142e-03
4.000000e+07	5.923687e+13	0.000000e+00	5.978260e-01	1.202568e+15	1.289284e+15	1.042392e+14	1.362452e+04	3.413470e+03	2.674004e+03	0	1.351852e-03
5.000000e+07	5.542431e+13	0.000000e+00	5.978260e-01	1.126168e+15	1.266322e+15	1.036662e+14	1.342193e+04	3.414771e+03	2.675023e+03	0	1.322204e-03
6.000000e+07	5.196639e+13	0.000000e+00	5.978260e-01	1.056866e+15	1.235916e+15	1.030974e+14	1.323194e+04	3.412012e+03	2.672861e+03	0	1.294114e-03
7.000000e+07	4.882480e+13	0.000000e+00	5.978260e-01	9.938944e+14	1.200829e+15	1.025329e+14	1.305342e+04	3.406272e+03	2.668365e+03	0	1.267492e-03
8.000000e+07	4.596509e+13	0.000000e+00	5.978260e-01	9.365650e+14	1.163088e+15	1.019725e+14	1.288533e+04	3.398371e+03	2.662175e+03	0	1.242247e-03
9.000000e+07	4.335654e+13	0.000000e+00	5.978260e-01	8.842628e+14	1.124149e+15	1.014163e+14	1.272675e+04	3.388926e+03	2.654776e+03	0	1.218288e-03
1.000000e+08	4.097193e+13	0.000000e+00	5.978260e-01	8.364434e+14	1.085030e+15	1.008643e+14	1.257688e+04	3.378402e+03	2.646533e+03	0	1.195530e-03
1.100000e+08	3.878721e+13	0.000000e+00	5.978260e-01	7.926256e+14	1.046430e+15	1.003163e+14	1.243496e+04	3.367151e+03	2.637718e+03	0	1.173891e-03
1.200000e+08	3.678118e+13	0.000000e+00	5.978260e-01	7.523855e+14	1.008813e+15	9.977240e+13	1.230036e+04	3.355434e+03	2.628540e+03	0	1.153295e-03
1.300000e+08	3.493521e+13	0.000000e+00	5.978260e-01	7.153501e+14	9.724737e+14	9.923253e+13	1.217249e+04	3.343450e+03	2.619152e+03	0	1.133669e-03
1.400000e+08	3.323286e+13	0.000000e+00	5.978260e-01	6.811905e+14	9.375876e+14	9.869666e+13	1.205080e+04	3.331345e+03	2.609669e+03	0	1.114947e-03
1.500000e+08	3.165966e+13	0.000000e+00	5.978260e-01	6.496173e+14	9.042445e+14	9.816475e+13	1.193484e+04	3.319230e+03	2.600179e+03	0	1.097069e-03
1.600000e+08	3.020284e+13	0.000000e+00	5.978260e-01	6.203750e+14	8.724761e+14	9.763676e+13	1.182418e+04	3.307187e+03	2.590745e+03	0	1.079977e-03
1.700000e+08	2.885114e+13	0.000000e+00	5.978260e-01	5.932381e+14	8.422737e+14	9.711267e+13	1.171843e+04	3.295276e+03	2.581414e+03	0	1.063619e-03
1.800000e+08	2.759458e+13	0.000000e+00	5.978260e-01	5.680069e+14	8.136019e+14	9.659245e+13	1.161723e+04	3.283539e+03	2.572219e+03	0	1.047948e-03
1.900000e+08	2.642431e+13	0.000000e+00	5.978260e-01	5.445044e+14	7.864078e+14	9.607606e+13	1.152028e+04	3.272007e+03	2.563186e+03	0	1.032919e-03
2.000000e+08	2.533249e+13	0.000000e+00	5.978260e-01	5.225736e+14	7.606282e+14	9.556346e+13	1.142730e+04	3.260703e+03	2.554331e+03	0	1.018492e-03
2.100000e+08	2.431211e+13	0.000000e+00	5.978260e-01	5.020744e+14	7.361941e+14	9.505464e+13	1.133800e+04	3.249640e+03	2.545664e+03	0	1.004630e-03
2.200000e+08	2.335695e+13	0.000000e+00	5.978260e-01	4.828821e+14	7.130338e+14	9.454955e+13	1.125217e+04	3.238827e+03	2.537194e+03	0	9.912970e-04
2.300000e+08	2.246144e+13	0.000000e+00	5.978260e-01	4.648851e+14	6.910757e+14	9.404817e+13	1.116958e+04	3.228268e+03	2.528922e+03	0	9.784627e-04
2.400000e+08	2.162058e+13	0.000000e+00	5.978260e-01	4.479836e+14	6.702494e+14	9.355047e+13	1.109002e+04	3.217964e+03	2.520850e+03	0	9.660973e-04
2.500000e+08	2.082990e+13	0.000000e+00	5.978260e-01	4.320878e+14	6.504869e+14	9.305641e+13	1.101333e+04	3.207914e+03	2.512978e+03	0	9.541738e-04
2.600000e+08	2.008537e+13	0.000000e+00	5.978260e-01	4.171170e+14	6.317231e+14	9.256597e+13	1.093933e+04	3.198115e+03	2.505301e+03	0	9.426670e-04
2.700000e+08	1.938335e+13	0.000000e+00	5.978260e-01	4.029987e+14	6.138962e+14	9.207911e+13	1.086786e+04	3.188563e+03	2.497819e+03	0	9.315539e-04
2.800000e+08	1.872056e+13	0.000000e+00	5.978260e-01	3.896671e+14	5.969480e+14	9.159581e+13	1.079879e+04	3.179253e+03	2.490525e+03	0	9.208129e-04
2.900000e+08	1.809405e+13	0.000000e+00	5.978260e-01	3.770628e+14	5.808237e+14	9.111603e+13	1.073197e+04	3.170177e+03	2.483416e+03	0	9.104240e-04
3.000000e+08	1.750112e+13	0.000000e+00	5.978260e-01	3.651320e+14	5.654720e+14	9.063976e+13	1.066729e+04	3.161332e+03	2.476486e+03	0	9.003687e-04
3.100000e+08	1.693934e+13	0.000000e+00	5.978260e-01	3.538257e+14	5.508450e+14	9.016695e+13	1.060464e+04	3.152708e+03	2.469731e+03	0	8.906298e-04
3.200000e+08	1.640647e+13	0.000000e+00	5.978260e-01	3.430996e+14	5.368980e+14	8.969758e+13	1.054391e+04	3.144300e+03	2.463144e+03	0	8.811911e-04
3.300000e+08	1.590050e+13	0.000000e+00	5.978260e-01	3.329130e+14	5.235894e+14	8.923163e+13	1.048501e+04	3.136101e+03	2.456722e+03	0	8.720378e-04
3.400000e+08	1.541957e+13	0.000000e+00	5.978260e-01	3.232290e+14	5.108803e+14	8.876906e+13	1.042783e+04	3.128104e+03	2.450457e+03	0	8.631558e-04
3.500000e+08	1.496200e+13	0.000000e+00	5.978260e-01	3.140135e+14	4.987346e+14	8.830984e+13	1.037230e+04	3.120303e+03	2.444346e+03	0	8.545320e-04
3.600000e+08	1.452625e+13	0.000000e+00	5.978260e-01	3.052358e+14	4.871189e+14	8.785396e+13	1.031834e+04	3.112690e+03	2.438382e+03	0	8.461543e-04
3.700000e+08	1.411088e+13	0.000000e+00	5.978260e-01	2.968672e+14	4.760018e+14	8.740138e+13	1.026588e+04	3.105259e+03	2.432561e+03	0	8.380111e-04
3.800000e+08	1.371460e+13	0.000000e+00	5.978260e-01	2.888818e+14	4.653542e+14	8.695207e+13	1.021484e+04	3.098004e+03	2.426877e+03	0	8.300918e-04
3.900000e+08	1.333621e+13	0.000000e+00	5.978260e-01	2.812553e+14	4.551492e+14	8.650601e+13	1.016516e+04	3.090919e+03	2.421327e+03	0	8.223862e-04
4.000000e+08	1.297459e+13	0.000000e+00	5.978260e-01	2.739658e+14	4.453615e+14	8.606317e+13	1.011678e+04	3.083997e+03	2.415905e+03	0	8.148850e-04
4.100000e+08	1.262874e+13	0.000000e+00	5.978260e-01	2.669927e+14	4.359676e+14	8.562352e+13	1.006965e+04	3.077234e+03	2.410607e+03	0	8.075791e-04
4.200000e+08	1.229771e+13	0.000000e+00	5.978260e-01	2.603172e+14	4.269458e+14	8.518704e+13	1.002370e+04	3.070624e+03	2.405428e+03	0	8.004603e-04
4.300000e+08	1.198063e+13	0.000000e+00	5.978260e-01	2.539217e+14	4.182755e+14	8.475371e+13	9.978897e+03	3.064160e+03	2.400365e+03	0	7.935207e-04
4.400000e+08	1.167668e+13	0.000000e+00	5.978260e-01	2.477902e+14	4.099377e+14	8.432349e+13	9.935182e+03	3.057839e+03	2.395413e+03	0	7.867527e-04
4.500000e+08	1.138513e+13	0.000000e+00	5.978260e-01	2.419076e+14	4.019147e+14	8.389637e+13	9.892515e+03	3.051655e+03	2.390569e+03	0	7.801494e-04
4.600000e+08	1.110528e+13	0.000000e+00	5.978260e-01	2.362599e+14	3.941899e+14	8.347231e+13	9.850853e+03	3.045604e+03	2.385829e+03	0	7.737041e-04
4.700000e+08	1.083648e+13	0.000000e+00	5.978260e-01	2.308343e+14	3.867477e+14	8.305130e+13	9.810156e+03	3.039681e+03	2.381189e+03	0	7.674106e-04
4.800000e+08	1.057813e+13	0.000000e+00	5.978260e-01	2.256187e+14	3.795736e+14	8.263330e+13	9.770387e+03	3.033881e+03	2.376646e+03	0	7.612630e-04
4.900000e+08	1.032967e+13	0.000000e+00	5.978260e-01	2.206018e+14	3.726540e+14	8.221829e+13	9.731509e+03	3.028202e+03	2.372196e+03	0	7.552556e-04
5.000000e+08	1.009059e+13	0.000000e+00	5.978260e-01	2.157732e+14	3.659762e+14	8.180625e+13	9.693490e+03	3.022637e+03	2.367838e+03	0	7.493830e-04
5.100000e+08	9.860380e+12	0.000000e+00	5.978260e-01	2.111232e+14	3.595283e+14	8.139715e+13	9.656297e+03	3.017185e+03	2.363566e+03	0	7.436404e-04
5.200000e+08	9.638601e+12	0.000000e+00	5.978260e-01	2.066425e+14	3.532989e+14	8.099098e+13	9.619899e+03	3.011841e+03	2.359380e+03	0	7.380227e-04
5.300000e+08	9.424823e+12	0.000000e+00	5.978260e-01	2.023227e+14	3.472777e+14	8.058770e+13	9.584269e+03	3.006601e+03	2.355275e+03	0	7.325256e-04
5.400000e+08	9.218649e+12	0.000000e+00	5.978260e-01	1.981557e+14	3.414546e+14	8.018729e+13	9.549378e+03	3.001462e+03	2.351250e+03	0	7.271447e-04
5.500000e+08	9.019703e+12	0.000000e+00	5.978260e-01	1.941340e+14	3.358204e+14	7.978973e+13	9.515201e+03	2.996422e+03	2.347301e+03	0	7.218758e-04
5.600000e+08	8.827636e+12	0.000000e+00	5.978260e-01	1.902507e+14	3.303664e+14	7.939500e+13	9.481713e+03	2.991476e+03	2.343427e+03	0	7.167151e-04
5.700000e+08	8.642118e+12	0.000000e+00	5.978260e-01	1.864991e+14	3.250842e+14	7.900307e+13	9.448891e+03	2.986623e+03	2.339625e+03	0	7.116588e-04
5.800000e+08	8.462842e+12	0.000000e+00	5.978260e-01	1.828730e+14	3.199662e+14	7.861392e+13	9.416711e+03	2.981858e+03	2.335892e+03	0	7.067033e-04
5.900000e+08	8.289515e+12	0.000000e+00	5.978260e-01	1.793666e+14	3.150050e+14	7.822753e+13	9.385153e+03	2.977180e+03	2.332228e+03	0	7.018454e-04
6.000000e+08	8.121866e+12	0.000000e+00	5.978260e-01	1.759745e+14	3.101937e+14	7.784388e+13	9.354196e+03	2.972585e+03	2.328628e+03	0	6.970817e-04
6.100000e+08	7.959635e+12	0.000000e+00	5.978260e-01	1.726913e+14	3.055258e+14	7.746294e+13	9.323821e+03	2.968072e+03	2.325093e+03	0	6.924091e-04
6.200000e+08	7.802582e+12	0.000000e+00	5.978260e-01	1.695123e+14	3.009951e+14	7.708469e+13	9.294009e+03	2.963637e+03	2.321619e+03	0	6.878248e-04
6.300000e+08	7.650475e+12	0.000000e+00	5.978260e-01	1.664329e+14	2.965957e+14	7.670911e+13	9.264743e+03	2.959279e+03	2.318205e+03	0	6.833259e-04
6.400000e+08	7.503101e+12	0.000000e+00	5.978260e-01	1.634487e+14	2.923223e+14	7.633618e+13	9.236005e+03	2.954995e+03	2.314849e+03	0	6.789097e-04
6.500000e+08	7.360253e+12	0.000000e+00	5.978260e-01	1.605556e+14	2.881694e+14	7.596588e+13	9.207779e+03	2.950783e+03	2.311549e+03	0	6.745736e-04
6.600000e+08	7.221740e+12	0.000000e+00	5.978260e-01	1.577497e+14	2.841323e+14	7.559818e+13	9.180050e+03	2.946640e+03	2.308304e+03	0	6.703151e-04
6.700000e+08	7.087379e+12	0.000000e+00	5.978260e-01	1.550275e+14	2.802062e+14	7.523307e+13	9.152802e+03	2.942566e+03	2.305112e+03	0	6.661320e-04
6.800000e+08	6.956997e+12	0.000000e+00	5.978260e-01	1.523854e+14	2.763867e+14	7.487052e+13	9.126022e+03	2.938558e+03	2.301972e+03	0	6.620219e-04
6.900000e+08	6.830430e+12	0.000000e+00	5.978260e-01	1.498200e+14	2.726696e+14	7.451052e+13	9.099696e+03	2.934614e+03	2.298883e+03	0	6.579826e-04
7.000000e+08	6.707524e+12	0.000000e+00	5.978260e-01	1.473285e+14	2.690508e+14	7.415304e+13	9.073811e+03	2.930732e+03	2.295842e+03	0	6.540121e-04
7.100000e+08	6.588130e+12	0.000000e+00	5.978260e-01	1.449076e+14	2.655266e+14	7.379806e+13	9.048353e+03	2.926911e+03	2.292849e+03	0	6.501084e-04
7.200000e+08	6.472110e+12	0.000000e+00	5.978260e-01	1.425547e+14	2.620933e+14	7.344556e+13	9.023312e+03	2.923149e+03	2.289902e+03	0	6.462696e-04
7.300000e+08	6.359332e+12	0.000000e+00	5.978260e-01	1.402671e+14	2.587476e+14	7.309553e+13	8.998675e+03	2.919444e+03	2.287000e+03	0	6.424937e-04
7.400000e+08	6.249668e+12	0.000000e+00	5.978260e-01	1.380423e+14	2.554860e+14	7.274794e+13	8.974431e+03	2.915796e+03	2.284141e+03	0	6.387791e-04
7.500000e+08	6.143000e+12	0.000000e+00	5.978260e-01	1.358778e+14	2.523056e+14	7.240277e+13	8.950570e+03	2.912201e+03	2.281326e+03	0	6.351241e-04
7.600000e+08	6.039213e+12	0.000000e+00	5.978260e-01	1.337714e+14	2.492034e+14	7.206001e+13	8.927081e+03	2.908660e+03	2.278552e+03	0	6.315269e-04
7.700000e+08	5.938200e+12	0.000000e+00	5.978260e-01	1.317209e+14	2.461765e+14	7.171964e+13	8.903954e+03	2.905171e+03	2.275818e+03	0	6.279861e-04
7.800000e+08	5.839857e+12	0.000000e+00	5.978260e-01	1.297242e+14	2.432223e+14	7.138163e+13	8.881180e+03	2.901731e+03	2.273124e+03	0	6.245000e-04
7.900000e+08	5.744085e+12	0.000000e+00	5.978260e-01	1.277794e+14	2.403381e+14	7.104596e+13	8.858749e+03	2.898341e+03	2.270468e+03	0	6.210673e-04
8.000000e+08	5.650791e+12	0.000000e+00	5.978260e-01	1.258845e+14	2.375216e+14	7.071263e+13	8.836653e+03	2.894998e+03	2.267849e+03	0	6.176866e-04
8.100000e+08	5.559887e+12	0.000000e+00	5.978260e-01	1.240377e+14	2.347703e+14	7.038160e+13	8.814883e+03	2.891702e+03	2.265267e+03	0	6.143564e-04
8.200000e+08	5.471286e+12	0.000000e+00	5.978260e-01	1.222375e+14	2.320821e+14	7.005287e+13	8.793431e+03	2.888452e+03	2.262721e+03	0	6.110755e-04
8.300000e+08	5.384907e+12	0.000000e+00	5.978260e-01	1.204820e+14	2.294547e+14	6.972641e+13	8.772288e+03	2.885246e+03	2.260209e+03	0	6.078426e-04
8.400000e+08	5.300672e+12	0.000000e+00	5.978260e-01	1.187698e+14	2.268863e+14	6.940220e+13	8.751448e+03	2.882083e+03	2.257732e+03	0	6.046565e-04
8.500000e+08	5.218508e+12	0.000000e+00	5.978260e-01	1.170993e+14	2.243747e+14	6.908023e+13	8.730902e+03	2.878962e+03	2.255287e+03	0	6.015160e-04
8.600000e+08	5.138343e+12	0.000000e+00	5.978260e-01	1.154692e+14	2.219182e+14	6.876048e+13	8.710644e+03	2.875882e+03	2.252874e+03	0	5.984200e-04
8.700000e+08	5.060109e+12	0.000000e+00	5.978260e-01	1.138780e+14	2.195149e+14	6.844293e+13	8.690667e+03	2.872843e+03	2.250493e+03	0	5.953674e-04
8.800000e+08	4.983742e+12	0.000000e+00	5.978260e-01	1.123245e+14	2.171632e+14	6.812756e+13	8.670963e+03	2.869843e+03	2.248143e+03	0	5.923571e-04
8.900000e+08	4.909180e+12	0.000000e+00	5.978260e-01	1.108074e+14	2.148613e+14	6.781437e+13	8.651528e+03	2.866881e+03	2.245823e+03	0	5.893881e-04
9.000000e+08	4.836362e+12	0.000000e+00	5.978260e-01	1.093256e+14	2.126078e+14	6.750332e+13	8.632353e+03	2.863956e+03	2.243532e+03	0	5.864595e-04
9.100000e+08	4.765232e+12	0.000000e+00	5.978260e-01	1.078778e+14	2.104010e+14	6.719440e+13	8.613434e+03	2.861069e+03	2.241270e+03	0	5.835702e-04
9.200000e+08	4.695735e+12	0.000000e+00	5.978260e-01	1.064629e+14	2.082396e+14	6.688760e+13	8.594764e+03	2.858217e+03	2.239036e+03	0	5.807193e-04
9.300000e+08	4.627819e+12	0.000000e+00	5.978260e-01	1.050800e+14	2.061222e+14	6.658290e+13	8.576338e+03	2.855400e+03	2.236829e+03	0	5.779060e-04
9.400000e+08	4.561434e+12	0.000000e+00	5.978260e-01	1.037280e+14	2.040473e+14	6.628028e+13	8.558150e+03	2.852617e+03	2.234649e+03	0	5.751294e-04
9.500000e+08	4.496532e+12	0.000000e+00	5.978260e-01	1.024059e+14	2.020139e+14	6.597972e+13	8.540196e+03	2.849867e+03	2.232495e+03	0	5.723886e-04
9.600000e+08	4.433065e+12	0.000000e+00	5.978260e-01	1.011129e+14	2.000205e+14	6.568122e+13	8.522469e+03	2.847151e+03	2.230367e+03	0	5.696828e-04
9.700000e+08	4.370990e+12	0.000000e+00	5.978260e-01	9.984792e+13	1.980660e+14	6.538475e+13	8.504965e+03	2.844466e+03	2.228264e+03	0	5.670113e-04
9.800000e+08	4.310265e+12	0.000000e+00	5.978260e-01	9.861021e+13	1.961494e+14	6.509029e+13	8.487679e+03	2.841812e+03	2.226185e+03	0	5.643732e-04
9.900000e+08	4.250848e+12	0.000000e+00	5.978260e-01	9.739893e+13	1.942694e+14	6.479784e+13	8.470606e+03	2.839190e+03	2.224131e+03	0	5.617679e-04
1.000000e+09	4.192699e+12	0.000000e+00	5.978260e-01	9.621329e+13	1.924251e+14	6.450737e+13	8.453743e+03	2.836597e+03	2.222099e+03	0	5.591946e-04
1.010000e+09	4.135782e+12	0.000000e+00	5.978260e-01	9.505252e+13	1.906154e+14	6.421887e+13	8.437083e+03	2.834033e+03	2.220091e+03	0	5.566526e-04
1.020000e+09	4.080058e+12	0.000000e+00	5.978260e-01	9.391588e+13	1.888393e+14	6.393233e+13	8.420624e+03	2.831499e+03	2.218106e+03	0	5.541413e-04
1.030000e+09	4.025495e+12	0.000000e+00	5.978260e-01	9.280268e+13	1.870959e+14	6.364773e+13	8.404361e+03	2.828992e+03	2.216142e+03	0	5.516600e-04
1.040000e+09	3.972057e+12	0.000000e+00	5.978260e-01	9.171224e+13	1.853844e+14	6.336504e+13	8.388290e+03	2.826513e+03	2.214200e+03	0	5.492080e-04
1.050000e+09	3.919712e+12	0.000000e+00	5.978260e-01	9.064389e+13	1.837037e+14	6.308427e+13	8.372407e+03	2.824061e+03	2.212279e+03	0	5.467848e-04
1.060000e+09	3.868429e+12	0.000000e+00	5.978260e-01	8.959701e+13	1.820532e+14	6.280539e+13	8.356708e+03	2.821635e+03	2.210379e+03	0	5.443898e-04
1.070000e+09	3.818178e+12	0.000000e+00	5.978260e-01	8.857099e+13	1.804319e+14	6.252839e+13	8.341190e+03	2.819235e+03	2.208499e+03	0	5.420223e-04
1.080000e+09	3.768929e+12	0.000000e+00	5.978260e-01	8.756525e+13	1.788392e+14	6.225326e+13	8.325849e+03	2.816861e+03	2.206639e+03	0	5.396818e-04
1.090000e+09	3.720656e+12	0.000000e+00	5.978260e-01	8.657923e+13	1.772741e+14	6.197997e+13	8.310681e+03	2.814512e+03	2.204799e+03	0	5.373677e-04
1.100000e+09	3.673330e+12	0.000000e+00	5.978260e-01	8.561237e+13	1.757361e+14	6.170852e+13	8.295684e+03	2.812187e+03	2.202977e+03	0	5.350796e-04
1.110000e+09	3.626925e+12	0.000000e+00	5.978260e-01	8.466415e+13	1.742244e+14	6.143889e+13	8.280853e+03	2.809886e+03	2.201175e+03	0	5.328168e-04
1.120000e+09	3.581417e+12	0.000000e+00	5.978260e-01	8.373408e+13	1.727383e+14	6.117107e+13	8.266186e+03	2.807608e+03	2.199391e+03	0	5.305790e-04
1.130000e+09	3.536782e+12	0.000000e+00	5.978260e-01	8.282165e+13	1.712772e+14	6.090503e+13	8.251679e+03	2.805354e+03	2.197625e+03	0	5.283656e-04
1.140000e+09	3.492995e+12	0.000000e+00	5.978260e-01	8.192640e+13	1.698405e+14	6.064078e+13	8.237330e+03	2.803122e+03	2.195876e+03	0	5.261761e-04
1.150000e+09	3.450035e+12	0.000000e+00	5.978260e-01	8.104787e+13	1.684274e+14	6.037829e+13	8.223136e+03	2.800912e+03	2.194145e+03	0	5.240100e-04
1.160000e+09	3.407879e+12	0.000000e+00	5.978260e-01	8.018562e+13	1.670375e+14	6.011755e+13	8.209093e+03	2.798724e+03	2.192431e+03	0	5.218670e-04
1.170000e+09	3.366507e+12	0.000000e+00	5.978260e-01	7.933923e+13	1.656702e+14	5.985855e+13	8.195199e+03	2.796558e+03	2.190734e+03	0	5.197465e-04
1.180000e+09	3.325897e+12	0.000000e+00	5.978260e-01	7.850829e+13	1.643248e+14	5.960127e+13	8.181451e+03	2.794412e+03	2.189053e+03	0	5.176482e-04
1.190000e+09	3.286031e+12	0.000000e+00	5.978260e-01	7.769239e+13	1.630009e+14	5.934571e+13	8.167847e+03	2.792287e+03	2.187388e+03	0	5.155716e-04
1.200000e+09	3.246889e+12	0.000000e+00	5.978260e-01	7.689116e+13	1.616980e+14	5.909184e+13	8.154384e+03	2.790182e+03	2.185739e+03	0	5.135163e-04
1.210000e+09	3.208453e+12	0.000000e+00	5.978260e-01	7.610422e+13	1.604155e+14	5.883965e+13	8.141058e+03	2.788097e+03	2.184106e+03	0	5.114819e-04
1.220000e+09	3.170704e+12	0.000000e+00	5.978260e-01	7.533121e+13	1.591530e+14	5.858913e+13	8.127869e+03	2.786031e+03	2.182488e+03	0	5.094681e-04
1.230000e+09	3.133627e+12	0.000000e+00	5.978260e-01	7.457179e+13	1.579100e+14	5.834027e+13	8.114813e+03	2.783985e+03	2.180885e+03	0	5.074744e-04
1.240000e+09	3.097203e+12	0.000000e+00	5.978260e-01	7.382561e+13	1.566860e+14	5.809306e+13	8.101889e+03	2.781957e+03	2.179296e+03	0	5.055005e-04
1.250000e+09	3.061417e+12	0.000000e+00	5.978260e-01	7.309236e+13	1.554806e+14	5.784748e+13	8.089093e+03	2.779948e+03	2.177723e+03	0	5.035461e-04
1.260000e+09	3.026253e+12	0.000000e+00	5.978260e-01	7.237172e+13	1.542934e+14	5.760351e+13	8.076424e+03	2.777957e+03	2.176163e+03	0	5.016107e-04
1.270000e+09	2.991697e+12	0.000000e+00	5.978260e-01	7.166337e+13	1.531240e+14	5.736116e+13	8.063880e+03	2.775984e+03	2.174617e+03	0	4.996941e-04
1.280000e+09	2.957732e+12	0.000000e+00	5.978260e-01	7.096703e+13	1.519718e+14	5.712039e+13	8.051457e+03	2.774028e+03	2.173085e+03	0	4.977959e-04
1.290000e+09	2.924346e+12	0.000000e+00	5.978260e-01	7.028240e+13	1.508367e+14	5.688121e+13	8.039156e+03	2.772090e+03	2.171567e+03	0	4.959159e-04
1.300000e+09	2.891524e+12	0.000000e+00	5.978260e-01	6.960922e+13	1.497181e+14	5.664360e+13	8.026972e+03	2.770169e+03	2.170062e+03	0	4.940535e-04
1.310000e+09	2.859253e+12	0.000000e+00	5.978260e-01	6.894720e+13	1.486157e+14	5.640755e+13	8.014905e+03	2.768264e+03	2.168569e+03	0	4.922087e-04
1.320000e+09	2.827520e+12	0.000000e+00	5.978260e-01	6.829609e+13	1.475292e+14	5.617305e+13	8.002952e+03	2.766375e+03	2.167090e+03	0	4.903810e-04
1.330000e+09	2.796312e+12	0.000000e+00	5.978260e-01	6.765563e+13	1.464582e+14	5.594007e+13	7.991111e+03	2.764503e+03	2.165624e+03	0	4.885702e-04
1.340000e+09	2.765618e+12	0.000000e+00	5.978260e-01	6.702558e+13	1.454024e+14	5.570862e+13	7.979382e+03	2.762647e+03	2.164169e+03	0	4.867760e-04
1.350000e+09	2.735424e+12	0.000000e+00	5.978260e-01	6.640570e+13	1.443614e+14	5.547868e+13	7.967761e+03	2.760806e+03	2.162727e+03	0	4.849980e-04
1.360000e+09	2.705721e+12	0.000000e+00	5.978260e-01	6.579576e+13	1.433349e+14	5.525024e+13	7.956247e+03	2.758981e+03	2.161297e+03	0	4.832361e-04
