#t		Qconv[W]	Ri[Rp]		R*[Rp]		Qc[W]		Qm[W]		Qr[W]		Tcmb[K]		Tl[K]		Tup[K]		RiFlag		Bs[T]
0.000000e+00	4.031050e+14	0.000000e+00	5.934063e-01	5.633794e+15	1.528484e+15	1.891031e+14	2.334881e+04	3.911801e+03	2.883241e+03	0	2.510110e-03
1.000000e+07	3.747889e+14	0.000000e+00	5.934063e-01	5.243466e+15	2.047159e+15	1.880554e+14	2.284613e+04	4.103325e+03	3.024406e+03	0	2.449904e-03
2.000000e+07	3.484762e+14	0.000000e+00	5.934063e-01	4.880747e+15	2.508635e+15	1.870154e+14	2.237731e+04	4.252341e+03	3.134240e+03	0	2.391174e-03
3.000000e+07	3.241249e+14	0.000000e+00	5.934063e-01	4.545050e+15	2.876612e+15	1.859833e+14	2.194007e+04	4.363913e+03	3.216475e+03	0	2.334126e-03
4.000000e+07	3.016937e+14	0.000000e+00	5.934063e-01	4.235797e+15	3.140090e+15	1.849588e+14	2.153215e+04	4.444202e+03	3.275653e+03	0	2.278989e-03
5.000000e+07	2.811168e+14	0.000000e+00	5.934063e-01	3.952078e+15	3.305849e+15	1.839420e+14	2.115133e+04	4.499408e+03	3.316344e+03	0	2.225952e-03
6.000000e+07	2.623005e+14	0.000000e+00	5.934063e-01	3.692598e+15	3.389645e+15	1.829328e+14	2.079543e+04	4.535112e+03	3.342660e+03	0	2.175136e-03
7.000000e+07	2.451290e+14	0.000000e+00	5.934063e-01	3.455760e+15	3.409656e+15	1.819310e+14	2.046238e+04	4.555992e+03	3.358049e+03	0	2.126596e-03
8.000000e+07	2.294740e+14	0.000000e+00	5.934063e-01	3.239799e+15	3.382791e+15	1.809368e+14	2.015025e+04	4.565789e+03	3.365271e+03	0	2.080325e-03
9.000000e+07	2.152035e+14	0.000000e+00	5.934063e-01	3.042896e+15	3.323155e+15	1.799499e+14	1.985723e+04	4.567410e+03	3.366465e+03	0	2.036275e-03
1.000000e+08	2.021879e+14	0.000000e+00	5.934063e-01	2.863269e+15	3.241764e+15	1.789703e+14	1.958168e+04	4.563064e+03	3.363262e+03	0	1.994367e-03
1.100000e+08	1.903045e+14	0.000000e+00	5.934063e-01	2.699229e+15	3.146861e+15	1.779981e+14	1.932208e+04	4.554414e+03	3.356886e+03	0	1.954504e-03
1.200000e+08	1.794396e+14	0.000000e+00	5.934063e-01	2.549212e+15	3.044421e+15	1.770330e+14	1.907709e+04	4.542700e+03	3.348252e+03	0	1.916577e-03
1.300000e+08	1.694896e+14	0.000000e+00	5.934063e-01	2.411793e+15	2.938668e+15	1.760750e+14	1.884548e+04	4.528843e+03	3.338039e+03	0	1.880476e-03
1.400000e+08	1.603608e+14	0.000000e+00	5.934063e-01	2.285683e+15	2.832519e+15	1.751242e+14	1.862614e+04	4.513525e+03	3.326749e+03	0	1.846090e-03
1.500000e+08	1.519696e+14	0.000000e+00	5.934063e-01	2.169732e+15	2.727938e+15	1.741804e+14	1.841808e+04	4.497253e+03	3.314755e+03	0	1.813311e-03
1.600000e+08	1.442414e+14	0.000000e+00	5.934063e-01	2.062912e+15	2.626203e+15	1.732436e+14	1.822041e+04	4.480397e+03	3.302332e+03	0	1.782037e-03
1.700000e+08	1.371097e+14	0.000000e+00	5.934063e-01	1.964312e+15	2.528109e+15	1.723136e+14	1.803232e+04	4.463235e+03	3.289682e+03	0	1.752170e-03
1.800000e+08	1.305157e+14	0.000000e+00	5.934063e-01	1.873120e+15	2.434111e+15	1.713906e+14	1.785308e+04	4.445967e+03	3.276954e+03	0	1.723618e-03
1.900000e+08	1.244071e+14	0.000000e+00	5.934063e-01	1.788617e+15	2.344428e+15	1.704743e+14	1.768204e+04	4.428742e+03	3.264258e+03	0	1.696297e-03
2.000000e+08	1.187376e+14	0.000000e+00	5.934063e-01	1.710166e+15	2.259120e+15	1.695648e+14	1.751861e+04	4.411667e+03	3.251673e+03	0	1.670127e-03
2.100000e+08	1.134660e+14	0.000000e+00	5.934063e-01	1.637199e+15	2.178139e+15	1.686619e+14	1.736225e+04	4.394819e+03	3.239255e+03	0	1.645036e-03
2.200000e+08	1.085556e+14	0.000000e+00	5.934063e-01	1.569214e+15	2.101366e+15	1.677657e+14	1.721247e+04	4.378253e+03	3.227045e+03	0	1.620955e-03
2.300000e+08	1.039739e+14	0.000000e+00	5.934063e-01	1.505760e+15	2.028642e+15	1.668761e+14	1.706883e+04	4.362006e+03	3.215070e+03	0	1.597821e-03
2.400000e+08	9.969180e+13	0.000000e+00	5.934063e-01	1.446438e+15	1.959777e+15	1.659930e+14	1.693093e+04	4.346103e+03	3.203348e+03	0	1.575578e-03
2.500000e+08	9.568328e+13	0.000000e+00	5.934063e-01	1.390889e+15	1.894572e+15	1.651163e+14	1.679838e+04	4.330558e+03	3.191891e+03	0	1.554171e-03
2.600000e+08	9.192510e+13	0.000000e+00	5.934063e-01	1.338794e+15	1.832824e+15	1.642461e+14	1.667087e+04	4.315381e+03	3.180704e+03	0	1.533551e-03
2.700000e+08	8.839640e+13	0.000000e+00	5.934063e-01	1.289866e+15	1.774329e+15	1.633822e+14	1.654808e+04	4.300573e+03	3.169790e+03	0	1.513672e-03
2.800000e+08	8.507846e+13	0.000000e+00	5.934063e-01	1.243846e+15	1.718891e+15	1.625247e+14	1.642972e+04	4.286133e+03	3.159147e+03	0	1.494491e-03
2.900000e+08	8.195441e+13	0.000000e+00	5.934063e-01	1.200503e+15	1.666321e+15	1.616734e+14	1.631554e+04	4.272058e+03	3.148772e+03	0	1.475970e-03
3.000000e+08	7.900904e+13	0.000000e+00	5.934063e-01	1.159626e+15	1.616438e+15	1.608283e+14	1.620529e+04	4.258340e+03	3.138661e+03	0	1.458072e-03
3.100000e+08	7.622859e+13	0.000000e+00	5.934063e-01	1.121026e+15	1.569074e+15	1.599894e+14	1.609875e+04	4.244971e+03	3.128808e+03	0	1.440764e-03
3.200000e+08	7.360064e+13	0.000000e+00	5.934063e-01	1.084532e+15	1.524067e+15	1.591565e+14	1.599572e+04	4.231944e+03	3.119206e+03	0	1.424013e-03
3.300000e+08	7.111390e+13	0.000000e+00	5.934063e-01	1.049988e+15	1.481269e+15	1.583298e+14	1.589602e+04	4.219248e+03	3.109848e+03	0	1.407791e-03
3.400000e+08	6.875811e+13	0.000000e+00	5.934063e-01	1.017254e+15	1.440541e+15	1.575090e+14	1.579945e+04	4.206874e+03	3.100728e+03	0	1.392071e-03
3.500000e+08	6.652395e+13	0.000000e+00	5.934063e-01	9.861999e+14	1.401752e+15	1.566942e+14	1.570587e+04	4.194811e+03	3.091837e+03	0	1.376827e-03
3.600000e+08	6.440291e+13	0.000000e+00	5.934063e-01	9.567091e+14	1.364781e+15	1.558853e+14	1.561511e+04	4.183050e+03	3.083168e+03	0	1.362036e-03
3.700000e+08	6.238722e+13	0.000000e+00	5.934063e-01	9.286746e+14	1.329516e+15	1.550822e+14	1.552704e+04	4.171579e+03	3.074713e+03	0	1.347675e-03
3.800000e+08	6.046979e+13	0.000000e+00	5.934063e-01	9.019983e+14	1.295852e+15	1.542850e+14	1.544153e+04	4.160389e+03	3.066466e+03	0	1.333725e-03
3.900000e+08	5.864410e+13	0.000000e+00	5.934063e-01	8.765904e+14	1.263692e+15	1.534935e+14	1.535845e+04	4.149471e+03	3.058418e+03	0	1.320165e-03
4.000000e+08	5.690419e+13	0.000000e+00	5.934063e-01	8.523688e+14	1.232946e+15	1.527077e+14	1.527770e+04	4.138814e+03	3.050563e+03	0	1.306978e-03
4.100000e+08	5.524456e+13	0.000000e+00	5.934063e-01	8.292576e+14	1.203530e+15	1.519276e+14	1.519915e+04	4.128410e+03	3.042895e+03	0	1.294146e-03
4.200000e+08	5.366018e+13	0.000000e+00	5.934063e-01	8.071873e+14	1.175365e+15	1.511532e+14	1.512271e+04	4.118249e+03	3.035406e+03	0	1.281654e-03
4.300000e+08	5.214638e+13	0.000000e+00	5.934063e-01	7.860937e+14	1.148381e+15	1.503843e+14	1.504829e+04	4.108323e+03	3.028090e+03	0	1.269487e-03
4.400000e+08	5.069888e+13	0.000000e+00	5.934063e-01	7.659176e+14	1.122508e+15	1.496209e+14	1.497580e+04	4.098623e+03	3.020940e+03	0	1.257630e-03
4.500000e+08	4.931372e+13	0.000000e+00	5.934063e-01	7.466042e+14	1.097684e+15	1.488630e+14	1.490515e+04	4.089142e+03	3.013952e+03	0	1.246071e-03
4.600000e+08	4.798723e+13	0.000000e+00	5.934063e-01	7.281030e+14	1.073852e+15	1.481106e+14	1.483628e+04	4.079872e+03	3.007119e+03	0	1.234796e-03
4.700000e+08	4.671600e+13	0.000000e+00	5.934063e-01	7.103670e+14	1.050956e+15	1.473636e+14	1.476909e+04	4.070805e+03	3.000436e+03	0	1.223795e-03
4.800000e+08	4.549689e+13	0.000000e+00	5.934063e-01	6.933529e+14	1.028945e+15	1.466219e+14	1.470353e+04	4.061934e+03	2.993898e+03	0	1.213056e-03
4.900000e+08	4.432698e+13	0.000000e+00	5.934063e-01	6.770201e+14	1.007772e+15	1.458855e+14	1.463952e+04	4.053253e+03	2.987499e+03	0	1.202568e-03
5.000000e+08	4.320354e+13	0.000000e+00	5.934063e-01	6.613311e+14	9.873938e+14	1.451544e+14	1.457701e+04	4.044754e+03	2.981235e+03	0	1.192321e-03
5.100000e+08	4.212404e+13	0.000000e+00	5.934063e-01	6.462510e+14	9.677677e+14	1.444285e+14	1.451594e+04	4.036432e+03	2.975102e+03	0	1.182307e-03
5.200000e+08	4.108614e+13	0.000000e+00	5.934063e-01	6.317473e+14	9.488553e+14	1.437078e+14	1.445625e+04	4.028281e+03	2.969094e+03	0	1.172515e-03
5.300000e+08	4.008762e+13	0.000000e+00	5.934063e-01	6.177895e+14	9.306205e+14	1.429922e+14	1.439789e+04	4.020295e+03	2.963208e+03	0	1.162939e-03
5.400000e+08	3.912644e+13	0.000000e+00	5.934063e-01	6.043494e+14	9.130293e+14	1.422818e+14	1.434082e+04	4.012469e+03	2.957439e+03	0	1.153569e-03
5.500000e+08	3.820068e+13	0.000000e+00	5.934063e-01	5.914004e+14	8.960498e+14	1.415764e+14	1.428497e+04	4.004797e+03	2.951784e+03	0	1.144398e-03
5.600000e+08	3.730855e+13	0.000000e+00	5.934063e-01	5.789178e+14	8.796522e+14	1.408760e+14	1.423031e+04	3.997274e+03	2.946239e+03	0	1.135419e-03
5.700000e+08	3.644837e+13	0.000000e+00	5.934063e-01	5.668784e+14	8.638085e+14	1.401805e+14	1.417680e+04	3.989895e+03	2.940801e+03	0	1.126625e-03
5.800000e+08	3.561857e+13	0.000000e+00	5.934063e-01	5.552603e+14	8.484923e+14	1.394900e+14	1.412439e+04	3.982657e+03	2.935466e+03	0	1.118010e-03
5.900000e+08	3.481767e+13	0.000000e+00	5.934063e-01	5.440433e+14	8.336789e+14	1.388044e+14	1.407305e+04	3.975553e+03	2.930230e+03	0	1.109566e-03
6.000000e+08	3.404428e+13	0.000000e+00	5.934063e-01	5.332082e+14	8.193449e+14	1.381237e+14	1.402274e+04	3.968581e+03	2.925091e+03	0	1.101289e-03
6.100000e+08	3.329711e+13	0.000000e+00	5.934063e-01	5.227370e+14	8.054685e+14	1.374478e+14	1.397343e+04	3.961736e+03	2.920046e+03	0	1.093173e-03
6.200000e+08	3.257492e+13	0.000000e+00	5.934063e-01	5.126127e+14	7.920289e+14	1.367766e+14	1.392508e+04	3.955014e+03	2.915091e+03	0	1.085212e-03
6.300000e+08	3.187658e+13	0.000000e+00	5.934063e-01	5.028195e+14	7.790067e+14	1.361102e+14	1.387765e+04	3.948411e+03	2.910225e+03	0	1.077401e-03
6.400000e+08	3.120100e+13	0.000000e+00	5.934063e-01	4.933423e+14	7.663834e+14	1.354485e+14	1.383113e+04	3.941924e+03	2.905443e+03	0	1.069735e-03
6.500000e+08	3.054715e+13	0.000000e+00	5.934063e-01	4.841670e+14	7.541417e+14	1.347914e+14	1.378548e+04	3.935550e+03	2.900745e+03	0	1.062210e-03
6.600000e+08	2.991406e+13	0.000000e+00	5.934063e-01	4.752803e+14	7.422652e+14	1.341390e+14	1.374068e+04	3.929284e+03	2.896127e+03	0	1.054821e-03
6.700000e+08	2.930084e+13	0.000000e+00	5.934063e-01	4.666695e+14	7.307383e+14	1.334912e+14	1.369669e+04	3.923125e+03	2.891587e+03	0	1.047563e-03
6.800000e+08	2.870662e+13	0.000000e+00	5.934063e-01	4.583229e+14	7.195464e+14	1.328479e+14	1.365349e+04	3.917068e+03	2.887123e+03	0	1.040433e-03
6.900000e+08	2.813058e+13	0.000000e+00	5.934063e-01	4.502290e+14	7.086756e+14	1.322091e+14	1.361106e+04	3.911112e+03	2.882732e+03	0	1.033427e-03
7.000000e+08	2.757197e+13	0.000000e+00	5.934063e-01	4.423774e+14	6.981128e+14	1.315748e+14	1.356938e+04	3.905252e+03	2.878413e+03	0	1.026540e-03
7.100000e+08	2.703004e+13	0.000000e+00	5.934063e-01	4.347579e+14	6.878453e+14	1.309449e+14	1.352842e+04	3.899486e+03	2.874164e+03	0	1.019770e-03
7.200000e+08	2.650412e+13	0.000000e+00	5.934063e-01	4.273609e+14	6.778615e+14	1.303195e+14	1.348816e+04	3.893813e+03	2.869982e+03	0	1.013113e-03
7.300000e+08	2.599355e+13	0.000000e+00	5.934063e-01	4.201776e+14	6.681500e+14	1.296984e+14	1.344858e+04	3.888228e+03	2.865866e+03	0	1.006565e-03
7.400000e+08	2.549771e+13	0.000000e+00	5.934063e-01	4.131991e+14	6.587003e+14	1.290816e+14	1.340966e+04	3.882730e+03	2.861814e+03	0	1.000124e-03
7.500000e+08	2.501602e+13	0.000000e+00	5.934063e-01	4.064176e+14	6.495021e+14	1.284692e+14	1.337139e+04	3.877317e+03	2.857824e+03	0	9.937859e-04
7.600000e+08	2.454791e+13	0.000000e+00	5.934063e-01	3.998251e+14	6.405459e+14	1.278610e+14	1.333374e+04	3.871986e+03	2.853895e+03	0	9.875482e-04
7.700000e+08	2.409286e+13	0.000000e+00	5.934063e-01	3.934144e+14	6.318225e+14	1.272570e+14	1.329670e+04	3.866735e+03	2.850024e+03	0	9.814079e-04
7.800000e+08	2.365036e+13	0.000000e+00	5.934063e-01	3.871785e+14	6.233232e+14	1.266573e+14	1.326024e+04	3.861562e+03	2.846211e+03	0	9.753624e-04
7.900000e+08	2.321993e+13	0.000000e+00	5.934063e-01	3.811107e+14	6.150397e+14	1.260617e+14	1.322437e+04	3.856465e+03	2.842454e+03	0	9.694091e-04
8.000000e+08	2.280113e+13	0.000000e+00	5.934063e-01	3.752048e+14	6.069640e+14	1.254702e+14	1.318905e+04	3.851441e+03	2.838752e+03	0	9.635455e-04
8.100000e+08	2.239350e+13	0.000000e+00	5.934063e-01	3.694547e+14	5.990887e+14	1.248829e+14	1.315428e+04	3.846490e+03	2.835102e+03	0	9.577690e-04
8.200000e+08	2.199665e+13	0.000000e+00	5.934063e-01	3.638546e+14	5.914066e+14	1.242996e+14	1.312003e+04	3.841609e+03	2.831505e+03	0	9.520775e-04
8.300000e+08	2.161017e+13	0.000000e+00	5.934063e-01	3.583992e+14	5.839108e+14	1.237203e+14	1.308631e+04	3.836797e+03	2.827958e+03	0	9.464686e-04
8.400000e+08	2.123370e+13	0.000000e+00	5.934063e-01	3.530832e+14	5.765948e+14	1.231451e+14	1.305309e+04	3.832051e+03	2.824460e+03	0	9.409401e-04
8.500000e+08	2.086687e+13	0.000000e+00	5.934063e-01	3.479017e+14	5.694524e+14	1.225738e+14	1.302035e+04	3.827371e+03	2.821010e+03	0	9.354901e-04
8.600000e+08	2.050933e+13	0.000000e+00	5.934063e-01	3.428498e+14	5.624775e+14	1.220064e+14	1.298810e+04	3.822754e+03	2.817607e+03	0	9.301164e-04
8.700000e+08	2.016077e+13	0.000000e+00	5.934063e-01	3.379231e+14	5.556644e+14	1.214430e+14	1.295631e+04	3.818199e+03	2.814250e+03	0	9.248171e-04
8.800000e+08	1.982088e+13	0.000000e+00	5.934063e-01	3.331172e+14	5.490078e+14	1.208834e+14	1.292498e+04	3.813705e+03	2.810938e+03	0	9.195903e-04
8.900000e+08	1.948934e+13	0.000000e+00	5.934063e-01	3.284280e+14	5.425024e+14	1.203277e+14	1.289408e+04	3.809270e+03	2.807669e+03	0	9.144343e-04
9.000000e+08	1.916589e+13	0.000000e+00	5.934063e-01	3.238516e+14	5.361432e+14	1.197757e+14	1.286363e+04	3.804893e+03	2.804443e+03	0	9.093473e-04
9.100000e+08	1.885024e+13	0.000000e+00	5.934063e-01	3.193841e+14	5.299254e+14	1.192276e+14	1.283359e+04	3.800572e+03	2.801258e+03	0	9.043275e-04
9.200000e+08	1.854213e+13	0.000000e+00	5.934063e-01	3.150219e+14	5.238445e+14	1.186832e+14	1.280397e+04	3.796307e+03	2.798114e+03	0	8.993733e-04
9.300000e+08	1.824132e+13	0.000000e+00	5.934063e-01	3.107615e+14	5.178961e+14	1.181426e+14	1.277475e+04	3.792095e+03	2.795010e+03	0	8.944832e-04
9.400000e+08	1.794756e+13	0.000000e+00	5.934063e-01	3.065997e+14	5.120759e+14	1.176056e+14	1.274592e+04	3.787937e+03	2.791945e+03	0	8.896557e-04
9.500000e+08	1.766063e+13	0.000000e+00	5.934063e-01	3.025333e+14	5.063799e+14	1.170723e+14	1.271748e+04	3.783829e+03	2.788918e+03	0	8.848891e-04
9.600000e+08	1.738031e+13	0.000000e+00	5.934063e-01	2.985591e+14	5.008043e+14	1.165427e+14	1.268941e+04	3.779772e+03	2.785927e+03	0	8.801822e-04
9.700000e+08	1.710637e+13	0.000000e+00	5.934063e-01	2.946742e+14	4.953453e+14	1.160166e+14	1.266171e+04	3.775765e+03	2.782973e+03	0	8.755335e-04
9.800000e+08	1.683863e+13	0.000000e+00	5.934063e-01	2.908759e+14	4.899995e+14	1.154941e+14	1.263437e+04	3.771805e+03	2.780055e+03	0	8.709416e-04
9.900000e+08	1.657689e+13	0.000000e+00	5.934063e-01	2.871615e+14	4.847633e+14	1.149752e+14	1.260738e+04	3.767893e+03	2.777171e+03	0	8.664054e-04
1.000000e+09	1.632096e+13	0.000000e+00	5.934063e-01	2.835283e+14	4.796334e+14	1.144598e+14	1.258073e+04	3.764027e+03	2.774322e+03	0	8.619234e-04
1.010000e+09	1.607066e+13	0.000000e+00	5.934063e-01	2.799738e+14	4.746068e+14	1.139479e+14	1.255442e+04	3.760206e+03	2.771506e+03	0	8.574945e-04
1.020000e+09	1.582582e+13	0.000000e+00	5.934063e-01	2.764957e+14	4.696803e+14	1.134395e+14	1.252844e+04	3.756429e+03	2.768722e+03	0	8.531175e-04
1.030000e+09	1.558628e+13	0.000000e+00	5.934063e-01	2.730917e+14	4.648511e+14	1.129345e+14	1.250278e+04	3.752696e+03	2.765970e+03	0	8.487913e-04
1.040000e+09	1.535187e+13	0.000000e+00	5.934063e-01	2.697596e+14	4.601163e+14	1.124329e+14	1.247743e+04	3.749005e+03	2.763250e+03	0	8.445147e-04
1.050000e+09	1.512244e+13	0.000000e+00	5.934063e-01	2.664971e+14	4.554732e+14	1.119347e+14	1.245239e+04	3.745355e+03	2.760560e+03	0	8.402866e-04
1.060000e+09	1.489786e+13	0.000000e+00	5.934063e-01	2.633024e+14	4.509193e+14	1.114399e+14	1.242766e+04	3.741747e+03	2.757900e+03	0	8.361060e-04
1.070000e+09	1.467796e+13	0.000000e+00	5.934063e-01	2.601734e+14	4.464519e+14	1.109484e+14	1.240321e+04	3.738178e+03	2.755269e+03	0	8.319719e-04
1.080000e+09	1.446262e+13	0.000000e+00	5.934063e-01	2.571082e+14	4.420688e+14	1.104602e+14	1.237906e+04	3.734648e+03	2.752668e+03	0	8.278833e-04
1.090000e+09	1.425171e+13	0.000000e+00	5.934063e-01	2.541050e+14	4.377675e+14	1.099753e+14	1.235519e+04	3.731156e+03	2.750094e+03	0	8.238392e-04
1.100000e+09	1.404510e+13	0.000000e+00	5.934063e-01	2.511620e+14	4.335458e+14	1.094936e+14	1.233160e+04	3.727702e+03	2.747548e+03	0	8.198387e-04
1.110000e+09	1.384267e+13	0.000000e+00	5.934063e-01	2.482776e+14	4.294015e+14	1.090152e+14	1.230828e+04	3.724285e+03	2.745030e+03	0	8.158808e-04
1.120000e+09	1.364430e+13	0.000000e+00	5.934063e-01	2.454501e+14	4.253327e+14	1.085400e+14	1.228523e+04	3.720904e+03	2.742538e+03	0	8.119648e-04
1.130000e+09	1.344988e+13	0.000000e+00	5.934063e-01	2.426780e+14	4.213371e+14	1.080680e+14	1.226244e+04	3.717558e+03	2.740072e+03	0	8.080896e-04
1.140000e+09	1.325929e+13	0.000000e+00	5.934063e-01	2.399596e+14	4.174130e+14	1.075991e+14	1.223990e+04	3.714248e+03	2.737631e+03	0	8.042546e-04
1.150000e+09	1.307244e+13	0.000000e+00	5.934063e-01	2.372936e+14	4.135583e+14	1.071333e+14	1.221762e+04	3.710971e+03	2.735216e+03	0	8.004589e-04
1.160000e+09	1.288922e+13	0.000000e+00	5.934063e-01	2.346785e+14	4.097714e+14	1.066707e+14	1.219559e+04	3.707727e+03	2.732826e+03	0	7.967016e-04
1.170000e+09	1.270954e+13	0.000000e+00	5.934063e-01	2.321130e+14	4.060504e+14	1.062111e+14	1.217379e+04	3.704517e+03	2.730459e+03	0	7.929821e-04
1.180000e+09	1.253329e+13	0.000000e+00	5.934063e-01	2.295957e+14	4.023937e+14	1.057546e+14	1.215223e+04	3.701338e+03	2.728116e+03	0	7.892995e-04
1.190000e+09	1.236039e+13	0.000000e+00	5.934063e-01	2.271254e+14	3.987996e+14	1.053011e+14	1.213091e+04	3.698191e+03	2.725797e+03	0	7.856532e-04
1.200000e+09	1.219075e+13	0.000000e+00	5.934063e-01	2.247008e+14	3.952665e+14	1.048507e+14	1.210981e+04	3.695075e+03	2.723500e+03	0	7.820424e-04
1.210000e+09	1.202429e+13	0.000000e+00	5.934063e-01	2.223208e+14	3.917929e+14	1.044032e+14	1.208894e+04	3.691990e+03	2.721226e+03	0	7.784664e-04
1.220000e+09	1.186091e+13	0.000000e+00	5.934063e-01	2.199842e+14	3.883774e+14	1.039587e+14	1.206829e+04	3.688935e+03	2.718974e+03	0	7.749246e-04
1.230000e+09	1.170055e+13	0.000000e+00	5.934063e-01	2.176898e+14	3.850185e+14	1.035171e+14	1.204786e+04	3.685908e+03	2.716744e+03	0	7.714163e-04
1.240000e+09	1.154312e+13	0.000000e+00	5.934063e-01	2.154367e+14	3.817147e+14	1.030785e+14	1.202764e+04	3.682911e+03	2.714535e+03	0	7.679409e-04
1.250000e+09	1.138855e+13	0.000000e+00	5.934063e-01	2.132237e+14	3.784649e+14	1.026427e+14	1.200762e+04	3.679942e+03	2.712346e+03	0	7.644978e-04
1.260000e+09	1.123677e+13	0.000000e+00	5.934063e-01	2.110499e+14	3.752676e+14	1.022098e+14	1.198781e+04	3.677001e+03	2.710179e+03	0	7.610862e-04
1.270000e+09	1.108770e+13	0.000000e+00	5.934063e-01	2.089143e+14	3.721216e+14	1.017798e+14	1.196821e+04	3.674088e+03	2.708031e+03	0	7.577058e-04
1.280000e+09	1.094128e+13	0.000000e+00	5.934063e-01	2.068160e+14	3.690258e+14	1.013526e+14	1.194880e+04	3.671201e+03	2.705904e+03	0	7.543557e-04
1.290000e+09	1.079745e+13	0.000000e+00	5.934063e-01	2.047539e+14	3.659788e+14	1.009282e+14	1.192958e+04	3.668341e+03	2.703795e+03	0	7.510356e-04
1.300000e+09	1.065614e+13	0.000000e+00	5.934063e-01	2.027273e+14	3.629796e+14	1.005066e+14	1.191056e+04	3.665507e+03	2.701706e+03	0	7.477449e-04
1.310000e+09	1.051729e+13	0.000000e+00	5.934063e-01	2.007353e+14	3.600271e+14	1.000878e+14	1.189172e+04	3.662698e+03	2.699636e+03	0	7.444829e-04
1.320000e+09	1.038084e+13	0.000000e+00	5.934063e-01	1.987771e+14	3.571202e+14	9.967166e+13	1.187307e+04	3.659915e+03	2.697585e+03	0	7.412492e-04
1.330000e+09	1.024673e+13	0.000000e+00	5.934063e-01	1.968518e+14	3.542578e+14	9.925829e+13	1.185459e+04	3.657156e+03	2.695551e+03	0	7.380433e-04
1.340000e+09	1.011491e+13	0.000000e+00	5.934063e-01	1.949587e+14	3.514390e+14	9.884761e+13	1.183630e+04	3.654421e+03	2.693536e+03	0	7.348647e-04
1.350000e+09	9.985315e+12	0.000000e+00	5.934063e-01	1.930969e+14	3.486627e+14	9.843961e+13	1.181818e+04	3.651711e+03	2.691538e+03	0	7.317129e-04
1.360000e+09	9.857903e+12	0.000000e+00	5.934063e-01	1.912659e+14	3.459280e+14	9.803427e+13	1.180024e+04	3.649024e+03	2.689557e+03	0	7.285873e-04
