#t		Qconv[W]	Ri[Rp]		R*[Rp]		Qc[W]		Qm[W]		Qr[W]		Tcmb[K]		Tl[K]		Tup[K]		RiFlag		Bs[T]
0.000000e+00	4.690451e+14	0.000000e+00	5.934067e-01	6.349589e+15	1.542802e+15	1.974512e+14	2.443041e+04	3.970143e+03	2.906265e+03	0	2.639420e-03
1.000000e+07	4.357643e+14	0.000000e+00	5.934067e-01	5.905292e+15	2.140547e+15	1.963571e+14	2.389007e+04	4.185438e+03	3.063867e+03	0	2.575456e-03
2.000000e+07	4.048091e+14	0.000000e+00	5.934067e-01	5.492037e+15	2.686383e+15	1.952713e+14	2.338646e+04	4.353443e+03	3.186852e+03	0	2.512968e-03
3.000000e+07	3.761359e+14	0.000000e+00	5.934067e-01	5.109232e+15	3.129333e+15	1.941936e+14	2.291714e+04	4.479311e+03	3.278991e+03	0	2.452177e-03
4.000000e+07	3.497106e+14	0.000000e+00	5.934067e-01	4.756412e+15	3.450547e+15	1.931239e+14	2.247971e+04	4.569777e+03	3.345215e+03	0	2.393352e-03
5.000000e+07	3.254708e+14	0.000000e+00	5.934067e-01	4.432738e+15	3.655179e+15	1.920622e+14	2.207175e+04	4.631839e+03	3.390646e+03	0	2.336725e-03
6.000000e+07	3.033164e+14	0.000000e+00	5.934067e-01	4.136867e+15	3.761103e+15	1.910084e+14	2.169091e+04	4.671875e+03	3.419954e+03	0	2.282455e-03
7.000000e+07	2.831163e+14	0.000000e+00	5.934067e-01	3.867050e+15	3.790083e+15	1.899625e+14	2.133492e+04	4.695253e+03	3.437067e+03	0	2.230618e-03
8.000000e+07	2.647211e+14	0.000000e+00	5.934067e-01	3.621295e+15	3.762682e+15	1.889243e+14	2.100166e+04	4.706262e+03	3.445126e+03	0	2.181221e-03
9.000000e+07	2.479742e+14	0.000000e+00	5.934067e-01	3.397514e+15	3.696093e+15	1.878939e+14	2.068915e+04	4.708214e+03	3.446555e+03	0	2.134219e-03
1.000000e+08	2.327211e+14	0.000000e+00	5.934067e-01	3.193645e+15	3.603701e+15	1.868711e+14	2.039556e+04	4.703612e+03	3.443186e+03	0	2.089531e-03
1.100000e+08	2.188142e+14	0.000000e+00	5.934067e-01	3.007725e+15	3.495454e+15	1.858559e+14	2.011926e+04	4.694324e+03	3.436387e+03	0	2.047051e-03
1.200000e+08	2.061168e+14	0.000000e+00	5.934067e-01	2.837933e+15	3.378503e+15	1.848482e+14	1.985875e+04	4.681732e+03	3.427170e+03	0	2.006664e-03
1.300000e+08	1.945043e+14	0.000000e+00	5.934067e-01	2.682606e+15	3.257857e+15	1.838480e+14	1.961268e+04	4.666856e+03	3.416280e+03	0	1.968249e-03
1.400000e+08	1.838643e+14	0.000000e+00	5.934067e-01	2.540248e+15	3.136935e+15	1.828551e+14	1.937985e+04	4.650443e+03	3.404264e+03	0	1.931684e-03
1.500000e+08	1.740962e+14	0.000000e+00	5.934067e-01	2.409520e+15	3.018012e+15	1.818697e+14	1.915918e+04	4.633040e+03	3.391526e+03	0	1.896851e-03
1.600000e+08	1.651105e+14	0.000000e+00	5.934067e-01	2.289229e+15	2.902548e+15	1.808915e+14	1.894967e+04	4.615052e+03	3.378357e+03	0	1.863639e-03
1.700000e+08	1.568278e+14	0.000000e+00	5.934067e-01	2.178318e+15	2.791430e+15	1.799205e+14	1.875046e+04	4.596770e+03	3.364974e+03	0	1.831940e-03
1.800000e+08	1.491779e+14	0.000000e+00	5.934067e-01	2.075850e+15	2.685152e+15	1.789567e+14	1.856076e+04	4.578408e+03	3.351533e+03	0	1.801655e-03
1.900000e+08	1.420984e+14	0.000000e+00	5.934067e-01	1.980994e+15	2.583936e+15	1.780000e+14	1.837985e+04	4.560122e+03	3.338147e+03	0	1.772692e-03
2.000000e+08	1.355340e+14	0.000000e+00	5.934067e-01	1.893014e+15	2.487823e+15	1.770503e+14	1.820708e+04	4.542023e+03	3.324898e+03	0	1.744963e-03
2.100000e+08	1.294359e+14	0.000000e+00	5.934067e-01	1.811260e+15	2.396733e+15	1.761076e+14	1.804188e+04	4.524190e+03	3.311844e+03	0	1.718391e-03
2.200000e+08	1.237607e+14	0.000000e+00	5.934067e-01	1.735151e+15	2.310508e+15	1.751718e+14	1.788372e+04	4.506677e+03	3.299024e+03	0	1.692899e-03
2.300000e+08	1.184697e+14	0.000000e+00	5.934067e-01	1.664172e+15	2.228945e+15	1.742429e+14	1.773212e+04	4.489521e+03	3.286465e+03	0	1.668422e-03
2.400000e+08	1.135285e+14	0.000000e+00	5.934067e-01	1.597867e+15	2.151815e+15	1.733208e+14	1.758664e+04	4.472747e+03	3.274186e+03	0	1.644896e-03
2.500000e+08	1.089064e+14	0.000000e+00	5.934067e-01	1.535824e+15	2.078876e+15	1.724055e+14	1.744688e+04	4.456367e+03	3.262195e+03	0	1.622263e-03
2.600000e+08	1.045761e+14	0.000000e+00	5.934067e-01	1.477680e+15	2.009884e+15	1.714968e+14	1.731249e+04	4.440388e+03	3.250498e+03	0	1.600470e-03
2.700000e+08	1.005129e+14	0.000000e+00	5.934067e-01	1.423105e+15	1.944599e+15	1.705948e+14	1.718312e+04	4.424811e+03	3.239095e+03	0	1.579468e-03
2.800000e+08	9.669483e+13	0.000000e+00	5.934067e-01	1.371807e+15	1.882790e+15	1.696994e+14	1.705847e+04	4.409633e+03	3.227985e+03	0	1.559210e-03
2.900000e+08	9.310210e+13	0.000000e+00	5.934067e-01	1.323521e+15	1.824235e+15	1.688105e+14	1.693826e+04	4.394848e+03	3.217161e+03	0	1.539655e-03
3.000000e+08	8.971682e+13	0.000000e+00	5.934067e-01	1.278009e+15	1.768725e+15	1.679281e+14	1.682224e+04	4.380448e+03	3.206620e+03	0	1.520763e-03
3.100000e+08	8.652291e+13	0.000000e+00	5.934067e-01	1.235055e+15	1.716062e+15	1.670522e+14	1.671016e+04	4.366424e+03	3.196354e+03	0	1.502498e-03
3.200000e+08	8.350577e+13	0.000000e+00	5.934067e-01	1.194467e+15	1.666062e+15	1.661826e+14	1.660181e+04	4.352765e+03	3.186355e+03	0	1.484827e-03
3.300000e+08	8.065223e+13	0.000000e+00	5.934067e-01	1.156066e+15	1.618552e+15	1.653193e+14	1.649699e+04	4.339460e+03	3.176616e+03	0	1.467717e-03
3.400000e+08	7.795029e+13	0.000000e+00	5.934067e-01	1.119695e+15	1.573373e+15	1.644623e+14	1.639550e+04	4.326499e+03	3.167128e+03	0	1.451141e-03
3.500000e+08	7.538906e+13	0.000000e+00	5.934067e-01	1.085206e+15	1.530374e+15	1.636115e+14	1.629717e+04	4.313869e+03	3.157883e+03	0	1.435070e-03
3.600000e+08	7.295862e+13	0.000000e+00	5.934067e-01	1.052468e+15	1.489418e+15	1.627669e+14	1.620183e+04	4.301560e+03	3.148872e+03	0	1.419479e-03
3.700000e+08	7.064991e+13	0.000000e+00	5.934067e-01	1.021359e+15	1.450377e+15	1.619284e+14	1.610935e+04	4.289561e+03	3.140088e+03	0	1.404346e-03
3.800000e+08	6.845467e+13	0.000000e+00	5.934067e-01	9.917699e+14	1.413130e+15	1.610960e+14	1.601958e+04	4.277859e+03	3.131522e+03	0	1.389647e-03
3.900000e+08	6.636531e+13	0.000000e+00	5.934067e-01	9.635988e+14	1.377567e+15	1.602695e+14	1.593238e+04	4.266445e+03	3.123167e+03	0	1.375363e-03
4.000000e+08	6.437490e+13	0.000000e+00	5.934067e-01	9.367529e+14	1.343587e+15	1.594491e+14	1.584763e+04	4.255308e+03	3.115014e+03	0	1.361473e-03
4.100000e+08	6.247705e+13	0.000000e+00	5.934067e-01	9.111471e+14	1.311093e+15	1.586346e+14	1.576523e+04	4.244438e+03	3.107057e+03	0	1.347960e-03
4.200000e+08	6.066590e+13	0.000000e+00	5.934067e-01	8.867031e+14	1.279998e+15	1.578259e+14	1.568505e+04	4.233826e+03	3.099289e+03	0	1.334807e-03
4.300000e+08	5.893606e+13	0.000000e+00	5.934067e-01	8.633488e+14	1.250219e+15	1.570231e+14	1.560701e+04	4.223462e+03	3.091702e+03	0	1.321997e-03
4.400000e+08	5.728254e+13	0.000000e+00	5.934067e-01	8.410176e+14	1.221680e+15	1.562260e+14	1.553101e+04	4.213336e+03	3.084290e+03	0	1.309517e-03
4.500000e+08	5.570076e+13	0.000000e+00	5.934067e-01	8.196481e+14	1.194312e+15	1.554347e+14	1.545696e+04	4.203441e+03	3.077046e+03	0	1.297350e-03
4.600000e+08	5.418645e+13	0.000000e+00	5.934067e-01	7.991835e+14	1.168046e+15	1.546490e+14	1.538477e+04	4.193769e+03	3.069965e+03	0	1.285485e-03
4.700000e+08	5.273569e+13	0.000000e+00	5.934067e-01	7.795712e+14	1.142823e+15	1.538690e+14	1.531437e+04	4.184310e+03	3.063041e+03	0	1.273909e-03
4.800000e+08	5.134483e+13	0.000000e+00	5.934067e-01	7.607624e+14	1.118586e+15	1.530946e+14	1.524569e+04	4.175058e+03	3.056269e+03	0	1.262610e-03
4.900000e+08	5.001048e+13	0.000000e+00	5.934067e-01	7.427118e+14	1.095280e+15	1.523257e+14	1.517864e+04	4.166006e+03	3.049642e+03	0	1.251576e-03
5.000000e+08	4.872951e+13	0.000000e+00	5.934067e-01	7.253775e+14	1.072856e+15	1.515623e+14	1.511318e+04	4.157146e+03	3.043156e+03	0	1.240797e-03
5.100000e+08	4.749898e+13	0.000000e+00	5.934067e-01	7.087202e+14	1.051269e+15	1.508044e+14	1.504923e+04	4.148471e+03	3.036806e+03	0	1.230264e-03
5.200000e+08	4.631617e+13	0.000000e+00	5.934067e-01	6.927037e+14	1.030473e+15	1.500519e+14	1.498674e+04	4.139976e+03	3.030588e+03	0	1.219966e-03
5.300000e+08	4.517856e+13	0.000000e+00	5.934067e-01	6.772939e+14	1.010429e+15	1.493047e+14	1.492566e+04	4.131655e+03	3.024496e+03	0	1.209895e-03
5.400000e+08	4.408376e+13	0.000000e+00	5.934067e-01	6.624591e+14	9.910992e+14	1.485629e+14	1.486592e+04	4.123500e+03	3.018527e+03	0	1.200042e-03
5.500000e+08	4.302956e+13	0.000000e+00	5.934067e-01	6.481697e+14	9.724473e+14	1.478263e+14	1.480748e+04	4.115508e+03	3.012676e+03	0	1.190399e-03
5.600000e+08	4.201391e+13	0.000000e+00	5.934067e-01	6.343981e+14	9.544402e+14	1.470950e+14	1.475029e+04	4.107672e+03	3.006940e+03	0	1.180958e-03
5.700000e+08	4.103485e+13	0.000000e+00	5.934067e-01	6.211183e+14	9.370466e+14	1.463689e+14	1.469431e+04	4.099988e+03	3.001315e+03	0	1.171713e-03
5.800000e+08	4.009059e+13	0.000000e+00	5.934067e-01	6.083062e+14	9.202370e+14	1.456479e+14	1.463949e+04	4.092450e+03	2.995797e+03	0	1.162655e-03
5.900000e+08	3.917942e+13	0.000000e+00	5.934067e-01	5.959388e+14	9.039838e+14	1.449320e+14	1.458580e+04	4.085055e+03	2.990383e+03	0	1.153780e-03
6.000000e+08	3.829974e+13	0.000000e+00	5.934067e-01	5.839949e+14	8.882610e+14	1.442212e+14	1.453319e+04	4.077796e+03	2.985070e+03	0	1.145079e-03
6.100000e+08	3.745007e+13	0.000000e+00	5.934067e-01	5.724544e+14	8.730442e+14	1.435155e+14	1.448163e+04	4.070671e+03	2.979854e+03	0	1.136548e-03
6.200000e+08	3.662898e+13	0.000000e+00	5.934067e-01	5.612985e+14	8.583104e+14	1.428147e+14	1.443108e+04	4.063675e+03	2.974733e+03	0	1.128180e-03
6.300000e+08	3.583516e+13	0.000000e+00	5.934067e-01	5.505094e+14	8.440377e+14	1.421189e+14	1.438151e+04	4.056804e+03	2.969703e+03	0	1.119971e-03
6.400000e+08	3.506736e+13	0.000000e+00	5.934067e-01	5.400703e+14	8.302058e+14	1.414279e+14	1.433288e+04	4.050054e+03	2.964762e+03	0	1.111914e-03
6.500000e+08	3.432440e+13	0.000000e+00	5.934067e-01	5.299656e+14	8.167954e+14	1.407419e+14	1.428517e+04	4.043421e+03	2.959906e+03	0	1.104005e-03
6.600000e+08	3.360518e+13	0.000000e+00	5.934067e-01	5.201805e+14	8.037881e+14	1.400606e+14	1.423835e+04	4.036903e+03	2.955135e+03	0	1.096240e-03
6.700000e+08	3.290866e+13	0.000000e+00	5.934067e-01	5.107008e+14	7.911667e+14	1.393842e+14	1.419239e+04	4.030495e+03	2.950444e+03	0	1.088613e-03
6.800000e+08	3.223383e+13	0.000000e+00	5.934067e-01	5.015133e+14	7.789149e+14	1.387125e+14	1.414726e+04	4.024195e+03	2.945833e+03	0	1.081121e-03
6.900000e+08	3.157978e+13	0.000000e+00	5.934067e-01	4.926056e+14	7.670173e+14	1.380455e+14	1.410294e+04	4.018000e+03	2.941297e+03	0	1.073758e-03
7.000000e+08	3.094561e+13	0.000000e+00	5.934067e-01	4.839659e+14	7.554592e+14	1.373832e+14	1.405940e+04	4.011906e+03	2.936836e+03	0	1.066522e-03
7.100000e+08	3.033051e+13	0.000000e+00	5.934067e-01	4.755829e+14	7.442269e+14	1.367255e+14	1.401662e+04	4.005910e+03	2.932447e+03	0	1.059408e-03
7.200000e+08	2.973366e+13	0.000000e+00	5.934067e-01	4.674460e+14	7.333071e+14	1.360725e+14	1.397457e+04	4.000011e+03	2.928129e+03	0	1.052413e-03
7.300000e+08	2.915433e+13	0.000000e+00	5.934067e-01	4.595451e+14	7.226875e+14	1.354240e+14	1.393325e+04	3.994204e+03	2.923878e+03	0	1.045533e-03
7.400000e+08	2.859181e+13	0.000000e+00	5.934067e-01	4.518709e+14	7.123562e+14	1.347800e+14	1.389261e+04	3.988489e+03	2.919694e+03	0	1.038765e-03
7.500000e+08	2.804542e+13	0.000000e+00	5.934067e-01	4.444142e+14	7.023019e+14	1.341405e+14	1.385265e+04	3.982861e+03	2.915575e+03	0	1.032106e-03
7.600000e+08	2.751452e+13	0.000000e+00	5.934067e-01	4.371664e+14	6.925141e+14	1.335055e+14	1.381335e+04	3.977320e+03	2.911518e+03	0	1.025552e-03
7.700000e+08	2.699851e+13	0.000000e+00	5.934067e-01	4.301194e+14	6.829825e+14	1.328749e+14	1.377468e+04	3.971862e+03	2.907523e+03	0	1.019100e-03
7.800000e+08	2.649681e+13	0.000000e+00	5.934067e-01	4.232655e+14	6.736975e+14	1.322486e+14	1.373664e+04	3.966485e+03	2.903587e+03	0	1.012748e-03
7.900000e+08	2.600887e+13	0.000000e+00	5.934067e-01	4.165972e+14	6.646500e+14	1.316267e+14	1.369919e+04	3.961187e+03	2.899709e+03	0	1.006493e-03
8.000000e+08	2.553417e+13	0.000000e+00	5.934067e-01	4.101077e+14	6.558312e+14	1.310092e+14	1.366234e+04	3.955967e+03	2.895887e+03	0	1.000332e-03
8.100000e+08	2.507221e+13	0.000000e+00	5.934067e-01	4.037901e+14	6.472327e+14	1.303959e+14	1.362605e+04	3.950822e+03	2.892121e+03	0	9.942625e-04
8.200000e+08	2.462252e+13	0.000000e+00	5.934067e-01	3.976382e+14	6.388466e+14	1.297868e+14	1.359032e+04	3.945751e+03	2.888409e+03	0	9.882823e-04
8.300000e+08	2.418464e+13	0.000000e+00	5.934067e-01	3.916459e+14	6.306654e+14	1.291820e+14	1.355514e+04	3.940750e+03	2.884748e+03	0	9.823889e-04
8.400000e+08	2.375816e+13	0.000000e+00	5.934067e-01	3.858074e+14	6.226817e+14	1.285813e+14	1.352048e+04	3.935820e+03	2.881139e+03	0	9.765800e-04
8.500000e+08	2.334265e+13	0.000000e+00	5.934067e-01	3.801173e+14	6.148888e+14	1.279848e+14	1.348633e+04	3.930958e+03	2.877580e+03	0	9.708533e-04
8.600000e+08	2.293773e+13	0.000000e+00	5.934067e-01	3.745702e+14	6.072800e+14	1.273924e+14	1.345269e+04	3.926162e+03	2.874069e+03	0	9.652068e-04
8.700000e+08	2.254303e+13	0.000000e+00	5.934067e-01	3.691611e+14	5.998490e+14	1.268041e+14	1.341953e+04	3.921431e+03	2.870606e+03	0	9.596384e-04
8.800000e+08	2.215818e+13	0.000000e+00	5.934067e-01	3.638853e+14	5.925897e+14	1.262198e+14	1.338685e+04	3.916763e+03	2.867189e+03	0	9.541462e-04
8.900000e+08	2.178285e+13	0.000000e+00	5.934067e-01	3.587381e+14	5.854966e+14	1.256396e+14	1.335464e+04	3.912156e+03	2.863817e+03	0	9.487281e-04
9.000000e+08	2.141670e+13	0.000000e+00	5.934067e-01	3.537153e+14	5.785639e+14	1.250633e+14	1.332288e+04	3.907610e+03	2.860489e+03	0	9.433824e-04
9.100000e+08	2.105944e+13	0.000000e+00	5.934067e-01	3.488125e+14	5.717864e+14	1.244910e+14	1.329156e+04	3.903123e+03	2.857204e+03	0	9.381073e-04
9.200000e+08	2.071076e+13	0.000000e+00	5.934067e-01	3.440257e+14	5.651592e+14	1.239226e+14	1.326067e+04	3.898694e+03	2.853962e+03	0	9.329010e-04
9.300000e+08	2.037037e+13	0.000000e+00	5.934067e-01	3.393513e+14	5.586773e+14	1.233580e+14	1.323021e+04	3.894321e+03	2.850760e+03	0	9.277618e-04
9.400000e+08	2.003800e+13	0.000000e+00	5.934067e-01	3.347853e+14	5.523362e+14	1.227974e+14	1.320016e+04	3.890002e+03	2.847599e+03	0	9.226883e-04
9.500000e+08	1.971339e+13	0.000000e+00	5.934067e-01	3.303244e+14	5.461313e+14	1.222405e+14	1.317051e+04	3.885738e+03	2.844477e+03	0	9.176787e-04
9.600000e+08	1.939629e+13	0.000000e+00	5.934067e-01	3.259652e+14	5.400584e+14	1.216875e+14	1.314125e+04	3.881526e+03	2.841394e+03	0	9.127316e-04
9.700000e+08	1.908646e+13	0.000000e+00	5.934067e-01	3.217043e+14	5.341134e+14	1.211382e+14	1.311238e+04	3.877365e+03	2.838348e+03	0	9.078456e-04
9.800000e+08	1.878366e+13	0.000000e+00	5.934067e-01	3.175388e+14	5.282924e+14	1.205927e+14	1.308388e+04	3.873254e+03	2.835339e+03	0	9.030191e-04
9.900000e+08	1.848768e+13	0.000000e+00	5.934067e-01	3.134656e+14	5.225916e+14	1.200509e+14	1.305575e+04	3.869193e+03	2.832366e+03	0	8.982509e-04
1.000000e+09	1.819830e+13	0.000000e+00	5.934067e-01	3.094818e+14	5.170074e+14	1.195127e+14	1.302798e+04	3.865180e+03	2.829428e+03	0	8.935396e-04
1.010000e+09	1.791531e+13	0.000000e+00	5.934067e-01	3.055847e+14	5.115363e+14	1.189782e+14	1.300056e+04	3.861214e+03	2.826525e+03	0	8.888839e-04
1.020000e+09	1.763853e+13	0.000000e+00	5.934067e-01	3.017717e+14	5.061750e+14	1.184473e+14	1.297349e+04	3.857294e+03	2.823656e+03	0	8.842825e-04
1.030000e+09	1.736776e+13	0.000000e+00	5.934067e-01	2.980402e+14	5.009202e+14	1.179200e+14	1.294675e+04	3.853419e+03	2.820819e+03	0	8.797343e-04
1.040000e+09	1.710283e+13	0.000000e+00	5.934067e-01	2.943878e+14	4.957688e+14	1.173963e+14	1.292034e+04	3.849588e+03	2.818015e+03	0	8.752381e-04
1.050000e+09	1.684355e+13	0.000000e+00	5.934067e-01	2.908121e+14	4.907179e+14	1.168761e+14	1.289426e+04	3.845801e+03	2.815242e+03	0	8.707927e-04
1.060000e+09	1.658976e+13	0.000000e+00	5.934067e-01	2.873109e+14	4.857646e+14	1.163595e+14	1.286848e+04	3.842056e+03	2.812501e+03	0	8.663970e-04
1.070000e+09	1.634130e+13	0.000000e+00	5.934067e-01	2.838820e+14	4.809061e+14	1.158463e+14	1.284302e+04	3.838352e+03	2.809790e+03	0	8.620499e-04
1.080000e+09	1.609801e+13	0.000000e+00	5.934067e-01	2.805233e+14	4.761398e+14	1.153365e+14	1.281786e+04	3.834689e+03	2.807108e+03	0	8.577505e-04
1.090000e+09	1.585975e+13	0.000000e+00	5.934067e-01	2.772328e+14	4.714631e+14	1.148302e+14	1.279300e+04	3.831067e+03	2.804456e+03	0	8.534976e-04
1.100000e+09	1.562637e+13	0.000000e+00	5.934067e-01	2.740086e+14	4.668735e+14	1.143273e+14	1.276843e+04	3.827483e+03	2.801833e+03	0	8.492904e-04
1.110000e+09	1.539772e+13	0.000000e+00	5.934067e-01	2.708487e+14	4.623687e+14	1.138277e+14	1.274414e+04	3.823937e+03	2.799238e+03	0	8.451278e-04
1.120000e+09	1.517369e+13	0.000000e+00	5.934067e-01	2.677514e+14	4.579463e+14	1.133315e+14	1.272013e+04	3.820430e+03	2.796670e+03	0	8.410089e-04
1.130000e+09	1.495413e+13	0.000000e+00	5.934067e-01	2.647149e+14	4.536042e+14	1.128387e+14	1.269640e+04	3.816959e+03	2.794129e+03	0	8.369328e-04
1.140000e+09	1.473893e+13	0.000000e+00	5.934067e-01	2.617376e+14	4.493401e+14	1.123491e+14	1.267293e+04	3.813524e+03	2.791615e+03	0	8.328987e-04
1.150000e+09	1.452796e+13	0.000000e+00	5.934067e-01	2.588178e+14	4.451521e+14	1.118628e+14	1.264973e+04	3.810124e+03	2.789126e+03	0	8.289056e-04
1.160000e+09	1.432111e+13	0.000000e+00	5.934067e-01	2.559540e+14	4.410381e+14	1.113797e+14	1.262678e+04	3.806760e+03	2.786663e+03	0	8.249528e-04
1.170000e+09	1.411826e+13	0.000000e+00	5.934067e-01	2.531447e+14	4.369963e+14	1.108998e+14	1.260409e+04	3.803430e+03	2.784225e+03	0	8.210394e-04
1.180000e+09	1.391932e+13	0.000000e+00	5.934067e-01	2.503884e+14	4.330247e+14	1.104232e+14	1.258164e+04	3.800133e+03	2.781812e+03	0	8.171646e-04
1.190000e+09	1.372417e+13	0.000000e+00	5.934067e-01	2.476837e+14	4.291215e+14	1.099497e+14	1.255944e+04	3.796869e+03	2.779423e+03	0	8.133278e-04
1.200000e+09	1.353272e+13	0.000000e+00	5.934067e-01	2.450292e+14	4.252851e+14	1.094794e+14	1.253748e+04	3.793637e+03	2.777057e+03	0	8.095280e-04
1.210000e+09	1.334486e+13	0.000000e+00	5.934067e-01	2.424237e+14	4.215137e+14	1.090121e+14	1.251575e+04	3.790437e+03	2.774715e+03	0	8.057646e-04
1.220000e+09	1.316050e+13	0.000000e+00	5.934067e-01	2.398659e+14	4.178057e+14	1.085480e+14	1.249425e+04	3.787269e+03	2.772395e+03	0	8.020370e-04
1.230000e+09	1.297956e+13	0.000000e+00	5.934067e-01	2.373546e+14	4.141596e+14	1.080869e+14	1.247298e+04	3.784131e+03	2.770098e+03	0	7.983443e-04
1.240000e+09	1.280194e+13	0.000000e+00	5.934067e-01	2.348884e+14	4.105738e+14	1.076289e+14	1.245193e+04	3.781022e+03	2.767823e+03	0	7.946859e-04
1.250000e+09	1.262757e+13	0.000000e+00	5.934067e-01	2.324665e+14	4.070468e+14	1.071739e+14	1.243110e+04	3.777944e+03	2.765569e+03	0	7.910612e-04
1.260000e+09	1.245635e+13	0.000000e+00	5.934067e-01	2.300875e+14	4.035772e+14	1.067219e+14	1.241048e+04	3.774894e+03	2.763337e+03	0	7.874696e-04
1.270000e+09	1.228820e+13	0.000000e+00	5.934067e-01	2.277504e+14	4.001637e+14	1.062729e+14	1.239007e+04	3.771873e+03	2.761125e+03	0	7.839103e-04
1.280000e+09	1.212306e+13	0.000000e+00	5.934067e-01	2.254543e+14	3.968050e+14	1.058269e+14	1.236987e+04	3.768880e+03	2.758934e+03	0	7.803828e-04
1.290000e+09	1.196085e+13	0.000000e+00	5.934067e-01	2.231980e+14	3.934996e+14	1.053837e+14	1.234987e+04	3.765915e+03	2.756763e+03	0	7.768865e-04
1.300000e+09	1.180149e+13	0.000000e+00	5.934067e-01	2.209806e+14	3.902464e+14	1.049435e+14	1.233007e+04	3.762976e+03	2.754612e+03	0	7.734209e-04
1.310000e+09	1.164492e+13	0.000000e+00	5.934067e-01	2.188012e+14	3.870441e+14	1.045062e+14	1.231047e+04	3.760065e+03	2.752481e+03	0	7.699853e-04
1.320000e+09	1.149107e+13	0.000000e+00	5.934067e-01	2.166589e+14	3.838916e+14	1.040717e+14	1.229106e+04	3.757179e+03	2.750368e+03	0	7.665791e-04
1.330000e+09	1.133986e+13	0.000000e+00	5.934067e-01	2.145527e+14	3.807877e+14	1.036401e+14	1.227184e+04	3.754319e+03	2.748275e+03	0	7.632020e-04
1.340000e+09	1.119125e+13	0.000000e+00	5.934067e-01	2.124819e+14	3.777314e+14	1.032113e+14	1.225280e+04	3.751484e+03	2.746200e+03	0	7.598532e-04
1.350000e+09	1.104516e+13	0.000000e+00	5.934067e-01	2.104455e+14	3.747215e+14	1.027853e+14	1.223395e+04	3.748675e+03	2.744143e+03	0	7.565324e-04
1.360000e+09	1.090154e+13	0.000000e+00	5.934067e-01	2.084428e+14	3.717569e+14	1.023620e+14	1.221528e+04	3.745889e+03	2.742104e+03	0	7.532390e-04
