#t		Qconv[W]	Ri[Rp]		R*[Rp]		Qc[W]		Qm[W]		Qr[W]		Tcmb[K]		Tl[K]		Tup[K]		RiFlag		Bs[T]
0.000000e+00	5.863593e+14	0.000000e+00	5.999999e-01	7.417278e+15	1.493418e+15	2.096586e+14	2.612850e+04	4.042954e+03	2.952243e+03	0	2.819215e-03
1.000000e+07	5.470368e+14	0.000000e+00	5.999999e-01	6.927293e+15	2.190901e+15	2.084969e+14	2.556367e+04	4.292890e+03	3.134751e+03	0	2.754730e-03
2.000000e+07	5.100502e+14	0.000000e+00	5.999999e-01	6.466431e+15	2.865235e+15	2.073440e+14	2.503511e+04	4.491184e+03	3.279549e+03	0	2.691191e-03
3.000000e+07	4.754155e+14	0.000000e+00	5.999999e-01	6.034880e+15	3.439496e+15	2.061996e+14	2.454078e+04	4.641917e+03	3.389617e+03	0	2.628843e-03
4.000000e+07	4.431826e+14	0.000000e+00	5.999999e-01	5.633241e+15	3.875366e+15	2.050638e+14	2.407862e+04	4.751724e+03	3.469800e+03	0	2.568036e-03
5.000000e+07	4.133680e+14	0.000000e+00	5.999999e-01	5.261707e+15	4.168625e+15	2.039364e+14	2.364648e+04	4.828164e+03	3.525618e+03	0	2.509107e-03
6.000000e+07	3.859301e+14	0.000000e+00	5.999999e-01	4.919749e+15	4.335915e+15	2.028175e+14	2.324220e+04	4.878482e+03	3.562361e+03	0	2.452316e-03
7.000000e+07	3.607723e+14	0.000000e+00	5.999999e-01	4.606158e+15	4.402322e+15	2.017069e+14	2.286362e+04	4.908949e+03	3.584609e+03	0	2.397827e-03
8.000000e+07	3.377585e+14	0.000000e+00	5.999999e-01	4.319237e+15	4.393379e+15	2.006046e+14	2.250867e+04	4.924649e+03	3.596074e+03	0	2.345717e-03
9.000000e+07	3.167298e+14	0.000000e+00	5.999999e-01	4.057010e+15	4.331222e+15	1.995104e+14	2.217539e+04	4.929541e+03	3.599646e+03	0	2.295989e-03
1.000000e+08	2.975189e+14	0.000000e+00	5.999999e-01	3.817394e+15	4.233424e+15	1.984244e+14	2.186194e+04	4.926622e+03	3.597514e+03	0	2.248597e-03
1.100000e+08	2.799597e+14	0.000000e+00	5.999999e-01	3.598326e+15	4.113190e+15	1.973464e+14	2.156667e+04	4.918128e+03	3.591312e+03	0	2.203461e-03
1.200000e+08	2.638942e+14	0.000000e+00	5.999999e-01	3.397839e+15	3.980074e+15	1.962764e+14	2.128803e+04	4.905706e+03	3.582241e+03	0	2.160479e-03
1.300000e+08	2.491749e+14	0.000000e+00	5.999999e-01	3.214102e+15	3.840801e+15	1.952144e+14	2.102465e+04	4.890567e+03	3.571186e+03	0	2.119540e-03
1.400000e+08	2.356675e+14	0.000000e+00	5.999999e-01	3.045443e+15	3.699980e+15	1.941602e+14	2.077527e+04	4.873593e+03	3.558791e+03	0	2.080527e-03
1.500000e+08	2.232502e+14	0.000000e+00	5.999999e-01	2.890351e+15	3.560697e+15	1.931138e+14	2.053876e+04	4.855431e+03	3.545529e+03	0	2.043325e-03
1.600000e+08	2.118139e+14	0.000000e+00	5.999999e-01	2.747469e+15	3.424947e+15	1.920751e+14	2.031410e+04	4.836550e+03	3.531742e+03	0	2.007821e-03
1.700000e+08	2.012611e+14	0.000000e+00	5.999999e-01	2.615586e+15	3.293968e+15	1.910441e+14	2.010038e+04	4.817292e+03	3.517680e+03	0	1.973908e-03
1.800000e+08	1.915051e+14	0.000000e+00	5.999999e-01	2.493622e+15	3.168467e+15	1.900207e+14	1.989676e+04	4.797906e+03	3.503523e+03	0	1.941483e-03
1.900000e+08	1.824687e+14	0.000000e+00	5.999999e-01	2.380618e+15	3.048794e+15	1.890048e+14	1.970251e+04	4.778569e+03	3.489403e+03	0	1.910453e-03
2.000000e+08	1.740831e+14	0.000000e+00	5.999999e-01	2.275721e+15	2.935053e+15	1.879964e+14	1.951693e+04	4.759410e+03	3.475412e+03	0	1.880727e-03
2.100000e+08	1.662875e+14	0.000000e+00	5.999999e-01	2.178172e+15	2.827189e+15	1.869954e+14	1.933941e+04	4.740519e+03	3.461618e+03	0	1.852224e-03
2.200000e+08	1.590275e+14	0.000000e+00	5.999999e-01	2.087296e+15	2.725041e+15	1.860018e+14	1.916940e+04	4.721958e+03	3.448065e+03	0	1.824866e-03
2.300000e+08	1.522548e+14	0.000000e+00	5.999999e-01	2.002492e+15	2.628387e+15	1.850155e+14	1.900639e+04	4.703772e+03	3.434785e+03	0	1.798583e-03
2.400000e+08	1.459262e+14	0.000000e+00	5.999999e-01	1.923223e+15	2.536965e+15	1.840364e+14	1.884992e+04	4.685985e+03	3.421797e+03	0	1.773310e-03
2.500000e+08	1.400031e+14	0.000000e+00	5.999999e-01	1.849008e+15	2.450499e+15	1.830644e+14	1.869957e+04	4.668615e+03	3.409113e+03	0	1.748985e-03
2.600000e+08	1.344510e+14	0.000000e+00	5.999999e-01	1.779420e+15	2.368703e+15	1.820996e+14	1.855495e+04	4.651670e+03	3.396738e+03	0	1.725553e-03
2.700000e+08	1.292390e+14	0.000000e+00	5.999999e-01	1.714071e+15	2.291298e+15	1.811419e+14	1.841570e+04	4.635149e+03	3.384675e+03	0	1.702961e-03
2.800000e+08	1.243393e+14	0.000000e+00	5.999999e-01	1.652618e+15	2.218010e+15	1.801911e+14	1.828151e+04	4.619051e+03	3.372920e+03	0	1.681162e-03
2.900000e+08	1.197267e+14	0.000000e+00	5.999999e-01	1.594746e+15	2.148580e+15	1.792473e+14	1.815208e+04	4.603370e+03	3.361469e+03	0	1.660111e-03
3.000000e+08	1.153788e+14	0.000000e+00	5.999999e-01	1.540177e+15	2.082759e+15	1.783103e+14	1.802713e+04	4.588097e+03	3.350317e+03	0	1.639767e-03
3.100000e+08	1.112751e+14	0.000000e+00	5.999999e-01	1.488656e+15	2.020315e+15	1.773802e+14	1.790641e+04	4.573223e+03	3.339455e+03	0	1.620091e-03
3.200000e+08	1.073972e+14	0.000000e+00	5.999999e-01	1.439953e+15	1.961028e+15	1.764568e+14	1.778968e+04	4.558735e+03	3.328876e+03	0	1.601049e-03
3.300000e+08	1.037283e+14	0.000000e+00	5.999999e-01	1.393859e+15	1.904696e+15	1.755402e+14	1.767674e+04	4.544624e+03	3.318572e+03	0	1.582605e-03
3.400000e+08	1.002533e+14	0.000000e+00	5.999999e-01	1.350185e+15	1.851127e+15	1.746302e+14	1.756737e+04	4.530876e+03	3.308533e+03	0	1.564731e-03
3.500000e+08	9.695827e+13	0.000000e+00	5.999999e-01	1.308760e+15	1.800146e+15	1.737268e+14	1.746139e+04	4.517480e+03	3.298750e+03	0	1.547397e-03
3.600000e+08	9.383062e+13	0.000000e+00	5.999999e-01	1.269425e+15	1.751587e+15	1.728300e+14	1.735864e+04	4.504423e+03	3.289216e+03	0	1.530576e-03
3.700000e+08	9.085884e+13	0.000000e+00	5.999999e-01	1.232038e+15	1.705299e+15	1.719396e+14	1.725894e+04	4.491694e+03	3.279921e+03	0	1.514244e-03
3.800000e+08	8.803239e+13	0.000000e+00	5.999999e-01	1.196467e+15	1.661140e+15	1.710557e+14	1.716215e+04	4.479281e+03	3.270857e+03	0	1.498377e-03
3.900000e+08	8.534163e+13	0.000000e+00	5.999999e-01	1.162591e+15	1.618979e+15	1.701782e+14	1.706813e+04	4.467172e+03	3.262015e+03	0	1.482952e-03
4.000000e+08	8.277771e+13	0.000000e+00	5.999999e-01	1.130302e+15	1.578695e+15	1.693070e+14	1.697675e+04	4.455356e+03	3.253387e+03	0	1.467950e-03
4.100000e+08	8.033251e+13	0.000000e+00	5.999999e-01	1.099496e+15	1.540175e+15	1.684422e+14	1.688788e+04	4.443824e+03	3.244966e+03	0	1.453351e-03
4.200000e+08	7.799854e+13	0.000000e+00	5.999999e-01	1.070082e+15	1.503314e+15	1.675835e+14	1.680141e+04	4.432564e+03	3.236743e+03	0	1.439138e-03
4.300000e+08	7.576892e+13	0.000000e+00	5.999999e-01	1.041973e+15	1.468015e+15	1.667310e+14	1.671724e+04	4.421566e+03	3.228712e+03	0	1.425292e-03
4.400000e+08	7.363728e+13	0.000000e+00	5.999999e-01	1.015090e+15	1.434187e+15	1.658847e+14	1.663526e+04	4.410821e+03	3.220866e+03	0	1.411799e-03
4.500000e+08	7.159776e+13	0.000000e+00	5.999999e-01	9.893594e+14	1.401747e+15	1.650444e+14	1.655538e+04	4.400320e+03	3.213198e+03	0	1.398642e-03
4.600000e+08	6.964493e+13	0.000000e+00	5.999999e-01	9.647139e+14	1.370616e+15	1.642102e+14	1.647750e+04	4.390054e+03	3.205702e+03	0	1.385809e-03
4.700000e+08	6.777375e+13	0.000000e+00	5.999999e-01	9.410905e+14	1.340722e+15	1.633820e+14	1.640155e+04	4.380015e+03	3.198371e+03	0	1.373285e-03
4.800000e+08	6.597956e+13	0.000000e+00	5.999999e-01	9.184312e+14	1.311997e+15	1.625597e+14	1.632745e+04	4.370194e+03	3.191200e+03	0	1.361058e-03
4.900000e+08	6.425804e+13	0.000000e+00	5.999999e-01	8.966817e+14	1.284377e+15	1.617432e+14	1.625511e+04	4.360584e+03	3.184182e+03	0	1.349116e-03
5.000000e+08	6.260515e+13	0.000000e+00	5.999999e-01	8.757920e+14	1.257805e+15	1.609327e+14	1.618448e+04	4.351178e+03	3.177314e+03	0	1.337448e-03
5.100000e+08	6.101715e+13	0.000000e+00	5.999999e-01	8.557153e+14	1.232224e+15	1.601279e+14	1.611547e+04	4.341968e+03	3.170588e+03	0	1.326043e-03
5.200000e+08	5.949055e+13	0.000000e+00	5.999999e-01	8.364081e+14	1.207583e+15	1.593288e+14	1.604804e+04	4.332948e+03	3.164002e+03	0	1.314890e-03
5.300000e+08	5.802211e+13	0.000000e+00	5.999999e-01	8.178296e+14	1.183834e+15	1.585355e+14	1.598212e+04	4.324111e+03	3.157549e+03	0	1.303981e-03
5.400000e+08	5.660879e+13	0.000000e+00	5.999999e-01	7.999422e+14	1.160933e+15	1.577478e+14	1.591765e+04	4.315451e+03	3.151225e+03	0	1.293306e-03
5.500000e+08	5.524774e+13	0.000000e+00	5.999999e-01	7.827102e+14	1.138836e+15	1.569657e+14	1.585458e+04	4.306963e+03	3.145027e+03	0	1.282857e-03
5.600000e+08	5.393633e+13	0.000000e+00	5.999999e-01	7.661006e+14	1.117504e+15	1.561891e+14	1.579286e+04	4.298640e+03	3.138950e+03	0	1.272626e-03
5.700000e+08	5.267206e+13	0.000000e+00	5.999999e-01	7.500824e+14	1.096900e+15	1.554181e+14	1.573244e+04	4.290478e+03	3.132989e+03	0	1.262603e-03
5.800000e+08	5.145260e+13	0.000000e+00	5.999999e-01	7.346265e+14	1.076989e+15	1.546526e+14	1.567328e+04	4.282470e+03	3.127142e+03	0	1.252783e-03
5.900000e+08	5.027579e+13	0.000000e+00	5.999999e-01	7.197056e+14	1.057739e+15	1.538925e+14	1.561532e+04	4.274613e+03	3.121405e+03	0	1.243158e-03
6.000000e+08	4.913957e+13	0.000000e+00	5.999999e-01	7.052942e+14	1.039118e+15	1.531377e+14	1.555854e+04	4.266901e+03	3.115773e+03	0	1.233722e-03
6.100000e+08	4.804201e+13	0.000000e+00	5.999999e-01	6.913681e+14	1.021098e+15	1.523883e+14	1.550289e+04	4.259330e+03	3.110245e+03	0	1.224467e-03
6.200000e+08	4.698131e+13	0.000000e+00	5.999999e-01	6.779049e+14	1.003651e+15	1.516442e+14	1.544832e+04	4.251895e+03	3.104816e+03	0	1.215389e-03
6.300000e+08	4.595576e+13	0.000000e+00	5.999999e-01	6.648832e+14	9.867516e+14	1.509054e+14	1.539482e+04	4.244593e+03	3.099484e+03	0	1.206480e-03
6.400000e+08	4.496377e+13	0.000000e+00	5.999999e-01	6.522829e+14	9.703751e+14	1.501717e+14	1.534233e+04	4.237419e+03	3.094245e+03	0	1.197736e-03
6.500000e+08	4.400382e+13	0.000000e+00	5.999999e-01	6.400853e+14	9.544989e+14	1.494432e+14	1.529083e+04	4.230370e+03	3.089097e+03	0	1.189151e-03
6.600000e+08	4.307449e+13	0.000000e+00	5.999999e-01	6.282723e+14	9.391012e+14	1.487199e+14	1.524029e+04	4.223441e+03	3.084038e+03	0	1.180720e-03
6.700000e+08	4.217444e+13	0.000000e+00	5.999999e-01	6.168274e+14	9.241616e+14	1.480016e+14	1.519068e+04	4.216630e+03	3.079064e+03	0	1.172438e-03
6.800000e+08	4.130238e+13	0.000000e+00	5.999999e-01	6.057345e+14	9.096607e+14	1.472884e+14	1.514197e+04	4.209932e+03	3.074173e+03	0	1.164301e-03
6.900000e+08	4.045714e+13	0.000000e+00	5.999999e-01	5.949786e+14	8.955802e+14	1.465802e+14	1.509412e+04	4.203345e+03	3.069363e+03	0	1.156304e-03
7.000000e+08	3.963756e+13	0.000000e+00	5.999999e-01	5.845455e+14	8.819028e+14	1.458769e+14	1.504712e+04	4.196865e+03	3.064632e+03	0	1.148442e-03
7.100000e+08	3.884257e+13	0.000000e+00	5.999999e-01	5.744218e+14	8.686121e+14	1.451786e+14	1.500094e+04	4.190490e+03	3.059976e+03	0	1.140712e-03
7.200000e+08	3.807116e+13	0.000000e+00	5.999999e-01	5.645948e+14	8.556924e+14	1.444852e+14	1.495556e+04	4.184217e+03	3.055395e+03	0	1.133110e-03
7.300000e+08	3.732236e+13	0.000000e+00	5.999999e-01	5.550524e+14	8.431290e+14	1.437966e+14	1.491094e+04	4.178042e+03	3.050886e+03	0	1.125632e-03
7.400000e+08	3.659527e+13	0.000000e+00	5.999999e-01	5.457830e+14	8.309078e+14	1.431128e+14	1.486708e+04	4.171963e+03	3.046447e+03	0	1.118275e-03
7.500000e+08	3.588900e+13	0.000000e+00	5.999999e-01	5.367759e+14	8.190155e+14	1.424338e+14	1.482395e+04	4.165977e+03	3.042077e+03	0	1.111034e-03
7.600000e+08	3.520274e+13	0.000000e+00	5.999999e-01	5.280208e+14	8.074395e+14	1.417595e+14	1.478152e+04	4.160083e+03	3.037772e+03	0	1.103907e-03
7.700000e+08	3.453571e+13	0.000000e+00	5.999999e-01	5.195078e+14	7.961677e+14	1.410899e+14	1.473978e+04	4.154277e+03	3.033533e+03	0	1.096890e-03
7.800000e+08	3.388716e+13	0.000000e+00	5.999999e-01	5.112277e+14	7.851887e+14	1.404249e+14	1.469871e+04	4.148557e+03	3.029356e+03	0	1.089980e-03
7.900000e+08	3.325639e+13	0.000000e+00	5.999999e-01	5.031715e+14	7.744915e+14	1.397646e+14	1.465830e+04	4.142921e+03	3.025241e+03	0	1.083175e-03
8.000000e+08	3.264272e+13	0.000000e+00	5.999999e-01	4.953309e+14	7.640658e+14	1.391088e+14	1.461851e+04	4.137368e+03	3.021185e+03	0	1.076471e-03
8.100000e+08	3.204551e+13	0.000000e+00	5.999999e-01	4.876977e+14	7.539016e+14	1.384576e+14	1.457934e+04	4.131894e+03	3.017188e+03	0	1.069866e-03
8.200000e+08	3.146415e+13	0.000000e+00	5.999999e-01	4.802645e+14	7.439896e+14	1.378109e+14	1.454078e+04	4.126497e+03	3.013248e+03	0	1.063356e-03
8.300000e+08	3.089806e+13	0.000000e+00	5.999999e-01	4.730238e+14	7.343208e+14	1.371687e+14	1.450280e+04	4.121177e+03	3.009362e+03	0	1.056941e-03
8.400000e+08	3.034669e+13	0.000000e+00	5.999999e-01	4.659687e+14	7.248865e+14	1.365309e+14	1.446538e+04	4.115930e+03	3.005531e+03	0	1.050616e-03
8.500000e+08	2.980951e+13	0.000000e+00	5.999999e-01	4.590926e+14	7.156786e+14	1.358975e+14	1.442853e+04	4.110756e+03	3.001753e+03	0	1.044380e-03
8.600000e+08	2.928601e+13	0.000000e+00	5.999999e-01	4.523892e+14	7.066892e+14	1.352685e+14	1.439221e+04	4.105652e+03	2.998026e+03	0	1.038230e-03
8.700000e+08	2.877571e+13	0.000000e+00	5.999999e-01	4.458523e+14	6.979109e+14	1.346438e+14	1.435642e+04	4.100616e+03	2.994349e+03	0	1.032164e-03
8.800000e+08	2.827815e+13	0.000000e+00	5.999999e-01	4.394764e+14	6.893365e+14	1.340234e+14	1.432115e+04	4.095648e+03	2.990721e+03	0	1.026181e-03
8.900000e+08	2.779290e+13	0.000000e+00	5.999999e-01	4.332557e+14	6.809591e+14	1.334072e+14	1.428638e+04	4.090746e+03	2.987141e+03	0	1.020277e-03
9.000000e+08	2.731952e+13	0.000000e+00	5.999999e-01	4.271851e+14	6.727723e+14	1.327953e+14	1.425209e+04	4.085907e+03	2.983608e+03	0	1.014451e-03
9.100000e+08	2.685762e+13	0.000000e+00	5.999999e-01	4.212594e+14	6.647698e+14	1.321876e+14	1.421829e+04	4.081131e+03	2.980120e+03	0	1.008702e-03
9.200000e+08	2.640682e+13	0.000000e+00	5.999999e-01	4.154739e+14	6.569455e+14	1.315841e+14	1.418495e+04	4.076415e+03	2.976677e+03	0	1.003026e-03
9.300000e+08	2.596674e+13	0.000000e+00	5.999999e-01	4.098240e+14	6.492937e+14	1.309846e+14	1.415207e+04	4.071760e+03	2.973277e+03	0	9.974228e-04
9.400000e+08	2.553703e+13	0.000000e+00	5.999999e-01	4.043051e+14	6.418089e+14	1.303893e+14	1.411964e+04	4.067163e+03	2.969920e+03	0	9.918903e-04
9.500000e+08	2.511735e+13	0.000000e+00	5.999999e-01	3.989130e+14	6.344859e+14	1.297981e+14	1.408764e+04	4.062623e+03	2.966605e+03	0	9.864267e-04
9.600000e+08	2.470739e+13	0.000000e+00	5.999999e-01	3.936438e+14	6.273195e+14	1.292108e+14	1.405606e+04	4.058138e+03	2.963331e+03	0	9.810303e-04
9.700000e+08	2.430682e+13	0.000000e+00	5.999999e-01	3.884933e+14	6.203049e+14	1.286276e+14	1.402490e+04	4.053708e+03	2.960096e+03	0	9.756998e-04
9.800000e+08	2.391535e+13	0.000000e+00	5.999999e-01	3.834580e+14	6.134374e+14	1.280483e+14	1.399414e+04	4.049332e+03	2.956900e+03	0	9.704334e-04
9.900000e+08	2.353269e+13	0.000000e+00	5.999999e-01	3.785342e+14	6.067126e+14	1.274730e+14	1.396378e+04	4.045008e+03	2.953742e+03	0	9.652298e-04
1.000000e+09	2.315857e+13	0.000000e+00	5.999999e-01	3.737185e+14	6.001261e+14	1.269016e+14	1.393381e+04	4.040735e+03	2.950622e+03	0	9.600874e-04
1.010000e+09	2.279273e+13	0.000000e+00	5.999999e-01	3.690075e+14	5.936738e+14	1.263340e+14	1.390422e+04	4.036512e+03	2.947538e+03	0	9.550050e-04
1.020000e+09	2.243491e+13	0.000000e+00	5.999999e-01	3.643981e+14	5.873517e+14	1.257703e+14	1.387500e+04	4.032337e+03	2.944490e+03	0	9.499811e-04
1.030000e+09	2.208487e+13	0.000000e+00	5.999999e-01	3.598871e+14	5.811561e+14	1.252105e+14	1.384615e+04	4.028211e+03	2.941477e+03	0	9.450144e-04
1.040000e+09	2.174237e+13	0.000000e+00	5.999999e-01	3.554717e+14	5.750831e+14	1.246544e+14	1.381765e+04	4.024132e+03	2.938499e+03	0	9.401037e-04
1.050000e+09	2.140718e+13	0.000000e+00	5.999999e-01	3.511490e+14	5.691294e+14	1.241020e+14	1.378950e+04	4.020099e+03	2.935553e+03	0	9.352478e-04
1.060000e+09	2.107910e+13	0.000000e+00	5.999999e-01	3.469163e+14	5.632914e+14	1.235534e+14	1.376169e+04	4.016111e+03	2.932641e+03	0	9.304454e-04
1.070000e+09	2.075792e+13	0.000000e+00	5.999999e-01	3.427710e+14	5.575659e+14	1.230085e+14	1.373421e+04	4.012167e+03	2.929761e+03	0	9.256954e-04
1.080000e+09	2.044342e+13	0.000000e+00	5.999999e-01	3.387105e+14	5.519497e+14	1.224672e+14	1.370706e+04	4.008266e+03	2.926913e+03	0	9.209966e-04
1.090000e+09	2.013543e+13	0.000000e+00	5.999999e-01	3.347324e+14	5.464398e+14	1.219296e+14	1.368023e+04	4.004408e+03	2.924095e+03	0	9.163480e-04
1.100000e+09	1.983374e+13	0.000000e+00	5.999999e-01	3.308343e+14	5.410333e+14	1.213956e+14	1.365371e+04	4.000591e+03	2.921308e+03	0	9.117485e-04
1.110000e+09	1.953819e+13	0.000000e+00	5.999999e-01	3.270141e+14	5.357273e+14	1.208651e+14	1.362751e+04	3.996815e+03	2.918551e+03	0	9.071971e-04
1.120000e+09	1.924861e+13	0.000000e+00	5.999999e-01	3.232695e+14	5.305190e+14	1.203383e+14	1.360160e+04	3.993079e+03	2.915823e+03	0	9.026927e-04
1.130000e+09	1.896481e+13	0.000000e+00	5.999999e-01	3.195984e+14	5.254060e+14	1.198149e+14	1.357599e+04	3.989382e+03	2.913124e+03	0	8.982344e-04
1.140000e+09	1.868665e+13	0.000000e+00	5.999999e-01	3.159988e+14	5.203855e+14	1.192951e+14	1.355067e+04	3.985724e+03	2.910452e+03	0	8.938212e-04
1.150000e+09	1.841397e+13	0.000000e+00	5.999999e-01	3.124688e+14	5.154552e+14	1.187787e+14	1.352563e+04	3.982104e+03	2.907809e+03	0	8.894523e-04
1.160000e+09	1.814662e+13	0.000000e+00	5.999999e-01	3.090065e+14	5.106127e+14	1.182658e+14	1.350087e+04	3.978520e+03	2.905192e+03	0	8.851266e-04
1.170000e+09	1.788445e+13	0.000000e+00	5.999999e-01	3.056100e+14	5.058556e+14	1.177562e+14	1.347639e+04	3.974973e+03	2.902602e+03	0	8.808434e-04
1.180000e+09	1.762732e+13	0.000000e+00	5.999999e-01	3.022775e+14	5.011819e+14	1.172501e+14	1.345217e+04	3.971462e+03	2.900038e+03	0	8.766017e-04
1.190000e+09	1.737511e+13	0.000000e+00	5.999999e-01	2.990075e+14	4.965893e+14	1.167473e+14	1.342822e+04	3.967985e+03	2.897499e+03	0	8.724007e-04
1.200000e+09	1.712768e+13	0.000000e+00	5.999999e-01	2.957982e+14	4.920759e+14	1.162479e+14	1.340452e+04	3.964543e+03	2.894986e+03	0	8.682397e-04
1.210000e+09	1.688490e+13	0.000000e+00	5.999999e-01	2.926481e+14	4.876395e+14	1.157518e+14	1.338108e+04	3.961135e+03	2.892497e+03	0	8.641179e-04
1.220000e+09	1.664665e+13	0.000000e+00	5.999999e-01	2.895556e+14	4.832783e+14	1.152590e+14	1.335788e+04	3.957760e+03	2.890032e+03	0	8.600344e-04
1.230000e+09	1.641282e+13	0.000000e+00	5.999999e-01	2.865193e+14	4.789903e+14	1.147694e+14	1.333493e+04	3.954417e+03	2.887591e+03	0	8.559885e-04
1.240000e+09	1.618330e+13	0.000000e+00	5.999999e-01	2.835377e+14	4.747739e+14	1.142831e+14	1.331222e+04	3.951107e+03	2.885174e+03	0	8.519795e-04
1.250000e+09	1.595796e+13	0.000000e+00	5.999999e-01	2.806095e+14	4.706272e+14	1.138000e+14	1.328975e+04	3.947828e+03	2.882780e+03	0	8.480068e-04
1.260000e+09	1.573671e+13	0.000000e+00	5.999999e-01	2.777332e+14	4.665486e+14	1.133200e+14	1.326751e+04	3.944579e+03	2.880408e+03	0	8.440695e-04
1.270000e+09	1.551945e+13	0.000000e+00	5.999999e-01	2.749077e+14	4.625364e+14	1.128433e+14	1.324549e+04	3.941362e+03	2.878058e+03	0	8.401670e-04
1.280000e+09	1.530607e+13	0.000000e+00	5.999999e-01	2.721316e+14	4.585890e+14	1.123696e+14	1.322370e+04	3.938174e+03	2.875730e+03	0	8.362986e-04
1.290000e+09	1.509648e+13	0.000000e+00	5.999999e-01	2.694037e+14	4.547048e+14	1.118991e+14	1.320212e+04	3.935015e+03	2.873423e+03	0	8.324638e-04
1.300000e+09	1.489058e+13	0.000000e+00	5.999999e-01	2.667229e+14	4.508825e+14	1.114317e+14	1.318077e+04	3.931885e+03	2.871138e+03	0	8.286619e-04
1.310000e+09	1.468828e+13	0.000000e+00	5.999999e-01	2.640879e+14	4.471205e+14	1.109673e+14	1.315962e+04	3.928784e+03	2.868873e+03	0	8.248922e-04
1.320000e+09	1.448950e+13	0.000000e+00	5.999999e-01	2.614978e+14	4.434175e+14	1.105060e+14	1.313868e+04	3.925710e+03	2.866629e+03	0	8.211541e-04
1.330000e+09	1.429416e+13	0.000000e+00	5.999999e-01	2.589515e+14	4.397721e+14	1.100476e+14	1.311795e+04	3.922664e+03	2.864404e+03	0	8.174472e-04
1.340000e+09	1.410216e+13	0.000000e+00	5.999999e-01	2.564478e+14	4.361829e+14	1.095923e+14	1.309742e+04	3.919644e+03	2.862200e+03	0	8.137707e-04
1.350000e+09	1.391344e+13	0.000000e+00	5.999999e-01	2.539858e+14	4.326488e+14	1.091400e+14	1.307708e+04	3.916652e+03	2.860014e+03	0	8.101242e-04
1.360000e+09	1.372790e+13	0.000000e+00	5.999999e-01	2.515645e+14	4.291684e+14	1.086906e+14	1.305695e+04	3.913685e+03	2.857848e+03	0	8.065071e-04
