#t		Qconv[W]	Ri[Rp]		R*[Rp]		Qc[W]		Qm[W]		Qr[W]		Tcmb[K]		Tl[K]		Tup[K]		RiFlag		Bs[T]
0.000000e+00	2.947067e+16	0.000000e+00	6.043958e-01	3.418564e+17	5.015568e+15	2.236306e+14	9.307780e+04	5.215203e+03	2.952149e+03	0	1.025335e-02
1.000000e+07	1.782901e+16	0.000000e+00	6.043958e-01	2.069488e+17	1.326341e+14	2.223915e+14	7.428328e+04	3.486136e+03	1.973383e+03	0	8.671849e-03
2.000000e+07	1.164600e+16	0.000000e+00	6.043958e-01	1.352845e+17	1.068958e+17	2.211617e+14	6.250553e+04	9.820589e+03	5.559101e+03	0	7.524222e-03
3.000000e+07	8.205714e+15	0.000000e+00	6.043958e-01	9.539885e+16	1.085497e+17	2.199411e+14	5.449380e+04	1.014948e+04	5.745277e+03	0	6.695372e-03
4.000000e+07	6.073909e+15	0.000000e+00	6.043958e-01	7.067723e+16	8.975298e+16	2.187296e+14	4.870893e+04	9.921376e+03	5.616154e+03	0	6.056551e-03
5.000000e+07	4.663461e+15	0.000000e+00	6.043958e-01	5.431686e+16	6.942402e+16	2.175271e+14	4.434333e+04	9.517826e+03	5.387718e+03	0	5.545900e-03
6.000000e+07	3.685665e+15	0.000000e+00	6.043958e-01	4.297217e+16	5.450506e+16	2.163336e+14	4.093787e+04	9.153733e+03	5.181617e+03	0	5.127526e-03
7.000000e+07	2.983577e+15	0.000000e+00	6.043958e-01	3.482422e+16	4.390234e+16	2.151490e+14	3.821025e+04	8.849139e+03	5.009196e+03	0	4.778758e-03
8.000000e+07	2.464318e+15	0.000000e+00	6.043958e-01	2.879643e+16	3.617691e+16	2.139732e+14	3.597693e+04	8.592837e+03	4.864112e+03	0	4.483683e-03
9.000000e+07	2.070373e+15	0.000000e+00	6.043958e-01	2.422209e+16	3.038148e+16	2.128061e+14	3.411406e+04	8.373719e+03	4.740078e+03	0	4.230764e-03
1.000000e+08	1.764845e+15	0.000000e+00	6.043958e-01	2.067342e+16	2.592146e+16	2.116477e+14	3.253548e+04	8.183624e+03	4.632471e+03	0	4.011482e-03
1.100000e+08	1.523312e+15	0.000000e+00	6.043958e-01	1.786723e+16	2.241409e+16	2.104979e+14	3.117961e+04	8.016664e+03	4.537961e+03	0	3.819433e-03
1.200000e+08	1.329150e+15	0.000000e+00	6.043958e-01	1.561075e+16	1.960459e+16	2.093566e+14	3.000133e+04	7.868503e+03	4.454092e+03	0	3.649729e-03
1.300000e+08	1.170756e+15	0.000000e+00	6.043958e-01	1.376941e+16	1.731806e+16	2.082238e+14	2.896692e+04	7.735869e+03	4.379012e+03	0	3.498577e-03
1.400000e+08	1.039850e+15	0.000000e+00	6.043958e-01	1.224716e+16	1.543121e+16	2.070994e+14	2.805068e+04	7.616236e+03	4.311292e+03	0	3.362995e-03
1.500000e+08	9.304037e+14	0.000000e+00	6.043958e-01	1.097407e+16	1.385509e+16	2.059832e+14	2.723272e+04	7.507615e+03	4.249805e+03	0	3.240607e-03
1.600000e+08	8.379483e+14	0.000000e+00	6.043958e-01	9.898282e+15	1.252425e+16	2.048753e+14	2.649736e+04	7.408419e+03	4.193654e+03	0	3.129501e-03
1.700000e+08	7.591177e+14	0.000000e+00	6.043958e-01	8.980746e+15	1.138962e+16	2.037756e+14	2.583214e+04	7.317363e+03	4.142110e+03	0	3.028115e-03
1.800000e+08	6.913385e+14	0.000000e+00	6.043958e-01	8.191593e+15	1.041389e+16	2.026840e+14	2.522698e+04	7.233390e+03	4.094576e+03	0	2.935167e-03
1.900000e+08	6.326171e+14	0.000000e+00	6.043958e-01	7.507684e+15	9.568209e+15	2.016004e+14	2.467368e+04	7.155628e+03	4.050558e+03	0	2.849594e-03
2.000000e+08	5.813905e+14	0.000000e+00	6.043958e-01	6.910873e+15	8.830043e+15	2.005248e+14	2.416548e+04	7.083346e+03	4.009641e+03	0	2.770503e-03
2.100000e+08	5.364190e+14	0.000000e+00	6.043958e-01	6.386768e+15	8.181553e+15	1.994572e+14	2.369676e+04	7.015928e+03	3.971478e+03	0	2.697143e-03
2.200000e+08	4.967100e+14	0.000000e+00	6.043958e-01	5.923843e+15	7.608476e+15	1.983973e+14	2.326280e+04	6.952848e+03	3.935771e+03	0	2.628877e-03
2.300000e+08	4.614607e+14	0.000000e+00	6.043958e-01	5.512776e+15	7.099296e+15	1.973452e+14	2.285964e+04	6.893659e+03	3.902266e+03	0	2.565159e-03
2.400000e+08	4.300166e+14	0.000000e+00	6.043958e-01	5.145962e+15	6.644629e+15	1.963009e+14	2.248389e+04	6.837974e+03	3.870745e+03	0	2.505519e-03
2.500000e+08	4.018392e+14	0.000000e+00	6.043958e-01	4.817149e+15	6.236769e+15	1.952642e+14	2.213266e+04	6.785459e+03	3.841017e+03	0	2.449552e-03
2.600000e+08	3.764830e+14	0.000000e+00	6.043958e-01	4.521158e+15	5.869335e+15	1.942351e+14	2.180344e+04	6.735820e+03	3.812918e+03	0	2.396906e-03
2.700000e+08	3.535761e+14	0.000000e+00	6.043958e-01	4.253670e+15	5.537009e+15	1.932135e+14	2.149408e+04	6.688803e+03	3.786304e+03	0	2.347273e-03
2.800000e+08	3.328063e+14	0.000000e+00	6.043958e-01	4.011057e+15	5.235329e+15	1.921993e+14	2.120270e+04	6.644182e+03	3.761045e+03	0	2.300381e-03
2.900000e+08	3.139103e+14	0.000000e+00	6.043958e-01	3.790256e+15	4.960527e+15	1.911926e+14	2.092766e+04	6.601758e+03	3.737031e+03	0	2.255993e-03
3.000000e+08	2.966642e+14	0.000000e+00	6.043958e-01	3.588666e+15	4.709404e+15	1.901932e+14	2.066751e+04	6.561355e+03	3.714160e+03	0	2.213898e-03
3.100000e+08	2.808768e+14	0.000000e+00	6.043958e-01	3.404066e+15	4.479229e+15	1.892011e+14	2.042097e+04	6.522815e+03	3.692344e+03	0	2.173909e-03
3.200000e+08	2.663844e+14	0.000000e+00	6.043958e-01	3.234548e+15	4.267657e+15	1.882162e+14	2.018692e+04	6.485997e+03	3.671502e+03	0	2.135857e-03
3.300000e+08	2.530455e+14	0.000000e+00	6.043958e-01	3.078471e+15	4.072668e+15	1.872385e+14	1.996434e+04	6.450776e+03	3.651565e+03	0	2.099595e-03
3.400000e+08	2.407379e+14	0.000000e+00	6.043958e-01	2.934410e+15	3.892514e+15	1.862679e+14	1.975235e+04	6.417037e+03	3.632466e+03	0	2.064987e-03
3.500000e+08	2.293550e+14	0.000000e+00	6.043958e-01	2.801129e+15	3.725671e+15	1.853043e+14	1.955014e+04	6.384678e+03	3.614149e+03	0	2.031914e-03
3.600000e+08	2.188042e+14	0.000000e+00	6.043958e-01	2.677546e+15	3.570811e+15	1.843477e+14	1.935698e+04	6.353605e+03	3.596560e+03	0	2.000266e-03
3.700000e+08	2.090039e+14	0.000000e+00	6.043958e-01	2.562715e+15	3.426771e+15	1.833980e+14	1.917223e+04	6.323735e+03	3.579651e+03	0	1.969945e-03
3.800000e+08	1.998828e+14	0.000000e+00	6.043958e-01	2.455804e+15	3.292526e+15	1.824552e+14	1.899530e+04	6.294990e+03	3.563379e+03	0	1.940861e-03
3.900000e+08	1.913776e+14	0.000000e+00	6.043958e-01	2.356079e+15	3.167172e+15	1.815192e+14	1.882565e+04	6.267300e+03	3.547705e+03	0	1.912933e-03
4.000000e+08	1.834326e+14	0.000000e+00	6.043958e-01	2.262888e+15	3.049910e+15	1.805900e+14	1.866281e+04	6.240601e+03	3.532592e+03	0	1.886086e-03
4.100000e+08	1.759981e+14	0.000000e+00	6.043958e-01	2.175656e+15	2.940028e+15	1.796674e+14	1.850633e+04	6.214834e+03	3.518006e+03	0	1.860253e-03
4.200000e+08	1.690301e+14	0.000000e+00	6.043958e-01	2.093867e+15	2.836894e+15	1.787516e+14	1.835580e+04	6.189946e+03	3.503918e+03	0	1.835371e-03
4.300000e+08	1.624891e+14	0.000000e+00	6.043958e-01	2.017064e+15	2.739941e+15	1.778423e+14	1.821087e+04	6.165885e+03	3.490298e+03	0	1.811385e-03
4.400000e+08	1.563398e+14	0.000000e+00	6.043958e-01	1.944835e+15	2.648665e+15	1.769395e+14	1.807120e+04	6.142608e+03	3.477121e+03	0	1.788240e-03
4.500000e+08	1.505507e+14	0.000000e+00	6.043958e-01	1.876811e+15	2.562611e+15	1.760433e+14	1.793647e+04	6.120070e+03	3.464363e+03	0	1.765889e-03
4.600000e+08	1.450931e+14	0.000000e+00	6.043958e-01	1.812662e+15	2.481369e+15	1.751535e+14	1.780640e+04	6.098233e+03	3.452002e+03	0	1.744288e-03
4.700000e+08	1.399416e+14	0.000000e+00	6.043958e-01	1.752087e+15	2.404571e+15	1.742700e+14	1.768073e+04	6.077060e+03	3.440017e+03	0	1.723395e-03
4.800000e+08	1.350728e+14	0.000000e+00	6.043958e-01	1.694817e+15	2.331882e+15	1.733929e+14	1.755922e+04	6.056518e+03	3.428389e+03	0	1.703172e-03
4.900000e+08	1.304658e+14	0.000000e+00	6.043958e-01	1.640606e+15	2.263001e+15	1.725221e+14	1.744163e+04	6.036576e+03	3.417100e+03	0	1.683584e-03
5.000000e+08	1.261014e+14	0.000000e+00	6.043958e-01	1.589232e+15	2.197653e+15	1.716575e+14	1.732777e+04	6.017203e+03	3.406134e+03	0	1.664598e-03
5.100000e+08	1.219625e+14	0.000000e+00	6.043958e-01	1.540495e+15	2.135589e+15	1.707991e+14	1.721744e+04	5.998373e+03	3.395475e+03	0	1.646183e-03
5.200000e+08	1.180331e+14	0.000000e+00	6.043958e-01	1.494208e+15	2.076582e+15	1.699468e+14	1.711046e+04	5.980060e+03	3.385108e+03	0	1.628311e-03
5.300000e+08	1.142990e+14	0.000000e+00	6.043958e-01	1.450205e+15	2.020422e+15	1.691006e+14	1.700666e+04	5.962240e+03	3.375021e+03	0	1.610955e-03
5.400000e+08	1.107468e+14	0.000000e+00	6.043958e-01	1.408331e+15	1.966921e+15	1.682604e+14	1.690589e+04	5.944891e+03	3.365201e+03	0	1.594091e-03
5.500000e+08	1.073647e+14	0.000000e+00	6.043958e-01	1.368447e+15	1.915905e+15	1.674262e+14	1.680801e+04	5.927992e+03	3.355635e+03	0	1.577695e-03
5.600000e+08	1.041414e+14	0.000000e+00	6.043958e-01	1.330423e+15	1.867213e+15	1.665979e+14	1.671287e+04	5.911524e+03	3.346312e+03	0	1.561746e-03
5.700000e+08	1.010669e+14	0.000000e+00	6.043958e-01	1.294141e+15	1.820699e+15	1.657755e+14	1.662035e+04	5.895467e+03	3.337223e+03	0	1.546224e-03
5.800000e+08	9.813184e+13	0.000000e+00	6.043958e-01	1.259491e+15	1.776228e+15	1.649589e+14	1.653033e+04	5.879805e+03	3.328357e+03	0	1.531108e-03
5.900000e+08	9.532758e+13	0.000000e+00	6.043958e-01	1.226373e+15	1.733675e+15	1.641481e+14	1.644271e+04	5.864520e+03	3.319705e+03	0	1.516383e-03
6.000000e+08	9.264617e+13	0.000000e+00	6.043958e-01	1.194695e+15	1.692926e+15	1.633431e+14	1.635736e+04	5.849599e+03	3.311259e+03	0	1.502029e-03
6.100000e+08	9.008030e+13	0.000000e+00	6.043958e-01	1.164371e+15	1.653873e+15	1.625437e+14	1.627421e+04	5.835026e+03	3.303009e+03	0	1.488033e-03
6.200000e+08	8.762316e+13	0.000000e+00	6.043958e-01	1.135321e+15	1.616419e+15	1.617500e+14	1.619314e+04	5.820787e+03	3.294949e+03	0	1.474378e-03
6.300000e+08	8.526848e+13	0.000000e+00	6.043958e-01	1.107472e+15	1.580472e+15	1.609620e+14	1.611409e+04	5.806869e+03	3.287071e+03	0	1.461051e-03
6.400000e+08	8.301043e+13	0.000000e+00	6.043958e-01	1.080755e+15	1.545949e+15	1.601794e+14	1.603695e+04	5.793260e+03	3.279368e+03	0	1.448039e-03
6.500000e+08	8.084358e+13	0.000000e+00	6.043958e-01	1.055109e+15	1.512769e+15	1.594024e+14	1.596167e+04	5.779949e+03	3.271832e+03	0	1.435328e-03
6.600000e+08	7.876291e+13	0.000000e+00	6.043958e-01	1.030473e+15	1.480860e+15	1.586308e+14	1.588815e+04	5.766924e+03	3.264460e+03	0	1.422907e-03
6.700000e+08	7.676373e+13	0.000000e+00	6.043958e-01	1.006794e+15	1.450155e+15	1.578647e+14	1.581634e+04	5.754175e+03	3.257243e+03	0	1.410765e-03
6.800000e+08	7.484169e+13	0.000000e+00	6.043958e-01	9.840194e+14	1.420589e+15	1.571040e+14	1.574617e+04	5.741692e+03	3.250177e+03	0	1.398891e-03
6.900000e+08	7.299270e+13	0.000000e+00	6.043958e-01	9.621025e+14	1.392103e+15	1.563486e+14	1.567757e+04	5.729466e+03	3.243255e+03	0	1.387275e-03
7.000000e+08	7.121298e+13	0.000000e+00	6.043958e-01	9.409988e+14	1.364642e+15	1.555984e+14	1.561049e+04	5.717486e+03	3.236475e+03	0	1.375907e-03
7.100000e+08	6.949896e+13	0.000000e+00	6.043958e-01	9.206666e+14	1.338155e+15	1.548536e+14	1.554487e+04	5.705746e+03	3.229829e+03	0	1.364778e-03
7.200000e+08	6.784733e+13	0.000000e+00	6.043958e-01	9.010672e+14	1.312592e+15	1.541139e+14	1.548066e+04	5.694237e+03	3.223314e+03	0	1.353880e-03
7.300000e+08	6.625499e+13	0.000000e+00	6.043958e-01	8.821642e+14	1.287908e+15	1.533794e+14	1.541781e+04	5.682951e+03	3.216925e+03	0	1.343205e-03
7.400000e+08	6.471900e+13	0.000000e+00	6.043958e-01	8.639234e+14	1.264062e+15	1.526501e+14	1.535626e+04	5.671880e+03	3.210658e+03	0	1.332743e-03
7.500000e+08	6.323665e+13	0.000000e+00	6.043958e-01	8.463130e+14	1.241012e+15	1.519258e+14	1.529598e+04	5.661018e+03	3.204509e+03	0	1.322490e-03
7.600000e+08	6.180536e+13	0.000000e+00	6.043958e-01	8.293027e+14	1.218722e+15	1.512066e+14	1.523692e+04	5.650357e+03	3.198475e+03	0	1.312436e-03
7.700000e+08	6.042272e+13	0.000000e+00	6.043958e-01	8.128645e+14	1.197156e+15	1.504923e+14	1.517904e+04	5.639893e+03	3.192551e+03	0	1.302575e-03
7.800000e+08	5.908646e+13	0.000000e+00	6.043958e-01	7.969717e+14	1.176282e+15	1.497831e+14	1.512230e+04	5.629617e+03	3.186735e+03	0	1.292901e-03
7.900000e+08	5.779445e+13	0.000000e+00	6.043958e-01	7.815994e+14	1.156066e+15	1.490787e+14	1.506666e+04	5.619525e+03	3.181022e+03	0	1.283408e-03
8.000000e+08	5.654468e+13	0.000000e+00	6.043958e-01	7.667240e+14	1.136482e+15	1.483793e+14	1.501209e+04	5.609610e+03	3.175409e+03	0	1.274089e-03
8.100000e+08	5.533525e+13	0.000000e+00	6.043958e-01	7.523233e+14	1.117499e+15	1.476847e+14	1.495855e+04	5.599868e+03	3.169895e+03	0	1.264940e-03
8.200000e+08	5.416437e+13	0.000000e+00	6.043958e-01	7.383764e+14	1.099094e+15	1.469949e+14	1.490601e+04	5.590293e+03	3.164475e+03	0	1.255954e-03
8.300000e+08	5.303036e+13	0.000000e+00	6.043958e-01	7.248634e+14	1.081239e+15	1.463099e+14	1.485444e+04	5.580880e+03	3.159146e+03	0	1.247127e-03
8.400000e+08	5.193162e+13	0.000000e+00	6.043958e-01	7.117658e+14	1.063913e+15	1.456296e+14	1.480381e+04	5.571625e+03	3.153907e+03	0	1.238454e-03
8.500000e+08	5.086664e+13	0.000000e+00	6.043958e-01	6.990659e+14	1.047093e+15	1.449540e+14	1.475408e+04	5.562523e+03	3.148755e+03	0	1.229930e-03
8.600000e+08	4.983400e+13	0.000000e+00	6.043958e-01	6.867469e+14	1.030758e+15	1.442830e+14	1.470524e+04	5.553569e+03	3.143686e+03	0	1.221550e-03
8.700000e+08	4.883235e+13	0.000000e+00	6.043958e-01	6.747930e+14	1.014888e+15	1.436167e+14	1.465725e+04	5.544760e+03	3.138700e+03	0	1.213310e-03
8.800000e+08	4.786040e+13	0.000000e+00	6.043958e-01	6.631892e+14	9.994640e+14	1.429549e+14	1.461010e+04	5.536091e+03	3.133793e+03	0	1.205206e-03
8.900000e+08	4.691696e+13	0.000000e+00	6.043958e-01	6.519213e+14	9.844690e+14	1.422977e+14	1.456375e+04	5.527558e+03	3.128963e+03	0	1.197235e-03
9.000000e+08	4.600086e+13	0.000000e+00	6.043958e-01	6.409759e+14	9.698856e+14	1.416451e+14	1.451818e+04	5.519158e+03	3.124208e+03	0	1.189391e-03
9.100000e+08	4.511102e+13	0.000000e+00	6.043958e-01	6.303401e+14	9.556977e+14	1.409968e+14	1.447337e+04	5.510888e+03	3.119526e+03	0	1.181672e-03
9.200000e+08	4.424640e+13	0.000000e+00	6.043958e-01	6.200018e+14	9.418901e+14	1.403531e+14	1.442931e+04	5.502743e+03	3.114915e+03	0	1.174073e-03
9.300000e+08	4.340602e+13	0.000000e+00	6.043958e-01	6.099495e+14	9.284482e+14	1.397137e+14	1.438596e+04	5.494720e+03	3.110374e+03	0	1.166593e-03
9.400000e+08	4.258894e+13	0.000000e+00	6.043958e-01	6.001721e+14	9.153583e+14	1.390787e+14	1.434331e+04	5.486817e+03	3.105900e+03	0	1.159226e-03
9.500000e+08	4.179427e+13	0.000000e+00	6.043958e-01	5.906593e+14	9.026072e+14	1.384480e+14	1.430134e+04	5.479029e+03	3.101492e+03	0	1.151971e-03
9.600000e+08	4.102116e+13	0.000000e+00	6.043958e-01	5.814010e+14	8.901824e+14	1.378217e+14	1.426004e+04	5.471355e+03	3.097148e+03	0	1.144824e-03
9.700000e+08	4.026882e+13	0.000000e+00	6.043958e-01	5.723879e+14	8.780720e+14	1.371996e+14	1.421937e+04	5.463791e+03	3.092866e+03	0	1.137782e-03
9.800000e+08	3.953647e+13	0.000000e+00	6.043958e-01	5.636109e+14	8.662645e+14	1.365817e+14	1.417934e+04	5.456335e+03	3.088645e+03	0	1.130842e-03
9.900000e+08	3.882338e+13	0.000000e+00	6.043958e-01	5.550615e+14	8.547492e+14	1.359680e+14	1.413991e+04	5.448983e+03	3.084484e+03	0	1.124002e-03
1.000000e+09	3.812885e+13	0.000000e+00	6.043958e-01	5.467313e+14	8.435158e+14	1.353585e+14	1.410108e+04	5.441733e+03	3.080380e+03	0	1.117259e-03
1.010000e+09	3.745222e+13	0.000000e+00	6.043958e-01	5.386127e+14	8.325543e+14	1.347532e+14	1.406283e+04	5.434584e+03	3.076333e+03	0	1.110611e-03
1.020000e+09	3.679284e+13	0.000000e+00	6.043958e-01	5.306980e+14	8.218553e+14	1.341519e+14	1.402515e+04	5.427531e+03	3.072341e+03	0	1.104054e-03
1.030000e+09	3.615012e+13	0.000000e+00	6.043958e-01	5.229803e+14	8.114099e+14	1.335547e+14	1.398801e+04	5.420574e+03	3.068402e+03	0	1.097588e-03
1.040000e+09	3.552347e+13	0.000000e+00	6.043958e-01	5.154527e+14	8.012094e+14	1.329615e+14	1.395142e+04	5.413709e+03	3.064517e+03	0	1.091209e-03
1.050000e+09	3.491235e+13	0.000000e+00	6.043958e-01	5.081086e+14	7.912455e+14	1.323724e+14	1.391535e+04	5.406935e+03	3.060682e+03	0	1.084915e-03
1.060000e+09	3.431621e+13	0.000000e+00	6.043958e-01	5.009419e+14	7.815105e+14	1.317872e+14	1.387979e+04	5.400249e+03	3.056897e+03	0	1.078704e-03
1.070000e+09	3.373455e+13	0.000000e+00	6.043958e-01	4.939465e+14	7.719967e+14	1.312060e+14	1.384472e+04	5.393650e+03	3.053162e+03	0	1.072575e-03
1.080000e+09	3.316689e+13	0.000000e+00	6.043958e-01	4.871168e+14	7.626969e+14	1.306286e+14	1.381015e+04	5.387136e+03	3.049474e+03	0	1.066525e-03
1.090000e+09	3.261276e+13	0.000000e+00	6.043958e-01	4.804473e+14	7.536043e+14	1.300552e+14	1.377605e+04	5.380704e+03	3.045833e+03	0	1.060552e-03
1.100000e+09	3.207171e+13	0.000000e+00	6.043958e-01	4.739328e+14	7.447122e+14	1.294856e+14	1.374242e+04	5.374352e+03	3.042238e+03	0	1.054654e-03
1.110000e+09	3.154333e+13	0.000000e+00	6.043958e-01	4.675682e+14	7.360141e+14	1.289198e+14	1.370924e+04	5.368080e+03	3.038687e+03	0	1.048830e-03
1.120000e+09	3.102720e+13	0.000000e+00	6.043958e-01	4.613488e+14	7.275041e+14	1.283578e+14	1.367650e+04	5.361885e+03	3.035180e+03	0	1.043078e-03
1.130000e+09	3.052293e+13	0.000000e+00	6.043958e-01	4.552698e+14	7.191763e+14	1.277996e+14	1.364420e+04	5.355765e+03	3.031716e+03	0	1.037396e-03
1.140000e+09	3.003014e+13	0.000000e+00	6.043958e-01	4.493270e+14	7.110251e+14	1.272451e+14	1.361232e+04	5.349719e+03	3.028294e+03	0	1.031783e-03
1.150000e+09	2.954847e+13	0.000000e+00	6.043958e-01	4.435160e+14	7.030450e+14	1.266943e+14	1.358086e+04	5.343746e+03	3.024913e+03	0	1.026237e-03
1.160000e+09	2.907758e+13	0.000000e+00	6.043958e-01	4.378328e+14	6.952309e+14	1.261472e+14	1.354980e+04	5.337843e+03	3.021571e+03	0	1.020756e-03
1.170000e+09	2.861713e+13	0.000000e+00	6.043958e-01	4.322735e+14	6.875778e+14	1.256037e+14	1.351914e+04	5.332009e+03	3.018269e+03	0	1.015340e-03
1.180000e+09	2.816680e+13	0.000000e+00	6.043958e-01	4.268342e+14	6.800809e+14	1.250639e+14	1.348886e+04	5.326244e+03	3.015005e+03	0	1.009985e-03
1.190000e+09	2.772629e+13	0.000000e+00	6.043958e-01	4.215114e+14	6.727356e+14	1.245276e+14	1.345897e+04	5.320545e+03	3.011779e+03	0	1.004693e-03
1.200000e+09	2.729530e+13	0.000000e+00	6.043958e-01	4.163015e+14	6.655376e+14	1.239949e+14	1.342944e+04	5.314911e+03	3.008590e+03	0	9.994596e-04
1.210000e+09	2.687354e+13	0.000000e+00	6.043958e-01	4.112013e+14	6.584824e+14	1.234657e+14	1.340028e+04	5.309340e+03	3.005437e+03	0	9.942851e-04
1.220000e+09	2.646075e+13	0.000000e+00	6.043958e-01	4.062075e+14	6.515661e+14	1.229400e+14	1.337148e+04	5.303832e+03	3.002319e+03	0	9.891678e-04
1.230000e+09	2.605665e+13	0.000000e+00	6.043958e-01	4.013170e+14	6.447847e+14	1.224179e+14	1.334302e+04	5.298386e+03	2.999236e+03	0	9.841066e-04
1.240000e+09	2.566100e+13	0.000000e+00	6.043958e-01	3.965268e+14	6.381343e+14	1.218991e+14	1.331490e+04	5.292999e+03	2.996187e+03	0	9.791003e-04
1.250000e+09	2.527356e+13	0.000000e+00	6.043958e-01	3.918341e+14	6.316114e+14	1.213838e+14	1.328712e+04	5.287671e+03	2.993171e+03	0	9.741476e-04
1.260000e+09	2.489408e+13	0.000000e+00	6.043958e-01	3.872360e+14	6.252123e+14	1.208719e+14	1.325967e+04	5.282401e+03	2.990188e+03	0	9.692474e-04
1.270000e+09	2.452234e+13	0.000000e+00	6.043958e-01	3.827299e+14	6.189337e+14	1.203633e+14	1.323253e+04	5.277188e+03	2.987236e+03	0	9.643986e-04
1.280000e+09	2.415812e+13	0.000000e+00	6.043958e-01	3.783133e+14	6.127723e+14	1.198581e+14	1.320572e+04	5.272030e+03	2.984317e+03	0	9.596002e-04
1.290000e+09	2.380122e+13	0.000000e+00	6.043958e-01	3.739836e+14	6.067249e+14	1.193562e+14	1.317921e+04	5.266926e+03	2.981428e+03	0	9.548511e-04
1.300000e+09	2.345142e+13	0.000000e+00	6.043958e-01	3.697385e+14	6.007884e+14	1.188577e+14	1.315300e+04	5.261876e+03	2.978569e+03	0	9.501504e-04
1.310000e+09	2.310854e+13	0.000000e+00	6.043958e-01	3.655756e+14	5.949600e+14	1.183623e+14	1.312709e+04	5.256878e+03	2.975740e+03	0	9.454969e-04
1.320000e+09	2.277238e+13	0.000000e+00	6.043958e-01	3.614928e+14	5.892367e+14	1.178703e+14	1.310147e+04	5.251932e+03	2.972940e+03	0	9.408898e-04
1.330000e+09	2.244277e+13	0.000000e+00	6.043958e-01	3.574878e+14	5.836159e+14	1.173814e+14	1.307613e+04	5.247036e+03	2.970168e+03	0	9.363281e-04
1.340000e+09	2.211952e+13	0.000000e+00	6.043958e-01	3.535586e+14	5.780947e+14	1.168958e+14	1.305107e+04	5.242189e+03	2.967425e+03	0	9.318110e-04
1.350000e+09	2.180246e+13	0.000000e+00	6.043958e-01	3.497031e+14	5.726708e+14	1.164133e+14	1.302629e+04	5.237391e+03	2.964709e+03	0	9.273375e-04
1.360000e+09	2.149144e+13	0.000000e+00	6.043958e-01	3.459196e+14	5.673415e+14	1.159339e+14	1.300178e+04	5.232641e+03	2.962020e+03	0	9.229067e-04
