#t		Qconv[W]	Ri[Rp]		R*[Rp]		Qc[W]		Qm[W]		Qr[W]		Tcmb[K]		Tl[K]		Tup[K]		RiFlag		Bs[T]
0.000000e+00	3.084489e+16	0.000000e+00	6.043958e-01	3.507268e+17	4.886811e+15	2.304801e+14	9.443211e+04	5.257952e+03	2.971626e+03	0	1.040336e-02
1.000000e+07	1.884497e+16	0.000000e+00	6.043958e-01	2.144235e+17	5.602720e+14	2.292031e+14	7.573679e+04	4.089376e+03	2.311184e+03	0	8.827631e-03
2.000000e+07	1.239083e+16	0.000000e+00	6.043958e-01	1.410989e+17	1.105219e+17	2.279356e+14	6.390717e+04	9.962155e+03	5.630291e+03	0	7.676193e-03
3.000000e+07	8.773832e+15	0.000000e+00	6.043958e-01	9.999508e+16	1.130903e+17	2.266776e+14	5.582338e+04	1.031025e+04	5.827023e+03	0	6.841881e-03
4.000000e+07	6.518028e+15	0.000000e+00	6.043958e-01	7.435341e+16	9.402592e+16	2.254290e+14	4.996103e+04	1.008985e+04	5.702459e+03	0	6.196567e-03
5.000000e+07	5.018257e+15	0.000000e+00	6.043958e-01	5.730125e+16	7.300390e+16	2.241897e+14	4.552274e+04	9.686592e+03	5.474552e+03	0	5.679325e-03
6.000000e+07	3.974556e+15	0.000000e+00	6.043958e-01	4.543148e+16	5.745769e+16	2.229596e+14	4.205203e+04	9.320119e+03	5.267433e+03	0	5.254627e-03
7.000000e+07	3.222832e+15	0.000000e+00	6.043958e-01	3.688003e+16	4.636301e+16	2.217387e+14	3.926680e+04	9.012583e+03	5.093624e+03	0	4.899950e-03
8.000000e+07	2.665469e+15	0.000000e+00	6.043958e-01	3.053785e+16	3.825628e+16	2.205269e+14	3.698281e+04	8.753335e+03	4.947105e+03	0	4.599426e-03
9.000000e+07	2.241748e+15	0.000000e+00	6.043958e-01	2.571499e+16	3.216172e+16	2.193241e+14	3.507536e+04	8.531408e+03	4.821678e+03	0	4.341515e-03
1.000000e+08	1.912569e+15	0.000000e+00	6.043958e-01	2.196715e+16	2.746340e+16	2.181302e+14	3.345739e+04	8.338674e+03	4.712751e+03	0	4.117669e-03
1.100000e+08	1.651971e+15	0.000000e+00	6.043958e-01	1.899925e+16	2.376339e+16	2.169452e+14	3.206656e+04	8.169250e+03	4.616999e+03	0	3.921449e-03
1.200000e+08	1.442233e+15	0.000000e+00	6.043958e-01	1.660987e+16	2.079605e+16	2.157689e+14	3.085709e+04	8.018794e+03	4.531966e+03	0	3.747925e-03
1.300000e+08	1.270961e+15	0.000000e+00	6.043958e-01	1.465810e+16	1.837866e+16	2.146014e+14	2.979471e+04	7.884021e+03	4.455796e+03	0	3.593269e-03
1.400000e+08	1.129289e+15	0.000000e+00	6.043958e-01	1.304315e+16	1.638212e+16	2.134425e+14	2.885327e+04	7.762393e+03	4.387056e+03	0	3.454465e-03
1.500000e+08	1.010754e+15	0.000000e+00	6.043958e-01	1.169152e+16	1.471318e+16	2.122922e+14	2.801246e+04	7.651909e+03	4.324614e+03	0	3.329106e-03
1.600000e+08	9.105573e+14	0.000000e+00	6.043958e-01	1.054864e+16	1.330308e+16	2.111504e+14	2.725632e+04	7.550971e+03	4.267567e+03	0	3.215251e-03
1.700000e+08	8.250787e+14	0.000000e+00	6.043958e-01	9.573324e+15	1.210024e+16	2.100170e+14	2.657210e+04	7.458281e+03	4.215182e+03	0	3.111317e-03
1.800000e+08	7.515479e+14	0.000000e+00	6.043958e-01	8.734063e+15	1.106536e+16	2.088919e+14	2.594950e+04	7.372776e+03	4.166857e+03	0	3.016000e-03
1.900000e+08	6.878167e+14	0.000000e+00	6.043958e-01	8.006414e+15	1.016805e+16	2.077752e+14	2.538015e+04	7.293571e+03	4.122093e+03	0	2.928217e-03
2.000000e+08	6.321988e+14	0.000000e+00	6.043958e-01	7.371190e+15	9.384540e+15	2.066666e+14	2.485710e+04	7.219929e+03	4.080473e+03	0	2.847062e-03
2.100000e+08	5.833562e+14	0.000000e+00	6.043958e-01	6.813165e+15	8.695998e+15	2.055662e+14	2.437461e+04	7.151225e+03	4.041644e+03	0	2.771769e-03
2.200000e+08	5.402166e+14	0.000000e+00	6.043958e-01	6.320130e+15	8.087360e+15	2.044739e+14	2.392785e+04	7.086931e+03	4.005306e+03	0	2.701687e-03
2.300000e+08	5.019120e+14	0.000000e+00	6.043958e-01	5.882209e+15	7.546452e+15	2.033897e+14	2.351275e+04	7.026590e+03	3.971204e+03	0	2.636260e-03
2.400000e+08	4.677345e+14	0.000000e+00	6.043958e-01	5.491338e+15	7.063350e+15	2.023133e+14	2.312582e+04	6.969811e+03	3.939114e+03	0	2.575010e-03
2.500000e+08	4.371015e+14	0.000000e+00	6.043958e-01	5.140885e+15	6.629898e+15	2.012449e+14	2.276410e+04	6.916256e+03	3.908846e+03	0	2.517521e-03
2.600000e+08	4.095304e+14	0.000000e+00	6.043958e-01	4.825354e+15	6.239343e+15	2.001842e+14	2.242504e+04	6.865626e+03	3.880232e+03	0	2.463435e-03
2.700000e+08	3.846184e+14	0.000000e+00	6.043958e-01	4.540157e+15	5.886053e+15	1.991313e+14	2.210640e+04	6.817664e+03	3.853126e+03	0	2.412436e-03
2.800000e+08	3.620274e+14	0.000000e+00	6.043958e-01	4.281441e+15	5.565299e+15	1.980861e+14	2.180627e+04	6.772141e+03	3.827397e+03	0	2.364247e-03
2.900000e+08	3.414716e+14	0.000000e+00	6.043958e-01	4.045952e+15	5.273087e+15	1.970486e+14	2.152295e+04	6.728854e+03	3.802933e+03	0	2.318626e-03
3.000000e+08	3.227084e+14	0.000000e+00	6.043958e-01	3.830924e+15	5.006026e+15	1.960186e+14	2.125495e+04	6.687624e+03	3.779631e+03	0	2.275355e-03
3.100000e+08	3.055305e+14	0.000000e+00	6.043958e-01	3.633995e+15	4.761219e+15	1.949961e+14	2.100097e+04	6.648292e+03	3.757402e+03	0	2.234244e-03
3.200000e+08	2.897600e+14	0.000000e+00	6.043958e-01	3.453138e+15	4.536179e+15	1.939810e+14	2.075985e+04	6.610714e+03	3.736164e+03	0	2.195122e-03
3.300000e+08	2.752436e+14	0.000000e+00	6.043958e-01	3.286603e+15	4.328762e+15	1.929733e+14	2.053054e+04	6.574762e+03	3.715845e+03	0	2.157835e-03
3.400000e+08	2.618483e+14	0.000000e+00	6.043958e-01	3.132876e+15	4.137112e+15	1.919730e+14	2.031213e+04	6.540319e+03	3.696379e+03	0	2.122246e-03
3.500000e+08	2.494587e+14	0.000000e+00	6.043958e-01	2.990640e+15	3.959613e+15	1.909799e+14	2.010379e+04	6.507283e+03	3.677708e+03	0	2.088231e-03
3.600000e+08	2.379740e+14	0.000000e+00	6.043958e-01	2.858745e+15	3.794855e+15	1.899940e+14	1.990477e+04	6.475558e+03	3.659778e+03	0	2.055680e-03
3.700000e+08	2.273056e+14	0.000000e+00	6.043958e-01	2.736182e+15	3.641600e+15	1.890152e+14	1.971442e+04	6.445058e+03	3.642540e+03	0	2.024491e-03
3.800000e+08	2.173760e+14	0.000000e+00	6.043958e-01	2.622065e+15	3.498761e+15	1.880435e+14	1.953211e+04	6.415705e+03	3.625951e+03	0	1.994572e-03
3.900000e+08	2.081166e+14	0.000000e+00	6.043958e-01	2.515612e+15	3.365379e+15	1.870789e+14	1.935732e+04	6.387428e+03	3.609970e+03	0	1.965839e-03
4.000000e+08	1.994666e+14	0.000000e+00	6.043958e-01	2.416130e+15	3.240602e+15	1.861212e+14	1.918953e+04	6.360161e+03	3.594559e+03	0	1.938217e-03
4.100000e+08	1.913722e+14	0.000000e+00	6.043958e-01	2.323004e+15	3.123675e+15	1.851704e+14	1.902829e+04	6.333844e+03	3.579686e+03	0	1.911637e-03
4.200000e+08	1.837854e+14	0.000000e+00	6.043958e-01	2.235686e+15	3.013927e+15	1.842265e+14	1.887320e+04	6.308423e+03	3.565319e+03	0	1.886033e-03
4.300000e+08	1.766633e+14	0.000000e+00	6.043958e-01	2.153686e+15	2.910755e+15	1.832893e+14	1.872386e+04	6.283847e+03	3.551429e+03	0	1.861349e-03
4.400000e+08	1.699675e+14	0.000000e+00	6.043958e-01	2.076568e+15	2.813622e+15	1.823590e+14	1.857994e+04	6.260069e+03	3.537990e+03	0	1.837530e-03
4.500000e+08	1.636638e+14	0.000000e+00	6.043958e-01	2.003937e+15	2.722045e+15	1.814352e+14	1.844112e+04	6.237045e+03	3.524978e+03	0	1.814526e-03
4.600000e+08	1.577210e+14	0.000000e+00	6.043958e-01	1.935441e+15	2.635589e+15	1.805182e+14	1.830710e+04	6.214736e+03	3.512370e+03	0	1.792293e-03
4.700000e+08	1.521113e+14	0.000000e+00	6.043958e-01	1.870760e+15	2.553860e+15	1.796077e+14	1.817761e+04	6.193105e+03	3.500145e+03	0	1.770786e-03
4.800000e+08	1.468094e+14	0.000000e+00	6.043958e-01	1.809605e+15	2.476506e+15	1.787037e+14	1.805240e+04	6.172118e+03	3.488283e+03	0	1.749969e-03
4.900000e+08	1.417925e+14	0.000000e+00	6.043958e-01	1.751717e+15	2.403203e+15	1.778062e+14	1.793124e+04	6.151741e+03	3.476767e+03	0	1.729804e-03
5.000000e+08	1.370398e+14	0.000000e+00	6.043958e-01	1.696857e+15	2.333660e+15	1.769151e+14	1.781392e+04	6.131946e+03	3.465580e+03	0	1.710257e-03
5.100000e+08	1.325326e+14	0.000000e+00	6.043958e-01	1.644810e+15	2.267612e+15	1.760304e+14	1.770024e+04	6.112705e+03	3.454705e+03	0	1.691297e-03
5.200000e+08	1.282535e+14	0.000000e+00	6.043958e-01	1.595381e+15	2.204817e+15	1.751520e+14	1.759001e+04	6.093992e+03	3.444129e+03	0	1.672896e-03
5.300000e+08	1.241870e+14	0.000000e+00	6.043958e-01	1.548389e+15	2.145054e+15	1.742799e+14	1.748306e+04	6.075782e+03	3.433837e+03	0	1.655025e-03
5.400000e+08	1.203188e+14	0.000000e+00	6.043958e-01	1.503671e+15	2.088120e+15	1.734139e+14	1.737923e+04	6.058052e+03	3.423817e+03	0	1.637659e-03
5.500000e+08	1.166355e+14	0.000000e+00	6.043958e-01	1.461076e+15	2.033830e+15	1.725542e+14	1.727838e+04	6.040782e+03	3.414056e+03	0	1.620775e-03
5.600000e+08	1.131254e+14	0.000000e+00	6.043958e-01	1.420468e+15	1.982015e+15	1.717005e+14	1.718035e+04	6.023951e+03	3.404544e+03	0	1.604350e-03
5.700000e+08	1.097773e+14	0.000000e+00	6.043958e-01	1.381720e+15	1.932518e+15	1.708529e+14	1.708503e+04	6.007540e+03	3.395269e+03	0	1.588363e-03
5.800000e+08	1.065809e+14	0.000000e+00	6.043958e-01	1.344714e+15	1.885196e+15	1.700114e+14	1.699228e+04	5.991532e+03	3.386222e+03	0	1.572795e-03
5.900000e+08	1.035271e+14	0.000000e+00	6.043958e-01	1.309345e+15	1.839915e+15	1.691758e+14	1.690199e+04	5.975910e+03	3.377393e+03	0	1.557628e-03
6.000000e+08	1.006070e+14	0.000000e+00	6.043958e-01	1.275512e+15	1.796555e+15	1.683461e+14	1.681406e+04	5.960658e+03	3.368773e+03	0	1.542843e-03
6.100000e+08	9.781279e+13	0.000000e+00	6.043958e-01	1.243125e+15	1.755000e+15	1.675222e+14	1.672839e+04	5.945761e+03	3.360354e+03	0	1.528426e-03
6.200000e+08	9.513699e+13	0.000000e+00	6.043958e-01	1.212099e+15	1.715148e+15	1.667042e+14	1.664487e+04	5.931206e+03	3.352128e+03	0	1.514359e-03
6.300000e+08	9.257278e+13	0.000000e+00	6.043958e-01	1.182356e+15	1.676900e+15	1.658920e+14	1.656341e+04	5.916979e+03	3.344087e+03	0	1.500630e-03
6.400000e+08	9.011381e+13	0.000000e+00	6.043958e-01	1.153823e+15	1.640166e+15	1.650855e+14	1.648395e+04	5.903067e+03	3.336225e+03	0	1.487223e-03
6.500000e+08	8.775418e+13	0.000000e+00	6.043958e-01	1.126432e+15	1.604864e+15	1.642847e+14	1.640638e+04	5.889460e+03	3.328534e+03	0	1.474127e-03
6.600000e+08	8.548841e+13	0.000000e+00	6.043958e-01	1.100120e+15	1.570914e+15	1.634895e+14	1.633064e+04	5.876144e+03	3.321009e+03	0	1.461330e-03
6.700000e+08	8.331141e+13	0.000000e+00	6.043958e-01	1.074829e+15	1.538246e+15	1.626999e+14	1.625666e+04	5.863110e+03	3.313642e+03	0	1.448818e-03
6.800000e+08	8.121841e+13	0.000000e+00	6.043958e-01	1.050506e+15	1.506790e+15	1.619158e+14	1.618436e+04	5.850348e+03	3.306429e+03	0	1.436582e-03
6.900000e+08	7.920499e+13	0.000000e+00	6.043958e-01	1.027098e+15	1.476485e+15	1.611373e+14	1.611369e+04	5.837848e+03	3.299365e+03	0	1.424612e-03
7.000000e+08	7.726702e+13	0.000000e+00	6.043958e-01	1.004558e+15	1.447271e+15	1.603642e+14	1.604459e+04	5.825600e+03	3.292443e+03	0	1.412897e-03
7.100000e+08	7.540061e+13	0.000000e+00	6.043958e-01	9.828427e+14	1.419092e+15	1.595965e+14	1.597699e+04	5.813597e+03	3.285659e+03	0	1.401428e-03
7.200000e+08	7.360217e+13	0.000000e+00	6.043958e-01	9.619099e+14	1.391899e+15	1.588342e+14	1.591084e+04	5.801829e+03	3.279008e+03	0	1.390196e-03
7.300000e+08	7.186829e+13	0.000000e+00	6.043958e-01	9.417208e+14	1.365641e+15	1.580772e+14	1.584608e+04	5.790289e+03	3.272486e+03	0	1.379192e-03
7.400000e+08	7.019580e+13	0.000000e+00	6.043958e-01	9.222391e+14	1.340275e+15	1.573255e+14	1.578268e+04	5.778969e+03	3.266088e+03	0	1.368410e-03
7.500000e+08	6.858173e+13	0.000000e+00	6.043958e-01	9.034305e+14	1.315756e+15	1.565791e+14	1.572059e+04	5.767862e+03	3.259811e+03	0	1.357840e-03
7.600000e+08	6.702328e+13	0.000000e+00	6.043958e-01	8.852631e+14	1.292047e+15	1.558378e+14	1.565974e+04	5.756962e+03	3.253650e+03	0	1.347476e-03
7.700000e+08	6.551783e+13	0.000000e+00	6.043958e-01	8.677066e+14	1.269108e+15	1.551017e+14	1.560012e+04	5.746261e+03	3.247603e+03	0	1.337310e-03
7.800000e+08	6.406290e+13	0.000000e+00	6.043958e-01	8.507328e+14	1.246905e+15	1.543707e+14	1.554167e+04	5.735753e+03	3.241664e+03	0	1.327337e-03
7.900000e+08	6.265616e+13	0.000000e+00	6.043958e-01	8.343148e+14	1.225405e+15	1.536448e+14	1.548436e+04	5.725433e+03	3.235831e+03	0	1.317550e-03
8.000000e+08	6.129543e+13	0.000000e+00	6.043958e-01	8.184276e+14	1.204575e+15	1.529239e+14	1.542814e+04	5.715294e+03	3.230101e+03	0	1.307942e-03
8.100000e+08	5.997865e+13	0.000000e+00	6.043958e-01	8.030475e+14	1.184387e+15	1.522081e+14	1.537299e+04	5.705332e+03	3.224471e+03	0	1.298508e-03
8.200000e+08	5.870386e+13	0.000000e+00	6.043958e-01	7.881521e+14	1.164812e+15	1.514971e+14	1.531887e+04	5.695540e+03	3.218937e+03	0	1.289243e-03
8.300000e+08	5.746922e+13	0.000000e+00	6.043958e-01	7.737202e+14	1.145825e+15	1.507911e+14	1.526575e+04	5.685914e+03	3.213496e+03	0	1.280140e-03
8.400000e+08	5.627300e+13	0.000000e+00	6.043958e-01	7.597320e+14	1.127399e+15	1.500900e+14	1.521359e+04	5.676448e+03	3.208147e+03	0	1.271196e-03
8.500000e+08	5.511356e+13	0.000000e+00	6.043958e-01	7.461685e+14	1.109513e+15	1.493937e+14	1.516237e+04	5.667140e+03	3.202886e+03	0	1.262405e-03
8.600000e+08	5.398935e+13	0.000000e+00	6.043958e-01	7.330119e+14	1.092142e+15	1.487022e+14	1.511206e+04	5.657982e+03	3.197711e+03	0	1.253762e-03
8.700000e+08	5.289888e+13	0.000000e+00	6.043958e-01	7.202453e+14	1.075267e+15	1.480155e+14	1.506263e+04	5.648973e+03	3.192619e+03	0	1.245263e-03
8.800000e+08	5.184078e+13	0.000000e+00	6.043958e-01	7.078527e+14	1.058867e+15	1.473334e+14	1.501406e+04	5.640107e+03	3.187608e+03	0	1.236905e-03
8.900000e+08	5.081372e+13	0.000000e+00	6.043958e-01	6.958189e+14	1.042924e+15	1.466561e+14	1.496632e+04	5.631380e+03	3.182676e+03	0	1.228682e-03
9.000000e+08	4.981644e+13	0.000000e+00	6.043958e-01	6.841295e+14	1.027418e+15	1.459834e+14	1.491938e+04	5.622789e+03	3.177820e+03	0	1.220590e-03
9.100000e+08	4.884776e+13	0.000000e+00	6.043958e-01	6.727708e+14	1.012333e+15	1.453154e+14	1.487323e+04	5.614330e+03	3.173040e+03	0	1.212627e-03
9.200000e+08	4.790656e+13	0.000000e+00	6.043958e-01	6.617300e+14	9.976537e+14	1.446519e+14	1.482785e+04	5.605999e+03	3.168331e+03	0	1.204788e-03
9.300000e+08	4.699176e+13	0.000000e+00	6.043958e-01	6.509946e+14	9.833633e+14	1.439929e+14	1.478320e+04	5.597794e+03	3.163694e+03	0	1.197070e-03
9.400000e+08	4.610233e+13	0.000000e+00	6.043958e-01	6.405528e+14	9.694475e+14	1.433385e+14	1.473927e+04	5.589710e+03	3.159125e+03	0	1.189470e-03
9.500000e+08	4.523732e+13	0.000000e+00	6.043958e-01	6.303937e+14	9.558923e+14	1.426885e+14	1.469605e+04	5.581745e+03	3.154623e+03	0	1.181983e-03
9.600000e+08	4.439580e+13	0.000000e+00	6.043958e-01	6.205065e+14	9.426844e+14	1.420430e+14	1.465350e+04	5.573895e+03	3.150187e+03	0	1.174608e-03
9.700000e+08	4.357688e+13	0.000000e+00	6.043958e-01	6.108812e+14	9.298112e+14	1.414018e+14	1.461162e+04	5.566158e+03	3.145815e+03	0	1.167341e-03
9.800000e+08	4.277975e+13	0.000000e+00	6.043958e-01	6.015080e+14	9.172604e+14	1.407650e+14	1.457039e+04	5.558531e+03	3.141504e+03	0	1.160179e-03
9.900000e+08	4.200359e+13	0.000000e+00	6.043958e-01	5.923779e+14	9.050207e+14	1.401325e+14	1.452979e+04	5.551011e+03	3.137254e+03	0	1.153120e-03
1.000000e+09	4.124764e+13	0.000000e+00	6.043958e-01	5.834821e+14	8.930808e+14	1.395044e+14	1.448980e+04	5.543596e+03	3.133063e+03	0	1.146161e-03
1.010000e+09	4.051119e+13	0.000000e+00	6.043958e-01	5.748121e+14	8.814305e+14	1.388805e+14	1.445040e+04	5.536283e+03	3.128930e+03	0	1.139298e-03
1.020000e+09	3.979354e+13	0.000000e+00	6.043958e-01	5.663602e+14	8.700595e+14	1.382608e+14	1.441159e+04	5.529069e+03	3.124853e+03	0	1.132531e-03
1.030000e+09	3.909402e+13	0.000000e+00	6.043958e-01	5.581185e+14	8.589584e+14	1.376453e+14	1.437335e+04	5.521952e+03	3.120830e+03	0	1.125855e-03
1.040000e+09	3.841201e+13	0.000000e+00	6.043958e-01	5.500799e+14	8.481180e+14	1.370340e+14	1.433566e+04	5.514930e+03	3.116862e+03	0	1.119270e-03
1.050000e+09	3.774690e+13	0.000000e+00	6.043958e-01	5.422373e+14	8.375294e+14	1.364268e+14	1.429851e+04	5.508000e+03	3.112945e+03	0	1.112772e-03
1.060000e+09	3.709812e+13	0.000000e+00	6.043958e-01	5.345842e+14	8.271843e+14	1.358237e+14	1.426189e+04	5.501161e+03	3.109080e+03	0	1.106360e-03
1.070000e+09	3.646511e+13	0.000000e+00	6.043958e-01	5.271141e+14	8.170748e+14	1.352246e+14	1.422578e+04	5.494411e+03	3.105265e+03	0	1.100031e-03
1.080000e+09	3.584734e+13	0.000000e+00	6.043958e-01	5.198210e+14	8.071929e+14	1.346296e+14	1.419018e+04	5.487747e+03	3.101499e+03	0	1.093784e-03
1.090000e+09	3.524431e+13	0.000000e+00	6.043958e-01	5.126990e+14	7.975315e+14	1.340386e+14	1.415506e+04	5.481167e+03	3.097780e+03	0	1.087616e-03
1.100000e+09	3.465553e+13	0.000000e+00	6.043958e-01	5.057426e+14	7.880835e+14	1.334516e+14	1.412043e+04	5.474669e+03	3.094108e+03	0	1.081525e-03
1.110000e+09	3.408054e+13	0.000000e+00	6.043958e-01	4.989463e+14	7.788420e+14	1.328684e+14	1.408626e+04	5.468253e+03	3.090482e+03	0	1.075510e-03
1.120000e+09	3.351889e+13	0.000000e+00	6.043958e-01	4.923050e+14	7.698007e+14	1.322892e+14	1.405255e+04	5.461915e+03	3.086900e+03	0	1.069569e-03
1.130000e+09	3.297015e+13	0.000000e+00	6.043958e-01	4.858138e+14	7.609532e+14	1.317139e+14	1.401928e+04	5.455655e+03	3.083361e+03	0	1.063701e-03
1.140000e+09	3.243393e+13	0.000000e+00	6.043958e-01	4.794680e+14	7.522935e+14	1.311424e+14	1.398646e+04	5.449470e+03	3.079866e+03	0	1.057902e-03
1.150000e+09	3.190981e+13	0.000000e+00	6.043958e-01	4.732630e+14	7.438161e+14	1.305748e+14	1.395405e+04	5.443359e+03	3.076412e+03	0	1.052173e-03
1.160000e+09	3.139743e+13	0.000000e+00	6.043958e-01	4.671945e+14	7.355152e+14	1.300109e+14	1.392207e+04	5.437321e+03	3.073000e+03	0	1.046511e-03
1.170000e+09	3.089642e+13	0.000000e+00	6.043958e-01	4.612583e+14	7.273857e+14	1.294508e+14	1.389050e+04	5.431353e+03	3.069627e+03	0	1.040915e-03
1.180000e+09	3.040643e+13	0.000000e+00	6.043958e-01	4.554504e+14	7.194223e+14	1.288944e+14	1.385932e+04	5.425454e+03	3.066293e+03	0	1.035383e-03
1.190000e+09	2.992713e+13	0.000000e+00	6.043958e-01	4.497668e+14	7.116203e+14	1.283417e+14	1.382854e+04	5.419624e+03	3.062998e+03	0	1.029914e-03
1.200000e+09	2.945820e+13	0.000000e+00	6.043958e-01	4.442039e+14	7.039750e+14	1.277927e+14	1.379814e+04	5.413860e+03	3.059741e+03	0	1.024506e-03
1.210000e+09	2.899933e+13	0.000000e+00	6.043958e-01	4.387581e+14	6.964817e+14	1.272473e+14	1.376811e+04	5.408162e+03	3.056520e+03	0	1.019159e-03
1.220000e+09	2.855022e+13	0.000000e+00	6.043958e-01	4.334259e+14	6.891361e+14	1.267055e+14	1.373845e+04	5.402527e+03	3.053335e+03	0	1.013870e-03
1.230000e+09	2.811058e+13	0.000000e+00	6.043958e-01	4.282041e+14	6.819340e+14	1.261673e+14	1.370915e+04	5.396955e+03	3.050186e+03	0	1.008639e-03
1.240000e+09	2.768013e+13	0.000000e+00	6.043958e-01	4.230895e+14	6.748713e+14	1.256327e+14	1.368020e+04	5.391444e+03	3.047072e+03	0	1.003464e-03
1.250000e+09	2.725862e+13	0.000000e+00	6.043958e-01	4.180789e+14	6.679442e+14	1.251016e+14	1.365159e+04	5.385993e+03	3.043991e+03	0	9.983443e-04
1.260000e+09	2.684578e+13	0.000000e+00	6.043958e-01	4.131695e+14	6.611489e+14	1.245740e+14	1.362332e+04	5.380602e+03	3.040944e+03	0	9.932786e-04
1.270000e+09	2.644137e+13	0.000000e+00	6.043958e-01	4.083583e+14	6.544818e+14	1.240499e+14	1.359539e+04	5.375268e+03	3.037929e+03	0	9.882657e-04
1.280000e+09	2.604515e+13	0.000000e+00	6.043958e-01	4.036426e+14	6.479393e+14	1.235292e+14	1.356777e+04	5.369991e+03	3.034947e+03	0	9.833046e-04
1.290000e+09	2.565690e+13	0.000000e+00	6.043958e-01	3.990199e+14	6.415181e+14	1.230120e+14	1.354048e+04	5.364770e+03	3.031996e+03	0	9.783940e-04
1.300000e+09	2.527638e+13	0.000000e+00	6.043958e-01	3.944874e+14	6.352150e+14	1.224981e+14	1.351349e+04	5.359603e+03	3.029076e+03	0	9.735331e-04
1.310000e+09	2.490339e+13	0.000000e+00	6.043958e-01	3.900427e+14	6.290267e+14	1.219876e+14	1.348681e+04	5.354490e+03	3.026186e+03	0	9.687207e-04
1.320000e+09	2.453773e+13	0.000000e+00	6.043958e-01	3.856836e+14	6.229503e+14	1.214805e+14	1.346043e+04	5.349429e+03	3.023326e+03	0	9.639560e-04
1.330000e+09	2.417919e+13	0.000000e+00	6.043958e-01	3.814076e+14	6.169829e+14	1.209766e+14	1.343435e+04	5.344420e+03	3.020495e+03	0	9.592378e-04
1.340000e+09	2.382757e+13	0.000000e+00	6.043958e-01	3.772125e+14	6.111215e+14	1.204761e+14	1.340855e+04	5.339462e+03	3.017693e+03	0	9.545654e-04
1.350000e+09	2.348271e+13	0.000000e+00	6.043958e-01	3.730962e+14	6.053635e+14	1.199788e+14	1.338303e+04	5.334554e+03	3.014919e+03	0	9.499377e-04
1.360000e+09	2.314441e+13	0.000000e+00	6.043958e-01	3.690567e+14	5.997063e+14	1.194848e+14	1.335780e+04	5.329694e+03	3.012172e+03	0	9.453540e-04
