#t		Qconv[W]	Ri[Rp]		R*[Rp]		Qc[W]		Qm[W]		Qr[W]		Tcmb[K]		Tl[K]		Tup[K]		RiFlag		Bs[T]
0.000000e+00	2.576504e+11	0.000000e+00	7.386934e-01	1.515703e+13	7.754196e+13	7.217334e+13	3.685533e+03	2.785211e+03	2.002322e+03	0	1.853773e-04
1.000000e+07	2.547698e+11	0.000000e+00	7.386934e-01	1.510719e+13	7.774713e+13	7.177345e+13	3.684277e+03	2.786401e+03	2.003178e+03	0	1.846839e-04
2.000000e+07	2.519392e+11	0.000000e+00	7.386934e-01	1.505816e+13	7.793868e+13	7.137655e+13	3.683026e+03	2.787511e+03	2.003976e+03	0	1.839973e-04
3.000000e+07	2.491578e+11	0.000000e+00	7.386934e-01	1.500993e+13	7.811690e+13	7.098261e+13	3.681779e+03	2.788541e+03	2.004716e+03	0	1.833177e-04
4.000000e+07	2.464248e+11	0.000000e+00	7.386934e-01	1.496249e+13	7.828210e+13	7.059162e+13	3.680535e+03	2.789494e+03	2.005402e+03	0	1.826450e-04
5.000000e+07	2.437395e+11	0.000000e+00	7.386934e-01	1.491583e+13	7.843458e+13	7.020354e+13	3.679296e+03	2.790373e+03	2.006033e+03	0	1.819791e-04
6.000000e+07	2.411010e+11	0.000000e+00	7.386934e-01	1.486992e+13	7.857462e+13	6.981835e+13	3.678060e+03	2.791179e+03	2.006613e+03	0	1.813201e-04
7.000000e+07	2.385085e+11	0.000000e+00	7.386934e-01	1.482476e+13	7.870254e+13	6.943603e+13	3.676829e+03	2.791914e+03	2.007141e+03	0	1.806679e-04
8.000000e+07	2.359611e+11	0.000000e+00	7.386934e-01	1.478034e+13	7.881862e+13	6.905656e+13	3.675601e+03	2.792580e+03	2.007620e+03	0	1.800224e-04
9.000000e+07	2.334581e+11	0.000000e+00	7.386934e-01	1.473663e+13	7.892316e+13	6.867991e+13	3.674376e+03	2.793180e+03	2.008051e+03	0	1.793835e-04
1.000000e+08	2.309984e+11	0.000000e+00	7.386934e-01	1.469363e+13	7.901645e+13	6.830605e+13	3.673155e+03	2.793714e+03	2.008436e+03	0	1.787513e-04
1.100000e+08	2.285814e+11	0.000000e+00	7.386934e-01	1.465132e+13	7.909880e+13	6.793497e+13	3.671938e+03	2.794186e+03	2.008774e+03	0	1.781257e-04
1.200000e+08	2.262059e+11	0.000000e+00	7.386934e-01	1.460969e+13	7.917047e+13	6.756664e+13	3.670725e+03	2.794596e+03	2.009069e+03	0	1.775065e-04
1.300000e+08	2.238713e+11	0.000000e+00	7.386934e-01	1.456872e+13	7.923175e+13	6.720103e+13	3.669514e+03	2.794946e+03	2.009321e+03	0	1.768937e-04
1.400000e+08	2.215765e+11	0.000000e+00	7.386934e-01	1.452840e+13	7.928293e+13	6.683813e+13	3.668308e+03	2.795239e+03	2.009531e+03	0	1.762872e-04
1.500000e+08	2.193208e+11	0.000000e+00	7.386934e-01	1.448871e+13	7.932428e+13	6.647792e+13	3.667104e+03	2.795475e+03	2.009701e+03	0	1.756870e-04
1.600000e+08	2.171032e+11	0.000000e+00	7.386934e-01	1.444964e+13	7.935609e+13	6.612036e+13	3.665904e+03	2.795656e+03	2.009832e+03	0	1.750928e-04
1.700000e+08	2.149229e+11	0.000000e+00	7.386934e-01	1.441118e+13	7.937862e+13	6.576545e+13	3.664707e+03	2.795785e+03	2.009924e+03	0	1.745047e-04
1.800000e+08	2.127789e+11	0.000000e+00	7.386934e-01	1.437331e+13	7.939212e+13	6.541315e+13	3.663513e+03	2.795862e+03	2.009980e+03	0	1.739225e-04
1.900000e+08	2.106705e+11	0.000000e+00	7.386934e-01	1.433602e+13	7.939688e+13	6.506344e+13	3.662322e+03	2.795889e+03	2.009999e+03	0	1.733462e-04
2.000000e+08	2.085968e+11	0.000000e+00	7.386934e-01	1.429929e+13	7.939314e+13	6.471631e+13	3.661135e+03	2.795868e+03	2.009984e+03	0	1.727755e-04
2.100000e+08	2.065569e+11	0.000000e+00	7.386934e-01	1.426311e+13	7.938116e+13	6.437173e+13	3.659950e+03	2.795799e+03	2.009935e+03	0	1.722105e-04
2.200000e+08	2.045500e+11	0.000000e+00	7.386934e-01	1.422747e+13	7.936119e+13	6.402968e+13	3.658769e+03	2.795685e+03	2.009853e+03	0	1.716509e-04
2.300000e+08	2.025753e+11	0.000000e+00	7.386934e-01	1.419235e+13	7.933347e+13	6.369014e+13	3.657590e+03	2.795527e+03	2.009739e+03	0	1.710968e-04
2.400000e+08	2.006319e+11	0.000000e+00	7.386934e-01	1.415775e+13	7.929825e+13	6.335309e+13	3.656414e+03	2.795326e+03	2.009594e+03	0	1.705479e-04
2.500000e+08	1.987191e+11	0.000000e+00	7.386934e-01	1.412363e+13	7.925576e+13	6.301851e+13	3.655242e+03	2.795083e+03	2.009420e+03	0	1.700041e-04
2.600000e+08	1.968360e+11	0.000000e+00	7.386934e-01	1.409001e+13	7.920622e+13	6.268638e+13	3.654072e+03	2.794800e+03	2.009216e+03	0	1.694654e-04
2.700000e+08	1.949819e+11	0.000000e+00	7.386934e-01	1.405686e+13	7.914987e+13	6.235668e+13	3.652904e+03	2.794478e+03	2.008985e+03	0	1.689317e-04
2.800000e+08	5.833691e+12	9.207342e-02	7.386934e-01	1.402416e+13	7.908693e+13	6.202938e+13	3.651740e+03	2.794118e+03	2.008726e+03	0	5.019992e-04
3.800000e+08	6.588150e+12	1.201977e-01	7.386934e-01	1.401113e+13	7.901761e+13	5.888460e+13	3.651205e+03	2.793721e+03	2.008440e+03	1	5.154857e-04
4.800000e+08	6.330857e+12	1.369891e-01	7.386934e-01	1.394668e+13	7.752093e+13	5.595990e+13	3.646729e+03	2.785089e+03	2.002235e+03	1	5.043898e-04
5.800000e+08	6.136410e+12	1.511888e-01	7.386934e-01	1.388691e+13	7.577803e+13	5.323795e+13	3.642015e+03	2.774879e+03	1.994894e+03	1	4.955794e-04
6.800000e+08	6.379816e+12	1.641990e-01	7.386934e-01	1.382893e+13	7.388469e+13	5.070289e+13	3.637127e+03	2.763586e+03	1.986776e+03	1	4.987179e-04
7.800000e+08	6.503352e+12	1.755819e-01	7.386934e-01	1.378376e+13	7.191099e+13	4.834018e+13	3.632553e+03	2.751582e+03	1.978146e+03	1	4.989909e-04
8.800000e+08	6.562845e+12	1.856747e-01	7.386934e-01	1.374426e+13	6.990968e+13	4.613651e+13	3.628148e+03	2.739155e+03	1.969212e+03	1	4.979124e-04
9.800000e+08	6.565621e+12	1.947162e-01	7.386934e-01	1.370628e+13	6.791715e+13	4.407964e+13	3.623835e+03	2.726516e+03	1.960126e+03	1	4.956628e-04
1.080000e+09	6.543549e+12	2.029184e-01	7.386934e-01	1.366670e+13	6.595812e+13	4.215838e+13	3.619548e+03	2.713816e+03	1.950996e+03	1	4.930101e-04
1.180000e+09	6.778878e+12	2.105599e-01	7.386934e-01	1.362404e+13	6.404883e+13	4.036244e+13	3.615261e+03	2.701163e+03	1.941899e+03	1	4.968793e-04
1.280000e+09	6.689686e+12	2.173295e-01	7.386934e-01	1.358645e+13	6.219959e+13	3.868237e+13	3.611270e+03	2.688636e+03	1.932893e+03	1	4.929560e-04
1.380000e+09	6.677917e+12	2.241661e-01	7.386934e-01	1.354279e+13	6.041802e+13	3.710950e+13	3.607200e+03	2.676300e+03	1.924025e+03	1	4.909205e-04
1.480000e+09	6.824649e+12	2.305102e-01	7.386934e-01	1.349577e+13	5.870667e+13	3.563585e+13	3.603145e+03	2.664191e+03	1.915319e+03	1	4.928622e-04
1.580000e+09	6.711934e+12	2.362636e-01	7.386934e-01	1.345072e+13	5.706661e+13	3.425411e+13	3.599292e+03	2.652334e+03	1.906796e+03	1	4.886692e-04
1.680000e+09	6.669906e+12	2.420379e-01	7.386934e-01	1.339920e+13	5.549830e+13	3.295754e+13	3.595338e+03	2.640755e+03	1.898471e+03	1	4.861840e-04
1.780000e+09	6.763219e+12	2.475527e-01	7.386934e-01	1.334390e+13	5.399973e+13	3.173993e+13	3.591371e+03	2.629458e+03	1.890350e+03	1	4.870404e-04
1.880000e+09	6.715525e+12	2.528458e-01	7.386934e-01	1.328951e+13	5.256874e+13	3.059559e+13	3.587553e+03	2.618448e+03	1.882434e+03	1	4.845552e-04
1.980000e+09	6.776819e+12	2.579192e-01	7.386934e-01	1.323160e+13	5.120346e+13	2.951925e+13	3.583717e+03	2.607731e+03	1.874730e+03	1	4.847423e-04
2.080000e+09	6.717644e+12	2.627957e-01	7.386934e-01	1.317400e+13	4.990099e+13	2.850607e+13	3.579997e+03	2.597305e+03	1.867235e+03	1	4.821008e-04
2.180000e+09	6.761367e+12	2.674833e-01	7.386934e-01	1.311303e+13	4.865882e+13	2.755160e+13	3.576248e+03	2.587169e+03	1.859947e+03	1	4.819659e-04
2.280000e+09	6.693916e+12	2.719986e-01	7.386934e-01	1.305227e+13	4.747384e+13	2.665171e+13	3.572597e+03	2.577316e+03	1.852864e+03	1	4.792290e-04
2.380000e+09	6.784246e+12	2.763709e-01	7.386934e-01	1.298836e+13	4.634343e+13	2.580261e+13	3.568912e+03	2.567742e+03	1.845981e+03	1	4.802796e-04
2.480000e+09	6.811258e+12	2.805645e-01	7.386934e-01	1.292659e+13	4.526451e+13	2.500080e+13	3.565383e+03	2.558438e+03	1.839293e+03	1	4.798666e-04
2.580000e+09	6.725631e+12	2.844756e-01	7.386934e-01	1.286503e+13	4.423483e+13	2.424304e+13	3.561935e+03	2.549401e+03	1.832796e+03	1	4.768746e-04
2.680000e+09	6.739228e+12	2.884238e-01	7.386934e-01	1.280028e+13	4.325188e+13	2.352634e+13	3.558430e+03	2.540625e+03	1.826487e+03	1	4.762154e-04
2.780000e+09	6.663384e+12	2.922808e-01	7.386934e-01	1.273573e+13	4.231277e+13	2.284793e+13	3.554993e+03	2.532099e+03	1.820357e+03	1	4.734701e-04
2.880000e+09	6.721998e+12	2.960321e-01	7.386934e-01	1.266870e+13	4.141521e+13	2.220526e+13	3.551514e+03	2.523814e+03	1.814401e+03	1	4.739277e-04
2.980000e+09	6.720360e+12	2.996326e-01	7.386934e-01	1.260360e+13	4.055671e+13	2.159596e+13	3.548160e+03	2.515763e+03	1.808613e+03	1	4.730018e-04
3.080000e+09	6.640521e+12	3.031889e-01	7.386934e-01	1.253861e+13	3.973541e+13	2.101783e+13	3.544856e+03	2.507938e+03	1.802987e+03	1	4.702500e-04
3.180000e+09	6.630851e+12	3.066379e-01	7.386934e-01	1.247140e+13	3.894932e+13	2.046886e+13	3.541505e+03	2.500333e+03	1.797520e+03	1	4.691789e-04
3.280000e+09	6.672728e+12	3.100183e-01	7.386934e-01	1.240433e+13	3.819625e+13	1.994715e+13	3.538197e+03	2.492938e+03	1.792204e+03	1	4.693384e-04
3.380000e+09	6.587953e+12	3.131689e-01	7.386934e-01	1.233908e+13	3.747445e+13	1.945097e+13	3.534994e+03	2.485745e+03	1.787033e+03	1	4.665773e-04
3.480000e+09	6.622978e+12	3.163829e-01	7.386934e-01	1.227178e+13	3.678245e+13	1.897870e+13	3.531740e+03	2.478750e+03	1.782004e+03	1	4.666223e-04
3.580000e+09	6.607219e+12	3.194784e-01	7.386934e-01	1.220625e+13	3.611837e+13	1.852882e+13	3.528584e+03	2.471943e+03	1.777110e+03	1	4.655025e-04
3.680000e+09	6.524821e+12	3.225402e-01	7.386934e-01	1.214095e+13	3.548093e+13	1.809996e+13	3.525462e+03	2.465319e+03	1.772348e+03	1	4.628224e-04
3.780000e+09	6.551398e+12	3.255331e-01	7.386934e-01	1.207391e+13	3.486870e+13	1.769080e+13	3.522291e+03	2.458871e+03	1.767712e+03	1	4.627301e-04
3.880000e+09	6.525474e+12	3.284130e-01	7.386934e-01	1.200857e+13	3.428012e+13	1.730016e+13	3.519208e+03	2.452590e+03	1.763197e+03	1	4.614286e-04
3.980000e+09	6.548138e+12	3.312959e-01	7.386934e-01	1.194335e+13	3.371411e+13	1.692689e+13	3.516147e+03	2.446473e+03	1.758799e+03	1	4.612714e-04
4.080000e+09	6.469270e+12	3.340055e-01	7.386934e-01	1.187975e+13	3.316948e+13	1.656997e+13	3.513170e+03	2.440513e+03	1.754514e+03	1	4.587667e-04
4.180000e+09	6.438582e+12	3.367503e-01	7.386934e-01	1.181472e+13	3.264525e+13	1.622841e+13	3.510145e+03	2.434705e+03	1.750339e+03	1	4.573885e-04
4.280000e+09	6.455114e+12	3.394480e-01	7.386934e-01	1.174981e+13	3.214017e+13	1.590132e+13	3.507136e+03	2.429042e+03	1.746268e+03	1	4.571399e-04
4.380000e+09	6.378798e+12	3.420845e-01	7.386934e-01	1.168645e+13	3.165325e+13	1.558785e+13	3.504203e+03	2.423518e+03	1.742297e+03	1	4.547095e-04
4.480000e+09	6.391878e+12	3.446697e-01	7.386934e-01	1.162188e+13	3.118368e+13	1.528721e+13	3.501225e+03	2.418129e+03	1.738422e+03	1	4.544112e-04
4.580000e+09	6.356373e+12	3.472076e-01	7.386934e-01	1.155883e+13	3.073043e+13	1.499866e+13	3.498319e+03	2.412868e+03	1.734641e+03	1	4.529726e-04
4.680000e+09	6.366943e+12	3.497040e-01	7.386934e-01	1.149584e+13	3.029280e+13	1.472153e+13	3.495421e+03	2.407733e+03	1.730949e+03	1	4.526382e-04
4.780000e+09	6.294246e+12	3.521468e-01	7.386934e-01	1.143432e+13	2.986997e+13	1.445517e+13	3.492591e+03	2.402717e+03	1.727343e+03	1	4.503393e-04
4.880000e+09	6.302142e+12	3.545454e-01	7.386934e-01	1.137176e+13	2.946134e+13	1.419897e+13	3.489719e+03	2.397818e+03	1.723821e+03	1	4.499690e-04
4.980000e+09	6.265246e+12	3.569020e-01	7.386934e-01	1.131063e+13	2.906605e+13	1.395240e+13	3.486911e+03	2.393029e+03	1.720378e+03	1	4.485423e-04
5.080000e+09	6.271200e+12	3.592223e-01	7.386934e-01	1.124957e+13	2.868356e+13	1.371491e+13	3.484108e+03	2.388348e+03	1.717013e+03	1	4.481467e-04
5.180000e+09	6.276524e+12	3.615131e-01	7.386934e-01	1.118987e+13	2.831322e+13	1.348601e+13	3.481365e+03	2.383770e+03	1.713722e+03	1	4.477433e-04
5.280000e+09	6.202751e+12	3.636821e-01	7.386934e-01	1.113149e+13	2.795454e+13	1.326526e+13	3.478681e+03	2.379292e+03	1.710503e+03	1	4.454830e-04
5.380000e+09	6.206024e+12	3.658880e-01	7.386934e-01	1.107210e+13	2.760704e+13	1.305221e+13	3.475951e+03	2.374912e+03	1.707354e+03	1	4.450543e-04
5.480000e+09	6.167781e+12	3.680187e-01	7.386934e-01	1.101399e+13	2.727006e+13	1.284648e+13	3.473277e+03	2.370625e+03	1.704271e+03	1	4.436502e-04
5.580000e+09	6.169619e+12	3.701567e-01	7.386934e-01	1.095593e+13	2.694319e+13	1.264766e+13	3.470603e+03	2.366426e+03	1.701253e+03	1	4.432053e-04
5.680000e+09	6.100935e+12	3.722526e-01	7.386934e-01	1.089910e+13	2.662592e+13	1.245543e+13	3.467982e+03	2.362314e+03	1.698297e+03	1	4.410777e-04
5.780000e+09	6.101149e+12	3.743154e-01	7.386934e-01	1.084144e+13	2.631788e+13	1.226943e+13	3.465320e+03	2.358286e+03	1.695401e+03	1	4.406142e-04
5.880000e+09	6.100983e+12	3.763537e-01	7.386934e-01	1.078497e+13	2.601854e+13	1.208936e+13	3.462709e+03	2.354337e+03	1.692561e+03	1	4.401479e-04
5.980000e+09	6.061034e+12	3.783233e-01	7.386934e-01	1.072967e+13	2.572757e+13	1.191492e+13	3.460148e+03	2.350464e+03	1.689778e+03	1	4.387399e-04
6.080000e+09	6.059774e+12	3.803015e-01	7.386934e-01	1.067436e+13	2.544467e+13	1.174584e+13	3.457583e+03	2.346667e+03	1.687048e+03	1	4.382631e-04
6.180000e+09	5.993706e+12	3.822424e-01	7.386934e-01	1.062017e+13	2.516944e+13	1.158185e+13	3.455065e+03	2.342942e+03	1.684370e+03	1	4.362287e-04
6.280000e+09	5.991187e+12	3.841547e-01	7.386934e-01	1.056521e+13	2.490159e+13	1.142272e+13	3.452505e+03	2.339286e+03	1.681742e+03	1	4.357388e-04
6.380000e+09	5.988408e+12	3.860454e-01	7.386934e-01	1.051134e+13	2.464071e+13	1.126822e+13	3.449992e+03	2.335697e+03	1.679161e+03	1	4.352482e-04
6.480000e+09	5.947337e+12	3.878730e-01	7.386934e-01	1.045853e+13	2.438656e+13	1.111811e+13	3.447523e+03	2.332172e+03	1.676627e+03	1	4.338433e-04
6.580000e+09	5.943712e+12	3.897101e-01	7.386934e-01	1.040567e+13	2.413889e+13	1.097221e+13	3.445046e+03	2.328710e+03	1.674138e+03	1	4.333460e-04
6.680000e+09	5.939878e+12	3.915270e-01	7.386934e-01	1.035382e+13	2.389740e+13	1.083032e+13	3.442611e+03	2.325308e+03	1.671692e+03	1	4.328489e-04
6.780000e+09	5.878131e+12	3.932618e-01	7.386934e-01	1.030296e+13	2.366186e+13	1.069226e+13	3.440218e+03	2.321964e+03	1.669289e+03	1	4.309599e-04
6.880000e+09	5.873368e+12	3.950225e-01	7.386934e-01	1.025142e+13	2.343210e+13	1.055785e+13	3.437786e+03	2.318678e+03	1.666926e+03	1	4.304545e-04
6.980000e+09	5.868441e+12	3.967642e-01	7.386934e-01	1.020085e+13	2.320776e+13	1.042694e+13	3.435395e+03	2.315445e+03	1.664602e+03	1	4.299499e-04
7.080000e+09	5.826998e+12	3.984485e-01	7.386934e-01	1.015122e+13	2.298868e+13	1.029937e+13	3.433043e+03	2.312265e+03	1.662316e+03	1	4.285652e-04
7.180000e+09	5.821435e+12	4.001431e-01	7.386934e-01	1.010148e+13	2.277469e+13	1.017500e+13	3.430678e+03	2.309137e+03	1.660067e+03	1	4.280569e-04
7.280000e+09	5.815744e+12	4.018201e-01	7.386934e-01	1.005264e+13	2.256554e+13	1.005369e+13	3.428351e+03	2.306057e+03	1.657853e+03	1	4.275500e-04
7.380000e+09	5.757088e+12	4.034241e-01	7.386934e-01	1.000469e+13	2.236108e+13	9.935313e+12	3.426062e+03	2.303025e+03	1.655673e+03	1	4.257580e-04
7.480000e+09	5.750682e+12	4.050519e-01	7.386934e-01	9.956101e+12	2.216117e+13	9.819749e+12	3.423734e+03	2.300040e+03	1.653527e+03	1	4.252456e-04
7.580000e+09	5.744181e+12	4.066631e-01	7.386934e-01	9.908379e+12	2.196553e+13	9.706880e+12	3.421442e+03	2.297099e+03	1.651412e+03	1	4.247350e-04
7.680000e+09	5.704322e+12	4.082233e-01	7.386934e-01	9.861497e+12	2.177406e+13	9.596599e+12	3.419185e+03	2.294200e+03	1.649329e+03	1	4.234124e-04
7.780000e+09	5.697352e+12	4.097932e-01	7.386934e-01	9.814499e+12	2.158661e+13	9.488801e+12	3.416916e+03	2.291344e+03	1.647275e+03	1	4.229004e-04
7.880000e+09	5.690312e+12	4.113475e-01	7.386934e-01	9.768313e+12	2.140302e+13	9.383389e+12	3.414680e+03	2.288528e+03	1.645251e+03	1	4.223905e-04
7.980000e+09	5.634641e+12	4.128367e-01	7.386934e-01	9.722918e+12	2.122315e+13	9.280269e+12	3.412477e+03	2.285751e+03	1.643254e+03	1	4.206884e-04
8.080000e+09	5.627042e+12	4.143477e-01	7.386934e-01	9.676939e+12	2.104692e+13	9.179355e+12	3.410237e+03	2.283013e+03	1.641286e+03	1	4.201748e-04
8.180000e+09	5.619395e+12	4.158440e-01	7.386934e-01	9.631733e+12	2.087410e+13	9.080562e+12	3.408030e+03	2.280310e+03	1.639343e+03	1	4.196638e-04
8.280000e+09	5.581332e+12	4.173197e-01	7.386934e-01	9.587282e+12	2.070462e+13	8.983811e+12	3.405854e+03	2.277643e+03	1.637425e+03	1	4.183990e-04
8.380000e+09	5.573340e+12	4.187794e-01	7.386934e-01	9.542721e+12	2.053837e+13	8.889027e+12	3.403666e+03	2.275011e+03	1.635533e+03	1	4.178880e-04
8.480000e+09	5.565317e+12	4.202252e-01	7.386934e-01	9.498891e+12	2.037522e+13	8.796138e+12	3.401508e+03	2.272411e+03	1.633664e+03	1	4.173796e-04
8.580000e+09	5.557268e+12	4.216573e-01	7.386934e-01	9.455774e+12	2.021509e+13	8.705077e+12	3.399379e+03	2.269844e+03	1.631819e+03	1	4.168739e-04
8.680000e+09	5.504946e+12	4.230318e-01	7.386934e-01	9.413350e+12	2.005789e+13	8.615779e+12	3.397280e+03	2.267309e+03	1.629996e+03	1	4.152706e-04
8.780000e+09	5.496465e+12	4.244263e-01	7.386934e-01	9.370383e+12	1.990355e+13	8.528182e+12	3.395146e+03	2.264805e+03	1.628196e+03	1	4.147626e-04
8.880000e+09	5.487974e+12	4.258079e-01	7.386934e-01	9.328096e+12	1.975191e+13	8.442229e+12	3.393040e+03	2.262330e+03	1.626417e+03	1	4.142574e-04
8.980000e+09	5.450561e+12	4.271710e-01	7.386934e-01	9.286474e+12	1.960290e+13	8.357863e+12	3.390962e+03	2.259884e+03	1.624658e+03	1	4.130273e-04
9.080000e+09	5.441810e+12	4.285204e-01	7.386934e-01	9.244705e+12	1.945646e+13	8.275032e+12	3.388869e+03	2.257466e+03	1.622920e+03	1	4.125229e-04
9.180000e+09	5.433058e+12	4.298574e-01	7.386934e-01	9.203581e+12	1.931247e+13	8.193685e+12	3.386804e+03	2.255075e+03	1.621201e+03	1	4.120214e-04
9.280000e+09	5.424310e+12	4.311825e-01	7.386934e-01	9.163088e+12	1.917088e+13	8.113775e+12	3.384765e+03	2.252711e+03	1.619501e+03	1	4.115229e-04
9.380000e+09	5.375313e+12	4.324877e-01	7.386934e-01	9.123211e+12	1.903163e+13	8.035255e+12	3.382752e+03	2.250372e+03	1.617820e+03	1	4.100080e-04
9.480000e+09	5.366227e+12	4.337797e-01	7.386934e-01	9.082832e+12	1.889467e+13	7.958081e+12	3.380706e+03	2.248059e+03	1.616157e+03	1	4.095081e-04
9.580000e+09	5.357151e+12	4.350602e-01	7.386934e-01	9.043058e+12	1.875987e+13	7.882213e+12	3.378685e+03	2.245770e+03	1.614511e+03	1	4.090110e-04
9.680000e+09	5.348093e+12	4.363295e-01	7.386934e-01	9.003875e+12	1.862718e+13	7.807609e+12	3.376689e+03	2.243504e+03	1.612883e+03	1	4.085171e-04
9.780000e+09	5.311698e+12	4.375824e-01	7.386934e-01	8.965269e+12	1.849657e+13	7.734233e+12	3.374718e+03	2.241261e+03	1.611270e+03	1	4.073293e-04
9.880000e+09	5.302444e+12	4.388234e-01	7.386934e-01	8.926481e+12	1.836798e+13	7.662048e+12	3.372730e+03	2.239042e+03	1.609675e+03	1	4.068364e-04
9.980000e+09	5.293215e+12	4.400537e-01	7.386934e-01	8.888255e+12	1.824132e+13	7.591019e+12	3.370766e+03	2.236844e+03	1.608094e+03	1	4.063467e-04
