#t		Qconv[W]	Ri[Rp]		R*[Rp]		Qc[W]		Qm[W]		Qr[W]		Tcmb[K]		Tl[K]		Tup[K]		RiFlag		Bs[T]
0.000000e+00	2.821030e+11	0.000000e+00	7.286433e-01	3.444813e+13	9.962771e+13	1.098146e+14	4.496698e+03	3.213136e+03	2.096995e+03	0	1.884038e-04
1.000000e+07	2.730266e+11	0.000000e+00	7.286433e-01	3.431870e+13	1.003655e+14	1.092061e+14	4.494915e+03	3.216926e+03	2.099469e+03	0	1.863612e-04
2.000000e+07	2.640288e+11	0.000000e+00	7.286433e-01	3.419033e+13	1.010827e+14	1.086022e+14	4.493137e+03	3.220590e+03	2.101860e+03	0	1.842911e-04
3.000000e+07	2.551121e+11	0.000000e+00	7.286433e-01	3.406305e+13	1.017792e+14	1.080028e+14	4.491367e+03	3.224130e+03	2.104170e+03	0	1.821926e-04
4.000000e+07	2.462784e+11	0.000000e+00	7.286433e-01	3.393690e+13	1.024552e+14	1.074079e+14	4.489603e+03	3.227549e+03	2.106401e+03	0	1.800650e-04
5.000000e+07	2.375296e+11	0.000000e+00	7.286433e-01	3.381188e+13	1.031108e+14	1.068174e+14	4.487846e+03	3.230848e+03	2.108554e+03	0	1.779070e-04
6.000000e+07	2.288674e+11	0.000000e+00	7.286433e-01	3.368802e+13	1.037461e+14	1.062314e+14	4.486095e+03	3.234030e+03	2.110631e+03	0	1.757176e-04
7.000000e+07	2.202933e+11	0.000000e+00	7.286433e-01	3.356535e+13	1.043612e+14	1.056497e+14	4.484350e+03	3.237097e+03	2.112633e+03	0	1.734953e-04
8.000000e+07	2.118084e+11	0.000000e+00	7.286433e-01	3.344387e+13	1.049562e+14	1.050723e+14	4.482612e+03	3.240051e+03	2.114561e+03	0	1.712386e-04
9.000000e+07	2.034140e+11	0.000000e+00	7.286433e-01	3.332360e+13	1.055314e+14	1.044992e+14	4.480880e+03	3.242895e+03	2.116417e+03	0	1.689458e-04
1.000000e+08	1.951108e+11	0.000000e+00	7.286433e-01	3.320455e+13	1.060870e+14	1.039303e+14	4.479155e+03	3.245630e+03	2.118202e+03	0	1.666151e-04
1.100000e+08	1.868997e+11	0.000000e+00	7.286433e-01	3.308674e+13	1.066230e+14	1.033657e+14	4.477435e+03	3.248259e+03	2.119918e+03	0	1.642442e-04
1.200000e+08	1.787812e+11	0.000000e+00	7.286433e-01	3.297016e+13	1.071396e+14	1.028053e+14	4.475722e+03	3.250785e+03	2.121566e+03	0	1.618308e-04
1.300000e+08	1.707557e+11	0.000000e+00	7.286433e-01	3.285483e+13	1.076373e+14	1.022490e+14	4.474015e+03	3.253208e+03	2.123147e+03	0	1.593721e-04
1.400000e+08	1.628236e+11	0.000000e+00	7.286433e-01	3.274074e+13	1.081160e+14	1.016969e+14	4.472313e+03	3.255531e+03	2.124664e+03	0	1.568651e-04
1.500000e+08	1.549849e+11	0.000000e+00	7.286433e-01	3.262790e+13	1.085760e+14	1.011488e+14	4.470618e+03	3.257757e+03	2.126116e+03	0	1.543063e-04
1.600000e+08	1.472399e+11	0.000000e+00	7.286433e-01	3.251630e+13	1.090177e+14	1.006047e+14	4.468928e+03	3.259887e+03	2.127506e+03	0	1.516919e-04
1.700000e+08	1.395883e+11	0.000000e+00	7.286433e-01	3.240596e+13	1.094412e+14	1.000647e+14	4.467244e+03	3.261924e+03	2.128835e+03	0	1.490173e-04
1.800000e+08	1.320299e+11	0.000000e+00	7.286433e-01	3.229686e+13	1.098468e+14	9.952868e+13	4.465566e+03	3.263868e+03	2.130105e+03	0	1.462777e-04
1.900000e+08	1.245646e+11	0.000000e+00	7.286433e-01	3.218899e+13	1.102348e+14	9.899659e+13	4.463894e+03	3.265723e+03	2.131315e+03	0	1.434670e-04
2.000000e+08	1.171920e+11	0.000000e+00	7.286433e-01	3.208236e+13	1.106053e+14	9.846841e+13	4.462227e+03	3.267491e+03	2.132469e+03	0	1.405788e-04
2.100000e+08	1.099115e+11	0.000000e+00	7.286433e-01	3.197697e+13	1.109587e+14	9.794412e+13	4.460565e+03	3.269173e+03	2.133566e+03	0	1.376052e-04
2.200000e+08	1.027226e+11	0.000000e+00	7.286433e-01	3.187279e+13	1.112953e+14	9.742368e+13	4.458909e+03	3.270770e+03	2.134609e+03	0	1.345372e-04
2.300000e+08	9.562473e+10	0.000000e+00	7.286433e-01	3.176982e+13	1.116153e+14	9.690706e+13	4.457259e+03	3.272286e+03	2.135598e+03	0	1.313643e-04
2.400000e+08	8.861714e+10	0.000000e+00	7.286433e-01	3.166805e+13	1.119191e+14	9.639422e+13	4.455614e+03	3.273722e+03	2.136535e+03	0	1.280736e-04
2.500000e+08	8.169909e+10	0.000000e+00	7.286433e-01	3.156748e+13	1.122068e+14	9.588515e+13	4.453974e+03	3.275079e+03	2.137421e+03	0	1.246502e-04
2.600000e+08	7.486977e+10	0.000000e+00	7.286433e-01	3.146809e+13	1.124788e+14	9.537980e+13	4.452339e+03	3.276360e+03	2.138257e+03	0	1.210754e-04
2.700000e+08	6.812830e+10	0.000000e+00	7.286433e-01	3.136987e+13	1.127354e+14	9.487814e+13	4.450709e+03	3.277566e+03	2.139044e+03	0	1.173266e-04
2.800000e+08	6.147375e+10	0.000000e+00	7.286433e-01	3.127281e+13	1.129768e+14	9.438015e+13	4.449085e+03	3.278699e+03	2.139784e+03	0	1.133749e-04
2.900000e+08	5.490516e+10	0.000000e+00	7.286433e-01	3.117689e+13	1.132034e+14	9.388579e+13	4.447465e+03	3.279761e+03	2.140477e+03	0	1.091838e-04
3.000000e+08	4.842153e+10	0.000000e+00	7.286433e-01	3.108210e+13	1.134155e+14	9.339503e+13	4.445851e+03	3.280753e+03	2.141124e+03	0	1.047048e-04
3.100000e+08	4.202180e+10	0.000000e+00	7.286433e-01	3.098843e+13	1.136132e+14	9.290785e+13	4.444241e+03	3.281677e+03	2.141727e+03	0	9.987238e-05
3.200000e+08	3.570491e+10	0.000000e+00	7.286433e-01	3.089586e+13	1.137970e+14	9.242422e+13	4.442637e+03	3.282534e+03	2.142287e+03	0	9.459390e-05
3.300000e+08	2.946974e+10	0.000000e+00	7.286433e-01	3.080438e+13	1.139671e+14	9.194410e+13	4.441037e+03	3.283327e+03	2.142804e+03	0	8.873180e-05
3.400000e+08	2.331516e+10	0.000000e+00	7.286433e-01	3.071397e+13	1.141239e+14	9.146747e+13	4.439441e+03	3.284057e+03	2.143280e+03	0	8.206664e-05
3.500000e+08	1.724003e+10	0.000000e+00	7.286433e-01	3.062462e+13	1.142675e+14	9.099430e+13	4.437851e+03	3.284725e+03	2.143716e+03	0	7.421070e-05
3.600000e+08	1.124317e+10	0.000000e+00	7.286433e-01	3.053632e+13	1.143983e+14	9.052455e+13	4.436265e+03	3.285333e+03	2.144113e+03	0	6.435517e-05
3.700000e+08	5.323390e+09	0.000000e+00	7.286433e-01	3.044904e+13	1.145165e+14	9.005821e+13	4.434683e+03	3.285882e+03	2.144472e+03	0	5.015912e-05
3.800000e+08	-5.205069e+08	0.000000e+00	7.286433e-01	3.036277e+13	1.146225e+14	8.959524e+13	4.433107e+03	3.286374e+03	2.144793e+03	0	nan
