#t		Qconv[W]	Ri[Rp]		R*[Rp]		Qc[W]		Qm[W]		Qr[W]		Tcmb[K]		Tl[K]		Tup[K]		RiFlag		Bs[T]
0.000000e+00	1.484504e+13	0.000000e+00	4.873950e-01	4.448807e+14	1.279094e+15	1.211710e+14	9.651647e+03	3.298838e+03	2.414145e+03	0	9.538715e-04
1.000000e+07	1.369736e+13	0.000000e+00	4.873950e-01	4.109474e+14	1.149290e+15	1.204997e+14	9.512082e+03	3.249217e+03	2.377831e+03	0	9.286278e-04
2.000000e+07	1.269646e+13	0.000000e+00	4.873950e-01	3.813484e+14	1.043519e+15	1.198333e+14	9.382927e+03	3.205970e+03	2.346183e+03	0	9.054344e-04
3.000000e+07	1.181656e+13	0.000000e+00	4.873950e-01	3.553225e+14	9.557764e+14	1.191719e+14	9.262877e+03	3.167821e+03	2.318264e+03	0	8.840151e-04
4.000000e+07	1.103754e+13	0.000000e+00	4.873950e-01	3.322763e+14	8.818818e+14	1.185155e+14	9.150854e+03	3.133822e+03	2.293384e+03	0	8.641453e-04
5.000000e+07	1.034350e+13	0.000000e+00	4.873950e-01	3.117402e+14	8.188411e+14	1.178640e+14	9.045956e+03	3.103257e+03	2.271015e+03	0	8.456393e-04
6.000000e+07	9.721674e+12	0.000000e+00	4.873950e-01	2.933375e+14	7.644566e+14	1.172173e+14	8.947420e+03	3.075569e+03	2.250753e+03	0	8.283421e-04
7.000000e+07	9.161724e+12	0.000000e+00	4.873950e-01	2.767628e+14	7.170808e+14	1.165754e+14	8.854597e+03	3.050323e+03	2.232277e+03	0	8.121230e-04
8.000000e+07	8.655166e+12	0.000000e+00	4.873950e-01	2.617657e+14	6.754558e+14	1.159383e+14	8.766928e+03	3.027169e+03	2.215333e+03	0	7.968707e-04
9.000000e+07	8.194980e+12	0.000000e+00	4.873950e-01	2.481389e+14	6.386050e+14	1.153059e+14	8.683930e+03	3.005824e+03	2.199712e+03	0	7.824898e-04
1.000000e+08	7.775313e+12	0.000000e+00	4.873950e-01	2.357097e+14	6.057594e+14	1.146783e+14	8.605183e+03	2.986057e+03	2.185247e+03	0	7.688979e-04
1.100000e+08	7.391240e+12	0.000000e+00	4.873950e-01	2.243325e+14	5.763053e+14	1.140553e+14	8.530319e+03	2.967678e+03	2.171796e+03	0	7.560233e-04
1.200000e+08	7.038594e+12	0.000000e+00	4.873950e-01	2.138843e+14	5.497476e+14	1.134369e+14	8.459014e+03	2.950525e+03	2.159243e+03	0	7.438032e-04
1.300000e+08	6.713821e+12	0.000000e+00	4.873950e-01	2.042601e+14	5.256822e+14	1.128231e+14	8.390982e+03	2.934463e+03	2.147489e+03	0	7.321824e-04
1.400000e+08	6.413876e+12	0.000000e+00	4.873950e-01	1.953700e+14	5.037763e+14	1.122138e+14	8.325967e+03	2.919377e+03	2.136449e+03	0	7.211123e-04
1.500000e+08	6.136134e+12	0.000000e+00	4.873950e-01	1.871365e+14	4.837534e+14	1.116091e+14	8.263743e+03	2.905169e+03	2.126052e+03	0	7.105495e-04
1.600000e+08	5.878321e+12	0.000000e+00	4.873950e-01	1.794923e+14	4.653821e+14	1.110088e+14	8.204106e+03	2.891755e+03	2.116235e+03	0	7.004554e-04
1.700000e+08	5.638456e+12	0.000000e+00	4.873950e-01	1.723790e+14	4.484670e+14	1.104129e+14	8.146874e+03	2.879059e+03	2.106944e+03	0	6.907954e-04
1.800000e+08	5.414809e+12	0.000000e+00	4.873950e-01	1.657453e+14	4.328423e+14	1.098214e+14	8.091881e+03	2.867019e+03	2.098133e+03	0	6.815386e-04
1.900000e+08	5.205860e+12	0.000000e+00	4.873950e-01	1.595465e+14	4.183661e+14	1.092343e+14	8.038978e+03	2.855578e+03	2.089760e+03	0	6.726568e-04
2.000000e+08	5.010269e+12	0.000000e+00	4.873950e-01	1.537428e+14	4.049165e+14	1.086515e+14	7.988030e+03	2.844685e+03	2.081788e+03	0	6.641249e-04
2.100000e+08	4.826851e+12	0.000000e+00	4.873950e-01	1.482994e+14	3.923882e+14	1.080730e+14	7.938914e+03	2.834297e+03	2.074186e+03	0	6.559197e-04
2.200000e+08	4.654555e+12	0.000000e+00	4.873950e-01	1.431851e+14	3.806898e+14	1.074987e+14	7.891516e+03	2.824375e+03	2.066925e+03	0	6.480206e-04
2.300000e+08	4.492445e+12	0.000000e+00	4.873950e-01	1.383722e+14	3.697413e+14	1.069287e+14	7.845735e+03	2.814884e+03	2.059979e+03	0	6.404083e-04
2.400000e+08	4.339682e+12	0.000000e+00	4.873950e-01	1.338360e+14	3.594727e+14	1.063628e+14	7.801476e+03	2.805792e+03	2.053326e+03	0	6.330656e-04
2.500000e+08	4.195519e+12	0.000000e+00	4.873950e-01	1.295543e+14	3.498225e+14	1.058011e+14	7.758653e+03	2.797071e+03	2.046944e+03	0	6.259764e-04
2.600000e+08	4.059281e+12	0.000000e+00	4.873950e-01	1.255073e+14	3.407362e+14	1.052435e+14	7.717185e+03	2.788696e+03	2.040814e+03	0	6.191261e-04
2.700000e+08	3.930363e+12	0.000000e+00	4.873950e-01	1.216770e+14	3.321655e+14	1.046899e+14	7.676999e+03	2.780643e+03	2.034921e+03	0	6.125012e-04
2.800000e+08	3.808217e+12	0.000000e+00	4.873950e-01	1.180472e+14	3.240675e+14	1.041405e+14	7.638028e+03	2.772892e+03	2.029249e+03	0	6.060893e-04
2.900000e+08	3.692347e+12	0.000000e+00	4.873950e-01	1.146033e+14	3.164039e+14	1.035950e+14	7.600207e+03	2.765424e+03	2.023784e+03	0	5.998789e-04
3.000000e+08	3.582305e+12	0.000000e+00	4.873950e-01	1.113320e+14	3.091404e+14	1.030535e+14	7.563480e+03	2.758221e+03	2.018512e+03	0	5.938593e-04
3.100000e+08	3.477682e+12	0.000000e+00	4.873950e-01	1.082211e+14	3.022460e+14	1.025159e+14	7.527791e+03	2.751267e+03	2.013423e+03	0	5.880208e-04
3.200000e+08	3.378105e+12	0.000000e+00	4.873950e-01	1.052598e+14	2.956931e+14	1.019823e+14	7.493090e+03	2.744547e+03	2.008506e+03	0	5.823541e-04
3.300000e+08	3.283236e+12	0.000000e+00	4.873950e-01	1.024380e+14	2.894566e+14	1.014525e+14	7.459329e+03	2.738049e+03	2.003750e+03	0	5.768507e-04
3.400000e+08	3.192763e+12	0.000000e+00	4.873950e-01	9.974636e+13	2.835137e+14	1.009266e+14	7.426466e+03	2.731760e+03	1.999148e+03	0	5.715027e-04
3.500000e+08	3.106403e+12	0.000000e+00	4.873950e-01	9.717662e+13	2.778440e+14	1.004045e+14	7.394459e+03	2.725668e+03	1.994690e+03	0	5.663027e-04
3.600000e+08	3.023893e+12	0.000000e+00	4.873950e-01	9.472102e+13	2.724287e+14	9.988614e+13	7.363270e+03	2.719764e+03	1.990369e+03	0	5.612438e-04
3.700000e+08	2.944995e+12	0.000000e+00	4.873950e-01	9.237244e+13	2.672508e+14	9.937157e+13	7.332862e+03	2.714036e+03	1.986177e+03	0	5.563195e-04
3.800000e+08	2.869487e+12	0.000000e+00	4.873950e-01	9.012436e+13	2.622946e+14	9.886072e+13	7.303201e+03	2.708476e+03	1.982108e+03	0	5.515237e-04
3.900000e+08	2.797166e+12	0.000000e+00	4.873950e-01	8.797074e+13	2.575460e+14	9.835357e+13	7.274257e+03	2.703076e+03	1.978157e+03	0	5.468507e-04
4.000000e+08	2.727843e+12	0.000000e+00	4.873950e-01	8.590603e+13	2.529918e+14	9.785008e+13	7.245999e+03	2.697828e+03	1.974316e+03	0	5.422953e-04
4.100000e+08	2.661345e+12	0.000000e+00	4.873950e-01	8.392507e+13	2.486201e+14	9.735023e+13	7.218398e+03	2.692724e+03	1.970581e+03	0	5.378524e-04
4.200000e+08	2.597511e+12	0.000000e+00	4.873950e-01	8.202310e+13	2.444199e+14	9.685397e+13	7.191430e+03	2.687758e+03	1.966946e+03	0	5.335173e-04
4.300000e+08	2.536190e+12	0.000000e+00	4.873950e-01	8.019569e+13	2.403810e+14	9.636129e+13	7.165068e+03	2.682922e+03	1.963408e+03	0	5.292855e-04
4.400000e+08	2.477245e+12	0.000000e+00	4.873950e-01	7.843874e+13	2.364940e+14	9.587215e+13	7.139289e+03	2.678212e+03	1.959961e+03	0	5.251528e-04
4.500000e+08	2.420547e+12	0.000000e+00	4.873950e-01	7.674844e+13	2.327502e+14	9.538653e+13	7.114070e+03	2.673622e+03	1.956601e+03	0	5.211154e-04
4.600000e+08	2.365975e+12	0.000000e+00	4.873950e-01	7.512122e+13	2.291417e+14	9.490439e+13	7.089391e+03	2.669146e+03	1.953326e+03	0	5.171694e-04
4.700000e+08	2.313418e+12	0.000000e+00	4.873950e-01	7.355379e+13	2.256609e+14	9.442572e+13	7.065231e+03	2.664779e+03	1.950130e+03	0	5.133112e-04
4.800000e+08	2.262772e+12	0.000000e+00	4.873950e-01	7.204304e+13	2.223010e+14	9.395047e+13	7.041572e+03	2.660516e+03	1.947011e+03	0	5.095377e-04
4.900000e+08	2.213939e+12	0.000000e+00	4.873950e-01	7.058611e+13	2.190555e+14	9.347862e+13	7.018396e+03	2.656355e+03	1.943965e+03	0	5.058455e-04
5.000000e+08	2.166827e+12	0.000000e+00	4.873950e-01	6.918028e+13	2.159186e+14	9.301015e+13	6.995685e+03	2.652289e+03	1.940989e+03	0	5.022318e-04
5.100000e+08	2.121353e+12	0.000000e+00	4.873950e-01	6.782304e+13	2.128845e+14	9.254503e+13	6.973423e+03	2.648315e+03	1.938082e+03	0	4.986935e-04
5.200000e+08	2.077436e+12	0.000000e+00	4.873950e-01	6.651201e+13	2.099481e+14	9.208322e+13	6.951596e+03	2.644430e+03	1.935238e+03	0	4.952281e-04
5.300000e+08	2.035000e+12	0.000000e+00	4.873950e-01	6.524500e+13	2.071047e+14	9.162471e+13	6.930187e+03	2.640630e+03	1.932458e+03	0	4.918329e-04
5.400000e+08	1.993977e+12	0.000000e+00	4.873950e-01	6.401990e+13	2.043495e+14	9.116947e+13	6.909183e+03	2.636912e+03	1.929736e+03	0	4.885055e-04
5.500000e+08	1.954299e+12	0.000000e+00	4.873950e-01	6.283477e+13	2.016785e+14	9.071746e+13	6.888572e+03	2.633272e+03	1.927073e+03	0	4.852435e-04
5.600000e+08	1.915906e+12	0.000000e+00	4.873950e-01	6.168777e+13	1.990875e+14	9.026867e+13	6.868339e+03	2.629708e+03	1.924465e+03	0	4.820448e-04
5.700000e+08	1.878738e+12	0.000000e+00	4.873950e-01	6.057717e+13	1.965730e+14	8.982306e+13	6.848474e+03	2.626217e+03	1.921910e+03	0	4.789073e-04
5.800000e+08	1.842740e+12	0.000000e+00	4.873950e-01	5.950134e+13	1.941313e+14	8.938062e+13	6.828964e+03	2.622796e+03	1.919406e+03	0	4.758288e-04
5.900000e+08	1.807861e+12	0.000000e+00	4.873950e-01	5.845875e+13	1.917592e+14	8.894131e+13	6.809799e+03	2.619443e+03	1.916952e+03	0	4.728075e-04
6.000000e+08	1.774052e+12	0.000000e+00	4.873950e-01	5.744793e+13	1.894535e+14	8.850511e+13	6.790967e+03	2.616155e+03	1.914546e+03	0	4.698416e-04
6.100000e+08	1.741266e+12	0.000000e+00	4.873950e-01	5.646754e+13	1.872115e+14	8.807200e+13	6.772459e+03	2.612930e+03	1.912186e+03	0	4.669293e-04
6.200000e+08	1.709461e+12	0.000000e+00	4.873950e-01	5.551627e+13	1.850303e+14	8.764194e+13	6.754265e+03	2.609766e+03	1.909870e+03	0	4.640688e-04
6.300000e+08	1.678594e+12	0.000000e+00	4.873950e-01	5.459289e+13	1.829073e+14	8.721493e+13	6.736376e+03	2.606660e+03	1.907597e+03	0	4.612587e-04
6.400000e+08	1.648627e+12	0.000000e+00	4.873950e-01	5.369627e+13	1.808401e+14	8.679092e+13	6.718782e+03	2.603611e+03	1.905366e+03	0	4.584973e-04
6.500000e+08	1.619522e+12	0.000000e+00	4.873950e-01	5.282529e+13	1.788264e+14	8.636990e+13	6.701476e+03	2.600617e+03	1.903175e+03	0	4.557833e-04
6.600000e+08	1.591246e+12	0.000000e+00	4.873950e-01	5.197893e+13	1.768640e+14	8.595185e+13	6.684449e+03	2.597675e+03	1.901022e+03	0	4.531151e-04
6.700000e+08	1.563764e+12	0.000000e+00	4.873950e-01	5.115620e+13	1.749508e+14	8.553673e+13	6.667694e+03	2.594785e+03	1.898907e+03	0	4.504914e-04
6.800000e+08	1.537046e+12	0.000000e+00	4.873950e-01	5.035616e+13	1.730849e+14	8.512453e+13	6.651202e+03	2.591945e+03	1.896829e+03	0	4.479109e-04
6.900000e+08	1.511061e+12	0.000000e+00	4.873950e-01	4.957793e+13	1.712644e+14	8.471522e+13	6.634966e+03	2.589152e+03	1.894785e+03	0	4.453725e-04
7.000000e+08	1.485781e+12	0.000000e+00	4.873950e-01	4.882068e+13	1.694876e+14	8.430878e+13	6.618981e+03	2.586406e+03	1.892776e+03	0	4.428748e-04
7.100000e+08	1.461179e+12	0.000000e+00	4.873950e-01	4.808359e+13	1.677528e+14	8.390519e+13	6.603238e+03	2.583705e+03	1.890799e+03	0	4.404168e-04
7.200000e+08	1.437230e+12	0.000000e+00	4.873950e-01	4.736591e+13	1.660584e+14	8.350441e+13	6.587731e+03	2.581048e+03	1.888854e+03	0	4.379973e-04
7.300000e+08	1.413908e+12	0.000000e+00	4.873950e-01	4.666692e+13	1.644029e+14	8.310644e+13	6.572455e+03	2.578433e+03	1.886941e+03	0	4.356153e-04
7.400000e+08	1.391191e+12	0.000000e+00	4.873950e-01	4.598592e+13	1.627849e+14	8.271125e+13	6.557403e+03	2.575859e+03	1.885057e+03	0	4.332697e-04
7.500000e+08	1.369057e+12	0.000000e+00	4.873950e-01	4.532227e+13	1.612030e+14	8.231881e+13	6.542570e+03	2.573325e+03	1.883203e+03	0	4.309596e-04
7.600000e+08	1.347485e+12	0.000000e+00	4.873950e-01	4.467533e+13	1.596560e+14	8.192911e+13	6.527950e+03	2.570830e+03	1.881377e+03	0	4.286841e-04
7.700000e+08	1.326454e+12	0.000000e+00	4.873950e-01	4.404450e+13	1.581426e+14	8.154211e+13	6.513537e+03	2.568372e+03	1.879578e+03	0	4.264421e-04
7.800000e+08	1.305945e+12	0.000000e+00	4.873950e-01	4.342923e+13	1.566616e+14	8.115781e+13	6.499327e+03	2.565951e+03	1.877806e+03	0	4.242329e-04
7.900000e+08	1.285941e+12	0.000000e+00	4.873950e-01	4.282896e+13	1.552119e+14	8.077617e+13	6.485314e+03	2.563565e+03	1.876060e+03	0	4.220556e-04
8.000000e+08	1.266423e+12	0.000000e+00	4.873950e-01	4.224318e+13	1.537925e+14	8.039719e+13	6.471495e+03	2.561214e+03	1.874339e+03	0	4.199094e-04
8.100000e+08	1.247374e+12	0.000000e+00	4.873950e-01	4.167139e+13	1.524023e+14	8.002082e+13	6.457863e+03	2.558896e+03	1.872643e+03	0	4.177935e-04
8.200000e+08	1.228780e+12	0.000000e+00	4.873950e-01	4.111312e+13	1.510403e+14	7.964707e+13	6.444415e+03	2.556611e+03	1.870971e+03	0	4.157071e-04
8.300000e+08	1.210624e+12	0.000000e+00	4.873950e-01	4.056791e+13	1.497057e+14	7.927590e+13	6.431146e+03	2.554357e+03	1.869321e+03	0	4.136495e-04
8.400000e+08	1.192893e+12	0.000000e+00	4.873950e-01	4.003533e+13	1.483975e+14	7.890729e+13	6.418053e+03	2.552134e+03	1.867695e+03	0	4.116200e-04
8.500000e+08	1.175571e+12	0.000000e+00	4.873950e-01	3.951497e+13	1.471149e+14	7.854122e+13	6.405130e+03	2.549941e+03	1.866090e+03	0	4.096180e-04
8.600000e+08	1.158646e+12	0.000000e+00	4.873950e-01	3.900642e+13	1.458570e+14	7.817768e+13	6.392375e+03	2.547778e+03	1.864506e+03	0	4.076426e-04
8.700000e+08	1.142104e+12	0.000000e+00	4.873950e-01	3.850931e+13	1.446232e+14	7.781664e+13	6.379783e+03	2.545642e+03	1.862944e+03	0	4.056935e-04
8.800000e+08	1.125935e+12	0.000000e+00	4.873950e-01	3.802327e+13	1.434126e+14	7.745808e+13	6.367351e+03	2.543535e+03	1.861401e+03	0	4.037698e-04
8.900000e+08	1.110125e+12	0.000000e+00	4.873950e-01	3.754795e+13	1.422246e+14	7.710199e+13	6.355075e+03	2.541454e+03	1.859879e+03	0	4.018710e-04
9.000000e+08	1.094663e+12	0.000000e+00	4.873950e-01	3.708302e+13	1.410584e+14	7.674834e+13	6.342952e+03	2.539400e+03	1.858376e+03	0	3.999965e-04
9.100000e+08	1.079539e+12	0.000000e+00	4.873950e-01	3.662815e+13	1.399134e+14	7.639712e+13	6.330979e+03	2.537371e+03	1.856891e+03	0	3.981458e-04
9.200000e+08	1.064742e+12	0.000000e+00	4.873950e-01	3.618304e+13	1.387890e+14	7.604830e+13	6.319151e+03	2.535368e+03	1.855425e+03	0	3.963183e-04
9.300000e+08	1.050262e+12	0.000000e+00	4.873950e-01	3.574738e+13	1.376846e+14	7.570186e+13	6.307467e+03	2.533389e+03	1.853976e+03	0	3.945136e-04
9.400000e+08	1.036090e+12	0.000000e+00	4.873950e-01	3.532089e+13	1.365995e+14	7.535780e+13	6.295923e+03	2.531433e+03	1.852545e+03	0	3.927310e-04
9.500000e+08	1.022216e+12	0.000000e+00	4.873950e-01	3.490330e+13	1.355333e+14	7.501608e+13	6.284516e+03	2.529501e+03	1.851131e+03	0	3.909702e-04
9.600000e+08	1.008632e+12	0.000000e+00	4.873950e-01	3.449434e+13	1.344854e+14	7.467669e+13	6.273243e+03	2.527592e+03	1.849734e+03	0	3.892305e-04
9.700000e+08	9.953281e+11	0.000000e+00	4.873950e-01	3.409377e+13	1.334552e+14	7.433962e+13	6.262102e+03	2.525704e+03	1.848353e+03	0	3.875117e-04
9.800000e+08	9.822972e+11	0.000000e+00	4.873950e-01	3.370132e+13	1.324423e+14	7.400484e+13	6.251090e+03	2.523838e+03	1.846987e+03	0	3.858131e-04
9.900000e+08	9.695311e+11	0.000000e+00	4.873950e-01	3.331678e+13	1.314463e+14	7.367233e+13	6.240204e+03	2.521994e+03	1.845637e+03	0	3.841345e-04
1.000000e+09	9.570222e+11	0.000000e+00	4.873950e-01	3.293991e+13	1.304665e+14	7.334208e+13	6.229442e+03	2.520170e+03	1.844302e+03	0	3.824753e-04
1.010000e+09	9.447632e+11	0.000000e+00	4.873950e-01	3.257050e+13	1.295027e+14	7.301407e+13	6.218801e+03	2.518366e+03	1.842982e+03	0	3.808352e-04
1.020000e+09	9.327470e+11	0.000000e+00	4.873950e-01	3.220834e+13	1.285544e+14	7.268828e+13	6.208279e+03	2.516581e+03	1.841677e+03	0	3.792137e-04
1.030000e+09	9.209667e+11	0.000000e+00	4.873950e-01	3.185322e+13	1.276212e+14	7.236470e+13	6.197873e+03	2.514816e+03	1.840385e+03	0	3.776105e-04
1.040000e+09	9.094160e+11	0.000000e+00	4.873950e-01	3.150495e+13	1.267026e+14	7.204330e+13	6.187582e+03	2.513070e+03	1.839107e+03	0	3.760252e-04
1.050000e+09	8.980883e+11	0.000000e+00	4.873950e-01	3.116334e+13	1.257983e+14	7.172408e+13	6.177402e+03	2.511342e+03	1.837843e+03	0	3.744574e-04
1.060000e+09	8.869777e+11	0.000000e+00	4.873950e-01	3.082821e+13	1.249080e+14	7.140701e+13	6.167333e+03	2.509633e+03	1.836591e+03	0	3.729068e-04
1.070000e+09	8.760783e+11	0.000000e+00	4.873950e-01	3.049939e+13	1.240312e+14	7.109207e+13	6.157372e+03	2.507940e+03	1.835353e+03	0	3.713730e-04
1.080000e+09	8.653843e+11	0.000000e+00	4.873950e-01	3.017671e+13	1.231677e+14	7.077925e+13	6.147516e+03	2.506266e+03	1.834127e+03	0	3.698558e-04
1.090000e+09	8.548903e+11	0.000000e+00	4.873950e-01	2.985999e+13	1.223171e+14	7.046854e+13	6.137765e+03	2.504607e+03	1.832914e+03	0	3.683547e-04
1.100000e+09	8.445910e+11	0.000000e+00	4.873950e-01	2.954910e+13	1.214790e+14	7.015991e+13	6.128115e+03	2.502966e+03	1.831712e+03	0	3.668694e-04
1.110000e+09	8.344814e+11	0.000000e+00	4.873950e-01	2.924387e+13	1.206533e+14	6.985335e+13	6.118565e+03	2.501340e+03	1.830523e+03	0	3.653998e-04
1.120000e+09	8.245564e+11	0.000000e+00	4.873950e-01	2.894415e+13	1.198395e+14	6.954885e+13	6.109114e+03	2.499731e+03	1.829345e+03	0	3.639453e-04
1.130000e+09	8.148113e+11	0.000000e+00	4.873950e-01	2.864982e+13	1.190375e+14	6.924638e+13	6.099759e+03	2.498137e+03	1.828178e+03	0	3.625059e-04
1.140000e+09	8.052414e+11	0.000000e+00	4.873950e-01	2.836072e+13	1.182468e+14	6.894593e+13	6.090499e+03	2.496558e+03	1.827023e+03	0	3.610811e-04
1.150000e+09	7.958424e+11	0.000000e+00	4.873950e-01	2.807672e+13	1.174673e+14	6.864750e+13	6.081333e+03	2.494994e+03	1.825878e+03	0	3.596707e-04
1.160000e+09	7.866099e+11	0.000000e+00	4.873950e-01	2.779771e+13	1.166987e+14	6.835105e+13	6.072257e+03	2.493445e+03	1.824745e+03	0	3.582745e-04
1.170000e+09	7.775398e+11	0.000000e+00	4.873950e-01	2.752354e+13	1.159408e+14	6.805657e+13	6.063272e+03	2.491910e+03	1.823621e+03	0	3.568921e-04
1.180000e+09	7.686279e+11	0.000000e+00	4.873950e-01	2.725411e+13	1.151932e+14	6.776406e+13	6.054375e+03	2.490388e+03	1.822508e+03	0	3.555233e-04
1.190000e+09	7.598704e+11	0.000000e+00	4.873950e-01	2.698930e+13	1.144558e+14	6.747349e+13	6.045564e+03	2.488881e+03	1.821405e+03	0	3.541679e-04
1.200000e+09	7.512636e+11	0.000000e+00	4.873950e-01	2.672899e+13	1.137284e+14	6.718485e+13	6.036839e+03	2.487387e+03	1.820312e+03	0	3.528257e-04
1.210000e+09	7.428037e+11	0.000000e+00	4.873950e-01	2.647307e+13	1.130106e+14	6.689812e+13	6.028198e+03	2.485907e+03	1.819228e+03	0	3.514963e-04
1.220000e+09	7.344871e+11	0.000000e+00	4.873950e-01	2.622145e+13	1.123024e+14	6.661330e+13	6.019639e+03	2.484439e+03	1.818154e+03	0	3.501795e-04
1.230000e+09	7.263105e+11	0.000000e+00	4.873950e-01	2.597401e+13	1.116034e+14	6.633036e+13	6.011162e+03	2.482984e+03	1.817089e+03	0	3.488753e-04
1.240000e+09	7.182706e+11	0.000000e+00	4.873950e-01	2.573066e+13	1.109135e+14	6.604928e+13	6.002764e+03	2.481542e+03	1.816034e+03	0	3.475832e-04
1.250000e+09	7.103640e+11	0.000000e+00	4.873950e-01	2.549129e+13	1.102326e+14	6.577007e+13	5.994444e+03	2.480112e+03	1.814987e+03	0	3.463031e-04
1.260000e+09	7.025878e+11	0.000000e+00	4.873950e-01	2.525583e+13	1.095603e+14	6.549269e+13	5.986202e+03	2.478693e+03	1.813949e+03	0	3.450348e-04
1.270000e+09	6.949387e+11	0.000000e+00	4.873950e-01	2.502418e+13	1.088966e+14	6.521714e+13	5.978035e+03	2.477287e+03	1.812920e+03	0	3.437781e-04
1.280000e+09	6.874139e+11	0.000000e+00	4.873950e-01	2.479624e+13	1.082412e+14	6.494341e+13	5.969943e+03	2.475892e+03	1.811900e+03	0	3.425328e-04
1.290000e+09	6.800106e+11	0.000000e+00	4.873950e-01	2.457194e+13	1.075939e+14	6.467147e+13	5.961925e+03	2.474509e+03	1.810887e+03	0	3.412987e-04
1.300000e+09	6.727259e+11	0.000000e+00	4.873950e-01	2.435119e+13	1.069547e+14	6.440132e+13	5.953979e+03	2.473137e+03	1.809883e+03	0	3.400756e-04
1.310000e+09	6.655572e+11	0.000000e+00	4.873950e-01	2.413392e+13	1.063233e+14	6.413294e+13	5.946104e+03	2.471776e+03	1.808887e+03	0	3.388633e-04
1.320000e+09	6.585018e+11	0.000000e+00	4.873950e-01	2.392003e+13	1.056996e+14	6.386631e+13	5.938299e+03	2.470426e+03	1.807899e+03	0	3.376616e-04
1.330000e+09	6.515572e+11	0.000000e+00	4.873950e-01	2.370947e+13	1.050835e+14	6.360144e+13	5.930563e+03	2.469086e+03	1.806919e+03	0	3.364704e-04
1.340000e+09	6.447210e+11	0.000000e+00	4.873950e-01	2.350215e+13	1.044747e+14	6.333829e+13	5.922895e+03	2.467757e+03	1.805946e+03	0	3.352895e-04
1.350000e+09	6.379908e+11	0.000000e+00	4.873950e-01	2.329801e+13	1.038731e+14	6.307685e+13	5.915294e+03	2.466438e+03	1.804981e+03	0	3.341188e-04
1.360000e+09	6.313642e+11	0.000000e+00	4.873950e-01	2.309697e+13	1.032786e+14	6.281713e+13	5.907759e+03	2.465129e+03	1.804023e+03	0	3.329579e-04
