#t		Qconv[W]	Ri[Rp]		R*[Rp]		Qc[W]		Qm[W]		Qr[W]		Tcmb[K]		Tl[K]		Tup[K]		RiFlag		Bs[T]
0.000000e+00	2.255865e+13	0.000000e+00	4.873950e-01	5.995659e+14	1.431964e+15	1.427280e+14	1.076671e+04	3.467576e+03	2.479573e+03	0	1.087072e-03
1.000000e+07	2.084427e+13	0.000000e+00	4.873950e-01	5.547047e+14	1.307898e+15	1.419371e+14	1.060877e+04	3.426133e+03	2.449938e+03	0	1.058805e-03
2.000000e+07	1.934126e+13	0.000000e+00	4.873950e-01	5.153659e+14	1.203725e+15	1.411522e+14	1.046237e+04	3.389226e+03	2.423547e+03	0	1.032719e-03
3.000000e+07	1.801424e+13	0.000000e+00	4.873950e-01	4.806259e+14	1.115061e+15	1.403732e+14	1.032614e+04	3.356049e+03	2.399823e+03	0	1.008539e-03
4.000000e+07	1.683520e+13	0.000000e+00	4.873950e-01	4.497533e+14	1.038718e+15	1.396000e+14	1.019890e+04	3.325985e+03	2.378325e+03	0	9.860373e-04
5.000000e+07	1.578169e+13	0.000000e+00	4.873950e-01	4.221618e+14	9.723193e+14	1.388325e+14	1.007968e+04	3.298554e+03	2.358710e+03	0	9.650247e-04
6.000000e+07	1.483551e+13	0.000000e+00	4.873950e-01	3.973760e+14	9.140585e+14	1.380708e+14	9.967630e+03	3.273372e+03	2.340703e+03	0	9.453401e-04
7.000000e+07	1.398175e+13	0.000000e+00	4.873950e-01	3.750063e+14	8.625405e+14	1.373147e+14	9.862042e+03	3.250134e+03	2.324086e+03	0	9.268464e-04
8.000000e+07	1.320809e+13	0.000000e+00	4.873950e-01	3.547311e+14	8.166699e+14	1.365643e+14	9.762293e+03	3.228589e+03	2.308680e+03	0	9.094257e-04
9.000000e+07	1.250426e+13	0.000000e+00	4.873950e-01	3.362821e+14	7.755753e+14	1.358194e+14	9.667847e+03	3.208530e+03	2.294336e+03	0	8.929763e-04
1.000000e+08	1.186165e+13	0.000000e+00	4.873950e-01	3.194341e+14	7.385547e+14	1.350801e+14	9.578233e+03	3.189785e+03	2.280932e+03	0	8.774095e-04
1.100000e+08	1.127297e+13	0.000000e+00	4.873950e-01	3.039966e+14	7.050366e+14	1.343463e+14	9.493038e+03	3.172209e+03	2.268364e+03	0	8.626475e-04
1.200000e+08	1.073202e+13	0.000000e+00	4.873950e-01	2.898077e+14	6.745511e+14	1.336179e+14	9.411898e+03	3.155680e+03	2.256545e+03	0	8.486221e-04
1.300000e+08	1.023348e+13	0.000000e+00	4.873950e-01	2.767288e+14	6.467081e+14	1.328949e+14	9.334489e+03	3.140093e+03	2.245399e+03	0	8.352730e-04
1.400000e+08	9.772811e+12	0.000000e+00	4.873950e-01	2.646404e+14	6.211814e+14	1.321772e+14	9.260523e+03	3.125357e+03	2.234861e+03	0	8.225464e-04
1.500000e+08	9.346048e+12	0.000000e+00	4.873950e-01	2.534395e+14	5.976961e+14	1.314648e+14	9.189743e+03	3.111393e+03	2.224876e+03	0	8.103947e-04
1.600000e+08	8.949764e+12	0.000000e+00	4.873950e-01	2.430363e+14	5.760186e+14	1.307578e+14	9.121918e+03	3.098134e+03	2.215395e+03	0	7.987750e-04
1.700000e+08	8.580966e+12	0.000000e+00	4.873950e-01	2.333526e+14	5.559498e+14	1.300559e+14	9.056841e+03	3.085519e+03	2.206374e+03	0	7.876489e-04
1.800000e+08	8.237028e+12	0.000000e+00	4.873950e-01	2.243197e+14	5.373181e+14	1.293592e+14	8.994323e+03	3.073495e+03	2.197776e+03	0	7.769817e-04
1.900000e+08	7.915644e+12	0.000000e+00	4.873950e-01	2.158773e+14	5.199758e+14	1.286676e+14	8.934195e+03	3.062016e+03	2.189568e+03	0	7.667422e-04
2.000000e+08	7.614774e+12	0.000000e+00	4.873950e-01	2.079721e+14	5.037942e+14	1.279811e+14	8.876303e+03	3.051039e+03	2.181719e+03	0	7.569019e-04
2.100000e+08	7.332613e+12	0.000000e+00	4.873950e-01	2.005568e+14	4.886614e+14	1.272997e+14	8.820505e+03	3.040529e+03	2.174203e+03	0	7.474352e-04
2.200000e+08	7.067555e+12	0.000000e+00	4.873950e-01	1.935895e+14	4.744791e+14	1.266233e+14	8.766674e+03	3.030450e+03	2.166996e+03	0	7.383183e-04
2.300000e+08	6.818167e+12	0.000000e+00	4.873950e-01	1.870327e+14	4.611608e+14	1.259518e+14	8.714692e+03	3.020774e+03	2.160077e+03	0	7.295300e-04
2.400000e+08	6.583171e+12	0.000000e+00	4.873950e-01	1.808529e+14	4.486303e+14	1.252853e+14	8.664451e+03	3.011472e+03	2.153425e+03	0	7.210504e-04
2.500000e+08	6.361417e+12	0.000000e+00	4.873950e-01	1.750201e+14	4.368198e+14	1.246236e+14	8.615852e+03	3.002521e+03	2.147025e+03	0	7.128616e-04
2.600000e+08	6.151873e+12	0.000000e+00	4.873950e-01	1.695073e+14	4.256692e+14	1.239668e+14	8.568804e+03	2.993898e+03	2.140859e+03	0	7.049469e-04
2.700000e+08	5.953609e+12	0.000000e+00	4.873950e-01	1.642900e+14	4.151247e+14	1.233148e+14	8.523222e+03	2.985583e+03	2.134913e+03	0	6.972909e-04
2.800000e+08	5.765783e+12	0.000000e+00	4.873950e-01	1.593464e+14	4.051382e+14	1.226675e+14	8.479029e+03	2.977557e+03	2.129173e+03	0	6.898797e-04
2.900000e+08	5.587634e+12	0.000000e+00	4.873950e-01	1.546565e+14	3.956666e+14	1.220250e+14	8.436153e+03	2.969803e+03	2.123629e+03	0	6.827000e-04
3.000000e+08	5.418471e+12	0.000000e+00	4.873950e-01	1.502021e+14	3.866709e+14	1.213872e+14	8.394527e+03	2.962305e+03	2.118267e+03	0	6.757398e-04
3.100000e+08	5.257665e+12	0.000000e+00	4.873950e-01	1.459669e+14	3.781160e+14	1.207540e+14	8.354088e+03	2.955050e+03	2.113079e+03	0	6.689878e-04
3.200000e+08	5.104642e+12	0.000000e+00	4.873950e-01	1.419358e+14	3.699703e+14	1.201254e+14	8.314778e+03	2.948023e+03	2.108054e+03	0	6.624336e-04
3.300000e+08	4.958881e+12	0.000000e+00	4.873950e-01	1.380951e+14	3.622048e+14	1.195014e+14	8.276545e+03	2.941213e+03	2.103184e+03	0	6.560674e-04
3.400000e+08	4.819902e+12	0.000000e+00	4.873950e-01	1.344323e+14	3.547934e+14	1.188819e+14	8.239336e+03	2.934607e+03	2.098461e+03	0	6.498802e-04
3.500000e+08	4.687266e+12	0.000000e+00	4.873950e-01	1.309360e+14	3.477122e+14	1.182669e+14	8.203106e+03	2.928197e+03	2.093877e+03	0	6.438635e-04
3.600000e+08	4.560571e+12	0.000000e+00	4.873950e-01	1.275955e+14	3.409395e+14	1.176564e+14	8.167810e+03	2.921971e+03	2.089425e+03	0	6.380093e-04
3.700000e+08	4.439447e+12	0.000000e+00	4.873950e-01	1.244012e+14	3.344554e+14	1.170502e+14	8.133407e+03	2.915921e+03	2.085099e+03	0	6.323103e-04
3.800000e+08	4.323554e+12	0.000000e+00	4.873950e-01	1.213442e+14	3.282415e+14	1.164485e+14	8.099858e+03	2.910038e+03	2.080892e+03	0	6.267594e-04
3.900000e+08	4.212575e+12	0.000000e+00	4.873950e-01	1.184161e+14	3.222810e+14	1.158511e+14	8.067126e+03	2.904314e+03	2.076799e+03	0	6.213503e-04
4.000000e+08	4.106222e+12	0.000000e+00	4.873950e-01	1.156095e+14	3.165587e+14	1.152581e+14	8.035178e+03	2.898743e+03	2.072815e+03	0	6.160767e-04
4.100000e+08	4.004226e+12	0.000000e+00	4.873950e-01	1.129173e+14	3.110603e+14	1.146693e+14	8.003981e+03	2.893316e+03	2.068935e+03	0	6.109328e-04
4.200000e+08	3.906338e+12	0.000000e+00	4.873950e-01	1.103329e+14	3.057726e+14	1.140848e+14	7.973505e+03	2.888028e+03	2.065153e+03	0	6.059134e-04
4.300000e+08	3.812326e+12	0.000000e+00	4.873950e-01	1.078503e+14	3.006836e+14	1.135044e+14	7.943722e+03	2.882872e+03	2.061467e+03	0	6.010131e-04
4.400000e+08	3.721978e+12	0.000000e+00	4.873950e-01	1.054640e+14	2.957821e+14	1.129283e+14	7.914603e+03	2.877843e+03	2.057870e+03	0	5.962273e-04
4.500000e+08	3.635094e+12	0.000000e+00	4.873950e-01	1.031686e+14	2.910577e+14	1.123563e+14	7.886124e+03	2.872935e+03	2.054361e+03	0	5.915514e-04
4.600000e+08	3.551488e+12	0.000000e+00	4.873950e-01	1.009593e+14	2.865007e+14	1.117883e+14	7.858260e+03	2.868144e+03	2.050935e+03	0	5.869810e-04
4.700000e+08	3.470988e+12	0.000000e+00	4.873950e-01	9.883169e+13	2.821022e+14	1.112245e+14	7.830988e+03	2.863463e+03	2.047588e+03	0	5.825121e-04
4.800000e+08	3.393433e+12	0.000000e+00	4.873950e-01	9.678140e+13	2.778538e+14	1.106647e+14	7.804287e+03	2.858890e+03	2.044318e+03	0	5.781409e-04
4.900000e+08	3.318671e+12	0.000000e+00	4.873950e-01	9.480454e+13	2.737478e+14	1.101089e+14	7.778136e+03	2.854420e+03	2.041121e+03	0	5.738636e-04
5.000000e+08	3.246563e+12	0.000000e+00	4.873950e-01	9.289743e+13	2.697770e+14	1.095571e+14	7.752516e+03	2.850048e+03	2.037995e+03	0	5.696768e-04
5.100000e+08	3.176977e+12	0.000000e+00	4.873950e-01	9.105659e+13	2.659345e+14	1.090092e+14	7.727407e+03	2.845771e+03	2.034936e+03	0	5.655773e-04
5.200000e+08	3.109790e+12	0.000000e+00	4.873950e-01	8.927882e+13	2.622142e+14	1.084653e+14	7.702793e+03	2.841585e+03	2.031943e+03	0	5.615619e-04
5.300000e+08	3.044885e+12	0.000000e+00	4.873950e-01	8.756106e+13	2.586099e+14	1.079252e+14	7.678656e+03	2.837487e+03	2.029013e+03	0	5.576275e-04
5.400000e+08	2.982154e+12	0.000000e+00	4.873950e-01	8.590048e+13	2.551163e+14	1.073890e+14	7.654980e+03	2.833473e+03	2.026143e+03	0	5.537715e-04
5.500000e+08	2.921496e+12	0.000000e+00	4.873950e-01	8.429439e+13	2.517281e+14	1.068565e+14	7.631751e+03	2.829541e+03	2.023331e+03	0	5.499911e-04
5.600000e+08	2.862814e+12	0.000000e+00	4.873950e-01	8.274029e+13	2.484405e+14	1.063279e+14	7.608953e+03	2.825687e+03	2.020575e+03	0	5.462838e-04
5.700000e+08	2.806019e+12	0.000000e+00	4.873950e-01	8.123582e+13	2.452488e+14	1.058030e+14	7.586573e+03	2.821909e+03	2.017874e+03	0	5.426471e-04
5.800000e+08	2.751025e+12	0.000000e+00	4.873950e-01	7.977873e+13	2.421488e+14	1.052819e+14	7.564597e+03	2.818205e+03	2.015225e+03	0	5.390786e-04
5.900000e+08	2.697752e+12	0.000000e+00	4.873950e-01	7.836693e+13	2.391364e+14	1.047644e+14	7.543013e+03	2.814570e+03	2.012626e+03	0	5.355762e-04
6.000000e+08	2.646125e+12	0.000000e+00	4.873950e-01	7.699845e+13	2.362077e+14	1.042506e+14	7.521809e+03	2.811004e+03	2.010076e+03	0	5.321377e-04
6.100000e+08	2.596072e+12	0.000000e+00	4.873950e-01	7.567140e+13	2.333592e+14	1.037404e+14	7.500972e+03	2.807504e+03	2.007573e+03	0	5.287611e-04
6.200000e+08	2.547527e+12	0.000000e+00	4.873950e-01	7.438403e+13	2.305875e+14	1.032339e+14	7.480493e+03	2.804068e+03	2.005116e+03	0	5.254445e-04
6.300000e+08	2.500425e+12	0.000000e+00	4.873950e-01	7.313465e+13	2.278894e+14	1.027309e+14	7.460360e+03	2.800693e+03	2.002702e+03	0	5.221860e-04
6.400000e+08	2.454707e+12	0.000000e+00	4.873950e-01	7.192170e+13	2.252618e+14	1.022314e+14	7.440563e+03	2.797377e+03	2.000332e+03	0	5.189838e-04
6.500000e+08	2.410315e+12	0.000000e+00	4.873950e-01	7.074368e+13	2.227019e+14	1.017355e+14	7.421093e+03	2.794120e+03	1.998002e+03	0	5.158363e-04
6.600000e+08	2.367195e+12	0.000000e+00	4.873950e-01	6.959916e+13	2.202069e+14	1.012431e+14	7.401940e+03	2.790918e+03	1.995713e+03	0	5.127417e-04
6.700000e+08	2.325297e+12	0.000000e+00	4.873950e-01	6.848680e+13	2.177743e+14	1.007541e+14	7.383095e+03	2.787770e+03	1.993462e+03	0	5.096985e-04
6.800000e+08	2.284571e+12	0.000000e+00	4.873950e-01	6.740533e+13	2.154017e+14	1.002686e+14	7.364550e+03	2.784675e+03	1.991248e+03	0	5.067053e-04
6.900000e+08	2.244971e+12	0.000000e+00	4.873950e-01	6.635354e+13	2.130867e+14	9.978647e+13	7.346296e+03	2.781630e+03	1.989071e+03	0	5.037606e-04
7.000000e+08	2.206454e+12	0.000000e+00	4.873950e-01	6.533027e+13	2.108271e+14	9.930772e+13	7.328325e+03	2.778635e+03	1.986929e+03	0	5.008630e-04
7.100000e+08	2.168979e+12	0.000000e+00	4.873950e-01	6.433445e+13	2.086209e+14	9.883232e+13	7.310630e+03	2.775687e+03	1.984822e+03	0	4.980111e-04
7.200000e+08	2.132505e+12	0.000000e+00	4.873950e-01	6.336502e+13	2.064661e+14	9.836025e+13	7.293203e+03	2.772786e+03	1.982747e+03	0	4.952038e-04
7.300000e+08	2.096995e+12	0.000000e+00	4.873950e-01	6.242100e+13	2.043608e+14	9.789148e+13	7.276037e+03	2.769930e+03	1.980705e+03	0	4.924397e-04
7.400000e+08	2.062413e+12	0.000000e+00	4.873950e-01	6.150145e+13	2.023031e+14	9.742598e+13	7.259126e+03	2.767118e+03	1.978694e+03	0	4.897177e-04
7.500000e+08	2.028725e+12	0.000000e+00	4.873950e-01	6.060547e+13	2.002915e+14	9.696372e+13	7.242463e+03	2.764348e+03	1.976713e+03	0	4.870367e-04
7.600000e+08	1.995899e+12	0.000000e+00	4.873950e-01	5.973221e+13	1.983242e+14	9.650469e+13	7.226041e+03	2.761620e+03	1.974762e+03	0	4.843955e-04
7.700000e+08	1.963903e+12	0.000000e+00	4.873950e-01	5.888085e+13	1.963998e+14	9.604885e+13	7.209855e+03	2.758931e+03	1.972840e+03	0	4.817932e-04
7.800000e+08	1.932709e+12	0.000000e+00	4.873950e-01	5.805062e+13	1.945167e+14	9.559617e+13	7.193898e+03	2.756282e+03	1.970945e+03	0	4.792286e-04
7.900000e+08	1.902287e+12	0.000000e+00	4.873950e-01	5.724078e+13	1.926735e+14	9.514664e+13	7.178165e+03	2.753671e+03	1.969078e+03	0	4.767009e-04
8.000000e+08	1.872611e+12	0.000000e+00	4.873950e-01	5.645061e+13	1.908689e+14	9.470023e+13	7.162651e+03	2.751096e+03	1.967237e+03	0	4.742090e-04
8.100000e+08	1.843656e+12	0.000000e+00	4.873950e-01	5.567945e+13	1.891017e+14	9.425691e+13	7.147349e+03	2.748558e+03	1.965422e+03	0	4.717521e-04
8.200000e+08	1.815396e+12	0.000000e+00	4.873950e-01	5.492664e+13	1.873705e+14	9.381666e+13	7.132256e+03	2.746054e+03	1.963632e+03	0	4.693293e-04
8.300000e+08	1.787808e+12	0.000000e+00	4.873950e-01	5.419156e+13	1.856742e+14	9.337946e+13	7.117366e+03	2.743585e+03	1.961866e+03	0	4.669398e-04
8.400000e+08	1.760869e+12	0.000000e+00	4.873950e-01	5.347363e+13	1.840117e+14	9.294527e+13	7.102674e+03	2.741148e+03	1.960124e+03	0	4.645826e-04
8.500000e+08	1.734559e+12	0.000000e+00	4.873950e-01	5.277228e+13	1.823819e+14	9.251408e+13	7.088176e+03	2.738744e+03	1.958404e+03	0	4.622571e-04
8.600000e+08	1.708856e+12	0.000000e+00	4.873950e-01	5.208697e+13	1.807838e+14	9.208586e+13	7.073868e+03	2.736372e+03	1.956708e+03	0	4.599625e-04
8.700000e+08	1.683740e+12	0.000000e+00	4.873950e-01	5.141718e+13	1.792164e+14	9.166059e+13	7.059744e+03	2.734030e+03	1.955033e+03	0	4.576980e-04
8.800000e+08	1.659194e+12	0.000000e+00	4.873950e-01	5.076240e+13	1.776787e+14	9.123825e+13	7.045801e+03	2.731718e+03	1.953380e+03	0	4.554629e-04
8.900000e+08	1.635198e+12	0.000000e+00	4.873950e-01	5.012217e+13	1.761699e+14	9.081880e+13	7.032035e+03	2.729435e+03	1.951748e+03	0	4.532565e-04
9.000000e+08	1.611735e+12	0.000000e+00	4.873950e-01	4.949602e+13	1.746890e+14	9.040224e+13	7.018441e+03	2.727180e+03	1.950136e+03	0	4.510782e-04
9.100000e+08	1.588789e+12	0.000000e+00	4.873950e-01	4.888351e+13	1.732353e+14	8.998853e+13	7.005017e+03	2.724954e+03	1.948543e+03	0	4.489273e-04
9.200000e+08	1.566343e+12	0.000000e+00	4.873950e-01	4.828423e+13	1.718079e+14	8.957765e+13	6.991758e+03	2.722754e+03	1.946971e+03	0	4.468031e-04
9.300000e+08	1.544382e+12	0.000000e+00	4.873950e-01	4.769777e+13	1.704061e+14	8.916959e+13	6.978661e+03	2.720581e+03	1.945417e+03	0	4.447052e-04
9.400000e+08	1.522892e+12	0.000000e+00	4.873950e-01	4.712375e+13	1.690292e+14	8.876431e+13	6.965723e+03	2.718434e+03	1.943881e+03	0	4.426328e-04
9.500000e+08	1.501858e+12	0.000000e+00	4.873950e-01	4.656177e+13	1.676763e+14	8.836180e+13	6.952939e+03	2.716312e+03	1.942364e+03	0	4.405855e-04
9.600000e+08	1.481266e+12	0.000000e+00	4.873950e-01	4.601150e+13	1.663469e+14	8.796204e+13	6.940308e+03	2.714215e+03	1.940864e+03	0	4.385626e-04
9.700000e+08	1.461104e+12	0.000000e+00	4.873950e-01	4.547257e+13	1.650403e+14	8.756499e+13	6.927825e+03	2.712141e+03	1.939382e+03	0	4.365637e-04
9.800000e+08	1.441358e+12	0.000000e+00	4.873950e-01	4.494467e+13	1.637559e+14	8.717065e+13	6.915487e+03	2.710092e+03	1.937916e+03	0	4.345882e-04
9.900000e+08	1.422017e+12	0.000000e+00	4.873950e-01	4.442747e+13	1.624930e+14	8.677899e+13	6.903293e+03	2.708065e+03	1.936466e+03	0	4.326356e-04
1.000000e+09	1.403069e+12	0.000000e+00	4.873950e-01	4.392066e+13	1.612511e+14	8.638999e+13	6.891238e+03	2.706060e+03	1.935033e+03	0	4.307054e-04
1.010000e+09	1.384503e+12	0.000000e+00	4.873950e-01	4.342395e+13	1.600296e+14	8.600362e+13	6.879320e+03	2.704078e+03	1.933616e+03	0	4.287972e-04
1.020000e+09	1.366308e+12	0.000000e+00	4.873950e-01	4.293704e+13	1.588279e+14	8.561988e+13	6.867536e+03	2.702117e+03	1.932213e+03	0	4.269104e-04
1.030000e+09	1.348473e+12	0.000000e+00	4.873950e-01	4.245967e+13	1.576456e+14	8.523873e+13	6.855884e+03	2.700177e+03	1.930826e+03	0	4.250447e-04
1.040000e+09	1.330988e+12	0.000000e+00	4.873950e-01	4.199158e+13	1.564821e+14	8.486015e+13	6.844361e+03	2.698258e+03	1.929454e+03	0	4.231996e-04
1.050000e+09	1.313844e+12	0.000000e+00	4.873950e-01	4.153249e+13	1.553369e+14	8.448414e+13	6.832964e+03	2.696359e+03	1.928096e+03	0	4.213747e-04
1.060000e+09	1.297031e+12	0.000000e+00	4.873950e-01	4.108218e+13	1.542097e+14	8.411066e+13	6.821692e+03	2.694479e+03	1.926752e+03	0	4.195696e-04
1.070000e+09	1.280540e+12	0.000000e+00	4.873950e-01	4.064040e+13	1.530998e+14	8.373969e+13	6.810541e+03	2.692619e+03	1.925421e+03	0	4.177839e-04
1.080000e+09	1.264363e+12	0.000000e+00	4.873950e-01	4.020691e+13	1.520070e+14	8.337122e+13	6.799510e+03	2.690777e+03	1.924105e+03	0	4.160171e-04
1.090000e+09	1.248491e+12	0.000000e+00	4.873950e-01	3.978151e+13	1.509307e+14	8.300523e+13	6.788596e+03	2.688955e+03	1.922801e+03	0	4.142690e-04
1.100000e+09	1.232916e+12	0.000000e+00	4.873950e-01	3.936397e+13	1.498706e+14	8.264169e+13	6.777797e+03	2.687150e+03	1.921511e+03	0	4.125391e-04
1.110000e+09	1.217631e+12	0.000000e+00	4.873950e-01	3.895409e+13	1.488262e+14	8.228060e+13	6.767111e+03	2.685363e+03	1.920233e+03	0	4.108271e-04
1.120000e+09	1.202626e+12	0.000000e+00	4.873950e-01	3.855167e+13	1.477972e+14	8.192192e+13	6.756536e+03	2.683593e+03	1.918967e+03	0	4.091327e-04
1.130000e+09	1.187896e+12	0.000000e+00	4.873950e-01	3.815651e+13	1.467832e+14	8.156564e+13	6.746070e+03	2.681840e+03	1.917714e+03	0	4.074554e-04
1.140000e+09	1.173434e+12	0.000000e+00	4.873950e-01	3.776844e+13	1.457839e+14	8.121175e+13	6.735711e+03	2.680104e+03	1.916473e+03	0	4.057951e-04
1.150000e+09	1.159231e+12	0.000000e+00	4.873950e-01	3.738726e+13	1.447989e+14	8.086022e+13	6.725456e+03	2.678385e+03	1.915243e+03	0	4.041513e-04
1.160000e+09	1.145283e+12	0.000000e+00	4.873950e-01	3.701281e+13	1.438279e+14	8.051103e+13	6.715305e+03	2.676681e+03	1.914025e+03	0	4.025237e-04
1.170000e+09	1.131582e+12	0.000000e+00	4.873950e-01	3.664492e+13	1.428705e+14	8.016417e+13	6.705255e+03	2.674993e+03	1.912818e+03	0	4.009121e-04
1.180000e+09	1.118121e+12	0.000000e+00	4.873950e-01	3.628342e+13	1.419265e+14	7.981961e+13	6.695305e+03	2.673321e+03	1.911622e+03	0	3.993162e-04
1.190000e+09	1.104897e+12	0.000000e+00	4.873950e-01	3.592815e+13	1.409955e+14	7.947735e+13	6.685452e+03	2.671664e+03	1.910437e+03	0	3.977356e-04
1.200000e+09	1.091901e+12	0.000000e+00	4.873950e-01	3.557897e+13	1.400773e+14	7.913736e+13	6.675696e+03	2.670022e+03	1.909263e+03	0	3.961701e-04
1.210000e+09	1.079129e+12	0.000000e+00	4.873950e-01	3.523572e+13	1.391715e+14	7.879962e+13	6.666034e+03	2.668394e+03	1.908099e+03	0	3.946194e-04
1.220000e+09	1.066576e+12	0.000000e+00	4.873950e-01	3.489826e+13	1.382779e+14	7.846412e+13	6.656465e+03	2.666780e+03	1.906945e+03	0	3.930832e-04
1.230000e+09	1.054235e+12	0.000000e+00	4.873950e-01	3.456645e+13	1.373963e+14	7.813085e+13	6.646987e+03	2.665181e+03	1.905801e+03	0	3.915613e-04
1.240000e+09	1.042103e+12	0.000000e+00	4.873950e-01	3.424016e+13	1.365263e+14	7.779977e+13	6.637599e+03	2.663595e+03	1.904667e+03	0	3.900535e-04
1.250000e+09	1.030174e+12	0.000000e+00	4.873950e-01	3.391926e+13	1.356677e+14	7.747088e+13	6.628300e+03	2.662023e+03	1.903543e+03	0	3.885594e-04
1.260000e+09	1.018442e+12	0.000000e+00	4.873950e-01	3.360362e+13	1.348203e+14	7.714416e+13	6.619087e+03	2.660464e+03	1.902429e+03	0	3.870788e-04
1.270000e+09	1.006905e+12	0.000000e+00	4.873950e-01	3.329311e+13	1.339838e+14	7.681959e+13	6.609960e+03	2.658918e+03	1.901323e+03	0	3.856116e-04
1.280000e+09	9.955564e+11	0.000000e+00	4.873950e-01	3.298763e+13	1.331580e+14	7.649715e+13	6.600917e+03	2.657385e+03	1.900227e+03	0	3.841574e-04
1.290000e+09	9.843926e+11	0.000000e+00	4.873950e-01	3.268704e+13	1.323428e+14	7.617684e+13	6.591956e+03	2.655865e+03	1.899140e+03	0	3.827161e-04
1.300000e+09	9.734092e+11	0.000000e+00	4.873950e-01	3.239125e+13	1.315377e+14	7.585862e+13	6.583077e+03	2.654357e+03	1.898062e+03	0	3.812874e-04
1.310000e+09	9.626022e+11	0.000000e+00	4.873950e-01	3.210014e+13	1.307428e+14	7.554250e+13	6.574278e+03	2.652861e+03	1.896992e+03	0	3.798711e-04
1.320000e+09	9.519675e+11	0.000000e+00	4.873950e-01	3.181361e+13	1.299576e+14	7.522844e+13	6.565558e+03	2.651377e+03	1.895931e+03	0	3.784670e-04
1.330000e+09	9.415013e+11	0.000000e+00	4.873950e-01	3.153155e+13	1.291822e+14	7.491644e+13	6.556916e+03	2.649905e+03	1.894878e+03	0	3.770749e-04
1.340000e+09	9.311998e+11	0.000000e+00	4.873950e-01	3.125387e+13	1.284162e+14	7.460647e+13	6.548350e+03	2.648445e+03	1.893834e+03	0	3.756945e-04
1.350000e+09	9.210594e+11	0.000000e+00	4.873950e-01	3.098046e+13	1.276595e+14	7.429853e+13	6.539859e+03	2.646996e+03	1.892798e+03	0	3.743258e-04
1.360000e+09	9.110764e+11	0.000000e+00	4.873950e-01	3.071124e+13	1.269118e+14	7.399260e+13	6.531442e+03	2.645558e+03	1.891769e+03	0	3.729685e-04
