#t		Qconv[W]	Ri[Rp]		R*[Rp]		Qc[W]		Qm[W]		Qr[W]		Tcmb[K]		Tl[K]		Tup[K]		RiFlag		Bs[T]
0.000000e+00	4.657660e+13	0.000000e+00	4.873947e-01	1.023895e+15	1.733418e+15	1.876101e+14	1.294164e+04	3.761709e+03	2.581174e+03	0	1.361880e-03
1.000000e+07	4.310366e+13	0.000000e+00	4.873947e-01	9.489800e+14	1.631712e+15	1.865706e+14	1.274335e+04	3.737227e+03	2.564375e+03	0	1.327153e-03
2.000000e+07	4.003484e+13	0.000000e+00	4.873947e-01	8.827652e+14	1.539942e+15	1.855389e+14	1.255923e+04	3.713880e+03	2.548356e+03	0	1.294878e-03
3.000000e+07	3.730808e+13	0.000000e+00	4.873947e-01	8.239159e+14	1.456903e+15	1.845149e+14	1.238768e+04	3.691624e+03	2.533084e+03	0	1.264786e-03
4.000000e+07	3.487290e+13	0.000000e+00	4.873947e-01	7.713464e+14	1.381546e+15	1.834985e+14	1.222732e+04	3.670405e+03	2.518525e+03	0	1.236646e-03
5.000000e+07	3.268791e+13	0.000000e+00	4.873947e-01	7.241657e+14	1.312959e+15	1.824897e+14	1.207699e+04	3.650168e+03	2.504639e+03	0	1.210260e-03
6.000000e+07	3.071890e+13	0.000000e+00	4.873947e-01	6.816378e+14	1.250355e+15	1.814884e+14	1.193568e+04	3.630856e+03	2.491387e+03	0	1.185454e-03
7.000000e+07	2.893738e+13	0.000000e+00	4.873947e-01	6.431496e+14	1.193051e+15	1.804946e+14	1.180251e+04	3.612413e+03	2.478732e+03	0	1.162080e-03
8.000000e+07	2.731948e+13	0.000000e+00	4.873947e-01	6.081871e+14	1.140455e+15	1.795082e+14	1.167673e+04	3.594785e+03	2.466636e+03	0	1.140006e-03
9.000000e+07	2.584506e+13	0.000000e+00	4.873947e-01	5.763169e+14	1.092053e+15	1.785291e+14	1.155767e+04	3.577921e+03	2.455065e+03	0	1.119117e-03
1.000000e+08	2.449703e+13	0.000000e+00	4.873947e-01	5.471713e+14	1.047398e+15	1.775573e+14	1.144474e+04	3.561775e+03	2.443986e+03	0	1.099311e-03
1.100000e+08	2.326083e+13	0.000000e+00	4.873947e-01	5.204364e+14	1.006101e+15	1.765927e+14	1.133743e+04	3.546301e+03	2.433368e+03	0	1.080499e-03
1.200000e+08	2.212395e+13	0.000000e+00	4.873947e-01	4.958430e+14	9.678207e+14	1.756353e+14	1.123528e+04	3.531458e+03	2.423183e+03	0	1.062601e-03
1.300000e+08	2.107563e+13	0.000000e+00	4.873947e-01	4.731593e+14	9.322577e+14	1.746849e+14	1.113788e+04	3.517208e+03	2.413405e+03	0	1.045546e-03
1.400000e+08	2.010653e+13	0.000000e+00	4.873947e-01	4.521844e+14	8.991496e+14	1.737416e+14	1.104488e+04	3.503513e+03	2.404008e+03	0	1.029268e-03
1.500000e+08	1.920856e+13	0.000000e+00	4.873947e-01	4.327438e+14	8.682644e+14	1.728052e+14	1.095594e+04	3.490342e+03	2.394970e+03	0	1.013712e-03
1.600000e+08	1.837464e+13	0.000000e+00	4.873947e-01	4.146850e+14	8.393973e+14	1.718758e+14	1.087076e+04	3.477663e+03	2.386271e+03	0	9.988242e-04
1.700000e+08	1.759856e+13	0.000000e+00	4.873947e-01	3.978745e+14	8.123668e+14	1.709532e+14	1.078910e+04	3.465448e+03	2.377889e+03	0	9.845594e-04
1.800000e+08	1.687489e+13	0.000000e+00	4.873947e-01	3.821947e+14	7.870112e+14	1.700374e+14	1.071070e+04	3.453671e+03	2.369808e+03	0	9.708746e-04
1.900000e+08	1.619879e+13	0.000000e+00	4.873947e-01	3.675420e+14	7.631869e+14	1.691284e+14	1.063535e+04	3.442307e+03	2.362010e+03	0	9.577314e-04
2.000000e+08	1.556602e+13	0.000000e+00	4.873947e-01	3.538245e+14	7.407651e+14	1.682260e+14	1.056286e+04	3.431332e+03	2.354480e+03	0	9.450948e-04
2.100000e+08	1.497279e+13	0.000000e+00	4.873947e-01	3.409607e+14	7.196307e+14	1.673303e+14	1.049303e+04	3.420727e+03	2.347203e+03	0	9.329329e-04
2.200000e+08	1.441573e+13	0.000000e+00	4.873947e-01	3.288779e+14	6.996805e+14	1.664412e+14	1.042572e+04	3.410471e+03	2.340165e+03	0	9.212164e-04
2.300000e+08	1.389181e+13	0.000000e+00	4.873947e-01	3.175111e+14	6.808214e+14	1.655585e+14	1.036076e+04	3.400546e+03	2.333355e+03	0	9.099185e-04
2.400000e+08	1.339836e+13	0.000000e+00	4.873947e-01	3.068022e+14	6.629695e+14	1.646824e+14	1.029802e+04	3.390935e+03	2.326760e+03	0	8.990145e-04
2.500000e+08	1.293294e+13	0.000000e+00	4.873947e-01	2.966989e+14	6.460490e+14	1.638127e+14	1.023738e+04	3.381622e+03	2.320370e+03	0	8.884818e-04
2.600000e+08	1.249337e+13	0.000000e+00	4.873947e-01	2.871542e+14	6.299914e+14	1.629493e+14	1.017871e+04	3.372592e+03	2.314174e+03	0	8.782996e-04
2.700000e+08	1.207768e+13	0.000000e+00	4.873947e-01	2.781257e+14	6.147343e+14	1.620923e+14	1.012191e+04	3.363832e+03	2.308163e+03	0	8.684484e-04
2.800000e+08	1.168410e+13	0.000000e+00	4.873947e-01	2.695748e+14	6.002211e+14	1.612415e+14	1.006687e+04	3.355328e+03	2.302327e+03	0	8.589105e-04
2.900000e+08	1.131100e+13	0.000000e+00	4.873947e-01	2.614670e+14	5.864001e+14	1.603969e+14	1.001351e+04	3.347068e+03	2.296660e+03	0	8.496692e-04
3.000000e+08	1.095694e+13	0.000000e+00	4.873947e-01	2.537704e+14	5.732245e+14	1.595585e+14	9.961739e+03	3.339041e+03	2.291152e+03	0	8.407093e-04
3.100000e+08	1.062056e+13	0.000000e+00	4.873947e-01	2.464564e+14	5.606510e+14	1.587262e+14	9.911477e+03	3.331236e+03	2.285796e+03	0	8.320165e-04
3.200000e+08	1.030065e+13	0.000000e+00	4.873947e-01	2.394986e+14	5.486403e+14	1.578999e+14	9.862650e+03	3.323643e+03	2.280587e+03	0	8.235774e-04
3.300000e+08	9.996114e+12	0.000000e+00	4.873947e-01	2.328732e+14	5.371563e+14	1.570797e+14	9.815188e+03	3.316253e+03	2.275516e+03	0	8.153797e-04
3.400000e+08	9.705921e+12	0.000000e+00	4.873947e-01	2.265582e+14	5.261658e+14	1.562654e+14	9.769027e+03	3.309057e+03	2.270578e+03	0	8.074118e-04
3.500000e+08	9.429144e+12	0.000000e+00	4.873947e-01	2.205335e+14	5.156382e+14	1.554570e+14	9.724106e+03	3.302047e+03	2.265768e+03	0	7.996628e-04
3.600000e+08	9.164927e+12	0.000000e+00	4.873947e-01	2.147805e+14	5.055453e+14	1.546545e+14	9.680370e+03	3.295214e+03	2.261079e+03	0	7.921228e-04
3.700000e+08	8.912484e+12	0.000000e+00	4.873947e-01	2.092825e+14	4.958613e+14	1.538578e+14	9.637764e+03	3.288551e+03	2.256507e+03	0	7.847821e-04
3.800000e+08	8.671091e+12	0.000000e+00	4.873947e-01	2.040235e+14	4.865621e+14	1.530669e+14	9.596240e+03	3.282051e+03	2.252047e+03	0	7.776319e-04
3.900000e+08	8.440078e+12	0.000000e+00	4.873947e-01	1.989894e+14	4.776255e+14	1.522816e+14	9.555751e+03	3.275708e+03	2.247695e+03	0	7.706638e-04
4.000000e+08	8.218830e+12	0.000000e+00	4.873947e-01	1.941667e+14	4.690309e+14	1.515021e+14	9.516252e+03	3.269515e+03	2.243445e+03	0	7.638701e-04
4.100000e+08	8.006775e+12	0.000000e+00	4.873947e-01	1.895431e+14	4.607593e+14	1.507281e+14	9.477703e+03	3.263467e+03	2.239295e+03	0	7.572432e-04
4.200000e+08	7.803385e+12	0.000000e+00	4.873947e-01	1.851071e+14	4.527930e+14	1.499598e+14	9.440064e+03	3.257557e+03	2.235240e+03	0	7.507762e-04
4.300000e+08	7.608170e+12	0.000000e+00	4.873947e-01	1.808483e+14	4.451154e+14	1.491970e+14	9.403300e+03	3.251781e+03	2.231277e+03	0	7.444626e-04
4.400000e+08	7.420675e+12	0.000000e+00	4.873947e-01	1.767568e+14	4.377112e+14	1.484396e+14	9.367374e+03	3.246133e+03	2.227401e+03	0	7.382962e-04
4.500000e+08	7.240476e+12	0.000000e+00	4.873947e-01	1.728233e+14	4.305661e+14	1.476877e+14	9.332256e+03	3.240608e+03	2.223611e+03	0	7.322711e-04
4.600000e+08	7.067181e+12	0.000000e+00	4.873947e-01	1.690396e+14	4.236668e+14	1.469412e+14	9.297913e+03	3.235203e+03	2.219902e+03	0	7.263817e-04
4.700000e+08	6.900422e+12	0.000000e+00	4.873947e-01	1.653975e+14	4.170008e+14	1.462001e+14	9.264316e+03	3.229912e+03	2.216271e+03	0	7.206229e-04
4.800000e+08	6.739859e+12	0.000000e+00	4.873947e-01	1.618897e+14	4.105565e+14	1.454643e+14	9.231438e+03	3.224732e+03	2.212717e+03	0	7.149897e-04
4.900000e+08	6.585170e+12	0.000000e+00	4.873947e-01	1.585093e+14	4.043229e+14	1.447337e+14	9.199252e+03	3.219659e+03	2.209235e+03	0	7.094773e-04
5.000000e+08	6.436058e+12	0.000000e+00	4.873947e-01	1.552498e+14	3.982899e+14	1.440084e+14	9.167734e+03	3.214688e+03	2.205825e+03	0	7.040813e-04
5.100000e+08	6.292244e+12	0.000000e+00	4.873947e-01	1.521053e+14	3.924479e+14	1.432882e+14	9.136859e+03	3.209817e+03	2.202482e+03	0	6.987975e-04
5.200000e+08	6.153465e+12	0.000000e+00	4.873947e-01	1.490700e+14	3.867879e+14	1.425732e+14	9.106605e+03	3.205042e+03	2.199206e+03	0	6.936218e-04
5.300000e+08	6.019478e+12	0.000000e+00	4.873947e-01	1.461387e+14	3.813014e+14	1.418633e+14	9.076951e+03	3.200359e+03	2.195993e+03	0	6.885505e-04
5.400000e+08	5.890052e+12	0.000000e+00	4.873947e-01	1.433064e+14	3.759805e+14	1.411584e+14	9.047876e+03	3.195766e+03	2.192841e+03	0	6.835798e-04
5.500000e+08	5.764971e+12	0.000000e+00	4.873947e-01	1.405684e+14	3.708178e+14	1.404586e+14	9.019361e+03	3.191260e+03	2.189749e+03	0	6.787063e-04
5.600000e+08	5.644033e+12	0.000000e+00	4.873947e-01	1.379203e+14	3.658062e+14	1.397637e+14	8.991387e+03	3.186837e+03	2.186714e+03	0	6.739267e-04
5.700000e+08	5.527045e+12	0.000000e+00	4.873947e-01	1.353580e+14	3.609390e+14	1.390738e+14	8.963937e+03	3.182496e+03	2.183735e+03	0	6.692379e-04
5.800000e+08	5.413829e+12	0.000000e+00	4.873947e-01	1.328775e+14	3.562101e+14	1.383887e+14	8.936994e+03	3.178233e+03	2.180810e+03	0	6.646367e-04
5.900000e+08	5.304216e+12	0.000000e+00	4.873947e-01	1.304754e+14	3.516135e+14	1.377085e+14	8.910541e+03	3.174046e+03	2.177937e+03	0	6.601205e-04
6.000000e+08	5.198045e+12	0.000000e+00	4.873947e-01	1.281480e+14	3.471437e+14	1.370332e+14	8.884563e+03	3.169933e+03	2.175115e+03	0	6.556864e-04
6.100000e+08	5.095166e+12	0.000000e+00	4.873947e-01	1.258921e+14	3.427953e+14	1.363626e+14	8.859046e+03	3.165892e+03	2.172342e+03	0	6.513318e-04
6.200000e+08	4.995437e+12	0.000000e+00	4.873947e-01	1.237047e+14	3.385634e+14	1.356967e+14	8.833976e+03	3.161919e+03	2.169616e+03	0	6.470542e-04
6.300000e+08	4.898723e+12	0.000000e+00	4.873947e-01	1.215828e+14	3.344432e+14	1.350356e+14	8.809339e+03	3.158014e+03	2.166937e+03	0	6.428512e-04
6.400000e+08	4.804898e+12	0.000000e+00	4.873947e-01	1.195237e+14	3.304304e+14	1.343791e+14	8.785121e+03	3.154174e+03	2.164302e+03	0	6.387205e-04
6.500000e+08	4.713840e+12	0.000000e+00	4.873947e-01	1.175248e+14	3.265206e+14	1.337272e+14	8.761312e+03	3.150397e+03	2.161710e+03	0	6.346600e-04
6.600000e+08	4.625437e+12	0.000000e+00	4.873947e-01	1.155835e+14	3.227098e+14	1.330799e+14	8.737898e+03	3.146682e+03	2.159161e+03	0	6.306674e-04
6.700000e+08	4.539579e+12	0.000000e+00	4.873947e-01	1.136977e+14	3.189943e+14	1.324372e+14	8.714869e+03	3.143026e+03	2.156652e+03	0	6.267409e-04
6.800000e+08	4.456165e+12	0.000000e+00	4.873947e-01	1.118649e+14	3.153703e+14	1.317990e+14	8.692214e+03	3.139428e+03	2.154183e+03	0	6.228784e-04
6.900000e+08	4.375098e+12	0.000000e+00	4.873947e-01	1.100833e+14	3.118345e+14	1.311653e+14	8.669922e+03	3.135886e+03	2.151753e+03	0	6.190781e-04
7.000000e+08	4.296285e+12	0.000000e+00	4.873947e-01	1.083506e+14	3.083835e+14	1.305360e+14	8.647983e+03	3.132400e+03	2.149361e+03	0	6.153382e-04
7.100000e+08	4.219639e+12	0.000000e+00	4.873947e-01	1.066652e+14	3.050143e+14	1.299111e+14	8.626387e+03	3.128966e+03	2.147005e+03	0	6.116570e-04
7.200000e+08	4.145077e+12	0.000000e+00	4.873947e-01	1.050250e+14	3.017239e+14	1.292906e+14	8.605126e+03	3.125584e+03	2.144684e+03	0	6.080328e-04
7.300000e+08	4.072519e+12	0.000000e+00	4.873947e-01	1.034286e+14	2.985094e+14	1.286744e+14	8.584189e+03	3.122252e+03	2.142398e+03	0	6.044641e-04
7.400000e+08	4.001890e+12	0.000000e+00	4.873947e-01	1.018741e+14	2.953682e+14	1.280625e+14	8.563570e+03	3.118970e+03	2.140145e+03	0	6.009494e-04
7.500000e+08	3.933119e+12	0.000000e+00	4.873947e-01	1.003600e+14	2.922977e+14	1.274549e+14	8.543258e+03	3.115735e+03	2.137926e+03	0	5.974871e-04
7.600000e+08	3.866137e+12	0.000000e+00	4.873947e-01	9.888494e+13	2.892954e+14	1.268515e+14	8.523247e+03	3.112546e+03	2.135738e+03	0	5.940759e-04
7.700000e+08	3.800879e+12	0.000000e+00	4.873947e-01	9.744741e+13	2.863590e+14	1.262523e+14	8.503529e+03	3.109402e+03	2.133581e+03	0	5.907143e-04
7.800000e+08	3.737283e+12	0.000000e+00	4.873947e-01	9.604609e+13	2.834863e+14	1.256573e+14	8.484096e+03	3.106303e+03	2.131454e+03	0	5.874012e-04
7.900000e+08	3.675290e+12	0.000000e+00	4.873947e-01	9.467970e+13	2.806751e+14	1.250664e+14	8.464941e+03	3.103246e+03	2.129357e+03	0	5.841352e-04
8.000000e+08	3.614843e+12	0.000000e+00	4.873947e-01	9.334699e+13	2.779234e+14	1.244796e+14	8.446057e+03	3.100232e+03	2.127288e+03	0	5.809151e-04
8.100000e+08	3.555888e+12	0.000000e+00	4.873947e-01	9.204682e+13	2.752292e+14	1.238969e+14	8.427437e+03	3.097258e+03	2.125247e+03	0	5.777397e-04
8.200000e+08	3.498375e+12	0.000000e+00	4.873947e-01	9.077805e+13	2.725908e+14	1.233182e+14	8.409076e+03	3.094323e+03	2.123234e+03	0	5.746079e-04
8.300000e+08	3.442252e+12	0.000000e+00	4.873947e-01	8.953962e+13	2.700062e+14	1.227435e+14	8.390967e+03	3.091428e+03	2.121247e+03	0	5.715186e-04
8.400000e+08	3.387474e+12	0.000000e+00	4.873947e-01	8.833050e+13	2.674738e+14	1.221728e+14	8.373103e+03	3.088570e+03	2.119286e+03	0	5.684708e-04
8.500000e+08	3.333996e+12	0.000000e+00	4.873947e-01	8.714972e+13	2.649920e+14	1.216060e+14	8.355480e+03	3.085749e+03	2.117351e+03	0	5.654634e-04
8.600000e+08	3.281773e+12	0.000000e+00	4.873947e-01	8.599634e+13	2.625591e+14	1.210431e+14	8.338091e+03	3.082964e+03	2.115440e+03	0	5.624954e-04
8.700000e+08	3.230765e+12	0.000000e+00	4.873947e-01	8.486946e+13	2.601737e+14	1.204841e+14	8.320931e+03	3.080214e+03	2.113553e+03	0	5.595660e-04
8.800000e+08	3.180933e+12	0.000000e+00	4.873947e-01	8.376822e+13	2.578343e+14	1.199290e+14	8.303995e+03	3.077499e+03	2.111689e+03	0	5.566741e-04
8.900000e+08	3.132237e+12	0.000000e+00	4.873947e-01	8.269181e+13	2.555395e+14	1.193776e+14	8.287278e+03	3.074817e+03	2.109849e+03	0	5.538188e-04
9.000000e+08	3.084643e+12	0.000000e+00	4.873947e-01	8.163942e+13	2.532880e+14	1.188301e+14	8.270774e+03	3.072168e+03	2.108031e+03	0	5.509994e-04
9.100000e+08	3.038114e+12	0.000000e+00	4.873947e-01	8.061030e+13	2.510786e+14	1.182863e+14	8.254480e+03	3.069550e+03	2.106235e+03	0	5.482149e-04
9.200000e+08	2.992618e+12	0.000000e+00	4.873947e-01	7.960373e+13	2.489099e+14	1.177462e+14	8.238390e+03	3.066964e+03	2.104461e+03	0	5.454647e-04
9.300000e+08	2.948123e+12	0.000000e+00	4.873947e-01	7.861901e+13	2.467809e+14	1.172098e+14	8.222501e+03	3.064409e+03	2.102707e+03	0	5.427477e-04
9.400000e+08	2.904597e+12	0.000000e+00	4.873947e-01	7.765546e+13	2.446904e+14	1.166771e+14	8.206807e+03	3.061883e+03	2.100974e+03	0	5.400635e-04
9.500000e+08	2.862011e+12	0.000000e+00	4.873947e-01	7.671245e+13	2.426372e+14	1.161480e+14	8.191304e+03	3.059386e+03	2.099261e+03	0	5.374111e-04
9.600000e+08	2.820337e+12	0.000000e+00	4.873947e-01	7.578936e+13	2.406204e+14	1.156225e+14	8.175989e+03	3.056918e+03	2.097568e+03	0	5.347899e-04
9.700000e+08	2.779547e+12	0.000000e+00	4.873947e-01	7.488558e+13	2.386389e+14	1.151006e+14	8.160858e+03	3.054478e+03	2.095893e+03	0	5.321991e-04
9.800000e+08	2.739615e+12	0.000000e+00	4.873947e-01	7.400055e+13	2.366917e+14	1.145823e+14	8.145906e+03	3.052065e+03	2.094238e+03	0	5.296382e-04
9.900000e+08	2.700515e+12	0.000000e+00	4.873947e-01	7.313373e+13	2.347780e+14	1.140675e+14	8.131130e+03	3.049679e+03	2.092600e+03	0	5.271065e-04
1.000000e+09	2.662223e+12	0.000000e+00	4.873947e-01	7.228457e+13	2.328967e+14	1.135561e+14	8.116527e+03	3.047319e+03	2.090981e+03	0	5.246033e-04
1.010000e+09	2.624717e+12	0.000000e+00	4.873947e-01	7.145257e+13	2.310472e+14	1.130483e+14	8.102093e+03	3.044985e+03	2.089379e+03	0	5.221280e-04
1.020000e+09	2.587972e+12	0.000000e+00	4.873947e-01	7.063724e+13	2.292284e+14	1.125439e+14	8.087824e+03	3.042675e+03	2.087794e+03	0	5.196800e-04
1.030000e+09	2.551968e+12	0.000000e+00	4.873947e-01	6.983811e+13	2.274396e+14	1.120428e+14	8.073717e+03	3.040390e+03	2.086227e+03	0	5.172588e-04
1.040000e+09	2.516684e+12	0.000000e+00	4.873947e-01	6.905472e+13	2.256800e+14	1.115452e+14	8.059769e+03	3.038130e+03	2.084675e+03	0	5.148638e-04
1.050000e+09	2.482099e+12	0.000000e+00	4.873947e-01	6.828663e+13	2.239489e+14	1.110510e+14	8.045977e+03	3.035892e+03	2.083140e+03	0	5.124945e-04
1.060000e+09	2.448194e+12	0.000000e+00	4.873947e-01	6.753343e+13	2.222455e+14	1.105600e+14	8.032338e+03	3.033678e+03	2.081621e+03	0	5.101502e-04
1.070000e+09	2.414950e+12	0.000000e+00	4.873947e-01	6.679469e+13	2.205691e+14	1.100724e+14	8.018848e+03	3.031486e+03	2.080117e+03	0	5.078306e-04
1.080000e+09	2.382349e+12	0.000000e+00	4.873947e-01	6.607003e+13	2.189191e+14	1.095881e+14	8.005506e+03	3.029317e+03	2.078628e+03	0	5.055350e-04
1.090000e+09	2.350373e+12	0.000000e+00	4.873947e-01	6.535907e+13	2.172948e+14	1.091070e+14	7.992308e+03	3.027169e+03	2.077155e+03	0	5.032631e-04
1.100000e+09	2.319007e+12	0.000000e+00	4.873947e-01	6.466144e+13	2.156956e+14	1.086292e+14	7.979251e+03	3.025042e+03	2.075695e+03	0	5.010144e-04
1.110000e+09	2.288233e+12	0.000000e+00	4.873947e-01	6.397679e+13	2.141207e+14	1.081545e+14	7.966333e+03	3.022937e+03	2.074251e+03	0	4.987883e-04
1.120000e+09	2.258035e+12	0.000000e+00	4.873947e-01	6.330477e+13	2.125698e+14	1.076830e+14	7.953552e+03	3.020851e+03	2.072820e+03	0	4.965844e-04
1.130000e+09	2.228400e+12	0.000000e+00	4.873947e-01	6.264505e+13	2.110421e+14	1.072147e+14	7.940904e+03	3.018786e+03	2.071403e+03	0	4.944024e-04
1.140000e+09	2.199311e+12	0.000000e+00	4.873947e-01	6.199732e+13	2.095372e+14	1.067495e+14	7.928387e+03	3.016741e+03	2.069999e+03	0	4.922417e-04
1.150000e+09	2.170755e+12	0.000000e+00	4.873947e-01	6.136127e+13	2.080544e+14	1.062875e+14	7.916000e+03	3.014715e+03	2.068609e+03	0	4.901020e-04
1.160000e+09	2.142718e+12	0.000000e+00	4.873947e-01	6.073660e+13	2.065933e+14	1.058285e+14	7.903739e+03	3.012707e+03	2.067231e+03	0	4.879828e-04
1.170000e+09	2.115187e+12	0.000000e+00	4.873947e-01	6.012301e+13	2.051534e+14	1.053725e+14	7.891603e+03	3.010719e+03	2.065867e+03	0	4.858838e-04
1.180000e+09	2.088149e+12	0.000000e+00	4.873947e-01	5.952024e+13	2.037342e+14	1.049196e+14	7.879588e+03	3.008748e+03	2.064515e+03	0	4.838046e-04
1.190000e+09	2.061592e+12	0.000000e+00	4.873947e-01	5.892800e+13	2.023352e+14	1.044697e+14	7.867694e+03	3.006796e+03	2.063175e+03	0	4.817448e-04
1.200000e+09	2.035503e+12	0.000000e+00	4.873947e-01	5.834605e+13	2.009559e+14	1.040228e+14	7.855918e+03	3.004861e+03	2.061847e+03	0	4.797041e-04
1.210000e+09	2.009871e+12	0.000000e+00	4.873947e-01	5.777412e+13	1.995960e+14	1.035789e+14	7.844257e+03	3.002943e+03	2.060531e+03	0	4.776820e-04
1.220000e+09	1.984685e+12	0.000000e+00	4.873947e-01	5.721197e+13	1.982549e+14	1.031379e+14	7.832711e+03	3.001042e+03	2.059227e+03	0	4.756784e-04
1.230000e+09	1.959934e+12	0.000000e+00	4.873947e-01	5.665936e+13	1.969323e+14	1.026998e+14	7.821276e+03	2.999158e+03	2.057934e+03	0	4.736927e-04
1.240000e+09	1.935608e+12	0.000000e+00	4.873947e-01	5.611607e+13	1.956278e+14	1.022646e+14	7.809952e+03	2.997290e+03	2.056653e+03	0	4.717247e-04
1.250000e+09	1.911695e+12	0.000000e+00	4.873947e-01	5.558187e+13	1.943409e+14	1.018323e+14	7.798736e+03	2.995439e+03	2.055382e+03	0	4.697741e-04
1.260000e+09	1.888187e+12	0.000000e+00	4.873947e-01	5.505654e+13	1.930714e+14	1.014029e+14	7.787626e+03	2.993603e+03	2.054122e+03	0	4.678405e-04
1.270000e+09	1.865073e+12	0.000000e+00	4.873947e-01	5.453989e+13	1.918187e+14	1.009762e+14	7.776621e+03	2.991782e+03	2.052873e+03	0	4.659237e-04
1.280000e+09	1.842345e+12	0.000000e+00	4.873947e-01	5.403169e+13	1.905826e+14	1.005524e+14	7.765718e+03	2.989977e+03	2.051635e+03	0	4.640233e-04
1.290000e+09	1.819992e+12	0.000000e+00	4.873947e-01	5.353176e+13	1.893627e+14	1.001314e+14	7.754917e+03	2.988187e+03	2.050406e+03	0	4.621391e-04
1.300000e+09	1.798008e+12	0.000000e+00	4.873947e-01	5.303990e+13	1.881587e+14	9.971308e+13	7.744216e+03	2.986412e+03	2.049188e+03	0	4.602707e-04
1.310000e+09	1.776382e+12	0.000000e+00	4.873947e-01	5.255594e+13	1.869703e+14	9.929754e+13	7.733613e+03	2.984651e+03	2.047980e+03	0	4.584180e-04
1.320000e+09	1.755108e+12	0.000000e+00	4.873947e-01	5.207968e+13	1.857971e+14	9.888473e+13	7.723106e+03	2.982904e+03	2.046782e+03	0	4.565806e-04
1.330000e+09	1.734176e+12	0.000000e+00	4.873947e-01	5.161097e+13	1.846388e+14	9.847461e+13	7.712694e+03	2.981172e+03	2.045593e+03	0	4.547582e-04
1.340000e+09	1.713579e+12	0.000000e+00	4.873947e-01	5.114962e+13	1.834951e+14	9.806718e+13	7.702375e+03	2.979453e+03	2.044413e+03	0	4.529507e-04
1.350000e+09	1.693310e+12	0.000000e+00	4.873947e-01	5.069547e+13	1.823657e+14	9.766240e+13	7.692149e+03	2.977748e+03	2.043243e+03	0	4.511576e-04
1.360000e+09	1.673361e+12	0.000000e+00	4.873947e-01	5.024836e+13	1.812504e+14	9.726026e+13	7.682013e+03	2.976056e+03	2.042082e+03	0	4.493789e-04
