#t		Qconv[W]	Ri[Rp]		R*[Rp]		Qc[W]		Qm[W]		Qr[W]		Tcmb[K]		Tl[K]		Tup[K]		RiFlag		Bs[T]
0.000000e+00	9.747038e+13	0.000000e+00	4.830509e-01	1.798317e+15	1.893599e+15	2.497279e+14	1.642791e+04	4.173761e+03	2.734446e+03	0	1.736042e-03
1.000000e+07	9.046331e+13	0.000000e+00	4.830509e-01	1.672109e+15	1.869158e+15	2.483442e+14	1.616825e+04	4.179393e+03	2.738136e+03	0	1.693403e-03
2.000000e+07	8.420473e+13	0.000000e+00	4.830509e-01	1.559349e+15	1.836482e+15	2.469709e+14	1.592638e+04	4.181254e+03	2.739356e+03	0	1.653414e-03
3.000000e+07	7.859292e+13	0.000000e+00	4.830509e-01	1.458211e+15	1.798042e+15	2.456078e+14	1.570046e+04	4.180132e+03	2.738620e+03	0	1.615836e-03
4.000000e+07	7.354244e+13	0.000000e+00	4.830509e-01	1.367163e+15	1.755765e+15	2.442549e+14	1.548888e+04	4.176658e+03	2.736344e+03	0	1.580455e-03
5.000000e+07	6.898123e+13	0.000000e+00	4.830509e-01	1.284909e+15	1.711137e+15	2.429121e+14	1.529023e+04	4.171339e+03	2.732860e+03	0	1.547081e-03
6.000000e+07	6.484818e+13	0.000000e+00	4.830509e-01	1.210354e+15	1.665285e+15	2.415793e+14	1.510330e+04	4.164581e+03	2.728432e+03	0	1.515544e-03
7.000000e+07	6.109128e+13	0.000000e+00	4.830509e-01	1.142562e+15	1.619055e+15	2.402565e+14	1.492701e+04	4.156709e+03	2.723275e+03	0	1.485693e-03
8.000000e+07	5.766605e+13	0.000000e+00	4.830509e-01	1.080736e+15	1.573069e+15	2.389434e+14	1.476040e+04	4.147984e+03	2.717559e+03	0	1.457391e-03
9.000000e+07	5.453432e+13	0.000000e+00	4.830509e-01	1.024190e+15	1.527780e+15	2.376402e+14	1.460266e+04	4.138617e+03	2.711422e+03	0	1.430516e-03
1.000000e+08	5.166319e+13	0.000000e+00	4.830509e-01	9.723321e+14	1.483509e+15	2.363466e+14	1.445302e+04	4.128775e+03	2.704974e+03	0	1.404957e-03
1.100000e+08	4.902421e+13	0.000000e+00	4.830509e-01	9.246519e+14	1.440476e+15	2.350626e+14	1.431083e+04	4.118595e+03	2.698304e+03	0	1.380616e-03
1.200000e+08	4.659267e+13	0.000000e+00	4.830509e-01	8.807053e+14	1.398825e+15	2.337881e+14	1.417551e+04	4.108184e+03	2.691483e+03	0	1.357402e-03
1.300000e+08	4.434706e+13	0.000000e+00	4.830509e-01	8.401057e+14	1.358643e+15	2.325231e+14	1.404651e+04	4.097630e+03	2.684569e+03	0	1.335235e-03
1.400000e+08	4.226857e+13	0.000000e+00	4.830509e-01	8.025150e+14	1.319974e+15	2.312674e+14	1.392337e+04	4.087004e+03	2.677607e+03	0	1.314040e-03
1.500000e+08	4.034070e+13	0.000000e+00	4.830509e-01	7.676368e+14	1.282829e+15	2.300211e+14	1.380566e+04	4.076361e+03	2.670634e+03	0	1.293751e-03
1.600000e+08	3.854895e+13	0.000000e+00	4.830509e-01	7.352102e+14	1.247198e+15	2.287839e+14	1.369299e+04	4.065746e+03	2.663680e+03	0	1.274306e-03
1.700000e+08	3.688050e+13	0.000000e+00	4.830509e-01	7.050051e+14	1.213052e+15	2.275558e+14	1.358501e+04	4.055196e+03	2.656768e+03	0	1.255649e-03
1.800000e+08	3.532405e+13	0.000000e+00	4.830509e-01	6.768178e+14	1.180353e+15	2.263368e+14	1.348141e+04	4.044738e+03	2.649917e+03	0	1.237731e-03
1.900000e+08	3.386952e+13	0.000000e+00	4.830509e-01	6.504674e+14	1.149052e+15	2.251268e+14	1.338190e+04	4.034394e+03	2.643140e+03	0	1.220504e-03
2.000000e+08	3.250799e+13	0.000000e+00	4.830509e-01	6.257933e+14	1.119097e+15	2.239257e+14	1.328621e+04	4.024182e+03	2.636450e+03	0	1.203925e-03
2.100000e+08	3.123147e+13	0.000000e+00	4.830509e-01	6.026518e+14	1.090433e+15	2.227334e+14	1.319411e+04	4.014115e+03	2.629854e+03	0	1.187956e-03
2.200000e+08	3.003283e+13	0.000000e+00	4.830509e-01	5.809146e+14	1.063003e+15	2.215499e+14	1.310537e+04	4.004203e+03	2.623360e+03	0	1.172559e-03
2.300000e+08	2.890567e+13	0.000000e+00	4.830509e-01	5.604666e+14	1.036751e+15	2.203750e+14	1.301979e+04	3.994452e+03	2.616972e+03	0	1.157703e-03
2.400000e+08	2.784425e+13	0.000000e+00	4.830509e-01	5.412045e+14	1.011619e+15	2.192088e+14	1.293719e+04	3.984868e+03	2.610693e+03	0	1.143355e-03
2.500000e+08	2.684338e+13	0.000000e+00	4.830509e-01	5.230350e+14	9.875526e+14	2.180511e+14	1.285739e+04	3.975454e+03	2.604525e+03	0	1.129489e-03
2.600000e+08	2.589841e+13	0.000000e+00	4.830509e-01	5.058741e+14	9.644989e+14	2.169019e+14	1.278025e+04	3.966212e+03	2.598470e+03	0	1.116076e-03
2.700000e+08	2.500511e+13	0.000000e+00	4.830509e-01	4.896458e+14	9.424064e+14	2.157611e+14	1.270561e+04	3.957143e+03	2.592528e+03	0	1.103093e-03
2.800000e+08	2.415964e+13	0.000000e+00	4.830509e-01	4.742811e+14	9.212258e+14	2.146286e+14	1.263333e+04	3.948245e+03	2.586699e+03	0	1.090518e-03
2.900000e+08	2.335854e+13	0.000000e+00	4.830509e-01	4.597175e+14	9.009103e+14	2.135044e+14	1.256330e+04	3.939519e+03	2.580982e+03	0	1.078329e-03
3.000000e+08	2.259864e+13	0.000000e+00	4.830509e-01	4.458981e+14	8.814152e+14	2.123884e+14	1.249540e+04	3.930961e+03	2.575376e+03	0	1.066506e-03
3.100000e+08	2.187706e+13	0.000000e+00	4.830509e-01	4.327709e+14	8.626982e+14	2.112805e+14	1.242952e+04	3.922571e+03	2.569879e+03	0	1.055032e-03
3.200000e+08	2.119118e+13	0.000000e+00	4.830509e-01	4.202886e+14	8.447190e+14	2.101807e+14	1.236556e+04	3.914345e+03	2.564490e+03	0	1.043889e-03
3.300000e+08	2.053859e+13	0.000000e+00	4.830509e-01	4.084078e+14	8.274398e+14	2.090888e+14	1.230343e+04	3.906281e+03	2.559206e+03	0	1.033062e-03
3.400000e+08	1.991708e+13	0.000000e+00	4.830509e-01	3.970890e+14	8.108246e+14	2.080049e+14	1.224304e+04	3.898375e+03	2.554027e+03	0	1.022535e-03
3.500000e+08	1.932465e+13	0.000000e+00	4.830509e-01	3.862956e+14	7.948397e+14	2.069289e+14	1.218430e+04	3.890624e+03	2.548949e+03	0	1.012294e-03
3.600000e+08	1.875942e+13	0.000000e+00	4.830509e-01	3.759943e+14	7.794532e+14	2.058607e+14	1.212715e+04	3.883025e+03	2.543970e+03	0	1.002326e-03
3.700000e+08	1.821969e+13	0.000000e+00	4.830509e-01	3.661542e+14	7.646348e+14	2.048002e+14	1.207151e+04	3.875574e+03	2.539088e+03	0	9.926201e-04
3.800000e+08	1.770390e+13	0.000000e+00	4.830509e-01	3.567469e+14	7.503563e+14	2.037473e+14	1.201731e+04	3.868267e+03	2.534302e+03	0	9.831634e-04
3.900000e+08	1.721058e+13	0.000000e+00	4.830509e-01	3.477463e+14	7.365909e+14	2.027021e+14	1.196449e+04	3.861102e+03	2.529608e+03	0	9.739453e-04
4.000000e+08	1.673840e+13	0.000000e+00	4.830509e-01	3.391283e+14	7.233134e+14	2.016645e+14	1.191300e+04	3.854075e+03	2.525003e+03	0	9.649557e-04
4.100000e+08	1.628611e+13	0.000000e+00	4.830509e-01	3.308703e+14	7.105001e+14	2.006343e+14	1.186277e+04	3.847182e+03	2.520487e+03	0	9.561849e-04
4.200000e+08	1.585257e+13	0.000000e+00	4.830509e-01	3.229517e+14	6.981286e+14	1.996115e+14	1.181375e+04	3.840419e+03	2.516057e+03	0	9.476238e-04
4.300000e+08	1.543671e+13	0.000000e+00	4.830509e-01	3.153533e+14	6.861778e+14	1.985961e+14	1.176589e+04	3.833784e+03	2.511710e+03	0	9.392640e-04
4.400000e+08	1.503754e+13	0.000000e+00	4.830509e-01	3.080571e+14	6.746278e+14	1.975880e+14	1.171916e+04	3.827272e+03	2.507444e+03	0	9.310972e-04
4.500000e+08	1.465414e+13	0.000000e+00	4.830509e-01	3.010466e+14	6.634599e+14	1.965872e+14	1.167349e+04	3.820881e+03	2.503257e+03	0	9.231158e-04
4.600000e+08	1.428565e+13	0.000000e+00	4.830509e-01	2.943063e+14	6.526563e+14	1.955935e+14	1.162886e+04	3.814608e+03	2.499147e+03	0	9.153126e-04
4.700000e+08	1.393128e+13	0.000000e+00	4.830509e-01	2.878218e+14	6.422004e+14	1.946070e+14	1.158522e+04	3.808448e+03	2.495111e+03	0	9.076807e-04
4.800000e+08	1.359029e+13	0.000000e+00	4.830509e-01	2.815797e+14	6.320764e+14	1.936275e+14	1.154253e+04	3.802400e+03	2.491149e+03	0	9.002137e-04
4.900000e+08	1.326196e+13	0.000000e+00	4.830509e-01	2.755675e+14	6.222693e+14	1.926551e+14	1.150076e+04	3.796460e+03	2.487257e+03	0	8.929052e-04
5.000000e+08	1.294567e+13	0.000000e+00	4.830509e-01	2.697733e+14	6.127652e+14	1.916896e+14	1.145988e+04	3.790625e+03	2.483434e+03	0	8.857496e-04
5.100000e+08	1.264080e+13	0.000000e+00	4.830509e-01	2.641863e+14	6.035506e+14	1.907310e+14	1.141985e+04	3.784892e+03	2.479678e+03	0	8.787411e-04
5.200000e+08	1.234678e+13	0.000000e+00	4.830509e-01	2.587962e+14	5.946131e+14	1.897792e+14	1.138064e+04	3.779259e+03	2.475988e+03	0	8.718745e-04
5.300000e+08	1.206308e+13	0.000000e+00	4.830509e-01	2.535933e+14	5.859406e+14	1.888343e+14	1.134223e+04	3.773723e+03	2.472361e+03	0	8.651449e-04
5.400000e+08	1.178920e+13	0.000000e+00	4.830509e-01	2.485687e+14	5.775220e+14	1.878960e+14	1.130459e+04	3.768281e+03	2.468796e+03	0	8.585473e-04
5.500000e+08	1.152467e+13	0.000000e+00	4.830509e-01	2.437138e+14	5.693466e+14	1.869645e+14	1.126768e+04	3.762931e+03	2.465290e+03	0	8.520772e-04
5.600000e+08	1.126905e+13	0.000000e+00	4.830509e-01	2.390206e+14	5.614042e+14	1.860395e+14	1.123150e+04	3.757670e+03	2.461844e+03	0	8.457303e-04
5.700000e+08	1.102193e+13	0.000000e+00	4.830509e-01	2.344817e+14	5.536853e+14	1.851211e+14	1.119600e+04	3.752496e+03	2.458454e+03	0	8.395024e-04
5.800000e+08	1.078291e+13	0.000000e+00	4.830509e-01	2.300901e+14	5.461807e+14	1.842093e+14	1.116118e+04	3.747407e+03	2.455120e+03	0	8.333896e-04
5.900000e+08	1.055163e+13	0.000000e+00	4.830509e-01	2.258390e+14	5.388818e+14	1.833039e+14	1.112700e+04	3.742400e+03	2.451839e+03	0	8.273881e-04
6.000000e+08	1.032774e+13	0.000000e+00	4.830509e-01	2.217222e+14	5.317805e+14	1.824049e+14	1.109345e+04	3.737473e+03	2.448611e+03	0	8.214943e-04
6.100000e+08	1.011092e+13	0.000000e+00	4.830509e-01	2.177338e+14	5.248688e+14	1.815123e+14	1.106051e+04	3.732624e+03	2.445435e+03	0	8.157046e-04
6.200000e+08	9.900849e+12	0.000000e+00	4.830509e-01	2.138682e+14	5.181396e+14	1.806260e+14	1.102815e+04	3.727852e+03	2.442308e+03	0	8.100159e-04
6.300000e+08	9.697244e+12	0.000000e+00	4.830509e-01	2.101202e+14	5.115856e+14	1.797459e+14	1.099637e+04	3.723153e+03	2.439230e+03	0	8.044249e-04
6.400000e+08	9.499829e+12	0.000000e+00	4.830509e-01	2.064847e+14	5.052003e+14	1.788720e+14	1.096514e+04	3.718527e+03	2.436199e+03	0	7.989287e-04
6.500000e+08	9.308343e+12	0.000000e+00	4.830509e-01	2.029571e+14	4.989772e+14	1.780043e+14	1.093445e+04	3.713971e+03	2.433214e+03	0	7.935242e-04
6.600000e+08	9.122538e+12	0.000000e+00	4.830509e-01	1.995328e+14	4.929104e+14	1.771427e+14	1.090428e+04	3.709484e+03	2.430274e+03	0	7.882088e-04
6.700000e+08	8.942181e+12	0.000000e+00	4.830509e-01	1.962077e+14	4.869939e+14	1.762872e+14	1.087462e+04	3.705064e+03	2.427378e+03	0	7.829798e-04
6.800000e+08	8.767051e+12	0.000000e+00	4.830509e-01	1.929777e+14	4.812224e+14	1.754377e+14	1.084544e+04	3.700708e+03	2.424525e+03	0	7.778346e-04
6.900000e+08	8.596937e+12	0.000000e+00	4.830509e-01	1.898391e+14	4.755905e+14	1.745941e+14	1.081675e+04	3.696417e+03	2.421713e+03	0	7.727707e-04
7.000000e+08	8.431641e+12	0.000000e+00	4.830509e-01	1.867881e+14	4.700934e+14	1.737565e+14	1.078852e+04	3.692187e+03	2.418942e+03	0	7.677859e-04
7.100000e+08	8.270973e+12	0.000000e+00	4.830509e-01	1.838215e+14	4.647261e+14	1.729247e+14	1.076074e+04	3.688018e+03	2.416211e+03	0	7.628777e-04
7.200000e+08	8.114753e+12	0.000000e+00	4.830509e-01	1.809359e+14	4.594842e+14	1.720987e+14	1.073340e+04	3.683908e+03	2.413518e+03	0	7.580442e-04
7.300000e+08	7.962811e+12	0.000000e+00	4.830509e-01	1.781282e+14	4.543632e+14	1.712785e+14	1.070648e+04	3.679855e+03	2.410863e+03	0	7.532831e-04
7.400000e+08	7.814983e+12	0.000000e+00	4.830509e-01	1.753955e+14	4.493591e+14	1.704640e+14	1.067998e+04	3.675859e+03	2.408245e+03	0	7.485924e-04
7.500000e+08	7.671115e+12	0.000000e+00	4.830509e-01	1.727350e+14	4.444679e+14	1.696552e+14	1.065389e+04	3.671917e+03	2.405662e+03	0	7.439702e-04
7.600000e+08	7.531059e+12	0.000000e+00	4.830509e-01	1.701440e+14	4.396857e+14	1.688521e+14	1.062819e+04	3.668029e+03	2.403115e+03	0	7.394147e-04
7.700000e+08	7.394676e+12	0.000000e+00	4.830509e-01	1.676200e+14	4.350089e+14	1.680545e+14	1.060287e+04	3.664193e+03	2.400602e+03	0	7.349240e-04
7.800000e+08	7.261831e+12	0.000000e+00	4.830509e-01	1.651605e+14	4.304341e+14	1.672625e+14	1.057793e+04	3.660408e+03	2.398122e+03	0	7.304965e-04
7.900000e+08	7.132397e+12	0.000000e+00	4.830509e-01	1.627633e+14	4.259579e+14	1.664759e+14	1.055335e+04	3.656673e+03	2.395675e+03	0	7.261303e-04
8.000000e+08	7.006251e+12	0.000000e+00	4.830509e-01	1.604260e+14	4.215772e+14	1.656949e+14	1.052913e+04	3.652987e+03	2.393260e+03	0	7.218240e-04
8.100000e+08	6.883279e+12	0.000000e+00	4.830509e-01	1.581467e+14	4.172888e+14	1.649192e+14	1.050525e+04	3.649348e+03	2.390876e+03	0	7.175759e-04
8.200000e+08	6.763369e+12	0.000000e+00	4.830509e-01	1.559232e+14	4.130898e+14	1.641489e+14	1.048171e+04	3.645756e+03	2.388523e+03	0	7.133846e-04
8.300000e+08	6.646414e+12	0.000000e+00	4.830509e-01	1.537538e+14	4.089774e+14	1.633839e+14	1.045850e+04	3.642209e+03	2.386199e+03	0	7.092487e-04
8.400000e+08	6.532314e+12	0.000000e+00	4.830509e-01	1.516365e+14	4.049490e+14	1.626242e+14	1.043561e+04	3.638707e+03	2.383905e+03	0	7.051666e-04
8.500000e+08	6.420971e+12	0.000000e+00	4.830509e-01	1.495695e+14	4.010019e+14	1.618698e+14	1.041303e+04	3.635248e+03	2.381639e+03	0	7.011371e-04
8.600000e+08	6.312293e+12	0.000000e+00	4.830509e-01	1.475512e+14	3.971337e+14	1.611205e+14	1.039076e+04	3.631832e+03	2.379400e+03	0	6.971589e-04
8.700000e+08	6.206191e+12	0.000000e+00	4.830509e-01	1.455800e+14	3.933420e+14	1.603765e+14	1.036879e+04	3.628457e+03	2.377189e+03	0	6.932307e-04
8.800000e+08	6.102580e+12	0.000000e+00	4.830509e-01	1.436544e+14	3.896244e+14	1.596375e+14	1.034711e+04	3.625122e+03	2.375005e+03	0	6.893512e-04
8.900000e+08	6.001379e+12	0.000000e+00	4.830509e-01	1.417728e+14	3.859788e+14	1.589036e+14	1.032572e+04	3.621828e+03	2.372846e+03	0	6.855194e-04
9.000000e+08	5.902509e+12	0.000000e+00	4.830509e-01	1.399338e+14	3.824031e+14	1.581747e+14	1.030460e+04	3.618572e+03	2.370714e+03	0	6.817340e-04
9.100000e+08	5.805896e+12	0.000000e+00	4.830509e-01	1.381361e+14	3.788952e+14	1.574509e+14	1.028376e+04	3.615355e+03	2.368606e+03	0	6.779939e-04
9.200000e+08	5.711467e+12	0.000000e+00	4.830509e-01	1.363784e+14	3.754532e+14	1.567320e+14	1.026319e+04	3.612174e+03	2.366522e+03	0	6.742982e-04
9.300000e+08	5.619155e+12	0.000000e+00	4.830509e-01	1.346594e+14	3.720752e+14	1.560180e+14	1.024287e+04	3.609031e+03	2.364462e+03	0	6.706456e-04
9.400000e+08	5.528894e+12	0.000000e+00	4.830509e-01	1.329779e+14	3.687594e+14	1.553089e+14	1.022282e+04	3.605923e+03	2.362426e+03	0	6.670353e-04
9.500000e+08	5.440618e+12	0.000000e+00	4.830509e-01	1.313328e+14	3.655040e+14	1.546046e+14	1.020301e+04	3.602850e+03	2.360413e+03	0	6.634662e-04
9.600000e+08	5.354269e+12	0.000000e+00	4.830509e-01	1.297229e+14	3.623074e+14	1.539052e+14	1.018344e+04	3.599811e+03	2.358422e+03	0	6.599375e-04
9.700000e+08	5.269786e+12	0.000000e+00	4.830509e-01	1.281473e+14	3.591678e+14	1.532105e+14	1.016411e+04	3.596805e+03	2.356453e+03	0	6.564481e-04
9.800000e+08	5.187115e+12	0.000000e+00	4.830509e-01	1.266048e+14	3.560839e+14	1.525205e+14	1.014502e+04	3.593833e+03	2.354506e+03	0	6.529973e-04
9.900000e+08	5.106200e+12	0.000000e+00	4.830509e-01	1.250945e+14	3.530540e+14	1.518352e+14	1.012616e+04	3.590893e+03	2.352579e+03	0	6.495841e-04
1.000000e+09	5.026990e+12	0.000000e+00	4.830509e-01	1.236155e+14	3.500768e+14	1.511546e+14	1.010752e+04	3.587984e+03	2.350674e+03	0	6.462076e-04
1.010000e+09	4.949435e+12	0.000000e+00	4.830509e-01	1.221668e+14	3.471507e+14	1.504786e+14	1.008909e+04	3.585106e+03	2.348788e+03	0	6.428672e-04
1.020000e+09	4.873486e+12	0.000000e+00	4.830509e-01	1.207475e+14	3.442745e+14	1.498072e+14	1.007089e+04	3.582259e+03	2.346923e+03	0	6.395620e-04
1.030000e+09	4.799098e+12	0.000000e+00	4.830509e-01	1.193568e+14	3.414469e+14	1.491403e+14	1.005289e+04	3.579441e+03	2.345077e+03	0	6.362912e-04
1.040000e+09	4.726224e+12	0.000000e+00	4.830509e-01	1.179940e+14	3.386666e+14	1.484779e+14	1.003511e+04	3.576653e+03	2.343250e+03	0	6.330541e-04
1.050000e+09	4.654823e+12	0.000000e+00	4.830509e-01	1.166581e+14	3.359324e+14	1.478200e+14	1.001752e+04	3.573893e+03	2.341442e+03	0	6.298500e-04
1.060000e+09	4.584853e+12	0.000000e+00	4.830509e-01	1.153485e+14	3.332430e+14	1.471665e+14	1.000013e+04	3.571161e+03	2.339652e+03	0	6.266781e-04
1.070000e+09	4.516274e+12	0.000000e+00	4.830509e-01	1.140645e+14	3.305975e+14	1.465174e+14	9.982938e+03	3.568457e+03	2.337880e+03	0	6.235379e-04
1.080000e+09	4.449047e+12	0.000000e+00	4.830509e-01	1.128052e+14	3.279946e+14	1.458727e+14	9.965935e+03	3.565780e+03	2.336126e+03	0	6.204285e-04
1.090000e+09	4.383135e+12	0.000000e+00	4.830509e-01	1.115701e+14	3.254334e+14	1.452324e+14	9.949119e+03	3.563129e+03	2.334390e+03	0	6.173494e-04
1.100000e+09	4.318502e+12	0.000000e+00	4.830509e-01	1.103586e+14	3.229127e+14	1.445963e+14	9.932486e+03	3.560504e+03	2.332670e+03	0	6.142999e-04
1.110000e+09	4.255114e+12	0.000000e+00	4.830509e-01	1.091698e+14	3.204317e+14	1.439645e+14	9.916034e+03	3.557904e+03	2.330967e+03	0	6.112795e-04
1.120000e+09	4.192937e+12	0.000000e+00	4.830509e-01	1.080033e+14	3.179893e+14	1.433369e+14	9.899758e+03	3.555330e+03	2.329280e+03	0	6.082874e-04
1.130000e+09	4.131939e+12	0.000000e+00	4.830509e-01	1.068585e+14	3.155846e+14	1.427136e+14	9.883655e+03	3.552780e+03	2.327610e+03	0	6.053233e-04
1.140000e+09	4.072088e+12	0.000000e+00	4.830509e-01	1.057348e+14	3.132167e+14	1.420944e+14	9.867723e+03	3.550255e+03	2.325955e+03	0	6.023864e-04
1.150000e+09	4.013355e+12	0.000000e+00	4.830509e-01	1.046316e+14	3.108847e+14	1.414793e+14	9.851957e+03	3.547753e+03	2.324316e+03	0	5.994762e-04
1.160000e+09	3.955711e+12	0.000000e+00	4.830509e-01	1.035485e+14	3.085879e+14	1.408683e+14	9.836355e+03	3.545274e+03	2.322692e+03	0	5.965922e-04
1.170000e+09	3.899126e+12	0.000000e+00	4.830509e-01	1.024848e+14	3.063253e+14	1.402614e+14	9.820914e+03	3.542818e+03	2.321083e+03	0	5.937339e-04
1.180000e+09	3.843575e+12	0.000000e+00	4.830509e-01	1.014402e+14	3.040963e+14	1.396586e+14	9.805632e+03	3.540385e+03	2.319489e+03	0	5.909007e-04
1.190000e+09	3.789030e+12	0.000000e+00	4.830509e-01	1.004140e+14	3.018999e+14	1.390597e+14	9.790504e+03	3.537974e+03	2.317909e+03	0	5.880922e-04
1.200000e+09	3.735467e+12	0.000000e+00	4.830509e-01	9.940597e+13	2.997356e+14	1.384648e+14	9.775529e+03	3.535584e+03	2.316344e+03	0	5.853079e-04
1.210000e+09	3.682860e+12	0.000000e+00	4.830509e-01	9.841552e+13	2.976025e+14	1.378739e+14	9.760704e+03	3.533216e+03	2.314792e+03	0	5.825472e-04
1.220000e+09	3.631186e+12	0.000000e+00	4.830509e-01	9.744224e+13	2.955000e+14	1.372869e+14	9.746026e+03	3.530868e+03	2.313254e+03	0	5.798098e-04
1.230000e+09	3.580421e+12	0.000000e+00	4.830509e-01	9.648572e+13	2.934273e+14	1.367038e+14	9.731492e+03	3.528542e+03	2.311730e+03	0	5.770952e-04
1.240000e+09	3.530544e+12	0.000000e+00	4.830509e-01	9.554554e+13	2.913839e+14	1.361245e+14	9.717101e+03	3.526235e+03	2.310219e+03	0	5.744029e-04
1.250000e+09	3.481533e+12	0.000000e+00	4.830509e-01	9.462132e+13	2.893690e+14	1.355490e+14	9.702850e+03	3.523949e+03	2.308721e+03	0	5.717325e-04
1.260000e+09	3.433366e+12	0.000000e+00	4.830509e-01	9.371266e+13	2.873822e+14	1.349774e+14	9.688735e+03	3.521682e+03	2.307235e+03	0	5.690837e-04
1.270000e+09	3.386024e+12	0.000000e+00	4.830509e-01	9.281920e+13	2.854227e+14	1.344095e+14	9.674757e+03	3.519434e+03	2.305763e+03	0	5.664559e-04
1.280000e+09	3.339486e+12	0.000000e+00	4.830509e-01	9.194058e+13	2.834900e+14	1.338453e+14	9.660910e+03	3.517205e+03	2.304302e+03	0	5.638488e-04
1.290000e+09	3.293734e+12	0.000000e+00	4.830509e-01	9.107645e+13	2.815835e+14	1.332849e+14	9.647195e+03	3.514995e+03	2.302854e+03	0	5.612619e-04
1.300000e+09	3.248749e+12	0.000000e+00	4.830509e-01	9.022646e+13	2.797026e+14	1.327281e+14	9.633608e+03	3.512803e+03	2.301418e+03	0	5.586950e-04
1.310000e+09	3.204514e+12	0.000000e+00	4.830509e-01	8.939030e+13	2.778469e+14	1.321750e+14	9.620147e+03	3.510629e+03	2.299994e+03	0	5.561477e-04
1.320000e+09	3.161009e+12	0.000000e+00	4.830509e-01	8.856764e+13	2.760158e+14	1.316255e+14	9.606811e+03	3.508472e+03	2.298581e+03	0	5.536194e-04
1.330000e+09	3.118220e+12	0.000000e+00	4.830509e-01	8.775817e+13	2.742088e+14	1.310796e+14	9.593597e+03	3.506334e+03	2.297180e+03	0	5.511100e-04
1.340000e+09	3.076129e+12	0.000000e+00	4.830509e-01	8.696160e+13	2.724254e+14	1.305373e+14	9.580503e+03	3.504212e+03	2.295790e+03	0	5.486191e-04
1.350000e+09	3.034721e+12	0.000000e+00	4.830509e-01	8.617764e+13	2.706651e+14	1.299985e+14	9.567528e+03	3.502107e+03	2.294411e+03	0	5.461463e-04
1.360000e+09	2.993980e+12	0.000000e+00	4.830509e-01	8.540599e+13	2.689275e+14	1.294632e+14	9.554670e+03	3.500019e+03	2.293043e+03	0	5.436913e-04
