#t		Qconv[W]	Ri[Rp]		R*[Rp]		Qc[W]		Qm[W]		Qr[W]		Tcmb[K]		Tl[K]		Tup[K]		RiFlag		Bs[T]
0.000000e+00	1.590765e+14	0.000000e+00	4.830507e-01	2.604229e+15	2.078847e+15	2.966475e+14	1.857211e+04	4.398902e+03	2.797628e+03	0	2.022411e-03
1.000000e+07	1.475738e+14	0.000000e+00	4.830507e-01	2.420805e+15	2.111020e+15	2.950039e+14	1.826350e+04	4.424600e+03	2.813971e+03	0	1.972440e-03
2.000000e+07	1.372774e+14	0.000000e+00	4.830507e-01	2.256562e+15	2.124118e+15	2.933725e+14	1.797609e+04	4.443501e+03	2.825992e+03	0	1.925456e-03
3.000000e+07	1.280284e+14	0.000000e+00	4.830507e-01	2.108981e+15	2.121807e+15	2.917533e+14	1.770774e+04	4.456806e+03	2.834454e+03	0	1.881205e-03
4.000000e+07	1.196928e+14	0.000000e+00	4.830507e-01	1.975929e+15	2.107319e+15	2.901463e+14	1.745654e+04	4.465519e+03	2.839995e+03	0	1.839459e-03
5.000000e+07	1.121567e+14	0.000000e+00	4.830507e-01	1.855599e+15	2.083411e+15	2.885512e+14	1.722086e+04	4.470474e+03	2.843146e+03	0	1.800014e-03
6.000000e+07	1.053229e+14	0.000000e+00	4.830507e-01	1.746444e+15	2.052382e+15	2.869680e+14	1.699923e+04	4.472361e+03	2.844346e+03	0	1.762686e-03
7.000000e+07	9.910792e+13	0.000000e+00	4.830507e-01	1.647140e+15	2.016120e+15	2.853966e+14	1.679038e+04	4.471749e+03	2.843957e+03	0	1.727309e-03
8.000000e+07	9.344020e+13	0.000000e+00	4.830507e-01	1.556548e+15	1.976147e+15	2.838369e+14	1.659318e+04	4.469109e+03	2.842278e+03	0	1.693734e-03
9.000000e+07	8.825787e+13	0.000000e+00	4.830507e-01	1.473684e+15	1.933680e+15	2.822887e+14	1.640663e+04	4.464827e+03	2.839555e+03	0	1.661824e-03
1.000000e+08	8.350733e+13	0.000000e+00	4.830507e-01	1.397698e+15	1.889680e+15	2.807521e+14	1.622983e+04	4.459222e+03	2.835990e+03	0	1.631457e-03
1.100000e+08	7.914206e+13	0.000000e+00	4.830507e-01	1.327849e+15	1.844898e+15	2.792269e+14	1.606199e+04	4.452558e+03	2.831752e+03	0	1.602519e-03
1.200000e+08	7.512148e+13	0.000000e+00	4.830507e-01	1.263492e+15	1.799915e+15	2.777130e+14	1.590240e+04	4.445049e+03	2.826977e+03	0	1.574909e-03
1.300000e+08	7.141015e+13	0.000000e+00	4.830507e-01	1.204062e+15	1.755175e+15	2.762103e+14	1.575042e+04	4.436875e+03	2.821778e+03	0	1.548534e-03
1.400000e+08	6.797697e+13	0.000000e+00	4.830507e-01	1.149066e+15	1.711014e+15	2.747187e+14	1.560548e+04	4.428183e+03	2.816250e+03	0	1.523309e-03
1.500000e+08	6.479463e+13	0.000000e+00	4.830507e-01	1.098069e+15	1.667679e+15	2.732381e+14	1.546705e+04	4.419094e+03	2.810470e+03	0	1.499157e-03
1.600000e+08	6.183904e+13	0.000000e+00	4.830507e-01	1.050688e+15	1.625350e+15	2.717685e+14	1.533468e+04	4.409709e+03	2.804501e+03	0	1.476006e-03
1.700000e+08	5.908890e+13	0.000000e+00	4.830507e-01	1.006584e+15	1.584151e+15	2.703097e+14	1.520794e+04	4.400109e+03	2.798395e+03	0	1.453793e-03
1.800000e+08	5.652535e+13	0.000000e+00	4.830507e-01	9.654557e+14	1.544168e+15	2.688617e+14	1.508644e+04	4.390364e+03	2.792197e+03	0	1.432457e-03
1.900000e+08	5.413162e+13	0.000000e+00	4.830507e-01	9.270373e+14	1.505450e+15	2.674243e+14	1.496984e+04	4.380528e+03	2.785942e+03	0	1.411945e-03
2.000000e+08	5.189278e+13	0.000000e+00	4.830507e-01	8.910909e+14	1.468022e+15	2.659975e+14	1.485782e+04	4.370649e+03	2.779660e+03	0	1.392204e-03
2.100000e+08	4.979550e+13	0.000000e+00	4.830507e-01	8.574042e+14	1.431891e+15	2.645812e+14	1.475009e+04	4.360765e+03	2.773373e+03	0	1.373190e-03
2.200000e+08	4.782786e+13	0.000000e+00	4.830507e-01	8.257872e+14	1.397048e+15	2.631753e+14	1.464638e+04	4.350907e+03	2.767104e+03	0	1.354860e-03
2.300000e+08	4.597916e+13	0.000000e+00	4.830507e-01	7.960696e+14	1.363473e+15	2.617798e+14	1.454645e+04	4.341100e+03	2.760866e+03	0	1.337173e-03
2.400000e+08	4.423978e+13	0.000000e+00	4.830507e-01	7.680982e+14	1.331138e+15	2.603944e+14	1.445007e+04	4.331364e+03	2.754675e+03	0	1.320094e-03
2.500000e+08	4.260106e+13	0.000000e+00	4.830507e-01	7.417351e+14	1.300010e+15	2.590192e+14	1.435703e+04	4.321718e+03	2.748540e+03	0	1.303589e-03
2.600000e+08	4.105519e+13	0.000000e+00	4.830507e-01	7.168556e+14	1.270050e+15	2.576541e+14	1.426716e+04	4.312173e+03	2.742470e+03	0	1.287627e-03
2.700000e+08	3.959509e+13	0.000000e+00	4.830507e-01	6.933472e+14	1.241220e+15	2.562990e+14	1.418026e+04	4.302741e+03	2.736471e+03	0	1.272178e-03
2.800000e+08	3.821437e+13	0.000000e+00	4.830507e-01	6.711077e+14	1.213477e+15	2.549537e+14	1.409618e+04	4.293431e+03	2.730550e+03	0	1.257215e-03
2.900000e+08	3.690720e+13	0.000000e+00	4.830507e-01	6.500445e+14	1.186779e+15	2.536183e+14	1.401477e+04	4.284248e+03	2.724710e+03	0	1.242714e-03
3.000000e+08	3.566831e+13	0.000000e+00	4.830507e-01	6.300732e+14	1.161084e+15	2.522926e+14	1.393589e+04	4.275197e+03	2.718954e+03	0	1.228650e-03
3.100000e+08	3.449287e+13	0.000000e+00	4.830507e-01	6.111171e+14	1.136349e+15	2.509765e+14	1.385941e+04	4.266282e+03	2.713284e+03	0	1.215002e-03
3.200000e+08	3.337649e+13	0.000000e+00	4.830507e-01	5.931061e+14	1.112533e+15	2.496701e+14	1.378521e+04	4.257506e+03	2.707702e+03	0	1.201750e-03
3.300000e+08	3.231516e+13	0.000000e+00	4.830507e-01	5.759761e+14	1.089596e+15	2.483731e+14	1.371317e+04	4.248869e+03	2.702209e+03	0	1.188875e-03
3.400000e+08	3.130519e+13	0.000000e+00	4.830507e-01	5.596683e+14	1.067500e+15	2.470855e+14	1.364319e+04	4.240372e+03	2.696806e+03	0	1.176358e-03
3.500000e+08	3.034321e+13	0.000000e+00	4.830507e-01	5.441290e+14	1.046207e+15	2.458073e+14	1.357517e+04	4.232016e+03	2.691491e+03	0	1.164183e-03
3.600000e+08	2.942613e+13	0.000000e+00	4.830507e-01	5.293088e+14	1.025680e+15	2.445384e+14	1.350903e+04	4.223800e+03	2.686266e+03	0	1.152334e-03
3.700000e+08	2.855109e+13	0.000000e+00	4.830507e-01	5.151622e+14	1.005884e+15	2.432786e+14	1.344467e+04	4.215722e+03	2.681128e+03	0	1.140797e-03
3.800000e+08	2.771548e+13	0.000000e+00	4.830507e-01	5.016473e+14	9.867880e+14	2.420280e+14	1.338201e+04	4.207781e+03	2.676078e+03	0	1.129557e-03
3.900000e+08	2.691688e+13	0.000000e+00	4.830507e-01	4.887256e+14	9.683586e+14	2.407864e+14	1.332099e+04	4.199977e+03	2.671115e+03	0	1.118602e-03
4.000000e+08	2.615305e+13	0.000000e+00	4.830507e-01	4.763613e+14	9.505661e+14	2.395538e+14	1.326152e+04	4.192306e+03	2.666236e+03	0	1.107919e-03
4.100000e+08	2.542193e+13	0.000000e+00	4.830507e-01	4.645215e+14	9.333816e+14	2.383301e+14	1.320354e+04	4.184767e+03	2.661442e+03	0	1.097497e-03
4.200000e+08	2.472160e+13	0.000000e+00	4.830507e-01	4.531756e+14	9.167778e+14	2.371151e+14	1.314700e+04	4.177358e+03	2.656729e+03	0	1.087325e-03
4.300000e+08	2.405031e+13	0.000000e+00	4.830507e-01	4.422954e+14	9.007286e+14	2.359090e+14	1.309182e+04	4.170076e+03	2.652098e+03	0	1.077393e-03
4.400000e+08	2.340639e+13	0.000000e+00	4.830507e-01	4.318546e+14	8.852093e+14	2.347115e+14	1.303796e+04	4.162919e+03	2.647546e+03	0	1.067691e-03
4.500000e+08	2.278833e+13	0.000000e+00	4.830507e-01	4.218287e+14	8.701963e+14	2.335226e+14	1.298535e+04	4.155884e+03	2.643072e+03	0	1.058209e-03
4.600000e+08	2.219470e+13	0.000000e+00	4.830507e-01	4.121950e+14	8.556673e+14	2.323422e+14	1.293396e+04	4.148969e+03	2.638674e+03	0	1.048939e-03
4.700000e+08	2.162418e+13	0.000000e+00	4.830507e-01	4.029325e+14	8.416012e+14	2.311704e+14	1.288374e+04	4.142171e+03	2.634351e+03	0	1.039874e-03
4.800000e+08	2.107554e+13	0.000000e+00	4.830507e-01	3.940214e+14	8.279776e+14	2.300069e+14	1.283463e+04	4.135489e+03	2.630101e+03	0	1.031004e-03
4.900000e+08	2.054763e+13	0.000000e+00	4.830507e-01	3.854433e+14	8.147777e+14	2.288517e+14	1.278661e+04	4.128918e+03	2.625922e+03	0	1.022323e-03
5.000000e+08	2.003938e+13	0.000000e+00	4.830507e-01	3.771810e+14	8.019831e+14	2.277048e+14	1.273962e+04	4.122457e+03	2.621814e+03	0	1.013823e-03
5.100000e+08	1.954977e+13	0.000000e+00	4.830507e-01	3.692185e+14	7.895767e+14	2.265661e+14	1.269363e+04	4.116104e+03	2.617773e+03	0	1.005498e-03
5.200000e+08	1.907788e+13	0.000000e+00	4.830507e-01	3.615407e+14	7.775422e+14	2.254355e+14	1.264860e+04	4.109855e+03	2.613799e+03	0	9.973418e-04
5.300000e+08	1.862281e+13	0.000000e+00	4.830507e-01	3.541335e+14	7.658639e+14	2.243130e+14	1.260451e+04	4.103709e+03	2.609890e+03	0	9.893480e-04
5.400000e+08	1.818376e+13	0.000000e+00	4.830507e-01	3.469838e+14	7.545272e+14	2.231985e+14	1.256131e+04	4.097662e+03	2.606044e+03	0	9.815110e-04
5.500000e+08	1.775993e+13	0.000000e+00	4.830507e-01	3.400791e+14	7.435180e+14	2.220919e+14	1.251897e+04	4.091713e+03	2.602261e+03	0	9.738253e-04
5.600000e+08	1.735061e+13	0.000000e+00	4.830507e-01	3.334079e+14	7.328231e+14	2.209932e+14	1.247748e+04	4.085859e+03	2.598538e+03	0	9.662857e-04
5.700000e+08	1.695511e+13	0.000000e+00	4.830507e-01	3.269591e+14	7.224296e+14	2.199023e+14	1.243679e+04	4.080098e+03	2.594874e+03	0	9.588872e-04
5.800000e+08	1.657279e+13	0.000000e+00	4.830507e-01	3.207225e+14	7.123257e+14	2.188191e+14	1.239689e+04	4.074428e+03	2.591268e+03	0	9.516250e-04
5.900000e+08	1.620304e+13	0.000000e+00	4.830507e-01	3.146884e+14	7.024998e+14	2.177436e+14	1.235774e+04	4.068847e+03	2.587718e+03	0	9.444947e-04
6.000000e+08	1.584530e+13	0.000000e+00	4.830507e-01	3.088477e+14	6.929411e+14	2.166757e+14	1.231932e+04	4.063352e+03	2.584223e+03	0	9.374918e-04
6.100000e+08	1.549903e+13	0.000000e+00	4.830507e-01	3.031917e+14	6.836392e+14	2.156154e+14	1.228161e+04	4.057941e+03	2.580782e+03	0	9.306124e-04
6.200000e+08	1.516371e+13	0.000000e+00	4.830507e-01	2.977124e+14	6.745842e+14	2.145625e+14	1.224459e+04	4.052613e+03	2.577394e+03	0	9.238523e-04
6.300000e+08	1.483888e+13	0.000000e+00	4.830507e-01	2.924020e+14	6.657668e+14	2.135171e+14	1.220823e+04	4.047365e+03	2.574056e+03	0	9.172078e-04
6.400000e+08	1.452408e+13	0.000000e+00	4.830507e-01	2.872533e+14	6.571779e+14	2.124791e+14	1.217252e+04	4.042196e+03	2.570768e+03	0	9.106754e-04
6.500000e+08	1.421889e+13	0.000000e+00	4.830507e-01	2.822595e+14	6.488091e+14	2.114483e+14	1.213743e+04	4.037103e+03	2.567530e+03	0	9.042514e-04
6.600000e+08	1.392289e+13	0.000000e+00	4.830507e-01	2.774141e+14	6.406522e+14	2.104249e+14	1.210295e+04	4.032085e+03	2.564338e+03	0	8.979327e-04
6.700000e+08	1.363570e+13	0.000000e+00	4.830507e-01	2.727109e+14	6.326994e+14	2.094086e+14	1.206906e+04	4.027140e+03	2.561193e+03	0	8.917159e-04
6.800000e+08	1.335697e+13	0.000000e+00	4.830507e-01	2.681441e+14	6.249434e+14	2.083995e+14	1.203574e+04	4.022266e+03	2.558094e+03	0	8.855981e-04
6.900000e+08	1.308635e+13	0.000000e+00	4.830507e-01	2.637083e+14	6.173770e+14	2.073974e+14	1.200297e+04	4.017462e+03	2.555038e+03	0	8.795763e-04
7.000000e+08	1.282351e+13	0.000000e+00	4.830507e-01	2.593981e+14	6.099936e+14	2.064024e+14	1.197074e+04	4.012726e+03	2.552026e+03	0	8.736476e-04
7.100000e+08	1.256814e+13	0.000000e+00	4.830507e-01	2.552086e+14	6.027867e+14	2.054143e+14	1.193904e+04	4.008057e+03	2.549057e+03	0	8.678095e-04
7.200000e+08	1.231996e+13	0.000000e+00	4.830507e-01	2.511351e+14	5.957501e+14	2.044331e+14	1.190784e+04	4.003452e+03	2.546128e+03	0	8.620592e-04
7.300000e+08	1.207867e+13	0.000000e+00	4.830507e-01	2.471730e+14	5.888779e+14	2.034588e+14	1.187714e+04	3.998911e+03	2.543240e+03	0	8.563942e-04
7.400000e+08	1.184402e+13	0.000000e+00	4.830507e-01	2.433183e+14	5.821645e+14	2.024913e+14	1.184693e+04	3.994431e+03	2.540391e+03	0	8.508123e-04
7.500000e+08	1.161575e+13	0.000000e+00	4.830507e-01	2.395667e+14	5.756046e+14	2.015306e+14	1.181718e+04	3.990013e+03	2.537581e+03	0	8.453109e-04
7.600000e+08	1.139363e+13	0.000000e+00	4.830507e-01	2.359144e+14	5.691929e+14	2.005765e+14	1.178788e+04	3.985653e+03	2.534808e+03	0	8.398879e-04
7.700000e+08	1.117742e+13	0.000000e+00	4.830507e-01	2.323578e+14	5.629246e+14	1.996291e+14	1.175903e+04	3.981351e+03	2.532072e+03	0	8.345412e-04
7.800000e+08	1.096690e+13	0.000000e+00	4.830507e-01	2.288933e+14	5.567949e+14	1.986882e+14	1.173062e+04	3.977106e+03	2.529372e+03	0	8.292687e-04
7.900000e+08	1.076187e+13	0.000000e+00	4.830507e-01	2.255176e+14	5.507993e+14	1.977539e+14	1.170262e+04	3.972916e+03	2.526708e+03	0	8.240683e-04
8.000000e+08	1.056213e+13	0.000000e+00	4.830507e-01	2.222275e+14	5.449334e+14	1.968261e+14	1.167504e+04	3.968779e+03	2.524077e+03	0	8.189382e-04
8.100000e+08	1.036749e+13	0.000000e+00	4.830507e-01	2.190200e+14	5.391932e+14	1.959047e+14	1.164786e+04	3.964696e+03	2.521480e+03	0	8.138765e-04
8.200000e+08	1.017777e+13	0.000000e+00	4.830507e-01	2.158922e+14	5.335745e+14	1.949897e+14	1.162107e+04	3.960665e+03	2.518916e+03	0	8.088814e-04
8.300000e+08	9.992796e+12	0.000000e+00	4.830507e-01	2.128413e+14	5.280737e+14	1.940810e+14	1.159465e+04	3.956684e+03	2.516384e+03	0	8.039512e-04
8.400000e+08	9.812406e+12	0.000000e+00	4.830507e-01	2.098646e+14	5.226870e+14	1.931786e+14	1.156861e+04	3.952752e+03	2.513884e+03	0	7.990841e-04
8.500000e+08	9.636441e+12	0.000000e+00	4.830507e-01	2.069597e+14	5.174109e+14	1.922824e+14	1.154294e+04	3.948869e+03	2.511414e+03	0	7.942787e-04
8.600000e+08	9.464751e+12	0.000000e+00	4.830507e-01	2.041240e+14	5.122420e+14	1.913924e+14	1.151761e+04	3.945033e+03	2.508975e+03	0	7.895332e-04
8.700000e+08	9.297192e+12	0.000000e+00	4.830507e-01	2.013553e+14	5.071770e+14	1.905085e+14	1.149263e+04	3.941243e+03	2.506565e+03	0	7.848463e-04
8.800000e+08	9.133626e+12	0.000000e+00	4.830507e-01	1.986514e+14	5.022129e+14	1.896307e+14	1.146799e+04	3.937499e+03	2.504183e+03	0	7.802164e-04
8.900000e+08	8.973921e+12	0.000000e+00	4.830507e-01	1.960101e+14	4.973467e+14	1.887589e+14	1.144368e+04	3.933799e+03	2.501830e+03	0	7.756422e-04
9.000000e+08	8.817950e+12	0.000000e+00	4.830507e-01	1.934294e+14	4.925754e+14	1.878931e+14	1.141969e+04	3.930143e+03	2.499505e+03	0	7.711222e-04
9.100000e+08	8.665592e+12	0.000000e+00	4.830507e-01	1.909074e+14	4.878963e+14	1.870332e+14	1.139601e+04	3.926529e+03	2.497207e+03	0	7.666552e-04
9.200000e+08	8.516731e+12	0.000000e+00	4.830507e-01	1.884421e+14	4.833067e+14	1.861793e+14	1.137264e+04	3.922957e+03	2.494935e+03	0	7.622399e-04
9.300000e+08	8.371256e+12	0.000000e+00	4.830507e-01	1.860318e+14	4.788040e+14	1.853311e+14	1.134957e+04	3.919426e+03	2.492689e+03	0	7.578749e-04
9.400000e+08	8.229060e+12	0.000000e+00	4.830507e-01	1.836748e+14	4.743859e+14	1.844888e+14	1.132680e+04	3.915935e+03	2.490469e+03	0	7.535593e-04
9.500000e+08	8.090040e+12	0.000000e+00	4.830507e-01	1.813693e+14	4.700498e+14	1.836522e+14	1.130431e+04	3.912483e+03	2.488273e+03	0	7.492916e-04
9.600000e+08	7.954097e+12	0.000000e+00	4.830507e-01	1.791139e+14	4.657935e+14	1.828214e+14	1.128211e+04	3.909069e+03	2.486102e+03	0	7.450709e-04
9.700000e+08	7.821137e+12	0.000000e+00	4.830507e-01	1.769070e+14	4.616147e+14	1.819961e+14	1.126017e+04	3.905693e+03	2.483955e+03	0	7.408961e-04
9.800000e+08	7.691069e+12	0.000000e+00	4.830507e-01	1.747470e+14	4.575114e+14	1.811765e+14	1.123851e+04	3.902354e+03	2.481832e+03	0	7.367660e-04
9.900000e+08	7.563806e+12	0.000000e+00	4.830507e-01	1.726327e+14	4.534816e+14	1.803625e+14	1.121711e+04	3.899051e+03	2.479731e+03	0	7.326797e-04
1.000000e+09	7.439264e+12	0.000000e+00	4.830507e-01	1.705627e+14	4.495231e+14	1.795540e+14	1.119597e+04	3.895784e+03	2.477653e+03	0	7.286361e-04
1.010000e+09	7.317361e+12	0.000000e+00	4.830507e-01	1.685356e+14	4.456341e+14	1.787510e+14	1.117508e+04	3.892551e+03	2.475597e+03	0	7.246342e-04
1.020000e+09	7.198021e+12	0.000000e+00	4.830507e-01	1.665502e+14	4.418127e+14	1.779534e+14	1.115444e+04	3.889353e+03	2.473563e+03	0	7.206732e-04
1.030000e+09	7.081168e+12	0.000000e+00	4.830507e-01	1.646053e+14	4.380572e+14	1.771612e+14	1.113404e+04	3.886188e+03	2.471550e+03	0	7.167521e-04
1.040000e+09	6.966730e+12	0.000000e+00	4.830507e-01	1.626997e+14	4.343659e+14	1.763744e+14	1.111388e+04	3.883055e+03	2.469558e+03	0	7.128700e-04
1.050000e+09	6.854638e+12	0.000000e+00	4.830507e-01	1.608324e+14	4.307371e+14	1.755928e+14	1.109395e+04	3.879955e+03	2.467586e+03	0	7.090260e-04
1.060000e+09	6.744825e+12	0.000000e+00	4.830507e-01	1.590021e+14	4.271691e+14	1.748166e+14	1.107425e+04	3.876887e+03	2.465635e+03	0	7.052194e-04
1.070000e+09	6.637226e+12	0.000000e+00	4.830507e-01	1.572080e+14	4.236605e+14	1.740456e+14	1.105477e+04	3.873849e+03	2.463703e+03	0	7.014492e-04
1.080000e+09	6.531780e+12	0.000000e+00	4.830507e-01	1.554489e+14	4.202097e+14	1.732798e+14	1.103551e+04	3.870842e+03	2.461790e+03	0	6.977147e-04
1.090000e+09	6.428427e+12	0.000000e+00	4.830507e-01	1.537240e+14	4.168153e+14	1.725191e+14	1.101647e+04	3.867864e+03	2.459897e+03	0	6.940151e-04
1.100000e+09	6.327109e+12	0.000000e+00	4.830507e-01	1.520322e+14	4.134758e+14	1.717635e+14	1.099763e+04	3.864916e+03	2.458022e+03	0	6.903496e-04
1.110000e+09	6.227770e+12	0.000000e+00	4.830507e-01	1.503727e+14	4.101900e+14	1.710130e+14	1.097901e+04	3.861997e+03	2.456165e+03	0	6.867176e-04
1.120000e+09	6.130356e+12	0.000000e+00	4.830507e-01	1.487447e+14	4.069565e+14	1.702675e+14	1.096058e+04	3.859106e+03	2.454327e+03	0	6.831183e-04
1.130000e+09	6.034816e+12	0.000000e+00	4.830507e-01	1.471472e+14	4.037741e+14	1.695270e+14	1.094236e+04	3.856243e+03	2.452506e+03	0	6.795509e-04
1.140000e+09	5.941100e+12	0.000000e+00	4.830507e-01	1.455795e+14	4.006414e+14	1.687915e+14	1.092432e+04	3.853407e+03	2.450702e+03	0	6.760149e-04
1.150000e+09	5.849158e+12	0.000000e+00	4.830507e-01	1.440408e+14	3.975574e+14	1.680608e+14	1.090648e+04	3.850598e+03	2.448915e+03	0	6.725096e-04
1.160000e+09	5.758945e+12	0.000000e+00	4.830507e-01	1.425303e+14	3.945209e+14	1.673351e+14	1.088883e+04	3.847815e+03	2.447146e+03	0	6.690342e-04
1.170000e+09	5.670415e+12	0.000000e+00	4.830507e-01	1.410473e+14	3.915307e+14	1.666142e+14	1.087137e+04	3.845058e+03	2.445392e+03	0	6.655882e-04
1.180000e+09	5.583525e+12	0.000000e+00	4.830507e-01	1.395910e+14	3.885858e+14	1.658980e+14	1.085408e+04	3.842326e+03	2.443655e+03	0	6.621710e-04
1.190000e+09	5.498232e+12	0.000000e+00	4.830507e-01	1.381609e+14	3.856852e+14	1.651867e+14	1.083697e+04	3.839619e+03	2.441933e+03	0	6.587819e-04
1.200000e+09	5.414495e+12	0.000000e+00	4.830507e-01	1.367563e+14	3.828277e+14	1.644800e+14	1.082004e+04	3.836937e+03	2.440227e+03	0	6.554204e-04
1.210000e+09	5.332275e+12	0.000000e+00	4.830507e-01	1.353764e+14	3.800125e+14	1.637781e+14	1.080327e+04	3.834279e+03	2.438537e+03	0	6.520860e-04
1.220000e+09	5.251534e+12	0.000000e+00	4.830507e-01	1.340208e+14	3.772386e+14	1.630808e+14	1.078668e+04	3.831644e+03	2.436861e+03	0	6.487779e-04
1.230000e+09	5.172234e+12	0.000000e+00	4.830507e-01	1.326887e+14	3.745050e+14	1.623881e+14	1.077025e+04	3.829033e+03	2.435201e+03	0	6.454958e-04
1.240000e+09	5.094341e+12	0.000000e+00	4.830507e-01	1.313797e+14	3.718109e+14	1.617000e+14	1.075399e+04	3.826445e+03	2.433554e+03	0	6.422390e-04
1.250000e+09	5.017819e+12	0.000000e+00	4.830507e-01	1.300931e+14	3.691554e+14	1.610164e+14	1.073788e+04	3.823879e+03	2.431923e+03	0	6.390071e-04
1.260000e+09	4.942634e+12	0.000000e+00	4.830507e-01	1.288283e+14	3.665376e+14	1.603373e+14	1.072193e+04	3.821335e+03	2.430305e+03	0	6.357995e-04
1.270000e+09	4.868755e+12	0.000000e+00	4.830507e-01	1.275850e+14	3.639567e+14	1.596628e+14	1.070614e+04	3.818813e+03	2.428701e+03	0	6.326157e-04
1.280000e+09	4.796149e+12	0.000000e+00	4.830507e-01	1.263626e+14	3.614119e+14	1.589926e+14	1.069050e+04	3.816313e+03	2.427111e+03	0	6.294553e-04
1.290000e+09	4.724786e+12	0.000000e+00	4.830507e-01	1.251605e+14	3.589025e+14	1.583269e+14	1.067500e+04	3.813834e+03	2.425534e+03	0	6.263178e-04
1.300000e+09	4.654637e+12	0.000000e+00	4.830507e-01	1.239783e+14	3.564276e+14	1.576655e+14	1.065966e+04	3.811375e+03	2.423970e+03	0	6.232026e-04
1.310000e+09	4.585673e+12	0.000000e+00	4.830507e-01	1.228155e+14	3.539866e+14	1.570084e+14	1.064446e+04	3.808937e+03	2.422420e+03	0	6.201095e-04
1.320000e+09	4.517865e+12	0.000000e+00	4.830507e-01	1.216717e+14	3.515788e+14	1.563557e+14	1.062940e+04	3.806519e+03	2.420882e+03	0	6.170378e-04
1.330000e+09	4.451188e+12	0.000000e+00	4.830507e-01	1.205464e+14	3.492034e+14	1.557072e+14	1.061448e+04	3.804120e+03	2.419357e+03	0	6.139872e-04
1.340000e+09	4.385614e+12	0.000000e+00	4.830507e-01	1.194393e+14	3.468598e+14	1.550630e+14	1.059970e+04	3.801741e+03	2.417844e+03	0	6.109572e-04
1.350000e+09	4.321119e+12	0.000000e+00	4.830507e-01	1.183498e+14	3.445473e+14	1.544230e+14	1.058505e+04	3.799382e+03	2.416343e+03	0	6.079475e-04
1.360000e+09	4.257678e+12	0.000000e+00	4.830507e-01	1.172776e+14	3.422654e+14	1.537871e+14	1.057054e+04	3.797041e+03	2.414854e+03	0	6.049576e-04
