#t		Qconv[W]	Ri[Rp]		R*[Rp]		Qc[W]		Qm[W]		Qr[W]		Tcmb[K]		Tl[K]		Tup[K]		RiFlag		Bs[T]
0.000000e+00	1.768772e+14	0.000000e+00	4.830507e-01	2.807394e+15	2.073331e+15	3.109809e+14	1.923577e+04	4.473781e+03	2.823076e+03	0	2.091763e-03
1.000000e+07	1.643502e+14	0.000000e+00	4.830507e-01	2.614035e+15	2.123002e+15	3.092579e+14	1.892058e+04	4.505141e+03	2.842865e+03	0	2.041167e-03
2.000000e+07	1.531018e+14	0.000000e+00	4.830507e-01	2.440353e+15	2.152011e+15	3.075477e+14	1.862658e+04	4.529143e+03	2.858011e+03	0	1.993496e-03
3.000000e+07	1.429687e+14	0.000000e+00	4.830507e-01	2.283838e+15	2.163799e+15	3.058503e+14	1.835167e+04	4.547010e+03	2.869286e+03	0	1.948508e-03
4.000000e+07	1.338120e+14	0.000000e+00	4.830507e-01	2.142357e+15	2.161540e+15	3.041656e+14	1.809399e+04	4.559777e+03	2.877342e+03	0	1.905988e-03
5.000000e+07	1.255134e+14	0.000000e+00	4.830507e-01	2.014090e+15	2.148046e+15	3.024934e+14	1.785195e+04	4.568317e+03	2.882731e+03	0	1.865743e-03
6.000000e+07	1.179713e+14	0.000000e+00	4.830507e-01	1.897475e+15	2.125738e+15	3.008337e+14	1.762410e+04	4.573364e+03	2.885916e+03	0	1.827598e-03
7.000000e+07	1.110983e+14	0.000000e+00	4.830507e-01	1.791168e+15	2.096658e+15	2.991864e+14	1.740918e+04	4.575529e+03	2.887282e+03	0	1.791393e-03
8.000000e+07	1.048188e+14	0.000000e+00	4.830507e-01	1.694005e+15	2.062499e+15	2.975513e+14	1.720608e+04	4.575323e+03	2.887152e+03	0	1.756985e-03
9.000000e+07	9.906726e+13	0.000000e+00	4.830507e-01	1.604979e+15	2.024650e+15	2.959284e+14	1.701379e+04	4.573170e+03	2.885794e+03	0	1.724243e-03
1.000000e+08	9.378680e+13	0.000000e+00	4.830507e-01	1.523214e+15	1.984231e+15	2.943175e+14	1.683143e+04	4.569425e+03	2.883431e+03	0	1.693047e-03
1.100000e+08	8.892769e+13	0.000000e+00	4.830507e-01	1.447945e+15	1.942143e+15	2.927186e+14	1.665820e+04	4.564382e+03	2.880248e+03	0	1.663288e-03
1.200000e+08	8.444646e+13	0.000000e+00	4.830507e-01	1.378503e+15	1.899098e+15	2.911315e+14	1.649339e+04	4.558286e+03	2.876401e+03	0	1.634867e-03
1.300000e+08	8.030499e+13	0.000000e+00	4.830507e-01	1.314301e+15	1.855661e+15	2.895562e+14	1.633636e+04	4.551339e+03	2.872017e+03	0	1.607691e-03
1.400000e+08	7.646974e+13	0.000000e+00	4.830507e-01	1.254824e+15	1.812266e+15	2.879926e+14	1.618653e+04	4.543711e+03	2.867204e+03	0	1.581679e-03
1.500000e+08	7.291116e+13	0.000000e+00	4.830507e-01	1.199615e+15	1.769252e+15	2.864405e+14	1.604337e+04	4.535543e+03	2.862050e+03	0	1.556753e-03
1.600000e+08	6.960311e+13	0.000000e+00	4.830507e-01	1.148273e+15	1.726874e+15	2.848998e+14	1.590642e+04	4.526952e+03	2.856629e+03	0	1.532844e-03
1.700000e+08	6.652242e+13	0.000000e+00	4.830507e-01	1.100441e+15	1.685322e+15	2.833706e+14	1.577525e+04	4.518037e+03	2.851003e+03	0	1.509887e-03
1.800000e+08	6.364852e+13	0.000000e+00	4.830507e-01	1.055802e+15	1.644735e+15	2.818526e+14	1.564947e+04	4.508877e+03	2.845223e+03	0	1.487823e-03
1.900000e+08	6.096308e+13	0.000000e+00	4.830507e-01	1.014073e+15	1.605210e+15	2.803457e+14	1.552872e+04	4.499542e+03	2.839332e+03	0	1.466597e-03
2.000000e+08	5.844976e+13	0.000000e+00	4.830507e-01	9.750028e+14	1.566812e+15	2.788500e+14	1.541268e+04	4.490088e+03	2.833366e+03	0	1.446159e-03
2.100000e+08	5.609392e+13	0.000000e+00	4.830507e-01	9.383659e+14	1.529579e+15	2.773653e+14	1.530105e+04	4.480561e+03	2.827355e+03	0	1.426463e-03
2.200000e+08	5.388246e+13	0.000000e+00	4.830507e-01	9.039602e+14	1.493532e+15	2.758915e+14	1.519357e+04	4.471000e+03	2.821322e+03	0	1.407465e-03
2.300000e+08	5.180360e+13	0.000000e+00	4.830507e-01	8.716040e+14	1.458674e+15	2.744285e+14	1.508997e+04	4.461439e+03	2.815288e+03	0	1.389126e-03
2.400000e+08	4.984672e+13	0.000000e+00	4.830507e-01	8.411339e+14	1.424996e+15	2.729762e+14	1.499005e+04	4.451903e+03	2.809271e+03	0	1.371410e-03
2.500000e+08	4.800227e+13	0.000000e+00	4.830507e-01	8.124025e+14	1.392482e+15	2.715345e+14	1.489357e+04	4.442414e+03	2.803283e+03	0	1.354282e-03
2.600000e+08	4.626160e+13	0.000000e+00	4.830507e-01	7.852763e+14	1.361107e+15	2.701035e+14	1.480035e+04	4.432992e+03	2.797337e+03	0	1.337710e-03
2.700000e+08	4.461689e+13	0.000000e+00	4.830507e-01	7.596346e+14	1.330842e+15	2.686828e+14	1.471021e+04	4.423650e+03	2.791442e+03	0	1.321666e-03
2.800000e+08	4.306102e+13	0.000000e+00	4.830507e-01	7.353680e+14	1.301656e+15	2.672726e+14	1.462298e+04	4.414400e+03	2.785606e+03	0	1.306121e-03
2.900000e+08	4.158756e+13	0.000000e+00	4.830507e-01	7.123768e+14	1.273514e+15	2.658726e+14	1.453851e+04	4.405253e+03	2.779833e+03	0	1.291050e-03
3.000000e+08	4.019062e+13	0.000000e+00	4.830507e-01	6.905704e+14	1.246379e+15	2.644829e+14	1.445665e+04	4.396216e+03	2.774131e+03	0	1.276429e-03
3.100000e+08	3.886484e+13	0.000000e+00	4.830507e-01	6.698660e+14	1.220215e+15	2.631032e+14	1.437728e+04	4.387294e+03	2.768501e+03	0	1.262237e-03
3.200000e+08	3.760534e+13	0.000000e+00	4.830507e-01	6.501883e+14	1.194985e+15	2.617336e+14	1.430025e+04	4.378493e+03	2.762947e+03	0	1.248451e-03
3.300000e+08	3.640763e+13	0.000000e+00	4.830507e-01	6.314679e+14	1.170652e+15	2.603740e+14	1.422547e+04	4.369816e+03	2.757472e+03	0	1.235054e-03
3.400000e+08	3.526762e+13	0.000000e+00	4.830507e-01	6.136417e+14	1.147179e+15	2.590242e+14	1.415282e+04	4.361266e+03	2.752076e+03	0	1.222026e-03
3.500000e+08	3.418155e+13	0.000000e+00	4.830507e-01	5.966515e+14	1.124532e+15	2.576843e+14	1.408220e+04	4.352843e+03	2.746761e+03	0	1.209351e-03
3.600000e+08	3.314594e+13	0.000000e+00	4.830507e-01	5.804439e+14	1.102676e+15	2.563540e+14	1.401352e+04	4.344549e+03	2.741527e+03	0	1.197012e-03
3.700000e+08	3.215763e+13	0.000000e+00	4.830507e-01	5.649697e+14	1.081578e+15	2.550334e+14	1.394669e+04	4.336384e+03	2.736375e+03	0	1.184995e-03
3.800000e+08	3.121368e+13	0.000000e+00	4.830507e-01	5.501835e+14	1.061204e+15	2.537223e+14	1.388162e+04	4.328348e+03	2.731304e+03	0	1.173285e-03
3.900000e+08	3.031138e+13	0.000000e+00	4.830507e-01	5.360437e+14	1.041525e+15	2.524208e+14	1.381825e+04	4.320440e+03	2.726314e+03	0	1.161869e-03
4.000000e+08	2.944823e+13	0.000000e+00	4.830507e-01	5.225114e+14	1.022510e+15	2.511286e+14	1.375648e+04	4.312659e+03	2.721404e+03	0	1.150734e-03
4.100000e+08	2.862192e+13	0.000000e+00	4.830507e-01	5.095511e+14	1.004130e+15	2.498457e+14	1.369626e+04	4.305004e+03	2.716573e+03	0	1.139869e-03
4.200000e+08	2.783031e+13	0.000000e+00	4.830507e-01	4.971294e+14	9.863589e+14	2.485721e+14	1.363753e+04	4.297473e+03	2.711821e+03	0	1.129261e-03
4.300000e+08	2.707141e+13	0.000000e+00	4.830507e-01	4.852158e+14	9.691696e+14	2.473076e+14	1.358021e+04	4.290065e+03	2.707147e+03	0	1.118902e-03
4.400000e+08	2.634338e+13	0.000000e+00	4.830507e-01	4.737817e+14	9.525373e+14	2.460523e+14	1.352426e+04	4.282778e+03	2.702548e+03	0	1.108781e-03
4.500000e+08	2.564449e+13	0.000000e+00	4.830507e-01	4.628005e+14	9.364382e+14	2.448060e+14	1.346961e+04	4.275610e+03	2.698025e+03	0	1.098887e-03
4.600000e+08	2.497317e+13	0.000000e+00	4.830507e-01	4.522477e+14	9.208495e+14	2.435686e+14	1.341622e+04	4.268559e+03	2.693576e+03	0	1.089214e-03
4.700000e+08	2.432791e+13	0.000000e+00	4.830507e-01	4.421002e+14	9.057496e+14	2.423401e+14	1.336404e+04	4.261623e+03	2.689199e+03	0	1.079751e-03
4.800000e+08	2.370734e+13	0.000000e+00	4.830507e-01	4.323365e+14	8.911179e+14	2.411204e+14	1.331302e+04	4.254799e+03	2.684893e+03	0	1.070490e-03
4.900000e+08	2.311017e+13	0.000000e+00	4.830507e-01	4.229367e+14	8.769346e+14	2.399094e+14	1.326312e+04	4.248086e+03	2.680657e+03	0	1.061426e-03
5.000000e+08	2.253518e+13	0.000000e+00	4.830507e-01	4.138820e+14	8.631811e+14	2.387071e+14	1.321430e+04	4.241481e+03	2.676489e+03	0	1.052549e-03
5.100000e+08	2.198125e+13	0.000000e+00	4.830507e-01	4.051550e+14	8.498396e+14	2.375133e+14	1.316651e+04	4.234982e+03	2.672387e+03	0	1.043853e-03
5.200000e+08	2.144731e+13	0.000000e+00	4.830507e-01	3.967393e+14	8.368931e+14	2.363281e+14	1.311973e+04	4.228586e+03	2.668352e+03	0	1.035332e-03
5.300000e+08	2.093239e+13	0.000000e+00	4.830507e-01	3.886196e+14	8.243255e+14	2.351514e+14	1.307391e+04	4.222292e+03	2.664380e+03	0	1.026979e-03
5.400000e+08	2.043554e+13	0.000000e+00	4.830507e-01	3.807814e+14	8.121215e+14	2.339830e+14	1.302902e+04	4.216098e+03	2.660471e+03	0	1.018788e-03
5.500000e+08	1.995590e+13	0.000000e+00	4.830507e-01	3.732112e+14	8.002664e+14	2.328230e+14	1.298503e+04	4.210000e+03	2.656624e+03	0	1.010754e-03
5.600000e+08	1.949265e+13	0.000000e+00	4.830507e-01	3.658965e+14	7.887464e+14	2.316711e+14	1.294191e+04	4.203998e+03	2.652836e+03	0	1.002872e-03
5.700000e+08	1.904503e+13	0.000000e+00	4.830507e-01	3.588251e+14	7.775481e+14	2.305275e+14	1.289962e+04	4.198088e+03	2.649107e+03	0	9.951358e-04
5.800000e+08	1.861229e+13	0.000000e+00	4.830507e-01	3.519860e+14	7.666590e+14	2.293920e+14	1.285815e+04	4.192270e+03	2.645435e+03	0	9.875409e-04
5.900000e+08	1.819377e+13	0.000000e+00	4.830507e-01	3.453684e+14	7.560670e+14	2.282645e+14	1.281747e+04	4.186540e+03	2.641819e+03	0	9.800827e-04
6.000000e+08	1.778882e+13	0.000000e+00	4.830507e-01	3.389626e+14	7.457607e+14	2.271450e+14	1.277754e+04	4.180897e+03	2.638258e+03	0	9.727567e-04
6.100000e+08	1.739684e+13	0.000000e+00	4.830507e-01	3.327590e+14	7.357292e+14	2.260335e+14	1.273836e+04	4.175338e+03	2.634751e+03	0	9.655586e-04
6.200000e+08	1.701725e+13	0.000000e+00	4.830507e-01	3.267488e+14	7.259621e+14	2.249298e+14	1.269988e+04	4.169862e+03	2.631295e+03	0	9.584842e-04
6.300000e+08	1.664952e+13	0.000000e+00	4.830507e-01	3.209237e+14	7.164495e+14	2.238338e+14	1.266209e+04	4.164467e+03	2.627891e+03	0	9.515298e-04
6.400000e+08	1.629313e+13	0.000000e+00	4.830507e-01	3.152756e+14	7.071818e+14	2.227456e+14	1.262498e+04	4.159152e+03	2.624537e+03	0	9.446915e-04
6.500000e+08	1.594760e+13	0.000000e+00	4.830507e-01	3.097972e+14	6.981502e+14	2.216651e+14	1.258851e+04	4.153913e+03	2.621231e+03	0	9.379657e-04
6.600000e+08	1.561248e+13	0.000000e+00	4.830507e-01	3.044813e+14	6.893459e+14	2.205922e+14	1.255268e+04	4.148750e+03	2.617973e+03	0	9.313490e-04
6.700000e+08	1.528733e+13	0.000000e+00	4.830507e-01	2.993212e+14	6.807607e+14	2.195268e+14	1.251745e+04	4.143661e+03	2.614762e+03	0	9.248380e-04
6.800000e+08	1.497174e+13	0.000000e+00	4.830507e-01	2.943106e+14	6.723868e+14	2.184689e+14	1.248282e+04	4.138644e+03	2.611596e+03	0	9.184297e-04
6.900000e+08	1.466533e+13	0.000000e+00	4.830507e-01	2.894434e+14	6.642167e+14	2.174184e+14	1.244876e+04	4.133698e+03	2.608475e+03	0	9.121209e-04
7.000000e+08	1.436772e+13	0.000000e+00	4.830507e-01	2.847139e+14	6.562432e+14	2.163753e+14	1.241527e+04	4.128820e+03	2.605397e+03	0	9.059088e-04
7.100000e+08	1.407858e+13	0.000000e+00	4.830507e-01	2.801167e+14	6.484595e+14	2.153395e+14	1.238232e+04	4.124010e+03	2.602361e+03	0	8.997905e-04
7.200000e+08	1.379756e+13	0.000000e+00	4.830507e-01	2.756466e+14	6.408590e+14	2.143109e+14	1.234989e+04	4.119265e+03	2.599367e+03	0	8.937633e-04
7.300000e+08	1.352434e+13	0.000000e+00	4.830507e-01	2.712988e+14	6.334354e+14	2.132896e+14	1.231799e+04	4.114585e+03	2.596414e+03	0	8.878247e-04
7.400000e+08	1.325864e+13	0.000000e+00	4.830507e-01	2.670684e+14	6.261828e+14	2.122753e+14	1.228658e+04	4.109968e+03	2.593501e+03	0	8.819721e-04
7.500000e+08	1.300017e+13	0.000000e+00	4.830507e-01	2.629512e+14	6.190953e+14	2.112681e+14	1.225566e+04	4.105412e+03	2.590626e+03	0	8.762031e-04
7.600000e+08	1.274864e+13	0.000000e+00	4.830507e-01	2.589429e+14	6.121676e+14	2.102680e+14	1.222522e+04	4.100917e+03	2.587789e+03	0	8.705154e-04
7.700000e+08	1.250381e+13	0.000000e+00	4.830507e-01	2.550394e+14	6.053942e+14	2.092748e+14	1.219523e+04	4.096480e+03	2.584989e+03	0	8.649068e-04
7.800000e+08	1.226543e+13	0.000000e+00	4.830507e-01	2.512370e+14	5.987703e+14	2.082885e+14	1.216570e+04	4.092101e+03	2.582226e+03	0	8.593751e-04
7.900000e+08	1.203326e+13	0.000000e+00	4.830507e-01	2.475319e+14	5.922909e+14	2.073090e+14	1.213660e+04	4.087778e+03	2.579498e+03	0	8.539182e-04
8.000000e+08	1.180708e+13	0.000000e+00	4.830507e-01	2.439207e+14	5.859514e+14	2.063364e+14	1.210793e+04	4.083510e+03	2.576805e+03	0	8.485342e-04
8.100000e+08	1.158668e+13	0.000000e+00	4.830507e-01	2.404001e+14	5.797474e+14	2.053704e+14	1.207968e+04	4.079296e+03	2.574146e+03	0	8.432211e-04
8.200000e+08	1.137185e+13	0.000000e+00	4.830507e-01	2.369669e+14	5.736745e+14	2.044112e+14	1.205183e+04	4.075135e+03	2.571520e+03	0	8.379771e-04
8.300000e+08	1.116239e+13	0.000000e+00	4.830507e-01	2.336179e+14	5.677288e+14	2.034586e+14	1.202438e+04	4.071026e+03	2.568927e+03	0	8.328003e-04
8.400000e+08	1.095812e+13	0.000000e+00	4.830507e-01	2.303505e+14	5.619062e+14	2.025126e+14	1.199732e+04	4.066966e+03	2.566365e+03	0	8.276890e-04
8.500000e+08	1.075886e+13	0.000000e+00	4.830507e-01	2.271617e+14	5.562030e+14	2.015731e+14	1.197063e+04	4.062957e+03	2.563835e+03	0	8.226415e-04
8.600000e+08	1.056445e+13	0.000000e+00	4.830507e-01	2.240489e+14	5.506156e+14	2.006401e+14	1.194431e+04	4.058995e+03	2.561335e+03	0	8.176563e-04
8.700000e+08	1.037471e+13	0.000000e+00	4.830507e-01	2.210096e+14	5.451404e+14	1.997135e+14	1.191835e+04	4.055082e+03	2.558866e+03	0	8.127317e-04
8.800000e+08	1.018950e+13	0.000000e+00	4.830507e-01	2.180413e+14	5.397742e+14	1.987933e+14	1.189273e+04	4.051214e+03	2.556425e+03	0	8.078662e-04
8.900000e+08	1.000866e+13	0.000000e+00	4.830507e-01	2.151417e+14	5.345136e+14	1.978794e+14	1.186746e+04	4.047392e+03	2.554013e+03	0	8.030583e-04
9.000000e+08	9.832047e+12	0.000000e+00	4.830507e-01	2.123087e+14	5.293556e+14	1.969717e+14	1.184253e+04	4.043614e+03	2.551630e+03	0	7.983067e-04
9.100000e+08	9.659528e+12	0.000000e+00	4.830507e-01	2.095399e+14	5.242973e+14	1.960703e+14	1.181792e+04	4.039880e+03	2.549273e+03	0	7.936100e-04
9.200000e+08	9.490971e+12	0.000000e+00	4.830507e-01	2.068335e+14	5.193357e+14	1.951751e+14	1.179363e+04	4.036189e+03	2.546944e+03	0	7.889667e-04
9.300000e+08	9.326249e+12	0.000000e+00	4.830507e-01	2.041874e+14	5.144680e+14	1.942860e+14	1.176966e+04	4.032540e+03	2.544641e+03	0	7.843757e-04
9.400000e+08	9.165241e+12	0.000000e+00	4.830507e-01	2.015997e+14	5.096917e+14	1.934030e+14	1.174599e+04	4.028931e+03	2.542364e+03	0	7.798357e-04
9.500000e+08	9.007830e+12	0.000000e+00	4.830507e-01	1.990686e+14	5.050041e+14	1.925260e+14	1.172262e+04	4.025363e+03	2.540112e+03	0	7.753454e-04
9.600000e+08	8.853907e+12	0.000000e+00	4.830507e-01	1.965924e+14	5.004029e+14	1.916549e+14	1.169954e+04	4.021834e+03	2.537886e+03	0	7.709037e-04
9.700000e+08	8.703362e+12	0.000000e+00	4.830507e-01	1.941694e+14	4.958855e+14	1.907898e+14	1.167674e+04	4.018344e+03	2.535683e+03	0	7.665094e-04
9.800000e+08	8.556094e+12	0.000000e+00	4.830507e-01	1.917981e+14	4.914497e+14	1.899306e+14	1.165423e+04	4.014891e+03	2.533505e+03	0	7.621615e-04
9.900000e+08	8.412004e+12	0.000000e+00	4.830507e-01	1.894768e+14	4.870933e+14	1.890773e+14	1.163199e+04	4.011476e+03	2.531350e+03	0	7.578588e-04
1.000000e+09	8.270995e+12	0.000000e+00	4.830507e-01	1.872040e+14	4.828141e+14	1.882297e+14	1.161002e+04	4.008097e+03	2.529217e+03	0	7.536003e-04
1.010000e+09	8.132978e+12	0.000000e+00	4.830507e-01	1.849784e+14	4.786101e+14	1.873879e+14	1.158831e+04	4.004754e+03	2.527108e+03	0	7.493850e-04
1.020000e+09	7.997863e+12	0.000000e+00	4.830507e-01	1.827986e+14	4.744793e+14	1.865518e+14	1.156686e+04	4.001446e+03	2.525020e+03	0	7.452119e-04
1.030000e+09	7.865567e+12	0.000000e+00	4.830507e-01	1.806632e+14	4.704198e+14	1.857213e+14	1.154565e+04	3.998173e+03	2.522955e+03	0	7.410801e-04
1.040000e+09	7.736006e+12	0.000000e+00	4.830507e-01	1.785710e+14	4.664298e+14	1.848964e+14	1.152470e+04	3.994933e+03	2.520910e+03	0	7.369886e-04
1.050000e+09	7.609104e+12	0.000000e+00	4.830507e-01	1.765207e+14	4.625073e+14	1.840772e+14	1.150399e+04	3.991726e+03	2.518886e+03	0	7.329365e-04
1.060000e+09	7.484784e+12	0.000000e+00	4.830507e-01	1.745112e+14	4.586508e+14	1.832634e+14	1.148351e+04	3.988551e+03	2.516883e+03	0	7.289229e-04
1.070000e+09	7.362973e+12	0.000000e+00	4.830507e-01	1.725413e+14	4.548585e+14	1.824551e+14	1.146327e+04	3.985409e+03	2.514900e+03	0	7.249469e-04
1.080000e+09	7.243601e+12	0.000000e+00	4.830507e-01	1.706099e+14	4.511287e+14	1.816523e+14	1.144325e+04	3.982298e+03	2.512937e+03	0	7.210078e-04
1.090000e+09	7.126600e+12	0.000000e+00	4.830507e-01	1.687159e+14	4.474601e+14	1.808549e+14	1.142346e+04	3.979217e+03	2.510993e+03	0	7.171048e-04
1.100000e+09	7.011905e+12	0.000000e+00	4.830507e-01	1.668584e+14	4.438509e+14	1.800628e+14	1.140389e+04	3.976167e+03	2.509068e+03	0	7.132369e-04
1.110000e+09	6.899453e+12	0.000000e+00	4.830507e-01	1.650363e+14	4.402998e+14	1.792760e+14	1.138453e+04	3.973146e+03	2.507162e+03	0	7.094036e-04
1.120000e+09	6.789182e+12	0.000000e+00	4.830507e-01	1.632487e+14	4.368054e+14	1.784945e+14	1.136538e+04	3.970154e+03	2.505274e+03	0	7.056039e-04
1.130000e+09	6.681034e+12	0.000000e+00	4.830507e-01	1.614947e+14	4.333662e+14	1.777182e+14	1.134644e+04	3.967191e+03	2.503405e+03	0	7.018372e-04
1.140000e+09	6.574952e+12	0.000000e+00	4.830507e-01	1.597734e+14	4.299810e+14	1.769472e+14	1.132770e+04	3.964256e+03	2.501553e+03	0	6.981028e-04
1.150000e+09	6.470882e+12	0.000000e+00	4.830507e-01	1.580839e+14	4.266485e+14	1.761812e+14	1.130916e+04	3.961349e+03	2.499718e+03	0	6.943999e-04
1.160000e+09	6.368770e+12	0.000000e+00	4.830507e-01	1.564253e+14	4.233674e+14	1.754204e+14	1.129081e+04	3.958469e+03	2.497900e+03	0	6.907279e-04
1.170000e+09	6.268565e+12	0.000000e+00	4.830507e-01	1.547970e+14	4.201365e+14	1.746646e+14	1.127266e+04	3.955615e+03	2.496100e+03	0	6.870862e-04
1.180000e+09	6.170218e+12	0.000000e+00	4.830507e-01	1.531981e+14	4.169546e+14	1.739139e+14	1.125470e+04	3.952788e+03	2.494315e+03	0	6.834740e-04
1.190000e+09	6.073681e+12	0.000000e+00	4.830507e-01	1.516278e+14	4.138206e+14	1.731682e+14	1.123692e+04	3.949986e+03	2.492548e+03	0	6.798908e-04
1.200000e+09	5.978908e+12	0.000000e+00	4.830507e-01	1.500855e+14	4.107335e+14	1.724274e+14	1.121932e+04	3.947209e+03	2.490795e+03	0	6.763359e-04
1.210000e+09	5.885853e+12	0.000000e+00	4.830507e-01	1.485704e+14	4.076921e+14	1.716915e+14	1.120190e+04	3.944458e+03	2.489059e+03	0	6.728087e-04
1.220000e+09	5.794474e+12	0.000000e+00	4.830507e-01	1.470819e+14	4.046954e+14	1.709605e+14	1.118465e+04	3.941731e+03	2.487338e+03	0	6.693087e-04
1.230000e+09	5.704729e+12	0.000000e+00	4.830507e-01	1.456193e+14	4.017425e+14	1.702344e+14	1.116758e+04	3.939027e+03	2.485632e+03	0	6.658353e-04
1.240000e+09	5.616576e+12	0.000000e+00	4.830507e-01	1.441819e+14	3.988323e+14	1.695130e+14	1.115068e+04	3.936348e+03	2.483942e+03	0	6.623879e-04
1.250000e+09	5.529978e+12	0.000000e+00	4.830507e-01	1.427692e+14	3.959638e+14	1.687964e+14	1.113394e+04	3.933692e+03	2.482265e+03	0	6.589659e-04
1.260000e+09	5.444895e+12	0.000000e+00	4.830507e-01	1.413806e+14	3.931363e+14	1.680845e+14	1.111737e+04	3.931058e+03	2.480604e+03	0	6.555689e-04
1.270000e+09	5.361291e+12	0.000000e+00	4.830507e-01	1.400154e+14	3.903488e+14	1.673774e+14	1.110096e+04	3.928447e+03	2.478956e+03	0	6.521962e-04
1.280000e+09	5.279130e+12	0.000000e+00	4.830507e-01	1.386731e+14	3.876003e+14	1.666748e+14	1.108470e+04	3.925859e+03	2.477323e+03	0	6.488475e-04
1.290000e+09	5.198378e+12	0.000000e+00	4.830507e-01	1.373532e+14	3.848902e+14	1.659769e+14	1.106860e+04	3.923292e+03	2.475703e+03	0	6.455221e-04
1.300000e+09	5.119001e+12	0.000000e+00	4.830507e-01	1.360551e+14	3.822176e+14	1.652836e+14	1.105265e+04	3.920746e+03	2.474096e+03	0	6.422196e-04
1.310000e+09	5.040967e+12	0.000000e+00	4.830507e-01	1.347784e+14	3.795816e+14	1.645948e+14	1.103686e+04	3.918222e+03	2.472503e+03	0	6.389395e-04
1.320000e+09	4.964243e+12	0.000000e+00	4.830507e-01	1.335225e+14	3.769816e+14	1.639105e+14	1.102121e+04	3.915718e+03	2.470923e+03	0	6.356814e-04
1.330000e+09	4.888800e+12	0.000000e+00	4.830507e-01	1.322869e+14	3.744167e+14	1.632307e+14	1.100571e+04	3.913235e+03	2.469356e+03	0	6.324447e-04
1.340000e+09	4.814607e+12	0.000000e+00	4.830507e-01	1.310713e+14	3.718863e+14	1.625553e+14	1.099035e+04	3.910771e+03	2.467802e+03	0	6.292291e-04
1.350000e+09	4.741637e+12	0.000000e+00	4.830507e-01	1.298750e+14	3.693896e+14	1.618844e+14	1.097513e+04	3.908328e+03	2.466260e+03	0	6.260340e-04
1.360000e+09	4.669860e+12	0.000000e+00	4.830507e-01	1.286978e+14	3.669259e+14	1.612178e+14	1.096004e+04	3.905904e+03	2.464731e+03	0	6.228590e-04
