#t		Qconv[W]	Ri[Rp]		R*[Rp]		Qc[W]		Qm[W]		Qr[W]		Tcmb[K]		Tl[K]		Tup[K]		RiFlag		Bs[T]
0.000000e+00	1.979391e+14	0.000000e+00	4.745763e-01	3.184341e+15	2.079597e+15	3.276722e+14	2.036524e+04	4.587585e+03	2.855198e+03	0	2.196432e-03
1.000000e+07	1.833591e+14	0.000000e+00	4.745763e-01	2.956159e+15	2.155863e+15	3.258566e+14	2.001307e+04	4.628808e+03	2.880854e+03	0	2.141121e-03
2.000000e+07	1.703231e+14	0.000000e+00	4.745763e-01	2.752070e+15	2.207643e+15	3.240546e+14	1.968551e+04	4.661191e+03	2.901008e+03	0	2.089128e-03
3.000000e+07	1.586255e+14	0.000000e+00	4.745763e-01	2.568871e+15	2.238447e+15	3.222661e+14	1.938001e+04	4.686151e+03	2.916543e+03	0	2.040163e-03
4.000000e+07	1.480934e+14	0.000000e+00	4.745763e-01	2.403866e+15	2.251707e+15	3.204910e+14	1.909439e+04	4.704904e+03	2.928214e+03	0	1.993972e-03
5.000000e+07	1.385805e+14	0.000000e+00	4.745763e-01	2.254775e+15	2.250594e+15	3.187291e+14	1.882671e+04	4.718481e+03	2.936664e+03	0	1.950329e-03
6.000000e+07	1.299621e+14	0.000000e+00	4.745763e-01	2.119654e+15	2.237928e+15	3.169803e+14	1.857527e+04	4.727755e+03	2.942436e+03	0	1.909030e-03
7.000000e+07	1.221316e+14	0.000000e+00	4.745763e-01	1.996840e+15	2.216147e+15	3.152446e+14	1.833860e+04	4.733458e+03	2.945985e+03	0	1.869892e-03
8.000000e+07	1.149975e+14	0.000000e+00	4.745763e-01	1.884905e+15	2.187312e+15	3.135217e+14	1.811537e+04	4.736204e+03	2.947694e+03	0	1.832750e-03
9.000000e+07	1.084806e+14	0.000000e+00	4.745763e-01	1.782616e+15	2.153144e+15	3.118117e+14	1.790442e+04	4.736508e+03	2.947883e+03	0	1.797454e-03
1.000000e+08	1.025125e+14	0.000000e+00	4.745763e-01	1.688906e+15	2.115056e+15	3.101144e+14	1.770470e+04	4.734798e+03	2.946819e+03	0	1.763868e-03
1.100000e+08	9.703390e+13	0.000000e+00	4.745763e-01	1.602847e+15	2.074198e+15	3.084296e+14	1.751530e+04	4.731432e+03	2.944725e+03	0	1.731869e-03
1.200000e+08	9.199293e+13	0.000000e+00	4.745763e-01	1.523631e+15	2.031497e+15	3.067574e+14	1.733538e+04	4.726710e+03	2.941785e+03	0	1.701343e-03
1.300000e+08	8.734433e+13	0.000000e+00	4.745763e-01	1.450552e+15	1.987692e+15	3.050975e+14	1.716420e+04	4.720880e+03	2.938157e+03	0	1.672189e-03
1.400000e+08	8.304844e+13	0.000000e+00	4.745763e-01	1.382990e+15	1.943370e+15	3.034499e+14	1.700111e+04	4.714150e+03	2.933969e+03	0	1.644312e-03
1.500000e+08	7.907039e+13	0.000000e+00	4.745763e-01	1.320402e+15	1.898988e+15	3.018145e+14	1.684549e+04	4.706695e+03	2.929329e+03	0	1.617627e-03
1.600000e+08	7.537945e+13	0.000000e+00	4.745763e-01	1.262307e+15	1.854904e+15	3.001912e+14	1.669681e+04	4.698659e+03	2.924327e+03	0	1.592055e-03
1.700000e+08	7.194846e+13	0.000000e+00	4.745763e-01	1.208281e+15	1.811389e+15	2.985798e+14	1.655457e+04	4.690164e+03	2.919040e+03	0	1.567524e-03
1.800000e+08	6.875338e+13	0.000000e+00	4.745763e-01	1.157949e+15	1.768649e+15	2.969804e+14	1.641834e+04	4.681310e+03	2.913530e+03	0	1.543969e-03
1.900000e+08	6.577283e+13	0.000000e+00	4.745763e-01	1.110977e+15	1.726836e+15	2.953927e+14	1.628770e+04	4.672184e+03	2.907850e+03	0	1.521327e-03
2.000000e+08	6.298779e+13	0.000000e+00	4.745763e-01	1.067067e+15	1.686057e+15	2.938167e+14	1.616229e+04	4.662854e+03	2.902043e+03	0	1.499544e-03
2.100000e+08	6.038130e+13	0.000000e+00	4.745763e-01	1.025955e+15	1.646387e+15	2.922523e+14	1.604177e+04	4.653382e+03	2.896148e+03	0	1.478568e-03
2.200000e+08	5.793817e+13	0.000000e+00	4.745763e-01	9.874029e+14	1.607874e+15	2.906993e+14	1.592583e+04	4.643815e+03	2.890194e+03	0	1.458351e-03
2.300000e+08	5.564479e+13	0.000000e+00	4.745763e-01	9.511985e+14	1.570544e+15	2.891578e+14	1.581419e+04	4.634196e+03	2.884207e+03	0	1.438849e-03
2.400000e+08	5.348895e+13	0.000000e+00	4.745763e-01	9.171505e+14	1.534405e+15	2.876276e+14	1.570660e+04	4.624559e+03	2.878209e+03	0	1.420022e-03
2.500000e+08	5.145964e+13	0.000000e+00	4.745763e-01	8.850871e+14	1.499455e+15	2.861086e+14	1.560281e+04	4.614932e+03	2.872218e+03	0	1.401832e-03
2.600000e+08	4.954694e+13	0.000000e+00	4.745763e-01	8.548529e+14	1.465680e+15	2.846007e+14	1.550261e+04	4.605339e+03	2.866247e+03	0	1.384244e-03
2.700000e+08	4.774189e+13	0.000000e+00	4.745763e-01	8.263076e+14	1.433059e+15	2.831038e+14	1.540580e+04	4.595800e+03	2.860311e+03	0	1.367226e-03
2.800000e+08	4.603636e+13	0.000000e+00	4.745763e-01	7.993244e+14	1.401567e+15	2.816178e+14	1.531218e+04	4.586332e+03	2.854418e+03	0	1.350747e-03
2.900000e+08	4.442299e+13	0.000000e+00	4.745763e-01	7.737880e+14	1.371172e+15	2.801427e+14	1.522158e+04	4.576946e+03	2.848576e+03	0	1.334780e-03
3.000000e+08	4.289508e+13	0.000000e+00	4.745763e-01	7.495935e+14	1.341843e+15	2.786784e+14	1.513385e+04	4.567655e+03	2.842794e+03	0	1.319298e-03
3.100000e+08	4.144654e+13	0.000000e+00	4.745763e-01	7.266456e+14	1.313543e+15	2.772247e+14	1.504883e+04	4.558466e+03	2.837075e+03	0	1.304277e-03
3.200000e+08	4.007182e+13	0.000000e+00	4.745763e-01	7.048574e+14	1.286238e+15	2.757816e+14	1.496639e+04	4.549388e+03	2.831425e+03	0	1.289694e-03
3.300000e+08	3.876584e+13	0.000000e+00	4.745763e-01	6.841493e+14	1.259891e+15	2.743490e+14	1.488639e+04	4.540424e+03	2.825846e+03	0	1.275529e-03
3.400000e+08	3.752396e+13	0.000000e+00	4.745763e-01	6.644488e+14	1.234465e+15	2.729268e+14	1.480872e+04	4.531579e+03	2.820341e+03	0	1.261760e-03
3.500000e+08	3.634192e+13	0.000000e+00	4.745763e-01	6.456890e+14	1.209925e+15	2.715149e+14	1.473327e+04	4.522857e+03	2.814912e+03	0	1.248369e-03
3.600000e+08	3.521582e+13	0.000000e+00	4.745763e-01	6.278090e+14	1.186235e+15	2.701133e+14	1.465993e+04	4.514259e+03	2.809561e+03	0	1.235340e-03
3.700000e+08	3.414208e+13	0.000000e+00	4.745763e-01	6.107525e+14	1.163361e+15	2.687218e+14	1.458859e+04	4.505787e+03	2.804289e+03	0	1.222655e-03
3.800000e+08	3.311738e+13	0.000000e+00	4.745763e-01	5.944677e+14	1.141269e+15	2.673403e+14	1.451918e+04	4.497441e+03	2.799094e+03	0	1.210298e-03
3.900000e+08	3.213870e+13	0.000000e+00	4.745763e-01	5.789070e+14	1.119926e+15	2.659689e+14	1.445161e+04	4.489222e+03	2.793979e+03	0	1.198257e-03
4.000000e+08	3.120322e+13	0.000000e+00	4.745763e-01	5.640264e+14	1.099301e+15	2.646073e+14	1.438578e+04	4.481130e+03	2.788943e+03	0	1.186516e-03
4.100000e+08	3.030835e+13	0.000000e+00	4.745763e-01	5.497852e+14	1.079364e+15	2.632556e+14	1.432164e+04	4.473164e+03	2.783985e+03	0	1.175063e-03
4.200000e+08	2.945169e+13	0.000000e+00	4.745763e-01	5.361459e+14	1.060086e+15	2.619136e+14	1.425910e+04	4.465322e+03	2.779105e+03	0	1.163886e-03
4.300000e+08	2.863102e+13	0.000000e+00	4.745763e-01	5.230735e+14	1.041439e+15	2.605813e+14	1.419810e+04	4.457605e+03	2.774301e+03	0	1.152974e-03
4.400000e+08	2.784428e+13	0.000000e+00	4.745763e-01	5.105357e+14	1.023396e+15	2.592586e+14	1.413857e+04	4.450009e+03	2.769574e+03	0	1.142315e-03
4.500000e+08	2.708955e+13	0.000000e+00	4.745763e-01	4.985025e+14	1.005931e+15	2.579454e+14	1.408046e+04	4.442534e+03	2.764922e+03	0	1.131899e-03
4.600000e+08	2.636506e+13	0.000000e+00	4.745763e-01	4.869461e+14	9.890207e+14	2.566416e+14	1.402371e+04	4.435179e+03	2.760344e+03	0	1.121717e-03
4.700000e+08	2.566915e+13	0.000000e+00	4.745763e-01	4.758403e+14	9.726414e+14	2.553471e+14	1.396826e+04	4.427940e+03	2.755839e+03	0	1.111760e-03
4.800000e+08	2.500029e+13	0.000000e+00	4.745763e-01	4.651612e+14	9.567709e+14	2.540620e+14	1.391407e+04	4.420816e+03	2.751405e+03	0	1.102018e-03
4.900000e+08	2.435703e+13	0.000000e+00	4.745763e-01	4.548860e+14	9.413879e+14	2.527860e+14	1.386108e+04	4.413806e+03	2.747042e+03	0	1.092484e-03
5.000000e+08	2.373803e+13	0.000000e+00	4.745763e-01	4.449938e+14	9.264724e+14	2.515191e+14	1.380926e+04	4.406906e+03	2.742748e+03	0	1.083150e-03
5.100000e+08	2.314204e+13	0.000000e+00	4.745763e-01	4.354648e+14	9.120050e+14	2.502613e+14	1.375855e+04	4.400115e+03	2.738521e+03	0	1.074008e-03
5.200000e+08	2.256790e+13	0.000000e+00	4.745763e-01	4.262807e+14	8.979674e+14	2.490125e+14	1.370893e+04	4.393432e+03	2.734361e+03	0	1.065052e-03
5.300000e+08	2.201449e+13	0.000000e+00	4.745763e-01	4.174242e+14	8.843422e+14	2.477726e+14	1.366034e+04	4.386852e+03	2.730267e+03	0	1.056274e-03
5.400000e+08	2.148080e+13	0.000000e+00	4.745763e-01	4.088791e+14	8.711127e+14	2.465415e+14	1.361275e+04	4.380376e+03	2.726236e+03	0	1.047669e-03
5.500000e+08	2.096587e+13	0.000000e+00	4.745763e-01	4.006304e+14	8.582630e+14	2.453192e+14	1.356614e+04	4.373999e+03	2.722267e+03	0	1.039229e-03
5.600000e+08	2.046878e+13	0.000000e+00	4.745763e-01	3.926638e+14	8.457781e+14	2.441056e+14	1.352045e+04	4.367721e+03	2.718360e+03	0	1.030950e-03
5.700000e+08	1.998869e+13	0.000000e+00	4.745763e-01	3.849660e+14	8.336435e+14	2.429006e+14	1.347567e+04	4.361539e+03	2.714513e+03	0	1.022826e-03
5.800000e+08	1.952480e+13	0.000000e+00	4.745763e-01	3.775244e+14	8.218455e+14	2.417041e+14	1.343176e+04	4.355452e+03	2.710724e+03	0	1.014852e-03
5.900000e+08	1.907636e+13	0.000000e+00	4.745763e-01	3.703271e+14	8.103711e+14	2.405161e+14	1.338870e+04	4.349456e+03	2.706992e+03	0	1.007022e-03
6.000000e+08	1.864266e+13	0.000000e+00	4.745763e-01	3.633632e+14	7.992078e+14	2.393365e+14	1.334645e+04	4.343550e+03	2.703317e+03	0	9.993318e-04
6.100000e+08	1.822303e+13	0.000000e+00	4.745763e-01	3.566220e+14	7.883438e+14	2.381653e+14	1.330498e+04	4.337733e+03	2.699696e+03	0	9.917769e-04
6.200000e+08	1.781685e+13	0.000000e+00	4.745763e-01	3.500936e+14	7.777676e+14	2.370024e+14	1.326429e+04	4.332001e+03	2.696129e+03	0	9.843528e-04
6.300000e+08	1.742353e+13	0.000000e+00	4.745763e-01	3.437689e+14	7.674685e+14	2.358476e+14	1.322433e+04	4.326354e+03	2.692614e+03	0	9.770553e-04
6.400000e+08	1.704250e+13	0.000000e+00	4.745763e-01	3.376389e+14	7.574363e+14	2.347010e+14	1.318509e+04	4.320789e+03	2.689150e+03	0	9.698804e-04
6.500000e+08	1.667323e+13	0.000000e+00	4.745763e-01	3.316952e+14	7.476609e+14	2.335625e+14	1.314655e+04	4.315304e+03	2.685737e+03	0	9.628243e-04
6.600000e+08	1.631523e+13	0.000000e+00	4.745763e-01	3.259301e+14	7.381332e+14	2.324320e+14	1.310868e+04	4.309898e+03	2.682372e+03	0	9.558832e-04
6.700000e+08	1.596802e+13	0.000000e+00	4.745763e-01	3.203361e+14	7.288440e+14	2.313094e+14	1.307147e+04	4.304569e+03	2.679056e+03	0	9.490537e-04
6.800000e+08	1.563115e+13	0.000000e+00	4.745763e-01	3.149061e+14	7.197849e+14	2.301947e+14	1.303489e+04	4.299316e+03	2.675786e+03	0	9.423323e-04
6.900000e+08	1.530420e+13	0.000000e+00	4.745763e-01	3.096333e+14	7.109476e+14	2.290879e+14	1.299892e+04	4.294136e+03	2.672562e+03	0	9.357158e-04
7.000000e+08	1.498676e+13	0.000000e+00	4.745763e-01	3.045116e+14	7.023244e+14	2.279888e+14	1.296356e+04	4.289027e+03	2.669383e+03	0	9.292011e-04
7.100000e+08	1.467846e+13	0.000000e+00	4.745763e-01	2.995347e+14	6.939077e+14	2.268974e+14	1.292878e+04	4.283990e+03	2.666248e+03	0	9.227851e-04
7.200000e+08	1.437892e+13	0.000000e+00	4.745763e-01	2.946971e+14	6.856903e+14	2.258136e+14	1.289456e+04	4.279021e+03	2.663155e+03	0	9.164650e-04
7.300000e+08	1.408781e+13	0.000000e+00	4.745763e-01	2.899933e+14	6.776656e+14	2.247374e+14	1.286089e+04	4.274119e+03	2.660104e+03	0	9.102380e-04
7.400000e+08	1.380480e+13	0.000000e+00	4.745763e-01	2.854181e+14	6.698269e+14	2.236687e+14	1.282776e+04	4.269283e+03	2.657094e+03	0	9.041015e-04
7.500000e+08	1.352958e+13	0.000000e+00	4.745763e-01	2.809666e+14	6.621679e+14	2.226075e+14	1.279514e+04	4.264511e+03	2.654125e+03	0	8.980529e-04
7.600000e+08	1.326185e+13	0.000000e+00	4.745763e-01	2.766342e+14	6.546826e+14	2.215536e+14	1.276304e+04	4.259802e+03	2.651194e+03	0	8.920897e-04
7.700000e+08	1.300133e+13	0.000000e+00	4.745763e-01	2.724163e+14	6.473654e+14	2.205071e+14	1.273142e+04	4.255155e+03	2.648302e+03	0	8.862095e-04
7.800000e+08	1.274775e+13	0.000000e+00	4.745763e-01	2.683089e+14	6.402107e+14	2.194679e+14	1.270029e+04	4.250568e+03	2.645447e+03	0	8.804100e-04
7.900000e+08	1.250086e+13	0.000000e+00	4.745763e-01	2.643077e+14	6.332131e+14	2.184359e+14	1.266962e+04	4.246040e+03	2.642629e+03	0	8.746891e-04
8.000000e+08	1.226041e+13	0.000000e+00	4.745763e-01	2.604091e+14	6.263677e+14	2.174110e+14	1.263940e+04	4.241570e+03	2.639846e+03	0	8.690446e-04
8.100000e+08	1.202616e+13	0.000000e+00	4.745763e-01	2.566092e+14	6.196697e+14	2.163932e+14	1.260963e+04	4.237156e+03	2.637099e+03	0	8.634744e-04
8.200000e+08	1.179791e+13	0.000000e+00	4.745763e-01	2.529047e+14	6.131142e+14	2.153825e+14	1.258030e+04	4.232797e+03	2.634387e+03	0	8.579766e-04
8.300000e+08	1.157543e+13	0.000000e+00	4.745763e-01	2.492921e+14	6.066969e+14	2.143788e+14	1.255138e+04	4.228492e+03	2.631708e+03	0	8.525493e-04
8.400000e+08	1.135853e+13	0.000000e+00	4.745763e-01	2.457683e+14	6.004135e+14	2.133820e+14	1.252287e+04	4.224241e+03	2.629061e+03	0	8.471906e-04
8.500000e+08	1.114700e+13	0.000000e+00	4.745763e-01	2.423302e+14	5.942599e+14	2.123921e+14	1.249477e+04	4.220041e+03	2.626447e+03	0	8.418986e-04
8.600000e+08	1.094067e+13	0.000000e+00	4.745763e-01	2.389749e+14	5.882320e+14	2.114090e+14	1.246706e+04	4.215892e+03	2.623865e+03	0	8.366718e-04
8.700000e+08	1.073936e+13	0.000000e+00	4.745763e-01	2.356996e+14	5.823262e+14	2.104327e+14	1.243973e+04	4.211792e+03	2.621314e+03	0	8.315084e-04
8.800000e+08	1.054291e+13	0.000000e+00	4.745763e-01	2.325016e+14	5.765387e+14	2.094630e+14	1.241277e+04	4.207741e+03	2.618793e+03	0	8.264068e-04
8.900000e+08	1.035114e+13	0.000000e+00	4.745763e-01	2.293784e+14	5.708660e+14	2.085001e+14	1.238617e+04	4.203738e+03	2.616301e+03	0	8.213655e-04
9.000000e+08	1.016390e+13	0.000000e+00	4.745763e-01	2.263275e+14	5.653047e+14	2.075438e+14	1.235993e+04	4.199782e+03	2.613839e+03	0	8.163829e-04
9.100000e+08	9.981047e+12	0.000000e+00	4.745763e-01	2.233466e+14	5.598517e+14	2.065940e+14	1.233404e+04	4.195871e+03	2.611405e+03	0	8.114576e-04
9.200000e+08	9.802438e+12	0.000000e+00	4.745763e-01	2.204334e+14	5.545036e+14	2.056507e+14	1.230849e+04	4.192005e+03	2.608999e+03	0	8.065881e-04
9.300000e+08	9.627935e+12	0.000000e+00	4.745763e-01	2.175858e+14	5.492577e+14	2.047139e+14	1.228327e+04	4.188183e+03	2.606620e+03	0	8.017731e-04
9.400000e+08	9.457407e+12	0.000000e+00	4.745763e-01	2.148016e+14	5.441108e+14	2.037834e+14	1.225838e+04	4.184404e+03	2.604268e+03	0	7.970113e-04
9.500000e+08	9.290730e+12	0.000000e+00	4.745763e-01	2.120789e+14	5.390603e+14	2.028594e+14	1.223380e+04	4.180668e+03	2.601943e+03	0	7.923014e-04
9.600000e+08	9.127782e+12	0.000000e+00	4.745763e-01	2.094159e+14	5.341034e+14	2.019416e+14	1.220953e+04	4.176972e+03	2.599643e+03	0	7.876420e-04
9.700000e+08	8.968448e+12	0.000000e+00	4.745763e-01	2.068105e+14	5.292376e+14	2.010301e+14	1.218556e+04	4.173317e+03	2.597368e+03	0	7.830321e-04
9.800000e+08	8.812617e+12	0.000000e+00	4.745763e-01	2.042612e+14	5.244604e+14	2.001247e+14	1.216190e+04	4.169702e+03	2.595118e+03	0	7.784704e-04
9.900000e+08	8.660182e+12	0.000000e+00	4.745763e-01	2.017662e+14	5.197692e+14	1.992256e+14	1.213852e+04	4.166126e+03	2.592892e+03	0	7.739558e-04
1.000000e+09	8.511041e+12	0.000000e+00	4.745763e-01	1.993239e+14	5.151619e+14	1.983325e+14	1.211543e+04	4.162588e+03	2.590691e+03	0	7.694871e-04
1.010000e+09	8.365094e+12	0.000000e+00	4.745763e-01	1.969327e+14	5.106361e+14	1.974455e+14	1.209261e+04	4.159088e+03	2.588512e+03	0	7.650634e-04
1.020000e+09	8.222248e+12	0.000000e+00	4.745763e-01	1.945911e+14	5.061897e+14	1.965645e+14	1.207007e+04	4.155625e+03	2.586356e+03	0	7.606835e-04
1.030000e+09	8.082409e+12	0.000000e+00	4.745763e-01	1.922976e+14	5.018206e+14	1.956895e+14	1.204779e+04	4.152197e+03	2.584223e+03	0	7.563464e-04
1.040000e+09	7.945492e+12	0.000000e+00	4.745763e-01	1.900510e+14	4.975268e+14	1.948203e+14	1.202578e+04	4.148805e+03	2.582112e+03	0	7.520512e-04
1.050000e+09	7.811411e+12	0.000000e+00	4.745763e-01	1.878497e+14	4.933063e+14	1.939571e+14	1.200402e+04	4.145448e+03	2.580023e+03	0	7.477968e-04
1.060000e+09	7.680084e+12	0.000000e+00	4.745763e-01	1.856926e+14	4.891572e+14	1.930997e+14	1.198252e+04	4.142125e+03	2.577955e+03	0	7.435824e-04
1.070000e+09	7.551433e+12	0.000000e+00	4.745763e-01	1.835784e+14	4.850777e+14	1.922480e+14	1.196125e+04	4.138835e+03	2.575907e+03	0	7.394070e-04
1.080000e+09	7.425383e+12	0.000000e+00	4.745763e-01	1.815059e+14	4.810661e+14	1.914021e+14	1.194024e+04	4.135579e+03	2.573880e+03	0	7.352698e-04
1.090000e+09	7.301861e+12	0.000000e+00	4.745763e-01	1.794739e+14	4.771206e+14	1.905618e+14	1.191945e+04	4.132354e+03	2.571874e+03	0	7.311699e-04
1.100000e+09	7.180795e+12	0.000000e+00	4.745763e-01	1.774813e+14	4.732396e+14	1.897272e+14	1.189890e+04	4.129162e+03	2.569887e+03	0	7.271064e-04
1.110000e+09	7.062120e+12	0.000000e+00	4.745763e-01	1.755271e+14	4.694215e+14	1.888982e+14	1.187858e+04	4.126000e+03	2.567919e+03	0	7.230785e-04
1.120000e+09	6.945768e+12	0.000000e+00	4.745763e-01	1.736101e+14	4.656648e+14	1.880748e+14	1.185848e+04	4.122869e+03	2.565970e+03	0	7.190855e-04
1.130000e+09	6.831677e+12	0.000000e+00	4.745763e-01	1.717295e+14	4.619680e+14	1.872569e+14	1.183859e+04	4.119768e+03	2.564040e+03	0	7.151265e-04
1.140000e+09	6.719786e+12	0.000000e+00	4.745763e-01	1.698842e+14	4.583295e+14	1.864444e+14	1.181893e+04	4.116697e+03	2.562129e+03	0	7.112008e-04
1.150000e+09	6.610036e+12	0.000000e+00	4.745763e-01	1.680732e+14	4.547481e+14	1.856374e+14	1.179947e+04	4.113654e+03	2.560235e+03	0	7.073077e-04
1.160000e+09	6.502370e+12	0.000000e+00	4.745763e-01	1.662958e+14	4.512224e+14	1.848357e+14	1.178022e+04	4.110640e+03	2.558359e+03	0	7.034464e-04
1.170000e+09	6.396733e+12	0.000000e+00	4.745763e-01	1.645509e+14	4.477510e+14	1.840394e+14	1.176117e+04	4.107654e+03	2.556501e+03	0	6.996162e-04
1.180000e+09	6.293073e+12	0.000000e+00	4.745763e-01	1.628379e+14	4.443327e+14	1.832484e+14	1.174232e+04	4.104696e+03	2.554660e+03	0	6.958165e-04
1.190000e+09	6.191337e+12	0.000000e+00	4.745763e-01	1.611557e+14	4.409663e+14	1.824626e+14	1.172367e+04	4.101764e+03	2.552835e+03	0	6.920465e-04
1.200000e+09	6.091477e+12	0.000000e+00	4.745763e-01	1.595038e+14	4.376505e+14	1.816821e+14	1.170521e+04	4.098859e+03	2.551027e+03	0	6.883056e-04
1.210000e+09	5.993444e+12	0.000000e+00	4.745763e-01	1.578812e+14	4.343842e+14	1.809067e+14	1.168693e+04	4.095981e+03	2.549235e+03	0	6.845933e-04
1.220000e+09	5.897192e+12	0.000000e+00	4.745763e-01	1.562874e+14	4.311663e+14	1.801365e+14	1.166885e+04	4.093127e+03	2.547460e+03	0	6.809087e-04
1.230000e+09	5.802677e+12	0.000000e+00	4.745763e-01	1.547214e+14	4.279957e+14	1.793713e+14	1.165094e+04	4.090300e+03	2.545700e+03	0	6.772514e-04
1.240000e+09	5.709853e+12	0.000000e+00	4.745763e-01	1.531827e+14	4.248713e+14	1.786112e+14	1.163321e+04	4.087497e+03	2.543955e+03	0	6.736207e-04
1.250000e+09	5.618680e+12	0.000000e+00	4.745763e-01	1.516706e+14	4.217921e+14	1.778562e+14	1.161566e+04	4.084718e+03	2.542226e+03	0	6.700161e-04
1.260000e+09	5.529117e+12	0.000000e+00	4.745763e-01	1.501845e+14	4.187571e+14	1.771061e+14	1.159829e+04	4.081964e+03	2.540512e+03	0	6.664369e-04
1.270000e+09	5.441124e+12	0.000000e+00	4.745763e-01	1.487236e+14	4.157654e+14	1.763610e+14	1.158108e+04	4.079233e+03	2.538812e+03	0	6.628827e-04
1.280000e+09	5.354664e+12	0.000000e+00	4.745763e-01	1.472874e+14	4.128159e+14	1.756207e+14	1.156404e+04	4.076525e+03	2.537127e+03	0	6.593528e-04
1.290000e+09	5.269698e+12	0.000000e+00	4.745763e-01	1.458754e+14	4.099079e+14	1.748853e+14	1.154716e+04	4.073841e+03	2.535456e+03	0	6.558467e-04
1.300000e+09	5.186192e+12	0.000000e+00	4.745763e-01	1.444869e+14	4.070403e+14	1.741548e+14	1.153044e+04	4.071179e+03	2.533799e+03	0	6.523640e-04
1.310000e+09	5.104110e+12	0.000000e+00	4.745763e-01	1.431213e+14	4.042124e+14	1.734290e+14	1.151388e+04	4.068539e+03	2.532156e+03	0	6.489040e-04
1.320000e+09	5.023418e+12	0.000000e+00	4.745763e-01	1.417782e+14	4.014233e+14	1.727080e+14	1.149748e+04	4.065921e+03	2.530527e+03	0	6.454663e-04
1.330000e+09	4.944085e+12	0.000000e+00	4.745763e-01	1.404571e+14	3.986723e+14	1.719917e+14	1.148123e+04	4.063324e+03	2.528911e+03	0	6.420504e-04
1.340000e+09	4.866078e+12	0.000000e+00	4.745763e-01	1.391573e+14	3.959584e+14	1.712801e+14	1.146514e+04	4.060748e+03	2.527308e+03	0	6.386557e-04
1.350000e+09	4.789367e+12	0.000000e+00	4.745763e-01	1.378785e+14	3.932809e+14	1.705732e+14	1.144919e+04	4.058194e+03	2.525718e+03	0	6.352819e-04
1.360000e+09	4.713921e+12	0.000000e+00	4.745763e-01	1.366201e+14	3.906392e+14	1.698708e+14	1.143338e+04	4.055660e+03	2.524141e+03	0	6.319284e-04
