#t		Qconv[W]	Ri[Rp]		R*[Rp]		Qc[W]		Qm[W]		Qr[W]		Tcmb[K]		Tl[K]		Tup[K]		RiFlag		Bs[T]
0.000000e+00	2.403416e+14	0.000000e+00	4.830508e-01	3.536410e+15	2.100513e+15	3.490483e+14	2.109724e+04	4.664872e+03	2.879872e+03	0	2.306662e-03
1.000000e+07	2.236946e+14	0.000000e+00	4.830508e-01	3.298919e+15	2.201923e+15	3.471143e+14	2.075067e+04	4.713320e+03	2.909781e+03	0	2.252127e-03
2.000000e+07	2.086830e+14	0.000000e+00	4.830508e-01	3.084683e+15	2.277818e+15	3.451948e+14	2.042682e+04	4.752473e+03	2.933953e+03	0	2.200578e-03
3.000000e+07	1.951064e+14	0.000000e+00	4.830508e-01	2.890856e+15	2.330942e+15	3.432896e+14	2.012351e+04	4.783684e+03	2.953221e+03	0	2.151782e-03
4.000000e+07	1.827936e+14	0.000000e+00	4.830508e-01	2.715009e+15	2.364280e+15	3.413986e+14	1.983885e+04	4.808140e+03	2.968319e+03	0	2.105530e-03
5.000000e+07	1.715980e+14	0.000000e+00	4.830508e-01	2.555057e+15	2.380797e+15	3.395218e+14	1.957113e+04	4.826875e+03	2.979885e+03	0	2.061635e-03
6.000000e+07	1.613927e+14	0.000000e+00	4.830508e-01	2.409199e+15	2.383284e+15	3.376589e+14	1.931887e+04	4.840779e+03	2.988469e+03	0	2.019927e-03
7.000000e+07	1.520680e+14	0.000000e+00	4.830508e-01	2.275875e+15	2.374267e+15	3.358100e+14	1.908072e+04	4.850616e+03	2.994542e+03	0	1.980251e-03
8.000000e+07	1.435282e+14	0.000000e+00	4.830508e-01	2.153727e+15	2.355973e+15	3.339747e+14	1.885550e+04	4.857036e+03	2.998505e+03	0	1.942466e-03
9.000000e+07	1.356899e+14	0.000000e+00	4.830508e-01	2.041567e+15	2.330324e+15	3.321531e+14	1.864215e+04	4.860593e+03	3.000701e+03	0	1.906442e-03
1.000000e+08	1.284800e+14	0.000000e+00	4.830508e-01	1.938359e+15	2.298951e+15	3.303451e+14	1.843971e+04	4.861754e+03	3.001418e+03	0	1.872059e-03
1.100000e+08	1.218344e+14	0.000000e+00	4.830508e-01	1.843190e+15	2.263222e+15	3.285504e+14	1.824733e+04	4.860916e+03	3.000900e+03	0	1.839209e-03
1.200000e+08	1.156966e+14	0.000000e+00	4.830508e-01	1.755257e+15	2.224274e+15	3.267691e+14	1.806424e+04	4.858414e+03	2.999355e+03	0	1.807790e-03
1.300000e+08	1.100169e+14	0.000000e+00	4.830508e-01	1.673852e+15	2.183037e+15	3.250009e+14	1.788974e+04	4.854529e+03	2.996957e+03	0	1.777710e-03
1.400000e+08	1.047512e+14	0.000000e+00	4.830508e-01	1.598349e+15	2.140273e+15	3.232459e+14	1.772321e+04	4.849501e+03	2.993853e+03	0	1.748883e-03
1.500000e+08	9.986055e+13	0.000000e+00	4.830508e-01	1.528194e+15	2.096596e+15	3.215038e+14	1.756408e+04	4.843529e+03	2.990166e+03	0	1.721231e-03
1.600000e+08	9.531026e+13	0.000000e+00	4.830508e-01	1.462894e+15	2.052498e+15	3.197745e+14	1.741183e+04	4.836785e+03	2.986003e+03	0	1.694680e-03
1.700000e+08	9.106953e+13	0.000000e+00	4.830508e-01	1.402009e+15	2.008371e+15	3.180581e+14	1.726599e+04	4.829410e+03	2.981450e+03	0	1.669163e-03
1.800000e+08	8.711087e+13	0.000000e+00	4.830508e-01	1.345150e+15	1.964524e+15	3.163543e+14	1.712613e+04	4.821526e+03	2.976582e+03	0	1.644618e-03
1.900000e+08	8.340974e+13	0.000000e+00	4.830508e-01	1.291966e+15	1.921196e+15	3.146630e+14	1.699187e+04	4.813234e+03	2.971464e+03	0	1.620989e-03
2.000000e+08	7.994416e+13	0.000000e+00	4.830508e-01	1.242144e+15	1.878572e+15	3.129842e+14	1.686285e+04	4.804622e+03	2.966147e+03	0	1.598220e-03
2.100000e+08	7.669439e+13	0.000000e+00	4.830508e-01	1.195404e+15	1.836791e+15	3.113177e+14	1.673874e+04	4.795760e+03	2.960676e+03	0	1.576264e-03
2.200000e+08	7.364271e+13	0.000000e+00	4.830508e-01	1.151494e+15	1.795954e+15	3.096635e+14	1.661924e+04	4.786712e+03	2.955090e+03	0	1.555074e-03
2.300000e+08	7.077317e+13	0.000000e+00	4.830508e-01	1.110185e+15	1.756135e+15	3.080214e+14	1.650408e+04	4.777529e+03	2.949421e+03	0	1.534607e-03
2.400000e+08	6.807136e+13	0.000000e+00	4.830508e-01	1.071274e+15	1.717381e+15	3.063913e+14	1.639300e+04	4.768254e+03	2.943695e+03	0	1.514825e-03
2.500000e+08	6.552427e+13	0.000000e+00	4.830508e-01	1.034574e+15	1.679723e+15	3.047732e+14	1.628576e+04	4.758925e+03	2.937936e+03	0	1.495691e-03
2.600000e+08	6.312011e+13	0.000000e+00	4.830508e-01	9.999173e+14	1.643174e+15	3.031670e+14	1.618216e+04	4.749572e+03	2.932162e+03	0	1.477169e-03
2.700000e+08	6.084821e+13	0.000000e+00	4.830508e-01	9.671520e+14	1.607737e+15	3.015724e+14	1.608199e+04	4.740222e+03	2.926389e+03	0	1.459230e-03
2.800000e+08	5.869884e+13	0.000000e+00	4.830508e-01	9.361395e+14	1.573405e+15	2.999895e+14	1.598507e+04	4.730896e+03	2.920632e+03	0	1.441842e-03
2.900000e+08	5.666317e+13	0.000000e+00	4.830508e-01	9.067539e+14	1.540164e+15	2.984182e+14	1.589122e+04	4.721612e+03	2.914901e+03	0	1.424977e-03
3.000000e+08	5.473315e+13	0.000000e+00	4.830508e-01	8.788803e+14	1.507994e+15	2.968583e+14	1.580028e+04	4.712387e+03	2.909206e+03	0	1.408611e-03
3.100000e+08	5.290143e+13	0.000000e+00	4.830508e-01	8.524138e+14	1.476870e+15	2.953098e+14	1.571212e+04	4.703233e+03	2.903554e+03	0	1.392719e-03
3.200000e+08	5.116129e+13	0.000000e+00	4.830508e-01	8.272586e+14	1.446767e+15	2.937726e+14	1.562658e+04	4.694159e+03	2.897952e+03	0	1.377278e-03
3.300000e+08	4.950657e+13	0.000000e+00	4.830508e-01	8.033268e+14	1.417654e+15	2.922465e+14	1.554354e+04	4.685176e+03	2.892406e+03	0	1.362266e-03
3.400000e+08	4.793162e+13	0.000000e+00	4.830508e-01	7.805380e+14	1.389502e+15	2.907315e+14	1.546288e+04	4.676289e+03	2.886920e+03	0	1.347664e-03
3.500000e+08	4.643126e+13	0.000000e+00	4.830508e-01	7.588180e+14	1.362278e+15	2.892275e+14	1.538448e+04	4.667504e+03	2.881496e+03	0	1.333453e-03
3.600000e+08	4.500072e+13	0.000000e+00	4.830508e-01	7.380989e+14	1.335951e+15	2.877344e+14	1.530825e+04	4.658825e+03	2.876139e+03	0	1.319616e-03
3.700000e+08	4.363562e+13	0.000000e+00	4.830508e-01	7.183180e+14	1.310489e+15	2.862522e+14	1.523408e+04	4.650257e+03	2.870849e+03	0	1.306135e-03
3.800000e+08	4.233191e+13	0.000000e+00	4.830508e-01	6.994175e+14	1.285860e+15	2.847806e+14	1.516188e+04	4.641801e+03	2.865629e+03	0	1.292995e-03
3.900000e+08	4.108584e+13	0.000000e+00	4.830508e-01	6.813440e+14	1.262034e+15	2.833197e+14	1.509156e+04	4.633459e+03	2.860479e+03	0	1.280182e-03
4.000000e+08	3.989397e+13	0.000000e+00	4.830508e-01	6.640482e+14	1.238979e+15	2.818693e+14	1.502304e+04	4.625233e+03	2.855400e+03	0	1.267681e-03
4.100000e+08	3.875311e+13	0.000000e+00	4.830508e-01	6.474844e+14	1.216666e+15	2.804294e+14	1.495625e+04	4.617122e+03	2.850393e+03	0	1.255480e-03
4.200000e+08	3.766028e+13	0.000000e+00	4.830508e-01	6.316103e+14	1.195067e+15	2.789999e+14	1.489111e+04	4.609128e+03	2.845458e+03	0	1.243566e-03
4.300000e+08	3.661274e+13	0.000000e+00	4.830508e-01	6.163866e+14	1.174152e+15	2.775807e+14	1.482755e+04	4.601250e+03	2.840595e+03	0	1.231927e-03
4.400000e+08	3.560794e+13	0.000000e+00	4.830508e-01	6.017769e+14	1.153895e+15	2.761717e+14	1.476551e+04	4.593487e+03	2.835802e+03	0	1.220553e-03
4.500000e+08	3.464351e+13	0.000000e+00	4.830508e-01	5.877471e+14	1.134270e+15	2.747728e+14	1.470494e+04	4.585840e+03	2.831081e+03	0	1.209433e-03
4.600000e+08	3.371723e+13	0.000000e+00	4.830508e-01	5.742658e+14	1.115252e+15	2.733839e+14	1.464576e+04	4.578306e+03	2.826430e+03	0	1.198556e-03
4.700000e+08	3.282706e+13	0.000000e+00	4.830508e-01	5.613036e+14	1.096817e+15	2.720050e+14	1.458793e+04	4.570884e+03	2.821848e+03	0	1.187914e-03
4.800000e+08	3.197107e+13	0.000000e+00	4.830508e-01	5.488329e+14	1.078941e+15	2.706360e+14	1.453139e+04	4.563574e+03	2.817335e+03	0	1.177498e-03
4.900000e+08	3.114747e+13	0.000000e+00	4.830508e-01	5.368281e+14	1.061602e+15	2.692768e+14	1.447611e+04	4.556373e+03	2.812890e+03	0	1.167299e-03
5.000000e+08	3.035459e+13	0.000000e+00	4.830508e-01	5.252653e+14	1.044779e+15	2.679273e+14	1.442202e+04	4.549281e+03	2.808511e+03	0	1.157309e-03
5.100000e+08	2.959087e+13	0.000000e+00	4.830508e-01	5.141222e+14	1.028452e+15	2.665875e+14	1.436909e+04	4.542295e+03	2.804198e+03	0	1.147520e-03
5.200000e+08	2.885484e+13	0.000000e+00	4.830508e-01	5.033777e+14	1.012601e+15	2.652572e+14	1.431727e+04	4.535414e+03	2.799950e+03	0	1.137926e-03
5.300000e+08	2.814512e+13	0.000000e+00	4.830508e-01	4.930121e+14	9.972078e+14	2.639364e+14	1.426653e+04	4.528635e+03	2.795766e+03	0	1.128519e-03
5.400000e+08	2.746043e+13	0.000000e+00	4.830508e-01	4.830071e+14	9.822540e+14	2.626250e+14	1.421683e+04	4.521958e+03	2.791644e+03	0	1.119292e-03
5.500000e+08	2.679956e+13	0.000000e+00	4.830508e-01	4.733452e+14	9.677229e+14	2.613229e+14	1.416813e+04	4.515380e+03	2.787583e+03	0	1.110240e-03
5.600000e+08	2.616138e+13	0.000000e+00	4.830508e-01	4.640104e+14	9.535981e+14	2.600301e+14	1.412039e+04	4.508900e+03	2.783582e+03	0	1.101357e-03
5.700000e+08	2.554482e+13	0.000000e+00	4.830508e-01	4.549872e+14	9.398641e+14	2.587465e+14	1.407359e+04	4.502515e+03	2.779641e+03	0	1.092636e-03
5.800000e+08	2.494887e+13	0.000000e+00	4.830508e-01	4.462613e+14	9.265061e+14	2.574720e+14	1.402770e+04	4.496224e+03	2.775757e+03	0	1.084072e-03
5.900000e+08	2.437260e+13	0.000000e+00	4.830508e-01	4.378191e+14	9.135099e+14	2.562065e+14	1.398268e+04	4.490025e+03	2.771930e+03	0	1.075660e-03
6.000000e+08	2.381510e+13	0.000000e+00	4.830508e-01	4.296479e+14	9.008619e+14	2.549500e+14	1.393850e+04	4.483916e+03	2.768158e+03	0	1.067395e-03
6.100000e+08	2.327554e+13	0.000000e+00	4.830508e-01	4.217356e+14	8.885491e+14	2.537023e+14	1.389515e+04	4.477896e+03	2.764441e+03	0	1.059272e-03
6.200000e+08	2.275313e+13	0.000000e+00	4.830508e-01	4.140708e+14	8.765591e+14	2.524635e+14	1.385259e+04	4.471961e+03	2.760778e+03	0	1.051287e-03
6.300000e+08	2.224711e+13	0.000000e+00	4.830508e-01	4.066428e+14	8.648801e+14	2.512335e+14	1.381079e+04	4.466111e+03	2.757166e+03	0	1.043436e-03
6.400000e+08	2.175679e+13	0.000000e+00	4.830508e-01	3.994415e+14	8.535009e+14	2.500121e+14	1.376975e+04	4.460345e+03	2.753606e+03	0	1.035713e-03
6.500000e+08	2.128149e+13	0.000000e+00	4.830508e-01	3.924573e+14	8.424105e+14	2.487993e+14	1.372942e+04	4.454659e+03	2.750096e+03	0	1.028115e-03
6.600000e+08	2.082058e+13	0.000000e+00	4.830508e-01	3.856810e+14	8.315986e+14	2.475950e+14	1.368980e+04	4.449053e+03	2.746635e+03	0	1.020639e-03
6.700000e+08	2.037346e+13	0.000000e+00	4.830508e-01	3.791040e+14	8.210553e+14	2.463992e+14	1.365085e+04	4.443524e+03	2.743222e+03	0	1.013280e-03
6.800000e+08	1.993957e+13	0.000000e+00	4.830508e-01	3.727183e+14	8.107712e+14	2.452118e+14	1.361257e+04	4.438072e+03	2.739856e+03	0	1.006035e-03
6.900000e+08	1.951835e+13	0.000000e+00	4.830508e-01	3.665161e+14	8.007372e+14	2.440327e+14	1.357493e+04	4.432694e+03	2.736536e+03	0	9.989002e-04
7.000000e+08	1.910931e+13	0.000000e+00	4.830508e-01	3.604900e+14	7.909447e+14	2.428619e+14	1.353791e+04	4.427389e+03	2.733261e+03	0	9.918730e-04
7.100000e+08	1.871196e+13	0.000000e+00	4.830508e-01	3.546331e+14	7.813852e+14	2.416993e+14	1.350149e+04	4.422156e+03	2.730030e+03	0	9.849500e-04
7.200000e+08	1.832584e+13	0.000000e+00	4.830508e-01	3.489387e+14	7.720510e+14	2.405449e+14	1.346567e+04	4.416992e+03	2.726843e+03	0	9.781280e-04
7.300000e+08	1.795052e+13	0.000000e+00	4.830508e-01	3.434007e+14	7.629344e+14	2.393985e+14	1.343041e+04	4.411897e+03	2.723697e+03	0	9.714043e-04
7.400000e+08	1.758556e+13	0.000000e+00	4.830508e-01	3.380130e+14	7.540280e+14	2.382600e+14	1.339572e+04	4.406869e+03	2.720593e+03	0	9.647760e-04
7.500000e+08	1.723059e+13	0.000000e+00	4.830508e-01	3.327699e+14	7.453250e+14	2.371296e+14	1.336156e+04	4.401907e+03	2.717529e+03	0	9.582404e-04
7.600000e+08	1.688523e+13	0.000000e+00	4.830508e-01	3.276660e+14	7.368186e+14	2.360070e+14	1.332793e+04	4.397008e+03	2.714505e+03	0	9.517949e-04
7.700000e+08	1.654911e+13	0.000000e+00	4.830508e-01	3.226961e+14	7.285024e+14	2.348922e+14	1.329482e+04	4.392173e+03	2.711520e+03	0	9.454370e-04
7.800000e+08	1.622189e+13	0.000000e+00	4.830508e-01	3.178554e+14	7.203702e+14	2.337852e+14	1.326220e+04	4.387399e+03	2.708573e+03	0	9.391643e-04
7.900000e+08	1.590326e+13	0.000000e+00	4.830508e-01	3.131392e+14	7.124162e+14	2.326858e+14	1.323007e+04	4.382685e+03	2.705663e+03	0	9.329744e-04
8.000000e+08	1.559289e+13	0.000000e+00	4.830508e-01	3.085429e+14	7.046346e+14	2.315941e+14	1.319842e+04	4.378031e+03	2.702790e+03	0	9.268652e-04
8.100000e+08	1.529050e+13	0.000000e+00	4.830508e-01	3.040623e+14	6.970201e+14	2.305099e+14	1.316722e+04	4.373434e+03	2.699952e+03	0	9.208345e-04
8.200000e+08	1.499579e+13	0.000000e+00	4.830508e-01	2.996935e+14	6.895674e+14	2.294333e+14	1.313648e+04	4.368894e+03	2.697149e+03	0	9.148801e-04
8.300000e+08	1.470851e+13	0.000000e+00	4.830508e-01	2.954323e+14	6.822714e+14	2.283641e+14	1.310618e+04	4.364409e+03	2.694380e+03	0	9.090001e-04
8.400000e+08	1.442839e+13	0.000000e+00	4.830508e-01	2.912752e+14	6.751274e+14	2.273023e+14	1.307631e+04	4.359978e+03	2.691645e+03	0	9.031924e-04
8.500000e+08	1.415518e+13	0.000000e+00	4.830508e-01	2.872186e+14	6.681308e+14	2.262478e+14	1.304685e+04	4.355601e+03	2.688943e+03	0	8.974553e-04
8.600000e+08	1.388865e+13	0.000000e+00	4.830508e-01	2.832591e+14	6.612770e+14	2.252005e+14	1.301780e+04	4.351276e+03	2.686272e+03	0	8.917869e-04
8.700000e+08	1.362858e+13	0.000000e+00	4.830508e-01	2.793935e+14	6.545618e+14	2.241605e+14	1.298915e+04	4.347002e+03	2.683634e+03	0	8.861853e-04
8.800000e+08	1.337474e+13	0.000000e+00	4.830508e-01	2.756185e+14	6.479811e+14	2.231276e+14	1.296089e+04	4.342778e+03	2.681026e+03	0	8.806490e-04
8.900000e+08	1.312694e+13	0.000000e+00	4.830508e-01	2.719313e+14	6.415309e+14	2.221019e+14	1.293302e+04	4.338603e+03	2.678449e+03	0	8.751762e-04
9.000000e+08	1.288496e+13	0.000000e+00	4.830508e-01	2.683290e+14	6.352074e+14	2.210831e+14	1.290551e+04	4.334476e+03	2.675901e+03	0	8.697654e-04
9.100000e+08	1.264864e+13	0.000000e+00	4.830508e-01	2.648089e+14	6.290069e+14	2.200714e+14	1.287836e+04	4.330396e+03	2.673382e+03	0	8.644150e-04
9.200000e+08	1.241777e+13	0.000000e+00	4.830508e-01	2.613682e+14	6.229260e+14	2.190666e+14	1.285157e+04	4.326362e+03	2.670892e+03	0	8.591235e-04
9.300000e+08	1.219219e+13	0.000000e+00	4.830508e-01	2.580046e+14	6.169611e+14	2.180686e+14	1.282513e+04	4.322374e+03	2.668429e+03	0	8.538894e-04
9.400000e+08	1.197173e+13	0.000000e+00	4.830508e-01	2.547156e+14	6.111091e+14	2.170775e+14	1.279902e+04	4.318430e+03	2.665995e+03	0	8.487113e-04
9.500000e+08	1.175623e+13	0.000000e+00	4.830508e-01	2.514988e+14	6.053667e+14	2.160932e+14	1.277325e+04	4.314529e+03	2.663587e+03	0	8.435879e-04
9.600000e+08	1.154553e+13	0.000000e+00	4.830508e-01	2.483520e+14	5.997309e+14	2.151155e+14	1.274780e+04	4.310671e+03	2.661205e+03	0	8.385179e-04
9.700000e+08	1.133949e+13	0.000000e+00	4.830508e-01	2.452732e+14	5.941987e+14	2.141445e+14	1.272266e+04	4.306855e+03	2.658849e+03	0	8.334998e-04
9.800000e+08	1.113796e+13	0.000000e+00	4.830508e-01	2.422602e+14	5.887674e+14	2.131801e+14	1.269784e+04	4.303081e+03	2.656519e+03	0	8.285326e-04
9.900000e+08	1.094081e+13	0.000000e+00	4.830508e-01	2.393111e+14	5.834342e+14	2.122223e+14	1.267332e+04	4.299346e+03	2.654213e+03	0	8.236149e-04
1.000000e+09	1.074790e+13	0.000000e+00	4.830508e-01	2.364239e+14	5.781965e+14	2.112710e+14	1.264910e+04	4.295651e+03	2.651932e+03	0	8.187455e-04
1.010000e+09	1.055912e+13	0.000000e+00	4.830508e-01	2.335969e+14	5.730517e+14	2.103261e+14	1.262517e+04	4.291995e+03	2.649675e+03	0	8.139235e-04
1.020000e+09	1.037433e+13	0.000000e+00	4.830508e-01	2.308282e+14	5.679973e+14	2.093876e+14	1.260152e+04	4.288377e+03	2.647441e+03	0	8.091475e-04
1.030000e+09	1.019342e+13	0.000000e+00	4.830508e-01	2.281162e+14	5.630311e+14	2.084555e+14	1.257816e+04	4.284796e+03	2.645231e+03	0	8.044165e-04
1.040000e+09	1.001628e+13	0.000000e+00	4.830508e-01	2.254593e+14	5.581506e+14	2.075297e+14	1.255506e+04	4.281252e+03	2.643043e+03	0	7.997295e-04
1.050000e+09	9.842793e+12	0.000000e+00	4.830508e-01	2.228559e+14	5.533537e+14	2.066101e+14	1.253224e+04	4.277744e+03	2.640877e+03	0	7.950855e-04
1.060000e+09	9.672864e+12	0.000000e+00	4.830508e-01	2.203044e+14	5.486382e+14	2.056968e+14	1.250968e+04	4.274271e+03	2.638733e+03	0	7.904834e-04
1.070000e+09	9.506389e+12	0.000000e+00	4.830508e-01	2.178034e+14	5.440021e+14	2.047896e+14	1.248737e+04	4.270833e+03	2.636611e+03	0	7.859222e-04
1.080000e+09	9.343269e+12	0.000000e+00	4.830508e-01	2.153515e+14	5.394434e+14	2.038884e+14	1.246532e+04	4.267429e+03	2.634509e+03	0	7.814011e-04
1.090000e+09	9.183413e+12	0.000000e+00	4.830508e-01	2.129474e+14	5.349601e+14	2.029934e+14	1.244351e+04	4.264059e+03	2.632429e+03	0	7.769190e-04
1.100000e+09	9.026728e+12	0.000000e+00	4.830508e-01	2.105897e+14	5.305504e+14	2.021043e+14	1.242195e+04	4.260721e+03	2.630368e+03	0	7.724751e-04
1.110000e+09	8.873128e+12	0.000000e+00	4.830508e-01	2.082772e+14	5.262124e+14	2.012213e+14	1.240062e+04	4.257416e+03	2.628328e+03	0	7.680685e-04
1.120000e+09	8.722529e+12	0.000000e+00	4.830508e-01	2.060086e+14	5.219444e+14	2.003441e+14	1.237953e+04	4.254143e+03	2.626307e+03	0	7.636984e-04
1.130000e+09	8.574850e+12	0.000000e+00	4.830508e-01	2.037828e+14	5.177447e+14	1.994728e+14	1.235867e+04	4.250900e+03	2.624305e+03	0	7.593638e-04
1.140000e+09	8.430013e+12	0.000000e+00	4.830508e-01	2.015986e+14	5.136116e+14	1.986073e+14	1.233803e+04	4.247689e+03	2.622322e+03	0	7.550640e-04
1.150000e+09	8.287940e+12	0.000000e+00	4.830508e-01	1.994550e+14	5.095436e+14	1.977477e+14	1.231761e+04	4.244507e+03	2.620358e+03	0	7.507983e-04
1.160000e+09	8.148561e+12	0.000000e+00	4.830508e-01	1.973509e+14	5.055392e+14	1.968937e+14	1.229741e+04	4.241355e+03	2.618412e+03	0	7.465657e-04
1.170000e+09	8.011803e+12	0.000000e+00	4.830508e-01	1.952852e+14	5.015967e+14	1.960454e+14	1.227742e+04	4.238232e+03	2.616485e+03	0	7.423655e-04
1.180000e+09	7.877598e+12	0.000000e+00	4.830508e-01	1.932570e+14	4.977149e+14	1.952028e+14	1.225764e+04	4.235138e+03	2.614574e+03	0	7.381971e-04
1.190000e+09	7.745882e+12	0.000000e+00	4.830508e-01	1.912654e+14	4.938922e+14	1.943658e+14	1.223806e+04	4.232072e+03	2.612681e+03	0	7.340596e-04
1.200000e+09	7.616588e+12	0.000000e+00	4.830508e-01	1.893092e+14	4.901273e+14	1.935343e+14	1.221868e+04	4.229033e+03	2.610806e+03	0	7.299524e-04
1.210000e+09	7.489657e+12	0.000000e+00	4.830508e-01	1.873878e+14	4.864189e+14	1.927084e+14	1.219951e+04	4.226022e+03	2.608947e+03	0	7.258748e-04
1.220000e+09	7.365028e+12	0.000000e+00	4.830508e-01	1.855002e+14	4.827657e+14	1.918879e+14	1.218052e+04	4.223038e+03	2.607104e+03	0	7.218260e-04
1.230000e+09	7.242643e+12	0.000000e+00	4.830508e-01	1.836456e+14	4.791665e+14	1.910728e+14	1.216173e+04	4.220079e+03	2.605278e+03	0	7.178054e-04
1.240000e+09	7.122446e+12	0.000000e+00	4.830508e-01	1.818231e+14	4.756200e+14	1.902632e+14	1.214312e+04	4.217147e+03	2.603467e+03	0	7.138124e-04
1.250000e+09	7.004383e+12	0.000000e+00	4.830508e-01	1.800321e+14	4.721252e+14	1.894589e+14	1.212470e+04	4.214240e+03	2.601673e+03	0	7.098463e-04
1.260000e+09	6.888402e+12	0.000000e+00	4.830508e-01	1.782716e+14	4.686808e+14	1.886599e+14	1.210646e+04	4.211358e+03	2.599894e+03	0	7.059066e-04
1.270000e+09	6.774452e+12	0.000000e+00	4.830508e-01	1.765410e+14	4.652858e+14	1.878661e+14	1.208839e+04	4.208501e+03	2.598130e+03	0	7.019924e-04
1.280000e+09	6.662483e+12	0.000000e+00	4.830508e-01	1.748396e+14	4.619391e+14	1.870776e+14	1.207050e+04	4.205668e+03	2.596381e+03	0	6.981034e-04
1.290000e+09	6.552449e+12	0.000000e+00	4.830508e-01	1.731667e+14	4.586396e+14	1.862942e+14	1.205279e+04	4.202859e+03	2.594647e+03	0	6.942389e-04
1.300000e+09	6.444302e+12	0.000000e+00	4.830508e-01	1.715215e+14	4.553863e+14	1.855160e+14	1.203524e+04	4.200073e+03	2.592927e+03	0	6.903982e-04
1.310000e+09	6.337997e+12	0.000000e+00	4.830508e-01	1.699035e+14	4.521784e+14	1.847429e+14	1.201786e+04	4.197310e+03	2.591221e+03	0	6.865809e-04
1.320000e+09	6.233492e+12	0.000000e+00	4.830508e-01	1.683120e+14	4.490147e+14	1.839749e+14	1.200064e+04	4.194570e+03	2.589530e+03	0	6.827864e-04
1.330000e+09	6.130744e+12	0.000000e+00	4.830508e-01	1.667464e+14	4.458944e+14	1.832118e+14	1.198358e+04	4.191853e+03	2.587852e+03	0	6.790141e-04
1.340000e+09	6.029712e+12	0.000000e+00	4.830508e-01	1.652061e+14	4.428166e+14	1.824538e+14	1.196668e+04	4.189158e+03	2.586188e+03	0	6.752634e-04
1.350000e+09	5.930357e+12	0.000000e+00	4.830508e-01	1.636905e+14	4.397803e+14	1.817007e+14	1.194994e+04	4.186484e+03	2.584538e+03	0	6.715340e-04
1.360000e+09	5.832639e+12	0.000000e+00	4.830508e-01	1.621991e+14	4.367848e+14	1.809526e+14	1.193335e+04	4.183832e+03	2.582900e+03	0	6.678251e-04
