#t		Qconv[W]	Ri[Rp]		R*[Rp]		Qc[W]		Qm[W]		Qr[W]		Tcmb[K]		Tl[K]		Tup[K]		RiFlag		Bs[T]
0.000000e+00	2.617117e+14	0.000000e+00	4.830509e-01	3.753325e+15	2.073164e+15	3.634196e+14	2.174362e+04	4.734108e+03	2.902933e+03	0	2.370256e-03
1.000000e+07	2.439791e+14	0.000000e+00	4.830509e-01	3.507196e+15	2.189108e+15	3.614060e+14	2.139253e+04	4.787670e+03	2.935776e+03	0	2.315466e-03
2.000000e+07	2.279423e+14	0.000000e+00	4.830509e-01	3.284522e+15	2.279668e+15	3.594075e+14	2.106393e+04	4.831634e+03	2.962735e+03	0	2.263580e-03
3.000000e+07	2.133987e+14	0.000000e+00	4.830509e-01	3.082508e+15	2.346997e+15	3.574239e+14	2.075572e+04	4.867312e+03	2.984613e+03	0	2.214377e-03
4.000000e+07	2.001750e+14	0.000000e+00	4.830509e-01	2.898759e+15	2.393669e+15	3.554550e+14	2.046605e+04	4.895876e+03	3.002128e+03	0	2.167658e-03
5.000000e+07	1.881221e+14	0.000000e+00	4.830509e-01	2.731214e+15	2.422391e+15	3.535009e+14	2.019329e+04	4.918357e+03	3.015913e+03	0	2.123248e-03
6.000000e+07	1.771106e+14	0.000000e+00	4.830509e-01	2.578087e+15	2.435819e+15	3.515614e+14	1.993598e+04	4.935654e+03	3.026519e+03	0	2.080986e-03
7.000000e+07	1.670281e+14	0.000000e+00	4.830509e-01	2.437824e+15	2.436438e+15	3.496363e+14	1.969281e+04	4.948548e+03	3.034426e+03	0	2.040723e-03
8.000000e+07	1.577763e+14	0.000000e+00	4.830509e-01	2.309066e+15	2.426494e+15	3.477255e+14	1.946262e+04	4.957711e+03	3.040045e+03	0	2.002326e-03
9.000000e+07	1.492692e+14	0.000000e+00	4.830509e-01	2.190623e+15	2.407974e+15	3.458289e+14	1.924437e+04	4.963719e+03	3.043729e+03	0	1.965672e-03
1.000000e+08	1.414311e+14	0.000000e+00	4.830509e-01	2.081450e+15	2.382600e+15	3.439464e+14	1.903711e+04	4.967065e+03	3.045780e+03	0	1.930645e-03
1.100000e+08	1.341952e+14	0.000000e+00	4.830509e-01	1.980623e+15	2.351841e+15	3.420778e+14	1.884001e+04	4.968169e+03	3.046457e+03	0	1.897142e-03
1.200000e+08	1.275027e+14	0.000000e+00	4.830509e-01	1.887328e+15	2.316940e+15	3.402231e+14	1.865230e+04	4.967389e+03	3.045979e+03	0	1.865065e-03
1.300000e+08	1.213015e+14	0.000000e+00	4.830509e-01	1.800844e+15	2.278935e+15	3.383822e+14	1.847329e+04	4.965029e+03	3.044532e+03	0	1.834325e-03
1.400000e+08	1.155452e+14	0.000000e+00	4.830509e-01	1.720532e+15	2.238685e+15	3.365549e+14	1.830236e+04	4.961347e+03	3.042275e+03	0	1.804838e-03
1.500000e+08	1.101929e+14	0.000000e+00	4.830509e-01	1.645822e+15	2.196898e+15	3.347410e+14	1.813894e+04	4.956564e+03	3.039342e+03	0	1.776528e-03
1.600000e+08	1.052078e+14	0.000000e+00	4.830509e-01	1.576208e+15	2.154151e+15	3.329406e+14	1.798250e+04	4.950865e+03	3.035847e+03	0	1.749324e-03
1.700000e+08	1.005574e+14	0.000000e+00	4.830509e-01	1.511238e+15	2.110911e+15	3.311535e+14	1.783259e+04	4.944409e+03	3.031888e+03	0	1.723160e-03
1.800000e+08	9.621237e+13	0.000000e+00	4.830509e-01	1.450507e+15	2.067554e+15	3.293795e+14	1.768878e+04	4.937331e+03	3.027548e+03	0	1.697975e-03
1.900000e+08	9.214662e+13	0.000000e+00	4.830509e-01	1.393654e+15	2.024380e+15	3.276186e+14	1.755066e+04	4.929743e+03	3.022895e+03	0	1.673712e-03
2.000000e+08	8.833666e+13	0.000000e+00	4.830509e-01	1.340354e+15	1.981625e+15	3.258707e+14	1.741789e+04	4.921744e+03	3.017990e+03	0	1.650319e-03
2.100000e+08	8.476138e+13	0.000000e+00	4.830509e-01	1.290313e+15	1.939472e+15	3.241356e+14	1.729013e+04	4.913416e+03	3.012883e+03	0	1.627747e-03
2.200000e+08	8.140178e+13	0.000000e+00	4.830509e-01	1.243269e+15	1.898063e+15	3.224133e+14	1.716708e+04	4.904829e+03	3.007618e+03	0	1.605951e-03
2.300000e+08	7.824072e+13	0.000000e+00	4.830509e-01	1.198985e+15	1.857505e+15	3.207036e+14	1.704846e+04	4.896043e+03	3.002230e+03	0	1.584888e-03
2.400000e+08	7.526269e+13	0.000000e+00	4.830509e-01	1.157245e+15	1.817875e+15	3.190064e+14	1.693401e+04	4.887108e+03	2.996751e+03	0	1.564519e-03
2.500000e+08	7.245367e+13	0.000000e+00	4.830509e-01	1.117856e+15	1.779228e+15	3.173217e+14	1.682351e+04	4.878067e+03	2.991208e+03	0	1.544807e-03
2.600000e+08	6.980094e+13	0.000000e+00	4.830509e-01	1.080640e+15	1.741599e+15	3.156492e+14	1.671672e+04	4.868957e+03	2.985621e+03	0	1.525719e-03
2.700000e+08	6.729293e+13	0.000000e+00	4.830509e-01	1.045438e+15	1.705010e+15	3.139891e+14	1.661344e+04	4.859809e+03	2.980012e+03	0	1.507223e-03
2.800000e+08	6.491914e+13	0.000000e+00	4.830509e-01	1.012103e+15	1.669468e+15	3.123410e+14	1.651350e+04	4.850648e+03	2.974394e+03	0	1.489287e-03
2.900000e+08	6.266999e+13	0.000000e+00	4.830509e-01	9.805038e+14	1.634974e+15	3.107050e+14	1.641671e+04	4.841498e+03	2.968783e+03	0	1.471886e-03
3.000000e+08	6.053674e+13	0.000000e+00	4.830509e-01	9.505181e+14	1.601519e+15	3.090809e+14	1.632291e+04	4.832376e+03	2.963190e+03	0	1.454992e-03
3.100000e+08	5.851139e+13	0.000000e+00	4.830509e-01	9.220353e+14	1.569088e+15	3.074686e+14	1.623194e+04	4.823299e+03	2.957624e+03	0	1.438581e-03
3.200000e+08	5.658664e+13	0.000000e+00	4.830509e-01	8.949539e+14	1.537663e+15	3.058681e+14	1.614368e+04	4.814279e+03	2.952093e+03	0	1.422631e-03
3.300000e+08	5.475578e+13	0.000000e+00	4.830509e-01	8.691808e+14	1.507222e+15	3.042792e+14	1.605798e+04	4.805328e+03	2.946604e+03	0	1.407119e-03
3.400000e+08	5.301265e+13	0.000000e+00	4.830509e-01	8.446307e+14	1.477739e+15	3.027018e+14	1.597473e+04	4.796455e+03	2.941163e+03	0	1.392026e-03
3.500000e+08	5.135160e+13	0.000000e+00	4.830509e-01	8.212250e+14	1.449188e+15	3.011359e+14	1.589380e+04	4.787667e+03	2.935774e+03	0	1.377333e-03
3.600000e+08	4.976743e+13	0.000000e+00	4.830509e-01	7.988915e+14	1.421541e+15	2.995813e+14	1.581510e+04	4.778970e+03	2.930442e+03	0	1.363021e-03
3.700000e+08	4.825534e+13	0.000000e+00	4.830509e-01	7.775635e+14	1.394771e+15	2.980380e+14	1.573852e+04	4.770370e+03	2.925168e+03	0	1.349075e-03
3.800000e+08	4.681090e+13	0.000000e+00	4.830509e-01	7.571795e+14	1.368847e+15	2.965059e+14	1.566396e+04	4.761869e+03	2.919956e+03	0	1.335477e-03
3.900000e+08	4.543002e+13	0.000000e+00	4.830509e-01	7.376826e+14	1.343741e+15	2.949848e+14	1.559135e+04	4.753473e+03	2.914807e+03	0	1.322214e-03
4.000000e+08	4.410892e+13	0.000000e+00	4.830509e-01	7.190204e+14	1.319425e+15	2.934747e+14	1.552058e+04	4.745182e+03	2.909723e+03	0	1.309271e-03
4.100000e+08	4.284409e+13	0.000000e+00	4.830509e-01	7.011442e+14	1.295870e+15	2.919756e+14	1.545159e+04	4.736998e+03	2.904704e+03	0	1.296635e-03
4.200000e+08	4.163229e+13	0.000000e+00	4.830509e-01	6.840087e+14	1.273049e+15	2.904872e+14	1.538430e+04	4.728922e+03	2.899753e+03	0	1.284294e-03
4.300000e+08	4.047051e+13	0.000000e+00	4.830509e-01	6.675720e+14	1.250934e+15	2.890095e+14	1.531864e+04	4.720956e+03	2.894868e+03	0	1.272234e-03
4.400000e+08	3.935593e+13	0.000000e+00	4.830509e-01	6.517952e+14	1.229498e+15	2.875425e+14	1.525455e+04	4.713099e+03	2.890050e+03	0	1.260446e-03
4.500000e+08	3.828596e+13	0.000000e+00	4.830509e-01	6.366421e+14	1.208717e+15	2.860860e+14	1.519196e+04	4.705351e+03	2.885299e+03	0	1.248919e-03
4.600000e+08	3.725817e+13	0.000000e+00	4.830509e-01	6.220788e+14	1.188565e+15	2.846400e+14	1.513082e+04	4.697712e+03	2.880615e+03	0	1.237641e-03
4.700000e+08	3.627030e+13	0.000000e+00	4.830509e-01	6.080739e+14	1.169019e+15	2.832043e+14	1.507106e+04	4.690181e+03	2.875997e+03	0	1.226605e-03
4.800000e+08	3.532022e+13	0.000000e+00	4.830509e-01	5.945981e+14	1.150055e+15	2.817789e+14	1.501263e+04	4.682758e+03	2.871445e+03	0	1.215800e-03
4.900000e+08	3.440599e+13	0.000000e+00	4.830509e-01	5.816238e+14	1.131652e+15	2.803637e+14	1.495550e+04	4.675441e+03	2.866958e+03	0	1.205218e-03
5.000000e+08	3.352575e+13	0.000000e+00	4.830509e-01	5.691255e+14	1.113787e+15	2.789587e+14	1.489960e+04	4.668229e+03	2.862535e+03	0	1.194851e-03
5.100000e+08	3.267777e+13	0.000000e+00	4.830509e-01	5.570791e+14	1.096440e+15	2.775637e+14	1.484489e+04	4.661120e+03	2.858177e+03	0	1.184691e-03
5.200000e+08	3.186045e+13	0.000000e+00	4.830509e-01	5.454621e+14	1.079592e+15	2.761786e+14	1.479133e+04	4.654115e+03	2.853881e+03	0	1.174730e-03
5.300000e+08	3.107227e+13	0.000000e+00	4.830509e-01	5.342535e+14	1.063223e+15	2.748034e+14	1.473888e+04	4.647210e+03	2.849647e+03	0	1.164962e-03
5.400000e+08	3.031181e+13	0.000000e+00	4.830509e-01	5.234334e+14	1.047315e+15	2.734380e+14	1.468750e+04	4.640405e+03	2.845474e+03	0	1.155380e-03
5.500000e+08	2.957774e+13	0.000000e+00	4.830509e-01	5.129834e+14	1.031851e+15	2.720824e+14	1.463716e+04	4.633697e+03	2.841361e+03	0	1.145977e-03
5.600000e+08	2.886881e+13	0.000000e+00	4.830509e-01	5.028859e+14	1.016815e+15	2.707363e+14	1.458781e+04	4.627086e+03	2.837307e+03	0	1.136747e-03
5.700000e+08	2.818383e+13	0.000000e+00	4.830509e-01	4.931245e+14	1.002189e+15	2.693999e+14	1.453943e+04	4.620569e+03	2.833311e+03	0	1.127684e-03
5.800000e+08	2.752170e+13	0.000000e+00	4.830509e-01	4.836838e+14	9.879598e+14	2.680729e+14	1.449198e+04	4.614146e+03	2.829372e+03	0	1.118783e-03
5.900000e+08	2.688138e+13	0.000000e+00	4.830509e-01	4.745491e+14	9.741117e+14	2.667553e+14	1.444543e+04	4.607813e+03	2.825489e+03	0	1.110039e-03
6.000000e+08	2.626188e+13	0.000000e+00	4.830509e-01	4.657069e+14	9.606310e+14	2.654470e+14	1.439976e+04	4.601570e+03	2.821661e+03	0	1.101445e-03
6.100000e+08	2.566228e+13	0.000000e+00	4.830509e-01	4.571441e+14	9.475041e+14	2.641480e+14	1.435493e+04	4.595415e+03	2.817887e+03	0	1.092998e-03
6.200000e+08	2.508169e+13	0.000000e+00	4.830509e-01	4.488484e+14	9.347182e+14	2.628582e+14	1.431092e+04	4.589347e+03	2.814165e+03	0	1.084692e-03
6.300000e+08	2.451930e+13	0.000000e+00	4.830509e-01	4.408084e+14	9.222611e+14	2.615775e+14	1.426771e+04	4.583362e+03	2.810496e+03	0	1.076524e-03
6.400000e+08	2.397431e+13	0.000000e+00	4.830509e-01	4.330132e+14	9.101210e+14	2.603058e+14	1.422526e+04	4.577461e+03	2.806877e+03	0	1.068488e-03
6.500000e+08	2.344599e+13	0.000000e+00	4.830509e-01	4.254523e+14	8.982867e+14	2.590431e+14	1.418356e+04	4.571641e+03	2.803308e+03	0	1.060581e-03
6.600000e+08	2.293363e+13	0.000000e+00	4.830509e-01	4.181160e+14	8.867473e+14	2.577892e+14	1.414259e+04	4.565900e+03	2.799788e+03	0	1.052798e-03
6.700000e+08	2.243659e+13	0.000000e+00	4.830509e-01	4.109951e+14	8.754925e+14	2.565442e+14	1.410231e+04	4.560238e+03	2.796316e+03	0	1.045137e-03
6.800000e+08	2.195422e+13	0.000000e+00	4.830509e-01	4.040807e+14	8.645125e+14	2.553079e+14	1.406272e+04	4.554652e+03	2.792891e+03	0	1.037593e-03
6.900000e+08	2.148593e+13	0.000000e+00	4.830509e-01	3.973646e+14	8.537978e+14	2.540803e+14	1.402379e+04	4.549141e+03	2.789511e+03	0	1.030162e-03
7.000000e+08	2.103115e+13	0.000000e+00	4.830509e-01	3.908388e+14	8.433392e+14	2.528613e+14	1.398551e+04	4.543703e+03	2.786177e+03	0	1.022842e-03
7.100000e+08	2.058936e+13	0.000000e+00	4.830509e-01	3.844959e+14	8.331282e+14	2.516508e+14	1.394785e+04	4.538337e+03	2.782887e+03	0	1.015629e-03
7.200000e+08	2.016003e+13	0.000000e+00	4.830509e-01	3.783287e+14	8.231564e+14	2.504488e+14	1.391080e+04	4.533042e+03	2.779640e+03	0	1.008520e-03
7.300000e+08	1.974270e+13	0.000000e+00	4.830509e-01	3.723304e+14	8.134158e+14	2.492552e+14	1.387433e+04	4.527816e+03	2.776435e+03	0	1.001513e-03
7.400000e+08	1.933688e+13	0.000000e+00	4.830509e-01	3.664946e+14	8.038987e+14	2.480699e+14	1.383845e+04	4.522657e+03	2.773272e+03	0	9.946029e-04
7.500000e+08	1.894215e+13	0.000000e+00	4.830509e-01	3.608152e+14	7.945978e+14	2.468929e+14	1.380312e+04	4.517564e+03	2.770149e+03	0	9.877886e-04
7.600000e+08	1.855809e+13	0.000000e+00	4.830509e-01	3.552863e+14	7.855060e+14	2.457241e+14	1.376834e+04	4.512537e+03	2.767066e+03	0	9.810671e-04
7.700000e+08	1.818431e+13	0.000000e+00	4.830509e-01	3.499023e+14	7.766167e+14	2.445634e+14	1.373409e+04	4.507573e+03	2.764022e+03	0	9.744356e-04
7.800000e+08	1.782041e+13	0.000000e+00	4.830509e-01	3.446580e+14	7.679232e+14	2.434108e+14	1.370035e+04	4.502671e+03	2.761017e+03	0	9.678918e-04
7.900000e+08	1.746605e+13	0.000000e+00	4.830509e-01	3.395483e+14	7.594194e+14	2.422662e+14	1.366712e+04	4.497831e+03	2.758048e+03	0	9.614333e-04
8.000000e+08	1.712088e+13	0.000000e+00	4.830509e-01	3.345684e+14	7.510993e+14	2.411295e+14	1.363438e+04	4.493050e+03	2.755117e+03	0	9.550577e-04
8.100000e+08	1.678457e+13	0.000000e+00	4.830509e-01	3.297137e+14	7.429572e+14	2.400007e+14	1.360211e+04	4.488328e+03	2.752221e+03	0	9.487628e-04
8.200000e+08	1.645680e+13	0.000000e+00	4.830509e-01	3.249798e+14	7.349875e+14	2.388797e+14	1.357031e+04	4.483663e+03	2.749361e+03	0	9.425464e-04
8.300000e+08	1.613728e+13	0.000000e+00	4.830509e-01	3.203624e+14	7.271849e+14	2.377665e+14	1.353897e+04	4.479054e+03	2.746535e+03	0	9.364064e-04
8.400000e+08	1.582573e+13	0.000000e+00	4.830509e-01	3.158577e+14	7.195444e+14	2.366610e+14	1.350807e+04	4.474501e+03	2.743742e+03	0	9.303409e-04
8.500000e+08	1.552185e+13	0.000000e+00	4.830509e-01	3.114616e+14	7.120610e+14	2.355631e+14	1.347760e+04	4.470001e+03	2.740983e+03	0	9.243478e-04
8.600000e+08	1.522541e+13	0.000000e+00	4.830509e-01	3.071707e+14	7.047300e+14	2.344727e+14	1.344755e+04	4.465555e+03	2.738257e+03	0	9.184254e-04
8.700000e+08	1.493614e+13	0.000000e+00	4.830509e-01	3.029813e+14	6.975469e+14	2.333899e+14	1.341792e+04	4.461160e+03	2.735562e+03	0	9.125717e-04
8.800000e+08	1.465380e+13	0.000000e+00	4.830509e-01	2.988900e+14	6.905073e+14	2.323145e+14	1.338868e+04	4.456817e+03	2.732899e+03	0	9.067850e-04
8.900000e+08	1.437817e+13	0.000000e+00	4.830509e-01	2.948938e+14	6.836070e+14	2.312465e+14	1.335984e+04	4.452523e+03	2.730266e+03	0	9.010636e-04
9.000000e+08	1.410902e+13	0.000000e+00	4.830509e-01	2.909894e+14	6.768421e+14	2.301858e+14	1.333139e+04	4.448278e+03	2.727663e+03	0	8.954058e-04
9.100000e+08	1.384615e+13	0.000000e+00	4.830509e-01	2.871740e+14	6.702085e+14	2.291324e+14	1.330331e+04	4.444081e+03	2.725089e+03	0	8.898100e-04
9.200000e+08	1.358936e+13	0.000000e+00	4.830509e-01	2.834446e+14	6.637025e+14	2.280862e+14	1.327559e+04	4.439932e+03	2.722545e+03	0	8.842747e-04
9.300000e+08	1.333844e+13	0.000000e+00	4.830509e-01	2.797986e+14	6.573205e+14	2.270472e+14	1.324824e+04	4.435828e+03	2.720029e+03	0	8.787983e-04
9.400000e+08	1.309321e+13	0.000000e+00	4.830509e-01	2.762334e+14	6.510591e+14	2.260152e+14	1.322123e+04	4.431770e+03	2.717540e+03	0	8.733795e-04
9.500000e+08	1.285350e+13	0.000000e+00	4.830509e-01	2.727464e+14	6.449149e+14	2.249904e+14	1.319457e+04	4.427756e+03	2.715079e+03	0	8.680167e-04
9.600000e+08	1.261914e+13	0.000000e+00	4.830509e-01	2.693353e+14	6.388845e+14	2.239725e+14	1.316824e+04	4.423785e+03	2.712644e+03	0	8.627086e-04
9.700000e+08	1.238995e+13	0.000000e+00	4.830509e-01	2.659977e+14	6.329651e+14	2.229615e+14	1.314224e+04	4.419858e+03	2.710236e+03	0	8.574538e-04
9.800000e+08	1.216578e+13	0.000000e+00	4.830509e-01	2.627313e+14	6.271534e+14	2.219574e+14	1.311656e+04	4.415972e+03	2.707853e+03	0	8.522511e-04
9.900000e+08	1.194648e+13	0.000000e+00	4.830509e-01	2.595342e+14	6.214466e+14	2.209601e+14	1.309120e+04	4.412128e+03	2.705496e+03	0	8.470991e-04
1.000000e+09	1.173190e+13	0.000000e+00	4.830509e-01	2.564041e+14	6.158418e+14	2.199696e+14	1.306614e+04	4.408323e+03	2.703163e+03	0	8.419967e-04
1.010000e+09	1.152191e+13	0.000000e+00	4.830509e-01	2.533392e+14	6.103365e+14	2.189859e+14	1.304138e+04	4.404559e+03	2.700854e+03	0	8.369427e-04
1.020000e+09	1.131636e+13	0.000000e+00	4.830509e-01	2.503375e+14	6.049279e+14	2.180088e+14	1.301692e+04	4.400833e+03	2.698570e+03	0	8.319359e-04
1.030000e+09	1.111513e+13	0.000000e+00	4.830509e-01	2.473972e+14	5.996136e+14	2.170383e+14	1.299275e+04	4.397146e+03	2.696309e+03	0	8.269751e-04
1.040000e+09	1.091809e+13	0.000000e+00	4.830509e-01	2.445166e+14	5.943910e+14	2.160743e+14	1.296885e+04	4.393496e+03	2.694071e+03	0	8.220593e-04
1.050000e+09	1.072512e+13	0.000000e+00	4.830509e-01	2.416938e+14	5.892579e+14	2.151169e+14	1.294524e+04	4.389883e+03	2.691855e+03	0	8.171873e-04
1.060000e+09	1.053610e+13	0.000000e+00	4.830509e-01	2.389274e+14	5.842119e+14	2.141659e+14	1.292190e+04	4.386306e+03	2.689662e+03	0	8.123582e-04
1.070000e+09	1.035093e+13	0.000000e+00	4.830509e-01	2.362156e+14	5.792509e+14	2.132214e+14	1.289882e+04	4.382765e+03	2.687491e+03	0	8.075710e-04
1.080000e+09	1.016949e+13	0.000000e+00	4.830509e-01	2.335571e+14	5.743727e+14	2.122831e+14	1.287601e+04	4.379258e+03	2.685340e+03	0	8.028246e-04
1.090000e+09	9.991682e+12	0.000000e+00	4.830509e-01	2.309503e+14	5.695752e+14	2.113512e+14	1.285345e+04	4.375786e+03	2.683211e+03	0	7.981180e-04
1.100000e+09	9.817402e+12	0.000000e+00	4.830509e-01	2.283938e+14	5.648564e+14	2.104256e+14	1.283114e+04	4.372348e+03	2.681103e+03	0	7.934504e-04
1.110000e+09	9.646555e+12	0.000000e+00	4.830509e-01	2.258862e+14	5.602145e+14	2.095062e+14	1.280908e+04	4.368943e+03	2.679015e+03	0	7.888207e-04
1.120000e+09	9.479047e+12	0.000000e+00	4.830509e-01	2.234263e+14	5.556475e+14	2.085929e+14	1.278726e+04	4.365570e+03	2.676946e+03	0	7.842282e-04
1.130000e+09	9.314788e+12	0.000000e+00	4.830509e-01	2.210127e+14	5.511536e+14	2.076857e+14	1.276567e+04	4.362229e+03	2.674898e+03	0	7.796719e-04
1.140000e+09	9.153690e+12	0.000000e+00	4.830509e-01	2.186443e+14	5.467312e+14	2.067846e+14	1.274432e+04	4.358919e+03	2.672869e+03	0	7.751510e-04
1.150000e+09	8.995670e+12	0.000000e+00	4.830509e-01	2.163197e+14	5.423783e+14	2.058895e+14	1.272320e+04	4.355641e+03	2.670858e+03	0	7.706646e-04
1.160000e+09	8.840647e+12	0.000000e+00	4.830509e-01	2.140380e+14	5.380936e+14	2.050004e+14	1.270230e+04	4.352392e+03	2.668866e+03	0	7.662119e-04
1.170000e+09	8.688541e+12	0.000000e+00	4.830509e-01	2.117979e+14	5.338752e+14	2.041172e+14	1.268161e+04	4.349174e+03	2.666893e+03	0	7.617922e-04
1.180000e+09	8.539276e+12	0.000000e+00	4.830509e-01	2.095985e+14	5.297217e+14	2.032399e+14	1.266115e+04	4.345985e+03	2.664937e+03	0	7.574046e-04
1.190000e+09	8.392780e+12	0.000000e+00	4.830509e-01	2.074386e+14	5.256317e+14	2.023684e+14	1.264090e+04	4.342825e+03	2.662999e+03	0	7.530483e-04
1.200000e+09	8.248981e+12	0.000000e+00	4.830509e-01	2.053173e+14	5.216035e+14	2.015027e+14	1.262085e+04	4.339693e+03	2.661079e+03	0	7.487227e-04
1.210000e+09	8.107810e+12	0.000000e+00	4.830509e-01	2.032335e+14	5.176359e+14	2.006428e+14	1.260101e+04	4.336589e+03	2.659176e+03	0	7.444270e-04
1.220000e+09	7.969202e+12	0.000000e+00	4.830509e-01	2.011864e+14	5.137274e+14	1.997885e+14	1.258137e+04	4.333512e+03	2.657289e+03	0	7.401604e-04
1.230000e+09	7.833091e+12	0.000000e+00	4.830509e-01	1.991751e+14	5.098768e+14	1.989399e+14	1.256193e+04	4.330463e+03	2.655419e+03	0	7.359223e-04
1.240000e+09	7.699416e+12	0.000000e+00	4.830509e-01	1.971987e+14	5.060827e+14	1.980969e+14	1.254268e+04	4.327440e+03	2.653565e+03	0	7.317120e-04
1.250000e+09	7.568116e+12	0.000000e+00	4.830509e-01	1.952562e+14	5.023438e+14	1.972595e+14	1.252362e+04	4.324443e+03	2.651728e+03	0	7.275288e-04
1.260000e+09	7.439133e+12	0.000000e+00	4.830509e-01	1.933469e+14	4.986591e+14	1.964275e+14	1.250475e+04	4.321472e+03	2.649906e+03	0	7.233720e-04
1.270000e+09	7.312410e+12	0.000000e+00	4.830509e-01	1.914701e+14	4.950272e+14	1.956011e+14	1.248606e+04	4.318526e+03	2.648100e+03	0	7.192409e-04
1.280000e+09	7.187892e+12	0.000000e+00	4.830509e-01	1.896248e+14	4.914471e+14	1.947801e+14	1.246755e+04	4.315605e+03	2.646308e+03	0	7.151351e-04
1.290000e+09	7.065527e+12	0.000000e+00	4.830509e-01	1.878104e+14	4.879177e+14	1.939645e+14	1.244922e+04	4.312709e+03	2.644532e+03	0	7.110537e-04
1.300000e+09	6.945263e+12	0.000000e+00	4.830509e-01	1.860261e+14	4.844378e+14	1.931543e+14	1.243107e+04	4.309836e+03	2.642771e+03	0	7.069963e-04
1.310000e+09	6.827049e+12	0.000000e+00	4.830509e-01	1.842712e+14	4.810063e+14	1.923493e+14	1.241308e+04	4.306988e+03	2.641024e+03	0	7.029621e-04
1.320000e+09	6.710839e+12	0.000000e+00	4.830509e-01	1.825451e+14	4.776224e+14	1.915497e+14	1.239527e+04	4.304163e+03	2.639292e+03	0	6.989506e-04
1.330000e+09	6.596584e+12	0.000000e+00	4.830509e-01	1.808471e+14	4.742850e+14	1.907552e+14	1.237762e+04	4.301361e+03	2.637574e+03	0	6.949613e-04
1.340000e+09	6.484239e+12	0.000000e+00	4.830509e-01	1.791765e+14	4.709931e+14	1.899660e+14	1.236014e+04	4.298581e+03	2.635870e+03	0	6.909934e-04
1.350000e+09	6.373760e+12	0.000000e+00	4.830509e-01	1.775327e+14	4.677458e+14	1.891819e+14	1.234281e+04	4.295824e+03	2.634179e+03	0	6.870465e-04
1.360000e+09	6.265105e+12	0.000000e+00	4.830509e-01	1.759151e+14	4.645421e+14	1.884029e+14	1.232565e+04	4.293089e+03	2.632502e+03	0	6.831200e-04
