#t		Qconv[W]	Ri[Rp]		R*[Rp]		Qc[W]		Qm[W]		Qr[W]		Tcmb[K]		Tl[K]		Tup[K]		RiFlag		Bs[T]
0.000000e+00	4.243495e+14	0.000000e+00	4.827588e-01	5.623216e+15	2.046924e+15	4.126237e+14	2.529001e+04	4.967201e+03	2.985175e+03	0	2.777989e-03
1.000000e+07	3.943933e+14	0.000000e+00	4.827588e-01	5.239128e+15	2.277064e+15	4.103375e+14	2.484127e+04	5.060561e+03	3.041282e+03	0	2.711018e-03
2.000000e+07	3.673707e+14	0.000000e+00	4.827588e-01	4.892518e+15	2.475904e+15	4.080683e+14	2.442240e+04	5.139301e+03	3.088603e+03	0	2.647631e-03
3.000000e+07	3.429186e+14	0.000000e+00	4.827588e-01	4.578755e+15	2.641964e+15	4.058161e+14	2.403057e+04	5.205125e+03	3.128161e+03	0	2.587535e-03
4.000000e+07	3.207312e+14	0.000000e+00	4.827588e-01	4.293940e+15	2.775758e+15	4.035808e+14	2.366329e+04	5.259631e+03	3.160918e+03	0	2.530481e-03
5.000000e+07	3.005482e+14	0.000000e+00	4.827588e-01	4.034750e+15	2.879177e+15	4.013621e+14	2.331834e+04	5.304293e+03	3.187759e+03	0	2.476247e-03
6.000000e+07	2.821458e+14	0.000000e+00	4.827588e-01	3.798329e+15	2.954953e+15	3.991599e+14	2.299376e+04	5.340446e+03	3.209486e+03	0	2.424639e-03
7.000000e+07	2.653301e+14	0.000000e+00	4.827588e-01	3.582203e+15	3.006240e+15	3.969742e+14	2.268781e+04	5.369282e+03	3.226816e+03	0	2.375480e-03
8.000000e+07	2.499322e+14	0.000000e+00	4.827588e-01	3.384216e+15	3.036307e+15	3.948047e+14	2.239893e+04	5.391852e+03	3.240380e+03	0	2.328609e-03
9.000000e+07	2.358043e+14	0.000000e+00	4.827588e-01	3.202479e+15	3.048327e+15	3.926513e+14	2.212570e+04	5.409077e+03	3.250732e+03	0	2.283879e-03
1.000000e+08	2.228164e+14	0.000000e+00	4.827588e-01	3.035334e+15	3.045254e+15	3.905139e+14	2.186687e+04	5.421757e+03	3.258352e+03	0	2.241154e-03
1.100000e+08	2.108540e+14	0.000000e+00	4.827588e-01	2.881318e+15	3.029751e+15	3.883924e+14	2.162130e+04	5.430579e+03	3.263655e+03	0	2.200307e-03
1.200000e+08	1.998159e+14	0.000000e+00	4.827588e-01	2.739135e+15	3.004170e+15	3.862866e+14	2.138798e+04	5.436138e+03	3.266995e+03	0	2.161221e-03
1.300000e+08	1.896123e+14	0.000000e+00	4.827588e-01	2.607642e+15	2.970544e+15	3.841964e+14	2.116598e+04	5.438940e+03	3.268679e+03	0	2.123789e-03
1.400000e+08	1.801636e+14	0.000000e+00	4.827588e-01	2.485820e+15	2.930613e+15	3.821217e+14	2.095447e+04	5.439419e+03	3.268967e+03	0	2.087909e-03
1.500000e+08	1.713991e+14	0.000000e+00	4.827588e-01	2.372766e+15	2.885846e+15	3.800623e+14	2.075267e+04	5.437944e+03	3.268081e+03	0	2.053488e-03
1.600000e+08	1.632557e+14	0.000000e+00	4.827588e-01	2.267672e+15	2.837470e+15	3.780181e+14	2.055992e+04	5.434831e+03	3.266210e+03	0	2.020437e-03
1.700000e+08	1.556772e+14	0.000000e+00	4.827588e-01	2.169821e+15	2.786503e+15	3.759890e+14	2.037557e+04	5.430346e+03	3.263514e+03	0	1.988677e-03
1.800000e+08	1.486133e+14	0.000000e+00	4.827588e-01	2.078569e+15	2.733783e+15	3.739748e+14	2.019906e+04	5.424718e+03	3.260132e+03	0	1.958131e-03
1.900000e+08	1.420189e+14	0.000000e+00	4.827588e-01	1.993341e+15	2.679993e+15	3.719755e+14	2.002987e+04	5.418140e+03	3.256179e+03	0	1.928730e-03
2.000000e+08	1.358539e+14	0.000000e+00	4.827588e-01	1.913620e+15	2.625689e+15	3.699909e+14	1.986752e+04	5.410778e+03	3.251754e+03	0	1.900407e-03
2.100000e+08	1.300818e+14	0.000000e+00	4.827588e-01	1.838944e+15	2.571315e+15	3.680209e+14	1.971158e+04	5.402770e+03	3.246942e+03	0	1.873102e-03
2.200000e+08	1.246702e+14	0.000000e+00	4.827588e-01	1.768894e+15	2.517228e+15	3.660654e+14	1.956165e+04	5.394236e+03	3.241813e+03	0	1.846758e-03
2.300000e+08	1.195896e+14	0.000000e+00	4.827588e-01	1.703096e+15	2.463707e+15	3.641242e+14	1.941735e+04	5.385277e+03	3.236429e+03	0	1.821323e-03
2.400000e+08	1.148135e+14	0.000000e+00	4.827588e-01	1.641210e+15	2.410972e+15	3.621973e+14	1.927835e+04	5.375980e+03	3.230841e+03	0	1.796747e-03
2.500000e+08	1.103181e+14	0.000000e+00	4.827588e-01	1.582929e+15	2.359188e+15	3.602844e+14	1.914434e+04	5.366417e+03	3.225095e+03	0	1.772984e-03
2.600000e+08	1.060816e+14	0.000000e+00	4.827588e-01	1.527975e+15	2.308484e+15	3.583856e+14	1.901504e+04	5.356652e+03	3.219226e+03	0	1.749991e-03
2.700000e+08	1.020843e+14	0.000000e+00	4.827588e-01	1.476097e+15	2.258949e+15	3.565006e+14	1.889017e+04	5.346736e+03	3.213266e+03	0	1.727729e-03
2.800000e+08	9.830841e+13	0.000000e+00	4.827588e-01	1.427067e+15	2.210649e+15	3.546294e+14	1.876949e+04	5.336715e+03	3.207244e+03	0	1.706159e-03
2.900000e+08	9.473768e+13	0.000000e+00	4.827588e-01	1.380675e+15	2.163624e+15	3.527719e+14	1.865278e+04	5.326627e+03	3.201182e+03	0	1.685247e-03
3.000000e+08	9.135732e+13	0.000000e+00	4.827588e-01	1.336733e+15	2.117900e+15	3.509279e+14	1.853982e+04	5.316505e+03	3.195099e+03	0	1.664960e-03
3.100000e+08	8.815384e+13	0.000000e+00	4.827588e-01	1.295068e+15	2.073484e+15	3.490974e+14	1.843042e+04	5.306376e+03	3.189011e+03	0	1.645267e-03
3.200000e+08	8.511491e+13	0.000000e+00	4.827588e-01	1.255521e+15	2.030375e+15	3.472801e+14	1.832439e+04	5.296263e+03	3.182934e+03	0	1.626140e-03
3.300000e+08	8.222926e+13	0.000000e+00	4.827588e-01	1.217948e+15	1.988562e+15	3.454761e+14	1.822156e+04	5.286186e+03	3.176878e+03	0	1.607551e-03
3.400000e+08	7.948657e+13	0.000000e+00	4.827588e-01	1.182217e+15	1.948026e+15	3.436852e+14	1.812179e+04	5.276162e+03	3.170853e+03	0	1.589475e-03
3.500000e+08	7.687735e+13	0.000000e+00	4.827588e-01	1.148206e+15	1.908743e+15	3.419073e+14	1.802491e+04	5.266203e+03	3.164868e+03	0	1.571890e-03
3.600000e+08	7.439290e+13	0.000000e+00	4.827588e-01	1.115803e+15	1.870686e+15	3.401422e+14	1.793079e+04	5.256323e+03	3.158930e+03	0	1.554771e-03
3.700000e+08	7.202522e+13	0.000000e+00	4.827588e-01	1.084906e+15	1.833822e+15	3.383900e+14	1.783930e+04	5.246529e+03	3.153044e+03	0	1.538098e-03
3.800000e+08	6.976693e+13	0.000000e+00	4.827588e-01	1.055420e+15	1.798121e+15	3.366504e+14	1.775032e+04	5.236830e+03	3.147216e+03	0	1.521852e-03
3.900000e+08	6.761125e+13	0.000000e+00	4.827588e-01	1.027257e+15	1.763546e+15	3.349234e+14	1.766374e+04	5.227233e+03	3.141448e+03	0	1.506014e-03
4.000000e+08	6.555189e+13	0.000000e+00	4.827588e-01	1.000338e+15	1.730063e+15	3.332088e+14	1.757945e+04	5.217743e+03	3.135745e+03	0	1.490565e-03
4.100000e+08	6.358305e+13	0.000000e+00	4.827588e-01	9.745876e+14	1.697635e+15	3.315067e+14	1.749735e+04	5.208363e+03	3.130108e+03	0	1.475490e-03
4.200000e+08	6.169936e+13	0.000000e+00	4.827588e-01	9.499368e+14	1.666227e+15	3.298168e+14	1.741734e+04	5.199098e+03	3.124539e+03	0	1.460773e-03
4.300000e+08	5.989585e+13	0.000000e+00	4.827588e-01	9.263218e+14	1.635804e+15	3.281391e+14	1.733934e+04	5.189948e+03	3.119041e+03	0	1.446399e-03
4.400000e+08	5.816791e+13	0.000000e+00	4.827588e-01	9.036833e+14	1.606330e+15	3.264734e+14	1.726326e+04	5.180916e+03	3.113613e+03	0	1.432354e-03
4.500000e+08	5.651125e+13	0.000000e+00	4.827588e-01	8.819662e+14	1.577770e+15	3.248197e+14	1.718903e+04	5.172004e+03	3.108257e+03	0	1.418625e-03
4.600000e+08	5.492189e+13	0.000000e+00	4.827588e-01	8.611193e+14	1.550092e+15	3.231779e+14	1.711656e+04	5.163211e+03	3.102972e+03	0	1.405199e-03
4.700000e+08	5.339612e+13	0.000000e+00	4.827588e-01	8.410950e+14	1.523263e+15	3.215478e+14	1.704580e+04	5.154538e+03	3.097760e+03	0	1.392064e-03
4.800000e+08	5.193049e+13	0.000000e+00	4.827588e-01	8.218488e+14	1.497250e+15	3.199295e+14	1.697667e+04	5.145985e+03	3.092620e+03	0	1.379209e-03
4.900000e+08	5.052179e+13	0.000000e+00	4.827588e-01	8.033395e+14	1.472023e+15	3.183227e+14	1.690911e+04	5.137551e+03	3.087551e+03	0	1.366623e-03
5.000000e+08	4.916701e+13	0.000000e+00	4.827588e-01	7.855282e+14	1.447552e+15	3.167274e+14	1.684305e+04	5.129235e+03	3.082554e+03	0	1.354297e-03
5.100000e+08	4.786334e+13	0.000000e+00	4.827588e-01	7.683790e+14	1.423808e+15	3.151435e+14	1.677845e+04	5.121037e+03	3.077627e+03	0	1.342220e-03
5.200000e+08	4.660817e+13	0.000000e+00	4.827588e-01	7.518580e+14	1.400764e+15	3.135710e+14	1.671526e+04	5.112956e+03	3.072770e+03	0	1.330383e-03
5.300000e+08	4.539904e+13	0.000000e+00	4.827588e-01	7.359337e+14	1.378394e+15	3.120096e+14	1.665341e+04	5.104989e+03	3.067982e+03	0	1.318777e-03
5.400000e+08	4.423364e+13	0.000000e+00	4.827588e-01	7.205764e+14	1.356671e+15	3.104593e+14	1.659286e+04	5.097137e+03	3.063263e+03	0	1.307395e-03
5.500000e+08	4.310983e+13	0.000000e+00	4.827588e-01	7.057583e+14	1.335571e+15	3.089201e+14	1.653356e+04	5.089396e+03	3.058611e+03	0	1.296228e-03
5.600000e+08	4.202558e+13	0.000000e+00	4.827588e-01	6.914534e+14	1.315071e+15	3.073918e+14	1.647548e+04	5.081766e+03	3.054026e+03	0	1.285268e-03
5.700000e+08	4.097898e+13	0.000000e+00	4.827588e-01	6.776371e+14	1.295148e+15	3.058744e+14	1.641857e+04	5.074245e+03	3.049506e+03	0	1.274509e-03
5.800000e+08	3.996827e+13	0.000000e+00	4.827588e-01	6.642866e+14	1.275781e+15	3.043678e+14	1.636278e+04	5.066831e+03	3.045050e+03	0	1.263944e-03
5.900000e+08	3.899174e+13	0.000000e+00	4.827588e-01	6.513801e+14	1.256947e+15	3.028718e+14	1.630809e+04	5.059523e+03	3.040658e+03	0	1.253565e-03
6.000000e+08	3.804784e+13	0.000000e+00	4.827588e-01	6.388972e+14	1.238629e+15	3.013864e+14	1.625445e+04	5.052318e+03	3.036328e+03	0	1.243367e-03
6.100000e+08	3.713506e+13	0.000000e+00	4.827588e-01	6.268188e+14	1.220806e+15	2.999115e+14	1.620184e+04	5.045214e+03	3.032059e+03	0	1.233343e-03
6.200000e+08	3.625200e+13	0.000000e+00	4.827588e-01	6.151267e+14	1.203461e+15	2.984471e+14	1.615021e+04	5.038211e+03	3.027850e+03	0	1.223489e-03
6.300000e+08	3.539734e+13	0.000000e+00	4.827588e-01	6.038039e+14	1.186576e+15	2.969930e+14	1.609954e+04	5.031306e+03	3.023700e+03	0	1.213797e-03
6.400000e+08	3.456984e+13	0.000000e+00	4.827588e-01	5.928342e+14	1.170134e+15	2.955491e+14	1.604979e+04	5.024497e+03	3.019608e+03	0	1.204264e-03
6.500000e+08	3.376830e+13	0.000000e+00	4.827588e-01	5.822024e+14	1.154119e+15	2.941154e+14	1.600095e+04	5.017782e+03	3.015573e+03	0	1.194884e-03
6.600000e+08	3.299162e+13	0.000000e+00	4.827588e-01	5.718940e+14	1.138516e+15	2.926918e+14	1.595297e+04	5.011160e+03	3.011593e+03	0	1.185652e-03
6.700000e+08	3.223873e+13	0.000000e+00	4.827588e-01	5.618955e+14	1.123311e+15	2.912782e+14	1.590584e+04	5.004629e+03	3.007668e+03	0	1.176563e-03
6.800000e+08	3.150865e+13	0.000000e+00	4.827588e-01	5.521938e+14	1.108489e+15	2.898745e+14	1.585953e+04	4.998187e+03	3.003797e+03	0	1.167614e-03
6.900000e+08	3.080041e+13	0.000000e+00	4.827588e-01	5.427769e+14	1.094036e+15	2.884807e+14	1.581401e+04	4.991832e+03	2.999978e+03	0	1.158799e-03
7.000000e+08	3.011313e+13	0.000000e+00	4.827588e-01	5.336331e+14	1.079941e+15	2.870967e+14	1.576927e+04	4.985563e+03	2.996210e+03	0	1.150115e-03
7.100000e+08	2.944596e+13	0.000000e+00	4.827588e-01	5.247513e+14	1.066190e+15	2.857223e+14	1.572527e+04	4.979378e+03	2.992493e+03	0	1.141558e-03
7.200000e+08	2.879808e+13	0.000000e+00	4.827588e-01	5.161212e+14	1.052772e+15	2.843575e+14	1.568201e+04	4.973275e+03	2.988825e+03	0	1.133123e-03
7.300000e+08	2.816874e+13	0.000000e+00	4.827588e-01	5.077329e+14	1.039675e+15	2.830023e+14	1.563945e+04	4.967252e+03	2.985206e+03	0	1.124808e-03
7.400000e+08	2.755720e+13	0.000000e+00	4.827588e-01	4.995769e+14	1.026888e+15	2.816566e+14	1.559758e+04	4.961309e+03	2.981634e+03	0	1.116609e-03
7.500000e+08	2.696278e+13	0.000000e+00	4.827588e-01	4.916444e+14	1.014402e+15	2.803202e+14	1.555637e+04	4.955442e+03	2.978108e+03	0	1.108522e-03
7.600000e+08	2.638481e+13	0.000000e+00	4.827588e-01	4.839267e+14	1.002206e+15	2.789931e+14	1.551582e+04	4.949652e+03	2.974628e+03	0	1.100544e-03
7.700000e+08	2.582267e+13	0.000000e+00	4.827588e-01	4.764157e+14	9.902907e+14	2.776753e+14	1.547590e+04	4.943936e+03	2.971193e+03	0	1.092672e-03
7.800000e+08	2.527577e+13	0.000000e+00	4.827588e-01	4.691039e+14	9.786466e+14	2.763667e+14	1.543660e+04	4.938292e+03	2.967801e+03	0	1.084902e-03
7.900000e+08	2.474353e+13	0.000000e+00	4.827588e-01	4.619837e+14	9.672651e+14	2.750671e+14	1.539790e+04	4.932720e+03	2.964452e+03	0	1.077233e-03
8.000000e+08	2.422541e+13	0.000000e+00	4.827588e-01	4.550483e+14	9.561377e+14	2.737765e+14	1.535978e+04	4.927218e+03	2.961146e+03	0	1.069661e-03
8.100000e+08	2.372091e+13	0.000000e+00	4.827588e-01	4.482909e+14	9.452563e+14	2.724949e+14	1.532223e+04	4.921784e+03	2.957880e+03	0	1.062184e-03
8.200000e+08	2.322953e+13	0.000000e+00	4.827588e-01	4.417052e+14	9.346130e+14	2.712221e+14	1.528524e+04	4.916417e+03	2.954655e+03	0	1.054798e-03
8.300000e+08	2.275080e+13	0.000000e+00	4.827588e-01	4.352850e+14	9.242005e+14	2.699582e+14	1.524879e+04	4.911116e+03	2.951469e+03	0	1.047502e-03
8.400000e+08	2.228427e+13	0.000000e+00	4.827588e-01	4.290246e+14	9.140115e+14	2.687029e+14	1.521286e+04	4.905879e+03	2.948322e+03	0	1.040292e-03
8.500000e+08	2.182951e+13	0.000000e+00	4.827588e-01	4.229184e+14	9.040391e+14	2.674564e+14	1.517745e+04	4.900706e+03	2.945213e+03	0	1.033167e-03
8.600000e+08	2.138612e+13	0.000000e+00	4.827588e-01	4.169612e+14	8.942767e+14	2.662184e+14	1.514254e+04	4.895594e+03	2.942141e+03	0	1.026124e-03
8.700000e+08	2.095370e+13	0.000000e+00	4.827588e-01	4.111477e+14	8.847178e+14	2.649890e+14	1.510812e+04	4.890543e+03	2.939105e+03	0	1.019161e-03
8.800000e+08	2.053189e+13	0.000000e+00	4.827588e-01	4.054733e+14	8.753564e+14	2.637680e+14	1.507417e+04	4.885552e+03	2.936105e+03	0	1.012276e-03
8.900000e+08	2.012031e+13	0.000000e+00	4.827588e-01	3.999332e+14	8.661865e+14	2.625554e+14	1.504070e+04	4.880619e+03	2.933141e+03	0	1.005466e-03
9.000000e+08	1.971864e+13	0.000000e+00	4.827588e-01	3.945230e+14	8.572024e+14	2.613511e+14	1.500768e+04	4.875743e+03	2.930210e+03	0	9.987304e-04
9.100000e+08	1.932654e+13	0.000000e+00	4.827588e-01	3.892384e+14	8.483987e+14	2.601551e+14	1.497510e+04	4.870923e+03	2.927314e+03	0	9.920662e-04
9.200000e+08	1.894370e+13	0.000000e+00	4.827588e-01	3.840754e+14	8.397701e+14	2.589672e+14	1.494296e+04	4.866158e+03	2.924450e+03	0	9.854718e-04
9.300000e+08	1.856982e+13	0.000000e+00	4.827588e-01	3.790301e+14	8.313115e+14	2.577875e+14	1.491124e+04	4.861447e+03	2.921619e+03	0	9.789454e-04
9.400000e+08	1.820460e+13	0.000000e+00	4.827588e-01	3.740986e+14	8.230181e+14	2.566159e+14	1.487993e+04	4.856789e+03	2.918819e+03	0	9.724851e-04
9.500000e+08	1.784778e+13	0.000000e+00	4.827588e-01	3.692774e+14	8.148851e+14	2.554522e+14	1.484904e+04	4.852182e+03	2.916051e+03	0	9.660893e-04
9.600000e+08	1.749908e+13	0.000000e+00	4.827588e-01	3.645631e+14	8.069080e+14	2.542965e+14	1.481854e+04	4.847627e+03	2.913314e+03	0	9.597563e-04
9.700000e+08	1.715825e+13	0.000000e+00	4.827588e-01	3.599523e+14	7.990825e+14	2.531487e+14	1.478842e+04	4.843122e+03	2.910606e+03	0	9.534844e-04
9.800000e+08	1.682505e+13	0.000000e+00	4.827588e-01	3.554418e+14	7.914042e+14	2.520086e+14	1.475869e+04	4.838665e+03	2.907928e+03	0	9.472721e-04
9.900000e+08	1.649924e+13	0.000000e+00	4.827588e-01	3.510286e+14	7.838692e+14	2.508763e+14	1.472932e+04	4.834257e+03	2.905278e+03	0	9.411177e-04
1.000000e+09	1.618060e+13	0.000000e+00	4.827588e-01	3.467097e+14	7.764735e+14	2.497517e+14	1.470032e+04	4.829896e+03	2.902657e+03	0	9.350198e-04
1.010000e+09	1.586891e+13	0.000000e+00	4.827588e-01	3.424823e+14	7.692134e+14	2.486348e+14	1.467168e+04	4.825581e+03	2.900064e+03	0	9.289769e-04
1.020000e+09	1.556395e+13	0.000000e+00	4.827588e-01	3.383438e+14	7.620851e+14	2.475254e+14	1.464338e+04	4.821311e+03	2.897498e+03	0	9.229876e-04
1.030000e+09	1.526553e+13	0.000000e+00	4.827588e-01	3.342914e+14	7.550853e+14	2.464235e+14	1.461542e+04	4.817086e+03	2.894959e+03	0	9.170505e-04
1.040000e+09	1.497346e+13	0.000000e+00	4.827588e-01	3.303226e+14	7.482103e+14	2.453290e+14	1.458780e+04	4.812905e+03	2.892447e+03	0	9.111642e-04
1.050000e+09	1.468755e+13	0.000000e+00	4.827588e-01	3.264351e+14	7.414571e+14	2.442420e+14	1.456050e+04	4.808767e+03	2.889960e+03	0	9.053275e-04
1.060000e+09	1.440762e+13	0.000000e+00	4.827588e-01	3.226265e+14	7.348223e+14	2.431622e+14	1.453353e+04	4.804671e+03	2.887498e+03	0	8.995390e-04
1.070000e+09	1.413349e+13	0.000000e+00	4.827588e-01	3.188945e+14	7.283030e+14	2.420898e+14	1.450686e+04	4.800617e+03	2.885062e+03	0	8.937974e-04
1.080000e+09	1.386501e+13	0.000000e+00	4.827588e-01	3.152370e+14	7.218961e+14	2.410246e+14	1.448051e+04	4.796603e+03	2.882649e+03	0	8.881016e-04
1.090000e+09	1.360201e+13	0.000000e+00	4.827588e-01	3.116519e+14	7.155988e+14	2.399665e+14	1.445445e+04	4.792630e+03	2.880261e+03	0	8.824504e-04
1.100000e+09	1.334434e+13	0.000000e+00	4.827588e-01	3.081372e+14	7.094083e+14	2.389155e+14	1.442869e+04	4.788695e+03	2.877897e+03	0	8.768425e-04
1.110000e+09	1.309184e+13	0.000000e+00	4.827588e-01	3.046909e+14	7.033220e+14	2.378716e+14	1.440322e+04	4.784799e+03	2.875556e+03	0	8.712768e-04
1.120000e+09	1.284438e+13	0.000000e+00	4.827588e-01	3.013112e+14	6.973372e+14	2.368347e+14	1.437804e+04	4.780942e+03	2.873237e+03	0	8.657523e-04
1.130000e+09	1.260182e+13	0.000000e+00	4.827588e-01	2.979962e+14	6.914514e+14	2.358047e+14	1.435313e+04	4.777121e+03	2.870941e+03	0	8.602678e-04
1.140000e+09	1.236402e+13	0.000000e+00	4.827588e-01	2.947443e+14	6.856622e+14	2.347816e+14	1.432849e+04	4.773337e+03	2.868667e+03	0	8.548223e-04
1.150000e+09	1.213085e+13	0.000000e+00	4.827588e-01	2.915536e+14	6.799672e+14	2.337653e+14	1.430413e+04	4.769589e+03	2.866414e+03	0	8.494146e-04
1.160000e+09	1.190220e+13	0.000000e+00	4.827588e-01	2.884227e+14	6.743642e+14	2.327558e+14	1.428002e+04	4.765876e+03	2.864183e+03	0	8.440438e-04
1.170000e+09	1.167793e+13	0.000000e+00	4.827588e-01	2.853499e+14	6.688510e+14	2.317530e+14	1.425617e+04	4.762199e+03	2.861973e+03	0	8.387089e-04
1.180000e+09	1.145794e+13	0.000000e+00	4.827588e-01	2.823338e+14	6.634253e+14	2.307569e+14	1.423258e+04	4.758555e+03	2.859783e+03	0	8.334088e-04
1.190000e+09	1.124211e+13	0.000000e+00	4.827588e-01	2.793727e+14	6.580852e+14	2.297674e+14	1.420924e+04	4.754945e+03	2.857614e+03	0	8.281426e-04
1.200000e+09	1.103033e+13	0.000000e+00	4.827588e-01	2.764654e+14	6.528287e+14	2.287845e+14	1.418613e+04	4.751368e+03	2.855464e+03	0	8.229094e-04
1.210000e+09	1.082249e+13	0.000000e+00	4.827588e-01	2.736104e+14	6.476537e+14	2.278082e+14	1.416327e+04	4.747824e+03	2.853334e+03	0	8.177082e-04
1.220000e+09	1.061851e+13	0.000000e+00	4.827588e-01	2.708065e+14	6.425584e+14	2.268382e+14	1.414065e+04	4.744311e+03	2.851223e+03	0	8.125381e-04
1.230000e+09	1.041827e+13	0.000000e+00	4.827588e-01	2.680523e+14	6.375410e+14	2.258747e+14	1.411825e+04	4.740830e+03	2.849131e+03	0	8.073982e-04
1.240000e+09	1.022168e+13	0.000000e+00	4.827588e-01	2.653466e+14	6.325997e+14	2.249176e+14	1.409608e+04	4.737380e+03	2.847058e+03	0	8.022875e-04
1.250000e+09	1.002866e+13	0.000000e+00	4.827588e-01	2.626882e+14	6.277327e+14	2.239668e+14	1.407414e+04	4.733961e+03	2.845003e+03	0	7.972053e-04
1.260000e+09	9.839105e+12	0.000000e+00	4.827588e-01	2.600759e+14	6.229385e+14	2.230222e+14	1.405241e+04	4.730571e+03	2.842966e+03	0	7.921507e-04
1.270000e+09	9.652939e+12	0.000000e+00	4.827588e-01	2.575086e+14	6.182153e+14	2.220839e+14	1.403090e+04	4.727211e+03	2.840946e+03	0	7.871227e-04
1.280000e+09	9.470075e+12	0.000000e+00	4.827588e-01	2.549853e+14	6.135616e+14	2.211518e+14	1.400960e+04	4.723880e+03	2.838944e+03	0	7.821206e-04
1.290000e+09	9.290434e+12	0.000000e+00	4.827588e-01	2.525048e+14	6.089759e+14	2.202257e+14	1.398851e+04	4.720577e+03	2.836959e+03	0	7.771436e-04
1.300000e+09	9.113936e+12	0.000000e+00	4.827588e-01	2.500661e+14	6.044567e+14	2.193058e+14	1.396762e+04	4.717303e+03	2.834992e+03	0	7.721907e-04
1.310000e+09	8.940506e+12	0.000000e+00	4.827588e-01	2.476682e+14	6.000025e+14	2.183919e+14	1.394694e+04	4.714056e+03	2.833040e+03	0	7.672613e-04
1.320000e+09	8.770071e+12	0.000000e+00	4.827588e-01	2.453102e+14	5.956120e+14	2.174839e+14	1.392645e+04	4.710836e+03	2.831105e+03	0	7.623545e-04
1.330000e+09	8.602558e+12	0.000000e+00	4.827588e-01	2.429911e+14	5.912837e+14	2.165819e+14	1.390615e+04	4.707643e+03	2.829186e+03	0	7.574694e-04
1.340000e+09	8.437900e+12	0.000000e+00	4.827588e-01	2.407101e+14	5.870164e+14	2.156858e+14	1.388605e+04	4.704477e+03	2.827284e+03	0	7.526055e-04
1.350000e+09	8.276028e+12	0.000000e+00	4.827588e-01	2.384662e+14	5.828088e+14	2.147956e+14	1.386614e+04	4.701336e+03	2.825396e+03	0	7.477617e-04
1.360000e+09	8.116879e+12	0.000000e+00	4.827588e-01	2.362585e+14	5.786596e+14	2.139111e+14	1.384641e+04	4.698222e+03	2.823524e+03	0	7.429375e-04
