#t		Qconv[W]	Ri[Rp]		R*[Rp]		Qc[W]		Qm[W]		Qr[W]		Tcmb[K]		Tl[K]		Tup[K]		RiFlag		Bs[T]
0.000000e+00	4.582831e+14	0.000000e+00	4.827587e-01	5.944000e+15	2.011562e+15	4.269878e+14	2.598232e+04	5.030506e+03	3.004733e+03	0	2.847513e-03
1.000000e+07	4.264510e+14	0.000000e+00	4.827587e-01	5.545122e+15	2.254837e+15	4.246220e+14	2.552672e+04	5.129556e+03	3.063896e+03	0	2.779996e-03
2.000000e+07	3.976773e+14	0.000000e+00	4.827587e-01	5.184423e+15	2.468797e+15	4.222739e+14	2.510092e+04	5.213752e+03	3.114187e+03	0	2.716010e-03
3.000000e+07	3.715889e+14	0.000000e+00	4.827587e-01	4.857254e+15	2.650994e+15	4.199433e+14	2.470215e+04	5.284725e+03	3.156579e+03	0	2.655270e-03
4.000000e+07	3.478714e+14	0.000000e+00	4.827587e-01	4.559697e+15	2.801102e+15	4.176301e+14	2.432797e+04	5.344026e+03	3.191999e+03	0	2.597530e-03
5.000000e+07	3.262569e+14	0.000000e+00	4.827587e-01	4.288413e+15	2.920348e+15	4.153342e+14	2.397620e+04	5.393103e+03	3.221313e+03	0	2.542578e-03
6.000000e+07	3.065149e+14	0.000000e+00	4.827587e-01	4.040527e+15	3.010987e+15	4.130553e+14	2.364491e+04	5.433282e+03	3.245313e+03	0	2.490223e-03
7.000000e+07	2.884456e+14	0.000000e+00	4.827587e-01	3.813548e+15	3.075861e+15	4.107935e+14	2.333238e+04	5.465761e+03	3.264712e+03	0	2.440295e-03
8.000000e+07	2.718745e+14	0.000000e+00	4.827587e-01	3.605296e+15	3.118068e+15	4.085485e+14	2.303705e+04	5.491606e+03	3.280150e+03	0	2.392639e-03
9.000000e+07	2.566482e+14	0.000000e+00	4.827587e-01	3.413862e+15	3.140717e+15	4.063201e+14	2.275755e+04	5.511758e+03	3.292186e+03	0	2.347112e-03
1.000000e+08	2.426319e+14	0.000000e+00	4.827587e-01	3.237562e+15	3.146777e+15	4.041084e+14	2.249261e+04	5.527041e+03	3.301315e+03	0	2.303582e-03
1.100000e+08	2.297064e+14	0.000000e+00	4.827587e-01	3.074906e+15	3.138980e+15	4.019130e+14	2.224111e+04	5.538169e+03	3.307962e+03	0	2.261928e-03
1.200000e+08	2.177658e+14	0.000000e+00	4.827587e-01	2.924576e+15	3.119778e+15	3.997339e+14	2.200202e+04	5.545763e+03	3.312498e+03	0	2.222036e-03
1.300000e+08	2.067164e+14	0.000000e+00	4.827587e-01	2.785399e+15	3.091327e+15	3.975709e+14	2.177443e+04	5.550356e+03	3.315241e+03	0	2.183799e-03
1.400000e+08	1.964746e+14	0.000000e+00	4.827587e-01	2.656333e+15	3.055490e+15	3.954239e+14	2.155750e+04	5.552406e+03	3.316466e+03	0	2.147121e-03
1.500000e+08	1.869658e+14	0.000000e+00	4.827587e-01	2.536446e+15	3.013862e+15	3.932929e+14	2.135045e+04	5.552306e+03	3.316406e+03	0	2.111909e-03
1.600000e+08	1.781236e+14	0.000000e+00	4.827587e-01	2.424908e+15	2.967791e+15	3.911775e+14	2.115261e+04	5.550391e+03	3.315262e+03	0	2.078077e-03
1.700000e+08	1.698885e+14	0.000000e+00	4.827587e-01	2.320976e+15	2.918406e+15	3.890778e+14	2.096334e+04	5.546948e+03	3.313206e+03	0	2.045545e-03
1.800000e+08	1.622072e+14	0.000000e+00	4.827587e-01	2.223984e+15	2.866647e+15	3.869935e+14	2.078206e+04	5.542224e+03	3.310384e+03	0	2.014240e-03
1.900000e+08	1.550319e+14	0.000000e+00	4.827587e-01	2.133335e+15	2.813289e+15	3.849246e+14	2.060825e+04	5.536426e+03	3.306921e+03	0	1.984090e-03
2.000000e+08	1.483197e+14	0.000000e+00	4.827587e-01	2.048493e+15	2.758968e+15	3.828709e+14	2.044143e+04	5.529734e+03	3.302923e+03	0	1.955033e-03
2.100000e+08	1.420319e+14	0.000000e+00	4.827587e-01	1.968974e+15	2.704200e+15	3.808323e+14	2.028116e+04	5.522300e+03	3.298483e+03	0	1.927006e-03
2.200000e+08	1.361338e+14	0.000000e+00	4.827587e-01	1.894344e+15	2.649403e+15	3.788087e+14	2.012702e+04	5.514254e+03	3.293678e+03	0	1.899954e-03
2.300000e+08	1.305939e+14	0.000000e+00	4.827587e-01	1.824208e+15	2.594912e+15	3.768000e+14	1.997865e+04	5.505708e+03	3.288573e+03	0	1.873824e-03
2.400000e+08	1.253838e+14	0.000000e+00	4.827587e-01	1.758214e+15	2.540992e+15	3.748060e+14	1.983571e+04	5.496756e+03	3.283226e+03	0	1.848566e-03
2.500000e+08	1.204779e+14	0.000000e+00	4.827587e-01	1.696038e+15	2.487849e+15	3.728265e+14	1.969788e+04	5.487479e+03	3.277685e+03	0	1.824134e-03
2.600000e+08	1.158528e+14	0.000000e+00	4.827587e-01	1.637389e+15	2.435644e+15	3.708616e+14	1.956486e+04	5.477947e+03	3.271991e+03	0	1.800487e-03
2.700000e+08	1.114874e+14	0.000000e+00	4.827587e-01	1.582003e+15	2.384499e+15	3.689110e+14	1.943639e+04	5.468217e+03	3.266179e+03	0	1.777582e-03
2.800000e+08	1.073624e+14	0.000000e+00	4.827587e-01	1.529639e+15	2.334501e+15	3.669747e+14	1.931222e+04	5.458341e+03	3.260280e+03	0	1.755383e-03
2.900000e+08	1.034605e+14	0.000000e+00	4.827587e-01	1.480079e+15	2.285715e+15	3.650525e+14	1.919211e+04	5.448362e+03	3.254320e+03	0	1.733854e-03
3.000000e+08	9.976552e+13	0.000000e+00	4.827587e-01	1.433122e+15	2.238181e+15	3.631443e+14	1.907585e+04	5.438316e+03	3.248319e+03	0	1.712963e-03
3.100000e+08	9.626302e+13	0.000000e+00	4.827587e-01	1.388585e+15	2.191924e+15	3.612500e+14	1.896323e+04	5.428234e+03	3.242297e+03	0	1.692678e-03
3.200000e+08	9.293965e+13	0.000000e+00	4.827587e-01	1.346302e+15	2.146955e+15	3.593695e+14	1.885409e+04	5.418142e+03	3.236269e+03	0	1.672970e-03
3.300000e+08	8.978321e+13	0.000000e+00	4.827587e-01	1.306121e+15	2.103272e+15	3.575027e+14	1.874823e+04	5.408064e+03	3.230250e+03	0	1.653812e-03
3.400000e+08	8.678253e+13	0.000000e+00	4.827587e-01	1.267900e+15	2.060866e+15	3.556494e+14	1.864550e+04	5.398018e+03	3.224249e+03	0	1.635179e-03
3.500000e+08	8.392732e+13	0.000000e+00	4.827587e-01	1.231512e+15	2.019721e+15	3.538096e+14	1.854575e+04	5.388021e+03	3.218278e+03	0	1.617045e-03
3.600000e+08	8.120817e+13	0.000000e+00	4.827587e-01	1.196838e+15	1.979815e+15	3.519831e+14	1.844883e+04	5.378086e+03	3.212344e+03	0	1.599390e-03
3.700000e+08	7.861639e+13	0.000000e+00	4.827587e-01	1.163769e+15	1.941121e+15	3.501699e+14	1.835461e+04	5.368224e+03	3.206453e+03	0	1.582191e-03
3.800000e+08	7.614398e+13	0.000000e+00	4.827587e-01	1.132204e+15	1.903612e+15	3.483697e+14	1.826298e+04	5.358444e+03	3.200612e+03	0	1.565427e-03
3.900000e+08	7.378356e+13	0.000000e+00	4.827587e-01	1.102052e+15	1.867255e+15	3.465826e+14	1.817380e+04	5.348756e+03	3.194825e+03	0	1.549082e-03
4.000000e+08	7.152830e+13	0.000000e+00	4.827587e-01	1.073227e+15	1.832018e+15	3.448084e+14	1.808699e+04	5.339164e+03	3.189096e+03	0	1.533135e-03
4.100000e+08	6.937190e+13	0.000000e+00	4.827587e-01	1.045649e+15	1.797866e+15	3.430470e+14	1.800242e+04	5.329675e+03	3.183427e+03	0	1.517571e-03
4.200000e+08	6.730852e+13	0.000000e+00	4.827587e-01	1.019245e+15	1.764767e+15	3.412983e+14	1.792000e+04	5.320292e+03	3.177823e+03	0	1.502373e-03
4.300000e+08	6.533276e+13	0.000000e+00	4.827587e-01	9.939474e+14	1.732685e+15	3.395621e+14	1.783965e+04	5.311019e+03	3.172284e+03	0	1.487527e-03
4.400000e+08	6.343958e+13	0.000000e+00	4.827587e-01	9.696929e+14	1.701586e+15	3.378385e+14	1.776128e+04	5.301858e+03	3.166812e+03	0	1.473017e-03
4.500000e+08	6.162433e+13	0.000000e+00	4.827587e-01	9.464230e+14	1.671436e+15	3.361272e+14	1.768481e+04	5.292811e+03	3.161409e+03	0	1.458832e-03
4.600000e+08	5.988266e+13	0.000000e+00	4.827587e-01	9.240831e+14	1.642202e+15	3.344282e+14	1.761015e+04	5.283879e+03	3.156074e+03	0	1.444957e-03
4.700000e+08	5.821054e+13	0.000000e+00	4.827587e-01	9.026225e+14	1.613851e+15	3.327415e+14	1.753724e+04	5.275064e+03	3.150809e+03	0	1.431380e-03
4.800000e+08	5.660421e+13	0.000000e+00	4.827587e-01	8.819938e+14	1.586351e+15	3.310668e+14	1.746602e+04	5.266365e+03	3.145613e+03	0	1.418091e-03
4.900000e+08	5.506015e+13	0.000000e+00	4.827587e-01	8.621531e+14	1.559671e+15	3.294041e+14	1.739640e+04	5.257783e+03	3.140487e+03	0	1.405077e-03
5.000000e+08	5.357510e+13	0.000000e+00	4.827587e-01	8.430590e+14	1.533782e+15	3.277532e+14	1.732835e+04	5.249317e+03	3.135430e+03	0	1.392330e-03
5.100000e+08	5.214598e+13	0.000000e+00	4.827587e-01	8.246732e+14	1.508653e+15	3.261142e+14	1.726178e+04	5.240967e+03	3.130442e+03	0	1.379838e-03
5.200000e+08	5.076995e+13	0.000000e+00	4.827587e-01	8.069595e+14	1.484258e+15	3.244869e+14	1.719666e+04	5.232731e+03	3.125523e+03	0	1.367592e-03
5.300000e+08	4.944431e+13	0.000000e+00	4.827587e-01	7.898842e+14	1.460568e+15	3.228712e+14	1.713293e+04	5.224609e+03	3.120672e+03	0	1.355584e-03
5.400000e+08	4.816656e+13	0.000000e+00	4.827587e-01	7.734158e+14	1.437557e+15	3.212669e+14	1.707054e+04	5.216600e+03	3.115888e+03	0	1.343805e-03
5.500000e+08	4.693434e+13	0.000000e+00	4.827587e-01	7.575245e+14	1.415201e+15	3.196741e+14	1.700944e+04	5.208703e+03	3.111171e+03	0	1.332247e-03
5.600000e+08	4.574544e+13	0.000000e+00	4.827587e-01	7.421826e+14	1.393474e+15	3.180927e+14	1.694958e+04	5.200915e+03	3.106519e+03	0	1.320901e-03
5.700000e+08	4.459779e+13	0.000000e+00	4.827587e-01	7.273640e+14	1.372355e+15	3.165224e+14	1.689093e+04	5.193236e+03	3.101932e+03	0	1.309761e-03
5.800000e+08	4.348944e+13	0.000000e+00	4.827587e-01	7.130440e+14	1.351819e+15	3.149633e+14	1.683345e+04	5.185664e+03	3.097409e+03	0	1.298820e-03
5.900000e+08	4.241855e+13	0.000000e+00	4.827587e-01	6.991995e+14	1.331847e+15	3.134153e+14	1.677708e+04	5.178197e+03	3.092950e+03	0	1.288071e-03
6.000000e+08	4.138339e+13	0.000000e+00	4.827587e-01	6.858087e+14	1.312417e+15	3.118782e+14	1.672181e+04	5.170834e+03	3.088552e+03	0	1.277506e-03
6.100000e+08	4.038234e+13	0.000000e+00	4.827587e-01	6.728512e+14	1.293509e+15	3.103519e+14	1.666758e+04	5.163573e+03	3.084214e+03	0	1.267121e-03
6.200000e+08	3.941386e+13	0.000000e+00	4.827587e-01	6.603075e+14	1.275105e+15	3.088365e+14	1.661438e+04	5.156412e+03	3.079937e+03	0	1.256910e-03
6.300000e+08	3.847651e+13	0.000000e+00	4.827587e-01	6.481594e+14	1.257186e+15	3.073318e+14	1.656216e+04	5.149350e+03	3.075719e+03	0	1.246866e-03
6.400000e+08	3.756890e+13	0.000000e+00	4.827587e-01	6.363897e+14	1.239736e+15	3.058376e+14	1.651089e+04	5.142384e+03	3.071559e+03	0	1.236984e-03
6.500000e+08	3.668977e+13	0.000000e+00	4.827587e-01	6.249820e+14	1.222736e+15	3.043540e+14	1.646055e+04	5.135514e+03	3.067455e+03	0	1.227259e-03
6.600000e+08	3.583788e+13	0.000000e+00	4.827587e-01	6.139209e+14	1.206172e+15	3.028809e+14	1.641111e+04	5.128737e+03	3.063407e+03	0	1.217686e-03
6.700000e+08	3.501207e+13	0.000000e+00	4.827587e-01	6.031919e+14	1.190028e+15	3.014181e+14	1.636253e+04	5.122052e+03	3.059414e+03	0	1.208260e-03
6.800000e+08	3.421126e+13	0.000000e+00	4.827587e-01	5.927812e+14	1.174289e+15	2.999655e+14	1.631480e+04	5.115456e+03	3.055474e+03	0	1.198977e-03
6.900000e+08	3.343441e+13	0.000000e+00	4.827587e-01	5.826755e+14	1.158941e+15	2.985232e+14	1.626789e+04	5.108949e+03	3.051587e+03	0	1.189832e-03
7.000000e+08	3.268053e+13	0.000000e+00	4.827587e-01	5.728627e+14	1.143971e+15	2.970910e+14	1.622178e+04	5.102528e+03	3.047752e+03	0	1.180821e-03
7.100000e+08	3.194870e+13	0.000000e+00	4.827587e-01	5.633308e+14	1.129366e+15	2.956688e+14	1.617643e+04	5.096192e+03	3.043968e+03	0	1.171940e-03
7.200000e+08	3.123803e+13	0.000000e+00	4.827587e-01	5.540687e+14	1.115112e+15	2.942565e+14	1.613184e+04	5.089939e+03	3.040233e+03	0	1.163186e-03
7.300000e+08	3.054769e+13	0.000000e+00	4.827587e-01	5.450658e+14	1.101200e+15	2.928541e+14	1.608798e+04	5.083768e+03	3.036547e+03	0	1.154553e-03
7.400000e+08	2.987687e+13	0.000000e+00	4.827587e-01	5.363121e+14	1.087616e+15	2.914615e+14	1.604482e+04	5.077677e+03	3.032909e+03	0	1.146039e-03
7.500000e+08	2.922482e+13	0.000000e+00	4.827587e-01	5.277979e+14	1.074350e+15	2.900786e+14	1.600235e+04	5.071664e+03	3.029317e+03	0	1.137640e-03
7.600000e+08	2.859082e+13	0.000000e+00	4.827587e-01	5.195141e+14	1.061392e+15	2.887054e+14	1.596056e+04	5.065728e+03	3.025772e+03	0	1.129354e-03
7.700000e+08	2.797418e+13	0.000000e+00	4.827587e-01	5.114521e+14	1.048731e+15	2.873417e+14	1.591942e+04	5.059868e+03	3.022271e+03	0	1.121175e-03
7.800000e+08	2.737425e+13	0.000000e+00	4.827587e-01	5.036036e+14	1.036358e+15	2.859874e+14	1.587891e+04	5.054081e+03	3.018815e+03	0	1.113103e-03
7.900000e+08	2.679041e+13	0.000000e+00	4.827587e-01	4.959607e+14	1.024263e+15	2.846426e+14	1.583902e+04	5.048367e+03	3.015402e+03	0	1.105132e-03
8.000000e+08	2.622207e+13	0.000000e+00	4.827587e-01	4.885159e+14	1.012438e+15	2.833071e+14	1.579973e+04	5.042723e+03	3.012031e+03	0	1.097261e-03
8.100000e+08	2.566865e+13	0.000000e+00	4.827587e-01	4.812621e+14	1.000874e+15	2.819809e+14	1.576103e+04	5.037150e+03	3.008702e+03	0	1.089487e-03
8.200000e+08	2.512963e+13	0.000000e+00	4.827587e-01	4.741925e+14	9.895631e+14	2.806638e+14	1.572290e+04	5.031644e+03	3.005413e+03	0	1.081807e-03
8.300000e+08	2.460449e+13	0.000000e+00	4.827587e-01	4.673004e+14	9.784968e+14	2.793559e+14	1.568533e+04	5.026206e+03	3.002165e+03	0	1.074218e-03
8.400000e+08	2.409273e+13	0.000000e+00	4.827587e-01	4.605797e+14	9.676677e+14	2.780569e+14	1.564830e+04	5.020833e+03	2.998955e+03	0	1.066718e-03
8.500000e+08	2.359389e+13	0.000000e+00	4.827587e-01	4.540245e+14	9.570686e+14	2.767670e+14	1.561180e+04	5.015524e+03	2.995785e+03	0	1.059305e-03
8.600000e+08	2.310752e+13	0.000000e+00	4.827587e-01	4.476291e+14	9.466924e+14	2.754859e+14	1.557582e+04	5.010278e+03	2.992651e+03	0	1.051975e-03
8.700000e+08	2.263319e+13	0.000000e+00	4.827587e-01	4.413880e+14	9.365325e+14	2.742137e+14	1.554035e+04	5.005095e+03	2.989555e+03	0	1.044727e-03
8.800000e+08	2.217049e+13	0.000000e+00	4.827587e-01	4.352960e+14	9.265822e+14	2.729502e+14	1.550536e+04	4.999971e+03	2.986495e+03	0	1.037559e-03
8.900000e+08	2.171904e+13	0.000000e+00	4.827587e-01	4.293481e+14	9.168354e+14	2.716954e+14	1.547086e+04	4.994908e+03	2.983470e+03	0	1.030468e-03
9.000000e+08	2.127844e+13	0.000000e+00	4.827587e-01	4.235396e+14	9.072861e+14	2.704492e+14	1.543682e+04	4.989902e+03	2.980481e+03	0	1.023453e-03
9.100000e+08	2.084835e+13	0.000000e+00	4.827587e-01	4.178660e+14	8.979284e+14	2.692115e+14	1.540325e+04	4.984954e+03	2.977525e+03	0	1.016510e-03
9.200000e+08	2.042842e+13	0.000000e+00	4.827587e-01	4.123228e+14	8.887567e+14	2.679823e+14	1.537012e+04	4.980062e+03	2.974603e+03	0	1.009639e-03
9.300000e+08	2.001832e+13	0.000000e+00	4.827587e-01	4.069058e+14	8.797658e+14	2.667615e+14	1.533743e+04	4.975225e+03	2.971714e+03	0	1.002837e-03
9.400000e+08	1.961773e+13	0.000000e+00	4.827587e-01	4.016111e+14	8.709504e+14	2.655491e+14	1.530516e+04	4.970442e+03	2.968857e+03	0	9.961024e-04
9.500000e+08	1.922635e+13	0.000000e+00	4.827587e-01	3.964347e+14	8.623056e+14	2.643449e+14	1.527332e+04	4.965711e+03	2.966031e+03	0	9.894337e-04
9.600000e+08	1.884389e+13	0.000000e+00	4.827587e-01	3.913730e+14	8.538265e+14	2.631490e+14	1.524188e+04	4.961033e+03	2.963237e+03	0	9.828289e-04
9.700000e+08	1.847006e+13	0.000000e+00	4.827587e-01	3.864223e+14	8.455085e+14	2.619612e+14	1.521084e+04	4.956406e+03	2.960473e+03	0	9.762864e-04
9.800000e+08	1.810461e+13	0.000000e+00	4.827587e-01	3.815794e+14	8.373471e+14	2.607815e+14	1.518020e+04	4.951829e+03	2.957739e+03	0	9.698044e-04
9.900000e+08	1.774727e+13	0.000000e+00	4.827587e-01	3.768409e+14	8.293380e+14	2.596098e+14	1.514993e+04	4.947301e+03	2.955035e+03	0	9.633814e-04
1.000000e+09	1.739779e+13	0.000000e+00	4.827587e-01	3.722036e+14	8.214772e+14	2.584460e+14	1.512004e+04	4.942821e+03	2.952359e+03	0	9.570158e-04
1.010000e+09	1.705593e+13	0.000000e+00	4.827587e-01	3.676645e+14	8.137604e+14	2.572902e+14	1.509052e+04	4.938389e+03	2.949711e+03	0	9.507060e-04
1.020000e+09	1.672148e+13	0.000000e+00	4.827587e-01	3.632208e+14	8.061840e+14	2.561421e+14	1.506135e+04	4.934003e+03	2.947092e+03	0	9.444507e-04
1.030000e+09	1.639420e+13	0.000000e+00	4.827587e-01	3.588695e+14	7.987440e+14	2.550019e+14	1.503254e+04	4.929662e+03	2.944499e+03	0	9.382483e-04
1.040000e+09	1.607388e+13	0.000000e+00	4.827587e-01	3.546081e+14	7.914370e+14	2.538693e+14	1.500407e+04	4.925367e+03	2.941933e+03	0	9.320974e-04
1.050000e+09	1.576032e+13	0.000000e+00	4.827587e-01	3.504338e+14	7.842594e+14	2.527444e+14	1.497594e+04	4.921115e+03	2.939394e+03	0	9.259967e-04
1.060000e+09	1.545333e+13	0.000000e+00	4.827587e-01	3.463442e+14	7.772079e+14	2.516271e+14	1.494813e+04	4.916907e+03	2.936880e+03	0	9.199448e-04
1.070000e+09	1.515271e+13	0.000000e+00	4.827587e-01	3.423369e+14	7.702792e+14	2.505173e+14	1.492065e+04	4.912741e+03	2.934392e+03	0	9.139403e-04
1.080000e+09	1.485828e+13	0.000000e+00	4.827587e-01	3.384096e+14	7.634701e+14	2.494150e+14	1.489349e+04	4.908616e+03	2.931928e+03	0	9.079821e-04
1.090000e+09	1.456987e+13	0.000000e+00	4.827587e-01	3.345600e+14	7.567777e+14	2.483201e+14	1.486664e+04	4.904533e+03	2.929489e+03	0	9.020688e-04
1.100000e+09	1.428731e+13	0.000000e+00	4.827587e-01	3.307859e+14	7.501988e+14	2.472326e+14	1.484009e+04	4.900490e+03	2.927075e+03	0	8.961992e-04
1.110000e+09	1.401043e+13	0.000000e+00	4.827587e-01	3.270853e+14	7.437308e+14	2.461523e+14	1.481384e+04	4.896486e+03	2.924683e+03	0	8.903721e-04
1.120000e+09	1.373907e+13	0.000000e+00	4.827587e-01	3.234562e+14	7.373709e+14	2.450793e+14	1.478788e+04	4.892522e+03	2.922315e+03	0	8.845863e-04
1.130000e+09	1.347309e+13	0.000000e+00	4.827587e-01	3.198965e+14	7.311163e+14	2.440134e+14	1.476221e+04	4.888595e+03	2.919970e+03	0	8.788408e-04
1.140000e+09	1.321234e+13	0.000000e+00	4.827587e-01	3.164046e+14	7.249645e+14	2.429547e+14	1.473682e+04	4.884706e+03	2.917647e+03	0	8.731342e-04
1.150000e+09	1.295668e+13	0.000000e+00	4.827587e-01	3.129785e+14	7.189129e+14	2.419030e+14	1.471170e+04	4.880854e+03	2.915346e+03	0	8.674657e-04
1.160000e+09	1.270596e+13	0.000000e+00	4.827587e-01	3.096164e+14	7.129593e+14	2.408584e+14	1.468686e+04	4.877038e+03	2.913067e+03	0	8.618340e-04
1.170000e+09	1.246006e+13	0.000000e+00	4.827587e-01	3.063168e+14	7.071012e+14	2.398207e+14	1.466228e+04	4.873258e+03	2.910809e+03	0	8.562380e-04
1.180000e+09	1.221886e+13	0.000000e+00	4.827587e-01	3.030780e+14	7.013363e+14	2.387900e+14	1.463797e+04	4.869513e+03	2.908572e+03	0	8.506768e-04
1.190000e+09	1.198222e+13	0.000000e+00	4.827587e-01	2.998984e+14	6.956625e+14	2.377660e+14	1.461391e+04	4.865802e+03	2.906355e+03	0	8.451494e-04
1.200000e+09	1.175002e+13	0.000000e+00	4.827587e-01	2.967764e+14	6.900776e+14	2.367489e+14	1.459010e+04	4.862125e+03	2.904159e+03	0	8.396546e-04
1.210000e+09	1.152216e+13	0.000000e+00	4.827587e-01	2.937107e+14	6.845795e+14	2.357385e+14	1.456654e+04	4.858482e+03	2.901983e+03	0	8.341915e-04
1.220000e+09	1.129853e+13	0.000000e+00	4.827587e-01	2.906998e+14	6.791662e+14	2.347348e+14	1.454322e+04	4.854871e+03	2.899826e+03	0	8.287591e-04
1.230000e+09	1.107900e+13	0.000000e+00	4.827587e-01	2.877422e+14	6.738359e+14	2.337378e+14	1.452014e+04	4.851293e+03	2.897689e+03	0	8.233565e-04
1.240000e+09	1.086348e+13	0.000000e+00	4.827587e-01	2.848368e+14	6.685865e+14	2.327474e+14	1.449729e+04	4.847746e+03	2.895570e+03	0	8.179827e-04
1.250000e+09	1.065188e+13	0.000000e+00	4.827587e-01	2.819821e+14	6.634163e+14	2.317634e+14	1.447468e+04	4.844231e+03	2.893471e+03	0	8.126368e-04
1.260000e+09	1.044408e+13	0.000000e+00	4.827587e-01	2.791769e+14	6.583235e+14	2.307860e+14	1.445229e+04	4.840746e+03	2.891389e+03	0	8.073178e-04
1.270000e+09	1.024000e+13	0.000000e+00	4.827587e-01	2.764201e+14	6.533063e+14	2.298150e+14	1.443012e+04	4.837291e+03	2.889326e+03	0	8.020248e-04
1.280000e+09	1.003955e+13	0.000000e+00	4.827587e-01	2.737104e+14	6.483631e+14	2.288504e+14	1.440817e+04	4.833867e+03	2.887280e+03	0	7.967569e-04
1.290000e+09	9.842630e+12	0.000000e+00	4.827587e-01	2.710467e+14	6.434923e+14	2.278922e+14	1.438643e+04	4.830471e+03	2.885252e+03	0	7.915132e-04
1.300000e+09	9.649163e+12	0.000000e+00	4.827587e-01	2.684279e+14	6.386923e+14	2.269402e+14	1.436491e+04	4.827104e+03	2.883241e+03	0	7.862928e-04
1.310000e+09	9.459062e+12	0.000000e+00	4.827587e-01	2.658530e+14	6.339615e+14	2.259944e+14	1.434359e+04	4.823766e+03	2.881247e+03	0	7.810948e-04
1.320000e+09	9.272248e+12	0.000000e+00	4.827587e-01	2.633209e+14	6.292984e+14	2.250549e+14	1.432247e+04	4.820456e+03	2.879270e+03	0	7.759185e-04
1.330000e+09	9.088642e+12	0.000000e+00	4.827587e-01	2.608306e+14	6.247016e+14	2.241215e+14	1.430156e+04	4.817173e+03	2.877309e+03	0	7.707628e-04
1.340000e+09	8.908169e+12	0.000000e+00	4.827587e-01	2.583811e+14	6.201698e+14	2.231942e+14	1.428084e+04	4.813918e+03	2.875365e+03	0	7.656270e-04
1.350000e+09	8.730754e+12	0.000000e+00	4.827587e-01	2.559715e+14	6.157015e+14	2.222730e+14	1.426032e+04	4.810689e+03	2.873436e+03	0	7.605101e-04
1.360000e+09	8.556327e+12	0.000000e+00	4.827587e-01	2.536009e+14	6.112953e+14	2.213577e+14	1.423999e+04	4.807486e+03	2.871523e+03	0	7.554114e-04
