#t		Qconv[W]	Ri[Rp]		R*[Rp]		Qc[W]		Qm[W]		Qr[W]		Tcmb[K]		Tl[K]		Tup[K]		RiFlag		Bs[T]
0.000000e+00	7.434774e+14	0.000000e+00	4.827585e-01	8.615100e+15	1.955207e+15	5.044980e+14	2.999661e+04	5.350846e+03	3.084802e+03	0	3.326953e-03
1.000000e+07	6.920580e+14	0.000000e+00	4.827585e-01	8.041909e+15	2.308245e+15	5.017027e+14	2.945359e+04	5.491755e+03	3.166037e+03	0	3.248415e-03
2.000000e+07	6.455053e+14	0.000000e+00	4.827585e-01	7.522730e+15	2.640542e+15	4.989283e+14	2.894577e+04	5.614000e+03	3.236512e+03	0	3.173881e-03
3.000000e+07	6.032186e+14	0.000000e+00	4.827585e-01	7.050913e+15	2.942825e+15	4.961747e+14	2.846993e+04	5.719203e+03	3.297162e+03	0	3.103004e-03
4.000000e+07	5.646981e+14	0.000000e+00	4.827585e-01	6.620921e+15	3.209204e+15	4.934416e+14	2.802323e+04	5.809004e+03	3.348933e+03	0	3.035495e-03
5.000000e+07	5.295222e+14	0.000000e+00	4.827585e-01	6.228085e+15	3.436800e+15	4.907289e+14	2.760316e+04	5.885019e+03	3.392756e+03	0	2.971110e-03
6.000000e+07	4.973309e+14	0.000000e+00	4.827585e-01	5.868413e+15	3.625182e+15	4.880364e+14	2.720747e+04	5.948802e+03	3.429528e+03	0	2.909640e-03
7.000000e+07	4.678133e+14	0.000000e+00	4.827585e-01	5.538460e+15	3.775736e+15	4.853640e+14	2.683415e+04	6.001816e+03	3.460091e+03	0	2.850897e-03
8.000000e+07	4.406985e+14	0.000000e+00	4.827585e-01	5.235219e+15	3.891069e+15	4.827114e+14	2.648139e+04	6.045411e+03	3.485224e+03	0	2.794717e-03
9.000000e+07	4.157483e+14	0.000000e+00	4.827585e-01	4.956051e+15	3.974516e+15	4.800786e+14	2.614758e+04	6.080813e+03	3.505633e+03	0	2.740948e-03
1.000000e+08	3.927524e+14	0.000000e+00	4.827585e-01	4.698622e+15	4.029744e+15	4.774653e+14	2.583122e+04	6.109124e+03	3.521955e+03	0	2.689451e-03
1.100000e+08	3.715244e+14	0.000000e+00	4.827585e-01	4.460862e+15	4.060474e+15	4.748714e+14	2.553101e+04	6.131321e+03	3.534751e+03	0	2.640097e-03
1.200000e+08	3.518979e+14	0.000000e+00	4.827585e-01	4.240925e+15	4.070285e+15	4.722967e+14	2.524571e+04	6.148265e+03	3.544520e+03	0	2.592764e-03
1.300000e+08	3.337246e+14	0.000000e+00	4.827585e-01	4.037165e+15	4.062503e+15	4.697411e+14	2.497424e+04	6.160710e+03	3.551695e+03	0	2.547339e-03
1.400000e+08	3.168718e+14	0.000000e+00	4.827585e-01	3.848109e+15	4.040132e+15	4.672044e+14	2.471560e+04	6.169309e+03	3.556652e+03	0	2.503717e-03
1.500000e+08	3.012205e+14	0.000000e+00	4.827585e-01	3.672435e+15	4.005833e+15	4.646865e+14	2.446888e+04	6.174630e+03	3.559719e+03	0	2.461797e-03
1.600000e+08	2.866640e+14	0.000000e+00	4.827585e-01	3.508957e+15	3.961928e+15	4.621871e+14	2.423324e+04	6.177161e+03	3.561179e+03	0	2.421485e-03
1.700000e+08	2.731063e+14	0.000000e+00	4.827585e-01	3.356611e+15	3.910415e+15	4.597062e+14	2.400794e+04	6.177324e+03	3.561272e+03	0	2.382692e-03
1.800000e+08	2.604612e+14	0.000000e+00	4.827585e-01	3.214438e+15	3.852994e+15	4.572436e+14	2.379227e+04	6.175480e+03	3.560209e+03	0	2.345336e-03
1.900000e+08	2.486510e+14	0.000000e+00	4.827585e-01	3.081574e+15	3.791101e+15	4.547992e+14	2.358561e+04	6.171940e+03	3.558168e+03	0	2.309338e-03
2.000000e+08	2.376057e+14	0.000000e+00	4.827585e-01	2.957242e+15	3.725939e+15	4.523727e+14	2.338737e+04	6.166970e+03	3.555303e+03	0	2.274624e-03
2.100000e+08	2.272620e+14	0.000000e+00	4.827585e-01	2.840739e+15	3.658506e+15	4.499640e+14	2.319702e+04	6.160799e+03	3.551746e+03	0	2.241126e-03
2.200000e+08	2.175629e+14	0.000000e+00	4.827585e-01	2.731429e+15	3.589627e+15	4.475731e+14	2.301406e+04	6.153621e+03	3.547608e+03	0	2.208779e-03
2.300000e+08	2.084567e+14	0.000000e+00	4.827585e-01	2.628739e+15	3.519979e+15	4.451997e+14	2.283806e+04	6.145605e+03	3.542986e+03	0	2.177523e-03
2.400000e+08	1.998966e+14	0.000000e+00	4.827585e-01	2.532148e+15	3.450112e+15	4.428437e+14	2.266859e+04	6.136893e+03	3.537964e+03	0	2.147299e-03
2.500000e+08	1.918402e+14	0.000000e+00	4.827585e-01	2.441184e+15	3.380469e+15	4.405049e+14	2.250528e+04	6.127608e+03	3.532611e+03	0	2.118055e-03
2.600000e+08	1.842490e+14	0.000000e+00	4.827585e-01	2.355419e+15	3.311408e+15	4.381833e+14	2.234775e+04	6.117856e+03	3.526989e+03	0	2.089741e-03
2.700000e+08	1.770880e+14	0.000000e+00	4.827585e-01	2.274463e+15	3.243209e+15	4.358786e+14	2.219570e+04	6.107726e+03	3.521149e+03	0	2.062309e-03
2.800000e+08	1.703253e+14	0.000000e+00	4.827585e-01	2.197962e+15	3.176093e+15	4.335908e+14	2.204882e+04	6.097296e+03	3.515136e+03	0	2.035716e-03
2.900000e+08	1.639319e+14	0.000000e+00	4.827585e-01	2.125592e+15	3.110230e+15	4.313197e+14	2.190681e+04	6.086631e+03	3.508988e+03	0	2.009919e-03
3.000000e+08	1.578814e+14	0.000000e+00	4.827585e-01	2.057058e+15	3.045745e+15	4.290651e+14	2.176944e+04	6.075789e+03	3.502737e+03	0	1.984880e-03
3.100000e+08	1.521494e+14	0.000000e+00	4.827585e-01	1.992090e+15	2.982732e+15	4.268270e+14	2.163644e+04	6.064817e+03	3.496411e+03	0	1.960563e-03
3.200000e+08	1.467139e+14	0.000000e+00	4.827585e-01	1.930443e+15	2.921255e+15	4.246051e+14	2.150760e+04	6.053756e+03	3.490035e+03	0	1.936932e-03
3.300000e+08	1.415546e+14	0.000000e+00	4.827585e-01	1.871890e+15	2.861355e+15	4.223994e+14	2.138271e+04	6.042643e+03	3.483628e+03	0	1.913956e-03
3.400000e+08	1.366529e+14	0.000000e+00	4.827585e-01	1.816224e+15	2.803055e+15	4.202097e+14	2.126156e+04	6.031507e+03	3.477208e+03	0	1.891604e-03
3.500000e+08	1.319917e+14	0.000000e+00	4.827585e-01	1.763254e+15	2.746361e+15	4.180359e+14	2.114399e+04	6.020374e+03	3.470790e+03	0	1.869848e-03
3.600000e+08	1.275554e+14	0.000000e+00	4.827585e-01	1.712806e+15	2.691269e+15	4.158779e+14	2.102981e+04	6.009266e+03	3.464386e+03	0	1.848660e-03
3.700000e+08	1.233295e+14	0.000000e+00	4.827585e-01	1.664718e+15	2.637763e+15	4.137355e+14	2.091886e+04	5.998202e+03	3.458007e+03	0	1.828015e-03
3.800000e+08	1.193007e+14	0.000000e+00	4.827585e-01	1.618842e+15	2.585822e+15	4.116086e+14	2.081100e+04	5.987196e+03	3.451663e+03	0	1.807889e-03
3.900000e+08	1.154568e+14	0.000000e+00	4.827585e-01	1.575041e+15	2.535418e+15	4.094970e+14	2.070609e+04	5.976264e+03	3.445360e+03	0	1.788259e-03
4.000000e+08	1.117863e+14	0.000000e+00	4.827585e-01	1.533189e+15	2.486516e+15	4.074007e+14	2.060399e+04	5.965414e+03	3.439105e+03	0	1.769105e-03
4.100000e+08	1.082788e+14	0.000000e+00	4.827585e-01	1.493168e+15	2.439082e+15	4.053196e+14	2.050457e+04	5.954657e+03	3.432904e+03	0	1.750405e-03
4.200000e+08	1.049246e+14	0.000000e+00	4.827585e-01	1.454870e+15	2.393077e+15	4.032534e+14	2.040773e+04	5.944001e+03	3.426760e+03	0	1.732141e-03
4.300000e+08	1.017147e+14	0.000000e+00	4.827585e-01	1.418194e+15	2.348460e+15	4.012021e+14	2.031336e+04	5.933452e+03	3.420678e+03	0	1.714294e-03
4.400000e+08	9.864077e+13	0.000000e+00	4.827585e-01	1.383048e+15	2.305191e+15	3.991656e+14	2.022134e+04	5.923014e+03	3.414661e+03	0	1.696848e-03
4.500000e+08	9.569506e+13	0.000000e+00	4.827585e-01	1.349344e+15	2.263226e+15	3.971437e+14	2.013158e+04	5.912692e+03	3.408710e+03	0	1.679786e-03
4.600000e+08	9.287037e+13	0.000000e+00	4.827585e-01	1.317003e+15	2.222525e+15	3.951363e+14	2.004399e+04	5.902490e+03	3.402829e+03	0	1.663093e-03
4.700000e+08	9.016001e+13	0.000000e+00	4.827585e-01	1.285949e+15	2.183046e+15	3.931433e+14	1.995849e+04	5.892409e+03	3.397017e+03	0	1.646754e-03
4.800000e+08	8.755772e+13	0.000000e+00	4.827585e-01	1.256112e+15	2.144747e+15	3.911646e+14	1.987498e+04	5.882451e+03	3.391276e+03	0	1.630756e-03
4.900000e+08	8.505770e+13	0.000000e+00	4.827585e-01	1.227428e+15	2.107587e+15	3.892001e+14	1.979340e+04	5.872618e+03	3.385607e+03	0	1.615085e-03
5.000000e+08	8.265450e+13	0.000000e+00	4.827585e-01	1.199835e+15	2.071528e+15	3.872496e+14	1.971367e+04	5.862910e+03	3.380011e+03	0	1.599728e-03
5.100000e+08	8.034307e+13	0.000000e+00	4.827585e-01	1.173278e+15	2.036529e+15	3.853130e+14	1.963571e+04	5.853328e+03	3.374487e+03	0	1.584675e-03
5.200000e+08	7.811867e+13	0.000000e+00	4.827585e-01	1.147702e+15	2.002554e+15	3.833903e+14	1.955947e+04	5.843871e+03	3.369035e+03	0	1.569913e-03
5.300000e+08	7.597685e+13	0.000000e+00	4.827585e-01	1.123058e+15	1.969565e+15	3.814813e+14	1.948488e+04	5.834540e+03	3.363655e+03	0	1.555432e-03
5.400000e+08	7.391346e+13	0.000000e+00	4.827585e-01	1.099300e+15	1.937527e+15	3.795859e+14	1.941188e+04	5.825333e+03	3.358347e+03	0	1.541222e-03
5.500000e+08	7.192461e+13	0.000000e+00	4.827585e-01	1.076383e+15	1.906406e+15	3.777039e+14	1.934041e+04	5.816249e+03	3.353110e+03	0	1.527273e-03
5.600000e+08	7.000665e+13	0.000000e+00	4.827585e-01	1.054268e+15	1.876168e+15	3.758354e+14	1.927042e+04	5.807288e+03	3.347944e+03	0	1.513575e-03
5.700000e+08	6.815615e+13	0.000000e+00	4.827585e-01	1.032916e+15	1.846781e+15	3.739801e+14	1.920186e+04	5.798449e+03	3.342848e+03	0	1.500119e-03
5.800000e+08	6.636988e+13	0.000000e+00	4.827585e-01	1.012289e+15	1.818215e+15	3.721379e+14	1.913468e+04	5.789729e+03	3.337821e+03	0	1.486898e-03
5.900000e+08	6.464483e+13	0.000000e+00	4.827585e-01	9.923555e+14	1.790439e+15	3.703089e+14	1.906883e+04	5.781127e+03	3.332862e+03	0	1.473902e-03
6.000000e+08	6.297812e+13	0.000000e+00	4.827585e-01	9.730822e+14	1.763426e+15	3.684928e+14	1.900427e+04	5.772643e+03	3.327971e+03	0	1.461125e-03
6.100000e+08	6.136709e+13	0.000000e+00	4.827585e-01	9.544391e+14	1.737147e+15	3.666895e+14	1.894095e+04	5.764274e+03	3.323146e+03	0	1.448558e-03
6.200000e+08	5.980920e+13	0.000000e+00	4.827585e-01	9.363980e+14	1.711576e+15	3.648989e+14	1.887884e+04	5.756018e+03	3.318387e+03	0	1.436195e-03
6.300000e+08	5.830207e+13	0.000000e+00	4.827585e-01	9.189319e+14	1.686687e+15	3.631211e+14	1.881790e+04	5.747875e+03	3.313692e+03	0	1.424029e-03
6.400000e+08	5.684344e+13	0.000000e+00	4.827585e-01	9.020157e+14	1.662458e+15	3.613557e+14	1.875808e+04	5.739841e+03	3.309060e+03	0	1.412052e-03
6.500000e+08	5.543119e+13	0.000000e+00	4.827585e-01	8.856254e+14	1.638863e+15	3.596028e+14	1.869936e+04	5.731915e+03	3.304491e+03	0	1.400260e-03
6.600000e+08	5.406331e+13	0.000000e+00	4.827585e-01	8.697385e+14	1.615880e+15	3.578622e+14	1.864171e+04	5.724096e+03	3.299983e+03	0	1.388646e-03
6.700000e+08	5.273789e+13	0.000000e+00	4.827585e-01	8.543335e+14	1.593489e+15	3.561339e+14	1.858507e+04	5.716382e+03	3.295536e+03	0	1.377204e-03
6.800000e+08	5.145315e+13	0.000000e+00	4.827585e-01	8.393903e+14	1.571668e+15	3.544176e+14	1.852944e+04	5.708770e+03	3.291148e+03	0	1.365929e-03
6.900000e+08	5.020737e+13	0.000000e+00	4.827585e-01	8.248897e+14	1.550398e+15	3.527135e+14	1.847477e+04	5.701259e+03	3.286818e+03	0	1.354815e-03
7.000000e+08	4.899895e+13	0.000000e+00	4.827585e-01	8.108135e+14	1.529659e+15	3.510213e+14	1.842105e+04	5.693847e+03	3.282545e+03	0	1.343857e-03
7.100000e+08	4.782635e+13	0.000000e+00	4.827585e-01	7.971446e+14	1.509433e+15	3.493409e+14	1.836823e+04	5.686533e+03	3.278328e+03	0	1.333050e-03
7.200000e+08	4.668813e+13	0.000000e+00	4.827585e-01	7.838666e+14	1.489703e+15	3.476723e+14	1.831630e+04	5.679314e+03	3.274166e+03	0	1.322390e-03
7.300000e+08	4.558292e+13	0.000000e+00	4.827585e-01	7.709640e+14	1.470452e+15	3.460153e+14	1.826523e+04	5.672188e+03	3.270058e+03	0	1.311872e-03
7.400000e+08	4.450939e+13	0.000000e+00	4.827585e-01	7.584221e+14	1.451664e+15	3.443699e+14	1.821499e+04	5.665155e+03	3.266003e+03	0	1.301491e-03
7.500000e+08	4.346631e+13	0.000000e+00	4.827585e-01	7.462270e+14	1.433323e+15	3.427360e+14	1.816557e+04	5.658212e+03	3.262000e+03	0	1.291244e-03
7.600000e+08	4.245251e+13	0.000000e+00	4.827585e-01	7.343652e+14	1.415415e+15	3.411134e+14	1.811694e+04	5.651357e+03	3.258049e+03	0	1.281126e-03
7.700000e+08	4.146685e+13	0.000000e+00	4.827585e-01	7.228242e+14	1.397924e+15	3.395022e+14	1.806908e+04	5.644589e+03	3.254147e+03	0	1.271133e-03
7.800000e+08	4.050827e+13	0.000000e+00	4.827585e-01	7.115919e+14	1.380839e+15	3.379021e+14	1.802196e+04	5.637906e+03	3.250294e+03	0	1.261262e-03
7.900000e+08	3.957576e+13	0.000000e+00	4.827585e-01	7.006568e+14	1.364145e+15	3.363132e+14	1.797558e+04	5.631307e+03	3.246490e+03	0	1.251508e-03
8.000000e+08	3.866833e+13	0.000000e+00	4.827585e-01	6.900079e+14	1.347830e+15	3.347353e+14	1.792990e+04	5.624789e+03	3.242732e+03	0	1.241869e-03
8.100000e+08	3.778508e+13	0.000000e+00	4.827585e-01	6.796350e+14	1.331881e+15	3.331683e+14	1.788491e+04	5.618352e+03	3.239021e+03	0	1.232341e-03
8.200000e+08	3.692511e+13	0.000000e+00	4.827585e-01	6.695279e+14	1.316288e+15	3.316121e+14	1.784060e+04	5.611994e+03	3.235356e+03	0	1.222920e-03
8.300000e+08	3.608760e+13	0.000000e+00	4.827585e-01	6.596773e+14	1.301039e+15	3.300667e+14	1.779694e+04	5.605713e+03	3.231734e+03	0	1.213603e-03
8.400000e+08	3.527172e+13	0.000000e+00	4.827585e-01	6.500740e+14	1.286123e+15	3.285320e+14	1.775392e+04	5.599507e+03	3.228157e+03	0	1.204388e-03
8.500000e+08	3.447673e+13	0.000000e+00	4.827585e-01	6.407094e+14	1.271529e+15	3.270079e+14	1.771153e+04	5.593377e+03	3.224623e+03	0	1.195270e-03
8.600000e+08	3.370189e+13	0.000000e+00	4.827585e-01	6.315753e+14	1.257249e+15	3.254943e+14	1.766974e+04	5.587319e+03	3.221130e+03	0	1.186248e-03
8.700000e+08	3.294649e+13	0.000000e+00	4.827585e-01	6.226637e+14	1.243271e+15	3.239911e+14	1.762854e+04	5.581332e+03	3.217679e+03	0	1.177318e-03
8.800000e+08	3.220988e+13	0.000000e+00	4.827585e-01	6.139671e+14	1.229588e+15	3.224982e+14	1.758793e+04	5.575416e+03	3.214268e+03	0	1.168478e-03
8.900000e+08	3.149141e+13	0.000000e+00	4.827585e-01	6.054782e+14	1.216191e+15	3.210156e+14	1.754787e+04	5.569568e+03	3.210897e+03	0	1.159724e-03
9.000000e+08	3.079046e+13	0.000000e+00	4.827585e-01	5.971902e+14	1.203070e+15	3.195432e+14	1.750837e+04	5.563788e+03	3.207565e+03	0	1.151055e-03
9.100000e+08	3.010647e+13	0.000000e+00	4.827585e-01	5.890963e+14	1.190217e+15	3.180809e+14	1.746941e+04	5.558074e+03	3.204271e+03	0	1.142468e-03
9.200000e+08	2.943885e+13	0.000000e+00	4.827585e-01	5.811903e+14	1.177626e+15	3.166286e+14	1.743097e+04	5.552425e+03	3.201014e+03	0	1.133960e-03
9.300000e+08	2.878708e+13	0.000000e+00	4.827585e-01	5.734660e+14	1.165287e+15	3.151862e+14	1.739305e+04	5.546840e+03	3.197794e+03	0	1.125529e-03
9.400000e+08	2.815063e+13	0.000000e+00	4.827585e-01	5.659176e+14	1.153194e+15	3.137537e+14	1.735563e+04	5.541318e+03	3.194610e+03	0	1.117172e-03
9.500000e+08	2.752903e+13	0.000000e+00	4.827585e-01	5.585395e+14	1.141340e+15	3.123309e+14	1.731870e+04	5.535857e+03	3.191462e+03	0	1.108888e-03
9.600000e+08	2.692178e+13	0.000000e+00	4.827585e-01	5.513263e+14	1.129718e+15	3.109179e+14	1.728225e+04	5.530456e+03	3.188348e+03	0	1.100674e-03
9.700000e+08	2.632844e+13	0.000000e+00	4.827585e-01	5.442730e+14	1.118322e+15	3.095145e+14	1.724626e+04	5.525114e+03	3.185269e+03	0	1.092528e-03
9.800000e+08	2.574857e+13	0.000000e+00	4.827585e-01	5.373744e+14	1.107144e+15	3.081206e+14	1.721074e+04	5.519831e+03	3.182223e+03	0	1.084447e-03
9.900000e+08	2.518175e+13	0.000000e+00	4.827585e-01	5.306260e+14	1.096179e+15	3.067362e+14	1.717566e+04	5.514604e+03	3.179210e+03	0	1.076431e-03
1.000000e+09	2.462758e+13	0.000000e+00	4.827585e-01	5.240230e+14	1.085422e+15	3.053612e+14	1.714102e+04	5.509433e+03	3.176229e+03	0	1.068476e-03
1.010000e+09	2.408568e+13	0.000000e+00	4.827585e-01	5.175612e+14	1.074866e+15	3.039955e+14	1.710681e+04	5.504317e+03	3.173279e+03	0	1.060581e-03
1.020000e+09	2.355566e+13	0.000000e+00	4.827585e-01	5.112362e+14	1.064505e+15	3.026391e+14	1.707302e+04	5.499255e+03	3.170361e+03	0	1.052743e-03
1.030000e+09	2.303717e+13	0.000000e+00	4.827585e-01	5.050441e+14	1.054336e+15	3.012918e+14	1.703965e+04	5.494246e+03	3.167473e+03	0	1.044962e-03
1.040000e+09	2.252988e+13	0.000000e+00	4.827585e-01	4.989809e+14	1.044352e+15	2.999537e+14	1.700667e+04	5.489290e+03	3.164616e+03	0	1.037235e-03
1.050000e+09	2.203344e+13	0.000000e+00	4.827585e-01	4.930429e+14	1.034548e+15	2.986246e+14	1.697409e+04	5.484384e+03	3.161787e+03	0	1.029560e-03
1.060000e+09	2.154753e+13	0.000000e+00	4.827585e-01	4.872264e+14	1.024921e+15	2.973045e+14	1.694190e+04	5.479528e+03	3.158988e+03	0	1.021935e-03
1.070000e+09	2.107186e+13	0.000000e+00	4.827585e-01	4.815279e+14	1.015465e+15	2.959932e+14	1.691008e+04	5.474721e+03	3.156217e+03	0	1.014359e-03
1.080000e+09	2.060613e+13	0.000000e+00	4.827585e-01	4.759442e+14	1.006175e+15	2.946908e+14	1.687863e+04	5.469963e+03	3.153474e+03	0	1.006830e-03
1.090000e+09	2.015005e+13	0.000000e+00	4.827585e-01	4.704719e+14	9.970484e+14	2.933971e+14	1.684755e+04	5.465253e+03	3.150758e+03	0	9.993465e-04
1.100000e+09	1.970335e+13	0.000000e+00	4.827585e-01	4.651079e+14	9.880799e+14	2.921122e+14	1.681683e+04	5.460589e+03	3.148070e+03	0	9.919065e-04
1.110000e+09	1.926576e+13	0.000000e+00	4.827585e-01	4.598493e+14	9.792657e+14	2.908358e+14	1.678645e+04	5.455971e+03	3.145407e+03	0	9.845084e-04
1.120000e+09	1.883703e+13	0.000000e+00	4.827585e-01	4.546931e+14	9.706019e+14	2.895680e+14	1.675641e+04	5.451399e+03	3.142771e+03	0	9.771506e-04
1.130000e+09	1.841691e+13	0.000000e+00	4.827585e-01	4.496365e+14	9.620849e+14	2.883087e+14	1.672671e+04	5.446870e+03	3.140161e+03	0	9.698315e-04
1.140000e+09	1.800517e+13	0.000000e+00	4.827585e-01	4.446768e+14	9.537109e+14	2.870577e+14	1.669734e+04	5.442386e+03	3.137575e+03	0	9.625496e-04
1.150000e+09	1.760157e+13	0.000000e+00	4.827585e-01	4.398115e+14	9.454764e+14	2.858152e+14	1.666829e+04	5.437944e+03	3.135014e+03	0	9.553031e-04
1.160000e+09	1.720590e+13	0.000000e+00	4.827585e-01	4.350380e+14	9.373781e+14	2.845809e+14	1.663956e+04	5.433544e+03	3.132478e+03	0	9.480907e-04
1.170000e+09	1.681794e+13	0.000000e+00	4.827585e-01	4.303538e+14	9.294125e+14	2.833549e+14	1.661114e+04	5.429186e+03	3.129965e+03	0	9.409106e-04
1.180000e+09	1.643749e+13	0.000000e+00	4.827585e-01	4.257566e+14	9.215766e+14	2.821370e+14	1.658303e+04	5.424868e+03	3.127476e+03	0	9.337614e-04
1.190000e+09	1.606435e+13	0.000000e+00	4.827585e-01	4.212441e+14	9.138672e+14	2.809272e+14	1.655521e+04	5.420591e+03	3.125010e+03	0	9.266415e-04
1.200000e+09	1.569832e+13	0.000000e+00	4.827585e-01	4.168142e+14	9.062812e+14	2.797254e+14	1.652769e+04	5.416352e+03	3.122567e+03	0	9.195495e-04
1.210000e+09	1.533922e+13	0.000000e+00	4.827585e-01	4.124648e+14	8.988159e+14	2.785317e+14	1.650045e+04	5.412153e+03	3.120146e+03	0	9.124838e-04
1.220000e+09	1.498687e+13	0.000000e+00	4.827585e-01	4.081937e+14	8.914683e+14	2.773458e+14	1.647350e+04	5.407992e+03	3.117747e+03	0	9.054428e-04
1.230000e+09	1.464110e+13	0.000000e+00	4.827585e-01	4.039989e+14	8.842357e+14	2.761677e+14	1.644683e+04	5.403868e+03	3.115370e+03	0	8.984252e-04
1.240000e+09	1.430173e+13	0.000000e+00	4.827585e-01	3.998787e+14	8.771155e+14	2.749975e+14	1.642043e+04	5.399781e+03	3.113014e+03	0	8.914293e-04
1.250000e+09	1.396861e+13	0.000000e+00	4.827585e-01	3.958310e+14	8.701051e+14	2.738350e+14	1.639430e+04	5.395731e+03	3.110678e+03	0	8.844536e-04
1.260000e+09	1.364157e+13	0.000000e+00	4.827585e-01	3.918542e+14	8.632020e+14	2.726801e+14	1.636843e+04	5.391716e+03	3.108364e+03	0	8.774967e-04
1.270000e+09	1.332047e+13	0.000000e+00	4.827585e-01	3.879464e+14	8.564037e+14	2.715329e+14	1.634282e+04	5.387736e+03	3.106070e+03	0	8.705570e-04
1.280000e+09	1.300516e+13	0.000000e+00	4.827585e-01	3.841060e+14	8.497080e+14	2.703931e+14	1.631746e+04	5.383791e+03	3.103795e+03	0	8.636330e-04
1.290000e+09	1.269549e+13	0.000000e+00	4.827585e-01	3.803313e+14	8.431125e+14	2.692609e+14	1.629236e+04	5.379880e+03	3.101541e+03	0	8.567232e-04
1.300000e+09	1.239133e+13	0.000000e+00	4.827585e-01	3.766207e+14	8.366150e+14	2.681362e+14	1.626750e+04	5.376003e+03	3.099305e+03	0	8.498259e-04
1.310000e+09	1.209253e+13	0.000000e+00	4.827585e-01	3.729728e+14	8.302133e+14	2.670187e+14	1.624288e+04	5.372159e+03	3.097089e+03	0	8.429397e-04
1.320000e+09	1.179899e+13	0.000000e+00	4.827585e-01	3.693860e+14	8.239055e+14	2.659086e+14	1.621850e+04	5.368347e+03	3.094891e+03	0	8.360629e-04
1.330000e+09	1.151055e+13	0.000000e+00	4.827585e-01	3.658589e+14	8.176893e+14	2.648058e+14	1.619436e+04	5.364567e+03	3.092712e+03	0	8.291939e-04
1.340000e+09	1.122711e+13	0.000000e+00	4.827585e-01	3.623901e+14	8.115629e+14	2.637102e+14	1.617044e+04	5.360818e+03	3.090551e+03	0	8.223312e-04
1.350000e+09	1.094855e+13	0.000000e+00	4.827585e-01	3.589782e+14	8.055243e+14	2.626217e+14	1.614675e+04	5.357101e+03	3.088408e+03	0	8.154731e-04
1.360000e+09	1.067475e+13	0.000000e+00	4.827585e-01	3.556220e+14	7.995717e+14	2.615403e+14	1.612329e+04	5.353414e+03	3.086283e+03	0	8.086178e-04
