#t		Qconv[W]	Ri[Rp]		R*[Rp]		Qc[W]		Qm[W]		Qr[W]		Tcmb[K]		Tl[K]		Tup[K]		RiFlag		Bs[T]
0.000000e+00	2.027075e+13	0.000000e+00	8.991597e-01	2.894463e+14	6.159587e+13	3.764093e+13	8.717213e+03	3.195876e+03	2.401727e+03	0	7.181614e-04
1.000000e+07	2.037782e+13	0.000000e+00	8.991597e-01	2.904657e+14	6.965539e+13	3.743237e+13	8.706458e+03	3.256114e+03	2.446996e+03	0	7.194236e-04
2.000000e+07	2.046473e+13	0.000000e+00	8.991597e-01	2.912746e+14	7.822383e+13	3.722537e+13	8.695666e+03	3.314622e+03	2.490965e+03	0	7.204449e-04
3.000000e+07	2.053191e+13	0.000000e+00	8.991597e-01	2.918776e+14	8.725074e+13	3.701992e+13	8.684844e+03	3.371241e+03	2.533515e+03	0	7.212324e-04
4.000000e+07	2.057997e+13	0.000000e+00	8.991597e-01	2.922812e+14	9.667503e+13	3.681600e+13	8.673999e+03	3.425825e+03	2.574535e+03	0	7.217947e-04
5.000000e+07	2.060970e+13	0.000000e+00	8.991597e-01	2.924937e+14	1.064265e+14	3.661360e+13	8.663140e+03	3.478244e+03	2.613928e+03	0	7.221422e-04
6.000000e+07	2.062202e+13	0.000000e+00	8.991597e-01	2.925246e+14	1.164276e+14	3.641272e+13	8.652273e+03	3.528388e+03	2.651612e+03	0	7.222860e-04
7.000000e+07	2.061797e+13	0.000000e+00	8.991597e-01	2.923849e+14	1.265960e+14	3.621332e+13	8.641404e+03	3.576167e+03	2.687519e+03	0	7.222387e-04
8.000000e+07	2.059868e+13	0.000000e+00	8.991597e-01	2.920864e+14	1.368467e+14	3.601541e+13	8.630541e+03	3.621515e+03	2.721598e+03	0	7.220133e-04
9.000000e+07	2.056532e+13	0.000000e+00	8.991597e-01	2.916414e+14	1.470946e+14	3.581898e+13	8.619689e+03	3.664385e+03	2.753815e+03	0	7.216234e-04
1.000000e+08	2.051913e+13	0.000000e+00	8.991597e-01	2.910628e+14	1.572568e+14	3.562400e+13	8.608854e+03	3.704754e+03	2.784152e+03	0	7.210827e-04
1.100000e+08	2.046132e+13	0.000000e+00	8.991597e-01	2.903633e+14	1.672549e+14	3.543047e+13	8.598040e+03	3.742621e+03	2.812610e+03	0	7.204049e-04
1.200000e+08	2.039309e+13	0.000000e+00	8.991597e-01	2.895555e+14	1.770164e+14	3.523837e+13	8.587252e+03	3.778004e+03	2.839200e+03	0	7.196033e-04
1.300000e+08	2.031562e+13	0.000000e+00	8.991597e-01	2.886517e+14	1.864768e+14	3.504769e+13	8.576494e+03	3.810941e+03	2.863953e+03	0	7.186909e-04
1.400000e+08	2.023002e+13	0.000000e+00	8.991597e-01	2.876633e+14	1.955799e+14	3.485843e+13	8.565769e+03	3.841487e+03	2.886908e+03	0	7.176800e-04
1.500000e+08	2.013732e+13	0.000000e+00	8.991597e-01	2.866014e+14	2.042789e+14	3.467056e+13	8.555081e+03	3.869709e+03	2.908118e+03	0	7.165822e-04
1.600000e+08	2.003851e+13	0.000000e+00	8.991597e-01	2.854761e+14	2.125364e+14	3.448409e+13	8.544433e+03	3.895689e+03	2.927642e+03	0	7.154082e-04
1.700000e+08	1.993446e+13	0.000000e+00	8.991597e-01	2.842967e+14	2.203244e+14	3.429898e+13	8.533826e+03	3.919518e+03	2.945550e+03	0	7.141678e-04
1.800000e+08	1.982599e+13	0.000000e+00	8.991597e-01	2.830715e+14	2.276237e+14	3.411525e+13	8.523263e+03	3.941294e+03	2.961915e+03	0	7.128701e-04
1.900000e+08	1.971383e+13	0.000000e+00	8.991597e-01	2.818083e+14	2.344232e+14	3.393286e+13	8.512746e+03	3.961122e+03	2.976815e+03	0	7.115232e-04
2.000000e+08	1.959861e+13	0.000000e+00	8.991597e-01	2.805136e+14	2.407194e+14	3.375182e+13	8.502276e+03	3.979107e+03	2.990331e+03	0	7.101344e-04
2.100000e+08	1.948092e+13	0.000000e+00	8.991597e-01	2.791936e+14	2.465151e+14	3.357211e+13	8.491853e+03	3.995359e+03	3.002545e+03	0	7.087100e-04
2.200000e+08	1.936124e+13	0.000000e+00	8.991597e-01	2.778533e+14	2.518188e+14	3.339372e+13	8.481480e+03	4.009987e+03	3.013538e+03	0	7.072558e-04
2.300000e+08	1.924003e+13	0.000000e+00	8.991597e-01	2.764975e+14	2.566436e+14	3.321664e+13	8.471156e+03	4.023099e+03	3.023391e+03	0	7.057768e-04
2.400000e+08	1.911766e+13	0.000000e+00	8.991597e-01	2.751301e+14	2.610061e+14	3.304086e+13	8.460883e+03	4.034800e+03	3.032184e+03	0	7.042773e-04
2.500000e+08	1.899445e+13	0.000000e+00	8.991597e-01	2.737543e+14	2.649259e+14	3.286636e+13	8.450660e+03	4.045191e+03	3.039993e+03	0	7.027610e-04
2.600000e+08	1.887069e+13	0.000000e+00	8.991597e-01	2.723733e+14	2.684244e+14	3.269314e+13	8.440488e+03	4.054370e+03	3.046892e+03	0	7.012314e-04
2.700000e+08	1.874661e+13	0.000000e+00	8.991597e-01	2.709895e+14	2.715248e+14	3.252119e+13	8.430368e+03	4.062432e+03	3.052951e+03	0	6.996911e-04
2.800000e+08	1.862242e+13	0.000000e+00	8.991597e-01	2.696049e+14	2.742508e+14	3.235050e+13	8.420299e+03	4.069465e+03	3.058236e+03	0	6.981426e-04
2.900000e+08	1.849829e+13	0.000000e+00	8.991597e-01	2.682214e+14	2.766264e+14	3.218105e+13	8.410281e+03	4.075552e+03	3.062810e+03	0	6.965880e-04
3.000000e+08	1.837437e+13	0.000000e+00	8.991597e-01	2.668406e+14	2.786756e+14	3.201283e+13	8.400315e+03	4.080772e+03	3.066733e+03	0	6.950290e-04
3.100000e+08	1.825078e+13	0.000000e+00	8.991597e-01	2.654636e+14	2.804219e+14	3.184584e+13	8.390400e+03	4.085198e+03	3.070059e+03	0	6.934671e-04
3.200000e+08	1.812761e+13	0.000000e+00	8.991597e-01	2.640916e+14	2.818881e+14	3.168007e+13	8.380536e+03	4.088899e+03	3.072840e+03	0	6.919037e-04
3.300000e+08	1.800497e+13	0.000000e+00	8.991597e-01	2.627254e+14	2.830963e+14	3.151550e+13	8.370723e+03	4.091938e+03	3.075124e+03	0	6.903398e-04
3.400000e+08	1.788291e+13	0.000000e+00	8.991597e-01	2.613658e+14	2.840674e+14	3.135212e+13	8.360960e+03	4.094373e+03	3.076954e+03	0	6.887763e-04
3.500000e+08	1.776150e+13	0.000000e+00	8.991597e-01	2.600135e+14	2.848211e+14	3.118993e+13	8.351248e+03	4.096259e+03	3.078372e+03	0	6.872140e-04
3.600000e+08	1.764079e+13	0.000000e+00	8.991597e-01	2.586688e+14	2.853763e+14	3.102892e+13	8.341586e+03	4.097646e+03	3.079414e+03	0	6.856536e-04
3.700000e+08	1.752081e+13	0.000000e+00	8.991597e-01	2.573322e+14	2.857503e+14	3.086907e+13	8.331974e+03	4.098580e+03	3.080116e+03	0	6.840957e-04
3.800000e+08	1.740160e+13	0.000000e+00	8.991597e-01	2.560041e+14	2.859596e+14	3.071038e+13	8.322412e+03	4.099102e+03	3.080508e+03	0	6.825406e-04
3.900000e+08	1.728318e+13	0.000000e+00	8.991597e-01	2.546847e+14	2.860192e+14	3.055284e+13	8.312899e+03	4.099250e+03	3.080620e+03	0	6.809889e-04
4.000000e+08	1.716558e+13	0.000000e+00	8.991597e-01	2.533742e+14	2.859431e+14	3.039644e+13	8.303435e+03	4.099060e+03	3.080477e+03	0	6.794408e-04
4.100000e+08	1.704882e+13	0.000000e+00	8.991597e-01	2.520729e+14	2.857444e+14	3.024116e+13	8.294019e+03	4.098565e+03	3.080105e+03	0	6.778967e-04
4.200000e+08	1.693289e+13	0.000000e+00	8.991597e-01	2.507807e+14	2.854348e+14	3.008700e+13	8.284652e+03	4.097793e+03	3.079524e+03	0	6.763568e-04
4.300000e+08	1.681782e+13	0.000000e+00	8.991597e-01	2.494979e+14	2.850254e+14	2.993395e+13	8.275333e+03	4.096770e+03	3.078756e+03	0	6.748212e-04
4.400000e+08	1.670362e+13	0.000000e+00	8.991597e-01	2.482246e+14	2.845262e+14	2.978201e+13	8.266061e+03	4.095522e+03	3.077818e+03	0	6.732902e-04
4.500000e+08	1.659027e+13	0.000000e+00	8.991597e-01	2.469606e+14	2.839462e+14	2.963115e+13	8.256836e+03	4.094069e+03	3.076726e+03	0	6.717639e-04
4.600000e+08	1.647780e+13	0.000000e+00	8.991597e-01	2.457062e+14	2.832939e+14	2.948138e+13	8.247659e+03	4.092433e+03	3.075497e+03	0	6.702423e-04
4.700000e+08	1.636620e+13	0.000000e+00	8.991597e-01	2.444612e+14	2.825768e+14	2.933268e+13	8.238528e+03	4.090632e+03	3.074143e+03	0	6.687257e-04
4.800000e+08	1.625546e+13	0.000000e+00	8.991597e-01	2.432257e+14	2.818019e+14	2.918505e+13	8.229443e+03	4.088681e+03	3.072677e+03	0	6.672141e-04
4.900000e+08	1.614560e+13	0.000000e+00	8.991597e-01	2.419996e+14	2.809755e+14	2.903847e+13	8.220404e+03	4.086597e+03	3.071110e+03	0	6.657076e-04
5.000000e+08	1.603660e+13	0.000000e+00	8.991597e-01	2.407830e+14	2.801032e+14	2.889295e+13	8.211410e+03	4.084392e+03	3.069453e+03	0	6.642061e-04
5.100000e+08	1.592846e+13	0.000000e+00	8.991597e-01	2.395758e+14	2.791904e+14	2.874846e+13	8.202462e+03	4.082079e+03	3.067715e+03	0	6.627098e-04
5.200000e+08	1.582118e+13	0.000000e+00	8.991597e-01	2.383779e+14	2.782417e+14	2.860500e+13	8.193558e+03	4.079669e+03	3.065904e+03	0	6.612186e-04
5.300000e+08	1.571475e+13	0.000000e+00	8.991597e-01	2.371893e+14	2.772614e+14	2.846257e+13	8.184699e+03	4.077172e+03	3.064028e+03	0	6.597327e-04
5.400000e+08	1.560918e+13	0.000000e+00	8.991597e-01	2.360100e+14	2.762534e+14	2.832115e+13	8.175884e+03	4.074598e+03	3.062094e+03	0	6.582519e-04
5.500000e+08	1.550445e+13	0.000000e+00	8.991597e-01	2.348398e+14	2.752210e+14	2.818074e+13	8.167113e+03	4.071955e+03	3.060107e+03	0	6.567764e-04
5.600000e+08	1.540055e+13	0.000000e+00	8.991597e-01	2.336788e+14	2.741676e+14	2.804132e+13	8.158385e+03	4.069251e+03	3.058075e+03	0	6.553061e-04
5.700000e+08	1.529749e+13	0.000000e+00	8.991597e-01	2.325268e+14	2.730959e+14	2.790290e+13	8.149700e+03	4.066492e+03	3.056001e+03	0	6.538410e-04
5.800000e+08	1.519525e+13	0.000000e+00	8.991597e-01	2.313838e+14	2.720085e+14	2.776546e+13	8.141058e+03	4.063684e+03	3.053891e+03	0	6.523811e-04
5.900000e+08	1.509383e+13	0.000000e+00	8.991597e-01	2.302497e+14	2.709078e+14	2.762899e+13	8.132459e+03	4.060833e+03	3.051749e+03	0	6.509264e-04
6.000000e+08	1.499322e+13	0.000000e+00	8.991597e-01	2.291245e+14	2.697959e+14	2.749349e+13	8.123901e+03	4.057945e+03	3.049578e+03	0	6.494770e-04
6.100000e+08	1.489342e+13	0.000000e+00	8.991597e-01	2.280080e+14	2.686747e+14	2.735894e+13	8.115385e+03	4.055024e+03	3.047383e+03	0	6.480327e-04
6.200000e+08	1.479441e+13	0.000000e+00	8.991597e-01	2.269002e+14	2.675458e+14	2.722535e+13	8.106911e+03	4.052073e+03	3.045166e+03	0	6.465935e-04
6.300000e+08	1.469620e+13	0.000000e+00	8.991597e-01	2.258010e+14	2.664109e+14	2.709270e+13	8.098478e+03	4.049098e+03	3.042930e+03	0	6.451595e-04
6.400000e+08	1.459877e+13	0.000000e+00	8.991597e-01	2.247104e+14	2.652712e+14	2.696099e+13	8.090085e+03	4.046101e+03	3.040677e+03	0	6.437307e-04
6.500000e+08	1.450212e+13	0.000000e+00	8.991597e-01	2.236282e+14	2.641281e+14	2.683020e+13	8.081733e+03	4.043085e+03	3.038411e+03	0	6.423069e-04
6.600000e+08	1.440623e+13	0.000000e+00	8.991597e-01	2.225544e+14	2.629828e+14	2.670033e+13	8.073421e+03	4.040054e+03	3.036133e+03	0	6.408882e-04
6.700000e+08	1.431111e+13	0.000000e+00	8.991597e-01	2.214889e+14	2.618361e+14	2.657138e+13	8.065149e+03	4.037009e+03	3.033845e+03	0	6.394745e-04
6.800000e+08	1.421675e+13	0.000000e+00	8.991597e-01	2.204316e+14	2.606890e+14	2.644333e+13	8.056917e+03	4.033954e+03	3.031549e+03	0	6.380659e-04
6.900000e+08	1.412313e+13	0.000000e+00	8.991597e-01	2.193825e+14	2.595423e+14	2.631618e+13	8.048724e+03	4.030890e+03	3.029246e+03	0	6.366622e-04
7.000000e+08	1.403025e+13	0.000000e+00	8.991597e-01	2.183414e+14	2.583968e+14	2.618993e+13	8.040569e+03	4.027819e+03	3.026938e+03	0	6.352635e-04
7.100000e+08	1.393811e+13	0.000000e+00	8.991597e-01	2.173084e+14	2.572531e+14	2.606455e+13	8.032454e+03	4.024743e+03	3.024627e+03	0	6.338698e-04
7.200000e+08	1.384669e+13	0.000000e+00	8.991597e-01	2.162832e+14	2.561118e+14	2.594006e+13	8.024376e+03	4.021663e+03	3.022312e+03	0	6.324810e-04
7.300000e+08	1.375599e+13	0.000000e+00	8.991597e-01	2.152659e+14	2.549735e+14	2.581643e+13	8.016337e+03	4.018581e+03	3.019996e+03	0	6.310970e-04
7.400000e+08	1.366601e+13	0.000000e+00	8.991597e-01	2.142563e+14	2.538385e+14	2.569366e+13	8.008335e+03	4.015498e+03	3.017679e+03	0	6.297179e-04
7.500000e+08	1.357673e+13	0.000000e+00	8.991597e-01	2.132545e+14	2.527073e+14	2.557176e+13	8.000371e+03	4.012416e+03	3.015363e+03	0	6.283435e-04
7.600000e+08	1.348815e+13	0.000000e+00	8.991597e-01	2.122602e+14	2.515803e+14	2.545070e+13	7.992445e+03	4.009334e+03	3.013047e+03	0	6.269740e-04
7.700000e+08	1.340026e+13	0.000000e+00	8.991597e-01	2.112735e+14	2.504579e+14	2.533048e+13	7.984555e+03	4.006255e+03	3.010733e+03	0	6.256092e-04
7.800000e+08	1.331305e+13	0.000000e+00	8.991597e-01	2.102942e+14	2.493402e+14	2.521110e+13	7.976701e+03	4.003179e+03	3.008422e+03	0	6.242492e-04
7.900000e+08	1.322652e+13	0.000000e+00	8.991597e-01	2.093223e+14	2.482276e+14	2.509255e+13	7.968884e+03	4.000107e+03	3.006113e+03	0	6.228938e-04
8.000000e+08	1.314066e+13	0.000000e+00	8.991597e-01	2.083578e+14	2.471204e+14	2.497482e+13	7.961103e+03	3.997040e+03	3.003808e+03	0	6.215430e-04
8.100000e+08	1.305547e+13	0.000000e+00	8.991597e-01	2.074004e+14	2.460185e+14	2.485790e+13	7.953358e+03	3.993978e+03	3.001507e+03	0	6.201969e-04
8.200000e+08	1.297093e+13	0.000000e+00	8.991597e-01	2.064503e+14	2.449225e+14	2.474180e+13	7.945649e+03	3.990921e+03	2.999210e+03	0	6.188554e-04
8.300000e+08	1.288705e+13	0.000000e+00	8.991597e-01	2.055072e+14	2.438322e+14	2.462650e+13	7.937974e+03	3.987871e+03	2.996917e+03	0	6.175184e-04
8.400000e+08	1.280380e+13	0.000000e+00	8.991597e-01	2.045712e+14	2.427480e+14	2.451199e+13	7.930335e+03	3.984828e+03	2.994630e+03	0	6.161859e-04
8.500000e+08	1.272120e+13	0.000000e+00	8.991597e-01	2.036421e+14	2.416698e+14	2.439827e+13	7.922730e+03	3.981791e+03	2.992348e+03	0	6.148580e-04
8.600000e+08	1.263923e+13	0.000000e+00	8.991597e-01	2.027199e+14	2.405978e+14	2.428534e+13	7.915160e+03	3.978763e+03	2.990072e+03	0	6.135344e-04
8.700000e+08	1.255788e+13	0.000000e+00	8.991597e-01	2.018046e+14	2.395320e+14	2.417319e+13	7.907624e+03	3.975742e+03	2.987802e+03	0	6.122153e-04
8.800000e+08	1.247715e+13	0.000000e+00	8.991597e-01	2.008960e+14	2.384726e+14	2.406180e+13	7.900122e+03	3.972729e+03	2.985538e+03	0	6.109006e-04
8.900000e+08	1.239703e+13	0.000000e+00	8.991597e-01	1.999941e+14	2.374196e+14	2.395119e+13	7.892654e+03	3.969725e+03	2.983280e+03	0	6.095903e-04
9.000000e+08	1.231752e+13	0.000000e+00	8.991597e-01	1.990987e+14	2.363731e+14	2.384133e+13	7.885220e+03	3.966729e+03	2.981029e+03	0	6.082843e-04
9.100000e+08	1.223861e+13	0.000000e+00	8.991597e-01	1.982100e+14	2.353330e+14	2.373222e+13	7.877818e+03	3.963742e+03	2.978784e+03	0	6.069825e-04
9.200000e+08	1.216030e+13	0.000000e+00	8.991597e-01	1.973277e+14	2.342994e+14	2.362386e+13	7.870450e+03	3.960764e+03	2.976546e+03	0	6.056850e-04
9.300000e+08	1.208257e+13	0.000000e+00	8.991597e-01	1.964519e+14	2.332724e+14	2.351625e+13	7.863114e+03	3.957796e+03	2.974316e+03	0	6.043918e-04
9.400000e+08	1.200543e+13	0.000000e+00	8.991597e-01	1.955824e+14	2.322519e+14	2.340937e+13	7.855811e+03	3.954837e+03	2.972092e+03	0	6.031028e-04
9.500000e+08	1.192886e+13	0.000000e+00	8.991597e-01	1.947193e+14	2.312380e+14	2.330321e+13	7.848540e+03	3.951887e+03	2.969875e+03	0	6.018179e-04
9.600000e+08	1.185286e+13	0.000000e+00	8.991597e-01	1.938623e+14	2.302306e+14	2.319779e+13	7.841301e+03	3.948947e+03	2.967666e+03	0	6.005371e-04
9.700000e+08	1.177743e+13	0.000000e+00	8.991597e-01	1.930116e+14	2.292297e+14	2.309308e+13	7.834094e+03	3.946017e+03	2.965463e+03	0	5.992605e-04
9.800000e+08	1.170256e+13	0.000000e+00	8.991597e-01	1.921669e+14	2.282354e+14	2.298908e+13	7.826918e+03	3.943096e+03	2.963268e+03	0	5.979879e-04
9.900000e+08	1.162824e+13	0.000000e+00	8.991597e-01	1.913284e+14	2.272476e+14	2.288579e+13	7.819774e+03	3.940185e+03	2.961081e+03	0	5.967194e-04
1.000000e+09	1.155447e+13	0.000000e+00	8.991597e-01	1.904958e+14	2.262663e+14	2.278320e+13	7.812661e+03	3.937284e+03	2.958901e+03	0	5.954549e-04
1.010000e+09	1.148125e+13	0.000000e+00	8.991597e-01	1.896691e+14	2.252915e+14	2.268130e+13	7.805579e+03	3.934393e+03	2.956728e+03	0	5.941943e-04
1.020000e+09	1.140856e+13	0.000000e+00	8.991597e-01	1.888484e+14	2.243231e+14	2.258010e+13	7.798528e+03	3.931512e+03	2.954563e+03	0	5.929377e-04
1.030000e+09	1.133641e+13	0.000000e+00	8.991597e-01	1.880334e+14	2.233611e+14	2.247958e+13	7.791507e+03	3.928641e+03	2.952406e+03	0	5.916850e-04
1.040000e+09	1.126478e+13	0.000000e+00	8.991597e-01	1.872243e+14	2.224056e+14	2.237974e+13	7.784516e+03	3.925781e+03	2.950256e+03	0	5.904363e-04
1.050000e+09	1.119368e+13	0.000000e+00	8.991597e-01	1.864208e+14	2.214564e+14	2.228058e+13	7.777555e+03	3.922930e+03	2.948113e+03	0	5.891913e-04
1.060000e+09	1.112309e+13	0.000000e+00	8.991597e-01	1.856230e+14	2.205135e+14	2.218208e+13	7.770624e+03	3.920089e+03	2.945979e+03	0	5.879502e-04
1.070000e+09	1.105301e+13	0.000000e+00	8.991597e-01	1.848308e+14	2.195770e+14	2.208425e+13	7.763723e+03	3.917258e+03	2.943851e+03	0	5.867129e-04
1.080000e+09	1.098344e+13	0.000000e+00	8.991597e-01	1.840442e+14	2.186466e+14	2.198707e+13	7.756851e+03	3.914438e+03	2.941732e+03	0	5.854794e-04
1.090000e+09	1.091438e+13	0.000000e+00	8.991597e-01	1.832630e+14	2.177225e+14	2.189055e+13	7.750009e+03	3.911627e+03	2.939619e+03	0	5.842496e-04
1.100000e+09	1.084581e+13	0.000000e+00	8.991597e-01	1.824873e+14	2.168045e+14	2.179468e+13	7.743195e+03	3.908827e+03	2.937515e+03	0	5.830236e-04
1.110000e+09	1.077773e+13	0.000000e+00	8.991597e-01	1.817170e+14	2.158927e+14	2.169945e+13	7.736410e+03	3.906036e+03	2.935418e+03	0	5.818012e-04
1.120000e+09	1.071015e+13	0.000000e+00	8.991597e-01	1.809520e+14	2.149870e+14	2.160486e+13	7.729654e+03	3.903256e+03	2.933328e+03	0	5.805825e-04
1.130000e+09	1.064304e+13	0.000000e+00	8.991597e-01	1.801924e+14	2.140874e+14	2.151090e+13	7.722926e+03	3.900485e+03	2.931246e+03	0	5.793674e-04
1.140000e+09	1.057641e+13	0.000000e+00	8.991597e-01	1.794379e+14	2.131937e+14	2.141757e+13	7.716227e+03	3.897725e+03	2.929172e+03	0	5.781559e-04
1.150000e+09	1.051026e+13	0.000000e+00	8.991597e-01	1.786887e+14	2.123060e+14	2.132486e+13	7.709555e+03	3.894974e+03	2.927105e+03	0	5.769479e-04
1.160000e+09	1.044458e+13	0.000000e+00	8.991597e-01	1.779446e+14	2.114242e+14	2.123277e+13	7.702912e+03	3.892234e+03	2.925045e+03	0	5.757436e-04
1.170000e+09	1.037936e+13	0.000000e+00	8.991597e-01	1.772055e+14	2.105483e+14	2.114129e+13	7.696295e+03	3.889503e+03	2.922993e+03	0	5.745427e-04
1.180000e+09	1.031460e+13	0.000000e+00	8.991597e-01	1.764716e+14	2.096782e+14	2.105043e+13	7.689707e+03	3.886782e+03	2.920948e+03	0	5.733453e-04
1.190000e+09	1.025030e+13	0.000000e+00	8.991597e-01	1.757426e+14	2.088139e+14	2.096016e+13	7.683145e+03	3.884071e+03	2.918911e+03	0	5.721514e-04
1.200000e+09	1.018645e+13	0.000000e+00	8.991597e-01	1.750186e+14	2.079553e+14	2.087050e+13	7.676611e+03	3.881370e+03	2.916881e+03	0	5.709610e-04
1.210000e+09	1.012305e+13	0.000000e+00	8.991597e-01	1.742994e+14	2.071025e+14	2.078143e+13	7.670103e+03	3.878679e+03	2.914858e+03	0	5.697739e-04
1.220000e+09	1.006009e+13	0.000000e+00	8.991597e-01	1.735852e+14	2.062552e+14	2.069295e+13	7.663623e+03	3.875997e+03	2.912843e+03	0	5.685903e-04
1.230000e+09	9.997571e+12	0.000000e+00	8.991597e-01	1.728757e+14	2.054136e+14	2.060506e+13	7.657168e+03	3.873325e+03	2.910835e+03	0	5.674100e-04
1.240000e+09	9.935487e+12	0.000000e+00	8.991597e-01	1.721711e+14	2.045776e+14	2.051774e+13	7.650740e+03	3.870662e+03	2.908834e+03	0	5.662330e-04
1.250000e+09	9.873833e+12	0.000000e+00	8.991597e-01	1.714711e+14	2.037470e+14	2.043101e+13	7.644339e+03	3.868009e+03	2.906840e+03	0	5.650593e-04
1.260000e+09	9.812606e+12	0.000000e+00	8.991597e-01	1.707759e+14	2.029219e+14	2.034484e+13	7.637963e+03	3.865366e+03	2.904854e+03	0	5.638889e-04
1.270000e+09	9.751802e+12	0.000000e+00	8.991597e-01	1.700852e+14	2.021022e+14	2.025924e+13	7.631613e+03	3.862732e+03	2.902874e+03	0	5.627218e-04
1.280000e+09	9.691417e+12	0.000000e+00	8.991597e-01	1.693992e+14	2.012879e+14	2.017421e+13	7.625289e+03	3.860107e+03	2.900902e+03	0	5.615579e-04
1.290000e+09	9.631447e+12	0.000000e+00	8.991597e-01	1.687177e+14	2.004790e+14	2.008973e+13	7.618990e+03	3.857492e+03	2.898937e+03	0	5.603972e-04
1.300000e+09	9.571889e+12	0.000000e+00	8.991597e-01	1.680408e+14	1.996753e+14	2.000581e+13	7.612716e+03	3.854887e+03	2.896978e+03	0	5.592397e-04
1.310000e+09	9.512738e+12	0.000000e+00	8.991597e-01	1.673683e+14	1.988769e+14	1.992244e+13	7.606468e+03	3.852290e+03	2.895027e+03	0	5.580853e-04
1.320000e+09	9.453990e+12	0.000000e+00	8.991597e-01	1.667002e+14	1.980836e+14	1.983962e+13	7.600245e+03	3.849703e+03	2.893083e+03	0	5.569341e-04
1.330000e+09	9.395643e+12	0.000000e+00	8.991597e-01	1.660365e+14	1.972956e+14	1.975734e+13	7.594046e+03	3.847125e+03	2.891146e+03	0	5.557860e-04
1.340000e+09	9.337692e+12	0.000000e+00	8.991597e-01	1.653772e+14	1.965126e+14	1.967559e+13	7.587872e+03	3.844557e+03	2.889215e+03	0	5.546410e-04
1.350000e+09	9.280134e+12	0.000000e+00	8.991597e-01	1.647222e+14	1.957347e+14	1.959438e+13	7.581722e+03	3.841997e+03	2.887292e+03	0	5.534990e-04
1.360000e+09	9.222965e+12	0.000000e+00	8.991597e-01	1.640715e+14	1.949618e+14	1.951370e+13	7.575597e+03	3.839446e+03	2.885375e+03	0	5.523601e-04
