#t		Qconv[W]	Ri[Rp]		R*[Rp]		Qc[W]		Qm[W]		Qr[W]		Tcmb[K]		Tl[K]		Tup[K]		RiFlag		Bs[T]
0.000000e+00	1.441553e+14	0.000000e+00	8.983050e-01	1.562576e+15	6.063061e+13	5.294890e+13	1.412396e+04	3.808617e+03	2.557600e+03	0	1.366399e-03
1.000000e+07	1.461688e+14	0.000000e+00	8.983050e-01	1.579778e+15	9.541133e+13	5.265553e+13	1.408816e+04	4.073586e+03	2.735535e+03	0	1.372731e-03
2.000000e+07	1.475886e+14	0.000000e+00	8.983050e-01	1.591689e+15	1.427006e+14	5.236435e+13	1.405196e+04	4.334423e+03	2.910695e+03	0	1.377161e-03
3.000000e+07	1.484079e+14	0.000000e+00	8.983050e-01	1.598254e+15	2.037507e+14	5.207534e+13	1.401548e+04	4.587943e+03	3.080941e+03	0	1.379705e-03
4.000000e+07	1.486465e+14	0.000000e+00	8.983050e-01	1.599650e+15	2.787457e+14	5.178849e+13	1.397886e+04	4.830824e+03	3.244043e+03	0	1.380444e-03
5.000000e+07	1.483505e+14	0.000000e+00	8.983050e-01	1.596290e+15	3.665625e+14	5.150378e+13	1.394221e+04	5.059852e+03	3.397842e+03	0	1.379527e-03
6.000000e+07	1.475889e+14	0.000000e+00	8.983050e-01	1.588790e+15	4.647588e+14	5.122120e+13	1.390563e+04	5.272194e+03	3.540436e+03	0	1.377162e-03
7.000000e+07	1.464458e+14	0.000000e+00	8.983050e-01	1.577898e+15	5.698256e+14	5.094071e+13	1.386923e+04	5.465639e+03	3.670340e+03	0	1.373597e-03
8.000000e+07	1.450116e+14	0.000000e+00	8.983050e-01	1.564423e+15	6.776499e+14	5.066232e+13	1.383307e+04	5.638771e+03	3.786603e+03	0	1.369099e-03
9.000000e+07	1.433740e+14	0.000000e+00	8.983050e-01	1.549143e+15	7.840718e+14	5.038599e+13	1.379722e+04	5.791030e+03	3.888850e+03	0	1.363925e-03
1.000000e+08	1.416108e+14	0.000000e+00	8.983050e-01	1.532754e+15	8.853921e+14	5.011172e+13	1.376173e+04	5.922675e+03	3.977253e+03	0	1.358311e-03
1.100000e+08	1.397858e+14	0.000000e+00	8.983050e-01	1.515822e+15	9.787267e+14	4.983948e+13	1.372660e+04	6.034655e+03	4.052451e+03	0	1.352451e-03
1.200000e+08	1.379474e+14	0.000000e+00	8.983050e-01	1.498779e+15	1.062160e+15	4.956926e+13	1.369187e+04	6.128430e+03	4.115424e+03	0	1.346496e-03
1.300000e+08	1.361293e+14	0.000000e+00	8.983050e-01	1.481924e+15	1.134723e+15	4.930104e+13	1.365752e+04	6.205783e+03	4.167369e+03	0	1.340554e-03
1.400000e+08	1.343530e+14	0.000000e+00	8.983050e-01	1.465448e+15	1.196249e+15	4.903480e+13	1.362356e+04	6.268642e+03	4.209580e+03	0	1.334698e-03
1.500000e+08	1.326302e+14	0.000000e+00	8.983050e-01	1.449457e+15	1.247172e+15	4.877054e+13	1.358998e+04	6.318942e+03	4.243358e+03	0	1.328968e-03
1.600000e+08	1.309661e+14	0.000000e+00	8.983050e-01	1.433994e+15	1.288322e+15	4.850822e+13	1.355676e+04	6.358526e+03	4.269940e+03	0	1.323387e-03
1.700000e+08	1.293609e+14	0.000000e+00	8.983050e-01	1.419062e+15	1.320741e+15	4.824784e+13	1.352390e+04	6.389081e+03	4.290459e+03	0	1.317958e-03
1.800000e+08	1.278123e+14	0.000000e+00	8.983050e-01	1.404641e+15	1.345551e+15	4.798938e+13	1.349137e+04	6.412106e+03	4.305921e+03	0	1.312677e-03
1.900000e+08	1.263165e+14	0.000000e+00	8.983050e-01	1.390696e+15	1.363860e+15	4.773283e+13	1.345918e+04	6.428903e+03	4.317201e+03	0	1.307536e-03
2.000000e+08	1.248690e+14	0.000000e+00	8.983050e-01	1.377187e+15	1.376698e+15	4.747816e+13	1.342731e+04	6.440586e+03	4.325046e+03	0	1.302523e-03
2.100000e+08	1.234653e+14	0.000000e+00	8.983050e-01	1.364073e+15	1.384988e+15	4.722536e+13	1.339574e+04	6.448089e+03	4.330085e+03	0	1.297624e-03
2.200000e+08	1.221011e+14	0.000000e+00	8.983050e-01	1.351317e+15	1.389540e+15	4.697442e+13	1.336447e+04	6.452195e+03	4.332842e+03	0	1.292827e-03
2.300000e+08	1.207725e+14	0.000000e+00	8.983050e-01	1.338884e+15	1.391041e+15	4.672533e+13	1.333350e+04	6.453547e+03	4.333750e+03	0	1.288121e-03
2.400000e+08	1.194761e+14	0.000000e+00	8.983050e-01	1.326743e+15	1.390073e+15	4.647806e+13	1.330281e+04	6.452675e+03	4.333164e+03	0	1.283495e-03
2.500000e+08	1.182090e+14	0.000000e+00	8.983050e-01	1.314867e+15	1.387120e+15	4.623260e+13	1.327240e+04	6.450013e+03	4.331377e+03	0	1.278941e-03
2.600000e+08	1.169685e+14	0.000000e+00	8.983050e-01	1.303234e+15	1.382580e+15	4.598893e+13	1.324226e+04	6.445913e+03	4.328623e+03	0	1.274452e-03
2.700000e+08	1.157526e+14	0.000000e+00	8.983050e-01	1.291824e+15	1.376781e+15	4.574705e+13	1.321238e+04	6.440661e+03	4.325097e+03	0	1.270020e-03
2.800000e+08	1.145594e+14	0.000000e+00	8.983050e-01	1.280622e+15	1.369988e+15	4.550693e+13	1.318277e+04	6.434490e+03	4.320952e+03	0	1.265641e-03
2.900000e+08	1.133873e+14	0.000000e+00	8.983050e-01	1.269614e+15	1.362419e+15	4.526857e+13	1.315341e+04	6.427587e+03	4.316317e+03	0	1.261310e-03
3.000000e+08	1.122352e+14	0.000000e+00	8.983050e-01	1.258787e+15	1.354247e+15	4.503195e+13	1.312430e+04	6.420104e+03	4.311292e+03	0	1.257024e-03
3.100000e+08	1.111018e+14	0.000000e+00	8.983050e-01	1.248132e+15	1.345615e+15	4.479704e+13	1.309545e+04	6.412164e+03	4.305960e+03	0	1.252778e-03
3.200000e+08	1.099863e+14	0.000000e+00	8.983050e-01	1.237641e+15	1.336635e+15	4.456385e+13	1.306683e+04	6.403867e+03	4.300388e+03	0	1.248571e-03
3.300000e+08	1.088878e+14	0.000000e+00	8.983050e-01	1.227306e+15	1.327400e+15	4.433236e+13	1.303846e+04	6.395291e+03	4.294629e+03	0	1.244401e-03
3.400000e+08	1.078057e+14	0.000000e+00	8.983050e-01	1.217121e+15	1.317983e+15	4.410254e+13	1.301032e+04	6.386503e+03	4.288727e+03	0	1.240265e-03
3.500000e+08	1.067393e+14	0.000000e+00	8.983050e-01	1.207081e+15	1.308442e+15	4.387439e+13	1.298241e+04	6.377553e+03	4.282718e+03	0	1.236162e-03
3.600000e+08	1.056881e+14	0.000000e+00	8.983050e-01	1.197181e+15	1.298826e+15	4.364790e+13	1.295474e+04	6.368485e+03	4.276628e+03	0	1.232090e-03
3.700000e+08	1.046517e+14	0.000000e+00	8.983050e-01	1.187416e+15	1.289170e+15	4.342304e+13	1.292729e+04	6.359333e+03	4.270482e+03	0	1.228049e-03
3.800000e+08	1.036295e+14	0.000000e+00	8.983050e-01	1.177783e+15	1.279507e+15	4.319982e+13	1.290006e+04	6.350124e+03	4.264298e+03	0	1.224038e-03
3.900000e+08	1.026213e+14	0.000000e+00	8.983050e-01	1.168278e+15	1.269860e+15	4.297820e+13	1.287305e+04	6.340880e+03	4.258090e+03	0	1.220056e-03
4.000000e+08	1.016266e+14	0.000000e+00	8.983050e-01	1.158899e+15	1.260248e+15	4.275819e+13	1.284626e+04	6.331619e+03	4.251872e+03	0	1.216101e-03
4.100000e+08	1.006453e+14	0.000000e+00	8.983050e-01	1.149641e+15	1.250685e+15	4.253976e+13	1.281969e+04	6.322356e+03	4.245651e+03	0	1.212174e-03
4.200000e+08	9.967682e+13	0.000000e+00	8.983050e-01	1.140503e+15	1.241184e+15	4.232291e+13	1.279333e+04	6.313103e+03	4.239438e+03	0	1.208273e-03
4.300000e+08	9.872107e+13	0.000000e+00	8.983050e-01	1.131482e+15	1.231754e+15	4.210762e+13	1.276717e+04	6.303869e+03	4.233236e+03	0	1.204399e-03
4.400000e+08	9.777773e+13	0.000000e+00	8.983050e-01	1.122576e+15	1.222401e+15	4.189388e+13	1.274123e+04	6.294661e+03	4.227053e+03	0	1.200551e-03
4.500000e+08	9.684656e+13	0.000000e+00	8.983050e-01	1.113781e+15	1.213133e+15	4.168167e+13	1.271548e+04	6.285486e+03	4.220892e+03	0	1.196727e-03
4.600000e+08	9.592733e+13	0.000000e+00	8.983050e-01	1.105097e+15	1.203952e+15	4.147099e+13	1.268994e+04	6.276348e+03	4.214755e+03	0	1.192929e-03
4.700000e+08	9.501980e+13	0.000000e+00	8.983050e-01	1.096521e+15	1.194862e+15	4.126182e+13	1.266460e+04	6.267251e+03	4.208646e+03	0	1.189155e-03
4.800000e+08	9.412376e+13	0.000000e+00	8.983050e-01	1.088051e+15	1.185866e+15	4.105415e+13	1.263945e+04	6.258198e+03	4.202567e+03	0	1.185405e-03
4.900000e+08	9.323900e+13	0.000000e+00	8.983050e-01	1.079685e+15	1.176963e+15	4.084796e+13	1.261450e+04	6.249192e+03	4.196519e+03	0	1.181679e-03
5.000000e+08	9.236532e+13	0.000000e+00	8.983050e-01	1.071422e+15	1.168156e+15	4.064325e+13	1.258973e+04	6.240235e+03	4.190504e+03	0	1.177977e-03
5.100000e+08	9.150253e+13	0.000000e+00	8.983050e-01	1.063259e+15	1.159445e+15	4.044001e+13	1.256516e+04	6.231327e+03	4.184522e+03	0	1.174298e-03
5.200000e+08	9.065045e+13	0.000000e+00	8.983050e-01	1.055195e+15	1.150830e+15	4.023821e+13	1.254077e+04	6.222470e+03	4.178575e+03	0	1.170641e-03
5.300000e+08	8.980887e+13	0.000000e+00	8.983050e-01	1.047229e+15	1.142311e+15	4.003785e+13	1.251657e+04	6.213665e+03	4.172662e+03	0	1.167007e-03
5.400000e+08	8.897764e+13	0.000000e+00	8.983050e-01	1.039358e+15	1.133887e+15	3.983892e+13	1.249255e+04	6.204913e+03	4.166784e+03	0	1.163396e-03
5.500000e+08	8.815657e+13	0.000000e+00	8.983050e-01	1.031581e+15	1.125558e+15	3.964140e+13	1.246871e+04	6.196213e+03	4.160942e+03	0	1.159806e-03
5.600000e+08	8.734549e+13	0.000000e+00	8.983050e-01	1.023896e+15	1.117323e+15	3.944529e+13	1.244505e+04	6.187565e+03	4.155135e+03	0	1.156238e-03
5.700000e+08	8.654425e+13	0.000000e+00	8.983050e-01	1.016302e+15	1.109181e+15	3.925057e+13	1.242156e+04	6.178971e+03	4.149364e+03	0	1.152692e-03
5.800000e+08	8.575268e+13	0.000000e+00	8.983050e-01	1.008798e+15	1.101131e+15	3.905723e+13	1.239825e+04	6.170429e+03	4.143627e+03	0	1.149167e-03
5.900000e+08	8.497062e+13	0.000000e+00	8.983050e-01	1.001382e+15	1.093173e+15	3.886526e+13	1.237511e+04	6.161940e+03	4.137927e+03	0	1.145663e-03
6.000000e+08	8.419792e+13	0.000000e+00	8.983050e-01	9.940524e+14	1.085304e+15	3.867466e+13	1.235214e+04	6.153503e+03	4.132261e+03	0	1.142179e-03
6.100000e+08	8.343443e+13	0.000000e+00	8.983050e-01	9.868082e+14	1.077524e+15	3.848540e+13	1.232934e+04	6.145118e+03	4.126631e+03	0	1.138716e-03
6.200000e+08	8.268000e+13	0.000000e+00	8.983050e-01	9.796478e+14	1.069832e+15	3.829747e+13	1.230670e+04	6.136786e+03	4.121035e+03	0	1.135274e-03
6.300000e+08	8.193449e+13	0.000000e+00	8.983050e-01	9.725700e+14	1.062227e+15	3.811088e+13	1.228423e+04	6.128504e+03	4.115474e+03	0	1.131851e-03
6.400000e+08	8.119776e+13	0.000000e+00	8.983050e-01	9.655735e+14	1.054707e+15	3.792560e+13	1.226192e+04	6.120274e+03	4.109947e+03	0	1.128449e-03
6.500000e+08	8.046967e+13	0.000000e+00	8.983050e-01	9.586570e+14	1.047272e+15	3.774162e+13	1.223977e+04	6.112095e+03	4.104455e+03	0	1.125066e-03
6.600000e+08	7.975008e+13	0.000000e+00	8.983050e-01	9.518193e+14	1.039920e+15	3.755894e+13	1.221777e+04	6.103966e+03	4.098996e+03	0	1.121702e-03
6.700000e+08	7.903886e+13	0.000000e+00	8.983050e-01	9.450592e+14	1.032650e+15	3.737754e+13	1.219594e+04	6.095887e+03	4.093571e+03	0	1.118358e-03
6.800000e+08	7.833588e+13	0.000000e+00	8.983050e-01	9.383755e+14	1.025460e+15	3.719742e+13	1.217426e+04	6.087858e+03	4.088179e+03	0	1.115032e-03
6.900000e+08	7.764102e+13	0.000000e+00	8.983050e-01	9.317670e+14	1.018350e+15	3.701856e+13	1.215273e+04	6.079878e+03	4.082820e+03	0	1.111725e-03
7.000000e+08	7.695414e+13	0.000000e+00	8.983050e-01	9.252325e+14	1.011319e+15	3.684096e+13	1.213135e+04	6.071946e+03	4.077493e+03	0	1.108437e-03
7.100000e+08	7.627513e+13	0.000000e+00	8.983050e-01	9.187710e+14	1.004365e+15	3.666460e+13	1.211012e+04	6.064062e+03	4.072199e+03	0	1.105168e-03
7.200000e+08	7.560387e+13	0.000000e+00	8.983050e-01	9.123814e+14	9.974868e+14	3.648947e+13	1.208904e+04	6.056227e+03	4.066937e+03	0	1.101916e-03
7.300000e+08	7.494023e+13	0.000000e+00	8.983050e-01	9.060625e+14	9.906839e+14	3.631557e+13	1.206811e+04	6.048438e+03	4.061707e+03	0	1.098682e-03
7.400000e+08	7.428411e+13	0.000000e+00	8.983050e-01	8.998133e+14	9.839554e+14	3.614287e+13	1.204732e+04	6.040697e+03	4.056509e+03	0	1.095467e-03
7.500000e+08	7.363539e+13	0.000000e+00	8.983050e-01	8.936327e+14	9.772996e+14	3.597139e+13	1.202667e+04	6.033002e+03	4.051341e+03	0	1.092268e-03
7.600000e+08	7.299396e+13	0.000000e+00	8.983050e-01	8.875199e+14	9.707158e+14	3.580110e+13	1.200617e+04	6.025353e+03	4.046205e+03	0	1.089088e-03
7.700000e+08	7.235970e+13	0.000000e+00	8.983050e-01	8.814736e+14	9.642029e+14	3.563199e+13	1.198580e+04	6.017749e+03	4.041099e+03	0	1.085924e-03
7.800000e+08	7.173252e+13	0.000000e+00	8.983050e-01	8.754930e+14	9.577595e+14	3.546406e+13	1.196558e+04	6.010191e+03	4.036023e+03	0	1.082777e-03
7.900000e+08	7.111230e+13	0.000000e+00	8.983050e-01	8.695771e+14	9.513856e+14	3.529729e+13	1.194549e+04	6.002677e+03	4.030977e+03	0	1.079648e-03
8.000000e+08	7.049895e+13	0.000000e+00	8.983050e-01	8.637250e+14	9.450790e+14	3.513168e+13	1.192554e+04	5.995208e+03	4.025962e+03	0	1.076535e-03
8.100000e+08	6.989236e+13	0.000000e+00	8.983050e-01	8.579357e+14	9.388394e+14	3.496722e+13	1.190572e+04	5.987783e+03	4.020975e+03	0	1.073438e-03
8.200000e+08	6.929244e+13	0.000000e+00	8.983050e-01	8.522082e+14	9.326658e+14	3.480390e+13	1.188603e+04	5.980401e+03	4.016018e+03	0	1.070358e-03
8.300000e+08	6.869908e+13	0.000000e+00	8.983050e-01	8.465418e+14	9.265572e+14	3.464171e+13	1.186647e+04	5.973062e+03	4.011089e+03	0	1.067294e-03
8.400000e+08	6.811219e+13	0.000000e+00	8.983050e-01	8.409356e+14	9.205127e+14	3.448063e+13	1.184705e+04	5.965765e+03	4.006190e+03	0	1.064246e-03
8.500000e+08	6.753168e+13	0.000000e+00	8.983050e-01	8.353886e+14	9.145312e+14	3.432067e+13	1.182775e+04	5.958511e+03	4.001318e+03	0	1.061214e-03
8.600000e+08	6.695745e+13	0.000000e+00	8.983050e-01	8.299000e+14	9.086121e+14	3.416181e+13	1.180858e+04	5.951299e+03	3.996475e+03	0	1.058198e-03
8.700000e+08	6.638941e+13	0.000000e+00	8.983050e-01	8.244690e+14	9.027543e+14	3.400404e+13	1.178953e+04	5.944128e+03	3.991660e+03	0	1.055197e-03
8.800000e+08	6.582748e+13	0.000000e+00	8.983050e-01	8.190947e+14	8.969569e+14	3.384736e+13	1.177061e+04	5.936998e+03	3.986872e+03	0	1.052211e-03
8.900000e+08	6.527156e+13	0.000000e+00	8.983050e-01	8.137765e+14	8.912194e+14	3.369176e+13	1.175181e+04	5.929909e+03	3.982111e+03	0	1.049241e-03
9.000000e+08	6.472158e+13	0.000000e+00	8.983050e-01	8.085134e+14	8.855408e+14	3.353722e+13	1.173314e+04	5.922860e+03	3.977377e+03	0	1.046285e-03
9.100000e+08	6.417744e+13	0.000000e+00	8.983050e-01	8.033047e+14	8.799200e+14	3.338375e+13	1.171458e+04	5.915851e+03	3.972671e+03	0	1.043345e-03
9.200000e+08	6.363907e+13	0.000000e+00	8.983050e-01	7.981497e+14	8.743567e+14	3.323132e+13	1.169615e+04	5.908881e+03	3.967990e+03	0	1.040419e-03
9.300000e+08	6.310638e+13	0.000000e+00	8.983050e-01	7.930475e+14	8.688495e+14	3.307994e+13	1.167783e+04	5.901951e+03	3.963336e+03	0	1.037508e-03
9.400000e+08	6.257929e+13	0.000000e+00	8.983050e-01	7.879975e+14	8.633982e+14	3.292959e+13	1.165963e+04	5.895059e+03	3.958708e+03	0	1.034612e-03
9.500000e+08	6.205772e+13	0.000000e+00	8.983050e-01	7.829990e+14	8.580016e+14	3.278027e+13	1.164154e+04	5.888206e+03	3.954106e+03	0	1.031729e-03
9.600000e+08	6.154160e+13	0.000000e+00	8.983050e-01	7.780511e+14	8.526594e+14	3.263196e+13	1.162357e+04	5.881391e+03	3.949530e+03	0	1.028861e-03
9.700000e+08	6.103086e+13	0.000000e+00	8.983050e-01	7.731533e+14	8.473707e+14	3.248467e+13	1.160571e+04	5.874614e+03	3.944979e+03	0	1.026007e-03
9.800000e+08	6.052541e+13	0.000000e+00	8.983050e-01	7.683048e+14	8.421344e+14	3.233838e+13	1.158797e+04	5.867874e+03	3.940453e+03	0	1.023167e-03
9.900000e+08	6.002518e+13	0.000000e+00	8.983050e-01	7.635050e+14	8.369501e+14	3.219308e+13	1.157033e+04	5.861171e+03	3.935951e+03	0	1.020340e-03
1.000000e+09	5.953010e+13	0.000000e+00	8.983050e-01	7.587533e+14	8.318171e+14	3.204877e+13	1.155281e+04	5.854505e+03	3.931475e+03	0	1.017527e-03
1.010000e+09	5.904011e+13	0.000000e+00	8.983050e-01	7.540488e+14	8.267344e+14	3.190543e+13	1.153539e+04	5.847875e+03	3.927023e+03	0	1.014728e-03
1.020000e+09	5.855512e+13	0.000000e+00	8.983050e-01	7.493911e+14	8.217021e+14	3.176307e+13	1.151808e+04	5.841281e+03	3.922595e+03	0	1.011942e-03
1.030000e+09	5.807508e+13	0.000000e+00	8.983050e-01	7.447795e+14	8.167189e+14	3.162168e+13	1.150088e+04	5.834723e+03	3.918191e+03	0	1.009169e-03
1.040000e+09	5.759991e+13	0.000000e+00	8.983050e-01	7.402133e+14	8.117841e+14	3.148123e+13	1.148379e+04	5.828201e+03	3.913811e+03	0	1.006409e-03
1.050000e+09	5.712956e+13	0.000000e+00	8.983050e-01	7.356920e+14	8.068974e+14	3.134174e+13	1.146680e+04	5.821713e+03	3.909455e+03	0	1.003662e-03
1.060000e+09	5.666395e+13	0.000000e+00	8.983050e-01	7.312150e+14	8.020582e+14	3.120319e+13	1.144991e+04	5.815261e+03	3.905122e+03	0	1.000928e-03
1.070000e+09	5.620302e+13	0.000000e+00	8.983050e-01	7.267816e+14	7.972653e+14	3.106557e+13	1.143312e+04	5.808843e+03	3.900812e+03	0	9.982064e-04
1.080000e+09	5.574670e+13	0.000000e+00	8.983050e-01	7.223913e+14	7.925185e+14	3.092887e+13	1.141644e+04	5.802459e+03	3.896525e+03	0	9.954976e-04
1.090000e+09	5.529495e+13	0.000000e+00	8.983050e-01	7.180436e+14	7.878176e+14	3.079310e+13	1.139986e+04	5.796109e+03	3.892260e+03	0	9.928012e-04
1.100000e+09	5.484769e+13	0.000000e+00	8.983050e-01	7.137378e+14	7.831610e+14	3.065823e+13	1.138338e+04	5.789792e+03	3.888019e+03	0	9.901171e-04
1.110000e+09	5.440486e+13	0.000000e+00	8.983050e-01	7.094735e+14	7.785492e+14	3.052427e+13	1.136699e+04	5.783509e+03	3.883799e+03	0	9.874453e-04
1.120000e+09	5.396641e+13	0.000000e+00	8.983050e-01	7.052500e+14	7.739808e+14	3.039121e+13	1.135070e+04	5.777259e+03	3.879602e+03	0	9.847855e-04
1.130000e+09	5.353229e+13	0.000000e+00	8.983050e-01	7.010669e+14	7.694557e+14	3.025904e+13	1.133451e+04	5.771041e+03	3.875427e+03	0	9.821378e-04
1.140000e+09	5.310242e+13	0.000000e+00	8.983050e-01	6.969236e+14	7.649733e+14	3.012776e+13	1.131842e+04	5.764856e+03	3.871273e+03	0	9.795018e-04
1.150000e+09	5.267676e+13	0.000000e+00	8.983050e-01	6.928196e+14	7.605327e+14	2.999734e+13	1.130242e+04	5.758703e+03	3.867142e+03	0	9.768777e-04
1.160000e+09	5.225526e+13	0.000000e+00	8.983050e-01	6.887544e+14	7.561338e+14	2.986780e+13	1.128652e+04	5.752582e+03	3.863031e+03	0	9.742651e-04
1.170000e+09	5.183785e+13	0.000000e+00	8.983050e-01	6.847275e+14	7.517760e+14	2.973913e+13	1.127070e+04	5.746493e+03	3.858942e+03	0	9.716641e-04
1.180000e+09	5.142449e+13	0.000000e+00	8.983050e-01	6.807384e+14	7.474585e+14	2.961130e+13	1.125498e+04	5.740435e+03	3.854874e+03	0	9.690744e-04
1.190000e+09	5.101512e+13	0.000000e+00	8.983050e-01	6.767867e+14	7.431810e+14	2.948433e+13	1.123936e+04	5.734408e+03	3.850827e+03	0	9.664961e-04
1.200000e+09	5.060969e+13	0.000000e+00	8.983050e-01	6.728718e+14	7.389431e+14	2.935820e+13	1.122382e+04	5.728412e+03	3.846800e+03	0	9.639290e-04
1.210000e+09	5.020816e+13	0.000000e+00	8.983050e-01	6.689933e+14	7.347440e+14	2.923291e+13	1.120837e+04	5.722446e+03	3.842794e+03	0	9.613730e-04
1.220000e+09	4.981046e+13	0.000000e+00	8.983050e-01	6.651508e+14	7.305834e+14	2.910845e+13	1.119301e+04	5.716511e+03	3.838808e+03	0	9.588279e-04
1.230000e+09	4.941655e+13	0.000000e+00	8.983050e-01	6.613437e+14	7.264608e+14	2.898481e+13	1.117774e+04	5.710606e+03	3.834843e+03	0	9.562937e-04
1.240000e+09	4.902639e+13	0.000000e+00	8.983050e-01	6.575717e+14	7.223759e+14	2.886199e+13	1.116255e+04	5.704730e+03	3.830897e+03	0	9.537703e-04
1.250000e+09	4.863993e+13	0.000000e+00	8.983050e-01	6.538342e+14	7.183279e+14	2.873998e+13	1.114746e+04	5.698884e+03	3.826971e+03	0	9.512576e-04
1.260000e+09	4.825711e+13	0.000000e+00	8.983050e-01	6.501310e+14	7.143165e+14	2.861877e+13	1.113245e+04	5.693068e+03	3.823065e+03	0	9.487554e-04
1.270000e+09	4.787790e+13	0.000000e+00	8.983050e-01	6.464614e+14	7.103414e+14	2.849836e+13	1.111752e+04	5.687280e+03	3.819179e+03	0	9.462637e-04
1.280000e+09	4.750225e+13	0.000000e+00	8.983050e-01	6.428252e+14	7.064019e+14	2.837874e+13	1.110268e+04	5.681521e+03	3.815311e+03	0	9.437824e-04
1.290000e+09	4.713011e+13	0.000000e+00	8.983050e-01	6.392219e+14	7.024978e+14	2.825991e+13	1.108792e+04	5.675791e+03	3.811463e+03	0	9.413114e-04
1.300000e+09	4.676144e+13	0.000000e+00	8.983050e-01	6.356511e+14	6.986284e+14	2.814186e+13	1.107324e+04	5.670089e+03	3.807635e+03	0	9.388505e-04
1.310000e+09	4.639620e+13	0.000000e+00	8.983050e-01	6.321124e+14	6.947934e+14	2.802459e+13	1.105864e+04	5.664415e+03	3.803824e+03	0	9.363997e-04
1.320000e+09	4.603434e+13	0.000000e+00	8.983050e-01	6.286054e+14	6.909925e+14	2.790808e+13	1.104413e+04	5.658770e+03	3.800033e+03	0	9.339590e-04
1.330000e+09	4.567583e+13	0.000000e+00	8.983050e-01	6.251298e+14	6.872251e+14	2.779233e+13	1.102970e+04	5.653151e+03	3.796260e+03	0	9.315281e-04
1.340000e+09	4.532061e+13	0.000000e+00	8.983050e-01	6.216851e+14	6.834911e+14	2.767734e+13	1.101534e+04	5.647561e+03	3.792506e+03	0	9.291070e-04
1.350000e+09	4.496866e+13	0.000000e+00	8.983050e-01	6.182709e+14	6.797897e+14	2.756310e+13	1.100107e+04	5.641997e+03	3.788770e+03	0	9.266956e-04
1.360000e+09	4.461992e+13	0.000000e+00	8.983050e-01	6.148870e+14	6.761209e+14	2.744961e+13	1.098687e+04	5.636460e+03	3.785052e+03	0	9.242939e-04
