#t		Qconv[W]	Ri[Rp]		R*[Rp]		Qc[W]		Qm[W]		Qr[W]		Tcmb[K]		Tl[K]		Tup[K]		RiFlag		Bs[T]
0.000000e+00	1.441880e+14	0.000000e+00	8.983047e-01	1.578359e+15	5.985911e+13	5.600523e+13	1.437729e+04	3.858885e+03	2.586396e+03	0	1.364111e-03
1.000000e+07	1.464028e+14	0.000000e+00	8.983047e-01	1.596843e+15	9.235736e+13	5.569492e+13	1.434399e+04	4.112992e+03	2.756709e+03	0	1.371060e-03
2.000000e+07	1.480717e+14	0.000000e+00	8.983047e-01	1.610575e+15	1.361412e+14	5.538693e+13	1.431031e+04	4.363865e+03	2.924855e+03	0	1.376250e-03
3.000000e+07	1.491814e+14	0.000000e+00	8.983047e-01	1.619445e+15	1.924456e+14	5.508124e+13	1.427633e+04	4.608781e+03	3.089009e+03	0	1.379680e-03
4.000000e+07	1.497405e+14	0.000000e+00	8.983047e-01	1.623527e+15	2.616777e+14	5.477783e+13	1.424217e+04	4.844862e+03	3.247241e+03	0	1.381401e-03
5.000000e+07	1.497803e+14	0.000000e+00	8.983047e-01	1.623096e+15	3.431918e+14	5.447669e+13	1.420793e+04	5.069260e+03	3.397642e+03	0	1.381523e-03
6.000000e+07	1.493528e+14	0.000000e+00	8.983047e-01	1.618606e+15	4.352205e+14	5.417779e+13	1.417369e+04	5.279368e+03	3.538466e+03	0	1.380208e-03
7.000000e+07	1.485261e+14	0.000000e+00	8.983047e-01	1.610652e+15	5.350039e+14	5.388112e+13	1.413955e+04	5.473024e+03	3.668263e+03	0	1.377656e-03
8.000000e+07	1.473776e+14	0.000000e+00	8.983047e-01	1.599905e+15	6.391016e+14	5.358666e+13	1.410557e+04	5.648674e+03	3.785991e+03	0	1.374096e-03
9.000000e+07	1.459863e+14	0.000000e+00	8.983047e-01	1.587055e+15	7.438167e+14	5.329438e+13	1.407183e+04	5.805462e+03	3.891078e+03	0	1.369759e-03
1.000000e+08	1.444263e+14	0.000000e+00	8.983047e-01	1.572746e+15	8.456342e+14	5.300428e+13	1.403835e+04	5.943236e+03	3.983420e+03	0	1.364862e-03
1.100000e+08	1.427623e+14	0.000000e+00	8.983047e-01	1.557540e+15	9.415745e+14	5.271632e+13	1.400517e+04	6.062481e+03	4.063343e+03	0	1.359600e-03
1.200000e+08	1.410464e+14	0.000000e+00	8.983047e-01	1.541891e+15	1.029412e+15	5.243050e+13	1.397232e+04	6.164201e+03	4.131520e+03	0	1.354131e-03
1.300000e+08	1.393182e+14	0.000000e+00	8.983047e-01	1.526142e+15	1.107741e+15	5.214680e+13	1.393979e+04	6.249770e+03	4.188872e+03	0	1.348578e-03
1.400000e+08	1.376056e+14	0.000000e+00	8.983047e-01	1.510536e+15	1.175920e+15	5.186520e+13	1.390760e+04	6.320784e+03	4.236469e+03	0	1.343029e-03
1.500000e+08	1.359266e+14	0.000000e+00	8.983047e-01	1.495229e+15	1.233940e+15	5.158568e+13	1.387573e+04	6.378926e+03	4.275439e+03	0	1.337544e-03
1.600000e+08	1.342914e+14	0.000000e+00	8.983047e-01	1.480311e+15	1.282258e+15	5.130822e+13	1.384419e+04	6.425871e+03	4.306903e+03	0	1.332159e-03
1.700000e+08	1.327050e+14	0.000000e+00	8.983047e-01	1.465823e+15	1.321637e+15	5.103281e+13	1.381296e+04	6.463204e+03	4.331925e+03	0	1.326893e-03
1.800000e+08	1.311683e+14	0.000000e+00	8.983047e-01	1.451774e+15	1.353005e+15	5.075943e+13	1.378203e+04	6.492377e+03	4.351478e+03	0	1.321751e-03
1.900000e+08	1.296799e+14	0.000000e+00	8.983047e-01	1.438151e+15	1.377350e+15	5.048807e+13	1.375141e+04	6.514689e+03	4.366432e+03	0	1.316733e-03
2.000000e+08	1.282373e+14	0.000000e+00	8.983047e-01	1.424932e+15	1.395648e+15	5.021870e+13	1.372106e+04	6.531272e+03	4.377548e+03	0	1.311832e-03
2.100000e+08	1.268369e+14	0.000000e+00	8.983047e-01	1.412087e+15	1.408809e+15	4.995131e+13	1.369100e+04	6.543105e+03	4.385478e+03	0	1.307039e-03
2.200000e+08	1.254753e+14	0.000000e+00	8.983047e-01	1.399584e+15	1.417658e+15	4.968589e+13	1.366121e+04	6.551016e+03	4.390781e+03	0	1.302345e-03
2.300000e+08	1.241490e+14	0.000000e+00	8.983047e-01	1.387394e+15	1.422921e+15	4.942241e+13	1.363168e+04	6.555705e+03	4.393924e+03	0	1.297740e-03
2.400000e+08	1.228548e+14	0.000000e+00	8.983047e-01	1.375489e+15	1.425225e+15	4.916087e+13	1.360240e+04	6.557755e+03	4.395297e+03	0	1.293215e-03
2.500000e+08	1.215899e+14	0.000000e+00	8.983047e-01	1.363844e+15	1.425106e+15	4.890124e+13	1.357338e+04	6.557649e+03	4.395226e+03	0	1.288761e-03
2.600000e+08	1.203518e+14	0.000000e+00	8.983047e-01	1.352437e+15	1.423014e+15	4.864351e+13	1.354460e+04	6.555788e+03	4.393979e+03	0	1.284372e-03
2.700000e+08	1.191382e+14	0.000000e+00	8.983047e-01	1.341249e+15	1.419323e+15	4.838767e+13	1.351607e+04	6.552502e+03	4.391777e+03	0	1.280041e-03
2.800000e+08	1.179474e+14	0.000000e+00	8.983047e-01	1.330263e+15	1.414346e+15	4.813369e+13	1.348776e+04	6.548060e+03	4.388799e+03	0	1.275761e-03
2.900000e+08	1.167776e+14	0.000000e+00	8.983047e-01	1.319466e+15	1.408339e+15	4.788157e+13	1.345969e+04	6.542684e+03	4.385196e+03	0	1.271530e-03
3.000000e+08	1.156275e+14	0.000000e+00	8.983047e-01	1.308845e+15	1.401512e+15	4.763129e+13	1.343185e+04	6.536555e+03	4.381088e+03	0	1.267341e-03
3.100000e+08	1.144959e+14	0.000000e+00	8.983047e-01	1.298389e+15	1.394039e+15	4.738283e+13	1.340423e+04	6.529821e+03	4.376575e+03	0	1.263194e-03
3.200000e+08	1.133818e+14	0.000000e+00	8.983047e-01	1.288092e+15	1.386061e+15	4.713617e+13	1.337683e+04	6.522603e+03	4.371737e+03	0	1.259083e-03
3.300000e+08	1.122845e+14	0.000000e+00	8.983047e-01	1.277943e+15	1.377692e+15	4.689131e+13	1.334965e+04	6.514999e+03	4.366641e+03	0	1.255008e-03
3.400000e+08	1.112030e+14	0.000000e+00	8.983047e-01	1.267938e+15	1.369025e+15	4.664823e+13	1.332268e+04	6.507091e+03	4.361340e+03	0	1.250966e-03
3.500000e+08	1.101368e+14	0.000000e+00	8.983047e-01	1.258071e+15	1.360138e+15	4.640692e+13	1.329592e+04	6.498944e+03	4.355880e+03	0	1.246955e-03
3.600000e+08	1.090854e+14	0.000000e+00	8.983047e-01	1.248336e+15	1.351090e+15	4.616735e+13	1.326937e+04	6.490611e+03	4.350294e+03	0	1.242974e-03
3.700000e+08	1.080482e+14	0.000000e+00	8.983047e-01	1.238729e+15	1.341933e+15	4.592951e+13	1.324302e+04	6.482136e+03	4.344614e+03	0	1.239022e-03
3.800000e+08	1.070248e+14	0.000000e+00	8.983047e-01	1.229247e+15	1.332707e+15	4.569340e+13	1.321688e+04	6.473555e+03	4.338863e+03	0	1.235098e-03
3.900000e+08	1.060147e+14	0.000000e+00	8.983047e-01	1.219885e+15	1.323443e+15	4.545900e+13	1.319093e+04	6.464897e+03	4.333060e+03	0	1.231200e-03
4.000000e+08	1.050177e+14	0.000000e+00	8.983047e-01	1.210642e+15	1.314169e+15	4.522628e+13	1.316518e+04	6.456186e+03	4.327221e+03	0	1.227329e-03
4.100000e+08	1.040335e+14	0.000000e+00	8.983047e-01	1.201513e+15	1.304906e+15	4.499525e+13	1.313963e+04	6.447441e+03	4.321360e+03	0	1.223482e-03
4.200000e+08	1.030616e+14	0.000000e+00	8.983047e-01	1.192496e+15	1.295670e+15	4.476588e+13	1.311427e+04	6.438678e+03	4.315487e+03	0	1.219661e-03
4.300000e+08	1.021019e+14	0.000000e+00	8.983047e-01	1.183590e+15	1.286476e+15	4.453816e+13	1.308910e+04	6.429909e+03	4.309610e+03	0	1.215863e-03
4.400000e+08	1.011541e+14	0.000000e+00	8.983047e-01	1.174790e+15	1.277335e+15	4.431209e+13	1.306412e+04	6.421147e+03	4.303736e+03	0	1.212089e-03
4.500000e+08	1.002180e+14	0.000000e+00	8.983047e-01	1.166097e+15	1.268254e+15	4.408763e+13	1.303932e+04	6.412397e+03	4.297872e+03	0	1.208338e-03
4.600000e+08	9.929325e+13	0.000000e+00	8.983047e-01	1.157506e+15	1.259241e+15	4.386479e+13	1.301470e+04	6.403669e+03	4.292022e+03	0	1.204610e-03
4.700000e+08	9.837974e+13	0.000000e+00	8.983047e-01	1.149018e+15	1.250301e+15	4.364354e+13	1.299027e+04	6.394968e+03	4.286190e+03	0	1.200905e-03
4.800000e+08	9.747724e+13	0.000000e+00	8.983047e-01	1.140628e+15	1.241438e+15	4.342388e+13	1.296602e+04	6.386297e+03	4.280379e+03	0	1.197221e-03
4.900000e+08	9.658555e+13	0.000000e+00	8.983047e-01	1.132337e+15	1.232656e+15	4.320580e+13	1.294194e+04	6.377661e+03	4.274590e+03	0	1.193559e-03
5.000000e+08	9.570448e+13	0.000000e+00	8.983047e-01	1.124142e+15	1.223956e+15	4.298927e+13	1.291803e+04	6.369063e+03	4.268827e+03	0	1.189919e-03
5.100000e+08	9.483385e+13	0.000000e+00	8.983047e-01	1.116042e+15	1.215340e+15	4.277429e+13	1.289430e+04	6.360504e+03	4.263091e+03	0	1.186300e-03
5.200000e+08	9.397349e+13	0.000000e+00	8.983047e-01	1.108034e+15	1.206809e+15	4.256084e+13	1.287074e+04	6.351988e+03	4.257383e+03	0	1.182701e-03
5.300000e+08	9.312323e+13	0.000000e+00	8.983047e-01	1.100119e+15	1.198365e+15	4.234892e+13	1.284735e+04	6.343515e+03	4.251704e+03	0	1.179124e-03
5.400000e+08	9.228290e+13	0.000000e+00	8.983047e-01	1.092293e+15	1.190007e+15	4.213850e+13	1.282413e+04	6.335086e+03	4.246055e+03	0	1.175566e-03
5.500000e+08	9.145234e+13	0.000000e+00	8.983047e-01	1.084556e+15	1.181735e+15	4.192959e+13	1.280107e+04	6.326703e+03	4.240436e+03	0	1.172029e-03
5.600000e+08	9.063140e+13	0.000000e+00	8.983047e-01	1.076906e+15	1.173550e+15	4.172216e+13	1.277817e+04	6.318365e+03	4.234848e+03	0	1.168511e-03
5.700000e+08	8.981992e+13	0.000000e+00	8.983047e-01	1.069342e+15	1.165450e+15	4.151620e+13	1.275543e+04	6.310074e+03	4.229290e+03	0	1.165013e-03
5.800000e+08	8.901776e+13	0.000000e+00	8.983047e-01	1.061862e+15	1.157435e+15	4.131170e+13	1.273285e+04	6.301829e+03	4.223765e+03	0	1.161535e-03
5.900000e+08	8.822477e+13	0.000000e+00	8.983047e-01	1.054466e+15	1.149506e+15	4.110865e+13	1.271044e+04	6.293631e+03	4.218270e+03	0	1.158075e-03
6.000000e+08	8.744081e+13	0.000000e+00	8.983047e-01	1.047152e+15	1.141661e+15	4.090704e+13	1.268817e+04	6.285480e+03	4.212807e+03	0	1.154635e-03
6.100000e+08	8.666573e+13	0.000000e+00	8.983047e-01	1.039918e+15	1.133898e+15	4.070686e+13	1.266606e+04	6.277376e+03	4.207375e+03	0	1.151213e-03
6.200000e+08	8.589942e+13	0.000000e+00	8.983047e-01	1.032764e+15	1.126218e+15	4.050809e+13	1.264411e+04	6.269318e+03	4.201974e+03	0	1.147810e-03
6.300000e+08	8.514172e+13	0.000000e+00	8.983047e-01	1.025688e+15	1.118619e+15	4.031072e+13	1.262230e+04	6.261307e+03	4.196605e+03	0	1.144425e-03
6.400000e+08	8.439252e+13	0.000000e+00	8.983047e-01	1.018689e+15	1.111101e+15	4.011474e+13	1.260064e+04	6.253343e+03	4.191267e+03	0	1.141059e-03
6.500000e+08	8.365169e+13	0.000000e+00	8.983047e-01	1.011767e+15	1.103663e+15	3.992015e+13	1.257913e+04	6.245424e+03	4.185960e+03	0	1.137710e-03
6.600000e+08	8.291909e+13	0.000000e+00	8.983047e-01	1.004919e+15	1.096303e+15	3.972692e+13	1.255777e+04	6.237552e+03	4.180683e+03	0	1.134379e-03
6.700000e+08	8.219461e+13	0.000000e+00	8.983047e-01	9.981449e+14	1.089020e+15	3.953506e+13	1.253655e+04	6.229725e+03	4.175437e+03	0	1.131066e-03
6.800000e+08	8.147813e+13	0.000000e+00	8.983047e-01	9.914436e+14	1.081815e+15	3.934454e+13	1.251547e+04	6.221943e+03	4.170221e+03	0	1.127770e-03
6.900000e+08	8.076953e+13	0.000000e+00	8.983047e-01	9.848139e+14	1.074684e+15	3.915535e+13	1.249454e+04	6.214206e+03	4.165036e+03	0	1.124491e-03
7.000000e+08	8.006869e+13	0.000000e+00	8.983047e-01	9.782549e+14	1.067629e+15	3.896750e+13	1.247374e+04	6.206513e+03	4.159880e+03	0	1.121229e-03
7.100000e+08	7.937550e+13	0.000000e+00	8.983047e-01	9.717654e+14	1.060647e+15	3.878096e+13	1.245308e+04	6.198865e+03	4.154754e+03	0	1.117984e-03
7.200000e+08	7.868985e+13	0.000000e+00	8.983047e-01	9.653446e+14	1.053737e+15	3.859572e+13	1.243256e+04	6.191261e+03	4.149657e+03	0	1.114755e-03
7.300000e+08	7.801163e+13	0.000000e+00	8.983047e-01	9.589913e+14	1.046899e+15	3.841178e+13	1.241218e+04	6.183700e+03	4.144589e+03	0	1.111543e-03
7.400000e+08	7.734074e+13	0.000000e+00	8.983047e-01	9.527047e+14	1.040132e+15	3.822912e+13	1.239192e+04	6.176182e+03	4.139551e+03	0	1.108348e-03
7.500000e+08	7.667706e+13	0.000000e+00	8.983047e-01	9.464838e+14	1.033435e+15	3.804773e+13	1.237180e+04	6.168708e+03	4.134541e+03	0	1.105168e-03
7.600000e+08	7.602049e+13	0.000000e+00	8.983047e-01	9.403276e+14	1.026806e+15	3.786761e+13	1.235182e+04	6.161275e+03	4.129559e+03	0	1.102005e-03
7.700000e+08	7.537094e+13	0.000000e+00	8.983047e-01	9.342353e+14	1.020245e+15	3.768874e+13	1.233196e+04	6.153885e+03	4.124606e+03	0	1.098857e-03
7.800000e+08	7.472830e+13	0.000000e+00	8.983047e-01	9.282060e+14	1.013751e+15	3.751112e+13	1.231223e+04	6.146536e+03	4.119680e+03	0	1.095725e-03
7.900000e+08	7.409248e+13	0.000000e+00	8.983047e-01	9.222387e+14	1.007324e+15	3.733473e+13	1.229262e+04	6.139228e+03	4.114782e+03	0	1.092609e-03
8.000000e+08	7.346338e+13	0.000000e+00	8.983047e-01	9.163326e+14	1.000961e+15	3.715956e+13	1.227315e+04	6.131962e+03	4.109912e+03	0	1.089508e-03
8.100000e+08	7.284090e+13	0.000000e+00	8.983047e-01	9.104869e+14	9.946624e+14	3.698561e+13	1.225379e+04	6.124735e+03	4.105069e+03	0	1.086422e-03
8.200000e+08	7.222495e+13	0.000000e+00	8.983047e-01	9.047008e+14	9.884273e+14	3.681286e+13	1.223456e+04	6.117550e+03	4.100252e+03	0	1.083351e-03
8.300000e+08	7.161544e+13	0.000000e+00	8.983047e-01	8.989733e+14	9.822548e+14	3.664130e+13	1.221546e+04	6.110404e+03	4.095463e+03	0	1.080295e-03
8.400000e+08	7.101228e+13	0.000000e+00	8.983047e-01	8.933037e+14	9.761439e+14	3.647093e+13	1.219647e+04	6.103297e+03	4.090700e+03	0	1.077253e-03
8.500000e+08	7.041538e+13	0.000000e+00	8.983047e-01	8.876913e+14	9.700937e+14	3.630173e+13	1.217760e+04	6.096230e+03	4.085963e+03	0	1.074226e-03
8.600000e+08	6.982466e+13	0.000000e+00	8.983047e-01	8.821351e+14	9.641037e+14	3.613370e+13	1.215885e+04	6.089201e+03	4.081252e+03	0	1.071214e-03
8.700000e+08	6.924004e+13	0.000000e+00	8.983047e-01	8.766346e+14	9.581729e+14	3.596683e+13	1.214022e+04	6.082211e+03	4.076567e+03	0	1.068216e-03
8.800000e+08	6.866141e+13	0.000000e+00	8.983047e-01	8.711888e+14	9.523006e+14	3.580111e+13	1.212170e+04	6.075259e+03	4.071907e+03	0	1.065232e-03
8.900000e+08	6.808872e+13	0.000000e+00	8.983047e-01	8.657971e+14	9.464858e+14	3.563652e+13	1.210330e+04	6.068345e+03	4.067273e+03	0	1.062262e-03
9.000000e+08	6.752187e+13	0.000000e+00	8.983047e-01	8.604588e+14	9.407281e+14	3.547306e+13	1.208501e+04	6.061468e+03	4.062664e+03	0	1.059306e-03
9.100000e+08	6.696078e+13	0.000000e+00	8.983047e-01	8.551731e+14	9.350262e+14	3.531073e+13	1.206684e+04	6.054628e+03	4.058080e+03	0	1.056364e-03
9.200000e+08	6.640538e+13	0.000000e+00	8.983047e-01	8.499393e+14	9.293799e+14	3.514950e+13	1.204878e+04	6.047825e+03	4.053520e+03	0	1.053435e-03
9.300000e+08	6.585559e+13	0.000000e+00	8.983047e-01	8.447567e+14	9.237886e+14	3.498938e+13	1.203082e+04	6.041059e+03	4.048985e+03	0	1.050520e-03
9.400000e+08	6.531134e+13	0.000000e+00	8.983047e-01	8.396247e+14	9.182506e+14	3.483036e+13	1.201298e+04	6.034328e+03	4.044474e+03	0	1.047618e-03
9.500000e+08	6.477255e+13	0.000000e+00	8.983047e-01	8.345426e+14	9.127661e+14	3.467241e+13	1.199524e+04	6.027634e+03	4.039987e+03	0	1.044729e-03
9.600000e+08	6.423914e+13	0.000000e+00	8.983047e-01	8.295097e+14	9.073343e+14	3.451555e+13	1.197761e+04	6.020975e+03	4.035523e+03	0	1.041853e-03
9.700000e+08	6.371106e+13	0.000000e+00	8.983047e-01	8.245254e+14	9.019545e+14	3.435975e+13	1.196009e+04	6.014351e+03	4.031084e+03	0	1.038991e-03
9.800000e+08	6.318821e+13	0.000000e+00	8.983047e-01	8.195891e+14	8.966256e+14	3.420502e+13	1.194267e+04	6.007762e+03	4.026668e+03	0	1.036141e-03
9.900000e+08	6.267055e+13	0.000000e+00	8.983047e-01	8.147000e+14	8.913471e+14	3.405133e+13	1.192536e+04	6.001207e+03	4.022274e+03	0	1.033303e-03
1.000000e+09	6.215799e+13	0.000000e+00	8.983047e-01	8.098577e+14	8.861189e+14	3.389869e+13	1.190815e+04	5.994687e+03	4.017904e+03	0	1.030479e-03
1.010000e+09	6.165047e+13	0.000000e+00	8.983047e-01	8.050615e+14	8.809397e+14	3.374709e+13	1.189104e+04	5.988201e+03	4.013557e+03	0	1.027666e-03
1.020000e+09	6.114793e+13	0.000000e+00	8.983047e-01	8.003108e+14	8.758092e+14	3.359651e+13	1.187403e+04	5.981748e+03	4.009232e+03	0	1.024866e-03
1.030000e+09	6.065030e+13	0.000000e+00	8.983047e-01	7.956050e+14	8.707266e+14	3.344695e+13	1.185713e+04	5.975329e+03	4.004930e+03	0	1.022079e-03
1.040000e+09	6.015751e+13	0.000000e+00	8.983047e-01	7.909435e+14	8.656916e+14	3.329840e+13	1.184032e+04	5.968944e+03	4.000650e+03	0	1.019303e-03
1.050000e+09	5.966951e+13	0.000000e+00	8.983047e-01	7.863258e+14	8.607032e+14	3.315085e+13	1.182361e+04	5.962590e+03	3.996392e+03	0	1.016539e-03
1.060000e+09	5.918623e+13	0.000000e+00	8.983047e-01	7.817514e+14	8.557610e+14	3.300430e+13	1.180700e+04	5.956270e+03	3.992156e+03	0	1.013787e-03
1.070000e+09	5.870761e+13	0.000000e+00	8.983047e-01	7.772196e+14	8.508645e+14	3.285874e+13	1.179048e+04	5.949982e+03	3.987941e+03	0	1.011047e-03
1.080000e+09	5.823359e+13	0.000000e+00	8.983047e-01	7.727300e+14	8.460131e+14	3.271415e+13	1.177406e+04	5.943726e+03	3.983748e+03	0	1.008319e-03
1.090000e+09	5.776412e+13	0.000000e+00	8.983047e-01	7.682819e+14	8.412061e+14	3.257054e+13	1.175773e+04	5.937501e+03	3.979576e+03	0	1.005602e-03
1.100000e+09	5.729912e+13	0.000000e+00	8.983047e-01	7.638750e+14	8.364431e+14	3.242789e+13	1.174150e+04	5.931308e+03	3.975425e+03	0	1.002896e-03
1.110000e+09	5.683856e+13	0.000000e+00	8.983047e-01	7.595085e+14	8.317234e+14	3.228620e+13	1.172536e+04	5.925147e+03	3.971295e+03	0	1.000202e-03
1.120000e+09	5.638236e+13	0.000000e+00	8.983047e-01	7.551822e+14	8.270466e+14	3.214546e+13	1.170932e+04	5.919016e+03	3.967186e+03	0	9.975188e-04
1.130000e+09	5.593049e+13	0.000000e+00	8.983047e-01	7.508954e+14	8.224121e+14	3.200566e+13	1.169336e+04	5.912916e+03	3.963098e+03	0	9.948468e-04
1.140000e+09	5.548287e+13	0.000000e+00	8.983047e-01	7.466477e+14	8.178193e+14	3.186679e+13	1.167750e+04	5.906846e+03	3.959029e+03	0	9.921857e-04
1.150000e+09	5.503946e+13	0.000000e+00	8.983047e-01	7.424385e+14	8.132680e+14	3.172886e+13	1.166172e+04	5.900807e+03	3.954982e+03	0	9.895355e-04
1.160000e+09	5.460021e+13	0.000000e+00	8.983047e-01	7.382675e+14	8.087574e+14	3.159184e+13	1.164603e+04	5.894797e+03	3.950954e+03	0	9.868961e-04
1.170000e+09	5.416506e+13	0.000000e+00	8.983047e-01	7.341341e+14	8.042870e+14	3.145573e+13	1.163044e+04	5.888818e+03	3.946946e+03	0	9.842673e-04
1.180000e+09	5.373396e+13	0.000000e+00	8.983047e-01	7.300378e+14	7.998565e+14	3.132053e+13	1.161492e+04	5.882867e+03	3.942958e+03	0	9.816491e-04
1.190000e+09	5.330687e+13	0.000000e+00	8.983047e-01	7.259783e+14	7.954653e+14	3.118623e+13	1.159950e+04	5.876946e+03	3.938989e+03	0	9.790414e-04
1.200000e+09	5.288372e+13	0.000000e+00	8.983047e-01	7.219551e+14	7.911127e+14	3.105282e+13	1.158416e+04	5.871054e+03	3.935040e+03	0	9.764440e-04
1.210000e+09	5.246449e+13	0.000000e+00	8.983047e-01	7.179677e+14	7.867988e+14	3.092030e+13	1.156890e+04	5.865191e+03	3.931110e+03	0	9.738569e-04
1.220000e+09	5.204910e+13	0.000000e+00	8.983047e-01	7.140157e+14	7.825226e+14	3.078865e+13	1.155373e+04	5.859356e+03	3.927200e+03	0	9.712799e-04
1.230000e+09	5.163753e+13	0.000000e+00	8.983047e-01	7.100987e+14	7.782842e+14	3.065787e+13	1.153865e+04	5.853550e+03	3.923308e+03	0	9.687131e-04
1.240000e+09	5.122972e+13	0.000000e+00	8.983047e-01	7.062162e+14	7.740825e+14	3.052796e+13	1.152364e+04	5.847772e+03	3.919435e+03	0	9.661562e-04
1.250000e+09	5.082562e+13	0.000000e+00	8.983047e-01	7.023679e+14	7.699175e+14	3.039891e+13	1.150872e+04	5.842021e+03	3.915581e+03	0	9.636091e-04
1.260000e+09	5.042520e+13	0.000000e+00	8.983047e-01	6.985533e+14	7.657886e+14	3.027071e+13	1.149388e+04	5.836298e+03	3.911745e+03	0	9.610719e-04
1.270000e+09	5.002841e+13	0.000000e+00	8.983047e-01	6.947720e+14	7.616954e+14	3.014335e+13	1.147912e+04	5.830603e+03	3.907928e+03	0	9.585444e-04
1.280000e+09	4.963519e+13	0.000000e+00	8.983047e-01	6.910237e+14	7.576374e+14	3.001683e+13	1.146443e+04	5.824934e+03	3.904129e+03	0	9.560264e-04
1.290000e+09	4.924552e+13	0.000000e+00	8.983047e-01	6.873079e+14	7.536145e+14	2.989114e+13	1.144983e+04	5.819293e+03	3.900348e+03	0	9.535180e-04
1.300000e+09	4.885935e+13	0.000000e+00	8.983047e-01	6.836243e+14	7.496258e+14	2.976627e+13	1.143531e+04	5.813679e+03	3.896584e+03	0	9.510190e-04
1.310000e+09	4.847663e+13	0.000000e+00	8.983047e-01	6.799724e+14	7.456715e+14	2.964223e+13	1.142086e+04	5.808091e+03	3.892839e+03	0	9.485294e-04
1.320000e+09	4.809732e+13	0.000000e+00	8.983047e-01	6.763520e+14	7.417507e+14	2.951900e+13	1.140649e+04	5.802529e+03	3.889112e+03	0	9.460490e-04
1.330000e+09	4.772139e+13	0.000000e+00	8.983047e-01	6.727626e+14	7.378630e+14	2.939657e+13	1.139220e+04	5.796993e+03	3.885401e+03	0	9.435778e-04
1.340000e+09	4.734880e+13	0.000000e+00	8.983047e-01	6.692039e+14	7.340087e+14	2.927494e+13	1.137798e+04	5.791484e+03	3.881709e+03	0	9.411156e-04
1.350000e+09	4.697950e+13	0.000000e+00	8.983047e-01	6.656755e+14	7.301866e+14	2.915411e+13	1.136384e+04	5.786000e+03	3.878033e+03	0	9.386625e-04
1.360000e+09	4.661345e+13	0.000000e+00	8.983047e-01	6.621770e+14	7.263966e+14	2.903406e+13	1.134977e+04	5.780542e+03	3.874375e+03	0	9.362182e-04
