#t		Qconv[W]	Ri[Rp]		R*[Rp]		Qc[W]		Qm[W]		Qr[W]		Tcmb[K]		Tl[K]		Tup[K]		RiFlag		Bs[T]
0.000000e+00	1.599696e+14	0.000000e+00	8.983049e-01	1.803764e+15	5.905524e+13	6.406765e+13	1.527754e+04	3.988499e+03	2.642859e+03	0	1.405167e-03
1.000000e+07	1.629910e+14	0.000000e+00	8.983049e-01	1.827763e+15	9.089800e+13	6.371267e+13	1.524669e+04	4.245320e+03	2.813035e+03	0	1.413958e-03
2.000000e+07	1.654323e+14	0.000000e+00	8.983049e-01	1.846955e+15	1.340422e+14	6.336034e+13	1.521543e+04	4.500180e+03	2.981910e+03	0	1.420982e-03
3.000000e+07	1.672672e+14	0.000000e+00	8.983049e-01	1.861126e+15	1.900303e+14	6.301065e+13	1.518385e+04	4.750654e+03	3.147879e+03	0	1.426217e-03
4.000000e+07	1.684899e+14	0.000000e+00	8.983049e-01	1.870228e+15	2.597319e+14	6.266357e+13	1.515202e+04	4.994115e+03	3.309201e+03	0	1.429684e-03
5.000000e+07	1.691173e+14	0.000000e+00	8.983049e-01	1.874405e+15	3.430828e+14	6.231907e+13	1.512004e+04	5.227866e+03	3.464089e+03	0	1.431456e-03
6.000000e+07	1.691892e+14	0.000000e+00	8.983049e-01	1.873989e+15	4.389329e+14	6.197715e+13	1.508798e+04	5.449318e+03	3.610827e+03	0	1.431659e-03
7.000000e+07	1.687652e+14	0.000000e+00	8.983049e-01	1.869474e+15	5.450572e+14	6.163776e+13	1.505593e+04	5.656171e+03	3.747893e+03	0	1.430462e-03
8.000000e+07	1.679192e+14	0.000000e+00	8.983049e-01	1.861474e+15	6.583471e+14	6.130091e+13	1.502396e+04	5.846583e+03	3.874063e+03	0	1.428067e-03
9.000000e+07	1.667328e+14	0.000000e+00	8.983049e-01	1.850665e+15	7.751508e+14	6.096656e+13	1.499213e+04	6.019286e+03	3.988500e+03	0	1.424696e-03
1.000000e+08	1.652878e+14	0.000000e+00	8.983049e-01	1.837724e+15	8.916882e+14	6.063469e+13	1.496048e+04	6.173648e+03	4.090783e+03	0	1.420569e-03
1.100000e+08	1.636604e+14	0.000000e+00	8.983049e-01	1.823283e+15	1.004452e+15	6.030528e+13	1.492905e+04	6.309656e+03	4.180905e+03	0	1.415891e-03
1.200000e+08	1.619167e+14	0.000000e+00	8.983049e-01	1.807888e+15	1.110517e+15	5.997832e+13	1.489787e+04	6.427855e+03	4.259226e+03	0	1.410845e-03
1.300000e+08	1.601104e+14	0.000000e+00	8.983049e-01	1.791984e+15	1.207720e+15	5.965377e+13	1.486695e+04	6.529231e+03	4.326400e+03	0	1.405578e-03
1.400000e+08	1.582826e+14	0.000000e+00	8.983049e-01	1.775912e+15	1.294705e+15	5.933163e+13	1.483630e+04	6.615086e+03	4.383289e+03	0	1.400210e-03
1.500000e+08	1.564631e+14	0.000000e+00	8.983049e-01	1.759915e+15	1.370855e+15	5.901187e+13	1.480593e+04	6.686912e+03	4.430882e+03	0	1.394823e-03
1.600000e+08	1.546714e+14	0.000000e+00	8.983049e-01	1.744158e+15	1.436176e+15	5.869447e+13	1.477583e+04	6.746276e+03	4.470218e+03	0	1.389479e-03
1.700000e+08	1.529195e+14	0.000000e+00	8.983049e-01	1.728738e+15	1.491125e+15	5.837942e+13	1.474600e+04	6.794736e+03	4.502329e+03	0	1.384213e-03
1.800000e+08	1.512137e+14	0.000000e+00	8.983049e-01	1.713707e+15	1.536471e+15	5.806668e+13	1.471644e+04	6.833772e+03	4.528195e+03	0	1.379047e-03
1.900000e+08	1.495560e+14	0.000000e+00	8.983049e-01	1.699083e+15	1.573151e+15	5.775625e+13	1.468713e+04	6.864750e+03	4.548722e+03	0	1.373989e-03
2.000000e+08	1.479462e+14	0.000000e+00	8.983049e-01	1.684861e+15	1.602173e+15	5.744811e+13	1.465806e+04	6.888898e+03	4.564722e+03	0	1.369041e-03
2.100000e+08	1.463819e+14	0.000000e+00	8.983049e-01	1.671024e+15	1.624541e+15	5.714223e+13	1.462925e+04	6.907297e+03	4.576914e+03	0	1.364199e-03
2.200000e+08	1.448605e+14	0.000000e+00	8.983049e-01	1.657548e+15	1.641205e+15	5.683859e+13	1.460066e+04	6.920886e+03	4.585918e+03	0	1.359456e-03
2.300000e+08	1.433786e+14	0.000000e+00	8.983049e-01	1.644406e+15	1.653032e+15	5.653719e+13	1.457231e+04	6.930472e+03	4.592270e+03	0	1.354805e-03
2.400000e+08	1.419329e+14	0.000000e+00	8.983049e-01	1.631571e+15	1.660797e+15	5.623799e+13	1.454419e+04	6.936739e+03	4.596423e+03	0	1.350236e-03
2.500000e+08	1.405203e+14	0.000000e+00	8.983049e-01	1.619016e+15	1.665175e+15	5.594099e+13	1.451628e+04	6.940262e+03	4.598757e+03	0	1.345741e-03
2.600000e+08	1.391379e+14	0.000000e+00	8.983049e-01	1.606717e+15	1.666746e+15	5.564616e+13	1.448858e+04	6.941525e+03	4.599594e+03	0	1.341314e-03
2.700000e+08	1.377832e+14	0.000000e+00	8.983049e-01	1.594654e+15	1.666006e+15	5.535348e+13	1.446110e+04	6.940931e+03	4.599200e+03	0	1.336946e-03
2.800000e+08	1.364539e+14	0.000000e+00	8.983049e-01	1.582807e+15	1.663373e+15	5.506294e+13	1.443382e+04	6.938813e+03	4.597797e+03	0	1.332633e-03
2.900000e+08	1.351480e+14	0.000000e+00	8.983049e-01	1.571161e+15	1.659195e+15	5.477453e+13	1.440674e+04	6.935447e+03	4.595567e+03	0	1.328368e-03
3.000000e+08	1.338639e+14	0.000000e+00	8.983049e-01	1.559701e+15	1.653765e+15	5.448821e+13	1.437987e+04	6.931064e+03	4.592663e+03	0	1.324148e-03
3.100000e+08	1.326002e+14	0.000000e+00	8.983049e-01	1.548414e+15	1.647323e+15	5.420398e+13	1.435319e+04	6.925851e+03	4.589208e+03	0	1.319968e-03
3.200000e+08	1.313555e+14	0.000000e+00	8.983049e-01	1.537292e+15	1.640070e+15	5.392182e+13	1.432670e+04	6.919964e+03	4.585307e+03	0	1.315825e-03
3.300000e+08	1.301288e+14	0.000000e+00	8.983049e-01	1.526324e+15	1.632169e+15	5.364171e+13	1.430040e+04	6.913530e+03	4.581044e+03	0	1.311716e-03
3.400000e+08	1.289192e+14	0.000000e+00	8.983049e-01	1.515504e+15	1.623756e+15	5.336364e+13	1.427429e+04	6.906654e+03	4.576488e+03	0	1.307639e-03
3.500000e+08	1.277259e+14	0.000000e+00	8.983049e-01	1.504824e+15	1.614942e+15	5.308758e+13	1.424836e+04	6.899424e+03	4.571697e+03	0	1.303592e-03
3.600000e+08	1.265482e+14	0.000000e+00	8.983049e-01	1.494279e+15	1.605819e+15	5.281353e+13	1.422261e+04	6.891910e+03	4.566718e+03	0	1.299573e-03
3.700000e+08	1.253856e+14	0.000000e+00	8.983049e-01	1.483863e+15	1.596461e+15	5.254146e+13	1.419705e+04	6.884170e+03	4.561590e+03	0	1.295581e-03
3.800000e+08	1.242375e+14	0.000000e+00	8.983049e-01	1.473574e+15	1.586928e+15	5.227135e+13	1.417166e+04	6.876253e+03	4.556344e+03	0	1.291614e-03
3.900000e+08	1.231034e+14	0.000000e+00	8.983049e-01	1.463405e+15	1.577271e+15	5.200320e+13	1.414645e+04	6.868198e+03	4.551006e+03	0	1.287672e-03
4.000000e+08	1.219829e+14	0.000000e+00	8.983049e-01	1.453355e+15	1.567531e+15	5.173699e+13	1.412141e+04	6.860038e+03	4.545599e+03	0	1.283753e-03
4.100000e+08	1.208757e+14	0.000000e+00	8.983049e-01	1.443421e+15	1.557740e+15	5.147270e+13	1.409655e+04	6.851799e+03	4.540140e+03	0	1.279858e-03
4.200000e+08	1.197815e+14	0.000000e+00	8.983049e-01	1.433598e+15	1.547926e+15	5.121031e+13	1.407185e+04	6.843503e+03	4.534643e+03	0	1.275984e-03
4.300000e+08	1.186999e+14	0.000000e+00	8.983049e-01	1.423886e+15	1.538111e+15	5.094981e+13	1.404732e+04	6.835169e+03	4.529121e+03	0	1.272132e-03
4.400000e+08	1.176307e+14	0.000000e+00	8.983049e-01	1.414280e+15	1.528313e+15	5.069118e+13	1.402296e+04	6.826811e+03	4.523582e+03	0	1.268300e-03
4.500000e+08	1.165736e+14	0.000000e+00	8.983049e-01	1.404780e+15	1.518546e+15	5.043442e+13	1.399876e+04	6.818441e+03	4.518036e+03	0	1.264490e-03
4.600000e+08	1.155284e+14	0.000000e+00	8.983049e-01	1.395384e+15	1.508822e+15	5.017949e+13	1.397472e+04	6.810070e+03	4.512489e+03	0	1.260699e-03
4.700000e+08	1.144948e+14	0.000000e+00	8.983049e-01	1.386089e+15	1.499150e+15	4.992640e+13	1.395085e+04	6.801705e+03	4.506946e+03	0	1.256928e-03
4.800000e+08	1.134727e+14	0.000000e+00	8.983049e-01	1.376893e+15	1.489538e+15	4.967512e+13	1.392713e+04	6.793354e+03	4.501413e+03	0	1.253177e-03
4.900000e+08	1.124618e+14	0.000000e+00	8.983049e-01	1.367795e+15	1.479991e+15	4.942564e+13	1.390357e+04	6.785021e+03	4.495891e+03	0	1.249444e-03
5.000000e+08	1.114620e+14	0.000000e+00	8.983049e-01	1.358794e+15	1.470515e+15	4.917794e+13	1.388016e+04	6.776712e+03	4.490386e+03	0	1.245731e-03
5.100000e+08	1.104730e+14	0.000000e+00	8.983049e-01	1.349888e+15	1.461113e+15	4.893201e+13	1.385691e+04	6.768430e+03	4.484898e+03	0	1.242036e-03
5.200000e+08	1.094948e+14	0.000000e+00	8.983049e-01	1.341074e+15	1.451788e+15	4.868784e+13	1.383381e+04	6.760178e+03	4.479430e+03	0	1.238359e-03
5.300000e+08	1.085271e+14	0.000000e+00	8.983049e-01	1.332353e+15	1.442543e+15	4.844540e+13	1.381086e+04	6.751958e+03	4.473983e+03	0	1.234700e-03
5.400000e+08	1.075698e+14	0.000000e+00	8.983049e-01	1.323722e+15	1.433378e+15	4.820470e+13	1.378806e+04	6.743773e+03	4.468560e+03	0	1.231059e-03
5.500000e+08	1.066227e+14	0.000000e+00	8.983049e-01	1.315180e+15	1.424295e+15	4.796571e+13	1.376541e+04	6.735624e+03	4.463160e+03	0	1.227435e-03
5.600000e+08	1.056857e+14	0.000000e+00	8.983049e-01	1.306726e+15	1.415294e+15	4.772841e+13	1.374290e+04	6.727513e+03	4.457785e+03	0	1.223829e-03
5.700000e+08	1.047586e+14	0.000000e+00	8.983049e-01	1.298358e+15	1.406377e+15	4.749280e+13	1.372054e+04	6.719439e+03	4.452435e+03	0	1.220240e-03
5.800000e+08	1.038412e+14	0.000000e+00	8.983049e-01	1.290076e+15	1.397542e+15	4.725887e+13	1.369832e+04	6.711404e+03	4.447112e+03	0	1.216668e-03
5.900000e+08	1.029335e+14	0.000000e+00	8.983049e-01	1.281877e+15	1.388790e+15	4.702659e+13	1.367624e+04	6.703409e+03	4.441814e+03	0	1.213112e-03
6.000000e+08	1.020353e+14	0.000000e+00	8.983049e-01	1.273762e+15	1.380121e+15	4.679595e+13	1.365430e+04	6.695454e+03	4.436543e+03	0	1.209573e-03
6.100000e+08	1.011465e+14	0.000000e+00	8.983049e-01	1.265729e+15	1.371535e+15	4.656695e+13	1.363250e+04	6.687539e+03	4.431298e+03	0	1.206051e-03
6.200000e+08	1.002668e+14	0.000000e+00	8.983049e-01	1.257775e+15	1.363030e+15	4.633957e+13	1.361084e+04	6.679665e+03	4.426080e+03	0	1.202544e-03
6.300000e+08	9.939633e+13	0.000000e+00	8.983049e-01	1.249902e+15	1.354607e+15	4.611379e+13	1.358931e+04	6.671831e+03	4.420889e+03	0	1.199054e-03
6.400000e+08	9.853478e+13	0.000000e+00	8.983049e-01	1.242107e+15	1.346265e+15	4.588960e+13	1.356792e+04	6.664038e+03	4.415725e+03	0	1.195580e-03
6.500000e+08	9.768208e+13	0.000000e+00	8.983049e-01	1.234389e+15	1.338002e+15	4.566699e+13	1.354666e+04	6.656284e+03	4.410588e+03	0	1.192121e-03
6.600000e+08	9.683811e+13	0.000000e+00	8.983049e-01	1.226748e+15	1.329818e+15	4.544595e+13	1.352554e+04	6.648572e+03	4.405477e+03	0	1.188678e-03
6.700000e+08	9.600274e+13	0.000000e+00	8.983049e-01	1.219181e+15	1.321713e+15	4.522646e+13	1.350454e+04	6.640899e+03	4.400394e+03	0	1.185250e-03
6.800000e+08	9.517587e+13	0.000000e+00	8.983049e-01	1.211689e+15	1.313686e+15	4.500852e+13	1.348367e+04	6.633267e+03	4.395336e+03	0	1.181837e-03
6.900000e+08	9.435737e+13	0.000000e+00	8.983049e-01	1.204271e+15	1.305735e+15	4.479210e+13	1.346293e+04	6.625675e+03	4.390305e+03	0	1.178439e-03
7.000000e+08	9.354714e+13	0.000000e+00	8.983049e-01	1.196924e+15	1.297861e+15	4.457720e+13	1.344232e+04	6.618122e+03	4.385301e+03	0	1.175057e-03
7.100000e+08	9.274506e+13	0.000000e+00	8.983049e-01	1.189649e+15	1.290060e+15	4.436380e+13	1.342183e+04	6.610609e+03	4.380322e+03	0	1.171689e-03
7.200000e+08	9.195102e+13	0.000000e+00	8.983049e-01	1.182444e+15	1.282335e+15	4.415190e+13	1.340147e+04	6.603135e+03	4.375370e+03	0	1.168335e-03
7.300000e+08	9.116492e+13	0.000000e+00	8.983049e-01	1.175309e+15	1.274682e+15	4.394148e+13	1.338123e+04	6.595699e+03	4.370443e+03	0	1.164996e-03
7.400000e+08	9.038665e+13	0.000000e+00	8.983049e-01	1.168243e+15	1.267102e+15	4.373252e+13	1.336111e+04	6.588303e+03	4.365542e+03	0	1.161672e-03
7.500000e+08	8.961611e+13	0.000000e+00	8.983049e-01	1.161244e+15	1.259594e+15	4.352503e+13	1.334112e+04	6.580945e+03	4.360666e+03	0	1.158361e-03
7.600000e+08	8.885320e+13	0.000000e+00	8.983049e-01	1.154311e+15	1.252156e+15	4.331898e+13	1.332124e+04	6.573625e+03	4.355816e+03	0	1.155065e-03
7.700000e+08	8.809781e+13	0.000000e+00	8.983049e-01	1.147445e+15	1.244787e+15	4.311436e+13	1.330148e+04	6.566343e+03	4.350991e+03	0	1.151782e-03
7.800000e+08	8.734984e+13	0.000000e+00	8.983049e-01	1.140644e+15	1.237488e+15	4.291116e+13	1.328184e+04	6.559098e+03	4.346190e+03	0	1.148513e-03
7.900000e+08	8.660921e+13	0.000000e+00	8.983049e-01	1.133907e+15	1.230257e+15	4.270938e+13	1.326231e+04	6.551891e+03	4.341415e+03	0	1.145258e-03
8.000000e+08	8.587581e+13	0.000000e+00	8.983049e-01	1.127234e+15	1.223094e+15	4.250899e+13	1.324290e+04	6.544721e+03	4.336663e+03	0	1.142016e-03
8.100000e+08	8.514955e+13	0.000000e+00	8.983049e-01	1.120623e+15	1.215997e+15	4.231000e+13	1.322360e+04	6.537587e+03	4.331937e+03	0	1.138788e-03
8.200000e+08	8.443035e+13	0.000000e+00	8.983049e-01	1.114074e+15	1.208965e+15	4.211238e+13	1.320442e+04	6.530490e+03	4.327234e+03	0	1.135572e-03
8.300000e+08	8.371810e+13	0.000000e+00	8.983049e-01	1.107586e+15	1.201998e+15	4.191612e+13	1.318535e+04	6.523429e+03	4.322555e+03	0	1.132370e-03
8.400000e+08	8.301272e+13	0.000000e+00	8.983049e-01	1.101158e+15	1.195095e+15	4.172123e+13	1.316639e+04	6.516403e+03	4.317900e+03	0	1.129181e-03
8.500000e+08	8.231412e+13	0.000000e+00	8.983049e-01	1.094790e+15	1.188256e+15	4.152767e+13	1.314754e+04	6.509413e+03	4.313268e+03	0	1.126004e-03
8.600000e+08	8.162222e+13	0.000000e+00	8.983049e-01	1.088480e+15	1.181479e+15	4.133546e+13	1.312879e+04	6.502459e+03	4.308660e+03	0	1.122841e-03
8.700000e+08	8.093693e+13	0.000000e+00	8.983049e-01	1.082229e+15	1.174763e+15	4.114456e+13	1.311016e+04	6.495539e+03	4.304075e+03	0	1.119689e-03
8.800000e+08	8.025816e+13	0.000000e+00	8.983049e-01	1.076035e+15	1.168109e+15	4.095498e+13	1.309163e+04	6.488654e+03	4.299513e+03	0	1.116550e-03
8.900000e+08	7.958584e+13	0.000000e+00	8.983049e-01	1.069897e+15	1.161515e+15	4.076670e+13	1.307321e+04	6.481804e+03	4.294974e+03	0	1.113424e-03
9.000000e+08	7.891988e+13	0.000000e+00	8.983049e-01	1.063816e+15	1.154980e+15	4.057971e+13	1.305489e+04	6.474988e+03	4.290457e+03	0	1.110310e-03
9.100000e+08	7.826021e+13	0.000000e+00	8.983049e-01	1.057789e+15	1.148504e+15	4.039401e+13	1.303668e+04	6.468205e+03	4.285963e+03	0	1.107207e-03
9.200000e+08	7.760674e+13	0.000000e+00	8.983049e-01	1.051817e+15	1.142086e+15	4.020957e+13	1.301857e+04	6.461456e+03	4.281491e+03	0	1.104117e-03
9.300000e+08	7.695939e+13	0.000000e+00	8.983049e-01	1.045899e+15	1.135726e+15	4.002640e+13	1.300056e+04	6.454740e+03	4.277041e+03	0	1.101039e-03
9.400000e+08	7.631810e+13	0.000000e+00	8.983049e-01	1.040035e+15	1.129422e+15	3.984448e+13	1.298266e+04	6.448058e+03	4.272613e+03	0	1.097972e-03
9.500000e+08	7.568279e+13	0.000000e+00	8.983049e-01	1.034222e+15	1.123174e+15	3.966380e+13	1.296485e+04	6.441408e+03	4.268206e+03	0	1.094917e-03
9.600000e+08	7.505338e+13	0.000000e+00	8.983049e-01	1.028462e+15	1.116981e+15	3.948435e+13	1.294714e+04	6.434791e+03	4.263822e+03	0	1.091873e-03
9.700000e+08	7.442980e+13	0.000000e+00	8.983049e-01	1.022753e+15	1.110843e+15	3.930613e+13	1.292953e+04	6.428205e+03	4.259458e+03	0	1.088840e-03
9.800000e+08	7.381198e+13	0.000000e+00	8.983049e-01	1.017095e+15	1.104759e+15	3.912912e+13	1.291202e+04	6.421652e+03	4.255116e+03	0	1.085819e-03
9.900000e+08	7.319984e+13	0.000000e+00	8.983049e-01	1.011486e+15	1.098729e+15	3.895331e+13	1.289461e+04	6.415131e+03	4.250795e+03	0	1.082809e-03
1.000000e+09	7.259333e+13	0.000000e+00	8.983049e-01	1.005928e+15	1.092751e+15	3.877869e+13	1.287729e+04	6.408641e+03	4.246495e+03	0	1.079810e-03
1.010000e+09	7.199236e+13	0.000000e+00	8.983049e-01	1.000418e+15	1.086825e+15	3.860526e+13	1.286007e+04	6.402183e+03	4.242215e+03	0	1.076822e-03
1.020000e+09	7.139688e+13	0.000000e+00	8.983049e-01	9.949559e+14	1.080950e+15	3.843301e+13	1.284294e+04	6.395755e+03	4.237956e+03	0	1.073845e-03
1.030000e+09	7.080682e+13	0.000000e+00	8.983049e-01	9.895419e+14	1.075127e+15	3.826192e+13	1.282590e+04	6.389358e+03	4.233717e+03	0	1.070879e-03
1.040000e+09	7.022211e+13	0.000000e+00	8.983049e-01	9.841751e+14	1.069354e+15	3.809198e+13	1.280896e+04	6.382992e+03	4.229499e+03	0	1.067923e-03
1.050000e+09	6.964268e+13	0.000000e+00	8.983049e-01	9.788549e+14	1.063630e+15	3.792320e+13	1.279211e+04	6.376656e+03	4.225300e+03	0	1.064978e-03
1.060000e+09	6.906848e+13	0.000000e+00	8.983049e-01	9.735807e+14	1.057956e+15	3.775555e+13	1.277535e+04	6.370350e+03	4.221122e+03	0	1.062043e-03
1.070000e+09	6.849944e+13	0.000000e+00	8.983049e-01	9.683521e+14	1.052330e+15	3.758903e+13	1.275867e+04	6.364074e+03	4.216963e+03	0	1.059118e-03
1.080000e+09	6.793550e+13	0.000000e+00	8.983049e-01	9.631684e+14	1.046752e+15	3.742363e+13	1.274209e+04	6.357827e+03	4.212824e+03	0	1.056203e-03
1.090000e+09	6.737661e+13	0.000000e+00	8.983049e-01	9.580291e+14	1.041221e+15	3.725934e+13	1.272560e+04	6.351610e+03	4.208704e+03	0	1.053299e-03
1.100000e+09	6.682269e+13	0.000000e+00	8.983049e-01	9.529338e+14	1.035738e+15	3.709616e+13	1.270920e+04	6.345421e+03	4.204604e+03	0	1.050405e-03
1.110000e+09	6.627369e+13	0.000000e+00	8.983049e-01	9.478819e+14	1.030300e+15	3.693407e+13	1.269288e+04	6.339262e+03	4.200523e+03	0	1.047520e-03
1.120000e+09	6.572956e+13	0.000000e+00	8.983049e-01	9.428729e+14	1.024909e+15	3.677307e+13	1.267665e+04	6.333132e+03	4.196460e+03	0	1.044645e-03
1.130000e+09	6.519023e+13	0.000000e+00	8.983049e-01	9.379064e+14	1.019563e+15	3.661314e+13	1.266050e+04	6.327029e+03	4.192417e+03	0	1.041780e-03
1.140000e+09	6.465565e+13	0.000000e+00	8.983049e-01	9.329818e+14	1.014261e+15	3.645429e+13	1.264444e+04	6.320956e+03	4.188392e+03	0	1.038925e-03
1.150000e+09	6.412577e+13	0.000000e+00	8.983049e-01	9.280986e+14	1.009004e+15	3.629649e+13	1.262846e+04	6.314910e+03	4.184386e+03	0	1.036079e-03
1.160000e+09	6.360053e+13	0.000000e+00	8.983049e-01	9.232564e+14	1.003791e+15	3.613975e+13	1.261257e+04	6.308892e+03	4.180398e+03	0	1.033242e-03
1.170000e+09	6.307988e+13	0.000000e+00	8.983049e-01	9.184548e+14	9.986205e+14	3.598405e+13	1.259676e+04	6.302901e+03	4.176429e+03	0	1.030415e-03
1.180000e+09	6.256375e+13	0.000000e+00	8.983049e-01	9.136932e+14	9.934932e+14	3.582939e+13	1.258103e+04	6.296938e+03	4.172478e+03	0	1.027597e-03
1.190000e+09	6.205211e+13	0.000000e+00	8.983049e-01	9.089712e+14	9.884081e+14	3.567575e+13	1.256538e+04	6.291002e+03	4.168545e+03	0	1.024788e-03
1.200000e+09	6.154490e+13	0.000000e+00	8.983049e-01	9.042883e+14	9.833648e+14	3.552314e+13	1.254982e+04	6.285093e+03	4.164629e+03	0	1.021988e-03
1.210000e+09	6.104207e+13	0.000000e+00	8.983049e-01	8.996442e+14	9.783629e+14	3.537153e+13	1.253433e+04	6.279211e+03	4.160732e+03	0	1.019198e-03
1.220000e+09	6.054357e+13	0.000000e+00	8.983049e-01	8.950384e+14	9.734019e+14	3.522094e+13	1.251893e+04	6.273356e+03	4.156852e+03	0	1.016416e-03
1.230000e+09	6.004934e+13	0.000000e+00	8.983049e-01	8.904704e+14	9.684813e+14	3.507133e+13	1.250360e+04	6.267527e+03	4.152989e+03	0	1.013642e-03
1.240000e+09	5.955935e+13	0.000000e+00	8.983049e-01	8.859398e+14	9.636007e+14	3.492272e+13	1.248835e+04	6.261724e+03	4.149144e+03	0	1.010878e-03
1.250000e+09	5.907354e+13	0.000000e+00	8.983049e-01	8.814463e+14	9.587596e+14	3.477509e+13	1.247317e+04	6.255947e+03	4.145316e+03	0	1.008122e-03
1.260000e+09	5.859187e+13	0.000000e+00	8.983049e-01	8.769893e+14	9.539577e+14	3.462843e+13	1.245808e+04	6.250196e+03	4.141505e+03	0	1.005374e-03
1.270000e+09	5.811428e+13	0.000000e+00	8.983049e-01	8.725686e+14	9.491945e+14	3.448274e+13	1.244306e+04	6.244470e+03	4.137711e+03	0	1.002635e-03
1.280000e+09	5.764074e+13	0.000000e+00	8.983049e-01	8.681836e+14	9.444693e+14	3.433800e+13	1.242812e+04	6.238770e+03	4.133934e+03	0	9.999044e-04
1.290000e+09	5.717119e+13	0.000000e+00	8.983049e-01	8.638340e+14	9.397823e+14	3.419422e+13	1.241325e+04	6.233095e+03	4.130174e+03	0	9.971819e-04
1.300000e+09	5.670560e+13	0.000000e+00	8.983049e-01	8.595195e+14	9.351328e+14	3.405138e+13	1.239845e+04	6.227445e+03	4.126430e+03	0	9.944675e-04
1.310000e+09	5.624392e+13	0.000000e+00	8.983049e-01	8.552396e+14	9.305202e+14	3.390948e+13	1.238373e+04	6.221820e+03	4.122703e+03	0	9.917613e-04
1.320000e+09	5.578610e+13	0.000000e+00	8.983049e-01	8.509940e+14	9.259441e+14	3.376850e+13	1.236908e+04	6.216220e+03	4.118992e+03	0	9.890630e-04
1.330000e+09	5.533210e+13	0.000000e+00	8.983049e-01	8.467822e+14	9.214043e+14	3.362845e+13	1.235451e+04	6.210644e+03	4.115298e+03	0	9.863726e-04
1.340000e+09	5.488189e+13	0.000000e+00	8.983049e-01	8.426040e+14	9.169005e+14	3.348932e+13	1.234001e+04	6.205093e+03	4.111619e+03	0	9.836901e-04
1.350000e+09	5.443541e+13	0.000000e+00	8.983049e-01	8.384589e+14	9.124317e+14	3.335109e+13	1.232557e+04	6.199566e+03	4.107957e+03	0	9.810153e-04
1.360000e+09	5.399263e+13	0.000000e+00	8.983049e-01	8.343466e+14	9.079985e+14	3.321376e+13	1.231121e+04	6.194063e+03	4.104311e+03	0	9.783482e-04
