#t		Qconv[W]	Ri[Rp]		R*[Rp]		Qc[W]		Qm[W]		Qr[W]		Tcmb[K]		Tl[K]		Tup[K]		RiFlag		Bs[T]
0.000000e+00	2.949747e+12	0.000000e+00	3.828571e-01	1.050187e+14	8.477689e+13	2.159872e+14	7.061895e+03	3.886036e+03	2.315252e+03	0	6.151544e-04
1.000000e+07	2.858952e+12	0.000000e+00	3.828571e-01	1.019703e+14	8.635444e+13	2.147905e+14	7.023283e+03	3.897082e+03	2.321833e+03	0	6.087769e-04
2.000000e+07	2.772293e+12	0.000000e+00	3.828571e-01	9.906020e+13	8.791421e+13	2.136027e+14	6.985781e+03	3.907855e+03	2.328251e+03	0	6.025627e-04
3.000000e+07	2.689510e+12	0.000000e+00	3.828571e-01	9.627956e+13	8.945594e+13	2.124238e+14	6.949339e+03	3.918362e+03	2.334511e+03	0	5.965043e-04
4.000000e+07	2.610361e+12	0.000000e+00	3.828571e-01	9.362040e+13	9.097936e+13	2.112537e+14	6.913910e+03	3.928611e+03	2.340617e+03	0	5.905945e-04
5.000000e+07	2.534626e+12	0.000000e+00	3.828571e-01	9.107534e+13	9.248425e+13	2.100923e+14	6.879450e+03	3.938609e+03	2.346574e+03	0	5.848267e-04
6.000000e+07	2.462100e+12	0.000000e+00	3.828571e-01	8.863759e+13	9.397033e+13	2.089396e+14	6.845919e+03	3.948362e+03	2.352385e+03	0	5.791946e-04
7.000000e+07	2.392596e+12	0.000000e+00	3.828571e-01	8.630087e+13	9.543742e+13	2.077955e+14	6.813277e+03	3.957877e+03	2.358054e+03	0	5.736923e-04
8.000000e+07	2.325939e+12	0.000000e+00	3.828571e-01	8.405939e+13	9.688528e+13	2.066599e+14	6.781487e+03	3.967160e+03	2.363585e+03	0	5.683144e-04
9.000000e+07	2.261969e+12	0.000000e+00	3.828571e-01	8.190776e+13	9.831374e+13	2.055327e+14	6.750517e+03	3.976217e+03	2.368981e+03	0	5.630558e-04
1.000000e+08	2.200536e+12	0.000000e+00	3.828571e-01	7.984102e+13	9.972260e+13	2.044139e+14	6.720332e+03	3.985053e+03	2.374245e+03	0	5.579116e-04
1.100000e+08	2.141501e+12	0.000000e+00	3.828571e-01	7.785453e+13	1.011117e+14	2.033034e+14	6.690903e+03	3.993674e+03	2.379381e+03	0	5.528772e-04
1.200000e+08	2.084736e+12	0.000000e+00	3.828571e-01	7.594401e+13	1.024809e+14	2.022011e+14	6.662200e+03	4.002084e+03	2.384392e+03	0	5.479483e-04
1.300000e+08	2.030122e+12	0.000000e+00	3.828571e-01	7.410546e+13	1.038301e+14	2.011070e+14	6.634196e+03	4.010289e+03	2.389280e+03	0	5.431210e-04
1.400000e+08	1.977546e+12	0.000000e+00	3.828571e-01	7.233514e+13	1.051591e+14	2.000210e+14	6.606864e+03	4.018293e+03	2.394049e+03	0	5.383913e-04
1.500000e+08	1.926904e+12	0.000000e+00	3.828571e-01	7.062959e+13	1.064677e+14	1.989430e+14	6.580180e+03	4.026101e+03	2.398701e+03	0	5.337557e-04
1.600000e+08	1.878099e+12	0.000000e+00	3.828571e-01	6.898555e+13	1.077560e+14	1.978730e+14	6.554121e+03	4.033717e+03	2.403239e+03	0	5.292108e-04
1.700000e+08	1.831041e+12	0.000000e+00	3.828571e-01	6.740000e+13	1.090238e+14	1.968108e+14	6.528663e+03	4.041146e+03	2.407664e+03	0	5.247533e-04
1.800000e+08	1.785643e+12	0.000000e+00	3.828571e-01	6.587008e+13	1.102711e+14	1.957565e+14	6.503787e+03	4.048391e+03	2.411981e+03	0	5.203802e-04
1.900000e+08	1.741827e+12	0.000000e+00	3.828571e-01	6.439315e+13	1.114977e+14	1.947100e+14	6.479471e+03	4.055457e+03	2.416190e+03	0	5.160886e-04
2.000000e+08	1.699518e+12	0.000000e+00	3.828571e-01	6.296670e+13	1.127037e+14	1.936712e+14	6.455696e+03	4.062346e+03	2.420295e+03	0	5.118756e-04
2.100000e+08	1.658645e+12	0.000000e+00	3.828571e-01	6.158839e+13	1.138890e+14	1.926400e+14	6.432445e+03	4.069064e+03	2.424298e+03	0	5.077388e-04
2.200000e+08	1.619143e+12	0.000000e+00	3.828571e-01	6.025601e+13	1.150535e+14	1.916163e+14	6.409698e+03	4.075613e+03	2.428200e+03	0	5.036756e-04
2.300000e+08	1.580949e+12	0.000000e+00	3.828571e-01	5.896749e+13	1.161973e+14	1.906002e+14	6.387441e+03	4.081998e+03	2.432003e+03	0	4.996837e-04
2.400000e+08	1.544005e+12	0.000000e+00	3.828571e-01	5.772089e+13	1.173203e+14	1.895916e+14	6.365656e+03	4.088221e+03	2.435711e+03	0	4.957608e-04
2.500000e+08	1.508257e+12	0.000000e+00	3.828571e-01	5.651435e+13	1.184226e+14	1.885903e+14	6.344329e+03	4.094285e+03	2.439324e+03	0	4.919047e-04
2.600000e+08	1.473651e+12	0.000000e+00	3.828571e-01	5.534616e+13	1.195042e+14	1.875964e+14	6.323445e+03	4.100195e+03	2.442845e+03	0	4.881135e-04
2.700000e+08	1.440140e+12	0.000000e+00	3.828571e-01	5.421466e+13	1.205651e+14	1.866097e+14	6.302990e+03	4.105953e+03	2.446275e+03	0	4.843852e-04
2.800000e+08	1.407677e+12	0.000000e+00	3.828571e-01	5.311831e+13	1.216053e+14	1.856302e+14	6.282950e+03	4.111562e+03	2.449617e+03	0	4.807178e-04
2.900000e+08	1.376218e+12	0.000000e+00	3.828571e-01	5.205566e+13	1.226249e+14	1.846579e+14	6.263313e+03	4.117025e+03	2.452872e+03	0	4.771098e-04
3.000000e+08	1.345722e+12	0.000000e+00	3.828571e-01	5.102531e+13	1.236239e+14	1.836927e+14	6.244067e+03	4.122344e+03	2.456041e+03	0	4.735593e-04
3.100000e+08	1.316149e+12	0.000000e+00	3.828571e-01	5.002596e+13	1.246025e+14	1.827345e+14	6.225199e+03	4.127524e+03	2.459127e+03	0	4.700647e-04
3.200000e+08	1.287463e+12	0.000000e+00	3.828571e-01	4.905636e+13	1.255607e+14	1.817832e+14	6.206699e+03	4.132566e+03	2.462132e+03	0	4.666245e-04
3.300000e+08	1.259629e+12	0.000000e+00	3.828571e-01	4.811534e+13	1.264985e+14	1.808389e+14	6.188555e+03	4.137474e+03	2.465055e+03	0	4.632372e-04
3.400000e+08	1.232612e+12	0.000000e+00	3.828571e-01	4.720178e+13	1.274161e+14	1.799015e+14	6.170757e+03	4.142249e+03	2.467900e+03	0	4.599013e-04
3.500000e+08	1.206381e+12	0.000000e+00	3.828571e-01	4.631461e+13	1.283136e+14	1.789708e+14	6.153295e+03	4.146895e+03	2.470668e+03	0	4.566156e-04
3.600000e+08	1.180906e+12	0.000000e+00	3.828571e-01	4.545283e+13	1.291911e+14	1.780469e+14	6.136159e+03	4.151414e+03	2.473360e+03	0	4.533786e-04
3.700000e+08	1.156159e+12	0.000000e+00	3.828571e-01	4.461547e+13	1.300487e+14	1.771297e+14	6.119341e+03	4.155808e+03	2.475978e+03	0	4.501892e-04
3.800000e+08	1.132112e+12	0.000000e+00	3.828571e-01	4.380163e+13	1.308865e+14	1.762191e+14	6.102830e+03	4.160079e+03	2.478523e+03	0	4.470461e-04
3.900000e+08	1.108739e+12	0.000000e+00	3.828571e-01	4.301044e+13	1.317046e+14	1.753151e+14	6.086619e+03	4.164231e+03	2.480997e+03	0	4.439482e-04
4.000000e+08	1.086015e+12	0.000000e+00	3.828571e-01	4.224106e+13	1.325032e+14	1.744176e+14	6.070700e+03	4.168266e+03	2.483401e+03	0	4.408943e-04
4.100000e+08	1.063917e+12	0.000000e+00	3.828571e-01	4.149272e+13	1.332824e+14	1.735266e+14	6.055063e+03	4.172184e+03	2.485735e+03	0	4.378834e-04
4.200000e+08	1.042422e+12	0.000000e+00	3.828571e-01	4.076464e+13	1.340425e+14	1.726421e+14	6.039703e+03	4.175990e+03	2.488003e+03	0	4.349144e-04
4.300000e+08	1.021509e+12	0.000000e+00	3.828571e-01	4.005613e+13	1.347834e+14	1.717639e+14	6.024610e+03	4.179685e+03	2.490204e+03	0	4.319863e-04
4.400000e+08	1.001158e+12	0.000000e+00	3.828571e-01	3.936648e+13	1.355055e+14	1.708920e+14	6.009779e+03	4.183271e+03	2.492341e+03	0	4.290982e-04
4.500000e+08	9.813481e+11	0.000000e+00	3.828571e-01	3.869505e+13	1.362088e+14	1.700264e+14	5.995201e+03	4.186750e+03	2.494413e+03	0	4.262492e-04
4.600000e+08	9.620616e+11	0.000000e+00	3.828571e-01	3.804121e+13	1.368935e+14	1.691669e+14	5.980871e+03	4.190124e+03	2.496424e+03	0	4.234383e-04
4.700000e+08	9.432802e+11	0.000000e+00	3.828571e-01	3.740436e+13	1.375598e+14	1.683137e+14	5.966782e+03	4.193396e+03	2.498373e+03	0	4.206648e-04
4.800000e+08	9.249870e+11	0.000000e+00	3.828571e-01	3.678392e+13	1.382078e+14	1.674666e+14	5.952927e+03	4.196566e+03	2.500262e+03	0	4.179276e-04
4.900000e+08	9.071654e+11	0.000000e+00	3.828571e-01	3.617935e+13	1.388378e+14	1.666255e+14	5.939302e+03	4.199638e+03	2.502092e+03	0	4.152262e-04
5.000000e+08	8.897999e+11	0.000000e+00	3.828571e-01	3.559012e+13	1.394500e+14	1.657905e+14	5.925899e+03	4.202612e+03	2.503864e+03	0	4.125596e-04
5.100000e+08	8.728754e+11	0.000000e+00	3.828571e-01	3.501572e+13	1.400445e+14	1.649614e+14	5.912713e+03	4.205492e+03	2.505580e+03	0	4.099271e-04
5.200000e+08	8.563775e+11	0.000000e+00	3.828571e-01	3.445568e+13	1.406215e+14	1.641382e+14	5.899739e+03	4.208278e+03	2.507239e+03	0	4.073280e-04
5.300000e+08	8.402923e+11	0.000000e+00	3.828571e-01	3.390953e+13	1.411812e+14	1.633209e+14	5.886972e+03	4.210972e+03	2.508845e+03	0	4.047616e-04
5.400000e+08	8.246067e+11	0.000000e+00	3.828571e-01	3.337683e+13	1.417237e+14	1.625094e+14	5.874406e+03	4.213576e+03	2.510396e+03	0	4.022273e-04
5.500000e+08	8.093078e+11	0.000000e+00	3.828571e-01	3.285714e+13	1.422494e+14	1.617037e+14	5.862037e+03	4.216093e+03	2.511895e+03	0	3.997242e-04
5.600000e+08	7.943836e+11	0.000000e+00	3.828571e-01	3.235007e+13	1.427584e+14	1.609038e+14	5.849860e+03	4.218522e+03	2.513343e+03	0	3.972519e-04
5.700000e+08	7.798221e+11	0.000000e+00	3.828571e-01	3.185521e+13	1.432509e+14	1.601095e+14	5.837869e+03	4.220867e+03	2.514740e+03	0	3.948096e-04
5.800000e+08	7.656123e+11	0.000000e+00	3.828571e-01	3.137219e+13	1.437271e+14	1.593208e+14	5.826061e+03	4.223128e+03	2.516087e+03	0	3.923969e-04
5.900000e+08	7.517431e+11	0.000000e+00	3.828571e-01	3.090064e+13	1.441873e+14	1.585378e+14	5.814432e+03	4.225308e+03	2.517386e+03	0	3.900130e-04
6.000000e+08	7.382043e+11	0.000000e+00	3.828571e-01	3.044021e+13	1.446315e+14	1.577602e+14	5.802976e+03	4.227408e+03	2.518637e+03	0	3.876574e-04
6.100000e+08	7.249857e+11	0.000000e+00	3.828571e-01	2.999058e+13	1.450601e+14	1.569882e+14	5.791691e+03	4.229429e+03	2.519841e+03	0	3.853296e-04
6.200000e+08	7.120778e+11	0.000000e+00	3.828571e-01	2.955140e+13	1.454732e+14	1.562216e+14	5.780571e+03	4.231373e+03	2.520999e+03	0	3.830290e-04
6.300000e+08	6.994711e+11	0.000000e+00	3.828571e-01	2.912238e+13	1.458710e+14	1.554605e+14	5.769614e+03	4.233241e+03	2.522112e+03	0	3.807552e-04
6.400000e+08	6.871568e+11	0.000000e+00	3.828571e-01	2.870321e+13	1.462538e+14	1.547047e+14	5.758815e+03	4.235035e+03	2.523181e+03	0	3.785075e-04
6.500000e+08	6.751263e+11	0.000000e+00	3.828571e-01	2.829360e+13	1.466218e+14	1.539542e+14	5.748171e+03	4.236756e+03	2.524206e+03	0	3.762856e-04
6.600000e+08	6.633713e+11	0.000000e+00	3.828571e-01	2.789328e+13	1.469752e+14	1.532090e+14	5.737678e+03	4.238406e+03	2.525189e+03	0	3.740889e-04
6.700000e+08	6.518836e+11	0.000000e+00	3.828571e-01	2.750196e+13	1.473141e+14	1.524691e+14	5.727333e+03	4.239985e+03	2.526130e+03	0	3.719169e-04
6.800000e+08	6.406557e+11	0.000000e+00	3.828571e-01	2.711941e+13	1.476389e+14	1.517344e+14	5.717133e+03	4.241496e+03	2.527031e+03	0	3.697692e-04
6.900000e+08	6.296800e+11	0.000000e+00	3.828571e-01	2.674535e+13	1.479497e+14	1.510048e+14	5.707073e+03	4.242940e+03	2.527891e+03	0	3.676454e-04
7.000000e+08	6.189494e+11	0.000000e+00	3.828571e-01	2.637956e+13	1.482467e+14	1.502803e+14	5.697153e+03	4.244318e+03	2.528712e+03	0	3.655451e-04
7.100000e+08	6.084569e+11	0.000000e+00	3.828571e-01	2.602180e+13	1.485302e+14	1.495609e+14	5.687367e+03	4.245630e+03	2.529494e+03	0	3.634677e-04
7.200000e+08	5.981959e+11	0.000000e+00	3.828571e-01	2.567185e+13	1.488003e+14	1.488465e+14	5.677713e+03	4.246880e+03	2.530238e+03	0	3.614129e-04
7.300000e+08	5.881598e+11	0.000000e+00	3.828571e-01	2.532948e+13	1.490572e+14	1.481371e+14	5.668189e+03	4.248067e+03	2.530945e+03	0	3.593804e-04
7.400000e+08	5.783425e+11	0.000000e+00	3.828571e-01	2.499449e+13	1.493013e+14	1.474327e+14	5.658791e+03	4.249192e+03	2.531616e+03	0	3.573696e-04
7.500000e+08	5.687378e+11	0.000000e+00	3.828571e-01	2.466668e+13	1.495326e+14	1.467332e+14	5.649517e+03	4.250258e+03	2.532251e+03	0	3.553802e-04
7.600000e+08	5.593400e+11	0.000000e+00	3.828571e-01	2.434584e+13	1.497514e+14	1.460385e+14	5.640365e+03	4.251265e+03	2.532851e+03	0	3.534119e-04
7.700000e+08	5.501434e+11	0.000000e+00	3.828571e-01	2.403180e+13	1.499579e+14	1.453487e+14	5.631331e+03	4.252214e+03	2.533416e+03	0	3.514643e-04
7.800000e+08	5.411425e+11	0.000000e+00	3.828571e-01	2.372436e+13	1.501522e+14	1.446637e+14	5.622413e+03	4.253107e+03	2.533948e+03	0	3.495370e-04
7.900000e+08	5.323322e+11	0.000000e+00	3.828571e-01	2.342335e+13	1.503347e+14	1.439834e+14	5.613608e+03	4.253945e+03	2.534447e+03	0	3.476296e-04
8.000000e+08	5.237072e+11	0.000000e+00	3.828571e-01	2.312859e+13	1.505055e+14	1.433079e+14	5.604915e+03	4.254728e+03	2.534914e+03	0	3.457419e-04
8.100000e+08	5.152627e+11	0.000000e+00	3.828571e-01	2.283993e+13	1.506649e+14	1.426370e+14	5.596331e+03	4.255457e+03	2.535348e+03	0	3.438736e-04
8.200000e+08	5.069938e+11	0.000000e+00	3.828571e-01	2.255720e+13	1.508129e+14	1.419708e+14	5.587854e+03	4.256135e+03	2.535752e+03	0	3.420242e-04
8.300000e+08	4.988960e+11	0.000000e+00	3.828571e-01	2.228025e+13	1.509498e+14	1.413092e+14	5.579481e+03	4.256761e+03	2.536125e+03	0	3.401934e-04
8.400000e+08	4.909647e+11	0.000000e+00	3.828571e-01	2.200892e+13	1.510758e+14	1.406521e+14	5.571211e+03	4.257337e+03	2.536468e+03	0	3.383810e-04
8.500000e+08	4.831957e+11	0.000000e+00	3.828571e-01	2.174306e+13	1.511911e+14	1.399996e+14	5.563041e+03	4.257864e+03	2.536782e+03	0	3.365867e-04
8.600000e+08	4.755847e+11	0.000000e+00	3.828571e-01	2.148255e+13	1.512959e+14	1.393516e+14	5.554970e+03	4.258342e+03	2.537067e+03	0	3.348101e-04
8.700000e+08	4.681276e+11	0.000000e+00	3.828571e-01	2.122724e+13	1.513904e+14	1.387080e+14	5.546995e+03	4.258774e+03	2.537324e+03	0	3.330509e-04
8.800000e+08	4.608206e+11	0.000000e+00	3.828571e-01	2.097699e+13	1.514748e+14	1.380689e+14	5.539114e+03	4.259159e+03	2.537554e+03	0	3.313090e-04
8.900000e+08	4.536597e+11	0.000000e+00	3.828571e-01	2.073169e+13	1.515492e+14	1.374342e+14	5.531326e+03	4.259498e+03	2.537756e+03	0	3.295839e-04
9.000000e+08	4.466413e+11	0.000000e+00	3.828571e-01	2.049119e+13	1.516139e+14	1.368038e+14	5.523628e+03	4.259793e+03	2.537931e+03	0	3.278754e-04
9.100000e+08	4.397618e+11	0.000000e+00	3.828571e-01	2.025540e+13	1.516690e+14	1.361777e+14	5.516020e+03	4.260044e+03	2.538081e+03	0	3.261833e-04
9.200000e+08	4.330177e+11	0.000000e+00	3.828571e-01	2.002418e+13	1.517147e+14	1.355560e+14	5.508499e+03	4.260252e+03	2.538205e+03	0	3.245073e-04
9.300000e+08	4.264056e+11	0.000000e+00	3.828571e-01	1.979742e+13	1.517512e+14	1.349385e+14	5.501063e+03	4.260419e+03	2.538304e+03	0	3.228471e-04
9.400000e+08	4.199223e+11	0.000000e+00	3.828571e-01	1.957501e+13	1.517787e+14	1.343252e+14	5.493712e+03	4.260544e+03	2.538379e+03	0	3.212025e-04
9.500000e+08	4.135645e+11	0.000000e+00	3.828571e-01	1.935685e+13	1.517974e+14	1.337161e+14	5.486442e+03	4.260629e+03	2.538430e+03	0	3.195732e-04
9.600000e+08	4.073291e+11	0.000000e+00	3.828571e-01	1.914283e+13	1.518074e+14	1.331111e+14	5.479254e+03	4.260674e+03	2.538457e+03	0	3.179589e-04
9.700000e+08	4.012132e+11	0.000000e+00	3.828571e-01	1.893285e+13	1.518089e+14	1.325103e+14	5.472145e+03	4.260681e+03	2.538461e+03	0	3.163596e-04
9.800000e+08	3.952139e+11	0.000000e+00	3.828571e-01	1.872681e+13	1.518020e+14	1.319135e+14	5.465113e+03	4.260650e+03	2.538442e+03	0	3.147748e-04
9.900000e+08	3.893283e+11	0.000000e+00	3.828571e-01	1.852462e+13	1.517870e+14	1.313208e+14	5.458158e+03	4.260582e+03	2.538402e+03	0	3.132044e-04
1.000000e+09	3.835537e+11	0.000000e+00	3.828571e-01	1.832619e+13	1.517641e+14	1.307322e+14	5.451277e+03	4.260477e+03	2.538339e+03	0	3.116482e-04
1.010000e+09	3.778875e+11	0.000000e+00	3.828571e-01	1.813142e+13	1.517333e+14	1.301475e+14	5.444470e+03	4.260337e+03	2.538256e+03	0	3.101059e-04
1.020000e+09	3.723269e+11	0.000000e+00	3.828571e-01	1.794022e+13	1.516948e+14	1.295668e+14	5.437735e+03	4.260162e+03	2.538151e+03	0	3.085773e-04
1.030000e+09	3.668696e+11	0.000000e+00	3.828571e-01	1.775252e+13	1.516488e+14	1.289900e+14	5.431071e+03	4.259952e+03	2.538026e+03	0	3.070623e-04
1.040000e+09	3.615130e+11	0.000000e+00	3.828571e-01	1.756823e+13	1.515955e+14	1.284171e+14	5.424477e+03	4.259709e+03	2.537882e+03	0	3.055605e-04
1.050000e+09	3.562549e+11	0.000000e+00	3.828571e-01	1.738728e+13	1.515350e+14	1.278481e+14	5.417950e+03	4.259433e+03	2.537717e+03	0	3.040718e-04
1.060000e+09	3.510928e+11	0.000000e+00	3.828571e-01	1.720957e+13	1.514674e+14	1.272829e+14	5.411491e+03	4.259125e+03	2.537534e+03	0	3.025960e-04
1.070000e+09	3.460245e+11	0.000000e+00	3.828571e-01	1.703504e+13	1.513930e+14	1.267215e+14	5.405098e+03	4.258786e+03	2.537331e+03	0	3.011329e-04
1.080000e+09	3.410479e+11	0.000000e+00	3.828571e-01	1.686362e+13	1.513118e+14	1.261639e+14	5.398769e+03	4.258415e+03	2.537111e+03	0	2.996823e-04
1.090000e+09	3.361609e+11	0.000000e+00	3.828571e-01	1.669522e+13	1.512240e+14	1.256101e+14	5.392503e+03	4.258015e+03	2.536872e+03	0	2.982439e-04
1.100000e+09	3.313613e+11	0.000000e+00	3.828571e-01	1.652979e+13	1.511299e+14	1.250599e+14	5.386300e+03	4.257584e+03	2.536616e+03	0	2.968177e-04
1.110000e+09	3.266472e+11	0.000000e+00	3.828571e-01	1.636726e+13	1.510294e+14	1.245135e+14	5.380159e+03	4.257125e+03	2.536342e+03	0	2.954034e-04
1.120000e+09	3.220166e+11	0.000000e+00	3.828571e-01	1.620755e+13	1.509227e+14	1.239707e+14	5.374077e+03	4.256637e+03	2.536051e+03	0	2.940009e-04
1.130000e+09	3.174675e+11	0.000000e+00	3.828571e-01	1.605061e+13	1.508100e+14	1.234316e+14	5.368055e+03	4.256122e+03	2.535744e+03	0	2.926099e-04
1.140000e+09	3.129983e+11	0.000000e+00	3.828571e-01	1.589638e+13	1.506915e+14	1.228960e+14	5.362091e+03	4.255579e+03	2.535421e+03	0	2.912303e-04
1.150000e+09	3.086070e+11	0.000000e+00	3.828571e-01	1.574478e+13	1.505672e+14	1.223641e+14	5.356184e+03	4.255010e+03	2.535082e+03	0	2.898619e-04
1.160000e+09	3.042919e+11	0.000000e+00	3.828571e-01	1.559577e+13	1.504373e+14	1.218356e+14	5.350333e+03	4.254415e+03	2.534727e+03	0	2.885046e-04
1.170000e+09	3.000514e+11	0.000000e+00	3.828571e-01	1.544928e+13	1.503018e+14	1.213107e+14	5.344537e+03	4.253794e+03	2.534357e+03	0	2.871581e-04
1.180000e+09	2.958837e+11	0.000000e+00	3.828571e-01	1.530527e+13	1.501611e+14	1.207893e+14	5.338796e+03	4.253148e+03	2.533972e+03	0	2.858224e-04
1.190000e+09	2.917872e+11	0.000000e+00	3.828571e-01	1.516367e+13	1.500151e+14	1.202714e+14	5.333108e+03	4.252477e+03	2.533573e+03	0	2.844972e-04
1.200000e+09	2.877603e+11	0.000000e+00	3.828571e-01	1.502443e+13	1.498640e+14	1.197569e+14	5.327472e+03	4.251783e+03	2.533159e+03	0	2.831824e-04
1.210000e+09	2.838016e+11	0.000000e+00	3.828571e-01	1.488750e+13	1.497080e+14	1.192458e+14	5.321888e+03	4.251065e+03	2.532732e+03	0	2.818778e-04
1.220000e+09	2.799096e+11	0.000000e+00	3.828571e-01	1.475283e+13	1.495470e+14	1.187381e+14	5.316355e+03	4.250325e+03	2.532290e+03	0	2.805833e-04
1.230000e+09	2.760827e+11	0.000000e+00	3.828571e-01	1.462037e+13	1.493813e+14	1.182338e+14	5.310872e+03	4.249561e+03	2.531836e+03	0	2.792987e-04
1.240000e+09	2.723196e+11	0.000000e+00	3.828571e-01	1.449008e+13	1.492110e+14	1.177328e+14	5.305437e+03	4.248776e+03	2.531368e+03	0	2.780239e-04
1.250000e+09	2.686188e+11	0.000000e+00	3.828571e-01	1.436190e+13	1.490362e+14	1.172351e+14	5.300051e+03	4.247970e+03	2.530887e+03	0	2.767588e-04
1.260000e+09	2.649791e+11	0.000000e+00	3.828571e-01	1.423580e+13	1.488570e+14	1.167406e+14	5.294713e+03	4.247142e+03	2.530394e+03	0	2.755031e-04
1.270000e+09	2.613992e+11	0.000000e+00	3.828571e-01	1.411172e+13	1.486735e+14	1.162495e+14	5.289421e+03	4.246294e+03	2.529889e+03	0	2.742567e-04
1.280000e+09	2.578776e+11	0.000000e+00	3.828571e-01	1.398963e+13	1.484858e+14	1.157615e+14	5.284176e+03	4.245425e+03	2.529371e+03	0	2.730196e-04
1.290000e+09	2.544133e+11	0.000000e+00	3.828571e-01	1.386948e+13	1.482941e+14	1.152768e+14	5.278975e+03	4.244537e+03	2.528842e+03	0	2.717915e-04
1.300000e+09	2.510050e+11	0.000000e+00	3.828571e-01	1.375123e+13	1.480983e+14	1.147953e+14	5.273819e+03	4.243630e+03	2.528302e+03	0	2.705723e-04
1.310000e+09	2.476516e+11	0.000000e+00	3.828571e-01	1.363484e+13	1.478987e+14	1.143169e+14	5.268707e+03	4.242703e+03	2.527750e+03	0	2.693619e-04
1.320000e+09	2.443517e+11	0.000000e+00	3.828571e-01	1.352027e+13	1.476954e+14	1.138416e+14	5.263639e+03	4.241759e+03	2.527187e+03	0	2.681602e-04
1.330000e+09	2.411045e+11	0.000000e+00	3.828571e-01	1.340749e+13	1.474884e+14	1.133695e+14	5.258612e+03	4.240796e+03	2.526613e+03	0	2.669670e-04
1.340000e+09	2.379086e+11	0.000000e+00	3.828571e-01	1.329646e+13	1.472777e+14	1.129004e+14	5.253627e+03	4.239816e+03	2.526029e+03	0	2.657822e-04
1.350000e+09	2.347632e+11	0.000000e+00	3.828571e-01	1.318714e+13	1.470637e+14	1.124344e+14	5.248684e+03	4.238818e+03	2.525435e+03	0	2.646057e-04
1.360000e+09	2.316670e+11	0.000000e+00	3.828571e-01	1.307949e+13	1.468463e+14	1.119714e+14	5.243781e+03	4.237804e+03	2.524831e+03	0	2.634373e-04
