#t		Qconv[W]	Ri[Rp]		R*[Rp]		Qc[W]		Qm[W]		Qr[W]		Tcmb[K]		Tl[K]		Tup[K]		RiFlag		Bs[T]
0.000000e+00	7.645672e+12	0.000000e+00	3.828570e-01	2.376151e+14	9.130681e+13	2.479794e+14	8.279591e+03	4.276181e+03	2.340079e+03	0	8.335700e-04
1.000000e+07	7.288853e+12	0.000000e+00	3.828570e-01	2.269425e+14	9.364594e+13	2.466054e+14	8.204917e+03	4.292787e+03	2.349167e+03	0	8.203955e-04
2.000000e+07	6.957350e+12	0.000000e+00	3.828570e-01	2.170245e+14	9.594205e+13	2.452417e+14	8.133546e+03	4.308785e+03	2.357921e+03	0	8.077646e-04
3.000000e+07	6.648703e+12	0.000000e+00	3.828570e-01	2.077879e+14	9.819590e+13	2.438882e+14	8.065249e+03	4.324209e+03	2.366362e+03	0	7.956386e-04
4.000000e+07	6.360751e+12	0.000000e+00	3.828570e-01	1.991682e+14	1.004082e+14	2.425448e+14	7.999817e+03	4.339091e+03	2.374506e+03	0	7.839824e-04
5.000000e+07	6.091592e+12	0.000000e+00	3.828570e-01	1.911090e+14	1.025795e+14	2.412114e+14	7.937062e+03	4.353459e+03	2.382369e+03	0	7.727645e-04
6.000000e+07	5.839544e+12	0.000000e+00	3.828570e-01	1.835602e+14	1.047105e+14	2.398879e+14	7.876813e+03	4.367339e+03	2.389964e+03	0	7.619559e-04
7.000000e+07	5.603115e+12	0.000000e+00	3.828570e-01	1.764773e+14	1.068018e+14	2.385743e+14	7.818912e+03	4.380754e+03	2.397305e+03	0	7.515307e-04
8.000000e+07	5.380979e+12	0.000000e+00	3.828570e-01	1.698209e+14	1.088538e+14	2.372705e+14	7.763217e+03	4.393726e+03	2.404404e+03	0	7.414650e-04
9.000000e+07	5.171950e+12	0.000000e+00	3.828570e-01	1.635555e+14	1.108671e+14	2.359764e+14	7.709597e+03	4.406276e+03	2.411272e+03	0	7.317369e-04
1.000000e+08	4.974968e+12	0.000000e+00	3.828570e-01	1.576498e+14	1.128421e+14	2.346918e+14	7.657932e+03	4.418422e+03	2.417919e+03	0	7.223267e-04
1.100000e+08	4.789082e+12	0.000000e+00	3.828570e-01	1.520753e+14	1.147794e+14	2.334168e+14	7.608110e+03	4.430181e+03	2.424353e+03	0	7.132158e-04
1.200000e+08	4.613435e+12	0.000000e+00	3.828570e-01	1.468065e+14	1.166793e+14	2.321513e+14	7.560030e+03	4.441569e+03	2.430585e+03	0	7.043875e-04
1.300000e+08	4.447255e+12	0.000000e+00	3.828570e-01	1.418205e+14	1.185424e+14	2.308951e+14	7.513598e+03	4.452601e+03	2.436623e+03	0	6.958264e-04
1.400000e+08	4.289843e+12	0.000000e+00	3.828570e-01	1.370963e+14	1.203689e+14	2.296482e+14	7.468725e+03	4.463291e+03	2.442473e+03	0	6.875179e-04
1.500000e+08	4.140567e+12	0.000000e+00	3.828570e-01	1.326152e+14	1.221593e+14	2.284106e+14	7.425331e+03	4.473652e+03	2.448142e+03	0	6.794490e-04
1.600000e+08	3.998853e+12	0.000000e+00	3.828570e-01	1.283600e+14	1.239141e+14	2.271821e+14	7.383341e+03	4.483696e+03	2.453639e+03	0	6.716072e-04
1.700000e+08	3.864176e+12	0.000000e+00	3.828570e-01	1.243151e+14	1.256335e+14	2.259626e+14	7.342685e+03	4.493435e+03	2.458969e+03	0	6.639813e-04
1.800000e+08	3.736061e+12	0.000000e+00	3.828570e-01	1.204663e+14	1.273179e+14	2.247522e+14	7.303297e+03	4.502880e+03	2.464137e+03	0	6.565607e-04
1.900000e+08	3.614070e+12	0.000000e+00	3.828570e-01	1.168006e+14	1.289678e+14	2.235506e+14	7.265117e+03	4.512039e+03	2.469150e+03	0	6.493354e-04
2.000000e+08	3.497806e+12	0.000000e+00	3.828570e-01	1.133062e+14	1.305834e+14	2.223579e+14	7.228088e+03	4.520925e+03	2.474012e+03	0	6.422964e-04
2.100000e+08	3.386903e+12	0.000000e+00	3.828570e-01	1.099720e+14	1.321652e+14	2.211740e+14	7.192157e+03	4.529544e+03	2.478729e+03	0	6.354350e-04
2.200000e+08	3.281024e+12	0.000000e+00	3.828570e-01	1.067881e+14	1.337134e+14	2.199987e+14	7.157273e+03	4.537906e+03	2.483305e+03	0	6.287433e-04
2.300000e+08	3.179861e+12	0.000000e+00	3.828570e-01	1.037453e+14	1.352285e+14	2.188321e+14	7.123390e+03	4.546019e+03	2.487744e+03	0	6.222137e-04
2.400000e+08	3.083128e+12	0.000000e+00	3.828570e-01	1.008351e+14	1.367108e+14	2.176740e+14	7.090465e+03	4.553890e+03	2.492052e+03	0	6.158393e-04
2.500000e+08	2.990563e+12	0.000000e+00	3.828570e-01	9.804954e+13	1.381607e+14	2.165245e+14	7.058455e+03	4.561528e+03	2.496231e+03	0	6.096135e-04
2.600000e+08	2.901923e+12	0.000000e+00	3.828570e-01	9.538148e+13	1.395784e+14	2.153833e+14	7.027322e+03	4.568939e+03	2.500287e+03	0	6.035300e-04
2.700000e+08	2.816984e+12	0.000000e+00	3.828570e-01	9.282417e+13	1.409644e+14	2.142505e+14	6.997030e+03	4.576129e+03	2.504222e+03	0	5.975831e-04
2.800000e+08	2.735535e+12	0.000000e+00	3.828570e-01	9.037140e+13	1.423190e+14	2.131259e+14	6.967543e+03	4.583105e+03	2.508039e+03	0	5.917673e-04
2.900000e+08	2.657385e+12	0.000000e+00	3.828570e-01	8.801739e+13	1.436425e+14	2.120096e+14	6.938829e+03	4.589874e+03	2.511743e+03	0	5.860775e-04
3.000000e+08	2.582354e+12	0.000000e+00	3.828570e-01	8.575677e+13	1.449352e+14	2.109014e+14	6.910857e+03	4.596440e+03	2.515337e+03	0	5.805088e-04
3.100000e+08	2.510273e+12	0.000000e+00	3.828570e-01	8.358455e+13	1.461977e+14	2.098012e+14	6.883598e+03	4.602810e+03	2.518823e+03	0	5.750565e-04
3.200000e+08	2.440988e+12	0.000000e+00	3.828570e-01	8.149608e+13	1.474301e+14	2.087091e+14	6.857025e+03	4.608989e+03	2.522204e+03	0	5.697165e-04
3.300000e+08	2.374354e+12	0.000000e+00	3.828570e-01	7.948702e+13	1.486328e+14	2.076249e+14	6.831111e+03	4.614982e+03	2.525483e+03	0	5.644845e-04
3.400000e+08	2.310234e+12	0.000000e+00	3.828570e-01	7.755331e+13	1.498062e+14	2.065486e+14	6.805831e+03	4.620794e+03	2.528664e+03	0	5.593567e-04
3.500000e+08	2.248501e+12	0.000000e+00	3.828570e-01	7.569117e+13	1.509506e+14	2.054801e+14	6.781162e+03	4.626430e+03	2.531748e+03	0	5.543294e-04
3.600000e+08	2.189038e+12	0.000000e+00	3.828570e-01	7.389705e+13	1.520664e+14	2.044194e+14	6.757081e+03	4.631894e+03	2.534738e+03	0	5.493991e-04
3.700000e+08	2.131733e+12	0.000000e+00	3.828570e-01	7.216763e+13	1.531539e+14	2.033663e+14	6.733567e+03	4.637191e+03	2.537637e+03	0	5.445626e-04
3.800000e+08	2.076481e+12	0.000000e+00	3.828570e-01	7.049980e+13	1.542135e+14	2.023208e+14	6.710599e+03	4.642325e+03	2.540446e+03	0	5.398166e-04
3.900000e+08	2.023186e+12	0.000000e+00	3.828570e-01	6.889063e+13	1.552455e+14	2.012829e+14	6.688159e+03	4.647299e+03	2.543169e+03	0	5.351581e-04
4.000000e+08	1.971755e+12	0.000000e+00	3.828570e-01	6.733738e+13	1.562503e+14	2.002525e+14	6.666228e+03	4.652119e+03	2.545806e+03	0	5.305844e-04
4.100000e+08	1.922101e+12	0.000000e+00	3.828570e-01	6.583746e+13	1.572282e+14	1.992296e+14	6.644788e+03	4.656788e+03	2.548361e+03	0	5.260927e-04
4.200000e+08	1.874145e+12	0.000000e+00	3.828570e-01	6.438845e+13	1.581796e+14	1.982140e+14	6.623822e+03	4.661310e+03	2.550836e+03	0	5.216805e-04
4.300000e+08	1.827808e+12	0.000000e+00	3.828570e-01	6.298806e+13	1.591048e+14	1.972057e+14	6.603315e+03	4.665687e+03	2.553231e+03	0	5.173452e-04
4.400000e+08	1.783019e+12	0.000000e+00	3.828570e-01	6.163412e+13	1.600042e+14	1.962046e+14	6.583252e+03	4.669925e+03	2.555550e+03	0	5.130845e-04
4.500000e+08	1.739710e+12	0.000000e+00	3.828570e-01	6.032460e+13	1.608781e+14	1.952108e+14	6.563617e+03	4.674025e+03	2.557794e+03	0	5.088961e-04
4.600000e+08	1.697816e+12	0.000000e+00	3.828570e-01	5.905757e+13	1.617269e+14	1.942241e+14	6.544397e+03	4.677991e+03	2.559964e+03	0	5.047780e-04
4.700000e+08	1.657277e+12	0.000000e+00	3.828570e-01	5.783123e+13	1.625509e+14	1.932445e+14	6.525578e+03	4.681827e+03	2.562063e+03	0	5.007281e-04
4.800000e+08	1.618036e+12	0.000000e+00	3.828570e-01	5.664384e+13	1.633505e+14	1.922719e+14	6.507147e+03	4.685535e+03	2.564093e+03	0	4.967443e-04
4.900000e+08	1.580037e+12	0.000000e+00	3.828570e-01	5.549379e+13	1.641261e+14	1.913062e+14	6.489093e+03	4.689119e+03	2.566054e+03	0	4.928249e-04
5.000000e+08	1.543230e+12	0.000000e+00	3.828570e-01	5.437953e+13	1.648779e+14	1.903475e+14	6.471404e+03	4.692581e+03	2.567948e+03	0	4.889680e-04
5.100000e+08	1.507566e+12	0.000000e+00	3.828570e-01	5.329960e+13	1.656063e+14	1.893956e+14	6.454067e+03	4.695924e+03	2.569778e+03	0	4.851719e-04
5.200000e+08	1.472998e+12	0.000000e+00	3.828570e-01	5.225261e+13	1.663116e+14	1.884505e+14	6.437073e+03	4.699151e+03	2.571544e+03	0	4.814349e-04
5.300000e+08	1.439483e+12	0.000000e+00	3.828570e-01	5.123726e+13	1.669943e+14	1.875122e+14	6.420412e+03	4.702265e+03	2.573248e+03	0	4.777555e-04
5.400000e+08	1.406978e+12	0.000000e+00	3.828570e-01	5.025229e+13	1.676547e+14	1.865805e+14	6.404072e+03	4.705267e+03	2.574891e+03	0	4.741320e-04
5.500000e+08	1.375445e+12	0.000000e+00	3.828570e-01	4.929651e+13	1.682930e+14	1.856554e+14	6.388044e+03	4.708161e+03	2.576474e+03	0	4.705632e-04
5.600000e+08	1.344845e+12	0.000000e+00	3.828570e-01	4.836880e+13	1.689097e+14	1.847370e+14	6.372320e+03	4.710949e+03	2.578000e+03	0	4.670474e-04
5.700000e+08	1.315143e+12	0.000000e+00	3.828570e-01	4.746809e+13	1.695050e+14	1.838250e+14	6.356890e+03	4.713634e+03	2.579469e+03	0	4.635834e-04
5.800000e+08	1.286305e+12	0.000000e+00	3.828570e-01	4.659335e+13	1.700794e+14	1.829196e+14	6.341747e+03	4.716217e+03	2.580883e+03	0	4.601698e-04
5.900000e+08	1.258297e+12	0.000000e+00	3.828570e-01	4.574361e+13	1.706331e+14	1.820205e+14	6.326880e+03	4.718701e+03	2.582242e+03	0	4.568055e-04
6.000000e+08	1.231090e+12	0.000000e+00	3.828570e-01	4.491794e+13	1.711665e+14	1.811278e+14	6.312284e+03	4.721088e+03	2.583549e+03	0	4.534891e-04
6.100000e+08	1.204654e+12	0.000000e+00	3.828570e-01	4.411546e+13	1.716798e+14	1.802414e+14	6.297950e+03	4.723381e+03	2.584803e+03	0	4.502195e-04
6.200000e+08	1.178961e+12	0.000000e+00	3.828570e-01	4.333532e+13	1.721735e+14	1.793613e+14	6.283870e+03	4.725581e+03	2.586007e+03	0	4.469957e-04
6.300000e+08	1.153983e+12	0.000000e+00	3.828570e-01	4.257672e+13	1.726479e+14	1.784874e+14	6.270039e+03	4.727690e+03	2.587161e+03	0	4.438164e-04
6.400000e+08	1.129695e+12	0.000000e+00	3.828570e-01	4.183889e+13	1.731033e+14	1.776197e+14	6.256448e+03	4.729711e+03	2.588267e+03	0	4.406806e-04
6.500000e+08	1.106073e+12	0.000000e+00	3.828570e-01	4.112109e+13	1.735399e+14	1.767581e+14	6.243092e+03	4.731644e+03	2.589325e+03	0	4.375874e-04
6.600000e+08	1.083093e+12	0.000000e+00	3.828570e-01	4.042263e+13	1.739582e+14	1.759025e+14	6.229964e+03	4.733494e+03	2.590337e+03	0	4.345356e-04
6.700000e+08	1.060732e+12	0.000000e+00	3.828570e-01	3.974283e+13	1.743584e+14	1.750530e+14	6.217058e+03	4.735260e+03	2.591304e+03	0	4.315245e-04
6.800000e+08	1.038970e+12	0.000000e+00	3.828570e-01	3.908104e+13	1.747409e+14	1.742094e+14	6.204368e+03	4.736945e+03	2.592226e+03	0	4.285530e-04
6.900000e+08	1.017786e+12	0.000000e+00	3.828570e-01	3.843666e+13	1.751059e+14	1.733717e+14	6.191888e+03	4.738551e+03	2.593105e+03	0	4.256203e-04
7.000000e+08	9.971600e+11	0.000000e+00	3.828570e-01	3.780909e+13	1.754538e+14	1.725399e+14	6.179613e+03	4.740079e+03	2.593941e+03	0	4.227255e-04
7.100000e+08	9.770733e+11	0.000000e+00	3.828570e-01	3.719777e+13	1.757849e+14	1.717140e+14	6.167538e+03	4.741531e+03	2.594735e+03	0	4.198678e-04
7.200000e+08	9.575080e+11	0.000000e+00	3.828570e-01	3.660216e+13	1.760995e+14	1.708938e+14	6.155657e+03	4.742908e+03	2.595489e+03	0	4.170464e-04
7.300000e+08	9.384468e+11	0.000000e+00	3.828570e-01	3.602173e+13	1.763978e+14	1.700793e+14	6.143966e+03	4.744213e+03	2.596203e+03	0	4.142604e-04
7.400000e+08	9.198730e+11	0.000000e+00	3.828570e-01	3.545600e+13	1.766802e+14	1.692705e+14	6.132459e+03	4.745447e+03	2.596879e+03	0	4.115092e-04
7.500000e+08	9.017708e+11	0.000000e+00	3.828570e-01	3.490447e+13	1.769470e+14	1.684674e+14	6.121132e+03	4.746611e+03	2.597516e+03	0	4.087919e-04
7.600000e+08	8.841249e+11	0.000000e+00	3.828570e-01	3.436671e+13	1.771984e+14	1.676699e+14	6.109980e+03	4.747707e+03	2.598115e+03	0	4.061079e-04
7.700000e+08	8.669206e+11	0.000000e+00	3.828570e-01	3.384226e+13	1.774348e+14	1.668779e+14	6.099000e+03	4.748736e+03	2.598678e+03	0	4.034564e-04
7.800000e+08	8.501440e+11	0.000000e+00	3.828570e-01	3.333070e+13	1.776563e+14	1.660914e+14	6.088187e+03	4.749700e+03	2.599206e+03	0	4.008369e-04
7.900000e+08	8.337813e+11	0.000000e+00	3.828570e-01	3.283163e+13	1.778634e+14	1.653104e+14	6.077536e+03	4.750600e+03	2.599698e+03	0	3.982486e-04
8.000000e+08	8.178197e+11	0.000000e+00	3.828570e-01	3.234465e+13	1.780563e+14	1.645348e+14	6.067044e+03	4.751438e+03	2.600157e+03	0	3.956909e-04
8.100000e+08	8.022466e+11	0.000000e+00	3.828570e-01	3.186939e+13	1.782352e+14	1.637645e+14	6.056707e+03	4.752214e+03	2.600582e+03	0	3.931632e-04
8.200000e+08	7.870501e+11	0.000000e+00	3.828570e-01	3.140549e+13	1.784004e+14	1.629996e+14	6.046522e+03	4.752931e+03	2.600974e+03	0	3.906648e-04
8.300000e+08	7.722184e+11	0.000000e+00	3.828570e-01	3.095260e+13	1.785523e+14	1.622400e+14	6.036484e+03	4.753588e+03	2.601334e+03	0	3.881953e-04
8.400000e+08	7.577406e+11	0.000000e+00	3.828570e-01	3.051039e+13	1.786909e+14	1.614856e+14	6.026590e+03	4.754189e+03	2.601662e+03	0	3.857540e-04
8.500000e+08	7.436058e+11	0.000000e+00	3.828570e-01	3.007853e+13	1.788167e+14	1.607365e+14	6.016837e+03	4.754733e+03	2.601960e+03	0	3.833403e-04
8.600000e+08	7.298038e+11	0.000000e+00	3.828570e-01	2.965671e+13	1.789299e+14	1.599925e+14	6.007222e+03	4.755223e+03	2.602228e+03	0	3.809538e-04
8.700000e+08	7.163246e+11	0.000000e+00	3.828570e-01	2.924464e+13	1.790306e+14	1.592536e+14	5.997741e+03	4.755659e+03	2.602467e+03	0	3.785938e-04
8.800000e+08	7.031586e+11	0.000000e+00	3.828570e-01	2.884203e+13	1.791193e+14	1.585198e+14	5.988391e+03	4.756042e+03	2.602676e+03	0	3.762599e-04
8.900000e+08	6.902966e+11	0.000000e+00	3.828570e-01	2.844859e+13	1.791961e+14	1.577911e+14	5.979169e+03	4.756374e+03	2.602858e+03	0	3.739516e-04
9.000000e+08	6.777296e+11	0.000000e+00	3.828570e-01	2.806406e+13	1.792612e+14	1.570673e+14	5.970073e+03	4.756655e+03	2.603012e+03	0	3.716685e-04
9.100000e+08	6.654491e+11	0.000000e+00	3.828570e-01	2.768819e+13	1.793149e+14	1.563485e+14	5.961100e+03	4.756887e+03	2.603139e+03	0	3.694099e-04
9.200000e+08	6.534468e+11	0.000000e+00	3.828570e-01	2.732071e+13	1.793574e+14	1.556346e+14	5.952246e+03	4.757071e+03	2.603239e+03	0	3.671754e-04
9.300000e+08	6.417147e+11	0.000000e+00	3.828570e-01	2.696140e+13	1.793891e+14	1.549257e+14	5.943509e+03	4.757207e+03	2.603314e+03	0	3.649647e-04
9.400000e+08	6.302450e+11	0.000000e+00	3.828570e-01	2.661003e+13	1.794100e+14	1.542215e+14	5.934886e+03	4.757297e+03	2.603364e+03	0	3.627772e-04
9.500000e+08	6.190304e+11	0.000000e+00	3.828570e-01	2.626635e+13	1.794204e+14	1.535222e+14	5.926376e+03	4.757343e+03	2.603388e+03	0	3.606126e-04
9.600000e+08	6.080635e+11	0.000000e+00	3.828570e-01	2.593017e+13	1.794207e+14	1.528276e+14	5.917975e+03	4.757343e+03	2.603389e+03	0	3.584703e-04
9.700000e+08	5.973376e+11	0.000000e+00	3.828570e-01	2.560126e+13	1.794108e+14	1.521378e+14	5.909681e+03	4.757301e+03	2.603365e+03	0	3.563500e-04
9.800000e+08	5.868457e+11	0.000000e+00	3.828570e-01	2.527944e+13	1.793911e+14	1.514527e+14	5.901492e+03	4.757216e+03	2.603319e+03	0	3.542514e-04
9.900000e+08	5.765816e+11	0.000000e+00	3.828570e-01	2.496449e+13	1.793619e+14	1.507722e+14	5.893406e+03	4.757090e+03	2.603250e+03	0	3.521739e-04
1.000000e+09	5.665388e+11	0.000000e+00	3.828570e-01	2.465624e+13	1.793232e+14	1.500963e+14	5.885420e+03	4.756923e+03	2.603158e+03	0	3.501172e-04
1.010000e+09	5.567114e+11	0.000000e+00	3.828570e-01	2.435450e+13	1.792754e+14	1.494250e+14	5.877532e+03	4.756716e+03	2.603045e+03	0	3.480809e-04
1.020000e+09	5.470933e+11	0.000000e+00	3.828570e-01	2.405910e+13	1.792185e+14	1.487583e+14	5.869741e+03	4.756471e+03	2.602911e+03	0	3.460647e-04
1.030000e+09	5.376791e+11	0.000000e+00	3.828570e-01	2.376986e+13	1.791529e+14	1.480961e+14	5.862043e+03	4.756187e+03	2.602756e+03	0	3.440683e-04
1.040000e+09	5.284632e+11	0.000000e+00	3.828570e-01	2.348662e+13	1.790787e+14	1.474383e+14	5.854438e+03	4.755866e+03	2.602580e+03	0	3.420911e-04
1.050000e+09	5.194403e+11	0.000000e+00	3.828570e-01	2.320922e+13	1.789961e+14	1.467850e+14	5.846923e+03	4.755509e+03	2.602385e+03	0	3.401330e-04
1.060000e+09	5.106051e+11	0.000000e+00	3.828570e-01	2.293750e+13	1.789053e+14	1.461361e+14	5.839497e+03	4.755117e+03	2.602170e+03	0	3.381935e-04
1.070000e+09	5.019529e+11	0.000000e+00	3.828570e-01	2.267132e+13	1.788065e+14	1.454916e+14	5.832157e+03	4.754689e+03	2.601936e+03	0	3.362724e-04
1.080000e+09	4.934787e+11	0.000000e+00	3.828570e-01	2.241052e+13	1.786998e+14	1.448514e+14	5.824903e+03	4.754227e+03	2.601683e+03	0	3.343693e-04
1.090000e+09	4.851779e+11	0.000000e+00	3.828570e-01	2.215498e+13	1.785855e+14	1.442155e+14	5.817731e+03	4.753732e+03	2.601412e+03	0	3.324838e-04
1.100000e+09	4.770460e+11	0.000000e+00	3.828570e-01	2.190455e+13	1.784637e+14	1.435839e+14	5.810641e+03	4.753205e+03	2.601124e+03	0	3.306158e-04
1.110000e+09	4.690785e+11	0.000000e+00	3.828570e-01	2.165909e+13	1.783346e+14	1.429565e+14	5.803631e+03	4.752645e+03	2.600817e+03	0	3.287649e-04
1.120000e+09	4.612713e+11	0.000000e+00	3.828570e-01	2.141849e+13	1.781983e+14	1.423334e+14	5.796699e+03	4.752054e+03	2.600494e+03	0	3.269307e-04
1.130000e+09	4.536202e+11	0.000000e+00	3.828570e-01	2.118262e+13	1.780551e+14	1.417144e+14	5.789844e+03	4.751433e+03	2.600154e+03	0	3.251130e-04
1.140000e+09	4.461213e+11	0.000000e+00	3.828570e-01	2.095136e+13	1.779051e+14	1.410995e+14	5.783064e+03	4.750781e+03	2.599798e+03	0	3.233115e-04
1.150000e+09	4.387707e+11	0.000000e+00	3.828570e-01	2.072459e+13	1.777485e+14	1.404887e+14	5.776358e+03	4.750101e+03	2.599425e+03	0	3.215260e-04
1.160000e+09	4.315646e+11	0.000000e+00	3.828570e-01	2.050220e+13	1.775854e+14	1.398820e+14	5.769724e+03	4.749392e+03	2.599037e+03	0	3.197561e-04
1.170000e+09	4.244994e+11	0.000000e+00	3.828570e-01	2.028408e+13	1.774161e+14	1.392794e+14	5.763161e+03	4.748655e+03	2.598634e+03	0	3.180016e-04
1.180000e+09	4.175716e+11	0.000000e+00	3.828570e-01	2.007013e+13	1.772405e+14	1.386808e+14	5.756668e+03	4.747890e+03	2.598216e+03	0	3.162621e-04
1.190000e+09	4.107778e+11	0.000000e+00	3.828570e-01	1.986023e+13	1.770589e+14	1.380861e+14	5.750243e+03	4.747099e+03	2.597783e+03	0	3.145376e-04
1.200000e+09	4.041146e+11	0.000000e+00	3.828570e-01	1.965430e+13	1.768715e+14	1.374954e+14	5.743885e+03	4.746282e+03	2.597335e+03	0	3.128276e-04
1.210000e+09	3.975788e+11	0.000000e+00	3.828570e-01	1.945223e+13	1.766784e+14	1.369086e+14	5.737593e+03	4.745439e+03	2.596874e+03	0	3.111320e-04
1.220000e+09	3.911674e+11	0.000000e+00	3.828570e-01	1.925393e+13	1.764797e+14	1.363257e+14	5.731365e+03	4.744571e+03	2.596399e+03	0	3.094504e-04
1.230000e+09	3.848772e+11	0.000000e+00	3.828570e-01	1.905931e+13	1.762756e+14	1.357467e+14	5.725201e+03	4.743679e+03	2.595911e+03	0	3.077827e-04
1.240000e+09	3.787053e+11	0.000000e+00	3.828570e-01	1.886827e+13	1.760662e+14	1.351714e+14	5.719099e+03	4.742763e+03	2.595410e+03	0	3.061287e-04
1.250000e+09	3.726489e+11	0.000000e+00	3.828570e-01	1.868074e+13	1.758516e+14	1.346000e+14	5.713057e+03	4.741823e+03	2.594895e+03	0	3.044880e-04
1.260000e+09	3.667052e+11	0.000000e+00	3.828570e-01	1.849663e+13	1.756321e+14	1.340324e+14	5.707076e+03	4.740861e+03	2.594369e+03	0	3.028605e-04
1.270000e+09	3.608715e+11	0.000000e+00	3.828570e-01	1.831585e+13	1.754076e+14	1.334684e+14	5.701153e+03	4.739876e+03	2.593830e+03	0	3.012459e-04
1.280000e+09	3.551452e+11	0.000000e+00	3.828570e-01	1.813834e+13	1.751784e+14	1.329082e+14	5.695288e+03	4.738869e+03	2.593279e+03	0	2.996440e-04
1.290000e+09	3.495237e+11	0.000000e+00	3.828570e-01	1.796400e+13	1.749446e+14	1.323517e+14	5.689480e+03	4.737841e+03	2.592716e+03	0	2.980545e-04
1.300000e+09	3.440045e+11	0.000000e+00	3.828570e-01	1.779278e+13	1.747062e+14	1.317988e+14	5.683728e+03	4.736792e+03	2.592142e+03	0	2.964774e-04
1.310000e+09	3.385853e+11	0.000000e+00	3.828570e-01	1.762459e+13	1.744635e+14	1.312496e+14	5.678030e+03	4.735723e+03	2.591557e+03	0	2.949123e-04
1.320000e+09	3.332637e+11	0.000000e+00	3.828570e-01	1.745936e+13	1.742165e+14	1.307039e+14	5.672385e+03	4.734634e+03	2.590961e+03	0	2.933591e-04
1.330000e+09	3.280374e+11	0.000000e+00	3.828570e-01	1.729702e+13	1.739654e+14	1.301619e+14	5.666794e+03	4.733525e+03	2.590355e+03	0	2.918175e-04
1.340000e+09	3.229043e+11	0.000000e+00	3.828570e-01	1.713752e+13	1.737102e+14	1.296233e+14	5.661254e+03	4.732398e+03	2.589737e+03	0	2.902874e-04
1.350000e+09	3.178621e+11	0.000000e+00	3.828570e-01	1.698078e+13	1.734512e+14	1.290883e+14	5.655765e+03	4.731252e+03	2.589110e+03	0	2.887685e-04
1.360000e+09	3.129089e+11	0.000000e+00	3.828570e-01	1.682674e+13	1.731882e+14	1.285567e+14	5.650327e+03	4.730087e+03	2.588473e+03	0	2.872607e-04
