#t		Qconv[W]	Ri[Rp]		R*[Rp]		Qc[W]		Qm[W]		Qr[W]		Tcmb[K]		Tl[K]		Tup[K]		RiFlag		Bs[T]
0.000000e+00	2.863954e+13	0.000000e+00	3.828572e-01	6.153925e+14	9.507300e+13	4.358529e+14	1.199881e+04	5.547366e+03	2.566357e+03	0	1.257607e-03
1.000000e+07	2.742445e+13	0.000000e+00	3.828572e-01	5.910924e+14	9.803132e+13	4.334379e+14	1.189789e+04	5.572105e+03	2.577802e+03	0	1.239564e-03
2.000000e+07	2.628654e+13	0.000000e+00	3.828572e-01	5.683249e+14	1.009644e+14	4.310410e+14	1.180090e+04	5.596074e+03	2.588890e+03	0	1.222177e-03
3.000000e+07	2.521908e+13	0.000000e+00	3.828572e-01	5.469566e+14	1.038719e+14	4.286621e+14	1.170759e+04	5.619314e+03	2.599642e+03	0	1.205404e-03
4.000000e+07	2.421605e+13	0.000000e+00	3.828572e-01	5.268685e+14	1.067538e+14	4.263009e+14	1.161775e+04	5.641864e+03	2.610074e+03	0	1.189207e-03
5.000000e+07	2.327209e+13	0.000000e+00	3.828572e-01	5.079545e+14	1.096098e+14	4.239573e+14	1.153116e+04	5.663757e+03	2.620202e+03	0	1.173549e-03
6.000000e+07	2.238241e+13	0.000000e+00	3.828572e-01	4.901196e+14	1.124399e+14	4.216311e+14	1.144764e+04	5.685025e+03	2.630041e+03	0	1.158400e-03
7.000000e+07	2.154270e+13	0.000000e+00	3.828572e-01	4.732784e+14	1.152437e+14	4.193223e+14	1.136702e+04	5.705697e+03	2.639605e+03	0	1.143729e-03
8.000000e+07	2.074910e+13	0.000000e+00	3.828572e-01	4.573543e+14	1.180212e+14	4.170307e+14	1.128913e+04	5.725800e+03	2.648905e+03	0	1.129508e-03
9.000000e+07	1.999809e+13	0.000000e+00	3.828572e-01	4.422781e+14	1.207723e+14	4.147561e+14	1.121384e+04	5.745358e+03	2.657953e+03	0	1.115713e-03
1.000000e+08	1.928654e+13	0.000000e+00	3.828572e-01	4.279871e+14	1.234968e+14	4.124984e+14	1.114100e+04	5.764396e+03	2.666761e+03	0	1.102320e-03
1.100000e+08	1.861157e+13	0.000000e+00	3.828572e-01	4.144246e+14	1.261945e+14	4.102574e+14	1.107048e+04	5.782934e+03	2.675337e+03	0	1.089308e-03
1.200000e+08	1.797058e+13	0.000000e+00	3.828572e-01	4.015391e+14	1.288654e+14	4.080331e+14	1.100218e+04	5.800993e+03	2.683691e+03	0	1.076656e-03
1.300000e+08	1.736123e+13	0.000000e+00	3.828572e-01	3.892838e+14	1.315093e+14	4.058252e+14	1.093598e+04	5.818591e+03	2.691833e+03	0	1.064347e-03
1.400000e+08	1.678134e+13	0.000000e+00	3.828572e-01	3.776158e+14	1.341262e+14	4.036337e+14	1.087177e+04	5.835746e+03	2.699769e+03	0	1.052362e-03
1.500000e+08	1.622896e+13	0.000000e+00	3.828572e-01	3.664962e+14	1.367159e+14	4.014583e+14	1.080947e+04	5.852474e+03	2.707508e+03	0	1.040686e-03
1.600000e+08	1.570228e+13	0.000000e+00	3.828572e-01	3.558892e+14	1.392783e+14	3.992991e+14	1.074899e+04	5.868790e+03	2.715056e+03	0	1.029304e-03
1.700000e+08	1.519965e+13	0.000000e+00	3.828572e-01	3.457620e+14	1.418134e+14	3.971557e+14	1.069024e+04	5.884709e+03	2.722421e+03	0	1.018202e-03
1.800000e+08	1.471956e+13	0.000000e+00	3.828572e-01	3.360845e+14	1.443210e+14	3.950282e+14	1.063315e+04	5.900245e+03	2.729608e+03	0	1.007367e-03
1.900000e+08	1.426061e+13	0.000000e+00	3.828572e-01	3.268291e+14	1.468011e+14	3.929164e+14	1.057764e+04	5.915410e+03	2.736624e+03	0	9.967869e-04
2.000000e+08	1.382152e+13	0.000000e+00	3.828572e-01	3.179703e+14	1.492536e+14	3.908200e+14	1.052365e+04	5.930216e+03	2.743473e+03	0	9.864495e-04
2.100000e+08	1.340111e+13	0.000000e+00	3.828572e-01	3.094844e+14	1.516785e+14	3.887391e+14	1.047110e+04	5.944675e+03	2.750162e+03	0	9.763446e-04
2.200000e+08	1.299827e+13	0.000000e+00	3.828572e-01	3.013499e+14	1.540757e+14	3.866735e+14	1.041995e+04	5.958797e+03	2.756696e+03	0	9.664620e-04
2.300000e+08	1.261200e+13	0.000000e+00	3.828572e-01	2.935465e+14	1.564452e+14	3.846230e+14	1.037012e+04	5.972593e+03	2.763078e+03	0	9.567922e-04
2.400000e+08	1.224137e+13	0.000000e+00	3.828572e-01	2.860556e+14	1.587868e+14	3.825876e+14	1.032158e+04	5.986072e+03	2.769314e+03	0	9.473263e-04
2.500000e+08	1.188550e+13	0.000000e+00	3.828572e-01	2.788599e+14	1.611006e+14	3.805671e+14	1.027427e+04	5.999244e+03	2.775408e+03	0	9.380558e-04
2.600000e+08	1.154358e+13	0.000000e+00	3.828572e-01	2.719434e+14	1.633865e+14	3.785614e+14	1.022813e+04	6.012118e+03	2.781363e+03	0	9.289729e-04
2.700000e+08	1.121486e+13	0.000000e+00	3.828572e-01	2.652911e+14	1.656446e+14	3.765703e+14	1.018313e+04	6.024701e+03	2.787185e+03	0	9.200700e-04
2.800000e+08	1.089865e+13	0.000000e+00	3.828572e-01	2.588891e+14	1.678748e+14	3.745938e+14	1.013923e+04	6.037002e+03	2.792875e+03	0	9.113400e-04
2.900000e+08	1.059428e+13	0.000000e+00	3.828572e-01	2.527244e+14	1.700770e+14	3.726317e+14	1.009637e+04	6.049028e+03	2.798439e+03	0	9.027762e-04
3.000000e+08	1.030116e+13	0.000000e+00	3.828572e-01	2.467849e+14	1.722514e+14	3.706839e+14	1.005453e+04	6.060787e+03	2.803879e+03	0	8.943724e-04
3.100000e+08	1.001872e+13	0.000000e+00	3.828572e-01	2.410593e+14	1.743979e+14	3.687502e+14	1.001366e+04	6.072285e+03	2.809198e+03	0	8.861223e-04
3.200000e+08	9.746422e+12	0.000000e+00	3.828572e-01	2.355370e+14	1.765164e+14	3.668307e+14	9.973737e+03	6.083529e+03	2.814400e+03	0	8.780205e-04
3.300000e+08	9.483768e+12	0.000000e+00	3.828572e-01	2.302080e+14	1.786072e+14	3.649251e+14	9.934719e+03	6.094526e+03	2.819488e+03	0	8.700614e-04
3.400000e+08	9.230295e+12	0.000000e+00	3.828572e-01	2.250632e+14	1.806700e+14	3.630334e+14	9.896578e+03	6.105282e+03	2.824463e+03	0	8.622399e-04
3.500000e+08	8.985566e+12	0.000000e+00	3.828572e-01	2.200937e+14	1.827051e+14	3.611554e+14	9.859284e+03	6.115802e+03	2.829330e+03	0	8.545511e-04
3.600000e+08	8.749168e+12	0.000000e+00	3.828572e-01	2.152915e+14	1.847123e+14	3.592909e+14	9.822807e+03	6.126092e+03	2.834091e+03	0	8.469905e-04
3.700000e+08	8.520718e+12	0.000000e+00	3.828572e-01	2.106487e+14	1.866919e+14	3.574400e+14	9.787121e+03	6.136157e+03	2.838747e+03	0	8.395534e-04
3.800000e+08	8.299852e+12	0.000000e+00	3.828572e-01	2.061583e+14	1.886438e+14	3.556025e+14	9.752199e+03	6.146003e+03	2.843302e+03	0	8.322358e-04
3.900000e+08	8.086229e+12	0.000000e+00	3.828572e-01	2.018132e+14	1.905681e+14	3.537783e+14	9.718017e+03	6.155635e+03	2.847758e+03	0	8.250335e-04
4.000000e+08	7.879527e+12	0.000000e+00	3.828572e-01	1.976073e+14	1.924648e+14	3.519673e+14	9.684551e+03	6.165058e+03	2.852117e+03	0	8.179429e-04
4.100000e+08	7.679443e+12	0.000000e+00	3.828572e-01	1.935343e+14	1.943341e+14	3.501693e+14	9.651778e+03	6.174275e+03	2.856382e+03	0	8.109601e-04
4.200000e+08	7.485690e+12	0.000000e+00	3.828572e-01	1.895885e+14	1.961759e+14	3.483842e+14	9.619676e+03	6.183293e+03	2.860553e+03	0	8.040818e-04
4.300000e+08	7.297998e+12	0.000000e+00	3.828572e-01	1.857646e+14	1.979905e+14	3.466121e+14	9.588224e+03	6.192114e+03	2.864634e+03	0	7.973044e-04
4.400000e+08	7.116113e+12	0.000000e+00	3.828572e-01	1.820575e+14	1.997778e+14	3.448526e+14	9.557403e+03	6.200744e+03	2.868627e+03	0	7.906250e-04
4.500000e+08	6.939791e+12	0.000000e+00	3.828572e-01	1.784624e+14	2.015380e+14	3.431058e+14	9.527194e+03	6.209186e+03	2.872532e+03	0	7.840403e-04
4.600000e+08	6.768804e+12	0.000000e+00	3.828572e-01	1.749745e+14	2.032712e+14	3.413716e+14	9.497577e+03	6.217444e+03	2.876352e+03	0	7.775474e-04
4.700000e+08	6.602936e+12	0.000000e+00	3.828572e-01	1.715898e+14	2.049774e+14	3.396498e+14	9.468536e+03	6.225522e+03	2.880090e+03	0	7.711436e-04
4.800000e+08	6.441981e+12	0.000000e+00	3.828572e-01	1.683039e+14	2.066569e+14	3.379403e+14	9.440053e+03	6.233424e+03	2.883745e+03	0	7.648261e-04
4.900000e+08	6.285744e+12	0.000000e+00	3.828572e-01	1.651131e+14	2.083096e+14	3.362431e+14	9.412113e+03	6.241153e+03	2.887321e+03	0	7.585924e-04
5.000000e+08	6.134041e+12	0.000000e+00	3.828572e-01	1.620136e+14	2.099358e+14	3.345580e+14	9.384700e+03	6.248713e+03	2.890819e+03	0	7.524399e-04
5.100000e+08	5.986696e+12	0.000000e+00	3.828572e-01	1.590019e+14	2.115356e+14	3.328849e+14	9.357798e+03	6.256108e+03	2.894239e+03	0	7.463663e-04
5.200000e+08	5.843542e+12	0.000000e+00	3.828572e-01	1.560747e+14	2.131090e+14	3.312238e+14	9.331394e+03	6.263339e+03	2.897585e+03	0	7.403692e-04
5.300000e+08	5.704421e+12	0.000000e+00	3.828572e-01	1.532288e+14	2.146563e+14	3.295746e+14	9.305473e+03	6.270412e+03	2.900857e+03	0	7.344464e-04
5.400000e+08	5.569181e+12	0.000000e+00	3.828572e-01	1.504611e+14	2.161775e+14	3.279370e+14	9.280022e+03	6.277328e+03	2.904056e+03	0	7.285959e-04
5.500000e+08	5.437679e+12	0.000000e+00	3.828572e-01	1.477689e+14	2.176729e+14	3.263112e+14	9.255029e+03	6.284091e+03	2.907185e+03	0	7.228155e-04
5.600000e+08	5.309778e+12	0.000000e+00	3.828572e-01	1.451494e+14	2.191426e+14	3.246969e+14	9.230480e+03	6.290703e+03	2.910244e+03	0	7.171033e-04
5.700000e+08	5.185348e+12	0.000000e+00	3.828572e-01	1.425998e+14	2.205866e+14	3.230940e+14	9.206365e+03	6.297168e+03	2.913235e+03	0	7.114574e-04
5.800000e+08	5.064263e+12	0.000000e+00	3.828572e-01	1.401179e+14	2.220053e+14	3.215025e+14	9.182671e+03	6.303488e+03	2.916159e+03	0	7.058759e-04
5.900000e+08	4.946406e+12	0.000000e+00	3.828572e-01	1.377011e+14	2.233986e+14	3.199223e+14	9.159387e+03	6.309667e+03	2.919017e+03	0	7.003571e-04
6.000000e+08	4.831663e+12	0.000000e+00	3.828572e-01	1.353472e+14	2.247670e+14	3.183533e+14	9.136503e+03	6.315705e+03	2.921811e+03	0	6.948992e-04
6.100000e+08	4.719925e+12	0.000000e+00	3.828572e-01	1.330540e+14	2.261103e+14	3.167954e+14	9.114008e+03	6.321607e+03	2.924541e+03	0	6.895006e-04
6.200000e+08	4.611090e+12	0.000000e+00	3.828572e-01	1.308195e+14	2.274290e+14	3.152485e+14	9.091892e+03	6.327375e+03	2.927210e+03	0	6.841597e-04
6.300000e+08	4.505059e+12	0.000000e+00	3.828572e-01	1.286417e+14	2.287230e+14	3.137125e+14	9.070147e+03	6.333011e+03	2.929817e+03	0	6.788749e-04
6.400000e+08	4.401736e+12	0.000000e+00	3.828572e-01	1.265186e+14	2.299927e+14	3.121874e+14	9.048761e+03	6.338517e+03	2.932364e+03	0	6.736447e-04
6.500000e+08	4.301032e+12	0.000000e+00	3.828572e-01	1.244485e+14	2.312382e+14	3.106730e+14	9.027727e+03	6.343897e+03	2.934853e+03	0	6.684678e-04
6.600000e+08	4.202859e+12	0.000000e+00	3.828572e-01	1.224296e+14	2.324596e+14	3.091692e+14	9.007035e+03	6.349151e+03	2.937284e+03	0	6.633425e-04
6.700000e+08	4.107134e+12	0.000000e+00	3.828572e-01	1.204603e+14	2.336572e+14	3.076761e+14	8.986678e+03	6.354283e+03	2.939658e+03	0	6.582677e-04
6.800000e+08	4.013779e+12	0.000000e+00	3.828572e-01	1.185389e+14	2.348312e+14	3.061934e+14	8.966646e+03	6.359294e+03	2.941976e+03	0	6.532420e-04
6.900000e+08	3.922717e+12	0.000000e+00	3.828572e-01	1.166639e+14	2.359817e+14	3.047211e+14	8.946933e+03	6.364187e+03	2.944240e+03	0	6.482640e-04
7.000000e+08	3.833874e+12	0.000000e+00	3.828572e-01	1.148339e+14	2.371090e+14	3.032591e+14	8.927530e+03	6.368964e+03	2.946449e+03	0	6.433326e-04
7.100000e+08	3.747180e+12	0.000000e+00	3.828572e-01	1.130474e+14	2.382132e+14	3.018074e+14	8.908430e+03	6.373626e+03	2.948606e+03	0	6.384464e-04
7.200000e+08	3.662569e+12	0.000000e+00	3.828572e-01	1.113031e+14	2.392945e+14	3.003658e+14	8.889626e+03	6.378176e+03	2.950711e+03	0	6.336044e-04
7.300000e+08	3.579975e+12	0.000000e+00	3.828572e-01	1.095997e+14	2.403532e+14	2.989343e+14	8.871111e+03	6.382616e+03	2.952766e+03	0	6.288054e-04
7.400000e+08	3.499336e+12	0.000000e+00	3.828572e-01	1.079359e+14	2.413894e+14	2.975128e+14	8.852878e+03	6.386948e+03	2.954769e+03	0	6.240482e-04
7.500000e+08	3.420592e+12	0.000000e+00	3.828572e-01	1.063105e+14	2.424034e+14	2.961012e+14	8.834921e+03	6.391173e+03	2.956724e+03	0	6.193317e-04
7.600000e+08	3.343686e+12	0.000000e+00	3.828572e-01	1.047224e+14	2.433953e+14	2.946994e+14	8.817233e+03	6.395293e+03	2.958630e+03	0	6.146550e-04
7.700000e+08	3.268563e+12	0.000000e+00	3.828572e-01	1.031705e+14	2.443654e+14	2.933074e+14	8.799808e+03	6.399311e+03	2.960489e+03	0	6.100169e-04
7.800000e+08	3.195170e+12	0.000000e+00	3.828572e-01	1.016537e+14	2.453139e+14	2.919251e+14	8.782640e+03	6.403227e+03	2.962301e+03	0	6.054165e-04
7.900000e+08	3.123455e+12	0.000000e+00	3.828572e-01	1.001709e+14	2.462409e+14	2.905523e+14	8.765724e+03	6.407044e+03	2.964066e+03	0	6.008527e-04
8.000000e+08	3.053369e+12	0.000000e+00	3.828572e-01	9.872117e+13	2.471467e+14	2.891891e+14	8.749053e+03	6.410763e+03	2.965787e+03	0	5.963246e-04
8.100000e+08	2.984865e+12	0.000000e+00	3.828572e-01	9.730358e+13	2.480315e+14	2.878353e+14	8.732623e+03	6.414386e+03	2.967463e+03	0	5.918312e-04
8.200000e+08	2.917897e+12	0.000000e+00	3.828572e-01	9.591718e+13	2.488955e+14	2.864909e+14	8.716428e+03	6.417914e+03	2.969095e+03	0	5.873716e-04
8.300000e+08	2.852421e+12	0.000000e+00	3.828572e-01	9.456110e+13	2.497390e+14	2.851558e+14	8.700463e+03	6.421350e+03	2.970685e+03	0	5.829449e-04
8.400000e+08	2.788395e+12	0.000000e+00	3.828572e-01	9.323446e+13	2.505621e+14	2.838299e+14	8.684722e+03	6.424694e+03	2.972232e+03	0	5.785502e-04
8.500000e+08	2.725777e+12	0.000000e+00	3.828572e-01	9.193645e+13	2.513650e+14	2.825132e+14	8.669202e+03	6.427949e+03	2.973738e+03	0	5.741866e-04
8.600000e+08	2.664528e+12	0.000000e+00	3.828572e-01	9.066628e+13	2.521480e+14	2.812055e+14	8.653897e+03	6.431115e+03	2.975202e+03	0	5.698533e-04
8.700000e+08	2.604611e+12	0.000000e+00	3.828572e-01	8.942316e+13	2.529113e+14	2.799069e+14	8.638802e+03	6.434195e+03	2.976627e+03	0	5.655494e-04
8.800000e+08	2.545987e+12	0.000000e+00	3.828572e-01	8.820636e+13	2.536551e+14	2.786171e+14	8.623914e+03	6.437189e+03	2.978012e+03	0	5.612741e-04
8.900000e+08	2.488623e+12	0.000000e+00	3.828572e-01	8.701517e+13	2.543796e+14	2.773363e+14	8.609227e+03	6.440099e+03	2.979359e+03	0	5.570266e-04
9.000000e+08	2.432482e+12	0.000000e+00	3.828572e-01	8.584889e+13	2.550850e+14	2.760642e+14	8.594739e+03	6.442926e+03	2.980667e+03	0	5.528061e-04
9.100000e+08	2.377533e+12	0.000000e+00	3.828572e-01	8.470685e+13	2.557716e+14	2.748008e+14	8.580443e+03	6.445673e+03	2.981937e+03	0	5.486118e-04
9.200000e+08	2.323743e+12	0.000000e+00	3.828572e-01	8.358841e+13	2.564395e+14	2.735461e+14	8.566337e+03	6.448339e+03	2.983171e+03	0	5.444428e-04
9.300000e+08	2.271081e+12	0.000000e+00	3.828572e-01	8.249293e+13	2.570890e+14	2.723000e+14	8.552417e+03	6.450927e+03	2.984368e+03	0	5.402986e-04
9.400000e+08	2.219518e+12	0.000000e+00	3.828572e-01	8.141983e+13	2.577203e+14	2.710624e+14	8.538679e+03	6.453438e+03	2.985529e+03	0	5.361782e-04
9.500000e+08	2.169024e+12	0.000000e+00	3.828572e-01	8.036850e+13	2.583336e+14	2.698332e+14	8.525118e+03	6.455872e+03	2.986656e+03	0	5.320810e-04
9.600000e+08	2.119572e+12	0.000000e+00	3.828572e-01	7.933840e+13	2.589291e+14	2.686125e+14	8.511733e+03	6.458232e+03	2.987748e+03	0	5.280061e-04
9.700000e+08	2.071133e+12	0.000000e+00	3.828572e-01	7.832896e+13	2.595071e+14	2.674000e+14	8.498518e+03	6.460519e+03	2.988805e+03	0	5.239529e-04
9.800000e+08	2.023683e+12	0.000000e+00	3.828572e-01	7.733965e+13	2.600677e+14	2.661958e+14	8.485470e+03	6.462733e+03	2.989830e+03	0	5.199207e-04
9.900000e+08	1.977195e+12	0.000000e+00	3.828572e-01	7.636998e+13	2.606111e+14	2.649997e+14	8.472587e+03	6.464876e+03	2.990821e+03	0	5.159086e-04
1.000000e+09	1.931646e+12	0.000000e+00	3.828572e-01	7.541943e+13	2.611376e+14	2.638118e+14	8.459865e+03	6.466949e+03	2.991780e+03	0	5.119161e-04
1.010000e+09	1.887011e+12	0.000000e+00	3.828572e-01	7.448753e+13	2.616474e+14	2.626320e+14	8.447301e+03	6.468953e+03	2.992707e+03	0	5.079423e-04
1.020000e+09	1.843267e+12	0.000000e+00	3.828572e-01	7.357381e+13	2.621406e+14	2.614601e+14	8.434892e+03	6.470890e+03	2.993603e+03	0	5.039866e-04
1.030000e+09	1.800391e+12	0.000000e+00	3.828572e-01	7.267782e+13	2.626177e+14	2.602962e+14	8.422634e+03	6.472759e+03	2.994468e+03	0	5.000482e-04
1.040000e+09	1.758363e+12	0.000000e+00	3.828572e-01	7.179911e+13	2.630785e+14	2.591401e+14	8.410525e+03	6.474564e+03	2.995303e+03	0	4.961265e-04
1.050000e+09	1.717161e+12	0.000000e+00	3.828572e-01	7.093728e+13	2.635235e+14	2.579919e+14	8.398562e+03	6.476304e+03	2.996108e+03	0	4.922208e-04
1.060000e+09	1.676765e+12	0.000000e+00	3.828572e-01	7.009189e+13	2.639528e+14	2.568514e+14	8.386742e+03	6.477980e+03	2.996883e+03	0	4.883303e-04
1.070000e+09	1.637155e+12	0.000000e+00	3.828572e-01	6.926256e+13	2.643666e+14	2.557185e+14	8.375062e+03	6.479595e+03	2.997630e+03	0	4.844544e-04
1.080000e+09	1.598312e+12	0.000000e+00	3.828572e-01	6.844890e+13	2.647652e+14	2.545933e+14	8.363521e+03	6.481147e+03	2.998349e+03	0	4.805923e-04
1.090000e+09	1.560218e+12	0.000000e+00	3.828572e-01	6.765052e+13	2.651488e+14	2.534757e+14	8.352114e+03	6.482640e+03	2.999039e+03	0	4.767434e-04
1.100000e+09	1.522853e+12	0.000000e+00	3.828572e-01	6.686707e+13	2.655174e+14	2.523656e+14	8.340840e+03	6.484073e+03	2.999702e+03	0	4.729068e-04
1.110000e+09	1.486201e+12	0.000000e+00	3.828572e-01	6.609818e+13	2.658713e+14	2.512629e+14	8.329696e+03	6.485448e+03	3.000338e+03	0	4.690820e-04
1.120000e+09	1.450245e+12	0.000000e+00	3.828572e-01	6.534352e+13	2.662109e+14	2.501676e+14	8.318680e+03	6.486765e+03	3.000947e+03	0	4.652683e-04
1.130000e+09	1.414969e+12	0.000000e+00	3.828572e-01	6.460276e+13	2.665361e+14	2.490796e+14	8.307790e+03	6.488026e+03	3.001531e+03	0	4.614648e-04
1.140000e+09	1.380355e+12	0.000000e+00	3.828572e-01	6.387555e+13	2.668473e+14	2.479989e+14	8.297022e+03	6.489231e+03	3.002088e+03	0	4.576708e-04
1.150000e+09	1.346390e+12	0.000000e+00	3.828572e-01	6.316160e+13	2.671446e+14	2.469254e+14	8.286376e+03	6.490381e+03	3.002620e+03	0	4.538857e-04
1.160000e+09	1.313057e+12	0.000000e+00	3.828572e-01	6.246059e+13	2.674282e+14	2.458591e+14	8.275848e+03	6.491478e+03	3.003128e+03	0	4.501087e-04
1.170000e+09	1.280341e+12	0.000000e+00	3.828572e-01	6.177223e+13	2.676984e+14	2.447999e+14	8.265436e+03	6.492522e+03	3.003611e+03	0	4.463390e-04
1.180000e+09	1.248230e+12	0.000000e+00	3.828572e-01	6.109622e+13	2.679552e+14	2.437477e+14	8.255139e+03	6.493513e+03	3.004069e+03	0	4.425759e-04
1.190000e+09	1.216708e+12	0.000000e+00	3.828572e-01	6.043228e+13	2.681990e+14	2.427025e+14	8.244954e+03	6.494453e+03	3.004504e+03	0	4.388186e-04
1.200000e+09	1.185762e+12	0.000000e+00	3.828572e-01	5.978015e+13	2.684298e+14	2.416643e+14	8.234880e+03	6.495343e+03	3.004916e+03	0	4.350663e-04
1.210000e+09	1.155380e+12	0.000000e+00	3.828572e-01	5.913955e+13	2.686479e+14	2.406329e+14	8.224914e+03	6.496184e+03	3.005305e+03	0	4.313182e-04
1.220000e+09	1.125547e+12	0.000000e+00	3.828572e-01	5.851023e+13	2.688535e+14	2.396084e+14	8.215054e+03	6.496975e+03	3.005671e+03	0	4.275735e-04
1.230000e+09	1.096253e+12	0.000000e+00	3.828572e-01	5.789193e+13	2.690468e+14	2.385906e+14	8.205299e+03	6.497719e+03	3.006015e+03	0	4.238314e-04
1.240000e+09	1.067484e+12	0.000000e+00	3.828572e-01	5.728441e+13	2.692278e+14	2.375796e+14	8.195647e+03	6.498415e+03	3.006337e+03	0	4.200910e-04
1.250000e+09	1.039230e+12	0.000000e+00	3.828572e-01	5.668742e+13	2.693968e+14	2.365753e+14	8.186096e+03	6.499065e+03	3.006638e+03	0	4.163515e-04
1.260000e+09	1.011478e+12	0.000000e+00	3.828572e-01	5.610075e+13	2.695540e+14	2.355776e+14	8.176644e+03	6.499669e+03	3.006917e+03	0	4.126119e-04
1.270000e+09	9.842179e+11	0.000000e+00	3.828572e-01	5.552415e+13	2.696996e+14	2.345864e+14	8.167290e+03	6.500228e+03	3.007176e+03	0	4.088713e-04
1.280000e+09	9.574383e+11	0.000000e+00	3.828572e-01	5.495742e+13	2.698338e+14	2.336018e+14	8.158031e+03	6.500743e+03	3.007414e+03	0	4.051289e-04
1.290000e+09	9.311290e+11	0.000000e+00	3.828572e-01	5.440034e+13	2.699566e+14	2.326236e+14	8.148867e+03	6.501215e+03	3.007632e+03	0	4.013835e-04
1.300000e+09	9.052795e+11	0.000000e+00	3.828572e-01	5.385269e+13	2.700683e+14	2.316519e+14	8.139796e+03	6.501644e+03	3.007831e+03	0	3.976343e-04
1.310000e+09	8.798800e+11	0.000000e+00	3.828572e-01	5.331428e+13	2.701691e+14	2.306865e+14	8.130815e+03	6.502030e+03	3.008010e+03	0	3.938801e-04
1.320000e+09	8.549206e+11	0.000000e+00	3.828572e-01	5.278491e+13	2.702592e+14	2.297275e+14	8.121924e+03	6.502375e+03	3.008169e+03	0	3.901200e-04
1.330000e+09	8.303919e+11	0.000000e+00	3.828572e-01	5.226438e+13	2.703386e+14	2.287747e+14	8.113121e+03	6.502680e+03	3.008310e+03	0	3.863527e-04
1.340000e+09	8.062846e+11	0.000000e+00	3.828572e-01	5.175251e+13	2.704076e+14	2.278281e+14	8.104405e+03	6.502944e+03	3.008433e+03	0	3.825772e-04
1.350000e+09	7.825898e+11	0.000000e+00	3.828572e-01	5.124911e+13	2.704663e+14	2.268878e+14	8.095774e+03	6.503169e+03	3.008537e+03	0	3.787922e-04
1.360000e+09	7.592986e+11	0.000000e+00	3.828572e-01	5.075400e+13	2.705149e+14	2.259535e+14	8.087227e+03	6.503356e+03	3.008623e+03	0	3.749964e-04
