#t		Qconv[W]	Ri[Rp]		R*[Rp]		Qc[W]		Qm[W]		Qr[W]		Tcmb[K]		Tl[K]		Tup[K]		RiFlag		Bs[T]
0.000000e+00	2.022642e+13	0.000000e+00	3.714286e-01	4.539240e+14	8.742237e+13	5.083580e+14	1.253412e+04	5.778696e+03	2.661160e+03	0	1.142032e-03
1.000000e+07	1.961802e+13	0.000000e+00	3.714286e-01	4.420324e+14	8.954217e+13	5.055414e+14	1.246567e+04	5.798298e+03	2.670187e+03	0	1.130465e-03
2.000000e+07	1.903583e+13	0.000000e+00	3.714286e-01	4.306465e+14	9.165937e+13	5.027458e+14	1.239900e+04	5.817521e+03	2.679040e+03	0	1.119169e-03
3.000000e+07	1.847827e+13	0.000000e+00	3.714286e-01	4.197360e+14	9.377352e+13	4.999710e+14	1.233403e+04	5.836379e+03	2.687724e+03	0	1.108134e-03
4.000000e+07	1.794389e+13	0.000000e+00	3.714286e-01	4.092728e+14	9.588417e+13	4.972170e+14	1.227069e+04	5.854882e+03	2.696245e+03	0	1.097347e-03
5.000000e+07	1.743133e+13	0.000000e+00	3.714286e-01	3.992311e+14	9.799091e+13	4.944836e+14	1.220892e+04	5.873040e+03	2.704607e+03	0	1.086798e-03
6.000000e+07	1.693934e+13	0.000000e+00	3.714286e-01	3.895868e+14	1.000934e+14	4.917705e+14	1.214864e+04	5.890865e+03	2.712816e+03	0	1.076475e-03
7.000000e+07	1.646677e+13	0.000000e+00	3.714286e-01	3.803178e+14	1.021911e+14	4.890776e+14	1.208981e+04	5.908365e+03	2.720875e+03	0	1.066370e-03
8.000000e+07	1.601254e+13	0.000000e+00	3.714286e-01	3.714035e+14	1.042836e+14	4.864047e+14	1.203237e+04	5.925550e+03	2.728788e+03	0	1.056474e-03
9.000000e+07	1.557565e+13	0.000000e+00	3.714286e-01	3.628246e+14	1.063707e+14	4.837518e+14	1.197626e+04	5.942427e+03	2.736561e+03	0	1.046777e-03
1.000000e+08	1.515518e+13	0.000000e+00	3.714286e-01	3.545633e+14	1.084519e+14	4.811185e+14	1.192144e+04	5.959006e+03	2.744195e+03	0	1.037271e-03
1.100000e+08	1.475026e+13	0.000000e+00	3.714286e-01	3.466030e+14	1.105268e+14	4.785047e+14	1.186785e+04	5.975293e+03	2.751695e+03	0	1.027950e-03
1.200000e+08	1.436008e+13	0.000000e+00	3.714286e-01	3.389283e+14	1.125950e+14	4.759104e+14	1.181546e+04	5.991296e+03	2.759065e+03	0	1.018805e-03
1.300000e+08	1.398389e+13	0.000000e+00	3.714286e-01	3.315245e+14	1.146563e+14	4.733352e+14	1.176421e+04	6.007022e+03	2.766307e+03	0	1.009829e-03
1.400000e+08	1.362099e+13	0.000000e+00	3.714286e-01	3.243783e+14	1.167102e+14	4.707791e+14	1.171408e+04	6.022478e+03	2.773425e+03	0	1.001017e-03
1.500000e+08	1.327072e+13	0.000000e+00	3.714286e-01	3.174770e+14	1.187564e+14	4.682419e+14	1.166502e+04	6.037671e+03	2.780421e+03	0	9.923620e-04
1.600000e+08	1.293247e+13	0.000000e+00	3.714286e-01	3.108087e+14	1.207946e+14	4.657234e+14	1.161700e+04	6.052605e+03	2.787299e+03	0	9.838579e-04
1.700000e+08	1.260565e+13	0.000000e+00	3.714286e-01	3.043623e+14	1.228243e+14	4.632236e+14	1.156997e+04	6.067288e+03	2.794060e+03	0	9.754994e-04
1.800000e+08	1.228973e+13	0.000000e+00	3.714286e-01	2.981275e+14	1.248454e+14	4.607421e+14	1.152392e+04	6.081724e+03	2.800708e+03	0	9.672810e-04
1.900000e+08	1.198419e+13	0.000000e+00	3.714286e-01	2.920943e+14	1.268575e+14	4.582789e+14	1.147880e+04	6.095919e+03	2.807246e+03	0	9.591978e-04
2.000000e+08	1.168857e+13	0.000000e+00	3.714286e-01	2.862536e+14	1.288602e+14	4.558339e+14	1.143459e+04	6.109879e+03	2.813674e+03	0	9.512450e-04
2.100000e+08	1.140240e+13	0.000000e+00	3.714286e-01	2.805967e+14	1.308534e+14	4.534068e+14	1.139125e+04	6.123608e+03	2.819996e+03	0	9.434178e-04
2.200000e+08	1.112528e+13	0.000000e+00	3.714286e-01	2.751156e+14	1.328366e+14	4.509976e+14	1.134877e+04	6.137110e+03	2.826214e+03	0	9.357120e-04
2.300000e+08	1.085679e+13	0.000000e+00	3.714286e-01	2.698025e+14	1.348095e+14	4.486060e+14	1.130711e+04	6.150391e+03	2.832331e+03	0	9.281235e-04
2.400000e+08	1.059657e+13	0.000000e+00	3.714286e-01	2.646501e+14	1.367720e+14	4.462320e+14	1.126625e+04	6.163455e+03	2.838347e+03	0	9.206481e-04
2.500000e+08	1.034425e+13	0.000000e+00	3.714286e-01	2.596516e+14	1.387238e+14	4.438753e+14	1.122616e+04	6.176306e+03	2.844265e+03	0	9.132821e-04
2.600000e+08	1.009951e+13	0.000000e+00	3.714286e-01	2.548006e+14	1.406645e+14	4.415359e+14	1.118683e+04	6.188948e+03	2.850087e+03	0	9.060218e-04
2.700000e+08	9.862022e+12	0.000000e+00	3.714286e-01	2.500910e+14	1.425939e+14	4.392136e+14	1.114822e+04	6.201386e+03	2.855814e+03	0	8.988639e-04
2.800000e+08	9.631494e+12	0.000000e+00	3.714286e-01	2.455169e+14	1.445117e+14	4.369083e+14	1.111033e+04	6.213622e+03	2.861449e+03	0	8.918048e-04
2.900000e+08	9.407640e+12	0.000000e+00	3.714286e-01	2.410729e+14	1.464178e+14	4.346198e+14	1.107312e+04	6.225661e+03	2.866993e+03	0	8.848415e-04
3.000000e+08	9.190191e+12	0.000000e+00	3.714286e-01	2.367538e+14	1.483118e+14	4.323480e+14	1.103658e+04	6.237506e+03	2.872448e+03	0	8.779709e-04
3.100000e+08	8.978894e+12	0.000000e+00	3.714286e-01	2.325547e+14	1.501936e+14	4.300927e+14	1.100070e+04	6.249161e+03	2.877815e+03	0	8.711900e-04
3.200000e+08	8.773507e+12	0.000000e+00	3.714286e-01	2.284709e+14	1.520629e+14	4.278539e+14	1.096544e+04	6.260629e+03	2.883096e+03	0	8.644960e-04
3.300000e+08	8.573800e+12	0.000000e+00	3.714286e-01	2.244980e+14	1.539196e+14	4.256313e+14	1.093080e+04	6.271913e+03	2.888293e+03	0	8.578863e-04
3.400000e+08	8.379557e+12	0.000000e+00	3.714286e-01	2.206319e+14	1.557633e+14	4.234248e+14	1.089676e+04	6.283017e+03	2.893406e+03	0	8.513581e-04
3.500000e+08	8.190571e+12	0.000000e+00	3.714286e-01	2.168684e+14	1.575939e+14	4.212344e+14	1.086330e+04	6.293943e+03	2.898438e+03	0	8.449091e-04
3.600000e+08	8.006646e+12	0.000000e+00	3.714286e-01	2.132038e+14	1.594112e+14	4.190599e+14	1.083041e+04	6.304695e+03	2.903389e+03	0	8.385368e-04
3.700000e+08	7.827594e+12	0.000000e+00	3.714286e-01	2.096345e+14	1.612150e+14	4.169010e+14	1.079808e+04	6.315274e+03	2.908261e+03	0	8.322389e-04
3.800000e+08	7.653237e+12	0.000000e+00	3.714286e-01	2.061570e+14	1.630051e+14	4.147579e+14	1.076628e+04	6.325685e+03	2.913056e+03	0	8.260132e-04
3.900000e+08	7.483407e+12	0.000000e+00	3.714286e-01	2.027681e+14	1.647814e+14	4.126302e+14	1.073500e+04	6.335930e+03	2.917773e+03	0	8.198575e-04
4.000000e+08	7.317941e+12	0.000000e+00	3.714286e-01	1.994646e+14	1.665437e+14	4.105178e+14	1.070424e+04	6.346011e+03	2.922416e+03	0	8.137698e-04
4.100000e+08	7.156685e+12	0.000000e+00	3.714286e-01	1.962436e+14	1.682918e+14	4.084208e+14	1.067398e+04	6.355931e+03	2.926984e+03	0	8.077480e-04
4.200000e+08	6.999494e+12	0.000000e+00	3.714286e-01	1.931021e+14	1.700255e+14	4.063388e+14	1.064420e+04	6.365693e+03	2.931480e+03	0	8.017903e-04
4.300000e+08	6.846225e+12	0.000000e+00	3.714286e-01	1.900375e+14	1.717448e+14	4.042718e+14	1.061489e+04	6.375299e+03	2.935903e+03	0	7.958948e-04
4.400000e+08	6.696746e+12	0.000000e+00	3.714286e-01	1.870472e+14	1.734494e+14	4.022197e+14	1.058605e+04	6.384751e+03	2.940256e+03	0	7.900597e-04
4.500000e+08	6.550929e+12	0.000000e+00	3.714286e-01	1.841287e+14	1.751393e+14	4.001823e+14	1.055766e+04	6.394052e+03	2.944539e+03	0	7.842832e-04
4.600000e+08	6.408651e+12	0.000000e+00	3.714286e-01	1.812796e+14	1.768143e+14	3.981596e+14	1.052971e+04	6.403204e+03	2.948754e+03	0	7.785637e-04
4.700000e+08	6.269794e+12	0.000000e+00	3.714286e-01	1.784976e+14	1.784743e+14	3.961513e+14	1.050219e+04	6.412209e+03	2.952901e+03	0	7.728995e-04
4.800000e+08	6.134248e+12	0.000000e+00	3.714286e-01	1.757806e+14	1.801192e+14	3.941575e+14	1.047509e+04	6.421070e+03	2.956981e+03	0	7.672891e-04
4.900000e+08	6.001905e+12	0.000000e+00	3.714286e-01	1.731265e+14	1.817488e+14	3.921779e+14	1.044840e+04	6.429788e+03	2.960996e+03	0	7.617310e-04
5.000000e+08	5.872662e+12	0.000000e+00	3.714286e-01	1.705333e+14	1.833631e+14	3.902125e+14	1.042211e+04	6.438366e+03	2.964946e+03	0	7.562237e-04
5.100000e+08	5.746421e+12	0.000000e+00	3.714286e-01	1.679991e+14	1.849619e+14	3.882611e+14	1.039622e+04	6.446805e+03	2.968833e+03	0	7.507657e-04
5.200000e+08	5.623087e+12	0.000000e+00	3.714286e-01	1.655220e+14	1.865452e+14	3.863237e+14	1.037071e+04	6.455108e+03	2.972656e+03	0	7.453556e-04
5.300000e+08	5.502570e+12	0.000000e+00	3.714286e-01	1.631003e+14	1.881129e+14	3.844001e+14	1.034557e+04	6.463276e+03	2.976418e+03	0	7.399922e-04
5.400000e+08	5.384784e+12	0.000000e+00	3.714286e-01	1.607323e+14	1.896649e+14	3.824901e+14	1.032079e+04	6.471312e+03	2.980119e+03	0	7.346740e-04
5.500000e+08	5.269645e+12	0.000000e+00	3.714286e-01	1.584164e+14	1.912011e+14	3.805938e+14	1.029638e+04	6.479218e+03	2.983759e+03	0	7.293999e-04
5.600000e+08	5.157072e+12	0.000000e+00	3.714286e-01	1.561510e+14	1.927215e+14	3.787110e+14	1.027232e+04	6.486994e+03	2.987340e+03	0	7.241686e-04
5.700000e+08	5.046990e+12	0.000000e+00	3.714286e-01	1.539346e+14	1.942259e+14	3.768415e+14	1.024859e+04	6.494644e+03	2.990863e+03	0	7.189788e-04
5.800000e+08	4.939324e+12	0.000000e+00	3.714286e-01	1.517659e+14	1.957144e+14	3.749852e+14	1.022521e+04	6.502168e+03	2.994328e+03	0	7.138294e-04
5.900000e+08	4.834003e+12	0.000000e+00	3.714286e-01	1.496433e+14	1.971868e+14	3.731422e+14	1.020215e+04	6.509569e+03	2.997736e+03	0	7.087193e-04
6.000000e+08	4.730959e+12	0.000000e+00	3.714286e-01	1.475656e+14	1.986432e+14	3.713122e+14	1.017941e+04	6.516847e+03	3.001088e+03	0	7.036472e-04
6.100000e+08	4.630126e+12	0.000000e+00	3.714286e-01	1.455315e+14	2.000835e+14	3.694951e+14	1.015699e+04	6.524006e+03	3.004385e+03	0	6.986123e-04
6.200000e+08	4.531442e+12	0.000000e+00	3.714286e-01	1.435398e+14	2.015076e+14	3.676909e+14	1.013487e+04	6.531046e+03	3.007627e+03	0	6.936133e-04
6.300000e+08	4.434844e+12	0.000000e+00	3.714286e-01	1.415892e+14	2.029155e+14	3.658994e+14	1.011306e+04	6.537969e+03	3.010815e+03	0	6.886492e-04
6.400000e+08	4.340275e+12	0.000000e+00	3.714286e-01	1.396787e+14	2.043072e+14	3.641205e+14	1.009154e+04	6.544777e+03	3.013950e+03	0	6.837191e-04
6.500000e+08	4.247678e+12	0.000000e+00	3.714286e-01	1.378071e+14	2.056827e+14	3.623542e+14	1.007031e+04	6.551471e+03	3.017032e+03	0	6.788218e-04
6.600000e+08	4.156998e+12	0.000000e+00	3.714286e-01	1.359733e+14	2.070419e+14	3.606003e+14	1.004936e+04	6.558052e+03	3.020063e+03	0	6.739565e-04
6.700000e+08	4.068183e+12	0.000000e+00	3.714286e-01	1.341764e+14	2.083849e+14	3.588587e+14	1.002869e+04	6.564523e+03	3.023043e+03	0	6.691222e-04
6.800000e+08	3.981183e+12	0.000000e+00	3.714286e-01	1.324153e+14	2.097115e+14	3.571294e+14	1.000830e+04	6.570884e+03	3.025973e+03	0	6.643179e-04
6.900000e+08	3.895948e+12	0.000000e+00	3.714286e-01	1.306892e+14	2.110219e+14	3.554122e+14	9.988166e+03	6.577138e+03	3.028852e+03	0	6.595428e-04
7.000000e+08	3.812431e+12	0.000000e+00	3.714286e-01	1.289970e+14	2.123160e+14	3.537070e+14	9.968297e+03	6.583284e+03	3.031683e+03	0	6.547959e-04
7.100000e+08	3.730587e+12	0.000000e+00	3.714286e-01	1.273379e+14	2.135938e+14	3.520138e+14	9.948684e+03	6.589326e+03	3.034465e+03	0	6.500763e-04
7.200000e+08	3.650371e+12	0.000000e+00	3.714286e-01	1.257110e+14	2.148554e+14	3.503324e+14	9.929323e+03	6.595264e+03	3.037200e+03	0	6.453831e-04
7.300000e+08	3.571742e+12	0.000000e+00	3.714286e-01	1.241155e+14	2.161006e+14	3.486627e+14	9.910208e+03	6.601100e+03	3.039887e+03	0	6.407156e-04
7.400000e+08	3.494658e+12	0.000000e+00	3.714286e-01	1.225506e+14	2.173296e+14	3.470048e+14	9.891335e+03	6.606835e+03	3.042528e+03	0	6.360728e-04
7.500000e+08	3.419079e+12	0.000000e+00	3.714286e-01	1.210155e+14	2.185424e+14	3.453583e+14	9.872698e+03	6.612470e+03	3.045123e+03	0	6.314539e-04
7.600000e+08	3.344967e+12	0.000000e+00	3.714286e-01	1.195095e+14	2.197391e+14	3.437234e+14	9.854295e+03	6.618006e+03	3.047673e+03	0	6.268581e-04
7.700000e+08	3.272286e+12	0.000000e+00	3.714286e-01	1.180318e+14	2.209195e+14	3.420998e+14	9.836119e+03	6.623446e+03	3.050178e+03	0	6.222845e-04
7.800000e+08	3.200998e+12	0.000000e+00	3.714286e-01	1.165817e+14	2.220837e+14	3.404875e+14	9.818168e+03	6.628789e+03	3.052639e+03	0	6.177325e-04
7.900000e+08	3.131070e+12	0.000000e+00	3.714286e-01	1.151586e+14	2.232319e+14	3.388864e+14	9.800436e+03	6.634038e+03	3.055056e+03	0	6.132010e-04
8.000000e+08	3.062468e+12	0.000000e+00	3.714286e-01	1.137617e+14	2.243640e+14	3.372964e+14	9.782919e+03	6.639194e+03	3.057430e+03	0	6.086895e-04
8.100000e+08	2.995158e+12	0.000000e+00	3.714286e-01	1.123906e+14	2.254800e+14	3.357174e+14	9.765615e+03	6.644257e+03	3.059762e+03	0	6.041970e-04
8.200000e+08	2.929111e+12	0.000000e+00	3.714286e-01	1.110444e+14	2.265801e+14	3.341494e+14	9.748518e+03	6.649229e+03	3.062051e+03	0	5.997227e-04
8.300000e+08	2.864294e+12	0.000000e+00	3.714286e-01	1.097227e+14	2.276642e+14	3.325922e+14	9.731625e+03	6.654111e+03	3.064300e+03	0	5.952661e-04
8.400000e+08	2.800678e+12	0.000000e+00	3.714286e-01	1.084249e+14	2.287324e+14	3.310457e+14	9.714933e+03	6.658905e+03	3.066507e+03	0	5.908261e-04
8.500000e+08	2.738236e+12	0.000000e+00	3.714286e-01	1.071503e+14	2.297847e+14	3.295099e+14	9.698438e+03	6.663611e+03	3.068674e+03	0	5.864021e-04
8.600000e+08	2.676938e+12	0.000000e+00	3.714286e-01	1.058985e+14	2.308212e+14	3.279847e+14	9.682135e+03	6.668230e+03	3.070802e+03	0	5.819933e-04
8.700000e+08	2.616758e+12	0.000000e+00	3.714286e-01	1.046689e+14	2.318421e+14	3.264700e+14	9.666023e+03	6.672764e+03	3.072890e+03	0	5.775990e-04
8.800000e+08	2.557669e+12	0.000000e+00	3.714286e-01	1.034610e+14	2.328473e+14	3.249657e+14	9.650097e+03	6.677214e+03	3.074939e+03	0	5.732183e-04
8.900000e+08	2.499647e+12	0.000000e+00	3.714286e-01	1.022743e+14	2.338368e+14	3.234718e+14	9.634354e+03	6.681580e+03	3.076949e+03	0	5.688505e-04
9.000000e+08	2.442667e+12	0.000000e+00	3.714286e-01	1.011083e+14	2.348108e+14	3.219881e+14	9.618791e+03	6.685864e+03	3.078922e+03	0	5.644949e-04
9.100000e+08	2.386704e+12	0.000000e+00	3.714286e-01	9.996257e+13	2.357694e+14	3.205146e+14	9.603405e+03	6.690068e+03	3.080858e+03	0	5.601506e-04
9.200000e+08	2.331736e+12	0.000000e+00	3.714286e-01	9.883663e+13	2.367125e+14	3.190512e+14	9.588192e+03	6.694191e+03	3.082757e+03	0	5.558169e-04
9.300000e+08	2.277740e+12	0.000000e+00	3.714286e-01	9.773004e+13	2.376403e+14	3.175977e+14	9.573151e+03	6.698235e+03	3.084619e+03	0	5.514930e-04
9.400000e+08	2.224694e+12	0.000000e+00	3.714286e-01	9.664237e+13	2.385529e+14	3.161543e+14	9.558277e+03	6.702200e+03	3.086445e+03	0	5.471781e-04
9.500000e+08	2.172577e+12	0.000000e+00	3.714286e-01	9.557319e+13	2.394503e+14	3.147206e+14	9.543568e+03	6.706089e+03	3.088236e+03	0	5.428714e-04
9.600000e+08	2.121368e+12	0.000000e+00	3.714286e-01	9.452211e+13	2.403326e+14	3.132968e+14	9.529022e+03	6.709902e+03	3.089992e+03	0	5.385722e-04
9.700000e+08	2.071047e+12	0.000000e+00	3.714286e-01	9.348872e+13	2.411999e+14	3.118826e+14	9.514635e+03	6.713639e+03	3.091713e+03	0	5.342796e-04
9.800000e+08	2.021594e+12	0.000000e+00	3.714286e-01	9.247265e+13	2.420522e+14	3.104781e+14	9.500404e+03	6.717303e+03	3.093400e+03	0	5.299927e-04
9.900000e+08	1.972991e+12	0.000000e+00	3.714286e-01	9.147351e+13	2.428897e+14	3.090831e+14	9.486328e+03	6.720893e+03	3.095053e+03	0	5.257109e-04
1.000000e+09	1.925219e+12	0.000000e+00	3.714286e-01	9.049095e+13	2.437125e+14	3.076976e+14	9.472404e+03	6.724410e+03	3.096673e+03	0	5.214331e-04
1.010000e+09	1.878259e+12	0.000000e+00	3.714286e-01	8.952461e+13	2.445206e+14	3.063214e+14	9.458628e+03	6.727857e+03	3.098260e+03	0	5.171587e-04
1.020000e+09	1.832096e+12	0.000000e+00	3.714286e-01	8.857415e+13	2.453141e+14	3.049546e+14	9.445000e+03	6.731233e+03	3.099815e+03	0	5.128866e-04
1.030000e+09	1.786711e+12	0.000000e+00	3.714286e-01	8.763922e+13	2.460931e+14	3.035971e+14	9.431515e+03	6.734539e+03	3.101338e+03	0	5.086160e-04
1.040000e+09	1.742088e+12	0.000000e+00	3.714286e-01	8.671951e+13	2.468577e+14	3.022487e+14	9.418173e+03	6.737776e+03	3.102828e+03	0	5.043460e-04
1.050000e+09	1.698210e+12	0.000000e+00	3.714286e-01	8.581470e+13	2.476081e+14	3.009094e+14	9.404970e+03	6.740946e+03	3.104288e+03	0	5.000757e-04
1.060000e+09	1.655063e+12	0.000000e+00	3.714286e-01	8.492447e+13	2.483442e+14	2.995792e+14	9.391904e+03	6.744048e+03	3.105717e+03	0	4.958041e-04
1.070000e+09	1.612631e+12	0.000000e+00	3.714286e-01	8.404853e+13	2.490662e+14	2.982579e+14	9.378974e+03	6.747084e+03	3.107115e+03	0	4.915303e-04
1.080000e+09	1.570899e+12	0.000000e+00	3.714286e-01	8.318658e+13	2.497742e+14	2.969455e+14	9.366176e+03	6.750055e+03	3.108483e+03	0	4.872532e-04
1.090000e+09	1.529852e+12	0.000000e+00	3.714286e-01	8.233833e+13	2.504683e+14	2.956420e+14	9.353510e+03	6.752962e+03	3.109822e+03	0	4.829718e-04
1.100000e+09	1.489477e+12	0.000000e+00	3.714286e-01	8.150351e+13	2.511487e+14	2.943472e+14	9.340972e+03	6.755805e+03	3.111131e+03	0	4.786851e-04
1.110000e+09	1.449760e+12	0.000000e+00	3.714286e-01	8.068185e+13	2.518153e+14	2.930610e+14	9.328561e+03	6.758585e+03	3.112411e+03	0	4.743919e-04
1.120000e+09	1.410686e+12	0.000000e+00	3.714286e-01	7.987308e+13	2.524683e+14	2.917835e+14	9.316274e+03	6.761302e+03	3.113663e+03	0	4.700911e-04
1.130000e+09	1.372244e+12	0.000000e+00	3.714286e-01	7.907694e+13	2.531078e+14	2.905146e+14	9.304111e+03	6.763959e+03	3.114886e+03	0	4.657817e-04
1.140000e+09	1.334420e+12	0.000000e+00	3.714286e-01	7.829318e+13	2.537339e+14	2.892541e+14	9.292068e+03	6.766555e+03	3.116081e+03	0	4.614622e-04
1.150000e+09	1.297202e+12	0.000000e+00	3.714286e-01	7.752155e+13	2.543468e+14	2.880020e+14	9.280145e+03	6.769091e+03	3.117249e+03	0	4.571315e-04
1.160000e+09	1.260578e+12	0.000000e+00	3.714286e-01	7.676182e+13	2.549464e+14	2.867583e+14	9.268338e+03	6.771568e+03	3.118390e+03	0	4.527883e-04
1.170000e+09	1.224536e+12	0.000000e+00	3.714286e-01	7.601375e+13	2.555330e+14	2.855229e+14	9.256647e+03	6.773987e+03	3.119504e+03	0	4.484312e-04
1.180000e+09	1.189065e+12	0.000000e+00	3.714286e-01	7.527712e+13	2.561066e+14	2.842957e+14	9.245070e+03	6.776349e+03	3.120592e+03	0	4.440588e-04
1.190000e+09	1.154153e+12	0.000000e+00	3.714286e-01	7.455169e+13	2.566674e+14	2.830766e+14	9.233604e+03	6.778654e+03	3.121653e+03	0	4.396695e-04
1.200000e+09	1.119789e+12	0.000000e+00	3.714286e-01	7.383726e+13	2.572154e+14	2.818657e+14	9.222249e+03	6.780902e+03	3.122689e+03	0	4.352619e-04
1.210000e+09	1.085963e+12	0.000000e+00	3.714286e-01	7.313361e+13	2.577508e+14	2.806628e+14	9.211002e+03	6.783096e+03	3.123699e+03	0	4.308343e-04
1.220000e+09	1.052664e+12	0.000000e+00	3.714286e-01	7.244054e+13	2.582737e+14	2.794678e+14	9.199862e+03	6.785234e+03	3.124684e+03	0	4.263849e-04
1.230000e+09	1.019881e+12	0.000000e+00	3.714286e-01	7.175784e+13	2.587841e+14	2.782808e+14	9.188827e+03	6.787319e+03	3.125644e+03	0	4.219119e-04
1.240000e+09	9.876061e+11	0.000000e+00	3.714286e-01	7.108531e+13	2.592822e+14	2.771016e+14	9.177896e+03	6.789350e+03	3.126579e+03	0	4.174135e-04
1.250000e+09	9.558280e+11	0.000000e+00	3.714286e-01	7.042276e+13	2.597681e+14	2.759301e+14	9.167068e+03	6.791329e+03	3.127490e+03	0	4.128876e-04
1.260000e+09	9.245377e+11	0.000000e+00	3.714286e-01	6.977001e+13	2.602419e+14	2.747664e+14	9.156339e+03	6.793256e+03	3.128378e+03	0	4.083321e-04
1.270000e+09	8.937258e+11	0.000000e+00	3.714286e-01	6.912687e+13	2.607038e+14	2.736104e+14	9.145711e+03	6.795132e+03	3.129242e+03	0	4.037446e-04
1.280000e+09	8.633833e+11	0.000000e+00	3.714286e-01	6.849316e+13	2.611538e+14	2.724620e+14	9.135179e+03	6.796957e+03	3.130082e+03	0	3.991227e-04
1.290000e+09	8.335013e+11	0.000000e+00	3.714286e-01	6.786871e+13	2.615921e+14	2.713211e+14	9.124744e+03	6.798733e+03	3.130900e+03	0	3.944640e-04
1.300000e+09	8.040711e+11	0.000000e+00	3.714286e-01	6.725334e+13	2.620187e+14	2.701877e+14	9.114404e+03	6.800459e+03	3.131694e+03	0	3.897655e-04
1.310000e+09	7.750844e+11	0.000000e+00	3.714286e-01	6.664688e+13	2.624338e+14	2.690618e+14	9.104158e+03	6.802136e+03	3.132467e+03	0	3.850244e-04
1.320000e+09	7.465328e+11	0.000000e+00	3.714286e-01	6.604918e+13	2.628375e+14	2.679432e+14	9.094004e+03	6.803765e+03	3.133217e+03	0	3.802375e-04
1.330000e+09	7.184083e+11	0.000000e+00	3.714286e-01	6.546007e+13	2.632299e+14	2.668319e+14	9.083940e+03	6.805347e+03	3.133946e+03	0	3.754013e-04
1.340000e+09	6.907030e+11	0.000000e+00	3.714286e-01	6.487939e+13	2.636110e+14	2.657279e+14	9.073966e+03	6.806882e+03	3.134653e+03	0	3.705121e-04
1.350000e+09	6.634091e+11	0.000000e+00	3.714286e-01	6.430700e+13	2.639811e+14	2.646311e+14	9.064080e+03	6.808371e+03	3.135338e+03	0	3.655660e-04
1.360000e+09	6.365191e+11	0.000000e+00	3.714286e-01	6.374274e+13	2.643402e+14	2.635414e+14	9.054282e+03	6.809814e+03	3.136003e+03	0	3.605585e-04
