#t		Qconv[W]	Ri[Rp]		R*[Rp]		Qc[W]		Qm[W]		Qr[W]		Tcmb[K]		Tl[K]		Tup[K]		RiFlag		Bs[T]
0.000000e+00	3.082635e+13	0.000000e+00	3.771429e-01	6.149635e+14	8.590090e+13	5.828961e+14	1.378643e+04	6.177904e+03	2.712720e+03	0	1.290454e-03
1.000000e+07	2.989201e+13	0.000000e+00	3.771429e-01	5.990419e+14	8.813355e+13	5.796664e+14	1.371064e+04	6.200003e+03	2.722423e+03	0	1.277282e-03
2.000000e+07	2.899756e+13	0.000000e+00	3.771429e-01	5.837897e+14	9.036651e+13	5.764609e+14	1.363681e+04	6.221676e+03	2.731940e+03	0	1.264413e-03
3.000000e+07	2.814061e+13	0.000000e+00	3.771429e-01	5.691674e+14	9.259926e+13	5.732794e+14	1.356483e+04	6.242937e+03	2.741276e+03	0	1.251832e-03
4.000000e+07	2.731899e+13	0.000000e+00	3.771429e-01	5.551383e+14	9.483128e+13	5.701216e+14	1.349464e+04	6.263800e+03	2.750436e+03	0	1.239529e-03
5.000000e+07	2.653063e+13	0.000000e+00	3.771429e-01	5.416684e+14	9.706212e+13	5.669873e+14	1.342616e+04	6.284275e+03	2.759427e+03	0	1.227489e-03
6.000000e+07	2.577367e+13	0.000000e+00	3.771429e-01	5.287262e+14	9.929126e+13	5.638764e+14	1.335933e+04	6.304376e+03	2.768253e+03	0	1.215702e-03
7.000000e+07	2.504635e+13	0.000000e+00	3.771429e-01	5.162826e+14	1.015183e+14	5.607887e+14	1.329408e+04	6.324113e+03	2.776920e+03	0	1.204157e-03
8.000000e+07	2.434704e+13	0.000000e+00	3.771429e-01	5.043105e+14	1.037427e+14	5.577239e+14	1.323035e+04	6.343496e+03	2.785431e+03	0	1.192844e-03
9.000000e+07	2.367424e+13	0.000000e+00	3.771429e-01	4.927845e+14	1.059640e+14	5.546819e+14	1.316809e+04	6.362535e+03	2.793791e+03	0	1.181754e-03
1.000000e+08	2.302654e+13	0.000000e+00	3.771429e-01	4.816813e+14	1.081819e+14	5.516625e+14	1.310724e+04	6.381240e+03	2.802005e+03	0	1.170877e-03
1.100000e+08	2.240263e+13	0.000000e+00	3.771429e-01	4.709790e+14	1.103958e+14	5.486656e+14	1.304775e+04	6.399620e+03	2.810075e+03	0	1.160205e-03
1.200000e+08	2.180128e+13	0.000000e+00	3.771429e-01	4.606570e+14	1.126054e+14	5.456908e+14	1.298957e+04	6.417683e+03	2.818007e+03	0	1.149729e-03
1.300000e+08	2.122136e+13	0.000000e+00	3.771429e-01	4.506963e+14	1.148102e+14	5.427381e+14	1.293265e+04	6.435438e+03	2.825803e+03	0	1.139443e-03
1.400000e+08	2.066179e+13	0.000000e+00	3.771429e-01	4.410791e+14	1.170099e+14	5.398072e+14	1.287695e+04	6.452891e+03	2.833467e+03	0	1.129339e-03
1.500000e+08	2.012157e+13	0.000000e+00	3.771429e-01	4.317886e+14	1.192040e+14	5.368979e+14	1.282244e+04	6.470051e+03	2.841002e+03	0	1.119409e-03
1.600000e+08	1.959977e+13	0.000000e+00	3.771429e-01	4.228091e+14	1.213921e+14	5.340102e+14	1.276906e+04	6.486925e+03	2.848411e+03	0	1.109648e-03
1.700000e+08	1.909551e+13	0.000000e+00	3.771429e-01	4.141259e+14	1.235740e+14	5.311438e+14	1.271679e+04	6.503519e+03	2.855697e+03	0	1.100049e-03
1.800000e+08	1.860797e+13	0.000000e+00	3.771429e-01	4.057252e+14	1.257492e+14	5.282985e+14	1.266558e+04	6.519839e+03	2.862863e+03	0	1.090606e-03
1.900000e+08	1.813636e+13	0.000000e+00	3.771429e-01	3.975941e+14	1.279173e+14	5.254741e+14	1.261540e+04	6.535893e+03	2.869912e+03	0	1.081314e-03
2.000000e+08	1.767997e+13	0.000000e+00	3.771429e-01	3.897204e+14	1.300781e+14	5.226706e+14	1.256622e+04	6.551685e+03	2.876847e+03	0	1.072166e-03
2.100000e+08	1.723811e+13	0.000000e+00	3.771429e-01	3.820925e+14	1.322310e+14	5.198877e+14	1.251800e+04	6.567221e+03	2.883669e+03	0	1.063159e-03
2.200000e+08	1.681012e+13	0.000000e+00	3.771429e-01	3.746996e+14	1.343760e+14	5.171252e+14	1.247073e+04	6.582508e+03	2.890381e+03	0	1.054286e-03
2.300000e+08	1.639541e+13	0.000000e+00	3.771429e-01	3.675316e+14	1.365125e+14	5.143829e+14	1.242436e+04	6.597550e+03	2.896986e+03	0	1.045544e-03
2.400000e+08	1.599339e+13	0.000000e+00	3.771429e-01	3.605787e+14	1.386402e+14	5.116608e+14	1.237887e+04	6.612352e+03	2.903486e+03	0	1.036928e-03
2.500000e+08	1.560353e+13	0.000000e+00	3.771429e-01	3.538319e+14	1.407590e+14	5.089586e+14	1.233424e+04	6.626920e+03	2.909882e+03	0	1.028433e-03
2.600000e+08	1.522532e+13	0.000000e+00	3.771429e-01	3.472827e+14	1.428683e+14	5.062762e+14	1.229044e+04	6.641257e+03	2.916178e+03	0	1.020055e-03
2.700000e+08	1.485826e+13	0.000000e+00	3.771429e-01	3.409228e+14	1.449681e+14	5.036134e+14	1.224744e+04	6.655368e+03	2.922374e+03	0	1.011791e-03
2.800000e+08	1.450190e+13	0.000000e+00	3.771429e-01	3.347445e+14	1.470578e+14	5.009701e+14	1.220523e+04	6.669258e+03	2.928473e+03	0	1.003637e-03
2.900000e+08	1.415581e+13	0.000000e+00	3.771429e-01	3.287407e+14	1.491374e+14	4.983460e+14	1.216377e+04	6.682932e+03	2.934477e+03	0	9.955887e-04
3.000000e+08	1.381958e+13	0.000000e+00	3.771429e-01	3.229043e+14	1.512064e+14	4.957411e+14	1.212305e+04	6.696392e+03	2.940388e+03	0	9.876429e-04
3.100000e+08	1.349281e+13	0.000000e+00	3.771429e-01	3.172288e+14	1.532647e+14	4.931551e+14	1.208306e+04	6.709643e+03	2.946206e+03	0	9.797964e-04
3.200000e+08	1.317514e+13	0.000000e+00	3.771429e-01	3.117080e+14	1.553120e+14	4.905880e+14	1.204376e+04	6.722688e+03	2.951934e+03	0	9.720459e-04
3.300000e+08	1.286621e+13	0.000000e+00	3.771429e-01	3.063360e+14	1.573479e+14	4.880395e+14	1.200514e+04	6.735532e+03	2.957574e+03	0	9.643883e-04
3.400000e+08	1.256570e+13	0.000000e+00	3.771429e-01	3.011072e+14	1.593723e+14	4.855096e+14	1.196718e+04	6.748178e+03	2.963127e+03	0	9.568207e-04
3.500000e+08	1.227328e+13	0.000000e+00	3.771429e-01	2.960162e+14	1.613850e+14	4.829980e+14	1.192987e+04	6.760630e+03	2.968595e+03	0	9.493402e-04
3.600000e+08	1.198865e+13	0.000000e+00	3.771429e-01	2.910580e+14	1.633856e+14	4.805046e+14	1.189318e+04	6.772890e+03	2.973978e+03	0	9.419441e-04
3.700000e+08	1.171153e+13	0.000000e+00	3.771429e-01	2.862277e+14	1.653740e+14	4.780292e+14	1.185711e+04	6.784962e+03	2.979279e+03	0	9.346297e-04
3.800000e+08	1.144165e+13	0.000000e+00	3.771429e-01	2.815207e+14	1.673500e+14	4.755718e+14	1.182162e+04	6.796849e+03	2.984499e+03	0	9.273945e-04
3.900000e+08	1.117873e+13	0.000000e+00	3.771429e-01	2.769327e+14	1.693133e+14	4.731321e+14	1.178673e+04	6.808555e+03	2.989638e+03	0	9.202359e-04
4.000000e+08	1.092254e+13	0.000000e+00	3.771429e-01	2.724594e+14	1.712637e+14	4.707101e+14	1.175239e+04	6.820081e+03	2.994700e+03	0	9.131516e-04
4.100000e+08	1.067284e+13	0.000000e+00	3.771429e-01	2.680969e+14	1.732010e+14	4.683055e+14	1.171861e+04	6.831432e+03	2.999684e+03	0	9.061394e-04
4.200000e+08	1.042940e+13	0.000000e+00	3.771429e-01	2.638413e+14	1.751251e+14	4.659183e+14	1.168536e+04	6.842610e+03	3.004592e+03	0	8.991968e-04
4.300000e+08	1.019201e+13	0.000000e+00	3.771429e-01	2.596891e+14	1.770358e+14	4.635482e+14	1.165264e+04	6.853617e+03	3.009425e+03	0	8.923219e-04
4.400000e+08	9.960455e+12	0.000000e+00	3.771429e-01	2.556366e+14	1.789328e+14	4.611952e+14	1.162044e+04	6.864456e+03	3.014185e+03	0	8.855126e-04
4.500000e+08	9.734547e+12	0.000000e+00	3.771429e-01	2.516807e+14	1.808160e+14	4.588591e+14	1.158873e+04	6.875131e+03	3.018872e+03	0	8.787667e-04
4.600000e+08	9.514095e+12	0.000000e+00	3.771429e-01	2.478181e+14	1.826853e+14	4.565398e+14	1.155751e+04	6.885643e+03	3.023488e+03	0	8.720823e-04
4.700000e+08	9.298919e+12	0.000000e+00	3.771429e-01	2.440458e+14	1.845404e+14	4.542371e+14	1.152677e+04	6.895994e+03	3.028033e+03	0	8.654576e-04
4.800000e+08	9.088846e+12	0.000000e+00	3.771429e-01	2.403609e+14	1.863813e+14	4.519509e+14	1.149649e+04	6.906188e+03	3.032509e+03	0	8.588907e-04
4.900000e+08	8.883712e+12	0.000000e+00	3.771429e-01	2.367606e+14	1.882077e+14	4.496811e+14	1.146667e+04	6.916227e+03	3.036917e+03	0	8.523798e-04
5.000000e+08	8.683358e+12	0.000000e+00	3.771429e-01	2.332422e+14	1.900196e+14	4.474275e+14	1.143729e+04	6.926113e+03	3.041258e+03	0	8.459231e-04
5.100000e+08	8.487634e+12	0.000000e+00	3.771429e-01	2.298031e+14	1.918168e+14	4.451900e+14	1.140834e+04	6.935848e+03	3.045533e+03	0	8.395190e-04
5.200000e+08	8.296393e+12	0.000000e+00	3.771429e-01	2.264410e+14	1.935992e+14	4.429685e+14	1.137983e+04	6.945434e+03	3.049742e+03	0	8.331658e-04
5.300000e+08	8.109498e+12	0.000000e+00	3.771429e-01	2.231533e+14	1.953666e+14	4.407628e+14	1.135172e+04	6.954874e+03	3.053887e+03	0	8.268619e-04
5.400000e+08	7.926813e+12	0.000000e+00	3.771429e-01	2.199380e+14	1.971190e+14	4.385728e+14	1.132403e+04	6.964169e+03	3.057969e+03	0	8.206057e-04
5.500000e+08	7.748211e+12	0.000000e+00	3.771429e-01	2.167927e+14	1.988562e+14	4.363984e+14	1.129673e+04	6.973323e+03	3.061988e+03	0	8.143957e-04
5.600000e+08	7.573570e+12	0.000000e+00	3.771429e-01	2.137155e+14	2.005781e+14	4.342395e+14	1.126981e+04	6.982336e+03	3.065946e+03	0	8.082304e-04
5.700000e+08	7.402769e+12	0.000000e+00	3.771429e-01	2.107042e+14	2.022846e+14	4.320959e+14	1.124328e+04	6.991210e+03	3.069843e+03	0	8.021084e-04
5.800000e+08	7.235696e+12	0.000000e+00	3.771429e-01	2.077571e+14	2.039757e+14	4.299675e+14	1.121712e+04	6.999948e+03	3.073679e+03	0	7.960282e-04
5.900000e+08	7.072241e+12	0.000000e+00	3.771429e-01	2.048721e+14	2.056512e+14	4.278542e+14	1.119133e+04	7.008552e+03	3.077457e+03	0	7.899884e-04
6.000000e+08	6.912300e+12	0.000000e+00	3.771429e-01	2.020476e+14	2.073112e+14	4.257559e+14	1.116589e+04	7.017023e+03	3.081177e+03	0	7.839876e-04
6.100000e+08	6.755770e+12	0.000000e+00	3.771429e-01	1.992818e+14	2.089553e+14	4.236724e+14	1.114080e+04	7.025363e+03	3.084839e+03	0	7.780245e-04
6.200000e+08	6.602555e+12	0.000000e+00	3.771429e-01	1.965730e+14	2.105837e+14	4.216036e+14	1.111605e+04	7.033575e+03	3.088445e+03	0	7.720978e-04
6.300000e+08	6.452560e+12	0.000000e+00	3.771429e-01	1.939198e+14	2.121962e+14	4.195494e+14	1.109164e+04	7.041658e+03	3.091994e+03	0	7.662062e-04
6.400000e+08	6.305696e+12	0.000000e+00	3.771429e-01	1.913204e+14	2.137928e+14	4.175097e+14	1.106756e+04	7.049617e+03	3.095489e+03	0	7.603485e-04
6.500000e+08	6.161875e+12	0.000000e+00	3.771429e-01	1.887735e+14	2.153734e+14	4.154844e+14	1.104380e+04	7.057451e+03	3.098929e+03	0	7.545232e-04
6.600000e+08	6.021013e+12	0.000000e+00	3.771429e-01	1.862777e+14	2.169381e+14	4.134734e+14	1.102035e+04	7.065163e+03	3.102315e+03	0	7.487293e-04
6.700000e+08	5.883030e+12	0.000000e+00	3.771429e-01	1.838315e+14	2.184866e+14	4.114764e+14	1.099721e+04	7.072754e+03	3.105649e+03	0	7.429656e-04
6.800000e+08	5.747847e+12	0.000000e+00	3.771429e-01	1.814336e+14	2.200190e+14	4.094935e+14	1.097437e+04	7.080227e+03	3.108930e+03	0	7.372307e-04
6.900000e+08	5.615389e+12	0.000000e+00	3.771429e-01	1.790827e+14	2.215353e+14	4.075245e+14	1.095183e+04	7.087581e+03	3.112159e+03	0	7.315235e-04
7.000000e+08	5.485584e+12	0.000000e+00	3.771429e-01	1.767776e+14	2.230354e+14	4.055693e+14	1.092958e+04	7.094820e+03	3.115338e+03	0	7.258429e-04
7.100000e+08	5.358361e+12	0.000000e+00	3.771429e-01	1.745172e+14	2.245193e+14	4.036278e+14	1.090762e+04	7.101945e+03	3.118466e+03	0	7.201876e-04
7.200000e+08	5.233652e+12	0.000000e+00	3.771429e-01	1.723002e+14	2.259870e+14	4.016999e+14	1.088594e+04	7.108956e+03	3.121545e+03	0	7.145566e-04
7.300000e+08	5.111393e+12	0.000000e+00	3.771429e-01	1.701255e+14	2.274384e+14	3.997855e+14	1.086453e+04	7.115856e+03	3.124574e+03	0	7.089486e-04
7.400000e+08	4.991519e+12	0.000000e+00	3.771429e-01	1.679921e+14	2.288735e+14	3.978844e+14	1.084339e+04	7.122646e+03	3.127556e+03	0	7.033625e-04
7.500000e+08	4.873970e+12	0.000000e+00	3.771429e-01	1.658989e+14	2.302924e+14	3.959965e+14	1.082251e+04	7.129327e+03	3.130490e+03	0	6.977973e-04
7.600000e+08	4.758686e+12	0.000000e+00	3.771429e-01	1.638449e+14	2.316949e+14	3.941219e+14	1.080190e+04	7.135900e+03	3.133376e+03	0	6.922517e-04
7.700000e+08	4.645611e+12	0.000000e+00	3.771429e-01	1.618291e+14	2.330812e+14	3.922602e+14	1.078153e+04	7.142368e+03	3.136216e+03	0	6.867246e-04
7.800000e+08	4.534689e+12	0.000000e+00	3.771429e-01	1.598507e+14	2.344512e+14	3.904115e+14	1.076142e+04	7.148732e+03	3.139010e+03	0	6.812150e-04
7.900000e+08	4.425867e+12	0.000000e+00	3.771429e-01	1.579086e+14	2.358049e+14	3.885757e+14	1.074155e+04	7.154992e+03	3.141759e+03	0	6.757216e-04
8.000000e+08	4.319092e+12	0.000000e+00	3.771429e-01	1.560019e+14	2.371423e+14	3.867525e+14	1.072192e+04	7.161150e+03	3.144463e+03	0	6.702433e-04
8.100000e+08	4.214315e+12	0.000000e+00	3.771429e-01	1.541299e+14	2.384635e+14	3.849420e+14	1.070253e+04	7.167207e+03	3.147123e+03	0	6.647791e-04
8.200000e+08	4.111487e+12	0.000000e+00	3.771429e-01	1.522917e+14	2.397684e+14	3.831441e+14	1.068337e+04	7.173165e+03	3.149739e+03	0	6.593277e-04
8.300000e+08	4.010561e+12	0.000000e+00	3.771429e-01	1.504865e+14	2.410570e+14	3.813585e+14	1.066444e+04	7.179025e+03	3.152312e+03	0	6.538880e-04
8.400000e+08	3.911491e+12	0.000000e+00	3.771429e-01	1.487136e+14	2.423296e+14	3.795853e+14	1.064573e+04	7.184788e+03	3.154843e+03	0	6.484589e-04
8.500000e+08	3.814233e+12	0.000000e+00	3.771429e-01	1.469720e+14	2.435858e+14	3.778244e+14	1.062724e+04	7.190455e+03	3.157331e+03	0	6.430392e-04
8.600000e+08	3.718745e+12	0.000000e+00	3.771429e-01	1.452612e+14	2.448259e+14	3.760755e+14	1.060897e+04	7.196028e+03	3.159778e+03	0	6.376276e-04
8.700000e+08	3.624984e+12	0.000000e+00	3.771429e-01	1.435804e+14	2.460500e+14	3.743387e+14	1.059091e+04	7.201507e+03	3.162184e+03	0	6.322231e-04
8.800000e+08	3.532911e+12	0.000000e+00	3.771429e-01	1.419289e+14	2.472579e+14	3.726139e+14	1.057306e+04	7.206894e+03	3.164550e+03	0	6.268244e-04
8.900000e+08	3.442486e+12	0.000000e+00	3.771429e-01	1.403061e+14	2.484498e+14	3.709009e+14	1.055541e+04	7.212191e+03	3.166875e+03	0	6.214303e-04
9.000000e+08	3.353672e+12	0.000000e+00	3.771429e-01	1.387113e+14	2.496257e+14	3.691997e+14	1.053796e+04	7.217397e+03	3.169161e+03	0	6.160395e-04
9.100000e+08	3.266431e+12	0.000000e+00	3.771429e-01	1.371438e+14	2.507856e+14	3.675101e+14	1.052071e+04	7.222514e+03	3.171408e+03	0	6.106507e-04
9.200000e+08	3.180728e+12	0.000000e+00	3.771429e-01	1.356032e+14	2.519296e+14	3.658321e+14	1.050366e+04	7.227544e+03	3.173617e+03	0	6.052626e-04
9.300000e+08	3.096528e+12	0.000000e+00	3.771429e-01	1.340886e+14	2.530577e+14	3.641656e+14	1.048680e+04	7.232487e+03	3.175787e+03	0	5.998740e-04
9.400000e+08	3.013797e+12	0.000000e+00	3.771429e-01	1.325997e+14	2.541700e+14	3.625104e+14	1.047012e+04	7.237344e+03	3.177920e+03	0	5.944833e-04
9.500000e+08	2.932503e+12	0.000000e+00	3.771429e-01	1.311358e+14	2.552666e+14	3.608666e+14	1.045363e+04	7.242117e+03	3.180016e+03	0	5.890894e-04
9.600000e+08	2.852614e+12	0.000000e+00	3.771429e-01	1.296963e+14	2.563474e+14	3.592340e+14	1.043732e+04	7.246806e+03	3.182075e+03	0	5.836906e-04
9.700000e+08	2.774099e+12	0.000000e+00	3.771429e-01	1.282808e+14	2.574127e+14	3.576125e+14	1.042119e+04	7.251413e+03	3.184098e+03	0	5.782855e-04
9.800000e+08	2.696927e+12	0.000000e+00	3.771429e-01	1.268887e+14	2.584623e+14	3.560020e+14	1.040523e+04	7.255939e+03	3.186085e+03	0	5.728726e-04
9.900000e+08	2.621070e+12	0.000000e+00	3.771429e-01	1.255196e+14	2.594964e+14	3.544024e+14	1.038945e+04	7.260384e+03	3.188037e+03	0	5.674504e-04
1.000000e+09	2.546500e+12	0.000000e+00	3.771429e-01	1.241728e+14	2.605151e+14	3.528138e+14	1.037383e+04	7.264749e+03	3.189954e+03	0	5.620171e-04
1.010000e+09	2.473187e+12	0.000000e+00	3.771429e-01	1.228481e+14	2.615184e+14	3.512359e+14	1.035839e+04	7.269036e+03	3.191836e+03	0	5.565711e-04
1.020000e+09	2.401106e+12	0.000000e+00	3.771429e-01	1.215448e+14	2.625063e+14	3.496687e+14	1.034310e+04	7.273246e+03	3.193684e+03	0	5.511106e-04
1.030000e+09	2.330231e+12	0.000000e+00	3.771429e-01	1.202626e+14	2.634790e+14	3.481121e+14	1.032798e+04	7.277378e+03	3.195499e+03	0	5.456339e-04
1.040000e+09	2.260535e+12	0.000000e+00	3.771429e-01	1.190010e+14	2.644366e+14	3.465660e+14	1.031302e+04	7.281435e+03	3.197281e+03	0	5.401389e-04
1.050000e+09	2.191995e+12	0.000000e+00	3.771429e-01	1.177596e+14	2.653791e+14	3.450303e+14	1.029821e+04	7.285418e+03	3.199029e+03	0	5.346237e-04
1.060000e+09	2.124585e+12	0.000000e+00	3.771429e-01	1.165379e+14	2.663066e+14	3.435051e+14	1.028356e+04	7.289326e+03	3.200745e+03	0	5.290861e-04
1.070000e+09	2.058283e+12	0.000000e+00	3.771429e-01	1.153356e+14	2.672191e+14	3.419900e+14	1.026906e+04	7.293162e+03	3.202430e+03	0	5.235241e-04
1.080000e+09	1.993066e+12	0.000000e+00	3.771429e-01	1.141523e+14	2.681168e+14	3.404852e+14	1.025471e+04	7.296925e+03	3.204082e+03	0	5.179353e-04
1.090000e+09	1.928910e+12	0.000000e+00	3.771429e-01	1.129876e+14	2.689997e+14	3.389905e+14	1.024051e+04	7.300618e+03	3.205703e+03	0	5.123173e-04
1.100000e+09	1.865796e+12	0.000000e+00	3.771429e-01	1.118410e+14	2.698679e+14	3.375059e+14	1.022645e+04	7.304240e+03	3.207294e+03	0	5.066675e-04
1.110000e+09	1.803700e+12	0.000000e+00	3.771429e-01	1.107123e+14	2.707216e+14	3.360312e+14	1.021253e+04	7.307792e+03	3.208854e+03	0	5.009832e-04
1.120000e+09	1.742604e+12	0.000000e+00	3.771429e-01	1.096011e+14	2.715607e+14	3.345663e+14	1.019876e+04	7.311276e+03	3.210384e+03	0	4.952615e-04
1.130000e+09	1.682486e+12	0.000000e+00	3.771429e-01	1.085071e+14	2.723854e+14	3.331113e+14	1.018512e+04	7.314692e+03	3.211884e+03	0	4.894993e-04
1.140000e+09	1.623326e+12	0.000000e+00	3.771429e-01	1.074298e+14	2.731957e+14	3.316660e+14	1.017161e+04	7.318041e+03	3.213354e+03	0	4.836935e-04
1.150000e+09	1.565107e+12	0.000000e+00	3.771429e-01	1.063690e+14	2.739918e+14	3.302304e+14	1.015824e+04	7.321324e+03	3.214796e+03	0	4.778406e-04
1.160000e+09	1.507809e+12	0.000000e+00	3.771429e-01	1.053244e+14	2.747738e+14	3.288043e+14	1.014500e+04	7.324542e+03	3.216209e+03	0	4.719367e-04
1.170000e+09	1.451414e+12	0.000000e+00	3.771429e-01	1.042956e+14	2.755417e+14	3.273877e+14	1.013190e+04	7.327695e+03	3.217593e+03	0	4.659780e-04
1.180000e+09	1.395904e+12	0.000000e+00	3.771429e-01	1.032823e+14	2.762956e+14	3.259806e+14	1.011892e+04	7.330784e+03	3.218949e+03	0	4.599602e-04
1.190000e+09	1.341263e+12	0.000000e+00	3.771429e-01	1.022843e+14	2.770357e+14	3.245828e+14	1.010606e+04	7.333810e+03	3.220278e+03	0	4.538785e-04
1.200000e+09	1.287472e+12	0.000000e+00	3.771429e-01	1.013012e+14	2.777621e+14	3.231943e+14	1.009333e+04	7.336774e+03	3.221580e+03	0	4.477280e-04
1.210000e+09	1.234516e+12	0.000000e+00	3.771429e-01	1.003327e+14	2.784747e+14	3.218150e+14	1.008072e+04	7.339677e+03	3.222854e+03	0	4.415033e-04
1.220000e+09	1.182379e+12	0.000000e+00	3.771429e-01	9.937866e+13	2.791737e+14	3.204448e+14	1.006823e+04	7.342518e+03	3.224102e+03	0	4.351983e-04
1.230000e+09	1.131044e+12	0.000000e+00	3.771429e-01	9.843869e+13	2.798593e+14	3.190837e+14	1.005586e+04	7.345300e+03	3.225324e+03	0	4.288066e-04
1.240000e+09	1.080497e+12	0.000000e+00	3.771429e-01	9.751256e+13	2.805314e+14	3.177316e+14	1.004361e+04	7.348023e+03	3.226519e+03	0	4.223211e-04
1.250000e+09	1.030722e+12	0.000000e+00	3.771429e-01	9.660001e+13	2.811904e+14	3.163884e+14	1.003147e+04	7.350686e+03	3.227689e+03	0	4.157340e-04
1.260000e+09	9.817051e+11	0.000000e+00	3.771429e-01	9.570079e+13	2.818361e+14	3.150541e+14	1.001944e+04	7.353292e+03	3.228833e+03	0	4.090364e-04
1.270000e+09	9.334318e+11	0.000000e+00	3.771429e-01	9.481464e+13	2.824687e+14	3.137286e+14	1.000753e+04	7.355841e+03	3.229952e+03	0	4.022190e-04
1.280000e+09	8.858882e+11	0.000000e+00	3.771429e-01	9.394133e+13	2.830884e+14	3.124118e+14	9.995726e+03	7.358334e+03	3.231047e+03	0	3.952707e-04
1.290000e+09	8.390606e+11	0.000000e+00	3.771429e-01	9.308063e+13	2.836952e+14	3.111036e+14	9.984030e+03	7.360770e+03	3.232117e+03	0	3.881797e-04
1.300000e+09	7.929356e+11	0.000000e+00	3.771429e-01	9.223229e+13	2.842892e+14	3.098040e+14	9.972442e+03	7.363152e+03	3.233162e+03	0	3.809322e-04
1.310000e+09	7.475004e+11	0.000000e+00	3.771429e-01	9.139610e+13	2.848706e+14	3.085130e+14	9.960959e+03	7.365479e+03	3.234184e+03	0	3.735128e-04
1.320000e+09	7.027420e+11	0.000000e+00	3.771429e-01	9.057183e+13	2.854394e+14	3.072304e+14	9.949580e+03	7.367753e+03	3.235182e+03	0	3.659038e-04
1.330000e+09	6.586482e+11	0.000000e+00	3.771429e-01	8.975927e+13	2.859957e+14	3.059562e+14	9.938303e+03	7.369973e+03	3.236157e+03	0	3.580850e-04
1.340000e+09	6.152067e+11	0.000000e+00	3.771429e-01	8.895821e+13	2.865397e+14	3.046903e+14	9.927127e+03	7.372141e+03	3.237109e+03	0	3.500328e-04
1.350000e+09	5.724057e+11	0.000000e+00	3.771429e-01	8.816844e+13	2.870714e+14	3.034327e+14	9.916050e+03	7.374257e+03	3.238038e+03	0	3.417194e-04
1.360000e+09	5.302335e+11	0.000000e+00	3.771429e-01	8.738976e+13	2.875911e+14	3.021832e+14	9.905072e+03	7.376322e+03	3.238945e+03	0	3.331123e-04
