#t		Qconv[W]	Ri[Rp]		R*[Rp]		Qc[W]		Qm[W]		Qr[W]		Tcmb[K]		Tl[K]		Tup[K]		RiFlag		Bs[T]
0.000000e+00	2.923097e+13	0.000000e+00	3.714285e-01	6.031327e+14	8.254242e+13	5.965726e+14	1.406288e+04	6.274413e+03	2.734631e+03	0	1.281853e-03
1.000000e+07	2.835637e+13	0.000000e+00	3.714285e-01	5.878542e+14	8.464142e+13	5.932671e+14	1.398748e+04	6.296226e+03	2.744138e+03	0	1.268938e-03
2.000000e+07	2.751849e+13	0.000000e+00	3.714285e-01	5.732068e+14	8.674144e+13	5.899864e+14	1.391396e+04	6.317635e+03	2.753468e+03	0	1.256315e-03
3.000000e+07	2.671516e+13	0.000000e+00	3.714285e-01	5.591539e+14	8.884204e+13	5.867302e+14	1.384226e+04	6.338651e+03	2.762628e+03	0	1.243969e-03
4.000000e+07	2.594440e+13	0.000000e+00	3.714285e-01	5.456613e+14	9.094278e+13	5.834983e+14	1.377230e+04	6.359289e+03	2.771623e+03	0	1.231889e-03
5.000000e+07	2.520436e+13	0.000000e+00	3.714285e-01	5.326975e+14	9.304322e+13	5.802905e+14	1.370402e+04	6.379558e+03	2.780457e+03	0	1.220063e-03
6.000000e+07	2.449332e+13	0.000000e+00	3.714285e-01	5.202331e+14	9.514293e+13	5.771066e+14	1.363734e+04	6.399469e+03	2.789135e+03	0	1.208480e-03
7.000000e+07	2.380968e+13	0.000000e+00	3.714285e-01	5.082410e+14	9.724152e+13	5.739464e+14	1.357221e+04	6.419033e+03	2.797662e+03	0	1.197130e-03
8.000000e+07	2.315197e+13	0.000000e+00	3.714285e-01	4.966959e+14	9.933855e+13	5.708098e+14	1.350856e+04	6.438260e+03	2.806042e+03	0	1.186004e-03
9.000000e+07	2.251882e+13	0.000000e+00	3.714285e-01	4.855741e+14	1.014336e+14	5.676964e+14	1.344635e+04	6.457159e+03	2.814278e+03	0	1.175093e-03
1.000000e+08	2.190892e+13	0.000000e+00	3.714285e-01	4.748537e+14	1.035264e+14	5.646062e+14	1.338552e+04	6.475739e+03	2.822376e+03	0	1.164387e-03
1.100000e+08	2.132110e+13	0.000000e+00	3.714285e-01	4.645142e+14	1.056165e+14	5.615389e+14	1.332603e+04	6.494007e+03	2.830338e+03	0	1.153879e-03
1.200000e+08	2.075422e+13	0.000000e+00	3.714285e-01	4.545365e+14	1.077034e+14	5.584943e+14	1.326781e+04	6.511972e+03	2.838168e+03	0	1.143560e-03
1.300000e+08	2.020724e+13	0.000000e+00	3.714285e-01	4.449027e+14	1.097869e+14	5.554723e+14	1.321084e+04	6.529642e+03	2.845869e+03	0	1.133425e-03
1.400000e+08	1.967918e+13	0.000000e+00	3.714285e-01	4.355959e+14	1.118665e+14	5.524726e+14	1.315507e+04	6.547024e+03	2.853445e+03	0	1.123464e-03
1.500000e+08	1.916913e+13	0.000000e+00	3.714285e-01	4.266004e+14	1.139420e+14	5.494952e+14	1.310045e+04	6.564124e+03	2.860898e+03	0	1.113673e-03
1.600000e+08	1.867622e+13	0.000000e+00	3.714285e-01	4.179016e+14	1.160129e+14	5.465397e+14	1.304695e+04	6.580950e+03	2.868231e+03	0	1.104045e-03
1.700000e+08	1.819965e+13	0.000000e+00	3.714285e-01	4.094855e+14	1.180790e+14	5.436060e+14	1.299454e+04	6.597507e+03	2.875447e+03	0	1.094573e-03
1.800000e+08	1.773865e+13	0.000000e+00	3.714285e-01	4.013392e+14	1.201398e+14	5.406939e+14	1.294317e+04	6.613802e+03	2.882549e+03	0	1.085252e-03
1.900000e+08	1.729252e+13	0.000000e+00	3.714285e-01	3.934504e+14	1.221951e+14	5.378033e+14	1.289282e+04	6.629840e+03	2.889539e+03	0	1.076076e-03
2.000000e+08	1.686058e+13	0.000000e+00	3.714285e-01	3.858076e+14	1.242445e+14	5.349340e+14	1.284345e+04	6.645628e+03	2.896420e+03	0	1.067041e-03
2.100000e+08	1.644221e+13	0.000000e+00	3.714285e-01	3.784000e+14	1.262878e+14	5.320858e+14	1.279503e+04	6.661169e+03	2.903194e+03	0	1.058141e-03
2.200000e+08	1.603679e+13	0.000000e+00	3.714285e-01	3.712174e+14	1.283245e+14	5.292584e+14	1.274754e+04	6.676471e+03	2.909863e+03	0	1.049372e-03
2.300000e+08	1.564379e+13	0.000000e+00	3.714285e-01	3.642500e+14	1.303545e+14	5.264519e+14	1.270094e+04	6.691537e+03	2.916429e+03	0	1.040729e-03
2.400000e+08	1.526265e+13	0.000000e+00	3.714285e-01	3.574888e+14	1.323773e+14	5.236659e+14	1.265521e+04	6.706372e+03	2.922895e+03	0	1.032207e-03
2.500000e+08	1.489289e+13	0.000000e+00	3.714285e-01	3.509251e+14	1.343928e+14	5.209003e+14	1.261032e+04	6.720981e+03	2.929262e+03	0	1.023804e-03
2.600000e+08	1.453402e+13	0.000000e+00	3.714285e-01	3.445508e+14	1.364006e+14	5.181550e+14	1.256625e+04	6.735368e+03	2.935532e+03	0	1.015513e-03
2.700000e+08	1.418561e+13	0.000000e+00	3.714285e-01	3.383583e+14	1.384004e+14	5.154297e+14	1.252298e+04	6.749537e+03	2.941708e+03	0	1.007333e-03
2.800000e+08	1.384722e+13	0.000000e+00	3.714285e-01	3.323401e+14	1.403920e+14	5.127243e+14	1.248048e+04	6.763494e+03	2.947791e+03	0	9.992584e-04
2.900000e+08	1.351845e+13	0.000000e+00	3.714285e-01	3.264894e+14	1.423752e+14	5.100387e+14	1.243873e+04	6.777240e+03	2.953782e+03	0	9.912866e-04
3.000000e+08	1.319892e+13	0.000000e+00	3.714285e-01	3.207996e+14	1.443496e+14	5.073727e+14	1.239771e+04	6.790781e+03	2.959684e+03	0	9.834141e-04
3.100000e+08	1.288827e+13	0.000000e+00	3.714285e-01	3.152644e+14	1.463150e+14	5.047260e+14	1.235740e+04	6.804121e+03	2.965497e+03	0	9.756376e-04
3.200000e+08	1.258616e+13	0.000000e+00	3.714285e-01	3.098781e+14	1.482711e+14	5.020987e+14	1.231778e+04	6.817261e+03	2.971225e+03	0	9.679540e-04
3.300000e+08	1.229226e+13	0.000000e+00	3.714285e-01	3.046348e+14	1.502178e+14	4.994904e+14	1.227884e+04	6.830207e+03	2.976867e+03	0	9.603603e-04
3.400000e+08	1.200626e+13	0.000000e+00	3.714285e-01	2.995294e+14	1.521547e+14	4.969011e+14	1.224055e+04	6.842962e+03	2.982426e+03	0	9.528536e-04
3.500000e+08	1.172786e+13	0.000000e+00	3.714285e-01	2.945567e+14	1.540817e+14	4.943305e+14	1.220289e+04	6.855528e+03	2.987903e+03	0	9.454311e-04
3.600000e+08	1.145679e+13	0.000000e+00	3.714285e-01	2.897118e+14	1.559985e+14	4.917786e+14	1.216586e+04	6.867909e+03	2.993299e+03	0	9.380902e-04
3.700000e+08	1.119277e+13	0.000000e+00	3.714285e-01	2.849903e+14	1.579049e+14	4.892452e+14	1.212944e+04	6.880109e+03	2.998616e+03	0	9.308282e-04
3.800000e+08	1.093556e+13	0.000000e+00	3.714285e-01	2.803876e+14	1.598007e+14	4.867301e+14	1.209360e+04	6.892129e+03	3.003855e+03	0	9.236427e-04
3.900000e+08	1.068491e+13	0.000000e+00	3.714285e-01	2.758996e+14	1.616857e+14	4.842332e+14	1.205835e+04	6.903973e+03	3.009017e+03	0	9.165313e-04
4.000000e+08	1.044059e+13	0.000000e+00	3.714285e-01	2.715222e+14	1.635597e+14	4.817543e+14	1.202365e+04	6.915643e+03	3.014103e+03	0	9.094915e-04
4.100000e+08	1.020238e+13	0.000000e+00	3.714285e-01	2.672518e+14	1.654224e+14	4.792933e+14	1.198950e+04	6.927144e+03	3.019116e+03	0	9.025213e-04
4.200000e+08	9.970065e+12	0.000000e+00	3.714285e-01	2.630846e+14	1.672738e+14	4.768501e+14	1.195588e+04	6.938476e+03	3.024055e+03	0	8.956183e-04
4.300000e+08	9.743448e+12	0.000000e+00	3.714285e-01	2.590172e+14	1.691136e+14	4.744244e+14	1.192279e+04	6.949643e+03	3.028922e+03	0	8.887805e-04
4.400000e+08	9.522335e+12	0.000000e+00	3.714285e-01	2.550462e+14	1.709417e+14	4.720162e+14	1.189020e+04	6.960647e+03	3.033718e+03	0	8.820058e-04
4.500000e+08	9.306543e+12	0.000000e+00	3.714285e-01	2.511684e+14	1.727578e+14	4.696253e+14	1.185811e+04	6.971490e+03	3.038444e+03	0	8.752923e-04
4.600000e+08	9.095897e+12	0.000000e+00	3.714285e-01	2.473809e+14	1.745619e+14	4.672516e+14	1.182651e+04	6.982176e+03	3.043101e+03	0	8.686380e-04
4.700000e+08	8.890226e+12	0.000000e+00	3.714285e-01	2.436807e+14	1.763537e+14	4.648948e+14	1.179538e+04	6.992706e+03	3.047690e+03	0	8.620410e-04
4.800000e+08	8.689372e+12	0.000000e+00	3.714285e-01	2.400650e+14	1.781331e+14	4.625550e+14	1.176471e+04	7.003083e+03	3.052213e+03	0	8.554995e-04
4.900000e+08	8.493179e+12	0.000000e+00	3.714285e-01	2.365311e+14	1.799000e+14	4.602319e+14	1.173450e+04	7.013308e+03	3.056670e+03	0	8.490118e-04
5.000000e+08	8.301499e+12	0.000000e+00	3.714285e-01	2.330765e+14	1.816541e+14	4.579255e+14	1.170473e+04	7.023385e+03	3.061061e+03	0	8.425761e-04
5.100000e+08	8.114192e+12	0.000000e+00	3.714285e-01	2.296987e+14	1.833955e+14	4.556355e+14	1.167539e+04	7.033315e+03	3.065389e+03	0	8.361908e-04
5.200000e+08	7.931120e+12	0.000000e+00	3.714285e-01	2.263954e+14	1.851239e+14	4.533618e+14	1.164648e+04	7.043100e+03	3.069654e+03	0	8.298542e-04
5.300000e+08	7.752153e+12	0.000000e+00	3.714285e-01	2.231642e+14	1.868392e+14	4.511044e+14	1.161798e+04	7.052743e+03	3.073857e+03	0	8.235647e-04
5.400000e+08	7.577167e+12	0.000000e+00	3.714285e-01	2.200031e+14	1.885413e+14	4.488630e+14	1.158988e+04	7.062244e+03	3.077998e+03	0	8.173209e-04
5.500000e+08	7.406040e+12	0.000000e+00	3.714285e-01	2.169100e+14	1.902300e+14	4.466376e+14	1.156218e+04	7.071607e+03	3.082079e+03	0	8.111210e-04
5.600000e+08	7.238659e+12	0.000000e+00	3.714285e-01	2.138827e+14	1.919053e+14	4.444281e+14	1.153487e+04	7.080834e+03	3.086100e+03	0	8.049638e-04
5.700000e+08	7.074910e+12	0.000000e+00	3.714285e-01	2.109195e+14	1.935671e+14	4.422342e+14	1.150794e+04	7.089925e+03	3.090062e+03	0	7.988476e-04
5.800000e+08	6.914689e+12	0.000000e+00	3.714285e-01	2.080184e+14	1.952152e+14	4.400558e+14	1.148138e+04	7.098883e+03	3.093966e+03	0	7.927712e-04
5.900000e+08	6.757892e+12	0.000000e+00	3.714285e-01	2.051777e+14	1.968495e+14	4.378929e+14	1.145518e+04	7.107709e+03	3.097813e+03	0	7.867330e-04
6.000000e+08	6.604420e+12	0.000000e+00	3.714285e-01	2.023957e+14	1.984701e+14	4.357454e+14	1.142934e+04	7.116406e+03	3.101603e+03	0	7.807318e-04
6.100000e+08	6.454179e+12	0.000000e+00	3.714285e-01	1.996706e+14	2.000766e+14	4.336130e+14	1.140384e+04	7.124975e+03	3.105338e+03	0	7.747662e-04
6.200000e+08	6.307077e+12	0.000000e+00	3.714285e-01	1.970010e+14	2.016692e+14	4.314957e+14	1.137869e+04	7.133418e+03	3.109018e+03	0	7.688348e-04
6.300000e+08	6.163026e+12	0.000000e+00	3.714285e-01	1.943852e+14	2.032477e+14	4.293933e+14	1.135388e+04	7.141736e+03	3.112643e+03	0	7.629363e-04
6.400000e+08	6.021941e+12	0.000000e+00	3.714285e-01	1.918218e+14	2.048121e+14	4.273058e+14	1.132939e+04	7.149931e+03	3.116215e+03	0	7.570696e-04
6.500000e+08	5.883740e+12	0.000000e+00	3.714285e-01	1.893094e+14	2.063622e+14	4.252329e+14	1.130522e+04	7.158005e+03	3.119734e+03	0	7.512332e-04
6.600000e+08	5.748345e+12	0.000000e+00	3.714285e-01	1.868466e+14	2.078980e+14	4.231747e+14	1.128137e+04	7.165959e+03	3.123201e+03	0	7.454261e-04
6.700000e+08	5.615679e+12	0.000000e+00	3.714285e-01	1.844320e+14	2.094194e+14	4.211309e+14	1.125783e+04	7.173795e+03	3.126616e+03	0	7.396468e-04
6.800000e+08	5.485669e+12	0.000000e+00	3.714285e-01	1.820645e+14	2.109265e+14	4.191015e+14	1.123459e+04	7.181514e+03	3.129980e+03	0	7.338943e-04
6.900000e+08	5.358244e+12	0.000000e+00	3.714285e-01	1.797427e+14	2.124191e+14	4.170863e+14	1.121165e+04	7.189118e+03	3.133294e+03	0	7.281673e-04
7.000000e+08	5.233337e+12	0.000000e+00	3.714285e-01	1.774654e+14	2.138972e+14	4.150852e+14	1.118900e+04	7.196607e+03	3.136558e+03	0	7.224645e-04
7.100000e+08	5.110879e+12	0.000000e+00	3.714285e-01	1.752316e+14	2.153607e+14	4.130982e+14	1.116663e+04	7.203985e+03	3.139774e+03	0	7.167849e-04
7.200000e+08	4.990809e+12	0.000000e+00	3.714285e-01	1.730401e+14	2.168096e+14	4.111250e+14	1.114455e+04	7.211252e+03	3.142941e+03	0	7.111272e-04
7.300000e+08	4.873065e+12	0.000000e+00	3.714285e-01	1.708898e+14	2.182439e+14	4.091656e+14	1.112274e+04	7.218408e+03	3.146060e+03	0	7.054903e-04
7.400000e+08	4.757586e+12	0.000000e+00	3.714285e-01	1.687796e+14	2.196636e+14	4.072199e+14	1.110120e+04	7.225457e+03	3.149132e+03	0	6.998729e-04
7.500000e+08	4.644315e+12	0.000000e+00	3.714285e-01	1.667087e+14	2.210685e+14	4.052878e+14	1.107993e+04	7.232399e+03	3.152158e+03	0	6.942740e-04
7.600000e+08	4.533198e+12	0.000000e+00	3.714285e-01	1.646759e+14	2.224588e+14	4.033691e+14	1.105891e+04	7.239235e+03	3.155137e+03	0	6.886922e-04
7.700000e+08	4.424179e+12	0.000000e+00	3.714285e-01	1.626804e+14	2.238343e+14	4.014638e+14	1.103815e+04	7.245967e+03	3.158071e+03	0	6.831266e-04
7.800000e+08	4.317207e+12	0.000000e+00	3.714285e-01	1.607213e+14	2.251950e+14	3.995717e+14	1.101764e+04	7.252596e+03	3.160960e+03	0	6.775758e-04
7.900000e+08	4.212231e+12	0.000000e+00	3.714285e-01	1.587976e+14	2.265411e+14	3.976928e+14	1.099738e+04	7.259123e+03	3.163805e+03	0	6.720388e-04
8.000000e+08	4.109202e+12	0.000000e+00	3.714285e-01	1.569085e+14	2.278723e+14	3.958269e+14	1.097736e+04	7.265550e+03	3.166606e+03	0	6.665143e-04
8.100000e+08	4.008074e+12	0.000000e+00	3.714285e-01	1.550533e+14	2.291888e+14	3.939739e+14	1.095758e+04	7.271878e+03	3.169364e+03	0	6.610011e-04
8.200000e+08	3.908800e+12	0.000000e+00	3.714285e-01	1.532310e+14	2.304905e+14	3.921338e+14	1.093803e+04	7.278107e+03	3.172079e+03	0	6.554981e-04
8.300000e+08	3.811336e+12	0.000000e+00	3.714285e-01	1.514409e+14	2.317774e+14	3.903063e+14	1.091871e+04	7.284239e+03	3.174752e+03	0	6.500040e-04
8.400000e+08	3.715639e+12	0.000000e+00	3.714285e-01	1.496822e+14	2.330495e+14	3.884915e+14	1.089961e+04	7.290276e+03	3.177383e+03	0	6.445176e-04
8.500000e+08	3.621667e+12	0.000000e+00	3.714285e-01	1.479543e+14	2.343069e+14	3.866892e+14	1.088074e+04	7.296218e+03	3.179973e+03	0	6.390377e-04
8.600000e+08	3.529381e+12	0.000000e+00	3.714285e-01	1.462564e+14	2.355495e+14	3.848994e+14	1.086208e+04	7.302067e+03	3.182522e+03	0	6.335630e-04
8.700000e+08	3.438739e+12	0.000000e+00	3.714285e-01	1.445878e+14	2.367773e+14	3.831218e+14	1.084363e+04	7.307823e+03	3.185031e+03	0	6.280922e-04
8.800000e+08	3.349706e+12	0.000000e+00	3.714285e-01	1.429478e+14	2.379905e+14	3.813565e+14	1.082540e+04	7.313489e+03	3.187500e+03	0	6.226240e-04
8.900000e+08	3.262243e+12	0.000000e+00	3.714285e-01	1.413359e+14	2.391890e+14	3.796033e+14	1.080737e+04	7.319064e+03	3.189929e+03	0	6.171571e-04
9.000000e+08	3.176316e+12	0.000000e+00	3.714285e-01	1.397513e+14	2.403727e+14	3.778622e+14	1.078954e+04	7.324550e+03	3.192321e+03	0	6.116902e-04
9.100000e+08	3.091888e+12	0.000000e+00	3.714285e-01	1.381935e+14	2.415418e+14	3.761330e+14	1.077191e+04	7.329948e+03	3.194673e+03	0	6.062218e-04
9.200000e+08	3.008927e+12	0.000000e+00	3.714285e-01	1.366619e+14	2.426963e+14	3.744156e+14	1.075448e+04	7.335259e+03	3.196988e+03	0	6.007506e-04
9.300000e+08	2.927400e+12	0.000000e+00	3.714285e-01	1.351559e+14	2.438361e+14	3.727100e+14	1.073724e+04	7.340484e+03	3.199265e+03	0	5.952750e-04
9.400000e+08	2.847274e+12	0.000000e+00	3.714285e-01	1.336749e+14	2.449614e+14	3.710160e+14	1.072019e+04	7.345624e+03	3.201506e+03	0	5.897936e-04
9.500000e+08	2.768519e+12	0.000000e+00	3.714285e-01	1.322184e+14	2.460722e+14	3.693336e+14	1.070333e+04	7.350680e+03	3.203709e+03	0	5.843048e-04
9.600000e+08	2.691105e+12	0.000000e+00	3.714285e-01	1.307858e+14	2.471684e+14	3.676627e+14	1.068665e+04	7.355654e+03	3.205877e+03	0	5.788071e-04
9.700000e+08	2.615003e+12	0.000000e+00	3.714285e-01	1.293768e+14	2.482502e+14	3.660031e+14	1.067015e+04	7.360545e+03	3.208009e+03	0	5.732988e-04
9.800000e+08	2.540184e+12	0.000000e+00	3.714285e-01	1.279906e+14	2.493176e+14	3.643548e+14	1.065383e+04	7.365355e+03	3.210105e+03	0	5.677781e-04
9.900000e+08	2.466620e+12	0.000000e+00	3.714285e-01	1.266270e+14	2.503706e+14	3.627178e+14	1.063768e+04	7.370086e+03	3.212167e+03	0	5.622434e-04
1.000000e+09	2.394285e+12	0.000000e+00	3.714285e-01	1.252853e+14	2.514093e+14	3.610918e+14	1.062170e+04	7.374737e+03	3.214194e+03	0	5.566927e-04
1.010000e+09	2.323152e+12	0.000000e+00	3.714285e-01	1.239651e+14	2.524337e+14	3.594769e+14	1.060590e+04	7.379310e+03	3.216187e+03	0	5.511242e-04
1.020000e+09	2.253197e+12	0.000000e+00	3.714285e-01	1.226661e+14	2.534438e+14	3.578729e+14	1.059025e+04	7.383806e+03	3.218147e+03	0	5.455359e-04
1.030000e+09	2.184393e+12	0.000000e+00	3.714285e-01	1.213876e+14	2.544398e+14	3.562798e+14	1.057477e+04	7.388226e+03	3.220073e+03	0	5.399256e-04
1.040000e+09	2.116718e+12	0.000000e+00	3.714285e-01	1.201294e+14	2.554217e+14	3.546974e+14	1.055946e+04	7.392570e+03	3.221966e+03	0	5.342912e-04
1.050000e+09	2.050148e+12	0.000000e+00	3.714285e-01	1.188910e+14	2.563895e+14	3.531258e+14	1.054430e+04	7.396839e+03	3.223827e+03	0	5.286303e-04
1.060000e+09	1.984660e+12	0.000000e+00	3.714285e-01	1.176720e+14	2.573433e+14	3.515647e+14	1.052929e+04	7.401035e+03	3.225656e+03	0	5.229406e-04
1.070000e+09	1.920231e+12	0.000000e+00	3.714285e-01	1.164720e+14	2.582832e+14	3.500141e+14	1.051444e+04	7.405158e+03	3.227453e+03	0	5.172194e-04
1.080000e+09	1.856841e+12	0.000000e+00	3.714285e-01	1.152906e+14	2.592092e+14	3.484740e+14	1.049974e+04	7.409209e+03	3.229218e+03	0	5.114641e-04
1.090000e+09	1.794467e+12	0.000000e+00	3.714285e-01	1.141275e+14	2.601213e+14	3.469443e+14	1.048519e+04	7.413189e+03	3.230953e+03	0	5.056719e-04
1.100000e+09	1.733090e+12	0.000000e+00	3.714285e-01	1.129823e+14	2.610197e+14	3.454248e+14	1.047079e+04	7.417098e+03	3.232657e+03	0	4.998396e-04
1.110000e+09	1.672689e+12	0.000000e+00	3.714285e-01	1.118546e+14	2.619044e+14	3.439155e+14	1.045653e+04	7.420938e+03	3.234330e+03	0	4.939640e-04
1.120000e+09	1.613244e+12	0.000000e+00	3.714285e-01	1.107441e+14	2.627755e+14	3.424163e+14	1.044241e+04	7.424710e+03	3.235974e+03	0	4.880418e-04
1.130000e+09	1.554738e+12	0.000000e+00	3.714285e-01	1.096504e+14	2.636330e+14	3.409271e+14	1.042843e+04	7.428413e+03	3.237588e+03	0	4.820692e-04
1.140000e+09	1.497150e+12	0.000000e+00	3.714285e-01	1.085733e+14	2.644771e+14	3.394479e+14	1.041459e+04	7.432049e+03	3.239173e+03	0	4.760422e-04
1.150000e+09	1.440464e+12	0.000000e+00	3.714285e-01	1.075124e+14	2.653077e+14	3.379786e+14	1.040089e+04	7.435619e+03	3.240729e+03	0	4.699566e-04
1.160000e+09	1.384661e+12	0.000000e+00	3.714285e-01	1.064674e+14	2.661251e+14	3.365190e+14	1.038731e+04	7.439123e+03	3.242256e+03	0	4.638079e-04
1.170000e+09	1.329724e+12	0.000000e+00	3.714285e-01	1.054379e+14	2.669291e+14	3.350692e+14	1.037387e+04	7.442563e+03	3.243755e+03	0	4.575910e-04
1.180000e+09	1.275637e+12	0.000000e+00	3.714285e-01	1.044238e+14	2.677199e+14	3.336291e+14	1.036056e+04	7.445939e+03	3.245226e+03	0	4.513006e-04
1.190000e+09	1.222382e+12	0.000000e+00	3.714285e-01	1.034246e+14	2.684977e+14	3.321985e+14	1.034738e+04	7.449251e+03	3.246670e+03	0	4.449309e-04
1.200000e+09	1.169944e+12	0.000000e+00	3.714285e-01	1.024402e+14	2.692624e+14	3.307774e+14	1.033432e+04	7.452501e+03	3.248086e+03	0	4.384755e-04
1.210000e+09	1.118308e+12	0.000000e+00	3.714285e-01	1.014702e+14	2.700142e+14	3.293657e+14	1.032139e+04	7.455688e+03	3.249476e+03	0	4.319274e-04
1.220000e+09	1.067457e+12	0.000000e+00	3.714285e-01	1.005143e+14	2.707531e+14	3.279634e+14	1.030858e+04	7.458815e+03	3.250839e+03	0	4.252789e-04
1.230000e+09	1.017378e+12	0.000000e+00	3.714285e-01	9.957240e+13	2.714792e+14	3.265704e+14	1.029589e+04	7.461882e+03	3.252175e+03	0	4.185215e-04
1.240000e+09	9.680556e+11	0.000000e+00	3.714285e-01	9.864411e+13	2.721926e+14	3.251865e+14	1.028332e+04	7.464888e+03	3.253485e+03	0	4.116458e-04
1.250000e+09	9.194753e+11	0.000000e+00	3.714285e-01	9.772921e+13	2.728934e+14	3.238118e+14	1.027086e+04	7.467836e+03	3.254770e+03	0	4.046414e-04
1.260000e+09	8.716236e+11	0.000000e+00	3.714285e-01	9.682746e+13	2.735816e+14	3.224462e+14	1.025852e+04	7.470725e+03	3.256029e+03	0	3.974965e-04
1.270000e+09	8.244868e+11	0.000000e+00	3.714285e-01	9.593861e+13	2.742574e+14	3.210896e+14	1.024630e+04	7.473557e+03	3.257264e+03	0	3.901978e-04
1.280000e+09	7.780517e+11	0.000000e+00	3.714285e-01	9.506244e+13	2.749208e+14	3.197419e+14	1.023418e+04	7.476332e+03	3.258473e+03	0	3.827305e-04
1.290000e+09	7.323054e+11	0.000000e+00	3.714285e-01	9.419871e+13	2.755719e+14	3.184030e+14	1.022218e+04	7.479050e+03	3.259658e+03	0	3.750775e-04
1.300000e+09	6.872352e+11	0.000000e+00	3.714285e-01	9.334719e+13	2.762108e+14	3.170730e+14	1.021028e+04	7.481713e+03	3.260818e+03	0	3.672192e-04
1.310000e+09	6.428288e+11	0.000000e+00	3.714285e-01	9.250767e+13	2.768376e+14	3.157516e+14	1.019849e+04	7.484321e+03	3.261955e+03	0	3.591331e-04
1.320000e+09	5.990741e+11	0.000000e+00	3.714285e-01	9.167993e+13	2.774524e+14	3.144389e+14	1.018681e+04	7.486874e+03	3.263068e+03	0	3.507926e-04
1.330000e+09	5.559592e+11	0.000000e+00	3.714285e-01	9.086376e+13	2.780552e+14	3.131348e+14	1.017523e+04	7.489374e+03	3.264157e+03	0	3.421669e-04
1.340000e+09	5.134727e+11	0.000000e+00	3.714285e-01	9.005896e+13	2.786462e+14	3.118392e+14	1.016376e+04	7.491820e+03	3.265223e+03	0	3.332187e-04
1.350000e+09	4.716032e+11	0.000000e+00	3.714285e-01	8.926532e+13	2.792255e+14	3.105521e+14	1.015238e+04	7.494214e+03	3.266267e+03	0	3.239037e-04
1.360000e+09	4.303397e+11	0.000000e+00	3.714285e-01	8.848265e+13	2.797930e+14	3.092734e+14	1.014111e+04	7.496557e+03	3.267288e+03	0	3.141672e-04
