#t		Qconv[W]	Ri[Rp]		R*[Rp]		Qc[W]		Qm[W]		Qr[W]		Tcmb[K]		Tl[K]		Tup[K]		RiFlag		Bs[T]
0.000000e+00	3.254467e+13	0.000000e+00	3.714287e-01	6.570051e+14	8.045566e+13	6.259196e+14	1.458873e+04	6.442456e+03	2.758393e+03	0	1.326257e-03
1.000000e+07	3.157369e+13	0.000000e+00	3.714287e-01	6.405846e+14	8.253137e+13	6.224515e+14	1.451119e+04	6.465003e+03	2.768047e+03	0	1.312933e-03
2.000000e+07	3.064303e+13	0.000000e+00	3.714287e-01	6.248342e+14	8.460928e+13	6.190094e+14	1.443557e+04	6.487138e+03	2.777524e+03	0	1.299905e-03
3.000000e+07	2.975034e+13	0.000000e+00	3.714287e-01	6.097155e+14	8.668891e+13	6.155930e+14	1.436179e+04	6.508874e+03	2.786830e+03	0	1.287157e-03
4.000000e+07	2.889345e+13	0.000000e+00	3.714287e-01	5.951925e+14	8.876984e+13	6.122021e+14	1.428979e+04	6.530222e+03	2.795971e+03	0	1.274679e-03
5.000000e+07	2.807036e+13	0.000000e+00	3.714287e-01	5.812322e+14	9.085163e+13	6.088365e+14	1.421948e+04	6.551195e+03	2.804950e+03	0	1.262458e-03
6.000000e+07	2.727920e+13	0.000000e+00	3.714287e-01	5.678037e+14	9.293386e+13	6.054960e+14	1.415080e+04	6.571803e+03	2.813774e+03	0	1.250484e-03
7.000000e+07	2.651822e+13	0.000000e+00	3.714287e-01	5.548782e+14	9.501613e+13	6.021804e+14	1.408370e+04	6.592057e+03	2.822446e+03	0	1.238746e-03
8.000000e+07	2.578583e+13	0.000000e+00	3.714287e-01	5.424293e+14	9.709800e+13	5.988894e+14	1.401812e+04	6.611967e+03	2.830971e+03	0	1.227236e-03
9.000000e+07	2.508051e+13	0.000000e+00	3.714287e-01	5.304319e+14	9.917908e+13	5.956229e+14	1.395399e+04	6.631542e+03	2.839352e+03	0	1.215942e-03
1.000000e+08	2.440086e+13	0.000000e+00	3.714287e-01	5.188630e+14	1.012590e+14	5.923806e+14	1.389127e+04	6.650792e+03	2.847594e+03	0	1.204858e-03
1.100000e+08	2.374557e+13	0.000000e+00	3.714287e-01	5.077008e+14	1.033373e+14	5.891625e+14	1.382990e+04	6.669724e+03	2.855700e+03	0	1.193975e-03
1.200000e+08	2.311342e+13	0.000000e+00	3.714287e-01	4.969251e+14	1.054137e+14	5.859681e+14	1.376985e+04	6.688347e+03	2.863673e+03	0	1.183284e-03
1.300000e+08	2.250326e+13	0.000000e+00	3.714287e-01	4.865170e+14	1.074878e+14	5.827974e+14	1.371105e+04	6.706669e+03	2.871518e+03	0	1.172779e-03
1.400000e+08	2.191402e+13	0.000000e+00	3.714287e-01	4.764587e+14	1.095592e+14	5.796502e+14	1.365349e+04	6.724697e+03	2.879237e+03	0	1.162452e-03
1.500000e+08	2.134470e+13	0.000000e+00	3.714287e-01	4.667335e+14	1.116276e+14	5.765263e+14	1.359710e+04	6.742438e+03	2.886833e+03	0	1.152296e-03
1.600000e+08	2.079435e+13	0.000000e+00	3.714287e-01	4.573258e+14	1.136925e+14	5.734254e+14	1.354185e+04	6.759899e+03	2.894309e+03	0	1.142307e-03
1.700000e+08	2.026208e+13	0.000000e+00	3.714287e-01	4.482210e+14	1.157538e+14	5.703474e+14	1.348771e+04	6.777086e+03	2.901668e+03	0	1.132476e-03
1.800000e+08	1.974707e+13	0.000000e+00	3.714287e-01	4.394052e+14	1.178110e+14	5.672921e+14	1.343464e+04	6.794006e+03	2.908912e+03	0	1.122798e-03
1.900000e+08	1.924852e+13	0.000000e+00	3.714287e-01	4.308654e+14	1.198637e+14	5.642593e+14	1.338260e+04	6.810664e+03	2.916044e+03	0	1.113269e-03
2.000000e+08	1.876571e+13	0.000000e+00	3.714287e-01	4.225894e+14	1.219118e+14	5.612488e+14	1.333157e+04	6.827067e+03	2.923067e+03	0	1.103882e-03
2.100000e+08	1.829793e+13	0.000000e+00	3.714287e-01	4.145658e+14	1.239548e+14	5.582605e+14	1.328151e+04	6.843219e+03	2.929983e+03	0	1.094632e-03
2.200000e+08	1.784454e+13	0.000000e+00	3.714287e-01	4.067835e+14	1.259924e+14	5.552941e+14	1.323240e+04	6.859126e+03	2.936794e+03	0	1.085515e-03
2.300000e+08	1.740491e+13	0.000000e+00	3.714287e-01	3.992323e+14	1.280244e+14	5.523494e+14	1.318420e+04	6.874793e+03	2.943502e+03	0	1.076527e-03
2.400000e+08	1.697846e+13	0.000000e+00	3.714287e-01	3.919025e+14	1.300504e+14	5.494264e+14	1.313689e+04	6.890224e+03	2.950109e+03	0	1.067662e-03
2.500000e+08	1.656463e+13	0.000000e+00	3.714287e-01	3.847849e+14	1.320702e+14	5.465248e+14	1.309045e+04	6.905426e+03	2.956617e+03	0	1.058916e-03
2.600000e+08	1.616291e+13	0.000000e+00	3.714287e-01	3.778710e+14	1.340834e+14	5.436444e+14	1.304484e+04	6.920401e+03	2.963029e+03	0	1.050286e-03
2.700000e+08	1.577279e+13	0.000000e+00	3.714287e-01	3.711523e+14	1.360898e+14	5.407850e+14	1.300004e+04	6.935154e+03	2.969346e+03	0	1.041767e-03
2.800000e+08	1.539382e+13	0.000000e+00	3.714287e-01	3.646211e+14	1.380891e+14	5.379466e+14	1.295604e+04	6.949691e+03	2.975570e+03	0	1.033355e-03
2.900000e+08	1.502555e+13	0.000000e+00	3.714287e-01	3.582702e+14	1.400810e+14	5.351288e+14	1.291281e+04	6.964013e+03	2.981702e+03	0	1.025048e-03
3.000000e+08	1.466755e+13	0.000000e+00	3.714287e-01	3.520923e+14	1.420653e+14	5.323316e+14	1.287032e+04	6.978126e+03	2.987745e+03	0	1.016842e-03
3.100000e+08	1.431942e+13	0.000000e+00	3.714287e-01	3.460809e+14	1.440417e+14	5.295548e+14	1.282856e+04	6.992034e+03	2.993699e+03	0	1.008733e-03
3.200000e+08	1.398080e+13	0.000000e+00	3.714287e-01	3.402297e+14	1.460099e+14	5.267982e+14	1.278751e+04	7.005739e+03	2.999568e+03	0	1.000718e-03
3.300000e+08	1.365131e+13	0.000000e+00	3.714287e-01	3.345327e+14	1.479697e+14	5.240616e+14	1.274716e+04	7.019246e+03	3.005351e+03	0	9.927936e-04
3.400000e+08	1.333061e+13	0.000000e+00	3.714287e-01	3.289841e+14	1.499210e+14	5.213449e+14	1.270747e+04	7.032558e+03	3.011050e+03	0	9.849577e-04
3.500000e+08	1.301838e+13	0.000000e+00	3.714287e-01	3.235785e+14	1.518633e+14	5.186479e+14	1.266844e+04	7.045678e+03	3.016668e+03	0	9.772070e-04
3.600000e+08	1.271431e+13	0.000000e+00	3.714287e-01	3.183107e+14	1.537965e+14	5.159705e+14	1.263004e+04	7.058610e+03	3.022205e+03	0	9.695387e-04
3.700000e+08	1.241810e+13	0.000000e+00	3.714287e-01	3.131758e+14	1.557205e+14	5.133125e+14	1.259227e+04	7.071356e+03	3.027662e+03	0	9.619503e-04
3.800000e+08	1.212947e+13	0.000000e+00	3.714287e-01	3.081691e+14	1.576348e+14	5.106737e+14	1.255510e+04	7.083920e+03	3.033041e+03	0	9.544390e-04
3.900000e+08	1.184815e+13	0.000000e+00	3.714287e-01	3.032861e+14	1.595394e+14	5.080539e+14	1.251852e+04	7.096305e+03	3.038344e+03	0	9.470024e-04
4.000000e+08	1.157389e+13	0.000000e+00	3.714287e-01	2.985225e+14	1.614341e+14	5.054531e+14	1.248252e+04	7.108512e+03	3.043571e+03	0	9.396381e-04
4.100000e+08	1.130643e+13	0.000000e+00	3.714287e-01	2.938743e+14	1.633186e+14	5.028710e+14	1.244708e+04	7.120547e+03	3.048723e+03	0	9.323438e-04
4.200000e+08	1.104555e+13	0.000000e+00	3.714287e-01	2.893375e+14	1.651928e+14	5.003076e+14	1.241220e+04	7.132410e+03	3.053803e+03	0	9.251171e-04
4.300000e+08	1.079103e+13	0.000000e+00	3.714287e-01	2.849083e+14	1.670564e+14	4.977626e+14	1.237784e+04	7.144105e+03	3.058810e+03	0	9.179559e-04
4.400000e+08	1.054264e+13	0.000000e+00	3.714287e-01	2.805834e+14	1.689093e+14	4.952359e+14	1.234401e+04	7.155633e+03	3.063746e+03	0	9.108581e-04
4.500000e+08	1.030019e+13	0.000000e+00	3.714287e-01	2.763591e+14	1.707512e+14	4.927274e+14	1.231069e+04	7.166999e+03	3.068612e+03	0	9.038216e-04
4.600000e+08	1.006349e+13	0.000000e+00	3.714287e-01	2.722323e+14	1.725821e+14	4.902369e+14	1.227787e+04	7.178204e+03	3.073410e+03	0	8.968443e-04
4.700000e+08	9.832333e+12	0.000000e+00	3.714287e-01	2.681998e+14	1.744017e+14	4.877642e+14	1.224554e+04	7.189250e+03	3.078139e+03	0	8.899244e-04
4.800000e+08	9.606556e+12	0.000000e+00	3.714287e-01	2.642586e+14	1.762099e+14	4.853093e+14	1.221368e+04	7.200140e+03	3.082802e+03	0	8.830598e-04
4.900000e+08	9.385982e+12	0.000000e+00	3.714287e-01	2.604059e+14	1.780066e+14	4.828720e+14	1.218229e+04	7.210876e+03	3.087399e+03	0	8.762489e-04
5.000000e+08	9.170448e+12	0.000000e+00	3.714287e-01	2.566388e+14	1.797915e+14	4.804520e+14	1.215136e+04	7.221461e+03	3.091930e+03	0	8.694896e-04
5.100000e+08	8.959796e+12	0.000000e+00	3.714287e-01	2.529549e+14	1.815645e+14	4.780494e+14	1.212087e+04	7.231895e+03	3.096398e+03	0	8.627804e-04
5.200000e+08	8.753875e+12	0.000000e+00	3.714287e-01	2.493514e+14	1.833256e+14	4.756639e+14	1.209081e+04	7.242183e+03	3.100803e+03	0	8.561194e-04
5.300000e+08	8.552541e+12	0.000000e+00	3.714287e-01	2.458261e+14	1.850744e+14	4.732954e+14	1.206119e+04	7.252325e+03	3.105145e+03	0	8.495050e-04
5.400000e+08	8.355653e+12	0.000000e+00	3.714287e-01	2.423765e+14	1.868110e+14	4.709438e+14	1.203198e+04	7.262323e+03	3.109426e+03	0	8.429355e-04
5.500000e+08	8.163079e+12	0.000000e+00	3.714287e-01	2.390004e+14	1.885352e+14	4.686089e+14	1.200317e+04	7.272181e+03	3.113647e+03	0	8.364094e-04
5.600000e+08	7.974689e+12	0.000000e+00	3.714287e-01	2.356957e+14	1.902468e+14	4.662906e+14	1.197477e+04	7.281898e+03	3.117807e+03	0	8.299250e-04
5.700000e+08	7.790361e+12	0.000000e+00	3.714287e-01	2.324602e+14	1.919458e+14	4.639888e+14	1.194676e+04	7.291479e+03	3.121909e+03	0	8.234807e-04
5.800000e+08	7.609976e+12	0.000000e+00	3.714287e-01	2.292921e+14	1.936319e+14	4.617033e+14	1.191913e+04	7.300923e+03	3.125953e+03	0	8.170751e-04
5.900000e+08	7.433419e+12	0.000000e+00	3.714287e-01	2.261892e+14	1.953053e+14	4.594340e+14	1.189187e+04	7.310234e+03	3.129939e+03	0	8.107067e-04
6.000000e+08	7.260581e+12	0.000000e+00	3.714287e-01	2.231499e+14	1.969656e+14	4.571808e+14	1.186498e+04	7.319412e+03	3.133869e+03	0	8.043740e-04
6.100000e+08	7.091355e+12	0.000000e+00	3.714287e-01	2.201723e+14	1.986128e+14	4.549435e+14	1.183846e+04	7.328460e+03	3.137743e+03	0	7.980755e-04
6.200000e+08	6.925641e+12	0.000000e+00	3.714287e-01	2.172548e+14	2.002469e+14	4.527221e+14	1.181228e+04	7.337379e+03	3.141562e+03	0	7.918098e-04
6.300000e+08	6.763339e+12	0.000000e+00	3.714287e-01	2.143956e+14	2.018677e+14	4.505163e+14	1.178645e+04	7.346172e+03	3.145327e+03	0	7.855755e-04
6.400000e+08	6.604356e+12	0.000000e+00	3.714287e-01	2.115932e+14	2.034752e+14	4.483260e+14	1.176096e+04	7.354839e+03	3.149037e+03	0	7.793712e-04
6.500000e+08	6.448599e+12	0.000000e+00	3.714287e-01	2.088460e+14	2.050692e+14	4.461512e+14	1.173580e+04	7.363382e+03	3.152695e+03	0	7.731956e-04
6.600000e+08	6.295983e+12	0.000000e+00	3.714287e-01	2.061525e+14	2.066497e+14	4.439917e+14	1.171096e+04	7.371803e+03	3.156301e+03	0	7.670472e-04
6.700000e+08	6.146420e+12	0.000000e+00	3.714287e-01	2.035114e+14	2.082166e+14	4.418474e+14	1.168645e+04	7.380103e+03	3.159855e+03	0	7.609246e-04
6.800000e+08	5.999831e+12	0.000000e+00	3.714287e-01	2.009213e+14	2.097699e+14	4.397182e+14	1.166224e+04	7.388284e+03	3.163357e+03	0	7.548267e-04
6.900000e+08	5.856136e+12	0.000000e+00	3.714287e-01	1.983807e+14	2.113094e+14	4.376038e+14	1.163835e+04	7.396348e+03	3.166810e+03	0	7.487519e-04
7.000000e+08	5.715258e+12	0.000000e+00	3.714287e-01	1.958885e+14	2.128352e+14	4.355043e+14	1.161475e+04	7.404295e+03	3.170213e+03	0	7.426990e-04
7.100000e+08	5.577124e+12	0.000000e+00	3.714287e-01	1.934433e+14	2.143472e+14	4.334195e+14	1.159145e+04	7.412128e+03	3.173566e+03	0	7.366666e-04
7.200000e+08	5.441664e+12	0.000000e+00	3.714287e-01	1.910441e+14	2.158452e+14	4.313493e+14	1.156844e+04	7.419847e+03	3.176871e+03	0	7.306535e-04
7.300000e+08	5.308808e+12	0.000000e+00	3.714287e-01	1.886896e+14	2.173293e+14	4.292936e+14	1.154572e+04	7.427455e+03	3.180129e+03	0	7.246582e-04
7.400000e+08	5.178490e+12	0.000000e+00	3.714287e-01	1.863786e+14	2.187995e+14	4.272521e+14	1.152327e+04	7.434952e+03	3.183339e+03	0	7.186795e-04
7.500000e+08	5.050645e+12	0.000000e+00	3.714287e-01	1.841102e+14	2.202556e+14	4.252250e+14	1.150110e+04	7.442340e+03	3.186502e+03	0	7.127160e-04
7.600000e+08	4.925212e+12	0.000000e+00	3.714287e-01	1.818832e+14	2.216976e+14	4.232119e+14	1.147919e+04	7.449620e+03	3.189619e+03	0	7.067664e-04
7.700000e+08	4.802131e+12	0.000000e+00	3.714287e-01	1.796967e+14	2.231256e+14	4.212129e+14	1.145755e+04	7.456793e+03	3.192690e+03	0	7.008293e-04
7.800000e+08	4.681344e+12	0.000000e+00	3.714287e-01	1.775497e+14	2.245394e+14	4.192277e+14	1.143617e+04	7.463862e+03	3.195717e+03	0	6.949033e-04
7.900000e+08	4.562793e+12	0.000000e+00	3.714287e-01	1.754411e+14	2.259391e+14	4.172563e+14	1.141505e+04	7.470826e+03	3.198698e+03	0	6.889872e-04
8.000000e+08	4.446426e+12	0.000000e+00	3.714287e-01	1.733702e+14	2.273247e+14	4.152987e+14	1.139417e+04	7.477687e+03	3.201636e+03	0	6.830795e-04
8.100000e+08	4.332188e+12	0.000000e+00	3.714287e-01	1.713359e+14	2.286960e+14	4.133545e+14	1.137354e+04	7.484447e+03	3.204531e+03	0	6.771788e-04
8.200000e+08	4.220029e+12	0.000000e+00	3.714287e-01	1.693375e+14	2.300531e+14	4.114238e+14	1.135315e+04	7.491107e+03	3.207382e+03	0	6.712836e-04
8.300000e+08	4.109900e+12	0.000000e+00	3.714287e-01	1.673740e+14	2.313960e+14	4.095065e+14	1.133300e+04	7.497668e+03	3.210191e+03	0	6.653926e-04
8.400000e+08	4.001752e+12	0.000000e+00	3.714287e-01	1.654447e+14	2.327247e+14	4.076024e+14	1.131308e+04	7.504131e+03	3.212958e+03	0	6.595043e-04
8.500000e+08	3.895538e+12	0.000000e+00	3.714287e-01	1.635488e+14	2.340391e+14	4.057115e+14	1.129338e+04	7.510497e+03	3.215684e+03	0	6.536171e-04
8.600000e+08	3.791215e+12	0.000000e+00	3.714287e-01	1.616856e+14	2.353393e+14	4.038336e+14	1.127392e+04	7.516767e+03	3.218368e+03	0	6.477295e-04
8.700000e+08	3.688737e+12	0.000000e+00	3.714287e-01	1.598541e+14	2.366252e+14	4.019686e+14	1.125467e+04	7.522943e+03	3.221013e+03	0	6.418400e-04
8.800000e+08	3.588063e+12	0.000000e+00	3.714287e-01	1.580539e+14	2.378970e+14	4.001165e+14	1.123564e+04	7.529025e+03	3.223617e+03	0	6.359470e-04
8.900000e+08	3.489151e+12	0.000000e+00	3.714287e-01	1.562841e+14	2.391544e+14	3.982770e+14	1.121683e+04	7.535016e+03	3.226182e+03	0	6.300488e-04
9.000000e+08	3.391962e+12	0.000000e+00	3.714287e-01	1.545440e+14	2.403977e+14	3.964502e+14	1.119823e+04	7.540915e+03	3.228707e+03	0	6.241436e-04
9.100000e+08	3.296456e+12	0.000000e+00	3.714287e-01	1.528331e+14	2.416267e+14	3.946359e+14	1.117983e+04	7.546724e+03	3.231195e+03	0	6.182299e-04
9.200000e+08	3.202596e+12	0.000000e+00	3.714287e-01	1.511506e+14	2.428416e+14	3.928341e+14	1.116163e+04	7.552443e+03	3.233644e+03	0	6.123057e-04
9.300000e+08	3.110345e+12	0.000000e+00	3.714287e-01	1.494960e+14	2.440423e+14	3.910445e+14	1.114364e+04	7.558075e+03	3.236055e+03	0	6.063691e-04
9.400000e+08	3.019667e+12	0.000000e+00	3.714287e-01	1.478686e+14	2.452288e+14	3.892672e+14	1.112584e+04	7.563620e+03	3.238429e+03	0	6.004183e-04
9.500000e+08	2.930529e+12	0.000000e+00	3.714287e-01	1.462679e+14	2.464011e+14	3.875021e+14	1.110823e+04	7.569078e+03	3.240766e+03	0	5.944512e-04
9.600000e+08	2.842896e+12	0.000000e+00	3.714287e-01	1.446933e+14	2.475594e+14	3.857489e+14	1.109082e+04	7.574452e+03	3.243067e+03	0	5.884658e-04
9.700000e+08	2.756736e+12	0.000000e+00	3.714287e-01	1.431442e+14	2.487035e+14	3.840078e+14	1.107359e+04	7.579741e+03	3.245331e+03	0	5.824598e-04
9.800000e+08	2.672017e+12	0.000000e+00	3.714287e-01	1.416200e+14	2.498336e+14	3.822784e+14	1.105654e+04	7.584948e+03	3.247561e+03	0	5.764310e-04
9.900000e+08	2.588708e+12	0.000000e+00	3.714287e-01	1.401204e+14	2.509497e+14	3.805608e+14	1.103968e+04	7.590072e+03	3.249754e+03	0	5.703769e-04
1.000000e+09	2.506780e+12	0.000000e+00	3.714287e-01	1.386446e+14	2.520517e+14	3.788549e+14	1.102299e+04	7.595115e+03	3.251914e+03	0	5.642951e-04
1.010000e+09	2.426202e+12	0.000000e+00	3.714287e-01	1.371923e+14	2.531398e+14	3.771605e+14	1.100648e+04	7.600078e+03	3.254039e+03	0	5.581830e-04
1.020000e+09	2.346947e+12	0.000000e+00	3.714287e-01	1.357630e+14	2.542139e+14	3.754776e+14	1.099014e+04	7.604961e+03	3.256129e+03	0	5.520376e-04
1.030000e+09	2.268987e+12	0.000000e+00	3.714287e-01	1.343562e+14	2.552742e+14	3.738061e+14	1.097397e+04	7.609766e+03	3.258187e+03	0	5.458562e-04
1.040000e+09	2.192295e+12	0.000000e+00	3.714287e-01	1.329713e+14	2.563206e+14	3.721459e+14	1.095797e+04	7.614493e+03	3.260211e+03	0	5.396356e-04
1.050000e+09	2.116845e+12	0.000000e+00	3.714287e-01	1.316081e+14	2.573532e+14	3.704970e+14	1.094213e+04	7.619144e+03	3.262202e+03	0	5.333724e-04
1.060000e+09	2.042611e+12	0.000000e+00	3.714287e-01	1.302660e+14	2.583721e+14	3.688591e+14	1.092646e+04	7.623719e+03	3.264161e+03	0	5.270633e-04
1.070000e+09	1.969568e+12	0.000000e+00	3.714287e-01	1.289447e+14	2.593773e+14	3.672323e+14	1.091094e+04	7.628219e+03	3.266088e+03	0	5.207044e-04
1.080000e+09	1.897693e+12	0.000000e+00	3.714287e-01	1.276436e+14	2.603688e+14	3.656164e+14	1.089558e+04	7.632645e+03	3.267983e+03	0	5.142917e-04
1.090000e+09	1.826961e+12	0.000000e+00	3.714287e-01	1.263624e+14	2.613467e+14	3.640113e+14	1.088038e+04	7.636998e+03	3.269846e+03	0	5.078210e-04
1.100000e+09	1.757349e+12	0.000000e+00	3.714287e-01	1.251008e+14	2.623111e+14	3.624171e+14	1.086533e+04	7.641278e+03	3.271679e+03	0	5.012876e-04
1.110000e+09	1.688836e+12	0.000000e+00	3.714287e-01	1.238582e+14	2.632619e+14	3.608336e+14	1.085042e+04	7.645487e+03	3.273481e+03	0	4.946865e-04
1.120000e+09	1.621399e+12	0.000000e+00	3.714287e-01	1.226345e+14	2.641993e+14	3.592606e+14	1.083567e+04	7.649625e+03	3.275253e+03	0	4.880124e-04
1.130000e+09	1.555017e+12	0.000000e+00	3.714287e-01	1.214291e+14	2.651233e+14	3.576982e+14	1.082106e+04	7.653693e+03	3.276994e+03	0	4.812595e-04
1.140000e+09	1.489670e+12	0.000000e+00	3.714287e-01	1.202417e+14	2.660340e+14	3.561462e+14	1.080659e+04	7.657692e+03	3.278707e+03	0	4.744214e-04
1.150000e+09	1.425336e+12	0.000000e+00	3.714287e-01	1.190720e+14	2.669314e+14	3.546046e+14	1.079227e+04	7.661622e+03	3.280390e+03	0	4.674911e-04
1.160000e+09	1.361997e+12	0.000000e+00	3.714287e-01	1.179197e+14	2.678156e+14	3.530733e+14	1.077808e+04	7.665485e+03	3.282043e+03	0	4.604611e-04
1.170000e+09	1.299633e+12	0.000000e+00	3.714287e-01	1.167844e+14	2.686868e+14	3.515521e+14	1.076403e+04	7.669281e+03	3.283669e+03	0	4.533230e-04
1.180000e+09	1.238225e+12	0.000000e+00	3.714287e-01	1.156657e+14	2.695448e+14	3.500411e+14	1.075012e+04	7.673011e+03	3.285266e+03	0	4.460677e-04
1.190000e+09	1.177755e+12	0.000000e+00	3.714287e-01	1.145635e+14	2.703898e+14	3.485402e+14	1.073633e+04	7.676676e+03	3.286835e+03	0	4.386847e-04
1.200000e+09	1.118205e+12	0.000000e+00	3.714287e-01	1.134773e+14	2.712218e+14	3.470492e+14	1.072268e+04	7.680276e+03	3.288376e+03	0	4.311628e-04
1.210000e+09	1.059557e+12	0.000000e+00	3.714287e-01	1.124069e+14	2.720410e+14	3.455681e+14	1.070916e+04	7.683812e+03	3.289890e+03	0	4.234892e-04
1.220000e+09	1.001795e+12	0.000000e+00	3.714287e-01	1.113520e+14	2.728474e+14	3.440968e+14	1.069577e+04	7.687285e+03	3.291377e+03	0	4.156494e-04
1.230000e+09	9.449010e+11	0.000000e+00	3.714287e-01	1.103122e+14	2.736410e+14	3.426352e+14	1.068250e+04	7.690696e+03	3.292838e+03	0	4.076270e-04
1.240000e+09	8.888599e+11	0.000000e+00	3.714287e-01	1.092874e+14	2.744220e+14	3.411833e+14	1.066935e+04	7.694045e+03	3.294272e+03	0	3.994036e-04
1.250000e+09	8.336554e+11	0.000000e+00	3.714287e-01	1.082772e+14	2.751904e+14	3.397410e+14	1.065633e+04	7.697333e+03	3.295679e+03	0	3.909577e-04
1.260000e+09	7.792720e+11	0.000000e+00	3.714287e-01	1.072813e+14	2.759463e+14	3.383082e+14	1.064342e+04	7.700561e+03	3.297061e+03	0	3.822645e-04
1.270000e+09	7.256944e+11	0.000000e+00	3.714287e-01	1.062996e+14	2.766897e+14	3.368848e+14	1.063064e+04	7.703729e+03	3.298418e+03	0	3.732950e-04
1.280000e+09	6.729080e+11	0.000000e+00	3.714287e-01	1.053317e+14	2.774207e+14	3.354708e+14	1.061797e+04	7.706838e+03	3.299749e+03	0	3.640151e-04
1.290000e+09	6.208981e+11	0.000000e+00	3.714287e-01	1.043775e+14	2.781396e+14	3.340661e+14	1.060542e+04	7.709888e+03	3.301055e+03	0	3.543842e-04
1.300000e+09	5.696507e+11	0.000000e+00	3.714287e-01	1.034366e+14	2.788461e+14	3.326706e+14	1.059298e+04	7.712881e+03	3.302336e+03	0	3.443529e-04
1.310000e+09	5.191519e+11	0.000000e+00	3.714287e-01	1.025088e+14	2.795405e+14	3.312843e+14	1.058065e+04	7.715817e+03	3.303594e+03	0	3.338610e-04
1.320000e+09	4.693881e+11	0.000000e+00	3.714287e-01	1.015939e+14	2.802229e+14	3.299070e+14	1.056843e+04	7.718697e+03	3.304827e+03	0	3.228333e-04
1.330000e+09	4.203463e+11	0.000000e+00	3.714287e-01	1.006917e+14	2.808933e+14	3.285387e+14	1.055632e+04	7.721521e+03	3.306036e+03	0	3.111740e-04
1.340000e+09	3.720133e+11	0.000000e+00	3.714287e-01	9.980188e+13	2.815518e+14	3.271794e+14	1.054432e+04	7.724290e+03	3.307221e+03	0	2.987586e-04
1.350000e+09	3.243767e+11	0.000000e+00	3.714287e-01	9.892431e+13	2.821985e+14	3.258290e+14	1.053242e+04	7.727004e+03	3.308383e+03	0	2.854198e-04
1.360000e+09	2.774240e+11	0.000000e+00	3.714287e-01	9.805875e+13	2.828334e+14	3.244873e+14	1.052063e+04	7.729665e+03	3.309523e+03	0	2.709249e-04
