#t		Qconv[W]	Ri[Rp]		R*[Rp]		Qc[W]		Qm[W]		Qr[W]		Tcmb[K]		Tl[K]		Tup[K]		RiFlag		Bs[T]
0.000000e+00	3.558056e+13	0.000000e+00	3.714286e-01	7.058423e+14	7.813131e+13	6.548215e+14	1.509224e+04	6.603564e+03	2.781998e+03	0	1.364236e-03
1.000000e+07	3.452725e+13	0.000000e+00	3.714286e-01	6.885554e+14	8.016584e+13	6.511933e+14	1.501333e+04	6.626708e+03	2.791748e+03	0	1.350639e-03
2.000000e+07	3.351690e+13	0.000000e+00	3.714286e-01	6.719608e+14	8.220370e+13	6.475922e+14	1.493632e+04	6.649438e+03	2.801324e+03	0	1.337334e-03
3.000000e+07	3.254707e+13	0.000000e+00	3.714286e-01	6.560192e+14	8.424450e+13	6.440181e+14	1.486116e+04	6.671766e+03	2.810731e+03	0	1.324309e-03
4.000000e+07	3.161547e+13	0.000000e+00	3.714286e-01	6.406945e+14	8.628777e+13	6.404706e+14	1.478776e+04	6.693704e+03	2.819973e+03	0	1.311551e-03
5.000000e+07	3.072000e+13	0.000000e+00	3.714286e-01	6.259528e+14	8.833308e+13	6.369496e+14	1.471606e+04	6.715264e+03	2.829056e+03	0	1.299049e-03
6.000000e+07	2.985869e+13	0.000000e+00	3.714286e-01	6.117628e+14	9.038003e+13	6.334548e+14	1.464600e+04	6.736457e+03	2.837984e+03	0	1.286793e-03
7.000000e+07	2.902973e+13	0.000000e+00	3.714286e-01	5.980952e+14	9.242817e+13	6.299861e+14	1.457751e+04	6.757294e+03	2.846763e+03	0	1.274773e-03
8.000000e+07	2.823140e+13	0.000000e+00	3.714286e-01	5.849227e+14	9.447713e+13	6.265432e+14	1.451053e+04	6.777783e+03	2.855395e+03	0	1.262979e-03
9.000000e+07	2.746212e+13	0.000000e+00	3.714286e-01	5.722201e+14	9.652650e+13	6.231258e+14	1.444503e+04	6.797936e+03	2.863884e+03	0	1.251401e-03
1.000000e+08	2.672041e+13	0.000000e+00	3.714286e-01	5.599635e+14	9.857589e+13	6.197339e+14	1.438093e+04	6.817760e+03	2.872236e+03	0	1.240032e-03
1.100000e+08	2.600489e+13	0.000000e+00	3.714286e-01	5.481308e+14	1.006249e+14	6.163671e+14	1.431819e+04	6.837264e+03	2.880453e+03	0	1.228863e-03
1.200000e+08	2.531425e+13	0.000000e+00	3.714286e-01	5.367011e+14	1.026732e+14	6.130252e+14	1.425677e+04	6.856456e+03	2.888538e+03	0	1.217887e-03
1.300000e+08	2.464729e+13	0.000000e+00	3.714286e-01	5.256551e+14	1.047204e+14	6.097082e+14	1.419662e+04	6.875345e+03	2.896496e+03	0	1.207096e-03
1.400000e+08	2.400287e+13	0.000000e+00	3.714286e-01	5.149744e+14	1.067661e+14	6.064156e+14	1.413769e+04	6.893937e+03	2.904328e+03	0	1.196482e-03
1.500000e+08	2.337992e+13	0.000000e+00	3.714286e-01	5.046420e+14	1.088100e+14	6.031474e+14	1.407996e+04	6.912239e+03	2.912039e+03	0	1.186041e-03
1.600000e+08	2.277743e+13	0.000000e+00	3.714286e-01	4.946418e+14	1.108517e+14	5.999034e+14	1.402337e+04	6.930259e+03	2.919630e+03	0	1.175764e-03
1.700000e+08	2.219448e+13	0.000000e+00	3.714286e-01	4.849585e+14	1.128908e+14	5.966832e+14	1.396790e+04	6.948002e+03	2.927106e+03	0	1.165647e-03
1.800000e+08	2.163015e+13	0.000000e+00	3.714286e-01	4.755780e+14	1.149272e+14	5.934869e+14	1.391351e+04	6.965476e+03	2.934467e+03	0	1.155682e-03
1.900000e+08	2.108364e+13	0.000000e+00	3.714286e-01	4.664869e+14	1.169603e+14	5.903140e+14	1.386016e+04	6.982685e+03	2.941717e+03	0	1.145866e-03
2.000000e+08	2.055414e+13	0.000000e+00	3.714286e-01	4.576725e+14	1.189899e+14	5.871645e+14	1.380782e+04	6.999636e+03	2.948858e+03	0	1.136192e-03
2.100000e+08	2.004091e+13	0.000000e+00	3.714286e-01	4.491229e+14	1.210157e+14	5.840382e+14	1.375646e+04	7.016334e+03	2.955893e+03	0	1.126655e-03
2.200000e+08	1.954326e+13	0.000000e+00	3.714286e-01	4.408267e+14	1.230374e+14	5.809348e+14	1.370606e+04	7.032785e+03	2.962823e+03	0	1.117251e-03
2.300000e+08	1.906052e+13	0.000000e+00	3.714286e-01	4.327734e+14	1.250546e+14	5.778542e+14	1.365658e+04	7.048993e+03	2.969652e+03	0	1.107975e-03
2.400000e+08	1.859207e+13	0.000000e+00	3.714286e-01	4.249530e+14	1.270670e+14	5.747962e+14	1.360800e+04	7.064964e+03	2.976380e+03	0	1.098823e-03
2.500000e+08	1.813731e+13	0.000000e+00	3.714286e-01	4.173557e+14	1.290744e+14	5.717606e+14	1.356030e+04	7.080701e+03	2.983010e+03	0	1.089790e-03
2.600000e+08	1.769569e+13	0.000000e+00	3.714286e-01	4.099728e+14	1.310765e+14	5.687472e+14	1.351343e+04	7.096211e+03	2.989544e+03	0	1.080872e-03
2.700000e+08	1.726668e+13	0.000000e+00	3.714286e-01	4.027955e+14	1.330729e+14	5.657558e+14	1.346740e+04	7.111496e+03	2.995983e+03	0	1.072066e-03
2.800000e+08	1.684977e+13	0.000000e+00	3.714286e-01	3.958159e+14	1.350635e+14	5.627863e+14	1.342216e+04	7.126561e+03	3.002330e+03	0	1.063367e-03
2.900000e+08	1.644449e+13	0.000000e+00	3.714286e-01	3.890261e+14	1.370479e+14	5.598385e+14	1.337770e+04	7.141411e+03	3.008586e+03	0	1.054772e-03
3.000000e+08	1.605038e+13	0.000000e+00	3.714286e-01	3.824190e+14	1.390258e+14	5.569121e+14	1.333401e+04	7.156049e+03	3.014753e+03	0	1.046278e-03
3.100000e+08	1.566702e+13	0.000000e+00	3.714286e-01	3.759875e+14	1.409971e+14	5.540071e+14	1.329104e+04	7.170480e+03	3.020832e+03	0	1.037880e-03
3.200000e+08	1.529399e+13	0.000000e+00	3.714286e-01	3.697252e+14	1.429614e+14	5.511232e+14	1.324880e+04	7.184705e+03	3.026826e+03	0	1.029577e-03
3.300000e+08	1.493091e+13	0.000000e+00	3.714286e-01	3.636256e+14	1.449184e+14	5.482602e+14	1.320726e+04	7.198731e+03	3.032734e+03	0	1.021364e-03
3.400000e+08	1.457741e+13	0.000000e+00	3.714286e-01	3.576829e+14	1.468681e+14	5.454181e+14	1.316639e+04	7.212559e+03	3.038560e+03	0	1.013239e-03
3.500000e+08	1.423314e+13	0.000000e+00	3.714286e-01	3.518914e+14	1.488101e+14	5.425966e+14	1.312619e+04	7.226193e+03	3.044304e+03	0	1.005199e-03
3.600000e+08	1.389776e+13	0.000000e+00	3.714286e-01	3.462457e+14	1.507441e+14	5.397955e+14	1.308664e+04	7.239636e+03	3.049967e+03	0	9.972411e-04
3.700000e+08	1.357095e+13	0.000000e+00	3.714286e-01	3.407405e+14	1.526700e+14	5.370147e+14	1.304772e+04	7.252892e+03	3.055552e+03	0	9.893622e-04
3.800000e+08	1.325241e+13	0.000000e+00	3.714286e-01	3.353710e+14	1.545876e+14	5.342541e+14	1.300942e+04	7.265964e+03	3.061059e+03	0	9.815601e-04
3.900000e+08	1.294186e+13	0.000000e+00	3.714286e-01	3.301325e+14	1.564965e+14	5.315134e+14	1.297171e+04	7.278854e+03	3.066489e+03	0	9.738321e-04
4.000000e+08	1.263900e+13	0.000000e+00	3.714286e-01	3.250205e+14	1.583967e+14	5.287924e+14	1.293459e+04	7.291565e+03	3.071844e+03	0	9.661758e-04
4.100000e+08	1.234358e+13	0.000000e+00	3.714286e-01	3.200307e+14	1.602878e+14	5.260912e+14	1.289804e+04	7.304101e+03	3.077125e+03	0	9.585887e-04
4.200000e+08	1.205535e+13	0.000000e+00	3.714286e-01	3.151591e+14	1.621698e+14	5.234093e+14	1.286206e+04	7.316464e+03	3.082334e+03	0	9.510686e-04
4.300000e+08	1.177406e+13	0.000000e+00	3.714286e-01	3.104016e+14	1.640423e+14	5.207468e+14	1.282661e+04	7.328656e+03	3.087470e+03	0	9.436132e-04
4.400000e+08	1.149949e+13	0.000000e+00	3.714286e-01	3.057546e+14	1.659052e+14	5.181035e+14	1.279170e+04	7.340680e+03	3.092536e+03	0	9.362203e-04
4.500000e+08	1.123140e+13	0.000000e+00	3.714286e-01	3.012144e+14	1.677584e+14	5.154791e+14	1.275731e+04	7.352540e+03	3.097532e+03	0	9.288878e-04
4.600000e+08	1.096960e+13	0.000000e+00	3.714286e-01	2.967778e+14	1.696016e+14	5.128736e+14	1.272342e+04	7.364236e+03	3.102460e+03	0	9.216135e-04
4.700000e+08	1.071388e+13	0.000000e+00	3.714286e-01	2.924412e+14	1.714346e+14	5.102868e+14	1.269003e+04	7.375772e+03	3.107320e+03	0	9.143955e-04
4.800000e+08	1.046403e+13	0.000000e+00	3.714286e-01	2.882017e+14	1.732574e+14	5.077185e+14	1.265713e+04	7.387150e+03	3.112113e+03	0	9.072319e-04
4.900000e+08	1.021989e+13	0.000000e+00	3.714286e-01	2.840562e+14	1.750697e+14	5.051686e+14	1.262470e+04	7.398372e+03	3.116841e+03	0	9.001205e-04
5.000000e+08	9.981268e+12	0.000000e+00	3.714286e-01	2.800017e+14	1.768713e+14	5.026369e+14	1.259274e+04	7.409440e+03	3.121503e+03	0	8.930597e-04
5.100000e+08	9.747994e+12	0.000000e+00	3.714286e-01	2.760356e+14	1.786621e+14	5.001234e+14	1.256123e+04	7.420357e+03	3.126103e+03	0	8.860475e-04
5.200000e+08	9.519904e+12	0.000000e+00	3.714286e-01	2.721551e+14	1.804420e+14	4.976277e+14	1.253017e+04	7.431124e+03	3.130639e+03	0	8.790821e-04
5.300000e+08	9.296842e+12	0.000000e+00	3.714286e-01	2.683576e+14	1.822108e+14	4.951499e+14	1.249954e+04	7.441745e+03	3.135113e+03	0	8.721618e-04
5.400000e+08	9.078655e+12	0.000000e+00	3.714286e-01	2.646408e+14	1.839684e+14	4.926897e+14	1.246933e+04	7.452220e+03	3.139526e+03	0	8.652848e-04
5.500000e+08	8.865199e+12	0.000000e+00	3.714286e-01	2.610022e+14	1.857145e+14	4.902470e+14	1.243954e+04	7.462552e+03	3.143879e+03	0	8.584495e-04
5.600000e+08	8.656334e+12	0.000000e+00	3.714286e-01	2.574396e+14	1.874492e+14	4.878217e+14	1.241016e+04	7.472742e+03	3.148172e+03	0	8.516541e-04
5.700000e+08	8.451925e+12	0.000000e+00	3.714286e-01	2.539508e+14	1.891723e+14	4.854135e+14	1.238118e+04	7.482794e+03	3.152406e+03	0	8.448970e-04
5.800000e+08	8.251843e+12	0.000000e+00	3.714286e-01	2.505336e+14	1.908835e+14	4.830225e+14	1.235259e+04	7.492707e+03	3.156583e+03	0	8.381767e-04
5.900000e+08	8.055965e+12	0.000000e+00	3.714286e-01	2.471861e+14	1.925830e+14	4.806485e+14	1.232438e+04	7.502485e+03	3.160702e+03	0	8.314914e-04
6.000000e+08	7.864169e+12	0.000000e+00	3.714286e-01	2.439063e+14	1.942704e+14	4.782912e+14	1.229655e+04	7.512129e+03	3.164765e+03	0	8.248396e-04
6.100000e+08	7.676341e+12	0.000000e+00	3.714286e-01	2.406923e+14	1.959457e+14	4.759506e+14	1.226908e+04	7.521641e+03	3.168772e+03	0	8.182198e-04
6.200000e+08	7.492371e+12	0.000000e+00	3.714286e-01	2.375423e+14	1.976088e+14	4.736266e+14	1.224198e+04	7.531022e+03	3.172724e+03	0	8.116304e-04
6.300000e+08	7.312151e+12	0.000000e+00	3.714286e-01	2.344546e+14	1.992596e+14	4.713189e+14	1.221523e+04	7.540274e+03	3.176622e+03	0	8.050699e-04
6.400000e+08	7.135577e+12	0.000000e+00	3.714286e-01	2.314274e+14	2.008980e+14	4.690275e+14	1.218882e+04	7.549400e+03	3.180467e+03	0	7.985368e-04
6.500000e+08	6.962552e+12	0.000000e+00	3.714286e-01	2.284592e+14	2.025239e+14	4.667523e+14	1.216276e+04	7.558399e+03	3.184258e+03	0	7.920295e-04
6.600000e+08	6.792978e+12	0.000000e+00	3.714286e-01	2.255484e+14	2.041372e+14	4.644931e+14	1.213702e+04	7.567275e+03	3.187997e+03	0	7.855466e-04
6.700000e+08	6.626763e+12	0.000000e+00	3.714286e-01	2.226934e+14	2.057378e+14	4.622498e+14	1.211162e+04	7.576028e+03	3.191685e+03	0	7.790866e-04
6.800000e+08	6.463819e+12	0.000000e+00	3.714286e-01	2.198928e+14	2.073256e+14	4.600222e+14	1.208653e+04	7.584660e+03	3.195322e+03	0	7.726479e-04
6.900000e+08	6.304058e+12	0.000000e+00	3.714286e-01	2.171453e+14	2.089007e+14	4.578102e+14	1.206176e+04	7.593173e+03	3.198908e+03	0	7.662291e-04
7.000000e+08	6.147398e+12	0.000000e+00	3.714286e-01	2.144493e+14	2.104628e+14	4.556138e+14	1.203730e+04	7.601568e+03	3.202445e+03	0	7.598287e-04
7.100000e+08	5.993759e+12	0.000000e+00	3.714286e-01	2.118037e+14	2.120120e+14	4.534327e+14	1.201314e+04	7.609847e+03	3.205932e+03	0	7.534452e-04
7.200000e+08	5.843062e+12	0.000000e+00	3.714286e-01	2.092071e+14	2.135481e+14	4.512669e+14	1.198927e+04	7.618010e+03	3.209372e+03	0	7.470771e-04
7.300000e+08	5.695233e+12	0.000000e+00	3.714286e-01	2.066584e+14	2.150711e+14	4.491162e+14	1.196570e+04	7.626060e+03	3.212763e+03	0	7.407229e-04
7.400000e+08	5.550199e+12	0.000000e+00	3.714286e-01	2.041562e+14	2.165810e+14	4.469806e+14	1.194241e+04	7.633998e+03	3.216107e+03	0	7.343810e-04
7.500000e+08	5.407890e+12	0.000000e+00	3.714286e-01	2.016996e+14	2.180776e+14	4.448598e+14	1.191941e+04	7.641824e+03	3.219404e+03	0	7.280500e-04
7.600000e+08	5.268238e+12	0.000000e+00	3.714286e-01	1.992873e+14	2.195610e+14	4.427538e+14	1.189668e+04	7.649541e+03	3.222655e+03	0	7.217282e-04
7.700000e+08	5.131177e+12	0.000000e+00	3.714286e-01	1.969183e+14	2.210311e+14	4.406624e+14	1.187422e+04	7.657150e+03	3.225861e+03	0	7.154142e-04
7.800000e+08	4.996644e+12	0.000000e+00	3.714286e-01	1.945915e+14	2.224878e+14	4.385856e+14	1.185203e+04	7.664652e+03	3.229021e+03	0	7.091064e-04
7.900000e+08	4.864578e+12	0.000000e+00	3.714286e-01	1.923059e+14	2.239312e+14	4.365232e+14	1.183009e+04	7.672048e+03	3.232137e+03	0	7.028030e-04
8.000000e+08	4.734918e+12	0.000000e+00	3.714286e-01	1.900606e+14	2.253611e+14	4.344751e+14	1.180842e+04	7.679339e+03	3.235209e+03	0	6.965026e-04
8.100000e+08	4.607606e+12	0.000000e+00	3.714286e-01	1.878546e+14	2.267775e+14	4.324412e+14	1.178700e+04	7.686528e+03	3.238237e+03	0	6.902033e-04
8.200000e+08	4.482588e+12	0.000000e+00	3.714286e-01	1.856870e+14	2.281805e+14	4.304214e+14	1.176582e+04	7.693614e+03	3.241222e+03	0	6.839035e-04
8.300000e+08	4.359808e+12	0.000000e+00	3.714286e-01	1.835568e+14	2.295699e+14	4.284155e+14	1.174489e+04	7.700599e+03	3.244165e+03	0	6.776015e-04
8.400000e+08	4.239214e+12	0.000000e+00	3.714286e-01	1.814633e+14	2.309459e+14	4.264235e+14	1.172420e+04	7.707485e+03	3.247066e+03	0	6.712954e-04
8.500000e+08	4.120756e+12	0.000000e+00	3.714286e-01	1.794055e+14	2.323082e+14	4.244453e+14	1.170374e+04	7.714272e+03	3.249925e+03	0	6.649835e-04
8.600000e+08	4.004383e+12	0.000000e+00	3.714286e-01	1.773827e+14	2.336570e+14	4.224806e+14	1.168351e+04	7.720961e+03	3.252744e+03	0	6.586638e-04
8.700000e+08	3.890048e+12	0.000000e+00	3.714286e-01	1.753941e+14	2.349921e+14	4.205295e+14	1.166352e+04	7.727555e+03	3.255521e+03	0	6.523343e-04
8.800000e+08	3.777705e+12	0.000000e+00	3.714286e-01	1.734389e+14	2.363137e+14	4.185919e+14	1.164374e+04	7.734053e+03	3.258259e+03	0	6.459931e-04
8.900000e+08	3.667307e+12	0.000000e+00	3.714286e-01	1.715164e+14	2.376217e+14	4.166675e+14	1.162418e+04	7.740457e+03	3.260957e+03	0	6.396381e-04
9.000000e+08	3.558812e+12	0.000000e+00	3.714286e-01	1.696258e+14	2.389160e+14	4.147563e+14	1.160485e+04	7.746769e+03	3.263616e+03	0	6.332671e-04
9.100000e+08	3.452177e+12	0.000000e+00	3.714286e-01	1.677665e+14	2.401967e+14	4.128583e+14	1.158572e+04	7.752988e+03	3.266236e+03	0	6.268778e-04
9.200000e+08	3.347360e+12	0.000000e+00	3.714286e-01	1.659377e+14	2.414639e+14	4.109732e+14	1.156680e+04	7.759116e+03	3.268818e+03	0	6.204680e-04
9.300000e+08	3.244321e+12	0.000000e+00	3.714286e-01	1.641388e+14	2.427174e+14	4.091011e+14	1.154809e+04	7.765155e+03	3.271362e+03	0	6.140351e-04
9.400000e+08	3.143021e+12	0.000000e+00	3.714286e-01	1.623691e+14	2.439572e+14	4.072417e+14	1.152958e+04	7.771105e+03	3.273868e+03	0	6.075766e-04
9.500000e+08	3.043423e+12	0.000000e+00	3.714286e-01	1.606281e+14	2.451835e+14	4.053950e+14	1.151127e+04	7.776967e+03	3.276338e+03	0	6.010898e-04
9.600000e+08	2.945490e+12	0.000000e+00	3.714286e-01	1.589151e+14	2.463962e+14	4.035609e+14	1.149315e+04	7.782742e+03	3.278771e+03	0	5.945719e-04
9.700000e+08	2.849185e+12	0.000000e+00	3.714286e-01	1.572295e+14	2.475953e+14	4.017393e+14	1.147523e+04	7.788431e+03	3.281168e+03	0	5.880200e-04
9.800000e+08	2.754474e+12	0.000000e+00	3.714286e-01	1.555707e+14	2.487809e+14	3.999301e+14	1.145749e+04	7.794035e+03	3.283529e+03	0	5.814309e-04
9.900000e+08	2.661323e+12	0.000000e+00	3.714286e-01	1.539383e+14	2.499529e+14	3.981332e+14	1.143995e+04	7.799556e+03	3.285854e+03	0	5.748013e-04
1.000000e+09	2.569699e+12	0.000000e+00	3.714286e-01	1.523315e+14	2.511113e+14	3.963485e+14	1.142258e+04	7.804993e+03	3.288145e+03	0	5.681277e-04
1.010000e+09	2.479570e+12	0.000000e+00	3.714286e-01	1.507500e+14	2.522563e+14	3.945759e+14	1.140540e+04	7.810349e+03	3.290401e+03	0	5.614064e-04
1.020000e+09	2.390905e+12	0.000000e+00	3.714286e-01	1.491932e+14	2.533878e+14	3.928154e+14	1.138839e+04	7.815623e+03	3.292623e+03	0	5.546334e-04
1.030000e+09	2.303673e+12	0.000000e+00	3.714286e-01	1.476606e+14	2.545059e+14	3.910667e+14	1.137156e+04	7.820817e+03	3.294811e+03	0	5.478044e-04
1.040000e+09	2.217845e+12	0.000000e+00	3.714286e-01	1.461517e+14	2.556105e+14	3.893298e+14	1.135491e+04	7.825932e+03	3.296966e+03	0	5.409149e-04
1.050000e+09	2.133392e+12	0.000000e+00	3.714286e-01	1.446659e+14	2.567017e+14	3.876047e+14	1.133842e+04	7.830968e+03	3.299088e+03	0	5.339601e-04
1.060000e+09	2.050286e+12	0.000000e+00	3.714286e-01	1.432030e+14	2.577796e+14	3.858912e+14	1.132210e+04	7.835927e+03	3.301177e+03	0	5.269346e-04
1.070000e+09	1.968500e+12	0.000000e+00	3.714286e-01	1.417623e+14	2.588442e+14	3.841892e+14	1.130594e+04	7.840809e+03	3.303234e+03	0	5.198328e-04
1.080000e+09	1.888007e+12	0.000000e+00	3.714286e-01	1.403436e+14	2.598954e+14	3.824987e+14	1.128995e+04	7.845615e+03	3.305258e+03	0	5.126486e-04
1.090000e+09	1.808781e+12	0.000000e+00	3.714286e-01	1.389462e+14	2.609334e+14	3.808196e+14	1.127411e+04	7.850346e+03	3.307251e+03	0	5.053752e-04
1.100000e+09	1.730797e+12	0.000000e+00	3.714286e-01	1.375699e+14	2.619582e+14	3.791517e+14	1.125844e+04	7.855002e+03	3.309213e+03	0	4.980053e-04
1.110000e+09	1.654030e+12	0.000000e+00	3.714286e-01	1.362141e+14	2.629698e+14	3.774951e+14	1.124291e+04	7.859586e+03	3.311144e+03	0	4.905309e-04
1.120000e+09	1.578457e+12	0.000000e+00	3.714286e-01	1.348786e+14	2.639683e+14	3.758495e+14	1.122754e+04	7.864097e+03	3.313045e+03	0	4.829433e-04
1.130000e+09	1.504053e+12	0.000000e+00	3.714286e-01	1.335628e+14	2.649538e+14	3.742149e+14	1.121232e+04	7.868536e+03	3.314915e+03	0	4.752327e-04
1.140000e+09	1.430797e+12	0.000000e+00	3.714286e-01	1.322666e+14	2.659261e+14	3.725913e+14	1.119725e+04	7.872904e+03	3.316755e+03	0	4.673884e-04
1.150000e+09	1.358665e+12	0.000000e+00	3.714286e-01	1.309893e+14	2.668855e+14	3.709785e+14	1.118233e+04	7.877202e+03	3.318566e+03	0	4.593983e-04
1.160000e+09	1.287636e+12	0.000000e+00	3.714286e-01	1.297308e+14	2.678320e+14	3.693765e+14	1.116754e+04	7.881431e+03	3.320347e+03	0	4.512491e-04
1.170000e+09	1.217689e+12	0.000000e+00	3.714286e-01	1.284906e+14	2.687656e+14	3.677851e+14	1.115290e+04	7.885591e+03	3.322100e+03	0	4.429256e-04
1.180000e+09	1.148804e+12	0.000000e+00	3.714286e-01	1.272685e+14	2.696863e+14	3.662043e+14	1.113840e+04	7.889683e+03	3.323824e+03	0	4.344107e-04
1.190000e+09	1.080959e+12	0.000000e+00	3.714286e-01	1.260640e+14	2.705943e+14	3.646341e+14	1.112404e+04	7.893708e+03	3.325519e+03	0	4.256850e-04
1.200000e+09	1.014136e+12	0.000000e+00	3.714286e-01	1.248768e+14	2.714896e+14	3.630742e+14	1.110981e+04	7.897666e+03	3.327187e+03	0	4.167260e-04
1.210000e+09	9.483144e+11	0.000000e+00	3.714286e-01	1.237067e+14	2.723722e+14	3.615247e+14	1.109572e+04	7.901559e+03	3.328827e+03	0	4.075079e-04
1.220000e+09	8.834764e+11	0.000000e+00	3.714286e-01	1.225532e+14	2.732422e+14	3.599855e+14	1.108176e+04	7.905387e+03	3.330440e+03	0	3.980004e-04
1.230000e+09	8.196033e+11	0.000000e+00	3.714286e-01	1.214162e+14	2.740996e+14	3.584564e+14	1.106792e+04	7.909151e+03	3.332025e+03	0	3.881681e-04
1.240000e+09	7.566772e+11	0.000000e+00	3.714286e-01	1.202953e+14	2.749445e+14	3.569375e+14	1.105422e+04	7.912851e+03	3.333584e+03	0	3.779684e-04
1.250000e+09	6.946807e+11	0.000000e+00	3.714286e-01	1.191902e+14	2.757771e+14	3.554286e+14	1.104064e+04	7.916489e+03	3.335117e+03	0	3.673502e-04
1.260000e+09	6.335967e+11	0.000000e+00	3.714286e-01	1.181006e+14	2.765973e+14	3.539296e+14	1.102719e+04	7.920064e+03	3.336623e+03	0	3.562511e-04
1.270000e+09	5.734084e+11	0.000000e+00	3.714286e-01	1.170262e+14	2.774051e+14	3.524405e+14	1.101386e+04	7.923578e+03	3.338103e+03	0	3.445931e-04
1.280000e+09	5.140995e+11	0.000000e+00	3.714286e-01	1.159669e+14	2.782008e+14	3.509612e+14	1.100065e+04	7.927031e+03	3.339558e+03	0	3.322775e-04
1.290000e+09	4.556541e+11	0.000000e+00	3.714286e-01	1.149222e+14	2.789843e+14	3.494916e+14	1.098755e+04	7.930424e+03	3.340987e+03	0	3.191761e-04
1.300000e+09	3.980566e+11	0.000000e+00	3.714286e-01	1.138920e+14	2.797557e+14	3.480317e+14	1.097458e+04	7.933757e+03	3.342392e+03	0	3.051173e-04
1.310000e+09	3.412918e+11	0.000000e+00	3.714286e-01	1.128759e+14	2.805150e+14	3.465813e+14	1.096172e+04	7.937032e+03	3.343771e+03	0	2.898637e-04
1.320000e+09	2.853447e+11	0.000000e+00	3.714286e-01	1.118739e+14	2.812624e+14	3.451405e+14	1.094898e+04	7.940248e+03	3.345126e+03	0	2.730708e-04
1.330000e+09	2.302008e+11	0.000000e+00	3.714286e-01	1.108855e+14	2.819979e+14	3.437090e+14	1.093635e+04	7.943407e+03	3.346457e+03	0	2.542070e-04
1.340000e+09	1.758459e+11	0.000000e+00	3.714286e-01	1.099105e+14	2.827215e+14	3.422870e+14	1.092383e+04	7.946509e+03	3.347764e+03	0	2.323785e-04
1.350000e+09	1.222659e+11	0.000000e+00	3.714286e-01	1.089488e+14	2.834334e+14	3.408742e+14	1.091142e+04	7.949555e+03	3.349047e+03	0	2.058672e-04
1.360000e+09	6.944737e+10	0.000000e+00	3.714286e-01	1.080001e+14	2.841337e+14	3.394706e+14	1.089912e+04	7.952545e+03	3.350307e+03	0	1.704919e-04
