#t		Qconv[W]	Ri[Rp]		R*[Rp]		Qc[W]		Qm[W]		Qr[W]		Tcmb[K]		Tl[K]		Tup[K]		RiFlag		Bs[T]
0.000000e+00	5.160165e+13	0.000000e+00	3.678160e-01	9.739991e+14	6.497470e+13	7.967939e+14	1.773027e+04	7.350700e+03	2.894426e+03	0	1.545964e-03
1.000000e+07	5.007096e+13	0.000000e+00	3.678160e-01	9.514787e+14	6.675340e+13	7.923791e+14	1.764136e+04	7.376728e+03	2.904675e+03	0	1.530525e-03
2.000000e+07	4.860015e+13	0.000000e+00	3.678160e-01	9.298182e+14	6.853910e+13	7.879973e+14	1.755449e+04	7.402318e+03	2.914751e+03	0	1.515389e-03
3.000000e+07	4.718593e+13	0.000000e+00	3.678160e-01	9.089710e+14	7.033140e+13	7.836482e+14	1.746958e+04	7.427482e+03	2.924660e+03	0	1.500545e-03
4.000000e+07	4.582527e+13	0.000000e+00	3.678160e-01	8.888939e+14	7.212994e+13	7.793316e+14	1.738655e+04	7.452234e+03	2.934406e+03	0	1.485981e-03
5.000000e+07	4.451534e+13	0.000000e+00	3.678160e-01	8.695467e+14	7.393432e+13	7.750472e+14	1.730535e+04	7.476586e+03	2.943995e+03	0	1.471685e-03
6.000000e+07	4.325349e+13	0.000000e+00	3.678160e-01	8.508917e+14	7.574418e+13	7.707948e+14	1.722589e+04	7.500550e+03	2.953431e+03	0	1.457646e-03
7.000000e+07	4.203725e+13	0.000000e+00	3.678160e-01	8.328939e+14	7.755918e+13	7.665740e+14	1.714813e+04	7.524136e+03	2.962718e+03	0	1.443853e-03
8.000000e+07	4.086433e+13	0.000000e+00	3.678160e-01	8.155204e+14	7.937893e+13	7.623846e+14	1.707199e+04	7.547354e+03	2.971861e+03	0	1.430298e-03
9.000000e+07	3.973256e+13	0.000000e+00	3.678160e-01	7.987404e+14	8.120310e+13	7.582263e+14	1.699744e+04	7.570215e+03	2.980863e+03	0	1.416969e-03
1.000000e+08	3.863992e+13	0.000000e+00	3.678160e-01	7.825253e+14	8.303137e+13	7.540990e+14	1.692440e+04	7.592729e+03	2.989728e+03	0	1.403860e-03
1.100000e+08	3.758452e+13	0.000000e+00	3.678160e-01	7.668480e+14	8.486337e+13	7.500022e+14	1.685283e+04	7.614904e+03	2.998459e+03	0	1.390960e-03
1.200000e+08	3.656459e+13	0.000000e+00	3.678160e-01	7.516832e+14	8.669879e+13	7.459358e+14	1.678269e+04	7.636749e+03	3.007061e+03	0	1.378262e-03
1.300000e+08	3.557845e+13	0.000000e+00	3.678160e-01	7.370070e+14	8.853731e+13	7.418996e+14	1.671392e+04	7.658272e+03	3.015536e+03	0	1.365759e-03
1.400000e+08	3.462455e+13	0.000000e+00	3.678160e-01	7.227972e+14	9.037860e+13	7.378932e+14	1.664649e+04	7.679481e+03	3.023887e+03	0	1.353442e-03
1.500000e+08	3.370140e+13	0.000000e+00	3.678160e-01	7.090326e+14	9.222236e+13	7.339164e+14	1.658035e+04	7.700383e+03	3.032118e+03	0	1.341305e-03
1.600000e+08	3.280761e+13	0.000000e+00	3.678160e-01	6.956935e+14	9.406826e+13	7.299690e+14	1.651545e+04	7.720987e+03	3.040231e+03	0	1.329341e-03
1.700000e+08	3.194189e+13	0.000000e+00	3.678160e-01	6.827611e+14	9.591601e+13	7.260507e+14	1.645177e+04	7.741298e+03	3.048229e+03	0	1.317544e-03
1.800000e+08	3.110299e+13	0.000000e+00	3.678160e-01	6.702178e+14	9.776533e+13	7.221613e+14	1.638926e+04	7.761324e+03	3.056114e+03	0	1.305907e-03
1.900000e+08	3.028975e+13	0.000000e+00	3.678160e-01	6.580469e+14	9.961590e+13	7.183005e+14	1.632790e+04	7.781070e+03	3.063889e+03	0	1.294425e-03
2.000000e+08	2.950108e+13	0.000000e+00	3.678160e-01	6.462328e+14	1.014674e+14	7.144682e+14	1.626764e+04	7.800543e+03	3.071557e+03	0	1.283091e-03
2.100000e+08	2.873593e+13	0.000000e+00	3.678160e-01	6.347605e+14	1.033197e+14	7.106640e+14	1.620845e+04	7.819749e+03	3.079120e+03	0	1.271901e-03
2.200000e+08	2.799333e+13	0.000000e+00	3.678160e-01	6.236161e+14	1.051723e+14	7.068878e+14	1.615031e+04	7.838693e+03	3.086579e+03	0	1.260849e-03
2.300000e+08	2.727234e+13	0.000000e+00	3.678160e-01	6.127860e+14	1.070251e+14	7.031393e+14	1.609318e+04	7.857381e+03	3.093938e+03	0	1.249930e-03
2.400000e+08	2.657208e+13	0.000000e+00	3.678160e-01	6.022579e+14	1.088777e+14	6.994183e+14	1.603704e+04	7.875818e+03	3.101198e+03	0	1.239139e-03
2.500000e+08	2.589172e+13	0.000000e+00	3.678160e-01	5.920196e+14	1.107300e+14	6.957245e+14	1.598186e+04	7.894010e+03	3.108361e+03	0	1.228472e-03
2.600000e+08	2.523047e+13	0.000000e+00	3.678160e-01	5.820598e+14	1.125815e+14	6.920578e+14	1.592761e+04	7.911960e+03	3.115429e+03	0	1.217924e-03
2.700000e+08	2.458757e+13	0.000000e+00	3.678160e-01	5.723679e+14	1.144322e+14	6.884179e+14	1.587426e+04	7.929673e+03	3.122404e+03	0	1.207490e-03
2.800000e+08	2.396232e+13	0.000000e+00	3.678160e-01	5.629334e+14	1.162817e+14	6.848045e+14	1.582180e+04	7.947155e+03	3.129287e+03	0	1.197167e-03
2.900000e+08	2.335404e+13	0.000000e+00	3.678160e-01	5.537467e+14	1.181297e+14	6.812176e+14	1.577020e+04	7.964409e+03	3.136081e+03	0	1.186950e-03
3.000000e+08	2.276208e+13	0.000000e+00	3.678160e-01	5.447986e+14	1.199761e+14	6.776567e+14	1.571943e+04	7.981441e+03	3.142788e+03	0	1.176835e-03
3.100000e+08	2.218584e+13	0.000000e+00	3.678160e-01	5.360802e+14	1.218206e+14	6.741218e+14	1.566948e+04	7.998252e+03	3.149407e+03	0	1.166819e-03
3.200000e+08	2.162472e+13	0.000000e+00	3.678160e-01	5.275832e+14	1.236629e+14	6.706127e+14	1.562033e+04	8.014849e+03	3.155942e+03	0	1.156898e-03
3.300000e+08	2.107818e+13	0.000000e+00	3.678160e-01	5.192996e+14	1.255029e+14	6.671290e+14	1.557194e+04	8.031234e+03	3.162394e+03	0	1.147068e-03
3.400000e+08	2.054568e+13	0.000000e+00	3.678160e-01	5.112218e+14	1.273403e+14	6.636707e+14	1.552432e+04	8.047411e+03	3.168764e+03	0	1.137327e-03
3.500000e+08	2.002673e+13	0.000000e+00	3.678160e-01	5.033425e+14	1.291748e+14	6.602374e+14	1.547743e+04	8.063384e+03	3.175054e+03	0	1.127669e-03
3.600000e+08	1.952084e+13	0.000000e+00	3.678160e-01	4.956548e+14	1.310062e+14	6.568291e+14	1.543126e+04	8.079156e+03	3.181264e+03	0	1.118093e-03
3.700000e+08	1.902756e+13	0.000000e+00	3.678160e-01	4.881521e+14	1.328344e+14	6.534454e+14	1.538579e+04	8.094731e+03	3.187397e+03	0	1.108594e-03
3.800000e+08	1.854644e+13	0.000000e+00	3.678160e-01	4.808280e+14	1.346591e+14	6.500862e+14	1.534100e+04	8.110112e+03	3.193453e+03	0	1.099171e-03
3.900000e+08	1.807707e+13	0.000000e+00	3.678160e-01	4.736766e+14	1.364802e+14	6.467513e+14	1.529688e+04	8.125302e+03	3.199435e+03	0	1.089819e-03
4.000000e+08	1.761905e+13	0.000000e+00	3.678160e-01	4.666922e+14	1.382973e+14	6.434404e+14	1.525342e+04	8.140303e+03	3.205342e+03	0	1.080536e-03
4.100000e+08	1.717200e+13	0.000000e+00	3.678160e-01	4.598690e+14	1.401103e+14	6.401535e+14	1.521059e+04	8.155120e+03	3.211176e+03	0	1.071318e-03
4.200000e+08	1.673555e+13	0.000000e+00	3.678160e-01	4.532020e+14	1.419190e+14	6.368902e+14	1.516839e+04	8.169755e+03	3.216939e+03	0	1.062164e-03
4.300000e+08	1.630936e+13	0.000000e+00	3.678160e-01	4.466860e+14	1.437232e+14	6.336504e+14	1.512679e+04	8.184211e+03	3.222631e+03	0	1.053070e-03
4.400000e+08	1.589308e+13	0.000000e+00	3.678160e-01	4.403162e+14	1.455227e+14	6.304340e+14	1.508579e+04	8.198490e+03	3.228253e+03	0	1.044033e-03
4.500000e+08	1.548640e+13	0.000000e+00	3.678160e-01	4.340880e+14	1.473173e+14	6.272406e+14	1.504537e+04	8.212595e+03	3.233807e+03	0	1.035051e-03
4.600000e+08	1.508902e+13	0.000000e+00	3.678160e-01	4.279970e+14	1.491069e+14	6.240702e+14	1.500552e+04	8.226529e+03	3.239294e+03	0	1.026121e-03
4.700000e+08	1.470063e+13	0.000000e+00	3.678160e-01	4.220388e+14	1.508912e+14	6.209226e+14	1.496623e+04	8.240294e+03	3.244714e+03	0	1.017240e-03
4.800000e+08	1.432096e+13	0.000000e+00	3.678160e-01	4.162094e+14	1.526702e+14	6.177974e+14	1.492748e+04	8.253893e+03	3.250069e+03	0	1.008406e-03
4.900000e+08	1.394973e+13	0.000000e+00	3.678160e-01	4.105048e+14	1.544435e+14	6.146947e+14	1.488926e+04	8.267328e+03	3.255359e+03	0	9.996168e-04
5.000000e+08	1.358668e+13	0.000000e+00	3.678160e-01	4.049213e+14	1.562110e+14	6.116141e+14	1.485157e+04	8.280602e+03	3.260586e+03	0	9.908687e-04
5.100000e+08	1.323158e+13	0.000000e+00	3.678160e-01	3.994553e+14	1.579727e+14	6.085556e+14	1.481438e+04	8.293717e+03	3.265750e+03	0	9.821598e-04
5.200000e+08	1.288417e+13	0.000000e+00	3.678160e-01	3.941033e+14	1.597282e+14	6.055188e+14	1.477770e+04	8.306674e+03	3.270852e+03	0	9.734876e-04
5.300000e+08	1.254422e+13	0.000000e+00	3.678160e-01	3.888620e+14	1.614775e+14	6.025038e+14	1.474150e+04	8.319476e+03	3.275893e+03	0	9.648494e-04
5.400000e+08	1.221152e+13	0.000000e+00	3.678160e-01	3.837281e+14	1.632204e+14	5.995102e+14	1.470578e+04	8.332126e+03	3.280874e+03	0	9.562429e-04
5.500000e+08	1.188585e+13	0.000000e+00	3.678160e-01	3.786986e+14	1.649567e+14	5.965379e+14	1.467053e+04	8.344625e+03	3.285796e+03	0	9.476656e-04
5.600000e+08	1.156701e+13	0.000000e+00	3.678160e-01	3.737704e+14	1.666863e+14	5.935867e+14	1.463574e+04	8.356976e+03	3.290659e+03	0	9.391149e-04
5.700000e+08	1.125481e+13	0.000000e+00	3.678160e-01	3.689408e+14	1.684090e+14	5.906565e+14	1.460141e+04	8.369180e+03	3.295464e+03	0	9.305884e-04
5.800000e+08	1.094904e+13	0.000000e+00	3.678160e-01	3.642069e+14	1.701247e+14	5.877471e+14	1.456751e+04	8.381239e+03	3.300213e+03	0	9.220836e-04
5.900000e+08	1.064953e+13	0.000000e+00	3.678160e-01	3.595661e+14	1.718333e+14	5.848583e+14	1.453405e+04	8.393155e+03	3.304905e+03	0	9.135980e-04
6.000000e+08	1.035611e+13	0.000000e+00	3.678160e-01	3.550158e+14	1.735347e+14	5.819900e+14	1.450101e+04	8.404930e+03	3.309542e+03	0	9.051290e-04
6.100000e+08	1.006860e+13	0.000000e+00	3.678160e-01	3.505537e+14	1.752286e+14	5.791419e+14	1.446839e+04	8.416566e+03	3.314123e+03	0	8.966741e-04
6.200000e+08	9.786840e+12	0.000000e+00	3.678160e-01	3.461772e+14	1.769149e+14	5.763140e+14	1.443617e+04	8.428064e+03	3.318651e+03	0	8.882307e-04
6.300000e+08	9.510677e+12	0.000000e+00	3.678160e-01	3.418842e+14	1.785937e+14	5.735060e+14	1.440436e+04	8.439427e+03	3.323125e+03	0	8.797962e-04
6.400000e+08	9.239955e+12	0.000000e+00	3.678160e-01	3.376723e+14	1.802646e+14	5.707178e+14	1.437294e+04	8.450656e+03	3.327547e+03	0	8.713680e-04
6.500000e+08	8.974530e+12	0.000000e+00	3.678160e-01	3.335395e+14	1.819276e+14	5.679493e+14	1.434190e+04	8.461753e+03	3.331916e+03	0	8.629432e-04
6.600000e+08	8.714260e+12	0.000000e+00	3.678160e-01	3.294837e+14	1.835825e+14	5.652003e+14	1.431125e+04	8.472719e+03	3.336234e+03	0	8.545192e-04
6.700000e+08	8.459009e+12	0.000000e+00	3.678160e-01	3.255028e+14	1.852294e+14	5.624706e+14	1.428096e+04	8.483555e+03	3.340501e+03	0	8.460930e-04
6.800000e+08	8.208644e+12	0.000000e+00	3.678160e-01	3.215951e+14	1.868679e+14	5.597600e+14	1.425104e+04	8.494264e+03	3.344718e+03	0	8.376619e-04
6.900000e+08	7.963040e+12	0.000000e+00	3.678160e-01	3.177586e+14	1.884981e+14	5.570685e+14	1.422148e+04	8.504848e+03	3.348885e+03	0	8.292229e-04
7.000000e+08	7.722074e+12	0.000000e+00	3.678160e-01	3.139915e+14	1.901198e+14	5.543958e+14	1.419226e+04	8.515306e+03	3.353004e+03	0	8.207728e-04
7.100000e+08	7.485626e+12	0.000000e+00	3.678160e-01	3.102921e+14	1.917330e+14	5.517419e+14	1.416340e+04	8.525642e+03	3.357073e+03	0	8.123085e-04
7.200000e+08	7.253582e+12	0.000000e+00	3.678160e-01	3.066587e+14	1.933375e+14	5.491065e+14	1.413487e+04	8.535856e+03	3.361095e+03	0	8.038268e-04
7.300000e+08	7.025831e+12	0.000000e+00	3.678160e-01	3.030896e+14	1.949332e+14	5.464895e+14	1.410667e+04	8.545950e+03	3.365070e+03	0	7.953242e-04
7.400000e+08	6.802265e+12	0.000000e+00	3.678160e-01	2.995834e+14	1.965201e+14	5.438908e+14	1.407880e+04	8.555925e+03	3.368998e+03	0	7.867972e-04
7.500000e+08	6.582782e+12	0.000000e+00	3.678160e-01	2.961385e+14	1.980980e+14	5.413102e+14	1.405126e+04	8.565783e+03	3.372879e+03	0	7.782422e-04
7.600000e+08	6.367281e+12	0.000000e+00	3.678160e-01	2.927533e+14	1.996669e+14	5.387476e+14	1.402402e+04	8.575524e+03	3.376715e+03	0	7.696554e-04
7.700000e+08	6.155664e+12	0.000000e+00	3.678160e-01	2.894266e+14	2.012266e+14	5.362028e+14	1.399710e+04	8.585152e+03	3.380506e+03	0	7.610326e-04
7.800000e+08	5.947838e+12	0.000000e+00	3.678160e-01	2.861568e+14	2.027771e+14	5.336757e+14	1.397049e+04	8.594665e+03	3.384252e+03	0	7.523698e-04
7.900000e+08	5.743710e+12	0.000000e+00	3.678160e-01	2.829428e+14	2.043184e+14	5.311662e+14	1.394417e+04	8.604067e+03	3.387954e+03	0	7.436624e-04
8.000000e+08	5.543194e+12	0.000000e+00	3.678160e-01	2.797830e+14	2.058503e+14	5.286741e+14	1.391814e+04	8.613357e+03	3.391612e+03	0	7.349058e-04
8.100000e+08	5.346203e+12	0.000000e+00	3.678160e-01	2.766764e+14	2.073727e+14	5.261992e+14	1.389241e+04	8.622539e+03	3.395228e+03	0	7.260950e-04
8.200000e+08	5.152655e+12	0.000000e+00	3.678160e-01	2.736217e+14	2.088857e+14	5.237414e+14	1.386696e+04	8.631611e+03	3.398800e+03	0	7.172248e-04
8.300000e+08	4.962469e+12	0.000000e+00	3.678160e-01	2.706176e+14	2.103891e+14	5.213007e+14	1.384179e+04	8.640577e+03	3.402330e+03	0	7.082896e-04
8.400000e+08	4.775567e+12	0.000000e+00	3.678160e-01	2.676632e+14	2.118827e+14	5.188768e+14	1.381690e+04	8.649436e+03	3.405819e+03	0	6.992835e-04
8.500000e+08	4.591873e+12	0.000000e+00	3.678160e-01	2.647571e+14	2.133668e+14	5.164696e+14	1.379228e+04	8.658191e+03	3.409266e+03	0	6.902000e-04
8.600000e+08	4.411315e+12	0.000000e+00	3.678160e-01	2.618984e+14	2.148410e+14	5.140791e+14	1.376792e+04	8.666842e+03	3.412673e+03	0	6.810322e-04
8.700000e+08	4.233822e+12	0.000000e+00	3.678160e-01	2.590861e+14	2.163054e+14	5.117049e+14	1.374383e+04	8.675390e+03	3.416039e+03	0	6.717729e-04
8.800000e+08	4.059323e+12	0.000000e+00	3.678160e-01	2.563190e+14	2.177599e+14	5.093472e+14	1.371999e+04	8.683837e+03	3.419365e+03	0	6.624140e-04
8.900000e+08	3.887753e+12	0.000000e+00	3.678160e-01	2.535962e+14	2.192045e+14	5.070056e+14	1.369641e+04	8.692184e+03	3.422651e+03	0	6.529469e-04
9.000000e+08	3.719046e+12	0.000000e+00	3.678160e-01	2.509167e+14	2.206391e+14	5.046800e+14	1.367307e+04	8.700431e+03	3.425899e+03	0	6.433621e-04
9.100000e+08	3.553139e+12	0.000000e+00	3.678160e-01	2.482797e+14	2.220637e+14	5.023705e+14	1.364999e+04	8.708580e+03	3.429107e+03	0	6.336494e-04
9.200000e+08	3.389971e+12	0.000000e+00	3.678160e-01	2.456842e+14	2.234782e+14	5.000767e+14	1.362714e+04	8.716632e+03	3.432278e+03	0	6.237975e-04
9.300000e+08	3.229482e+12	0.000000e+00	3.678160e-01	2.431292e+14	2.248825e+14	4.977986e+14	1.360453e+04	8.724588e+03	3.435411e+03	0	6.137939e-04
9.400000e+08	3.071613e+12	0.000000e+00	3.678160e-01	2.406141e+14	2.262766e+14	4.955361e+14	1.358216e+04	8.732448e+03	3.438506e+03	0	6.036249e-04
9.500000e+08	2.916310e+12	0.000000e+00	3.678160e-01	2.381379e+14	2.276606e+14	4.932891e+14	1.356002e+04	8.740214e+03	3.441564e+03	0	5.932752e-04
9.600000e+08	2.763516e+12	0.000000e+00	3.678160e-01	2.356997e+14	2.290343e+14	4.910574e+14	1.353810e+04	8.747888e+03	3.444585e+03	0	5.827277e-04
9.700000e+08	2.613180e+12	0.000000e+00	3.678160e-01	2.332989e+14	2.303977e+14	4.888408e+14	1.351641e+04	8.755469e+03	3.447570e+03	0	5.719632e-04
9.800000e+08	2.465248e+12	0.000000e+00	3.678160e-01	2.309347e+14	2.317508e+14	4.866394e+14	1.349494e+04	8.762958e+03	3.450520e+03	0	5.609600e-04
9.900000e+08	2.319671e+12	0.000000e+00	3.678160e-01	2.286063e+14	2.330935e+14	4.844529e+14	1.347369e+04	8.770358e+03	3.453433e+03	0	5.496933e-04
1.000000e+09	2.176400e+12	0.000000e+00	3.678160e-01	2.263130e+14	2.344259e+14	4.822812e+14	1.345264e+04	8.777668e+03	3.456312e+03	0	5.381350e-04
1.010000e+09	2.035387e+12	0.000000e+00	3.678160e-01	2.240540e+14	2.357478e+14	4.801243e+14	1.343181e+04	8.784890e+03	3.459155e+03	0	5.262523e-04
1.020000e+09	1.896586e+12	0.000000e+00	3.678160e-01	2.218287e+14	2.370594e+14	4.779820e+14	1.341119e+04	8.792024e+03	3.461964e+03	0	5.140072e-04
1.030000e+09	1.759951e+12	0.000000e+00	3.678160e-01	2.196365e+14	2.383604e+14	4.758542e+14	1.339077e+04	8.799071e+03	3.464740e+03	0	5.013548e-04
1.040000e+09	1.625439e+12	0.000000e+00	3.678160e-01	2.174766e+14	2.396510e+14	4.737408e+14	1.337055e+04	8.806033e+03	3.467481e+03	0	4.882421e-04
1.050000e+09	1.493007e+12	0.000000e+00	3.678160e-01	2.153484e+14	2.409311e+14	4.716416e+14	1.335053e+04	8.812910e+03	3.470189e+03	0	4.746049e-04
1.060000e+09	1.362613e+12	0.000000e+00	3.678160e-01	2.132514e+14	2.422007e+14	4.695566e+14	1.333071e+04	8.819703e+03	3.472864e+03	0	4.603651e-04
1.070000e+09	1.234216e+12	0.000000e+00	3.678160e-01	2.111848e+14	2.434597e+14	4.674857e+14	1.331108e+04	8.826413e+03	3.475506e+03	0	4.454258e-04
1.080000e+09	1.107777e+12	0.000000e+00	3.678160e-01	2.091482e+14	2.447083e+14	4.654286e+14	1.329164e+04	8.833041e+03	3.478115e+03	0	4.296641e-04
1.090000e+09	9.832571e+11	0.000000e+00	3.678160e-01	2.071409e+14	2.459462e+14	4.633855e+14	1.327238e+04	8.839587e+03	3.480693e+03	0	4.129214e-04
1.100000e+09	8.606193e+11	0.000000e+00	3.678160e-01	2.051624e+14	2.471736e+14	4.613560e+14	1.325331e+04	8.846052e+03	3.483239e+03	0	3.949863e-04
1.110000e+09	7.398265e+11	0.000000e+00	3.678160e-01	2.032121e+14	2.483904e+14	4.593401e+14	1.323442e+04	8.852438e+03	3.485753e+03	0	3.755677e-04
1.120000e+09	6.208432e+11	0.000000e+00	3.678160e-01	2.012895e+14	2.495967e+14	4.573378e+14	1.321571e+04	8.858744e+03	3.488236e+03	0	3.542465e-04
1.130000e+09	5.036344e+11	0.000000e+00	3.678160e-01	1.993941e+14	2.507923e+14	4.553488e+14	1.319718e+04	8.864972e+03	3.490689e+03	0	3.303823e-04
1.140000e+09	3.881663e+11	0.000000e+00	3.678160e-01	1.975254e+14	2.519774e+14	4.533732e+14	1.317882e+04	8.871123e+03	3.493111e+03	0	3.029128e-04
1.150000e+09	2.744056e+11	0.000000e+00	3.678160e-01	1.956828e+14	2.531519e+14	4.514107e+14	1.316063e+04	8.877197e+03	3.495502e+03	0	2.698418e-04
1.160000e+09	1.623201e+11	0.000000e+00	3.678160e-01	1.938660e+14	2.543158e+14	4.494613e+14	1.314261e+04	8.883195e+03	3.497864e+03	0	2.265178e-04
1.170000e+09	5.187820e+10	0.000000e+00	3.678160e-01	1.920743e+14	2.554692e+14	4.475249e+14	1.312476e+04	8.889118e+03	3.500196e+03	0	1.548721e-04
1.180000e+09	-5.695082e+10	0.000000e+00	3.678160e-01	1.903074e+14	2.566119e+14	4.456014e+14	1.310707e+04	8.894967e+03	3.502499e+03	0	nan
