#t		Qconv[W]	Ri[Rp]		R*[Rp]		Qc[W]		Qm[W]		Qr[W]		Tcmb[K]		Tl[K]		Tup[K]		RiFlag		Bs[T]
0.000000e+00	2.970880e+12	0.000000e+00	7.678572e-01	6.031513e+13	4.715863e+14	5.110027e+13	5.906072e+03	2.758868e+03	2.324937e+03	0	4.292375e-04
1.000000e+07	2.891388e+12	0.000000e+00	7.678572e-01	5.897425e+13	4.190788e+14	5.081714e+13	5.899298e+03	2.703901e+03	2.278615e+03	0	4.253744e-04
2.000000e+07	2.818778e+12	0.000000e+00	7.678572e-01	5.774868e+13	3.769563e+14	5.053613e+13	5.892675e+03	2.656436e+03	2.238616e+03	0	4.217835e-04
3.000000e+07	2.752248e+12	0.000000e+00	7.678572e-01	5.662498e+13	3.425618e+14	5.025721e+13	5.886190e+03	2.615010e+03	2.203706e+03	0	4.184387e-04
4.000000e+07	2.691066e+12	0.000000e+00	7.678572e-01	5.559088e+13	3.140485e+14	4.998038e+13	5.879830e+03	2.578525e+03	2.172960e+03	0	4.153148e-04
5.000000e+07	2.634585e+12	0.000000e+00	7.678572e-01	5.463557e+13	2.900984e+14	4.970561e+13	5.873586e+03	2.546139e+03	2.145667e+03	0	4.123886e-04
6.000000e+07	2.582246e+12	0.000000e+00	7.678572e-01	5.374969e+13	2.697494e+14	4.943289e+13	5.867449e+03	2.517195e+03	2.121276e+03	0	4.096395e-04
7.000000e+07	2.533567e+12	0.000000e+00	7.678572e-01	5.292516e+13	2.522846e+14	4.916220e+13	5.861411e+03	2.491172e+03	2.099346e+03	0	4.070490e-04
8.000000e+07	2.488133e+12	0.000000e+00	7.678572e-01	5.215503e+13	2.371604e+14	4.889352e+13	5.855466e+03	2.467651e+03	2.079524e+03	0	4.046012e-04
9.000000e+07	2.445587e+12	0.000000e+00	7.678572e-01	5.143334e+13	2.239581e+14	4.862684e+13	5.849607e+03	2.446291e+03	2.061524e+03	0	4.022818e-04
1.000000e+08	2.405622e+12	0.000000e+00	7.678572e-01	5.075492e+13	2.123504e+14	4.836215e+13	5.843829e+03	2.426811e+03	2.045108e+03	0	4.000784e-04
1.100000e+08	2.367971e+12	0.000000e+00	7.678572e-01	5.011532e+13	2.020784e+14	4.809941e+13	5.838127e+03	2.408977e+03	2.030079e+03	0	3.979801e-04
1.200000e+08	2.332403e+12	0.000000e+00	7.678572e-01	4.951066e+13	1.929347e+14	4.783863e+13	5.832496e+03	2.392593e+03	2.016272e+03	0	3.959775e-04
1.300000e+08	2.298716e+12	0.000000e+00	7.678572e-01	4.893757e+13	1.847515e+14	4.757977e+13	5.826934e+03	2.377494e+03	2.003548e+03	0	3.940618e-04
1.400000e+08	2.266734e+12	0.000000e+00	7.678572e-01	4.839309e+13	1.773920e+14	4.732283e+13	5.821435e+03	2.363538e+03	1.991787e+03	0	3.922258e-04
1.500000e+08	2.236302e+12	0.000000e+00	7.678572e-01	4.787463e+13	1.707431e+14	4.706779e+13	5.815998e+03	2.350604e+03	1.980887e+03	0	3.904626e-04
1.600000e+08	2.207283e+12	0.000000e+00	7.678572e-01	4.737989e+13	1.647113e+14	4.681463e+13	5.810619e+03	2.338587e+03	1.970760e+03	0	3.887663e-04
1.700000e+08	2.179556e+12	0.000000e+00	7.678572e-01	4.690686e+13	1.592179e+14	4.656334e+13	5.805296e+03	2.327396e+03	1.961330e+03	0	3.871316e-04
1.800000e+08	2.153015e+12	0.000000e+00	7.678572e-01	4.645373e+13	1.541970e+14	4.631391e+13	5.800025e+03	2.316953e+03	1.952529e+03	0	3.855538e-04
1.900000e+08	2.127564e+12	0.000000e+00	7.678572e-01	4.601891e+13	1.495926e+14	4.606631e+13	5.794805e+03	2.307186e+03	1.944298e+03	0	3.840285e-04
2.000000e+08	2.103116e+12	0.000000e+00	7.678572e-01	4.560095e+13	1.453567e+14	4.582053e+13	5.789634e+03	2.298035e+03	1.936587e+03	0	3.825519e-04
2.100000e+08	2.079596e+12	0.000000e+00	7.678572e-01	4.519859e+13	1.414486e+14	4.557656e+13	5.784510e+03	2.289446e+03	1.929349e+03	0	3.811205e-04
2.200000e+08	2.056935e+12	0.000000e+00	7.678572e-01	4.481066e+13	1.378327e+14	4.533439e+13	5.779431e+03	2.281371e+03	1.922543e+03	0	3.797311e-04
2.300000e+08	2.035071e+12	0.000000e+00	7.678572e-01	4.443613e+13	1.344786e+14	4.509398e+13	5.774396e+03	2.273766e+03	1.916135e+03	0	3.783809e-04
2.400000e+08	2.013948e+12	0.000000e+00	7.678572e-01	4.407406e+13	1.313597e+14	4.485535e+13	5.769402e+03	2.266593e+03	1.910090e+03	0	3.770671e-04
2.500000e+08	1.993515e+12	0.000000e+00	7.678572e-01	4.372359e+13	1.284526e+14	4.461846e+13	5.764450e+03	2.259818e+03	1.904380e+03	0	3.757876e-04
2.600000e+08	1.973725e+12	0.000000e+00	7.678572e-01	4.338396e+13	1.257370e+14	4.438330e+13	5.759536e+03	2.253409e+03	1.898979e+03	0	3.745400e-04
2.700000e+08	1.954538e+12	0.000000e+00	7.678572e-01	4.305446e+13	1.231950e+14	4.414986e+13	5.754661e+03	2.247339e+03	1.893864e+03	0	3.733223e-04
2.800000e+08	1.935914e+12	0.000000e+00	7.678572e-01	4.273444e+13	1.208107e+14	4.391813e+13	5.749822e+03	2.241582e+03	1.889013e+03	0	3.721328e-04
2.900000e+08	1.917819e+12	0.000000e+00	7.678572e-01	4.242333e+13	1.185699e+14	4.368809e+13	5.745020e+03	2.236115e+03	1.884406e+03	0	3.709697e-04
3.000000e+08	1.900221e+12	0.000000e+00	7.678572e-01	4.212059e+13	1.164603e+14	4.345973e+13	5.740252e+03	2.230918e+03	1.880026e+03	0	3.698316e-04
3.100000e+08	1.883090e+12	0.000000e+00	7.678572e-01	4.182572e+13	1.144706e+14	4.323303e+13	5.735518e+03	2.225971e+03	1.875857e+03	0	3.687169e-04
3.200000e+08	1.866400e+12	0.000000e+00	7.678572e-01	4.153827e+13	1.125908e+14	4.300797e+13	5.730818e+03	2.221257e+03	1.871885e+03	0	3.676243e-04
3.300000e+08	1.850126e+12	0.000000e+00	7.678572e-01	4.125783e+13	1.108122e+14	4.278456e+13	5.726149e+03	2.216760e+03	1.868095e+03	0	3.665526e-04
3.400000e+08	1.834244e+12	0.000000e+00	7.678572e-01	4.098401e+13	1.091265e+14	4.256277e+13	5.721512e+03	2.212466e+03	1.864476e+03	0	3.655008e-04
3.500000e+08	1.818734e+12	0.000000e+00	7.678572e-01	4.071645e+13	1.075265e+14	4.234259e+13	5.716906e+03	2.208361e+03	1.861017e+03	0	3.644676e-04
3.600000e+08	1.803576e+12	0.000000e+00	7.678572e-01	4.045484e+13	1.060057e+14	4.212400e+13	5.712330e+03	2.204433e+03	1.857707e+03	0	3.634523e-04
3.700000e+08	1.788751e+12	0.000000e+00	7.678572e-01	4.019886e+13	1.045582e+14	4.190699e+13	5.707783e+03	2.200670e+03	1.854536e+03	0	3.624538e-04
3.800000e+08	1.774244e+12	0.000000e+00	7.678572e-01	3.994823e+13	1.031786e+14	4.169156e+13	5.703265e+03	2.197063e+03	1.851496e+03	0	3.614713e-04
3.900000e+08	1.760039e+12	0.000000e+00	7.678572e-01	3.970269e+13	1.018619e+14	4.147769e+13	5.698775e+03	2.193601e+03	1.848578e+03	0	3.605040e-04
4.000000e+08	1.746121e+12	0.000000e+00	7.678572e-01	3.946201e+13	1.006038e+14	4.126535e+13	5.694313e+03	2.190275e+03	1.845776e+03	0	3.595512e-04
4.100000e+08	1.732476e+12	0.000000e+00	7.678572e-01	3.922594e+13	9.940019e+13	4.105455e+13	5.689878e+03	2.187078e+03	1.843081e+03	0	3.586122e-04
4.200000e+08	1.719092e+12	0.000000e+00	7.678572e-01	3.899428e+13	9.824731e+13	4.084527e+13	5.685469e+03	2.184002e+03	1.840489e+03	0	3.576863e-04
4.300000e+08	1.705958e+12	0.000000e+00	7.678572e-01	3.876684e+13	9.714180e+13	4.063750e+13	5.681086e+03	2.181039e+03	1.837992e+03	0	3.567731e-04
4.400000e+08	1.693062e+12	0.000000e+00	7.678572e-01	3.854343e+13	9.608052e+13	4.043122e+13	5.676728e+03	2.178183e+03	1.835585e+03	0	3.558718e-04
4.500000e+08	1.680394e+12	0.000000e+00	7.678572e-01	3.832387e+13	9.506063e+13	4.022642e+13	5.672396e+03	2.175427e+03	1.833263e+03	0	3.549820e-04
4.600000e+08	1.667944e+12	0.000000e+00	7.678572e-01	3.810801e+13	9.407948e+13	4.002310e+13	5.668088e+03	2.172767e+03	1.831022e+03	0	3.541031e-04
4.700000e+08	1.655704e+12	0.000000e+00	7.678572e-01	3.789569e+13	9.313465e+13	3.982123e+13	5.663805e+03	2.170197e+03	1.828856e+03	0	3.532348e-04
4.800000e+08	1.643664e+12	0.000000e+00	7.678572e-01	3.768678e+13	9.222390e+13	3.962081e+13	5.659545e+03	2.167711e+03	1.826761e+03	0	3.523765e-04
4.900000e+08	1.631818e+12	0.000000e+00	7.678572e-01	3.748113e+13	9.134517e+13	3.942182e+13	5.655309e+03	2.165306e+03	1.824734e+03	0	3.515280e-04
5.000000e+08	1.620157e+12	0.000000e+00	7.678572e-01	3.727863e+13	9.049655e+13	3.922426e+13	5.651096e+03	2.162976e+03	1.822771e+03	0	3.506886e-04
5.100000e+08	1.608675e+12	0.000000e+00	7.678572e-01	3.707915e+13	8.967627e+13	3.902811e+13	5.646906e+03	2.160718e+03	1.820868e+03	0	3.498582e-04
5.200000e+08	1.597365e+12	0.000000e+00	7.678572e-01	3.688259e+13	8.888268e+13	3.883335e+13	5.642738e+03	2.158528e+03	1.819022e+03	0	3.490364e-04
5.300000e+08	1.586221e+12	0.000000e+00	7.678572e-01	3.668884e+13	8.811428e+13	3.863999e+13	5.638592e+03	2.156403e+03	1.817231e+03	0	3.482228e-04
5.400000e+08	1.575237e+12	0.000000e+00	7.678572e-01	3.649780e+13	8.736965e+13	3.844800e+13	5.634468e+03	2.154338e+03	1.815491e+03	0	3.474171e-04
5.500000e+08	1.564407e+12	0.000000e+00	7.678572e-01	3.630938e+13	8.664747e+13	3.825738e+13	5.630365e+03	2.152331e+03	1.813800e+03	0	3.466191e-04
5.600000e+08	1.553726e+12	0.000000e+00	7.678572e-01	3.612349e+13	8.594652e+13	3.806812e+13	5.626283e+03	2.150379e+03	1.812155e+03	0	3.458285e-04
5.700000e+08	1.543189e+12	0.000000e+00	7.678572e-01	3.594005e+13	8.526568e+13	3.788020e+13	5.622222e+03	2.148479e+03	1.810554e+03	0	3.450449e-04
5.800000e+08	1.532792e+12	0.000000e+00	7.678572e-01	3.575897e+13	8.460386e+13	3.769361e+13	5.618182e+03	2.146629e+03	1.808995e+03	0	3.442683e-04
5.900000e+08	1.522529e+12	0.000000e+00	7.678572e-01	3.558019e+13	8.396009e+13	3.750834e+13	5.614163e+03	2.144826e+03	1.807475e+03	0	3.434982e-04
6.000000e+08	1.512398e+12	0.000000e+00	7.678572e-01	3.540363e+13	8.333344e+13	3.732439e+13	5.610163e+03	2.143068e+03	1.805993e+03	0	3.427346e-04
6.100000e+08	1.502393e+12	0.000000e+00	7.678572e-01	3.522923e+13	8.272304e+13	3.714174e+13	5.606183e+03	2.141352e+03	1.804548e+03	0	3.419772e-04
6.200000e+08	1.492512e+12	0.000000e+00	7.678572e-01	3.505692e+13	8.212809e+13	3.696038e+13	5.602222e+03	2.139677e+03	1.803136e+03	0	3.412258e-04
6.300000e+08	1.482749e+12	0.000000e+00	7.678572e-01	3.488664e+13	8.154782e+13	3.678029e+13	5.598281e+03	2.138041e+03	1.801757e+03	0	3.404802e-04
6.400000e+08	1.473103e+12	0.000000e+00	7.678572e-01	3.471833e+13	8.098154e+13	3.660148e+13	5.594360e+03	2.136441e+03	1.800409e+03	0	3.397403e-04
6.500000e+08	1.463570e+12	0.000000e+00	7.678572e-01	3.455194e+13	8.042856e+13	3.642393e+13	5.590457e+03	2.134877e+03	1.799091e+03	0	3.390058e-04
6.600000e+08	1.454146e+12	0.000000e+00	7.678572e-01	3.438742e+13	7.988826e+13	3.624763e+13	5.586572e+03	2.133346e+03	1.797801e+03	0	3.382766e-04
6.700000e+08	1.444829e+12	0.000000e+00	7.678572e-01	3.422472e+13	7.936007e+13	3.607257e+13	5.582706e+03	2.131847e+03	1.796538e+03	0	3.375526e-04
6.800000e+08	1.435616e+12	0.000000e+00	7.678572e-01	3.406378e+13	7.884342e+13	3.589873e+13	5.578859e+03	2.130379e+03	1.795301e+03	0	3.368336e-04
6.900000e+08	1.426504e+12	0.000000e+00	7.678572e-01	3.390457e+13	7.833781e+13	3.572612e+13	5.575029e+03	2.128940e+03	1.794088e+03	0	3.361194e-04
7.000000e+08	1.417491e+12	0.000000e+00	7.678572e-01	3.374704e+13	7.784273e+13	3.555471e+13	5.571218e+03	2.127529e+03	1.792899e+03	0	3.354100e-04
7.100000e+08	1.408574e+12	0.000000e+00	7.678572e-01	3.359115e+13	7.735773e+13	3.538451e+13	5.567424e+03	2.126144e+03	1.791732e+03	0	3.347052e-04
7.200000e+08	1.399750e+12	0.000000e+00	7.678572e-01	3.343686e+13	7.688238e+13	3.521550e+13	5.563647e+03	2.124785e+03	1.790587e+03	0	3.340049e-04
7.300000e+08	1.391019e+12	0.000000e+00	7.678572e-01	3.328413e+13	7.641626e+13	3.504766e+13	5.559888e+03	2.123451e+03	1.789462e+03	0	3.333089e-04
7.400000e+08	1.382376e+12	0.000000e+00	7.678572e-01	3.313293e+13	7.595900e+13	3.488100e+13	5.556146e+03	2.122139e+03	1.788357e+03	0	3.326172e-04
7.500000e+08	1.373821e+12	0.000000e+00	7.678572e-01	3.298322e+13	7.551023e+13	3.471550e+13	5.552421e+03	2.120851e+03	1.787271e+03	0	3.319296e-04
7.600000e+08	1.365352e+12	0.000000e+00	7.678572e-01	3.283497e+13	7.506961e+13	3.455116e+13	5.548713e+03	2.119583e+03	1.786203e+03	0	3.312461e-04
7.700000e+08	1.356966e+12	0.000000e+00	7.678572e-01	3.268814e+13	7.463681e+13	3.438795e+13	5.545021e+03	2.118336e+03	1.785152e+03	0	3.305666e-04
7.800000e+08	1.348662e+12	0.000000e+00	7.678572e-01	3.254271e+13	7.421152e+13	3.422589e+13	5.541346e+03	2.117109e+03	1.784118e+03	0	3.298909e-04
7.900000e+08	1.340438e+12	0.000000e+00	7.678572e-01	3.239865e+13	7.379346e+13	3.406494e+13	5.537687e+03	2.115901e+03	1.783100e+03	0	3.292190e-04
8.000000e+08	1.332292e+12	0.000000e+00	7.678572e-01	3.225592e+13	7.338234e+13	3.390512e+13	5.534045e+03	2.114711e+03	1.782097e+03	0	3.285507e-04
8.100000e+08	1.324223e+12	0.000000e+00	7.678572e-01	3.211451e+13	7.297791e+13	3.374640e+13	5.530418e+03	2.113539e+03	1.781109e+03	0	3.278861e-04
8.200000e+08	1.316229e+12	0.000000e+00	7.678572e-01	3.197438e+13	7.257993e+13	3.358878e+13	5.526807e+03	2.112383e+03	1.780135e+03	0	3.272250e-04
8.300000e+08	1.308309e+12	0.000000e+00	7.678572e-01	3.183552e+13	7.218815e+13	3.343224e+13	5.523212e+03	2.111243e+03	1.779174e+03	0	3.265673e-04
8.400000e+08	1.300461e+12	0.000000e+00	7.678572e-01	3.169789e+13	7.180236e+13	3.327679e+13	5.519633e+03	2.110119e+03	1.778227e+03	0	3.259131e-04
8.500000e+08	1.292684e+12	0.000000e+00	7.678572e-01	3.156147e+13	7.142235e+13	3.312242e+13	5.516069e+03	2.109010e+03	1.777292e+03	0	3.252621e-04
8.600000e+08	1.284977e+12	0.000000e+00	7.678572e-01	3.142624e+13	7.104791e+13	3.296910e+13	5.512521e+03	2.107915e+03	1.776369e+03	0	3.246144e-04
8.700000e+08	1.277338e+12	0.000000e+00	7.678572e-01	3.129218e+13	7.067886e+13	3.281685e+13	5.508987e+03	2.106834e+03	1.775458e+03	0	3.239698e-04
8.800000e+08	1.269766e+12	0.000000e+00	7.678572e-01	3.115927e+13	7.031501e+13	3.266564e+13	5.505469e+03	2.105766e+03	1.774559e+03	0	3.233284e-04
8.900000e+08	1.262260e+12	0.000000e+00	7.678572e-01	3.102748e+13	6.995620e+13	3.251546e+13	5.501965e+03	2.104711e+03	1.773670e+03	0	3.226900e-04
9.000000e+08	1.254818e+12	0.000000e+00	7.678572e-01	3.089681e+13	6.960226e+13	3.236632e+13	5.498477e+03	2.103668e+03	1.772791e+03	0	3.220546e-04
9.100000e+08	1.247440e+12	0.000000e+00	7.678572e-01	3.076722e+13	6.925303e+13	3.221820e+13	5.495003e+03	2.102638e+03	1.771922e+03	0	3.214222e-04
9.200000e+08	1.240125e+12	0.000000e+00	7.678572e-01	3.063871e+13	6.890837e+13	3.207110e+13	5.491543e+03	2.101618e+03	1.771064e+03	0	3.207926e-04
9.300000e+08	1.232871e+12	0.000000e+00	7.678572e-01	3.051124e+13	6.856814e+13	3.192500e+13	5.488098e+03	2.100610e+03	1.770214e+03	0	3.201659e-04
9.400000e+08	1.225677e+12	0.000000e+00	7.678572e-01	3.038482e+13	6.823220e+13	3.177990e+13	5.484668e+03	2.099613e+03	1.769374e+03	0	3.195420e-04
9.500000e+08	1.218543e+12	0.000000e+00	7.678572e-01	3.025941e+13	6.790042e+13	3.163579e+13	5.481251e+03	2.098626e+03	1.768542e+03	0	3.189209e-04
9.600000e+08	1.211468e+12	0.000000e+00	7.678572e-01	3.013501e+13	6.757268e+13	3.149267e+13	5.477849e+03	2.097649e+03	1.767719e+03	0	3.183024e-04
9.700000e+08	1.204450e+12	0.000000e+00	7.678572e-01	3.001159e+13	6.724887e+13	3.135052e+13	5.474460e+03	2.096682e+03	1.766904e+03	0	3.176866e-04
9.800000e+08	1.197489e+12	0.000000e+00	7.678572e-01	2.988915e+13	6.692888e+13	3.120933e+13	5.471086e+03	2.095724e+03	1.766096e+03	0	3.170733e-04
9.900000e+08	1.190583e+12	0.000000e+00	7.678572e-01	2.976767e+13	6.661259e+13	3.106911e+13	5.467725e+03	2.094776e+03	1.765297e+03	0	3.164627e-04
1.000000e+09	1.183733e+12	0.000000e+00	7.678572e-01	2.964713e+13	6.629991e+13	3.092983e+13	5.464378e+03	2.093836e+03	1.764505e+03	0	3.158546e-04
1.010000e+09	1.176937e+12	0.000000e+00	7.678572e-01	2.952752e+13	6.599073e+13	3.079151e+13	5.461044e+03	2.092904e+03	1.763720e+03	0	3.152490e-04
1.020000e+09	1.170194e+12	0.000000e+00	7.678572e-01	2.940883e+13	6.568498e+13	3.065412e+13	5.457724e+03	2.091981e+03	1.762942e+03	0	3.146458e-04
1.030000e+09	1.163504e+12	0.000000e+00	7.678572e-01	2.929104e+13	6.538255e+13	3.051765e+13	5.454417e+03	2.091066e+03	1.762171e+03	0	3.140450e-04
1.040000e+09	1.156866e+12	0.000000e+00	7.678572e-01	2.917415e+13	6.508336e+13	3.038211e+13	5.451123e+03	2.090158e+03	1.761406e+03	0	3.134466e-04
1.050000e+09	1.150279e+12	0.000000e+00	7.678572e-01	2.905813e+13	6.478733e+13	3.024749e+13	5.447843e+03	2.089259e+03	1.760648e+03	0	3.128506e-04
1.060000e+09	1.143742e+12	0.000000e+00	7.678572e-01	2.894298e+13	6.449439e+13	3.011377e+13	5.444575e+03	2.088366e+03	1.759895e+03	0	3.122569e-04
1.070000e+09	1.137255e+12	0.000000e+00	7.678572e-01	2.882868e+13	6.420445e+13	2.998096e+13	5.441321e+03	2.087481e+03	1.759149e+03	0	3.116654e-04
1.080000e+09	1.130818e+12	0.000000e+00	7.678572e-01	2.871523e+13	6.391745e+13	2.984904e+13	5.438079e+03	2.086602e+03	1.758409e+03	0	3.110762e-04
1.090000e+09	1.124428e+12	0.000000e+00	7.678572e-01	2.860261e+13	6.363331e+13	2.971800e+13	5.434850e+03	2.085730e+03	1.757674e+03	0	3.104892e-04
1.100000e+09	1.118087e+12	0.000000e+00	7.678572e-01	2.849081e+13	6.335198e+13	2.958785e+13	5.431634e+03	2.084865e+03	1.756945e+03	0	3.099044e-04
1.110000e+09	1.111792e+12	0.000000e+00	7.678572e-01	2.837982e+13	6.307338e+13	2.945857e+13	5.428430e+03	2.084006e+03	1.756221e+03	0	3.093218e-04
1.120000e+09	1.105545e+12	0.000000e+00	7.678572e-01	2.826963e+13	6.279746e+13	2.933015e+13	5.425239e+03	2.083153e+03	1.755503e+03	0	3.087413e-04
1.130000e+09	1.099343e+12	0.000000e+00	7.678572e-01	2.816024e+13	6.252416e+13	2.920260e+13	5.422060e+03	2.082306e+03	1.754789e+03	0	3.081629e-04
1.140000e+09	1.093186e+12	0.000000e+00	7.678572e-01	2.805162e+13	6.225342e+13	2.907589e+13	5.418893e+03	2.081466e+03	1.754080e+03	0	3.075865e-04
1.150000e+09	1.087075e+12	0.000000e+00	7.678572e-01	2.794378e+13	6.198519e+13	2.895003e+13	5.415739e+03	2.080630e+03	1.753377e+03	0	3.070123e-04
1.160000e+09	1.081007e+12	0.000000e+00	7.678572e-01	2.783670e+13	6.171941e+13	2.882502e+13	5.412596e+03	2.079801e+03	1.752677e+03	0	3.064400e-04
1.170000e+09	1.074984e+12	0.000000e+00	7.678572e-01	2.773036e+13	6.145603e+13	2.870083e+13	5.409466e+03	2.078977e+03	1.751983e+03	0	3.058698e-04
1.180000e+09	1.069003e+12	0.000000e+00	7.678572e-01	2.762478e+13	6.119502e+13	2.857747e+13	5.406347e+03	2.078158e+03	1.751293e+03	0	3.053015e-04
1.190000e+09	1.063065e+12	0.000000e+00	7.678572e-01	2.751993e+13	6.093631e+13	2.845493e+13	5.403241e+03	2.077344e+03	1.750607e+03	0	3.047352e-04
1.200000e+09	1.057170e+12	0.000000e+00	7.678572e-01	2.741580e+13	6.067987e+13	2.833321e+13	5.400146e+03	2.076536e+03	1.749926e+03	0	3.041708e-04
1.210000e+09	1.051316e+12	0.000000e+00	7.678572e-01	2.731239e+13	6.042565e+13	2.821229e+13	5.397063e+03	2.075732e+03	1.749249e+03	0	3.036083e-04
1.220000e+09	1.045503e+12	0.000000e+00	7.678572e-01	2.720969e+13	6.017361e+13	2.809217e+13	5.393992e+03	2.074933e+03	1.748575e+03	0	3.030477e-04
1.230000e+09	1.039731e+12	0.000000e+00	7.678572e-01	2.710770e+13	5.992371e+13	2.797285e+13	5.390932e+03	2.074139e+03	1.747906e+03	0	3.024890e-04
1.240000e+09	1.033999e+12	0.000000e+00	7.678572e-01	2.700639e+13	5.967591e+13	2.785432e+13	5.387883e+03	2.073349e+03	1.747241e+03	0	3.019322e-04
1.250000e+09	1.028307e+12	0.000000e+00	7.678572e-01	2.690577e+13	5.943017e+13	2.773656e+13	5.384846e+03	2.072564e+03	1.746579e+03	0	3.013771e-04
1.260000e+09	1.022655e+12	0.000000e+00	7.678572e-01	2.680583e+13	5.918647e+13	2.761959e+13	5.381820e+03	2.071784e+03	1.745921e+03	0	3.008239e-04
1.270000e+09	1.017041e+12	0.000000e+00	7.678572e-01	2.670656e+13	5.894475e+13	2.750338e+13	5.378806e+03	2.071008e+03	1.745267e+03	0	3.002724e-04
1.280000e+09	1.011466e+12	0.000000e+00	7.678572e-01	2.660796e+13	5.870499e+13	2.738795e+13	5.375803e+03	2.070236e+03	1.744617e+03	0	2.997227e-04
1.290000e+09	1.005929e+12	0.000000e+00	7.678572e-01	2.651001e+13	5.846716e+13	2.727326e+13	5.372810e+03	2.069468e+03	1.743970e+03	0	2.991748e-04
1.300000e+09	1.000429e+12	0.000000e+00	7.678572e-01	2.641271e+13	5.823122e+13	2.715934e+13	5.369829e+03	2.068704e+03	1.743326e+03	0	2.986286e-04
1.310000e+09	9.949669e+11	0.000000e+00	7.678572e-01	2.631605e+13	5.799714e+13	2.704615e+13	5.366858e+03	2.067944e+03	1.742686e+03	0	2.980841e-04
1.320000e+09	9.895414e+11	0.000000e+00	7.678572e-01	2.622002e+13	5.776489e+13	2.693371e+13	5.363899e+03	2.067188e+03	1.742049e+03	0	2.975413e-04
1.330000e+09	9.841524e+11	0.000000e+00	7.678572e-01	2.612463e+13	5.753445e+13	2.682201e+13	5.360950e+03	2.066436e+03	1.741415e+03	0	2.970002e-04
1.340000e+09	9.787995e+11	0.000000e+00	7.678572e-01	2.602986e+13	5.730578e+13	2.671103e+13	5.358012e+03	2.065688e+03	1.740785e+03	0	2.964607e-04
1.350000e+09	9.734823e+11	0.000000e+00	7.678572e-01	2.593570e+13	5.707887e+13	2.660078e+13	5.355085e+03	2.064944e+03	1.740157e+03	0	2.959229e-04
1.360000e+09	9.682004e+11	0.000000e+00	7.678572e-01	2.584215e+13	5.685367e+13	2.649125e+13	5.352168e+03	2.064203e+03	1.739533e+03	0	2.953868e-04
