#t		Qconv[W]	Ri[Rp]		R*[Rp]		Qc[W]		Qm[W]		Qr[W]		Tcmb[K]		Tl[K]		Tup[K]		RiFlag		Bs[T]
0.000000e+00	3.882443e+12	0.000000e+00	7.678571e-01	7.479621e+13	5.201302e+14	5.806179e+13	6.327396e+03	2.841600e+03	2.368256e+03	0	4.659212e-04
1.000000e+07	3.778888e+12	0.000000e+00	7.678571e-01	7.318453e+13	4.655693e+14	5.774008e+13	6.320184e+03	2.789145e+03	2.324539e+03	0	4.617414e-04
2.000000e+07	3.684464e+12	0.000000e+00	7.678571e-01	7.171384e+13	4.213696e+14	5.742078e+13	6.313127e+03	2.743587e+03	2.286570e+03	0	4.578630e-04
3.000000e+07	3.597998e+12	0.000000e+00	7.678571e-01	7.036602e+13	3.849742e+14	5.710387e+13	6.306212e+03	2.703631e+03	2.253270e+03	0	4.542530e-04
4.000000e+07	3.518474e+12	0.000000e+00	7.678571e-01	6.912538e+13	3.545812e+14	5.678932e+13	6.299426e+03	2.668294e+03	2.223819e+03	0	4.508813e-04
5.000000e+07	3.445021e+12	0.000000e+00	7.678571e-01	6.797853e+13	3.288887e+14	5.647712e+13	6.292759e+03	2.636812e+03	2.197581e+03	0	4.477217e-04
6.000000e+07	3.376901e+12	0.000000e+00	7.678571e-01	6.691405e+13	3.069357e+14	5.616725e+13	6.286203e+03	2.608588e+03	2.174059e+03	0	4.447510e-04
7.000000e+07	3.313483e+12	0.000000e+00	7.678571e-01	6.592222e+13	2.879996e+14	5.585968e+13	6.279749e+03	2.583142e+03	2.152851e+03	0	4.419492e-04
8.000000e+07	3.254231e+12	0.000000e+00	7.678571e-01	6.499476e+13	2.715276e+14	5.555441e+13	6.273391e+03	2.560085e+03	2.133635e+03	0	4.392990e-04
9.000000e+07	3.198684e+12	0.000000e+00	7.678571e-01	6.412457e+13	2.570906e+14	5.525140e+13	6.267122e+03	2.539101e+03	2.116147e+03	0	4.367852e-04
1.000000e+08	3.146447e+12	0.000000e+00	7.678571e-01	6.330554e+13	2.443509e+14	5.495064e+13	6.260937e+03	2.519927e+03	2.100166e+03	0	4.343945e-04
1.100000e+08	3.097180e+12	0.000000e+00	7.678571e-01	6.253242e+13	2.330396e+14	5.465211e+13	6.254831e+03	2.502342e+03	2.085510e+03	0	4.321153e-04
1.200000e+08	3.050585e+12	0.000000e+00	7.678571e-01	6.180064e+13	2.229402e+14	5.435580e+13	6.248799e+03	2.486161e+03	2.072025e+03	0	4.299374e-04
1.300000e+08	3.006406e+12	0.000000e+00	7.678571e-01	6.110621e+13	2.138766e+14	5.406168e+13	6.242837e+03	2.471227e+03	2.059578e+03	0	4.278518e-04
1.400000e+08	2.964417e+12	0.000000e+00	7.678571e-01	6.044568e+13	2.057043e+14	5.376973e+13	6.236942e+03	2.457405e+03	2.048059e+03	0	4.258506e-04
1.500000e+08	2.924421e+12	0.000000e+00	7.678571e-01	5.981597e+13	1.983036e+14	5.347995e+13	6.231111e+03	2.444580e+03	2.037370e+03	0	4.239267e-04
1.600000e+08	2.886242e+12	0.000000e+00	7.678571e-01	5.921440e+13	1.915748e+14	5.319230e+13	6.225341e+03	2.432650e+03	2.027428e+03	0	4.220738e-04
1.700000e+08	2.849727e+12	0.000000e+00	7.678571e-01	5.863858e+13	1.854343e+14	5.290678e+13	6.219628e+03	2.421530e+03	2.018160e+03	0	4.202863e-04
1.800000e+08	2.814739e+12	0.000000e+00	7.678571e-01	5.808640e+13	1.798110e+14	5.262336e+13	6.213971e+03	2.411141e+03	2.009501e+03	0	4.185591e-04
1.900000e+08	2.781155e+12	0.000000e+00	7.678571e-01	5.755597e+13	1.746449e+14	5.234203e+13	6.208367e+03	2.401417e+03	2.001397e+03	0	4.168878e-04
2.000000e+08	2.748866e+12	0.000000e+00	7.678571e-01	5.704561e+13	1.698842e+14	5.206277e+13	6.202814e+03	2.392298e+03	1.993798e+03	0	4.152682e-04
2.100000e+08	2.717775e+12	0.000000e+00	7.678571e-01	5.655380e+13	1.654849e+14	5.178557e+13	6.197311e+03	2.383733e+03	1.986659e+03	0	4.136966e-04
2.200000e+08	2.687793e+12	0.000000e+00	7.678571e-01	5.607919e+13	1.614084e+14	5.151040e+13	6.191854e+03	2.375673e+03	1.979942e+03	0	4.121697e-04
2.300000e+08	2.658841e+12	0.000000e+00	7.678571e-01	5.562055e+13	1.576216e+14	5.123725e+13	6.186444e+03	2.368077e+03	1.973611e+03	0	4.106845e-04
2.400000e+08	2.630848e+12	0.000000e+00	7.678571e-01	5.517677e+13	1.540955e+14	5.096610e+13	6.181077e+03	2.360908e+03	1.967636e+03	0	4.092381e-04
2.500000e+08	2.603747e+12	0.000000e+00	7.678571e-01	5.474684e+13	1.508046e+14	5.069694e+13	6.175753e+03	2.354132e+03	1.961989e+03	0	4.078280e-04
2.600000e+08	2.577481e+12	0.000000e+00	7.678571e-01	5.432986e+13	1.477267e+14	5.042974e+13	6.170471e+03	2.347718e+03	1.956643e+03	0	4.064520e-04
2.700000e+08	2.551996e+12	0.000000e+00	7.678571e-01	5.392498e+13	1.448420e+14	5.016451e+13	6.165229e+03	2.341640e+03	1.951577e+03	0	4.051080e-04
2.800000e+08	2.527241e+12	0.000000e+00	7.678571e-01	5.353146e+13	1.421332e+14	4.990120e+13	6.160026e+03	2.335871e+03	1.946770e+03	0	4.037938e-04
2.900000e+08	2.503173e+12	0.000000e+00	7.678571e-01	5.314861e+13	1.395847e+14	4.963982e+13	6.154861e+03	2.330390e+03	1.942202e+03	0	4.025079e-04
3.000000e+08	2.479750e+12	0.000000e+00	7.678571e-01	5.277577e+13	1.371827e+14	4.938035e+13	6.149732e+03	2.325177e+03	1.937857e+03	0	4.012485e-04
3.100000e+08	2.456935e+12	0.000000e+00	7.678571e-01	5.241238e+13	1.349150e+14	4.912277e+13	6.144640e+03	2.320212e+03	1.933719e+03	0	4.000142e-04
3.200000e+08	2.434693e+12	0.000000e+00	7.678571e-01	5.205789e+13	1.327705e+14	4.886706e+13	6.139582e+03	2.315478e+03	1.929773e+03	0	3.988034e-04
3.300000e+08	2.412992e+12	0.000000e+00	7.678571e-01	5.171181e+13	1.307393e+14	4.861320e+13	6.134559e+03	2.310959e+03	1.926008e+03	0	3.976150e-04
3.400000e+08	2.391802e+12	0.000000e+00	7.678571e-01	5.137369e+13	1.288124e+14	4.836120e+13	6.129569e+03	2.306642e+03	1.922410e+03	0	3.964477e-04
3.500000e+08	2.371097e+12	0.000000e+00	7.678571e-01	5.104310e+13	1.269819e+14	4.811102e+13	6.124612e+03	2.302513e+03	1.918969e+03	0	3.953004e-04
3.600000e+08	2.350851e+12	0.000000e+00	7.678571e-01	5.071966e+13	1.252405e+14	4.786265e+13	6.119686e+03	2.298560e+03	1.915674e+03	0	3.941720e-04
3.700000e+08	2.331040e+12	0.000000e+00	7.678571e-01	5.040301e+13	1.235815e+14	4.761609e+13	6.114792e+03	2.294772e+03	1.912516e+03	0	3.930617e-04
3.800000e+08	2.311644e+12	0.000000e+00	7.678571e-01	5.009280e+13	1.219989e+14	4.737130e+13	6.109928e+03	2.291137e+03	1.909488e+03	0	3.919685e-04
3.900000e+08	2.292642e+12	0.000000e+00	7.678571e-01	4.978874e+13	1.204873e+14	4.712829e+13	6.105094e+03	2.287648e+03	1.906580e+03	0	3.908915e-04
4.000000e+08	2.274016e+12	0.000000e+00	7.678571e-01	4.949052e+13	1.190418e+14	4.688703e+13	6.100289e+03	2.284295e+03	1.903785e+03	0	3.898300e-04
4.100000e+08	2.255747e+12	0.000000e+00	7.678571e-01	4.919788e+13	1.176578e+14	4.664751e+13	6.095513e+03	2.281069e+03	1.901097e+03	0	3.887833e-04
4.200000e+08	2.237820e+12	0.000000e+00	7.678571e-01	4.891058e+13	1.163311e+14	4.640972e+13	6.090765e+03	2.277964e+03	1.898509e+03	0	3.877507e-04
4.300000e+08	2.220220e+12	0.000000e+00	7.678571e-01	4.862837e+13	1.150579e+14	4.617364e+13	6.086045e+03	2.274972e+03	1.896015e+03	0	3.867314e-04
4.400000e+08	2.202932e+12	0.000000e+00	7.678571e-01	4.835103e+13	1.138348e+14	4.593926e+13	6.081352e+03	2.272086e+03	1.893610e+03	0	3.857250e-04
4.500000e+08	2.185943e+12	0.000000e+00	7.678571e-01	4.807836e+13	1.126584e+14	4.570657e+13	6.076686e+03	2.269301e+03	1.891288e+03	0	3.847309e-04
4.600000e+08	2.169241e+12	0.000000e+00	7.678571e-01	4.781017e+13	1.115260e+14	4.547554e+13	6.072046e+03	2.266610e+03	1.889046e+03	0	3.837486e-04
4.700000e+08	2.152815e+12	0.000000e+00	7.678571e-01	4.754628e+13	1.104347e+14	4.524617e+13	6.067432e+03	2.264009e+03	1.886879e+03	0	3.827774e-04
4.800000e+08	2.136652e+12	0.000000e+00	7.678571e-01	4.728652e+13	1.093820e+14	4.501845e+13	6.062843e+03	2.261493e+03	1.884781e+03	0	3.818171e-04
4.900000e+08	2.120743e+12	0.000000e+00	7.678571e-01	4.703072e+13	1.083656e+14	4.479235e+13	6.058280e+03	2.259056e+03	1.882751e+03	0	3.808671e-04
5.000000e+08	2.105078e+12	0.000000e+00	7.678571e-01	4.677874e+13	1.073834e+14	4.456787e+13	6.053741e+03	2.256696e+03	1.880783e+03	0	3.799271e-04
5.100000e+08	2.089649e+12	0.000000e+00	7.678571e-01	4.653045e+13	1.064334e+14	4.434500e+13	6.049226e+03	2.254406e+03	1.878875e+03	0	3.789965e-04
5.200000e+08	2.074446e+12	0.000000e+00	7.678571e-01	4.628570e+13	1.055137e+14	4.412371e+13	6.044735e+03	2.252185e+03	1.877023e+03	0	3.780752e-04
5.300000e+08	2.059462e+12	0.000000e+00	7.678571e-01	4.604437e+13	1.046226e+14	4.390401e+13	6.040268e+03	2.250027e+03	1.875225e+03	0	3.771627e-04
5.400000e+08	2.044688e+12	0.000000e+00	7.678571e-01	4.580634e+13	1.037585e+14	4.368587e+13	6.035824e+03	2.247931e+03	1.873478e+03	0	3.762587e-04
5.500000e+08	2.030119e+12	0.000000e+00	7.678571e-01	4.557150e+13	1.029199e+14	4.346928e+13	6.031403e+03	2.245892e+03	1.871779e+03	0	3.753629e-04
5.600000e+08	2.015746e+12	0.000000e+00	7.678571e-01	4.533976e+13	1.021056e+14	4.325423e+13	6.027005e+03	2.243908e+03	1.870125e+03	0	3.744749e-04
5.700000e+08	2.001564e+12	0.000000e+00	7.678571e-01	4.511099e+13	1.013140e+14	4.304071e+13	6.022629e+03	2.241976e+03	1.868515e+03	0	3.735946e-04
5.800000e+08	1.987566e+12	0.000000e+00	7.678571e-01	4.488512e+13	1.005442e+14	4.282870e+13	6.018275e+03	2.240094e+03	1.866947e+03	0	3.727217e-04
5.900000e+08	1.973747e+12	0.000000e+00	7.678571e-01	4.466206e+13	9.979492e+13	4.261820e+13	6.013943e+03	2.238258e+03	1.865417e+03	0	3.718559e-04
6.000000e+08	1.960102e+12	0.000000e+00	7.678571e-01	4.444171e+13	9.906515e+13	4.240918e+13	6.009632e+03	2.236468e+03	1.863925e+03	0	3.709969e-04
6.100000e+08	1.946624e+12	0.000000e+00	7.678571e-01	4.422400e+13	9.835391e+13	4.220165e+13	6.005342e+03	2.234720e+03	1.862468e+03	0	3.701446e-04
6.200000e+08	1.933309e+12	0.000000e+00	7.678571e-01	4.400885e+13	9.766029e+13	4.199558e+13	6.001074e+03	2.233012e+03	1.861045e+03	0	3.692988e-04
6.300000e+08	1.920153e+12	0.000000e+00	7.678571e-01	4.379618e+13	9.698343e+13	4.179096e+13	5.996826e+03	2.231343e+03	1.859654e+03	0	3.684592e-04
6.400000e+08	1.907150e+12	0.000000e+00	7.678571e-01	4.358594e+13	9.632252e+13	4.158779e+13	5.992599e+03	2.229711e+03	1.858294e+03	0	3.676256e-04
6.500000e+08	1.894298e+12	0.000000e+00	7.678571e-01	4.337805e+13	9.567682e+13	4.138605e+13	5.988392e+03	2.228114e+03	1.856963e+03	0	3.667979e-04
6.600000e+08	1.881590e+12	0.000000e+00	7.678571e-01	4.317245e+13	9.504561e+13	4.118573e+13	5.984205e+03	2.226551e+03	1.855660e+03	0	3.659759e-04
6.700000e+08	1.869025e+12	0.000000e+00	7.678571e-01	4.296908e+13	9.442823e+13	4.098682e+13	5.980038e+03	2.225019e+03	1.854383e+03	0	3.651594e-04
6.800000e+08	1.856598e+12	0.000000e+00	7.678571e-01	4.276789e+13	9.382405e+13	4.078930e+13	5.975890e+03	2.223519e+03	1.853133e+03	0	3.643483e-04
6.900000e+08	1.844306e+12	0.000000e+00	7.678571e-01	4.256881e+13	9.323249e+13	4.059317e+13	5.971762e+03	2.222047e+03	1.851906e+03	0	3.635424e-04
7.000000e+08	1.832145e+12	0.000000e+00	7.678571e-01	4.237180e+13	9.265299e+13	4.039842e+13	5.967653e+03	2.220603e+03	1.850703e+03	0	3.627416e-04
7.100000e+08	1.820112e+12	0.000000e+00	7.678571e-01	4.217681e+13	9.208503e+13	4.020503e+13	5.963563e+03	2.219186e+03	1.849521e+03	0	3.619457e-04
7.200000e+08	1.808204e+12	0.000000e+00	7.678571e-01	4.198379e+13	9.152812e+13	4.001299e+13	5.959492e+03	2.217794e+03	1.848362e+03	0	3.611547e-04
7.300000e+08	1.796418e+12	0.000000e+00	7.678571e-01	4.179269e+13	9.098179e+13	3.982229e+13	5.955439e+03	2.216427e+03	1.847222e+03	0	3.603683e-04
7.400000e+08	1.784751e+12	0.000000e+00	7.678571e-01	4.160348e+13	9.044562e+13	3.963293e+13	5.951405e+03	2.215083e+03	1.846102e+03	0	3.595865e-04
7.500000e+08	1.773201e+12	0.000000e+00	7.678571e-01	4.141610e+13	8.991918e+13	3.944488e+13	5.947389e+03	2.213761e+03	1.845001e+03	0	3.588091e-04
7.600000e+08	1.761765e+12	0.000000e+00	7.678571e-01	4.123052e+13	8.940208e+13	3.925814e+13	5.943391e+03	2.212461e+03	1.843917e+03	0	3.580361e-04
7.700000e+08	1.750441e+12	0.000000e+00	7.678571e-01	4.104671e+13	8.889397e+13	3.907271e+13	5.939411e+03	2.211182e+03	1.842851e+03	0	3.572673e-04
7.800000e+08	1.739226e+12	0.000000e+00	7.678571e-01	4.086461e+13	8.839448e+13	3.888856e+13	5.935449e+03	2.209922e+03	1.841801e+03	0	3.565027e-04
7.900000e+08	1.728118e+12	0.000000e+00	7.678571e-01	4.068421e+13	8.790329e+13	3.870569e+13	5.931504e+03	2.208681e+03	1.840767e+03	0	3.557421e-04
8.000000e+08	1.717115e+12	0.000000e+00	7.678571e-01	4.050546e+13	8.742008e+13	3.852409e+13	5.927577e+03	2.207458e+03	1.839748e+03	0	3.549855e-04
8.100000e+08	1.706214e+12	0.000000e+00	7.678571e-01	4.032833e+13	8.694457e+13	3.834375e+13	5.923667e+03	2.206253e+03	1.838743e+03	0	3.542327e-04
8.200000e+08	1.695414e+12	0.000000e+00	7.678571e-01	4.015279e+13	8.647647e+13	3.816466e+13	5.919774e+03	2.205065e+03	1.837753e+03	0	3.534837e-04
8.300000e+08	1.684713e+12	0.000000e+00	7.678571e-01	3.997881e+13	8.601551e+13	3.798680e+13	5.915898e+03	2.203893e+03	1.836776e+03	0	3.527384e-04
8.400000e+08	1.674108e+12	0.000000e+00	7.678571e-01	3.980636e+13	8.556144e+13	3.781017e+13	5.912038e+03	2.202736e+03	1.835812e+03	0	3.519967e-04
8.500000e+08	1.663598e+12	0.000000e+00	7.678571e-01	3.963542e+13	8.511402e+13	3.763476e+13	5.908196e+03	2.201594e+03	1.834860e+03	0	3.512586e-04
8.600000e+08	1.653182e+12	0.000000e+00	7.678571e-01	3.946595e+13	8.467303e+13	3.746056e+13	5.904370e+03	2.200467e+03	1.833920e+03	0	3.505239e-04
8.700000e+08	1.642857e+12	0.000000e+00	7.678571e-01	3.929792e+13	8.423825e+13	3.728756e+13	5.900560e+03	2.199353e+03	1.832992e+03	0	3.497927e-04
8.800000e+08	1.632622e+12	0.000000e+00	7.678571e-01	3.913132e+13	8.380947e+13	3.711575e+13	5.896766e+03	2.198253e+03	1.832075e+03	0	3.490648e-04
8.900000e+08	1.622476e+12	0.000000e+00	7.678571e-01	3.896612e+13	8.338650e+13	3.694512e+13	5.892988e+03	2.197165e+03	1.831169e+03	0	3.483402e-04
9.000000e+08	1.612416e+12	0.000000e+00	7.678571e-01	3.880230e+13	8.296916e+13	3.677567e+13	5.889227e+03	2.196090e+03	1.830273e+03	0	3.476187e-04
9.100000e+08	1.602442e+12	0.000000e+00	7.678571e-01	3.863982e+13	8.255725e+13	3.660737e+13	5.885481e+03	2.195027e+03	1.829387e+03	0	3.469005e-04
9.200000e+08	1.592552e+12	0.000000e+00	7.678571e-01	3.847868e+13	8.215063e+13	3.644022e+13	5.881750e+03	2.193976e+03	1.828511e+03	0	3.461853e-04
9.300000e+08	1.582744e+12	0.000000e+00	7.678571e-01	3.831884e+13	8.174912e+13	3.627422e+13	5.878036e+03	2.192936e+03	1.827644e+03	0	3.454732e-04
9.400000e+08	1.573017e+12	0.000000e+00	7.678571e-01	3.816030e+13	8.135258e+13	3.610936e+13	5.874336e+03	2.191906e+03	1.826786e+03	0	3.447640e-04
9.500000e+08	1.563371e+12	0.000000e+00	7.678571e-01	3.800302e+13	8.096085e+13	3.594562e+13	5.870652e+03	2.190887e+03	1.825937e+03	0	3.440578e-04
9.600000e+08	1.553803e+12	0.000000e+00	7.678571e-01	3.784698e+13	8.057380e+13	3.578299e+13	5.866984e+03	2.189878e+03	1.825096e+03	0	3.433545e-04
9.700000e+08	1.544313e+12	0.000000e+00	7.678571e-01	3.769218e+13	8.019130e+13	3.562147e+13	5.863330e+03	2.188879e+03	1.824263e+03	0	3.426541e-04
9.800000e+08	1.534899e+12	0.000000e+00	7.678571e-01	3.753859e+13	7.981321e+13	3.546105e+13	5.859691e+03	2.187889e+03	1.823438e+03	0	3.419564e-04
9.900000e+08	1.525560e+12	0.000000e+00	7.678571e-01	3.738619e+13	7.943943e+13	3.530173e+13	5.856067e+03	2.186908e+03	1.822621e+03	0	3.412614e-04
1.000000e+09	1.516295e+12	0.000000e+00	7.678571e-01	3.723496e+13	7.906982e+13	3.514348e+13	5.852458e+03	2.185936e+03	1.821811e+03	0	3.405692e-04
1.010000e+09	1.507103e+12	0.000000e+00	7.678571e-01	3.708490e+13	7.870429e+13	3.498631e+13	5.848863e+03	2.184973e+03	1.821008e+03	0	3.398796e-04
1.020000e+09	1.497983e+12	0.000000e+00	7.678571e-01	3.693597e+13	7.834272e+13	3.483020e+13	5.845282e+03	2.184018e+03	1.820212e+03	0	3.391927e-04
1.030000e+09	1.488934e+12	0.000000e+00	7.678571e-01	3.678817e+13	7.798501e+13	3.467515e+13	5.841716e+03	2.183071e+03	1.819423e+03	0	3.385083e-04
1.040000e+09	1.479955e+12	0.000000e+00	7.678571e-01	3.664148e+13	7.763107e+13	3.452114e+13	5.838165e+03	2.182132e+03	1.818640e+03	0	3.378265e-04
1.050000e+09	1.471045e+12	0.000000e+00	7.678571e-01	3.649589e+13	7.728080e+13	3.436818e+13	5.834627e+03	2.181201e+03	1.817864e+03	0	3.371471e-04
1.060000e+09	1.462203e+12	0.000000e+00	7.678571e-01	3.635138e+13	7.693412e+13	3.421625e+13	5.831104e+03	2.180276e+03	1.817094e+03	0	3.364703e-04
1.070000e+09	1.453428e+12	0.000000e+00	7.678571e-01	3.620793e+13	7.659093e+13	3.406534e+13	5.827594e+03	2.179359e+03	1.816329e+03	0	3.357959e-04
1.080000e+09	1.444719e+12	0.000000e+00	7.678571e-01	3.606554e+13	7.625116e+13	3.391544e+13	5.824098e+03	2.178449e+03	1.815571e+03	0	3.351238e-04
1.090000e+09	1.436076e+12	0.000000e+00	7.678571e-01	3.592418e+13	7.591473e+13	3.376656e+13	5.820616e+03	2.177546e+03	1.814818e+03	0	3.344542e-04
1.100000e+09	1.427497e+12	0.000000e+00	7.678571e-01	3.578385e+13	7.558156e+13	3.361867e+13	5.817148e+03	2.176650e+03	1.814071e+03	0	3.337868e-04
1.110000e+09	1.418982e+12	0.000000e+00	7.678571e-01	3.564454e+13	7.525158e+13	3.347178e+13	5.813693e+03	2.175759e+03	1.813329e+03	0	3.331218e-04
1.120000e+09	1.410529e+12	0.000000e+00	7.678571e-01	3.550622e+13	7.492472e+13	3.332587e+13	5.810251e+03	2.174875e+03	1.812592e+03	0	3.324590e-04
1.130000e+09	1.402139e+12	0.000000e+00	7.678571e-01	3.536888e+13	7.460091e+13	3.318094e+13	5.806823e+03	2.173997e+03	1.811860e+03	0	3.317985e-04
1.140000e+09	1.393809e+12	0.000000e+00	7.678571e-01	3.523253e+13	7.428009e+13	3.303697e+13	5.803408e+03	2.173125e+03	1.811134e+03	0	3.311402e-04
1.150000e+09	1.385541e+12	0.000000e+00	7.678571e-01	3.509713e+13	7.396220e+13	3.289397e+13	5.800007e+03	2.172259e+03	1.810412e+03	0	3.304841e-04
1.160000e+09	1.377332e+12	0.000000e+00	7.678571e-01	3.496269e+13	7.364717e+13	3.275192e+13	5.796618e+03	2.171399e+03	1.809695e+03	0	3.298301e-04
1.170000e+09	1.369182e+12	0.000000e+00	7.678571e-01	3.482919e+13	7.333495e+13	3.261081e+13	5.793242e+03	2.170544e+03	1.808982e+03	0	3.291783e-04
1.180000e+09	1.361091e+12	0.000000e+00	7.678571e-01	3.469662e+13	7.302549e+13	3.247065e+13	5.789880e+03	2.169694e+03	1.808274e+03	0	3.285286e-04
1.190000e+09	1.353057e+12	0.000000e+00	7.678571e-01	3.456496e+13	7.271872e+13	3.233142e+13	5.786530e+03	2.168850e+03	1.807570e+03	0	3.278809e-04
1.200000e+09	1.345080e+12	0.000000e+00	7.678571e-01	3.443422e+13	7.241461e+13	3.219311e+13	5.783192e+03	2.168010e+03	1.806871e+03	0	3.272353e-04
1.210000e+09	1.337160e+12	0.000000e+00	7.678571e-01	3.430437e+13	7.211309e+13	3.205572e+13	5.779867e+03	2.167176e+03	1.806175e+03	0	3.265918e-04
1.220000e+09	1.329295e+12	0.000000e+00	7.678571e-01	3.417540e+13	7.181412e+13	3.191924e+13	5.776555e+03	2.166346e+03	1.805484e+03	0	3.259502e-04
1.230000e+09	1.321485e+12	0.000000e+00	7.678571e-01	3.404732e+13	7.151766e+13	3.178366e+13	5.773255e+03	2.165522e+03	1.804797e+03	0	3.253106e-04
1.240000e+09	1.313730e+12	0.000000e+00	7.678571e-01	3.392010e+13	7.122366e+13	3.164898e+13	5.769968e+03	2.164702e+03	1.804113e+03	0	3.246730e-04
1.250000e+09	1.306028e+12	0.000000e+00	7.678571e-01	3.379374e+13	7.093207e+13	3.151518e+13	5.766693e+03	2.163887e+03	1.803434e+03	0	3.240373e-04
1.260000e+09	1.298380e+12	0.000000e+00	7.678571e-01	3.366823e+13	7.064286e+13	3.138227e+13	5.763430e+03	2.163076e+03	1.802758e+03	0	3.234035e-04
1.270000e+09	1.290784e+12	0.000000e+00	7.678571e-01	3.354356e+13	7.035598e+13	3.125024e+13	5.760179e+03	2.162269e+03	1.802086e+03	0	3.227716e-04
1.280000e+09	1.283241e+12	0.000000e+00	7.678571e-01	3.341971e+13	7.007140e+13	3.111907e+13	5.756940e+03	2.161467e+03	1.801417e+03	0	3.221416e-04
1.290000e+09	1.275749e+12	0.000000e+00	7.678571e-01	3.329669e+13	6.978908e+13	3.098877e+13	5.753713e+03	2.160669e+03	1.800752e+03	0	3.215135e-04
1.300000e+09	1.268307e+12	0.000000e+00	7.678571e-01	3.317448e+13	6.950898e+13	3.085932e+13	5.750498e+03	2.159875e+03	1.800091e+03	0	3.208871e-04
1.310000e+09	1.260917e+12	0.000000e+00	7.678571e-01	3.305308e+13	6.923107e+13	3.073072e+13	5.747295e+03	2.159086e+03	1.799433e+03	0	3.202626e-04
1.320000e+09	1.253576e+12	0.000000e+00	7.678571e-01	3.293247e+13	6.895530e+13	3.060296e+13	5.744103e+03	2.158300e+03	1.798778e+03	0	3.196399e-04
1.330000e+09	1.246284e+12	0.000000e+00	7.678571e-01	3.281265e+13	6.868166e+13	3.047604e+13	5.740924e+03	2.157518e+03	1.798126e+03	0	3.190190e-04
1.340000e+09	1.239042e+12	0.000000e+00	7.678571e-01	3.269360e+13	6.841010e+13	3.034994e+13	5.737755e+03	2.156740e+03	1.797478e+03	0	3.183998e-04
1.350000e+09	1.231847e+12	0.000000e+00	7.678571e-01	3.257533e+13	6.814060e+13	3.022467e+13	5.734598e+03	2.155966e+03	1.796833e+03	0	3.177823e-04
1.360000e+09	1.224700e+12	0.000000e+00	7.678571e-01	3.245782e+13	6.787312e+13	3.010022e+13	5.731453e+03	2.155195e+03	1.796190e+03	0	3.171666e-04
