#t		Qconv[W]	Ri[Rp]		R*[Rp]		Qc[W]		Qm[W]		Qr[W]		Tcmb[K]		Tl[K]		Tup[K]		RiFlag		Bs[T]
0.000000e+00	7.481371e+12	0.000000e+00	7.657658e-01	1.358813e+14	6.375877e+14	8.749298e+13	8.131122e+03	3.175319e+03	2.552881e+03	0	5.712915e-04
1.000000e+07	7.296457e+12	0.000000e+00	7.657658e-01	1.336136e+14	5.901118e+14	8.700821e+13	8.123032e+03	3.136752e+03	2.521874e+03	0	5.665454e-04
2.000000e+07	7.125977e+12	0.000000e+00	7.657658e-01	1.315201e+14	5.497022e+14	8.652706e+13	8.115077e+03	3.102247e+03	2.494133e+03	0	5.620981e-04
3.000000e+07	6.968081e+12	0.000000e+00	7.657658e-01	1.295786e+14	5.149631e+14	8.604950e+13	8.107246e+03	3.071195e+03	2.469167e+03	0	5.579155e-04
4.000000e+07	6.821225e+12	0.000000e+00	7.657658e-01	1.277703e+14	4.848340e+14	8.557552e+13	8.099530e+03	3.043104e+03	2.446583e+03	0	5.539682e-04
5.000000e+07	6.684107e+12	0.000000e+00	7.657658e-01	1.260797e+14	4.584964e+14	8.510506e+13	8.091922e+03	3.017574e+03	2.426058e+03	0	5.502311e-04
6.000000e+07	6.555625e+12	0.000000e+00	7.657658e-01	1.244934e+14	4.353099e+14	8.463812e+13	8.084415e+03	2.994275e+03	2.407326e+03	0	5.466828e-04
7.000000e+07	6.434838e+12	0.000000e+00	7.657658e-01	1.230001e+14	4.147665e+14	8.417465e+13	8.077002e+03	2.972931e+03	2.390166e+03	0	5.433044e-04
8.000000e+07	6.320939e+12	0.000000e+00	7.657658e-01	1.215901e+14	3.964591e+14	8.371462e+13	8.069677e+03	2.953311e+03	2.374392e+03	0	5.400797e-04
9.000000e+07	6.213233e+12	0.000000e+00	7.657658e-01	1.202549e+14	3.800579e+14	8.325802e+13	8.062437e+03	2.935220e+03	2.359847e+03	0	5.369946e-04
1.000000e+08	6.111114e+12	0.000000e+00	7.657658e-01	1.189874e+14	3.652930e+14	8.280481e+13	8.055275e+03	2.918491e+03	2.346397e+03	0	5.340364e-04
1.100000e+08	6.014058e+12	0.000000e+00	7.657658e-01	1.177811e+14	3.519418e+14	8.235496e+13	8.048189e+03	2.902979e+03	2.333926e+03	0	5.311941e-04
1.200000e+08	5.921603e+12	0.000000e+00	7.657658e-01	1.166305e+14	3.398193e+14	8.190845e+13	8.041175e+03	2.888562e+03	2.322335e+03	0	5.284580e-04
1.300000e+08	5.833343e+12	0.000000e+00	7.657658e-01	1.155307e+14	3.287703e+14	8.146524e+13	8.034229e+03	2.875131e+03	2.311537e+03	0	5.258193e-04
1.400000e+08	5.748919e+12	0.000000e+00	7.657658e-01	1.144773e+14	3.186641e+14	8.102531e+13	8.027349e+03	2.862592e+03	2.301456e+03	0	5.232703e-04
1.500000e+08	5.668015e+12	0.000000e+00	7.657658e-01	1.134666e+14	3.093896e+14	8.058864e+13	8.020531e+03	2.850862e+03	2.292025e+03	0	5.208041e-04
1.600000e+08	5.590347e+12	0.000000e+00	7.657658e-01	1.124952e+14	3.008520e+14	8.015519e+13	8.013773e+03	2.839869e+03	2.283187e+03	0	5.184143e-04
1.700000e+08	5.515663e+12	0.000000e+00	7.657658e-01	1.115599e+14	2.929700e+14	7.972493e+13	8.007073e+03	2.829548e+03	2.274889e+03	0	5.160953e-04
1.800000e+08	5.443737e+12	0.000000e+00	7.657658e-01	1.106580e+14	2.856733e+14	7.929785e+13	8.000429e+03	2.819842e+03	2.267085e+03	0	5.138422e-04
1.900000e+08	5.374365e+12	0.000000e+00	7.657658e-01	1.097872e+14	2.789012e+14	7.887392e+13	7.993838e+03	2.810698e+03	2.259735e+03	0	5.116501e-04
2.000000e+08	5.307364e+12	0.000000e+00	7.657658e-01	1.089451e+14	2.726006e+14	7.845310e+13	7.987299e+03	2.802073e+03	2.252800e+03	0	5.095150e-04
2.100000e+08	5.242568e+12	0.000000e+00	7.657658e-01	1.081298e+14	2.667253e+14	7.803538e+13	7.980811e+03	2.793924e+03	2.246249e+03	0	5.074330e-04
2.200000e+08	5.179827e+12	0.000000e+00	7.657658e-01	1.073395e+14	2.612344e+14	7.762073e+13	7.974370e+03	2.786215e+03	2.240051e+03	0	5.054006e-04
2.300000e+08	5.119006e+12	0.000000e+00	7.657658e-01	1.065725e+14	2.560922e+14	7.720912e+13	7.967977e+03	2.778912e+03	2.234179e+03	0	5.034147e-04
2.400000e+08	5.059980e+12	0.000000e+00	7.657658e-01	1.058274e+14	2.512670e+14	7.680053e+13	7.961629e+03	2.771985e+03	2.228610e+03	0	5.014723e-04
2.500000e+08	5.002635e+12	0.000000e+00	7.657658e-01	1.051027e+14	2.467307e+14	7.639493e+13	7.955326e+03	2.765406e+03	2.223321e+03	0	4.995707e-04
2.600000e+08	4.946870e+12	0.000000e+00	7.657658e-01	1.043972e+14	2.424582e+14	7.599230e+13	7.949065e+03	2.759150e+03	2.218291e+03	0	4.977075e-04
2.700000e+08	4.892588e+12	0.000000e+00	7.657658e-01	1.037098e+14	2.384273e+14	7.559261e+13	7.942847e+03	2.753196e+03	2.213504e+03	0	4.958803e-04
2.800000e+08	4.839703e+12	0.000000e+00	7.657658e-01	1.030394e+14	2.346180e+14	7.519585e+13	7.936669e+03	2.747521e+03	2.208941e+03	0	4.940872e-04
2.900000e+08	4.788135e+12	0.000000e+00	7.657658e-01	1.023850e+14	2.310123e+14	7.480197e+13	7.930532e+03	2.742107e+03	2.204589e+03	0	4.923261e-04
3.000000e+08	4.737810e+12	0.000000e+00	7.657658e-01	1.017459e+14	2.275941e+14	7.441097e+13	7.924433e+03	2.736936e+03	2.200432e+03	0	4.905952e-04
3.100000e+08	4.688662e+12	0.000000e+00	7.657658e-01	1.011210e+14	2.243488e+14	7.402282e+13	7.918372e+03	2.731993e+03	2.196457e+03	0	4.888928e-04
3.200000e+08	4.640626e+12	0.000000e+00	7.657658e-01	1.005097e+14	2.212633e+14	7.363749e+13	7.912348e+03	2.727262e+03	2.192654e+03	0	4.872175e-04
3.300000e+08	4.593645e+12	0.000000e+00	7.657658e-01	9.991136e+13	2.183258e+14	7.325497e+13	7.906361e+03	2.722731e+03	2.189011e+03	0	4.855677e-04
3.400000e+08	4.547665e+12	0.000000e+00	7.657658e-01	9.932521e+13	2.155253e+14	7.287522e+13	7.900410e+03	2.718386e+03	2.185518e+03	0	4.839422e-04
3.500000e+08	4.502636e+12	0.000000e+00	7.657658e-01	9.875068e+13	2.128520e+14	7.249822e+13	7.894493e+03	2.714216e+03	2.182165e+03	0	4.823397e-04
3.600000e+08	4.458512e+12	0.000000e+00	7.657658e-01	9.818722e+13	2.102971e+14	7.212396e+13	7.888610e+03	2.710211e+03	2.178945e+03	0	4.807589e-04
3.700000e+08	4.415251e+12	0.000000e+00	7.657658e-01	9.763431e+13	2.078522e+14	7.175241e+13	7.882761e+03	2.706360e+03	2.175849e+03	0	4.791989e-04
3.800000e+08	4.372811e+12	0.000000e+00	7.657658e-01	9.709146e+13	2.055100e+14	7.138355e+13	7.876945e+03	2.702654e+03	2.172869e+03	0	4.776586e-04
3.900000e+08	4.331155e+12	0.000000e+00	7.657658e-01	9.655822e+13	2.032636e+14	7.101736e+13	7.871161e+03	2.699085e+03	2.170000e+03	0	4.761370e-04
4.000000e+08	4.290249e+12	0.000000e+00	7.657658e-01	9.603416e+13	2.011066e+14	7.065381e+13	7.865409e+03	2.695644e+03	2.167234e+03	0	4.746333e-04
4.100000e+08	4.250060e+12	0.000000e+00	7.657658e-01	9.551889e+13	1.990334e+14	7.029288e+13	7.859688e+03	2.692325e+03	2.164565e+03	0	4.731466e-04
4.200000e+08	4.210556e+12	0.000000e+00	7.657658e-01	9.501204e+13	1.970386e+14	6.993455e+13	7.853997e+03	2.689120e+03	2.161989e+03	0	4.716761e-04
4.300000e+08	4.171711e+12	0.000000e+00	7.657658e-01	9.451327e+13	1.951173e+14	6.957881e+13	7.848337e+03	2.686024e+03	2.159499e+03	0	4.702211e-04
4.400000e+08	4.133496e+12	0.000000e+00	7.657658e-01	9.402223e+13	1.932651e+14	6.922562e+13	7.842707e+03	2.683029e+03	2.157092e+03	0	4.687809e-04
4.500000e+08	4.095887e+12	0.000000e+00	7.657658e-01	9.353865e+13	1.914776e+14	6.887497e+13	7.837105e+03	2.680131e+03	2.154762e+03	0	4.673548e-04
4.600000e+08	4.058860e+12	0.000000e+00	7.657658e-01	9.306221e+13	1.897511e+14	6.852684e+13	7.831533e+03	2.677325e+03	2.152505e+03	0	4.659422e-04
4.700000e+08	4.022392e+12	0.000000e+00	7.657658e-01	9.259267e+13	1.880821e+14	6.818120e+13	7.825988e+03	2.674604e+03	2.150318e+03	0	4.645425e-04
4.800000e+08	3.986464e+12	0.000000e+00	7.657658e-01	9.212976e+13	1.864671e+14	6.783805e+13	7.820472e+03	2.671966e+03	2.148197e+03	0	4.631553e-04
4.900000e+08	3.951054e+12	0.000000e+00	7.657658e-01	9.167324e+13	1.849031e+14	6.749734e+13	7.814983e+03	2.669405e+03	2.146138e+03	0	4.617799e-04
5.000000e+08	3.916146e+12	0.000000e+00	7.657658e-01	9.122289e+13	1.833873e+14	6.715908e+13	7.809522e+03	2.666917e+03	2.144138e+03	0	4.604159e-04
5.100000e+08	3.881720e+12	0.000000e+00	7.657658e-01	9.077849e+13	1.819170e+14	6.682323e+13	7.804087e+03	2.664499e+03	2.142194e+03	0	4.590628e-04
5.200000e+08	3.847761e+12	0.000000e+00	7.657658e-01	9.033985e+13	1.804898e+14	6.648978e+13	7.798679e+03	2.662147e+03	2.140303e+03	0	4.577202e-04
5.300000e+08	3.814252e+12	0.000000e+00	7.657658e-01	8.990678e+13	1.791032e+14	6.615870e+13	7.793296e+03	2.659858e+03	2.138463e+03	0	4.563876e-04
5.400000e+08	3.781180e+12	0.000000e+00	7.657658e-01	8.947909e+13	1.777553e+14	6.582999e+13	7.787940e+03	2.657629e+03	2.136671e+03	0	4.550647e-04
5.500000e+08	3.748530e+12	0.000000e+00	7.657658e-01	8.905662e+13	1.764439e+14	6.550361e+13	7.782609e+03	2.655457e+03	2.134924e+03	0	4.537511e-04
5.600000e+08	3.716288e+12	0.000000e+00	7.657658e-01	8.863920e+13	1.751672e+14	6.517956e+13	7.777303e+03	2.653338e+03	2.133221e+03	0	4.524464e-04
5.700000e+08	3.684443e+12	0.000000e+00	7.657658e-01	8.822668e+13	1.739235e+14	6.485780e+13	7.772022e+03	2.651271e+03	2.131559e+03	0	4.511504e-04
5.800000e+08	3.652982e+12	0.000000e+00	7.657658e-01	8.781892e+13	1.727110e+14	6.453833e+13	7.766765e+03	2.649253e+03	2.129936e+03	0	4.498626e-04
5.900000e+08	3.621894e+12	0.000000e+00	7.657658e-01	8.741578e+13	1.715284e+14	6.422112e+13	7.761533e+03	2.647281e+03	2.128351e+03	0	4.485828e-04
6.000000e+08	3.591169e+12	0.000000e+00	7.657658e-01	8.701712e+13	1.703741e+14	6.390616e+13	7.756324e+03	2.645354e+03	2.126802e+03	0	4.473107e-04
6.100000e+08	3.560795e+12	0.000000e+00	7.657658e-01	8.662283e+13	1.692467e+14	6.359342e+13	7.751140e+03	2.643469e+03	2.125286e+03	0	4.460460e-04
6.200000e+08	3.530763e+12	0.000000e+00	7.657658e-01	8.623278e+13	1.681451e+14	6.328290e+13	7.745979e+03	2.641624e+03	2.123803e+03	0	4.447885e-04
6.300000e+08	3.501065e+12	0.000000e+00	7.657658e-01	8.584687e+13	1.670680e+14	6.297457e+13	7.740841e+03	2.639818e+03	2.122351e+03	0	4.435379e-04
6.400000e+08	3.471690e+12	0.000000e+00	7.657658e-01	8.546498e+13	1.660144e+14	6.266841e+13	7.735726e+03	2.638049e+03	2.120929e+03	0	4.422940e-04
6.500000e+08	3.442632e+12	0.000000e+00	7.657658e-01	8.508701e+13	1.649830e+14	6.236441e+13	7.730634e+03	2.636315e+03	2.119534e+03	0	4.410565e-04
6.600000e+08	3.413880e+12	0.000000e+00	7.657658e-01	8.471287e+13	1.639731e+14	6.206255e+13	7.725564e+03	2.634614e+03	2.118167e+03	0	4.398252e-04
6.700000e+08	3.385429e+12	0.000000e+00	7.657658e-01	8.434245e+13	1.629835e+14	6.176281e+13	7.720516e+03	2.632946e+03	2.116826e+03	0	4.386000e-04
6.800000e+08	3.357271e+12	0.000000e+00	7.657658e-01	8.397568e+13	1.620136e+14	6.146517e+13	7.715491e+03	2.631308e+03	2.115509e+03	0	4.373806e-04
6.900000e+08	3.329398e+12	0.000000e+00	7.657658e-01	8.361247e+13	1.610623e+14	6.116963e+13	7.710487e+03	2.629700e+03	2.114216e+03	0	4.361668e-04
7.000000e+08	3.301804e+12	0.000000e+00	7.657658e-01	8.325272e+13	1.601290e+14	6.087615e+13	7.705505e+03	2.628119e+03	2.112946e+03	0	4.349585e-04
7.100000e+08	3.274483e+12	0.000000e+00	7.657658e-01	8.289638e+13	1.592129e+14	6.058473e+13	7.700545e+03	2.626566e+03	2.111697e+03	0	4.337554e-04
7.200000e+08	3.247428e+12	0.000000e+00	7.657658e-01	8.254335e+13	1.583133e+14	6.029535e+13	7.695605e+03	2.625039e+03	2.110469e+03	0	4.325575e-04
7.300000e+08	3.220634e+12	0.000000e+00	7.657658e-01	8.219358e+13	1.574295e+14	6.000799e+13	7.690687e+03	2.623536e+03	2.109260e+03	0	4.313646e-04
7.400000e+08	3.194094e+12	0.000000e+00	7.657658e-01	8.184698e+13	1.565610e+14	5.972263e+13	7.685789e+03	2.622057e+03	2.108071e+03	0	4.301764e-04
7.500000e+08	3.167804e+12	0.000000e+00	7.657658e-01	8.150350e+13	1.557070e+14	5.943927e+13	7.680912e+03	2.620601e+03	2.106901e+03	0	4.289929e-04
7.600000e+08	3.141758e+12	0.000000e+00	7.657658e-01	8.116307e+13	1.548672e+14	5.915788e+13	7.676056e+03	2.619166e+03	2.105747e+03	0	4.278139e-04
7.700000e+08	3.115952e+12	0.000000e+00	7.657658e-01	8.082562e+13	1.540409e+14	5.887845e+13	7.671219e+03	2.617753e+03	2.104611e+03	0	4.266394e-04
7.800000e+08	3.090379e+12	0.000000e+00	7.657658e-01	8.049111e+13	1.532277e+14	5.860095e+13	7.666403e+03	2.616359e+03	2.103491e+03	0	4.254690e-04
7.900000e+08	3.065037e+12	0.000000e+00	7.657658e-01	8.015948e+13	1.524270e+14	5.832539e+13	7.661607e+03	2.614986e+03	2.102386e+03	0	4.243028e-04
8.000000e+08	3.039920e+12	0.000000e+00	7.657658e-01	7.983066e+13	1.516385e+14	5.805174e+13	7.656830e+03	2.613630e+03	2.101297e+03	0	4.231406e-04
8.100000e+08	3.015024e+12	0.000000e+00	7.657658e-01	7.950461e+13	1.508616e+14	5.777998e+13	7.652073e+03	2.612293e+03	2.100221e+03	0	4.219824e-04
8.200000e+08	2.990345e+12	0.000000e+00	7.657658e-01	7.918127e+13	1.500960e+14	5.751011e+13	7.647336e+03	2.610973e+03	2.099160e+03	0	4.208278e-04
8.300000e+08	2.965879e+12	0.000000e+00	7.657658e-01	7.886061e+13	1.493414e+14	5.724210e+13	7.642618e+03	2.609669e+03	2.098112e+03	0	4.196770e-04
8.400000e+08	2.941623e+12	0.000000e+00	7.657658e-01	7.854256e+13	1.485972e+14	5.697594e+13	7.637918e+03	2.608382e+03	2.097077e+03	0	4.185298e-04
8.500000e+08	2.917571e+12	0.000000e+00	7.657658e-01	7.822709e+13	1.478633e+14	5.671162e+13	7.633238e+03	2.607110e+03	2.096054e+03	0	4.173860e-04
8.600000e+08	2.893722e+12	0.000000e+00	7.657658e-01	7.791416e+13	1.471392e+14	5.644912e+13	7.628576e+03	2.605852e+03	2.095043e+03	0	4.162456e-04
8.700000e+08	2.870071e+12	0.000000e+00	7.657658e-01	7.760371e+13	1.464246e+14	5.618842e+13	7.623934e+03	2.604609e+03	2.094044e+03	0	4.151084e-04
8.800000e+08	2.846615e+12	0.000000e+00	7.657658e-01	7.729571e+13	1.457193e+14	5.592952e+13	7.619309e+03	2.603380e+03	2.093056e+03	0	4.139745e-04
8.900000e+08	2.823351e+12	0.000000e+00	7.657658e-01	7.699012e+13	1.450230e+14	5.567240e+13	7.614703e+03	2.602164e+03	2.092078e+03	0	4.128437e-04
9.000000e+08	2.800276e+12	0.000000e+00	7.657658e-01	7.668690e+13	1.443353e+14	5.541705e+13	7.610115e+03	2.600962e+03	2.091111e+03	0	4.117159e-04
9.100000e+08	2.777386e+12	0.000000e+00	7.657658e-01	7.638602e+13	1.436560e+14	5.516344e+13	7.605545e+03	2.599771e+03	2.090154e+03	0	4.105910e-04
9.200000e+08	2.754679e+12	0.000000e+00	7.657658e-01	7.608743e+13	1.429849e+14	5.491157e+13	7.600993e+03	2.598593e+03	2.089207e+03	0	4.094690e-04
9.300000e+08	2.732153e+12	0.000000e+00	7.657658e-01	7.579111e+13	1.423218e+14	5.466142e+13	7.596459e+03	2.597426e+03	2.088269e+03	0	4.083498e-04
9.400000e+08	2.709803e+12	0.000000e+00	7.657658e-01	7.549701e+13	1.416663e+14	5.441299e+13	7.591942e+03	2.596270e+03	2.087340e+03	0	4.072333e-04
9.500000e+08	2.687628e+12	0.000000e+00	7.657658e-01	7.520511e+13	1.410184e+14	5.416625e+13	7.587443e+03	2.595126e+03	2.086419e+03	0	4.061194e-04
9.600000e+08	2.665625e+12	0.000000e+00	7.657658e-01	7.491538e+13	1.403777e+14	5.392119e+13	7.582962e+03	2.593991e+03	2.085507e+03	0	4.050081e-04
9.700000e+08	2.643791e+12	0.000000e+00	7.657658e-01	7.462778e+13	1.397442e+14	5.367780e+13	7.578497e+03	2.592868e+03	2.084604e+03	0	4.038993e-04
9.800000e+08	2.622124e+12	0.000000e+00	7.657658e-01	7.434228e+13	1.391175e+14	5.343607e+13	7.574050e+03	2.591754e+03	2.083708e+03	0	4.027929e-04
9.900000e+08	2.600622e+12	0.000000e+00	7.657658e-01	7.405885e+13	1.384976e+14	5.319598e+13	7.569620e+03	2.590649e+03	2.082820e+03	0	4.016889e-04
1.000000e+09	2.579282e+12	0.000000e+00	7.657658e-01	7.377748e+13	1.378842e+14	5.295751e+13	7.565206e+03	2.589554e+03	2.081940e+03	0	4.005871e-04
1.010000e+09	2.558103e+12	0.000000e+00	7.657658e-01	7.349812e+13	1.372772e+14	5.272067e+13	7.560809e+03	2.588468e+03	2.081067e+03	0	3.994876e-04
1.020000e+09	2.537081e+12	0.000000e+00	7.657658e-01	7.322075e+13	1.366764e+14	5.248543e+13	7.556429e+03	2.587391e+03	2.080200e+03	0	3.983903e-04
1.030000e+09	2.516215e+12	0.000000e+00	7.657658e-01	7.294534e+13	1.360817e+14	5.225179e+13	7.552066e+03	2.586322e+03	2.079341e+03	0	3.972951e-04
1.040000e+09	2.495502e+12	0.000000e+00	7.657658e-01	7.267188e+13	1.354929e+14	5.201972e+13	7.547719e+03	2.585261e+03	2.078488e+03	0	3.962020e-04
1.050000e+09	2.474942e+12	0.000000e+00	7.657658e-01	7.240033e+13	1.349099e+14	5.178922e+13	7.543388e+03	2.584209e+03	2.077642e+03	0	3.951109e-04
1.060000e+09	2.454531e+12	0.000000e+00	7.657658e-01	7.213067e+13	1.343326e+14	5.156027e+13	7.539073e+03	2.583164e+03	2.076802e+03	0	3.940217e-04
1.070000e+09	2.434267e+12	0.000000e+00	7.657658e-01	7.186287e+13	1.337608e+14	5.133287e+13	7.534774e+03	2.582127e+03	2.075969e+03	0	3.929345e-04
1.080000e+09	2.414150e+12	0.000000e+00	7.657658e-01	7.159692e+13	1.331944e+14	5.110699e+13	7.530491e+03	2.581097e+03	2.075141e+03	0	3.918490e-04
1.090000e+09	2.394177e+12	0.000000e+00	7.657658e-01	7.133279e+13	1.326332e+14	5.088264e+13	7.526224e+03	2.580075e+03	2.074319e+03	0	3.907654e-04
1.100000e+09	2.374346e+12	0.000000e+00	7.657658e-01	7.107046e+13	1.320773e+14	5.065979e+13	7.521973e+03	2.579059e+03	2.073502e+03	0	3.896835e-04
1.110000e+09	2.354655e+12	0.000000e+00	7.657658e-01	7.080991e+13	1.315264e+14	5.043844e+13	7.517738e+03	2.578050e+03	2.072691e+03	0	3.886033e-04
1.120000e+09	2.335104e+12	0.000000e+00	7.657658e-01	7.055111e+13	1.309805e+14	5.021857e+13	7.513518e+03	2.577048e+03	2.071886e+03	0	3.875247e-04
1.130000e+09	2.315689e+12	0.000000e+00	7.657658e-01	7.029405e+13	1.304394e+14	5.000017e+13	7.509313e+03	2.576053e+03	2.071085e+03	0	3.864478e-04
1.140000e+09	2.296411e+12	0.000000e+00	7.657658e-01	7.003871e+13	1.299031e+14	4.978323e+13	7.505124e+03	2.575064e+03	2.070290e+03	0	3.853723e-04
1.150000e+09	2.277266e+12	0.000000e+00	7.657658e-01	6.978506e+13	1.293714e+14	4.956774e+13	7.500949e+03	2.574081e+03	2.069500e+03	0	3.842984e-04
1.160000e+09	2.258254e+12	0.000000e+00	7.657658e-01	6.953308e+13	1.288443e+14	4.935368e+13	7.496790e+03	2.573104e+03	2.068714e+03	0	3.832260e-04
1.170000e+09	2.239372e+12	0.000000e+00	7.657658e-01	6.928277e+13	1.283217e+14	4.914105e+13	7.492646e+03	2.572133e+03	2.067934e+03	0	3.821549e-04
1.180000e+09	2.220620e+12	0.000000e+00	7.657658e-01	6.903409e+13	1.278035e+14	4.892984e+13	7.488517e+03	2.571167e+03	2.067158e+03	0	3.810852e-04
1.190000e+09	2.201996e+12	0.000000e+00	7.657658e-01	6.878704e+13	1.272896e+14	4.872003e+13	7.484403e+03	2.570208e+03	2.066386e+03	0	3.800169e-04
1.200000e+09	2.183499e+12	0.000000e+00	7.657658e-01	6.854159e+13	1.267800e+14	4.851161e+13	7.480303e+03	2.569254e+03	2.065619e+03	0	3.789498e-04
1.210000e+09	2.165127e+12	0.000000e+00	7.657658e-01	6.829773e+13	1.262745e+14	4.830458e+13	7.476218e+03	2.568305e+03	2.064856e+03	0	3.778840e-04
1.220000e+09	2.146878e+12	0.000000e+00	7.657658e-01	6.805543e+13	1.257731e+14	4.809892e+13	7.472147e+03	2.567362e+03	2.064098e+03	0	3.768193e-04
1.230000e+09	2.128752e+12	0.000000e+00	7.657658e-01	6.781469e+13	1.252757e+14	4.789462e+13	7.468091e+03	2.566423e+03	2.063343e+03	0	3.757558e-04
1.240000e+09	2.110747e+12	0.000000e+00	7.657658e-01	6.757549e+13	1.247823e+14	4.769167e+13	7.464050e+03	2.565490e+03	2.062593e+03	0	3.746934e-04
1.250000e+09	2.092862e+12	0.000000e+00	7.657658e-01	6.733780e+13	1.242928e+14	4.749005e+13	7.460022e+03	2.564562e+03	2.061847e+03	0	3.736321e-04
1.260000e+09	2.075096e+12	0.000000e+00	7.657658e-01	6.710162e+13	1.238070e+14	4.728977e+13	7.456009e+03	2.563638e+03	2.061104e+03	0	3.725719e-04
1.270000e+09	2.057446e+12	0.000000e+00	7.657658e-01	6.686693e+13	1.233251e+14	4.709081e+13	7.452009e+03	2.562720e+03	2.060366e+03	0	3.715126e-04
1.280000e+09	2.039913e+12	0.000000e+00	7.657658e-01	6.663372e+13	1.228468e+14	4.689315e+13	7.448024e+03	2.561806e+03	2.059631e+03	0	3.704543e-04
1.290000e+09	2.022495e+12	0.000000e+00	7.657658e-01	6.640196e+13	1.223722e+14	4.669680e+13	7.444052e+03	2.560896e+03	2.058900e+03	0	3.693968e-04
1.300000e+09	2.005191e+12	0.000000e+00	7.657658e-01	6.617165e+13	1.219011e+14	4.650173e+13	7.440095e+03	2.559991e+03	2.058172e+03	0	3.683403e-04
1.310000e+09	1.987999e+12	0.000000e+00	7.657658e-01	6.594277e+13	1.214336e+14	4.630795e+13	7.436151e+03	2.559091e+03	2.057448e+03	0	3.672846e-04
1.320000e+09	1.970918e+12	0.000000e+00	7.657658e-01	6.571530e+13	1.209696e+14	4.611543e+13	7.432220e+03	2.558195e+03	2.056728e+03	0	3.662297e-04
1.330000e+09	1.953948e+12	0.000000e+00	7.657658e-01	6.548924e+13	1.205090e+14	4.592417e+13	7.428304e+03	2.557303e+03	2.056011e+03	0	3.651755e-04
1.340000e+09	1.937087e+12	0.000000e+00	7.657658e-01	6.526456e+13	1.200517e+14	4.573416e+13	7.424400e+03	2.556415e+03	2.055297e+03	0	3.641221e-04
1.350000e+09	1.920334e+12	0.000000e+00	7.657658e-01	6.504126e+13	1.195978e+14	4.554539e+13	7.420510e+03	2.555532e+03	2.054587e+03	0	3.630694e-04
1.360000e+09	1.903689e+12	0.000000e+00	7.657658e-01	6.481932e+13	1.191472e+14	4.535785e+13	7.416634e+03	2.554652e+03	2.053879e+03	0	3.620173e-04
