#t		Qconv[W]	Ri[Rp]		R*[Rp]		Qc[W]		Qm[W]		Qr[W]		Tcmb[K]		Tl[K]		Tup[K]		RiFlag		Bs[T]
0.000000e+00	4.857857e+14	0.000000e+00	7.499999e-01	5.783265e+15	1.876558e+15	1.014831e+14	1.875418e+04	3.963562e+03	2.569251e+03	0	2.303337e-03
1.000000e+07	4.658020e+14	0.000000e+00	7.499999e-01	5.548354e+15	2.912473e+15	1.009208e+14	1.844146e+04	4.286967e+03	2.778888e+03	0	2.271310e-03
2.000000e+07	4.439415e+14	0.000000e+00	7.499999e-01	5.291655e+15	3.734096e+15	1.003627e+14	1.814120e+04	4.499552e+03	2.916688e+03	0	2.235207e-03
3.000000e+07	4.216839e+14	0.000000e+00	7.499999e-01	5.030416e+15	4.247313e+15	9.980876e+13	1.785458e+04	4.625275e+03	2.998184e+03	0	2.197210e-03
4.000000e+07	3.999738e+14	0.000000e+00	7.499999e-01	4.775649e+15	4.494259e+15	9.925898e+13	1.758188e+04	4.691405e+03	3.041051e+03	0	2.158836e-03
5.000000e+07	3.793015e+14	0.000000e+00	7.499999e-01	4.533065e+15	4.557226e+15	9.871330e+13	1.732277e+04	4.719788e+03	3.059449e+03	0	2.120984e-03
6.000000e+07	3.598718e+14	0.000000e+00	7.499999e-01	4.305045e+15	4.508035e+15	9.817169e+13	1.707662e+04	4.725338e+03	3.063047e+03	0	2.084132e-03
7.000000e+07	3.417326e+14	0.000000e+00	7.499999e-01	4.092141e+15	4.396325e+15	9.763411e+13	1.684267e+04	4.717471e+03	3.057948e+03	0	2.048510e-03
8.000000e+07	3.248518e+14	0.000000e+00	7.499999e-01	3.893977e+15	4.252972e+15	9.710053e+13	1.662013e+04	4.701906e+03	3.047858e+03	0	2.014208e-03
9.000000e+07	3.091605e+14	0.000000e+00	7.499999e-01	3.709744e+15	4.096149e+15	9.657092e+13	1.640821e+04	4.682060e+03	3.034993e+03	0	1.981241e-03
1.000000e+08	2.945748e+14	0.000000e+00	7.499999e-01	3.538459e+15	3.936178e+15	9.604524e+13	1.620617e+04	4.659966e+03	3.020672e+03	0	1.949580e-03
1.100000e+08	2.810078e+14	0.000000e+00	7.499999e-01	3.379104e+15	3.778735e+15	9.552346e+13	1.601335e+04	4.636831e+03	3.005675e+03	0	1.919178e-03
1.200000e+08	2.683751e+14	0.000000e+00	7.499999e-01	3.230693e+15	3.626800e+15	9.500555e+13	1.582909e+04	4.613371e+03	2.990468e+03	0	1.889978e-03
1.300000e+08	2.565975e+14	0.000000e+00	7.499999e-01	3.092298e+15	3.481808e+15	9.449147e+13	1.565282e+04	4.590009e+03	2.975324e+03	0	1.861916e-03
1.400000e+08	2.456021e+14	0.000000e+00	7.499999e-01	2.963068e+15	3.344321e+15	9.398120e+13	1.548401e+04	4.566992e+03	2.960405e+03	0	1.834932e-03
1.500000e+08	2.353226e+14	0.000000e+00	7.499999e-01	2.842224e+15	3.214408e+15	9.347470e+13	1.532216e+04	4.544462e+03	2.945800e+03	0	1.808966e-03
1.600000e+08	2.256985e+14	0.000000e+00	7.499999e-01	2.729061e+15	3.091871e+15	9.297194e+13	1.516684e+04	4.522492e+03	2.931559e+03	0	1.783961e-03
1.700000e+08	2.166755e+14	0.000000e+00	7.499999e-01	2.622942e+15	2.976377e+15	9.247289e+13	1.501763e+04	4.501119e+03	2.917704e+03	0	1.759864e-03
1.800000e+08	2.082044e+14	0.000000e+00	7.499999e-01	2.523292e+15	2.867526e+15	9.197752e+13	1.487416e+04	4.480354e+03	2.904244e+03	0	1.736624e-03
1.900000e+08	2.002408e+14	0.000000e+00	7.499999e-01	2.429591e+15	2.764899e+15	9.148580e+13	1.473607e+04	4.460194e+03	2.891176e+03	0	1.714194e-03
2.000000e+08	1.927444e+14	0.000000e+00	7.499999e-01	2.341369e+15	2.668080e+15	9.099770e+13	1.460306e+04	4.440626e+03	2.878492e+03	0	1.692531e-03
2.100000e+08	1.856792e+14	0.000000e+00	7.499999e-01	2.258200e+15	2.576668e+15	9.051319e+13	1.447483e+04	4.421634e+03	2.866181e+03	0	1.671592e-03
2.200000e+08	1.790121e+14	0.000000e+00	7.499999e-01	2.179701e+15	2.490283e+15	9.003223e+13	1.435110e+04	4.403198e+03	2.854230e+03	0	1.651341e-03
2.300000e+08	1.727133e+14	0.000000e+00	7.499999e-01	2.105521e+15	2.408573e+15	8.955481e+13	1.423162e+04	4.385295e+03	2.842626e+03	0	1.631741e-03
2.400000e+08	1.667557e+14	0.000000e+00	7.499999e-01	2.035345e+15	2.331209e+15	8.908088e+13	1.411618e+04	4.367906e+03	2.831353e+03	0	1.612759e-03
2.500000e+08	1.611148e+14	0.000000e+00	7.499999e-01	1.968883e+15	2.257888e+15	8.861043e+13	1.400454e+04	4.351007e+03	2.820399e+03	0	1.594365e-03
2.600000e+08	1.557681e+14	0.000000e+00	7.499999e-01	1.905872e+15	2.188332e+15	8.814342e+13	1.389651e+04	4.334578e+03	2.809750e+03	0	1.576529e-03
2.700000e+08	1.506950e+14	0.000000e+00	7.499999e-01	1.846073e+15	2.122284e+15	8.767982e+13	1.379191e+04	4.318600e+03	2.799392e+03	0	1.559225e-03
2.800000e+08	1.458768e+14	0.000000e+00	7.499999e-01	1.789265e+15	2.059508e+15	8.721961e+13	1.369055e+04	4.303052e+03	2.789314e+03	0	1.542427e-03
2.900000e+08	1.412964e+14	0.000000e+00	7.499999e-01	1.735249e+15	1.999787e+15	8.676276e+13	1.359229e+04	4.287916e+03	2.779503e+03	0	1.526112e-03
3.000000e+08	1.369381e+14	0.000000e+00	7.499999e-01	1.683839e+15	1.942920e+15	8.630924e+13	1.349696e+04	4.273175e+03	2.769947e+03	0	1.510256e-03
3.100000e+08	1.327875e+14	0.000000e+00	7.499999e-01	1.634868e+15	1.888726e+15	8.585902e+13	1.340444e+04	4.258812e+03	2.760637e+03	0	1.494841e-03
3.200000e+08	1.288311e+14	0.000000e+00	7.499999e-01	1.588178e+15	1.837033e+15	8.541208e+13	1.331458e+04	4.244811e+03	2.751561e+03	0	1.479845e-03
3.300000e+08	1.250570e+14	0.000000e+00	7.499999e-01	1.543628e+15	1.787686e+15	8.496838e+13	1.322727e+04	4.231158e+03	2.742711e+03	0	1.465250e-03
3.400000e+08	1.214536e+14	0.000000e+00	7.499999e-01	1.501084e+15	1.740541e+15	8.452791e+13	1.314238e+04	4.217838e+03	2.734077e+03	0	1.451040e-03
3.500000e+08	1.180108e+14	0.000000e+00	7.499999e-01	1.460426e+15	1.695464e+15	8.409064e+13	1.305981e+04	4.204838e+03	2.725650e+03	0	1.437198e-03
3.600000e+08	1.147188e+14	0.000000e+00	7.499999e-01	1.421540e+15	1.652333e+15	8.365653e+13	1.297946e+04	4.192145e+03	2.717422e+03	0	1.423707e-03
3.700000e+08	1.115687e+14	0.000000e+00	7.499999e-01	1.384322e+15	1.611032e+15	8.322557e+13	1.290124e+04	4.179747e+03	2.709385e+03	0	1.410555e-03
3.800000e+08	1.085524e+14	0.000000e+00	7.499999e-01	1.348675e+15	1.571458e+15	8.279773e+13	1.282504e+04	4.167633e+03	2.701533e+03	0	1.397727e-03
3.900000e+08	1.056621e+14	0.000000e+00	7.499999e-01	1.314510e+15	1.533510e+15	8.237298e+13	1.275079e+04	4.155792e+03	2.693857e+03	0	1.385210e-03
4.000000e+08	1.028908e+14	0.000000e+00	7.499999e-01	1.281744e+15	1.497098e+15	8.195130e+13	1.267841e+04	4.144214e+03	2.686352e+03	0	1.372992e-03
4.100000e+08	1.002318e+14	0.000000e+00	7.499999e-01	1.250298e+15	1.462137e+15	8.153266e+13	1.260782e+04	4.132889e+03	2.679011e+03	0	1.361061e-03
4.200000e+08	9.767899e+13	0.000000e+00	7.499999e-01	1.220100e+15	1.428548e+15	8.111704e+13	1.253895e+04	4.121807e+03	2.671828e+03	0	1.349407e-03
4.300000e+08	9.522665e+13	0.000000e+00	7.499999e-01	1.191085e+15	1.396258e+15	8.070441e+13	1.247172e+04	4.110961e+03	2.664797e+03	0	1.338018e-03
4.400000e+08	9.286944e+13	0.000000e+00	7.499999e-01	1.163188e+15	1.365197e+15	8.029475e+13	1.240609e+04	4.100342e+03	2.657914e+03	0	1.326886e-03
4.500000e+08	9.060235e+13	0.000000e+00	7.499999e-01	1.136351e+15	1.335302e+15	7.988803e+13	1.234198e+04	4.089941e+03	2.651172e+03	0	1.315999e-03
4.600000e+08	8.842074e+13	0.000000e+00	7.499999e-01	1.110520e+15	1.306512e+15	7.948423e+13	1.227934e+04	4.079752e+03	2.644567e+03	0	1.305351e-03
4.700000e+08	8.632023e+13	0.000000e+00	7.499999e-01	1.085643e+15	1.278772e+15	7.908333e+13	1.221811e+04	4.069767e+03	2.638094e+03	0	1.294931e-03
4.800000e+08	8.429674e+13	0.000000e+00	7.499999e-01	1.061672e+15	1.252029e+15	7.868530e+13	1.215825e+04	4.059979e+03	2.631750e+03	0	1.284733e-03
4.900000e+08	8.234645e+13	0.000000e+00	7.499999e-01	1.038564e+15	1.226234e+15	7.829012e+13	1.209970e+04	4.050382e+03	2.625529e+03	0	1.274748e-03
5.000000e+08	8.046577e+13	0.000000e+00	7.499999e-01	1.016274e+15	1.201340e+15	7.789777e+13	1.204241e+04	4.040969e+03	2.619427e+03	0	1.264968e-03
5.100000e+08	7.865133e+13	0.000000e+00	7.499999e-01	9.947645e+14	1.177304e+15	7.750822e+13	1.198634e+04	4.031735e+03	2.613441e+03	0	1.255388e-03
5.200000e+08	7.689996e+13	0.000000e+00	7.499999e-01	9.739976e+14	1.154086e+15	7.712145e+13	1.193146e+04	4.022673e+03	2.607567e+03	0	1.246000e-03
5.300000e+08	7.520869e+13	0.000000e+00	7.499999e-01	9.539385e+14	1.131647e+15	7.673744e+13	1.187771e+04	4.013779e+03	2.601802e+03	0	1.236797e-03
5.400000e+08	7.357472e+13	0.000000e+00	7.499999e-01	9.345542e+14	1.109951e+15	7.635616e+13	1.182506e+04	4.005046e+03	2.596141e+03	0	1.227775e-03
5.500000e+08	7.199541e+13	0.000000e+00	7.499999e-01	9.158138e+14	1.088964e+15	7.597759e+13	1.177348e+04	3.996471e+03	2.590583e+03	0	1.218926e-03
5.600000e+08	7.046828e+13	0.000000e+00	7.499999e-01	8.976882e+14	1.068655e+15	7.560172e+13	1.172292e+04	3.988048e+03	2.585123e+03	0	1.210246e-03
5.700000e+08	6.899099e+13	0.000000e+00	7.499999e-01	8.801499e+14	1.048992e+15	7.522852e+13	1.167336e+04	3.979773e+03	2.579759e+03	0	1.201729e-03
5.800000e+08	6.756132e+13	0.000000e+00	7.499999e-01	8.631727e+14	1.029948e+15	7.485796e+13	1.162475e+04	3.971641e+03	2.574488e+03	0	1.193370e-03
5.900000e+08	6.617719e+13	0.000000e+00	7.499999e-01	8.467323e+14	1.011496e+15	7.449003e+13	1.157709e+04	3.963649e+03	2.569307e+03	0	1.185165e-03
6.000000e+08	6.483662e+13	0.000000e+00	7.499999e-01	8.308054e+14	9.936094e+14	7.412471e+13	1.153032e+04	3.955791e+03	2.564213e+03	0	1.177107e-03
6.100000e+08	6.353774e+13	0.000000e+00	7.499999e-01	8.153701e+14	9.762652e+14	7.376197e+13	1.148443e+04	3.948065e+03	2.559205e+03	0	1.169194e-03
6.200000e+08	6.227880e+13	0.000000e+00	7.499999e-01	8.004057e+14	9.594404e+14	7.340179e+13	1.143938e+04	3.940466e+03	2.554279e+03	0	1.161420e-03
6.300000e+08	6.105812e+13	0.000000e+00	7.499999e-01	7.858924e+14	9.431133e+14	7.304416e+13	1.139516e+04	3.932991e+03	2.549434e+03	0	1.153782e-03
6.400000e+08	5.987411e+13	0.000000e+00	7.499999e-01	7.718118e+14	9.272636e+14	7.268904e+13	1.135174e+04	3.925636e+03	2.544666e+03	0	1.146275e-03
6.500000e+08	5.872528e+13	0.000000e+00	7.499999e-01	7.581461e+14	9.118719e+14	7.233643e+13	1.130908e+04	3.918399e+03	2.539975e+03	0	1.138897e-03
6.600000e+08	5.761020e+13	0.000000e+00	7.499999e-01	7.448785e+14	8.969198e+14	7.198630e+13	1.126718e+04	3.911275e+03	2.535357e+03	0	1.131642e-03
6.700000e+08	5.652751e+13	0.000000e+00	7.499999e-01	7.319933e+14	8.823899e+14	7.163864e+13	1.122601e+04	3.904263e+03	2.530812e+03	0	1.124508e-03
6.800000e+08	5.547594e+13	0.000000e+00	7.499999e-01	7.194752e+14	8.682656e+14	7.129341e+13	1.118555e+04	3.897358e+03	2.526336e+03	0	1.117491e-03
6.900000e+08	5.445426e+13	0.000000e+00	7.499999e-01	7.073100e+14	8.545311e+14	7.095061e+13	1.114577e+04	3.890559e+03	2.521929e+03	0	1.110589e-03
7.000000e+08	5.346132e+13	0.000000e+00	7.499999e-01	6.954840e+14	8.411715e+14	7.061020e+13	1.110667e+04	3.883862e+03	2.517587e+03	0	1.103797e-03
7.100000e+08	5.249601e+13	0.000000e+00	7.499999e-01	6.839843e+14	8.281726e+14	7.027219e+13	1.106821e+04	3.877264e+03	2.513311e+03	0	1.097113e-03
7.200000e+08	5.155728e+13	0.000000e+00	7.499999e-01	6.727984e+14	8.155207e+14	6.993653e+13	1.103039e+04	3.870764e+03	2.509097e+03	0	1.090534e-03
7.300000e+08	5.064414e+13	0.000000e+00	7.499999e-01	6.619147e+14	8.032030e+14	6.960322e+13	1.099318e+04	3.864359e+03	2.504945e+03	0	1.084057e-03
7.400000e+08	4.975562e+13	0.000000e+00	7.499999e-01	6.513218e+14	7.912071e+14	6.927224e+13	1.095657e+04	3.858046e+03	2.500853e+03	0	1.077680e-03
7.500000e+08	4.889082e+13	0.000000e+00	7.499999e-01	6.410092e+14	7.795214e+14	6.894357e+13	1.092055e+04	3.851823e+03	2.496819e+03	0	1.071400e-03
7.600000e+08	4.804889e+13	0.000000e+00	7.499999e-01	6.309667e+14	7.681346e+14	6.861718e+13	1.088509e+04	3.845688e+03	2.492842e+03	0	1.065214e-03
7.700000e+08	4.722898e+13	0.000000e+00	7.499999e-01	6.211845e+14	7.570361e+14	6.829307e+13	1.085018e+04	3.839638e+03	2.488921e+03	0	1.059121e-03
7.800000e+08	4.643031e+13	0.000000e+00	7.499999e-01	6.116533e+14	7.462156e+14	6.797121e+13	1.081581e+04	3.833673e+03	2.485054e+03	0	1.053117e-03
7.900000e+08	4.565214e+13	0.000000e+00	7.499999e-01	6.023644e+14	7.356634e+14	6.765158e+13	1.078197e+04	3.827789e+03	2.481240e+03	0	1.047200e-03
8.000000e+08	4.489373e+13	0.000000e+00	7.499999e-01	5.933091e+14	7.253703e+14	6.733417e+13	1.074864e+04	3.821984e+03	2.477477e+03	0	1.041369e-03
8.100000e+08	4.415441e+13	0.000000e+00	7.499999e-01	5.844795e+14	7.153273e+14	6.701896e+13	1.071581e+04	3.816258e+03	2.473765e+03	0	1.035620e-03
8.200000e+08	4.343352e+13	0.000000e+00	7.499999e-01	5.758678e+14	7.055259e+14	6.670593e+13	1.068346e+04	3.810608e+03	2.470103e+03	0	1.029953e-03
8.300000e+08	4.273042e+13	0.000000e+00	7.499999e-01	5.674666e+14	6.959580e+14	6.639507e+13	1.065159e+04	3.805032e+03	2.466488e+03	0	1.024366e-03
8.400000e+08	4.204452e+13	0.000000e+00	7.499999e-01	5.592688e+14	6.866158e+14	6.608635e+13	1.062018e+04	3.799528e+03	2.462921e+03	0	1.018855e-03
8.500000e+08	4.137524e+13	0.000000e+00	7.499999e-01	5.512677e+14	6.774919e+14	6.577976e+13	1.058922e+04	3.794096e+03	2.459400e+03	0	1.013420e-03
8.600000e+08	4.072203e+13	0.000000e+00	7.499999e-01	5.434566e+14	6.685790e+14	6.547529e+13	1.055871e+04	3.788733e+03	2.455923e+03	0	1.008058e-03
8.700000e+08	4.008436e+13	0.000000e+00	7.499999e-01	5.358295e+14	6.598704e+14	6.517291e+13	1.052862e+04	3.783438e+03	2.452491e+03	0	1.002769e-03
8.800000e+08	3.946173e+13	0.000000e+00	7.499999e-01	5.283803e+14	6.513594e+14	6.487261e+13	1.049895e+04	3.778210e+03	2.449102e+03	0	9.975498e-04
8.900000e+08	3.885364e+13	0.000000e+00	7.499999e-01	5.211033e+14	6.430398e+14	6.457438e+13	1.046970e+04	3.773046e+03	2.445755e+03	0	9.923993e-04
9.000000e+08	3.825963e+13	0.000000e+00	7.499999e-01	5.139930e+14	6.349056e+14	6.427819e+13	1.044084e+04	3.767946e+03	2.442449e+03	0	9.873160e-04
9.100000e+08	3.767926e+13	0.000000e+00	7.499999e-01	5.070442e+14	6.269508e+14	6.398403e+13	1.041238e+04	3.762908e+03	2.439183e+03	0	9.822982e-04
9.200000e+08	3.711210e+13	0.000000e+00	7.499999e-01	5.002517e+14	6.191701e+14	6.369189e+13	1.038430e+04	3.757931e+03	2.435957e+03	0	9.773446e-04
9.300000e+08	3.655773e+13	0.000000e+00	7.499999e-01	4.936108e+14	6.115579e+14	6.340175e+13	1.035660e+04	3.753013e+03	2.432769e+03	0	9.724537e-04
9.400000e+08	3.601575e+13	0.000000e+00	7.499999e-01	4.871168e+14	6.041093e+14	6.311359e+13	1.032926e+04	3.748154e+03	2.429619e+03	0	9.676242e-04
9.500000e+08	3.548580e+13	0.000000e+00	7.499999e-01	4.807651e+14	5.968192e+14	6.282739e+13	1.030228e+04	3.743352e+03	2.426507e+03	0	9.628547e-04
9.600000e+08	3.496750e+13	0.000000e+00	7.499999e-01	4.745515e+14	5.896828e+14	6.254315e+13	1.027565e+04	3.738606e+03	2.423430e+03	0	9.581439e-04
9.700000e+08	3.446050e+13	0.000000e+00	7.499999e-01	4.684719e+14	5.826957e+14	6.226084e+13	1.024936e+04	3.733915e+03	2.420389e+03	0	9.534906e-04
9.800000e+08	3.396446e+13	0.000000e+00	7.499999e-01	4.625221e+14	5.758535e+14	6.198045e+13	1.022341e+04	3.729278e+03	2.417383e+03	0	9.488935e-04
9.900000e+08	3.347906e+13	0.000000e+00	7.499999e-01	4.566985e+14	5.691518e+14	6.170197e+13	1.019779e+04	3.724693e+03	2.414411e+03	0	9.443514e-04
1.000000e+09	3.300398e+13	0.000000e+00	7.499999e-01	4.509973e+14	5.625867e+14	6.142538e+13	1.017248e+04	3.720160e+03	2.411473e+03	0	9.398632e-04
1.010000e+09	3.253892e+13	0.000000e+00	7.499999e-01	4.454149e+14	5.561542e+14	6.115067e+13	1.014750e+04	3.715677e+03	2.408567e+03	0	9.354278e-04
1.020000e+09	3.208360e+13	0.000000e+00	7.499999e-01	4.399479e+14	5.498505e+14	6.087782e+13	1.012282e+04	3.711244e+03	2.405694e+03	0	9.310441e-04
1.030000e+09	3.163773e+13	0.000000e+00	7.499999e-01	4.345931e+14	5.436720e+14	6.060681e+13	1.009844e+04	3.706860e+03	2.402852e+03	0	9.267110e-04
1.040000e+09	3.120104e+13	0.000000e+00	7.499999e-01	4.293472e+14	5.376152e+14	6.033763e+13	1.007436e+04	3.702523e+03	2.400041e+03	0	9.224276e-04
1.050000e+09	3.077328e+13	0.000000e+00	7.499999e-01	4.242072e+14	5.316767e+14	6.007028e+13	1.005056e+04	3.698234e+03	2.397260e+03	0	9.181927e-04
1.060000e+09	3.035419e+13	0.000000e+00	7.499999e-01	4.191701e+14	5.258532e+14	5.980472e+13	1.002705e+04	3.693990e+03	2.394509e+03	0	9.140054e-04
1.070000e+09	2.994353e+13	0.000000e+00	7.499999e-01	4.142330e+14	5.201416e+14	5.954096e+13	1.000382e+04	3.689791e+03	2.391787e+03	0	9.098649e-04
1.080000e+09	2.954107e+13	0.000000e+00	7.499999e-01	4.093933e+14	5.145389e+14	5.927897e+13	9.980865e+03	3.685636e+03	2.389094e+03	0	9.057701e-04
1.090000e+09	2.914658e+13	0.000000e+00	7.499999e-01	4.046482e+14	5.090421e+14	5.901874e+13	9.958174e+03	3.681525e+03	2.386429e+03	0	9.017201e-04
1.100000e+09	2.875985e+13	0.000000e+00	7.499999e-01	3.999952e+14	5.036485e+14	5.876026e+13	9.935745e+03	3.677457e+03	2.383792e+03	0	8.977142e-04
1.110000e+09	2.838066e+13	0.000000e+00	7.499999e-01	3.954318e+14	4.983551e+14	5.850351e+13	9.913573e+03	3.673430e+03	2.381182e+03	0	8.937514e-04
1.120000e+09	2.800882e+13	0.000000e+00	7.499999e-01	3.909557e+14	4.931595e+14	5.824848e+13	9.891652e+03	3.669444e+03	2.378598e+03	0	8.898309e-04
1.130000e+09	2.764413e+13	0.000000e+00	7.499999e-01	3.865645e+14	4.880591e+14	5.799516e+13	9.869979e+03	3.665499e+03	2.376041e+03	0	8.859520e-04
1.140000e+09	2.728639e+13	0.000000e+00	7.499999e-01	3.822559e+14	4.830513e+14	5.774353e+13	9.848549e+03	3.661593e+03	2.373509e+03	0	8.821138e-04
1.150000e+09	2.693543e+13	0.000000e+00	7.499999e-01	3.780279e+14	4.781339e+14	5.749358e+13	9.827356e+03	3.657726e+03	2.371002e+03	0	8.783155e-04
1.160000e+09	2.659108e+13	0.000000e+00	7.499999e-01	3.738783e+14	4.733045e+14	5.724530e+13	9.806397e+03	3.653897e+03	2.368521e+03	0	8.745565e-04
1.170000e+09	2.625315e+13	0.000000e+00	7.499999e-01	3.698051e+14	4.685609e+14	5.699867e+13	9.785668e+03	3.650106e+03	2.366063e+03	0	8.708360e-04
1.180000e+09	2.592148e+13	0.000000e+00	7.499999e-01	3.658064e+14	4.639008e+14	5.675369e+13	9.765163e+03	3.646352e+03	2.363630e+03	0	8.671532e-04
1.190000e+09	2.559593e+13	0.000000e+00	7.499999e-01	3.618802e+14	4.593224e+14	5.651033e+13	9.744879e+03	3.642634e+03	2.361220e+03	0	8.635076e-04
1.200000e+09	2.527632e+13	0.000000e+00	7.499999e-01	3.580249e+14	4.548234e+14	5.626859e+13	9.724812e+03	3.638952e+03	2.358833e+03	0	8.598984e-04
1.210000e+09	2.496251e+13	0.000000e+00	7.499999e-01	3.542384e+14	4.504020e+14	5.602845e+13	9.704959e+03	3.635305e+03	2.356469e+03	0	8.563250e-04
1.220000e+09	2.465435e+13	0.000000e+00	7.499999e-01	3.505193e+14	4.460562e+14	5.578990e+13	9.685314e+03	3.631692e+03	2.354127e+03	0	8.527867e-04
1.230000e+09	2.435172e+13	0.000000e+00	7.499999e-01	3.468658e+14	4.417843e+14	5.555293e+13	9.665875e+03	3.628114e+03	2.351807e+03	0	8.492830e-04
1.240000e+09	2.405446e+13	0.000000e+00	7.499999e-01	3.432763e+14	4.375844e+14	5.531753e+13	9.646638e+03	3.624568e+03	2.349509e+03	0	8.458131e-04
1.250000e+09	2.376244e+13	0.000000e+00	7.499999e-01	3.397492e+14	4.334549e+14	5.508368e+13	9.627599e+03	3.621056e+03	2.347232e+03	0	8.423765e-04
1.260000e+09	2.347555e+13	0.000000e+00	7.499999e-01	3.362830e+14	4.293940e+14	5.485137e+13	9.608756e+03	3.617575e+03	2.344976e+03	0	8.389727e-04
1.270000e+09	2.319366e+13	0.000000e+00	7.499999e-01	3.328764e+14	4.254001e+14	5.462060e+13	9.590103e+03	3.614126e+03	2.342740e+03	0	8.356011e-04
1.280000e+09	2.291664e+13	0.000000e+00	7.499999e-01	3.295278e+14	4.214717e+14	5.439134e+13	9.571640e+03	3.610709e+03	2.340525e+03	0	8.322610e-04
1.290000e+09	2.264438e+13	0.000000e+00	7.499999e-01	3.262358e+14	4.176072e+14	5.416358e+13	9.553361e+03	3.607322e+03	2.338330e+03	0	8.289520e-04
1.300000e+09	2.237677e+13	0.000000e+00	7.499999e-01	3.229993e+14	4.138052e+14	5.393733e+13	9.535264e+03	3.603965e+03	2.336154e+03	0	8.256736e-04
1.310000e+09	2.211370e+13	0.000000e+00	7.499999e-01	3.198167e+14	4.100642e+14	5.371255e+13	9.517347e+03	3.600639e+03	2.333997e+03	0	8.224251e-04
1.320000e+09	2.185506e+13	0.000000e+00	7.499999e-01	3.166870e+14	4.063828e+14	5.348925e+13	9.499605e+03	3.597341e+03	2.331860e+03	0	8.192062e-04
1.330000e+09	2.160075e+13	0.000000e+00	7.499999e-01	3.136089e+14	4.027597e+14	5.326741e+13	9.482036e+03	3.594072e+03	2.329741e+03	0	8.160163e-04
1.340000e+09	2.135067e+13	0.000000e+00	7.499999e-01	3.105811e+14	3.991936e+14	5.304702e+13	9.464638e+03	3.590832e+03	2.327640e+03	0	8.128550e-04
1.350000e+09	2.110473e+13	0.000000e+00	7.499999e-01	3.076027e+14	3.956832e+14	5.282806e+13	9.447407e+03	3.587619e+03	2.325558e+03	0	8.097218e-04
1.360000e+09	2.086282e+13	0.000000e+00	7.499999e-01	3.046723e+14	3.922272e+14	5.261054e+13	9.430341e+03	3.584435e+03	2.323493e+03	0	8.066161e-04
