#t		Qconv[W]	Ri[Rp]		R*[Rp]		Qc[W]		Qm[W]		Qr[W]		Tcmb[K]		Tl[K]		Tup[K]		RiFlag		Bs[T]
0.000000e+00	5.019487e+14	0.000000e+00	7.657657e-01	5.651919e+15	1.804543e+15	1.009127e+14	1.892341e+04	3.968895e+03	2.592677e+03	0	2.294427e-03
1.000000e+07	4.855163e+14	0.000000e+00	7.657657e-01	5.469614e+15	2.805259e+15	1.003536e+14	1.865324e+04	4.288668e+03	2.801569e+03	0	2.269111e-03
2.000000e+07	4.666442e+14	0.000000e+00	7.657657e-01	5.260621e+15	3.628646e+15	9.979863e+13	1.839163e+04	4.504292e+03	2.942424e+03	0	2.239322e-03
3.000000e+07	4.467831e+14	0.000000e+00	7.657657e-01	5.040859e+15	4.171280e+15	9.924783e+13	1.813987e+04	4.636027e+03	3.028480e+03	0	2.207090e-03
4.000000e+07	4.269393e+14	0.000000e+00	7.657657e-01	4.821367e+15	4.458463e+15	9.870114e+13	1.789846e+04	4.708716e+03	3.075965e+03	0	2.173918e-03
5.000000e+07	4.076916e+14	0.000000e+00	7.657657e-01	4.608493e+15	4.561500e+15	9.815853e+13	1.766742e+04	4.743144e+03	3.098455e+03	0	2.140746e-03
6.000000e+07	3.893279e+14	0.000000e+00	7.657657e-01	4.405392e+15	4.547679e+15	9.761996e+13	1.744645e+04	4.753953e+03	3.105515e+03	0	2.108109e-03
7.000000e+07	3.719654e+14	0.000000e+00	7.657657e-01	4.213344e+15	4.465676e+15	9.708541e+13	1.723508e+04	4.750600e+03	3.103325e+03	0	2.076293e-03
8.000000e+07	3.556271e+14	0.000000e+00	7.657657e-01	4.032600e+15	4.346823e+15	9.655483e+13	1.703281e+04	4.738936e+03	3.095706e+03	0	2.045437e-03
9.000000e+07	3.402878e+14	0.000000e+00	7.657657e-01	3.862877e+15	4.210110e+15	9.602819e+13	1.683911e+04	4.722509e+03	3.084974e+03	0	2.015595e-03
1.000000e+08	3.258985e+14	0.000000e+00	7.657657e-01	3.703635e+15	4.066658e+15	9.550546e+13	1.665346e+04	4.703451e+03	3.072525e+03	0	1.986775e-03
1.100000e+08	3.124001e+14	0.000000e+00	7.657657e-01	3.554222e+15	3.922808e+15	9.498662e+13	1.647537e+04	4.683047e+03	3.059196e+03	0	1.958957e-03
1.200000e+08	2.997312e+14	0.000000e+00	7.657657e-01	3.413960e+15	3.782066e+15	9.447162e+13	1.630439e+04	4.662067e+03	3.045491e+03	0	1.932110e-03
1.300000e+08	2.878311e+14	0.000000e+00	7.657657e-01	3.282181e+15	3.646283e+15	9.396043e+13	1.614007e+04	4.640974e+03	3.031712e+03	0	1.906194e-03
1.400000e+08	2.766425e+14	0.000000e+00	7.657657e-01	3.158253e+15	3.516345e+15	9.345302e+13	1.598203e+04	4.620042e+03	3.018038e+03	0	1.881168e-03
1.500000e+08	2.661116e+14	0.000000e+00	7.657657e-01	3.041585e+15	3.392583e+15	9.294937e+13	1.582988e+04	4.599436e+03	3.004577e+03	0	1.856988e-03
1.600000e+08	2.561891e+14	0.000000e+00	7.657657e-01	2.931630e+15	3.275011e+15	9.244944e+13	1.568330e+04	4.579248e+03	2.991389e+03	0	1.833615e-03
1.700000e+08	2.468293e+14	0.000000e+00	7.657657e-01	2.827887e+15	3.163467e+15	9.195319e+13	1.554196e+04	4.559527e+03	2.978507e+03	0	1.811007e-03
1.800000e+08	2.379906e+14	0.000000e+00	7.657657e-01	2.729898e+15	3.057697e+15	9.146061e+13	1.540557e+04	4.540296e+03	2.965944e+03	0	1.789127e-03
1.900000e+08	2.296349e+14	0.000000e+00	7.657657e-01	2.637242e+15	2.957404e+15	9.097165e+13	1.527386e+04	4.521563e+03	2.953707e+03	0	1.767938e-03
2.000000e+08	2.217275e+14	0.000000e+00	7.657657e-01	2.549536e+15	2.862273e+15	9.048629e+13	1.514657e+04	4.503323e+03	2.941792e+03	0	1.747408e-03
2.100000e+08	2.142365e+14	0.000000e+00	7.657657e-01	2.466429e+15	2.771993e+15	9.000450e+13	1.502347e+04	4.485568e+03	2.930193e+03	0	1.727504e-03
2.200000e+08	2.071329e+14	0.000000e+00	7.657657e-01	2.387602e+15	2.686259e+15	8.952625e+13	1.490435e+04	4.468284e+03	2.918903e+03	0	1.708195e-03
2.300000e+08	2.003901e+14	0.000000e+00	7.657657e-01	2.312760e+15	2.604785e+15	8.905150e+13	1.478900e+04	4.451457e+03	2.907910e+03	0	1.689455e-03
2.400000e+08	1.939837e+14	0.000000e+00	7.657657e-01	2.241636e+15	2.527297e+15	8.858024e+13	1.467723e+04	4.435070e+03	2.897205e+03	0	1.671256e-03
2.500000e+08	1.878914e+14	0.000000e+00	7.657657e-01	2.173982e+15	2.453543e+15	8.811243e+13	1.456887e+04	4.419107e+03	2.886777e+03	0	1.653573e-03
2.600000e+08	1.820925e+14	0.000000e+00	7.657657e-01	2.109572e+15	2.383287e+15	8.764805e+13	1.446374e+04	4.403552e+03	2.876616e+03	0	1.636384e-03
2.700000e+08	1.765683e+14	0.000000e+00	7.657657e-01	2.048197e+15	2.316308e+15	8.718706e+13	1.436171e+04	4.388389e+03	2.866711e+03	0	1.619666e-03
2.800000e+08	1.713014e+14	0.000000e+00	7.657657e-01	1.989667e+15	2.252404e+15	8.672943e+13	1.426262e+04	4.373602e+03	2.857052e+03	0	1.603399e-03
2.900000e+08	1.662756e+14	0.000000e+00	7.657657e-01	1.933803e+15	2.191387e+15	8.627515e+13	1.416633e+04	4.359178e+03	2.847629e+03	0	1.587562e-03
3.000000e+08	1.614763e+14	0.000000e+00	7.657657e-01	1.880444e+15	2.133080e+15	8.582417e+13	1.407272e+04	4.345101e+03	2.838433e+03	0	1.572139e-03
3.100000e+08	1.568898e+14	0.000000e+00	7.657657e-01	1.829437e+15	2.077323e+15	8.537649e+13	1.398168e+04	4.331358e+03	2.829456e+03	0	1.557110e-03
3.200000e+08	1.525033e+14	0.000000e+00	7.657657e-01	1.780645e+15	2.023965e+15	8.493206e+13	1.389309e+04	4.317937e+03	2.820688e+03	0	1.542461e-03
3.300000e+08	1.483053e+14	0.000000e+00	7.657657e-01	1.733936e+15	1.972866e+15	8.449086e+13	1.380684e+04	4.304825e+03	2.812123e+03	0	1.528176e-03
3.400000e+08	1.442848e+14	0.000000e+00	7.657657e-01	1.689192e+15	1.923898e+15	8.405286e+13	1.372283e+04	4.292011e+03	2.803752e+03	0	1.514240e-03
3.500000e+08	1.404317e+14	0.000000e+00	7.657657e-01	1.646300e+15	1.876940e+15	8.361805e+13	1.364097e+04	4.279482e+03	2.795568e+03	0	1.500639e-03
3.600000e+08	1.367367e+14	0.000000e+00	7.657657e-01	1.605159e+15	1.831880e+15	8.318638e+13	1.356118e+04	4.267230e+03	2.787564e+03	0	1.487360e-03
3.700000e+08	1.331910e+14	0.000000e+00	7.657657e-01	1.565670e+15	1.788613e+15	8.275784e+13	1.348337e+04	4.255243e+03	2.779734e+03	0	1.474392e-03
3.800000e+08	1.297866e+14	0.000000e+00	7.657657e-01	1.527745e+15	1.747044e+15	8.233241e+13	1.340745e+04	4.243513e+03	2.772071e+03	0	1.461721e-03
3.900000e+08	1.265158e+14	0.000000e+00	7.657657e-01	1.491299e+15	1.707081e+15	8.191004e+13	1.333336e+04	4.232029e+03	2.764569e+03	0	1.449337e-03
4.000000e+08	1.233716e+14	0.000000e+00	7.657657e-01	1.456255e+15	1.668639e+15	8.149073e+13	1.326103e+04	4.220784e+03	2.757223e+03	0	1.437230e-03
4.100000e+08	1.203473e+14	0.000000e+00	7.657657e-01	1.422541e+15	1.631641e+15	8.107444e+13	1.319038e+04	4.209770e+03	2.750028e+03	0	1.425389e-03
4.200000e+08	1.174369e+14	0.000000e+00	7.657657e-01	1.390086e+15	1.596011e+15	8.066116e+13	1.312136e+04	4.198977e+03	2.742978e+03	0	1.413805e-03
4.300000e+08	1.146345e+14	0.000000e+00	7.657657e-01	1.358829e+15	1.561681e+15	8.025085e+13	1.305390e+04	4.188399e+03	2.736068e+03	0	1.402468e-03
4.400000e+08	1.119346e+14	0.000000e+00	7.657657e-01	1.328708e+15	1.528585e+15	7.984349e+13	1.298794e+04	4.178029e+03	2.729294e+03	0	1.391370e-03
4.500000e+08	1.093324e+14	0.000000e+00	7.657657e-01	1.299668e+15	1.496664e+15	7.943906e+13	1.292344e+04	4.167860e+03	2.722651e+03	0	1.380503e-03
4.600000e+08	1.068228e+14	0.000000e+00	7.657657e-01	1.271657e+15	1.465860e+15	7.903753e+13	1.286034e+04	4.157885e+03	2.716135e+03	0	1.369859e-03
4.700000e+08	1.044016e+14	0.000000e+00	7.657657e-01	1.244624e+15	1.436120e+15	7.863888e+13	1.279859e+04	4.148099e+03	2.709742e+03	0	1.359430e-03
4.800000e+08	1.020645e+14	0.000000e+00	7.657657e-01	1.218524e+15	1.407393e+15	7.824309e+13	1.273814e+04	4.138494e+03	2.703467e+03	0	1.349210e-03
4.900000e+08	9.980755e+13	0.000000e+00	7.657657e-01	1.193313e+15	1.379632e+15	7.785013e+13	1.267896e+04	4.129066e+03	2.697308e+03	0	1.339190e-03
5.000000e+08	9.762701e+13	0.000000e+00	7.657657e-01	1.168949e+15	1.352793e+15	7.745998e+13	1.262099e+04	4.119809e+03	2.691261e+03	0	1.329366e-03
5.100000e+08	9.551940e+13	0.000000e+00	7.657657e-01	1.145394e+15	1.326832e+15	7.707262e+13	1.256419e+04	4.110717e+03	2.685322e+03	0	1.319730e-03
5.200000e+08	9.348140e+13	0.000000e+00	7.657657e-01	1.122611e+15	1.301712e+15	7.668802e+13	1.250854e+04	4.101787e+03	2.679488e+03	0	1.310276e-03
5.300000e+08	9.150991e+13	0.000000e+00	7.657657e-01	1.100566e+15	1.277394e+15	7.630617e+13	1.245398e+04	4.093012e+03	2.673756e+03	0	1.301000e-03
5.400000e+08	8.960198e+13	0.000000e+00	7.657657e-01	1.079226e+15	1.253843e+15	7.592703e+13	1.240049e+04	4.084388e+03	2.668123e+03	0	1.291895e-03
5.500000e+08	8.775483e+13	0.000000e+00	7.657657e-01	1.058562e+15	1.231026e+15	7.555060e+13	1.234803e+04	4.075912e+03	2.662586e+03	0	1.282955e-03
5.600000e+08	8.596583e+13	0.000000e+00	7.657657e-01	1.038542e+15	1.208912e+15	7.517684e+13	1.229656e+04	4.067578e+03	2.657142e+03	0	1.274177e-03
5.700000e+08	8.423251e+13	0.000000e+00	7.657657e-01	1.019141e+15	1.187470e+15	7.480573e+13	1.224607e+04	4.059383e+03	2.651788e+03	0	1.265555e-03
5.800000e+08	8.255251e+13	0.000000e+00	7.657657e-01	1.000331e+15	1.166673e+15	7.443726e+13	1.219651e+04	4.051323e+03	2.646523e+03	0	1.257085e-03
5.900000e+08	8.092360e+13	0.000000e+00	7.657657e-01	9.820893e+14	1.146493e+15	7.407140e+13	1.214786e+04	4.043393e+03	2.641343e+03	0	1.248762e-03
6.000000e+08	7.934367e+13	0.000000e+00	7.657657e-01	9.643913e+14	1.126905e+15	7.370813e+13	1.210010e+04	4.035591e+03	2.636246e+03	0	1.240581e-03
6.100000e+08	7.781072e+13	0.000000e+00	7.657657e-01	9.472152e+14	1.107886e+15	7.334742e+13	1.205319e+04	4.027913e+03	2.631231e+03	0	1.232540e-03
6.200000e+08	7.632286e+13	0.000000e+00	7.657657e-01	9.305400e+14	1.089412e+15	7.298927e+13	1.200711e+04	4.020356e+03	2.626294e+03	0	1.224633e-03
6.300000e+08	7.487827e+13	0.000000e+00	7.657657e-01	9.143456e+14	1.071463e+15	7.263365e+13	1.196184e+04	4.012915e+03	2.621433e+03	0	1.216858e-03
6.400000e+08	7.347525e+13	0.000000e+00	7.657657e-01	8.986131e+14	1.054017e+15	7.228053e+13	1.191735e+04	4.005589e+03	2.616647e+03	0	1.209210e-03
6.500000e+08	7.211217e+13	0.000000e+00	7.657657e-01	8.833246e+14	1.037054e+15	7.192990e+13	1.187362e+04	3.998374e+03	2.611934e+03	0	1.201685e-03
6.600000e+08	7.078749e+13	0.000000e+00	7.657657e-01	8.684629e+14	1.020557e+15	7.158174e+13	1.183063e+04	3.991268e+03	2.607292e+03	0	1.194281e-03
6.700000e+08	6.949972e+13	0.000000e+00	7.657657e-01	8.540117e+14	1.004507e+15	7.123602e+13	1.178837e+04	3.984267e+03	2.602719e+03	0	1.186995e-03
6.800000e+08	6.824748e+13	0.000000e+00	7.657657e-01	8.399554e+14	9.888883e+14	7.089274e+13	1.174680e+04	3.977369e+03	2.598213e+03	0	1.179823e-03
6.900000e+08	6.702942e+13	0.000000e+00	7.657657e-01	8.262794e+14	9.736842e+14	7.055186e+13	1.170591e+04	3.970571e+03	2.593772e+03	0	1.172761e-03
7.000000e+08	6.584427e+13	0.000000e+00	7.657657e-01	8.129694e+14	9.588794e+14	7.021337e+13	1.166569e+04	3.963872e+03	2.589395e+03	0	1.165808e-03
7.100000e+08	6.469083e+13	0.000000e+00	7.657657e-01	8.000122e+14	9.444596e+14	6.987725e+13	1.162610e+04	3.957267e+03	2.585081e+03	0	1.158961e-03
7.200000e+08	6.356794e+13	0.000000e+00	7.657657e-01	7.873948e+14	9.304107e+14	6.954349e+13	1.158715e+04	3.950756e+03	2.580827e+03	0	1.152216e-03
7.300000e+08	6.247449e+13	0.000000e+00	7.657657e-01	7.751050e+14	9.167196e+14	6.921205e+13	1.154881e+04	3.944335e+03	2.576633e+03	0	1.145571e-03
7.400000e+08	6.140943e+13	0.000000e+00	7.657657e-01	7.631313e+14	9.033735e+14	6.888293e+13	1.151106e+04	3.938003e+03	2.572497e+03	0	1.139024e-03
7.500000e+08	6.037176e+13	0.000000e+00	7.657657e-01	7.514624e+14	8.903604e+14	6.855610e+13	1.147390e+04	3.931758e+03	2.568417e+03	0	1.132572e-03
7.600000e+08	5.936052e+13	0.000000e+00	7.657657e-01	7.400877e+14	8.776688e+14	6.823155e+13	1.143730e+04	3.925597e+03	2.564393e+03	0	1.126213e-03
7.700000e+08	5.837478e+13	0.000000e+00	7.657657e-01	7.289970e+14	8.652875e+14	6.790926e+13	1.140125e+04	3.919519e+03	2.560422e+03	0	1.119944e-03
7.800000e+08	5.741367e+13	0.000000e+00	7.657657e-01	7.181806e+14	8.532060e+14	6.758921e+13	1.136574e+04	3.913522e+03	2.556504e+03	0	1.113763e-03
7.900000e+08	5.647635e+13	0.000000e+00	7.657657e-01	7.076291e+14	8.414142e+14	6.727138e+13	1.133075e+04	3.907603e+03	2.552638e+03	0	1.107669e-03
8.000000e+08	5.556202e+13	0.000000e+00	7.657657e-01	6.973337e+14	8.299024e+14	6.695575e+13	1.129627e+04	3.901761e+03	2.548822e+03	0	1.101659e-03
8.100000e+08	5.466990e+13	0.000000e+00	7.657657e-01	6.872858e+14	8.186613e+14	6.664231e+13	1.126230e+04	3.895995e+03	2.545055e+03	0	1.095731e-03
8.200000e+08	5.379926e+13	0.000000e+00	7.657657e-01	6.774773e+14	8.076822e+14	6.633104e+13	1.122881e+04	3.890302e+03	2.541336e+03	0	1.089883e-03
8.300000e+08	5.294939e+13	0.000000e+00	7.657657e-01	6.679003e+14	7.969563e+14	6.602192e+13	1.119579e+04	3.884681e+03	2.537664e+03	0	1.084114e-03
8.400000e+08	5.211962e+13	0.000000e+00	7.657657e-01	6.585472e+14	7.864757e+14	6.571494e+13	1.116325e+04	3.879131e+03	2.534039e+03	0	1.078421e-03
8.500000e+08	5.130930e+13	0.000000e+00	7.657657e-01	6.494109e+14	7.762325e+14	6.541008e+13	1.113115e+04	3.873650e+03	2.530458e+03	0	1.072803e-03
8.600000e+08	5.051779e+13	0.000000e+00	7.657657e-01	6.404845e+14	7.662191e+14	6.510732e+13	1.109950e+04	3.868236e+03	2.526921e+03	0	1.067258e-03
8.700000e+08	4.974452e+13	0.000000e+00	7.657657e-01	6.317613e+14	7.564284e+14	6.480664e+13	1.106828e+04	3.862888e+03	2.523428e+03	0	1.061784e-03
8.800000e+08	4.898889e+13	0.000000e+00	7.657657e-01	6.232350e+14	7.468534e+14	6.450803e+13	1.103749e+04	3.857605e+03	2.519977e+03	0	1.056381e-03
8.900000e+08	4.825036e+13	0.000000e+00	7.657657e-01	6.148995e+14	7.374876e+14	6.421147e+13	1.100710e+04	3.852385e+03	2.516567e+03	0	1.051045e-03
9.000000e+08	4.752841e+13	0.000000e+00	7.657657e-01	6.067488e+14	7.283244e+14	6.391695e+13	1.097713e+04	3.847226e+03	2.513197e+03	0	1.045777e-03
9.100000e+08	4.682252e+13	0.000000e+00	7.657657e-01	5.987773e+14	7.193578e+14	6.362444e+13	1.094755e+04	3.842129e+03	2.509867e+03	0	1.040574e-03
9.200000e+08	4.613220e+13	0.000000e+00	7.657657e-01	5.909797e+14	7.105819e+14	6.333394e+13	1.091835e+04	3.837091e+03	2.506576e+03	0	1.035434e-03
9.300000e+08	4.545698e+13	0.000000e+00	7.657657e-01	5.833506e+14	7.019909e+14	6.304543e+13	1.088954e+04	3.832111e+03	2.503323e+03	0	1.030358e-03
9.400000e+08	4.479641e+13	0.000000e+00	7.657657e-01	5.758850e+14	6.935795e+14	6.275888e+13	1.086109e+04	3.827189e+03	2.500107e+03	0	1.025342e-03
9.500000e+08	4.415006e+13	0.000000e+00	7.657657e-01	5.685782e+14	6.853424e+14	6.247430e+13	1.083301e+04	3.822322e+03	2.496928e+03	0	1.020387e-03
9.600000e+08	4.351751e+13	0.000000e+00	7.657657e-01	5.614254e+14	6.772744e+14	6.219165e+13	1.080528e+04	3.817510e+03	2.493785e+03	0	1.015491e-03
9.700000e+08	4.289835e+13	0.000000e+00	7.657657e-01	5.544223e+14	6.693708e+14	6.191093e+13	1.077790e+04	3.812752e+03	2.490676e+03	0	1.010651e-03
9.800000e+08	4.229220e+13	0.000000e+00	7.657657e-01	5.475644e+14	6.616269e+14	6.163212e+13	1.075086e+04	3.808046e+03	2.487603e+03	0	1.005869e-03
9.900000e+08	4.169867e+13	0.000000e+00	7.657657e-01	5.408476e+14	6.540381e+14	6.135521e+13	1.072415e+04	3.803392e+03	2.484563e+03	0	1.001141e-03
1.000000e+09	4.111742e+13	0.000000e+00	7.657657e-01	5.342679e+14	6.466000e+14	6.108017e+13	1.069777e+04	3.798789e+03	2.481556e+03	0	9.964675e-04
1.010000e+09	4.054809e+13	0.000000e+00	7.657657e-01	5.278214e+14	6.393085e+14	6.080700e+13	1.067171e+04	3.794236e+03	2.478581e+03	0	9.918470e-04
1.020000e+09	3.999035e+13	0.000000e+00	7.657657e-01	5.215045e+14	6.321596e+14	6.053568e+13	1.064597e+04	3.789731e+03	2.475638e+03	0	9.872783e-04
1.030000e+09	3.944387e+13	0.000000e+00	7.657657e-01	5.153135e+14	6.251492e+14	6.026620e+13	1.062052e+04	3.785275e+03	2.472727e+03	0	9.827605e-04
1.040000e+09	3.890835e+13	0.000000e+00	7.657657e-01	5.092449e+14	6.182736e+14	5.999853e+13	1.059538e+04	3.780865e+03	2.469847e+03	0	9.782927e-04
1.050000e+09	3.838347e+13	0.000000e+00	7.657657e-01	5.032954e+14	6.115292e+14	5.973268e+13	1.057054e+04	3.776501e+03	2.466996e+03	0	9.738737e-04
1.060000e+09	3.786896e+13	0.000000e+00	7.657657e-01	4.974619e+14	6.049124e+14	5.946862e+13	1.054598e+04	3.772183e+03	2.464175e+03	0	9.695027e-04
1.070000e+09	3.736453e+13	0.000000e+00	7.657657e-01	4.917411e+14	5.984200e+14	5.920633e+13	1.052171e+04	3.767909e+03	2.461383e+03	0	9.651787e-04
1.080000e+09	3.686991e+13	0.000000e+00	7.657657e-01	4.861300e+14	5.920484e+14	5.894582e+13	1.049772e+04	3.763679e+03	2.458620e+03	0	9.609008e-04
1.090000e+09	3.638484e+13	0.000000e+00	7.657657e-01	4.806257e+14	5.857948e+14	5.868705e+13	1.047400e+04	3.759492e+03	2.455885e+03	0	9.566682e-04
1.100000e+09	3.590906e+13	0.000000e+00	7.657657e-01	4.752255e+14	5.796558e+14	5.843002e+13	1.045054e+04	3.755347e+03	2.453177e+03	0	9.524801e-04
1.110000e+09	3.544234e+13	0.000000e+00	7.657657e-01	4.699266e+14	5.736286e+14	5.817472e+13	1.042735e+04	3.751243e+03	2.450496e+03	0	9.483355e-04
1.120000e+09	3.498443e+13	0.000000e+00	7.657657e-01	4.647264e+14	5.677104e+14	5.792112e+13	1.040442e+04	3.747180e+03	2.447842e+03	0	9.442336e-04
1.130000e+09	3.453510e+13	0.000000e+00	7.657657e-01	4.596223e+14	5.618983e+14	5.766922e+13	1.038174e+04	3.743157e+03	2.445214e+03	0	9.401738e-04
1.140000e+09	3.409415e+13	0.000000e+00	7.657657e-01	4.546118e+14	5.561896e+14	5.741901e+13	1.035930e+04	3.739173e+03	2.442611e+03	0	9.361551e-04
1.150000e+09	3.366134e+13	0.000000e+00	7.657657e-01	4.496927e+14	5.505818e+14	5.717047e+13	1.033712e+04	3.735228e+03	2.440034e+03	0	9.321769e-04
1.160000e+09	3.323648e+13	0.000000e+00	7.657657e-01	4.448626e+14	5.450724e+14	5.692358e+13	1.031517e+04	3.731320e+03	2.437481e+03	0	9.282384e-04
1.170000e+09	3.281936e+13	0.000000e+00	7.657657e-01	4.401192e+14	5.396589e+14	5.667834e+13	1.029345e+04	3.727450e+03	2.434953e+03	0	9.243389e-04
1.180000e+09	3.240980e+13	0.000000e+00	7.657657e-01	4.354604e+14	5.343390e+14	5.643473e+13	1.027197e+04	3.723617e+03	2.432449e+03	0	9.204778e-04
1.190000e+09	3.200760e+13	0.000000e+00	7.657657e-01	4.308841e+14	5.291103e+14	5.619274e+13	1.025071e+04	3.719819e+03	2.429969e+03	0	9.166543e-04
1.200000e+09	3.161258e+13	0.000000e+00	7.657657e-01	4.263884e+14	5.239707e+14	5.595236e+13	1.022968e+04	3.716057e+03	2.427511e+03	0	9.128677e-04
1.210000e+09	3.122456e+13	0.000000e+00	7.657657e-01	4.219711e+14	5.189181e+14	5.571357e+13	1.020886e+04	3.712330e+03	2.425076e+03	0	9.091174e-04
1.220000e+09	3.084338e+13	0.000000e+00	7.657657e-01	4.176305e+14	5.139504e+14	5.547636e+13	1.018826e+04	3.708638e+03	2.422664e+03	0	9.054029e-04
1.230000e+09	3.046887e+13	0.000000e+00	7.657657e-01	4.133647e+14	5.090655e+14	5.524072e+13	1.016787e+04	3.704979e+03	2.420274e+03	0	9.017234e-04
1.240000e+09	3.010087e+13	0.000000e+00	7.657657e-01	4.091718e+14	5.042615e+14	5.500664e+13	1.014769e+04	3.701353e+03	2.417905e+03	0	8.980784e-04
1.250000e+09	2.973923e+13	0.000000e+00	7.657657e-01	4.050503e+14	4.995365e+14	5.477411e+13	1.012771e+04	3.697760e+03	2.415558e+03	0	8.944672e-04
1.260000e+09	2.938378e+13	0.000000e+00	7.657657e-01	4.009983e+14	4.948886e+14	5.454311e+13	1.010793e+04	3.694199e+03	2.413232e+03	0	8.908894e-04
1.270000e+09	2.903440e+13	0.000000e+00	7.657657e-01	3.970143e+14	4.903162e+14	5.431363e+13	1.008835e+04	3.690670e+03	2.410927e+03	0	8.873443e-04
1.280000e+09	2.869093e+13	0.000000e+00	7.657657e-01	3.930967e+14	4.858175e+14	5.408566e+13	1.006896e+04	3.687172e+03	2.408641e+03	0	8.838313e-04
1.290000e+09	2.835323e+13	0.000000e+00	7.657657e-01	3.892439e+14	4.813907e+14	5.385918e+13	1.004977e+04	3.683704e+03	2.406376e+03	0	8.803501e-04
1.300000e+09	2.802118e+13	0.000000e+00	7.657657e-01	3.854544e+14	4.770343e+14	5.363420e+13	1.003076e+04	3.680267e+03	2.404131e+03	0	8.768999e-04
1.310000e+09	2.769465e+13	0.000000e+00	7.657657e-01	3.817269e+14	4.727467e+14	5.341069e+13	1.001194e+04	3.676859e+03	2.401905e+03	0	8.734804e-04
1.320000e+09	2.737350e+13	0.000000e+00	7.657657e-01	3.780599e+14	4.685263e+14	5.318864e+13	9.993294e+03	3.673481e+03	2.399698e+03	0	8.700910e-04
1.330000e+09	2.705762e+13	0.000000e+00	7.657657e-01	3.744520e+14	4.643717e+14	5.296804e+13	9.974831e+03	3.670132e+03	2.397510e+03	0	8.667312e-04
1.340000e+09	2.674689e+13	0.000000e+00	7.657657e-01	3.709019e+14	4.602814e+14	5.274889e+13	9.956543e+03	3.666811e+03	2.395341e+03	0	8.634005e-04
1.350000e+09	2.644119e+13	0.000000e+00	7.657657e-01	3.674084e+14	4.562540e+14	5.253117e+13	9.938427e+03	3.663518e+03	2.393189e+03	0	8.600985e-04
1.360000e+09	2.614041e+13	0.000000e+00	7.657657e-01	3.639702e+14	4.522881e+14	5.231486e+13	9.920482e+03	3.660252e+03	2.391056e+03	0	8.568248e-04
