#t		Qconv[W]	Ri[Rp]		R*[Rp]		Qc[W]		Qm[W]		Qr[W]		Tcmb[K]		Tl[K]		Tup[K]		RiFlag		Bs[T]
0.000000e+00	5.691881e+14	0.000000e+00	7.657657e-01	6.104519e+15	1.819631e+15	1.106356e+14	1.978787e+04	4.069720e+03	2.639426e+03	0	2.384577e-03
1.000000e+07	5.531232e+14	0.000000e+00	7.657657e-01	5.935079e+15	2.859825e+15	1.100226e+14	1.952814e+04	4.399222e+03	2.853126e+03	0	2.361928e-03
2.000000e+07	5.340660e+14	0.000000e+00	7.657657e-01	5.734608e+15	3.760490e+15	1.094142e+14	1.927549e+04	4.629435e+03	3.002431e+03	0	2.334485e-03
3.000000e+07	5.135126e+14	0.000000e+00	7.657657e-01	5.518669e+15	4.393601e+15	1.088103e+14	1.903125e+04	4.776228e+03	3.097634e+03	0	2.304145e-03
4.000000e+07	4.925959e+14	0.000000e+00	7.657657e-01	5.299039e+15	4.761356e+15	1.082110e+14	1.879608e+04	4.861851e+03	3.153165e+03	0	2.272425e-03
5.000000e+07	4.720248e+14	0.000000e+00	7.657657e-01	5.083090e+15	4.925270e+15	1.076161e+14	1.857014e+04	4.906339e+03	3.182018e+03	0	2.240342e-03
6.000000e+07	4.521895e+14	0.000000e+00	7.657657e-01	4.874875e+15	4.952634e+15	1.070256e+14	1.835330e+04	4.924575e+03	3.193845e+03	0	2.208511e-03
7.000000e+07	4.332779e+14	0.000000e+00	7.657657e-01	4.676343e+15	4.896026e+15	1.064395e+14	1.814522e+04	4.926575e+03	3.195142e+03	0	2.177283e-03
8.000000e+07	4.153598e+14	0.000000e+00	7.657657e-01	4.488217e+15	4.791146e+15	1.058578e+14	1.794552e+04	4.918742e+03	3.190062e+03	0	2.146846e-03
9.000000e+07	3.984398e+14	0.000000e+00	7.657657e-01	4.310539e+15	4.660580e+15	1.052805e+14	1.775376e+04	4.905066e+03	3.181192e+03	0	2.117290e-03
1.000000e+08	3.824879e+14	0.000000e+00	7.657657e-01	4.142994e+15	4.518067e+15	1.047074e+14	1.756950e+04	4.888006e+03	3.170128e+03	0	2.088648e-03
1.100000e+08	3.674568e+14	0.000000e+00	7.657657e-01	3.985087e+15	4.371748e+15	1.041385e+14	1.739232e+04	4.869071e+03	3.157847e+03	0	2.060922e-03
1.200000e+08	3.532920e+14	0.000000e+00	7.657657e-01	3.836247e+15	4.226340e+15	1.035739e+14	1.722182e+04	4.849188e+03	3.144952e+03	0	2.034092e-03
1.300000e+08	3.399373e+14	0.000000e+00	7.657657e-01	3.695886e+15	4.084491e+15	1.030135e+14	1.705762e+04	4.828926e+03	3.131811e+03	0	2.008132e-03
1.400000e+08	3.273374e+14	0.000000e+00	7.657657e-01	3.563426e+15	3.947615e+15	1.024572e+14	1.689936e+04	4.808633e+03	3.118650e+03	0	1.983009e-03
1.500000e+08	3.154397e+14	0.000000e+00	7.657657e-01	3.438317e+15	3.816391e+15	1.019050e+14	1.674672e+04	4.788523e+03	3.105608e+03	0	1.958686e-03
1.600000e+08	3.041947e+14	0.000000e+00	7.657657e-01	3.320043e+15	3.691065e+15	1.013569e+14	1.659937e+04	4.768722e+03	3.092766e+03	0	1.935129e-03
1.700000e+08	2.935565e+14	0.000000e+00	7.657657e-01	3.208123e+15	3.571632e+15	1.008128e+14	1.645705e+04	4.749304e+03	3.080172e+03	0	1.912302e-03
1.800000e+08	2.834827e+14	0.000000e+00	7.657657e-01	3.102114e+15	3.457942e+15	1.002728e+14	1.631948e+04	4.730310e+03	3.067854e+03	0	1.890173e-03
1.900000e+08	2.739341e+14	0.000000e+00	7.657657e-01	3.001607e+15	3.349768e+15	9.973673e+13	1.618641e+04	4.711759e+03	3.055823e+03	0	1.868708e-03
2.000000e+08	2.648749e+14	0.000000e+00	7.657657e-01	2.906226e+15	3.246844e+15	9.920460e+13	1.605760e+04	4.693657e+03	3.044083e+03	0	1.847877e-03
2.100000e+08	2.562719e+14	0.000000e+00	7.657657e-01	2.815625e+15	3.148889e+15	9.867639e+13	1.593286e+04	4.676002e+03	3.032632e+03	0	1.827650e-03
2.200000e+08	2.480948e+14	0.000000e+00	7.657657e-01	2.729487e+15	3.055622e+15	9.815206e+13	1.581196e+04	4.658786e+03	3.021467e+03	0	1.808001e-03
2.300000e+08	2.403155e+14	0.000000e+00	7.657657e-01	2.647519e+15	2.966770e+15	9.763158e+13	1.569473e+04	4.641998e+03	3.010579e+03	0	1.788902e-03
2.400000e+08	2.329084e+14	0.000000e+00	7.657657e-01	2.569452e+15	2.882069e+15	9.711491e+13	1.558099e+04	4.625626e+03	2.999960e+03	0	1.770331e-03
2.500000e+08	2.258498e+14	0.000000e+00	7.657657e-01	2.495038e+15	2.801272e+15	9.660203e+13	1.547058e+04	4.609656e+03	2.989603e+03	0	1.752263e-03
2.600000e+08	2.191177e+14	0.000000e+00	7.657657e-01	2.424049e+15	2.724145e+15	9.609290e+13	1.536333e+04	4.594074e+03	2.979498e+03	0	1.734677e-03
2.700000e+08	2.126921e+14	0.000000e+00	7.657657e-01	2.356273e+15	2.650469e+15	9.558749e+13	1.525911e+04	4.578867e+03	2.969635e+03	0	1.717552e-03
2.800000e+08	2.065543e+14	0.000000e+00	7.657657e-01	2.291516e+15	2.580040e+15	9.508577e+13	1.515778e+04	4.564021e+03	2.960007e+03	0	1.700869e-03
2.900000e+08	2.006870e+14	0.000000e+00	7.657657e-01	2.229597e+15	2.512667e+15	9.458772e+13	1.505921e+04	4.549523e+03	2.950604e+03	0	1.684609e-03
3.000000e+08	1.950743e+14	0.000000e+00	7.657657e-01	2.170349e+15	2.448175e+15	9.409329e+13	1.496328e+04	4.535360e+03	2.941418e+03	0	1.668756e-03
3.100000e+08	1.897015e+14	0.000000e+00	7.657657e-01	2.113618e+15	2.386396e+15	9.360247e+13	1.486988e+04	4.521519e+03	2.932442e+03	0	1.653292e-03
3.200000e+08	1.845546e+14	0.000000e+00	7.657657e-01	2.059259e+15	2.327179e+15	9.311522e+13	1.477890e+04	4.507989e+03	2.923667e+03	0	1.638203e-03
3.300000e+08	1.796211e+14	0.000000e+00	7.657657e-01	2.007139e+15	2.270379e+15	9.263151e+13	1.469025e+04	4.494758e+03	2.915086e+03	0	1.623473e-03
3.400000e+08	1.748890e+14	0.000000e+00	7.657657e-01	1.957133e+15	2.215864e+15	9.215132e+13	1.460382e+04	4.481816e+03	2.906693e+03	0	1.609089e-03
3.500000e+08	1.703473e+14	0.000000e+00	7.657657e-01	1.909127e+15	2.163508e+15	9.167461e+13	1.451953e+04	4.469153e+03	2.898480e+03	0	1.595038e-03
3.600000e+08	1.659857e+14	0.000000e+00	7.657657e-01	1.863012e+15	2.113197e+15	9.120135e+13	1.443729e+04	4.456758e+03	2.890441e+03	0	1.581307e-03
3.700000e+08	1.617945e+14	0.000000e+00	7.657657e-01	1.818688e+15	2.064822e+15	9.073153e+13	1.435702e+04	4.444621e+03	2.882570e+03	0	1.567884e-03
3.800000e+08	1.577649e+14	0.000000e+00	7.657657e-01	1.776060e+15	2.018281e+15	9.026510e+13	1.427865e+04	4.432735e+03	2.874861e+03	0	1.554758e-03
3.900000e+08	1.538885e+14	0.000000e+00	7.657657e-01	1.735042e+15	1.973480e+15	8.980204e+13	1.420210e+04	4.421091e+03	2.867309e+03	0	1.541918e-03
4.000000e+08	1.501573e+14	0.000000e+00	7.657657e-01	1.695550e+15	1.930331e+15	8.934233e+13	1.412731e+04	4.409680e+03	2.859908e+03	0	1.529355e-03
4.100000e+08	1.465641e+14	0.000000e+00	7.657657e-01	1.657508e+15	1.888750e+15	8.888593e+13	1.405420e+04	4.398494e+03	2.852654e+03	0	1.517057e-03
4.200000e+08	1.431020e+14	0.000000e+00	7.657657e-01	1.620844e+15	1.848660e+15	8.843282e+13	1.398273e+04	4.387526e+03	2.845541e+03	0	1.505017e-03
4.300000e+08	1.397645e+14	0.000000e+00	7.657657e-01	1.585491e+15	1.809988e+15	8.798298e+13	1.391283e+04	4.376770e+03	2.838564e+03	0	1.493224e-03
4.400000e+08	1.365456e+14	0.000000e+00	7.657657e-01	1.551384e+15	1.772665e+15	8.753637e+13	1.384444e+04	4.366218e+03	2.831721e+03	0	1.481672e-03
4.500000e+08	1.334397e+14	0.000000e+00	7.657657e-01	1.518465e+15	1.736627e+15	8.709297e+13	1.377751e+04	4.355863e+03	2.825005e+03	0	1.470351e-03
4.600000e+08	1.304412e+14	0.000000e+00	7.657657e-01	1.486677e+15	1.701814e+15	8.665276e+13	1.371200e+04	4.345700e+03	2.818414e+03	0	1.459254e-03
4.700000e+08	1.275453e+14	0.000000e+00	7.657657e-01	1.455967e+15	1.668168e+15	8.621570e+13	1.364784e+04	4.335722e+03	2.811943e+03	0	1.448374e-03
4.800000e+08	1.247471e+14	0.000000e+00	7.657657e-01	1.426286e+15	1.635636e+15	8.578177e+13	1.358500e+04	4.325925e+03	2.805589e+03	0	1.437704e-03
4.900000e+08	1.220423e+14	0.000000e+00	7.657657e-01	1.397587e+15	1.604168e+15	8.535095e+13	1.352344e+04	4.316301e+03	2.799347e+03	0	1.427237e-03
5.000000e+08	1.194265e+14	0.000000e+00	7.657657e-01	1.369826e+15	1.573715e+15	8.492321e+13	1.346311e+04	4.306847e+03	2.793216e+03	0	1.416967e-03
5.100000e+08	1.168959e+14	0.000000e+00	7.657657e-01	1.342961e+15	1.544232e+15	8.449853e+13	1.340396e+04	4.297557e+03	2.787191e+03	0	1.406887e-03
5.200000e+08	1.144467e+14	0.000000e+00	7.657657e-01	1.316952e+15	1.515679e+15	8.407688e+13	1.334598e+04	4.288427e+03	2.781269e+03	0	1.396992e-03
5.300000e+08	1.120753e+14	0.000000e+00	7.657657e-01	1.291764e+15	1.488013e+15	8.365823e+13	1.328910e+04	4.279451e+03	2.775448e+03	0	1.387275e-03
5.400000e+08	1.097784e+14	0.000000e+00	7.657657e-01	1.267360e+15	1.461197e+15	8.324257e+13	1.323331e+04	4.270625e+03	2.769724e+03	0	1.377733e-03
5.500000e+08	1.075529e+14	0.000000e+00	7.657657e-01	1.243707e+15	1.435195e+15	8.282986e+13	1.317857e+04	4.261946e+03	2.764095e+03	0	1.368359e-03
5.600000e+08	1.053956e+14	0.000000e+00	7.657657e-01	1.220773e+15	1.409974e+15	8.242009e+13	1.312484e+04	4.253408e+03	2.758558e+03	0	1.359148e-03
5.700000e+08	1.033038e+14	0.000000e+00	7.657657e-01	1.198530e+15	1.385500e+15	8.201323e+13	1.307210e+04	4.245009e+03	2.753110e+03	0	1.350096e-03
5.800000e+08	1.012748e+14	0.000000e+00	7.657657e-01	1.176948e+15	1.361744e+15	8.160925e+13	1.302031e+04	4.236744e+03	2.747750e+03	0	1.341199e-03
5.900000e+08	9.930601e+13	0.000000e+00	7.657657e-01	1.156001e+15	1.338676e+15	8.120814e+13	1.296945e+04	4.228609e+03	2.742474e+03	0	1.332451e-03
6.000000e+08	9.739501e+13	0.000000e+00	7.657657e-01	1.135663e+15	1.316269e+15	8.080987e+13	1.291949e+04	4.220601e+03	2.737281e+03	0	1.323848e-03
6.100000e+08	9.553950e+13	0.000000e+00	7.657657e-01	1.115910e+15	1.294497e+15	8.041442e+13	1.287040e+04	4.212717e+03	2.732168e+03	0	1.315387e-03
6.200000e+08	9.373730e+13	0.000000e+00	7.657657e-01	1.096719e+15	1.273335e+15	8.002175e+13	1.282216e+04	4.204954e+03	2.727133e+03	0	1.307064e-03
6.300000e+08	9.198632e+13	0.000000e+00	7.657657e-01	1.078069e+15	1.252759e+15	7.963187e+13	1.277475e+04	4.197308e+03	2.722174e+03	0	1.298874e-03
6.400000e+08	9.028458e+13	0.000000e+00	7.657657e-01	1.059938e+15	1.232747e+15	7.924473e+13	1.272814e+04	4.189776e+03	2.717289e+03	0	1.290815e-03
6.500000e+08	8.863021e+13	0.000000e+00	7.657657e-01	1.042306e+15	1.213277e+15	7.886031e+13	1.268231e+04	4.182356e+03	2.712477e+03	0	1.282882e-03
6.600000e+08	8.702141e+13	0.000000e+00	7.657657e-01	1.025156e+15	1.194330e+15	7.847861e+13	1.263724e+04	4.175044e+03	2.707735e+03	0	1.275072e-03
6.700000e+08	8.545647e+13	0.000000e+00	7.657657e-01	1.008468e+15	1.175885e+15	7.809958e+13	1.259291e+04	4.167838e+03	2.703061e+03	0	1.267382e-03
6.800000e+08	8.393376e+13	0.000000e+00	7.657657e-01	9.922261e+14	1.157925e+15	7.772322e+13	1.254929e+04	4.160736e+03	2.698455e+03	0	1.259810e-03
6.900000e+08	8.245175e+13	0.000000e+00	7.657657e-01	9.764138e+14	1.140431e+15	7.734950e+13	1.250637e+04	4.153734e+03	2.693914e+03	0	1.252351e-03
7.000000e+08	8.100894e+13	0.000000e+00	7.657657e-01	9.610154e+14	1.123387e+15	7.697840e+13	1.246414e+04	4.146830e+03	2.689437e+03	0	1.245003e-03
7.100000e+08	7.960392e+13	0.000000e+00	7.657657e-01	9.460162e+14	1.106777e+15	7.660990e+13	1.242256e+04	4.140023e+03	2.685022e+03	0	1.237763e-03
7.200000e+08	7.823535e+13	0.000000e+00	7.657657e-01	9.314019e+14	1.090586e+15	7.624397e+13	1.238164e+04	4.133309e+03	2.680667e+03	0	1.230629e-03
7.300000e+08	7.690195e+13	0.000000e+00	7.657657e-01	9.171590e+14	1.074799e+15	7.588060e+13	1.234134e+04	4.126686e+03	2.676372e+03	0	1.223597e-03
7.400000e+08	7.560247e+13	0.000000e+00	7.657657e-01	9.032746e+14	1.059401e+15	7.551977e+13	1.230165e+04	4.120153e+03	2.672135e+03	0	1.216666e-03
7.500000e+08	7.433574e+13	0.000000e+00	7.657657e-01	8.897363e+14	1.044380e+15	7.516145e+13	1.226256e+04	4.113707e+03	2.667954e+03	0	1.209833e-03
7.600000e+08	7.310064e+13	0.000000e+00	7.657657e-01	8.765323e+14	1.029723e+15	7.480563e+13	1.222406e+04	4.107346e+03	2.663829e+03	0	1.203095e-03
7.700000e+08	7.189609e+13	0.000000e+00	7.657657e-01	8.636512e+14	1.015417e+15	7.445228e+13	1.218612e+04	4.101069e+03	2.659758e+03	0	1.196450e-03
7.800000e+08	7.072107e+13	0.000000e+00	7.657657e-01	8.510822e+14	1.001451e+15	7.410139e+13	1.214874e+04	4.094873e+03	2.655739e+03	0	1.189896e-03
7.900000e+08	6.957457e+13	0.000000e+00	7.657657e-01	8.388150e+14	9.878140e+14	7.375294e+13	1.211190e+04	4.088756e+03	2.651772e+03	0	1.183431e-03
8.000000e+08	6.845567e+13	0.000000e+00	7.657657e-01	8.268396e+14	9.744945e+14	7.340691e+13	1.207559e+04	4.082718e+03	2.647856e+03	0	1.177053e-03
8.100000e+08	6.736345e+13	0.000000e+00	7.657657e-01	8.151464e+14	9.614824e+14	7.306327e+13	1.203980e+04	4.076755e+03	2.643989e+03	0	1.170759e-03
8.200000e+08	6.629705e+13	0.000000e+00	7.657657e-01	8.037263e+14	9.487679e+14	7.272201e+13	1.200450e+04	4.070867e+03	2.640170e+03	0	1.164548e-03
8.300000e+08	6.525563e+13	0.000000e+00	7.657657e-01	7.925705e+14	9.363416e+14	7.238311e+13	1.196971e+04	4.065052e+03	2.636399e+03	0	1.158418e-03
8.400000e+08	6.423840e+13	0.000000e+00	7.657657e-01	7.816707e+14	9.241943e+14	7.204655e+13	1.193539e+04	4.059308e+03	2.632674e+03	0	1.152367e-03
8.500000e+08	6.324458e+13	0.000000e+00	7.657657e-01	7.710188e+14	9.123172e+14	7.171231e+13	1.190154e+04	4.053634e+03	2.628994e+03	0	1.146394e-03
8.600000e+08	6.227345e+13	0.000000e+00	7.657657e-01	7.606070e+14	9.007021e+14	7.138038e+13	1.186815e+04	4.048029e+03	2.625358e+03	0	1.140496e-03
8.700000e+08	6.132429e+13	0.000000e+00	7.657657e-01	7.504278e+14	8.893408e+14	7.105073e+13	1.183521e+04	4.042490e+03	2.621766e+03	0	1.134672e-03
8.800000e+08	6.039642e+13	0.000000e+00	7.657657e-01	7.404742e+14	8.782257e+14	7.072335e+13	1.180271e+04	4.037017e+03	2.618217e+03	0	1.128920e-03
8.900000e+08	5.948920e+13	0.000000e+00	7.657657e-01	7.307392e+14	8.673492e+14	7.039822e+13	1.177064e+04	4.031608e+03	2.614709e+03	0	1.123239e-03
9.000000e+08	5.860199e+13	0.000000e+00	7.657657e-01	7.212162e+14	8.567042e+14	7.007531e+13	1.173899e+04	4.026262e+03	2.611241e+03	0	1.117627e-03
9.100000e+08	5.773420e+13	0.000000e+00	7.657657e-01	7.118989e+14	8.462838e+14	6.975463e+13	1.170774e+04	4.020977e+03	2.607814e+03	0	1.112083e-03
9.200000e+08	5.688524e+13	0.000000e+00	7.657657e-01	7.027812e+14	8.360814e+14	6.943614e+13	1.167691e+04	4.015753e+03	2.604426e+03	0	1.106605e-03
9.300000e+08	5.605455e+13	0.000000e+00	7.657657e-01	6.938571e+14	8.260906e+14	6.911983e+13	1.164646e+04	4.010588e+03	2.601076e+03	0	1.101192e-03
9.400000e+08	5.524160e+13	0.000000e+00	7.657657e-01	6.851210e+14	8.163054e+14	6.880568e+13	1.161640e+04	4.005481e+03	2.597764e+03	0	1.095842e-03
9.500000e+08	5.444586e+13	0.000000e+00	7.657657e-01	6.765675e+14	8.067197e+14	6.849367e+13	1.158672e+04	4.000431e+03	2.594489e+03	0	1.090555e-03
9.600000e+08	5.366685e+13	0.000000e+00	7.657657e-01	6.681913e+14	7.973278e+14	6.818379e+13	1.155740e+04	3.995437e+03	2.591250e+03	0	1.085329e-03
9.700000e+08	5.290407e+13	0.000000e+00	7.657657e-01	6.599872e+14	7.881244e+14	6.787602e+13	1.152845e+04	3.990498e+03	2.588047e+03	0	1.080162e-03
9.800000e+08	5.215707e+13	0.000000e+00	7.657657e-01	6.519505e+14	7.791041e+14	6.757035e+13	1.149985e+04	3.985612e+03	2.584878e+03	0	1.075054e-03
9.900000e+08	5.142540e+13	0.000000e+00	7.657657e-01	6.440765e+14	7.702617e+14	6.726675e+13	1.147160e+04	3.980779e+03	2.581744e+03	0	1.070004e-03
1.000000e+09	5.070862e+13	0.000000e+00	7.657657e-01	6.363605e+14	7.615924e+14	6.696522e+13	1.144368e+04	3.975998e+03	2.578643e+03	0	1.065009e-03
1.010000e+09	5.000633e+13	0.000000e+00	7.657657e-01	6.287982e+14	7.530915e+14	6.666573e+13	1.141610e+04	3.971267e+03	2.575574e+03	0	1.060070e-03
1.020000e+09	4.931813e+13	0.000000e+00	7.657657e-01	6.213855e+14	7.447543e+14	6.636827e+13	1.138885e+04	3.966586e+03	2.572539e+03	0	1.055184e-03
1.030000e+09	4.864362e+13	0.000000e+00	7.657657e-01	6.141181e+14	7.365764e+14	6.607282e+13	1.136192e+04	3.961954e+03	2.569535e+03	0	1.050351e-03
1.040000e+09	4.798243e+13	0.000000e+00	7.657657e-01	6.069922e+14	7.285536e+14	6.577937e+13	1.133530e+04	3.957370e+03	2.566562e+03	0	1.045571e-03
1.050000e+09	4.733421e+13	0.000000e+00	7.657657e-01	6.000040e+14	7.206818e+14	6.548790e+13	1.130899e+04	3.952833e+03	2.563619e+03	0	1.040841e-03
1.060000e+09	4.669861e+13	0.000000e+00	7.657657e-01	5.931497e+14	7.129568e+14	6.519839e+13	1.128298e+04	3.948342e+03	2.560707e+03	0	1.036161e-03
1.070000e+09	4.607528e+13	0.000000e+00	7.657657e-01	5.864259e+14	7.053750e+14	6.491084e+13	1.125727e+04	3.943897e+03	2.557824e+03	0	1.031530e-03
1.080000e+09	4.546391e+13	0.000000e+00	7.657657e-01	5.798291e+14	6.979326e+14	6.462522e+13	1.123184e+04	3.939496e+03	2.554970e+03	0	1.026948e-03
1.090000e+09	4.486417e+13	0.000000e+00	7.657657e-01	5.733561e+14	6.906259e+14	6.434152e+13	1.120671e+04	3.935140e+03	2.552144e+03	0	1.022412e-03
1.100000e+09	4.427578e+13	0.000000e+00	7.657657e-01	5.670035e+14	6.834515e+14	6.405973e+13	1.118185e+04	3.930826e+03	2.549346e+03	0	1.017923e-03
1.110000e+09	4.369843e+13	0.000000e+00	7.657657e-01	5.607683e+14	6.764061e+14	6.377982e+13	1.115726e+04	3.926555e+03	2.546576e+03	0	1.013479e-03
1.120000e+09	4.313183e+13	0.000000e+00	7.657657e-01	5.546475e+14	6.694863e+14	6.350179e+13	1.113295e+04	3.922325e+03	2.543833e+03	0	1.009079e-03
1.130000e+09	4.257572e+13	0.000000e+00	7.657657e-01	5.486382e+14	6.626890e+14	6.322563e+13	1.110890e+04	3.918136e+03	2.541116e+03	0	1.004724e-03
1.140000e+09	4.202984e+13	0.000000e+00	7.657657e-01	5.427375e+14	6.560113e+14	6.295130e+13	1.108511e+04	3.913987e+03	2.538426e+03	0	1.000411e-03
1.150000e+09	4.149391e+13	0.000000e+00	7.657657e-01	5.369429e+14	6.494500e+14	6.267881e+13	1.106157e+04	3.909878e+03	2.535761e+03	0	9.961410e-04
1.160000e+09	4.096769e+13	0.000000e+00	7.657657e-01	5.312515e+14	6.430025e+14	6.240814e+13	1.103829e+04	3.905808e+03	2.533121e+03	0	9.919121e-04
1.170000e+09	4.045095e+13	0.000000e+00	7.657657e-01	5.256610e+14	6.366658e+14	6.213927e+13	1.101525e+04	3.901776e+03	2.530506e+03	0	9.877240e-04
1.180000e+09	3.994344e+13	0.000000e+00	7.657657e-01	5.201687e+14	6.304373e+14	6.187219e+13	1.099245e+04	3.897782e+03	2.527915e+03	0	9.835758e-04
1.190000e+09	3.944494e+13	0.000000e+00	7.657657e-01	5.147724e+14	6.243144e+14	6.160688e+13	1.096989e+04	3.893824e+03	2.525349e+03	0	9.794670e-04
1.200000e+09	3.895524e+13	0.000000e+00	7.657657e-01	5.094696e+14	6.182947e+14	6.134334e+13	1.094756e+04	3.889903e+03	2.522806e+03	0	9.753968e-04
1.210000e+09	3.847411e+13	0.000000e+00	7.657657e-01	5.042583e+14	6.123755e+14	6.108154e+13	1.092547e+04	3.886018e+03	2.520286e+03	0	9.713645e-04
1.220000e+09	3.800136e+13	0.000000e+00	7.657657e-01	4.991360e+14	6.065547e+14	6.082148e+13	1.090359e+04	3.882168e+03	2.517789e+03	0	9.673695e-04
1.230000e+09	3.753678e+13	0.000000e+00	7.657657e-01	4.941009e+14	6.008298e+14	6.056314e+13	1.088194e+04	3.878353e+03	2.515315e+03	0	9.634112e-04
1.240000e+09	3.708018e+13	0.000000e+00	7.657657e-01	4.891507e+14	5.951987e+14	6.030651e+13	1.086051e+04	3.874571e+03	2.512862e+03	0	9.594889e-04
1.250000e+09	3.663137e+13	0.000000e+00	7.657657e-01	4.842836e+14	5.896591e+14	6.005157e+13	1.083929e+04	3.870824e+03	2.510432e+03	0	9.556021e-04
1.260000e+09	3.619017e+13	0.000000e+00	7.657657e-01	4.794976e+14	5.842090e+14	5.979831e+13	1.081828e+04	3.867109e+03	2.508023e+03	0	9.517501e-04
1.270000e+09	3.575640e+13	0.000000e+00	7.657657e-01	4.747908e+14	5.788464e+14	5.954672e+13	1.079748e+04	3.863427e+03	2.505635e+03	0	9.479323e-04
1.280000e+09	3.532990e+13	0.000000e+00	7.657657e-01	4.701613e+14	5.735693e+14	5.929678e+13	1.077688e+04	3.859777e+03	2.503267e+03	0	9.441482e-04
1.290000e+09	3.491048e+13	0.000000e+00	7.657657e-01	4.656076e+14	5.683757e+14	5.904849e+13	1.075648e+04	3.856158e+03	2.500921e+03	0	9.403972e-04
1.300000e+09	3.449800e+13	0.000000e+00	7.657657e-01	4.611277e+14	5.632638e+14	5.880183e+13	1.073628e+04	3.852571e+03	2.498594e+03	0	9.366788e-04
1.310000e+09	3.409229e+13	0.000000e+00	7.657657e-01	4.567201e+14	5.582317e+14	5.855678e+13	1.071628e+04	3.849014e+03	2.496287e+03	0	9.329924e-04
1.320000e+09	3.369321e+13	0.000000e+00	7.657657e-01	4.523831e+14	5.532778e+14	5.831334e+13	1.069646e+04	3.845487e+03	2.494000e+03	0	9.293375e-04
1.330000e+09	3.330060e+13	0.000000e+00	7.657657e-01	4.481152e+14	5.484002e+14	5.807149e+13	1.067683e+04	3.841990e+03	2.491732e+03	0	9.257137e-04
1.340000e+09	3.291431e+13	0.000000e+00	7.657657e-01	4.439149e+14	5.435974e+14	5.783122e+13	1.065739e+04	3.838522e+03	2.489483e+03	0	9.221204e-04
1.350000e+09	3.253422e+13	0.000000e+00	7.657657e-01	4.397806e+14	5.388677e+14	5.759252e+13	1.063812e+04	3.835083e+03	2.487252e+03	0	9.185571e-04
1.360000e+09	3.216018e+13	0.000000e+00	7.657657e-01	4.357109e+14	5.342096e+14	5.735538e+13	1.061904e+04	3.831672e+03	2.485040e+03	0	9.150234e-04
