#t		Qconv[W]	Ri[Rp]		R*[Rp]		Qc[W]		Qm[W]		Qr[W]		Tcmb[K]		Tl[K]		Tup[K]		RiFlag		Bs[T]
0.000000e+00	1.538238e+15	0.000000e+00	7.567571e-01	1.601742e+16	2.441049e+15	1.217995e+14	2.650495e+04	4.449549e+03	2.672448e+03	0	3.341877e-03
1.000000e+07	1.457399e+15	0.000000e+00	7.567571e-01	1.518377e+16	7.017178e+15	1.211246e+14	2.586798e+04	5.370888e+03	3.225815e+03	0	3.282278e-03
2.000000e+07	1.363850e+15	0.000000e+00	7.567571e-01	1.422047e+16	1.072918e+16	1.204548e+14	2.526327e+04	5.867546e+03	3.524113e+03	0	3.210491e-03
3.000000e+07	1.271453e+15	0.000000e+00	7.567571e-01	1.326936e+16	1.235405e+16	1.197900e+14	2.469610e+04	6.071841e+03	3.646815e+03	0	3.136289e-03
4.000000e+07	1.185468e+15	0.000000e+00	7.567571e-01	1.238422e+16	1.262337e+16	1.191302e+14	2.416612e+04	6.129423e+03	3.681399e+03	0	3.063932e-03
5.000000e+07	1.106950e+15	0.000000e+00	7.567571e-01	1.157584e+16	1.228180e+16	1.184753e+14	2.367085e+04	6.122711e+03	3.677368e+03	0	2.994736e-03
6.000000e+07	1.035628e+15	0.000000e+00	7.567571e-01	1.084139e+16	1.171617e+16	1.178252e+14	2.320735e+04	6.089562e+03	3.657459e+03	0	2.928985e-03
7.000000e+07	9.708716e+14	0.000000e+00	7.567571e-01	1.017441e+16	1.109322e+16	1.171800e+14	2.277275e+04	6.046289e+03	3.631468e+03	0	2.866618e-03
8.000000e+07	9.119963e+14	0.000000e+00	7.567571e-01	9.567857e+15	1.047933e+16	1.165396e+14	2.236445e+04	5.999831e+03	3.603565e+03	0	2.807460e-03
9.000000e+07	8.583549e+14	0.000000e+00	7.567571e-01	9.015094e+15	9.898885e+15	1.159040e+14	2.198010e+04	5.953145e+03	3.575525e+03	0	2.751301e-03
1.000000e+08	8.093660e+14	0.000000e+00	7.567571e-01	8.510151e+15	9.359125e+15	1.152731e+14	2.161761e+04	5.907472e+03	3.548093e+03	0	2.697931e-03
1.100000e+08	7.645174e+14	0.000000e+00	7.567571e-01	8.047769e+15	8.860444e+15	1.146468e+14	2.127511e+04	5.863308e+03	3.521568e+03	0	2.647149e-03
1.200000e+08	7.233605e+14	0.000000e+00	7.567571e-01	7.623342e+15	8.400620e+15	1.140252e+14	2.095094e+04	5.820818e+03	3.496048e+03	0	2.598768e-03
1.300000e+08	6.855034e+14	0.000000e+00	7.567571e-01	7.232847e+15	7.976570e+15	1.134082e+14	2.064362e+04	5.780019e+03	3.471543e+03	0	2.552618e-03
1.400000e+08	6.506038e+14	0.000000e+00	7.567571e-01	6.872766e+15	7.585080e+15	1.127958e+14	2.035182e+04	5.740862e+03	3.448025e+03	0	2.508542e-03
1.500000e+08	6.183615e+14	0.000000e+00	7.567571e-01	6.540018e+15	7.223088e+15	1.121879e+14	2.007434e+04	5.703273e+03	3.425449e+03	0	2.466399e-03
1.600000e+08	5.885133e+14	0.000000e+00	7.567571e-01	6.231898e+15	6.887790e+15	1.115845e+14	1.981012e+04	5.667166e+03	3.403763e+03	0	2.426059e-03
1.700000e+08	5.608271e+14	0.000000e+00	7.567571e-01	5.946024e+15	6.576658e+15	1.109856e+14	1.955818e+04	5.632458e+03	3.382917e+03	0	2.387402e-03
1.800000e+08	5.350986e+14	0.000000e+00	7.567571e-01	5.680293e+15	6.287431e+15	1.103910e+14	1.931765e+04	5.599066e+03	3.362861e+03	0	2.350321e-03
1.900000e+08	5.111464e+14	0.000000e+00	7.567571e-01	5.432845e+15	6.018097e+15	1.098009e+14	1.908773e+04	5.566913e+03	3.343550e+03	0	2.314716e-03
2.000000e+08	4.888098e+14	0.000000e+00	7.567571e-01	5.202028e+15	5.766860e+15	1.092150e+14	1.886771e+04	5.535926e+03	3.324938e+03	0	2.280495e-03
2.100000e+08	4.679458e+14	0.000000e+00	7.567571e-01	4.986371e+15	5.532120e+15	1.086335e+14	1.865692e+04	5.506038e+03	3.306987e+03	0	2.247576e-03
2.200000e+08	4.484268e+14	0.000000e+00	7.567571e-01	4.784564e+15	5.312447e+15	1.080563e+14	1.845476e+04	5.477187e+03	3.289659e+03	0	2.215881e-03
2.300000e+08	4.301387e+14	0.000000e+00	7.567571e-01	4.595433e+15	5.106563e+15	1.074833e+14	1.826069e+04	5.449315e+03	3.272919e+03	0	2.185339e-03
2.400000e+08	4.129793e+14	0.000000e+00	7.567571e-01	4.417926e+15	4.913320e+15	1.069145e+14	1.807420e+04	5.422368e+03	3.256734e+03	0	2.155884e-03
2.500000e+08	3.968566e+14	0.000000e+00	7.567571e-01	4.251100e+15	4.731690e+15	1.063498e+14	1.789484e+04	5.396296e+03	3.241075e+03	0	2.127455e-03
2.600000e+08	3.816879e+14	0.000000e+00	7.567571e-01	4.094103e+15	4.560744e+15	1.057893e+14	1.772217e+04	5.371054e+03	3.225915e+03	0	2.099997e-03
2.700000e+08	3.673987e+14	0.000000e+00	7.567571e-01	3.946169e+15	4.399647e+15	1.052329e+14	1.755582e+04	5.346599e+03	3.211227e+03	0	2.073457e-03
2.800000e+08	3.539213e+14	0.000000e+00	7.567571e-01	3.806603e+15	4.247643e+15	1.046806e+14	1.739541e+04	5.322890e+03	3.196987e+03	0	2.047787e-03
2.900000e+08	3.411949e+14	0.000000e+00	7.567571e-01	3.674777e+15	4.104047e+15	1.041323e+14	1.724061e+04	5.299891e+03	3.183173e+03	0	2.022942e-03
3.000000e+08	3.291637e+14	0.000000e+00	7.567571e-01	3.550120e+15	3.968238e+15	1.035880e+14	1.709113e+04	5.277567e+03	3.169765e+03	0	1.998879e-03
3.100000e+08	3.177776e+14	0.000000e+00	7.567571e-01	3.432113e+15	3.839652e+15	1.030476e+14	1.694666e+04	5.255886e+03	3.156743e+03	0	1.975560e-03
3.200000e+08	3.069904e+14	0.000000e+00	7.567571e-01	3.320283e+15	3.717774e+15	1.025112e+14	1.680695e+04	5.234817e+03	3.144089e+03	0	1.952949e-03
3.300000e+08	2.967604e+14	0.000000e+00	7.567571e-01	3.214201e+15	3.602136e+15	1.019787e+14	1.667174e+04	5.214332e+03	3.131785e+03	0	1.931010e-03
3.400000e+08	2.870492e+14	0.000000e+00	7.567571e-01	3.113471e+15	3.492309e+15	1.014500e+14	1.654082e+04	5.194404e+03	3.119816e+03	0	1.909713e-03
3.500000e+08	2.778219e+14	0.000000e+00	7.567571e-01	3.017732e+15	3.387902e+15	1.009252e+14	1.641396e+04	5.175009e+03	3.108167e+03	0	1.889026e-03
3.600000e+08	2.690462e+14	0.000000e+00	7.567571e-01	2.926656e+15	3.288555e+15	1.004042e+14	1.629096e+04	5.156123e+03	3.096824e+03	0	1.868923e-03
3.700000e+08	2.606927e+14	0.000000e+00	7.567571e-01	2.839936e+15	3.193938e+15	9.988696e+13	1.617164e+04	5.137724e+03	3.085774e+03	0	1.849377e-03
3.800000e+08	2.527342e+14	0.000000e+00	7.567571e-01	2.757295e+15	3.103748e+15	9.937347e+13	1.605583e+04	5.119791e+03	3.075003e+03	0	1.830363e-03
3.900000e+08	2.451459e+14	0.000000e+00	7.567571e-01	2.678476e+15	3.017706e+15	9.886369e+13	1.594336e+04	5.102306e+03	3.064501e+03	0	1.811858e-03
4.000000e+08	2.379048e+14	0.000000e+00	7.567571e-01	2.603241e+15	2.935555e+15	9.835758e+13	1.583407e+04	5.085249e+03	3.054257e+03	0	1.793840e-03
4.100000e+08	2.309895e+14	0.000000e+00	7.567571e-01	2.531372e+15	2.857056e+15	9.785514e+13	1.572783e+04	5.068603e+03	3.044259e+03	0	1.776288e-03
4.200000e+08	2.243804e+14	0.000000e+00	7.567571e-01	2.462666e+15	2.781992e+15	9.735631e+13	1.562450e+04	5.052352e+03	3.034498e+03	0	1.759182e-03
4.300000e+08	2.180595e+14	0.000000e+00	7.567571e-01	2.396937e+15	2.710159e+15	9.686107e+13	1.552395e+04	5.036480e+03	3.024966e+03	0	1.742506e-03
4.400000e+08	2.120098e+14	0.000000e+00	7.567571e-01	2.334011e+15	2.641368e+15	9.636940e+13	1.542606e+04	5.020973e+03	3.015652e+03	0	1.726240e-03
4.500000e+08	2.062157e+14	0.000000e+00	7.567571e-01	2.273727e+15	2.575445e+15	9.588126e+13	1.533072e+04	5.005817e+03	3.006549e+03	0	1.710369e-03
4.600000e+08	2.006629e+14	0.000000e+00	7.567571e-01	2.215935e+15	2.512228e+15	9.539662e+13	1.523783e+04	4.990998e+03	2.997649e+03	0	1.694877e-03
4.700000e+08	1.953377e+14	0.000000e+00	7.567571e-01	2.160498e+15	2.451566e+15	9.491546e+13	1.514727e+04	4.976504e+03	2.988944e+03	0	1.679750e-03
4.800000e+08	1.902277e+14	0.000000e+00	7.567571e-01	2.107286e+15	2.393320e+15	9.443775e+13	1.505897e+04	4.962324e+03	2.980427e+03	0	1.664973e-03
4.900000e+08	1.853211e+14	0.000000e+00	7.567571e-01	2.056177e+15	2.337358e+15	9.396345e+13	1.497282e+04	4.948445e+03	2.972091e+03	0	1.650533e-03
5.000000e+08	1.806071e+14	0.000000e+00	7.567571e-01	2.007061e+15	2.283559e+15	9.349255e+13	1.488875e+04	4.934858e+03	2.963930e+03	0	1.636418e-03
5.100000e+08	1.760755e+14	0.000000e+00	7.567571e-01	1.959831e+15	2.231809e+15	9.302502e+13	1.480667e+04	4.921552e+03	2.955938e+03	0	1.622615e-03
5.200000e+08	1.717169e+14	0.000000e+00	7.567571e-01	1.914391e+15	2.182002e+15	9.256082e+13	1.472651e+04	4.908517e+03	2.948109e+03	0	1.609114e-03
5.300000e+08	1.675222e+14	0.000000e+00	7.567571e-01	1.870648e+15	2.134038e+15	9.209993e+13	1.464819e+04	4.895744e+03	2.940438e+03	0	1.595904e-03
5.400000e+08	1.634833e+14	0.000000e+00	7.567571e-01	1.828516e+15	2.087825e+15	9.164232e+13	1.457165e+04	4.883224e+03	2.932918e+03	0	1.582974e-03
5.500000e+08	1.595923e+14	0.000000e+00	7.567571e-01	1.787916e+15	2.043276e+15	9.118797e+13	1.449683e+04	4.870949e+03	2.925546e+03	0	1.570314e-03
5.600000e+08	1.558419e+14	0.000000e+00	7.567571e-01	1.748772e+15	2.000308e+15	9.073685e+13	1.442365e+04	4.858911e+03	2.918316e+03	0	1.557916e-03
5.700000e+08	1.522252e+14	0.000000e+00	7.567571e-01	1.711013e+15	1.958845e+15	9.028893e+13	1.435206e+04	4.847102e+03	2.911223e+03	0	1.545770e-03
5.800000e+08	1.487359e+14	0.000000e+00	7.567571e-01	1.674573e+15	1.918815e+15	8.984419e+13	1.428201e+04	4.835515e+03	2.904264e+03	0	1.533867e-03
5.900000e+08	1.453679e+14	0.000000e+00	7.567571e-01	1.639389e+15	1.880150e+15	8.940260e+13	1.421345e+04	4.824143e+03	2.897434e+03	0	1.522201e-03
6.000000e+08	1.421154e+14	0.000000e+00	7.567571e-01	1.605403e+15	1.842786e+15	8.896414e+13	1.414631e+04	4.812979e+03	2.890729e+03	0	1.510763e-03
6.100000e+08	1.389732e+14	0.000000e+00	7.567571e-01	1.572559e+15	1.806665e+15	8.852878e+13	1.408055e+04	4.802017e+03	2.884145e+03	0	1.499545e-03
6.200000e+08	1.359361e+14	0.000000e+00	7.567571e-01	1.540804e+15	1.771728e+15	8.809650e+13	1.401614e+04	4.791250e+03	2.877678e+03	0	1.488541e-03
6.300000e+08	1.329995e+14	0.000000e+00	7.567571e-01	1.510091e+15	1.737923e+15	8.766727e+13	1.395301e+04	4.780673e+03	2.871325e+03	0	1.477744e-03
6.400000e+08	1.301587e+14	0.000000e+00	7.567571e-01	1.480372e+15	1.705199e+15	8.724107e+13	1.389114e+04	4.770281e+03	2.865083e+03	0	1.467147e-03
6.500000e+08	1.274097e+14	0.000000e+00	7.567571e-01	1.451604e+15	1.673510e+15	8.681786e+13	1.383047e+04	4.760067e+03	2.858949e+03	0	1.456744e-03
6.600000e+08	1.247483e+14	0.000000e+00	7.567571e-01	1.423745e+15	1.642809e+15	8.639764e+13	1.377098e+04	4.750026e+03	2.852918e+03	0	1.446530e-03
6.700000e+08	1.221709e+14	0.000000e+00	7.567571e-01	1.396757e+15	1.613056e+15	8.598037e+13	1.371262e+04	4.740154e+03	2.846989e+03	0	1.436498e-03
6.800000e+08	1.196737e+14	0.000000e+00	7.567571e-01	1.370602e+15	1.584209e+15	8.556603e+13	1.365537e+04	4.730446e+03	2.841158e+03	0	1.426643e-03
6.900000e+08	1.172534e+14	0.000000e+00	7.567571e-01	1.345244e+15	1.556230e+15	8.515460e+13	1.359917e+04	4.720897e+03	2.835423e+03	0	1.416961e-03
7.000000e+08	1.149069e+14	0.000000e+00	7.567571e-01	1.320652e+15	1.529084e+15	8.474605e+13	1.354402e+04	4.711502e+03	2.829780e+03	0	1.407444e-03
7.100000e+08	1.126310e+14	0.000000e+00	7.567571e-01	1.296793e+15	1.502737e+15	8.434036e+13	1.348986e+04	4.702258e+03	2.824228e+03	0	1.398090e-03
7.200000e+08	1.104229e+14	0.000000e+00	7.567571e-01	1.273638e+15	1.477156e+15	8.393751e+13	1.343668e+04	4.693161e+03	2.818764e+03	0	1.388894e-03
7.300000e+08	1.082799e+14	0.000000e+00	7.567571e-01	1.251159e+15	1.452310e+15	8.353748e+13	1.338444e+04	4.684206e+03	2.813386e+03	0	1.379850e-03
7.400000e+08	1.061993e+14	0.000000e+00	7.567571e-01	1.229328e+15	1.428171e+15	8.314023e+13	1.333312e+04	4.675389e+03	2.808091e+03	0	1.370954e-03
7.500000e+08	1.041786e+14	0.000000e+00	7.567571e-01	1.208119e+15	1.404710e+15	8.274576e+13	1.328269e+04	4.666708e+03	2.802876e+03	0	1.362204e-03
7.600000e+08	1.022156e+14	0.000000e+00	7.567571e-01	1.187510e+15	1.381901e+15	8.235403e+13	1.323312e+04	4.658158e+03	2.797741e+03	0	1.353594e-03
7.700000e+08	1.003080e+14	0.000000e+00	7.567571e-01	1.167476e+15	1.359720e+15	8.196503e+13	1.318440e+04	4.649736e+03	2.792683e+03	0	1.345120e-03
7.800000e+08	9.845360e+13	0.000000e+00	7.567571e-01	1.147995e+15	1.338142e+15	8.157874e+13	1.313649e+04	4.641439e+03	2.787700e+03	0	1.336779e-03
7.900000e+08	9.665050e+13	0.000000e+00	7.567571e-01	1.129048e+15	1.317145e+15	8.119512e+13	1.308938e+04	4.633264e+03	2.782790e+03	0	1.328568e-03
8.000000e+08	9.489671e+13	0.000000e+00	7.567571e-01	1.110613e+15	1.296707e+15	8.081417e+13	1.304304e+04	4.625208e+03	2.777951e+03	0	1.320483e-03
8.100000e+08	9.319041e+13	0.000000e+00	7.567571e-01	1.092672e+15	1.276807e+15	8.043586e+13	1.299745e+04	4.617267e+03	2.773181e+03	0	1.312521e-03
8.200000e+08	9.152985e+13	0.000000e+00	7.567571e-01	1.075206e+15	1.257427e+15	8.006016e+13	1.295260e+04	4.609439e+03	2.768480e+03	0	1.304678e-03
8.300000e+08	8.991337e+13	0.000000e+00	7.567571e-01	1.058199e+15	1.238546e+15	7.968706e+13	1.290846e+04	4.601721e+03	2.763844e+03	0	1.296952e-03
8.400000e+08	8.833937e+13	0.000000e+00	7.567571e-01	1.041634e+15	1.220148e+15	7.931654e+13	1.286501e+04	4.594110e+03	2.759274e+03	0	1.289340e-03
8.500000e+08	8.680633e+13	0.000000e+00	7.567571e-01	1.025495e+15	1.202215e+15	7.894858e+13	1.282225e+04	4.586605e+03	2.754766e+03	0	1.281838e-03
8.600000e+08	8.531280e+13	0.000000e+00	7.567571e-01	1.009767e+15	1.184731e+15	7.858315e+13	1.278014e+04	4.579202e+03	2.750319e+03	0	1.274444e-03
8.700000e+08	8.385739e+13	0.000000e+00	7.567571e-01	9.944366e+14	1.167680e+15	7.822024e+13	1.273867e+04	4.571899e+03	2.745933e+03	0	1.267155e-03
8.800000e+08	8.243879e+13	0.000000e+00	7.567571e-01	9.794889e+14	1.151048e+15	7.785982e+13	1.269783e+04	4.564694e+03	2.741606e+03	0	1.259969e-03
8.900000e+08	8.105571e+13	0.000000e+00	7.567571e-01	9.649112e+14	1.134820e+15	7.750188e+13	1.265760e+04	4.557584e+03	2.737336e+03	0	1.252883e-03
9.000000e+08	7.970696e+13	0.000000e+00	7.567571e-01	9.506909e+14	1.118982e+15	7.714640e+13	1.261797e+04	4.550568e+03	2.733121e+03	0	1.245895e-03
9.100000e+08	7.839137e+13	0.000000e+00	7.567571e-01	9.368160e+14	1.103522e+15	7.679335e+13	1.257892e+04	4.543643e+03	2.728962e+03	0	1.239002e-03
9.200000e+08	7.710783e+13	0.000000e+00	7.567571e-01	9.232749e+14	1.088427e+15	7.644272e+13	1.254043e+04	4.536807e+03	2.724856e+03	0	1.232202e-03
9.300000e+08	7.585527e+13	0.000000e+00	7.567571e-01	9.100567e+14	1.073684e+15	7.609449e+13	1.250250e+04	4.530058e+03	2.720803e+03	0	1.225494e-03
9.400000e+08	7.463268e+13	0.000000e+00	7.567571e-01	8.971509e+14	1.059284e+15	7.574864e+13	1.246511e+04	4.523395e+03	2.716801e+03	0	1.218874e-03
9.500000e+08	7.343907e+13	0.000000e+00	7.567571e-01	8.845471e+14	1.045213e+15	7.540515e+13	1.242825e+04	4.516815e+03	2.712849e+03	0	1.212341e-03
9.600000e+08	7.227352e+13	0.000000e+00	7.567571e-01	8.722358e+14	1.031463e+15	7.506401e+13	1.239190e+04	4.510316e+03	2.708946e+03	0	1.205893e-03
9.700000e+08	7.113512e+13	0.000000e+00	7.567571e-01	8.602076e+14	1.018023e+15	7.472518e+13	1.235606e+04	4.503898e+03	2.705091e+03	0	1.199528e-03
9.800000e+08	7.002300e+13	0.000000e+00	7.567571e-01	8.484535e+14	1.004882e+15	7.438866e+13	1.232071e+04	4.497557e+03	2.701283e+03	0	1.193245e-03
9.900000e+08	6.893635e+13	0.000000e+00	7.567571e-01	8.369650e+14	9.920329e+14	7.405443e+13	1.228584e+04	4.491294e+03	2.697521e+03	0	1.187040e-03
1.000000e+09	6.787436e+13	0.000000e+00	7.567571e-01	8.257339e+14	9.794652e+14	7.372247e+13	1.225144e+04	4.485105e+03	2.693804e+03	0	1.180913e-03
1.010000e+09	6.683627e+13	0.000000e+00	7.567571e-01	8.147521e+14	9.671706e+14	7.339276e+13	1.221750e+04	4.478990e+03	2.690131e+03	0	1.174861e-03
1.020000e+09	6.582135e+13	0.000000e+00	7.567571e-01	8.040121e+14	9.551409e+14	7.306528e+13	1.218401e+04	4.472946e+03	2.686501e+03	0	1.168884e-03
1.030000e+09	6.482889e+13	0.000000e+00	7.567571e-01	7.935065e+14	9.433682e+14	7.274002e+13	1.215096e+04	4.466973e+03	2.682914e+03	0	1.162980e-03
1.040000e+09	6.385821e+13	0.000000e+00	7.567571e-01	7.832283e+14	9.318448e+14	7.241696e+13	1.211834e+04	4.461069e+03	2.679368e+03	0	1.157146e-03
1.050000e+09	6.290865e+13	0.000000e+00	7.567571e-01	7.731708e+14	9.205632e+14	7.209608e+13	1.208614e+04	4.455233e+03	2.675862e+03	0	1.151382e-03
1.060000e+09	6.197960e+13	0.000000e+00	7.567571e-01	7.633273e+14	9.095165e+14	7.177736e+13	1.205435e+04	4.449463e+03	2.672397e+03	0	1.145686e-03
1.070000e+09	6.107045e+13	0.000000e+00	7.567571e-01	7.536917e+14	8.986978e+14	7.146079e+13	1.202296e+04	4.443758e+03	2.668970e+03	0	1.140056e-03
1.080000e+09	6.018061e+13	0.000000e+00	7.567571e-01	7.442579e+14	8.881005e+14	7.114635e+13	1.199197e+04	4.438117e+03	2.665582e+03	0	1.134492e-03
1.090000e+09	5.930952e+13	0.000000e+00	7.567571e-01	7.350200e+14	8.777183e+14	7.083402e+13	1.196137e+04	4.432538e+03	2.662231e+03	0	1.128992e-03
1.100000e+09	5.845665e+13	0.000000e+00	7.567571e-01	7.259724e+14	8.675451e+14	7.052380e+13	1.193114e+04	4.427020e+03	2.658917e+03	0	1.123554e-03
1.110000e+09	5.762147e+13	0.000000e+00	7.567571e-01	7.171098e+14	8.575750e+14	7.021565e+13	1.190129e+04	4.421563e+03	2.655640e+03	0	1.118177e-03
1.120000e+09	5.680348e+13	0.000000e+00	7.567571e-01	7.084269e+14	8.478023e+14	6.990956e+13	1.187179e+04	4.416165e+03	2.652397e+03	0	1.112861e-03
1.130000e+09	5.600220e+13	0.000000e+00	7.567571e-01	6.999187e+14	8.382215e+14	6.960553e+13	1.184266e+04	4.410824e+03	2.649190e+03	0	1.107603e-03
1.140000e+09	5.521716e+13	0.000000e+00	7.567571e-01	6.915803e+14	8.288274e+14	6.930353e+13	1.181387e+04	4.405540e+03	2.646016e+03	0	1.102403e-03
1.150000e+09	5.444790e+13	0.000000e+00	7.567571e-01	6.834071e+14	8.196150e+14	6.900354e+13	1.178542e+04	4.400313e+03	2.642876e+03	0	1.097260e-03
1.160000e+09	5.369401e+13	0.000000e+00	7.567571e-01	6.753946e+14	8.105791e+14	6.870555e+13	1.175731e+04	4.395139e+03	2.639769e+03	0	1.092172e-03
1.170000e+09	5.295505e+13	0.000000e+00	7.567571e-01	6.675384e+14	8.017153e+14	6.840955e+13	1.172953e+04	4.390020e+03	2.636695e+03	0	1.087139e-03
1.180000e+09	5.223062e+13	0.000000e+00	7.567571e-01	6.598343e+14	7.930187e+14	6.811552e+13	1.170207e+04	4.384953e+03	2.633651e+03	0	1.082159e-03
1.190000e+09	5.152034e+13	0.000000e+00	7.567571e-01	6.522781e+14	7.844851e+14	6.782344e+13	1.167492e+04	4.379938e+03	2.630639e+03	0	1.077231e-03
1.200000e+09	5.082381e+13	0.000000e+00	7.567571e-01	6.448661e+14	7.761101e+14	6.753331e+13	1.164808e+04	4.374974e+03	2.627658e+03	0	1.072354e-03
1.210000e+09	5.014069e+13	0.000000e+00	7.567571e-01	6.375944e+14	7.678896e+14	6.724509e+13	1.162155e+04	4.370060e+03	2.624707e+03	0	1.067528e-03
1.220000e+09	4.947061e+13	0.000000e+00	7.567571e-01	6.304593e+14	7.598195e+14	6.695879e+13	1.159532e+04	4.365195e+03	2.621785e+03	0	1.062751e-03
1.230000e+09	4.881324e+13	0.000000e+00	7.567571e-01	6.234573e+14	7.518962e+14	6.667438e+13	1.156938e+04	4.360379e+03	2.618892e+03	0	1.058023e-03
1.240000e+09	4.816824e+13	0.000000e+00	7.567571e-01	6.165849e+14	7.441157e+14	6.639185e+13	1.154372e+04	4.355609e+03	2.616027e+03	0	1.053342e-03
1.250000e+09	4.753530e+13	0.000000e+00	7.567571e-01	6.098389e+14	7.364745e+14	6.611119e+13	1.151835e+04	4.350887e+03	2.613191e+03	0	1.048708e-03
1.260000e+09	4.691410e+13	0.000000e+00	7.567571e-01	6.032160e+14	7.289691e+14	6.583237e+13	1.149325e+04	4.346210e+03	2.610382e+03	0	1.044120e-03
1.270000e+09	4.630435e+13	0.000000e+00	7.567571e-01	5.967131e+14	7.215960e+14	6.555539e+13	1.146843e+04	4.341578e+03	2.607600e+03	0	1.039577e-03
1.280000e+09	4.570577e+13	0.000000e+00	7.567571e-01	5.903272e+14	7.143521e+14	6.528024e+13	1.144387e+04	4.336991e+03	2.604844e+03	0	1.035078e-03
1.290000e+09	4.511806e+13	0.000000e+00	7.567571e-01	5.840554e+14	7.072341e+14	6.500689e+13	1.141958e+04	4.332447e+03	2.602115e+03	0	1.030622e-03
1.300000e+09	4.454097e+13	0.000000e+00	7.567571e-01	5.778948e+14	7.002390e+14	6.473534e+13	1.139554e+04	4.327945e+03	2.599412e+03	0	1.026209e-03
1.310000e+09	4.397422e+13	0.000000e+00	7.567571e-01	5.718429e+14	6.933637e+14	6.446557e+13	1.137175e+04	4.323486e+03	2.596734e+03	0	1.021838e-03
1.320000e+09	4.341756e+13	0.000000e+00	7.567571e-01	5.658968e+14	6.866054e+14	6.419756e+13	1.134821e+04	4.319069e+03	2.594080e+03	0	1.017508e-03
1.330000e+09	4.287075e+13	0.000000e+00	7.567571e-01	5.600540e+14	6.799613e+14	6.393131e+13	1.132492e+04	4.314692e+03	2.591452e+03	0	1.013218e-03
1.340000e+09	4.233355e+13	0.000000e+00	7.567571e-01	5.543121e+14	6.734287e+14	6.366679e+13	1.130187e+04	4.310355e+03	2.588847e+03	0	1.008968e-03
1.350000e+09	4.180573e+13	0.000000e+00	7.567571e-01	5.486686e+14	6.670049e+14	6.340400e+13	1.127905e+04	4.306057e+03	2.586266e+03	0	1.004757e-03
1.360000e+09	4.128705e+13	0.000000e+00	7.567571e-01	5.431213e+14	6.606874e+14	6.314293e+13	1.125646e+04	4.301799e+03	2.583708e+03	0	1.000585e-03
