#t		Qconv[W]	Ri[Rp]		R*[Rp]		Qc[W]		Qm[W]		Qr[W]		Tcmb[K]		Tl[K]		Tup[K]		RiFlag		Bs[T]
0.000000e+00	1.718460e+15	0.000000e+00	7.567569e-01	1.715123e+16	2.431644e+15	1.319339e+14	2.755991e+04	4.549424e+03	2.714682e+03	0	3.458461e-03
1.000000e+07	1.638407e+15	0.000000e+00	7.567569e-01	1.636084e+16	7.093794e+15	1.312029e+14	2.694432e+04	5.487386e+03	3.274373e+03	0	3.403902e-03
2.000000e+07	1.542247e+15	0.000000e+00	7.567569e-01	1.541335e+16	1.115671e+16	1.304773e+14	2.635635e+04	6.018296e+03	3.591171e+03	0	3.335962e-03
3.000000e+07	1.444891e+15	0.000000e+00	7.567569e-01	1.445461e+16	1.312978e+16	1.297572e+14	2.580172e+04	6.251612e+03	3.730393e+03	0	3.264235e-03
4.000000e+07	1.352920e+15	0.000000e+00	7.567569e-01	1.354893e+16	1.360736e+16	1.290425e+14	2.528096e+04	6.327413e+03	3.775624e+03	0	3.193452e-03
5.000000e+07	1.268103e+15	0.000000e+00	7.567569e-01	1.271360e+16	1.336071e+16	1.283330e+14	2.479225e+04	6.331079e+03	3.777812e+03	0	3.125273e-03
6.000000e+07	1.190490e+15	0.000000e+00	7.567569e-01	1.194907e+16	1.282564e+16	1.276289e+14	2.433317e+04	6.303794e+03	3.761531e+03	0	3.060166e-03
7.000000e+07	1.119596e+15	0.000000e+00	7.567569e-01	1.125056e+16	1.220068e+16	1.269300e+14	2.390126e+04	6.263946e+03	3.737753e+03	0	2.998175e-03
8.000000e+07	1.054801e+15	0.000000e+00	7.567569e-01	1.061198e+16	1.156901e+16	1.262363e+14	2.349419e+04	6.219597e+03	3.711290e+03	0	2.939183e-03
9.000000e+07	9.954854e+14	0.000000e+00	7.567569e-01	1.002726e+16	1.096334e+16	1.255478e+14	2.310988e+04	6.174282e+03	3.684250e+03	0	2.883023e-03
1.000000e+08	9.410779e+14	0.000000e+00	7.567569e-01	9.490778e+15	1.039504e+16	1.248644e+14	2.274642e+04	6.129541e+03	3.657553e+03	0	2.829513e-03
1.100000e+08	8.910661e+14	0.000000e+00	7.567569e-01	8.997510e+15	9.866563e+15	1.241861e+14	2.240213e+04	6.086031e+03	3.631590e+03	0	2.778474e-03
1.200000e+08	8.449963e+14	0.000000e+00	7.567569e-01	8.542999e+15	9.376751e+15	1.235127e+14	2.207547e+04	6.044004e+03	3.606512e+03	0	2.729741e-03
1.300000e+08	8.024685e+14	0.000000e+00	7.567569e-01	8.123319e+15	8.923080e+15	1.228444e+14	2.176509e+04	6.003527e+03	3.582359e+03	0	2.683155e-03
1.400000e+08	7.631303e+14	0.000000e+00	7.567569e-01	7.735009e+15	8.502637e+15	1.221810e+14	2.146974e+04	5.964584e+03	3.559121e+03	0	2.638574e-03
1.500000e+08	7.266711e+14	0.000000e+00	7.567569e-01	7.375020e+15	8.112523e+15	1.215226e+14	2.118833e+04	5.927121e+03	3.536766e+03	0	2.595867e-03
1.600000e+08	6.928167e+14	0.000000e+00	7.567569e-01	7.040657e+15	7.750016e+15	1.208689e+14	2.091985e+04	5.891067e+03	3.515253e+03	0	2.554912e-03
1.700000e+08	6.613243e+14	0.000000e+00	7.567569e-01	6.729537e+15	7.412628e+15	1.202201e+14	2.066338e+04	5.856350e+03	3.494537e+03	0	2.515598e-03
1.800000e+08	6.319786e+14	0.000000e+00	7.567569e-01	6.439544e+15	7.098113e+15	1.195761e+14	2.041810e+04	5.822896e+03	3.474574e+03	0	2.477825e-03
1.900000e+08	6.045880e+14	0.000000e+00	7.567569e-01	6.168795e+15	6.804451e+15	1.189369e+14	2.018327e+04	5.790634e+03	3.455324e+03	0	2.441497e-03
2.000000e+08	5.789818e+14	0.000000e+00	7.567569e-01	5.915612e+15	6.529831e+15	1.183023e+14	1.995819e+04	5.759499e+03	3.436745e+03	0	2.406531e-03
2.100000e+08	5.550073e+14	0.000000e+00	7.567569e-01	5.678498e+15	6.272629e+15	1.176724e+14	1.974224e+04	5.729427e+03	3.418801e+03	0	2.372845e-03
2.200000e+08	5.325280e+14	0.000000e+00	7.567569e-01	5.456107e+15	6.031389e+15	1.170471e+14	1.953484e+04	5.700361e+03	3.401457e+03	0	2.340367e-03
2.300000e+08	5.114210e+14	0.000000e+00	7.567569e-01	5.247233e+15	5.804800e+15	1.164265e+14	1.933548e+04	5.672248e+03	3.384681e+03	0	2.309028e-03
2.400000e+08	4.915761e+14	0.000000e+00	7.567569e-01	5.050793e+15	5.591685e+15	1.158103e+14	1.914367e+04	5.645036e+03	3.368444e+03	0	2.278767e-03
2.500000e+08	4.728936e+14	0.000000e+00	7.567569e-01	4.865806e+15	5.390980e+15	1.151987e+14	1.895895e+04	5.618678e+03	3.352716e+03	0	2.249525e-03
2.600000e+08	4.552837e+14	0.000000e+00	7.567569e-01	4.691390e+15	5.201725e+15	1.145916e+14	1.878094e+04	5.593132e+03	3.337473e+03	0	2.221248e-03
2.700000e+08	4.386650e+14	0.000000e+00	7.567569e-01	4.526743e+15	5.023051e+15	1.139889e+14	1.860923e+04	5.568357e+03	3.322689e+03	0	2.193886e-03
2.800000e+08	4.229636e+14	0.000000e+00	7.567569e-01	4.371140e+15	4.854171e+15	1.133906e+14	1.844349e+04	5.544315e+03	3.308343e+03	0	2.167392e-03
2.900000e+08	4.081126e+14	0.000000e+00	7.567569e-01	4.223920e+15	4.694368e+15	1.127966e+14	1.828339e+04	5.520971e+03	3.294413e+03	0	2.141722e-03
3.000000e+08	3.940508e+14	0.000000e+00	7.567569e-01	4.084484e+15	4.542991e+15	1.122070e+14	1.812863e+04	5.498290e+03	3.280880e+03	0	2.116836e-03
3.100000e+08	3.807226e+14	0.000000e+00	7.567569e-01	3.952284e+15	4.399447e+15	1.116217e+14	1.797893e+04	5.476244e+03	3.267724e+03	0	2.092695e-03
3.200000e+08	3.680773e+14	0.000000e+00	7.567569e-01	3.826819e+15	4.263192e+15	1.110407e+14	1.783403e+04	5.454802e+03	3.254930e+03	0	2.069265e-03
3.300000e+08	3.560682e+14	0.000000e+00	7.567569e-01	3.707633e+15	4.133732e+15	1.104638e+14	1.769369e+04	5.433938e+03	3.242480e+03	0	2.046511e-03
3.400000e+08	3.446529e+14	0.000000e+00	7.567569e-01	3.594306e+15	4.010611e+15	1.098912e+14	1.755767e+04	5.413626e+03	3.230359e+03	0	2.024404e-03
3.500000e+08	3.337923e+14	0.000000e+00	7.567569e-01	3.486453e+15	3.893414e+15	1.093227e+14	1.742578e+04	5.393841e+03	3.218554e+03	0	2.002912e-03
3.600000e+08	3.234504e+14	0.000000e+00	7.567569e-01	3.383721e+15	3.781757e+15	1.087584e+14	1.729781e+04	5.374562e+03	3.207050e+03	0	1.982009e-03
3.700000e+08	3.135942e+14	0.000000e+00	7.567569e-01	3.285785e+15	3.675289e+15	1.081981e+14	1.717357e+04	5.355767e+03	3.195835e+03	0	1.961669e-03
3.800000e+08	3.041933e+14	0.000000e+00	7.567569e-01	3.192345e+15	3.573685e+15	1.076419e+14	1.705290e+04	5.337437e+03	3.184897e+03	0	1.941868e-03
3.900000e+08	2.952196e+14	0.000000e+00	7.567569e-01	3.103125e+15	3.476645e+15	1.070897e+14	1.693563e+04	5.319551e+03	3.174224e+03	0	1.922582e-03
4.000000e+08	2.866472e+14	0.000000e+00	7.567569e-01	3.017869e+15	3.383894e+15	1.065415e+14	1.682162e+04	5.302093e+03	3.163807e+03	0	1.903790e-03
4.100000e+08	2.784521e+14	0.000000e+00	7.567569e-01	2.936340e+15	3.295176e+15	1.059972e+14	1.671071e+04	5.285045e+03	3.153634e+03	0	1.885471e-03
4.200000e+08	2.706121e+14	0.000000e+00	7.567569e-01	2.858321e+15	3.210254e+15	1.054569e+14	1.660277e+04	5.268392e+03	3.143697e+03	0	1.867607e-03
4.300000e+08	2.631066e+14	0.000000e+00	7.567569e-01	2.783608e+15	3.128908e+15	1.049204e+14	1.649767e+04	5.252118e+03	3.133986e+03	0	1.850179e-03
4.400000e+08	2.559165e+14	0.000000e+00	7.567569e-01	2.712013e+15	3.050934e+15	1.043878e+14	1.639530e+04	5.236209e+03	3.124493e+03	0	1.833169e-03
4.500000e+08	2.490240e+14	0.000000e+00	7.567569e-01	2.643360e+15	2.976145e+15	1.038591e+14	1.629555e+04	5.220652e+03	3.115210e+03	0	1.816562e-03
4.600000e+08	2.424126e+14	0.000000e+00	7.567569e-01	2.577487e+15	2.904363e+15	1.033341e+14	1.619830e+04	5.205433e+03	3.106129e+03	0	1.800341e-03
4.700000e+08	2.360670e+14	0.000000e+00	7.567569e-01	2.514243e+15	2.835424e+15	1.028129e+14	1.610345e+04	5.190541e+03	3.097242e+03	0	1.784493e-03
4.800000e+08	2.299727e+14	0.000000e+00	7.567569e-01	2.453486e+15	2.769176e+15	1.022955e+14	1.601092e+04	5.175963e+03	3.088544e+03	0	1.769003e-03
4.900000e+08	2.241165e+14	0.000000e+00	7.567569e-01	2.395084e+15	2.705477e+15	1.017817e+14	1.592060e+04	5.161689e+03	3.080026e+03	0	1.753858e-03
5.000000e+08	2.184858e+14	0.000000e+00	7.567569e-01	2.338913e+15	2.644192e+15	1.012716e+14	1.583242e+04	5.147708e+03	3.071684e+03	0	1.739045e-03
5.100000e+08	2.130690e+14	0.000000e+00	7.567569e-01	2.284860e+15	2.585199e+15	1.007652e+14	1.574629e+04	5.134009e+03	3.063510e+03	0	1.724553e-03
5.200000e+08	2.078551e+14	0.000000e+00	7.567569e-01	2.232815e+15	2.528379e+15	1.002624e+14	1.566214e+04	5.120585e+03	3.055499e+03	0	1.710370e-03
5.300000e+08	2.028339e+14	0.000000e+00	7.567569e-01	2.182679e+15	2.473625e+15	9.976313e+13	1.557990e+04	5.107424e+03	3.047646e+03	0	1.696485e-03
5.400000e+08	1.979959e+14	0.000000e+00	7.567569e-01	2.134356e+15	2.420833e+15	9.926745e+13	1.549948e+04	5.094520e+03	3.039946e+03	0	1.682888e-03
5.500000e+08	1.933320e+14	0.000000e+00	7.567569e-01	2.087758e+15	2.369909e+15	9.877530e+13	1.542084e+04	5.081862e+03	3.032393e+03	0	1.669569e-03
5.600000e+08	1.888337e+14	0.000000e+00	7.567569e-01	2.042801e+15	2.320761e+15	9.828664e+13	1.534390e+04	5.069444e+03	3.024983e+03	0	1.656518e-03
5.700000e+08	1.844932e+14	0.000000e+00	7.567569e-01	1.999408e+15	2.273306e+15	9.780145e+13	1.526860e+04	5.057258e+03	3.017712e+03	0	1.643728e-03
5.800000e+08	1.803030e+14	0.000000e+00	7.567569e-01	1.957504e+15	2.227464e+15	9.731971e+13	1.519490e+04	5.045296e+03	3.010574e+03	0	1.631188e-03
5.900000e+08	1.762561e+14	0.000000e+00	7.567569e-01	1.917020e+15	2.183160e+15	9.684138e+13	1.512273e+04	5.033552e+03	3.003566e+03	0	1.618892e-03
6.000000e+08	1.723458e+14	0.000000e+00	7.567569e-01	1.877891e+15	2.140323e+15	9.636644e+13	1.505204e+04	5.022019e+03	2.996684e+03	0	1.606830e-03
6.100000e+08	1.685660e+14	0.000000e+00	7.567569e-01	1.840055e+15	2.098887e+15	9.589485e+13	1.498278e+04	5.010690e+03	2.989924e+03	0	1.594997e-03
6.200000e+08	1.649108e+14	0.000000e+00	7.567569e-01	1.803454e+15	2.058789e+15	9.542660e+13	1.491492e+04	4.999560e+03	2.983283e+03	0	1.583383e-03
6.300000e+08	1.613745e+14	0.000000e+00	7.567569e-01	1.768035e+15	2.019971e+15	9.496166e+13	1.484839e+04	4.988623e+03	2.976756e+03	0	1.571984e-03
6.400000e+08	1.579520e+14	0.000000e+00	7.567569e-01	1.733744e+15	1.982375e+15	9.449999e+13	1.478316e+04	4.977872e+03	2.970341e+03	0	1.560791e-03
6.500000e+08	1.546384e+14	0.000000e+00	7.567569e-01	1.700533e+15	1.945950e+15	9.404158e+13	1.471920e+04	4.967303e+03	2.964034e+03	0	1.549800e-03
6.600000e+08	1.514289e+14	0.000000e+00	7.567569e-01	1.668355e+15	1.910645e+15	9.358639e+13	1.465644e+04	4.956910e+03	2.957833e+03	0	1.539003e-03
6.700000e+08	1.483191e+14	0.000000e+00	7.567569e-01	1.637168e+15	1.876413e+15	9.313440e+13	1.459487e+04	4.946689e+03	2.951734e+03	0	1.528395e-03
6.800000e+08	1.453049e+14	0.000000e+00	7.567569e-01	1.606929e+15	1.843209e+15	9.268558e+13	1.453445e+04	4.936634e+03	2.945734e+03	0	1.517970e-03
6.900000e+08	1.423822e+14	0.000000e+00	7.567569e-01	1.577599e+15	1.810992e+15	9.223992e+13	1.447513e+04	4.926742e+03	2.939831e+03	0	1.507723e-03
7.000000e+08	1.395473e+14	0.000000e+00	7.567569e-01	1.549141e+15	1.779720e+15	9.179738e+13	1.441689e+04	4.917007e+03	2.934022e+03	0	1.497650e-03
7.100000e+08	1.367966e+14	0.000000e+00	7.567569e-01	1.521520e+15	1.749355e+15	9.135793e+13	1.435969e+04	4.907425e+03	2.928305e+03	0	1.487744e-03
7.200000e+08	1.341268e+14	0.000000e+00	7.567569e-01	1.494701e+15	1.719862e+15	9.092156e+13	1.430351e+04	4.897993e+03	2.922677e+03	0	1.478002e-03
7.300000e+08	1.315346e+14	0.000000e+00	7.567569e-01	1.468655e+15	1.691205e+15	9.048824e+13	1.424831e+04	4.888706e+03	2.917135e+03	0	1.468418e-03
7.400000e+08	1.290169e+14	0.000000e+00	7.567569e-01	1.443349e+15	1.663352e+15	9.005795e+13	1.419407e+04	4.879561e+03	2.911678e+03	0	1.458989e-03
7.500000e+08	1.265709e+14	0.000000e+00	7.567569e-01	1.418755e+15	1.636273e+15	8.963065e+13	1.414076e+04	4.870553e+03	2.906303e+03	0	1.449710e-03
7.600000e+08	1.241937e+14	0.000000e+00	7.567569e-01	1.394846e+15	1.609937e+15	8.920633e+13	1.408836e+04	4.861680e+03	2.901008e+03	0	1.440576e-03
7.700000e+08	1.218828e+14	0.000000e+00	7.567569e-01	1.371597e+15	1.584316e+15	8.878496e+13	1.403683e+04	4.852938e+03	2.895792e+03	0	1.431585e-03
7.800000e+08	1.196357e+14	0.000000e+00	7.567569e-01	1.348981e+15	1.559384e+15	8.836653e+13	1.398615e+04	4.844323e+03	2.890651e+03	0	1.422733e-03
7.900000e+08	1.174499e+14	0.000000e+00	7.567569e-01	1.326975e+15	1.535115e+15	8.795099e+13	1.393631e+04	4.835833e+03	2.885585e+03	0	1.414015e-03
8.000000e+08	1.153232e+14	0.000000e+00	7.567569e-01	1.305558e+15	1.511484e+15	8.753834e+13	1.388727e+04	4.827464e+03	2.880591e+03	0	1.405428e-03
8.100000e+08	1.132534e+14	0.000000e+00	7.567569e-01	1.284707e+15	1.488469e+15	8.712855e+13	1.383903e+04	4.819214e+03	2.875668e+03	0	1.396969e-03
8.200000e+08	1.112384e+14	0.000000e+00	7.567569e-01	1.264402e+15	1.466047e+15	8.672159e+13	1.379155e+04	4.811079e+03	2.870814e+03	0	1.388635e-03
8.300000e+08	1.092763e+14	0.000000e+00	7.567569e-01	1.244623e+15	1.444197e+15	8.631745e+13	1.374481e+04	4.803057e+03	2.866027e+03	0	1.380422e-03
8.400000e+08	1.073652e+14	0.000000e+00	7.567569e-01	1.225352e+15	1.422899e+15	8.591610e+13	1.369881e+04	4.795145e+03	2.861306e+03	0	1.372327e-03
8.500000e+08	1.055033e+14	0.000000e+00	7.567569e-01	1.206571e+15	1.402134e+15	8.551752e+13	1.365351e+04	4.787341e+03	2.856650e+03	0	1.364348e-03
8.600000e+08	1.036889e+14	0.000000e+00	7.567569e-01	1.188262e+15	1.381883e+15	8.512169e+13	1.360890e+04	4.779642e+03	2.852055e+03	0	1.356481e-03
8.700000e+08	1.019202e+14	0.000000e+00	7.567569e-01	1.170410e+15	1.362128e+15	8.472858e+13	1.356497e+04	4.772045e+03	2.847522e+03	0	1.348725e-03
8.800000e+08	1.001959e+14	0.000000e+00	7.567569e-01	1.153000e+15	1.342853e+15	8.433818e+13	1.352170e+04	4.764549e+03	2.843049e+03	0	1.341075e-03
8.900000e+08	9.851422e+13	0.000000e+00	7.567569e-01	1.136015e+15	1.324042e+15	8.395045e+13	1.347906e+04	4.757151e+03	2.838635e+03	0	1.333530e-03
9.000000e+08	9.687387e+13	0.000000e+00	7.567569e-01	1.119441e+15	1.305679e+15	8.356539e+13	1.343705e+04	4.749848e+03	2.834277e+03	0	1.326087e-03
9.100000e+08	9.527345e+13	0.000000e+00	7.567569e-01	1.103266e+15	1.287749e+15	8.318297e+13	1.339565e+04	4.742639e+03	2.829976e+03	0	1.318744e-03
9.200000e+08	9.371162e+13	0.000000e+00	7.567569e-01	1.087476e+15	1.270238e+15	8.280317e+13	1.335485e+04	4.735522e+03	2.825729e+03	0	1.311498e-03
9.300000e+08	9.218712e+13	0.000000e+00	7.567569e-01	1.072058e+15	1.253132e+15	8.242596e+13	1.331462e+04	4.728495e+03	2.821535e+03	0	1.304347e-03
9.400000e+08	9.069873e+13	0.000000e+00	7.567569e-01	1.057000e+15	1.236419e+15	8.205134e+13	1.327497e+04	4.721555e+03	2.817394e+03	0	1.297289e-03
9.500000e+08	8.924529e+13	0.000000e+00	7.567569e-01	1.042291e+15	1.220086e+15	8.167927e+13	1.323587e+04	4.714701e+03	2.813305e+03	0	1.290322e-03
9.600000e+08	8.782569e+13	0.000000e+00	7.567569e-01	1.027920e+15	1.204121e+15	8.130973e+13	1.319731e+04	4.707931e+03	2.809265e+03	0	1.283444e-03
9.700000e+08	8.643884e+13	0.000000e+00	7.567569e-01	1.013876e+15	1.188513e+15	8.094272e+13	1.315928e+04	4.701243e+03	2.805274e+03	0	1.276653e-03
9.800000e+08	8.508372e+13	0.000000e+00	7.567569e-01	1.000148e+15	1.173249e+15	8.057820e+13	1.312177e+04	4.694636e+03	2.801331e+03	0	1.269946e-03
9.900000e+08	8.375934e+13	0.000000e+00	7.567569e-01	9.867280e+14	1.158321e+15	8.021616e+13	1.308476e+04	4.688107e+03	2.797436e+03	0	1.263322e-03
1.000000e+09	8.246475e+13	0.000000e+00	7.567569e-01	9.736050e+14	1.143717e+15	7.985658e+13	1.304825e+04	4.681656e+03	2.793586e+03	0	1.256780e-03
1.010000e+09	8.119904e+13	0.000000e+00	7.567569e-01	9.607704e+14	1.129427e+15	7.949943e+13	1.301222e+04	4.675280e+03	2.789782e+03	0	1.250317e-03
1.020000e+09	7.996132e+13	0.000000e+00	7.567569e-01	9.482157e+14	1.115443e+15	7.914471e+13	1.297666e+04	4.668978e+03	2.786021e+03	0	1.243931e-03
1.030000e+09	7.875076e+13	0.000000e+00	7.567569e-01	9.359322e+14	1.101755e+15	7.879238e+13	1.294157e+04	4.662749e+03	2.782305e+03	0	1.237622e-03
1.040000e+09	7.756654e+13	0.000000e+00	7.567569e-01	9.239121e+14	1.088355e+15	7.844244e+13	1.290693e+04	4.656591e+03	2.778630e+03	0	1.231387e-03
1.050000e+09	7.640788e+13	0.000000e+00	7.567569e-01	9.121474e+14	1.075233e+15	7.809486e+13	1.287273e+04	4.650503e+03	2.774997e+03	0	1.225225e-03
1.060000e+09	7.527402e+13	0.000000e+00	7.567569e-01	9.006309e+14	1.062383e+15	7.774962e+13	1.283897e+04	4.644483e+03	2.771405e+03	0	1.219134e-03
1.070000e+09	7.416425e+13	0.000000e+00	7.567569e-01	8.893551e+14	1.049795e+15	7.740671e+13	1.280563e+04	4.638531e+03	2.767853e+03	0	1.213113e-03
1.080000e+09	7.307786e+13	0.000000e+00	7.567569e-01	8.783133e+14	1.037463e+15	7.706611e+13	1.277270e+04	4.632644e+03	2.764340e+03	0	1.207161e-03
1.090000e+09	7.201418e+13	0.000000e+00	7.567569e-01	8.674987e+14	1.025380e+15	7.672780e+13	1.274019e+04	4.626821e+03	2.760866e+03	0	1.201275e-03
1.100000e+09	7.097256e+13	0.000000e+00	7.567569e-01	8.569049e+14	1.013537e+15	7.639175e+13	1.270807e+04	4.621062e+03	2.757430e+03	0	1.195455e-03
1.110000e+09	6.995239e+13	0.000000e+00	7.567569e-01	8.465256e+14	1.001930e+15	7.605797e+13	1.267634e+04	4.615365e+03	2.754030e+03	0	1.189700e-03
1.120000e+09	6.895305e+13	0.000000e+00	7.567569e-01	8.363550e+14	9.905505e+14	7.572641e+13	1.264500e+04	4.609729e+03	2.750667e+03	0	1.184007e-03
1.130000e+09	6.797397e+13	0.000000e+00	7.567569e-01	8.263872e+14	9.793930e+14	7.539708e+13	1.261403e+04	4.604153e+03	2.747340e+03	0	1.178376e-03
1.140000e+09	6.701458e+13	0.000000e+00	7.567569e-01	8.166165e+14	9.684513e+14	7.506995e+13	1.258343e+04	4.598635e+03	2.744047e+03	0	1.172806e-03
1.150000e+09	6.607434e+13	0.000000e+00	7.567569e-01	8.070378e+14	9.577196e+14	7.474500e+13	1.255319e+04	4.593175e+03	2.740789e+03	0	1.167295e-03
1.160000e+09	6.515274e+13	0.000000e+00	7.567569e-01	7.976457e+14	9.471923e+14	7.442222e+13	1.252330e+04	4.587772e+03	2.737565e+03	0	1.161843e-03
1.170000e+09	6.424927e+13	0.000000e+00	7.567569e-01	7.884352e+14	9.368640e+14	7.410159e+13	1.249376e+04	4.582424e+03	2.734374e+03	0	1.156447e-03
1.180000e+09	6.336343e+13	0.000000e+00	7.567569e-01	7.794015e+14	9.267292e+14	7.378310e+13	1.246456e+04	4.577131e+03	2.731215e+03	0	1.151108e-03
1.190000e+09	6.249477e+13	0.000000e+00	7.567569e-01	7.705400e+14	9.167831e+14	7.346672e+13	1.243569e+04	4.571891e+03	2.728088e+03	0	1.145823e-03
1.200000e+09	6.164282e+13	0.000000e+00	7.567569e-01	7.618460e+14	9.070207e+14	7.315244e+13	1.240715e+04	4.566704e+03	2.724993e+03	0	1.140593e-03
1.210000e+09	6.080714e+13	0.000000e+00	7.567569e-01	7.533152e+14	8.974371e+14	7.284025e+13	1.237893e+04	4.561568e+03	2.721929e+03	0	1.135415e-03
1.220000e+09	5.998732e+13	0.000000e+00	7.567569e-01	7.449434e+14	8.880279e+14	7.253012e+13	1.235103e+04	4.556484e+03	2.718895e+03	0	1.130289e-03
1.230000e+09	5.918294e+13	0.000000e+00	7.567569e-01	7.367265e+14	8.787886e+14	7.222205e+13	1.232343e+04	4.551449e+03	2.715891e+03	0	1.125214e-03
1.240000e+09	5.839359e+13	0.000000e+00	7.567569e-01	7.286605e+14	8.697149e+14	7.191601e+13	1.229614e+04	4.546464e+03	2.712916e+03	0	1.120190e-03
1.250000e+09	5.761891e+13	0.000000e+00	7.567569e-01	7.207416e+14	8.608026e+14	7.161199e+13	1.226914e+04	4.541526e+03	2.709970e+03	0	1.115214e-03
1.260000e+09	5.685851e+13	0.000000e+00	7.567569e-01	7.129662e+14	8.520477e+14	7.130998e+13	1.224244e+04	4.536637e+03	2.707052e+03	0	1.110286e-03
1.270000e+09	5.611204e+13	0.000000e+00	7.567569e-01	7.053305e+14	8.434463e+14	7.100996e+13	1.221602e+04	4.531794e+03	2.704162e+03	0	1.105406e-03
1.280000e+09	5.537914e+13	0.000000e+00	7.567569e-01	6.978311e+14	8.349947e+14	7.071191e+13	1.218989e+04	4.526996e+03	2.701300e+03	0	1.100572e-03
1.290000e+09	5.465949e+13	0.000000e+00	7.567569e-01	6.904647e+14	8.266892e+14	7.041581e+13	1.216403e+04	4.522244e+03	2.698464e+03	0	1.095784e-03
1.300000e+09	5.395274e+13	0.000000e+00	7.567569e-01	6.832280e+14	8.185262e+14	7.012167e+13	1.213845e+04	4.517536e+03	2.695655e+03	0	1.091041e-03
1.310000e+09	5.325859e+13	0.000000e+00	7.567569e-01	6.761179e+14	8.105022e+14	6.982945e+13	1.211313e+04	4.512872e+03	2.692872e+03	0	1.086341e-03
1.320000e+09	5.257673e+13	0.000000e+00	7.567569e-01	6.691312e+14	8.026141e+14	6.953914e+13	1.208808e+04	4.508251e+03	2.690114e+03	0	1.081685e-03
1.330000e+09	5.190686e+13	0.000000e+00	7.567569e-01	6.622651e+14	7.948585e+14	6.925073e+13	1.206328e+04	4.503672e+03	2.687382e+03	0	1.077072e-03
1.340000e+09	5.124869e+13	0.000000e+00	7.567569e-01	6.555166e+14	7.872324e+14	6.896421e+13	1.203874e+04	4.499135e+03	2.684674e+03	0	1.072500e-03
1.350000e+09	5.060195e+13	0.000000e+00	7.567569e-01	6.488829e+14	7.797326e+14	6.867956e+13	1.201444e+04	4.494638e+03	2.681991e+03	0	1.067970e-03
1.360000e+09	4.996636e+13	0.000000e+00	7.567569e-01	6.423614e+14	7.723563e+14	6.839676e+13	1.199039e+04	4.490182e+03	2.679332e+03	0	1.063479e-03
