#t		Qconv[W]	Ri[Rp]		R*[Rp]		Qc[W]		Qm[W]		Qr[W]		Tcmb[K]		Tl[K]		Tup[K]		RiFlag		Bs[T]
0.000000e+00	1.180638e+13	0.000000e+00	7.636365e-01	3.232869e+14	7.537121e+14	1.524077e+14	1.155953e+04	3.681239e+03	2.797059e+03	0	6.502447e-04
1.000000e+07	1.152090e+13	0.000000e+00	7.636365e-01	3.205824e+14	7.314029e+14	1.515633e+14	1.155009e+04	3.665721e+03	2.785269e+03	0	6.449610e-04
2.000000e+07	1.124762e+13	0.000000e+00	7.636365e-01	3.179873e+14	7.109581e+14	1.507251e+14	1.154072e+04	3.651237e+03	2.774264e+03	0	6.398205e-04
3.000000e+07	1.098551e+13	0.000000e+00	7.636365e-01	3.154924e+14	6.921623e+14	1.498933e+14	1.153143e+04	3.637693e+03	2.763973e+03	0	6.348113e-04
4.000000e+07	1.073367e+13	0.000000e+00	7.636365e-01	3.130898e+14	6.748310e+14	1.490676e+14	1.152221e+04	3.625004e+03	2.754331e+03	0	6.299229e-04
5.000000e+07	1.049130e+13	0.000000e+00	7.636365e-01	3.107723e+14	6.588054e+14	1.482481e+14	1.151306e+04	3.613096e+03	2.745283e+03	0	6.251454e-04
6.000000e+07	1.025766e+13	0.000000e+00	7.636365e-01	3.085334e+14	6.439478e+14	1.474347e+14	1.150398e+04	3.601901e+03	2.736778e+03	0	6.204700e-04
7.000000e+07	1.003212e+13	0.000000e+00	7.636365e-01	3.063673e+14	6.301387e+14	1.466274e+14	1.149497e+04	3.591362e+03	2.728770e+03	0	6.158886e-04
8.000000e+07	9.814083e+12	0.000000e+00	7.636365e-01	3.042688e+14	6.172738e+14	1.458260e+14	1.148602e+04	3.581424e+03	2.721219e+03	0	6.113940e-04
9.000000e+07	9.603024e+12	0.000000e+00	7.636365e-01	3.022331e+14	6.052616e+14	1.450307e+14	1.147713e+04	3.572040e+03	2.714088e+03	0	6.069794e-04
1.000000e+08	9.398464e+12	0.000000e+00	7.636365e-01	3.002561e+14	5.940214e+14	1.442412e+14	1.146830e+04	3.563166e+03	2.707346e+03	0	6.026385e-04
1.100000e+08	9.199969e+12	0.000000e+00	7.636365e-01	2.983339e+14	5.834823e+14	1.434576e+14	1.145952e+04	3.554763e+03	2.700962e+03	0	5.983658e-04
1.200000e+08	9.007145e+12	0.000000e+00	7.636365e-01	2.964629e+14	5.735812e+14	1.426798e+14	1.145081e+04	3.546797e+03	2.694909e+03	0	5.941558e-04
1.300000e+08	8.819631e+12	0.000000e+00	7.636365e-01	2.946399e+14	5.642620e+14	1.419077e+14	1.144214e+04	3.539235e+03	2.689163e+03	0	5.900037e-04
1.400000e+08	8.637098e+12	0.000000e+00	7.636365e-01	2.928620e+14	5.554749e+14	1.411414e+14	1.143353e+04	3.532048e+03	2.683702e+03	0	5.859050e-04
1.500000e+08	8.459245e+12	0.000000e+00	7.636365e-01	2.911265e+14	5.471753e+14	1.403807e+14	1.142498e+04	3.525210e+03	2.678506e+03	0	5.818555e-04
1.600000e+08	8.285797e+12	0.000000e+00	7.636365e-01	2.894309e+14	5.393230e+14	1.396257e+14	1.141647e+04	3.518695e+03	2.673556e+03	0	5.778512e-04
1.700000e+08	8.116500e+12	0.000000e+00	7.636365e-01	2.877730e+14	5.318822e+14	1.388762e+14	1.140801e+04	3.512482e+03	2.668835e+03	0	5.738885e-04
1.800000e+08	7.951120e+12	0.000000e+00	7.636365e-01	2.861506e+14	5.248204e+14	1.381323e+14	1.139960e+04	3.506550e+03	2.664328e+03	0	5.699639e-04
1.900000e+08	7.789442e+12	0.000000e+00	7.636365e-01	2.845619e+14	5.181083e+14	1.373938e+14	1.139124e+04	3.500880e+03	2.660020e+03	0	5.660742e-04
2.000000e+08	7.631267e+12	0.000000e+00	7.636365e-01	2.830050e+14	5.117196e+14	1.366608e+14	1.138293e+04	3.495456e+03	2.655899e+03	0	5.622164e-04
2.100000e+08	7.476413e+12	0.000000e+00	7.636365e-01	2.814784e+14	5.056301e+14	1.359331e+14	1.137466e+04	3.490261e+03	2.651952e+03	0	5.583875e-04
2.200000e+08	7.324708e+12	0.000000e+00	7.636365e-01	2.799805e+14	4.998181e+14	1.352108e+14	1.136643e+04	3.485281e+03	2.648168e+03	0	5.545849e-04
2.300000e+08	7.175997e+12	0.000000e+00	7.636365e-01	2.785099e+14	4.942636e+14	1.344938e+14	1.135825e+04	3.480502e+03	2.644537e+03	0	5.508060e-04
2.400000e+08	7.030131e+12	0.000000e+00	7.636365e-01	2.770654e+14	4.889487e+14	1.337821e+14	1.135011e+04	3.475912e+03	2.641049e+03	0	5.470484e-04
2.500000e+08	6.886976e+12	0.000000e+00	7.636365e-01	2.756455e+14	4.838567e+14	1.330755e+14	1.134201e+04	3.471499e+03	2.637696e+03	0	5.433097e-04
2.600000e+08	6.746405e+12	0.000000e+00	7.636365e-01	2.742494e+14	4.789724e+14	1.323742e+14	1.133396e+04	3.467252e+03	2.634469e+03	0	5.395878e-04
2.700000e+08	6.608301e+12	0.000000e+00	7.636365e-01	2.728758e+14	4.742821e+14	1.316780e+14	1.132594e+04	3.463161e+03	2.631361e+03	0	5.358804e-04
2.800000e+08	6.472552e+12	0.000000e+00	7.636365e-01	2.715238e+14	4.697730e+14	1.309868e+14	1.131797e+04	3.459217e+03	2.628364e+03	0	5.321856e-04
2.900000e+08	6.339058e+12	0.000000e+00	7.636365e-01	2.701925e+14	4.654333e+14	1.303007e+14	1.131004e+04	3.455411e+03	2.625472e+03	0	5.285014e-04
3.000000e+08	6.207721e+12	0.000000e+00	7.636365e-01	2.688811e+14	4.612523e+14	1.296196e+14	1.130214e+04	3.451736e+03	2.622680e+03	0	5.248260e-04
3.100000e+08	6.078452e+12	0.000000e+00	7.636365e-01	2.675886e+14	4.572201e+14	1.289435e+14	1.129428e+04	3.448184e+03	2.619981e+03	0	5.211574e-04
3.200000e+08	5.951168e+12	0.000000e+00	7.636365e-01	2.663145e+14	4.533274e+14	1.282722e+14	1.128646e+04	3.444747e+03	2.617370e+03	0	5.174940e-04
3.300000e+08	5.825788e+12	0.000000e+00	7.636365e-01	2.650579e+14	4.495659e+14	1.276059e+14	1.127868e+04	3.441420e+03	2.614842e+03	0	5.138340e-04
3.400000e+08	5.702241e+12	0.000000e+00	7.636365e-01	2.638182e+14	4.459276e+14	1.269444e+14	1.127093e+04	3.438197e+03	2.612393e+03	0	5.101757e-04
3.500000e+08	5.580455e+12	0.000000e+00	7.636365e-01	2.625947e+14	4.424054e+14	1.262877e+14	1.126322e+04	3.435071e+03	2.610017e+03	0	5.065175e-04
3.600000e+08	5.460366e+12	0.000000e+00	7.636365e-01	2.613870e+14	4.389925e+14	1.256358e+14	1.125555e+04	3.432037e+03	2.607712e+03	0	5.028578e-04
3.700000e+08	5.341912e+12	0.000000e+00	7.636365e-01	2.601943e+14	4.356826e+14	1.249886e+14	1.124791e+04	3.429090e+03	2.605473e+03	0	4.991950e-04
3.800000e+08	5.225035e+12	0.000000e+00	7.636365e-01	2.590163e+14	4.324701e+14	1.243460e+14	1.124030e+04	3.426226e+03	2.603297e+03	0	4.955274e-04
3.900000e+08	5.109682e+12	0.000000e+00	7.636365e-01	2.578525e+14	4.293494e+14	1.237081e+14	1.123273e+04	3.423441e+03	2.601181e+03	0	4.918537e-04
4.000000e+08	4.995800e+12	0.000000e+00	7.636365e-01	2.567023e+14	4.263155e+14	1.230748e+14	1.122520e+04	3.420729e+03	2.599121e+03	0	4.881721e-04
4.100000e+08	4.883340e+12	0.000000e+00	7.636365e-01	2.555653e+14	4.233638e+14	1.224461e+14	1.121770e+04	3.418088e+03	2.597114e+03	0	4.844812e-04
4.200000e+08	4.772258e+12	0.000000e+00	7.636365e-01	2.544411e+14	4.204900e+14	1.218219e+14	1.121023e+04	3.415514e+03	2.595158e+03	0	4.807795e-04
4.300000e+08	4.662510e+12	0.000000e+00	7.636365e-01	2.533293e+14	4.176899e+14	1.212023e+14	1.120279e+04	3.413003e+03	2.593250e+03	0	4.770653e-04
4.400000e+08	4.554054e+12	0.000000e+00	7.636365e-01	2.522296e+14	4.149598e+14	1.205870e+14	1.119539e+04	3.410552e+03	2.591388e+03	0	4.733372e-04
4.500000e+08	4.446851e+12	0.000000e+00	7.636365e-01	2.511416e+14	4.122960e+14	1.199762e+14	1.118802e+04	3.408159e+03	2.589569e+03	0	4.695936e-04
4.600000e+08	4.340866e+12	0.000000e+00	7.636365e-01	2.500650e+14	4.096954e+14	1.193698e+14	1.118068e+04	3.405819e+03	2.587792e+03	0	4.658328e-04
4.700000e+08	4.236062e+12	0.000000e+00	7.636365e-01	2.489994e+14	4.071548e+14	1.187677e+14	1.117337e+04	3.403532e+03	2.586054e+03	0	4.620533e-04
4.800000e+08	4.132407e+12	0.000000e+00	7.636365e-01	2.479445e+14	4.046712e+14	1.181699e+14	1.116609e+04	3.401293e+03	2.584353e+03	0	4.582533e-04
4.900000e+08	4.029868e+12	0.000000e+00	7.636365e-01	2.469002e+14	4.022420e+14	1.175765e+14	1.115884e+04	3.399102e+03	2.582688e+03	0	4.544313e-04
5.000000e+08	3.928417e+12	0.000000e+00	7.636365e-01	2.458660e+14	3.998645e+14	1.169872e+14	1.115163e+04	3.396955e+03	2.581056e+03	0	4.505854e-04
5.100000e+08	3.828025e+12	0.000000e+00	7.636365e-01	2.448417e+14	3.975364e+14	1.164022e+14	1.114444e+04	3.394850e+03	2.579457e+03	0	4.467140e-04
5.200000e+08	3.728663e+12	0.000000e+00	7.636365e-01	2.438272e+14	3.952555e+14	1.158213e+14	1.113728e+04	3.392786e+03	2.577889e+03	0	4.428150e-04
5.300000e+08	3.630308e+12	0.000000e+00	7.636365e-01	2.428221e+14	3.930195e+14	1.152446e+14	1.113016e+04	3.390761e+03	2.576350e+03	0	4.388867e-04
5.400000e+08	3.532933e+12	0.000000e+00	7.636365e-01	2.418262e+14	3.908266e+14	1.146720e+14	1.112306e+04	3.388772e+03	2.574839e+03	0	4.349270e-04
5.500000e+08	3.436515e+12	0.000000e+00	7.636365e-01	2.408394e+14	3.886747e+14	1.141035e+14	1.111599e+04	3.386819e+03	2.573355e+03	0	4.309339e-04
5.600000e+08	3.341032e+12	0.000000e+00	7.636365e-01	2.398613e+14	3.865623e+14	1.135390e+14	1.110895e+04	3.384899e+03	2.571896e+03	0	4.269053e-04
5.700000e+08	3.246463e+12	0.000000e+00	7.636365e-01	2.388919e+14	3.844875e+14	1.129785e+14	1.110194e+04	3.383012e+03	2.570462e+03	0	4.228387e-04
5.800000e+08	3.152786e+12	0.000000e+00	7.636365e-01	2.379310e+14	3.824489e+14	1.124220e+14	1.109496e+04	3.381155e+03	2.569051e+03	0	4.187320e-04
5.900000e+08	3.059983e+12	0.000000e+00	7.636365e-01	2.369782e+14	3.804449e+14	1.118695e+14	1.108800e+04	3.379327e+03	2.567663e+03	0	4.145825e-04
6.000000e+08	2.968033e+12	0.000000e+00	7.636365e-01	2.360336e+14	3.784741e+14	1.113208e+14	1.108108e+04	3.377528e+03	2.566296e+03	0	4.103876e-04
6.100000e+08	2.876921e+12	0.000000e+00	7.636365e-01	2.350969e+14	3.765353e+14	1.107761e+14	1.107418e+04	3.375756e+03	2.564949e+03	0	4.061445e-04
6.200000e+08	2.786627e+12	0.000000e+00	7.636365e-01	2.341680e+14	3.746272e+14	1.102351e+14	1.106731e+04	3.374009e+03	2.563622e+03	0	4.018502e-04
6.300000e+08	2.697136e+12	0.000000e+00	7.636365e-01	2.332466e+14	3.727485e+14	1.096981e+14	1.106046e+04	3.372287e+03	2.562314e+03	0	3.975016e-04
6.400000e+08	2.608431e+12	0.000000e+00	7.636365e-01	2.323328e+14	3.708983e+14	1.091647e+14	1.105365e+04	3.370589e+03	2.561023e+03	0	3.930952e-04
6.500000e+08	2.520498e+12	0.000000e+00	7.636365e-01	2.314262e+14	3.690754e+14	1.086352e+14	1.104685e+04	3.368914e+03	2.559750e+03	0	3.886274e-04
6.600000e+08	2.433322e+12	0.000000e+00	7.636365e-01	2.305269e+14	3.672788e+14	1.081094e+14	1.104009e+04	3.367260e+03	2.558494e+03	0	3.840943e-04
6.700000e+08	2.346888e+12	0.000000e+00	7.636365e-01	2.296346e+14	3.655076e+14	1.075872e+14	1.103335e+04	3.365628e+03	2.557254e+03	0	3.794915e-04
6.800000e+08	2.261184e+12	0.000000e+00	7.636365e-01	2.287493e+14	3.637609e+14	1.070688e+14	1.102664e+04	3.364015e+03	2.556029e+03	0	3.748147e-04
6.900000e+08	2.176195e+12	0.000000e+00	7.636365e-01	2.278708e+14	3.620379e+14	1.065539e+14	1.101995e+04	3.362422e+03	2.554818e+03	0	3.700586e-04
7.000000e+08	2.091910e+12	0.000000e+00	7.636365e-01	2.269990e+14	3.603376e+14	1.060427e+14	1.101329e+04	3.360848e+03	2.553622e+03	0	3.652181e-04
7.100000e+08	2.008316e+12	0.000000e+00	7.636365e-01	2.261338e+14	3.586595e+14	1.055351e+14	1.100666e+04	3.359291e+03	2.552439e+03	0	3.602870e-04
7.200000e+08	1.925401e+12	0.000000e+00	7.636365e-01	2.252751e+14	3.570027e+14	1.050310e+14	1.100005e+04	3.357752e+03	2.551270e+03	0	3.552589e-04
7.300000e+08	1.843155e+12	0.000000e+00	7.636365e-01	2.244228e+14	3.553666e+14	1.045304e+14	1.099346e+04	3.356230e+03	2.550113e+03	0	3.501267e-04
7.400000e+08	1.761566e+12	0.000000e+00	7.636365e-01	2.235768e+14	3.537505e+14	1.040334e+14	1.098690e+04	3.354723e+03	2.548968e+03	0	3.448823e-04
7.500000e+08	1.680624e+12	0.000000e+00	7.636365e-01	2.227369e+14	3.521537e+14	1.035398e+14	1.098037e+04	3.353232e+03	2.547835e+03	0	3.395169e-04
7.600000e+08	1.600318e+12	0.000000e+00	7.636365e-01	2.219032e+14	3.505758e+14	1.030496e+14	1.097386e+04	3.351755e+03	2.546713e+03	0	3.340207e-04
7.700000e+08	1.520639e+12	0.000000e+00	7.636365e-01	2.210754e+14	3.490160e+14	1.025628e+14	1.096737e+04	3.350293e+03	2.545602e+03	0	3.283825e-04
7.800000e+08	1.441578e+12	0.000000e+00	7.636365e-01	2.202536e+14	3.474740e+14	1.020795e+14	1.096091e+04	3.348845e+03	2.544502e+03	0	3.225898e-04
7.900000e+08	1.363124e+12	0.000000e+00	7.636365e-01	2.194376e+14	3.459491e+14	1.015995e+14	1.095447e+04	3.347410e+03	2.543412e+03	0	3.166283e-04
8.000000e+08	1.285269e+12	0.000000e+00	7.636365e-01	2.186274e+14	3.444409e+14	1.011228e+14	1.094805e+04	3.345988e+03	2.542331e+03	0	3.104817e-04
8.100000e+08	1.208005e+12	0.000000e+00	7.636365e-01	2.178228e+14	3.429489e+14	1.006494e+14	1.094166e+04	3.344579e+03	2.541261e+03	0	3.041311e-04
8.200000e+08	1.131322e+12	0.000000e+00	7.636365e-01	2.170238e+14	3.414727e+14	1.001793e+14	1.093530e+04	3.343182e+03	2.540199e+03	0	2.975546e-04
8.300000e+08	1.055213e+12	0.000000e+00	7.636365e-01	2.162304e+14	3.400119e+14	9.971242e+13	1.092895e+04	3.341796e+03	2.539146e+03	0	2.907266e-04
8.400000e+08	9.796702e+11	0.000000e+00	7.636365e-01	2.154424e+14	3.385660e+14	9.924879e+13	1.092263e+04	3.340422e+03	2.538102e+03	0	2.836163e-04
8.500000e+08	9.046851e+11	0.000000e+00	7.636365e-01	2.146597e+14	3.371347e+14	9.878835e+13	1.091633e+04	3.339059e+03	2.537066e+03	0	2.761873e-04
8.600000e+08	8.302504e+11	0.000000e+00	7.636365e-01	2.138824e+14	3.357175e+14	9.833109e+13	1.091006e+04	3.337706e+03	2.536039e+03	0	2.683949e-04
8.700000e+08	7.563590e+11	0.000000e+00	7.636365e-01	2.131103e+14	3.343142e+14	9.787698e+13	1.090381e+04	3.336364e+03	2.535019e+03	0	2.601840e-04
8.800000e+08	6.830038e+11	0.000000e+00	7.636365e-01	2.123433e+14	3.329244e+14	9.742599e+13	1.089758e+04	3.335032e+03	2.534006e+03	0	2.514851e-04
8.900000e+08	6.101778e+11	0.000000e+00	7.636365e-01	2.115815e+14	3.315478e+14	9.697810e+13	1.089137e+04	3.333709e+03	2.533002e+03	0	2.422089e-04
9.000000e+08	5.378743e+11	0.000000e+00	7.636365e-01	2.108247e+14	3.301840e+14	9.653328e+13	1.088518e+04	3.332396e+03	2.532004e+03	0	2.322371e-04
9.100000e+08	4.660867e+11	0.000000e+00	7.636365e-01	2.100729e+14	3.288328e+14	9.609152e+13	1.087902e+04	3.331092e+03	2.531013e+03	0	2.214081e-04
9.200000e+08	3.948087e+11	0.000000e+00	7.636365e-01	2.093260e+14	3.274939e+14	9.565278e+13	1.087288e+04	3.329797e+03	2.530029e+03	0	2.094917e-04
9.300000e+08	3.240340e+11	0.000000e+00	7.636365e-01	2.085840e+14	3.261671e+14	9.521704e+13	1.086676e+04	3.328511e+03	2.529052e+03	0	1.961409e-04
9.400000e+08	2.537566e+11	0.000000e+00	7.636365e-01	2.078468e+14	3.248519e+14	9.478427e+13	1.086066e+04	3.327233e+03	2.528081e+03	0	1.807911e-04
9.500000e+08	1.839706e+11	0.000000e+00	7.636365e-01	2.071144e+14	3.235483e+14	9.435447e+13	1.085459e+04	3.325964e+03	2.527116e+03	0	1.624130e-04
9.600000e+08	1.146700e+11	0.000000e+00	7.636365e-01	2.063866e+14	3.222559e+14	9.392759e+13	1.084853e+04	3.324702e+03	2.526157e+03	0	1.387356e-04
9.700000e+08	4.584939e+10	0.000000e+00	7.636365e-01	2.056635e+14	3.209746e+14	9.350362e+13	1.084250e+04	3.323448e+03	2.525205e+03	0	1.022074e-04
9.800000e+08	-2.249690e+10	0.000000e+00	7.636365e-01	2.049450e+14	3.197041e+14	9.308253e+13	1.083649e+04	3.322202e+03	2.524258e+03	0	nan
