#t		Qconv[W]	Ri[Rp]		R*[Rp]		Qc[W]		Qm[W]		Qr[W]		Tcmb[K]		Tl[K]		Tup[K]		RiFlag		Bs[T]
0.000000e+00	3.160289e+12	0.000000e+00	5.376885e-01	7.675693e+13	2.272919e+15	1.922373e+14	5.901172e+03	3.929060e+03	2.214181e+03	0	5.022589e-04
1.000000e+07	3.136497e+12	0.000000e+00	5.376885e-01	7.630001e+13	2.000825e+15	1.911722e+14	5.892378e+03	3.829874e+03	2.158285e+03	0	5.009953e-04
2.000000e+07	3.096042e+12	0.000000e+00	5.376885e-01	7.554419e+13	1.781004e+15	1.901150e+14	5.883635e+03	3.743612e+03	2.109673e+03	0	4.988320e-04
3.000000e+07	3.045642e+12	0.000000e+00	5.376885e-01	7.461014e+13	1.600724e+15	1.890657e+14	5.874978e+03	3.667845e+03	2.066975e+03	0	4.961104e-04
4.000000e+07	2.989569e+12	0.000000e+00	5.376885e-01	7.357462e+13	1.450886e+15	1.880243e+14	5.866428e+03	3.600721e+03	2.029148e+03	0	4.930469e-04
5.000000e+07	2.930568e+12	0.000000e+00	5.376885e-01	7.248695e+13	1.324864e+15	1.869906e+14	5.857995e+03	3.540803e+03	1.995382e+03	0	4.897818e-04
6.000000e+07	2.870419e+12	0.000000e+00	5.376885e-01	7.137908e+13	1.217744e+15	1.859647e+14	5.849686e+03	3.486959e+03	1.965039e+03	0	4.864077e-04
7.000000e+07	2.810271e+12	0.000000e+00	5.376885e-01	7.027168e+13	1.125823e+15	1.849463e+14	5.841504e+03	3.438287e+03	1.937611e+03	0	4.829863e-04
8.000000e+07	2.750868e+12	0.000000e+00	5.376885e-01	6.917806e+13	1.046270e+15	1.839356e+14	5.833448e+03	3.394057e+03	1.912685e+03	0	4.795589e-04
9.000000e+07	2.692678e+12	0.000000e+00	5.376885e-01	6.810665e+13	9.768881e+14	1.829324e+14	5.825516e+03	3.353672e+03	1.889927e+03	0	4.761533e-04
1.000000e+08	2.635989e+12	0.000000e+00	5.376885e-01	6.706260e+13	9.159539e+14	1.819366e+14	5.817707e+03	3.316641e+03	1.869058e+03	0	4.727882e-04
1.100000e+08	2.580968e+12	0.000000e+00	5.376885e-01	6.604888e+13	8.620977e+14	1.809482e+14	5.810018e+03	3.282553e+03	1.849848e+03	0	4.694755e-04
1.200000e+08	2.527696e+12	0.000000e+00	5.376885e-01	6.506696e+13	8.142205e+14	1.799671e+14	5.802444e+03	3.251064e+03	1.832103e+03	0	4.662230e-04
1.300000e+08	2.476203e+12	0.000000e+00	5.376885e-01	6.411734e+13	7.714320e+14	1.789933e+14	5.794982e+03	3.221881e+03	1.815657e+03	0	4.630353e-04
1.400000e+08	2.426478e+12	0.000000e+00	5.376885e-01	6.319984e+13	7.330038e+14	1.780267e+14	5.787629e+03	3.194757e+03	1.800372e+03	0	4.599149e-04
1.500000e+08	2.378488e+12	0.000000e+00	5.376885e-01	6.231383e+13	6.983359e+14	1.770673e+14	5.780380e+03	3.169476e+03	1.786125e+03	0	4.568627e-04
1.600000e+08	2.332183e+12	0.000000e+00	5.376885e-01	6.145842e+13	6.669296e+14	1.761149e+14	5.773233e+03	3.145856e+03	1.772814e+03	0	4.538785e-04
1.700000e+08	2.287505e+12	0.000000e+00	5.376885e-01	6.063253e+13	6.383680e+14	1.751695e+14	5.766184e+03	3.123734e+03	1.760348e+03	0	4.509614e-04
1.800000e+08	2.244389e+12	0.000000e+00	5.376885e-01	5.983500e+13	6.122998e+14	1.742312e+14	5.759229e+03	3.102973e+03	1.748648e+03	0	4.481101e-04
1.900000e+08	2.202768e+12	0.000000e+00	5.376885e-01	5.906462e+13	5.884275e+14	1.732997e+14	5.752365e+03	3.083447e+03	1.737644e+03	0	4.453228e-04
2.000000e+08	2.162574e+12	0.000000e+00	5.376885e-01	5.832015e+13	5.664975e+14	1.723751e+14	5.745589e+03	3.065050e+03	1.727277e+03	0	4.425976e-04
2.100000e+08	2.123741e+12	0.000000e+00	5.376885e-01	5.760039e+13	5.462926e+14	1.714573e+14	5.738899e+03	3.047686e+03	1.717491e+03	0	4.399323e-04
2.200000e+08	2.086202e+12	0.000000e+00	5.376885e-01	5.690415e+13	5.276258e+14	1.705462e+14	5.732291e+03	3.031269e+03	1.708240e+03	0	4.373249e-04
2.300000e+08	2.049896e+12	0.000000e+00	5.376885e-01	5.623031e+13	5.103353e+14	1.696419e+14	5.725762e+03	3.015724e+03	1.699479e+03	0	4.347731e-04
2.400000e+08	2.014761e+12	0.000000e+00	5.376885e-01	5.557775e+13	4.942805e+14	1.687441e+14	5.719311e+03	3.000982e+03	1.691172e+03	0	4.322748e-04
2.500000e+08	1.980741e+12	0.000000e+00	5.376885e-01	5.494546e+13	4.793387e+14	1.678530e+14	5.712934e+03	2.986983e+03	1.683283e+03	0	4.298279e-04
2.600000e+08	1.947781e+12	0.000000e+00	5.376885e-01	5.433243e+13	4.654025e+14	1.669683e+14	5.706630e+03	2.973671e+03	1.675781e+03	0	4.274304e-04
2.700000e+08	1.915828e+12	0.000000e+00	5.376885e-01	5.373772e+13	4.523773e+14	1.660901e+14	5.700395e+03	2.960997e+03	1.668639e+03	0	4.250802e-04
2.800000e+08	1.884834e+12	0.000000e+00	5.376885e-01	5.316046e+13	4.401799e+14	1.652184e+14	5.694229e+03	2.948917e+03	1.661831e+03	0	4.227754e-04
2.900000e+08	1.854753e+12	0.000000e+00	5.376885e-01	5.259980e+13	4.287362e+14	1.643529e+14	5.688129e+03	2.937389e+03	1.655335e+03	0	4.205142e-04
3.000000e+08	1.825540e+12	0.000000e+00	5.376885e-01	5.205496e+13	4.179809e+14	1.634939e+14	5.682093e+03	2.926376e+03	1.649128e+03	0	4.182948e-04
3.100000e+08	1.797155e+12	0.000000e+00	5.376885e-01	5.152518e+13	4.078553e+14	1.626410e+14	5.676119e+03	2.915844e+03	1.643193e+03	0	4.161155e-04
3.200000e+08	1.769559e+12	0.000000e+00	5.376885e-01	5.100977e+13	3.983074e+14	1.617944e+14	5.670206e+03	2.905762e+03	1.637512e+03	0	4.139747e-04
3.300000e+08	1.742716e+12	0.000000e+00	5.376885e-01	5.050808e+13	3.892903e+14	1.609539e+14	5.664352e+03	2.896103e+03	1.632068e+03	0	4.118707e-04
3.400000e+08	1.716591e+12	0.000000e+00	5.376885e-01	5.001946e+13	3.807621e+14	1.601195e+14	5.658555e+03	2.886839e+03	1.626848e+03	0	4.098022e-04
3.500000e+08	1.691152e+12	0.000000e+00	5.376885e-01	4.954335e+13	3.726848e+14	1.592912e+14	5.652815e+03	2.877946e+03	1.621836e+03	0	4.077678e-04
3.600000e+08	1.666368e+12	0.000000e+00	5.376885e-01	4.907918e+13	3.650245e+14	1.584689e+14	5.647128e+03	2.869404e+03	1.617022e+03	0	4.057660e-04
3.700000e+08	1.642210e+12	0.000000e+00	5.376885e-01	4.862644e+13	3.577500e+14	1.576525e+14	5.641495e+03	2.861190e+03	1.612394e+03	0	4.037956e-04
3.800000e+08	1.618652e+12	0.000000e+00	5.376885e-01	4.818463e+13	3.508336e+14	1.568421e+14	5.635914e+03	2.853287e+03	1.607940e+03	0	4.018554e-04
3.900000e+08	1.595668e+12	0.000000e+00	5.376885e-01	4.775330e+13	3.442496e+14	1.560375e+14	5.630384e+03	2.845677e+03	1.603651e+03	0	3.999443e-04
4.000000e+08	1.573233e+12	0.000000e+00	5.376885e-01	4.733200e+13	3.379749e+14	1.552387e+14	5.624902e+03	2.838343e+03	1.599518e+03	0	3.980611e-04
4.100000e+08	1.551325e+12	0.000000e+00	5.376885e-01	4.692031e+13	3.319885e+14	1.544457e+14	5.619469e+03	2.831271e+03	1.595533e+03	0	3.962047e-04
4.200000e+08	1.529922e+12	0.000000e+00	5.376885e-01	4.651786e+13	3.262709e+14	1.536584e+14	5.614083e+03	2.824447e+03	1.591687e+03	0	3.943742e-04
4.300000e+08	1.509005e+12	0.000000e+00	5.376885e-01	4.612428e+13	3.208045e+14	1.528767e+14	5.608744e+03	2.817857e+03	1.587974e+03	0	3.925686e-04
4.400000e+08	1.488553e+12	0.000000e+00	5.376885e-01	4.573920e+13	3.155731e+14	1.521007e+14	5.603449e+03	2.811489e+03	1.584385e+03	0	3.907870e-04
4.500000e+08	1.468549e+12	0.000000e+00	5.376885e-01	4.536231e+13	3.105618e+14	1.513303e+14	5.598198e+03	2.805333e+03	1.580916e+03	0	3.890286e-04
4.600000e+08	1.448975e+12	0.000000e+00	5.376885e-01	4.499328e+13	3.057569e+14	1.505654e+14	5.592991e+03	2.799376e+03	1.577559e+03	0	3.872924e-04
4.700000e+08	1.429815e+12	0.000000e+00	5.376885e-01	4.463183e+13	3.011458e+14	1.498060e+14	5.587826e+03	2.793611e+03	1.574310e+03	0	3.855777e-04
4.800000e+08	1.411053e+12	0.000000e+00	5.376885e-01	4.427767e+13	2.967168e+14	1.490520e+14	5.582702e+03	2.788026e+03	1.571163e+03	0	3.838838e-04
4.900000e+08	1.392675e+12	0.000000e+00	5.376885e-01	4.393054e+13	2.924592e+14	1.483034e+14	5.577619e+03	2.782614e+03	1.568113e+03	0	3.822099e-04
5.000000e+08	1.374666e+12	0.000000e+00	5.376885e-01	4.359017e+13	2.883630e+14	1.475602e+14	5.572576e+03	2.777366e+03	1.565155e+03	0	3.805553e-04
5.100000e+08	1.357015e+12	0.000000e+00	5.376885e-01	4.325634e+13	2.844190e+14	1.468223e+14	5.567571e+03	2.772274e+03	1.562286e+03	0	3.789194e-04
5.200000e+08	1.339707e+12	0.000000e+00	5.376885e-01	4.292881e+13	2.806187e+14	1.460896e+14	5.562605e+03	2.767332e+03	1.559501e+03	0	3.773016e-04
5.300000e+08	1.322731e+12	0.000000e+00	5.376885e-01	4.260737e+13	2.769541e+14	1.453622e+14	5.557676e+03	2.762532e+03	1.556796e+03	0	3.757011e-04
5.400000e+08	1.306075e+12	0.000000e+00	5.376885e-01	4.229181e+13	2.734177e+14	1.446399e+14	5.552784e+03	2.757868e+03	1.554168e+03	0	3.741176e-04
5.500000e+08	1.289730e+12	0.000000e+00	5.376885e-01	4.198192e+13	2.700029e+14	1.439228e+14	5.547929e+03	2.753334e+03	1.551613e+03	0	3.725503e-04
5.600000e+08	1.273683e+12	0.000000e+00	5.376885e-01	4.167753e+13	2.667031e+14	1.432108e+14	5.543109e+03	2.748924e+03	1.549127e+03	0	3.709988e-04
5.700000e+08	1.257926e+12	0.000000e+00	5.376885e-01	4.137846e+13	2.635123e+14	1.425039e+14	5.538323e+03	2.744634e+03	1.546709e+03	0	3.694625e-04
5.800000e+08	1.242449e+12	0.000000e+00	5.376885e-01	4.108453e+13	2.604250e+14	1.418019e+14	5.533572e+03	2.740456e+03	1.544355e+03	0	3.679411e-04
5.900000e+08	1.227244e+12	0.000000e+00	5.376885e-01	4.079558e+13	2.574359e+14	1.411050e+14	5.528855e+03	2.736388e+03	1.542063e+03	0	3.664339e-04
6.000000e+08	1.212301e+12	0.000000e+00	5.376885e-01	4.051145e+13	2.545403e+14	1.404129e+14	5.524171e+03	2.732424e+03	1.539829e+03	0	3.649406e-04
6.100000e+08	1.197612e+12	0.000000e+00	5.376885e-01	4.023201e+13	2.517334e+14	1.397258e+14	5.519519e+03	2.728560e+03	1.537651e+03	0	3.634607e-04
6.200000e+08	1.183170e+12	0.000000e+00	5.376885e-01	3.995710e+13	2.490110e+14	1.390435e+14	5.514899e+03	2.724792e+03	1.535528e+03	0	3.619938e-04
6.300000e+08	1.168967e+12	0.000000e+00	5.376885e-01	3.968658e+13	2.463691e+14	1.383661e+14	5.510311e+03	2.721115e+03	1.533456e+03	0	3.605394e-04
6.400000e+08	1.154996e+12	0.000000e+00	5.376885e-01	3.942034e+13	2.438040e+14	1.376934e+14	5.505754e+03	2.717527e+03	1.531434e+03	0	3.590974e-04
6.500000e+08	1.141251e+12	0.000000e+00	5.376885e-01	3.915825e+13	2.413119e+14	1.370255e+14	5.501227e+03	2.714024e+03	1.529460e+03	0	3.576671e-04
6.600000e+08	1.127723e+12	0.000000e+00	5.376885e-01	3.890018e+13	2.388897e+14	1.363622e+14	5.496731e+03	2.710602e+03	1.527532e+03	0	3.562484e-04
6.700000e+08	1.114409e+12	0.000000e+00	5.376885e-01	3.864602e+13	2.365341e+14	1.357036e+14	5.492264e+03	2.707259e+03	1.525647e+03	0	3.548408e-04
6.800000e+08	1.101300e+12	0.000000e+00	5.376885e-01	3.839566e+13	2.342423e+14	1.350497e+14	5.487826e+03	2.703991e+03	1.523806e+03	0	3.534440e-04
6.900000e+08	1.088393e+12	0.000000e+00	5.376885e-01	3.814901e+13	2.320113e+14	1.344003e+14	5.483416e+03	2.700795e+03	1.522005e+03	0	3.520577e-04
7.000000e+08	1.075680e+12	0.000000e+00	5.376885e-01	3.790595e+13	2.298386e+14	1.337555e+14	5.479035e+03	2.697669e+03	1.520243e+03	0	3.506817e-04
7.100000e+08	1.063157e+12	0.000000e+00	5.376885e-01	3.766639e+13	2.277217e+14	1.331152e+14	5.474682e+03	2.694610e+03	1.518519e+03	0	3.493155e-04
7.200000e+08	1.050819e+12	0.000000e+00	5.376885e-01	3.743024e+13	2.256582e+14	1.324794e+14	5.470357e+03	2.691615e+03	1.516831e+03	0	3.479589e-04
7.300000e+08	1.038660e+12	0.000000e+00	5.376885e-01	3.719740e+13	2.236459e+14	1.318480e+14	5.466058e+03	2.688683e+03	1.515179e+03	0	3.466117e-04
7.400000e+08	1.026677e+12	0.000000e+00	5.376885e-01	3.696780e+13	2.216827e+14	1.312210e+14	5.461786e+03	2.685810e+03	1.513560e+03	0	3.452735e-04
7.500000e+08	1.014864e+12	0.000000e+00	5.376885e-01	3.674135e+13	2.197666e+14	1.305984e+14	5.457541e+03	2.682996e+03	1.511974e+03	0	3.439442e-04
7.600000e+08	1.003217e+12	0.000000e+00	5.376885e-01	3.651797e+13	2.178957e+14	1.299802e+14	5.453321e+03	2.680237e+03	1.510419e+03	0	3.426234e-04
7.700000e+08	9.917320e+11	0.000000e+00	5.376885e-01	3.629759e+13	2.160682e+14	1.293662e+14	5.449127e+03	2.677531e+03	1.508895e+03	0	3.413109e-04
7.800000e+08	9.804052e+11	0.000000e+00	5.376885e-01	3.608013e+13	2.142825e+14	1.287565e+14	5.444958e+03	2.674878e+03	1.507399e+03	0	3.400065e-04
7.900000e+08	9.692324e+11	0.000000e+00	5.376885e-01	3.586551e+13	2.125369e+14	1.281510e+14	5.440815e+03	2.672275e+03	1.505932e+03	0	3.387100e-04
8.000000e+08	9.582099e+11	0.000000e+00	5.376885e-01	3.565368e+13	2.108298e+14	1.275498e+14	5.436695e+03	2.669720e+03	1.504493e+03	0	3.374211e-04
8.100000e+08	9.473341e+11	0.000000e+00	5.376885e-01	3.544456e+13	2.091598e+14	1.269527e+14	5.432600e+03	2.667212e+03	1.503079e+03	0	3.361397e-04
8.200000e+08	9.366015e+11	0.000000e+00	5.376885e-01	3.523810e+13	2.075257e+14	1.263597e+14	5.428530e+03	2.664749e+03	1.501691e+03	0	3.348654e-04
8.300000e+08	9.260088e+11	0.000000e+00	5.376885e-01	3.503422e+13	2.059259e+14	1.257708e+14	5.424482e+03	2.662330e+03	1.500328e+03	0	3.335982e-04
8.400000e+08	9.155528e+11	0.000000e+00	5.376885e-01	3.483288e+13	2.043593e+14	1.251860e+14	5.420458e+03	2.659953e+03	1.498988e+03	0	3.323379e-04
8.500000e+08	9.052303e+11	0.000000e+00	5.376885e-01	3.463402e+13	2.028247e+14	1.246053e+14	5.416458e+03	2.657617e+03	1.497672e+03	0	3.310841e-04
8.600000e+08	8.950382e+11	0.000000e+00	5.376885e-01	3.443757e+13	2.013209e+14	1.240285e+14	5.412480e+03	2.655320e+03	1.496378e+03	0	3.298369e-04
8.700000e+08	8.849737e+11	0.000000e+00	5.376885e-01	3.424349e+13	1.998469e+14	1.234557e+14	5.408524e+03	2.653061e+03	1.495105e+03	0	3.285959e-04
8.800000e+08	8.750340e+11	0.000000e+00	5.376885e-01	3.405172e+13	1.984016e+14	1.228869e+14	5.404591e+03	2.650840e+03	1.493853e+03	0	3.273611e-04
8.900000e+08	8.652163e+11	0.000000e+00	5.376885e-01	3.386222e+13	1.969841e+14	1.223220e+14	5.400680e+03	2.648654e+03	1.492621e+03	0	3.261321e-04
9.000000e+08	8.555180e+11	0.000000e+00	5.376885e-01	3.367494e+13	1.955934e+14	1.217609e+14	5.396790e+03	2.646503e+03	1.491409e+03	0	3.249090e-04
9.100000e+08	8.459365e+11	0.000000e+00	5.376885e-01	3.348982e+13	1.942286e+14	1.212037e+14	5.392922e+03	2.644386e+03	1.490216e+03	0	3.236915e-04
9.200000e+08	8.364694e+11	0.000000e+00	5.376885e-01	3.330683e+13	1.928888e+14	1.206503e+14	5.389075e+03	2.642301e+03	1.489041e+03	0	3.224795e-04
9.300000e+08	8.271143e+11	0.000000e+00	5.376885e-01	3.312593e+13	1.915733e+14	1.201007e+14	5.385249e+03	2.640248e+03	1.487884e+03	0	3.212727e-04
9.400000e+08	8.178688e+11	0.000000e+00	5.376885e-01	3.294706e+13	1.902812e+14	1.195548e+14	5.381444e+03	2.638225e+03	1.486744e+03	0	3.200712e-04
9.500000e+08	8.087307e+11	0.000000e+00	5.376885e-01	3.277019e+13	1.890119e+14	1.190127e+14	5.377660e+03	2.636232e+03	1.485621e+03	0	3.188747e-04
9.600000e+08	7.996979e+11	0.000000e+00	5.376885e-01	3.259527e+13	1.877645e+14	1.184742e+14	5.373895e+03	2.634268e+03	1.484514e+03	0	3.176830e-04
9.700000e+08	7.907683e+11	0.000000e+00	5.376885e-01	3.242228e+13	1.865384e+14	1.179395e+14	5.370151e+03	2.632332e+03	1.483423e+03	0	3.164962e-04
9.800000e+08	7.819398e+11	0.000000e+00	5.376885e-01	3.225117e+13	1.853329e+14	1.174083e+14	5.366427e+03	2.630423e+03	1.482347e+03	0	3.153139e-04
9.900000e+08	7.732103e+11	0.000000e+00	5.376885e-01	3.208190e+13	1.841474e+14	1.168808e+14	5.362722e+03	2.628540e+03	1.481286e+03	0	3.141361e-04
1.000000e+09	7.645781e+11	0.000000e+00	5.376885e-01	3.191445e+13	1.829814e+14	1.163569e+14	5.359037e+03	2.626683e+03	1.480240e+03	0	3.129628e-04
1.010000e+09	7.560412e+11	0.000000e+00	5.376885e-01	3.174877e+13	1.818342e+14	1.158365e+14	5.355370e+03	2.624851e+03	1.479207e+03	0	3.117936e-04
1.020000e+09	7.475979e+11	0.000000e+00	5.376885e-01	3.158483e+13	1.807052e+14	1.153196e+14	5.351723e+03	2.623043e+03	1.478188e+03	0	3.106286e-04
1.030000e+09	7.392463e+11	0.000000e+00	5.376885e-01	3.142261e+13	1.795939e+14	1.148063e+14	5.348095e+03	2.621259e+03	1.477183e+03	0	3.094675e-04
1.040000e+09	7.309848e+11	0.000000e+00	5.376885e-01	3.126206e+13	1.784999e+14	1.142964e+14	5.344485e+03	2.619497e+03	1.476190e+03	0	3.083104e-04
1.050000e+09	7.228116e+11	0.000000e+00	5.376885e-01	3.110317e+13	1.774226e+14	1.137899e+14	5.340894e+03	2.617758e+03	1.475210e+03	0	3.071570e-04
1.060000e+09	7.147253e+11	0.000000e+00	5.376885e-01	3.094589e+13	1.763616e+14	1.132869e+14	5.337321e+03	2.616040e+03	1.474242e+03	0	3.060073e-04
1.070000e+09	7.067242e+11	0.000000e+00	5.376885e-01	3.079021e+13	1.753164e+14	1.127872e+14	5.333766e+03	2.614343e+03	1.473286e+03	0	3.048611e-04
1.080000e+09	6.988068e+11	0.000000e+00	5.376885e-01	3.063608e+13	1.742865e+14	1.122910e+14	5.330228e+03	2.612667e+03	1.472341e+03	0	3.037184e-04
1.090000e+09	6.909715e+11	0.000000e+00	5.376885e-01	3.048350e+13	1.732716e+14	1.117980e+14	5.326709e+03	2.611010e+03	1.471407e+03	0	3.025790e-04
1.100000e+09	6.832171e+11	0.000000e+00	5.376885e-01	3.033242e+13	1.722712e+14	1.113084e+14	5.323207e+03	2.609373e+03	1.470485e+03	0	3.014428e-04
1.110000e+09	6.755420e+11	0.000000e+00	5.376885e-01	3.018283e+13	1.712850e+14	1.108220e+14	5.319722e+03	2.607755e+03	1.469573e+03	0	3.003098e-04
1.120000e+09	6.679450e+11	0.000000e+00	5.376885e-01	3.003469e+13	1.703125e+14	1.103389e+14	5.316254e+03	2.606155e+03	1.468671e+03	0	2.991798e-04
1.130000e+09	6.604246e+11	0.000000e+00	5.376885e-01	2.988799e+13	1.693535e+14	1.098591e+14	5.312804e+03	2.604573e+03	1.467780e+03	0	2.980527e-04
1.140000e+09	6.529796e+11	0.000000e+00	5.376885e-01	2.974270e+13	1.684076e+14	1.093824e+14	5.309370e+03	2.603009e+03	1.466898e+03	0	2.969285e-04
1.150000e+09	6.456087e+11	0.000000e+00	5.376885e-01	2.959880e+13	1.674744e+14	1.089089e+14	5.305953e+03	2.601461e+03	1.466026e+03	0	2.958070e-04
1.160000e+09	6.383106e+11	0.000000e+00	5.376885e-01	2.945626e+13	1.665536e+14	1.084386e+14	5.302552e+03	2.599930e+03	1.465163e+03	0	2.946882e-04
1.170000e+09	6.310843e+11	0.000000e+00	5.376885e-01	2.931506e+13	1.656449e+14	1.079714e+14	5.299168e+03	2.598416e+03	1.464310e+03	0	2.935719e-04
1.180000e+09	6.239285e+11	0.000000e+00	5.376885e-01	2.917518e+13	1.647480e+14	1.075074e+14	5.295800e+03	2.596917e+03	1.463465e+03	0	2.924581e-04
1.190000e+09	6.168420e+11	0.000000e+00	5.376885e-01	2.903660e+13	1.638626e+14	1.070464e+14	5.292448e+03	2.595433e+03	1.462629e+03	0	2.913466e-04
1.200000e+09	6.098238e+11	0.000000e+00	5.376885e-01	2.889931e+13	1.629885e+14	1.065885e+14	5.289112e+03	2.593964e+03	1.461801e+03	0	2.902375e-04
1.210000e+09	6.028728e+11	0.000000e+00	5.376885e-01	2.876327e+13	1.621254e+14	1.061336e+14	5.285792e+03	2.592510e+03	1.460982e+03	0	2.891305e-04
1.220000e+09	5.959879e+11	0.000000e+00	5.376885e-01	2.862847e+13	1.612729e+14	1.056817e+14	5.282487e+03	2.591071e+03	1.460171e+03	0	2.880257e-04
1.230000e+09	5.891681e+11	0.000000e+00	5.376885e-01	2.849489e+13	1.604309e+14	1.052328e+14	5.279198e+03	2.589645e+03	1.459367e+03	0	2.869228e-04
1.240000e+09	5.824124e+11	0.000000e+00	5.376885e-01	2.836251e+13	1.595992e+14	1.047869e+14	5.275924e+03	2.588233e+03	1.458571e+03	0	2.858219e-04
1.250000e+09	5.757198e+11	0.000000e+00	5.376885e-01	2.823132e+13	1.587774e+14	1.043439e+14	5.272665e+03	2.586834e+03	1.457783e+03	0	2.847229e-04
1.260000e+09	5.690893e+11	0.000000e+00	5.376885e-01	2.810130e+13	1.579654e+14	1.039039e+14	5.269421e+03	2.585448e+03	1.457002e+03	0	2.836256e-04
1.270000e+09	5.625200e+11	0.000000e+00	5.376885e-01	2.797242e+13	1.571629e+14	1.034667e+14	5.266193e+03	2.584075e+03	1.456228e+03	0	2.825301e-04
1.280000e+09	5.560110e+11	0.000000e+00	5.376885e-01	2.784467e+13	1.563697e+14	1.030324e+14	5.262979e+03	2.582715e+03	1.455462e+03	0	2.814361e-04
1.290000e+09	5.495613e+11	0.000000e+00	5.376885e-01	2.771805e+13	1.555857e+14	1.026010e+14	5.259779e+03	2.581366e+03	1.454702e+03	0	2.803437e-04
1.300000e+09	5.431702e+11	0.000000e+00	5.376885e-01	2.759252e+13	1.548105e+14	1.021724e+14	5.256594e+03	2.580030e+03	1.453949e+03	0	2.792527e-04
1.310000e+09	5.368367e+11	0.000000e+00	5.376885e-01	2.746807e+13	1.540442e+14	1.017466e+14	5.253424e+03	2.578705e+03	1.453202e+03	0	2.781631e-04
1.320000e+09	5.305601e+11	0.000000e+00	5.376885e-01	2.734469e+13	1.532863e+14	1.013236e+14	5.250268e+03	2.577391e+03	1.452462e+03	0	2.770747e-04
1.330000e+09	5.243394e+11	0.000000e+00	5.376885e-01	2.722237e+13	1.525368e+14	1.009034e+14	5.247126e+03	2.576088e+03	1.451728e+03	0	2.759876e-04
1.340000e+09	5.181739e+11	0.000000e+00	5.376885e-01	2.710108e+13	1.517956e+14	1.004859e+14	5.243998e+03	2.574797e+03	1.451000e+03	0	2.749016e-04
1.350000e+09	5.120629e+11	0.000000e+00	5.376885e-01	2.698082e+13	1.510623e+14	1.000711e+14	5.240884e+03	2.573516e+03	1.450278e+03	0	2.738166e-04
1.360000e+09	5.060055e+11	0.000000e+00	5.376885e-01	2.686157e+13	1.503369e+14	9.965908e+13	5.237784e+03	2.572245e+03	1.449562e+03	0	2.727326e-04
