#t		Qconv[W]	Ri[Rp]		R*[Rp]		Qc[W]		Qm[W]		Qr[W]		Tcmb[K]		Tl[K]		Tup[K]		RiFlag		Bs[T]
0.000000e+00	1.260398e+13	0.000000e+00	5.276381e-01	2.827352e+14	3.730793e+15	3.839822e+14	9.239508e+03	5.614328e+03	2.461998e+03	0	7.796933e-04
1.000000e+07	1.232054e+13	0.000000e+00	5.276381e-01	2.791700e+14	3.431281e+15	3.818547e+14	9.225113e+03	5.527977e+03	2.424131e+03	0	7.738043e-04
2.000000e+07	1.202759e+13	0.000000e+00	5.276381e-01	2.754949e+14	3.173162e+15	3.797430e+14	9.210899e+03	5.449700e+03	2.389805e+03	0	7.676220e-04
3.000000e+07	1.173082e+13	0.000000e+00	5.276381e-01	2.717772e+14	2.948950e+15	3.776472e+14	9.196871e+03	5.378385e+03	2.358532e+03	0	7.612560e-04
4.000000e+07	1.143415e+13	0.000000e+00	5.276381e-01	2.680634e+14	2.752788e+15	3.755670e+14	9.183031e+03	5.313117e+03	2.329910e+03	0	7.547839e-04
5.000000e+07	1.114026e+13	0.000000e+00	5.276381e-01	2.643852e+14	2.580035e+15	3.735023e+14	9.169379e+03	5.253138e+03	2.303608e+03	0	7.482609e-04
6.000000e+07	1.085096e+13	0.000000e+00	5.276381e-01	2.607640e+14	2.426982e+15	3.714530e+14	9.155914e+03	5.197811e+03	2.279346e+03	0	7.417268e-04
7.000000e+07	1.056745e+13	0.000000e+00	5.276381e-01	2.572141e+14	2.290631e+15	3.694189e+14	9.142632e+03	5.146602e+03	2.256890e+03	0	7.352098e-04
8.000000e+07	1.029049e+13	0.000000e+00	5.276381e-01	2.537445e+14	2.168543e+15	3.674000e+14	9.129531e+03	5.099055e+03	2.236040e+03	0	7.287300e-04
9.000000e+07	1.002056e+13	0.000000e+00	5.276381e-01	2.503606e+14	2.058712e+15	3.653961e+14	9.116605e+03	5.054780e+03	2.216624e+03	0	7.223017e-04
1.000000e+08	9.757900e+12	0.000000e+00	5.276381e-01	2.470653e+14	1.959478e+15	3.634071e+14	9.103851e+03	5.013443e+03	2.198497e+03	0	7.159346e-04
1.100000e+08	9.502587e+12	0.000000e+00	5.276381e-01	2.438594e+14	1.869457e+15	3.614329e+14	9.091265e+03	4.974753e+03	2.181531e+03	0	7.096353e-04
1.200000e+08	9.254602e+12	0.000000e+00	5.276381e-01	2.407427e+14	1.787488e+15	3.594732e+14	9.078841e+03	4.938459e+03	2.165615e+03	0	7.034078e-04
1.300000e+08	9.013843e+12	0.000000e+00	5.276381e-01	2.377138e+14	1.712590e+15	3.575281e+14	9.066575e+03	4.904338e+03	2.150652e+03	0	6.972544e-04
1.400000e+08	8.780156e+12	0.000000e+00	5.276381e-01	2.347710e+14	1.643929e+15	3.555974e+14	9.054464e+03	4.872198e+03	2.136558e+03	0	6.911760e-04
1.500000e+08	8.553352e+12	0.000000e+00	5.276381e-01	2.319118e+14	1.580795e+15	3.536810e+14	9.042501e+03	4.841866e+03	2.123257e+03	0	6.851727e-04
1.600000e+08	8.333218e+12	0.000000e+00	5.276381e-01	2.291337e+14	1.522576e+15	3.517787e+14	9.030684e+03	4.813192e+03	2.110683e+03	0	6.792435e-04
1.700000e+08	8.119528e+12	0.000000e+00	5.276381e-01	2.264340e+14	1.468745e+15	3.498904e+14	9.019008e+03	4.786039e+03	2.098776e+03	0	6.733872e-04
1.800000e+08	7.912050e+12	0.000000e+00	5.276381e-01	2.238099e+14	1.418845e+15	3.480161e+14	9.007469e+03	4.760289e+03	2.087484e+03	0	6.676020e-04
1.900000e+08	7.710548e+12	0.000000e+00	5.276381e-01	2.212584e+14	1.372479e+15	3.461555e+14	8.996063e+03	4.735832e+03	2.076759e+03	0	6.618857e-04
2.000000e+08	7.514790e+12	0.000000e+00	5.276381e-01	2.187769e+14	1.329299e+15	3.443087e+14	8.984787e+03	4.712572e+03	2.066559e+03	0	6.562363e-04
2.100000e+08	7.324548e+12	0.000000e+00	5.276381e-01	2.163625e+14	1.289000e+15	3.424754e+14	8.973638e+03	4.690421e+03	2.056845e+03	0	6.506512e-04
2.200000e+08	7.139599e+12	0.000000e+00	5.276381e-01	2.140126e+14	1.251315e+15	3.406556e+14	8.962610e+03	4.669300e+03	2.047583e+03	0	6.451280e-04
2.300000e+08	6.959726e+12	0.000000e+00	5.276381e-01	2.117246e+14	1.216005e+15	3.388492e+14	8.951702e+03	4.649138e+03	2.038742e+03	0	6.396641e-04
2.400000e+08	6.784724e+12	0.000000e+00	5.276381e-01	2.094959e+14	1.182862e+15	3.370560e+14	8.940911e+03	4.629869e+03	2.030292e+03	0	6.342571e-04
2.500000e+08	6.614391e+12	0.000000e+00	5.276381e-01	2.073241e+14	1.151697e+15	3.352760e+14	8.930233e+03	4.611435e+03	2.022209e+03	0	6.289043e-04
2.600000e+08	6.448536e+12	0.000000e+00	5.276381e-01	2.052070e+14	1.122345e+15	3.335089e+14	8.919665e+03	4.593781e+03	2.014467e+03	0	6.236032e-04
2.700000e+08	6.286978e+12	0.000000e+00	5.276381e-01	2.031423e+14	1.094657e+15	3.317548e+14	8.909204e+03	4.576858e+03	2.007046e+03	0	6.183513e-04
2.800000e+08	6.129542e+12	0.000000e+00	5.276381e-01	2.011280e+14	1.068498e+15	3.300135e+14	8.898849e+03	4.560620e+03	1.999925e+03	0	6.131461e-04
2.900000e+08	5.976062e+12	0.000000e+00	5.276381e-01	1.991620e+14	1.043749e+15	3.282849e+14	8.888596e+03	4.545025e+03	1.993086e+03	0	6.079851e-04
3.000000e+08	5.826378e+12	0.000000e+00	5.276381e-01	1.972424e+14	1.020302e+15	3.265689e+14	8.878443e+03	4.530036e+03	1.986513e+03	0	6.028660e-04
3.100000e+08	5.680342e+12	0.000000e+00	5.276381e-01	1.953675e+14	9.980591e+14	3.248654e+14	8.868388e+03	4.515616e+03	1.980190e+03	0	5.977865e-04
3.200000e+08	5.537809e+12	0.000000e+00	5.276381e-01	1.935354e+14	9.769312e+14	3.231743e+14	8.858428e+03	4.501733e+03	1.974102e+03	0	5.927441e-04
3.300000e+08	5.398643e+12	0.000000e+00	5.276381e-01	1.917445e+14	9.568384e+14	3.214955e+14	8.848561e+03	4.488357e+03	1.968236e+03	0	5.877367e-04
3.400000e+08	5.262716e+12	0.000000e+00	5.276381e-01	1.899933e+14	9.377077e+14	3.198289e+14	8.838785e+03	4.475460e+03	1.962581e+03	0	5.827620e-04
3.500000e+08	5.129902e+12	0.000000e+00	5.276381e-01	1.882803e+14	9.194727e+14	3.181744e+14	8.829098e+03	4.463016e+03	1.957124e+03	0	5.778179e-04
3.600000e+08	5.000086e+12	0.000000e+00	5.276381e-01	1.866040e+14	9.020725e+14	3.165319e+14	8.819499e+03	4.451001e+03	1.951855e+03	0	5.729021e-04
3.700000e+08	4.873156e+12	0.000000e+00	5.276381e-01	1.849632e+14	8.854519e+14	3.149013e+14	8.809984e+03	4.439391e+03	1.946764e+03	0	5.680127e-04
3.800000e+08	4.749005e+12	0.000000e+00	5.276381e-01	1.833564e+14	8.695598e+14	3.132824e+14	8.800553e+03	4.428167e+03	1.941842e+03	0	5.631475e-04
3.900000e+08	4.627534e+12	0.000000e+00	5.276381e-01	1.817826e+14	8.543499e+14	3.116753e+14	8.791204e+03	4.417309e+03	1.937080e+03	0	5.583045e-04
4.000000e+08	4.508645e+12	0.000000e+00	5.276381e-01	1.802406e+14	8.397791e+14	3.100798e+14	8.781935e+03	4.406798e+03	1.932471e+03	0	5.534817e-04
4.100000e+08	4.392248e+12	0.000000e+00	5.276381e-01	1.787291e+14	8.258081e+14	3.084958e+14	8.772744e+03	4.396617e+03	1.928006e+03	0	5.486772e-04
4.200000e+08	4.278255e+12	0.000000e+00	5.276381e-01	1.772473e+14	8.124006e+14	3.069232e+14	8.763630e+03	4.386750e+03	1.923680e+03	0	5.438889e-04
4.300000e+08	4.166584e+12	0.000000e+00	5.276381e-01	1.757941e+14	7.995230e+14	3.053619e+14	8.754592e+03	4.377183e+03	1.919484e+03	0	5.391149e-04
4.400000e+08	4.057155e+12	0.000000e+00	5.276381e-01	1.743685e+14	7.871444e+14	3.038119e+14	8.745627e+03	4.367901e+03	1.915414e+03	0	5.343532e-04
4.500000e+08	3.949892e+12	0.000000e+00	5.276381e-01	1.729695e+14	7.752359e+14	3.022730e+14	8.736735e+03	4.358892e+03	1.911463e+03	0	5.296021e-04
4.600000e+08	3.844724e+12	0.000000e+00	5.276381e-01	1.715965e+14	7.637711e+14	3.007451e+14	8.727914e+03	4.350141e+03	1.907626e+03	0	5.248594e-04
4.700000e+08	3.741582e+12	0.000000e+00	5.276381e-01	1.702484e+14	7.527251e+14	2.992282e+14	8.719163e+03	4.341639e+03	1.903897e+03	0	5.201234e-04
4.800000e+08	3.640401e+12	0.000000e+00	5.276381e-01	1.689246e+14	7.420752e+14	2.977222e+14	8.710481e+03	4.333373e+03	1.900273e+03	0	5.153920e-04
4.900000e+08	3.541117e+12	0.000000e+00	5.276381e-01	1.676242e+14	7.318000e+14	2.962269e+14	8.701866e+03	4.325334e+03	1.896747e+03	0	5.106633e-04
5.000000e+08	3.443671e+12	0.000000e+00	5.276381e-01	1.663465e+14	7.218796e+14	2.947424e+14	8.693317e+03	4.317512e+03	1.893317e+03	0	5.059355e-04
5.100000e+08	3.348005e+12	0.000000e+00	5.276381e-01	1.650908e+14	7.122954e+14	2.932684e+14	8.684833e+03	4.309897e+03	1.889978e+03	0	5.012064e-04
5.200000e+08	3.254065e+12	0.000000e+00	5.276381e-01	1.638565e+14	7.030302e+14	2.918050e+14	8.676413e+03	4.302481e+03	1.886726e+03	0	4.964742e-04
5.300000e+08	3.161798e+12	0.000000e+00	5.276381e-01	1.626430e+14	6.940679e+14	2.903520e+14	8.668056e+03	4.295255e+03	1.883557e+03	0	4.917367e-04
5.400000e+08	3.071154e+12	0.000000e+00	5.276381e-01	1.614495e+14	6.853933e+14	2.889094e+14	8.659761e+03	4.288212e+03	1.880469e+03	0	4.869920e-04
5.500000e+08	2.982085e+12	0.000000e+00	5.276381e-01	1.602756e+14	6.769923e+14	2.874770e+14	8.651526e+03	4.281344e+03	1.877457e+03	0	4.822378e-04
5.600000e+08	2.894545e+12	0.000000e+00	5.276381e-01	1.591206e+14	6.688516e+14	2.860548e+14	8.643351e+03	4.274644e+03	1.874519e+03	0	4.774721e-04
5.700000e+08	2.808488e+12	0.000000e+00	5.276381e-01	1.579841e+14	6.609588e+14	2.846427e+14	8.635235e+03	4.268106e+03	1.871652e+03	0	4.726926e-04
5.800000e+08	2.723874e+12	0.000000e+00	5.276381e-01	1.568655e+14	6.533022e+14	2.832407e+14	8.627177e+03	4.261723e+03	1.868852e+03	0	4.678970e-04
5.900000e+08	2.640662e+12	0.000000e+00	5.276381e-01	1.557643e+14	6.458710e+14	2.818485e+14	8.619175e+03	4.255489e+03	1.866119e+03	0	4.630830e-04
6.000000e+08	2.558811e+12	0.000000e+00	5.276381e-01	1.546801e+14	6.386546e+14	2.804662e+14	8.611230e+03	4.249398e+03	1.863448e+03	0	4.582481e-04
6.100000e+08	2.478286e+12	0.000000e+00	5.276381e-01	1.536123e+14	6.316436e+14	2.790937e+14	8.603340e+03	4.243445e+03	1.860837e+03	0	4.533898e-04
6.200000e+08	2.399049e+12	0.000000e+00	5.276381e-01	1.525606e+14	6.248286e+14	2.777309e+14	8.595504e+03	4.237625e+03	1.858285e+03	0	4.485053e-04
6.300000e+08	2.321065e+12	0.000000e+00	5.276381e-01	1.515246e+14	6.182012e+14	2.763777e+14	8.587722e+03	4.231933e+03	1.855789e+03	0	4.435920e-04
6.400000e+08	2.244303e+12	0.000000e+00	5.276381e-01	1.505037e+14	6.117531e+14	2.750341e+14	8.579993e+03	4.226364e+03	1.853347e+03	0	4.386469e-04
6.500000e+08	2.168729e+12	0.000000e+00	5.276381e-01	1.494977e+14	6.054767e+14	2.736999e+14	8.572315e+03	4.220914e+03	1.850957e+03	0	4.336670e-04
6.600000e+08	2.094313e+12	0.000000e+00	5.276381e-01	1.485061e+14	5.993648e+14	2.723751e+14	8.564689e+03	4.215578e+03	1.848617e+03	0	4.286490e-04
6.700000e+08	2.021024e+12	0.000000e+00	5.276381e-01	1.475286e+14	5.934105e+14	2.710597e+14	8.557113e+03	4.210352e+03	1.846325e+03	0	4.235894e-04
6.800000e+08	1.948835e+12	0.000000e+00	5.276381e-01	1.465649e+14	5.876073e+14	2.697534e+14	8.549587e+03	4.205233e+03	1.844081e+03	0	4.184848e-04
6.900000e+08	1.877718e+12	0.000000e+00	5.276381e-01	1.456145e+14	5.819490e+14	2.684564e+14	8.542110e+03	4.200217e+03	1.841881e+03	0	4.133311e-04
7.000000e+08	1.807646e+12	0.000000e+00	5.276381e-01	1.446773e+14	5.764300e+14	2.671684e+14	8.534681e+03	4.195300e+03	1.839725e+03	0	4.081242e-04
7.100000e+08	1.738593e+12	0.000000e+00	5.276381e-01	1.437528e+14	5.710445e+14	2.658894e+14	8.527300e+03	4.190479e+03	1.837611e+03	0	4.028598e-04
7.200000e+08	1.670535e+12	0.000000e+00	5.276381e-01	1.428407e+14	5.657875e+14	2.646194e+14	8.519967e+03	4.185750e+03	1.835537e+03	0	3.975330e-04
7.300000e+08	1.603448e+12	0.000000e+00	5.276381e-01	1.419408e+14	5.606539e+14	2.633583e+14	8.512679e+03	4.181111e+03	1.833503e+03	0	3.921386e-04
7.400000e+08	1.537309e+12	0.000000e+00	5.276381e-01	1.410529e+14	5.556391e+14	2.621059e+14	8.505438e+03	4.176559e+03	1.831506e+03	0	3.866710e-04
7.500000e+08	1.472095e+12	0.000000e+00	5.276381e-01	1.401765e+14	5.507385e+14	2.608623e+14	8.498241e+03	4.172090e+03	1.829547e+03	0	3.811242e-04
7.600000e+08	1.407786e+12	0.000000e+00	5.276381e-01	1.393115e+14	5.459479e+14	2.596274e+14	8.491089e+03	4.167702e+03	1.827622e+03	0	3.754915e-04
7.700000e+08	1.344359e+12	0.000000e+00	5.276381e-01	1.384576e+14	5.412633e+14	2.584010e+14	8.483982e+03	4.163392e+03	1.825733e+03	0	3.697655e-04
7.800000e+08	1.281796e+12	0.000000e+00	5.276381e-01	1.376145e+14	5.366808e+14	2.571832e+14	8.476918e+03	4.159159e+03	1.823876e+03	0	3.639382e-04
7.900000e+08	1.220077e+12	0.000000e+00	5.276381e-01	1.367821e+14	5.321967e+14	2.559738e+14	8.469896e+03	4.154998e+03	1.822052e+03	0	3.580005e-04
8.000000e+08	1.159183e+12	0.000000e+00	5.276381e-01	1.359600e+14	5.278075e+14	2.547728e+14	8.462917e+03	4.150909e+03	1.820259e+03	0	3.519427e-04
8.100000e+08	1.099095e+12	0.000000e+00	5.276381e-01	1.351481e+14	5.235099e+14	2.535802e+14	8.455980e+03	4.146889e+03	1.818496e+03	0	3.457533e-04
8.200000e+08	1.039797e+12	0.000000e+00	5.276381e-01	1.343461e+14	5.193007e+14	2.523957e+14	8.449085e+03	4.142936e+03	1.816762e+03	0	3.394200e-04
8.300000e+08	9.812710e+11	0.000000e+00	5.276381e-01	1.335539e+14	5.151769e+14	2.512195e+14	8.442230e+03	4.139047e+03	1.815057e+03	0	3.329285e-04
8.400000e+08	9.235006e+11	0.000000e+00	5.276381e-01	1.327712e+14	5.111356e+14	2.500514e+14	8.435416e+03	4.135222e+03	1.813379e+03	0	3.262624e-04
8.500000e+08	8.664698e+11	0.000000e+00	5.276381e-01	1.319979e+14	5.071740e+14	2.488914e+14	8.428641e+03	4.131457e+03	1.811728e+03	0	3.194031e-04
8.600000e+08	8.101633e+11	0.000000e+00	5.276381e-01	1.312337e+14	5.032895e+14	2.477394e+14	8.421906e+03	4.127751e+03	1.810103e+03	0	3.123289e-04
8.700000e+08	7.545659e+11	0.000000e+00	5.276381e-01	1.304784e+14	4.994794e+14	2.465953e+14	8.415209e+03	4.124103e+03	1.808503e+03	0	3.050144e-04
8.800000e+08	6.996631e+11	0.000000e+00	5.276381e-01	1.297320e+14	4.957416e+14	2.454590e+14	8.408552e+03	4.120510e+03	1.806928e+03	0	2.974296e-04
8.900000e+08	6.454407e+11	0.000000e+00	5.276381e-01	1.289941e+14	4.920735e+14	2.443306e+14	8.401932e+03	4.116972e+03	1.805376e+03	0	2.895388e-04
9.000000e+08	5.918851e+11	0.000000e+00	5.276381e-01	1.282647e+14	4.884730e+14	2.432099e+14	8.395350e+03	4.113486e+03	1.803848e+03	0	2.812983e-04
9.100000e+08	5.389829e+11	0.000000e+00	5.276381e-01	1.275436e+14	4.849379e+14	2.420969e+14	8.388804e+03	4.110051e+03	1.802341e+03	0	2.726547e-04
9.200000e+08	4.867212e+11	0.000000e+00	5.276381e-01	1.268305e+14	4.814664e+14	2.409915e+14	8.382296e+03	4.106666e+03	1.800857e+03	0	2.635409e-04
9.300000e+08	4.350874e+11	0.000000e+00	5.276381e-01	1.261255e+14	4.780562e+14	2.398937e+14	8.375824e+03	4.103329e+03	1.799394e+03	0	2.538712e-04
9.400000e+08	3.840694e+11	0.000000e+00	5.276381e-01	1.254282e+14	4.747058e+14	2.388034e+14	8.369388e+03	4.100039e+03	1.797951e+03	0	2.435330e-04
9.500000e+08	3.336554e+11	0.000000e+00	5.276381e-01	1.247387e+14	4.714131e+14	2.377205e+14	8.362987e+03	4.096795e+03	1.796528e+03	0	2.323739e-04
9.600000e+08	2.838337e+11	0.000000e+00	5.276381e-01	1.240566e+14	4.681765e+14	2.366450e+14	8.356622e+03	4.093595e+03	1.795125e+03	0	2.201790e-04
9.700000e+08	2.345933e+11	0.000000e+00	5.276381e-01	1.233819e+14	4.649944e+14	2.355768e+14	8.350291e+03	4.090438e+03	1.793740e+03	0	2.066299e-04
9.800000e+08	1.859232e+11	0.000000e+00	5.276381e-01	1.227145e+14	4.618652e+14	2.345159e+14	8.343995e+03	4.087323e+03	1.792375e+03	0	1.912196e-04
9.900000e+08	1.378129e+11	0.000000e+00	5.276381e-01	1.220542e+14	4.587873e+14	2.334622e+14	8.337732e+03	4.084249e+03	1.791027e+03	0	1.730552e-04
1.000000e+09	9.025202e+10	0.000000e+00	5.276381e-01	1.214009e+14	4.557594e+14	2.324157e+14	8.331504e+03	4.081215e+03	1.789696e+03	0	1.502820e-04
1.010000e+09	4.323060e+10	0.000000e+00	5.276381e-01	1.207545e+14	4.527798e+14	2.313763e+14	8.325308e+03	4.078219e+03	1.788382e+03	0	1.175849e-04
1.020000e+09	-3.261129e+09	0.000000e+00	5.276381e-01	1.201148e+14	4.498475e+14	2.303439e+14	8.319146e+03	4.075262e+03	1.787085e+03	0	nan
