#t		Qconv[W]	Ri[Rp]		R*[Rp]		Qc[W]		Qm[W]		Qr[W]		Tcmb[K]		Tl[K]		Tup[K]		RiFlag		Bs[T]
0.000000e+00	1.798664e+13	0.000000e+00	5.276383e-01	4.873567e+14	4.280265e+15	5.101122e+14	1.127629e+04	6.625952e+03	2.582182e+03	0	8.670227e-04
1.000000e+07	1.744803e+13	0.000000e+00	5.276383e-01	4.815396e+14	4.017654e+15	5.072858e+14	1.125936e+04	6.552369e+03	2.553506e+03	0	8.582805e-04
2.000000e+07	1.690996e+13	0.000000e+00	5.276383e-01	4.757333e+14	3.784224e+15	5.044805e+14	1.124263e+04	6.484367e+03	2.527005e+03	0	8.493656e-04
3.000000e+07	1.637608e+13	0.000000e+00	5.276383e-01	4.699741e+14	3.575653e+15	5.016962e+14	1.122611e+04	6.421317e+03	2.502434e+03	0	8.403311e-04
4.000000e+07	1.584897e+13	0.000000e+00	5.276383e-01	4.642877e+14	3.388399e+15	4.989327e+14	1.120978e+04	6.362683e+03	2.479584e+03	0	8.312165e-04
5.000000e+07	1.533046e+13	0.000000e+00	5.276383e-01	4.586922e+14	3.219535e+15	4.961898e+14	1.119365e+04	6.308005e+03	2.458276e+03	0	8.220512e-04
6.000000e+07	1.482179e+13	0.000000e+00	5.276383e-01	4.531997e+14	3.066626e+15	4.934674e+14	1.117771e+04	6.256887e+03	2.438355e+03	0	8.128566e-04
7.000000e+07	1.432377e+13	0.000000e+00	5.276383e-01	4.478183e+14	2.927633e+15	4.907652e+14	1.116196e+04	6.208982e+03	2.419686e+03	0	8.036486e-04
8.000000e+07	1.383691e+13	0.000000e+00	5.276383e-01	4.425530e+14	2.800837e+15	4.880831e+14	1.114640e+04	6.163989e+03	2.402152e+03	0	7.944381e-04
9.000000e+07	1.336147e+13	0.000000e+00	5.276383e-01	4.374062e+14	2.684781e+15	4.854210e+14	1.113103e+04	6.121645e+03	2.385650e+03	0	7.852330e-04
1.000000e+08	1.289757e+13	0.000000e+00	5.276383e-01	4.323790e+14	2.578222e+15	4.827786e+14	1.111583e+04	6.081716e+03	2.370089e+03	0	7.760381e-04
1.100000e+08	1.244516e+13	0.000000e+00	5.276383e-01	4.274707e+14	2.480095e+15	4.801558e+14	1.110080e+04	6.043997e+03	2.355390e+03	0	7.668562e-04
1.200000e+08	1.200412e+13	0.000000e+00	5.276383e-01	4.226801e+14	2.389485e+15	4.775525e+14	1.108594e+04	6.008305e+03	2.341481e+03	0	7.576882e-04
1.300000e+08	1.157426e+13	0.000000e+00	5.276383e-01	4.180052e+14	2.305597e+15	4.749685e+14	1.107125e+04	5.974478e+03	2.328298e+03	0	7.485339e-04
1.400000e+08	1.115533e+13	0.000000e+00	5.276383e-01	4.134434e+14	2.227743e+15	4.724036e+14	1.105673e+04	5.942369e+03	2.315785e+03	0	7.393917e-04
1.500000e+08	1.074707e+13	0.000000e+00	5.276383e-01	4.089919e+14	2.155322e+15	4.698576e+14	1.104236e+04	5.911847e+03	2.303890e+03	0	7.302593e-04
1.600000e+08	1.034918e+13	0.000000e+00	5.276383e-01	4.046478e+14	2.087807e+15	4.673304e+14	1.102814e+04	5.882797e+03	2.292569e+03	0	7.211336e-04
1.700000e+08	9.961345e+12	0.000000e+00	5.276383e-01	4.004077e+14	2.024736e+15	4.648219e+14	1.101408e+04	5.855110e+03	2.281779e+03	0	7.120105e-04
1.800000e+08	9.583258e+12	0.000000e+00	5.276383e-01	3.962686e+14	1.965700e+15	4.623319e+14	1.100016e+04	5.828691e+03	2.271484e+03	0	7.028859e-04
1.900000e+08	9.214598e+12	0.000000e+00	5.276383e-01	3.922270e+14	1.910338e+15	4.598602e+14	1.098638e+04	5.803453e+03	2.261648e+03	0	6.937546e-04
2.000000e+08	8.855050e+12	0.000000e+00	5.276383e-01	3.882799e+14	1.858328e+15	4.574068e+14	1.097275e+04	5.779317e+03	2.252242e+03	0	6.846114e-04
2.100000e+08	8.504304e+12	0.000000e+00	5.276383e-01	3.844241e+14	1.809387e+15	4.549713e+14	1.095925e+04	5.756210e+03	2.243237e+03	0	6.754502e-04
2.200000e+08	8.162054e+12	0.000000e+00	5.276383e-01	3.806563e+14	1.763257e+15	4.525538e+14	1.094589e+04	5.734066e+03	2.234608e+03	0	6.662649e-04
2.300000e+08	7.828003e+12	0.000000e+00	5.276383e-01	3.769736e+14	1.719712e+15	4.501539e+14	1.093265e+04	5.712825e+03	2.226330e+03	0	6.570485e-04
2.400000e+08	7.501863e+12	0.000000e+00	5.276383e-01	3.733730e+14	1.678545e+15	4.477717e+14	1.091955e+04	5.692431e+03	2.218382e+03	0	6.477938e-04
2.500000e+08	7.183355e+12	0.000000e+00	5.276383e-01	3.698518e+14	1.639572e+15	4.454069e+14	1.090657e+04	5.672833e+03	2.210745e+03	0	6.384931e-04
2.600000e+08	6.872211e+12	0.000000e+00	5.276383e-01	3.664070e+14	1.602626e+15	4.430595e+14	1.089371e+04	5.653985e+03	2.203399e+03	0	6.291380e-04
2.700000e+08	6.568170e+12	0.000000e+00	5.276383e-01	3.630361e+14	1.567557e+15	4.407292e+14	1.088097e+04	5.635842e+03	2.196329e+03	0	6.197196e-04
2.800000e+08	6.270983e+12	0.000000e+00	5.276383e-01	3.597366e+14	1.534228e+15	4.384159e+14	1.086835e+04	5.618365e+03	2.189518e+03	0	6.102282e-04
2.900000e+08	5.980410e+12	0.000000e+00	5.276383e-01	3.565060e+14	1.502516e+15	4.361195e+14	1.085584e+04	5.601516e+03	2.182952e+03	0	6.006536e-04
3.000000e+08	5.696223e+12	0.000000e+00	5.276383e-01	3.533418e+14	1.472307e+15	4.338398e+14	1.084344e+04	5.585261e+03	2.176617e+03	0	5.909845e-04
3.100000e+08	5.418200e+12	0.000000e+00	5.276383e-01	3.502420e+14	1.443499e+15	4.315768e+14	1.083115e+04	5.569569e+03	2.170502e+03	0	5.812087e-04
3.200000e+08	5.146130e+12	0.000000e+00	5.276383e-01	3.472043e+14	1.415997e+15	4.293302e+14	1.081898e+04	5.554409e+03	2.164594e+03	0	5.713129e-04
3.300000e+08	4.879811e+12	0.000000e+00	5.276383e-01	3.442266e+14	1.389716e+15	4.270999e+14	1.080690e+04	5.539753e+03	2.158883e+03	0	5.612824e-04
3.400000e+08	4.619049e+12	0.000000e+00	5.276383e-01	3.413070e+14	1.364576e+15	4.248859e+14	1.079493e+04	5.525577e+03	2.153358e+03	0	5.511011e-04
3.500000e+08	4.363658e+12	0.000000e+00	5.276383e-01	3.384436e+14	1.340506e+15	4.226879e+14	1.078306e+04	5.511856e+03	2.148011e+03	0	5.407510e-04
3.600000e+08	4.113461e+12	0.000000e+00	5.276383e-01	3.356345e+14	1.317439e+15	4.205058e+14	1.077129e+04	5.498566e+03	2.142832e+03	0	5.302120e-04
3.700000e+08	3.868288e+12	0.000000e+00	5.276383e-01	3.328780e+14	1.295313e+15	4.183396e+14	1.075962e+04	5.485689e+03	2.137813e+03	0	5.194615e-04
3.800000e+08	3.627975e+12	0.000000e+00	5.276383e-01	3.301724e+14	1.274072e+15	4.161890e+14	1.074804e+04	5.473203e+03	2.132947e+03	0	5.084737e-04
3.900000e+08	3.392367e+12	0.000000e+00	5.276383e-01	3.275162e+14	1.253665e+15	4.140540e+14	1.073656e+04	5.461089e+03	2.128227e+03	0	4.972194e-04
4.000000e+08	3.161314e+12	0.000000e+00	5.276383e-01	3.249077e+14	1.234041e+15	4.119344e+14	1.072517e+04	5.449332e+03	2.123645e+03	0	4.856645e-04
4.100000e+08	2.934674e+12	0.000000e+00	5.276383e-01	3.223456e+14	1.215158e+15	4.098300e+14	1.071387e+04	5.437914e+03	2.119195e+03	0	4.737694e-04
4.200000e+08	2.712308e+12	0.000000e+00	5.276383e-01	3.198285e+14	1.196972e+15	4.077409e+14	1.070266e+04	5.426820e+03	2.114872e+03	0	4.614877e-04
4.300000e+08	2.494087e+12	0.000000e+00	5.276383e-01	3.173549e+14	1.179447e+15	4.056668e+14	1.069154e+04	5.416036e+03	2.110669e+03	0	4.487636e-04
4.400000e+08	2.279883e+12	0.000000e+00	5.276383e-01	3.149236e+14	1.162545e+15	4.036076e+14	1.068050e+04	5.405547e+03	2.106582e+03	0	4.355299e-04
4.500000e+08	2.069577e+12	0.000000e+00	5.276383e-01	3.125334e+14	1.146235e+15	4.015632e+14	1.066954e+04	5.395342e+03	2.102604e+03	0	4.217039e-04
4.600000e+08	1.863052e+12	0.000000e+00	5.276383e-01	3.101830e+14	1.130483e+15	3.995334e+14	1.065867e+04	5.385408e+03	2.098733e+03	0	4.071821e-04
4.700000e+08	1.660196e+12	0.000000e+00	5.276383e-01	3.078713e+14	1.115263e+15	3.975183e+14	1.064788e+04	5.375733e+03	2.094963e+03	0	3.918323e-04
4.800000e+08	1.460905e+12	0.000000e+00	5.276383e-01	3.055972e+14	1.100545e+15	3.955176e+14	1.063717e+04	5.366307e+03	2.091289e+03	0	3.754808e-04
4.900000e+08	1.265074e+12	0.000000e+00	5.276383e-01	3.033597e+14	1.086307e+15	3.935312e+14	1.062654e+04	5.357120e+03	2.087709e+03	0	3.578924e-04
5.000000e+08	1.072607e+12	0.000000e+00	5.276383e-01	3.011578e+14	1.072522e+15	3.915590e+14	1.061599e+04	5.348161e+03	2.084218e+03	0	3.387354e-04
5.100000e+08	8.834076e+11	0.000000e+00	5.276383e-01	2.989904e+14	1.059170e+15	3.896009e+14	1.060552e+04	5.339422e+03	2.080812e+03	0	3.175174e-04
5.200000e+08	6.973860e+11	0.000000e+00	5.276383e-01	2.968567e+14	1.046230e+15	3.876567e+14	1.059512e+04	5.330893e+03	2.077488e+03	0	2.934527e-04
5.300000e+08	5.144546e+11	0.000000e+00	5.276383e-01	2.947558e+14	1.033682e+15	3.857265e+14	1.058479e+04	5.322567e+03	2.074244e+03	0	2.651527e-04
5.400000e+08	3.345296e+11	0.000000e+00	5.276383e-01	2.926867e+14	1.021508e+15	3.838099e+14	1.057454e+04	5.314436e+03	2.071075e+03	0	2.297164e-04
5.500000e+08	1.575302e+11	0.000000e+00	5.276383e-01	2.906486e+14	1.009690e+15	3.819071e+14	1.056435e+04	5.306492e+03	2.067979e+03	0	1.787180e-04
5.600000e+08	-1.662134e+10	0.000000e+00	5.276383e-01	2.886408e+14	9.982133e+14	3.800177e+14	1.055424e+04	5.298729e+03	2.064953e+03	0	nan
