#t		Qconv[W]	Ri[Rp]		R*[Rp]		Qc[W]		Qm[W]		Qr[W]		Tcmb[K]		Tl[K]		Tup[K]		RiFlag		Bs[T]
0.000000e+00	2.090625e+13	0.000000e+00	5.175878e-01	7.852199e+14	4.551550e+15	6.427763e+14	1.366026e+04	7.796473e+03	2.697529e+03	0	9.178599e-04
1.000000e+07	2.002967e+13	0.000000e+00	5.175878e-01	7.763740e+14	4.349201e+15	6.392148e+14	1.363921e+04	7.737767e+03	2.677217e+03	0	9.048479e-04
2.000000e+07	1.916696e+13	0.000000e+00	5.175878e-01	7.676638e+14	4.164255e+15	6.356800e+14	1.361840e+04	7.682577e+03	2.658122e+03	0	8.916657e-04
3.000000e+07	1.831941e+13	0.000000e+00	5.175878e-01	7.591010e+14	3.994675e+15	6.321716e+14	1.359782e+04	7.630589e+03	2.640134e+03	0	8.783242e-04
4.000000e+07	1.748791e+13	0.000000e+00	5.175878e-01	7.506933e+14	3.838714e+15	6.286894e+14	1.357746e+04	7.581524e+03	2.623158e+03	0	8.648292e-04
5.000000e+07	1.667302e+13	0.000000e+00	5.175878e-01	7.424455e+14	3.694873e+15	6.252332e+14	1.355734e+04	7.535138e+03	2.607109e+03	0	8.511819e-04
6.000000e+07	1.587503e+13	0.000000e+00	5.175878e-01	7.343603e+14	3.561857e+15	6.218027e+14	1.353743e+04	7.491211e+03	2.591910e+03	0	8.373799e-04
7.000000e+07	1.509407e+13	0.000000e+00	5.175878e-01	7.264384e+14	3.438543e+15	6.183978e+14	1.351774e+04	7.449548e+03	2.577495e+03	0	8.234170e-04
8.000000e+07	1.433011e+13	0.000000e+00	5.175878e-01	7.186796e+14	3.323951e+15	6.150182e+14	1.349826e+04	7.409974e+03	2.563803e+03	0	8.092839e-04
9.000000e+07	1.358302e+13	0.000000e+00	5.175878e-01	7.110822e+14	3.217226e+15	6.116637e+14	1.347899e+04	7.372332e+03	2.550779e+03	0	7.949682e-04
1.000000e+08	1.285256e+13	0.000000e+00	5.175878e-01	7.036442e+14	3.117618e+15	6.083341e+14	1.345992e+04	7.336479e+03	2.538374e+03	0	7.804544e-04
1.100000e+08	1.213846e+13	0.000000e+00	5.175878e-01	6.963629e+14	3.024463e+15	6.050293e+14	1.344105e+04	7.302289e+03	2.526545e+03	0	7.657239e-04
1.200000e+08	1.144039e+13	0.000000e+00	5.175878e-01	6.892349e+14	2.937177e+15	6.017489e+14	1.342237e+04	7.269645e+03	2.515250e+03	0	7.507545e-04
1.300000e+08	1.075799e+13	0.000000e+00	5.175878e-01	6.822570e+14	2.855241e+15	5.984928e+14	1.340389e+04	7.238441e+03	2.504454e+03	0	7.355203e-04
1.400000e+08	1.009087e+13	0.000000e+00	5.175878e-01	6.754255e+14	2.778196e+15	5.952609e+14	1.338559e+04	7.208582e+03	2.494123e+03	0	7.199912e-04
1.500000e+08	9.438646e+12	0.000000e+00	5.175878e-01	6.687366e+14	2.705628e+15	5.920528e+14	1.336748e+04	7.179980e+03	2.484226e+03	0	7.041323e-04
1.600000e+08	8.800910e+12	0.000000e+00	5.175878e-01	6.621865e+14	2.637170e+15	5.888684e+14	1.334954e+04	7.152555e+03	2.474738e+03	0	6.879025e-04
1.700000e+08	8.177255e+12	0.000000e+00	5.175878e-01	6.557714e+14	2.572493e+15	5.857075e+14	1.333178e+04	7.126234e+03	2.465631e+03	0	6.712539e-04
1.800000e+08	7.567276e+12	0.000000e+00	5.175878e-01	6.494875e+14	2.511299e+15	5.825699e+14	1.331419e+04	7.100948e+03	2.456882e+03	0	6.541302e-04
1.900000e+08	6.970573e+12	0.000000e+00	5.175878e-01	6.433309e+14	2.453321e+15	5.794554e+14	1.329676e+04	7.076637e+03	2.448471e+03	0	6.364640e-04
2.000000e+08	6.386750e+12	0.000000e+00	5.175878e-01	6.372981e+14	2.398319e+15	5.763639e+14	1.327951e+04	7.053243e+03	2.440376e+03	0	6.181743e-04
2.100000e+08	5.815420e+12	0.000000e+00	5.175878e-01	6.313852e+14	2.346072e+15	5.732951e+14	1.326241e+04	7.030713e+03	2.432581e+03	0	5.991626e-04
2.200000e+08	5.256204e+12	0.000000e+00	5.175878e-01	6.255888e+14	2.296383e+15	5.702488e+14	1.324547e+04	7.008999e+03	2.425068e+03	0	5.793065e-04
2.300000e+08	4.708735e+12	0.000000e+00	5.175878e-01	6.199054e+14	2.249071e+15	5.672248e+14	1.322869e+04	6.988054e+03	2.417821e+03	0	5.584519e-04
2.400000e+08	4.172655e+12	0.000000e+00	5.175878e-01	6.143317e+14	2.203973e+15	5.642231e+14	1.321206e+04	6.967838e+03	2.410827e+03	0	5.363997e-04
2.500000e+08	3.647615e+12	0.000000e+00	5.175878e-01	6.088642e+14	2.160938e+15	5.612433e+14	1.319558e+04	6.948311e+03	2.404071e+03	0	5.128858e-04
2.600000e+08	3.133281e+12	0.000000e+00	5.175878e-01	6.035000e+14	2.119829e+15	5.582853e+14	1.317924e+04	6.929438e+03	2.397540e+03	0	4.875481e-04
2.700000e+08	2.629326e+12	0.000000e+00	5.175878e-01	5.982359e+14	2.080521e+15	5.553490e+14	1.316305e+04	6.911183e+03	2.391224e+03	0	4.598673e-04
2.800000e+08	2.135437e+12	0.000000e+00	5.175878e-01	5.930690e+14	2.042899e+15	5.524341e+14	1.314700e+04	6.893517e+03	2.385112e+03	0	4.290553e-04
2.900000e+08	1.651311e+12	0.000000e+00	5.175878e-01	5.879964e+14	2.006857e+15	5.495405e+14	1.313109e+04	6.876409e+03	2.379193e+03	0	3.938165e-04
3.000000e+08	1.176655e+12	0.000000e+00	5.175878e-01	5.830154e+14	1.972297e+15	5.466679e+14	1.311531e+04	6.859832e+03	2.373457e+03	0	3.517499e-04
3.100000e+08	7.111870e+11	0.000000e+00	5.175878e-01	5.781233e+14	1.939130e+15	5.438163e+14	1.309967e+04	6.843760e+03	2.367896e+03	0	2.974032e-04
3.200000e+08	2.546354e+11	0.000000e+00	5.175878e-01	5.733175e+14	1.907272e+15	5.409855e+14	1.308415e+04	6.828169e+03	2.362502e+03	0	2.111822e-04
3.300000e+08	-1.932617e+11	0.000000e+00	5.175878e-01	5.685956e+14	1.876648e+15	5.381752e+14	1.306877e+04	6.813037e+03	2.357267e+03	0	nan
