#t		Qconv[W]	Ri[Rp]		R*[Rp]		Qc[W]		Qm[W]		Qr[W]		Tcmb[K]		Tl[K]		Tup[K]		RiFlag		Bs[T]
0.000000e+00	3.428662e+12	0.000000e+00	6.379310e-01	9.922497e+13	5.749780e+14	5.343741e+13	6.074034e+03	2.713337e+03	2.218664e+03	0	5.134512e-04
1.000000e+07	3.294963e+12	0.000000e+00	6.379310e-01	9.546512e+13	5.024889e+14	5.314132e+13	6.046942e+03	2.651184e+03	2.167841e+03	0	5.066886e-04
2.000000e+07	3.173513e+12	0.000000e+00	6.379310e-01	9.204901e+13	4.460925e+14	5.284746e+13	6.020867e+03	2.598720e+03	2.124943e+03	0	5.003851e-04
3.000000e+07	3.062631e+12	0.000000e+00	6.379310e-01	8.892942e+13	4.011841e+14	5.255578e+13	5.995717e+03	2.553798e+03	2.088211e+03	0	4.944881e-04
4.000000e+07	2.960878e+12	0.000000e+00	6.379310e-01	8.606604e+13	3.647178e+14	5.226629e+13	5.971413e+03	2.514869e+03	2.056379e+03	0	4.889500e-04
5.000000e+07	2.867050e+12	0.000000e+00	6.379310e-01	8.342508e+13	3.346101e+14	5.197895e+13	5.947886e+03	2.480788e+03	2.028511e+03	0	4.837296e-04
6.000000e+07	2.780139e+12	0.000000e+00	6.379310e-01	8.097828e+13	3.093936e+14	5.169376e+13	5.925075e+03	2.450687e+03	2.003898e+03	0	4.787915e-04
7.000000e+07	2.699302e+12	0.000000e+00	6.379310e-01	7.870201e+13	2.880089e+14	5.141069e+13	5.902929e+03	2.423898e+03	1.981992e+03	0	4.741052e-04
8.000000e+07	2.623833e+12	0.000000e+00	6.379310e-01	7.657644e+13	2.696745e+14	5.112973e+13	5.881400e+03	2.399894e+03	1.962365e+03	0	4.696449e-04
9.000000e+07	2.553133e+12	0.000000e+00	6.379310e-01	7.458478e+13	2.538025e+14	5.085085e+13	5.860449e+03	2.378258e+03	1.944674e+03	0	4.653882e-04
1.000000e+08	2.486694e+12	0.000000e+00	6.379310e-01	7.271280e+13	2.399431e+14	5.057405e+13	5.840040e+03	2.358651e+03	1.928641e+03	0	4.613159e-04
1.100000e+08	2.424083e+12	0.000000e+00	6.379310e-01	7.094830e+13	2.277474e+14	5.029930e+13	5.820139e+03	2.340797e+03	1.914042e+03	0	4.574111e-04
1.200000e+08	2.364925e+12	0.000000e+00	6.379310e-01	6.928082e+13	2.169405e+14	5.002658e+13	5.800718e+03	2.324468e+03	1.900690e+03	0	4.536596e-04
1.300000e+08	2.308899e+12	0.000000e+00	6.379310e-01	6.770129e+13	2.073034e+14	4.975589e+13	5.781750e+03	2.309474e+03	1.888430e+03	0	4.500484e-04
1.400000e+08	2.255721e+12	0.000000e+00	6.379310e-01	6.620181e+13	1.986600e+14	4.948720e+13	5.763212e+03	2.295655e+03	1.877130e+03	0	4.465664e-04
1.500000e+08	2.205148e+12	0.000000e+00	6.379310e-01	6.477550e+13	1.908666e+14	4.922049e+13	5.745082e+03	2.282876e+03	1.866680e+03	0	4.432038e-04
1.600000e+08	2.156962e+12	0.000000e+00	6.379310e-01	6.341627e+13	1.838056e+14	4.895576e+13	5.727341e+03	2.271021e+03	1.856987e+03	0	4.399518e-04
1.700000e+08	2.110973e+12	0.000000e+00	6.379310e-01	6.211879e+13	1.773795e+14	4.869297e+13	5.709969e+03	2.259991e+03	1.847968e+03	0	4.368026e-04
1.800000e+08	2.067012e+12	0.000000e+00	6.379310e-01	6.087828e+13	1.715068e+14	4.843213e+13	5.692951e+03	2.249702e+03	1.839555e+03	0	4.337491e-04
1.900000e+08	2.024926e+12	0.000000e+00	6.379310e-01	5.969053e+13	1.661193e+14	4.817321e+13	5.676271e+03	2.240078e+03	1.831686e+03	0	4.307851e-04
2.000000e+08	1.984583e+12	0.000000e+00	6.379310e-01	5.855173e+13	1.611592e+14	4.791619e+13	5.659914e+03	2.231056e+03	1.824308e+03	0	4.279050e-04
2.100000e+08	1.945859e+12	0.000000e+00	6.379310e-01	5.745849e+13	1.565772e+14	4.766106e+13	5.643868e+03	2.222578e+03	1.817376e+03	0	4.251036e-04
2.200000e+08	1.908647e+12	0.000000e+00	6.379310e-01	5.640774e+13	1.523312e+14	4.740781e+13	5.628120e+03	2.214595e+03	1.810848e+03	0	4.223762e-04
2.300000e+08	1.872847e+12	0.000000e+00	6.379310e-01	5.539671e+13	1.483851e+14	4.715641e+13	5.612658e+03	2.207061e+03	1.804688e+03	0	4.197188e-04
2.400000e+08	1.838371e+12	0.000000e+00	6.379310e-01	5.442289e+13	1.447074e+14	4.690686e+13	5.597471e+03	2.199940e+03	1.798865e+03	0	4.171273e-04
2.500000e+08	1.805136e+12	0.000000e+00	6.379310e-01	5.348400e+13	1.412711e+14	4.665914e+13	5.582551e+03	2.193194e+03	1.793349e+03	0	4.145983e-04
2.600000e+08	1.773068e+12	0.000000e+00	6.379310e-01	5.257795e+13	1.380525e+14	4.641322e+13	5.567886e+03	2.186794e+03	1.788116e+03	0	4.121286e-04
2.700000e+08	1.742100e+12	0.000000e+00	6.379310e-01	5.170284e+13	1.350306e+14	4.616911e+13	5.553468e+03	2.180712e+03	1.783143e+03	0	4.097151e-04
2.800000e+08	1.712170e+12	0.000000e+00	6.379310e-01	5.085691e+13	1.321873e+14	4.592678e+13	5.539290e+03	2.174923e+03	1.778409e+03	0	4.073552e-04
2.900000e+08	1.683220e+12	0.000000e+00	6.379310e-01	5.003857e+13	1.295064e+14	4.568622e+13	5.525342e+03	2.169403e+03	1.773895e+03	0	4.050462e-04
3.000000e+08	1.655197e+12	0.000000e+00	6.379310e-01	4.924633e+13	1.269737e+14	4.544741e+13	5.511617e+03	2.164134e+03	1.769587e+03	0	4.027858e-04
3.100000e+08	1.628054e+12	0.000000e+00	6.379310e-01	4.847883e+13	1.245765e+14	4.521034e+13	5.498108e+03	2.159096e+03	1.765467e+03	0	4.005719e-04
3.200000e+08	1.601744e+12	0.000000e+00	6.379310e-01	4.773481e+13	1.223035e+14	4.497500e+13	5.484809e+03	2.154272e+03	1.761523e+03	0	3.984024e-04
3.300000e+08	1.576227e+12	0.000000e+00	6.379310e-01	4.701310e+13	1.201445e+14	4.474136e+13	5.471714e+03	2.149649e+03	1.757742e+03	0	3.962755e-04
3.400000e+08	1.551464e+12	0.000000e+00	6.379310e-01	4.631261e+13	1.180906e+14	4.450943e+13	5.458815e+03	2.145211e+03	1.754114e+03	0	3.941893e-04
3.500000e+08	1.527418e+12	0.000000e+00	6.379310e-01	4.563232e+13	1.161337e+14	4.427917e+13	5.446107e+03	2.140946e+03	1.750627e+03	0	3.921422e-04
3.600000e+08	1.504057e+12	0.000000e+00	6.379310e-01	4.497131e+13	1.142663e+14	4.405059e+13	5.433586e+03	2.136844e+03	1.747272e+03	0	3.901327e-04
3.700000e+08	1.481349e+12	0.000000e+00	6.379310e-01	4.432869e+13	1.124819e+14	4.382366e+13	5.421244e+03	2.132892e+03	1.744041e+03	0	3.881594e-04
3.800000e+08	1.459265e+12	0.000000e+00	6.379310e-01	4.370364e+13	1.107745e+14	4.359837e+13	5.409079e+03	2.129082e+03	1.740926e+03	0	3.862208e-04
3.900000e+08	1.437778e+12	0.000000e+00	6.379310e-01	4.309539e+13	1.091387e+14	4.337472e+13	5.397084e+03	2.125405e+03	1.737919e+03	0	3.843157e-04
4.000000e+08	1.416861e+12	0.000000e+00	6.379310e-01	4.250322e+13	1.075695e+14	4.315267e+13	5.385255e+03	2.121853e+03	1.735014e+03	0	3.824430e-04
4.100000e+08	1.396491e+12	0.000000e+00	6.379310e-01	4.192645e+13	1.060625e+14	4.293223e+13	5.373588e+03	2.118417e+03	1.732204e+03	0	3.806013e-04
4.200000e+08	1.376645e+12	0.000000e+00	6.379310e-01	4.136445e+13	1.046136e+14	4.271338e+13	5.362079e+03	2.115091e+03	1.729485e+03	0	3.787898e-04
4.300000e+08	1.357303e+12	0.000000e+00	6.379310e-01	4.081663e+13	1.032189e+14	4.249610e+13	5.350724e+03	2.111869e+03	1.726850e+03	0	3.770074e-04
4.400000e+08	1.338443e+12	0.000000e+00	6.379310e-01	4.028241e+13	1.018752e+14	4.228039e+13	5.339518e+03	2.108745e+03	1.724296e+03	0	3.752530e-04
4.500000e+08	1.320047e+12	0.000000e+00	6.379310e-01	3.976126e+13	1.005792e+14	4.206623e+13	5.328458e+03	2.105712e+03	1.721816e+03	0	3.735259e-04
4.600000e+08	1.302097e+12	0.000000e+00	6.379310e-01	3.925269e+13	9.932811e+13	4.185360e+13	5.317541e+03	2.102767e+03	1.719408e+03	0	3.718251e-04
4.700000e+08	1.284577e+12	0.000000e+00	6.379310e-01	3.875622e+13	9.811919e+13	4.164250e+13	5.306762e+03	2.099904e+03	1.717067e+03	0	3.701499e-04
4.800000e+08	1.267470e+12	0.000000e+00	6.379310e-01	3.827139e+13	9.695002e+13	4.143291e+13	5.296120e+03	2.097119e+03	1.714789e+03	0	3.684994e-04
4.900000e+08	1.250761e+12	0.000000e+00	6.379310e-01	3.779779e+13	9.581833e+13	4.122483e+13	5.285610e+03	2.094408e+03	1.712572e+03	0	3.668729e-04
5.000000e+08	1.234435e+12	0.000000e+00	6.379310e-01	3.733501e+13	9.472205e+13	4.101823e+13	5.275229e+03	2.091766e+03	1.710413e+03	0	3.652698e-04
5.100000e+08	1.218480e+12	0.000000e+00	6.379310e-01	3.688267e+13	9.365923e+13	4.081310e+13	5.264976e+03	2.089191e+03	1.708307e+03	0	3.636892e-04
5.200000e+08	1.202883e+12	0.000000e+00	6.379310e-01	3.644039e+13	9.262808e+13	4.060944e+13	5.254845e+03	2.086679e+03	1.706253e+03	0	3.621307e-04
5.300000e+08	1.187630e+12	0.000000e+00	6.379310e-01	3.600785e+13	9.162693e+13	4.040724e+13	5.244836e+03	2.084227e+03	1.704248e+03	0	3.605935e-04
5.400000e+08	1.172710e+12	0.000000e+00	6.379310e-01	3.558470e+13	9.065425e+13	4.020647e+13	5.234946e+03	2.081832e+03	1.702290e+03	0	3.590772e-04
5.500000e+08	1.158112e+12	0.000000e+00	6.379310e-01	3.517064e+13	8.970859e+13	4.000713e+13	5.225171e+03	2.079491e+03	1.700376e+03	0	3.575811e-04
5.600000e+08	1.143826e+12	0.000000e+00	6.379310e-01	3.476536e+13	8.878860e+13	3.980921e+13	5.215509e+03	2.077202e+03	1.698504e+03	0	3.561046e-04
5.700000e+08	1.129842e+12	0.000000e+00	6.379310e-01	3.436858e+13	8.789305e+13	3.961269e+13	5.205958e+03	2.074963e+03	1.696672e+03	0	3.546474e-04
5.800000e+08	1.116148e+12	0.000000e+00	6.379310e-01	3.398003e+13	8.702076e+13	3.941757e+13	5.196516e+03	2.072770e+03	1.694880e+03	0	3.532089e-04
5.900000e+08	1.102738e+12	0.000000e+00	6.379310e-01	3.359945e+13	8.617065e+13	3.922383e+13	5.187180e+03	2.070622e+03	1.693123e+03	0	3.517885e-04
6.000000e+08	1.089601e+12	0.000000e+00	6.379310e-01	3.322659e+13	8.534169e+13	3.903147e+13	5.177948e+03	2.068518e+03	1.691402e+03	0	3.503860e-04
6.100000e+08	1.076729e+12	0.000000e+00	6.379310e-01	3.286121e+13	8.453293e+13	3.884046e+13	5.168819e+03	2.066454e+03	1.689715e+03	0	3.490008e-04
6.200000e+08	1.064114e+12	0.000000e+00	6.379310e-01	3.250309e+13	8.374348e+13	3.865080e+13	5.159789e+03	2.064430e+03	1.688060e+03	0	3.476325e-04
6.300000e+08	1.051749e+12	0.000000e+00	6.379310e-01	3.215200e+13	8.297248e+13	3.846248e+13	5.150858e+03	2.062443e+03	1.686435e+03	0	3.462807e-04
6.400000e+08	1.039625e+12	0.000000e+00	6.379310e-01	3.180774e+13	8.221916e+13	3.827550e+13	5.142022e+03	2.060493e+03	1.684840e+03	0	3.449450e-04
6.500000e+08	1.027737e+12	0.000000e+00	6.379310e-01	3.147011e+13	8.148277e+13	3.808982e+13	5.133281e+03	2.058577e+03	1.683274e+03	0	3.436251e-04
6.600000e+08	1.016076e+12	0.000000e+00	6.379310e-01	3.113892e+13	8.076261e+13	3.790546e+13	5.124632e+03	2.056694e+03	1.681735e+03	0	3.423206e-04
6.700000e+08	1.004637e+12	0.000000e+00	6.379310e-01	3.081398e+13	8.005802e+13	3.772239e+13	5.116074e+03	2.054844e+03	1.680221e+03	0	3.410311e-04
6.800000e+08	9.934128e+11	0.000000e+00	6.379310e-01	3.049511e+13	7.936839e+13	3.754060e+13	5.107605e+03	2.053024e+03	1.678733e+03	0	3.397563e-04
6.900000e+08	9.823980e+11	0.000000e+00	6.379310e-01	3.018215e+13	7.869312e+13	3.736009e+13	5.099224e+03	2.051233e+03	1.677269e+03	0	3.384959e-04
7.000000e+08	9.715866e+11	0.000000e+00	6.379310e-01	2.987493e+13	7.803167e+13	3.718085e+13	5.090928e+03	2.049471e+03	1.675828e+03	0	3.372496e-04
7.100000e+08	9.609729e+11	0.000000e+00	6.379310e-01	2.957329e+13	7.738351e+13	3.700286e+13	5.082716e+03	2.047736e+03	1.674410e+03	0	3.360170e-04
7.200000e+08	9.505516e+11	0.000000e+00	6.379310e-01	2.927709e+13	7.674815e+13	3.682612e+13	5.074587e+03	2.046028e+03	1.673013e+03	0	3.347980e-04
7.300000e+08	9.403175e+11	0.000000e+00	6.379310e-01	2.898617e+13	7.612512e+13	3.665061e+13	5.066539e+03	2.044345e+03	1.671636e+03	0	3.335921e-04
7.400000e+08	9.302656e+11	0.000000e+00	6.379310e-01	2.870041e+13	7.551398e+13	3.647633e+13	5.058570e+03	2.042686e+03	1.670280e+03	0	3.323992e-04
7.500000e+08	9.203912e+11	0.000000e+00	6.379310e-01	2.841965e+13	7.491431e+13	3.630326e+13	5.050680e+03	2.041051e+03	1.668943e+03	0	3.312189e-04
7.600000e+08	9.106896e+11	0.000000e+00	6.379310e-01	2.814378e+13	7.432570e+13	3.613140e+13	5.042867e+03	2.039439e+03	1.667625e+03	0	3.300510e-04
7.700000e+08	9.011564e+11	0.000000e+00	6.379310e-01	2.787266e+13	7.374779e+13	3.596073e+13	5.035130e+03	2.037848e+03	1.666325e+03	0	3.288953e-04
7.800000e+08	8.917872e+11	0.000000e+00	6.379310e-01	2.760618e+13	7.318020e+13	3.579125e+13	5.027467e+03	2.036279e+03	1.665042e+03	0	3.277515e-04
7.900000e+08	8.825779e+11	0.000000e+00	6.379310e-01	2.734421e+13	7.262261e+13	3.562294e+13	5.019876e+03	2.034731e+03	1.663776e+03	0	3.266194e-04
8.000000e+08	8.735245e+11	0.000000e+00	6.379310e-01	2.708665e+13	7.207467e+13	3.545581e+13	5.012358e+03	2.033203e+03	1.662526e+03	0	3.254987e-04
8.100000e+08	8.646231e+11	0.000000e+00	6.379310e-01	2.683338e+13	7.153609e+13	3.528983e+13	5.004910e+03	2.031693e+03	1.661292e+03	0	3.243893e-04
8.200000e+08	8.558700e+11	0.000000e+00	6.379310e-01	2.658431e+13	7.100657e+13	3.512500e+13	4.997532e+03	2.030203e+03	1.660073e+03	0	3.232909e-04
8.300000e+08	8.472615e+11	0.000000e+00	6.379310e-01	2.633932e+13	7.048582e+13	3.496131e+13	4.990222e+03	2.028731e+03	1.658869e+03	0	3.222034e-04
8.400000e+08	8.387941e+11	0.000000e+00	6.379310e-01	2.609832e+13	6.997359e+13	3.479875e+13	4.982979e+03	2.027276e+03	1.657679e+03	0	3.211264e-04
8.500000e+08	8.304645e+11	0.000000e+00	6.379310e-01	2.586122e+13	6.946960e+13	3.463731e+13	4.975802e+03	2.025838e+03	1.656504e+03	0	3.200599e-04
8.600000e+08	8.222695e+11	0.000000e+00	6.379310e-01	2.562792e+13	6.897362e+13	3.447699e+13	4.968690e+03	2.024416e+03	1.655341e+03	0	3.190036e-04
8.700000e+08	8.142057e+11	0.000000e+00	6.379310e-01	2.539833e+13	6.848542e+13	3.431776e+13	4.961642e+03	2.023011e+03	1.654192e+03	0	3.179574e-04
8.800000e+08	8.062702e+11	0.000000e+00	6.379310e-01	2.517236e+13	6.800477e+13	3.415964e+13	4.954657e+03	2.021621e+03	1.653056e+03	0	3.169211e-04
8.900000e+08	7.984599e+11	0.000000e+00	6.379310e-01	2.494994e+13	6.753145e+13	3.400260e+13	4.947734e+03	2.020247e+03	1.651932e+03	0	3.158944e-04
9.000000e+08	7.907721e+11	0.000000e+00	6.379310e-01	2.473098e+13	6.706526e+13	3.384664e+13	4.940872e+03	2.018887e+03	1.650820e+03	0	3.148773e-04
9.100000e+08	7.832039e+11	0.000000e+00	6.379310e-01	2.451540e+13	6.660601e+13	3.369174e+13	4.934070e+03	2.017541e+03	1.649719e+03	0	3.138696e-04
9.200000e+08	7.757526e+11	0.000000e+00	6.379310e-01	2.430313e+13	6.615350e+13	3.353791e+13	4.927327e+03	2.016209e+03	1.648630e+03	0	3.128710e-04
9.300000e+08	7.684155e+11	0.000000e+00	6.379310e-01	2.409409e+13	6.570756e+13	3.338513e+13	4.920642e+03	2.014891e+03	1.647553e+03	0	3.118815e-04
9.400000e+08	7.611903e+11	0.000000e+00	6.379310e-01	2.388821e+13	6.526801e+13	3.323339e+13	4.914015e+03	2.013586e+03	1.646485e+03	0	3.109009e-04
9.500000e+08	7.540743e+11	0.000000e+00	6.379310e-01	2.368542e+13	6.483469e+13	3.308269e+13	4.907444e+03	2.012294e+03	1.645429e+03	0	3.099291e-04
9.600000e+08	7.470652e+11	0.000000e+00	6.379310e-01	2.348566e+13	6.440744e+13	3.293302e+13	4.900929e+03	2.011014e+03	1.644382e+03	0	3.089658e-04
9.700000e+08	7.401606e+11	0.000000e+00	6.379310e-01	2.328885e+13	6.398610e+13	3.278437e+13	4.894468e+03	2.009746e+03	1.643346e+03	0	3.080110e-04
9.800000e+08	7.333584e+11	0.000000e+00	6.379310e-01	2.309494e+13	6.357053e+13	3.263673e+13	4.888062e+03	2.008491e+03	1.642319e+03	0	3.070646e-04
9.900000e+08	7.266562e+11	0.000000e+00	6.379310e-01	2.290386e+13	6.316058e+13	3.249009e+13	4.881709e+03	2.007247e+03	1.641302e+03	0	3.061263e-04
1.000000e+09	7.200521e+11	0.000000e+00	6.379310e-01	2.271555e+13	6.275612e+13	3.234445e+13	4.875408e+03	2.006014e+03	1.640294e+03	0	3.051960e-04
1.010000e+09	7.135438e+11	0.000000e+00	6.379310e-01	2.252996e+13	6.235702e+13	3.219979e+13	4.869158e+03	2.004793e+03	1.639295e+03	0	3.042737e-04
1.020000e+09	7.071295e+11	0.000000e+00	6.379310e-01	2.234702e+13	6.196315e+13	3.205612e+13	4.862960e+03	2.003582e+03	1.638305e+03	0	3.033593e-04
1.030000e+09	7.008071e+11	0.000000e+00	6.379310e-01	2.216669e+13	6.157438e+13	3.191341e+13	4.856812e+03	2.002382e+03	1.637324e+03	0	3.024524e-04
1.040000e+09	6.945748e+11	0.000000e+00	6.379310e-01	2.198890e+13	6.119061e+13	3.177168e+13	4.850713e+03	2.001192e+03	1.636351e+03	0	3.015532e-04
1.050000e+09	6.884307e+11	0.000000e+00	6.379310e-01	2.181361e+13	6.081171e+13	3.163090e+13	4.844663e+03	2.000012e+03	1.635386e+03	0	3.006614e-04
1.060000e+09	6.823730e+11	0.000000e+00	6.379310e-01	2.164077e+13	6.043758e+13	3.149106e+13	4.838662e+03	1.998842e+03	1.634429e+03	0	2.997769e-04
1.070000e+09	6.764000e+11	0.000000e+00	6.379310e-01	2.147032e+13	6.006811e+13	3.135217e+13	4.832707e+03	1.997681e+03	1.633481e+03	0	2.988997e-04
1.080000e+09	6.705099e+11	0.000000e+00	6.379310e-01	2.130223e+13	5.970321e+13	3.121422e+13	4.826800e+03	1.996531e+03	1.632539e+03	0	2.980296e-04
1.090000e+09	6.647012e+11	0.000000e+00	6.379310e-01	2.113643e+13	5.934276e+13	3.107719e+13	4.820938e+03	1.995389e+03	1.631606e+03	0	2.971664e-04
1.100000e+09	6.589721e+11	0.000000e+00	6.379310e-01	2.097289e+13	5.898668e+13	3.094108e+13	4.815122e+03	1.994256e+03	1.630680e+03	0	2.963102e-04
1.110000e+09	6.533212e+11	0.000000e+00	6.379310e-01	2.081157e+13	5.863487e+13	3.080589e+13	4.809351e+03	1.993133e+03	1.629761e+03	0	2.954608e-04
1.120000e+09	6.477468e+11	0.000000e+00	6.379310e-01	2.065241e+13	5.828725e+13	3.067160e+13	4.803624e+03	1.992018e+03	1.628849e+03	0	2.946181e-04
1.130000e+09	6.422476e+11	0.000000e+00	6.379310e-01	2.049538e+13	5.794372e+13	3.053821e+13	4.797941e+03	1.990911e+03	1.627944e+03	0	2.937819e-04
1.140000e+09	6.368220e+11	0.000000e+00	6.379310e-01	2.034044e+13	5.760421e+13	3.040571e+13	4.792301e+03	1.989813e+03	1.627046e+03	0	2.929523e-04
1.150000e+09	6.314687e+11	0.000000e+00	6.379310e-01	2.018754e+13	5.726863e+13	3.027410e+13	4.786704e+03	1.988723e+03	1.626155e+03	0	2.921291e-04
1.160000e+09	6.261862e+11	0.000000e+00	6.379310e-01	2.003665e+13	5.693691e+13	3.014336e+13	4.781148e+03	1.987641e+03	1.625270e+03	0	2.913123e-04
1.170000e+09	6.209733e+11	0.000000e+00	6.379310e-01	1.988773e+13	5.660896e+13	3.001350e+13	4.775634e+03	1.986567e+03	1.624392e+03	0	2.905016e-04
1.180000e+09	6.158285e+11	0.000000e+00	6.379310e-01	1.974074e+13	5.628473e+13	2.988450e+13	4.770161e+03	1.985500e+03	1.623520e+03	0	2.896971e-04
1.190000e+09	6.107508e+11	0.000000e+00	6.379310e-01	1.959565e+13	5.596412e+13	2.975635e+13	4.764728e+03	1.984441e+03	1.622654e+03	0	2.888987e-04
1.200000e+09	6.057387e+11	0.000000e+00	6.379310e-01	1.945241e+13	5.564708e+13	2.962906e+13	4.759335e+03	1.983390e+03	1.621795e+03	0	2.881063e-04
1.210000e+09	6.007910e+11	0.000000e+00	6.379310e-01	1.931101e+13	5.533354e+13	2.950261e+13	4.753981e+03	1.982346e+03	1.620941e+03	0	2.873197e-04
1.220000e+09	5.959067e+11	0.000000e+00	6.379310e-01	1.917140e+13	5.502343e+13	2.937700e+13	4.748666e+03	1.981309e+03	1.620093e+03	0	2.865390e-04
1.230000e+09	5.910845e+11	0.000000e+00	6.379310e-01	1.903355e+13	5.471668e+13	2.925222e+13	4.743390e+03	1.980279e+03	1.619251e+03	0	2.857640e-04
1.240000e+09	5.863234e+11	0.000000e+00	6.379310e-01	1.889743e+13	5.441325e+13	2.912827e+13	4.738151e+03	1.979256e+03	1.618415e+03	0	2.849946e-04
1.250000e+09	5.816221e+11	0.000000e+00	6.379310e-01	1.876301e+13	5.411306e+13	2.900513e+13	4.732950e+03	1.978240e+03	1.617584e+03	0	2.842309e-04
1.260000e+09	5.769797e+11	0.000000e+00	6.379310e-01	1.863025e+13	5.381606e+13	2.888280e+13	4.727785e+03	1.977231e+03	1.616759e+03	0	2.834726e-04
1.270000e+09	5.723950e+11	0.000000e+00	6.379310e-01	1.849913e+13	5.352219e+13	2.876129e+13	4.722657e+03	1.976228e+03	1.615939e+03	0	2.827198e-04
1.280000e+09	5.678671e+11	0.000000e+00	6.379310e-01	1.836962e+13	5.323140e+13	2.864057e+13	4.717565e+03	1.975232e+03	1.615124e+03	0	2.819723e-04
1.290000e+09	5.633950e+11	0.000000e+00	6.379310e-01	1.824170e+13	5.294364e+13	2.852064e+13	4.712509e+03	1.974242e+03	1.614315e+03	0	2.812302e-04
1.300000e+09	5.589776e+11	0.000000e+00	6.379310e-01	1.811532e+13	5.265884e+13	2.840150e+13	4.707488e+03	1.973259e+03	1.613510e+03	0	2.804932e-04
1.310000e+09	5.546141e+11	0.000000e+00	6.379310e-01	1.799047e+13	5.237697e+13	2.828314e+13	4.702501e+03	1.972281e+03	1.612711e+03	0	2.797615e-04
1.320000e+09	5.503035e+11	0.000000e+00	6.379310e-01	1.786712e+13	5.209796e+13	2.816556e+13	4.697549e+03	1.971310e+03	1.611917e+03	0	2.790348e-04
1.330000e+09	5.460448e+11	0.000000e+00	6.379310e-01	1.774525e+13	5.182179e+13	2.804874e+13	4.692630e+03	1.970345e+03	1.611128e+03	0	2.783131e-04
1.340000e+09	5.418372e+11	0.000000e+00	6.379310e-01	1.762482e+13	5.154838e+13	2.793269e+13	4.687745e+03	1.969385e+03	1.610343e+03	0	2.775964e-04
1.350000e+09	5.376798e+11	0.000000e+00	6.379310e-01	1.750582e+13	5.127771e+13	2.781740e+13	4.682893e+03	1.968432e+03	1.609563e+03	0	2.768846e-04
1.360000e+09	5.335718e+11	0.000000e+00	6.379310e-01	1.738821e+13	5.100972e+13	2.770286e+13	4.678074e+03	1.967484e+03	1.608788e+03	0	2.761777e-04
