#t		Qconv[W]	Ri[Rp]		R*[Rp]		Qc[W]		Qm[W]		Qr[W]		Tcmb[K]		Tl[K]		Tup[K]		RiFlag		Bs[T]
0.000000e+00	9.125545e+12	0.000000e+00	6.379310e-01	2.027275e+14	8.089410e+14	7.976523e+13	7.614242e+03	2.996353e+03	2.351287e+03	0	6.940034e-04
1.000000e+07	8.787229e+12	0.000000e+00	6.379310e-01	1.955072e+14	7.247244e+14	7.932327e+13	7.578945e+03	2.943021e+03	2.309437e+03	0	6.853188e-04
2.000000e+07	8.478549e+12	0.000000e+00	6.379310e-01	1.889172e+14	6.570295e+14	7.888462e+13	7.544896e+03	2.897189e+03	2.273472e+03	0	6.771983e-04
3.000000e+07	8.195165e+12	0.000000e+00	6.379310e-01	1.828653e+14	6.015981e+14	7.844925e+13	7.511985e+03	2.857351e+03	2.242210e+03	0	6.695678e-04
4.000000e+07	7.933573e+12	0.000000e+00	6.379310e-01	1.772769e+14	5.554848e+14	7.801712e+13	7.480120e+03	2.822381e+03	2.214768e+03	0	6.623664e-04
5.000000e+07	7.690923e+12	0.000000e+00	6.379310e-01	1.720917e+14	5.165954e+14	7.758822e+13	7.449222e+03	2.791424e+03	2.190476e+03	0	6.555435e-04
6.000000e+07	7.464869e+12	0.000000e+00	6.379310e-01	1.672596e+14	4.834051e+14	7.716252e+13	7.419220e+03	2.763815e+03	2.168811e+03	0	6.490569e-04
7.000000e+07	7.253465e+12	0.000000e+00	6.379310e-01	1.627393e+14	4.547797e+14	7.673998e+13	7.390056e+03	2.739029e+03	2.149360e+03	0	6.428710e-04
8.000000e+07	7.055082e+12	0.000000e+00	6.379310e-01	1.584962e+14	4.298605e+14	7.632059e+13	7.361673e+03	2.716645e+03	2.131796e+03	0	6.369559e-04
9.000000e+07	6.868341e+12	0.000000e+00	6.379310e-01	1.545011e+14	4.079863e+14	7.590432e+13	7.334026e+03	2.696325e+03	2.115850e+03	0	6.312857e-04
1.000000e+08	6.692070e+12	0.000000e+00	6.379310e-01	1.507289e+14	3.886409e+14	7.549114e+13	7.307071e+03	2.677788e+03	2.101304e+03	0	6.258383e-04
1.100000e+08	6.525263e+12	0.000000e+00	6.379310e-01	1.471583e+14	3.714158e+14	7.508102e+13	7.280769e+03	2.660804e+03	2.087976e+03	0	6.205946e-04
1.200000e+08	6.367050e+12	0.000000e+00	6.379310e-01	1.437707e+14	3.559841e+14	7.467395e+13	7.255086e+03	2.645180e+03	2.075716e+03	0	6.155379e-04
1.300000e+08	6.216677e+12	0.000000e+00	6.379310e-01	1.405502e+14	3.420812e+14	7.426988e+13	7.229991e+03	2.630754e+03	2.064396e+03	0	6.106534e-04
1.400000e+08	6.073482e+12	0.000000e+00	6.379310e-01	1.374827e+14	3.294911e+14	7.386881e+13	7.205455e+03	2.617388e+03	2.053907e+03	0	6.059283e-04
1.500000e+08	5.936884e+12	0.000000e+00	6.379310e-01	1.345558e+14	3.180356e+14	7.347071e+13	7.181450e+03	2.604965e+03	2.044158e+03	0	6.013512e-04
1.600000e+08	5.806369e+12	0.000000e+00	6.379310e-01	1.317585e+14	3.075668e+14	7.307554e+13	7.157954e+03	2.593383e+03	2.035070e+03	0	5.969119e-04
1.700000e+08	5.681481e+12	0.000000e+00	6.379310e-01	1.290813e+14	2.979608e+14	7.268329e+13	7.134943e+03	2.582556e+03	2.026574e+03	0	5.926012e-04
1.800000e+08	5.561813e+12	0.000000e+00	6.379310e-01	1.265153e+14	2.891135e+14	7.229393e+13	7.112396e+03	2.572408e+03	2.018610e+03	0	5.884110e-04
1.900000e+08	5.447001e+12	0.000000e+00	6.379310e-01	1.240529e+14	2.809361e+14	7.190744e+13	7.090296e+03	2.562872e+03	2.011127e+03	0	5.843340e-04
2.000000e+08	5.336716e+12	0.000000e+00	6.379310e-01	1.216870e+14	2.733532e+14	7.152379e+13	7.068623e+03	2.553891e+03	2.004080e+03	0	5.803634e-04
2.100000e+08	5.230662e+12	0.000000e+00	6.379310e-01	1.194114e+14	2.663000e+14	7.114297e+13	7.047360e+03	2.545413e+03	1.997427e+03	0	5.764933e-04
2.200000e+08	5.128572e+12	0.000000e+00	6.379310e-01	1.172204e+14	2.597206e+14	7.076494e+13	7.026494e+03	2.537395e+03	1.991135e+03	0	5.727180e-04
2.300000e+08	5.030202e+12	0.000000e+00	6.379310e-01	1.151088e+14	2.535667e+14	7.038968e+13	7.006008e+03	2.529795e+03	1.985171e+03	0	5.690326e-04
2.400000e+08	4.935329e+12	0.000000e+00	6.379310e-01	1.130718e+14	2.477961e+14	7.001718e+13	6.985889e+03	2.522578e+03	1.979508e+03	0	5.654324e-04
2.500000e+08	4.843752e+12	0.000000e+00	6.379310e-01	1.111051e+14	2.423720e+14	6.964741e+13	6.966124e+03	2.515714e+03	1.974121e+03	0	5.619133e-04
2.600000e+08	4.755284e+12	0.000000e+00	6.379310e-01	1.092049e+14	2.372621e+14	6.928034e+13	6.946701e+03	2.509172e+03	1.968988e+03	0	5.584713e-04
2.700000e+08	4.669755e+12	0.000000e+00	6.379310e-01	1.073674e+14	2.324379e+14	6.891595e+13	6.927608e+03	2.502928e+03	1.964089e+03	0	5.551028e-04
2.800000e+08	4.587007e+12	0.000000e+00	6.379310e-01	1.055892e+14	2.278743e+14	6.855423e+13	6.908835e+03	2.496960e+03	1.959405e+03	0	5.518044e-04
2.900000e+08	4.506895e+12	0.000000e+00	6.379310e-01	1.038674e+14	2.235489e+14	6.819515e+13	6.890372e+03	2.491246e+03	1.954921e+03	0	5.485731e-04
3.000000e+08	4.429285e+12	0.000000e+00	6.379310e-01	1.021990e+14	2.194419e+14	6.783868e+13	6.872207e+03	2.485767e+03	1.950622e+03	0	5.454060e-04
3.100000e+08	4.354053e+12	0.000000e+00	6.379310e-01	1.005814e+14	2.155357e+14	6.748481e+13	6.854333e+03	2.480507e+03	1.946494e+03	0	5.423004e-04
3.200000e+08	4.281082e+12	0.000000e+00	6.379310e-01	9.901216e+13	2.118143e+14	6.713352e+13	6.836741e+03	2.475451e+03	1.942527e+03	0	5.392538e-04
3.300000e+08	4.210266e+12	0.000000e+00	6.379310e-01	9.748892e+13	2.082635e+14	6.678478e+13	6.819422e+03	2.470584e+03	1.938708e+03	0	5.362638e-04
3.400000e+08	4.141504e+12	0.000000e+00	6.379310e-01	9.600959e+13	2.048705e+14	6.643857e+13	6.802368e+03	2.465894e+03	1.935027e+03	0	5.333284e-04
3.500000e+08	4.074702e+12	0.000000e+00	6.379310e-01	9.457217e+13	2.016237e+14	6.609487e+13	6.785571e+03	2.461369e+03	1.931476e+03	0	5.304453e-04
3.600000e+08	4.009774e+12	0.000000e+00	6.379310e-01	9.317479e+13	1.985128e+14	6.575367e+13	6.769025e+03	2.456998e+03	1.928046e+03	0	5.276128e-04
3.700000e+08	3.946637e+12	0.000000e+00	6.379310e-01	9.181571e+13	1.955283e+14	6.541494e+13	6.752722e+03	2.452772e+03	1.924730e+03	0	5.248289e-04
3.800000e+08	3.885215e+12	0.000000e+00	6.379310e-01	9.049329e+13	1.926615e+14	6.507865e+13	6.736655e+03	2.448682e+03	1.921520e+03	0	5.220920e-04
3.900000e+08	3.825435e+12	0.000000e+00	6.379310e-01	8.920599e+13	1.899047e+14	6.474480e+13	6.720819e+03	2.444719e+03	1.918411e+03	0	5.194004e-04
4.000000e+08	3.767230e+12	0.000000e+00	6.379310e-01	8.795236e+13	1.872506e+14	6.441336e+13	6.705208e+03	2.440876e+03	1.915395e+03	0	5.167527e-04
4.100000e+08	3.710535e+12	0.000000e+00	6.379310e-01	8.673105e+13	1.846929e+14	6.408431e+13	6.689814e+03	2.437145e+03	1.912468e+03	0	5.141473e-04
4.200000e+08	3.655290e+12	0.000000e+00	6.379310e-01	8.554076e+13	1.822255e+14	6.375764e+13	6.674634e+03	2.433522e+03	1.909624e+03	0	5.115829e-04
4.300000e+08	3.601440e+12	0.000000e+00	6.379310e-01	8.438029e+13	1.798430e+14	6.343331e+13	6.659660e+03	2.429998e+03	1.906859e+03	0	5.090582e-04
4.400000e+08	3.548929e+12	0.000000e+00	6.379310e-01	8.324850e+13	1.775403e+14	6.311132e+13	6.644889e+03	2.426570e+03	1.904169e+03	0	5.065719e-04
4.500000e+08	3.497707e+12	0.000000e+00	6.379310e-01	8.214429e+13	1.753128e+14	6.279164e+13	6.630316e+03	2.423231e+03	1.901549e+03	0	5.041230e-04
4.600000e+08	3.447726e+12	0.000000e+00	6.379310e-01	8.106664e+13	1.731563e+14	6.247426e+13	6.615934e+03	2.419977e+03	1.898995e+03	0	5.017102e-04
4.700000e+08	3.398941e+12	0.000000e+00	6.379310e-01	8.001458e+13	1.710667e+14	6.215915e+13	6.601741e+03	2.416804e+03	1.896505e+03	0	4.993326e-04
4.800000e+08	3.351308e+12	0.000000e+00	6.379310e-01	7.898719e+13	1.690406e+14	6.184630e+13	6.587731e+03	2.413707e+03	1.894075e+03	0	4.969890e-04
4.900000e+08	3.304787e+12	0.000000e+00	6.379310e-01	7.798358e+13	1.670744e+14	6.153569e+13	6.573900e+03	2.410683e+03	1.891702e+03	0	4.946786e-04
5.000000e+08	3.259337e+12	0.000000e+00	6.379310e-01	7.700294e+13	1.651652e+14	6.122730e+13	6.560244e+03	2.407727e+03	1.889383e+03	0	4.924004e-04
5.100000e+08	3.214922e+12	0.000000e+00	6.379310e-01	7.604446e+13	1.633099e+14	6.092112e+13	6.546759e+03	2.404838e+03	1.887115e+03	0	4.901536e-04
5.200000e+08	3.171507e+12	0.000000e+00	6.379310e-01	7.510739e+13	1.615059e+14	6.061712e+13	6.533442e+03	2.402011e+03	1.884897e+03	0	4.879372e-04
5.300000e+08	3.129059e+12	0.000000e+00	6.379310e-01	7.419101e+13	1.597507e+14	6.031529e+13	6.520287e+03	2.399244e+03	1.882725e+03	0	4.857505e-04
5.400000e+08	3.087544e+12	0.000000e+00	6.379310e-01	7.329465e+13	1.580420e+14	6.001561e+13	6.507293e+03	2.396533e+03	1.880599e+03	0	4.835927e-04
5.500000e+08	3.046932e+12	0.000000e+00	6.379310e-01	7.241763e+13	1.563775e+14	5.971806e+13	6.494455e+03	2.393877e+03	1.878514e+03	0	4.814630e-04
5.600000e+08	3.007195e+12	0.000000e+00	6.379310e-01	7.155934e+13	1.547552e+14	5.942262e+13	6.481770e+03	2.391273e+03	1.876471e+03	0	4.793608e-04
5.700000e+08	2.968304e+12	0.000000e+00	6.379310e-01	7.071919e+13	1.531733e+14	5.912929e+13	6.469235e+03	2.388719e+03	1.874466e+03	0	4.772854e-04
5.800000e+08	2.930232e+12	0.000000e+00	6.379310e-01	6.989660e+13	1.516298e+14	5.883803e+13	6.456846e+03	2.386212e+03	1.872499e+03	0	4.752360e-04
5.900000e+08	2.892954e+12	0.000000e+00	6.379310e-01	6.909103e+13	1.501232e+14	5.854884e+13	6.444601e+03	2.383750e+03	1.870568e+03	0	4.732121e-04
6.000000e+08	2.856446e+12	0.000000e+00	6.379310e-01	6.830195e+13	1.486519e+14	5.826170e+13	6.432496e+03	2.381333e+03	1.868671e+03	0	4.712131e-04
6.100000e+08	2.820684e+12	0.000000e+00	6.379310e-01	6.752886e+13	1.472144e+14	5.797658e+13	6.420529e+03	2.378957e+03	1.866806e+03	0	4.692383e-04
6.200000e+08	2.785645e+12	0.000000e+00	6.379310e-01	6.677129e+13	1.458093e+14	5.769349e+13	6.408698e+03	2.376622e+03	1.864974e+03	0	4.672873e-04
6.300000e+08	2.751309e+12	0.000000e+00	6.379310e-01	6.602877e+13	1.444353e+14	5.741239e+13	6.396998e+03	2.374325e+03	1.863172e+03	0	4.653594e-04
6.400000e+08	2.717654e+12	0.000000e+00	6.379310e-01	6.530087e+13	1.430912e+14	5.713327e+13	6.385428e+03	2.372066e+03	1.861399e+03	0	4.634541e-04
6.500000e+08	2.684660e+12	0.000000e+00	6.379310e-01	6.458715e+13	1.417758e+14	5.685612e+13	6.373985e+03	2.369842e+03	1.859654e+03	0	4.615709e-04
6.600000e+08	2.652309e+12	0.000000e+00	6.379310e-01	6.388722e+13	1.404880e+14	5.658092e+13	6.362666e+03	2.367653e+03	1.857936e+03	0	4.597094e-04
6.700000e+08	2.620583e+12	0.000000e+00	6.379310e-01	6.320068e+13	1.392268e+14	5.630765e+13	6.351470e+03	2.365497e+03	1.856244e+03	0	4.578691e-04
6.800000e+08	2.589462e+12	0.000000e+00	6.379310e-01	6.252715e+13	1.379912e+14	5.603631e+13	6.340394e+03	2.363373e+03	1.854578e+03	0	4.560494e-04
6.900000e+08	2.558932e+12	0.000000e+00	6.379310e-01	6.186627e+13	1.367803e+14	5.576687e+13	6.329435e+03	2.361281e+03	1.852935e+03	0	4.542500e-04
7.000000e+08	2.528975e+12	0.000000e+00	6.379310e-01	6.121770e+13	1.355931e+14	5.549931e+13	6.318592e+03	2.359217e+03	1.851316e+03	0	4.524704e-04
7.100000e+08	2.499576e+12	0.000000e+00	6.379310e-01	6.058110e+13	1.344289e+14	5.523363e+13	6.307862e+03	2.357183e+03	1.849720e+03	0	4.507103e-04
7.200000e+08	2.470719e+12	0.000000e+00	6.379310e-01	5.995614e+13	1.332869e+14	5.496981e+13	6.297243e+03	2.355177e+03	1.848145e+03	0	4.489691e-04
7.300000e+08	2.442391e+12	0.000000e+00	6.379310e-01	5.934252e+13	1.321663e+14	5.470783e+13	6.286734e+03	2.353197e+03	1.846592e+03	0	4.472466e-04
7.400000e+08	2.414577e+12	0.000000e+00	6.379310e-01	5.873994e+13	1.310663e+14	5.444768e+13	6.276331e+03	2.351244e+03	1.845059e+03	0	4.455424e-04
7.500000e+08	2.387263e+12	0.000000e+00	6.379310e-01	5.814810e+13	1.299864e+14	5.418934e+13	6.266034e+03	2.349316e+03	1.843546e+03	0	4.438560e-04
7.600000e+08	2.360436e+12	0.000000e+00	6.379310e-01	5.756673e+13	1.289259e+14	5.393280e+13	6.255840e+03	2.347412e+03	1.842052e+03	0	4.421871e-04
7.700000e+08	2.334085e+12	0.000000e+00	6.379310e-01	5.699555e+13	1.278841e+14	5.367805e+13	6.245748e+03	2.345532e+03	1.840577e+03	0	4.405355e-04
7.800000e+08	2.308196e+12	0.000000e+00	6.379310e-01	5.643432e+13	1.268605e+14	5.342507e+13	6.235756e+03	2.343675e+03	1.839120e+03	0	4.389007e-04
7.900000e+08	2.282759e+12	0.000000e+00	6.379310e-01	5.588277e+13	1.258545e+14	5.317384e+13	6.225861e+03	2.341840e+03	1.837680e+03	0	4.372824e-04
8.000000e+08	2.257761e+12	0.000000e+00	6.379310e-01	5.534066e+13	1.248656e+14	5.292436e+13	6.216063e+03	2.340027e+03	1.836257e+03	0	4.356804e-04
8.100000e+08	2.233191e+12	0.000000e+00	6.379310e-01	5.480776e+13	1.238933e+14	5.267661e+13	6.206360e+03	2.338235e+03	1.834851e+03	0	4.340942e-04
8.200000e+08	2.209040e+12	0.000000e+00	6.379310e-01	5.428385e+13	1.229370e+14	5.243057e+13	6.196750e+03	2.336464e+03	1.833461e+03	0	4.325237e-04
8.300000e+08	2.185297e+12	0.000000e+00	6.379310e-01	5.376870e+13	1.219963e+14	5.218623e+13	6.187232e+03	2.334712e+03	1.832086e+03	0	4.309685e-04
8.400000e+08	2.161952e+12	0.000000e+00	6.379310e-01	5.326210e+13	1.210708e+14	5.194358e+13	6.177803e+03	2.332979e+03	1.830727e+03	0	4.294283e-04
8.500000e+08	2.138995e+12	0.000000e+00	6.379310e-01	5.276384e+13	1.201601e+14	5.170261e+13	6.168463e+03	2.331266e+03	1.829382e+03	0	4.279029e-04
8.600000e+08	2.116417e+12	0.000000e+00	6.379310e-01	5.227374e+13	1.192637e+14	5.146329e+13	6.159210e+03	2.329570e+03	1.828052e+03	0	4.263920e-04
8.700000e+08	2.094209e+12	0.000000e+00	6.379310e-01	5.179158e+13	1.183812e+14	5.122562e+13	6.150043e+03	2.327893e+03	1.826735e+03	0	4.248954e-04
8.800000e+08	2.072362e+12	0.000000e+00	6.379310e-01	5.131720e+13	1.175122e+14	5.098959e+13	6.140960e+03	2.326233e+03	1.825433e+03	0	4.234127e-04
8.900000e+08	2.050869e+12	0.000000e+00	6.379310e-01	5.085040e+13	1.166565e+14	5.075518e+13	6.131960e+03	2.324589e+03	1.824143e+03	0	4.219438e-04
9.000000e+08	2.029720e+12	0.000000e+00	6.379310e-01	5.039102e+13	1.158136e+14	5.052238e+13	6.123042e+03	2.322963e+03	1.822867e+03	0	4.204885e-04
9.100000e+08	2.008908e+12	0.000000e+00	6.379310e-01	4.993888e+13	1.149833e+14	5.029117e+13	6.114204e+03	2.321352e+03	1.821603e+03	0	4.190463e-04
9.200000e+08	1.988426e+12	0.000000e+00	6.379310e-01	4.949382e+13	1.141651e+14	5.006155e+13	6.105445e+03	2.319757e+03	1.820351e+03	0	4.176173e-04
9.300000e+08	1.968265e+12	0.000000e+00	6.379310e-01	4.905567e+13	1.133588e+14	4.983350e+13	6.096764e+03	2.318177e+03	1.819111e+03	0	4.162011e-04
9.400000e+08	1.948418e+12	0.000000e+00	6.379310e-01	4.862429e+13	1.125642e+14	4.960700e+13	6.088159e+03	2.316612e+03	1.817883e+03	0	4.147974e-04
9.500000e+08	1.928879e+12	0.000000e+00	6.379310e-01	4.819953e+13	1.117808e+14	4.938205e+13	6.079630e+03	2.315062e+03	1.816667e+03	0	4.134062e-04
9.600000e+08	1.909641e+12	0.000000e+00	6.379310e-01	4.778123e+13	1.110084e+14	4.915864e+13	6.071176e+03	2.313526e+03	1.815462e+03	0	4.120272e-04
9.700000e+08	1.890697e+12	0.000000e+00	6.379310e-01	4.736926e+13	1.102469e+14	4.893675e+13	6.062794e+03	2.312004e+03	1.814267e+03	0	4.106602e-04
9.800000e+08	1.872040e+12	0.000000e+00	6.379310e-01	4.696348e+13	1.094958e+14	4.871637e+13	6.054484e+03	2.310496e+03	1.813084e+03	0	4.093050e-04
9.900000e+08	1.853665e+12	0.000000e+00	6.379310e-01	4.656376e+13	1.087550e+14	4.849748e+13	6.046246e+03	2.309001e+03	1.811911e+03	0	4.079614e-04
1.000000e+09	1.835565e+12	0.000000e+00	6.379310e-01	4.616996e+13	1.080242e+14	4.828008e+13	6.038077e+03	2.307519e+03	1.810748e+03	0	4.066292e-04
1.010000e+09	1.817734e+12	0.000000e+00	6.379310e-01	4.578196e+13	1.073033e+14	4.806416e+13	6.029977e+03	2.306050e+03	1.809595e+03	0	4.053083e-04
1.020000e+09	1.800168e+12	0.000000e+00	6.379310e-01	4.539964e+13	1.065919e+14	4.784970e+13	6.021945e+03	2.304594e+03	1.808452e+03	0	4.039984e-04
1.030000e+09	1.782859e+12	0.000000e+00	6.379310e-01	4.502287e+13	1.058898e+14	4.763669e+13	6.013980e+03	2.303149e+03	1.807319e+03	0	4.026995e-04
1.040000e+09	1.765804e+12	0.000000e+00	6.379310e-01	4.465155e+13	1.051970e+14	4.742512e+13	6.006081e+03	2.301717e+03	1.806195e+03	0	4.014112e-04
1.050000e+09	1.748996e+12	0.000000e+00	6.379310e-01	4.428556e+13	1.045130e+14	4.721497e+13	5.998247e+03	2.300296e+03	1.805080e+03	0	4.001335e-04
1.060000e+09	1.732430e+12	0.000000e+00	6.379310e-01	4.392479e+13	1.038379e+14	4.700625e+13	5.990477e+03	2.298887e+03	1.803974e+03	0	3.988662e-04
1.070000e+09	1.716102e+12	0.000000e+00	6.379310e-01	4.356913e+13	1.031713e+14	4.679893e+13	5.982770e+03	2.297490e+03	1.802877e+03	0	3.976091e-04
1.080000e+09	1.700006e+12	0.000000e+00	6.379310e-01	4.321849e+13	1.025131e+14	4.659301e+13	5.975125e+03	2.296103e+03	1.801789e+03	0	3.963622e-04
1.090000e+09	1.684139e+12	0.000000e+00	6.379310e-01	4.287275e+13	1.018631e+14	4.638847e+13	5.967542e+03	2.294727e+03	1.800710e+03	0	3.951251e-04
1.100000e+09	1.668494e+12	0.000000e+00	6.379310e-01	4.253182e+13	1.012212e+14	4.618530e+13	5.960019e+03	2.293362e+03	1.799638e+03	0	3.938978e-04
1.110000e+09	1.653069e+12	0.000000e+00	6.379310e-01	4.219561e+13	1.005872e+14	4.598350e+13	5.952556e+03	2.292007e+03	1.798575e+03	0	3.926802e-04
1.120000e+09	1.637858e+12	0.000000e+00	6.379310e-01	4.186402e+13	9.996084e+13	4.578305e+13	5.945151e+03	2.290663e+03	1.797520e+03	0	3.914720e-04
1.130000e+09	1.622857e+12	0.000000e+00	6.379310e-01	4.153696e+13	9.934209e+13	4.558394e+13	5.937805e+03	2.289329e+03	1.796473e+03	0	3.902733e-04
1.140000e+09	1.608063e+12	0.000000e+00	6.379310e-01	4.121434e+13	9.873076e+13	4.538616e+13	5.930516e+03	2.288004e+03	1.795434e+03	0	3.890837e-04
1.150000e+09	1.593470e+12	0.000000e+00	6.379310e-01	4.089608e+13	9.812669e+13	4.518970e+13	5.923283e+03	2.286690e+03	1.794402e+03	0	3.879032e-04
1.160000e+09	1.579076e+12	0.000000e+00	6.379310e-01	4.058209e+13	9.752976e+13	4.499455e+13	5.916106e+03	2.285385e+03	1.793378e+03	0	3.867316e-04
1.170000e+09	1.564876e+12	0.000000e+00	6.379310e-01	4.027229e+13	9.693983e+13	4.480071e+13	5.908984e+03	2.284089e+03	1.792362e+03	0	3.855689e-04
1.180000e+09	1.550867e+12	0.000000e+00	6.379310e-01	3.996661e+13	9.635675e+13	4.460815e+13	5.901916e+03	2.282802e+03	1.791352e+03	0	3.844149e-04
1.190000e+09	1.537045e+12	0.000000e+00	6.379310e-01	3.966495e+13	9.578040e+13	4.441687e+13	5.894902e+03	2.281525e+03	1.790350e+03	0	3.832695e-04
1.200000e+09	1.523407e+12	0.000000e+00	6.379310e-01	3.936725e+13	9.521065e+13	4.422686e+13	5.887940e+03	2.280257e+03	1.789354e+03	0	3.821325e-04
1.210000e+09	1.509948e+12	0.000000e+00	6.379310e-01	3.907344e+13	9.464739e+13	4.403812e+13	5.881031e+03	2.278997e+03	1.788366e+03	0	3.810039e-04
1.220000e+09	1.496667e+12	0.000000e+00	6.379310e-01	3.878343e+13	9.409048e+13	4.385062e+13	5.874173e+03	2.277746e+03	1.787384e+03	0	3.798834e-04
1.230000e+09	1.483558e+12	0.000000e+00	6.379310e-01	3.849717e+13	9.353983e+13	4.366436e+13	5.867366e+03	2.276504e+03	1.786409e+03	0	3.787711e-04
1.240000e+09	1.470620e+12	0.000000e+00	6.379310e-01	3.821457e+13	9.299530e+13	4.347934e+13	5.860609e+03	2.275270e+03	1.785441e+03	0	3.776668e-04
1.250000e+09	1.457849e+12	0.000000e+00	6.379310e-01	3.793558e+13	9.245680e+13	4.329553e+13	5.853901e+03	2.274044e+03	1.784479e+03	0	3.765704e-04
1.260000e+09	1.445242e+12	0.000000e+00	6.379310e-01	3.766013e+13	9.192421e+13	4.311294e+13	5.847243e+03	2.272826e+03	1.783524e+03	0	3.754818e-04
1.270000e+09	1.432796e+12	0.000000e+00	6.379310e-01	3.738816e+13	9.139744e+13	4.293155e+13	5.840632e+03	2.271616e+03	1.782574e+03	0	3.744008e-04
1.280000e+09	1.420508e+12	0.000000e+00	6.379310e-01	3.711959e+13	9.087637e+13	4.275135e+13	5.834069e+03	2.270415e+03	1.781631e+03	0	3.733275e-04
1.290000e+09	1.408376e+12	0.000000e+00	6.379310e-01	3.685438e+13	9.036092e+13	4.257234e+13	5.827553e+03	2.269221e+03	1.780694e+03	0	3.722616e-04
1.300000e+09	1.396396e+12	0.000000e+00	6.379310e-01	3.659246e+13	8.985098e+13	4.239450e+13	5.821084e+03	2.268034e+03	1.779763e+03	0	3.712030e-04
1.310000e+09	1.384565e+12	0.000000e+00	6.379310e-01	3.633377e+13	8.934647e+13	4.221783e+13	5.814660e+03	2.266855e+03	1.778838e+03	0	3.701518e-04
1.320000e+09	1.372882e+12	0.000000e+00	6.379310e-01	3.607826e+13	8.884728e+13	4.204232e+13	5.808282e+03	2.265684e+03	1.777919e+03	0	3.691077e-04
1.330000e+09	1.361344e+12	0.000000e+00	6.379310e-01	3.582587e+13	8.835334e+13	4.186795e+13	5.801949e+03	2.264520e+03	1.777005e+03	0	3.680707e-04
1.340000e+09	1.349948e+12	0.000000e+00	6.379310e-01	3.557655e+13	8.786455e+13	4.169472e+13	5.795659e+03	2.263363e+03	1.776097e+03	0	3.670408e-04
1.350000e+09	1.338691e+12	0.000000e+00	6.379310e-01	3.533024e+13	8.738082e+13	4.152263e+13	5.789414e+03	2.262213e+03	1.775195e+03	0	3.660177e-04
1.360000e+09	1.327571e+12	0.000000e+00	6.379310e-01	3.508689e+13	8.690209e+13	4.135165e+13	5.783211e+03	2.261070e+03	1.774298e+03	0	3.650015e-04
