#t		Qconv[W]	Ri[Rp]		R*[Rp]		Qc[W]		Qm[W]		Qr[W]		Tcmb[K]		Tl[K]		Tup[K]		RiFlag		Bs[T]
0.000000e+00	1.216209e+13	0.000000e+00	6.347826e-01	2.560193e+14	8.674047e+14	8.899192e+13	8.368762e+03	3.113864e+03	2.411944e+03	0	7.644766e-04
1.000000e+07	1.172162e+13	0.000000e+00	6.347826e-01	2.471372e+14	7.864746e+14	8.849884e+13	8.328726e+03	3.065772e+03	2.374692e+03	0	7.551340e-04
2.000000e+07	1.131784e+13	0.000000e+00	6.347826e-01	2.389919e+14	7.203319e+14	8.800945e+13	8.290067e+03	3.024065e+03	2.342387e+03	0	7.463616e-04
3.000000e+07	1.094553e+13	0.000000e+00	6.347826e-01	2.314789e+14	6.653858e+14	8.752371e+13	8.252672e+03	2.987529e+03	2.314086e+03	0	7.380861e-04
4.000000e+07	1.060049e+13	0.000000e+00	6.347826e-01	2.245138e+14	6.190946e+14	8.704160e+13	8.216444e+03	2.955238e+03	2.289075e+03	0	7.302475e-04
5.000000e+07	1.027929e+13	0.000000e+00	6.347826e-01	2.180279e+14	5.796146e+14	8.656309e+13	8.181297e+03	2.926480e+03	2.266799e+03	0	7.227961e-04
6.000000e+07	9.979097e+12	0.000000e+00	6.347826e-01	2.119643e+14	5.455792e+14	8.608814e+13	8.147158e+03	2.900691e+03	2.246824e+03	0	7.156904e-04
7.000000e+07	9.697549e+12	0.000000e+00	6.347826e-01	2.062755e+14	5.159563e+14	8.561673e+13	8.113961e+03	2.877425e+03	2.228802e+03	0	7.088953e-04
8.000000e+07	9.432658e+12	0.000000e+00	6.347826e-01	2.009217e+14	4.899533e+14	8.514883e+13	8.081649e+03	2.856318e+03	2.212453e+03	0	7.023811e-04
9.000000e+07	9.182736e+12	0.000000e+00	6.347826e-01	1.958690e+14	4.669528e+14	8.468441e+13	8.050170e+03	2.837075e+03	2.197547e+03	0	6.961222e-04
1.000000e+08	8.946338e+12	0.000000e+00	6.347826e-01	1.910883e+14	4.464671e+14	8.422343e+13	8.019476e+03	2.819450e+03	2.183896e+03	0	6.900966e-04
1.100000e+08	8.722218e+12	0.000000e+00	6.347826e-01	1.865547e+14	4.281063e+14	8.376587e+13	7.989527e+03	2.803241e+03	2.171340e+03	0	6.842851e-04
1.200000e+08	8.509294e+12	0.000000e+00	6.347826e-01	1.822463e+14	4.115558e+14	8.331171e+13	7.960284e+03	2.788275e+03	2.159748e+03	0	6.786710e-04
1.300000e+08	8.306620e+12	0.000000e+00	6.347826e-01	1.781443e+14	3.965585e+14	8.286091e+13	7.931711e+03	2.774409e+03	2.149008e+03	0	6.732394e-04
1.400000e+08	8.113367e+12	0.000000e+00	6.347826e-01	1.742319e+14	3.829032e+14	8.241344e+13	7.903777e+03	2.761519e+03	2.139023e+03	0	6.679775e-04
1.500000e+08	7.928800e+12	0.000000e+00	6.347826e-01	1.704945e+14	3.704144e+14	8.196929e+13	7.876453e+03	2.749498e+03	2.129712e+03	0	6.628734e-04
1.600000e+08	7.752269e+12	0.000000e+00	6.347826e-01	1.669188e+14	3.589454e+14	8.152841e+13	7.849712e+03	2.738256e+03	2.121004e+03	0	6.579169e-04
1.700000e+08	7.583192e+12	0.000000e+00	6.347826e-01	1.634933e+14	3.483727e+14	8.109079e+13	7.823527e+03	2.727713e+03	2.112838e+03	0	6.530987e-04
1.800000e+08	7.421050e+12	0.000000e+00	6.347826e-01	1.602075e+14	3.385916e+14	8.065639e+13	7.797877e+03	2.717801e+03	2.105160e+03	0	6.484103e-04
1.900000e+08	7.265375e+12	0.000000e+00	6.347826e-01	1.570520e+14	3.295129e+14	8.022519e+13	7.772739e+03	2.708460e+03	2.097924e+03	0	6.438442e-04
2.000000e+08	7.115744e+12	0.000000e+00	6.347826e-01	1.540182e+14	3.210601e+14	7.979717e+13	7.748093e+03	2.699635e+03	2.091089e+03	0	6.393935e-04
2.100000e+08	6.971774e+12	0.000000e+00	6.347826e-01	1.510986e+14	3.131671e+14	7.937229e+13	7.723921e+03	2.691282e+03	2.084619e+03	0	6.350519e-04
2.200000e+08	6.833120e+12	0.000000e+00	6.347826e-01	1.482861e+14	3.057770e+14	7.895054e+13	7.700204e+03	2.683358e+03	2.078481e+03	0	6.308137e-04
2.300000e+08	6.699463e+12	0.000000e+00	6.347826e-01	1.455744e+14	2.988401e+14	7.853187e+13	7.676926e+03	2.675827e+03	2.072648e+03	0	6.266736e-04
2.400000e+08	6.570514e+12	0.000000e+00	6.347826e-01	1.429576e+14	2.923130e+14	7.811628e+13	7.654071e+03	2.668656e+03	2.067093e+03	0	6.226269e-04
2.500000e+08	6.446007e+12	0.000000e+00	6.347826e-01	1.404304e+14	2.861576e+14	7.770374e+13	7.631625e+03	2.661815e+03	2.061794e+03	0	6.186690e-04
2.600000e+08	6.325700e+12	0.000000e+00	6.347826e-01	1.379879e+14	2.803405e+14	7.729421e+13	7.609574e+03	2.655279e+03	2.056732e+03	0	6.147959e-04
2.700000e+08	6.209366e+12	0.000000e+00	6.347826e-01	1.356256e+14	2.748319e+14	7.688767e+13	7.587903e+03	2.649025e+03	2.051887e+03	0	6.110037e-04
2.800000e+08	6.096798e+12	0.000000e+00	6.347826e-01	1.333392e+14	2.696057e+14	7.648411e+13	7.566602e+03	2.643030e+03	2.047244e+03	0	6.072890e-04
2.900000e+08	5.987805e+12	0.000000e+00	6.347826e-01	1.311250e+14	2.646384e+14	7.608349e+13	7.545658e+03	2.637276e+03	2.042787e+03	0	6.036483e-04
3.000000e+08	5.882209e+12	0.000000e+00	6.347826e-01	1.289793e+14	2.599093e+14	7.568579e+13	7.525060e+03	2.631745e+03	2.038503e+03	0	6.000788e-04
3.100000e+08	5.779844e+12	0.000000e+00	6.347826e-01	1.268988e+14	2.553997e+14	7.529099e+13	7.504798e+03	2.626423e+03	2.034380e+03	0	5.965774e-04
3.200000e+08	5.680555e+12	0.000000e+00	6.347826e-01	1.248804e+14	2.510929e+14	7.489906e+13	7.484860e+03	2.621293e+03	2.030407e+03	0	5.931416e-04
3.300000e+08	5.584201e+12	0.000000e+00	6.347826e-01	1.229213e+14	2.469737e+14	7.450998e+13	7.465238e+03	2.616344e+03	2.026574e+03	0	5.897688e-04
3.400000e+08	5.490646e+12	0.000000e+00	6.347826e-01	1.210187e+14	2.430287e+14	7.412372e+13	7.445922e+03	2.611564e+03	2.022871e+03	0	5.864566e-04
3.500000e+08	5.399765e+12	0.000000e+00	6.347826e-01	1.191702e+14	2.392454e+14	7.374027e+13	7.426904e+03	2.606941e+03	2.019290e+03	0	5.832030e-04
3.600000e+08	5.311442e+12	0.000000e+00	6.347826e-01	1.173732e+14	2.356129e+14	7.335960e+13	7.408175e+03	2.602467e+03	2.015824e+03	0	5.800057e-04
3.700000e+08	5.225565e+12	0.000000e+00	6.347826e-01	1.156257e+14	2.321209e+14	7.298168e+13	7.389727e+03	2.598131e+03	2.012465e+03	0	5.768628e-04
3.800000e+08	5.142031e+12	0.000000e+00	6.347826e-01	1.139256e+14	2.287604e+14	7.260650e+13	7.371552e+03	2.593925e+03	2.009208e+03	0	5.737724e-04
3.900000e+08	5.060744e+12	0.000000e+00	6.347826e-01	1.122708e+14	2.255227e+14	7.223403e+13	7.353643e+03	2.589842e+03	2.006045e+03	0	5.707329e-04
4.000000e+08	4.981610e+12	0.000000e+00	6.347826e-01	1.106595e+14	2.224004e+14	7.186425e+13	7.335993e+03	2.585874e+03	2.002972e+03	0	5.677424e-04
4.100000e+08	4.904545e+12	0.000000e+00	6.347826e-01	1.090901e+14	2.193864e+14	7.149714e+13	7.318595e+03	2.582015e+03	1.999983e+03	0	5.647996e-04
4.200000e+08	4.829466e+12	0.000000e+00	6.347826e-01	1.075608e+14	2.164741e+14	7.113268e+13	7.301443e+03	2.578259e+03	1.997074e+03	0	5.619027e-04
4.300000e+08	4.756297e+12	0.000000e+00	6.347826e-01	1.060701e+14	2.136578e+14	7.077084e+13	7.284530e+03	2.574601e+03	1.994240e+03	0	5.590505e-04
4.400000e+08	4.684963e+12	0.000000e+00	6.347826e-01	1.046165e+14	2.109318e+14	7.041160e+13	7.267851e+03	2.571034e+03	1.991477e+03	0	5.562416e-04
4.500000e+08	4.615397e+12	0.000000e+00	6.347826e-01	1.031987e+14	2.082913e+14	7.005494e+13	7.251399e+03	2.567555e+03	1.988782e+03	0	5.534747e-04
4.600000e+08	4.547533e+12	0.000000e+00	6.347826e-01	1.018153e+14	2.057316e+14	6.970085e+13	7.235169e+03	2.564159e+03	1.986152e+03	0	5.507486e-04
4.700000e+08	4.481308e+12	0.000000e+00	6.347826e-01	1.004650e+14	2.032483e+14	6.934929e+13	7.219155e+03	2.560841e+03	1.983582e+03	0	5.480620e-04
4.800000e+08	4.416664e+12	0.000000e+00	6.347826e-01	9.914673e+13	2.008375e+14	6.900025e+13	7.203353e+03	2.557599e+03	1.981070e+03	0	5.454139e-04
4.900000e+08	4.353545e+12	0.000000e+00	6.347826e-01	9.785930e+13	1.984954e+14	6.865371e+13	7.187758e+03	2.554427e+03	1.978613e+03	0	5.428032e-04
5.000000e+08	4.291896e+12	0.000000e+00	6.347826e-01	9.660163e+13	1.962187e+14	6.830965e+13	7.172364e+03	2.551323e+03	1.976209e+03	0	5.402289e-04
5.100000e+08	4.231669e+12	0.000000e+00	6.347826e-01	9.537272e+13	1.940041e+14	6.796805e+13	7.157167e+03	2.548284e+03	1.973855e+03	0	5.376900e-04
5.200000e+08	4.172813e+12	0.000000e+00	6.347826e-01	9.417157e+13	1.918488e+14	6.762889e+13	7.142162e+03	2.545306e+03	1.971549e+03	0	5.351856e-04
5.300000e+08	4.115284e+12	0.000000e+00	6.347826e-01	9.299726e+13	1.897498e+14	6.729214e+13	7.127346e+03	2.542387e+03	1.969288e+03	0	5.327147e-04
5.400000e+08	4.059037e+12	0.000000e+00	6.347826e-01	9.184891e+13	1.877046e+14	6.695779e+13	7.112714e+03	2.539525e+03	1.967071e+03	0	5.302766e-04
5.500000e+08	4.004030e+12	0.000000e+00	6.347826e-01	9.072566e+13	1.857108e+14	6.662583e+13	7.098262e+03	2.536717e+03	1.964895e+03	0	5.278703e-04
5.600000e+08	3.950222e+12	0.000000e+00	6.347826e-01	8.962671e+13	1.837661e+14	6.629622e+13	7.083985e+03	2.533960e+03	1.962760e+03	0	5.254950e-04
5.700000e+08	3.897576e+12	0.000000e+00	6.347826e-01	8.855128e+13	1.818684e+14	6.596895e+13	7.069881e+03	2.531253e+03	1.960663e+03	0	5.231501e-04
5.800000e+08	3.846056e+12	0.000000e+00	6.347826e-01	8.749863e+13	1.800156e+14	6.564401e+13	7.055946e+03	2.528593e+03	1.958603e+03	0	5.208348e-04
5.900000e+08	3.795624e+12	0.000000e+00	6.347826e-01	8.646805e+13	1.782060e+14	6.532136e+13	7.042175e+03	2.525979e+03	1.956578e+03	0	5.185483e-04
6.000000e+08	3.746249e+12	0.000000e+00	6.347826e-01	8.545887e+13	1.764377e+14	6.500100e+13	7.028567e+03	2.523408e+03	1.954587e+03	0	5.162899e-04
6.100000e+08	3.697898e+12	0.000000e+00	6.347826e-01	8.447043e+13	1.747091e+14	6.468291e+13	7.015116e+03	2.520880e+03	1.952629e+03	0	5.140591e-04
6.200000e+08	3.650540e+12	0.000000e+00	6.347826e-01	8.350211e+13	1.730186e+14	6.436707e+13	7.001820e+03	2.518392e+03	1.950702e+03	0	5.118552e-04
6.300000e+08	3.604145e+12	0.000000e+00	6.347826e-01	8.255331e+13	1.713648e+14	6.405345e+13	6.988676e+03	2.515944e+03	1.948805e+03	0	5.096776e-04
6.400000e+08	3.558685e+12	0.000000e+00	6.347826e-01	8.162346e+13	1.697462e+14	6.374205e+13	6.975681e+03	2.513533e+03	1.946937e+03	0	5.075256e-04
6.500000e+08	3.514132e+12	0.000000e+00	6.347826e-01	8.071200e+13	1.681615e+14	6.343284e+13	6.962832e+03	2.511158e+03	1.945098e+03	0	5.053987e-04
6.600000e+08	3.470461e+12	0.000000e+00	6.347826e-01	7.981840e+13	1.666095e+14	6.312581e+13	6.950125e+03	2.508818e+03	1.943286e+03	0	5.032964e-04
6.700000e+08	3.427646e+12	0.000000e+00	6.347826e-01	7.894216e+13	1.650890e+14	6.282093e+13	6.937559e+03	2.506512e+03	1.941499e+03	0	5.012181e-04
6.800000e+08	3.385662e+12	0.000000e+00	6.347826e-01	7.808279e+13	1.635989e+14	6.251820e+13	6.925130e+03	2.504238e+03	1.939738e+03	0	4.991633e-04
6.900000e+08	3.344487e+12	0.000000e+00	6.347826e-01	7.723980e+13	1.621381e+14	6.221759e+13	6.912836e+03	2.501996e+03	1.938002e+03	0	4.971315e-04
7.000000e+08	3.304098e+12	0.000000e+00	6.347826e-01	7.641276e+13	1.607056e+14	6.191909e+13	6.900675e+03	2.499785e+03	1.936289e+03	0	4.951222e-04
7.100000e+08	3.264473e+12	0.000000e+00	6.347826e-01	7.560121e+13	1.593005e+14	6.162267e+13	6.888643e+03	2.497603e+03	1.934599e+03	0	4.931350e-04
7.200000e+08	3.225592e+12	0.000000e+00	6.347826e-01	7.480475e+13	1.579218e+14	6.132833e+13	6.876738e+03	2.495450e+03	1.932931e+03	0	4.911693e-04
7.300000e+08	3.187434e+12	0.000000e+00	6.347826e-01	7.402296e+13	1.565687e+14	6.103605e+13	6.864958e+03	2.493324e+03	1.931284e+03	0	4.892248e-04
7.400000e+08	3.149980e+12	0.000000e+00	6.347826e-01	7.325546e+13	1.552404e+14	6.074581e+13	6.853301e+03	2.491225e+03	1.929659e+03	0	4.873011e-04
7.500000e+08	3.113211e+12	0.000000e+00	6.347826e-01	7.250186e+13	1.539360e+14	6.045759e+13	6.841765e+03	2.489153e+03	1.928053e+03	0	4.853976e-04
7.600000e+08	3.077110e+12	0.000000e+00	6.347826e-01	7.176181e+13	1.526549e+14	6.017138e+13	6.830347e+03	2.487105e+03	1.926467e+03	0	4.835141e-04
7.700000e+08	3.041659e+12	0.000000e+00	6.347826e-01	7.103494e+13	1.513963e+14	5.988716e+13	6.819044e+03	2.485082e+03	1.924900e+03	0	4.816500e-04
7.800000e+08	3.006840e+12	0.000000e+00	6.347826e-01	7.032093e+13	1.501595e+14	5.960491e+13	6.807856e+03	2.483083e+03	1.923352e+03	0	4.798051e-04
7.900000e+08	2.972639e+12	0.000000e+00	6.347826e-01	6.961944e+13	1.489439e+14	5.932463e+13	6.796780e+03	2.481107e+03	1.921821e+03	0	4.779790e-04
8.000000e+08	2.939039e+12	0.000000e+00	6.347826e-01	6.893016e+13	1.477489e+14	5.904629e+13	6.785814e+03	2.479154e+03	1.920308e+03	0	4.761713e-04
8.100000e+08	2.906025e+12	0.000000e+00	6.347826e-01	6.825278e+13	1.465738e+14	5.876987e+13	6.774957e+03	2.477222e+03	1.918812e+03	0	4.743817e-04
8.200000e+08	2.873583e+12	0.000000e+00	6.347826e-01	6.758701e+13	1.454181e+14	5.849537e+13	6.764205e+03	2.475312e+03	1.917333e+03	0	4.726098e-04
8.300000e+08	2.841698e+12	0.000000e+00	6.347826e-01	6.693255e+13	1.442813e+14	5.822277e+13	6.753559e+03	2.473423e+03	1.915869e+03	0	4.708552e-04
8.400000e+08	2.810357e+12	0.000000e+00	6.347826e-01	6.628914e+13	1.431628e+14	5.795205e+13	6.743015e+03	2.471554e+03	1.914421e+03	0	4.691178e-04
8.500000e+08	2.779546e+12	0.000000e+00	6.347826e-01	6.565650e+13	1.420620e+14	5.768320e+13	6.732572e+03	2.469704e+03	1.912989e+03	0	4.673971e-04
8.600000e+08	2.749253e+12	0.000000e+00	6.347826e-01	6.503438e+13	1.409787e+14	5.741621e+13	6.722228e+03	2.467874e+03	1.911571e+03	0	4.656930e-04
8.700000e+08	2.719465e+12	0.000000e+00	6.347826e-01	6.442252e+13	1.399122e+14	5.715105e+13	6.711982e+03	2.466063e+03	1.910168e+03	0	4.640049e-04
8.800000e+08	2.690170e+12	0.000000e+00	6.347826e-01	6.382069e+13	1.388621e+14	5.688771e+13	6.701832e+03	2.464269e+03	1.908779e+03	0	4.623328e-04
8.900000e+08	2.661357e+12	0.000000e+00	6.347826e-01	6.322864e+13	1.378281e+14	5.662619e+13	6.691777e+03	2.462494e+03	1.907404e+03	0	4.606762e-04
9.000000e+08	2.633014e+12	0.000000e+00	6.347826e-01	6.264615e+13	1.368096e+14	5.636645e+13	6.681814e+03	2.460736e+03	1.906042e+03	0	4.590350e-04
9.100000e+08	2.605131e+12	0.000000e+00	6.347826e-01	6.207299e+13	1.358063e+14	5.610850e+13	6.671944e+03	2.458995e+03	1.904694e+03	0	4.574089e-04
9.200000e+08	2.577696e+12	0.000000e+00	6.347826e-01	6.150896e+13	1.348179e+14	5.585232e+13	6.662163e+03	2.457271e+03	1.903358e+03	0	4.557976e-04
9.300000e+08	2.550700e+12	0.000000e+00	6.347826e-01	6.095384e+13	1.338439e+14	5.559789e+13	6.652470e+03	2.455563e+03	1.902035e+03	0	4.542008e-04
9.400000e+08	2.524132e+12	0.000000e+00	6.347826e-01	6.040744e+13	1.328839e+14	5.534520e+13	6.642865e+03	2.453871e+03	1.900724e+03	0	4.526183e-04
9.500000e+08	2.497983e+12	0.000000e+00	6.347826e-01	5.986955e+13	1.319378e+14	5.509423e+13	6.633346e+03	2.452194e+03	1.899426e+03	0	4.510499e-04
9.600000e+08	2.472243e+12	0.000000e+00	6.347826e-01	5.933999e+13	1.310050e+14	5.484497e+13	6.623911e+03	2.450532e+03	1.898139e+03	0	4.494953e-04
9.700000e+08	2.446904e+12	0.000000e+00	6.347826e-01	5.881857e+13	1.300854e+14	5.459741e+13	6.614560e+03	2.448886e+03	1.896863e+03	0	4.479544e-04
9.800000e+08	2.421957e+12	0.000000e+00	6.347826e-01	5.830511e+13	1.291786e+14	5.435154e+13	6.605290e+03	2.447254e+03	1.895599e+03	0	4.464268e-04
9.900000e+08	2.397392e+12	0.000000e+00	6.347826e-01	5.779945e+13	1.282843e+14	5.410733e+13	6.596101e+03	2.445636e+03	1.894346e+03	0	4.449123e-04
1.000000e+09	2.373202e+12	0.000000e+00	6.347826e-01	5.730140e+13	1.274022e+14	5.386479e+13	6.586992e+03	2.444032e+03	1.893104e+03	0	4.434109e-04
1.010000e+09	2.349378e+12	0.000000e+00	6.347826e-01	5.681081e+13	1.265321e+14	5.362389e+13	6.577961e+03	2.442442e+03	1.891872e+03	0	4.419221e-04
1.020000e+09	2.325913e+12	0.000000e+00	6.347826e-01	5.632752e+13	1.256736e+14	5.338462e+13	6.569007e+03	2.440865e+03	1.890651e+03	0	4.404459e-04
1.030000e+09	2.302799e+12	0.000000e+00	6.347826e-01	5.585137e+13	1.248266e+14	5.314697e+13	6.560129e+03	2.439302e+03	1.889439e+03	0	4.389821e-04
1.040000e+09	2.280028e+12	0.000000e+00	6.347826e-01	5.538222e+13	1.239907e+14	5.291092e+13	6.551325e+03	2.437751e+03	1.888238e+03	0	4.375303e-04
1.050000e+09	2.257594e+12	0.000000e+00	6.347826e-01	5.491990e+13	1.231658e+14	5.267647e+13	6.542596e+03	2.436213e+03	1.887047e+03	0	4.360906e-04
1.060000e+09	2.235489e+12	0.000000e+00	6.347826e-01	5.446429e+13	1.223516e+14	5.244361e+13	6.533939e+03	2.434687e+03	1.885865e+03	0	4.346626e-04
1.070000e+09	2.213706e+12	0.000000e+00	6.347826e-01	5.401524e+13	1.215478e+14	5.221231e+13	6.525354e+03	2.433174e+03	1.884693e+03	0	4.332462e-04
1.080000e+09	2.192239e+12	0.000000e+00	6.347826e-01	5.357263e+13	1.207543e+14	5.198256e+13	6.516839e+03	2.431672e+03	1.883530e+03	0	4.318412e-04
1.090000e+09	2.171081e+12	0.000000e+00	6.347826e-01	5.313631e+13	1.199709e+14	5.175436e+13	6.508394e+03	2.430182e+03	1.882376e+03	0	4.304474e-04
1.100000e+09	2.150226e+12	0.000000e+00	6.347826e-01	5.270616e+13	1.191972e+14	5.152770e+13	6.500017e+03	2.428704e+03	1.881231e+03	0	4.290648e-04
1.110000e+09	2.129668e+12	0.000000e+00	6.347826e-01	5.228205e+13	1.184332e+14	5.130255e+13	6.491708e+03	2.427237e+03	1.880094e+03	0	4.276930e-04
1.120000e+09	2.109401e+12	0.000000e+00	6.347826e-01	5.186387e+13	1.176787e+14	5.107891e+13	6.483466e+03	2.425781e+03	1.878967e+03	0	4.263319e-04
1.130000e+09	2.089419e+12	0.000000e+00	6.347826e-01	5.145150e+13	1.169334e+14	5.085677e+13	6.475290e+03	2.424336e+03	1.877847e+03	0	4.249814e-04
1.140000e+09	2.069716e+12	0.000000e+00	6.347826e-01	5.104482e+13	1.161972e+14	5.063612e+13	6.467178e+03	2.422902e+03	1.876736e+03	0	4.236414e-04
1.150000e+09	2.050287e+12	0.000000e+00	6.347826e-01	5.064371e+13	1.154699e+14	5.041693e+13	6.459130e+03	2.421478e+03	1.875634e+03	0	4.223116e-04
1.160000e+09	2.031127e+12	0.000000e+00	6.347826e-01	5.024808e+13	1.147513e+14	5.019921e+13	6.451145e+03	2.420065e+03	1.874539e+03	0	4.209920e-04
1.170000e+09	2.012230e+12	0.000000e+00	6.347826e-01	4.985781e+13	1.140412e+14	4.998294e+13	6.443223e+03	2.418662e+03	1.873452e+03	0	4.196823e-04
1.180000e+09	1.993591e+12	0.000000e+00	6.347826e-01	4.947281e+13	1.133395e+14	4.976811e+13	6.435362e+03	2.417269e+03	1.872373e+03	0	4.183824e-04
1.190000e+09	1.975204e+12	0.000000e+00	6.347826e-01	4.909296e+13	1.126461e+14	4.955471e+13	6.427561e+03	2.415885e+03	1.871302e+03	0	4.170923e-04
1.200000e+09	1.957067e+12	0.000000e+00	6.347826e-01	4.871818e+13	1.119607e+14	4.934272e+13	6.419821e+03	2.414512e+03	1.870238e+03	0	4.158116e-04
1.210000e+09	1.939172e+12	0.000000e+00	6.347826e-01	4.834836e+13	1.112833e+14	4.913214e+13	6.412139e+03	2.413148e+03	1.869181e+03	0	4.145405e-04
1.220000e+09	1.921517e+12	0.000000e+00	6.347826e-01	4.798341e+13	1.106137e+14	4.892295e+13	6.404515e+03	2.411793e+03	1.868132e+03	0	4.132785e-04
1.230000e+09	1.904096e+12	0.000000e+00	6.347826e-01	4.762325e+13	1.099517e+14	4.871515e+13	6.396949e+03	2.410448e+03	1.867090e+03	0	4.120258e-04
1.240000e+09	1.886905e+12	0.000000e+00	6.347826e-01	4.726777e+13	1.092972e+14	4.850872e+13	6.389439e+03	2.409112e+03	1.866055e+03	0	4.107821e-04
1.250000e+09	1.869940e+12	0.000000e+00	6.347826e-01	4.691690e+13	1.086500e+14	4.830366e+13	6.381985e+03	2.407785e+03	1.865027e+03	0	4.095473e-04
1.260000e+09	1.853197e+12	0.000000e+00	6.347826e-01	4.657055e+13	1.080101e+14	4.809994e+13	6.374587e+03	2.406466e+03	1.864006e+03	0	4.083212e-04
1.270000e+09	1.836671e+12	0.000000e+00	6.347826e-01	4.622864e+13	1.073773e+14	4.789757e+13	6.367243e+03	2.405157e+03	1.862991e+03	0	4.071038e-04
1.280000e+09	1.820358e+12	0.000000e+00	6.347826e-01	4.589108e+13	1.067515e+14	4.769653e+13	6.359953e+03	2.403856e+03	1.861984e+03	0	4.058950e-04
1.290000e+09	1.804255e+12	0.000000e+00	6.347826e-01	4.555780e+13	1.061326e+14	4.749681e+13	6.352715e+03	2.402563e+03	1.860982e+03	0	4.046946e-04
1.300000e+09	1.788358e+12	0.000000e+00	6.347826e-01	4.522872e+13	1.055204e+14	4.729840e+13	6.345531e+03	2.401279e+03	1.859988e+03	0	4.035025e-04
1.310000e+09	1.772663e+12	0.000000e+00	6.347826e-01	4.490377e+13	1.049148e+14	4.710130e+13	6.338398e+03	2.400003e+03	1.858999e+03	0	4.023186e-04
1.320000e+09	1.757166e+12	0.000000e+00	6.347826e-01	4.458287e+13	1.043158e+14	4.690548e+13	6.331316e+03	2.398735e+03	1.858017e+03	0	4.011429e-04
1.330000e+09	1.741865e+12	0.000000e+00	6.347826e-01	4.426595e+13	1.037231e+14	4.671094e+13	6.324284e+03	2.397475e+03	1.857041e+03	0	3.999751e-04
1.340000e+09	1.726755e+12	0.000000e+00	6.347826e-01	4.395293e+13	1.031368e+14	4.651768e+13	6.317303e+03	2.396223e+03	1.856072e+03	0	3.988152e-04
1.350000e+09	1.711833e+12	0.000000e+00	6.347826e-01	4.364376e+13	1.025566e+14	4.632567e+13	6.310371e+03	2.394979e+03	1.855108e+03	0	3.976630e-04
1.360000e+09	1.697096e+12	0.000000e+00	6.347826e-01	4.333836e+13	1.019826e+14	4.613492e+13	6.303487e+03	2.393742e+03	1.854150e+03	0	3.965186e-04
