#t		Qconv[W]	Ri[Rp]		R*[Rp]		Qc[W]		Qm[W]		Qr[W]		Tcmb[K]		Tl[K]		Tup[K]		RiFlag		Bs[T]
0.000000e+00	3.227387e+13	0.000000e+00	6.379310e-01	5.769939e+14	1.171642e+15	1.067269e+14	9.914482e+03	3.297095e+03	2.440252e+03	0	1.033804e-03
1.000000e+07	3.094968e+13	0.000000e+00	6.379310e-01	5.540464e+14	1.084568e+15	1.061356e+14	9.842912e+03	3.259676e+03	2.412558e+03	0	1.019467e-03
2.000000e+07	2.972903e+13	0.000000e+00	6.379310e-01	5.328871e+14	1.011638e+15	1.055487e+14	9.774157e+03	3.226989e+03	2.388365e+03	0	1.005884e-03
3.000000e+07	2.859874e+13	0.000000e+00	6.379310e-01	5.132887e+14	9.496349e+14	1.049661e+14	9.708000e+03	3.198137e+03	2.367012e+03	0	9.929711e-04
4.000000e+07	2.754799e+13	0.000000e+00	6.379310e-01	4.950646e+14	8.962354e+14	1.043879e+14	9.644250e+03	3.172434e+03	2.347988e+03	0	9.806581e-04
5.000000e+07	2.656782e+13	0.000000e+00	6.379310e-01	4.780603e+14	8.497217e+14	1.038141e+14	9.582741e+03	3.149348e+03	2.330902e+03	0	9.688866e-04
6.000000e+07	2.565069e+13	0.000000e+00	6.379310e-01	4.621456e+14	8.087996e+14	1.032445e+14	9.523322e+03	3.128459e+03	2.315441e+03	0	9.576072e-04
7.000000e+07	2.479023e+13	0.000000e+00	6.379310e-01	4.472104e+14	7.724770e+14	1.026791e+14	9.465862e+03	3.109430e+03	2.301358e+03	0	9.467773e-04
8.000000e+07	2.398095e+13	0.000000e+00	6.379310e-01	4.331603e+14	7.399819e+14	1.021180e+14	9.410242e+03	3.091993e+03	2.288452e+03	0	9.363606e-04
9.000000e+07	2.321814e+13	0.000000e+00	6.379310e-01	4.199137e+14	7.107054e+14	1.015610e+14	9.356352e+03	3.075925e+03	2.276560e+03	0	9.263252e-04
1.000000e+08	2.249768e+13	0.000000e+00	6.379310e-01	4.073996e+14	6.841611e+14	1.010081e+14	9.304095e+03	3.061045e+03	2.265547e+03	0	9.166430e-04
1.100000e+08	2.181598e+13	0.000000e+00	6.379310e-01	3.955560e+14	6.599562e+14	1.004594e+14	9.253381e+03	3.047202e+03	2.255301e+03	0	9.072895e-04
1.200000e+08	2.116987e+13	0.000000e+00	6.379310e-01	3.843282e+14	6.377703e+14	9.991472e+13	9.204128e+03	3.034269e+03	2.245730e+03	0	8.982428e-04
1.300000e+08	2.055654e+13	0.000000e+00	6.379310e-01	3.736677e+14	6.173395e+14	9.937409e+13	9.156261e+03	3.022141e+03	2.236753e+03	0	8.894831e-04
1.400000e+08	1.997350e+13	0.000000e+00	6.379310e-01	3.635313e+14	5.984446e+14	9.883745e+13	9.109710e+03	3.010727e+03	2.228305e+03	0	8.809930e-04
1.500000e+08	1.941852e+13	0.000000e+00	6.379310e-01	3.538805e+14	5.809023e+14	9.830477e+13	9.064412e+03	2.999949e+03	2.220328e+03	0	8.727564e-04
1.600000e+08	1.888958e+13	0.000000e+00	6.379310e-01	3.446806e+14	5.645578e+14	9.777604e+13	9.020306e+03	2.989742e+03	2.212774e+03	0	8.647590e-04
1.700000e+08	1.838487e+13	0.000000e+00	6.379310e-01	3.359003e+14	5.492798e+14	9.725120e+13	8.977337e+03	2.980049e+03	2.205600e+03	0	8.569876e-04
1.800000e+08	1.790277e+13	0.000000e+00	6.379310e-01	3.275114e+14	5.349560e+14	9.673023e+13	8.935454e+03	2.970821e+03	2.198770e+03	0	8.494303e-04
1.900000e+08	1.744178e+13	0.000000e+00	6.379310e-01	3.194881e+14	5.214900e+14	9.621310e+13	8.894609e+03	2.962013e+03	2.192251e+03	0	8.420759e-04
2.000000e+08	1.700055e+13	0.000000e+00	6.379310e-01	3.118072e+14	5.087983e+14	9.569978e+13	8.854756e+03	2.953590e+03	2.186017e+03	0	8.349145e-04
2.100000e+08	1.657785e+13	0.000000e+00	6.379310e-01	3.044472e+14	4.968085e+14	9.519023e+13	8.815855e+03	2.945517e+03	2.180042e+03	0	8.279366e-04
2.200000e+08	1.617255e+13	0.000000e+00	6.379310e-01	2.973887e+14	4.854573e+14	9.468442e+13	8.777864e+03	2.937766e+03	2.174305e+03	0	8.211336e-04
2.300000e+08	1.578360e+13	0.000000e+00	6.379310e-01	2.906136e+14	4.746892e+14	9.418233e+13	8.740748e+03	2.930311e+03	2.168788e+03	0	8.144975e-04
2.400000e+08	1.541007e+13	0.000000e+00	6.379310e-01	2.841055e+14	4.644551e+14	9.368391e+13	8.704472e+03	2.923129e+03	2.163472e+03	0	8.080208e-04
2.500000e+08	1.505106e+13	0.000000e+00	6.379310e-01	2.778492e+14	4.547119e+14	9.318915e+13	8.669002e+03	2.916200e+03	2.158344e+03	0	8.016965e-04
2.600000e+08	1.470576e+13	0.000000e+00	6.379310e-01	2.718306e+14	4.454209e+14	9.269801e+13	8.634307e+03	2.909505e+03	2.153388e+03	0	7.955182e-04
2.700000e+08	1.437342e+13	0.000000e+00	6.379310e-01	2.660368e+14	4.365480e+14	9.221046e+13	8.600359e+03	2.903028e+03	2.148595e+03	0	7.894799e-04
2.800000e+08	1.405335e+13	0.000000e+00	6.379310e-01	2.604556e+14	4.280623e+14	9.172646e+13	8.567129e+03	2.896754e+03	2.143951e+03	0	7.835757e-04
2.900000e+08	1.374490e+13	0.000000e+00	6.379310e-01	2.550758e+14	4.199362e+14	9.124601e+13	8.534592e+03	2.890670e+03	2.139448e+03	0	7.778004e-04
3.000000e+08	1.344746e+13	0.000000e+00	6.379310e-01	2.498872e+14	4.121450e+14	9.076905e+13	8.502722e+03	2.884764e+03	2.135077e+03	0	7.721489e-04
3.100000e+08	1.316048e+13	0.000000e+00	6.379310e-01	2.448798e+14	4.046662e+14	9.029557e+13	8.471497e+03	2.879025e+03	2.130830e+03	0	7.666166e-04
3.200000e+08	1.288342e+13	0.000000e+00	6.379310e-01	2.400448e+14	3.974793e+14	8.982553e+13	8.440893e+03	2.873444e+03	2.126699e+03	0	7.611988e-04
3.300000e+08	1.261582e+13	0.000000e+00	6.379310e-01	2.353736e+14	3.905659e+14	8.935891e+13	8.410889e+03	2.868010e+03	2.122677e+03	0	7.558915e-04
3.400000e+08	1.235720e+13	0.000000e+00	6.379310e-01	2.308584e+14	3.839090e+14	8.889568e+13	8.381465e+03	2.862716e+03	2.118759e+03	0	7.506906e-04
3.500000e+08	1.210714e+13	0.000000e+00	6.379310e-01	2.264917e+14	3.774934e+14	8.843581e+13	8.352603e+03	2.857555e+03	2.114939e+03	0	7.455924e-04
3.600000e+08	1.186523e+13	0.000000e+00	6.379310e-01	2.222666e+14	3.713049e+14	8.797928e+13	8.324283e+03	2.852519e+03	2.111212e+03	0	7.405932e-04
3.700000e+08	1.163111e+13	0.000000e+00	6.379310e-01	2.181765e+14	3.653304e+14	8.752605e+13	8.296488e+03	2.847601e+03	2.107572e+03	0	7.356897e-04
3.800000e+08	1.140441e+13	0.000000e+00	6.379310e-01	2.142154e+14	3.595582e+14	8.707610e+13	8.269201e+03	2.842797e+03	2.104016e+03	0	7.308787e-04
3.900000e+08	1.118481e+13	0.000000e+00	6.379310e-01	2.103775e+14	3.539772e+14	8.662940e+13	8.242407e+03	2.838100e+03	2.100540e+03	0	7.261570e-04
4.000000e+08	1.097199e+13	0.000000e+00	6.379310e-01	2.066573e+14	3.485772e+14	8.618593e+13	8.216090e+03	2.833505e+03	2.097140e+03	0	7.215218e-04
4.100000e+08	1.076565e+13	0.000000e+00	6.379310e-01	2.030497e+14	3.433489e+14	8.574566e+13	8.190236e+03	2.829008e+03	2.093811e+03	0	7.169702e-04
4.200000e+08	1.056552e+13	0.000000e+00	6.379310e-01	1.995500e+14	3.382835e+14	8.530856e+13	8.164830e+03	2.824605e+03	2.090552e+03	0	7.124997e-04
4.300000e+08	1.037134e+13	0.000000e+00	6.379310e-01	1.961535e+14	3.333729e+14	8.487461e+13	8.139860e+03	2.820291e+03	2.087359e+03	0	7.081076e-04
4.400000e+08	1.018285e+13	0.000000e+00	6.379310e-01	1.928559e+14	3.286097e+14	8.444378e+13	8.115312e+03	2.816062e+03	2.084229e+03	0	7.037916e-04
4.500000e+08	9.999818e+12	0.000000e+00	6.379310e-01	1.896532e+14	3.239867e+14	8.401604e+13	8.091175e+03	2.811915e+03	2.081160e+03	0	6.995494e-04
4.600000e+08	9.822026e+12	0.000000e+00	6.379310e-01	1.865416e+14	3.194975e+14	8.359138e+13	8.067437e+03	2.807847e+03	2.078149e+03	0	6.953787e-04
4.700000e+08	9.649261e+12	0.000000e+00	6.379310e-01	1.835173e+14	3.151359e+14	8.316976e+13	8.044086e+03	2.803855e+03	2.075194e+03	0	6.912774e-04
4.800000e+08	9.481323e+12	0.000000e+00	6.379310e-01	1.805769e+14	3.108962e+14	8.275117e+13	8.021111e+03	2.799935e+03	2.072293e+03	0	6.872435e-04
4.900000e+08	9.318023e+12	0.000000e+00	6.379310e-01	1.777171e+14	3.067730e+14	8.233557e+13	7.998503e+03	2.796085e+03	2.069444e+03	0	6.832751e-04
5.000000e+08	9.159181e+12	0.000000e+00	6.379310e-01	1.749348e+14	3.027613e+14	8.192294e+13	7.976250e+03	2.792302e+03	2.066644e+03	0	6.793703e-04
5.100000e+08	9.004626e+12	0.000000e+00	6.379310e-01	1.722271e+14	2.988563e+14	8.151326e+13	7.954345e+03	2.788584e+03	2.063892e+03	0	6.755273e-04
5.200000e+08	8.854195e+12	0.000000e+00	6.379310e-01	1.695911e+14	2.950535e+14	8.110651e+13	7.932776e+03	2.784928e+03	2.061187e+03	0	6.717444e-04
5.300000e+08	8.707735e+12	0.000000e+00	6.379310e-01	1.670241e+14	2.913488e+14	8.070265e+13	7.911536e+03	2.781333e+03	2.058526e+03	0	6.680199e-04
5.400000e+08	8.565097e+12	0.000000e+00	6.379310e-01	1.645237e+14	2.877382e+14	8.030167e+13	7.890616e+03	2.777797e+03	2.055908e+03	0	6.643523e-04
5.500000e+08	8.426143e+12	0.000000e+00	6.379310e-01	1.620873e+14	2.842180e+14	7.990355e+13	7.870008e+03	2.774317e+03	2.053333e+03	0	6.607400e-04
5.600000e+08	8.290739e+12	0.000000e+00	6.379310e-01	1.597127e+14	2.807846e+14	7.950825e+13	7.849703e+03	2.770891e+03	2.050797e+03	0	6.571816e-04
5.700000e+08	8.158758e+12	0.000000e+00	6.379310e-01	1.573976e+14	2.774347e+14	7.911576e+13	7.829694e+03	2.767518e+03	2.048301e+03	0	6.536757e-04
5.800000e+08	8.030078e+12	0.000000e+00	6.379310e-01	1.551400e+14	2.741651e+14	7.872606e+13	7.809974e+03	2.764196e+03	2.045843e+03	0	6.502209e-04
5.900000e+08	7.904583e+12	0.000000e+00	6.379310e-01	1.529378e+14	2.709729e+14	7.833912e+13	7.790536e+03	2.760924e+03	2.043421e+03	0	6.468159e-04
6.000000e+08	7.782164e+12	0.000000e+00	6.379310e-01	1.507891e+14	2.678551e+14	7.795492e+13	7.771372e+03	2.757700e+03	2.041035e+03	0	6.434594e-04
6.100000e+08	7.662715e+12	0.000000e+00	6.379310e-01	1.486922e+14	2.648090e+14	7.757343e+13	7.752476e+03	2.754523e+03	2.038683e+03	0	6.401502e-04
6.200000e+08	7.546134e+12	0.000000e+00	6.379310e-01	1.466452e+14	2.618322e+14	7.719465e+13	7.733841e+03	2.751391e+03	2.036365e+03	0	6.368872e-04
6.300000e+08	7.432325e+12	0.000000e+00	6.379310e-01	1.446464e+14	2.589222e+14	7.681853e+13	7.715462e+03	2.748303e+03	2.034079e+03	0	6.336692e-04
6.400000e+08	7.321197e+12	0.000000e+00	6.379310e-01	1.426943e+14	2.560766e+14	7.644507e+13	7.697332e+03	2.745257e+03	2.031825e+03	0	6.304951e-04
6.500000e+08	7.212659e+12	0.000000e+00	6.379310e-01	1.407874e+14	2.532933e+14	7.607424e+13	7.679446e+03	2.742253e+03	2.029602e+03	0	6.273638e-04
6.600000e+08	7.106629e+12	0.000000e+00	6.379310e-01	1.389241e+14	2.505700e+14	7.570602e+13	7.661798e+03	2.739290e+03	2.027409e+03	0	6.242745e-04
6.700000e+08	7.003025e+12	0.000000e+00	6.379310e-01	1.371031e+14	2.479049e+14	7.534038e+13	7.644382e+03	2.736365e+03	2.025244e+03	0	6.212259e-04
6.800000e+08	6.901769e+12	0.000000e+00	6.379310e-01	1.353230e+14	2.452960e+14	7.497732e+13	7.627194e+03	2.733479e+03	2.023108e+03	0	6.182173e-04
6.900000e+08	6.802786e+12	0.000000e+00	6.379310e-01	1.335825e+14	2.427415e+14	7.461680e+13	7.610228e+03	2.730631e+03	2.021000e+03	0	6.152476e-04
7.000000e+08	6.706006e+12	0.000000e+00	6.379310e-01	1.318804e+14	2.402396e+14	7.425881e+13	7.593479e+03	2.727818e+03	2.018918e+03	0	6.123161e-04
7.100000e+08	6.611359e+12	0.000000e+00	6.379310e-01	1.302155e+14	2.377886e+14	7.390333e+13	7.576942e+03	2.725041e+03	2.016863e+03	0	6.094217e-04
7.200000e+08	6.518780e+12	0.000000e+00	6.379310e-01	1.285866e+14	2.353870e+14	7.355033e+13	7.560614e+03	2.722298e+03	2.014833e+03	0	6.065637e-04
7.300000e+08	6.428205e+12	0.000000e+00	6.379310e-01	1.269926e+14	2.330332e+14	7.319980e+13	7.544489e+03	2.719589e+03	2.012828e+03	0	6.037414e-04
7.400000e+08	6.339575e+12	0.000000e+00	6.379310e-01	1.254326e+14	2.307258e+14	7.285171e+13	7.528562e+03	2.716913e+03	2.010847e+03	0	6.009538e-04
7.500000e+08	6.252829e+12	0.000000e+00	6.379310e-01	1.239054e+14	2.284633e+14	7.250605e+13	7.512831e+03	2.714268e+03	2.008890e+03	0	5.982002e-04
7.600000e+08	6.167913e+12	0.000000e+00	6.379310e-01	1.224101e+14	2.262444e+14	7.216280e+13	7.497291e+03	2.711655e+03	2.006956e+03	0	5.954799e-04
7.700000e+08	6.084773e+12	0.000000e+00	6.379310e-01	1.209458e+14	2.240678e+14	7.182194e+13	7.481937e+03	2.709073e+03	2.005044e+03	0	5.927922e-04
7.800000e+08	6.003355e+12	0.000000e+00	6.379310e-01	1.195115e+14	2.219323e+14	7.148345e+13	7.466766e+03	2.706520e+03	2.003155e+03	0	5.901363e-04
7.900000e+08	5.923611e+12	0.000000e+00	6.379310e-01	1.181065e+14	2.198367e+14	7.114731e+13	7.451774e+03	2.703996e+03	2.001287e+03	0	5.875117e-04
8.000000e+08	5.845493e+12	0.000000e+00	6.379310e-01	1.167298e+14	2.177798e+14	7.081350e+13	7.436958e+03	2.701501e+03	1.999440e+03	0	5.849176e-04
8.100000e+08	5.768953e+12	0.000000e+00	6.379310e-01	1.153806e+14	2.157605e+14	7.048200e+13	7.422314e+03	2.699033e+03	1.997614e+03	0	5.823535e-04
8.200000e+08	5.693947e+12	0.000000e+00	6.379310e-01	1.140582e+14	2.137778e+14	7.015279e+13	7.407839e+03	2.696593e+03	1.995808e+03	0	5.798186e-04
8.300000e+08	5.620433e+12	0.000000e+00	6.379310e-01	1.127618e+14	2.118307e+14	6.982587e+13	7.393529e+03	2.694179e+03	1.994021e+03	0	5.773125e-04
8.400000e+08	5.548368e+12	0.000000e+00	6.379310e-01	1.114908e+14	2.099181e+14	6.950120e+13	7.379381e+03	2.691791e+03	1.992254e+03	0	5.748344e-04
8.500000e+08	5.477713e+12	0.000000e+00	6.379310e-01	1.102443e+14	2.080392e+14	6.917877e+13	7.365391e+03	2.689429e+03	1.990505e+03	0	5.723839e-04
8.600000e+08	5.408429e+12	0.000000e+00	6.379310e-01	1.090218e+14	2.061930e+14	6.885856e+13	7.351558e+03	2.687092e+03	1.988776e+03	0	5.699605e-04
8.700000e+08	5.340479e+12	0.000000e+00	6.379310e-01	1.078226e+14	2.043787e+14	6.854056e+13	7.337877e+03	2.684779e+03	1.987064e+03	0	5.675634e-04
8.800000e+08	5.273827e+12	0.000000e+00	6.379310e-01	1.066460e+14	2.025954e+14	6.822474e+13	7.324346e+03	2.682489e+03	1.985369e+03	0	5.651924e-04
8.900000e+08	5.208438e+12	0.000000e+00	6.379310e-01	1.054915e+14	2.008423e+14	6.791110e+13	7.310963e+03	2.680224e+03	1.983692e+03	0	5.628468e-04
9.000000e+08	5.144279e+12	0.000000e+00	6.379310e-01	1.043585e+14	1.991186e+14	6.759961e+13	7.297724e+03	2.677981e+03	1.982032e+03	0	5.605261e-04
9.100000e+08	5.081318e+12	0.000000e+00	6.379310e-01	1.032464e+14	1.974236e+14	6.729025e+13	7.284626e+03	2.675761e+03	1.980389e+03	0	5.582299e-04
9.200000e+08	5.019522e+12	0.000000e+00	6.379310e-01	1.021547e+14	1.957565e+14	6.698301e+13	7.271667e+03	2.673562e+03	1.978762e+03	0	5.559578e-04
9.300000e+08	4.958863e+12	0.000000e+00	6.379310e-01	1.010828e+14	1.941166e+14	6.667787e+13	7.258846e+03	2.671385e+03	1.977151e+03	0	5.537092e-04
9.400000e+08	4.899310e+12	0.000000e+00	6.379310e-01	1.000302e+14	1.925033e+14	6.637482e+13	7.246158e+03	2.669230e+03	1.975556e+03	0	5.514837e-04
9.500000e+08	4.840836e+12	0.000000e+00	6.379310e-01	9.899655e+13	1.909159e+14	6.607384e+13	7.233601e+03	2.667095e+03	1.973976e+03	0	5.492808e-04
9.600000e+08	4.783412e+12	0.000000e+00	6.379310e-01	9.798123e+13	1.893538e+14	6.577491e+13	7.221174e+03	2.664981e+03	1.972411e+03	0	5.471003e-04
9.700000e+08	4.727014e+12	0.000000e+00	6.379310e-01	9.698382e+13	1.878163e+14	6.547801e+13	7.208874e+03	2.662886e+03	1.970860e+03	0	5.449416e-04
9.800000e+08	4.671614e+12	0.000000e+00	6.379310e-01	9.600388e+13	1.863029e+14	6.518314e+13	7.196699e+03	2.660811e+03	1.969325e+03	0	5.428044e-04
9.900000e+08	4.617189e+12	0.000000e+00	6.379310e-01	9.504098e+13	1.848129e+14	6.489027e+13	7.184647e+03	2.658755e+03	1.967803e+03	0	5.406882e-04
1.000000e+09	4.563714e+12	0.000000e+00	6.379310e-01	9.409469e+13	1.833458e+14	6.459939e+13	7.172714e+03	2.656719e+03	1.966296e+03	0	5.385927e-04
1.010000e+09	4.511166e+12	0.000000e+00	6.379310e-01	9.316462e+13	1.819012e+14	6.431048e+13	7.160901e+03	2.654700e+03	1.964802e+03	0	5.365176e-04
1.020000e+09	4.459523e+12	0.000000e+00	6.379310e-01	9.225037e+13	1.804784e+14	6.402353e+13	7.149203e+03	2.652700e+03	1.963322e+03	0	5.344624e-04
1.030000e+09	4.408763e+12	0.000000e+00	6.379310e-01	9.135157e+13	1.790769e+14	6.373852e+13	7.137621e+03	2.650718e+03	1.961855e+03	0	5.324268e-04
1.040000e+09	4.358864e+12	0.000000e+00	6.379310e-01	9.046784e+13	1.776963e+14	6.345543e+13	7.126150e+03	2.648754e+03	1.960401e+03	0	5.304105e-04
1.050000e+09	4.309807e+12	0.000000e+00	6.379310e-01	8.959883e+13	1.763361e+14	6.317426e+13	7.114790e+03	2.646806e+03	1.958960e+03	0	5.284132e-04
1.060000e+09	4.261571e+12	0.000000e+00	6.379310e-01	8.874420e+13	1.749959e+14	6.289498e+13	7.103539e+03	2.644876e+03	1.957531e+03	0	5.264344e-04
1.070000e+09	4.214137e+12	0.000000e+00	6.379310e-01	8.790360e+13	1.736751e+14	6.261759e+13	7.092395e+03	2.642962e+03	1.956114e+03	0	5.244739e-04
1.080000e+09	4.167487e+12	0.000000e+00	6.379310e-01	8.707672e+13	1.723734e+14	6.234206e+13	7.081356e+03	2.641065e+03	1.954710e+03	0	5.225315e-04
1.090000e+09	4.121602e+12	0.000000e+00	6.379310e-01	8.626323e+13	1.710903e+14	6.206838e+13	7.070421e+03	2.639184e+03	1.953318e+03	0	5.206066e-04
1.100000e+09	4.076465e+12	0.000000e+00	6.379310e-01	8.546284e+13	1.698255e+14	6.179655e+13	7.059587e+03	2.637318e+03	1.951937e+03	0	5.186992e-04
1.110000e+09	4.032059e+12	0.000000e+00	6.379310e-01	8.467524e+13	1.685785e+14	6.152653e+13	7.048854e+03	2.635468e+03	1.950568e+03	0	5.168089e-04
1.120000e+09	3.988367e+12	0.000000e+00	6.379310e-01	8.390015e+13	1.673489e+14	6.125832e+13	7.038219e+03	2.633634e+03	1.949210e+03	0	5.149353e-04
1.130000e+09	3.945373e+12	0.000000e+00	6.379310e-01	8.313729e+13	1.661365e+14	6.099191e+13	7.027681e+03	2.631814e+03	1.947864e+03	0	5.130783e-04
1.140000e+09	3.903061e+12	0.000000e+00	6.379310e-01	8.238638e+13	1.649407e+14	6.072728e+13	7.017239e+03	2.630010e+03	1.946528e+03	0	5.112376e-04
1.150000e+09	3.861417e+12	0.000000e+00	6.379310e-01	8.164716e+13	1.637613e+14	6.046442e+13	7.006891e+03	2.628220e+03	1.945203e+03	0	5.094129e-04
1.160000e+09	3.820425e+12	0.000000e+00	6.379310e-01	8.091937e+13	1.625980e+14	6.020331e+13	6.996636e+03	2.626444e+03	1.943889e+03	0	5.076039e-04
1.170000e+09	3.780072e+12	0.000000e+00	6.379310e-01	8.020277e+13	1.614504e+14	5.994394e+13	6.986471e+03	2.624682e+03	1.942585e+03	0	5.058103e-04
1.180000e+09	3.740343e+12	0.000000e+00	6.379310e-01	7.949711e+13	1.603181e+14	5.968629e+13	6.976396e+03	2.622934e+03	1.941291e+03	0	5.040321e-04
1.190000e+09	3.701225e+12	0.000000e+00	6.379310e-01	7.880216e+13	1.592009e+14	5.943036e+13	6.966410e+03	2.621200e+03	1.940008e+03	0	5.022688e-04
1.200000e+09	3.662705e+12	0.000000e+00	6.379310e-01	7.811768e+13	1.580985e+14	5.917613e+13	6.956511e+03	2.619480e+03	1.938735e+03	0	5.005203e-04
1.210000e+09	3.624770e+12	0.000000e+00	6.379310e-01	7.744346e+13	1.570105e+14	5.892358e+13	6.946697e+03	2.617772e+03	1.937471e+03	0	4.987863e-04
1.220000e+09	3.587407e+12	0.000000e+00	6.379310e-01	7.677928e+13	1.559367e+14	5.867271e+13	6.936968e+03	2.616078e+03	1.936217e+03	0	4.970666e-04
1.230000e+09	3.550604e+12	0.000000e+00	6.379310e-01	7.612492e+13	1.548768e+14	5.842349e+13	6.927322e+03	2.614397e+03	1.934972e+03	0	4.953610e-04
1.240000e+09	3.514351e+12	0.000000e+00	6.379310e-01	7.548018e+13	1.538305e+14	5.817592e+13	6.917758e+03	2.612728e+03	1.933737e+03	0	4.936692e-04
1.250000e+09	3.478634e+12	0.000000e+00	6.379310e-01	7.484486e+13	1.527976e+14	5.792999e+13	6.908275e+03	2.611072e+03	1.932511e+03	0	4.919911e-04
1.260000e+09	3.443444e+12	0.000000e+00	6.379310e-01	7.421878e+13	1.517777e+14	5.768568e+13	6.898871e+03	2.609428e+03	1.931295e+03	0	4.903265e-04
1.270000e+09	3.408769e+12	0.000000e+00	6.379310e-01	7.360173e+13	1.507708e+14	5.744298e+13	6.889546e+03	2.607796e+03	1.930087e+03	0	4.886751e-04
1.280000e+09	3.374598e+12	0.000000e+00	6.379310e-01	7.299353e+13	1.497764e+14	5.720187e+13	6.880298e+03	2.606176e+03	1.928888e+03	0	4.870367e-04
1.290000e+09	3.340922e+12	0.000000e+00	6.379310e-01	7.239401e+13	1.487944e+14	5.696235e+13	6.871127e+03	2.604568e+03	1.927698e+03	0	4.854112e-04
1.300000e+09	3.307730e+12	0.000000e+00	6.379310e-01	7.180299e+13	1.478245e+14	5.672440e+13	6.862030e+03	2.602971e+03	1.926516e+03	0	4.837983e-04
1.310000e+09	3.275013e+12	0.000000e+00	6.379310e-01	7.122030e+13	1.468665e+14	5.648802e+13	6.853008e+03	2.601386e+03	1.925343e+03	0	4.821979e-04
1.320000e+09	3.242761e+12	0.000000e+00	6.379310e-01	7.064577e+13	1.459202e+14	5.625317e+13	6.844058e+03	2.599812e+03	1.924178e+03	0	4.806098e-04
1.330000e+09	3.210965e+12	0.000000e+00	6.379310e-01	7.007925e+13	1.449854e+14	5.601987e+13	6.835181e+03	2.598249e+03	1.923021e+03	0	4.790338e-04
1.340000e+09	3.179616e+12	0.000000e+00	6.379310e-01	6.952057e+13	1.440618e+14	5.578809e+13	6.826375e+03	2.596697e+03	1.921873e+03	0	4.774698e-04
1.350000e+09	3.148704e+12	0.000000e+00	6.379310e-01	6.896958e+13	1.431493e+14	5.555782e+13	6.817638e+03	2.595156e+03	1.920732e+03	0	4.759175e-04
1.360000e+09	3.118223e+12	0.000000e+00	6.379310e-01	6.842614e+13	1.422477e+14	5.532905e+13	6.808971e+03	2.593626e+03	1.919599e+03	0	4.743767e-04
