#t		Qconv[W]	Ri[Rp]		R*[Rp]		Qc[W]		Qm[W]		Qr[W]		Tcmb[K]		Tl[K]		Tup[K]		RiFlag		Bs[T]
0.000000e+00	2.599431e+13	0.000000e+00	6.347826e-01	4.496364e+14	1.087953e+15	1.213318e+14	1.010227e+04	3.376996e+03	2.521479e+03	0	9.661652e-04
1.000000e+07	2.513967e+13	0.000000e+00	6.347826e-01	4.356554e+14	1.013207e+15	1.206596e+14	1.005312e+04	3.341306e+03	2.494831e+03	0	9.554585e-04
2.000000e+07	2.434443e+13	0.000000e+00	6.347826e-01	4.226409e+14	9.496244e+14	1.199923e+14	1.000549e+04	3.309661e+03	2.471203e+03	0	9.452757e-04
3.000000e+07	2.360143e+13	0.000000e+00	6.347826e-01	4.104763e+14	8.949112e+14	1.193301e+14	9.959276e+03	3.281390e+03	2.450094e+03	0	9.355594e-04
4.000000e+07	2.290471e+13	0.000000e+00	6.347826e-01	3.990652e+14	8.473474e+14	1.186728e+14	9.914377e+03	3.255964e+03	2.431109e+03	0	9.262614e-04
5.000000e+07	2.224931e+13	0.000000e+00	6.347826e-01	3.883267e+14	8.056219e+14	1.180203e+14	9.870717e+03	3.232957e+03	2.413931e+03	0	9.173410e-04
6.000000e+07	2.163102e+13	0.000000e+00	6.347826e-01	3.781926e+14	7.687195e+14	1.173728e+14	9.828223e+03	3.212025e+03	2.398301e+03	0	9.087637e-04
7.000000e+07	2.104626e+13	0.000000e+00	6.347826e-01	3.686045e+14	7.358428e+14	1.167301e+14	9.786830e+03	3.192883e+03	2.384009e+03	0	9.004998e-04
8.000000e+07	2.049193e+13	0.000000e+00	6.347826e-01	3.595124e+14	7.063575e+14	1.160921e+14	9.746478e+03	3.175299e+03	2.370880e+03	0	8.925234e-04
9.000000e+07	1.996538e+13	0.000000e+00	6.347826e-01	3.508728e+14	6.797540e+14	1.154589e+14	9.707115e+03	3.159076e+03	2.358766e+03	0	8.848123e-04
1.000000e+08	1.946425e+13	0.000000e+00	6.347826e-01	3.426478e+14	6.556178e+14	1.148304e+14	9.668691e+03	3.144050e+03	2.347547e+03	0	8.773467e-04
1.100000e+08	1.898652e+13	0.000000e+00	6.347826e-01	3.348042e+14	6.336093e+14	1.142066e+14	9.631162e+03	3.130082e+03	2.337117e+03	0	8.701092e-04
1.200000e+08	1.853037e+13	0.000000e+00	6.347826e-01	3.273124e+14	6.134474e+14	1.135874e+14	9.594486e+03	3.117052e+03	2.327388e+03	0	8.630845e-04
1.300000e+08	1.809419e+13	0.000000e+00	6.347826e-01	3.201466e+14	5.948981e+14	1.129728e+14	9.558625e+03	3.104858e+03	2.318284e+03	0	8.562588e-04
1.400000e+08	1.767657e+13	0.000000e+00	6.347826e-01	3.132833e+14	5.777646e+14	1.123627e+14	9.523544e+03	3.093413e+03	2.309738e+03	0	8.496197e-04
1.500000e+08	1.727620e+13	0.000000e+00	6.347826e-01	3.067018e+14	5.618808e+14	1.117571e+14	9.489210e+03	3.082641e+03	2.301695e+03	0	8.431563e-04
1.600000e+08	1.689196e+13	0.000000e+00	6.347826e-01	3.003833e+14	5.471052e+14	1.111561e+14	9.455593e+03	3.072475e+03	2.294104e+03	0	8.368584e-04
1.700000e+08	1.652278e+13	0.000000e+00	6.347826e-01	2.943109e+14	5.333171e+14	1.105594e+14	9.422664e+03	3.062857e+03	2.286923e+03	0	8.307169e-04
1.800000e+08	1.616774e+13	0.000000e+00	6.347826e-01	2.884692e+14	5.204123e+14	1.099671e+14	9.390396e+03	3.053736e+03	2.280113e+03	0	8.247235e-04
1.900000e+08	1.582596e+13	0.000000e+00	6.347826e-01	2.828442e+14	5.083011e+14	1.093792e+14	9.358765e+03	3.045068e+03	2.273641e+03	0	8.188707e-04
2.000000e+08	1.549667e+13	0.000000e+00	6.347826e-01	2.774232e+14	4.969054e+14	1.087957e+14	9.327747e+03	3.036813e+03	2.267477e+03	0	8.131515e-04
2.100000e+08	1.517915e+13	0.000000e+00	6.347826e-01	2.721945e+14	4.861571e+14	1.082164e+14	9.297320e+03	3.028935e+03	2.261595e+03	0	8.075594e-04
2.200000e+08	1.487275e+13	0.000000e+00	6.347826e-01	2.671474e+14	4.759966e+14	1.076414e+14	9.267463e+03	3.021404e+03	2.255971e+03	0	8.020887e-04
2.300000e+08	1.457685e+13	0.000000e+00	6.347826e-01	2.622720e+14	4.663714e+14	1.070706e+14	9.238157e+03	3.014191e+03	2.250586e+03	0	7.967338e-04
2.400000e+08	1.429091e+13	0.000000e+00	6.347826e-01	2.575593e+14	4.572352e+14	1.065039e+14	9.209382e+03	3.007271e+03	2.245419e+03	0	7.914897e-04
2.500000e+08	1.401440e+13	0.000000e+00	6.347826e-01	2.530009e+14	4.485470e+14	1.059415e+14	9.181121e+03	3.000622e+03	2.240455e+03	0	7.863516e-04
2.600000e+08	1.374684e+13	0.000000e+00	6.347826e-01	2.485890e+14	4.402704e+14	1.053831e+14	9.153358e+03	2.994224e+03	2.235678e+03	0	7.813153e-04
2.700000e+08	1.348780e+13	0.000000e+00	6.347826e-01	2.443163e+14	4.323728e+14	1.048289e+14	9.126076e+03	2.988059e+03	2.231074e+03	0	7.763765e-04
2.800000e+08	1.323687e+13	0.000000e+00	6.347826e-01	2.401761e+14	4.248252e+14	1.042786e+14	9.099260e+03	2.982110e+03	2.226632e+03	0	7.715316e-04
2.900000e+08	1.299364e+13	0.000000e+00	6.347826e-01	2.361622e+14	4.176015e+14	1.037324e+14	9.072897e+03	2.976362e+03	2.222340e+03	0	7.667768e-04
3.000000e+08	1.275778e+13	0.000000e+00	6.347826e-01	2.322687e+14	4.106782e+14	1.031902e+14	9.046971e+03	2.970802e+03	2.218189e+03	0	7.621089e-04
3.100000e+08	1.252894e+13	0.000000e+00	6.347826e-01	2.284902e+14	4.040341e+14	1.026519e+14	9.021471e+03	2.965417e+03	2.214168e+03	0	7.575246e-04
3.200000e+08	1.230681e+13	0.000000e+00	6.347826e-01	2.248214e+14	3.976502e+14	1.021176e+14	8.996383e+03	2.960196e+03	2.210270e+03	0	7.530210e-04
3.300000e+08	1.209109e+13	0.000000e+00	6.347826e-01	2.212578e+14	3.915089e+14	1.015871e+14	8.971697e+03	2.955129e+03	2.206487e+03	0	7.485953e-04
3.400000e+08	1.188151e+13	0.000000e+00	6.347826e-01	2.177946e+14	3.855947e+14	1.010605e+14	8.947399e+03	2.950207e+03	2.202811e+03	0	7.442449e-04
3.500000e+08	1.167781e+13	0.000000e+00	6.347826e-01	2.144277e+14	3.798931e+14	1.005377e+14	8.923480e+03	2.945420e+03	2.199237e+03	0	7.399672e-04
3.600000e+08	1.147974e+13	0.000000e+00	6.347826e-01	2.111531e+14	3.743910e+14	1.000187e+14	8.899928e+03	2.940761e+03	2.195759e+03	0	7.357598e-04
3.700000e+08	1.128708e+13	0.000000e+00	6.347826e-01	2.079670e+14	3.690764e+14	9.950342e+13	8.876735e+03	2.936224e+03	2.192371e+03	0	7.316205e-04
3.800000e+08	1.109960e+13	0.000000e+00	6.347826e-01	2.048659e+14	3.639383e+14	9.899190e+13	8.853890e+03	2.931800e+03	2.189068e+03	0	7.275471e-04
3.900000e+08	1.091710e+13	0.000000e+00	6.347826e-01	2.018464e+14	3.589667e+14	9.848407e+13	8.831384e+03	2.927484e+03	2.185845e+03	0	7.235376e-04
4.000000e+08	1.073939e+13	0.000000e+00	6.347826e-01	1.989053e+14	3.541522e+14	9.797992e+13	8.809208e+03	2.923270e+03	2.182699e+03	0	7.195901e-04
4.100000e+08	1.056628e+13	0.000000e+00	6.347826e-01	1.960397e+14	3.494862e+14	9.747939e+13	8.787353e+03	2.919154e+03	2.179625e+03	0	7.157028e-04
4.200000e+08	1.039760e+13	0.000000e+00	6.347826e-01	1.932467e+14	3.449610e+14	9.698248e+13	8.765812e+03	2.915129e+03	2.176620e+03	0	7.118737e-04
4.300000e+08	1.023318e+13	0.000000e+00	6.347826e-01	1.905235e+14	3.405691e+14	9.648915e+13	8.744576e+03	2.911192e+03	2.173680e+03	0	7.081014e-04
4.400000e+08	1.007286e+13	0.000000e+00	6.347826e-01	1.878677e+14	3.363038e+14	9.599936e+13	8.723638e+03	2.907337e+03	2.170802e+03	0	7.043841e-04
4.500000e+08	9.916496e+12	0.000000e+00	6.347826e-01	1.852768e+14	3.321589e+14	9.551309e+13	8.702991e+03	2.903563e+03	2.167984e+03	0	7.007203e-04
4.600000e+08	9.763948e+12	0.000000e+00	6.347826e-01	1.827484e+14	3.281283e+14	9.503032e+13	8.682627e+03	2.899864e+03	2.165222e+03	0	6.971086e-04
4.700000e+08	9.615079e+12	0.000000e+00	6.347826e-01	1.802804e+14	3.242068e+14	9.455101e+13	8.662540e+03	2.896237e+03	2.162514e+03	0	6.935476e-04
4.800000e+08	9.469761e+12	0.000000e+00	6.347826e-01	1.778707e+14	3.203893e+14	9.407513e+13	8.642723e+03	2.892680e+03	2.159858e+03	0	6.900358e-04
4.900000e+08	9.327870e+12	0.000000e+00	6.347826e-01	1.755172e+14	3.166709e+14	9.360266e+13	8.623170e+03	2.889188e+03	2.157251e+03	0	6.865721e-04
5.000000e+08	9.189290e+12	0.000000e+00	6.347826e-01	1.732181e+14	3.130474e+14	9.313356e+13	8.603874e+03	2.885760e+03	2.154691e+03	0	6.831551e-04
5.100000e+08	9.053910e+12	0.000000e+00	6.347826e-01	1.709715e+14	3.095145e+14	9.266782e+13	8.584830e+03	2.882392e+03	2.152177e+03	0	6.797836e-04
5.200000e+08	8.921623e+12	0.000000e+00	6.347826e-01	1.687757e+14	3.060684e+14	9.220540e+13	8.566031e+03	2.879083e+03	2.149706e+03	0	6.764566e-04
5.300000e+08	8.792328e+12	0.000000e+00	6.347826e-01	1.666291e+14	3.027054e+14	9.174628e+13	8.547473e+03	2.875830e+03	2.147277e+03	0	6.731729e-04
5.400000e+08	8.665927e+12	0.000000e+00	6.347826e-01	1.645300e+14	2.994221e+14	9.129043e+13	8.529151e+03	2.872631e+03	2.144888e+03	0	6.699314e-04
5.500000e+08	8.542328e+12	0.000000e+00	6.347826e-01	1.624769e+14	2.962153e+14	9.083783e+13	8.511058e+03	2.869483e+03	2.142538e+03	0	6.667311e-04
5.600000e+08	8.421440e+12	0.000000e+00	6.347826e-01	1.604684e+14	2.930820e+14	9.038844e+13	8.493190e+03	2.866385e+03	2.140225e+03	0	6.635710e-04
5.700000e+08	8.303180e+12	0.000000e+00	6.347826e-01	1.585030e+14	2.900192e+14	8.994224e+13	8.475541e+03	2.863335e+03	2.137947e+03	0	6.604503e-04
5.800000e+08	8.187465e+12	0.000000e+00	6.347826e-01	1.565795e+14	2.870244e+14	8.949921e+13	8.458109e+03	2.860332e+03	2.135705e+03	0	6.573678e-04
5.900000e+08	8.074216e+12	0.000000e+00	6.347826e-01	1.546966e+14	2.840949e+14	8.905932e+13	8.440886e+03	2.857373e+03	2.133496e+03	0	6.543229e-04
6.000000e+08	7.963360e+12	0.000000e+00	6.347826e-01	1.528529e+14	2.812284e+14	8.862254e+13	8.423870e+03	2.854457e+03	2.131319e+03	0	6.513145e-04
6.100000e+08	7.854823e+12	0.000000e+00	6.347826e-01	1.510474e+14	2.784226e+14	8.818886e+13	8.407056e+03	2.851583e+03	2.129173e+03	0	6.483419e-04
6.200000e+08	7.748537e+12	0.000000e+00	6.347826e-01	1.492789e+14	2.756752e+14	8.775823e+13	8.390440e+03	2.848750e+03	2.127057e+03	0	6.454043e-04
6.300000e+08	7.644434e+12	0.000000e+00	6.347826e-01	1.475463e+14	2.729843e+14	8.733065e+13	8.374018e+03	2.845955e+03	2.124970e+03	0	6.425009e-04
6.400000e+08	7.542452e+12	0.000000e+00	6.347826e-01	1.458486e+14	2.703480e+14	8.690608e+13	8.357786e+03	2.843198e+03	2.122912e+03	0	6.396310e-04
6.500000e+08	7.442528e+12	0.000000e+00	6.347826e-01	1.441848e+14	2.677643e+14	8.648450e+13	8.341739e+03	2.840478e+03	2.120881e+03	0	6.367938e-04
6.600000e+08	7.344604e+12	0.000000e+00	6.347826e-01	1.425539e+14	2.652315e+14	8.606589e+13	8.325875e+03	2.837793e+03	2.118876e+03	0	6.339886e-04
6.700000e+08	7.248622e+12	0.000000e+00	6.347826e-01	1.409549e+14	2.627480e+14	8.565023e+13	8.310190e+03	2.835143e+03	2.116897e+03	0	6.312147e-04
6.800000e+08	7.154528e+12	0.000000e+00	6.347826e-01	1.393870e+14	2.603121e+14	8.523748e+13	8.294680e+03	2.832526e+03	2.114944e+03	0	6.284716e-04
6.900000e+08	7.062269e+12	0.000000e+00	6.347826e-01	1.378493e+14	2.579223e+14	8.482763e+13	8.279342e+03	2.829942e+03	2.113014e+03	0	6.257584e-04
7.000000e+08	6.971795e+12	0.000000e+00	6.347826e-01	1.363410e+14	2.555773e+14	8.442065e+13	8.264172e+03	2.827389e+03	2.111108e+03	0	6.230748e-04
7.100000e+08	6.883055e+12	0.000000e+00	6.347826e-01	1.348613e+14	2.532755e+14	8.401652e+13	8.249168e+03	2.824867e+03	2.109225e+03	0	6.204199e-04
7.200000e+08	6.796004e+12	0.000000e+00	6.347826e-01	1.334093e+14	2.510157e+14	8.361521e+13	8.234326e+03	2.822374e+03	2.107364e+03	0	6.177933e-04
7.300000e+08	6.710596e+12	0.000000e+00	6.347826e-01	1.319845e+14	2.487967e+14	8.321671e+13	8.219643e+03	2.819911e+03	2.105524e+03	0	6.151943e-04
7.400000e+08	6.626787e+12	0.000000e+00	6.347826e-01	1.305859e+14	2.466172e+14	8.282100e+13	8.205117e+03	2.817476e+03	2.103706e+03	0	6.126225e-04
7.500000e+08	6.544534e+12	0.000000e+00	6.347826e-01	1.292130e+14	2.444760e+14	8.242804e+13	8.190744e+03	2.815068e+03	2.101908e+03	0	6.100773e-04
7.600000e+08	6.463796e+12	0.000000e+00	6.347826e-01	1.278651e+14	2.423721e+14	8.203781e+13	8.176521e+03	2.812688e+03	2.100131e+03	0	6.075581e-04
7.700000e+08	6.384535e+12	0.000000e+00	6.347826e-01	1.265415e+14	2.403044e+14	8.165031e+13	8.162446e+03	2.810333e+03	2.098373e+03	0	6.050646e-04
7.800000e+08	6.306711e+12	0.000000e+00	6.347826e-01	1.252416e+14	2.382719e+14	8.126549e+13	8.148517e+03	2.808004e+03	2.096633e+03	0	6.025960e-04
7.900000e+08	6.230288e+12	0.000000e+00	6.347826e-01	1.239648e+14	2.362736e+14	8.088335e+13	8.134730e+03	2.805699e+03	2.094913e+03	0	6.001521e-04
8.000000e+08	6.155231e+12	0.000000e+00	6.347826e-01	1.227105e+14	2.343085e+14	8.050386e+13	8.121083e+03	2.803419e+03	2.093210e+03	0	5.977323e-04
8.100000e+08	6.081505e+12	0.000000e+00	6.347826e-01	1.214781e+14	2.323759e+14	8.012700e+13	8.107574e+03	2.801163e+03	2.091526e+03	0	5.953362e-04
8.200000e+08	6.009077e+12	0.000000e+00	6.347826e-01	1.202672e+14	2.304747e+14	7.975275e+13	8.094200e+03	2.798929e+03	2.089858e+03	0	5.929634e-04
8.300000e+08	5.937913e+12	0.000000e+00	6.347826e-01	1.190771e+14	2.286043e+14	7.938108e+13	8.080959e+03	2.796719e+03	2.088207e+03	0	5.906133e-04
8.400000e+08	5.867985e+12	0.000000e+00	6.347826e-01	1.179074e+14	2.267637e+14	7.901199e+13	8.067848e+03	2.794530e+03	2.086573e+03	0	5.882857e-04
8.500000e+08	5.799260e+12	0.000000e+00	6.347826e-01	1.167575e+14	2.249522e+14	7.864543e+13	8.054866e+03	2.792363e+03	2.084955e+03	0	5.859800e-04
8.600000e+08	5.731710e+12	0.000000e+00	6.347826e-01	1.156271e+14	2.231691e+14	7.828141e+13	8.042010e+03	2.790217e+03	2.083353e+03	0	5.836960e-04
8.700000e+08	5.665306e+12	0.000000e+00	6.347826e-01	1.145155e+14	2.214137e+14	7.791989e+13	8.029278e+03	2.788092e+03	2.081766e+03	0	5.814331e-04
8.800000e+08	5.600021e+12	0.000000e+00	6.347826e-01	1.134224e+14	2.196852e+14	7.756086e+13	8.016668e+03	2.785987e+03	2.080194e+03	0	5.791911e-04
8.900000e+08	5.535829e+12	0.000000e+00	6.347826e-01	1.123474e+14	2.179830e+14	7.720429e+13	8.004178e+03	2.783901e+03	2.078637e+03	0	5.769695e-04
9.000000e+08	5.472704e+12	0.000000e+00	6.347826e-01	1.112900e+14	2.163065e+14	7.685017e+13	7.991806e+03	2.781835e+03	2.077095e+03	0	5.747681e-04
9.100000e+08	5.410621e+12	0.000000e+00	6.347826e-01	1.102497e+14	2.146551e+14	7.649848e+13	7.979550e+03	2.779788e+03	2.075566e+03	0	5.725864e-04
9.200000e+08	5.349555e+12	0.000000e+00	6.347826e-01	1.092263e+14	2.130281e+14	7.614920e+13	7.967409e+03	2.777760e+03	2.074052e+03	0	5.704241e-04
9.300000e+08	5.289483e+12	0.000000e+00	6.347826e-01	1.082193e+14	2.114249e+14	7.580231e+13	7.955379e+03	2.775750e+03	2.072551e+03	0	5.682809e-04
9.400000e+08	5.230383e+12	0.000000e+00	6.347826e-01	1.072283e+14	2.098451e+14	7.545779e+13	7.943461e+03	2.773758e+03	2.071063e+03	0	5.661564e-04
9.500000e+08	5.172231e+12	0.000000e+00	6.347826e-01	1.062530e+14	2.082881e+14	7.511562e+13	7.931651e+03	2.771783e+03	2.069589e+03	0	5.640504e-04
9.600000e+08	5.115008e+12	0.000000e+00	6.347826e-01	1.052931e+14	2.067533e+14	7.477578e+13	7.919948e+03	2.769825e+03	2.068127e+03	0	5.619626e-04
9.700000e+08	5.058692e+12	0.000000e+00	6.347826e-01	1.043481e+14	2.052403e+14	7.443826e+13	7.908350e+03	2.767885e+03	2.066678e+03	0	5.598926e-04
9.800000e+08	5.003262e+12	0.000000e+00	6.347826e-01	1.034178e+14	2.037486e+14	7.410303e+13	7.896856e+03	2.765960e+03	2.065241e+03	0	5.578401e-04
9.900000e+08	4.948700e+12	0.000000e+00	6.347826e-01	1.025018e+14	2.022777e+14	7.377008e+13	7.885465e+03	2.764052e+03	2.063817e+03	0	5.558048e-04
1.000000e+09	4.894985e+12	0.000000e+00	6.347826e-01	1.015999e+14	2.008271e+14	7.343939e+13	7.874174e+03	2.762160e+03	2.062404e+03	0	5.537866e-04
1.010000e+09	4.842100e+12	0.000000e+00	6.347826e-01	1.007116e+14	1.993964e+14	7.311095e+13	7.862982e+03	2.760284e+03	2.061003e+03	0	5.517850e-04
1.020000e+09	4.790027e+12	0.000000e+00	6.347826e-01	9.983682e+13	1.979851e+14	7.278473e+13	7.851888e+03	2.758423e+03	2.059613e+03	0	5.497999e-04
1.030000e+09	4.738748e+12	0.000000e+00	6.347826e-01	9.897514e+13	1.965930e+14	7.246072e+13	7.840889e+03	2.756577e+03	2.058235e+03	0	5.478309e-04
1.040000e+09	4.688246e+12	0.000000e+00	6.347826e-01	9.812631e+13	1.952194e+14	7.213890e+13	7.829986e+03	2.754746e+03	2.056868e+03	0	5.458778e-04
1.050000e+09	4.638504e+12	0.000000e+00	6.347826e-01	9.729006e+13	1.938642e+14	7.181925e+13	7.819175e+03	2.752929e+03	2.055511e+03	0	5.439404e-04
1.060000e+09	4.589507e+12	0.000000e+00	6.347826e-01	9.646612e+13	1.925268e+14	7.150175e+13	7.808457e+03	2.751127e+03	2.054166e+03	0	5.420183e-04
1.070000e+09	4.541239e+12	0.000000e+00	6.347826e-01	9.565425e+13	1.912069e+14	7.118640e+13	7.797829e+03	2.749339e+03	2.052830e+03	0	5.401115e-04
1.080000e+09	4.493684e+12	0.000000e+00	6.347826e-01	9.485419e+13	1.899042e+14	7.087317e+13	7.787290e+03	2.747564e+03	2.051506e+03	0	5.382196e-04
1.090000e+09	4.446828e+12	0.000000e+00	6.347826e-01	9.406570e+13	1.886183e+14	7.056204e+13	7.776839e+03	2.745803e+03	2.050191e+03	0	5.363423e-04
1.100000e+09	4.400657e+12	0.000000e+00	6.347826e-01	9.328853e+13	1.873488e+14	7.025300e+13	7.766475e+03	2.744056e+03	2.048886e+03	0	5.344796e-04
1.110000e+09	4.355156e+12	0.000000e+00	6.347826e-01	9.252247e+13	1.860955e+14	6.994604e+13	7.756196e+03	2.742322e+03	2.047591e+03	0	5.326311e-04
1.120000e+09	4.310311e+12	0.000000e+00	6.347826e-01	9.176727e+13	1.848581e+14	6.964113e+13	7.746001e+03	2.740601e+03	2.046306e+03	0	5.307967e-04
1.130000e+09	4.266110e+12	0.000000e+00	6.347826e-01	9.102274e+13	1.836361e+14	6.933826e+13	7.735889e+03	2.738892e+03	2.045030e+03	0	5.289760e-04
1.140000e+09	4.222540e+12	0.000000e+00	6.347826e-01	9.028864e+13	1.824293e+14	6.903742e+13	7.725859e+03	2.737196e+03	2.043764e+03	0	5.271690e-04
1.150000e+09	4.179587e+12	0.000000e+00	6.347826e-01	8.956479e+13	1.812375e+14	6.873858e+13	7.715910e+03	2.735513e+03	2.042507e+03	0	5.253754e-04
1.160000e+09	4.137240e+12	0.000000e+00	6.347826e-01	8.885096e+13	1.800603e+14	6.844174e+13	7.706040e+03	2.733841e+03	2.041259e+03	0	5.235950e-04
1.170000e+09	4.095486e+12	0.000000e+00	6.347826e-01	8.814697e+13	1.788974e+14	6.814688e+13	7.696249e+03	2.732182e+03	2.040020e+03	0	5.218277e-04
1.180000e+09	4.054314e+12	0.000000e+00	6.347826e-01	8.745263e+13	1.777487e+14	6.785397e+13	7.686535e+03	2.730534e+03	2.038790e+03	0	5.200732e-04
1.190000e+09	4.013713e+12	0.000000e+00	6.347826e-01	8.676774e+13	1.766137e+14	6.756302e+13	7.676898e+03	2.728898e+03	2.037568e+03	0	5.183313e-04
1.200000e+09	3.973672e+12	0.000000e+00	6.347826e-01	8.609213e+13	1.754924e+14	6.727400e+13	7.667335e+03	2.727274e+03	2.036355e+03	0	5.166019e-04
1.210000e+09	3.934179e+12	0.000000e+00	6.347826e-01	8.542561e+13	1.743843e+14	6.698689e+13	7.657847e+03	2.725660e+03	2.035151e+03	0	5.148847e-04
1.220000e+09	3.895224e+12	0.000000e+00	6.347826e-01	8.476802e+13	1.732893e+14	6.670168e+13	7.648432e+03	2.724058e+03	2.033954e+03	0	5.131797e-04
1.230000e+09	3.856797e+12	0.000000e+00	6.347826e-01	8.411918e+13	1.722072e+14	6.641837e+13	7.639090e+03	2.722467e+03	2.032766e+03	0	5.114866e-04
1.240000e+09	3.818888e+12	0.000000e+00	6.347826e-01	8.347893e+13	1.711376e+14	6.613692e+13	7.629819e+03	2.720887e+03	2.031586e+03	0	5.098052e-04
1.250000e+09	3.781487e+12	0.000000e+00	6.347826e-01	8.284711e+13	1.700805e+14	6.585734e+13	7.620618e+03	2.719317e+03	2.030414e+03	0	5.081355e-04
1.260000e+09	3.744585e+12	0.000000e+00	6.347826e-01	8.222356e+13	1.690355e+14	6.557959e+13	7.611487e+03	2.717758e+03	2.029250e+03	0	5.064771e-04
1.270000e+09	3.708171e+12	0.000000e+00	6.347826e-01	8.160813e+13	1.680024e+14	6.530368e+13	7.602424e+03	2.716209e+03	2.028093e+03	0	5.048301e-04
1.280000e+09	3.672238e+12	0.000000e+00	6.347826e-01	8.100067e+13	1.669811e+14	6.502958e+13	7.593429e+03	2.714670e+03	2.026945e+03	0	5.031942e-04
1.290000e+09	3.636777e+12	0.000000e+00	6.347826e-01	8.040102e+13	1.659713e+14	6.475728e+13	7.584500e+03	2.713141e+03	2.025803e+03	0	5.015692e-04
1.300000e+09	3.601777e+12	0.000000e+00	6.347826e-01	7.980906e+13	1.649729e+14	6.448677e+13	7.575638e+03	2.711623e+03	2.024669e+03	0	4.999550e-04
1.310000e+09	3.567232e+12	0.000000e+00	6.347826e-01	7.922464e+13	1.639856e+14	6.421803e+13	7.566840e+03	2.710114e+03	2.023543e+03	0	4.983515e-04
1.320000e+09	3.533133e+12	0.000000e+00	6.347826e-01	7.864762e+13	1.630093e+14	6.395106e+13	7.558107e+03	2.708615e+03	2.022423e+03	0	4.967585e-04
1.330000e+09	3.499472e+12	0.000000e+00	6.347826e-01	7.807788e+13	1.620437e+14	6.368583e+13	7.549438e+03	2.707125e+03	2.021311e+03	0	4.951759e-04
1.340000e+09	3.466241e+12	0.000000e+00	6.347826e-01	7.751527e+13	1.610887e+14	6.342233e+13	7.540831e+03	2.705645e+03	2.020206e+03	0	4.936035e-04
1.350000e+09	3.433432e+12	0.000000e+00	6.347826e-01	7.695969e+13	1.601441e+14	6.316055e+13	7.532286e+03	2.704174e+03	2.019107e+03	0	4.920412e-04
1.360000e+09	3.401038e+12	0.000000e+00	6.347826e-01	7.641099e+13	1.592098e+14	6.290048e+13	7.523802e+03	2.702712e+03	2.018016e+03	0	4.904889e-04
