#t		Qconv[W]	Ri[Rp]		R*[Rp]		Qc[W]		Qm[W]		Qr[W]		Tcmb[K]		Tl[K]		Tup[K]		RiFlag		Bs[T]
0.000000e+00	3.596043e+13	0.000000e+00	6.260869e-01	5.910495e+14	1.170498e+15	1.392712e+14	1.128263e+04	3.543323e+03	2.587715e+03	0	1.082984e-03
1.000000e+07	3.480886e+13	0.000000e+00	6.260869e-01	5.732049e+14	1.108420e+15	1.384995e+14	1.122440e+04	3.516327e+03	2.568000e+03	0	1.071298e-03
2.000000e+07	3.372784e+13	0.000000e+00	6.260869e-01	5.564469e+14	1.053989e+15	1.377336e+14	1.116791e+04	3.491937e+03	2.550188e+03	0	1.060091e-03
3.000000e+07	3.271013e+13	0.000000e+00	6.260869e-01	5.406644e+14	1.005851e+15	1.369734e+14	1.111306e+04	3.469768e+03	2.533998e+03	0	1.049320e-03
4.000000e+07	3.174957e+13	0.000000e+00	6.260869e-01	5.257628e+14	9.629483e+14	1.362190e+14	1.105975e+04	3.449505e+03	2.519199e+03	0	1.038946e-03
5.000000e+07	3.084088e+13	0.000000e+00	6.260869e-01	5.116607e+14	9.244431e+14	1.354701e+14	1.100790e+04	3.430890e+03	2.505605e+03	0	1.028938e-03
6.000000e+07	2.997947e+13	0.000000e+00	6.260869e-01	4.982876e+14	8.896662e+14	1.347268e+14	1.095743e+04	3.413710e+03	2.493058e+03	0	1.019268e-03
7.000000e+07	2.916135e+13	0.000000e+00	6.260869e-01	4.855822e+14	8.580760e+14	1.339890e+14	1.090827e+04	3.397785e+03	2.481428e+03	0	1.009910e-03
8.000000e+07	2.838301e+13	0.000000e+00	6.260869e-01	4.734904e+14	8.292299e+14	1.332568e+14	1.086035e+04	3.382966e+03	2.470605e+03	0	1.000844e-03
9.000000e+07	2.764135e+13	0.000000e+00	6.260869e-01	4.619647e+14	8.027634e+14	1.325300e+14	1.081361e+04	3.369123e+03	2.460496e+03	0	9.920496e-04
1.000000e+08	2.693362e+13	0.000000e+00	6.260869e-01	4.509628e+14	7.783734e+14	1.318085e+14	1.076801e+04	3.356149e+03	2.451021e+03	0	9.835096e-04
1.100000e+08	2.625738e+13	0.000000e+00	6.260869e-01	4.404469e+14	7.558062e+14	1.310925e+14	1.072348e+04	3.343951e+03	2.442112e+03	0	9.752085e-04
1.200000e+08	2.561043e+13	0.000000e+00	6.260869e-01	4.303832e+14	7.348478e+14	1.303817e+14	1.067999e+04	3.332446e+03	2.433711e+03	0	9.671325e-04
1.300000e+08	2.499079e+13	0.000000e+00	6.260869e-01	4.207414e+14	7.153167e+14	1.296762e+14	1.063748e+04	3.321566e+03	2.425765e+03	0	9.592688e-04
1.400000e+08	2.439666e+13	0.000000e+00	6.260869e-01	4.114937e+14	6.970579e+14	1.289759e+14	1.059591e+04	3.311251e+03	2.418231e+03	0	9.516060e-04
1.500000e+08	2.382645e+13	0.000000e+00	6.260869e-01	4.026154e+14	6.799385e+14	1.282808e+14	1.055526e+04	3.301446e+03	2.411071e+03	0	9.441335e-04
1.600000e+08	2.327865e+13	0.000000e+00	6.260869e-01	3.940837e+14	6.638434e+14	1.275909e+14	1.051547e+04	3.292106e+03	2.404250e+03	0	9.368419e-04
1.700000e+08	2.275194e+13	0.000000e+00	6.260869e-01	3.858778e+14	6.486731e+14	1.269060e+14	1.047652e+04	3.283189e+03	2.397738e+03	0	9.297221e-04
1.800000e+08	2.224508e+13	0.000000e+00	6.260869e-01	3.779788e+14	6.343407e+14	1.262262e+14	1.043838e+04	3.274659e+03	2.391508e+03	0	9.227662e-04
1.900000e+08	2.175694e+13	0.000000e+00	6.260869e-01	3.703693e+14	6.207703e+14	1.255514e+14	1.040102e+04	3.266485e+03	2.385538e+03	0	9.159665e-04
2.000000e+08	2.128647e+13	0.000000e+00	6.260869e-01	3.630331e+14	6.078949e+14	1.248815e+14	1.036440e+04	3.258636e+03	2.379807e+03	0	9.093162e-04
2.100000e+08	2.083273e+13	0.000000e+00	6.260869e-01	3.559556e+14	5.956558e+14	1.242166e+14	1.032850e+04	3.251089e+03	2.374295e+03	0	9.028087e-04
2.200000e+08	2.039481e+13	0.000000e+00	6.260869e-01	3.491231e+14	5.840005e+14	1.235565e+14	1.029330e+04	3.243820e+03	2.368986e+03	0	8.964380e-04
2.300000e+08	1.997191e+13	0.000000e+00	6.260869e-01	3.425228e+14	5.728828e+14	1.229013e+14	1.025877e+04	3.236808e+03	2.363865e+03	0	8.901985e-04
2.400000e+08	1.956325e+13	0.000000e+00	6.260869e-01	3.361431e+14	5.622611e+14	1.222509e+14	1.022489e+04	3.230035e+03	2.358919e+03	0	8.840850e-04
2.500000e+08	1.916813e+13	0.000000e+00	6.260869e-01	3.299729e+14	5.520984e+14	1.216053e+14	1.019163e+04	3.223485e+03	2.354136e+03	0	8.780925e-04
2.600000e+08	1.878588e+13	0.000000e+00	6.260869e-01	3.240021e+14	5.423614e+14	1.209644e+14	1.015898e+04	3.217143e+03	2.349504e+03	0	8.722163e-04
2.700000e+08	1.841590e+13	0.000000e+00	6.260869e-01	3.182211e+14	5.330201e+14	1.203282e+14	1.012692e+04	3.210994e+03	2.345013e+03	0	8.664523e-04
2.800000e+08	1.805760e+13	0.000000e+00	6.260869e-01	3.126211e+14	5.240476e+14	1.196966e+14	1.009543e+04	3.205027e+03	2.340655e+03	0	8.607962e-04
2.900000e+08	1.771044e+13	0.000000e+00	6.260869e-01	3.071938e+14	5.154192e+14	1.190696e+14	1.006449e+04	3.199229e+03	2.336421e+03	0	8.552442e-04
3.000000e+08	1.737392e+13	0.000000e+00	6.260869e-01	3.019313e+14	5.071128e+14	1.184473e+14	1.003408e+04	3.193592e+03	2.332305e+03	0	8.497927e-04
3.100000e+08	1.704757e+13	0.000000e+00	6.260869e-01	2.968263e+14	4.991081e+14	1.178294e+14	1.000419e+04	3.188106e+03	2.328298e+03	0	8.444381e-04
3.200000e+08	1.673094e+13	0.000000e+00	6.260869e-01	2.918720e+14	4.913866e+14	1.172160e+14	9.974808e+03	3.182761e+03	2.324394e+03	0	8.391774e-04
3.300000e+08	1.642360e+13	0.000000e+00	6.260869e-01	2.870618e+14	4.839316e+14	1.166071e+14	9.945909e+03	3.177550e+03	2.320589e+03	0	8.340072e-04
3.400000e+08	1.612517e+13	0.000000e+00	6.260869e-01	2.823897e+14	4.767274e+14	1.160026e+14	9.917485e+03	3.172466e+03	2.316876e+03	0	8.289248e-04
3.500000e+08	1.583527e+13	0.000000e+00	6.260869e-01	2.778499e+14	4.697600e+14	1.154025e+14	9.889520e+03	3.167501e+03	2.313250e+03	0	8.239272e-04
3.600000e+08	1.555355e+13	0.000000e+00	6.260869e-01	2.734370e+14	4.630163e+14	1.148068e+14	9.862003e+03	3.162651e+03	2.309708e+03	0	8.190119e-04
3.700000e+08	1.527968e+13	0.000000e+00	6.260869e-01	2.691459e+14	4.564841e+14	1.142154e+14	9.834920e+03	3.157909e+03	2.306245e+03	0	8.141763e-04
3.800000e+08	1.501335e+13	0.000000e+00	6.260869e-01	2.649716e+14	4.501524e+14	1.136282e+14	9.808261e+03	3.153269e+03	2.302856e+03	0	8.094180e-04
3.900000e+08	1.475425e+13	0.000000e+00	6.260869e-01	2.609097e+14	4.440109e+14	1.130453e+14	9.782012e+03	3.148728e+03	2.299540e+03	0	8.047347e-04
4.000000e+08	1.450211e+13	0.000000e+00	6.260869e-01	2.569557e+14	4.380501e+14	1.124666e+14	9.756164e+03	3.144280e+03	2.296291e+03	0	8.001241e-04
4.100000e+08	1.425665e+13	0.000000e+00	6.260869e-01	2.531055e+14	4.322610e+14	1.118921e+14	9.730706e+03	3.139921e+03	2.293108e+03	0	7.955843e-04
4.200000e+08	1.401763e+13	0.000000e+00	6.260869e-01	2.493553e+14	4.266354e+14	1.113217e+14	9.705628e+03	3.135647e+03	2.289986e+03	0	7.911130e-04
4.300000e+08	1.378480e+13	0.000000e+00	6.260869e-01	2.457012e+14	4.211657e+14	1.107554e+14	9.680919e+03	3.131454e+03	2.286925e+03	0	7.867086e-04
4.400000e+08	1.355794e+13	0.000000e+00	6.260869e-01	2.421397e+14	4.158447e+14	1.101932e+14	9.656570e+03	3.127340e+03	2.283920e+03	0	7.823689e-04
4.500000e+08	1.333683e+13	0.000000e+00	6.260869e-01	2.386676e+14	4.106656e+14	1.096351e+14	9.632573e+03	3.123300e+03	2.280970e+03	0	7.780924e-04
4.600000e+08	1.312125e+13	0.000000e+00	6.260869e-01	2.352815e+14	4.056223e+14	1.090809e+14	9.608918e+03	3.119333e+03	2.278072e+03	0	7.738773e-04
4.700000e+08	1.291102e+13	0.000000e+00	6.260869e-01	2.319784e+14	4.007087e+14	1.085307e+14	9.585597e+03	3.115434e+03	2.275225e+03	0	7.697219e-04
4.800000e+08	1.270594e+13	0.000000e+00	6.260869e-01	2.287554e+14	3.959196e+14	1.079845e+14	9.562602e+03	3.111602e+03	2.272426e+03	0	7.656247e-04
4.900000e+08	1.250584e+13	0.000000e+00	6.260869e-01	2.256098e+14	3.912496e+14	1.074422e+14	9.539925e+03	3.107833e+03	2.269674e+03	0	7.615842e-04
5.000000e+08	1.231054e+13	0.000000e+00	6.260869e-01	2.225388e+14	3.866939e+14	1.069037e+14	9.517559e+03	3.104126e+03	2.266966e+03	0	7.575990e-04
5.100000e+08	1.211988e+13	0.000000e+00	6.260869e-01	2.195400e+14	3.822479e+14	1.063691e+14	9.495495e+03	3.100478e+03	2.264302e+03	0	7.536675e-04
5.200000e+08	1.193371e+13	0.000000e+00	6.260869e-01	2.166109e+14	3.779073e+14	1.058383e+14	9.473728e+03	3.096887e+03	2.261680e+03	0	7.497886e-04
5.300000e+08	1.175187e+13	0.000000e+00	6.260869e-01	2.137493e+14	3.736680e+14	1.053113e+14	9.452249e+03	3.093351e+03	2.259098e+03	0	7.459608e-04
5.400000e+08	1.157422e+13	0.000000e+00	6.260869e-01	2.109528e+14	3.695262e+14	1.047881e+14	9.431054e+03	3.089869e+03	2.256555e+03	0	7.421829e-04
5.500000e+08	1.140063e+13	0.000000e+00	6.260869e-01	2.082195e+14	3.654782e+14	1.042685e+14	9.410134e+03	3.086438e+03	2.254049e+03	0	7.384537e-04
5.600000e+08	1.123096e+13	0.000000e+00	6.260869e-01	2.055472e+14	3.615206e+14	1.037527e+14	9.389484e+03	3.083058e+03	2.251580e+03	0	7.347721e-04
5.700000e+08	1.106510e+13	0.000000e+00	6.260869e-01	2.029341e+14	3.576501e+14	1.032405e+14	9.369098e+03	3.079725e+03	2.249146e+03	0	7.311370e-04
5.800000e+08	1.090291e+13	0.000000e+00	6.260869e-01	2.003782e+14	3.538636e+14	1.027320e+14	9.348970e+03	3.076439e+03	2.246747e+03	0	7.275471e-04
5.900000e+08	1.074428e+13	0.000000e+00	6.260869e-01	1.978779e+14	3.501582e+14	1.022271e+14	9.329095e+03	3.073199e+03	2.244380e+03	0	7.240016e-04
6.000000e+08	1.058911e+13	0.000000e+00	6.260869e-01	1.954313e+14	3.465310e+14	1.017257e+14	9.309466e+03	3.070002e+03	2.242046e+03	0	7.204993e-04
6.100000e+08	1.043729e+13	0.000000e+00	6.260869e-01	1.930368e+14	3.429794e+14	1.012279e+14	9.290079e+03	3.066848e+03	2.239742e+03	0	7.170393e-04
6.200000e+08	1.028871e+13	0.000000e+00	6.260869e-01	1.906929e+14	3.395010e+14	1.007336e+14	9.270929e+03	3.063735e+03	2.237469e+03	0	7.136206e-04
6.300000e+08	1.014329e+13	0.000000e+00	6.260869e-01	1.883980e+14	3.360932e+14	1.002428e+14	9.252010e+03	3.060663e+03	2.235225e+03	0	7.102423e-04
6.400000e+08	1.000091e+13	0.000000e+00	6.260869e-01	1.861507e+14	3.327537e+14	9.975546e+13	9.233318e+03	3.057630e+03	2.233010e+03	0	7.069036e-04
6.500000e+08	9.861501e+12	0.000000e+00	6.260869e-01	1.839496e+14	3.294805e+14	9.927155e+13	9.214849e+03	3.054635e+03	2.230823e+03	0	7.036035e-04
6.600000e+08	9.724968e+12	0.000000e+00	6.260869e-01	1.817934e+14	3.262713e+14	9.879105e+13	9.196596e+03	3.051677e+03	2.228662e+03	0	7.003413e-04
6.700000e+08	9.591228e+12	0.000000e+00	6.260869e-01	1.796807e+14	3.231243e+14	9.831392e+13	9.178557e+03	3.048754e+03	2.226528e+03	0	6.971160e-04
6.800000e+08	9.460201e+12	0.000000e+00	6.260869e-01	1.776103e+14	3.200374e+14	9.784015e+13	9.160727e+03	3.045867e+03	2.224420e+03	0	6.939270e-04
6.900000e+08	9.331811e+12	0.000000e+00	6.260869e-01	1.755810e+14	3.170089e+14	9.736970e+13	9.143101e+03	3.043014e+03	2.222336e+03	0	6.907735e-04
7.000000e+08	9.205981e+12	0.000000e+00	6.260869e-01	1.735916e+14	3.140369e+14	9.690255e+13	9.125676e+03	3.040195e+03	2.220277e+03	0	6.876546e-04
7.100000e+08	9.082641e+12	0.000000e+00	6.260869e-01	1.716411e+14	3.111199e+14	9.643866e+13	9.108447e+03	3.037407e+03	2.218242e+03	0	6.845698e-04
7.200000e+08	8.961722e+12	0.000000e+00	6.260869e-01	1.697283e+14	3.082562e+14	9.597803e+13	9.091412e+03	3.034652e+03	2.216229e+03	0	6.815182e-04
7.300000e+08	8.843156e+12	0.000000e+00	6.260869e-01	1.678522e+14	3.054443e+14	9.552061e+13	9.074565e+03	3.031927e+03	2.214239e+03	0	6.784993e-04
7.400000e+08	8.726879e+12	0.000000e+00	6.260869e-01	1.660119e+14	3.026827e+14	9.506638e+13	9.057904e+03	3.029233e+03	2.212271e+03	0	6.755124e-04
7.500000e+08	8.612830e+12	0.000000e+00	6.260869e-01	1.642063e+14	2.999700e+14	9.461532e+13	9.041425e+03	3.026567e+03	2.210325e+03	0	6.725568e-04
7.600000e+08	8.500948e+12	0.000000e+00	6.260869e-01	1.624346e+14	2.973048e+14	9.416740e+13	9.025125e+03	3.023931e+03	2.208400e+03	0	6.696319e-04
7.700000e+08	8.391176e+12	0.000000e+00	6.260869e-01	1.606958e+14	2.946859e+14	9.372260e+13	9.009000e+03	3.021323e+03	2.206495e+03	0	6.667371e-04
7.800000e+08	8.283457e+12	0.000000e+00	6.260869e-01	1.589891e+14	2.921119e+14	9.328089e+13	8.993047e+03	3.018742e+03	2.204610e+03	0	6.638718e-04
7.900000e+08	8.177738e+12	0.000000e+00	6.260869e-01	1.573136e+14	2.895816e+14	9.284225e+13	8.977262e+03	3.016188e+03	2.202745e+03	0	6.610354e-04
8.000000e+08	8.073967e+12	0.000000e+00	6.260869e-01	1.556685e+14	2.870940e+14	9.240665e+13	8.961644e+03	3.013660e+03	2.200899e+03	0	6.582275e-04
8.100000e+08	7.972094e+12	0.000000e+00	6.260869e-01	1.540531e+14	2.846477e+14	9.197407e+13	8.946188e+03	3.011158e+03	2.199072e+03	0	6.554473e-04
8.200000e+08	7.872069e+12	0.000000e+00	6.260869e-01	1.524665e+14	2.822419e+14	9.154448e+13	8.930892e+03	3.008681e+03	2.197263e+03	0	6.526945e-04
8.300000e+08	7.773846e+12	0.000000e+00	6.260869e-01	1.509081e+14	2.798754e+14	9.111787e+13	8.915753e+03	3.006229e+03	2.195472e+03	0	6.499685e-04
8.400000e+08	7.677380e+12	0.000000e+00	6.260869e-01	1.493772e+14	2.775473e+14	9.069419e+13	8.900768e+03	3.003801e+03	2.193698e+03	0	6.472688e-04
8.500000e+08	7.582626e+12	0.000000e+00	6.260869e-01	1.478730e+14	2.752565e+14	9.027345e+13	8.885935e+03	3.001396e+03	2.191942e+03	0	6.445949e-04
8.600000e+08	7.489541e+12	0.000000e+00	6.260869e-01	1.463949e+14	2.730022e+14	8.985560e+13	8.871250e+03	2.999015e+03	2.190203e+03	0	6.419464e-04
8.700000e+08	7.398085e+12	0.000000e+00	6.260869e-01	1.449423e+14	2.707834e+14	8.944063e+13	8.856712e+03	2.996656e+03	2.188481e+03	0	6.393227e-04
8.800000e+08	7.308218e+12	0.000000e+00	6.260869e-01	1.435146e+14	2.685993e+14	8.902851e+13	8.842318e+03	2.994319e+03	2.186774e+03	0	6.367234e-04
8.900000e+08	7.219901e+12	0.000000e+00	6.260869e-01	1.421110e+14	2.664490e+14	8.861923e+13	8.828065e+03	2.992005e+03	2.185084e+03	0	6.341482e-04
9.000000e+08	7.133096e+12	0.000000e+00	6.260869e-01	1.407312e+14	2.643317e+14	8.821275e+13	8.813951e+03	2.989711e+03	2.183409e+03	0	6.315965e-04
9.100000e+08	7.047767e+12	0.000000e+00	6.260869e-01	1.393744e+14	2.622466e+14	8.780906e+13	8.799973e+03	2.987439e+03	2.181749e+03	0	6.290679e-04
9.200000e+08	6.963880e+12	0.000000e+00	6.260869e-01	1.380402e+14	2.601930e+14	8.740814e+13	8.786130e+03	2.985186e+03	2.180104e+03	0	6.265621e-04
9.300000e+08	6.881399e+12	0.000000e+00	6.260869e-01	1.367280e+14	2.581702e+14	8.700996e+13	8.772419e+03	2.982955e+03	2.178474e+03	0	6.240786e-04
9.400000e+08	6.800293e+12	0.000000e+00	6.260869e-01	1.354373e+14	2.561773e+14	8.661449e+13	8.758838e+03	2.980742e+03	2.176859e+03	0	6.216170e-04
9.500000e+08	6.720528e+12	0.000000e+00	6.260869e-01	1.341676e+14	2.542138e+14	8.622173e+13	8.745384e+03	2.978550e+03	2.175257e+03	0	6.191770e-04
9.600000e+08	6.642075e+12	0.000000e+00	6.260869e-01	1.329185e+14	2.522790e+14	8.583165e+13	8.732056e+03	2.976376e+03	2.173670e+03	0	6.167582e-04
9.700000e+08	6.564902e+12	0.000000e+00	6.260869e-01	1.316894e+14	2.503722e+14	8.544422e+13	8.718852e+03	2.974221e+03	2.172096e+03	0	6.143602e-04
9.800000e+08	6.488980e+12	0.000000e+00	6.260869e-01	1.304799e+14	2.484928e+14	8.505943e+13	8.705770e+03	2.972085e+03	2.170536e+03	0	6.119827e-04
9.900000e+08	6.414282e+12	0.000000e+00	6.260869e-01	1.292895e+14	2.466402e+14	8.467726e+13	8.692808e+03	2.969966e+03	2.168989e+03	0	6.096253e-04
1.000000e+09	6.340779e+12	0.000000e+00	6.260869e-01	1.281179e+14	2.448138e+14	8.429768e+13	8.679963e+03	2.967866e+03	2.167455e+03	0	6.072878e-04
1.010000e+09	6.268445e+12	0.000000e+00	6.260869e-01	1.269647e+14	2.430130e+14	8.392067e+13	8.667234e+03	2.965782e+03	2.165933e+03	0	6.049697e-04
1.020000e+09	6.197253e+12	0.000000e+00	6.260869e-01	1.258293e+14	2.412373e+14	8.354622e+13	8.654620e+03	2.963716e+03	2.164424e+03	0	6.026707e-04
1.030000e+09	6.127179e+12	0.000000e+00	6.260869e-01	1.247114e+14	2.394862e+14	8.317430e+13	8.642118e+03	2.961667e+03	2.162928e+03	0	6.003906e-04
1.040000e+09	6.058199e+12	0.000000e+00	6.260869e-01	1.236107e+14	2.377591e+14	8.280489e+13	8.629727e+03	2.959634e+03	2.161443e+03	0	5.981290e-04
1.050000e+09	5.990287e+12	0.000000e+00	6.260869e-01	1.225267e+14	2.360555e+14	8.243798e+13	8.617445e+03	2.957618e+03	2.159971e+03	0	5.958856e-04
1.060000e+09	5.923421e+12	0.000000e+00	6.260869e-01	1.214592e+14	2.343749e+14	8.207355e+13	8.605270e+03	2.955618e+03	2.158510e+03	0	5.936601e-04
1.070000e+09	5.857578e+12	0.000000e+00	6.260869e-01	1.204076e+14	2.327169e+14	8.171157e+13	8.593201e+03	2.953633e+03	2.157061e+03	0	5.914523e-04
1.080000e+09	5.792738e+12	0.000000e+00	6.260869e-01	1.193718e+14	2.310810e+14	8.135202e+13	8.581236e+03	2.951664e+03	2.155623e+03	0	5.892618e-04
1.090000e+09	5.728877e+12	0.000000e+00	6.260869e-01	1.183514e+14	2.294667e+14	8.099489e+13	8.569374e+03	2.949710e+03	2.154196e+03	0	5.870884e-04
1.100000e+09	5.665976e+12	0.000000e+00	6.260869e-01	1.173461e+14	2.278736e+14	8.064016e+13	8.557613e+03	2.947772e+03	2.152780e+03	0	5.849318e-04
1.110000e+09	5.604014e+12	0.000000e+00	6.260869e-01	1.163554e+14	2.263013e+14	8.028781e+13	8.545951e+03	2.945848e+03	2.151375e+03	0	5.827918e-04
1.120000e+09	5.542972e+12	0.000000e+00	6.260869e-01	1.153793e+14	2.247494e+14	7.993782e+13	8.534388e+03	2.943938e+03	2.149980e+03	0	5.806680e-04
1.130000e+09	5.482831e+12	0.000000e+00	6.260869e-01	1.144172e+14	2.232174e+14	7.959017e+13	8.522922e+03	2.942043e+03	2.148596e+03	0	5.785603e-04
1.140000e+09	5.423572e+12	0.000000e+00	6.260869e-01	1.134690e+14	2.217050e+14	7.924485e+13	8.511550e+03	2.940162e+03	2.147223e+03	0	5.764683e-04
1.150000e+09	5.365176e+12	0.000000e+00	6.260869e-01	1.125344e+14	2.202118e+14	7.890183e+13	8.500273e+03	2.938295e+03	2.145859e+03	0	5.743919e-04
1.160000e+09	5.307628e+12	0.000000e+00	6.260869e-01	1.116131e+14	2.187374e+14	7.856110e+13	8.489088e+03	2.936442e+03	2.144506e+03	0	5.723308e-04
1.170000e+09	5.250908e+12	0.000000e+00	6.260869e-01	1.107048e+14	2.172815e+14	7.822264e+13	8.477995e+03	2.934602e+03	2.143162e+03	0	5.702848e-04
1.180000e+09	5.195001e+12	0.000000e+00	6.260869e-01	1.098092e+14	2.158437e+14	7.788643e+13	8.466992e+03	2.932776e+03	2.141828e+03	0	5.682536e-04
1.190000e+09	5.139891e+12	0.000000e+00	6.260869e-01	1.089262e+14	2.144237e+14	7.755246e+13	8.456077e+03	2.930962e+03	2.140504e+03	0	5.662371e-04
1.200000e+09	5.085561e+12	0.000000e+00	6.260869e-01	1.080554e+14	2.130211e+14	7.722070e+13	8.445250e+03	2.929162e+03	2.139189e+03	0	5.642349e-04
1.210000e+09	5.031996e+12	0.000000e+00	6.260869e-01	1.071967e+14	2.116356e+14	7.689114e+13	8.434510e+03	2.927374e+03	2.137883e+03	0	5.622469e-04
1.220000e+09	4.979181e+12	0.000000e+00	6.260869e-01	1.063498e+14	2.102669e+14	7.656377e+13	8.423854e+03	2.925599e+03	2.136587e+03	0	5.602729e-04
1.230000e+09	4.927101e+12	0.000000e+00	6.260869e-01	1.055144e+14	2.089146e+14	7.623856e+13	8.413283e+03	2.923836e+03	2.135299e+03	0	5.583127e-04
1.240000e+09	4.875742e+12	0.000000e+00	6.260869e-01	1.046903e+14	2.075786e+14	7.591551e+13	8.402794e+03	2.922085e+03	2.134021e+03	0	5.563660e-04
1.250000e+09	4.825090e+12	0.000000e+00	6.260869e-01	1.038774e+14	2.062585e+14	7.559458e+13	8.392387e+03	2.920346e+03	2.132751e+03	0	5.544327e-04
1.260000e+09	4.775132e+12	0.000000e+00	6.260869e-01	1.030754e+14	2.049539e+14	7.527577e+13	8.382060e+03	2.918620e+03	2.131490e+03	0	5.525125e-04
1.270000e+09	4.725854e+12	0.000000e+00	6.260869e-01	1.022841e+14	2.036647e+14	7.495906e+13	8.371813e+03	2.916905e+03	2.130237e+03	0	5.506054e-04
1.280000e+09	4.677244e+12	0.000000e+00	6.260869e-01	1.015033e+14	2.023906e+14	7.464444e+13	8.361645e+03	2.915201e+03	2.128993e+03	0	5.487110e-04
1.290000e+09	4.629288e+12	0.000000e+00	6.260869e-01	1.007328e+14	2.011312e+14	7.433188e+13	8.351554e+03	2.913509e+03	2.127758e+03	0	5.468292e-04
1.300000e+09	4.581974e+12	0.000000e+00	6.260869e-01	9.997237e+13	1.998864e+14	7.402137e+13	8.341539e+03	2.911828e+03	2.126530e+03	0	5.449599e-04
1.310000e+09	4.535291e+12	0.000000e+00	6.260869e-01	9.922189e+13	1.986558e+14	7.371290e+13	8.331600e+03	2.910158e+03	2.125310e+03	0	5.431028e-04
1.320000e+09	4.489226e+12	0.000000e+00	6.260869e-01	9.848116e+13	1.974393e+14	7.340645e+13	8.321735e+03	2.908499e+03	2.124099e+03	0	5.412578e-04
1.330000e+09	4.443769e+12	0.000000e+00	6.260869e-01	9.774999e+13	1.962365e+14	7.310201e+13	8.311943e+03	2.906851e+03	2.122895e+03	0	5.394247e-04
1.340000e+09	4.398907e+12	0.000000e+00	6.260869e-01	9.702820e+13	1.950474e+14	7.279955e+13	8.302225e+03	2.905214e+03	2.121699e+03	0	5.376033e-04
1.350000e+09	4.354631e+12	0.000000e+00	6.260869e-01	9.631564e+13	1.938715e+14	7.249907e+13	8.292577e+03	2.903587e+03	2.120511e+03	0	5.357935e-04
1.360000e+09	4.310929e+12	0.000000e+00	6.260869e-01	9.561212e+13	1.927087e+14	7.220054e+13	8.283001e+03	2.901970e+03	2.119331e+03	0	5.339951e-04
