#t		Qconv[W]	Ri[Rp]		R*[Rp]		Qc[W]		Qm[W]		Qr[W]		Tcmb[K]		Tl[K]		Tup[K]		RiFlag		Bs[T]
0.000000e+00	6.094690e+13	0.000000e+00	6.347824e-01	8.504681e+14	1.300701e+15	1.756595e+14	1.291423e+04	3.767695e+03	2.678731e+03	0	1.261386e-03
1.000000e+07	5.930789e+13	0.000000e+00	6.347824e-01	8.293800e+14	1.262771e+15	1.746862e+14	1.285416e+04	3.754107e+03	2.669070e+03	0	1.249975e-03
2.000000e+07	5.774220e+13	0.000000e+00	6.347824e-01	8.092278e+14	1.227517e+15	1.737202e+14	1.279556e+04	3.741288e+03	2.659957e+03	0	1.238878e-03
3.000000e+07	5.624480e+13	0.000000e+00	6.347824e-01	7.899474e+14	1.194630e+15	1.727614e+14	1.273837e+04	3.729155e+03	2.651330e+03	0	1.228075e-03
4.000000e+07	5.481116e+13	0.000000e+00	6.347824e-01	7.714812e+14	1.163844e+15	1.718098e+14	1.268254e+04	3.717637e+03	2.643141e+03	0	1.217550e-03
5.000000e+07	5.343717e+13	0.000000e+00	6.347824e-01	7.537770e+14	1.134937e+15	1.708653e+14	1.262800e+04	3.706671e+03	2.635345e+03	0	1.207291e-03
6.000000e+07	5.211910e+13	0.000000e+00	6.347824e-01	7.367874e+14	1.107714e+15	1.699278e+14	1.257470e+04	3.696205e+03	2.627904e+03	0	1.197282e-03
7.000000e+07	5.085357e+13	0.000000e+00	6.347824e-01	7.204690e+14	1.082011e+15	1.689973e+14	1.252260e+04	3.686192e+03	2.620785e+03	0	1.187511e-03
8.000000e+07	4.963744e+13	0.000000e+00	6.347824e-01	7.047823e+14	1.057684e+15	1.680737e+14	1.247164e+04	3.676592e+03	2.613959e+03	0	1.177969e-03
9.000000e+07	4.846788e+13	0.000000e+00	6.347824e-01	6.896909e+14	1.034608e+15	1.671570e+14	1.242178e+04	3.667367e+03	2.607401e+03	0	1.168643e-03
1.000000e+08	4.734225e+13	0.000000e+00	6.347824e-01	6.751614e+14	1.012674e+15	1.662471e+14	1.237299e+04	3.658489e+03	2.601088e+03	0	1.159525e-03
1.100000e+08	4.625815e+13	0.000000e+00	6.347824e-01	6.611630e+14	9.917859e+14	1.653439e+14	1.232521e+04	3.649927e+03	2.595002e+03	0	1.150606e-03
1.200000e+08	4.521333e+13	0.000000e+00	6.347824e-01	6.476672e+14	9.718588e+14	1.644475e+14	1.227842e+04	3.641659e+03	2.589123e+03	0	1.141877e-03
1.300000e+08	4.420572e+13	0.000000e+00	6.347824e-01	6.346476e+14	9.528177e+14	1.635576e+14	1.223258e+04	3.633662e+03	2.583437e+03	0	1.133331e-03
1.400000e+08	4.323340e+13	0.000000e+00	6.347824e-01	6.220798e+14	9.345956e+14	1.626744e+14	1.218766e+04	3.625916e+03	2.577930e+03	0	1.124960e-03
1.500000e+08	4.229458e+13	0.000000e+00	6.347824e-01	6.099408e+14	9.171329e+14	1.617977e+14	1.214361e+04	3.618403e+03	2.572589e+03	0	1.116758e-03
1.600000e+08	4.138761e+13	0.000000e+00	6.347824e-01	5.982096e+14	9.003760e+14	1.609274e+14	1.210043e+04	3.611109e+03	2.567403e+03	0	1.108717e-03
1.700000e+08	4.051092e+13	0.000000e+00	6.347824e-01	5.868664e+14	8.842767e+14	1.600636e+14	1.205806e+04	3.604019e+03	2.562362e+03	0	1.100833e-03
1.800000e+08	3.966307e+13	0.000000e+00	6.347824e-01	5.758925e+14	8.687917e+14	1.592062e+14	1.201650e+04	3.597120e+03	2.557457e+03	0	1.093099e-03
1.900000e+08	3.884271e+13	0.000000e+00	6.347824e-01	5.652708e+14	8.538816e+14	1.583550e+14	1.197571e+04	3.590401e+03	2.552680e+03	0	1.085510e-03
2.000000e+08	3.804855e+13	0.000000e+00	6.347824e-01	5.549850e+14	8.395106e+14	1.575102e+14	1.193567e+04	3.583850e+03	2.548022e+03	0	1.078061e-03
2.100000e+08	3.727940e+13	0.000000e+00	6.347824e-01	5.450198e+14	8.256463e+14	1.566715e+14	1.189635e+04	3.577459e+03	2.543478e+03	0	1.070747e-03
2.200000e+08	3.653416e+13	0.000000e+00	6.347824e-01	5.353611e+14	8.122589e+14	1.558390e+14	1.185773e+04	3.571218e+03	2.539042e+03	0	1.063564e-03
2.300000e+08	3.581175e+13	0.000000e+00	6.347824e-01	5.259952e+14	7.993212e+14	1.550126e+14	1.181979e+04	3.565120e+03	2.534706e+03	0	1.056507e-03
2.400000e+08	3.511119e+13	0.000000e+00	6.347824e-01	5.169095e+14	7.868084e+14	1.541923e+14	1.178251e+04	3.559158e+03	2.530467e+03	0	1.049573e-03
2.500000e+08	3.443155e+13	0.000000e+00	6.347824e-01	5.080922e+14	7.746974e+14	1.533780e+14	1.174588e+04	3.553323e+03	2.526319e+03	0	1.042756e-03
2.600000e+08	3.377193e+13	0.000000e+00	6.347824e-01	4.995318e+14	7.629672e+14	1.525696e+14	1.170986e+04	3.547611e+03	2.522258e+03	0	1.036055e-03
2.700000e+08	3.313151e+13	0.000000e+00	6.347824e-01	4.912179e+14	7.515981e+14	1.517672e+14	1.167445e+04	3.542016e+03	2.518279e+03	0	1.029464e-03
2.800000e+08	3.250950e+13	0.000000e+00	6.347824e-01	4.831402e+14	7.405722e+14	1.509706e+14	1.163962e+04	3.536531e+03	2.514380e+03	0	1.022981e-03
2.900000e+08	3.190516e+13	0.000000e+00	6.347824e-01	4.752893e+14	7.298725e+14	1.501798e+14	1.160537e+04	3.531153e+03	2.510556e+03	0	1.016602e-03
3.000000e+08	3.131777e+13	0.000000e+00	6.347824e-01	4.676562e+14	7.194834e+14	1.493948e+14	1.157167e+04	3.525877e+03	2.506805e+03	0	1.010325e-03
3.100000e+08	3.074666e+13	0.000000e+00	6.347824e-01	4.602322e+14	7.093906e+14	1.486155e+14	1.153850e+04	3.520698e+03	2.503123e+03	0	1.004146e-03
3.200000e+08	3.019122e+13	0.000000e+00	6.347824e-01	4.530094e+14	6.995803e+14	1.478419e+14	1.150586e+04	3.515612e+03	2.499507e+03	0	9.980620e-04
3.300000e+08	2.965082e+13	0.000000e+00	6.347824e-01	4.459799e+14	6.900400e+14	1.470739e+14	1.147373e+04	3.510616e+03	2.495955e+03	0	9.920713e-04
3.400000e+08	2.912490e+13	0.000000e+00	6.347824e-01	4.391365e+14	6.807578e+14	1.463115e+14	1.144210e+04	3.505707e+03	2.492465e+03	0	9.861707e-04
3.500000e+08	2.861291e+13	0.000000e+00	6.347824e-01	4.324722e+14	6.717225e+14	1.455546e+14	1.141094e+04	3.500880e+03	2.489033e+03	0	9.803579e-04
3.600000e+08	2.811434e+13	0.000000e+00	6.347824e-01	4.259805e+14	6.629239e+14	1.448032e+14	1.138026e+04	3.496134e+03	2.485658e+03	0	9.746304e-04
3.700000e+08	2.762870e+13	0.000000e+00	6.347824e-01	4.196549e+14	6.543520e+14	1.440572e+14	1.135004e+04	3.491464e+03	2.482338e+03	0	9.689859e-04
3.800000e+08	2.715551e+13	0.000000e+00	6.347824e-01	4.134895e+14	6.459976e+14	1.433166e+14	1.132026e+04	3.486869e+03	2.479071e+03	0	9.634222e-04
3.900000e+08	2.669433e+13	0.000000e+00	6.347824e-01	4.074786e+14	6.378522e+14	1.425814e+14	1.129092e+04	3.482346e+03	2.475855e+03	0	9.579371e-04
4.000000e+08	2.624474e+13	0.000000e+00	6.347824e-01	4.016167e+14	6.299074e+14	1.418515e+14	1.126200e+04	3.477892e+03	2.472689e+03	0	9.525286e-04
4.100000e+08	2.580631e+13	0.000000e+00	6.347824e-01	3.958986e+14	6.221556e+14	1.411269e+14	1.123350e+04	3.473505e+03	2.469570e+03	0	9.471948e-04
4.200000e+08	2.537868e+13	0.000000e+00	6.347824e-01	3.903194e+14	6.145893e+14	1.404075e+14	1.120540e+04	3.469183e+03	2.466497e+03	0	9.419337e-04
4.300000e+08	2.496147e+13	0.000000e+00	6.347824e-01	3.848743e+14	6.072018e+14	1.396933e+14	1.117770e+04	3.464925e+03	2.463470e+03	0	9.367435e-04
4.400000e+08	2.455431e+13	0.000000e+00	6.347824e-01	3.795588e+14	5.999864e+14	1.389842e+14	1.115038e+04	3.460727e+03	2.460485e+03	0	9.316223e-04
4.500000e+08	2.415688e+13	0.000000e+00	6.347824e-01	3.743684e+14	5.929370e+14	1.382802e+14	1.112343e+04	3.456589e+03	2.457543e+03	0	9.265687e-04
4.600000e+08	2.376885e+13	0.000000e+00	6.347824e-01	3.692992e+14	5.860475e+14	1.375812e+14	1.109686e+04	3.452508e+03	2.454641e+03	0	9.215807e-04
4.700000e+08	2.338991e+13	0.000000e+00	6.347824e-01	3.643471e+14	5.793125e+14	1.368873e+14	1.107064e+04	3.448483e+03	2.451780e+03	0	9.166570e-04
4.800000e+08	2.301976e+13	0.000000e+00	6.347824e-01	3.595083e+14	5.727265e+14	1.361983e+14	1.104477e+04	3.444512e+03	2.448956e+03	0	9.117958e-04
4.900000e+08	2.265813e+13	0.000000e+00	6.347824e-01	3.547791e+14	5.662844e+14	1.355143e+14	1.101924e+04	3.440593e+03	2.446171e+03	0	9.069959e-04
5.000000e+08	2.230472e+13	0.000000e+00	6.347824e-01	3.501561e+14	5.599815e+14	1.348352e+14	1.099405e+04	3.436727e+03	2.443421e+03	0	9.022556e-04
5.100000e+08	2.195929e+13	0.000000e+00	6.347824e-01	3.456359e+14	5.538131e+14	1.341609e+14	1.096918e+04	3.432909e+03	2.440708e+03	0	8.975736e-04
5.200000e+08	2.162159e+13	0.000000e+00	6.347824e-01	3.412153e+14	5.477748e+14	1.334914e+14	1.094464e+04	3.429141e+03	2.438028e+03	0	8.929487e-04
5.300000e+08	2.129136e+13	0.000000e+00	6.347824e-01	3.368913e+14	5.418625e+14	1.328267e+14	1.092040e+04	3.425420e+03	2.435383e+03	0	8.883794e-04
5.400000e+08	2.096839e+13	0.000000e+00	6.347824e-01	3.326607e+14	5.360720e+14	1.321668e+14	1.089647e+04	3.421745e+03	2.432770e+03	0	8.838645e-04
5.500000e+08	2.065245e+13	0.000000e+00	6.347824e-01	3.285209e+14	5.303996e+14	1.315115e+14	1.087285e+04	3.418115e+03	2.430189e+03	0	8.794028e-04
5.600000e+08	2.034333e+13	0.000000e+00	6.347824e-01	3.244691e+14	5.248415e+14	1.308609e+14	1.084951e+04	3.414528e+03	2.427639e+03	0	8.749931e-04
5.700000e+08	2.004082e+13	0.000000e+00	6.347824e-01	3.205026e+14	5.193944e+14	1.302149e+14	1.082646e+04	3.410985e+03	2.425120e+03	0	8.706343e-04
5.800000e+08	1.974472e+13	0.000000e+00	6.347824e-01	3.166190e+14	5.140547e+14	1.295735e+14	1.080369e+04	3.407483e+03	2.422630e+03	0	8.663253e-04
5.900000e+08	1.945485e+13	0.000000e+00	6.347824e-01	3.128157e+14	5.088193e+14	1.289366e+14	1.078120e+04	3.404022e+03	2.420169e+03	0	8.620649e-04
6.000000e+08	1.917103e+13	0.000000e+00	6.347824e-01	3.090905e+14	5.036850e+14	1.283043e+14	1.075897e+04	3.400600e+03	2.417737e+03	0	8.578521e-04
6.100000e+08	1.889307e+13	0.000000e+00	6.347824e-01	3.054411e+14	4.986490e+14	1.276764e+14	1.073701e+04	3.397218e+03	2.415332e+03	0	8.536860e-04
6.200000e+08	1.862081e+13	0.000000e+00	6.347824e-01	3.018654e+14	4.937084e+14	1.270530e+14	1.071531e+04	3.393873e+03	2.412954e+03	0	8.495654e-04
6.300000e+08	1.835409e+13	0.000000e+00	6.347824e-01	2.983612e+14	4.888603e+14	1.264339e+14	1.069386e+04	3.390566e+03	2.410602e+03	0	8.454896e-04
6.400000e+08	1.809275e+13	0.000000e+00	6.347824e-01	2.949265e+14	4.841023e+14	1.258193e+14	1.067266e+04	3.387295e+03	2.408277e+03	0	8.414574e-04
6.500000e+08	1.783664e+13	0.000000e+00	6.347824e-01	2.915595e+14	4.794317e+14	1.252089e+14	1.065170e+04	3.384059e+03	2.405976e+03	0	8.374681e-04
6.600000e+08	1.758561e+13	0.000000e+00	6.347824e-01	2.882581e+14	4.748461e+14	1.246029e+14	1.063098e+04	3.380858e+03	2.403700e+03	0	8.335208e-04
6.700000e+08	1.733952e+13	0.000000e+00	6.347824e-01	2.850207e+14	4.703433e+14	1.240011e+14	1.061049e+04	3.377691e+03	2.401449e+03	0	8.296145e-04
6.800000e+08	1.709825e+13	0.000000e+00	6.347824e-01	2.818455e+14	4.659209e+14	1.234035e+14	1.059023e+04	3.374557e+03	2.399221e+03	0	8.257486e-04
6.900000e+08	1.686165e+13	0.000000e+00	6.347824e-01	2.787308e+14	4.615767e+14	1.228102e+14	1.057020e+04	3.371456e+03	2.397016e+03	0	8.219221e-04
7.000000e+08	1.662960e+13	0.000000e+00	6.347824e-01	2.756750e+14	4.573088e+14	1.222209e+14	1.055039e+04	3.368387e+03	2.394834e+03	0	8.181342e-04
7.100000e+08	1.640198e+13	0.000000e+00	6.347824e-01	2.726765e+14	4.531150e+14	1.216359e+14	1.053079e+04	3.365349e+03	2.392674e+03	0	8.143843e-04
7.200000e+08	1.617867e+13	0.000000e+00	6.347824e-01	2.697339e+14	4.489934e+14	1.210549e+14	1.051141e+04	3.362342e+03	2.390536e+03	0	8.106716e-04
7.300000e+08	1.595957e+13	0.000000e+00	6.347824e-01	2.668456e+14	4.449422e+14	1.204779e+14	1.049224e+04	3.359365e+03	2.388419e+03	0	8.069953e-04
7.400000e+08	1.574455e+13	0.000000e+00	6.347824e-01	2.640102e+14	4.409596e+14	1.199050e+14	1.047327e+04	3.356417e+03	2.386324e+03	0	8.033547e-04
7.500000e+08	1.553351e+13	0.000000e+00	6.347824e-01	2.612264e+14	4.370437e+14	1.193361e+14	1.045450e+04	3.353498e+03	2.384248e+03	0	7.997492e-04
7.600000e+08	1.532635e+13	0.000000e+00	6.347824e-01	2.584929e+14	4.331930e+14	1.187712e+14	1.043592e+04	3.350608e+03	2.382193e+03	0	7.961781e-04
7.700000e+08	1.512298e+13	0.000000e+00	6.347824e-01	2.558084e+14	4.294057e+14	1.182102e+14	1.041755e+04	3.347745e+03	2.380158e+03	0	7.926408e-04
7.800000e+08	1.492329e+13	0.000000e+00	6.347824e-01	2.531716e+14	4.256804e+14	1.176530e+14	1.039936e+04	3.344909e+03	2.378142e+03	0	7.891365e-04
7.900000e+08	1.472719e+13	0.000000e+00	6.347824e-01	2.505814e+14	4.220154e+14	1.170998e+14	1.038136e+04	3.342100e+03	2.376145e+03	0	7.856647e-04
8.000000e+08	1.453459e+13	0.000000e+00	6.347824e-01	2.480366e+14	4.184094e+14	1.165504e+14	1.036354e+04	3.339318e+03	2.374166e+03	0	7.822248e-04
8.100000e+08	1.434541e+13	0.000000e+00	6.347824e-01	2.455361e+14	4.148609e+14	1.160048e+14	1.034590e+04	3.336561e+03	2.372206e+03	0	7.788161e-04
8.200000e+08	1.415956e+13	0.000000e+00	6.347824e-01	2.430787e+14	4.113685e+14	1.154629e+14	1.032844e+04	3.333829e+03	2.370264e+03	0	7.754382e-04
8.300000e+08	1.397696e+13	0.000000e+00	6.347824e-01	2.406636e+14	4.079309e+14	1.149249e+14	1.031115e+04	3.331123e+03	2.368340e+03	0	7.720904e-04
8.400000e+08	1.379752e+13	0.000000e+00	6.347824e-01	2.382895e+14	4.045469e+14	1.143905e+14	1.029404e+04	3.328440e+03	2.366433e+03	0	7.687723e-04
8.500000e+08	1.362119e+13	0.000000e+00	6.347824e-01	2.359556e+14	4.012151e+14	1.138598e+14	1.027709e+04	3.325782e+03	2.364543e+03	0	7.654832e-04
8.600000e+08	1.344787e+13	0.000000e+00	6.347824e-01	2.336609e+14	3.979343e+14	1.133328e+14	1.026031e+04	3.323147e+03	2.362669e+03	0	7.622226e-04
8.700000e+08	1.327750e+13	0.000000e+00	6.347824e-01	2.314045e+14	3.947034e+14	1.128094e+14	1.024369e+04	3.320535e+03	2.360812e+03	0	7.589901e-04
8.800000e+08	1.311001e+13	0.000000e+00	6.347824e-01	2.291855e+14	3.915213e+14	1.122896e+14	1.022723e+04	3.317946e+03	2.358972e+03	0	7.557852e-04
8.900000e+08	1.294533e+13	0.000000e+00	6.347824e-01	2.270029e+14	3.883868e+14	1.117734e+14	1.021093e+04	3.315380e+03	2.357147e+03	0	7.526073e-04
9.000000e+08	1.278340e+13	0.000000e+00	6.347824e-01	2.248560e+14	3.852989e+14	1.112607e+14	1.019479e+04	3.312835e+03	2.355338e+03	0	7.494560e-04
9.100000e+08	1.262415e+13	0.000000e+00	6.347824e-01	2.227440e+14	3.822565e+14	1.107515e+14	1.017879e+04	3.310312e+03	2.353544e+03	0	7.463308e-04
9.200000e+08	1.246752e+13	0.000000e+00	6.347824e-01	2.206660e+14	3.792587e+14	1.102459e+14	1.016295e+04	3.307810e+03	2.351765e+03	0	7.432313e-04
9.300000e+08	1.231344e+13	0.000000e+00	6.347824e-01	2.186212e+14	3.763044e+14	1.097436e+14	1.014725e+04	3.305329e+03	2.350002e+03	0	7.401570e-04
9.400000e+08	1.216187e+13	0.000000e+00	6.347824e-01	2.166090e+14	3.733928e+14	1.092449e+14	1.013170e+04	3.302869e+03	2.348252e+03	0	7.371075e-04
9.500000e+08	1.201275e+13	0.000000e+00	6.347824e-01	2.146286e+14	3.705228e+14	1.087495e+14	1.011629e+04	3.300429e+03	2.346518e+03	0	7.340824e-04
9.600000e+08	1.186602e+13	0.000000e+00	6.347824e-01	2.126793e+14	3.676937e+14	1.082575e+14	1.010102e+04	3.298009e+03	2.344797e+03	0	7.310812e-04
9.700000e+08	1.172162e+13	0.000000e+00	6.347824e-01	2.107603e+14	3.649045e+14	1.077688e+14	1.008589e+04	3.295608e+03	2.343090e+03	0	7.281036e-04
9.800000e+08	1.157951e+13	0.000000e+00	6.347824e-01	2.088711e+14	3.621544e+14	1.072835e+14	1.007089e+04	3.293227e+03	2.341397e+03	0	7.251492e-04
9.900000e+08	1.143963e+13	0.000000e+00	6.347824e-01	2.070110e+14	3.594426e+14	1.068015e+14	1.005603e+04	3.290865e+03	2.339718e+03	0	7.222175e-04
1.000000e+09	1.130194e+13	0.000000e+00	6.347824e-01	2.051794e+14	3.567683e+14	1.063227e+14	1.004130e+04	3.288521e+03	2.338051e+03	0	7.193082e-04
1.010000e+09	1.116640e+13	0.000000e+00	6.347824e-01	2.033755e+14	3.541307e+14	1.058472e+14	1.002670e+04	3.286196e+03	2.336398e+03	0	7.164210e-04
1.020000e+09	1.103294e+13	0.000000e+00	6.347824e-01	2.015990e+14	3.515291e+14	1.053749e+14	1.001223e+04	3.283889e+03	2.334758e+03	0	7.135554e-04
1.030000e+09	1.090153e+13	0.000000e+00	6.347824e-01	1.998491e+14	3.489627e+14	1.049058e+14	9.997889e+03	3.281600e+03	2.333130e+03	0	7.107111e-04
1.040000e+09	1.077213e+13	0.000000e+00	6.347824e-01	1.981253e+14	3.464308e+14	1.044399e+14	9.983668e+03	3.279328e+03	2.331515e+03	0	7.078878e-04
1.050000e+09	1.064468e+13	0.000000e+00	6.347824e-01	1.964270e+14	3.439327e+14	1.039771e+14	9.969570e+03	3.277074e+03	2.329913e+03	0	7.050851e-04
1.060000e+09	1.051916e+13	0.000000e+00	6.347824e-01	1.947538e+14	3.414678e+14	1.035175e+14	9.955592e+03	3.274837e+03	2.328322e+03	0	7.023027e-04
1.070000e+09	1.039552e+13	0.000000e+00	6.347824e-01	1.931051e+14	3.390354e+14	1.030609e+14	9.941732e+03	3.272616e+03	2.326743e+03	0	6.995403e-04
1.080000e+09	1.027372e+13	0.000000e+00	6.347824e-01	1.914804e+14	3.366349e+14	1.026074e+14	9.927990e+03	3.270412e+03	2.325176e+03	0	6.967974e-04
1.090000e+09	1.015372e+13	0.000000e+00	6.347824e-01	1.898791e+14	3.342656e+14	1.021570e+14	9.914363e+03	3.268225e+03	2.323621e+03	0	6.940740e-04
1.100000e+09	1.003549e+13	0.000000e+00	6.347824e-01	1.883010e+14	3.319270e+14	1.017096e+14	9.900850e+03	3.266053e+03	2.322077e+03	0	6.913695e-04
1.110000e+09	9.918992e+12	0.000000e+00	6.347824e-01	1.867453e+14	3.296184e+14	1.012652e+14	9.887449e+03	3.263898e+03	2.320545e+03	0	6.886837e-04
1.120000e+09	9.804186e+12	0.000000e+00	6.347824e-01	1.852118e+14	3.273393e+14	1.008237e+14	9.874158e+03	3.261758e+03	2.319023e+03	0	6.860164e-04
1.130000e+09	9.691041e+12	0.000000e+00	6.347824e-01	1.837000e+14	3.250891e+14	1.003852e+14	9.860976e+03	3.259633e+03	2.317513e+03	0	6.833672e-04
1.140000e+09	9.579523e+12	0.000000e+00	6.347824e-01	1.822093e+14	3.228673e+14	9.994970e+13	9.847901e+03	3.257524e+03	2.316013e+03	0	6.807358e-04
1.150000e+09	9.469601e+12	0.000000e+00	6.347824e-01	1.807395e+14	3.206733e+14	9.951706e+13	9.834932e+03	3.255430e+03	2.314524e+03	0	6.781220e-04
1.160000e+09	9.361241e+12	0.000000e+00	6.347824e-01	1.792901e+14	3.185066e+14	9.908730e+13	9.822067e+03	3.253350e+03	2.313046e+03	0	6.755255e-04
1.170000e+09	9.254413e+12	0.000000e+00	6.347824e-01	1.778607e+14	3.163668e+14	9.866041e+13	9.809306e+03	3.251285e+03	2.311577e+03	0	6.729461e-04
1.180000e+09	9.149088e+12	0.000000e+00	6.347824e-01	1.764509e+14	3.142533e+14	9.823636e+13	9.796645e+03	3.249234e+03	2.310119e+03	0	6.703834e-04
1.190000e+09	9.045235e+12	0.000000e+00	6.347824e-01	1.750604e+14	3.121656e+14	9.781512e+13	9.784085e+03	3.247198e+03	2.308672e+03	0	6.678372e-04
1.200000e+09	8.942827e+12	0.000000e+00	6.347824e-01	1.736887e+14	3.101033e+14	9.739669e+13	9.771624e+03	3.245176e+03	2.307234e+03	0	6.653072e-04
1.210000e+09	8.841835e+12	0.000000e+00	6.347824e-01	1.723355e+14	3.080659e+14	9.698103e+13	9.759260e+03	3.243167e+03	2.305806e+03	0	6.627933e-04
1.220000e+09	8.742232e+12	0.000000e+00	6.347824e-01	1.710005e+14	3.060530e+14	9.656812e+13	9.746991e+03	3.241172e+03	2.304387e+03	0	6.602951e-04
1.230000e+09	8.643992e+12	0.000000e+00	6.347824e-01	1.696833e+14	3.040642e+14	9.615794e+13	9.734818e+03	3.239191e+03	2.302979e+03	0	6.578125e-04
1.240000e+09	8.547089e+12	0.000000e+00	6.347824e-01	1.683836e+14	3.020989e+14	9.575048e+13	9.722739e+03	3.237222e+03	2.301579e+03	0	6.553451e-04
1.250000e+09	8.451498e+12	0.000000e+00	6.347824e-01	1.671010e+14	3.001568e+14	9.534570e+13	9.710751e+03	3.235267e+03	2.300189e+03	0	6.528928e-04
1.260000e+09	8.357193e+12	0.000000e+00	6.347824e-01	1.658353e+14	2.982376e+14	9.494359e+13	9.698855e+03	3.233325e+03	2.298808e+03	0	6.504553e-04
1.270000e+09	8.264151e+12	0.000000e+00	6.347824e-01	1.645860e+14	2.963407e+14	9.454414e+13	9.687048e+03	3.231396e+03	2.297437e+03	0	6.480324e-04
1.280000e+09	8.172348e+12	0.000000e+00	6.347824e-01	1.633530e+14	2.944659e+14	9.414731e+13	9.675330e+03	3.229479e+03	2.296074e+03	0	6.456239e-04
1.290000e+09	8.081763e+12	0.000000e+00	6.347824e-01	1.621359e+14	2.926126e+14	9.375309e+13	9.663700e+03	3.227575e+03	2.294720e+03	0	6.432296e-04
1.300000e+09	7.992371e+12	0.000000e+00	6.347824e-01	1.609344e+14	2.907807e+14	9.336145e+13	9.652157e+03	3.225683e+03	2.293375e+03	0	6.408492e-04
1.310000e+09	7.904151e+12	0.000000e+00	6.347824e-01	1.597483e+14	2.889696e+14	9.297238e+13	9.640698e+03	3.223803e+03	2.292038e+03	0	6.384826e-04
1.320000e+09	7.817082e+12	0.000000e+00	6.347824e-01	1.585772e+14	2.871791e+14	9.258586e+13	9.629324e+03	3.221935e+03	2.290710e+03	0	6.361295e-04
1.330000e+09	7.731144e+12	0.000000e+00	6.347824e-01	1.574210e+14	2.854088e+14	9.220187e+13	9.618033e+03	3.220079e+03	2.289391e+03	0	6.337898e-04
1.340000e+09	7.646315e+12	0.000000e+00	6.347824e-01	1.562793e+14	2.836583e+14	9.182039e+13	9.606824e+03	3.218235e+03	2.288079e+03	0	6.314632e-04
1.350000e+09	7.562576e+12	0.000000e+00	6.347824e-01	1.551518e+14	2.819274e+14	9.144140e+13	9.595696e+03	3.216402e+03	2.286776e+03	0	6.291496e-04
1.360000e+09	7.479908e+12	0.000000e+00	6.347824e-01	1.540384e+14	2.802158e+14	9.106488e+13	9.584648e+03	3.214580e+03	2.285481e+03	0	6.268487e-04
