#t		Qconv[W]	Ri[Rp]		R*[Rp]		Qc[W]		Qm[W]		Qr[W]		Tcmb[K]		Tl[K]		Tup[K]		RiFlag		Bs[T]
0.000000e+00	1.056841e+14	0.000000e+00	6.260867e-01	1.418910e+15	1.489279e+15	1.900468e+14	1.474440e+04	3.940212e+03	2.710706e+03	0	1.525691e-03
1.000000e+07	1.024424e+14	0.000000e+00	6.260867e-01	1.377839e+15	1.489144e+15	1.889938e+14	1.464841e+04	3.945742e+03	2.714510e+03	0	1.509929e-03
2.000000e+07	9.932554e+13	0.000000e+00	6.260867e-01	1.338342e+15	1.484568e+15	1.879487e+14	1.455518e+04	3.949326e+03	2.716976e+03	0	1.494458e-03
3.000000e+07	9.633059e+13	0.000000e+00	6.260867e-01	1.300383e+15	1.476275e+15	1.869114e+14	1.446459e+04	3.951244e+03	2.718296e+03	0	1.479284e-03
4.000000e+07	9.345418e+13	0.000000e+00	6.260867e-01	1.263920e+15	1.464907e+15	1.858818e+14	1.437654e+04	3.951739e+03	2.718636e+03	0	1.464411e-03
5.000000e+07	9.069255e+13	0.000000e+00	6.260867e-01	1.228904e+15	1.451026e+15	1.848599e+14	1.429094e+04	3.951022e+03	2.718143e+03	0	1.449842e-03
6.000000e+07	8.804167e+13	0.000000e+00	6.260867e-01	1.195285e+15	1.435121e+15	1.838456e+14	1.420769e+04	3.949276e+03	2.716942e+03	0	1.435576e-03
7.000000e+07	8.549736e+13	0.000000e+00	6.260867e-01	1.163009e+15	1.417612e+15	1.828389e+14	1.412670e+04	3.946659e+03	2.715141e+03	0	1.421612e-03
8.000000e+07	8.305534e+13	0.000000e+00	6.260867e-01	1.132025e+15	1.398858e+15	1.818397e+14	1.404787e+04	3.943307e+03	2.712835e+03	0	1.407946e-03
9.000000e+07	8.071135e+13	0.000000e+00	6.260867e-01	1.102276e+15	1.379164e+15	1.808479e+14	1.397112e+04	3.939338e+03	2.710105e+03	0	1.394574e-03
1.000000e+08	7.846115e+13	0.000000e+00	6.260867e-01	1.073710e+15	1.358784e+15	1.798634e+14	1.389638e+04	3.934852e+03	2.707019e+03	0	1.381492e-03
1.100000e+08	7.630056e+13	0.000000e+00	6.260867e-01	1.046275e+15	1.337934e+15	1.788863e+14	1.382355e+04	3.929937e+03	2.703637e+03	0	1.368693e-03
1.200000e+08	7.422553e+13	0.000000e+00	6.260867e-01	1.019919e+15	1.316794e+15	1.779164e+14	1.375257e+04	3.924665e+03	2.700010e+03	0	1.356171e-03
1.300000e+08	7.223213e+13	0.000000e+00	6.260867e-01	9.945927e+14	1.295511e+15	1.769537e+14	1.368336e+04	3.919102e+03	2.696183e+03	0	1.343920e-03
1.400000e+08	7.031654e+13	0.000000e+00	6.260867e-01	9.702484e+14	1.274208e+15	1.759981e+14	1.361586e+04	3.913301e+03	2.692192e+03	0	1.331933e-03
1.500000e+08	6.847513e+13	0.000000e+00	6.260867e-01	9.468399e+14	1.252985e+15	1.750496e+14	1.354999e+04	3.907309e+03	2.688070e+03	0	1.320204e-03
1.600000e+08	6.670440e+13	0.000000e+00	6.260867e-01	9.243233e+14	1.231924e+15	1.741081e+14	1.348570e+04	3.901168e+03	2.683845e+03	0	1.308724e-03
1.700000e+08	6.500100e+13	0.000000e+00	6.260867e-01	9.026566e+14	1.211090e+15	1.731735e+14	1.342293e+04	3.894910e+03	2.679540e+03	0	1.297488e-03
1.800000e+08	6.336174e+13	0.000000e+00	6.260867e-01	8.817995e+14	1.190535e+15	1.722458e+14	1.336162e+04	3.888565e+03	2.675175e+03	0	1.286488e-03
1.900000e+08	6.178359e+13	0.000000e+00	6.260867e-01	8.617139e+14	1.170301e+15	1.713250e+14	1.330172e+04	3.882159e+03	2.670768e+03	0	1.275717e-03
2.000000e+08	6.026367e+13	0.000000e+00	6.260867e-01	8.423635e+14	1.150419e+15	1.704109e+14	1.324317e+04	3.875712e+03	2.666333e+03	0	1.265169e-03
2.100000e+08	5.879924e+13	0.000000e+00	6.260867e-01	8.237137e+14	1.130914e+15	1.695036e+14	1.318592e+04	3.869244e+03	2.661883e+03	0	1.254837e-03
2.200000e+08	5.738768e+13	0.000000e+00	6.260867e-01	8.057319e+14	1.111802e+15	1.686029e+14	1.312993e+04	3.862769e+03	2.657428e+03	0	1.244714e-03
2.300000e+08	5.602655e+13	0.000000e+00	6.260867e-01	7.883869e+14	1.093097e+15	1.677088e+14	1.307516e+04	3.856301e+03	2.652979e+03	0	1.234794e-03
2.400000e+08	5.471349e+13	0.000000e+00	6.260867e-01	7.716494e+14	1.074806e+15	1.668213e+14	1.302155e+04	3.849851e+03	2.648541e+03	0	1.225072e-03
2.500000e+08	5.344630e+13	0.000000e+00	6.260867e-01	7.554914e+14	1.056932e+15	1.659403e+14	1.296908e+04	3.843429e+03	2.644123e+03	0	1.215540e-03
2.600000e+08	5.222288e+13	0.000000e+00	6.260867e-01	7.398865e+14	1.039478e+15	1.650657e+14	1.291770e+04	3.837043e+03	2.639730e+03	0	1.206193e-03
2.700000e+08	5.104124e+13	0.000000e+00	6.260867e-01	7.248097e+14	1.022441e+15	1.641976e+14	1.286737e+04	3.830699e+03	2.635365e+03	0	1.197027e-03
2.800000e+08	4.989950e+13	0.000000e+00	6.260867e-01	7.102373e+14	1.005818e+15	1.633357e+14	1.281806e+04	3.824403e+03	2.631034e+03	0	1.188034e-03
2.900000e+08	4.879587e+13	0.000000e+00	6.260867e-01	6.961468e+14	9.896048e+14	1.624802e+14	1.276974e+04	3.818159e+03	2.626738e+03	0	1.179210e-03
3.000000e+08	4.772866e+13	0.000000e+00	6.260867e-01	6.825169e+14	9.737947e+14	1.616309e+14	1.272236e+04	3.811972e+03	2.622482e+03	0	1.170550e-03
3.100000e+08	4.669628e+13	0.000000e+00	6.260867e-01	6.693275e+14	9.583806e+14	1.607878e+14	1.267591e+04	3.805845e+03	2.618267e+03	0	1.162048e-03
3.200000e+08	4.569721e+13	0.000000e+00	6.260867e-01	6.565595e+14	9.433544e+14	1.599508e+14	1.263035e+04	3.799780e+03	2.614094e+03	0	1.153701e-03
3.300000e+08	4.473001e+13	0.000000e+00	6.260867e-01	6.441947e+14	9.287077e+14	1.591199e+14	1.258566e+04	3.793779e+03	2.609966e+03	0	1.145503e-03
3.400000e+08	4.379332e+13	0.000000e+00	6.260867e-01	6.322160e+14	9.144315e+14	1.582950e+14	1.254180e+04	3.787844e+03	2.605883e+03	0	1.137451e-03
3.500000e+08	4.288584e+13	0.000000e+00	6.260867e-01	6.206071e+14	9.005166e+14	1.574761e+14	1.249875e+04	3.781976e+03	2.601846e+03	0	1.129539e-03
3.600000e+08	4.200635e+13	0.000000e+00	6.260867e-01	6.093525e+14	8.869535e+14	1.566632e+14	1.245649e+04	3.776175e+03	2.597855e+03	0	1.121764e-03
3.700000e+08	4.115369e+13	0.000000e+00	6.260867e-01	5.984376e+14	8.737326e+14	1.558561e+14	1.241499e+04	3.770443e+03	2.593912e+03	0	1.114123e-03
3.800000e+08	4.032675e+13	0.000000e+00	6.260867e-01	5.878484e+14	8.608446e+14	1.550549e+14	1.237423e+04	3.764779e+03	2.590015e+03	0	1.106610e-03
3.900000e+08	3.952449e+13	0.000000e+00	6.260867e-01	5.775717e+14	8.482798e+14	1.542595e+14	1.233418e+04	3.759184e+03	2.586166e+03	0	1.099222e-03
4.000000e+08	3.874590e+13	0.000000e+00	6.260867e-01	5.675950e+14	8.360289e+14	1.534698e+14	1.229484e+04	3.753657e+03	2.582363e+03	0	1.091956e-03
4.100000e+08	3.799004e+13	0.000000e+00	6.260867e-01	5.579062e+14	8.240826e+14	1.526858e+14	1.225616e+04	3.748198e+03	2.578608e+03	0	1.084809e-03
4.200000e+08	3.725601e+13	0.000000e+00	6.260867e-01	5.484942e+14	8.124318e+14	1.519075e+14	1.221815e+04	3.742807e+03	2.574899e+03	0	1.077777e-03
4.300000e+08	3.654295e+13	0.000000e+00	6.260867e-01	5.393479e+14	8.010675e+14	1.511347e+14	1.218077e+04	3.737483e+03	2.571237e+03	0	1.070856e-03
4.400000e+08	3.585005e+13	0.000000e+00	6.260867e-01	5.304572e+14	7.899809e+14	1.503676e+14	1.214401e+04	3.732226e+03	2.567620e+03	0	1.064045e-03
4.500000e+08	3.517653e+13	0.000000e+00	6.260867e-01	5.218123e+14	7.791636e+14	1.496059e+14	1.210785e+04	3.727035e+03	2.564049e+03	0	1.057339e-03
4.600000e+08	3.452166e+13	0.000000e+00	6.260867e-01	5.134038e+14	7.686073e+14	1.488497e+14	1.207228e+04	3.721909e+03	2.560522e+03	0	1.050737e-03
4.700000e+08	3.388472e+13	0.000000e+00	6.260867e-01	5.052229e+14	7.583038e+14	1.480990e+14	1.203728e+04	3.716847e+03	2.557040e+03	0	1.044234e-03
4.800000e+08	3.326506e+13	0.000000e+00	6.260867e-01	4.972611e+14	7.482454e+14	1.473536e+14	1.200284e+04	3.711848e+03	2.553601e+03	0	1.037830e-03
4.900000e+08	3.266202e+13	0.000000e+00	6.260867e-01	4.895103e+14	7.384243e+14	1.466135e+14	1.196893e+04	3.706912e+03	2.550205e+03	0	1.031520e-03
5.000000e+08	3.207501e+13	0.000000e+00	6.260867e-01	4.819628e+14	7.288334e+14	1.458788e+14	1.193556e+04	3.702038e+03	2.546852e+03	0	1.025303e-03
5.100000e+08	3.150343e+13	0.000000e+00	6.260867e-01	4.746113e+14	7.194653e+14	1.451492e+14	1.190269e+04	3.697225e+03	2.543540e+03	0	1.019176e-03
5.200000e+08	3.094674e+13	0.000000e+00	6.260867e-01	4.674488e+14	7.103133e+14	1.444249e+14	1.187032e+04	3.692471e+03	2.540270e+03	0	1.013137e-03
5.300000e+08	3.040439e+13	0.000000e+00	6.260867e-01	4.604685e+14	7.013706e+14	1.437058e+14	1.183844e+04	3.687776e+03	2.537040e+03	0	1.007184e-03
5.400000e+08	2.987590e+13	0.000000e+00	6.260867e-01	4.536641e+14	6.926307e+14	1.429918e+14	1.180703e+04	3.683138e+03	2.533850e+03	0	1.001314e-03
5.500000e+08	2.936076e+13	0.000000e+00	6.260867e-01	4.470294e+14	6.840875e+14	1.422829e+14	1.177608e+04	3.678558e+03	2.530699e+03	0	9.955256e-04
5.600000e+08	2.885851e+13	0.000000e+00	6.260867e-01	4.405585e+14	6.757350e+14	1.415790e+14	1.174559e+04	3.674033e+03	2.527586e+03	0	9.898165e-04
5.700000e+08	2.836873e+13	0.000000e+00	6.260867e-01	4.342460e+14	6.675672e+14	1.408801e+14	1.171553e+04	3.669564e+03	2.524511e+03	0	9.841848e-04
5.800000e+08	2.789097e+13	0.000000e+00	6.260867e-01	4.280863e+14	6.595787e+14	1.401861e+14	1.168590e+04	3.665148e+03	2.521473e+03	0	9.786286e-04
5.900000e+08	2.742483e+13	0.000000e+00	6.260867e-01	4.220744e+14	6.517639e+14	1.394971e+14	1.165669e+04	3.660785e+03	2.518471e+03	0	9.731461e-04
6.000000e+08	2.696993e+13	0.000000e+00	6.260867e-01	4.162054e+14	6.441177e+14	1.388130e+14	1.162789e+04	3.656474e+03	2.515506e+03	0	9.677355e-04
6.100000e+08	2.652590e+13	0.000000e+00	6.260867e-01	4.104746e+14	6.366350e+14	1.381337e+14	1.159949e+04	3.652214e+03	2.512575e+03	0	9.623951e-04
6.200000e+08	2.609237e+13	0.000000e+00	6.260867e-01	4.048774e+14	6.293110e+14	1.374592e+14	1.157147e+04	3.648004e+03	2.509679e+03	0	9.571232e-04
6.300000e+08	2.566900e+13	0.000000e+00	6.260867e-01	3.994096e+14	6.221409e+14	1.367894e+14	1.154384e+04	3.643844e+03	2.506816e+03	0	9.519183e-04
6.400000e+08	2.525547e+13	0.000000e+00	6.260867e-01	3.940669e+14	6.151202e+14	1.361244e+14	1.151658e+04	3.639731e+03	2.503987e+03	0	9.467788e-04
6.500000e+08	2.485146e+13	0.000000e+00	6.260867e-01	3.888454e+14	6.082447e+14	1.354641e+14	1.148968e+04	3.635666e+03	2.501191e+03	0	9.417032e-04
6.600000e+08	2.445668e+13	0.000000e+00	6.260867e-01	3.837413e+14	6.015099e+14	1.348084e+14	1.146313e+04	3.631648e+03	2.498426e+03	0	9.366899e-04
6.700000e+08	2.407082e+13	0.000000e+00	6.260867e-01	3.787509e+14	5.949120e+14	1.341573e+14	1.143694e+04	3.627675e+03	2.495693e+03	0	9.317377e-04
6.800000e+08	2.369361e+13	0.000000e+00	6.260867e-01	3.738707e+14	5.884469e+14	1.335108e+14	1.141108e+04	3.623747e+03	2.492991e+03	0	9.268450e-04
6.900000e+08	2.332479e+13	0.000000e+00	6.260867e-01	3.690972e+14	5.821109e+14	1.328688e+14	1.138555e+04	3.619863e+03	2.490319e+03	0	9.220106e-04
7.000000e+08	2.296409e+13	0.000000e+00	6.260867e-01	3.644274e+14	5.759004e+14	1.322314e+14	1.136035e+04	3.616022e+03	2.487677e+03	0	9.172333e-04
7.100000e+08	2.261128e+13	0.000000e+00	6.260867e-01	3.598579e+14	5.698117e+14	1.315984e+14	1.133547e+04	3.612224e+03	2.485063e+03	0	9.125116e-04
7.200000e+08	2.226611e+13	0.000000e+00	6.260867e-01	3.553859e+14	5.638415e+14	1.309698e+14	1.131089e+04	3.608467e+03	2.482479e+03	0	9.078445e-04
7.300000e+08	2.192835e+13	0.000000e+00	6.260867e-01	3.510084e+14	5.579866e+14	1.303456e+14	1.128662e+04	3.604751e+03	2.479922e+03	0	9.032306e-04
7.400000e+08	2.159778e+13	0.000000e+00	6.260867e-01	3.467226e+14	5.522436e+14	1.297258e+14	1.126265e+04	3.601075e+03	2.477394e+03	0	8.986690e-04
7.500000e+08	2.127420e+13	0.000000e+00	6.260867e-01	3.425259e+14	5.466097e+14	1.291103e+14	1.123897e+04	3.597439e+03	2.474892e+03	0	8.941584e-04
7.600000e+08	2.095740e+13	0.000000e+00	6.260867e-01	3.384156e+14	5.410817e+14	1.284991e+14	1.121558e+04	3.593841e+03	2.472417e+03	0	8.896978e-04
7.700000e+08	2.064718e+13	0.000000e+00	6.260867e-01	3.343894e+14	5.356569e+14	1.278921e+14	1.119246e+04	3.590281e+03	2.469968e+03	0	8.852861e-04
7.800000e+08	2.034336e+13	0.000000e+00	6.260867e-01	3.304447e+14	5.303325e+14	1.272893e+14	1.116962e+04	3.586758e+03	2.467544e+03	0	8.809223e-04
7.900000e+08	2.004575e+13	0.000000e+00	6.260867e-01	3.265794e+14	5.251058e+14	1.266908e+14	1.114705e+04	3.583272e+03	2.465146e+03	0	8.766054e-04
8.000000e+08	1.975417e+13	0.000000e+00	6.260867e-01	3.227910e+14	5.199743e+14	1.260964e+14	1.112474e+04	3.579822e+03	2.462772e+03	0	8.723344e-04
8.100000e+08	1.946847e+13	0.000000e+00	6.260867e-01	3.190777e+14	5.149353e+14	1.255061e+14	1.110268e+04	3.576407e+03	2.460423e+03	0	8.681084e-04
8.200000e+08	1.918846e+13	0.000000e+00	6.260867e-01	3.154371e+14	5.099867e+14	1.249199e+14	1.108089e+04	3.573027e+03	2.458097e+03	0	8.639264e-04
8.300000e+08	1.891401e+13	0.000000e+00	6.260867e-01	3.118674e+14	5.051259e+14	1.243377e+14	1.105933e+04	3.569681e+03	2.455795e+03	0	8.597877e-04
8.400000e+08	1.864495e+13	0.000000e+00	6.260867e-01	3.083667e+14	5.003507e+14	1.237596e+14	1.103802e+04	3.566368e+03	2.453516e+03	0	8.556912e-04
8.500000e+08	1.838113e+13	0.000000e+00	6.260867e-01	3.049330e+14	4.956590e+14	1.231854e+14	1.101695e+04	3.563088e+03	2.451260e+03	0	8.516362e-04
8.600000e+08	1.812243e+13	0.000000e+00	6.260867e-01	3.015646e+14	4.910487e+14	1.226152e+14	1.099612e+04	3.559840e+03	2.449026e+03	0	8.476219e-04
8.700000e+08	1.786869e+13	0.000000e+00	6.260867e-01	2.982597e+14	4.865177e+14	1.220490e+14	1.097551e+04	3.556624e+03	2.446813e+03	0	8.436474e-04
8.800000e+08	1.761979e+13	0.000000e+00	6.260867e-01	2.950167e+14	4.820640e+14	1.214866e+14	1.095513e+04	3.553440e+03	2.444622e+03	0	8.397119e-04
8.900000e+08	1.737561e+13	0.000000e+00	6.260867e-01	2.918339e+14	4.776857e+14	1.209281e+14	1.093497e+04	3.550286e+03	2.442452e+03	0	8.358147e-04
9.000000e+08	1.713600e+13	0.000000e+00	6.260867e-01	2.887098e+14	4.733809e+14	1.203734e+14	1.091502e+04	3.547162e+03	2.440303e+03	0	8.319551e-04
9.100000e+08	1.690087e+13	0.000000e+00	6.260867e-01	2.856428e+14	4.691480e+14	1.198226e+14	1.089529e+04	3.544067e+03	2.438174e+03	0	8.281323e-04
9.200000e+08	1.667009e+13	0.000000e+00	6.260867e-01	2.826315e+14	4.649850e+14	1.192755e+14	1.087577e+04	3.541002e+03	2.436065e+03	0	8.243457e-04
9.300000e+08	1.644355e+13	0.000000e+00	6.260867e-01	2.796746e+14	4.608904e+14	1.187321e+14	1.085645e+04	3.537965e+03	2.433976e+03	0	8.205945e-04
9.400000e+08	1.622115e+13	0.000000e+00	6.260867e-01	2.767705e+14	4.568625e+14	1.181925e+14	1.083733e+04	3.534956e+03	2.431906e+03	0	8.168780e-04
9.500000e+08	1.600277e+13	0.000000e+00	6.260867e-01	2.739180e+14	4.528997e+14	1.176565e+14	1.081841e+04	3.531975e+03	2.429856e+03	0	8.131957e-04
9.600000e+08	1.578832e+13	0.000000e+00	6.260867e-01	2.711158e+14	4.490005e+14	1.171242e+14	1.079969e+04	3.529021e+03	2.427823e+03	0	8.095469e-04
9.700000e+08	1.557770e+13	0.000000e+00	6.260867e-01	2.683627e+14	4.451633e+14	1.165956e+14	1.078116e+04	3.526094e+03	2.425810e+03	0	8.059309e-04
9.800000e+08	1.537081e+13	0.000000e+00	6.260867e-01	2.656574e+14	4.413869e+14	1.160705e+14	1.076281e+04	3.523194e+03	2.423814e+03	0	8.023472e-04
9.900000e+08	1.516757e+13	0.000000e+00	6.260867e-01	2.629988e+14	4.376697e+14	1.155490e+14	1.074465e+04	3.520319e+03	2.421836e+03	0	7.987951e-04
1.000000e+09	1.496789e+13	0.000000e+00	6.260867e-01	2.603858e+14	4.340103e+14	1.150310e+14	1.072667e+04	3.517469e+03	2.419876e+03	0	7.952741e-04
1.010000e+09	1.477167e+13	0.000000e+00	6.260867e-01	2.578173e+14	4.304076e+14	1.145166e+14	1.070886e+04	3.514645e+03	2.417933e+03	0	7.917837e-04
1.020000e+09	1.457884e+13	0.000000e+00	6.260867e-01	2.552921e+14	4.268602e+14	1.140056e+14	1.069124e+04	3.511845e+03	2.416007e+03	0	7.883232e-04
1.030000e+09	1.438931e+13	0.000000e+00	6.260867e-01	2.528093e+14	4.233668e+14	1.134981e+14	1.067378e+04	3.509070e+03	2.414097e+03	0	7.848922e-04
1.040000e+09	1.420300e+13	0.000000e+00	6.260867e-01	2.503679e+14	4.199262e+14	1.129940e+14	1.065650e+04	3.506318e+03	2.412204e+03	0	7.814900e-04
1.050000e+09	1.401985e+13	0.000000e+00	6.260867e-01	2.479669e+14	4.165374e+14	1.124933e+14	1.063938e+04	3.503590e+03	2.410328e+03	0	7.781163e-04
1.060000e+09	1.383977e+13	0.000000e+00	6.260867e-01	2.456054e+14	4.131990e+14	1.119960e+14	1.062242e+04	3.500885e+03	2.408467e+03	0	7.747704e-04
1.070000e+09	1.366270e+13	0.000000e+00	6.260867e-01	2.432824e+14	4.099102e+14	1.115021e+14	1.060562e+04	3.498203e+03	2.406621e+03	0	7.714520e-04
1.080000e+09	1.348856e+13	0.000000e+00	6.260867e-01	2.409972e+14	4.066697e+14	1.110114e+14	1.058899e+04	3.495543e+03	2.404791e+03	0	7.681604e-04
1.090000e+09	1.331729e+13	0.000000e+00	6.260867e-01	2.387487e+14	4.034765e+14	1.105241e+14	1.057251e+04	3.492905e+03	2.402977e+03	0	7.648954e-04
1.100000e+09	1.314883e+13	0.000000e+00	6.260867e-01	2.365362e+14	4.003296e+14	1.100400e+14	1.055618e+04	3.490289e+03	2.401177e+03	0	7.616563e-04
1.110000e+09	1.298310e+13	0.000000e+00	6.260867e-01	2.343589e+14	3.972280e+14	1.095592e+14	1.054000e+04	3.487694e+03	2.399392e+03	0	7.584428e-04
1.120000e+09	1.282005e+13	0.000000e+00	6.260867e-01	2.322160e+14	3.941708e+14	1.090816e+14	1.052397e+04	3.485121e+03	2.397621e+03	0	7.552543e-04
1.130000e+09	1.265961e+13	0.000000e+00	6.260867e-01	2.301067e+14	3.911571e+14	1.086072e+14	1.050809e+04	3.482568e+03	2.395865e+03	0	7.520906e-04
1.140000e+09	1.250173e+13	0.000000e+00	6.260867e-01	2.280303e+14	3.881859e+14	1.081360e+14	1.049235e+04	3.480036e+03	2.394123e+03	0	7.489511e-04
1.150000e+09	1.234636e+13	0.000000e+00	6.260867e-01	2.259861e+14	3.852563e+14	1.076679e+14	1.047675e+04	3.477523e+03	2.392395e+03	0	7.458354e-04
1.160000e+09	1.219343e+13	0.000000e+00	6.260867e-01	2.239734e+14	3.823675e+14	1.072030e+14	1.046130e+04	3.475031e+03	2.390680e+03	0	7.427432e-04
1.170000e+09	1.204290e+13	0.000000e+00	6.260867e-01	2.219914e+14	3.795187e+14	1.067411e+14	1.044598e+04	3.472558e+03	2.388979e+03	0	7.396741e-04
1.180000e+09	1.189471e+13	0.000000e+00	6.260867e-01	2.200396e+14	3.767090e+14	1.062823e+14	1.043079e+04	3.470105e+03	2.387291e+03	0	7.366276e-04
1.190000e+09	1.174881e+13	0.000000e+00	6.260867e-01	2.181172e+14	3.739377e+14	1.058266e+14	1.041574e+04	3.467670e+03	2.385616e+03	0	7.336034e-04
1.200000e+09	1.160515e+13	0.000000e+00	6.260867e-01	2.162237e+14	3.712040e+14	1.053739e+14	1.040082e+04	3.465254e+03	2.383954e+03	0	7.306011e-04
1.210000e+09	1.146369e+13	0.000000e+00	6.260867e-01	2.143585e+14	3.685071e+14	1.049242e+14	1.038603e+04	3.462857e+03	2.382305e+03	0	7.276204e-04
1.220000e+09	1.132438e+13	0.000000e+00	6.260867e-01	2.125209e+14	3.658463e+14	1.044775e+14	1.037136e+04	3.460478e+03	2.380668e+03	0	7.246609e-04
1.230000e+09	1.118717e+13	0.000000e+00	6.260867e-01	2.107104e+14	3.632209e+14	1.040337e+14	1.035682e+04	3.458117e+03	2.379044e+03	0	7.217222e-04
1.240000e+09	1.105202e+13	0.000000e+00	6.260867e-01	2.089264e+14	3.606302e+14	1.035929e+14	1.034241e+04	3.455773e+03	2.377432e+03	0	7.188041e-04
1.250000e+09	1.091888e+13	0.000000e+00	6.260867e-01	2.071683e+14	3.580735e+14	1.031549e+14	1.032811e+04	3.453447e+03	2.375831e+03	0	7.159061e-04
1.260000e+09	1.078772e+13	0.000000e+00	6.260867e-01	2.054357e+14	3.555502e+14	1.027199e+14	1.031394e+04	3.451138e+03	2.374243e+03	0	7.130280e-04
1.270000e+09	1.065849e+13	0.000000e+00	6.260867e-01	2.037281e+14	3.530597e+14	1.022877e+14	1.029988e+04	3.448846e+03	2.372666e+03	0	7.101694e-04
1.280000e+09	1.053116e+13	0.000000e+00	6.260867e-01	2.020448e+14	3.506012e+14	1.018584e+14	1.028594e+04	3.446571e+03	2.371101e+03	0	7.073300e-04
1.290000e+09	1.040568e+13	0.000000e+00	6.260867e-01	2.003855e+14	3.481743e+14	1.014319e+14	1.027212e+04	3.444312e+03	2.369547e+03	0	7.045095e-04
1.300000e+09	1.028202e+13	0.000000e+00	6.260867e-01	1.987496e+14	3.457783e+14	1.010082e+14	1.025841e+04	3.442070e+03	2.368004e+03	0	7.017077e-04
1.310000e+09	1.016015e+13	0.000000e+00	6.260867e-01	1.971367e+14	3.434126e+14	1.005872e+14	1.024481e+04	3.439843e+03	2.366473e+03	0	6.989241e-04
1.320000e+09	1.004002e+13	0.000000e+00	6.260867e-01	1.955464e+14	3.410766e+14	1.001691e+14	1.023132e+04	3.437633e+03	2.364952e+03	0	6.961586e-04
1.330000e+09	9.921597e+12	0.000000e+00	6.260867e-01	1.939781e+14	3.387699e+14	9.975361e+13	1.021794e+04	3.435438e+03	2.363442e+03	0	6.934107e-04
1.340000e+09	9.804856e+12	0.000000e+00	6.260867e-01	1.924314e+14	3.364918e+14	9.934088e+13	1.020466e+04	3.433258e+03	2.361942e+03	0	6.906804e-04
1.350000e+09	9.689760e+12	0.000000e+00	6.260867e-01	1.909060e+14	3.342419e+14	9.893085e+13	1.019149e+04	3.431094e+03	2.360453e+03	0	6.879672e-04
1.360000e+09	9.576277e+12	0.000000e+00	6.260867e-01	1.894015e+14	3.320196e+14	9.852349e+13	1.017843e+04	3.428945e+03	2.358975e+03	0	6.852709e-04
