#t		Qconv[W]	Ri[Rp]		R*[Rp]		Qc[W]		Qm[W]		Qr[W]		Tcmb[K]		Tl[K]		Tup[K]		RiFlag		Bs[T]
0.000000e+00	1.226362e+14	0.000000e+00	6.260868e-01	1.578980e+15	1.491716e+15	2.059747e+14	1.556345e+04	4.044971e+03	2.753332e+03	0	1.598791e-03
1.000000e+07	1.191457e+14	0.000000e+00	6.260868e-01	1.536876e+15	1.509121e+15	2.048335e+14	1.546660e+04	4.057612e+03	2.761936e+03	0	1.583477e-03
2.000000e+07	1.157642e+14	0.000000e+00	6.260868e-01	1.496081e+15	1.520437e+15	2.037008e+14	1.537231e+04	4.067632e+03	2.768757e+03	0	1.568352e-03
3.000000e+07	1.124923e+14	0.000000e+00	6.260868e-01	1.456604e+15	1.526389e+15	2.025765e+14	1.528049e+04	4.075354e+03	2.774013e+03	0	1.553435e-03
4.000000e+07	1.093296e+14	0.000000e+00	6.260868e-01	1.418439e+15	1.527670e+15	2.014607e+14	1.519108e+04	4.081067e+03	2.777902e+03	0	1.538738e-03
5.000000e+07	1.062751e+14	0.000000e+00	6.260868e-01	1.381574e+15	1.524926e+15	2.003531e+14	1.510398e+04	4.085031e+03	2.780600e+03	0	1.524273e-03
6.000000e+07	1.033271e+14	0.000000e+00	6.260868e-01	1.345988e+15	1.518748e+15	1.992538e+14	1.501913e+04	4.087475e+03	2.782264e+03	0	1.510046e-03
7.000000e+07	1.004834e+14	0.000000e+00	6.260868e-01	1.311653e+15	1.509668e+15	1.981628e+14	1.493644e+04	4.088603e+03	2.783032e+03	0	1.496064e-03
8.000000e+07	9.774135e+13	0.000000e+00	6.260868e-01	1.278540e+15	1.498161e+15	1.970798e+14	1.485585e+04	4.088594e+03	2.783025e+03	0	1.482330e-03
9.000000e+07	9.509816e+13	0.000000e+00	6.260868e-01	1.246613e+15	1.484647e+15	1.960048e+14	1.477727e+04	4.087604e+03	2.782351e+03	0	1.468846e-03
1.000000e+08	9.255074e+13	0.000000e+00	6.260868e-01	1.215835e+15	1.469492e+15	1.949379e+14	1.470064e+04	4.085771e+03	2.781104e+03	0	1.455612e-03
1.100000e+08	9.009587e+13	0.000000e+00	6.260868e-01	1.186167e+15	1.453016e+15	1.938789e+14	1.462588e+04	4.083216e+03	2.779365e+03	0	1.442626e-03
1.200000e+08	8.773028e+13	0.000000e+00	6.260868e-01	1.157572e+15	1.435494e+15	1.928277e+14	1.455294e+04	4.080043e+03	2.777205e+03	0	1.429888e-03
1.300000e+08	8.545065e+13	0.000000e+00	6.260868e-01	1.130008e+15	1.417163e+15	1.917843e+14	1.448174e+04	4.076343e+03	2.774687e+03	0	1.417394e-03
1.400000e+08	8.325368e+13	0.000000e+00	6.260868e-01	1.103436e+15	1.398225e+15	1.907486e+14	1.441221e+04	4.072197e+03	2.771864e+03	0	1.405141e-03
1.500000e+08	8.113610e+13	0.000000e+00	6.260868e-01	1.077817e+15	1.378853e+15	1.897206e+14	1.434432e+04	4.067672e+03	2.768784e+03	0	1.393126e-03
1.600000e+08	7.909471e+13	0.000000e+00	6.260868e-01	1.053113e+15	1.359193e+15	1.887002e+14	1.427798e+04	4.062829e+03	2.765488e+03	0	1.381342e-03
1.700000e+08	7.712635e+13	0.000000e+00	6.260868e-01	1.029285e+15	1.339367e+15	1.876873e+14	1.421316e+04	4.057720e+03	2.762010e+03	0	1.369787e-03
1.800000e+08	7.522800e+13	0.000000e+00	6.260868e-01	1.006298e+15	1.319479e+15	1.866819e+14	1.414979e+04	4.052391e+03	2.758383e+03	0	1.358455e-03
1.900000e+08	7.339669e+13	0.000000e+00	6.260868e-01	9.841158e+14	1.299616e+15	1.856839e+14	1.408782e+04	4.046881e+03	2.754632e+03	0	1.347342e-03
2.000000e+08	7.162958e+13	0.000000e+00	6.260868e-01	9.627047e+14	1.279848e+15	1.846932e+14	1.402721e+04	4.041223e+03	2.750781e+03	0	1.336441e-03
2.100000e+08	6.992394e+13	0.000000e+00	6.260868e-01	9.420316e+14	1.260235e+15	1.837098e+14	1.396791e+04	4.035448e+03	2.746850e+03	0	1.325748e-03
2.200000e+08	6.827712e+13	0.000000e+00	6.260868e-01	9.220652e+14	1.240825e+15	1.827336e+14	1.390988e+04	4.029580e+03	2.742856e+03	0	1.315257e-03
2.300000e+08	6.668661e+13	0.000000e+00	6.260868e-01	9.027752e+14	1.221657e+15	1.817646e+14	1.385306e+04	4.023643e+03	2.738814e+03	0	1.304964e-03
2.400000e+08	6.515000e+13	0.000000e+00	6.260868e-01	8.841328e+14	1.202763e+15	1.808027e+14	1.379743e+04	4.017655e+03	2.734738e+03	0	1.294863e-03
2.500000e+08	6.366497e+13	0.000000e+00	6.260868e-01	8.661103e+14	1.184167e+15	1.798479e+14	1.374294e+04	4.011632e+03	2.730639e+03	0	1.284948e-03
2.600000e+08	6.222932e+13	0.000000e+00	6.260868e-01	8.486812e+14	1.165888e+15	1.789000e+14	1.368955e+04	4.005590e+03	2.726526e+03	0	1.275216e-03
2.700000e+08	6.084095e+13	0.000000e+00	6.260868e-01	8.318205e+14	1.147941e+15	1.779591e+14	1.363722e+04	3.999541e+03	2.722409e+03	0	1.265661e-03
2.800000e+08	5.949786e+13	0.000000e+00	6.260868e-01	8.155041e+14	1.130337e+15	1.770250e+14	1.358593e+04	3.993495e+03	2.718293e+03	0	1.256279e-03
2.900000e+08	5.819813e+13	0.000000e+00	6.260868e-01	7.997091e+14	1.113082e+15	1.760977e+14	1.353564e+04	3.987461e+03	2.714186e+03	0	1.247063e-03
3.000000e+08	5.693994e+13	0.000000e+00	6.260868e-01	7.844137e+14	1.096181e+15	1.751773e+14	1.348632e+04	3.981448e+03	2.710093e+03	0	1.238011e-03
3.100000e+08	5.572156e+13	0.000000e+00	6.260868e-01	7.695971e+14	1.079636e+15	1.742635e+14	1.343794e+04	3.975462e+03	2.706018e+03	0	1.229117e-03
3.200000e+08	5.454134e+13	0.000000e+00	6.260868e-01	7.552396e+14	1.063447e+15	1.733563e+14	1.339046e+04	3.969508e+03	2.701966e+03	0	1.220377e-03
3.300000e+08	5.339770e+13	0.000000e+00	6.260868e-01	7.413223e+14	1.047612e+15	1.724558e+14	1.334386e+04	3.963593e+03	2.697939e+03	0	1.211787e-03
3.400000e+08	5.228915e+13	0.000000e+00	6.260868e-01	7.278272e+14	1.032128e+15	1.715618e+14	1.329812e+04	3.957719e+03	2.693941e+03	0	1.203343e-03
3.500000e+08	5.121426e+13	0.000000e+00	6.260868e-01	7.147373e+14	1.016992e+15	1.706743e+14	1.325321e+04	3.951890e+03	2.689974e+03	0	1.195040e-03
3.600000e+08	5.017168e+13	0.000000e+00	6.260868e-01	7.020364e+14	1.002198e+15	1.697932e+14	1.320909e+04	3.946110e+03	2.686040e+03	0	1.186875e-03
3.700000e+08	4.916010e+13	0.000000e+00	6.260868e-01	6.897089e+14	9.877413e+14	1.689185e+14	1.316576e+04	3.940381e+03	2.682140e+03	0	1.178844e-03
3.800000e+08	4.817831e+13	0.000000e+00	6.260868e-01	6.777401e+14	9.736154e+14	1.680501e+14	1.312318e+04	3.934704e+03	2.678276e+03	0	1.170944e-03
3.900000e+08	4.722513e+13	0.000000e+00	6.260868e-01	6.661159e+14	9.598138e+14	1.671881e+14	1.308134e+04	3.929082e+03	2.674449e+03	0	1.163170e-03
4.000000e+08	4.629944e+13	0.000000e+00	6.260868e-01	6.548229e+14	9.463297e+14	1.663322e+14	1.304022e+04	3.923515e+03	2.670659e+03	0	1.155520e-03
4.100000e+08	4.540018e+13	0.000000e+00	6.260868e-01	6.438484e+14	9.331559e+14	1.654825e+14	1.299978e+04	3.918004e+03	2.666908e+03	0	1.147990e-03
4.200000e+08	4.452634e+13	0.000000e+00	6.260868e-01	6.331802e+14	9.202852e+14	1.646389e+14	1.296002e+04	3.912551e+03	2.663196e+03	0	1.140577e-03
4.300000e+08	4.367694e+13	0.000000e+00	6.260868e-01	6.228067e+14	9.077103e+14	1.638014e+14	1.292091e+04	3.907156e+03	2.659524e+03	0	1.133277e-03
4.400000e+08	4.285106e+13	0.000000e+00	6.260868e-01	6.127169e+14	8.954238e+14	1.629700e+14	1.288245e+04	3.901818e+03	2.655891e+03	0	1.126089e-03
4.500000e+08	4.204783e+13	0.000000e+00	6.260868e-01	6.029001e+14	8.834182e+14	1.621445e+14	1.284460e+04	3.896539e+03	2.652297e+03	0	1.119008e-03
4.600000e+08	4.126640e+13	0.000000e+00	6.260868e-01	5.933463e+14	8.716863e+14	1.613249e+14	1.280735e+04	3.891317e+03	2.648743e+03	0	1.112033e-03
4.700000e+08	4.050597e+13	0.000000e+00	6.260868e-01	5.840459e+14	8.602207e+14	1.605112e+14	1.277069e+04	3.886154e+03	2.645229e+03	0	1.105160e-03
4.800000e+08	3.976578e+13	0.000000e+00	6.260868e-01	5.749897e+14	8.490142e+14	1.597034e+14	1.273461e+04	3.881049e+03	2.641754e+03	0	1.098387e-03
4.900000e+08	3.904510e+13	0.000000e+00	6.260868e-01	5.661690e+14	8.380599e+14	1.589013e+14	1.269908e+04	3.876001e+03	2.638318e+03	0	1.091711e-03
5.000000e+08	3.834322e+13	0.000000e+00	6.260868e-01	5.575753e+14	8.273507e+14	1.581049e+14	1.266409e+04	3.871010e+03	2.634920e+03	0	1.085130e-03
5.100000e+08	3.765949e+13	0.000000e+00	6.260868e-01	5.492006e+14	8.168798e+14	1.573143e+14	1.262963e+04	3.866076e+03	2.631562e+03	0	1.078641e-03
5.200000e+08	3.699326e+13	0.000000e+00	6.260868e-01	5.410373e+14	8.066405e+14	1.565293e+14	1.259569e+04	3.861198e+03	2.628241e+03	0	1.072243e-03
5.300000e+08	3.634392e+13	0.000000e+00	6.260868e-01	5.330780e+14	7.966265e+14	1.557499e+14	1.256224e+04	3.856375e+03	2.624959e+03	0	1.065932e-03
5.400000e+08	3.571088e+13	0.000000e+00	6.260868e-01	5.253158e+14	7.868312e+14	1.549760e+14	1.252929e+04	3.851607e+03	2.621713e+03	0	1.059707e-03
5.500000e+08	3.509360e+13	0.000000e+00	6.260868e-01	5.177438e+14	7.772486e+14	1.542077e+14	1.249682e+04	3.846894e+03	2.618505e+03	0	1.053565e-03
5.600000e+08	3.449153e+13	0.000000e+00	6.260868e-01	5.103558e+14	7.678726e+14	1.534448e+14	1.246481e+04	3.842234e+03	2.615333e+03	0	1.047506e-03
5.700000e+08	3.390416e+13	0.000000e+00	6.260868e-01	5.031455e+14	7.586973e+14	1.526873e+14	1.243325e+04	3.837626e+03	2.612197e+03	0	1.041525e-03
5.800000e+08	3.333101e+13	0.000000e+00	6.260868e-01	4.961070e+14	7.497171e+14	1.519352e+14	1.240214e+04	3.833071e+03	2.609096e+03	0	1.035623e-03
5.900000e+08	3.277159e+13	0.000000e+00	6.260868e-01	4.892347e+14	7.409266e+14	1.511884e+14	1.237146e+04	3.828567e+03	2.606030e+03	0	1.029796e-03
6.000000e+08	3.222547e+13	0.000000e+00	6.260868e-01	4.825231e+14	7.323202e+14	1.504470e+14	1.234121e+04	3.824114e+03	2.602999e+03	0	1.024044e-03
6.100000e+08	3.169220e+13	0.000000e+00	6.260868e-01	4.759671e+14	7.238928e+14	1.497107e+14	1.231137e+04	3.819711e+03	2.600002e+03	0	1.018364e-03
6.200000e+08	3.117138e+13	0.000000e+00	6.260868e-01	4.695617e+14	7.156395e+14	1.489797e+14	1.228193e+04	3.815357e+03	2.597038e+03	0	1.012755e-03
6.300000e+08	3.066260e+13	0.000000e+00	6.260868e-01	4.633021e+14	7.075553e+14	1.482538e+14	1.225289e+04	3.811051e+03	2.594107e+03	0	1.007214e-03
6.400000e+08	3.016548e+13	0.000000e+00	6.260868e-01	4.571836e+14	6.996355e+14	1.475331e+14	1.222423e+04	3.806792e+03	2.591209e+03	0	1.001741e-03
6.500000e+08	2.967966e+13	0.000000e+00	6.260868e-01	4.512020e+14	6.918755e+14	1.468174e+14	1.219595e+04	3.802581e+03	2.588342e+03	0	9.963345e-04
6.600000e+08	2.920478e+13	0.000000e+00	6.260868e-01	4.453528e+14	6.842709e+14	1.461068e+14	1.216803e+04	3.798416e+03	2.585507e+03	0	9.909921e-04
6.700000e+08	2.874051e+13	0.000000e+00	6.260868e-01	4.396322e+14	6.768175e+14	1.454011e+14	1.214048e+04	3.794295e+03	2.582702e+03	0	9.857127e-04
6.800000e+08	2.828652e+13	0.000000e+00	6.260868e-01	4.340361e+14	6.695110e+14	1.447004e+14	1.211328e+04	3.790220e+03	2.579928e+03	0	9.804949e-04
6.900000e+08	2.784249e+13	0.000000e+00	6.260868e-01	4.285608e+14	6.623474e+14	1.440047e+14	1.208643e+04	3.786188e+03	2.577184e+03	0	9.753374e-04
7.000000e+08	2.740813e+13	0.000000e+00	6.260868e-01	4.232027e+14	6.553229e+14	1.433138e+14	1.205991e+04	3.782200e+03	2.574469e+03	0	9.702389e-04
7.100000e+08	2.698315e+13	0.000000e+00	6.260868e-01	4.179582e+14	6.484336e+14	1.426277e+14	1.203372e+04	3.778254e+03	2.571783e+03	0	9.651980e-04
7.200000e+08	2.656726e+13	0.000000e+00	6.260868e-01	4.128241e+14	6.416761e+14	1.419465e+14	1.200785e+04	3.774349e+03	2.569125e+03	0	9.602135e-04
7.300000e+08	2.616021e+13	0.000000e+00	6.260868e-01	4.077971e+14	6.350466e+14	1.412700e+14	1.198231e+04	3.770486e+03	2.566495e+03	0	9.552842e-04
7.400000e+08	2.576173e+13	0.000000e+00	6.260868e-01	4.028740e+14	6.285418e+14	1.405982e+14	1.195707e+04	3.766663e+03	2.563893e+03	0	9.504090e-04
7.500000e+08	2.537157e+13	0.000000e+00	6.260868e-01	3.980520e+14	6.221585e+14	1.399311e+14	1.193213e+04	3.762879e+03	2.561318e+03	0	9.455866e-04
7.600000e+08	2.498950e+13	0.000000e+00	6.260868e-01	3.933281e+14	6.158933e+14	1.392686e+14	1.190750e+04	3.759134e+03	2.558769e+03	0	9.408160e-04
7.700000e+08	2.461528e+13	0.000000e+00	6.260868e-01	3.886996e+14	6.097433e+14	1.386108e+14	1.188315e+04	3.755428e+03	2.556246e+03	0	9.360961e-04
7.800000e+08	2.424869e+13	0.000000e+00	6.260868e-01	3.841637e+14	6.037053e+14	1.379575e+14	1.185909e+04	3.751760e+03	2.553749e+03	0	9.314258e-04
7.900000e+08	2.388952e+13	0.000000e+00	6.260868e-01	3.797178e+14	5.977766e+14	1.373088e+14	1.183531e+04	3.748128e+03	2.551277e+03	0	9.268042e-04
8.000000e+08	2.353755e+13	0.000000e+00	6.260868e-01	3.753596e+14	5.919544e+14	1.366646e+14	1.181180e+04	3.744533e+03	2.548830e+03	0	9.222301e-04
8.100000e+08	2.319260e+13	0.000000e+00	6.260868e-01	3.710865e+14	5.862358e+14	1.360248e+14	1.178856e+04	3.740973e+03	2.546407e+03	0	9.177027e-04
8.200000e+08	2.285447e+13	0.000000e+00	6.260868e-01	3.668963e+14	5.806182e+14	1.353895e+14	1.176559e+04	3.737449e+03	2.544008e+03	0	9.132210e-04
8.300000e+08	2.252297e+13	0.000000e+00	6.260868e-01	3.627867e+14	5.750992e+14	1.347585e+14	1.174287e+04	3.733960e+03	2.541633e+03	0	9.087841e-04
8.400000e+08	2.219792e+13	0.000000e+00	6.260868e-01	3.587555e+14	5.696762e+14	1.341319e+14	1.172041e+04	3.730504e+03	2.539281e+03	0	9.043911e-04
8.500000e+08	2.187915e+13	0.000000e+00	6.260868e-01	3.548007e+14	5.643469e+14	1.335097e+14	1.169819e+04	3.727082e+03	2.536951e+03	0	9.000411e-04
8.600000e+08	2.156649e+13	0.000000e+00	6.260868e-01	3.509202e+14	5.591089e+14	1.328917e+14	1.167622e+04	3.723693e+03	2.534644e+03	0	8.957333e-04
8.700000e+08	2.125978e+13	0.000000e+00	6.260868e-01	3.471121e+14	5.539600e+14	1.322780e+14	1.165449e+04	3.720336e+03	2.532359e+03	0	8.914667e-04
8.800000e+08	2.095887e+13	0.000000e+00	6.260868e-01	3.433745e+14	5.488981e+14	1.316685e+14	1.163299e+04	3.717011e+03	2.530096e+03	0	8.872408e-04
8.900000e+08	2.066360e+13	0.000000e+00	6.260868e-01	3.397056e+14	5.439209e+14	1.310632e+14	1.161173e+04	3.713717e+03	2.527854e+03	0	8.830546e-04
9.000000e+08	2.037383e+13	0.000000e+00	6.260868e-01	3.361036e+14	5.390265e+14	1.304620e+14	1.159069e+04	3.710454e+03	2.525633e+03	0	8.789073e-04
9.100000e+08	2.008941e+13	0.000000e+00	6.260868e-01	3.325669e+14	5.342129e+14	1.298650e+14	1.156987e+04	3.707221e+03	2.523432e+03	0	8.747983e-04
9.200000e+08	1.981021e+13	0.000000e+00	6.260868e-01	3.290936e+14	5.294781e+14	1.292720e+14	1.154927e+04	3.704018e+03	2.521252e+03	0	8.707268e-04
9.300000e+08	1.953610e+13	0.000000e+00	6.260868e-01	3.256824e+14	5.248203e+14	1.286831e+14	1.152889e+04	3.700844e+03	2.519092e+03	0	8.666921e-04
9.400000e+08	1.926695e+13	0.000000e+00	6.260868e-01	3.223315e+14	5.202377e+14	1.280983e+14	1.150872e+04	3.697700e+03	2.516951e+03	0	8.626934e-04
9.500000e+08	1.900263e+13	0.000000e+00	6.260868e-01	3.190395e+14	5.157285e+14	1.275174e+14	1.148875e+04	3.694583e+03	2.514830e+03	0	8.587302e-04
9.600000e+08	1.874302e+13	0.000000e+00	6.260868e-01	3.158051e+14	5.112911e+14	1.269405e+14	1.146899e+04	3.691495e+03	2.512728e+03	0	8.548017e-04
9.700000e+08	1.848802e+13	0.000000e+00	6.260868e-01	3.126267e+14	5.069238e+14	1.263675e+14	1.144942e+04	3.688434e+03	2.510644e+03	0	8.509074e-04
9.800000e+08	1.823750e+13	0.000000e+00	6.260868e-01	3.095029e+14	5.026249e+14	1.257984e+14	1.143006e+04	3.685400e+03	2.508579e+03	0	8.470465e-04
9.900000e+08	1.799135e+13	0.000000e+00	6.260868e-01	3.064326e+14	4.983929e+14	1.252332e+14	1.141088e+04	3.682392e+03	2.506532e+03	0	8.432185e-04
1.000000e+09	1.774948e+13	0.000000e+00	6.260868e-01	3.034144e+14	4.942264e+14	1.246718e+14	1.139190e+04	3.679411e+03	2.504503e+03	0	8.394228e-04
1.010000e+09	1.751178e+13	0.000000e+00	6.260868e-01	3.004470e+14	4.901238e+14	1.241143e+14	1.137310e+04	3.676455e+03	2.502491e+03	0	8.356587e-04
1.020000e+09	1.727815e+13	0.000000e+00	6.260868e-01	2.975293e+14	4.860837e+14	1.235605e+14	1.135448e+04	3.673525e+03	2.500496e+03	0	8.319258e-04
1.030000e+09	1.704849e+13	0.000000e+00	6.260868e-01	2.946601e+14	4.821047e+14	1.230104e+14	1.133605e+04	3.670620e+03	2.498519e+03	0	8.282234e-04
1.040000e+09	1.682271e+13	0.000000e+00	6.260868e-01	2.918383e+14	4.781855e+14	1.224641e+14	1.131779e+04	3.667740e+03	2.496558e+03	0	8.245509e-04
1.050000e+09	1.660072e+13	0.000000e+00	6.260868e-01	2.890628e+14	4.743248e+14	1.219214e+14	1.129970e+04	3.664884e+03	2.494614e+03	0	8.209080e-04
1.060000e+09	1.638243e+13	0.000000e+00	6.260868e-01	2.863325e+14	4.705214e+14	1.213825e+14	1.128179e+04	3.662051e+03	2.492686e+03	0	8.172939e-04
1.070000e+09	1.616775e+13	0.000000e+00	6.260868e-01	2.836463e+14	4.667739e+14	1.208471e+14	1.126405e+04	3.659242e+03	2.490774e+03	0	8.137083e-04
1.080000e+09	1.595661e+13	0.000000e+00	6.260868e-01	2.810033e+14	4.630812e+14	1.203154e+14	1.124647e+04	3.656457e+03	2.488878e+03	0	8.101506e-04
1.090000e+09	1.574892e+13	0.000000e+00	6.260868e-01	2.784026e+14	4.594420e+14	1.197872e+14	1.122906e+04	3.653694e+03	2.486997e+03	0	8.066203e-04
1.100000e+09	1.554461e+13	0.000000e+00	6.260868e-01	2.758430e+14	4.558554e+14	1.192626e+14	1.121180e+04	3.650953e+03	2.485132e+03	0	8.031170e-04
1.110000e+09	1.534360e+13	0.000000e+00	6.260868e-01	2.733239e+14	4.523202e+14	1.187414e+14	1.119471e+04	3.648235e+03	2.483282e+03	0	7.996401e-04
1.120000e+09	1.514581e+13	0.000000e+00	6.260868e-01	2.708441e+14	4.488352e+14	1.182238e+14	1.117777e+04	3.645539e+03	2.481446e+03	0	7.961893e-04
1.130000e+09	1.495117e+13	0.000000e+00	6.260868e-01	2.684030e+14	4.453995e+14	1.177097e+14	1.116098e+04	3.642863e+03	2.479625e+03	0	7.927641e-04
1.140000e+09	1.475962e+13	0.000000e+00	6.260868e-01	2.659996e+14	4.420121e+14	1.171990e+14	1.114434e+04	3.640210e+03	2.477819e+03	0	7.893639e-04
1.150000e+09	1.457109e+13	0.000000e+00	6.260868e-01	2.636331e+14	4.386719e+14	1.166917e+14	1.112786e+04	3.637577e+03	2.476027e+03	0	7.859885e-04
1.160000e+09	1.438550e+13	0.000000e+00	6.260868e-01	2.613027e+14	4.353779e+14	1.161877e+14	1.111152e+04	3.634964e+03	2.474248e+03	0	7.826373e-04
1.170000e+09	1.420281e+13	0.000000e+00	6.260868e-01	2.590077e+14	4.321294e+14	1.156872e+14	1.109532e+04	3.632372e+03	2.472484e+03	0	7.793100e-04
1.180000e+09	1.402293e+13	0.000000e+00	6.260868e-01	2.567473e+14	4.289253e+14	1.151899e+14	1.107926e+04	3.629800e+03	2.470733e+03	0	7.760062e-04
1.190000e+09	1.384583e+13	0.000000e+00	6.260868e-01	2.545207e+14	4.257647e+14	1.146960e+14	1.106335e+04	3.627247e+03	2.468996e+03	0	7.727254e-04
1.200000e+09	1.367143e+13	0.000000e+00	6.260868e-01	2.523273e+14	4.226468e+14	1.142054e+14	1.104757e+04	3.624714e+03	2.467272e+03	0	7.694672e-04
1.210000e+09	1.349967e+13	0.000000e+00	6.260868e-01	2.501663e+14	4.195708e+14	1.137180e+14	1.103193e+04	3.622200e+03	2.465560e+03	0	7.662314e-04
1.220000e+09	1.333051e+13	0.000000e+00	6.260868e-01	2.480372e+14	4.165358e+14	1.132338e+14	1.101642e+04	3.619705e+03	2.463862e+03	0	7.630174e-04
1.230000e+09	1.316389e+13	0.000000e+00	6.260868e-01	2.459391e+14	4.135410e+14	1.127528e+14	1.100104e+04	3.617229e+03	2.462176e+03	0	7.598250e-04
1.240000e+09	1.299975e+13	0.000000e+00	6.260868e-01	2.438716e+14	4.105857e+14	1.122750e+14	1.098579e+04	3.614771e+03	2.460503e+03	0	7.566538e-04
1.250000e+09	1.283805e+13	0.000000e+00	6.260868e-01	2.418339e+14	4.076690e+14	1.118004e+14	1.097067e+04	3.612331e+03	2.458842e+03	0	7.535035e-04
1.260000e+09	1.267874e+13	0.000000e+00	6.260868e-01	2.398254e+14	4.047903e+14	1.113289e+14	1.095568e+04	3.609909e+03	2.457194e+03	0	7.503736e-04
1.270000e+09	1.252176e+13	0.000000e+00	6.260868e-01	2.378457e+14	4.019488e+14	1.108605e+14	1.094081e+04	3.607504e+03	2.455557e+03	0	7.472638e-04
1.280000e+09	1.236707e+13	0.000000e+00	6.260868e-01	2.358940e+14	3.991438e+14	1.103952e+14	1.092606e+04	3.605117e+03	2.453932e+03	0	7.441739e-04
1.290000e+09	1.221462e+13	0.000000e+00	6.260868e-01	2.339698e+14	3.963747e+14	1.099329e+14	1.091144e+04	3.602747e+03	2.452319e+03	0	7.411034e-04
1.300000e+09	1.206437e+13	0.000000e+00	6.260868e-01	2.320727e+14	3.936407e+14	1.094737e+14	1.089693e+04	3.600394e+03	2.450717e+03	0	7.380521e-04
1.310000e+09	1.191627e+13	0.000000e+00	6.260868e-01	2.302020e+14	3.909412e+14	1.090175e+14	1.088254e+04	3.598058e+03	2.449127e+03	0	7.350197e-04
1.320000e+09	1.177028e+13	0.000000e+00	6.260868e-01	2.283572e+14	3.882756e+14	1.085643e+14	1.086826e+04	3.595738e+03	2.447548e+03	0	7.320058e-04
1.330000e+09	1.162637e+13	0.000000e+00	6.260868e-01	2.265378e+14	3.856433e+14	1.081140e+14	1.085410e+04	3.593434e+03	2.445980e+03	0	7.290101e-04
1.340000e+09	1.148448e+13	0.000000e+00	6.260868e-01	2.247434e+14	3.830436e+14	1.076667e+14	1.084006e+04	3.591147e+03	2.444423e+03	0	7.260323e-04
1.350000e+09	1.134458e+13	0.000000e+00	6.260868e-01	2.229735e+14	3.804759e+14	1.072223e+14	1.082612e+04	3.588875e+03	2.442877e+03	0	7.230722e-04
1.360000e+09	1.120663e+13	0.000000e+00	6.260868e-01	2.212275e+14	3.779397e+14	1.067808e+14	1.081229e+04	3.586619e+03	2.441341e+03	0	7.201295e-04
