#t		Qconv[W]	Ri[Rp]		R*[Rp]		Qc[W]		Qm[W]		Qr[W]		Tcmb[K]		Tl[K]		Tup[K]		RiFlag		Bs[T]
0.000000e+00	1.205583e+14	0.000000e+00	6.228072e-01	1.513211e+15	1.366635e+15	2.312964e+14	1.642045e+04	4.158069e+03	2.828556e+03	0	1.594006e-03
1.000000e+07	1.177203e+14	0.000000e+00	6.228072e-01	1.480733e+15	1.389374e+15	2.300148e+14	1.633793e+04	4.172759e+03	2.838549e+03	0	1.581398e-03
2.000000e+07	1.149438e+14	0.000000e+00	6.228072e-01	1.448958e+15	1.407466e+15	2.287428e+14	1.625717e+04	4.185245e+03	2.847043e+03	0	1.568866e-03
3.000000e+07	1.122308e+14	0.000000e+00	6.228072e-01	1.417910e+15	1.421284e+15	2.274804e+14	1.617814e+04	4.195739e+03	2.854181e+03	0	1.556425e-03
4.000000e+07	1.095831e+14	0.000000e+00	6.228072e-01	1.387606e+15	1.431206e+15	2.262274e+14	1.610078e+04	4.204437e+03	2.860098e+03	0	1.544088e-03
5.000000e+07	1.070016e+14	0.000000e+00	6.228072e-01	1.358057e+15	1.437608e+15	2.249837e+14	1.602506e+04	4.211521e+03	2.864917e+03	0	1.531866e-03
6.000000e+07	1.044869e+14	0.000000e+00	6.228072e-01	1.329268e+15	1.440853e+15	2.237492e+14	1.595094e+04	4.217160e+03	2.868753e+03	0	1.519771e-03
7.000000e+07	1.020390e+14	0.000000e+00	6.228072e-01	1.301240e+15	1.441289e+15	2.225240e+14	1.587838e+04	4.221505e+03	2.871708e+03	0	1.507808e-03
8.000000e+07	9.965773e+13	0.000000e+00	6.228072e-01	1.273971e+15	1.439241e+15	2.213079e+14	1.580734e+04	4.224696e+03	2.873879e+03	0	1.495987e-03
9.000000e+07	9.734252e+13	0.000000e+00	6.228072e-01	1.247452e+15	1.435014e+15	2.201008e+14	1.573777e+04	4.226859e+03	2.875351e+03	0	1.484311e-03
1.000000e+08	9.509254e+13	0.000000e+00	6.228072e-01	1.221676e+15	1.428884e+15	2.189027e+14	1.566965e+04	4.228109e+03	2.876201e+03	0	1.472786e-03
1.100000e+08	9.290676e+13	0.000000e+00	6.228072e-01	1.196629e+15	1.421107e+15	2.177135e+14	1.560292e+04	4.228548e+03	2.876500e+03	0	1.461414e-03
1.200000e+08	9.078399e+13	0.000000e+00	6.228072e-01	1.172299e+15	1.411911e+15	2.165331e+14	1.553755e+04	4.228270e+03	2.876310e+03	0	1.450198e-03
1.300000e+08	8.872289e+13	0.000000e+00	6.228072e-01	1.148669e+15	1.401505e+15	2.153614e+14	1.547349e+04	4.227356e+03	2.875689e+03	0	1.439139e-03
1.400000e+08	8.672200e+13	0.000000e+00	6.228072e-01	1.125724e+15	1.390073e+15	2.141984e+14	1.541073e+04	4.225881e+03	2.874686e+03	0	1.428238e-03
1.500000e+08	8.477982e+13	0.000000e+00	6.228072e-01	1.103445e+15	1.377780e+15	2.130440e+14	1.534920e+04	4.223913e+03	2.873346e+03	0	1.417495e-03
1.600000e+08	8.289477e+13	0.000000e+00	6.228072e-01	1.081816e+15	1.364774e+15	2.118982e+14	1.528889e+04	4.221509e+03	2.871711e+03	0	1.406911e-03
1.700000e+08	8.106522e+13	0.000000e+00	6.228072e-01	1.060817e+15	1.351184e+15	2.107608e+14	1.522975e+04	4.218724e+03	2.869817e+03	0	1.396483e-03
1.800000e+08	7.928955e+13	0.000000e+00	6.228072e-01	1.040431e+15	1.337124e+15	2.096317e+14	1.517175e+04	4.215605e+03	2.867695e+03	0	1.386211e-03
1.900000e+08	7.756610e+13	0.000000e+00	6.228072e-01	1.020638e+15	1.322694e+15	2.085110e+14	1.511486e+04	4.212194e+03	2.865375e+03	0	1.376094e-03
2.000000e+08	7.589326e+13	0.000000e+00	6.228072e-01	1.001420e+15	1.307983e+15	2.073986e+14	1.505904e+04	4.208529e+03	2.862882e+03	0	1.366129e-03
2.100000e+08	7.426939e+13	0.000000e+00	6.228072e-01	9.827583e+14	1.293067e+15	2.062943e+14	1.500427e+04	4.204643e+03	2.860238e+03	0	1.356316e-03
2.200000e+08	7.269290e+13	0.000000e+00	6.228072e-01	9.646352e+14	1.278013e+15	2.051981e+14	1.495051e+04	4.200567e+03	2.857465e+03	0	1.346650e-03
2.300000e+08	7.116221e+13	0.000000e+00	6.228072e-01	9.470327e+14	1.262878e+15	2.041100e+14	1.489773e+04	4.196326e+03	2.854580e+03	0	1.337131e-03
2.400000e+08	6.967579e+13	0.000000e+00	6.228072e-01	9.299333e+14	1.247714e+15	2.030298e+14	1.484592e+04	4.191944e+03	2.851600e+03	0	1.327755e-03
2.500000e+08	6.823213e+13	0.000000e+00	6.228072e-01	9.133201e+14	1.232563e+15	2.019576e+14	1.479503e+04	4.187444e+03	2.848538e+03	0	1.318521e-03
2.600000e+08	6.682977e+13	0.000000e+00	6.228072e-01	8.971764e+14	1.217461e+15	2.008932e+14	1.474505e+04	4.182842e+03	2.845408e+03	0	1.309425e-03
2.700000e+08	6.546729e+13	0.000000e+00	6.228072e-01	8.814862e+14	1.202442e+15	1.998366e+14	1.469594e+04	4.178156e+03	2.842220e+03	0	1.300466e-03
2.800000e+08	6.414331e+13	0.000000e+00	6.228072e-01	8.662338e+14	1.187531e+15	1.987877e+14	1.464769e+04	4.173401e+03	2.838985e+03	0	1.291639e-03
2.900000e+08	6.285649e+13	0.000000e+00	6.228072e-01	8.514042e+14	1.172752e+15	1.977464e+14	1.460027e+04	4.168590e+03	2.835713e+03	0	1.282943e-03
3.000000e+08	6.160555e+13	0.000000e+00	6.228072e-01	8.369826e+14	1.158123e+15	1.967128e+14	1.455366e+04	4.163734e+03	2.832409e+03	0	1.274375e-03
3.100000e+08	6.038923e+13	0.000000e+00	6.228072e-01	8.229550e+14	1.143662e+15	1.956867e+14	1.450783e+04	4.158844e+03	2.829083e+03	0	1.265933e-03
3.200000e+08	5.920633e+13	0.000000e+00	6.228072e-01	8.093076e+14	1.129379e+15	1.946680e+14	1.446277e+04	4.153929e+03	2.825740e+03	0	1.257612e-03
3.300000e+08	5.805569e+13	0.000000e+00	6.228072e-01	7.960275e+14	1.115288e+15	1.936568e+14	1.441845e+04	4.148997e+03	2.822385e+03	0	1.249412e-03
3.400000e+08	5.693618e+13	0.000000e+00	6.228072e-01	7.831018e+14	1.101395e+15	1.926529e+14	1.437485e+04	4.144056e+03	2.819024e+03	0	1.241329e-03
3.500000e+08	5.584674e+13	0.000000e+00	6.228072e-01	7.705183e+14	1.087709e+15	1.916562e+14	1.433195e+04	4.139112e+03	2.815660e+03	0	1.233361e-03
3.600000e+08	5.478633e+13	0.000000e+00	6.228072e-01	7.582654e+14	1.074233e+15	1.906668e+14	1.428974e+04	4.134170e+03	2.812299e+03	0	1.225504e-03
3.700000e+08	5.375393e+13	0.000000e+00	6.228072e-01	7.463316e+14	1.060973e+15	1.896846e+14	1.424820e+04	4.129236e+03	2.808942e+03	0	1.217758e-03
3.800000e+08	5.274860e+13	0.000000e+00	6.228072e-01	7.347062e+14	1.047929e+15	1.887095e+14	1.420731e+04	4.124314e+03	2.805594e+03	0	1.210118e-03
3.900000e+08	5.176941e+13	0.000000e+00	6.228072e-01	7.233786e+14	1.035105e+15	1.877414e+14	1.416706e+04	4.119407e+03	2.802256e+03	0	1.202583e-03
4.000000e+08	5.081548e+13	0.000000e+00	6.228072e-01	7.123387e+14	1.022501e+15	1.867803e+14	1.412742e+04	4.114520e+03	2.798931e+03	0	1.195151e-03
4.100000e+08	4.988594e+13	0.000000e+00	6.228072e-01	7.015770e+14	1.010116e+15	1.858262e+14	1.408838e+04	4.109655e+03	2.795622e+03	0	1.187819e-03
4.200000e+08	4.897998e+13	0.000000e+00	6.228072e-01	6.910840e+14	9.979501e+14	1.848789e+14	1.404993e+04	4.104815e+03	2.792329e+03	0	1.180584e-03
4.300000e+08	4.809680e+13	0.000000e+00	6.228072e-01	6.808509e+14	9.860016e+14	1.839385e+14	1.401205e+04	4.100002e+03	2.789055e+03	0	1.173445e-03
4.400000e+08	4.723566e+13	0.000000e+00	6.228072e-01	6.708691e+14	9.742687e+14	1.830048e+14	1.397473e+04	4.095218e+03	2.785801e+03	0	1.166400e-03
4.500000e+08	4.639582e+13	0.000000e+00	6.228072e-01	6.611303e+14	9.627493e+14	1.820778e+14	1.393796e+04	4.090465e+03	2.782568e+03	0	1.159446e-03
4.600000e+08	4.557659e+13	0.000000e+00	6.228072e-01	6.516266e+14	9.514409e+14	1.811575e+14	1.390171e+04	4.085744e+03	2.779356e+03	0	1.152581e-03
4.700000e+08	4.477728e+13	0.000000e+00	6.228072e-01	6.423503e+14	9.403407e+14	1.802438e+14	1.386598e+04	4.081057e+03	2.776168e+03	0	1.145803e-03
4.800000e+08	4.399725e+13	0.000000e+00	6.228072e-01	6.332941e+14	9.294455e+14	1.793366e+14	1.383077e+04	4.076404e+03	2.773002e+03	0	1.139111e-03
4.900000e+08	4.323589e+13	0.000000e+00	6.228072e-01	6.244509e+14	9.187522e+14	1.784359e+14	1.379604e+04	4.071787e+03	2.769862e+03	0	1.132502e-03
5.000000e+08	4.249259e+13	0.000000e+00	6.228072e-01	6.158141e+14	9.082575e+14	1.775417e+14	1.376180e+04	4.067206e+03	2.766745e+03	0	1.125974e-03
5.100000e+08	4.176678e+13	0.000000e+00	6.228072e-01	6.073769e+14	8.979578e+14	1.766538e+14	1.372802e+04	4.062661e+03	2.763654e+03	0	1.119527e-03
5.200000e+08	4.105790e+13	0.000000e+00	6.228072e-01	5.991333e+14	8.878495e+14	1.757723e+14	1.369471e+04	4.058154e+03	2.760588e+03	0	1.113157e-03
5.300000e+08	4.036543e+13	0.000000e+00	6.228072e-01	5.910771e+14	8.779290e+14	1.748971e+14	1.366185e+04	4.053685e+03	2.757548e+03	0	1.106863e-03
5.400000e+08	3.968885e+13	0.000000e+00	6.228072e-01	5.832026e+14	8.681927e+14	1.740281e+14	1.362943e+04	4.049254e+03	2.754533e+03	0	1.100644e-03
5.500000e+08	3.902767e+13	0.000000e+00	6.228072e-01	5.755041e+14	8.586368e+14	1.731653e+14	1.359744e+04	4.044861e+03	2.751545e+03	0	1.094498e-03
5.600000e+08	3.838141e+13	0.000000e+00	6.228072e-01	5.679763e+14	8.492576e+14	1.723086e+14	1.356587e+04	4.040506e+03	2.748582e+03	0	1.088423e-03
5.700000e+08	3.774964e+13	0.000000e+00	6.228072e-01	5.606140e+14	8.400514e+14	1.714580e+14	1.353471e+04	4.036189e+03	2.745646e+03	0	1.082418e-03
5.800000e+08	3.713189e+13	0.000000e+00	6.228072e-01	5.534123e+14	8.310146e+14	1.706135e+14	1.350395e+04	4.031911e+03	2.742736e+03	0	1.076481e-03
5.900000e+08	3.652775e+13	0.000000e+00	6.228072e-01	5.463662e+14	8.221434e+14	1.697749e+14	1.347359e+04	4.027670e+03	2.739851e+03	0	1.070611e-03
6.000000e+08	3.593682e+13	0.000000e+00	6.228072e-01	5.394714e+14	8.134343e+14	1.689423e+14	1.344361e+04	4.023468e+03	2.736993e+03	0	1.064806e-03
6.100000e+08	3.535870e+13	0.000000e+00	6.228072e-01	5.327231e+14	8.048837e+14	1.681155e+14	1.341401e+04	4.019304e+03	2.734160e+03	0	1.059066e-03
6.200000e+08	3.479302e+13	0.000000e+00	6.228072e-01	5.261173e+14	7.964880e+14	1.672946e+14	1.338478e+04	4.015177e+03	2.731353e+03	0	1.053387e-03
6.300000e+08	3.423941e+13	0.000000e+00	6.228072e-01	5.196497e+14	7.882437e+14	1.664795e+14	1.335590e+04	4.011088e+03	2.728571e+03	0	1.047771e-03
6.400000e+08	3.369752e+13	0.000000e+00	6.228072e-01	5.133164e+14	7.801475e+14	1.656701e+14	1.332738e+04	4.007037e+03	2.725815e+03	0	1.042214e-03
6.500000e+08	3.316701e+13	0.000000e+00	6.228072e-01	5.071135e+14	7.721960e+14	1.648665e+14	1.329921e+04	4.003022e+03	2.723084e+03	0	1.036715e-03
6.600000e+08	3.264756e+13	0.000000e+00	6.228072e-01	5.010374e+14	7.643859e+14	1.640685e+14	1.327138e+04	3.999043e+03	2.720377e+03	0	1.031275e-03
6.700000e+08	3.213886e+13	0.000000e+00	6.228072e-01	4.950843e+14	7.567140e+14	1.632761e+14	1.324388e+04	3.995101e+03	2.717696e+03	0	1.025890e-03
6.800000e+08	3.164059e+13	0.000000e+00	6.228072e-01	4.892510e+14	7.491770e+14	1.624893e+14	1.321670e+04	3.991195e+03	2.715039e+03	0	1.020561e-03
6.900000e+08	3.115247e+13	0.000000e+00	6.228072e-01	4.835341e+14	7.417719e+14	1.617080e+14	1.318984e+04	3.987325e+03	2.712406e+03	0	1.015286e-03
7.000000e+08	3.067422e+13	0.000000e+00	6.228072e-01	4.779303e+14	7.344957e+14	1.609321e+14	1.316330e+04	3.983489e+03	2.709797e+03	0	1.010063e-03
7.100000e+08	3.020556e+13	0.000000e+00	6.228072e-01	4.724367e+14	7.273454e+14	1.601617e+14	1.313706e+04	3.979689e+03	2.707211e+03	0	1.004893e-03
7.200000e+08	2.974623e+13	0.000000e+00	6.228072e-01	4.670500e+14	7.203181e+14	1.593967e+14	1.311112e+04	3.975923e+03	2.704650e+03	0	9.997731e-04
7.300000e+08	2.929598e+13	0.000000e+00	6.228072e-01	4.617676e+14	7.134110e+14	1.586371e+14	1.308548e+04	3.972191e+03	2.702111e+03	0	9.947031e-04
7.400000e+08	2.885456e+13	0.000000e+00	6.228072e-01	4.565866e+14	7.066214e+14	1.578827e+14	1.306013e+04	3.968493e+03	2.699595e+03	0	9.896818e-04
7.500000e+08	2.842173e+13	0.000000e+00	6.228072e-01	4.515042e+14	6.999464e+14	1.571336e+14	1.303506e+04	3.964828e+03	2.697102e+03	0	9.847084e-04
7.600000e+08	2.799727e+13	0.000000e+00	6.228072e-01	4.465180e+14	6.933836e+14	1.563897e+14	1.301026e+04	3.961195e+03	2.694631e+03	0	9.797817e-04
7.700000e+08	2.758095e+13	0.000000e+00	6.228072e-01	4.416253e+14	6.869304e+14	1.556510e+14	1.298574e+04	3.957596e+03	2.692182e+03	0	9.749010e-04
7.800000e+08	2.717256e+13	0.000000e+00	6.228072e-01	4.368237e+14	6.805843e+14	1.549174e+14	1.296149e+04	3.954028e+03	2.689755e+03	0	9.700653e-04
7.900000e+08	2.677189e+13	0.000000e+00	6.228072e-01	4.321109e+14	6.743427e+14	1.541889e+14	1.293750e+04	3.950492e+03	2.687350e+03	0	9.652737e-04
8.000000e+08	2.637875e+13	0.000000e+00	6.228072e-01	4.274845e+14	6.682035e+14	1.534655e+14	1.291377e+04	3.946987e+03	2.684966e+03	0	9.605253e-04
8.100000e+08	2.599293e+13	0.000000e+00	6.228072e-01	4.229425e+14	6.621642e+14	1.527471e+14	1.289029e+04	3.943513e+03	2.682602e+03	0	9.558194e-04
8.200000e+08	2.561425e+13	0.000000e+00	6.228072e-01	4.184826e+14	6.562227e+14	1.520337e+14	1.286706e+04	3.940069e+03	2.680260e+03	0	9.511551e-04
8.300000e+08	2.524253e+13	0.000000e+00	6.228072e-01	4.141028e+14	6.503766e+14	1.513252e+14	1.284408e+04	3.936655e+03	2.677938e+03	0	9.465315e-04
8.400000e+08	2.487760e+13	0.000000e+00	6.228072e-01	4.098010e+14	6.446240e+14	1.506215e+14	1.282133e+04	3.933271e+03	2.675636e+03	0	9.419480e-04
8.500000e+08	2.451928e+13	0.000000e+00	6.228072e-01	4.055754e+14	6.389627e+14	1.499228e+14	1.279882e+04	3.929916e+03	2.673353e+03	0	9.374037e-04
8.600000e+08	2.416741e+13	0.000000e+00	6.228072e-01	4.014240e+14	6.333907e+14	1.492288e+14	1.277654e+04	3.926590e+03	2.671091e+03	0	9.328979e-04
8.700000e+08	2.382183e+13	0.000000e+00	6.228072e-01	3.973451e+14	6.279060e+14	1.485397e+14	1.275449e+04	3.923293e+03	2.668848e+03	0	9.284299e-04
8.800000e+08	2.348238e+13	0.000000e+00	6.228072e-01	3.933368e+14	6.225067e+14	1.478552e+14	1.273266e+04	3.920023e+03	2.666623e+03	0	9.239990e-04
8.900000e+08	2.314892e+13	0.000000e+00	6.228072e-01	3.893975e+14	6.171910e+14	1.471755e+14	1.271105e+04	3.916781e+03	2.664418e+03	0	9.196043e-04
9.000000e+08	2.282130e+13	0.000000e+00	6.228072e-01	3.855256e+14	6.119570e+14	1.465004e+14	1.268966e+04	3.913566e+03	2.662231e+03	0	9.152454e-04
9.100000e+08	2.249938e+13	0.000000e+00	6.228072e-01	3.817193e+14	6.068030e+14	1.458300e+14	1.266847e+04	3.910378e+03	2.660063e+03	0	9.109215e-04
9.200000e+08	2.218302e+13	0.000000e+00	6.228072e-01	3.779772e+14	6.017272e+14	1.451642e+14	1.264750e+04	3.907217e+03	2.657912e+03	0	9.066319e-04
9.300000e+08	2.187210e+13	0.000000e+00	6.228072e-01	3.742977e+14	5.967279e+14	1.445029e+14	1.262673e+04	3.904082e+03	2.655779e+03	0	9.023761e-04
9.400000e+08	2.156647e+13	0.000000e+00	6.228072e-01	3.706794e+14	5.918036e+14	1.438461e+14	1.260617e+04	3.900973e+03	2.653664e+03	0	8.981533e-04
9.500000e+08	2.126603e+13	0.000000e+00	6.228072e-01	3.671209e+14	5.869526e+14	1.431938e+14	1.258580e+04	3.897889e+03	2.651566e+03	0	8.939631e-04
9.600000e+08	2.097064e+13	0.000000e+00	6.228072e-01	3.636207e+14	5.821734e+14	1.425460e+14	1.256562e+04	3.894830e+03	2.649486e+03	0	8.898047e-04
9.700000e+08	2.068020e+13	0.000000e+00	6.228072e-01	3.601776e+14	5.774644e+14	1.419026e+14	1.254564e+04	3.891796e+03	2.647422e+03	0	8.856776e-04
9.800000e+08	2.039458e+13	0.000000e+00	6.228072e-01	3.567902e+14	5.728242e+14	1.412635e+14	1.252585e+04	3.888787e+03	2.645375e+03	0	8.815813e-04
9.900000e+08	2.011368e+13	0.000000e+00	6.228072e-01	3.534573e+14	5.682515e+14	1.406288e+14	1.250624e+04	3.885801e+03	2.643344e+03	0	8.775151e-04
1.000000e+09	1.983738e+13	0.000000e+00	6.228072e-01	3.501776e+14	5.637446e+14	1.399984e+14	1.248682e+04	3.882839e+03	2.641329e+03	0	8.734786e-04
1.010000e+09	1.956560e+13	0.000000e+00	6.228072e-01	3.469500e+14	5.593024e+14	1.393723e+14	1.246757e+04	3.879901e+03	2.639330e+03	0	8.694711e-04
1.020000e+09	1.929821e+13	0.000000e+00	6.228072e-01	3.437733e+14	5.549235e+14	1.387504e+14	1.244850e+04	3.876986e+03	2.637347e+03	0	8.654922e-04
1.030000e+09	1.903514e+13	0.000000e+00	6.228072e-01	3.406464e+14	5.506066e+14	1.381328e+14	1.242961e+04	3.874093e+03	2.635379e+03	0	8.615413e-04
1.040000e+09	1.877627e+13	0.000000e+00	6.228072e-01	3.375681e+14	5.463504e+14	1.375193e+14	1.241088e+04	3.871224e+03	2.633427e+03	0	8.576180e-04
1.050000e+09	1.852152e+13	0.000000e+00	6.228072e-01	3.345375e+14	5.421537e+14	1.369099e+14	1.239233e+04	3.868376e+03	2.631490e+03	0	8.537217e-04
1.060000e+09	1.827079e+13	0.000000e+00	6.228072e-01	3.315535e+14	5.380154e+14	1.363047e+14	1.237394e+04	3.865550e+03	2.629568e+03	0	8.498519e-04
1.070000e+09	1.802401e+13	0.000000e+00	6.228072e-01	3.286151e+14	5.339342e+14	1.357035e+14	1.235572e+04	3.862746e+03	2.627660e+03	0	8.460082e-04
1.080000e+09	1.778108e+13	0.000000e+00	6.228072e-01	3.257213e+14	5.299090e+14	1.351064e+14	1.233765e+04	3.859963e+03	2.625767e+03	0	8.421902e-04
1.090000e+09	1.754192e+13	0.000000e+00	6.228072e-01	3.228711e+14	5.259388e+14	1.345133e+14	1.231975e+04	3.857201e+03	2.623888e+03	0	8.383973e-04
1.100000e+09	1.730646e+13	0.000000e+00	6.228072e-01	3.200637e+14	5.220224e+14	1.339242e+14	1.230200e+04	3.854460e+03	2.622024e+03	0	8.346290e-04
1.110000e+09	1.707460e+13	0.000000e+00	6.228072e-01	3.172982e+14	5.181587e+14	1.333390e+14	1.228440e+04	3.851739e+03	2.620173e+03	0	8.308851e-04
1.120000e+09	1.684628e+13	0.000000e+00	6.228072e-01	3.145736e+14	5.143469e+14	1.327578e+14	1.226696e+04	3.849039e+03	2.618336e+03	0	8.271650e-04
1.130000e+09	1.662143e+13	0.000000e+00	6.228072e-01	3.118891e+14	5.105858e+14	1.321804e+14	1.224967e+04	3.846358e+03	2.616512e+03	0	8.234683e-04
1.140000e+09	1.639996e+13	0.000000e+00	6.228072e-01	3.092439e+14	5.068745e+14	1.316069e+14	1.223252e+04	3.843697e+03	2.614702e+03	0	8.197945e-04
1.150000e+09	1.618181e+13	0.000000e+00	6.228072e-01	3.066372e+14	5.032120e+14	1.310372e+14	1.221552e+04	3.841056e+03	2.612905e+03	0	8.161434e-04
1.160000e+09	1.596691e+13	0.000000e+00	6.228072e-01	3.040682e+14	4.995974e+14	1.304713e+14	1.219866e+04	3.838433e+03	2.611121e+03	0	8.125144e-04
1.170000e+09	1.575519e+13	0.000000e+00	6.228072e-01	3.015361e+14	4.960299e+14	1.299092e+14	1.218194e+04	3.835830e+03	2.609350e+03	0	8.089072e-04
1.180000e+09	1.554660e+13	0.000000e+00	6.228072e-01	2.990402e+14	4.925084e+14	1.293509e+14	1.216536e+04	3.833245e+03	2.607592e+03	0	8.053214e-04
1.190000e+09	1.534105e+13	0.000000e+00	6.228072e-01	2.965798e+14	4.890323e+14	1.287962e+14	1.214892e+04	3.830679e+03	2.605846e+03	0	8.017565e-04
1.200000e+09	1.513851e+13	0.000000e+00	6.228072e-01	2.941541e+14	4.856005e+14	1.282453e+14	1.213261e+04	3.828130e+03	2.604113e+03	0	7.982124e-04
1.210000e+09	1.493889e+13	0.000000e+00	6.228072e-01	2.917625e+14	4.822123e+14	1.276979e+14	1.211643e+04	3.825600e+03	2.602392e+03	0	7.946885e-04
1.220000e+09	1.474215e+13	0.000000e+00	6.228072e-01	2.894043e+14	4.788670e+14	1.271543e+14	1.210039e+04	3.823088e+03	2.600682e+03	0	7.911845e-04
1.230000e+09	1.454823e+13	0.000000e+00	6.228072e-01	2.870788e+14	4.755636e+14	1.266142e+14	1.208448e+04	3.820593e+03	2.598985e+03	0	7.877000e-04
1.240000e+09	1.435707e+13	0.000000e+00	6.228072e-01	2.847854e+14	4.723015e+14	1.260776e+14	1.206869e+04	3.818115e+03	2.597300e+03	0	7.842347e-04
1.250000e+09	1.416862e+13	0.000000e+00	6.228072e-01	2.825235e+14	4.690799e+14	1.255447e+14	1.205303e+04	3.815654e+03	2.595626e+03	0	7.807883e-04
1.260000e+09	1.398282e+13	0.000000e+00	6.228072e-01	2.802925e+14	4.658981e+14	1.250152e+14	1.203749e+04	3.813210e+03	2.593963e+03	0	7.773604e-04
1.270000e+09	1.379963e+13	0.000000e+00	6.228072e-01	2.780918e+14	4.627553e+14	1.244892e+14	1.202208e+04	3.810783e+03	2.592312e+03	0	7.739507e-04
1.280000e+09	1.361899e+13	0.000000e+00	6.228072e-01	2.759207e+14	4.596509e+14	1.239667e+14	1.200678e+04	3.808372e+03	2.590672e+03	0	7.705588e-04
1.290000e+09	1.344086e+13	0.000000e+00	6.228072e-01	2.737788e+14	4.565842e+14	1.234476e+14	1.199161e+04	3.805978e+03	2.589043e+03	0	7.671844e-04
1.300000e+09	1.326518e+13	0.000000e+00	6.228072e-01	2.716655e+14	4.535545e+14	1.229319e+14	1.197655e+04	3.803599e+03	2.587425e+03	0	7.638273e-04
1.310000e+09	1.309191e+13	0.000000e+00	6.228072e-01	2.695802e+14	4.505612e+14	1.224196e+14	1.196161e+04	3.801237e+03	2.585818e+03	0	7.604870e-04
1.320000e+09	1.292101e+13	0.000000e+00	6.228072e-01	2.675224e+14	4.476036e+14	1.219107e+14	1.194678e+04	3.798890e+03	2.584222e+03	0	7.571633e-04
1.330000e+09	1.275242e+13	0.000000e+00	6.228072e-01	2.654917e+14	4.446812e+14	1.214051e+14	1.193207e+04	3.796558e+03	2.582636e+03	0	7.538559e-04
1.340000e+09	1.258611e+13	0.000000e+00	6.228072e-01	2.634875e+14	4.417932e+14	1.209028e+14	1.191747e+04	3.794242e+03	2.581060e+03	0	7.505645e-04
1.350000e+09	1.242204e+13	0.000000e+00	6.228072e-01	2.615093e+14	4.389392e+14	1.204037e+14	1.190297e+04	3.791941e+03	2.579494e+03	0	7.472887e-04
1.360000e+09	1.226016e+13	0.000000e+00	6.228072e-01	2.595567e+14	4.361186e+14	1.199080e+14	1.188859e+04	3.789654e+03	2.577939e+03	0	7.440283e-04
