#t		Qconv[W]	Ri[Rp]		R*[Rp]		Qc[W]		Qm[W]		Qr[W]		Tcmb[K]		Tl[K]		Tup[K]		RiFlag		Bs[T]
0.000000e+00	2.911578e+15	0.000000e+00	6.315788e-01	2.969536e+16	3.216947e+15	2.559759e+14	3.411466e+04	5.173003e+03	2.860495e+03	0	4.525657e-03
1.000000e+07	2.637139e+15	0.000000e+00	6.315788e-01	2.692315e+16	8.889223e+15	2.545576e+14	3.284447e+04	6.137076e+03	3.393595e+03	0	4.378747e-03
2.000000e+07	2.374573e+15	0.000000e+00	6.315788e-01	2.427170e+16	1.442604e+16	2.531499e+14	3.168840e+04	6.749444e+03	3.732213e+03	0	4.228315e-03
3.000000e+07	2.134911e+15	0.000000e+00	6.315788e-01	2.185165e+16	1.770754e+16	2.517527e+14	3.064242e+04	7.072297e+03	3.910740e+03	0	4.080989e-03
4.000000e+07	1.922830e+15	0.000000e+00	6.315788e-01	1.970985e+16	1.884542e+16	2.503660e+14	2.969759e+04	7.210162e+03	3.986975e+03	0	3.941115e-03
5.000000e+07	1.737758e+15	0.000000e+00	6.315788e-01	1.784039e+16	1.867683e+16	2.489896e+14	2.884278e+04	7.245034e+03	4.006258e+03	0	3.810383e-03
6.000000e+07	1.576897e+15	0.000000e+00	6.315788e-01	1.621505e+16	1.787232e+16	2.476235e+14	2.806690e+04	7.226518e+03	3.996019e+03	0	3.688983e-03
7.000000e+07	1.436949e+15	0.000000e+00	6.315788e-01	1.480057e+16	1.681806e+16	2.462675e+14	2.735992e+04	7.181659e+03	3.971214e+03	0	3.576454e-03
8.000000e+07	1.314799e+15	0.000000e+00	6.315788e-01	1.356556e+16	1.570831e+16	2.449216e+14	2.671312e+04	7.124655e+03	3.939692e+03	0	3.472098e-03
9.000000e+07	1.207729e+15	0.000000e+00	6.315788e-01	1.248265e+16	1.463274e+16	2.435858e+14	2.611903e+04	7.062874e+03	3.905529e+03	0	3.375167e-03
1.000000e+08	1.113442e+15	0.000000e+00	6.315788e-01	1.152869e+16	1.362854e+16	2.422598e+14	2.557132e+04	7.000123e+03	3.870830e+03	0	3.284945e-03
1.100000e+08	1.030024e+15	0.000000e+00	6.315788e-01	1.068439e+16	1.270755e+16	2.409437e+14	2.506457e+04	6.938346e+03	3.836670e+03	0	3.200772e-03
1.200000e+08	9.558847e+14	0.000000e+00	6.315788e-01	9.933727e+15	1.186989e+16	2.396373e+14	2.459415e+04	6.878503e+03	3.803579e+03	0	3.122056e-03
1.300000e+08	8.897025e+14	0.000000e+00	6.315788e-01	9.263381e+15	1.111058e+16	2.383407e+14	2.415614e+04	6.821028e+03	3.771797e+03	0	3.048273e-03
1.400000e+08	8.303777e+14	0.000000e+00	6.315788e-01	8.662267e+15	1.042272e+16	2.370536e+14	2.374710e+04	6.766073e+03	3.741408e+03	0	2.978956e-03
1.500000e+08	7.769907e+14	0.000000e+00	6.315788e-01	8.121112e+15	9.799052e+15	2.357760e+14	2.336412e+04	6.713641e+03	3.712415e+03	0	2.913695e-03
1.600000e+08	7.287690e+14	0.000000e+00	6.315788e-01	7.632129e+15	9.232619e+15	2.345079e+14	2.300463e+04	6.663656e+03	3.684776e+03	0	2.852127e-03
1.700000e+08	6.850609e+14	0.000000e+00	6.315788e-01	7.188744e+15	8.717058e+15	2.332491e+14	2.266641e+04	6.616005e+03	3.658426e+03	0	2.793928e-03
1.800000e+08	6.453138e+14	0.000000e+00	6.315788e-01	6.785384e+15	8.246683e+15	2.319996e+14	2.234750e+04	6.570556e+03	3.633295e+03	0	2.738814e-03
1.900000e+08	6.090569e+14	0.000000e+00	6.315788e-01	6.417300e+15	7.816472e+15	2.307593e+14	2.204620e+04	6.527175e+03	3.609306e+03	0	2.686529e-03
2.000000e+08	5.758875e+14	0.000000e+00	6.315788e-01	6.080429e+15	7.422020e+15	2.295281e+14	2.176097e+04	6.485729e+03	3.586388e+03	0	2.636846e-03
2.100000e+08	5.454593e+14	0.000000e+00	6.315788e-01	5.771275e+15	7.059470e+15	2.283060e+14	2.149049e+04	6.446091e+03	3.564470e+03	0	2.589562e-03
2.200000e+08	5.174732e+14	0.000000e+00	6.315788e-01	5.486822e+15	6.725449e+15	2.270929e+14	2.123355e+04	6.408144e+03	3.543486e+03	0	2.544494e-03
2.300000e+08	4.916703e+14	0.000000e+00	6.315788e-01	5.224453e+15	6.417004e+15	2.258886e+14	2.098910e+04	6.371775e+03	3.523375e+03	0	2.501479e-03
2.400000e+08	4.678249e+14	0.000000e+00	6.315788e-01	4.981893e+15	6.131548e+15	2.246932e+14	2.075616e+04	6.336882e+03	3.504081e+03	0	2.460367e-03
2.500000e+08	4.457401e+14	0.000000e+00	6.315788e-01	4.757152e+15	5.866807e+15	2.235066e+14	2.053389e+04	6.303372e+03	3.485551e+03	0	2.421026e-03
2.600000e+08	4.252434e+14	0.000000e+00	6.315788e-01	4.548487e+15	5.620779e+15	2.223286e+14	2.032151e+04	6.271156e+03	3.467736e+03	0	2.383333e-03
2.700000e+08	4.061827e+14	0.000000e+00	6.315788e-01	4.354365e+15	5.391699e+15	2.211593e+14	2.011832e+04	6.240155e+03	3.450594e+03	0	2.347178e-03
2.800000e+08	3.884243e+14	0.000000e+00	6.315788e-01	4.173430e+15	5.178004e+15	2.199985e+14	1.992369e+04	6.210295e+03	3.434082e+03	0	2.312460e-03
2.900000e+08	3.718493e+14	0.000000e+00	6.315788e-01	4.004485e+15	4.978306e+15	2.188461e+14	1.973705e+04	6.181508e+03	3.418164e+03	0	2.279088e-03
3.000000e+08	3.563526e+14	0.000000e+00	6.315788e-01	3.846467e+15	4.791374e+15	2.177022e+14	1.955787e+04	6.153731e+03	3.402804e+03	0	2.246978e-03
3.100000e+08	3.418405e+14	0.000000e+00	6.315788e-01	3.698427e+15	4.616107e+15	2.165666e+14	1.938567e+04	6.126906e+03	3.387971e+03	0	2.216052e-03
3.200000e+08	3.282292e+14	0.000000e+00	6.315788e-01	3.559520e+15	4.451524e+15	2.154392e+14	1.922003e+04	6.100979e+03	3.373634e+03	0	2.186240e-03
3.300000e+08	3.154439e+14	0.000000e+00	6.315788e-01	3.428988e+15	4.296744e+15	2.143201e+14	1.906053e+04	6.075903e+03	3.359768e+03	0	2.157477e-03
3.400000e+08	3.034175e+14	0.000000e+00	6.315788e-01	3.306153e+15	4.150976e+15	2.132091e+14	1.890682e+04	6.051630e+03	3.346346e+03	0	2.129703e-03
3.500000e+08	2.920895e+14	0.000000e+00	6.315788e-01	3.190404e+15	4.013509e+15	2.121061e+14	1.875855e+04	6.028118e+03	3.333344e+03	0	2.102862e-03
3.600000e+08	2.814054e+14	0.000000e+00	6.315788e-01	3.081189e+15	3.883701e+15	2.110111e+14	1.861542e+04	6.005328e+03	3.320742e+03	0	2.076903e-03
3.700000e+08	2.713160e+14	0.000000e+00	6.315788e-01	2.978010e+15	3.760971e+15	2.099241e+14	1.847713e+04	5.983222e+03	3.308519e+03	0	2.051779e-03
3.800000e+08	2.617770e+14	0.000000e+00	6.315788e-01	2.880418e+15	3.644795e+15	2.088449e+14	1.834343e+04	5.961768e+03	3.296655e+03	0	2.027446e-03
3.900000e+08	2.527477e+14	0.000000e+00	6.315788e-01	2.788004e+15	3.534696e+15	2.077736e+14	1.821407e+04	5.940933e+03	3.285134e+03	0	2.003863e-03
4.000000e+08	2.441917e+14	0.000000e+00	6.315788e-01	2.700396e+15	3.430239e+15	2.067099e+14	1.808881e+04	5.920688e+03	3.273939e+03	0	1.980991e-03
4.100000e+08	2.360753e+14	0.000000e+00	6.315788e-01	2.617255e+15	3.331029e+15	2.056540e+14	1.796745e+04	5.901004e+03	3.263055e+03	0	1.958795e-03
4.200000e+08	2.283683e+14	0.000000e+00	6.315788e-01	2.538273e+15	3.236707e+15	2.046056e+14	1.784979e+04	5.881856e+03	3.252467e+03	0	1.937243e-03
4.300000e+08	2.210426e+14	0.000000e+00	6.315788e-01	2.463168e+15	3.146942e+15	2.035648e+14	1.773565e+04	5.863219e+03	3.242161e+03	0	1.916303e-03
4.400000e+08	2.140729e+14	0.000000e+00	6.315788e-01	2.391681e+15	3.061433e+15	2.025315e+14	1.762486e+04	5.845071e+03	3.232126e+03	0	1.895946e-03
4.500000e+08	2.074357e+14	0.000000e+00	6.315788e-01	2.323577e+15	2.979903e+15	2.015056e+14	1.751725e+04	5.827391e+03	3.222349e+03	0	1.876146e-03
4.600000e+08	2.011096e+14	0.000000e+00	6.315788e-01	2.258637e+15	2.902097e+15	2.004871e+14	1.741268e+04	5.810157e+03	3.212819e+03	0	1.856877e-03
4.700000e+08	1.950748e+14	0.000000e+00	6.315788e-01	2.196662e+15	2.827782e+15	1.994759e+14	1.731101e+04	5.793351e+03	3.203526e+03	0	1.838115e-03
4.800000e+08	1.893133e+14	0.000000e+00	6.315788e-01	2.137467e+15	2.756742e+15	1.984719e+14	1.721210e+04	5.776955e+03	3.194460e+03	0	1.819837e-03
4.900000e+08	1.838083e+14	0.000000e+00	6.315788e-01	2.080883e+15	2.688779e+15	1.974752e+14	1.711583e+04	5.760953e+03	3.185612e+03	0	1.802024e-03
5.000000e+08	1.785442e+14	0.000000e+00	6.315788e-01	2.026752e+15	2.623708e+15	1.964855e+14	1.702209e+04	5.745329e+03	3.176972e+03	0	1.784654e-03
5.100000e+08	1.735068e+14	0.000000e+00	6.315788e-01	1.974930e+15	2.561360e+15	1.955029e+14	1.693077e+04	5.730067e+03	3.168532e+03	0	1.767710e-03
5.200000e+08	1.686829e+14	0.000000e+00	6.315788e-01	1.925283e+15	2.501578e+15	1.945274e+14	1.684177e+04	5.715153e+03	3.160286e+03	0	1.751173e-03
5.300000e+08	1.640601e+14	0.000000e+00	6.315788e-01	1.877686e+15	2.444215e+15	1.935587e+14	1.675498e+04	5.700575e+03	3.152224e+03	0	1.735028e-03
5.400000e+08	1.596271e+14	0.000000e+00	6.315788e-01	1.832023e+15	2.389137e+15	1.925970e+14	1.667033e+04	5.686318e+03	3.144341e+03	0	1.719258e-03
5.500000e+08	1.553733e+14	0.000000e+00	6.315788e-01	1.788186e+15	2.336216e+15	1.916422e+14	1.658771e+04	5.672372e+03	3.136629e+03	0	1.703849e-03
5.600000e+08	1.512889e+14	0.000000e+00	6.315788e-01	1.746077e+15	2.285337e+15	1.906941e+14	1.650706e+04	5.658725e+03	3.129083e+03	0	1.688786e-03
5.700000e+08	1.473647e+14	0.000000e+00	6.315788e-01	1.705602e+15	2.236390e+15	1.897527e+14	1.642830e+04	5.645366e+03	3.121696e+03	0	1.674056e-03
5.800000e+08	1.435921e+14	0.000000e+00	6.315788e-01	1.666674e+15	2.189273e+15	1.888181e+14	1.635134e+04	5.632284e+03	3.114462e+03	0	1.659647e-03
5.900000e+08	1.399632e+14	0.000000e+00	6.315788e-01	1.629212e+15	2.143890e+15	1.878900e+14	1.627613e+04	5.619470e+03	3.107376e+03	0	1.645546e-03
6.000000e+08	1.364705e+14	0.000000e+00	6.315788e-01	1.593140e+15	2.100155e+15	1.869685e+14	1.620260e+04	5.606915e+03	3.100434e+03	0	1.631743e-03
6.100000e+08	1.331072e+14	0.000000e+00	6.315788e-01	1.558389e+15	2.057982e+15	1.860536e+14	1.613068e+04	5.594610e+03	3.093629e+03	0	1.618227e-03
6.200000e+08	1.298665e+14	0.000000e+00	6.315788e-01	1.524891e+15	2.017295e+15	1.851451e+14	1.606033e+04	5.582546e+03	3.086958e+03	0	1.604986e-03
6.300000e+08	1.267425e+14	0.000000e+00	6.315788e-01	1.492585e+15	1.978020e+15	1.842430e+14	1.599147e+04	5.570715e+03	3.080416e+03	0	1.592012e-03
6.400000e+08	1.237295e+14	0.000000e+00	6.315788e-01	1.461412e+15	1.940089e+15	1.833473e+14	1.592406e+04	5.559110e+03	3.073999e+03	0	1.579295e-03
6.500000e+08	1.208220e+14	0.000000e+00	6.315788e-01	1.431318e+15	1.903439e+15	1.824579e+14	1.585805e+04	5.547722e+03	3.067702e+03	0	1.566826e-03
6.600000e+08	1.180150e+14	0.000000e+00	6.315788e-01	1.402251e+15	1.868008e+15	1.815747e+14	1.579340e+04	5.536547e+03	3.061522e+03	0	1.554597e-03
6.700000e+08	1.153038e+14	0.000000e+00	6.315788e-01	1.374164e+15	1.833740e+15	1.806978e+14	1.573004e+04	5.525575e+03	3.055455e+03	0	1.542600e-03
6.800000e+08	1.126839e+14	0.000000e+00	6.315788e-01	1.347011e+15	1.800582e+15	1.798270e+14	1.566795e+04	5.514802e+03	3.049498e+03	0	1.530827e-03
6.900000e+08	1.101511e+14	0.000000e+00	6.315788e-01	1.320749e+15	1.768483e+15	1.789623e+14	1.560708e+04	5.504221e+03	3.043647e+03	0	1.519271e-03
7.000000e+08	1.077015e+14	0.000000e+00	6.315788e-01	1.295338e+15	1.737396e+15	1.781037e+14	1.554738e+04	5.493825e+03	3.037899e+03	0	1.507924e-03
7.100000e+08	1.053313e+14	0.000000e+00	6.315788e-01	1.270741e+15	1.707277e+15	1.772511e+14	1.548883e+04	5.483611e+03	3.032251e+03	0	1.496780e-03
7.200000e+08	1.030371e+14	0.000000e+00	6.315788e-01	1.246920e+15	1.678082e+15	1.764045e+14	1.543138e+04	5.473571e+03	3.026699e+03	0	1.485833e-03
7.300000e+08	1.008154e+14	0.000000e+00	6.315788e-01	1.223843e+15	1.649773e+15	1.755638e+14	1.537500e+04	5.463702e+03	3.021242e+03	0	1.475076e-03
7.400000e+08	9.866321e+13	0.000000e+00	6.315788e-01	1.201478e+15	1.622311e+15	1.747289e+14	1.531966e+04	5.453997e+03	3.015875e+03	0	1.464504e-03
7.500000e+08	9.657750e+13	0.000000e+00	6.315788e-01	1.179793e+15	1.595662e+15	1.738999e+14	1.526533e+04	5.444453e+03	3.010598e+03	0	1.454111e-03
7.600000e+08	9.455547e+13	0.000000e+00	6.315788e-01	1.158761e+15	1.569790e+15	1.730766e+14	1.521197e+04	5.435065e+03	3.005406e+03	0	1.443891e-03
7.700000e+08	9.259446e+13	0.000000e+00	6.315788e-01	1.138355e+15	1.544665e+15	1.722591e+14	1.515955e+04	5.425828e+03	3.000299e+03	0	1.433839e-03
7.800000e+08	9.069195e+13	0.000000e+00	6.315788e-01	1.118549e+15	1.520256e+15	1.714472e+14	1.510805e+04	5.416738e+03	2.995272e+03	0	1.423951e-03
7.900000e+08	8.884556e+13	0.000000e+00	6.315788e-01	1.099318e+15	1.496534e+15	1.706410e+14	1.505745e+04	5.407791e+03	2.990325e+03	0	1.414221e-03
8.000000e+08	8.705302e+13	0.000000e+00	6.315788e-01	1.080640e+15	1.473472e+15	1.698404e+14	1.500771e+04	5.398984e+03	2.985455e+03	0	1.404646e-03
8.100000e+08	8.531218e+13	0.000000e+00	6.315788e-01	1.062492e+15	1.451044e+15	1.690453e+14	1.495881e+04	5.390312e+03	2.980659e+03	0	1.395219e-03
8.200000e+08	8.362100e+13	0.000000e+00	6.315788e-01	1.044854e+15	1.429226e+15	1.682558e+14	1.491072e+04	5.381772e+03	2.975937e+03	0	1.385939e-03
8.300000e+08	8.197754e+13	0.000000e+00	6.315788e-01	1.027706e+15	1.407993e+15	1.674717e+14	1.486343e+04	5.373360e+03	2.971286e+03	0	1.376799e-03
8.400000e+08	8.037995e+13	0.000000e+00	6.315788e-01	1.011029e+15	1.387325e+15	1.666930e+14	1.481692e+04	5.365073e+03	2.966703e+03	0	1.367796e-03
8.500000e+08	7.882649e+13	0.000000e+00	6.315788e-01	9.948053e+14	1.367200e+15	1.659196e+14	1.477115e+04	5.356908e+03	2.962188e+03	0	1.358927e-03
8.600000e+08	7.731548e+13	0.000000e+00	6.315788e-01	9.790177e+14	1.347597e+15	1.651517e+14	1.472611e+04	5.348862e+03	2.957739e+03	0	1.350188e-03
8.700000e+08	7.584534e+13	0.000000e+00	6.315788e-01	9.636501e+14	1.328498e+15	1.643890e+14	1.468179e+04	5.340932e+03	2.953354e+03	0	1.341576e-03
8.800000e+08	7.441454e+13	0.000000e+00	6.315788e-01	9.486870e+14	1.309883e+15	1.636315e+14	1.463816e+04	5.333114e+03	2.949031e+03	0	1.333086e-03
8.900000e+08	7.302165e+13	0.000000e+00	6.315788e-01	9.341137e+14	1.291737e+15	1.628792e+14	1.459520e+04	5.325406e+03	2.944769e+03	0	1.324716e-03
9.000000e+08	7.166529e+13	0.000000e+00	6.315788e-01	9.199161e+14	1.274041e+15	1.621322e+14	1.455290e+04	5.317806e+03	2.940566e+03	0	1.316462e-03
9.100000e+08	7.034414e+13	0.000000e+00	6.315788e-01	9.060808e+14	1.256781e+15	1.613902e+14	1.451123e+04	5.310311e+03	2.936421e+03	0	1.308323e-03
9.200000e+08	6.905696e+13	0.000000e+00	6.315788e-01	8.925950e+14	1.239941e+15	1.606533e+14	1.447019e+04	5.302917e+03	2.932333e+03	0	1.300293e-03
9.300000e+08	6.780254e+13	0.000000e+00	6.315788e-01	8.794465e+14	1.223506e+15	1.599215e+14	1.442976e+04	5.295624e+03	2.928300e+03	0	1.292372e-03
9.400000e+08	6.657975e+13	0.000000e+00	6.315788e-01	8.666235e+14	1.207463e+15	1.591946e+14	1.438992e+04	5.288428e+03	2.924321e+03	0	1.284556e-03
9.500000e+08	6.538748e+13	0.000000e+00	6.315788e-01	8.541149e+14	1.191798e+15	1.584727e+14	1.435066e+04	5.281327e+03	2.920394e+03	0	1.276842e-03
9.600000e+08	6.422469e+13	0.000000e+00	6.315788e-01	8.419100e+14	1.176499e+15	1.577558e+14	1.431197e+04	5.274319e+03	2.916519e+03	0	1.269228e-03
9.700000e+08	6.309039e+13	0.000000e+00	6.315788e-01	8.299986e+14	1.161554e+15	1.570437e+14	1.427382e+04	5.267402e+03	2.912694e+03	0	1.261711e-03
9.800000e+08	6.198361e+13	0.000000e+00	6.315788e-01	8.183709e+14	1.146951e+15	1.563365e+14	1.423621e+04	5.260573e+03	2.908918e+03	0	1.254290e-03
9.900000e+08	6.090343e+13	0.000000e+00	6.315788e-01	8.070175e+14	1.132678e+15	1.556340e+14	1.419913e+04	5.253832e+03	2.905191e+03	0	1.246961e-03
1.000000e+09	5.984899e+13	0.000000e+00	6.315788e-01	7.959294e+14	1.118726e+15	1.549364e+14	1.416256e+04	5.247175e+03	2.901510e+03	0	1.239722e-03
1.010000e+09	5.881944e+13	0.000000e+00	6.315788e-01	7.850981e+14	1.105083e+15	1.542434e+14	1.412648e+04	5.240601e+03	2.897875e+03	0	1.232573e-03
1.020000e+09	5.781397e+13	0.000000e+00	6.315788e-01	7.745152e+14	1.091741e+15	1.535552e+14	1.409090e+04	5.234109e+03	2.894284e+03	0	1.225509e-03
1.030000e+09	5.683181e+13	0.000000e+00	6.315788e-01	7.641728e+14	1.078689e+15	1.528716e+14	1.405580e+04	5.227695e+03	2.890738e+03	0	1.218529e-03
1.040000e+09	5.587222e+13	0.000000e+00	6.315788e-01	7.540634e+14	1.065919e+15	1.521927e+14	1.402116e+04	5.221360e+03	2.887235e+03	0	1.211632e-03
1.050000e+09	5.493448e+13	0.000000e+00	6.315788e-01	7.441797e+14	1.053423e+15	1.515183e+14	1.398697e+04	5.215100e+03	2.883773e+03	0	1.204815e-03
1.060000e+09	5.401791e+13	0.000000e+00	6.315788e-01	7.345146e+14	1.041191e+15	1.508485e+14	1.395324e+04	5.208915e+03	2.880353e+03	0	1.198077e-03
1.070000e+09	5.312186e+13	0.000000e+00	6.315788e-01	7.250615e+14	1.029215e+15	1.501832e+14	1.391994e+04	5.202803e+03	2.876973e+03	0	1.191416e-03
1.080000e+09	5.224570e+13	0.000000e+00	6.315788e-01	7.158138e+14	1.017489e+15	1.495224e+14	1.388706e+04	5.196762e+03	2.873633e+03	0	1.184829e-03
1.090000e+09	5.138881e+13	0.000000e+00	6.315788e-01	7.067654e+14	1.006004e+15	1.488660e+14	1.385461e+04	5.190790e+03	2.870331e+03	0	1.178316e-03
1.100000e+09	5.055062e+13	0.000000e+00	6.315788e-01	6.979103e+14	9.947538e+14	1.482140e+14	1.382256e+04	5.184888e+03	2.867067e+03	0	1.171874e-03
1.110000e+09	4.973056e+13	0.000000e+00	6.315788e-01	6.892428e+14	9.837313e+14	1.475664e+14	1.379091e+04	5.179052e+03	2.863840e+03	0	1.165503e-03
1.120000e+09	4.892810e+13	0.000000e+00	6.315788e-01	6.807573e+14	9.729298e+14	1.469231e+14	1.375965e+04	5.173282e+03	2.860649e+03	0	1.159200e-03
1.130000e+09	4.814272e+13	0.000000e+00	6.315788e-01	6.724484e+14	9.623430e+14	1.462841e+14	1.372878e+04	5.167577e+03	2.857494e+03	0	1.152964e-03
1.140000e+09	4.737391e+13	0.000000e+00	6.315788e-01	6.643112e+14	9.519649e+14	1.456494e+14	1.369828e+04	5.161934e+03	2.854374e+03	0	1.146794e-03
1.150000e+09	4.662121e+13	0.000000e+00	6.315788e-01	6.563405e+14	9.417895e+14	1.450190e+14	1.366815e+04	5.156354e+03	2.851288e+03	0	1.140688e-03
1.160000e+09	4.588413e+13	0.000000e+00	6.315788e-01	6.485318e+14	9.318112e+14	1.443927e+14	1.363838e+04	5.150834e+03	2.848236e+03	0	1.134644e-03
1.170000e+09	4.516225e+13	0.000000e+00	6.315788e-01	6.408804e+14	9.220245e+14	1.437707e+14	1.360897e+04	5.145373e+03	2.845217e+03	0	1.128662e-03
1.180000e+09	4.445512e+13	0.000000e+00	6.315788e-01	6.333819e+14	9.124241e+14	1.431527e+14	1.357990e+04	5.139971e+03	2.842230e+03	0	1.122741e-03
1.190000e+09	4.376234e+13	0.000000e+00	6.315788e-01	6.260320e+14	9.030050e+14	1.425389e+14	1.355116e+04	5.134627e+03	2.839274e+03	0	1.116878e-03
1.200000e+09	4.308349e+13	0.000000e+00	6.315788e-01	6.188267e+14	8.937622e+14	1.419291e+14	1.352276e+04	5.129338e+03	2.836350e+03	0	1.111073e-03
1.210000e+09	4.241821e+13	0.000000e+00	6.315788e-01	6.117619e+14	8.846910e+14	1.413234e+14	1.349469e+04	5.124105e+03	2.833456e+03	0	1.105324e-03
1.220000e+09	4.176611e+13	0.000000e+00	6.315788e-01	6.048339e+14	8.757869e+14	1.407217e+14	1.346693e+04	5.118925e+03	2.830592e+03	0	1.099631e-03
1.230000e+09	4.112684e+13	0.000000e+00	6.315788e-01	5.980389e+14	8.670454e+14	1.401240e+14	1.343949e+04	5.113799e+03	2.827757e+03	0	1.093992e-03
1.240000e+09	4.050005e+13	0.000000e+00	6.315788e-01	5.913735e+14	8.584623e+14	1.395302e+14	1.341235e+04	5.108725e+03	2.824951e+03	0	1.088405e-03
1.250000e+09	3.988540e+13	0.000000e+00	6.315788e-01	5.848340e+14	8.500333e+14	1.389404e+14	1.338552e+04	5.103702e+03	2.822174e+03	0	1.082871e-03
1.260000e+09	3.928257e+13	0.000000e+00	6.315788e-01	5.784174e+14	8.417547e+14	1.383544e+14	1.335898e+04	5.098729e+03	2.819424e+03	0	1.077388e-03
1.270000e+09	3.869125e+13	0.000000e+00	6.315788e-01	5.721202e+14	8.336225e+14	1.377723e+14	1.333273e+04	5.093806e+03	2.816702e+03	0	1.071955e-03
1.280000e+09	3.811114e+13	0.000000e+00	6.315788e-01	5.659394e+14	8.256329e+14	1.371940e+14	1.330677e+04	5.088931e+03	2.814006e+03	0	1.066570e-03
1.290000e+09	3.754194e+13	0.000000e+00	6.315788e-01	5.598721e+14	8.177825e+14	1.366196e+14	1.328108e+04	5.084104e+03	2.811337e+03	0	1.061234e-03
1.300000e+09	3.698337e+13	0.000000e+00	6.315788e-01	5.539152e+14	8.100676e+14	1.360489e+14	1.325567e+04	5.079324e+03	2.808694e+03	0	1.055944e-03
1.310000e+09	3.643516e+13	0.000000e+00	6.315788e-01	5.480660e+14	8.024850e+14	1.354819e+14	1.323053e+04	5.074589e+03	2.806076e+03	0	1.050701e-03
1.320000e+09	3.589705e+13	0.000000e+00	6.315788e-01	5.423218e+14	7.950314e+14	1.349187e+14	1.320566e+04	5.069900e+03	2.803483e+03	0	1.045503e-03
1.330000e+09	3.536878e+13	0.000000e+00	6.315788e-01	5.366800e+14	7.877036e+14	1.343591e+14	1.318104e+04	5.065256e+03	2.800914e+03	0	1.040349e-03
1.340000e+09	3.485009e+13	0.000000e+00	6.315788e-01	5.311379e+14	7.804986e+14	1.338032e+14	1.315668e+04	5.060655e+03	2.798370e+03	0	1.035238e-03
1.350000e+09	3.434076e+13	0.000000e+00	6.315788e-01	5.256932e+14	7.734134e+14	1.332509e+14	1.313257e+04	5.056096e+03	2.795850e+03	0	1.030170e-03
1.360000e+09	3.384056e+13	0.000000e+00	6.315788e-01	5.203434e+14	7.664451e+14	1.327022e+14	1.310871e+04	5.051581e+03	2.793352e+03	0	1.025144e-03
