#t		Qconv[W]	Ri[Rp]		R*[Rp]		Qc[W]		Qm[W]		Qr[W]		Tcmb[K]		Tl[K]		Tup[K]		RiFlag		Bs[T]
0.000000e+00	3.122141e+15	0.000000e+00	6.315789e-01	3.111078e+16	3.172596e+15	2.665327e+14	3.498639e+04	5.241222e+03	2.883224e+03	0	4.626959e-03
1.000000e+07	2.838731e+15	0.000000e+00	6.315789e-01	2.831553e+16	8.926758e+15	2.650559e+14	3.372093e+04	6.225339e+03	3.424592e+03	0	4.482492e-03
2.000000e+07	2.565198e+15	0.000000e+00	6.315789e-01	2.561868e+16	1.474943e+16	2.635902e+14	3.256496e+04	6.862686e+03	3.775200e+03	0	4.333629e-03
3.000000e+07	2.313382e+15	0.000000e+00	6.315789e-01	2.313616e+16	1.835593e+16	2.621354e+14	3.151551e+04	7.207010e+03	3.964614e+03	0	4.186912e-03
4.000000e+07	2.088991e+15	0.000000e+00	6.315789e-01	2.092378e+16	1.972318e+16	2.606914e+14	3.056475e+04	7.359760e+03	4.048642e+03	0	4.046911e-03
5.000000e+07	1.892120e+15	0.000000e+00	6.315789e-01	1.898231e+16	1.967390e+16	2.592583e+14	2.970241e+04	7.403857e+03	4.072901e+03	0	3.915564e-03
6.000000e+07	1.720272e+15	0.000000e+00	6.315789e-01	1.728712e+16	1.891114e+16	2.578358e+14	2.891799e+04	7.390721e+03	4.065674e+03	0	3.793241e-03
7.000000e+07	1.570239e+15	0.000000e+00	6.315789e-01	1.580667e+16	1.785320e+16	2.564239e+14	2.820189e+04	7.348851e+03	4.042642e+03	0	3.679595e-03
8.000000e+07	1.438898e+15	0.000000e+00	6.315789e-01	1.451020e+16	1.671577e+16	2.550225e+14	2.754566e+04	7.293395e+03	4.012135e+03	0	3.574001e-03
9.000000e+07	1.323474e+15	0.000000e+00	6.315789e-01	1.337045e+16	1.560101e+16	2.536316e+14	2.694202e+04	7.232294e+03	3.978523e+03	0	3.475761e-03
1.000000e+08	1.221600e+15	0.000000e+00	6.315789e-01	1.236413e+16	1.455298e+16	2.522509e+14	2.638476e+04	7.169696e+03	3.944087e+03	0	3.384187e-03
1.100000e+08	1.131286e+15	0.000000e+00	6.315789e-01	1.147167e+16	1.358724e+16	2.508806e+14	2.586856e+04	7.107747e+03	3.910009e+03	0	3.298645e-03
1.200000e+08	1.050870e+15	0.000000e+00	6.315789e-01	1.067671e+16	1.270580e+16	2.495203e+14	2.538885e+04	7.047530e+03	3.876883e+03	0	3.218556e-03
1.300000e+08	9.789654e+14	0.000000e+00	6.315789e-01	9.965626e+15	1.190463e+16	2.481702e+14	2.494174e+04	6.989553e+03	3.844990e+03	0	3.143407e-03
1.400000e+08	9.144133e+14	0.000000e+00	6.315789e-01	9.326998e+15	1.117725e+16	2.468300e+14	2.452383e+04	6.934016e+03	3.814439e+03	0	3.072739e-03
1.500000e+08	8.562411e+14	0.000000e+00	6.315789e-01	8.751260e+15	1.051653e+16	2.454997e+14	2.413222e+04	6.880953e+03	3.785248e+03	0	3.006146e-03
1.600000e+08	8.036295e+14	0.000000e+00	6.315789e-01	8.230352e+15	9.915479e+15	2.441793e+14	2.376434e+04	6.830306e+03	3.757388e+03	0	2.943270e-03
1.700000e+08	7.558858e+14	0.000000e+00	6.315789e-01	7.757450e+15	9.367648e+15	2.428686e+14	2.341799e+04	6.781977e+03	3.730801e+03	0	2.883789e-03
1.800000e+08	7.124209e+14	0.000000e+00	6.315789e-01	7.326759e+15	8.867208e+15	2.415676e+14	2.309120e+04	6.735841e+03	3.705422e+03	0	2.827420e-03
1.900000e+08	6.727323e+14	0.000000e+00	6.315789e-01	6.933326e+15	8.408984e+15	2.402761e+14	2.278227e+04	6.691771e+03	3.681179e+03	0	2.773909e-03
2.000000e+08	6.363887e+14	0.000000e+00	6.315789e-01	6.572907e+15	7.988417e+15	2.389942e+14	2.248966e+04	6.649639e+03	3.658002e+03	0	2.723029e-03
2.100000e+08	6.030190e+14	0.000000e+00	6.315789e-01	6.241844e+15	7.601501e+15	2.377217e+14	2.221202e+04	6.609321e+03	3.635822e+03	0	2.674577e-03
2.200000e+08	5.723020e+14	0.000000e+00	6.315789e-01	5.936975e+15	7.244723e+15	2.364585e+14	2.194817e+04	6.570700e+03	3.614577e+03	0	2.628370e-03
2.300000e+08	5.439592e+14	0.000000e+00	6.315789e-01	5.655553e+15	6.915000e+15	2.352046e+14	2.169701e+04	6.533668e+03	3.594205e+03	0	2.584244e-03
2.400000e+08	5.177475e+14	0.000000e+00	6.315789e-01	5.395184e+15	6.609624e+15	2.339599e+14	2.145759e+04	6.498122e+03	3.574651e+03	0	2.542050e-03
2.500000e+08	4.934546e+14	0.000000e+00	6.315789e-01	5.153774e+15	6.326212e+15	2.327243e+14	2.122904e+04	6.463969e+03	3.555863e+03	0	2.501654e-03
2.600000e+08	4.708939e+14	0.000000e+00	6.315789e-01	4.929484e+15	6.062662e+15	2.314978e+14	2.101058e+04	6.431122e+03	3.537794e+03	0	2.462932e-03
2.700000e+08	4.499012e+14	0.000000e+00	6.315789e-01	4.720696e+15	5.817118e+15	2.302802e+14	2.080150e+04	6.399501e+03	3.520399e+03	0	2.425775e-03
2.800000e+08	4.303315e+14	0.000000e+00	6.315789e-01	4.525978e+15	5.587933e+15	2.290715e+14	2.060117e+04	6.369032e+03	3.503638e+03	0	2.390080e-03
2.900000e+08	4.120562e+14	0.000000e+00	6.315789e-01	4.344062e+15	5.373646e+15	2.278717e+14	2.040899e+04	6.339648e+03	3.487474e+03	0	2.355756e-03
3.000000e+08	3.949611e+14	0.000000e+00	6.315789e-01	4.173823e+15	5.172955e+15	2.266805e+14	2.022445e+04	6.311286e+03	3.471872e+03	0	2.322716e-03
3.100000e+08	3.789443e+14	0.000000e+00	6.315789e-01	4.014254e+15	4.984698e+15	2.254981e+14	2.004705e+04	6.283888e+03	3.456800e+03	0	2.290885e-03
3.200000e+08	3.639149e+14	0.000000e+00	6.315789e-01	3.864458e+15	4.807837e+15	2.243243e+14	1.987635e+04	6.257400e+03	3.442228e+03	0	2.260189e-03
3.300000e+08	3.497915e+14	0.000000e+00	6.315789e-01	3.723632e+15	4.641440e+15	2.231590e+14	1.971195e+04	6.231772e+03	3.428131e+03	0	2.230563e-03
3.400000e+08	3.365009e+14	0.000000e+00	6.315789e-01	3.591053e+15	4.484667e+15	2.220021e+14	1.955347e+04	6.206959e+03	3.414481e+03	0	2.201947e-03
3.500000e+08	3.239772e+14	0.000000e+00	6.315789e-01	3.466071e+15	4.336766e+15	2.208537e+14	1.940058e+04	6.182918e+03	3.401256e+03	0	2.174284e-03
3.600000e+08	3.121611e+14	0.000000e+00	6.315789e-01	3.348098e+15	4.197055e+15	2.197135e+14	1.925295e+04	6.159609e+03	3.388433e+03	0	2.147522e-03
3.700000e+08	3.009988e+14	0.000000e+00	6.315789e-01	3.236606e+15	4.064917e+15	2.185817e+14	1.911029e+04	6.136996e+03	3.375994e+03	0	2.121614e-03
3.800000e+08	2.904417e+14	0.000000e+00	6.315789e-01	3.131113e+15	3.939794e+15	2.174580e+14	1.897233e+04	6.115043e+03	3.363917e+03	0	2.096514e-03
3.900000e+08	2.804457e+14	0.000000e+00	6.315789e-01	3.031183e+15	3.821178e+15	2.163425e+14	1.883883e+04	6.093719e+03	3.352187e+03	0	2.072181e-03
4.000000e+08	2.709707e+14	0.000000e+00	6.315789e-01	2.936420e+15	3.708609e+15	2.152350e+14	1.870954e+04	6.072995e+03	3.340786e+03	0	2.048577e-03
4.100000e+08	2.619800e+14	0.000000e+00	6.315789e-01	2.846462e+15	3.601664e+15	2.141355e+14	1.858426e+04	6.052841e+03	3.329700e+03	0	2.025664e-03
4.200000e+08	2.534403e+14	0.000000e+00	6.315789e-01	2.760978e+15	3.499961e+15	2.130439e+14	1.846277e+04	6.033232e+03	3.318913e+03	0	2.003411e-03
4.300000e+08	2.453210e+14	0.000000e+00	6.315789e-01	2.679668e+15	3.403147e+15	2.119601e+14	1.834490e+04	6.014144e+03	3.308412e+03	0	1.981784e-03
4.400000e+08	2.375943e+14	0.000000e+00	6.315789e-01	2.602255e+15	3.310900e+15	2.108842e+14	1.823047e+04	5.995552e+03	3.298185e+03	0	1.960755e-03
4.500000e+08	2.302345e+14	0.000000e+00	6.315789e-01	2.528485e+15	3.222925e+15	2.098160e+14	1.811932e+04	5.977436e+03	3.288219e+03	0	1.940297e-03
4.600000e+08	2.232180e+14	0.000000e+00	6.315789e-01	2.458126e+15	3.138951e+15	2.087555e+14	1.801129e+04	5.959775e+03	3.278503e+03	0	1.920383e-03
4.700000e+08	2.165232e+14	0.000000e+00	6.315789e-01	2.390962e+15	3.058728e+15	2.077026e+14	1.790624e+04	5.942550e+03	3.269028e+03	0	1.900989e-03
4.800000e+08	2.101302e+14	0.000000e+00	6.315789e-01	2.326797e+15	2.982024e+15	2.066572e+14	1.780403e+04	5.925742e+03	3.259782e+03	0	1.882092e-03
4.900000e+08	2.040204e+14	0.000000e+00	6.315789e-01	2.265449e+15	2.908628e+15	2.056193e+14	1.770455e+04	5.909336e+03	3.250757e+03	0	1.863671e-03
5.000000e+08	1.981770e+14	0.000000e+00	6.315789e-01	2.206748e+15	2.838343e+15	2.045889e+14	1.760766e+04	5.893315e+03	3.241943e+03	0	1.845706e-03
5.100000e+08	1.925842e+14	0.000000e+00	6.315789e-01	2.150540e+15	2.770988e+15	2.035657e+14	1.751327e+04	5.877662e+03	3.233333e+03	0	1.828177e-03
5.200000e+08	1.872274e+14	0.000000e+00	6.315789e-01	2.096680e+15	2.706393e+15	2.025499e+14	1.742126e+04	5.862366e+03	3.224918e+03	0	1.811067e-03
5.300000e+08	1.820932e+14	0.000000e+00	6.315789e-01	2.045034e+15	2.644403e+15	2.015414e+14	1.733154e+04	5.847410e+03	3.216691e+03	0	1.794359e-03
5.400000e+08	1.771689e+14	0.000000e+00	6.315789e-01	1.995478e+15	2.584872e+15	2.005400e+14	1.724401e+04	5.832784e+03	3.208645e+03	0	1.778036e-03
5.500000e+08	1.724429e+14	0.000000e+00	6.315789e-01	1.947896e+15	2.527666e+15	1.995458e+14	1.715858e+04	5.818474e+03	3.200773e+03	0	1.762084e-03
5.600000e+08	1.679044e+14	0.000000e+00	6.315789e-01	1.902181e+15	2.472658e+15	1.985586e+14	1.707518e+04	5.804469e+03	3.193069e+03	0	1.746487e-03
5.700000e+08	1.635433e+14	0.000000e+00	6.315789e-01	1.858233e+15	2.419731e+15	1.975784e+14	1.699372e+04	5.790758e+03	3.185526e+03	0	1.731233e-03
5.800000e+08	1.593501e+14	0.000000e+00	6.315789e-01	1.815958e+15	2.368777e+15	1.966052e+14	1.691412e+04	5.777331e+03	3.178140e+03	0	1.716309e-03
5.900000e+08	1.553160e+14	0.000000e+00	6.315789e-01	1.775269e+15	2.319694e+15	1.956389e+14	1.683633e+04	5.764177e+03	3.170904e+03	0	1.701702e-03
6.000000e+08	1.514329e+14	0.000000e+00	6.315789e-01	1.736085e+15	2.272385e+15	1.946794e+14	1.676026e+04	5.751287e+03	3.163813e+03	0	1.687401e-03
6.100000e+08	1.476931e+14	0.000000e+00	6.315789e-01	1.698329e+15	2.226762e+15	1.937267e+14	1.668587e+04	5.738652e+03	3.156863e+03	0	1.673394e-03
6.200000e+08	1.440893e+14	0.000000e+00	6.315789e-01	1.661930e+15	2.182742e+15	1.927807e+14	1.661307e+04	5.726263e+03	3.150048e+03	0	1.659671e-03
6.300000e+08	1.406149e+14	0.000000e+00	6.315789e-01	1.626822e+15	2.140245e+15	1.918414e+14	1.654183e+04	5.714113e+03	3.143364e+03	0	1.646222e-03
6.400000e+08	1.372634e+14	0.000000e+00	6.315789e-01	1.592941e+15	2.099199e+15	1.909088e+14	1.647209e+04	5.702194e+03	3.136807e+03	0	1.633038e-03
6.500000e+08	1.340290e+14	0.000000e+00	6.315789e-01	1.560228e+15	2.059534e+15	1.899827e+14	1.640378e+04	5.690497e+03	3.130372e+03	0	1.620110e-03
6.600000e+08	1.309061e+14	0.000000e+00	6.315789e-01	1.528629e+15	2.021186e+15	1.890631e+14	1.633687e+04	5.679017e+03	3.124057e+03	0	1.607428e-03
6.700000e+08	1.278895e+14	0.000000e+00	6.315789e-01	1.498090e+15	1.984093e+15	1.881500e+14	1.627131e+04	5.667745e+03	3.117856e+03	0	1.594984e-03
6.800000e+08	1.249742e+14	0.000000e+00	6.315789e-01	1.468564e+15	1.948198e+15	1.872433e+14	1.620705e+04	5.656676e+03	3.111767e+03	0	1.582772e-03
6.900000e+08	1.221556e+14	0.000000e+00	6.315789e-01	1.440004e+15	1.913448e+15	1.863430e+14	1.614404e+04	5.645804e+03	3.105786e+03	0	1.570782e-03
7.000000e+08	1.194293e+14	0.000000e+00	6.315789e-01	1.412367e+15	1.879790e+15	1.854490e+14	1.608225e+04	5.635122e+03	3.099910e+03	0	1.559008e-03
7.100000e+08	1.167912e+14	0.000000e+00	6.315789e-01	1.385611e+15	1.847178e+15	1.845612e+14	1.602165e+04	5.624624e+03	3.094135e+03	0	1.547443e-03
7.200000e+08	1.142373e+14	0.000000e+00	6.315789e-01	1.359698e+15	1.815565e+15	1.836797e+14	1.596218e+04	5.614306e+03	3.088459e+03	0	1.536081e-03
7.300000e+08	1.117641e+14	0.000000e+00	6.315789e-01	1.334591e+15	1.784909e+15	1.828043e+14	1.590382e+04	5.604162e+03	3.082879e+03	0	1.524915e-03
7.400000e+08	1.093680e+14	0.000000e+00	6.315789e-01	1.310257e+15	1.755168e+15	1.819350e+14	1.584653e+04	5.594186e+03	3.077391e+03	0	1.513939e-03
7.500000e+08	1.070458e+14	0.000000e+00	6.315789e-01	1.286661e+15	1.726305e+15	1.810718e+14	1.579028e+04	5.584375e+03	3.071994e+03	0	1.503147e-03
7.600000e+08	1.047943e+14	0.000000e+00	6.315789e-01	1.263773e+15	1.698284e+15	1.802145e+14	1.573503e+04	5.574723e+03	3.066685e+03	0	1.492533e-03
7.700000e+08	1.026107e+14	0.000000e+00	6.315789e-01	1.241564e+15	1.671069e+15	1.793633e+14	1.568076e+04	5.565227e+03	3.061460e+03	0	1.482093e-03
7.800000e+08	1.004920e+14	0.000000e+00	6.315789e-01	1.220007e+15	1.644629e+15	1.785180e+14	1.562744e+04	5.555880e+03	3.056319e+03	0	1.471822e-03
7.900000e+08	9.843566e+13	0.000000e+00	6.315789e-01	1.199074e+15	1.618931e+15	1.776785e+14	1.557505e+04	5.546681e+03	3.051258e+03	0	1.461713e-03
8.000000e+08	9.643920e+13	0.000000e+00	6.315789e-01	1.178741e+15	1.593948e+15	1.768449e+14	1.552354e+04	5.537624e+03	3.046276e+03	0	1.451764e-03
8.100000e+08	9.450020e+13	0.000000e+00	6.315789e-01	1.158984e+15	1.569650e+15	1.760170e+14	1.547290e+04	5.528706e+03	3.041370e+03	0	1.441968e-03
8.200000e+08	9.261641e+13	0.000000e+00	6.315789e-01	1.139780e+15	1.546012e+15	1.751949e+14	1.542311e+04	5.519922e+03	3.036538e+03	0	1.432322e-03
8.300000e+08	9.078567e+13	0.000000e+00	6.315789e-01	1.121108e+15	1.523007e+15	1.743784e+14	1.537414e+04	5.511271e+03	3.031779e+03	0	1.422822e-03
8.400000e+08	8.900595e+13	0.000000e+00	6.315789e-01	1.102949e+15	1.500613e+15	1.735676e+14	1.532597e+04	5.502747e+03	3.027090e+03	0	1.413463e-03
8.500000e+08	8.727529e+13	0.000000e+00	6.315789e-01	1.085281e+15	1.478807e+15	1.727624e+14	1.527857e+04	5.494349e+03	3.022470e+03	0	1.404242e-03
8.600000e+08	8.559184e+13	0.000000e+00	6.315789e-01	1.068087e+15	1.457566e+15	1.719628e+14	1.523193e+04	5.486072e+03	3.017917e+03	0	1.395154e-03
8.700000e+08	8.395385e+13	0.000000e+00	6.315789e-01	1.051350e+15	1.436869e+15	1.711686e+14	1.518602e+04	5.477913e+03	3.013429e+03	0	1.386197e-03
8.800000e+08	8.235962e+13	0.000000e+00	6.315789e-01	1.035052e+15	1.416698e+15	1.703799e+14	1.514083e+04	5.469871e+03	3.009005e+03	0	1.377367e-03
8.900000e+08	8.080756e+13	0.000000e+00	6.315789e-01	1.019178e+15	1.397033e+15	1.695966e+14	1.509634e+04	5.461941e+03	3.004642e+03	0	1.368660e-03
9.000000e+08	7.929614e+13	0.000000e+00	6.315789e-01	1.003712e+15	1.377856e+15	1.688187e+14	1.505252e+04	5.454121e+03	3.000341e+03	0	1.360073e-03
9.100000e+08	7.782391e+13	0.000000e+00	6.315789e-01	9.886401e+14	1.359151e+15	1.680462e+14	1.500937e+04	5.446409e+03	2.996098e+03	0	1.351603e-03
9.200000e+08	7.638946e+13	0.000000e+00	6.315789e-01	9.739479e+14	1.340900e+15	1.672789e+14	1.496686e+04	5.438801e+03	2.991913e+03	0	1.343247e-03
9.300000e+08	7.499148e+13	0.000000e+00	6.315789e-01	9.596223e+14	1.323088e+15	1.665168e+14	1.492498e+04	5.431296e+03	2.987784e+03	0	1.335002e-03
9.400000e+08	7.362869e+13	0.000000e+00	6.315789e-01	9.456507e+14	1.305701e+15	1.657600e+14	1.488371e+04	5.423891e+03	2.983711e+03	0	1.326866e-03
9.500000e+08	7.229987e+13	0.000000e+00	6.315789e-01	9.320210e+14	1.288723e+15	1.650084e+14	1.484304e+04	5.416583e+03	2.979691e+03	0	1.318835e-03
9.600000e+08	7.100387e+13	0.000000e+00	6.315789e-01	9.187215e+14	1.272141e+15	1.642618e+14	1.480296e+04	5.409371e+03	2.975723e+03	0	1.310908e-03
9.700000e+08	6.973958e+13	0.000000e+00	6.315789e-01	9.057411e+14	1.255942e+15	1.635204e+14	1.476344e+04	5.402251e+03	2.971807e+03	0	1.303080e-03
9.800000e+08	6.850592e+13	0.000000e+00	6.315789e-01	8.930693e+14	1.240114e+15	1.627840e+14	1.472448e+04	5.395223e+03	2.967941e+03	0	1.295351e-03
9.900000e+08	6.730189e+13	0.000000e+00	6.315789e-01	8.806958e+14	1.224644e+15	1.620526e+14	1.468606e+04	5.388284e+03	2.964124e+03	0	1.287717e-03
1.000000e+09	6.612651e+13	0.000000e+00	6.315789e-01	8.686110e+14	1.209521e+15	1.613262e+14	1.464817e+04	5.381432e+03	2.960354e+03	0	1.280177e-03
1.010000e+09	6.497884e+13	0.000000e+00	6.315789e-01	8.568054e+14	1.194733e+15	1.606047e+14	1.461080e+04	5.374665e+03	2.956632e+03	0	1.272727e-03
1.020000e+09	6.385799e+13	0.000000e+00	6.315789e-01	8.452701e+14	1.180271e+15	1.598881e+14	1.457394e+04	5.367982e+03	2.952955e+03	0	1.265367e-03
1.030000e+09	6.276309e+13	0.000000e+00	6.315789e-01	8.339966e+14	1.166124e+15	1.591763e+14	1.453757e+04	5.361380e+03	2.949323e+03	0	1.258093e-03
1.040000e+09	6.169333e+13	0.000000e+00	6.315789e-01	8.229765e+14	1.152282e+15	1.584693e+14	1.450168e+04	5.354857e+03	2.945735e+03	0	1.250905e-03
1.050000e+09	6.064791e+13	0.000000e+00	6.315789e-01	8.122019e+14	1.138736e+15	1.577672e+14	1.446626e+04	5.348413e+03	2.942190e+03	0	1.243799e-03
1.060000e+09	5.962606e+13	0.000000e+00	6.315789e-01	8.016653e+14	1.125477e+15	1.570697e+14	1.443131e+04	5.342045e+03	2.938687e+03	0	1.236773e-03
1.070000e+09	5.862707e+13	0.000000e+00	6.315789e-01	7.913594e+14	1.112495e+15	1.563770e+14	1.439681e+04	5.335752e+03	2.935225e+03	0	1.229827e-03
1.080000e+09	5.765023e+13	0.000000e+00	6.315789e-01	7.812771e+14	1.099784e+15	1.556889e+14	1.436275e+04	5.329532e+03	2.931804e+03	0	1.222959e-03
1.090000e+09	5.669487e+13	0.000000e+00	6.315789e-01	7.714116e+14	1.087335e+15	1.550054e+14	1.432912e+04	5.323384e+03	2.928421e+03	0	1.216165e-03
1.100000e+09	5.576033e+13	0.000000e+00	6.315789e-01	7.617566e+14	1.075140e+15	1.543265e+14	1.429591e+04	5.317306e+03	2.925078e+03	0	1.209446e-03
1.110000e+09	5.484599e+13	0.000000e+00	6.315789e-01	7.523057e+14	1.063191e+15	1.536522e+14	1.426312e+04	5.311297e+03	2.921772e+03	0	1.202799e-03
1.120000e+09	5.395126e+13	0.000000e+00	6.315789e-01	7.430530e+14	1.051483e+15	1.529824e+14	1.423073e+04	5.305355e+03	2.918504e+03	0	1.196223e-03
1.130000e+09	5.307556e+13	0.000000e+00	6.315789e-01	7.339926e+14	1.040007e+15	1.523171e+14	1.419874e+04	5.299480e+03	2.915272e+03	0	1.189715e-03
1.140000e+09	5.221833e+13	0.000000e+00	6.315789e-01	7.251190e+14	1.028757e+15	1.516562e+14	1.416714e+04	5.293670e+03	2.912075e+03	0	1.183275e-03
1.150000e+09	5.137904e+13	0.000000e+00	6.315789e-01	7.164269e+14	1.017727e+15	1.509998e+14	1.413592e+04	5.287923e+03	2.908914e+03	0	1.176901e-03
1.160000e+09	5.055717e+13	0.000000e+00	6.315789e-01	7.079111e+14	1.006911e+15	1.503477e+14	1.410507e+04	5.282238e+03	2.905787e+03	0	1.170592e-03
1.170000e+09	4.975222e+13	0.000000e+00	6.315789e-01	6.995665e+14	9.963019e+14	1.497000e+14	1.407459e+04	5.276614e+03	2.902693e+03	0	1.164347e-03
1.180000e+09	4.896373e+13	0.000000e+00	6.315789e-01	6.913885e+14	9.858953e+14	1.490565e+14	1.404446e+04	5.271051e+03	2.899633e+03	0	1.158163e-03
1.190000e+09	4.819121e+13	0.000000e+00	6.315789e-01	6.833723e+14	9.756852e+14	1.484174e+14	1.401469e+04	5.265546e+03	2.896605e+03	0	1.152040e-03
1.200000e+09	4.743424e+13	0.000000e+00	6.315789e-01	6.755135e+14	9.656662e+14	1.477825e+14	1.398526e+04	5.260099e+03	2.893608e+03	0	1.145976e-03
1.210000e+09	4.669238e+13	0.000000e+00	6.315789e-01	6.678079e+14	9.558334e+14	1.471518e+14	1.395616e+04	5.254709e+03	2.890643e+03	0	1.139970e-03
1.220000e+09	4.596521e+13	0.000000e+00	6.315789e-01	6.602512e+14	9.461817e+14	1.465253e+14	1.392740e+04	5.249374e+03	2.887708e+03	0	1.134021e-03
1.230000e+09	4.525234e+13	0.000000e+00	6.315789e-01	6.528394e+14	9.367063e+14	1.459029e+14	1.389896e+04	5.244094e+03	2.884804e+03	0	1.128128e-03
1.240000e+09	4.455338e+13	0.000000e+00	6.315789e-01	6.455687e+14	9.274026e+14	1.452846e+14	1.387084e+04	5.238867e+03	2.881929e+03	0	1.122290e-03
1.250000e+09	4.386796e+13	0.000000e+00	6.315789e-01	6.384353e+14	9.182662e+14	1.446705e+14	1.384303e+04	5.233694e+03	2.879082e+03	0	1.116505e-03
1.260000e+09	4.319572e+13	0.000000e+00	6.315789e-01	6.314356e+14	9.092927e+14	1.440603e+14	1.381553e+04	5.228571e+03	2.876265e+03	0	1.110772e-03
1.270000e+09	4.253630e+13	0.000000e+00	6.315789e-01	6.245661e+14	9.004781e+14	1.434542e+14	1.378833e+04	5.223500e+03	2.873475e+03	0	1.105091e-03
1.280000e+09	4.188938e+13	0.000000e+00	6.315789e-01	6.178234e+14	8.918181e+14	1.428521e+14	1.376142e+04	5.218478e+03	2.870712e+03	0	1.099460e-03
1.290000e+09	4.125463e+13	0.000000e+00	6.315789e-01	6.112043e+14	8.833090e+14	1.422540e+14	1.373481e+04	5.213505e+03	2.867977e+03	0	1.093878e-03
1.300000e+09	4.063173e+13	0.000000e+00	6.315789e-01	6.047055e+14	8.749470e+14	1.416597e+14	1.370847e+04	5.208581e+03	2.865268e+03	0	1.088345e-03
1.310000e+09	4.002038e+13	0.000000e+00	6.315789e-01	5.983242e+14	8.667284e+14	1.410694e+14	1.368242e+04	5.203704e+03	2.862585e+03	0	1.082859e-03
1.320000e+09	3.942029e+13	0.000000e+00	6.315789e-01	5.920572e+14	8.586497e+14	1.404829e+14	1.365664e+04	5.198873e+03	2.859927e+03	0	1.077419e-03
1.330000e+09	3.883116e+13	0.000000e+00	6.315789e-01	5.859017e+14	8.507075e+14	1.399003e+14	1.363113e+04	5.194088e+03	2.857295e+03	0	1.072025e-03
1.340000e+09	3.825274e+13	0.000000e+00	6.315789e-01	5.798550e+14	8.428984e+14	1.393214e+14	1.360588e+04	5.189348e+03	2.854687e+03	0	1.066675e-03
1.350000e+09	3.768474e+13	0.000000e+00	6.315789e-01	5.739143e+14	8.352193e+14	1.387464e+14	1.358089e+04	5.184652e+03	2.852104e+03	0	1.061369e-03
1.360000e+09	3.712691e+13	0.000000e+00	6.315789e-01	5.680772e+14	8.276670e+14	1.381751e+14	1.355616e+04	5.179999e+03	2.849545e+03	0	1.056106e-03
