#t		Qconv[W]	Ri[Rp]		R*[Rp]		Qc[W]		Qm[W]		Qr[W]		Tcmb[K]		Tl[K]		Tup[K]		RiFlag		Bs[T]
0.000000e+00	1.896225e+14	0.000000e+00	6.315789e-01	2.093932e+15	1.483535e+15	2.842725e+14	1.811369e+04	4.341751e+03	2.892441e+03	0	1.801726e-03
1.000000e+07	1.859162e+14	0.000000e+00	6.315789e-01	2.057633e+15	1.541214e+15	2.826974e+14	1.803098e+04	4.370030e+03	2.911280e+03	0	1.789910e-03
2.000000e+07	1.822319e+14	0.000000e+00	6.315789e-01	2.021565e+15	1.592843e+15	2.811341e+14	1.794969e+04	4.395263e+03	2.928090e+03	0	1.778008e-03
3.000000e+07	1.785776e+14	0.000000e+00	6.315789e-01	1.985803e+15	1.638466e+15	2.795825e+14	1.786981e+04	4.417658e+03	2.943010e+03	0	1.766042e-03
4.000000e+07	1.749602e+14	0.000000e+00	6.315789e-01	1.950414e+15	1.678223e+15	2.780425e+14	1.779134e+04	4.437421e+03	2.956176e+03	0	1.754036e-03
5.000000e+07	1.713861e+14	0.000000e+00	6.315789e-01	1.915455e+15	1.712337e+15	2.765139e+14	1.771425e+04	4.454755e+03	2.967723e+03	0	1.742010e-03
6.000000e+07	1.678608e+14	0.000000e+00	6.315789e-01	1.880980e+15	1.741085e+15	2.749968e+14	1.763854e+04	4.469855e+03	2.977783e+03	0	1.729983e-03
7.000000e+07	1.643891e+14	0.000000e+00	6.315789e-01	1.847031e+15	1.764790e+15	2.734909e+14	1.756418e+04	4.482910e+03	2.986480e+03	0	1.717973e-03
8.000000e+07	1.609748e+14	0.000000e+00	6.315789e-01	1.813646e+15	1.783796e+15	2.719963e+14	1.749115e+04	4.494098e+03	2.993933e+03	0	1.705996e-03
9.000000e+07	1.576213e+14	0.000000e+00	6.315789e-01	1.780855e+15	1.798466e+15	2.705127e+14	1.741943e+04	4.503587e+03	3.000255e+03	0	1.694066e-03
1.000000e+08	1.543311e+14	0.000000e+00	6.315789e-01	1.748683e+15	1.809162e+15	2.690402e+14	1.734900e+04	4.511533e+03	3.005548e+03	0	1.682196e-03
1.100000e+08	1.511062e+14	0.000000e+00	6.315789e-01	1.717147e+15	1.816242e+15	2.675786e+14	1.727984e+04	4.518083e+03	3.009912e+03	0	1.670397e-03
1.200000e+08	1.479482e+14	0.000000e+00	6.315789e-01	1.686261e+15	1.820053e+15	2.661278e+14	1.721191e+04	4.523371e+03	3.013435e+03	0	1.658678e-03
1.300000e+08	1.448581e+14	0.000000e+00	6.315789e-01	1.656035e+15	1.820928e+15	2.646878e+14	1.714520e+04	4.527522e+03	3.016200e+03	0	1.647049e-03
1.400000e+08	1.418364e+14	0.000000e+00	6.315789e-01	1.626474e+15	1.819178e+15	2.632584e+14	1.707968e+04	4.530648e+03	3.018283e+03	0	1.635516e-03
1.500000e+08	1.388834e+14	0.000000e+00	6.315789e-01	1.597578e+15	1.815097e+15	2.618396e+14	1.701531e+04	4.532855e+03	3.019753e+03	0	1.624086e-03
1.600000e+08	1.359989e+14	0.000000e+00	6.315789e-01	1.569348e+15	1.808954e+15	2.604313e+14	1.695209e+04	4.534235e+03	3.020673e+03	0	1.612763e-03
1.700000e+08	1.331827e+14	0.000000e+00	6.315789e-01	1.541779e+15	1.801000e+15	2.590334e+14	1.688997e+04	4.534876e+03	3.021100e+03	0	1.601553e-03
1.800000e+08	1.304341e+14	0.000000e+00	6.315789e-01	1.514864e+15	1.791462e+15	2.576458e+14	1.682894e+04	4.534856e+03	3.021086e+03	0	1.590459e-03
1.900000e+08	1.277523e+14	0.000000e+00	6.315789e-01	1.488597e+15	1.780549e+15	2.562684e+14	1.676897e+04	4.534244e+03	3.020678e+03	0	1.579483e-03
2.000000e+08	1.251363e+14	0.000000e+00	6.315789e-01	1.462967e+15	1.768447e+15	2.549011e+14	1.671003e+04	4.533105e+03	3.019919e+03	0	1.568628e-03
2.100000e+08	1.225851e+14	0.000000e+00	6.315789e-01	1.437964e+15	1.755326e+15	2.535439e+14	1.665210e+04	4.531496e+03	3.018847e+03	0	1.557894e-03
2.200000e+08	1.200975e+14	0.000000e+00	6.315789e-01	1.413576e+15	1.741338e+15	2.521967e+14	1.659515e+04	4.529469e+03	3.017497e+03	0	1.547284e-03
2.300000e+08	1.176722e+14	0.000000e+00	6.315789e-01	1.389791e+15	1.726621e+15	2.508593e+14	1.653917e+04	4.527071e+03	3.015900e+03	0	1.536798e-03
2.400000e+08	1.153078e+14	0.000000e+00	6.315789e-01	1.366596e+15	1.711294e+15	2.495318e+14	1.648412e+04	4.524344e+03	3.014083e+03	0	1.526435e-03
2.500000e+08	1.130029e+14	0.000000e+00	6.315789e-01	1.343976e+15	1.695468e+15	2.482139e+14	1.642999e+04	4.521326e+03	3.012073e+03	0	1.516196e-03
2.600000e+08	1.107562e+14	0.000000e+00	6.315789e-01	1.321919e+15	1.679238e+15	2.469057e+14	1.637674e+04	4.518052e+03	3.009891e+03	0	1.506080e-03
2.700000e+08	1.085661e+14	0.000000e+00	6.315789e-01	1.300410e+15	1.662689e+15	2.456071e+14	1.632437e+04	4.514551e+03	3.007559e+03	0	1.496087e-03
2.800000e+08	1.064313e+14	0.000000e+00	6.315789e-01	1.279435e+15	1.645896e+15	2.443180e+14	1.627284e+04	4.510851e+03	3.005094e+03	0	1.486216e-03
2.900000e+08	1.043501e+14	0.000000e+00	6.315789e-01	1.258980e+15	1.628927e+15	2.430383e+14	1.622214e+04	4.506977e+03	3.002513e+03	0	1.476465e-03
3.000000e+08	1.023213e+14	0.000000e+00	6.315789e-01	1.239031e+15	1.611839e+15	2.417679e+14	1.617224e+04	4.502951e+03	2.999831e+03	0	1.466833e-03
3.100000e+08	1.003432e+14	0.000000e+00	6.315789e-01	1.219573e+15	1.594684e+15	2.405067e+14	1.612313e+04	4.498794e+03	2.997061e+03	0	1.457320e-03
3.200000e+08	9.841455e+13	0.000000e+00	6.315789e-01	1.200594e+15	1.577506e+15	2.392548e+14	1.607479e+04	4.494522e+03	2.994216e+03	0	1.447922e-03
3.300000e+08	9.653388e+13	0.000000e+00	6.315789e-01	1.182079e+15	1.560344e+15	2.380119e+14	1.602720e+04	4.490152e+03	2.991305e+03	0	1.438640e-03
3.400000e+08	9.469980e+13	0.000000e+00	6.315789e-01	1.164015e+15	1.543233e+15	2.367781e+14	1.598034e+04	4.485699e+03	2.988338e+03	0	1.429470e-03
3.500000e+08	9.291096e+13	0.000000e+00	6.315789e-01	1.146389e+15	1.526202e+15	2.355532e+14	1.593419e+04	4.481175e+03	2.985324e+03	0	1.420412e-03
3.600000e+08	9.116603e+13	0.000000e+00	6.315789e-01	1.129189e+15	1.509276e+15	2.343372e+14	1.588873e+04	4.476592e+03	2.982271e+03	0	1.411464e-03
3.700000e+08	8.946372e+13	0.000000e+00	6.315789e-01	1.112401e+15	1.492477e+15	2.331300e+14	1.584395e+04	4.471961e+03	2.979186e+03	0	1.402623e-03
3.800000e+08	8.780275e+13	0.000000e+00	6.315789e-01	1.096013e+15	1.475823e+15	2.319315e+14	1.579984e+04	4.467290e+03	2.976074e+03	0	1.393889e-03
3.900000e+08	8.618190e+13	0.000000e+00	6.315789e-01	1.080014e+15	1.459331e+15	2.307417e+14	1.575637e+04	4.462588e+03	2.972942e+03	0	1.385258e-03
4.000000e+08	8.459997e+13	0.000000e+00	6.315789e-01	1.064392e+15	1.443014e+15	2.295605e+14	1.571354e+04	4.457863e+03	2.969794e+03	0	1.376730e-03
4.100000e+08	8.305579e+13	0.000000e+00	6.315789e-01	1.049137e+15	1.426883e+15	2.283878e+14	1.567132e+04	4.453121e+03	2.966635e+03	0	1.368302e-03
4.200000e+08	8.154824e+13	0.000000e+00	6.315789e-01	1.034236e+15	1.410948e+15	2.272236e+14	1.562970e+04	4.448368e+03	2.963468e+03	0	1.359973e-03
4.300000e+08	8.007622e+13	0.000000e+00	6.315789e-01	1.019680e+15	1.395215e+15	2.260677e+14	1.558867e+04	4.443609e+03	2.960298e+03	0	1.351740e-03
4.400000e+08	7.863867e+13	0.000000e+00	6.315789e-01	1.005458e+15	1.379691e+15	2.249202e+14	1.554822e+04	4.438850e+03	2.957128e+03	0	1.343603e-03
4.500000e+08	7.723456e+13	0.000000e+00	6.315789e-01	9.915600e+14	1.364380e+15	2.237809e+14	1.550833e+04	4.434094e+03	2.953959e+03	0	1.335558e-03
4.600000e+08	7.586289e+13	0.000000e+00	6.315789e-01	9.779771e+14	1.349287e+15	2.226498e+14	1.546898e+04	4.429346e+03	2.950796e+03	0	1.327604e-03
4.700000e+08	7.452271e+13	0.000000e+00	6.315789e-01	9.646997e+14	1.334413e+15	2.215268e+14	1.543017e+04	4.424609e+03	2.947640e+03	0	1.319740e-03
4.800000e+08	7.321306e+13	0.000000e+00	6.315789e-01	9.517188e+14	1.319761e+15	2.204118e+14	1.539189e+04	4.419885e+03	2.944493e+03	0	1.311963e-03
4.900000e+08	7.193306e+13	0.000000e+00	6.315789e-01	9.390256e+14	1.305331e+15	2.193049e+14	1.535412e+04	4.415177e+03	2.941357e+03	0	1.304272e-03
5.000000e+08	7.068183e+13	0.000000e+00	6.315789e-01	9.266118e+14	1.291123e+15	2.182058e+14	1.531685e+04	4.410489e+03	2.938234e+03	0	1.296666e-03
5.100000e+08	6.945853e+13	0.000000e+00	6.315789e-01	9.144693e+14	1.277137e+15	2.171146e+14	1.528008e+04	4.405821e+03	2.935124e+03	0	1.289142e-03
5.200000e+08	6.826234e+13	0.000000e+00	6.315789e-01	9.025901e+14	1.263373e+15	2.160312e+14	1.524378e+04	4.401176e+03	2.932030e+03	0	1.281698e-03
5.300000e+08	6.709246e+13	0.000000e+00	6.315789e-01	8.909667e+14	1.249828e+15	2.149555e+14	1.520795e+04	4.396556e+03	2.928951e+03	0	1.274334e-03
5.400000e+08	6.594815e+13	0.000000e+00	6.315789e-01	8.795917e+14	1.236502e+15	2.138875e+14	1.517258e+04	4.391961e+03	2.925890e+03	0	1.267048e-03
5.500000e+08	6.482866e+13	0.000000e+00	6.315789e-01	8.684581e+14	1.223391e+15	2.128271e+14	1.513766e+04	4.387393e+03	2.922847e+03	0	1.259837e-03
5.600000e+08	6.373327e+13	0.000000e+00	6.315789e-01	8.575589e+14	1.210495e+15	2.117742e+14	1.510318e+04	4.382853e+03	2.919823e+03	0	1.252701e-03
5.700000e+08	6.266131e+13	0.000000e+00	6.315789e-01	8.468875e+14	1.197809e+15	2.107288e+14	1.506913e+04	4.378343e+03	2.916818e+03	0	1.245638e-03
5.800000e+08	6.161211e+13	0.000000e+00	6.315789e-01	8.364376e+14	1.185333e+15	2.096908e+14	1.503551e+04	4.373862e+03	2.913833e+03	0	1.238647e-03
5.900000e+08	6.058502e+13	0.000000e+00	6.315789e-01	8.262028e+14	1.173062e+15	2.086601e+14	1.500230e+04	4.369411e+03	2.910868e+03	0	1.231725e-03
6.000000e+08	5.957942e+13	0.000000e+00	6.315789e-01	8.161773e+14	1.160993e+15	2.076368e+14	1.496949e+04	4.364992e+03	2.907924e+03	0	1.224872e-03
6.100000e+08	5.859472e+13	0.000000e+00	6.315789e-01	8.063552e+14	1.149125e+15	2.066207e+14	1.493707e+04	4.360604e+03	2.905001e+03	0	1.218087e-03
6.200000e+08	5.763032e+13	0.000000e+00	6.315789e-01	7.967309e+14	1.137453e+15	2.056118e+14	1.490505e+04	4.356248e+03	2.902099e+03	0	1.211367e-03
6.300000e+08	5.668568e+13	0.000000e+00	6.315789e-01	7.872991e+14	1.125974e+15	2.046100e+14	1.487341e+04	4.351925e+03	2.899219e+03	0	1.204712e-03
6.400000e+08	5.576025e+13	0.000000e+00	6.315789e-01	7.780544e+14	1.114684e+15	2.036152e+14	1.484214e+04	4.347633e+03	2.896360e+03	0	1.198120e-03
6.500000e+08	5.485350e+13	0.000000e+00	6.315789e-01	7.689919e+14	1.103582e+15	2.026275e+14	1.481124e+04	4.343375e+03	2.893523e+03	0	1.191590e-03
6.600000e+08	5.396493e+13	0.000000e+00	6.315789e-01	7.601066e+14	1.092662e+15	2.016467e+14	1.478069e+04	4.339149e+03	2.890707e+03	0	1.185121e-03
6.700000e+08	5.309405e+13	0.000000e+00	6.315789e-01	7.513937e+14	1.081922e+15	2.006729e+14	1.475050e+04	4.334956e+03	2.887914e+03	0	1.178711e-03
6.800000e+08	5.224038e+13	0.000000e+00	6.315789e-01	7.428488e+14	1.071359e+15	1.997058e+14	1.472065e+04	4.330796e+03	2.885143e+03	0	1.172360e-03
6.900000e+08	5.140347e+13	0.000000e+00	6.315789e-01	7.344674e+14	1.060969e+15	1.987456e+14	1.469114e+04	4.326668e+03	2.882393e+03	0	1.166065e-03
7.000000e+08	5.058286e+13	0.000000e+00	6.315789e-01	7.262452e+14	1.050748e+15	1.977920e+14	1.466196e+04	4.322573e+03	2.879665e+03	0	1.159827e-03
7.100000e+08	4.977814e+13	0.000000e+00	6.315789e-01	7.181780e+14	1.040694e+15	1.968452e+14	1.463310e+04	4.318511e+03	2.876959e+03	0	1.153644e-03
7.200000e+08	4.898889e+13	0.000000e+00	6.315789e-01	7.102619e+14	1.030804e+15	1.959050e+14	1.460457e+04	4.314482e+03	2.874274e+03	0	1.147514e-03
7.300000e+08	4.821470e+13	0.000000e+00	6.315789e-01	7.024929e+14	1.021073e+15	1.949713e+14	1.457635e+04	4.310484e+03	2.871611e+03	0	1.141437e-03
7.400000e+08	4.745518e+13	0.000000e+00	6.315789e-01	6.948673e+14	1.011499e+15	1.940442e+14	1.454844e+04	4.306519e+03	2.868970e+03	0	1.135412e-03
7.500000e+08	4.670997e+13	0.000000e+00	6.315789e-01	6.873814e+14	1.002078e+15	1.931235e+14	1.452082e+04	4.302586e+03	2.866350e+03	0	1.129437e-03
7.600000e+08	4.597868e+13	0.000000e+00	6.315789e-01	6.800318e+14	9.928085e+14	1.922092e+14	1.449351e+04	4.298685e+03	2.863750e+03	0	1.123512e-03
7.700000e+08	4.526098e+13	0.000000e+00	6.315789e-01	6.728149e+14	9.836862e+14	1.913013e+14	1.446649e+04	4.294815e+03	2.861172e+03	0	1.117635e-03
7.800000e+08	4.455651e+13	0.000000e+00	6.315789e-01	6.657276e+14	9.747083e+14	1.903997e+14	1.443975e+04	4.290976e+03	2.858615e+03	0	1.111806e-03
7.900000e+08	4.386496e+13	0.000000e+00	6.315789e-01	6.587665e+14	9.658720e+14	1.895044e+14	1.441329e+04	4.287169e+03	2.856079e+03	0	1.106024e-03
8.000000e+08	4.318598e+13	0.000000e+00	6.315789e-01	6.519286e+14	9.571744e+14	1.886153e+14	1.438711e+04	4.283392e+03	2.853562e+03	0	1.100288e-03
8.100000e+08	4.251928e+13	0.000000e+00	6.315789e-01	6.452108e+14	9.486126e+14	1.877323e+14	1.436120e+04	4.279645e+03	2.851067e+03	0	1.094597e-03
8.200000e+08	4.186456e+13	0.000000e+00	6.315789e-01	6.386103e+14	9.401839e+14	1.868554e+14	1.433555e+04	4.275929e+03	2.848591e+03	0	1.088949e-03
8.300000e+08	4.122151e+13	0.000000e+00	6.315789e-01	6.321242e+14	9.318856e+14	1.859847e+14	1.431017e+04	4.272243e+03	2.846135e+03	0	1.083345e-03
8.400000e+08	4.058986e+13	0.000000e+00	6.315789e-01	6.257497e+14	9.237148e+14	1.851199e+14	1.428504e+04	4.268586e+03	2.843699e+03	0	1.077783e-03
8.500000e+08	3.996933e+13	0.000000e+00	6.315789e-01	6.194843e+14	9.156692e+14	1.842611e+14	1.426017e+04	4.264959e+03	2.841283e+03	0	1.072262e-03
8.600000e+08	3.935965e+13	0.000000e+00	6.315789e-01	6.133252e+14	9.077461e+14	1.834082e+14	1.423554e+04	4.261361e+03	2.838886e+03	0	1.066782e-03
8.700000e+08	3.876057e+13	0.000000e+00	6.315789e-01	6.072701e+14	8.999429e+14	1.825612e+14	1.421116e+04	4.257791e+03	2.836508e+03	0	1.061342e-03
8.800000e+08	3.817184e+13	0.000000e+00	6.315789e-01	6.013164e+14	8.922573e+14	1.817200e+14	1.418702e+04	4.254250e+03	2.834148e+03	0	1.055941e-03
8.900000e+08	3.759321e+13	0.000000e+00	6.315789e-01	5.954618e+14	8.846869e+14	1.808846e+14	1.416311e+04	4.250737e+03	2.831808e+03	0	1.050579e-03
9.000000e+08	3.702444e+13	0.000000e+00	6.315789e-01	5.897041e+14	8.772293e+14	1.800549e+14	1.413944e+04	4.247251e+03	2.829486e+03	0	1.045253e-03
9.100000e+08	3.646531e+13	0.000000e+00	6.315789e-01	5.840409e+14	8.698822e+14	1.792309e+14	1.411599e+04	4.243793e+03	2.827182e+03	0	1.039965e-03
9.200000e+08	3.591559e+13	0.000000e+00	6.315789e-01	5.784702e+14	8.626435e+14	1.784126e+14	1.409277e+04	4.240362e+03	2.824897e+03	0	1.034713e-03
9.300000e+08	3.537507e+13	0.000000e+00	6.315789e-01	5.729898e+14	8.555108e+14	1.775998e+14	1.406977e+04	4.236958e+03	2.822629e+03	0	1.029496e-03
9.400000e+08	3.484353e+13	0.000000e+00	6.315789e-01	5.675977e+14	8.484821e+14	1.767926e+14	1.404699e+04	4.233581e+03	2.820379e+03	0	1.024313e-03
9.500000e+08	3.432078e+13	0.000000e+00	6.315789e-01	5.622920e+14	8.415553e+14	1.759910e+14	1.402442e+04	4.230229e+03	2.818146e+03	0	1.019165e-03
9.600000e+08	3.380661e+13	0.000000e+00	6.315789e-01	5.570706e+14	8.347284e+14	1.751947e+14	1.400206e+04	4.226904e+03	2.815931e+03	0	1.014050e-03
9.700000e+08	3.330083e+13	0.000000e+00	6.315789e-01	5.519317e+14	8.279994e+14	1.744039e+14	1.397991e+04	4.223604e+03	2.813732e+03	0	1.008967e-03
9.800000e+08	3.280326e+13	0.000000e+00	6.315789e-01	5.468736e+14	8.213662e+14	1.736185e+14	1.395796e+04	4.220329e+03	2.811551e+03	0	1.003917e-03
9.900000e+08	3.231371e+13	0.000000e+00	6.315789e-01	5.418944e+14	8.148271e+14	1.728385e+14	1.393621e+04	4.217079e+03	2.809386e+03	0	9.988978e-04
1.000000e+09	3.183200e+13	0.000000e+00	6.315789e-01	5.369924e+14	8.083802e+14	1.720637e+14	1.391466e+04	4.213854e+03	2.807237e+03	0	9.939094e-04
1.010000e+09	3.135797e+13	0.000000e+00	6.315789e-01	5.321660e+14	8.020236e+14	1.712942e+14	1.389330e+04	4.210654e+03	2.805105e+03	0	9.889510e-04
1.020000e+09	3.089145e+13	0.000000e+00	6.315789e-01	5.274135e+14	7.957557e+14	1.705298e+14	1.387214e+04	4.207477e+03	2.802989e+03	0	9.840222e-04
1.030000e+09	3.043227e+13	0.000000e+00	6.315789e-01	5.227334e+14	7.895746e+14	1.697707e+14	1.385116e+04	4.204324e+03	2.800888e+03	0	9.791223e-04
1.040000e+09	2.998028e+13	0.000000e+00	6.315789e-01	5.181240e+14	7.834787e+14	1.690167e+14	1.383037e+04	4.201195e+03	2.798803e+03	0	9.742506e-04
1.050000e+09	2.953532e+13	0.000000e+00	6.315789e-01	5.135840e+14	7.774663e+14	1.682678e+14	1.380976e+04	4.198089e+03	2.796734e+03	0	9.694067e-04
1.060000e+09	2.909725e+13	0.000000e+00	6.315789e-01	5.091119e+14	7.715358e+14	1.675239e+14	1.378933e+04	4.195005e+03	2.794680e+03	0	9.645900e-04
1.070000e+09	2.866591e+13	0.000000e+00	6.315789e-01	5.047062e+14	7.656857e+14	1.667851e+14	1.376908e+04	4.191945e+03	2.792641e+03	0	9.597999e-04
1.080000e+09	2.824117e+13	0.000000e+00	6.315789e-01	5.003655e+14	7.599145e+14	1.660512e+14	1.374901e+04	4.188906e+03	2.790617e+03	0	9.550358e-04
1.090000e+09	2.782288e+13	0.000000e+00	6.315789e-01	4.960886e+14	7.542206e+14	1.653222e+14	1.372910e+04	4.185890e+03	2.788608e+03	0	9.502973e-04
1.100000e+09	2.741092e+13	0.000000e+00	6.315789e-01	4.918741e+14	7.486025e+14	1.645982e+14	1.370937e+04	4.182896e+03	2.786613e+03	0	9.455837e-04
1.110000e+09	2.700515e+13	0.000000e+00	6.315789e-01	4.877208e+14	7.430589e+14	1.638790e+14	1.368980e+04	4.179923e+03	2.784632e+03	0	9.408946e-04
1.120000e+09	2.660545e+13	0.000000e+00	6.315789e-01	4.836273e+14	7.375883e+14	1.631646e+14	1.367040e+04	4.176971e+03	2.782666e+03	0	9.362295e-04
1.130000e+09	2.621168e+13	0.000000e+00	6.315789e-01	4.795926e+14	7.321894e+14	1.624550e+14	1.365116e+04	4.174041e+03	2.780714e+03	0	9.315877e-04
1.140000e+09	2.582374e+13	0.000000e+00	6.315789e-01	4.756153e+14	7.268609e+14	1.617501e+14	1.363208e+04	4.171131e+03	2.778775e+03	0	9.269689e-04
1.150000e+09	2.544150e+13	0.000000e+00	6.315789e-01	4.716944e+14	7.216014e+14	1.610500e+14	1.361316e+04	4.168242e+03	2.776851e+03	0	9.223725e-04
1.160000e+09	2.506485e+13	0.000000e+00	6.315789e-01	4.678288e+14	7.164097e+14	1.603545e+14	1.359439e+04	4.165373e+03	2.774939e+03	0	9.177981e-04
1.170000e+09	2.469367e+13	0.000000e+00	6.315789e-01	4.640174e+14	7.112845e+14	1.596637e+14	1.357578e+04	4.162524e+03	2.773041e+03	0	9.132451e-04
1.180000e+09	2.432786e+13	0.000000e+00	6.315789e-01	4.602590e+14	7.062247e+14	1.589774e+14	1.355732e+04	4.159695e+03	2.771157e+03	0	9.087130e-04
1.190000e+09	2.396731e+13	0.000000e+00	6.315789e-01	4.565527e+14	7.012290e+14	1.582957e+14	1.353900e+04	4.156886e+03	2.769285e+03	0	9.042015e-04
1.200000e+09	2.361192e+13	0.000000e+00	6.315789e-01	4.528975e+14	6.962963e+14	1.576186e+14	1.352084e+04	4.154095e+03	2.767426e+03	0	8.997100e-04
1.210000e+09	2.326159e+13	0.000000e+00	6.315789e-01	4.492923e+14	6.914254e+14	1.569459e+14	1.350282e+04	4.151324e+03	2.765580e+03	0	8.952381e-04
1.220000e+09	2.291621e+13	0.000000e+00	6.315789e-01	4.457363e+14	6.866153e+14	1.562777e+14	1.348494e+04	4.148572e+03	2.763746e+03	0	8.907853e-04
1.230000e+09	2.257569e+13	0.000000e+00	6.315789e-01	4.422284e+14	6.818649e+14	1.556139e+14	1.346720e+04	4.145838e+03	2.761925e+03	0	8.863512e-04
1.240000e+09	2.223994e+13	0.000000e+00	6.315789e-01	4.387678e+14	6.771731e+14	1.549545e+14	1.344961e+04	4.143123e+03	2.760116e+03	0	8.819352e-04
1.250000e+09	2.190887e+13	0.000000e+00	6.315789e-01	4.353535e+14	6.725389e+14	1.542994e+14	1.343215e+04	4.140426e+03	2.758320e+03	0	8.775371e-04
1.260000e+09	2.158239e+13	0.000000e+00	6.315789e-01	4.319847e+14	6.679612e+14	1.536487e+14	1.341482e+04	4.137747e+03	2.756535e+03	0	8.731563e-04
1.270000e+09	2.126041e+13	0.000000e+00	6.315789e-01	4.286606e+14	6.634391e+14	1.530022e+14	1.339763e+04	4.135085e+03	2.754762e+03	0	8.687923e-04
1.280000e+09	2.094284e+13	0.000000e+00	6.315789e-01	4.253803e+14	6.589716e+14	1.523600e+14	1.338057e+04	4.132442e+03	2.753001e+03	0	8.644449e-04
1.290000e+09	2.062961e+13	0.000000e+00	6.315789e-01	4.221430e+14	6.545578e+14	1.517221e+14	1.336364e+04	4.129815e+03	2.751251e+03	0	8.601135e-04
1.300000e+09	2.032062e+13	0.000000e+00	6.315789e-01	4.189479e+14	6.501968e+14	1.510883e+14	1.334684e+04	4.127206e+03	2.749513e+03	0	8.557977e-04
1.310000e+09	2.001581e+13	0.000000e+00	6.315789e-01	4.157943e+14	6.458876e+14	1.504586e+14	1.333017e+04	4.124614e+03	2.747786e+03	0	8.514972e-04
1.320000e+09	1.971510e+13	0.000000e+00	6.315789e-01	4.126813e+14	6.416294e+14	1.498331e+14	1.331362e+04	4.122038e+03	2.746070e+03	0	8.472114e-04
1.330000e+09	1.941841e+13	0.000000e+00	6.315789e-01	4.096083e+14	6.374213e+14	1.492117e+14	1.329720e+04	4.119479e+03	2.744365e+03	0	8.429400e-04
1.340000e+09	1.912566e+13	0.000000e+00	6.315789e-01	4.065746e+14	6.332624e+14	1.485943e+14	1.328089e+04	4.116936e+03	2.742671e+03	0	8.386825e-04
1.350000e+09	1.883679e+13	0.000000e+00	6.315789e-01	4.035793e+14	6.291520e+14	1.479810e+14	1.326471e+04	4.114410e+03	2.740988e+03	0	8.344386e-04
1.360000e+09	1.855172e+13	0.000000e+00	6.315789e-01	4.006219e+14	6.250892e+14	1.473717e+14	1.324865e+04	4.111900e+03	2.739316e+03	0	8.302079e-04
