#t		Qconv[W]	Ri[Rp]		R*[Rp]		Qc[W]		Qm[W]		Qr[W]		Tcmb[K]		Tl[K]		Tup[K]		RiFlag		Bs[T]
0.000000e+00	4.077295e+15	0.000000e+00	6.283184e-01	3.497575e+16	2.563157e+15	3.650956e+14	3.966816e+04	5.601968e+03	3.051218e+03	0	5.031109e-03
1.000000e+07	3.845279e+15	0.000000e+00	6.283184e-01	3.302369e+16	6.706335e+15	3.630727e+14	3.869459e+04	6.476547e+03	3.527574e+03	0	4.933809e-03
2.000000e+07	3.605200e+15	0.000000e+00	6.283184e-01	3.100636e+16	1.201871e+16	3.610649e+14	3.777376e+04	7.156604e+03	3.897980e+03	0	4.828914e-03
3.000000e+07	3.364540e+15	0.000000e+00	6.283184e-01	2.898586e+16	1.686343e+16	3.590721e+14	3.690769e+04	7.630262e+03	4.155967e+03	0	4.718981e-03
4.000000e+07	3.131690e+15	0.000000e+00	6.283184e-01	2.703173e+16	2.024694e+16	3.570942e+14	3.609669e+04	7.927357e+03	4.317785e+03	0	4.607507e-03
5.000000e+07	2.912535e+15	0.000000e+00	6.283184e-01	2.519270e+16	2.207833e+16	3.551311e+14	3.533915e+04	8.094701e+03	4.408932e+03	0	4.497420e-03
6.000000e+07	2.709912e+15	0.000000e+00	6.283184e-01	2.349220e+16	2.271702e+16	3.531826e+14	3.463205e+04	8.175469e+03	4.452924e+03	0	4.390609e-03
7.000000e+07	2.524464e+15	0.000000e+00	6.283184e-01	2.193545e+16	2.258119e+16	3.512486e+14	3.397172e+04	8.201716e+03	4.467220e+03	0	4.288079e-03
8.000000e+07	2.355598e+15	0.000000e+00	6.283184e-01	2.051741e+16	2.199554e+16	3.493290e+14	3.335429e+04	8.194824e+03	4.463466e+03	0	4.190251e-03
9.000000e+07	2.202129e+15	0.000000e+00	6.283184e-01	1.922816e+16	2.117500e+16	3.474237e+14	3.277603e+04	8.168315e+03	4.449028e+03	0	4.097201e-03
1.000000e+08	2.062666e+15	0.000000e+00	6.283184e-01	1.805606e+16	2.025072e+16	3.455325e+14	3.223345e+04	8.130532e+03	4.428448e+03	0	4.008815e-03
1.100000e+08	1.935798e+15	0.000000e+00	6.283184e-01	1.698932e+16	1.929883e+16	3.436553e+14	3.172337e+04	8.086568e+03	4.404503e+03	0	3.924880e-03
1.200000e+08	1.820197e+15	0.000000e+00	6.283184e-01	1.601686e+16	1.836167e+16	3.417921e+14	3.124291e+04	8.039525e+03	4.378880e+03	0	3.845143e-03
1.300000e+08	1.714650e+15	0.000000e+00	6.283184e-01	1.512853e+16	1.746155e+16	3.399427e+14	3.078949e+04	7.991285e+03	4.352605e+03	0	3.769336e-03
1.400000e+08	1.618073e+15	0.000000e+00	6.283184e-01	1.431528e+16	1.660913e+16	3.381069e+14	3.036082e+04	7.942990e+03	4.326300e+03	0	3.697195e-03
1.500000e+08	1.529503e+15	0.000000e+00	6.283184e-01	1.356908e+16	1.580842e+16	3.362847e+14	2.995484e+04	7.895320e+03	4.300336e+03	0	3.628467e-03
1.600000e+08	1.448095e+15	0.000000e+00	6.283184e-01	1.288286e+16	1.505972e+16	3.344760e+14	2.956970e+04	7.848676e+03	4.274930e+03	0	3.562914e-03
1.700000e+08	1.373102e+15	0.000000e+00	6.283184e-01	1.225038e+16	1.436131e+16	3.326806e+14	2.920375e+04	7.803281e+03	4.250205e+03	0	3.500316e-03
1.800000e+08	1.303869e+15	0.000000e+00	6.283184e-01	1.166617e+16	1.371047e+16	3.308985e+14	2.885550e+04	7.759248e+03	4.226221e+03	0	3.440469e-03
1.900000e+08	1.239821e+15	0.000000e+00	6.283184e-01	1.112543e+16	1.310403e+16	3.291295e+14	2.852363e+04	7.716621e+03	4.203004e+03	0	3.383187e-03
2.000000e+08	1.180450e+15	0.000000e+00	6.283184e-01	1.062390e+16	1.253872e+16	3.273735e+14	2.820694e+04	7.675404e+03	4.180554e+03	0	3.328298e-03
2.100000e+08	1.125308e+15	0.000000e+00	6.283184e-01	1.015784e+16	1.201131e+16	3.256304e+14	2.790433e+04	7.635570e+03	4.158858e+03	0	3.275645e-03
2.200000e+08	1.073998e+15	0.000000e+00	6.283184e-01	9.723942e+15	1.151877e+16	3.239001e+14	2.761482e+04	7.597081e+03	4.137894e+03	0	3.225083e-03
2.300000e+08	1.026170e+15	0.000000e+00	6.283184e-01	9.319259e+15	1.105824e+16	3.221825e+14	2.733752e+04	7.559887e+03	4.117636e+03	0	3.176480e-03
2.400000e+08	9.815106e+14	0.000000e+00	6.283184e-01	8.941183e+15	1.062710e+16	3.204775e+14	2.707162e+04	7.523936e+03	4.098054e+03	0	3.129714e-03
2.500000e+08	9.397426e+14	0.000000e+00	6.283184e-01	8.587389e+15	1.022296e+16	3.187850e+14	2.681638e+04	7.489172e+03	4.079119e+03	0	3.084674e-03
2.600000e+08	9.006178e+14	0.000000e+00	6.283184e-01	8.255799e+15	9.843626e+15	3.171049e+14	2.657112e+04	7.455541e+03	4.060801e+03	0	3.041257e-03
2.700000e+08	8.639139e+14	0.000000e+00	6.283184e-01	7.944555e+15	9.487112e+15	3.154370e+14	2.633521e+04	7.422989e+03	4.043071e+03	0	2.999369e-03
2.800000e+08	8.294318e+14	0.000000e+00	6.283184e-01	7.651988e+15	9.151613e+15	3.137814e+14	2.610810e+04	7.391464e+03	4.025901e+03	0	2.958920e-03
2.900000e+08	7.969925e+14	0.000000e+00	6.283184e-01	7.376598e+15	8.835492e+15	3.121378e+14	2.588926e+04	7.360917e+03	4.009263e+03	0	2.919831e-03
3.000000e+08	7.664348e+14	0.000000e+00	6.283184e-01	7.117036e+15	8.537262e+15	3.105062e+14	2.567821e+04	7.331301e+03	3.993132e+03	0	2.882027e-03
3.100000e+08	7.376129e+14	0.000000e+00	6.283184e-01	6.872081e+15	8.255572e+15	3.088865e+14	2.547451e+04	7.302570e+03	3.977483e+03	0	2.845438e-03
3.200000e+08	7.103954e+14	0.000000e+00	6.283184e-01	6.640629e+15	7.989195e+15	3.072786e+14	2.527775e+04	7.274684e+03	3.962295e+03	0	2.810000e-03
3.300000e+08	6.846627e+14	0.000000e+00	6.283184e-01	6.421680e+15	7.737015e+15	3.056824e+14	2.508754e+04	7.247602e+03	3.947544e+03	0	2.775653e-03
3.400000e+08	6.603066e+14	0.000000e+00	6.283184e-01	6.214326e+15	7.498012e+15	3.040977e+14	2.490354e+04	7.221287e+03	3.933211e+03	0	2.742342e-03
3.500000e+08	6.372285e+14	0.000000e+00	6.283184e-01	6.017739e+15	7.271258e+15	3.025246e+14	2.472543e+04	7.195703e+03	3.919276e+03	0	2.710013e-03
3.600000e+08	6.153384e+14	0.000000e+00	6.283184e-01	5.831166e+15	7.055906e+15	3.009629e+14	2.455289e+04	7.170817e+03	3.905722e+03	0	2.678620e-03
3.700000e+08	5.945546e+14	0.000000e+00	6.283184e-01	5.653920e+15	6.851179e+15	2.994124e+14	2.438565e+04	7.146599e+03	3.892531e+03	0	2.648116e-03
3.800000e+08	5.748018e+14	0.000000e+00	6.283184e-01	5.485370e+15	6.656366e+15	2.978732e+14	2.422345e+04	7.123018e+03	3.879687e+03	0	2.618459e-03
3.900000e+08	5.560115e+14	0.000000e+00	6.283184e-01	5.324939e+15	6.470816e+15	2.963452e+14	2.406604e+04	7.100047e+03	3.867175e+03	0	2.589610e-03
4.000000e+08	5.381207e+14	0.000000e+00	6.283184e-01	5.172100e+15	6.293930e+15	2.948281e+14	2.391319e+04	7.077660e+03	3.854982e+03	0	2.561531e-03
4.100000e+08	5.210715e+14	0.000000e+00	6.283184e-01	5.026366e+15	6.125157e+15	2.933220e+14	2.376469e+04	7.055832e+03	3.843093e+03	0	2.534188e-03
4.200000e+08	5.048105e+14	0.000000e+00	6.283184e-01	4.887289e+15	5.963990e+15	2.918268e+14	2.362034e+04	7.034540e+03	3.831495e+03	0	2.507547e-03
4.300000e+08	4.892889e+14	0.000000e+00	6.283184e-01	4.754458e+15	5.809961e+15	2.903423e+14	2.347995e+04	7.013762e+03	3.820178e+03	0	2.481579e-03
4.400000e+08	4.744613e+14	0.000000e+00	6.283184e-01	4.627492e+15	5.662639e+15	2.888685e+14	2.334334e+04	6.993477e+03	3.809130e+03	0	2.456254e-03
4.500000e+08	4.602860e+14	0.000000e+00	6.283184e-01	4.506040e+15	5.521623e+15	2.874053e+14	2.321035e+04	6.973666e+03	3.798339e+03	0	2.431545e-03
4.600000e+08	4.467242e+14	0.000000e+00	6.283184e-01	4.389776e+15	5.386545e+15	2.859526e+14	2.308082e+04	6.954310e+03	3.787797e+03	0	2.407425e-03
4.700000e+08	4.337401e+14	0.000000e+00	6.283184e-01	4.278400e+15	5.257062e+15	2.845103e+14	2.295461e+04	6.935392e+03	3.777493e+03	0	2.383872e-03
4.800000e+08	4.213006e+14	0.000000e+00	6.283184e-01	4.171632e+15	5.132855e+15	2.830784e+14	2.283157e+04	6.916895e+03	3.767418e+03	0	2.360861e-03
4.900000e+08	4.093748e+14	0.000000e+00	6.283184e-01	4.069212e+15	5.013631e+15	2.816567e+14	2.271158e+04	6.898804e+03	3.757564e+03	0	2.338371e-03
5.000000e+08	3.979341e+14	0.000000e+00	6.283184e-01	3.970900e+15	4.899114e+15	2.802451e+14	2.259451e+04	6.881102e+03	3.747923e+03	0	2.316381e-03
5.100000e+08	3.869518e+14	0.000000e+00	6.283184e-01	3.876472e+15	4.789049e+15	2.788437e+14	2.248025e+04	6.863777e+03	3.738486e+03	0	2.294873e-03
5.200000e+08	3.764031e+14	0.000000e+00	6.283184e-01	3.785717e+15	4.683198e+15	2.774522e+14	2.236869e+04	6.846814e+03	3.729247e+03	0	2.273827e-03
5.300000e+08	3.662649e+14	0.000000e+00	6.283184e-01	3.698442e+15	4.581338e+15	2.760707e+14	2.225972e+04	6.830201e+03	3.720199e+03	0	2.253226e-03
5.400000e+08	3.565155e+14	0.000000e+00	6.283184e-01	3.614464e+15	4.483263e+15	2.746990e+14	2.215324e+04	6.813926e+03	3.711334e+03	0	2.233054e-03
5.500000e+08	3.471348e+14	0.000000e+00	6.283184e-01	3.533614e+15	4.388778e+15	2.733371e+14	2.204916e+04	6.797977e+03	3.702647e+03	0	2.213294e-03
5.600000e+08	3.381040e+14	0.000000e+00	6.283184e-01	3.455732e+15	4.297701e+15	2.719849e+14	2.194740e+04	6.782343e+03	3.694131e+03	0	2.193932e-03
5.700000e+08	3.294053e+14	0.000000e+00	6.283184e-01	3.380669e+15	4.209864e+15	2.706422e+14	2.184786e+04	6.767013e+03	3.685782e+03	0	2.174953e-03
5.800000e+08	3.210222e+14	0.000000e+00	6.283184e-01	3.308286e+15	4.125106e+15	2.693091e+14	2.175047e+04	6.751977e+03	3.677592e+03	0	2.156344e-03
5.900000e+08	3.129393e+14	0.000000e+00	6.283184e-01	3.238453e+15	4.043279e+15	2.679854e+14	2.165515e+04	6.737226e+03	3.669558e+03	0	2.138092e-03
6.000000e+08	3.051418e+14	0.000000e+00	6.283184e-01	3.171045e+15	3.964242e+15	2.666712e+14	2.156183e+04	6.722751e+03	3.661674e+03	0	2.120184e-03
6.100000e+08	2.976163e+14	0.000000e+00	6.283184e-01	3.105949e+15	3.887864e+15	2.653662e+14	2.147044e+04	6.708542e+03	3.653935e+03	0	2.102609e-03
6.200000e+08	2.903498e+14	0.000000e+00	6.283184e-01	3.043055e+15	3.814020e+15	2.640704e+14	2.138091e+04	6.694592e+03	3.646337e+03	0	2.085356e-03
6.300000e+08	2.833302e+14	0.000000e+00	6.283184e-01	2.982261e+15	3.742594e+15	2.627838e+14	2.129318e+04	6.680893e+03	3.638875e+03	0	2.068413e-03
6.400000e+08	2.765462e+14	0.000000e+00	6.283184e-01	2.923472e+15	3.673476e+15	2.615062e+14	2.120720e+04	6.667436e+03	3.631545e+03	0	2.051771e-03
6.500000e+08	2.699870e+14	0.000000e+00	6.283184e-01	2.866596e+15	3.606563e+15	2.602377e+14	2.112290e+04	6.654214e+03	3.624344e+03	0	2.035420e-03
6.600000e+08	2.636425e+14	0.000000e+00	6.283184e-01	2.811549e+15	3.541756e+15	2.589780e+14	2.104023e+04	6.641221e+03	3.617267e+03	0	2.019350e-03
6.700000e+08	2.575032e+14	0.000000e+00	6.283184e-01	2.758249e+15	3.478965e+15	2.577273e+14	2.095914e+04	6.628449e+03	3.610310e+03	0	2.003552e-03
6.800000e+08	2.515601e+14	0.000000e+00	6.283184e-01	2.706621e+15	3.418100e+15	2.564853e+14	2.087957e+04	6.615893e+03	3.603471e+03	0	1.988018e-03
6.900000e+08	2.458047e+14	0.000000e+00	6.283184e-01	2.656592e+15	3.359081e+15	2.552520e+14	2.080149e+04	6.603545e+03	3.596746e+03	0	1.972739e-03
7.000000e+08	2.402288e+14	0.000000e+00	6.283184e-01	2.608094e+15	3.301830e+15	2.540274e+14	2.072484e+04	6.591400e+03	3.590131e+03	0	1.957709e-03
7.100000e+08	2.348249e+14	0.000000e+00	6.283184e-01	2.561064e+15	3.246271e+15	2.528113e+14	2.064958e+04	6.579453e+03	3.583624e+03	0	1.942918e-03
7.200000e+08	2.295859e+14	0.000000e+00	6.283184e-01	2.515439e+15	3.192337e+15	2.516038e+14	2.057567e+04	6.567697e+03	3.577221e+03	0	1.928360e-03
7.300000e+08	2.245048e+14	0.000000e+00	6.283184e-01	2.471163e+15	3.139960e+15	2.504047e+14	2.050307e+04	6.556128e+03	3.570919e+03	0	1.914028e-03
7.400000e+08	2.195751e+14	0.000000e+00	6.283184e-01	2.428180e+15	3.089078e+15	2.492139e+14	2.043174e+04	6.544740e+03	3.564716e+03	0	1.899915e-03
7.500000e+08	2.147908e+14	0.000000e+00	6.283184e-01	2.386439e+15	3.039631e+15	2.480315e+14	2.036165e+04	6.533528e+03	3.558610e+03	0	1.886014e-03
7.600000e+08	2.101461e+14	0.000000e+00	6.283184e-01	2.345889e+15	2.991563e+15	2.468573e+14	2.029275e+04	6.522488e+03	3.552597e+03	0	1.872320e-03
7.700000e+08	2.056353e+14	0.000000e+00	6.283184e-01	2.306485e+15	2.944820e+15	2.456912e+14	2.022502e+04	6.511616e+03	3.546675e+03	0	1.858827e-03
7.800000e+08	2.012532e+14	0.000000e+00	6.283184e-01	2.268182e+15	2.899350e+15	2.445333e+14	2.015842e+04	6.500906e+03	3.540842e+03	0	1.845528e-03
7.900000e+08	1.969949e+14	0.000000e+00	6.283184e-01	2.230936e+15	2.855106e+15	2.433834e+14	2.009291e+04	6.490355e+03	3.535095e+03	0	1.832419e-03
8.000000e+08	1.928556e+14	0.000000e+00	6.283184e-01	2.194709e+15	2.812041e+15	2.422415e+14	2.002848e+04	6.479958e+03	3.529432e+03	0	1.819493e-03
8.100000e+08	1.888307e+14	0.000000e+00	6.283184e-01	2.159462e+15	2.770111e+15	2.411075e+14	1.996509e+04	6.469712e+03	3.523851e+03	0	1.806746e-03
8.200000e+08	1.849159e+14	0.000000e+00	6.283184e-01	2.125157e+15	2.729275e+15	2.399814e+14	1.990272e+04	6.459613e+03	3.518351e+03	0	1.794174e-03
8.300000e+08	1.811072e+14	0.000000e+00	6.283184e-01	2.091761e+15	2.689491e+15	2.388630e+14	1.984132e+04	6.449657e+03	3.512928e+03	0	1.781770e-03
8.400000e+08	1.774007e+14	0.000000e+00	6.283184e-01	2.059240e+15	2.650723e+15	2.377523e+14	1.978089e+04	6.439841e+03	3.507581e+03	0	1.769531e-03
8.500000e+08	1.737925e+14	0.000000e+00	6.283184e-01	2.027562e+15	2.612933e+15	2.366494e+14	1.972139e+04	6.430161e+03	3.502309e+03	0	1.757452e-03
8.600000e+08	1.702792e+14	0.000000e+00	6.283184e-01	1.996698e+15	2.576088e+15	2.355540e+14	1.966281e+04	6.420614e+03	3.497109e+03	0	1.745528e-03
8.700000e+08	1.668573e+14	0.000000e+00	6.283184e-01	1.966618e+15	2.540154e+15	2.344662e+14	1.960511e+04	6.411197e+03	3.491980e+03	0	1.733757e-03
8.800000e+08	1.635237e+14	0.000000e+00	6.283184e-01	1.937295e+15	2.505098e+15	2.333858e+14	1.954827e+04	6.401907e+03	3.486920e+03	0	1.722133e-03
8.900000e+08	1.602752e+14	0.000000e+00	6.283184e-01	1.908703e+15	2.470893e+15	2.323129e+14	1.949228e+04	6.392741e+03	3.481927e+03	0	1.710652e-03
9.000000e+08	1.571088e+14	0.000000e+00	6.283184e-01	1.880816e+15	2.437507e+15	2.312473e+14	1.943712e+04	6.383695e+03	3.477001e+03	0	1.699312e-03
9.100000e+08	1.540218e+14	0.000000e+00	6.283184e-01	1.853611e+15	2.404914e+15	2.301891e+14	1.938275e+04	6.374768e+03	3.472138e+03	0	1.688109e-03
9.200000e+08	1.510113e+14	0.000000e+00	6.283184e-01	1.827063e+15	2.373086e+15	2.291380e+14	1.932917e+04	6.365956e+03	3.467339e+03	0	1.677038e-03
9.300000e+08	1.480749e+14	0.000000e+00	6.283184e-01	1.801152e+15	2.342000e+15	2.280942e+14	1.927635e+04	6.357257e+03	3.462601e+03	0	1.666097e-03
9.400000e+08	1.452101e+14	0.000000e+00	6.283184e-01	1.775857e+15	2.311630e+15	2.270575e+14	1.922427e+04	6.348669e+03	3.457923e+03	0	1.655282e-03
9.500000e+08	1.424144e+14	0.000000e+00	6.283184e-01	1.751156e+15	2.281953e+15	2.260279e+14	1.917293e+04	6.340188e+03	3.453304e+03	0	1.644590e-03
9.600000e+08	1.396856e+14	0.000000e+00	6.283184e-01	1.727031e+15	2.252947e+15	2.250053e+14	1.912229e+04	6.331813e+03	3.448742e+03	0	1.634018e-03
9.700000e+08	1.370215e+14	0.000000e+00	6.283184e-01	1.703463e+15	2.224590e+15	2.239897e+14	1.907235e+04	6.323541e+03	3.444237e+03	0	1.623563e-03
9.800000e+08	1.344201e+14	0.000000e+00	6.283184e-01	1.680434e+15	2.196863e+15	2.229810e+14	1.902309e+04	6.315370e+03	3.439786e+03	0	1.613223e-03
9.900000e+08	1.318792e+14	0.000000e+00	6.283184e-01	1.657928e+15	2.169744e+15	2.219791e+14	1.897449e+04	6.307298e+03	3.435389e+03	0	1.602994e-03
1.000000e+09	1.293971e+14	0.000000e+00	6.283184e-01	1.635927e+15	2.143216e+15	2.209840e+14	1.892654e+04	6.299323e+03	3.431046e+03	0	1.592873e-03
1.010000e+09	1.269718e+14	0.000000e+00	6.283184e-01	1.614416e+15	2.117261e+15	2.199957e+14	1.887922e+04	6.291442e+03	3.426753e+03	0	1.582858e-03
1.020000e+09	1.246016e+14	0.000000e+00	6.283184e-01	1.593380e+15	2.091860e+15	2.190141e+14	1.883252e+04	6.283655e+03	3.422512e+03	0	1.572947e-03
1.030000e+09	1.222847e+14	0.000000e+00	6.283184e-01	1.572805e+15	2.066997e+15	2.180391e+14	1.878643e+04	6.275958e+03	3.418319e+03	0	1.563137e-03
1.040000e+09	1.200195e+14	0.000000e+00	6.283184e-01	1.552675e+15	2.042656e+15	2.170708e+14	1.874093e+04	6.268350e+03	3.414175e+03	0	1.553425e-03
1.050000e+09	1.178046e+14	0.000000e+00	6.283184e-01	1.532979e+15	2.018822e+15	2.161089e+14	1.869601e+04	6.260829e+03	3.410079e+03	0	1.543810e-03
1.060000e+09	1.156382e+14	0.000000e+00	6.283184e-01	1.513703e+15	1.995479e+15	2.151536e+14	1.865166e+04	6.253393e+03	3.406029e+03	0	1.534288e-03
1.070000e+09	1.135190e+14	0.000000e+00	6.283184e-01	1.494834e+15	1.972613e+15	2.142046e+14	1.860786e+04	6.246042e+03	3.402025e+03	0	1.524857e-03
1.080000e+09	1.114457e+14	0.000000e+00	6.283184e-01	1.476361e+15	1.950211e+15	2.132621e+14	1.856461e+04	6.238772e+03	3.398065e+03	0	1.515517e-03
1.090000e+09	1.094167e+14	0.000000e+00	6.283184e-01	1.458273e+15	1.928259e+15	2.123259e+14	1.852189e+04	6.231583e+03	3.394150e+03	0	1.506263e-03
1.100000e+09	1.074309e+14	0.000000e+00	6.283184e-01	1.440557e+15	1.906744e+15	2.113960e+14	1.847969e+04	6.224473e+03	3.390277e+03	0	1.497095e-03
1.110000e+09	1.054869e+14	0.000000e+00	6.283184e-01	1.423204e+15	1.885654e+15	2.104723e+14	1.843800e+04	6.217440e+03	3.386446e+03	0	1.488010e-03
1.120000e+09	1.035837e+14	0.000000e+00	6.283184e-01	1.406202e+15	1.864977e+15	2.095548e+14	1.839682e+04	6.210483e+03	3.382657e+03	0	1.479007e-03
1.130000e+09	1.017200e+14	0.000000e+00	6.283184e-01	1.389543e+15	1.844702e+15	2.086435e+14	1.835612e+04	6.203600e+03	3.378908e+03	0	1.470083e-03
1.140000e+09	9.989463e+13	0.000000e+00	6.283184e-01	1.373216e+15	1.824817e+15	2.077382e+14	1.831590e+04	6.196790e+03	3.375199e+03	0	1.461236e-03
1.150000e+09	9.810662e+13	0.000000e+00	6.283184e-01	1.357213e+15	1.805312e+15	2.068390e+14	1.827615e+04	6.190052e+03	3.371529e+03	0	1.452465e-03
1.160000e+09	9.635488e+13	0.000000e+00	6.283184e-01	1.341524e+15	1.786176e+15	2.059458e+14	1.823687e+04	6.183385e+03	3.367898e+03	0	1.443769e-03
1.170000e+09	9.463843e+13	0.000000e+00	6.283184e-01	1.326141e+15	1.767401e+15	2.050585e+14	1.819803e+04	6.176786e+03	3.364303e+03	0	1.435144e-03
1.180000e+09	9.295629e+13	0.000000e+00	6.283184e-01	1.311056e+15	1.748975e+15	2.041771e+14	1.815964e+04	6.170255e+03	3.360746e+03	0	1.426590e-03
1.190000e+09	9.130752e+13	0.000000e+00	6.283184e-01	1.296260e+15	1.730890e+15	2.033016e+14	1.812169e+04	6.163791e+03	3.357225e+03	0	1.418105e-03
1.200000e+09	8.969122e+13	0.000000e+00	6.283184e-01	1.281746e+15	1.713137e+15	2.024320e+14	1.808416e+04	6.157392e+03	3.353740e+03	0	1.409688e-03
1.210000e+09	8.810651e+13	0.000000e+00	6.283184e-01	1.267507e+15	1.695706e+15	2.015680e+14	1.804705e+04	6.151057e+03	3.350290e+03	0	1.401336e-03
1.220000e+09	8.655257e+13	0.000000e+00	6.283184e-01	1.253534e+15	1.678591e+15	2.007098e+14	1.801035e+04	6.144785e+03	3.346873e+03	0	1.393049e-03
1.230000e+09	8.502857e+13	0.000000e+00	6.283184e-01	1.239822e+15	1.661783e+15	1.998573e+14	1.797406e+04	6.138575e+03	3.343491e+03	0	1.384824e-03
1.240000e+09	8.353373e+13	0.000000e+00	6.283184e-01	1.226363e+15	1.645273e+15	1.990104e+14	1.793816e+04	6.132426e+03	3.340142e+03	0	1.376661e-03
1.250000e+09	8.206728e+13	0.000000e+00	6.283184e-01	1.213152e+15	1.629055e+15	1.981691e+14	1.790265e+04	6.126336e+03	3.336825e+03	0	1.368557e-03
1.260000e+09	8.062849e+13	0.000000e+00	6.283184e-01	1.200180e+15	1.613121e+15	1.973334e+14	1.786752e+04	6.120305e+03	3.333540e+03	0	1.360512e-03
1.270000e+09	7.921665e+13	0.000000e+00	6.283184e-01	1.187444e+15	1.597463e+15	1.965031e+14	1.783276e+04	6.114332e+03	3.330287e+03	0	1.352525e-03
1.280000e+09	7.783107e+13	0.000000e+00	6.283184e-01	1.174935e+15	1.582076e+15	1.956784e+14	1.779837e+04	6.108416e+03	3.327065e+03	0	1.344593e-03
1.290000e+09	7.647109e+13	0.000000e+00	6.283184e-01	1.162650e+15	1.566952e+15	1.948590e+14	1.776434e+04	6.102556e+03	3.323873e+03	0	1.336715e-03
1.300000e+09	7.513606e+13	0.000000e+00	6.283184e-01	1.150582e+15	1.552086e+15	1.940450e+14	1.773067e+04	6.096750e+03	3.320711e+03	0	1.328890e-03
1.310000e+09	7.382535e+13	0.000000e+00	6.283184e-01	1.138726e+15	1.537470e+15	1.932364e+14	1.769735e+04	6.090999e+03	3.317578e+03	0	1.321118e-03
1.320000e+09	7.253837e+13	0.000000e+00	6.283184e-01	1.127077e+15	1.523099e+15	1.924330e+14	1.766436e+04	6.085300e+03	3.314474e+03	0	1.313396e-03
1.330000e+09	7.127452e+13	0.000000e+00	6.283184e-01	1.115630e+15	1.508967e+15	1.916349e+14	1.763172e+04	6.079654e+03	3.311399e+03	0	1.305723e-03
1.340000e+09	7.003325e+13	0.000000e+00	6.283184e-01	1.104380e+15	1.495068e+15	1.908420e+14	1.759940e+04	6.074058e+03	3.308351e+03	0	1.298099e-03
1.350000e+09	6.881400e+13	0.000000e+00	6.283184e-01	1.093322e+15	1.481397e+15	1.900543e+14	1.756741e+04	6.068514e+03	3.305331e+03	0	1.290522e-03
1.360000e+09	6.761623e+13	0.000000e+00	6.283184e-01	1.082451e+15	1.467949e+15	1.892717e+14	1.753574e+04	6.063019e+03	3.302338e+03	0	1.282990e-03
