#t		Qconv[W]	Ri[Rp]		R*[Rp]		Qc[W]		Qm[W]		Qr[W]		Tcmb[K]		Tl[K]		Tup[K]		RiFlag		Bs[T]
0.000000e+00	1.381977e+14	0.000000e+00	6.478873e-01	3.012970e+15	5.241080e+13	7.288067e+13	1.253327e+04	3.950554e+03	2.183258e+03	0	1.683602e-03
1.000000e+07	1.207943e+14	0.000000e+00	6.478873e-01	2.634737e+15	9.823537e+13	7.247686e+13	1.203693e+04	4.374444e+03	2.417519e+03	0	1.609736e-03
2.000000e+07	1.056113e+14	0.000000e+00	6.478873e-01	2.304758e+15	1.567713e+14	7.207607e+13	1.160072e+04	4.737682e+03	2.618261e+03	0	1.539250e-03
3.000000e+07	9.248339e+13	0.000000e+00	6.478873e-01	2.019437e+15	2.235998e+14	7.167827e+13	1.121743e+04	5.045563e+03	2.788410e+03	0	1.472630e-03
4.000000e+07	8.121407e+13	0.000000e+00	6.478873e-01	1.774501e+15	2.938111e+14	7.128344e+13	1.088026e+04	5.303544e+03	2.930983e+03	0	1.410207e-03
5.000000e+07	7.159295e+13	0.000000e+00	6.478873e-01	1.565378e+15	3.629699e+14	7.089156e+13	1.058295e+04	5.517147e+03	3.049030e+03	0	1.352164e-03
6.000000e+07	6.340927e+13	0.000000e+00	6.478873e-01	1.387487e+15	4.276327e+14	7.050260e+13	1.031986e+04	5.691813e+03	3.145558e+03	0	1.298544e-03
7.000000e+07	5.646191e+13	0.000000e+00	6.478873e-01	1.236459e+15	4.854979e+14	7.011653e+13	1.008602e+04	5.832739e+03	3.223440e+03	0	1.249274e-03
8.000000e+07	5.056607e+13	0.000000e+00	6.478873e-01	1.108279e+15	5.353147e+14	6.973334e+13	9.877114e+03	5.944762e+03	3.285349e+03	0	1.204182e-03
9.000000e+07	4.555697e+13	0.000000e+00	6.478873e-01	9.993650e+14	5.766765e+14	6.935299e+13	9.689451e+03	6.032266e+03	3.333708e+03	0	1.163030e-03
1.000000e+08	4.129108e+13	0.000000e+00	6.478873e-01	9.066007e+14	6.097807e+14	6.897547e+13	9.519894e+03	6.099143e+03	3.370668e+03	0	1.125532e-03
1.100000e+08	3.764568e+13	0.000000e+00	6.478873e-01	8.273192e+14	6.352121e+14	6.860076e+13	9.365800e+03	6.148793e+03	3.398106e+03	0	1.091384e-03
1.200000e+08	3.451727e+13	0.000000e+00	6.478873e-01	7.592715e+14	6.537681e+14	6.822881e+13	9.224953e+03	6.184139e+03	3.417640e+03	0	1.060274e-03
1.300000e+08	3.181940e+13	0.000000e+00	6.478873e-01	7.005803e+14	6.663315e+14	6.785963e+13	9.095501e+03	6.207669e+03	3.430644e+03	0	1.031897e-03
1.400000e+08	2.948044e+13	0.000000e+00	6.478873e-01	6.496887e+14	6.737859e+14	6.749317e+13	8.975896e+03	6.221483e+03	3.438278e+03	0	1.005967e-03
1.500000e+08	2.744127e+13	0.000000e+00	6.478873e-01	6.053125e+14	6.769632e+14	6.712943e+13	8.864844e+03	6.227338e+03	3.441514e+03	0	9.822166e-04
1.600000e+08	2.565322e+13	0.000000e+00	6.478873e-01	5.663942e+14	6.766169e+14	6.676837e+13	8.761261e+03	6.226700e+03	3.441161e+03	0	9.604022e-04
1.700000e+08	2.407628e+13	0.000000e+00	6.478873e-01	5.320648e+14	6.734095e+14	6.640997e+13	8.664237e+03	6.220788e+03	3.437894e+03	0	9.403055e-04
1.800000e+08	2.267754e+13	0.000000e+00	6.478873e-01	5.016090e+14	6.679130e+14	6.605422e+13	8.573007e+03	6.210609e+03	3.432269e+03	0	9.217317e-04
1.900000e+08	2.142991e+13	0.000000e+00	6.478873e-01	4.744382e+14	6.606118e+14	6.570109e+13	8.486923e+03	6.196996e+03	3.424746e+03	0	9.045084e-04
2.000000e+08	2.031101e+13	0.000000e+00	6.478873e-01	4.500662e+14	6.519129e+14	6.535055e+13	8.405434e+03	6.180638e+03	3.415705e+03	0	8.884842e-04
2.100000e+08	1.930234e+13	0.000000e+00	6.478873e-01	4.280908e+14	6.421535e+14	6.500260e+13	8.328071e+03	6.162100e+03	3.405460e+03	0	8.735260e-04
2.200000e+08	1.838852e+13	0.000000e+00	6.478873e-01	4.081781e+14	6.316114e+14	6.465719e+13	8.254432e+03	6.141850e+03	3.394269e+03	0	8.595176e-04
2.300000e+08	1.755675e+13	0.000000e+00	6.478873e-01	3.900496e+14	6.205136e+14	6.431433e+13	8.184171e+03	6.120273e+03	3.382345e+03	0	8.463576e-04
2.400000e+08	1.679631e+13	0.000000e+00	6.478873e-01	3.734726e+14	6.090445e+14	6.397398e+13	8.116987e+03	6.097685e+03	3.369861e+03	0	8.339574e-04
2.500000e+08	1.609820e+13	0.000000e+00	6.478873e-01	3.582514e+14	5.973528e+14	6.363612e+13	8.052620e+03	6.074346e+03	3.356963e+03	0	8.222395e-04
2.600000e+08	1.545483e+13	0.000000e+00	6.478873e-01	3.442208e+14	5.855578e+14	6.330073e+13	7.990840e+03	6.050470e+03	3.343768e+03	0	8.111365e-04
2.700000e+08	1.485975e+13	0.000000e+00	6.478873e-01	3.312411e+14	5.737542e+14	6.296780e+13	7.931447e+03	6.026233e+03	3.330374e+03	0	8.005892e-04
2.800000e+08	1.430750e+13	0.000000e+00	6.478873e-01	3.191930e+14	5.620171e+14	6.263729e+13	7.874264e+03	6.001779e+03	3.316859e+03	0	7.905459e-04
2.900000e+08	1.379338e+13	0.000000e+00	6.478873e-01	3.079749e+14	5.504051e+14	6.230920e+13	7.819133e+03	5.977225e+03	3.303290e+03	0	7.809612e-04
3.000000e+08	1.331337e+13	0.000000e+00	6.478873e-01	2.974992e+14	5.389630e+14	6.198350e+13	7.765915e+03	5.952669e+03	3.289719e+03	0	7.717949e-04
3.100000e+08	1.286401e+13	0.000000e+00	6.478873e-01	2.876905e+14	5.277256e+14	6.166018e+13	7.714484e+03	5.928189e+03	3.276190e+03	0	7.630120e-04
3.200000e+08	1.244229e+13	0.000000e+00	6.478873e-01	2.784834e+14	5.167181e+14	6.133920e+13	7.664727e+03	5.903848e+03	3.262738e+03	0	7.545812e-04
3.300000e+08	1.204559e+13	0.000000e+00	6.478873e-01	2.698210e+14	5.059592e+14	6.102056e+13	7.616542e+03	5.879697e+03	3.249392e+03	0	7.464749e-04
3.400000e+08	1.167162e+13	0.000000e+00	6.478873e-01	2.616537e+14	4.954617e+14	6.070424e+13	7.569837e+03	5.855778e+03	3.236173e+03	0	7.386684e-04
3.500000e+08	1.131838e+13	0.000000e+00	6.478873e-01	2.539377e+14	4.852337e+14	6.039020e+13	7.524529e+03	5.832124e+03	3.223100e+03	0	7.311401e-04
3.600000e+08	1.098410e+13	0.000000e+00	6.478873e-01	2.466347e+14	4.752795e+14	6.007845e+13	7.480540e+03	5.808759e+03	3.210188e+03	0	7.238701e-04
3.700000e+08	1.066721e+13	0.000000e+00	6.478873e-01	2.397106e+14	4.656007e+14	5.976895e+13	7.437801e+03	5.785704e+03	3.197446e+03	0	7.168410e-04
3.800000e+08	1.036634e+13	0.000000e+00	6.478873e-01	2.331352e+14	4.561967e+14	5.946170e+13	7.396248e+03	5.762973e+03	3.184884e+03	0	7.100370e-04
3.900000e+08	1.008024e+13	0.000000e+00	6.478873e-01	2.268817e+14	4.470649e+14	5.915666e+13	7.355821e+03	5.740578e+03	3.172508e+03	0	7.034439e-04
4.000000e+08	9.807804e+12	0.000000e+00	6.478873e-01	2.209259e+14	4.382011e+14	5.885383e+13	7.316466e+03	5.718526e+03	3.160321e+03	0	6.970487e-04
4.100000e+08	9.548044e+12	0.000000e+00	6.478873e-01	2.152463e+14	4.296005e+14	5.855318e+13	7.278132e+03	5.696822e+03	3.148326e+03	0	6.908398e-04
4.200000e+08	9.300066e+12	0.000000e+00	6.478873e-01	2.098235e+14	4.212572e+14	5.825469e+13	7.240772e+03	5.675468e+03	3.136525e+03	0	6.848065e-04
4.300000e+08	9.063063e+12	0.000000e+00	6.478873e-01	2.046399e+14	4.131648e+14	5.795836e+13	7.204343e+03	5.654466e+03	3.124918e+03	0	6.789392e-04
4.400000e+08	8.836304e+12	0.000000e+00	6.478873e-01	1.996796e+14	4.053164e+14	5.766416e+13	7.168803e+03	5.633814e+03	3.113505e+03	0	6.732289e-04
4.500000e+08	8.619126e+12	0.000000e+00	6.478873e-01	1.949282e+14	3.977050e+14	5.737207e+13	7.134116e+03	5.613510e+03	3.102284e+03	0	6.676676e-04
4.600000e+08	8.410925e+12	0.000000e+00	6.478873e-01	1.903724e+14	3.903232e+14	5.708208e+13	7.100245e+03	5.593552e+03	3.091254e+03	0	6.622477e-04
4.700000e+08	8.211148e+12	0.000000e+00	6.478873e-01	1.860004e+14	3.831638e+14	5.679417e+13	7.067157e+03	5.573935e+03	3.080413e+03	0	6.569624e-04
4.800000e+08	8.019291e+12	0.000000e+00	6.478873e-01	1.818011e+14	3.762194e+14	5.650833e+13	7.034821e+03	5.554654e+03	3.069758e+03	0	6.518053e-04
4.900000e+08	7.834890e+12	0.000000e+00	6.478873e-01	1.777643e+14	3.694827e+14	5.622453e+13	7.003207e+03	5.535704e+03	3.059285e+03	0	6.467704e-04
5.000000e+08	7.657518e+12	0.000000e+00	6.478873e-01	1.738809e+14	3.629466e+14	5.594276e+13	6.972288e+03	5.517081e+03	3.048993e+03	0	6.418525e-04
5.100000e+08	7.486783e+12	0.000000e+00	6.478873e-01	1.701423e+14	3.566040e+14	5.566300e+13	6.942038e+03	5.498777e+03	3.038878e+03	0	6.370462e-04
5.200000e+08	7.322322e+12	0.000000e+00	6.478873e-01	1.665405e+14	3.504482e+14	5.538524e+13	6.912431e+03	5.480787e+03	3.028936e+03	0	6.323470e-04
5.300000e+08	7.163799e+12	0.000000e+00	6.478873e-01	1.630682e+14	3.444723e+14	5.510946e+13	6.883444e+03	5.463105e+03	3.019164e+03	0	6.277504e-04
5.400000e+08	7.010902e+12	0.000000e+00	6.478873e-01	1.597188e+14	3.386700e+14	5.483564e+13	6.855056e+03	5.445725e+03	3.009558e+03	0	6.232522e-04
5.500000e+08	6.863342e+12	0.000000e+00	6.478873e-01	1.564858e+14	3.330349e+14	5.456377e+13	6.827246e+03	5.428639e+03	3.000116e+03	0	6.188486e-04
5.600000e+08	6.720851e+12	0.000000e+00	6.478873e-01	1.533634e+14	3.275611e+14	5.429384e+13	6.799992e+03	5.411841e+03	2.990833e+03	0	6.145360e-04
5.700000e+08	6.583177e+12	0.000000e+00	6.478873e-01	1.503461e+14	3.222424e+14	5.402582e+13	6.773278e+03	5.395326e+03	2.981705e+03	0	6.103108e-04
5.800000e+08	6.450087e+12	0.000000e+00	6.478873e-01	1.474289e+14	3.170735e+14	5.375970e+13	6.747083e+03	5.379086e+03	2.972731e+03	0	6.061699e-04
5.900000e+08	6.321362e+12	0.000000e+00	6.478873e-01	1.446070e+14	3.120487e+14	5.349547e+13	6.721393e+03	5.363115e+03	2.963905e+03	0	6.021103e-04
6.000000e+08	6.196797e+12	0.000000e+00	6.478873e-01	1.418758e+14	3.071629e+14	5.323311e+13	6.696189e+03	5.347408e+03	2.955224e+03	0	5.981291e-04
6.100000e+08	6.076200e+12	0.000000e+00	6.478873e-01	1.392314e+14	3.024111e+14	5.297261e+13	6.671457e+03	5.331957e+03	2.946685e+03	0	5.942236e-04
6.200000e+08	5.959392e+12	0.000000e+00	6.478873e-01	1.366696e+14	2.977883e+14	5.271394e+13	6.647182e+03	5.316757e+03	2.938285e+03	0	5.903912e-04
6.300000e+08	5.846203e+12	0.000000e+00	6.478873e-01	1.341869e+14	2.932899e+14	5.245711e+13	6.623349e+03	5.301803e+03	2.930020e+03	0	5.866294e-04
6.400000e+08	5.736474e+12	0.000000e+00	6.478873e-01	1.317798e+14	2.889115e+14	5.220208e+13	6.599945e+03	5.287087e+03	2.921888e+03	0	5.829360e-04
6.500000e+08	5.630056e+12	0.000000e+00	6.478873e-01	1.294449e+14	2.846488e+14	5.194885e+13	6.576958e+03	5.272604e+03	2.913884e+03	0	5.793088e-04
6.600000e+08	5.526808e+12	0.000000e+00	6.478873e-01	1.271793e+14	2.804977e+14	5.169740e+13	6.554374e+03	5.258350e+03	2.906006e+03	0	5.757456e-04
6.700000e+08	5.426596e+12	0.000000e+00	6.478873e-01	1.249800e+14	2.764542e+14	5.144772e+13	6.532182e+03	5.244318e+03	2.898252e+03	0	5.722446e-04
6.800000e+08	5.329294e+12	0.000000e+00	6.478873e-01	1.228443e+14	2.725146e+14	5.119980e+13	6.510371e+03	5.230503e+03	2.890617e+03	0	5.688037e-04
6.900000e+08	5.234783e+12	0.000000e+00	6.478873e-01	1.207696e+14	2.686752e+14	5.095361e+13	6.488929e+03	5.216900e+03	2.883099e+03	0	5.654212e-04
7.000000e+08	5.142952e+12	0.000000e+00	6.478873e-01	1.187534e+14	2.649326e+14	5.070915e+13	6.467846e+03	5.203504e+03	2.875696e+03	0	5.620954e-04
7.100000e+08	5.053693e+12	0.000000e+00	6.478873e-01	1.167934e+14	2.612836e+14	5.046640e+13	6.447112e+03	5.190310e+03	2.868404e+03	0	5.588246e-04
7.200000e+08	4.966905e+12	0.000000e+00	6.478873e-01	1.148875e+14	2.577246e+14	5.022535e+13	6.426717e+03	5.177313e+03	2.861222e+03	0	5.556071e-04
7.300000e+08	4.882493e+12	0.000000e+00	6.478873e-01	1.130334e+14	2.542529e+14	4.998598e+13	6.406653e+03	5.164509e+03	2.854146e+03	0	5.524416e-04
7.400000e+08	4.800365e+12	0.000000e+00	6.478873e-01	1.112293e+14	2.508654e+14	4.974828e+13	6.386909e+03	5.151893e+03	2.847173e+03	0	5.493266e-04
7.500000e+08	4.720436e+12	0.000000e+00	6.478873e-01	1.094733e+14	2.475593e+14	4.951224e+13	6.367479e+03	5.139461e+03	2.840303e+03	0	5.462606e-04
7.600000e+08	4.642623e+12	0.000000e+00	6.478873e-01	1.077635e+14	2.443319e+14	4.927785e+13	6.348352e+03	5.127208e+03	2.833531e+03	0	5.432424e-04
7.700000e+08	4.566847e+12	0.000000e+00	6.478873e-01	1.060982e+14	2.411807e+14	4.904508e+13	6.329522e+03	5.115130e+03	2.826857e+03	0	5.402706e-04
7.800000e+08	4.493035e+12	0.000000e+00	6.478873e-01	1.044759e+14	2.381030e+14	4.881394e+13	6.310981e+03	5.103224e+03	2.820277e+03	0	5.373441e-04
7.900000e+08	4.421116e+12	0.000000e+00	6.478873e-01	1.028950e+14	2.350966e+14	4.858439e+13	6.292721e+03	5.091485e+03	2.813789e+03	0	5.344616e-04
8.000000e+08	4.351022e+12	0.000000e+00	6.478873e-01	1.013539e+14	2.321592e+14	4.835644e+13	6.274735e+03	5.079909e+03	2.807392e+03	0	5.316220e-04
8.100000e+08	4.282689e+12	0.000000e+00	6.478873e-01	9.985140e+13	2.292884e+14	4.813007e+13	6.257016e+03	5.068494e+03	2.801083e+03	0	5.288243e-04
8.200000e+08	4.216054e+12	0.000000e+00	6.478873e-01	9.838605e+13	2.264822e+14	4.790527e+13	6.239558e+03	5.057234e+03	2.794861e+03	0	5.260673e-04
8.300000e+08	4.151061e+12	0.000000e+00	6.478873e-01	9.695657e+13	2.237386e+14	4.768202e+13	6.222354e+03	5.046128e+03	2.788723e+03	0	5.233500e-04
8.400000e+08	4.087651e+12	0.000000e+00	6.478873e-01	9.556176e+13	2.210557e+14	4.746031e+13	6.205399e+03	5.035170e+03	2.782667e+03	0	5.206715e-04
8.500000e+08	4.025773e+12	0.000000e+00	6.478873e-01	9.420043e+13	2.184314e+14	4.724014e+13	6.188685e+03	5.024359e+03	2.776692e+03	0	5.180309e-04
8.600000e+08	3.965374e+12	0.000000e+00	6.478873e-01	9.287147e+13	2.158641e+14	4.702148e+13	6.172208e+03	5.013690e+03	2.770796e+03	0	5.154271e-04
8.700000e+08	3.906405e+12	0.000000e+00	6.478873e-01	9.157382e+13	2.133520e+14	4.680432e+13	6.155962e+03	5.003161e+03	2.764977e+03	0	5.128594e-04
8.800000e+08	3.848821e+12	0.000000e+00	6.478873e-01	9.030643e+13	2.108934e+14	4.658866e+13	6.139941e+03	4.992769e+03	2.759234e+03	0	5.103269e-04
8.900000e+08	3.792574e+12	0.000000e+00	6.478873e-01	8.906834e+13	2.084866e+14	4.637448e+13	6.124140e+03	4.982510e+03	2.753565e+03	0	5.078287e-04
9.000000e+08	3.737624e+12	0.000000e+00	6.478873e-01	8.785860e+13	2.061303e+14	4.616177e+13	6.108554e+03	4.972383e+03	2.747968e+03	0	5.053641e-04
9.100000e+08	3.683927e+12	0.000000e+00	6.478873e-01	8.667632e+13	2.038228e+14	4.595052e+13	6.093179e+03	4.962383e+03	2.742441e+03	0	5.029323e-04
9.200000e+08	3.631445e+12	0.000000e+00	6.478873e-01	8.552061e+13	2.015627e+14	4.574072e+13	6.078009e+03	4.952509e+03	2.736984e+03	0	5.005326e-04
9.300000e+08	3.580139e+12	0.000000e+00	6.478873e-01	8.439066e+13	1.993487e+14	4.553235e+13	6.063040e+03	4.942757e+03	2.731595e+03	0	4.981642e-04
9.400000e+08	3.529974e+12	0.000000e+00	6.478873e-01	8.328568e+13	1.971794e+14	4.532541e+13	6.048267e+03	4.933126e+03	2.726273e+03	0	4.958265e-04
9.500000e+08	3.480914e+12	0.000000e+00	6.478873e-01	8.220488e+13	1.950535e+14	4.511987e+13	6.033686e+03	4.923612e+03	2.721015e+03	0	4.935187e-04
9.600000e+08	3.432925e+12	0.000000e+00	6.478873e-01	8.114754e+13	1.929699e+14	4.491574e+13	6.019293e+03	4.914214e+03	2.715821e+03	0	4.912403e-04
9.700000e+08	3.385975e+12	0.000000e+00	6.478873e-01	8.011296e+13	1.909272e+14	4.471300e+13	6.005085e+03	4.904928e+03	2.710689e+03	0	4.889905e-04
9.800000e+08	3.340033e+12	0.000000e+00	6.478873e-01	7.910045e+13	1.889244e+14	4.451164e+13	5.991056e+03	4.895753e+03	2.705619e+03	0	4.867689e-04
9.900000e+08	3.295069e+12	0.000000e+00	6.478873e-01	7.810936e+13	1.869603e+14	4.431165e+13	5.977203e+03	4.886687e+03	2.700608e+03	0	4.845747e-04
1.000000e+09	3.251055e+12	0.000000e+00	6.478873e-01	7.713906e+13	1.850339e+14	4.411301e+13	5.963523e+03	4.877726e+03	2.695656e+03	0	4.824074e-04
1.010000e+09	3.207962e+12	0.000000e+00	6.478873e-01	7.618895e+13	1.831442e+14	4.391573e+13	5.950011e+03	4.868870e+03	2.690762e+03	0	4.802665e-04
1.020000e+09	3.165764e+12	0.000000e+00	6.478873e-01	7.525844e+13	1.812901e+14	4.371977e+13	5.936665e+03	4.860116e+03	2.685924e+03	0	4.781514e-04
1.030000e+09	3.124435e+12	0.000000e+00	6.478873e-01	7.434698e+13	1.794707e+14	4.352515e+13	5.923481e+03	4.851461e+03	2.681141e+03	0	4.760615e-04
1.040000e+09	3.083952e+12	0.000000e+00	6.478873e-01	7.345403e+13	1.776851e+14	4.333184e+13	5.910455e+03	4.842905e+03	2.676413e+03	0	4.739964e-04
1.050000e+09	3.044288e+12	0.000000e+00	6.478873e-01	7.257906e+13	1.759323e+14	4.313983e+13	5.897585e+03	4.834445e+03	2.671737e+03	0	4.719556e-04
1.060000e+09	3.005423e+12	0.000000e+00	6.478873e-01	7.172157e+13	1.742115e+14	4.294913e+13	5.884867e+03	4.826080e+03	2.667114e+03	0	4.699386e-04
1.070000e+09	2.967333e+12	0.000000e+00	6.478873e-01	7.088107e+13	1.725219e+14	4.275970e+13	5.872299e+03	4.817807e+03	2.662542e+03	0	4.679448e-04
1.080000e+09	2.929998e+12	0.000000e+00	6.478873e-01	7.005711e+13	1.708626e+14	4.257155e+13	5.859877e+03	4.809624e+03	2.658020e+03	0	4.659740e-04
1.090000e+09	2.893396e+12	0.000000e+00	6.478873e-01	6.924923e+13	1.692329e+14	4.238467e+13	5.847598e+03	4.801531e+03	2.653547e+03	0	4.640255e-04
1.100000e+09	2.857508e+12	0.000000e+00	6.478873e-01	6.845700e+13	1.676320e+14	4.219904e+13	5.835461e+03	4.793525e+03	2.649123e+03	0	4.620990e-04
1.110000e+09	2.822315e+12	0.000000e+00	6.478873e-01	6.767999e+13	1.660591e+14	4.201465e+13	5.823461e+03	4.785605e+03	2.644746e+03	0	4.601941e-04
1.120000e+09	2.787797e+12	0.000000e+00	6.478873e-01	6.691780e+13	1.645137e+14	4.183150e+13	5.811596e+03	4.777769e+03	2.640415e+03	0	4.583103e-04
1.130000e+09	2.753938e+12	0.000000e+00	6.478873e-01	6.617005e+13	1.629949e+14	4.164958e+13	5.799865e+03	4.770016e+03	2.636131e+03	0	4.564473e-04
1.140000e+09	2.720720e+12	0.000000e+00	6.478873e-01	6.543634e+13	1.615021e+14	4.146887e+13	5.788263e+03	4.762344e+03	2.631891e+03	0	4.546046e-04
1.150000e+09	2.688126e+12	0.000000e+00	6.478873e-01	6.471632e+13	1.600347e+14	4.128937e+13	5.776790e+03	4.754752e+03	2.627695e+03	0	4.527819e-04
1.160000e+09	2.656139e+12	0.000000e+00	6.478873e-01	6.400962e+13	1.585921e+14	4.111106e+13	5.765442e+03	4.747238e+03	2.623542e+03	0	4.509788e-04
1.170000e+09	2.624745e+12	0.000000e+00	6.478873e-01	6.331592e+13	1.571736e+14	4.093394e+13	5.754217e+03	4.739800e+03	2.619432e+03	0	4.491950e-04
1.180000e+09	2.593928e+12	0.000000e+00	6.478873e-01	6.263488e+13	1.557787e+14	4.075801e+13	5.743114e+03	4.732439e+03	2.615364e+03	0	4.474301e-04
1.190000e+09	2.563674e+12	0.000000e+00	6.478873e-01	6.196618e+13	1.544068e+14	4.058324e+13	5.732129e+03	4.725151e+03	2.611336e+03	0	4.456837e-04
1.200000e+09	2.533968e+12	0.000000e+00	6.478873e-01	6.130950e+13	1.530573e+14	4.040963e+13	5.721260e+03	4.717936e+03	2.607349e+03	0	4.439556e-04
1.210000e+09	2.504796e+12	0.000000e+00	6.478873e-01	6.066455e+13	1.517298e+14	4.023717e+13	5.710506e+03	4.710793e+03	2.603401e+03	0	4.422454e-04
1.220000e+09	2.476146e+12	0.000000e+00	6.478873e-01	6.003105e+13	1.504237e+14	4.006586e+13	5.699865e+03	4.703720e+03	2.599492e+03	0	4.405528e-04
1.230000e+09	2.448005e+12	0.000000e+00	6.478873e-01	5.940870e+13	1.491385e+14	3.989568e+13	5.689334e+03	4.696716e+03	2.595622e+03	0	4.388775e-04
1.240000e+09	2.420359e+12	0.000000e+00	6.478873e-01	5.879723e+13	1.478737e+14	3.972662e+13	5.678912e+03	4.689781e+03	2.591789e+03	0	4.372191e-04
1.250000e+09	2.393198e+12	0.000000e+00	6.478873e-01	5.819639e+13	1.466289e+14	3.955868e+13	5.668596e+03	4.682912e+03	2.587993e+03	0	4.355775e-04
1.260000e+09	2.366508e+12	0.000000e+00	6.478873e-01	5.760591e+13	1.454036e+14	3.939185e+13	5.658385e+03	4.676109e+03	2.584233e+03	0	4.339522e-04
1.270000e+09	2.340280e+12	0.000000e+00	6.478873e-01	5.702555e+13	1.441973e+14	3.922611e+13	5.648278e+03	4.669370e+03	2.580509e+03	0	4.323431e-04
1.280000e+09	2.314502e+12	0.000000e+00	6.478873e-01	5.645507e+13	1.430096e+14	3.906147e+13	5.638271e+03	4.662695e+03	2.576820e+03	0	4.307498e-04
1.290000e+09	2.289163e+12	0.000000e+00	6.478873e-01	5.589423e+13	1.418402e+14	3.889791e+13	5.628364e+03	4.656082e+03	2.573165e+03	0	4.291721e-04
1.300000e+09	2.264253e+12	0.000000e+00	6.478873e-01	5.534281e+13	1.406886e+14	3.873542e+13	5.618555e+03	4.649531e+03	2.569545e+03	0	4.276097e-04
1.310000e+09	2.239763e+12	0.000000e+00	6.478873e-01	5.480059e+13	1.395543e+14	3.857400e+13	5.608843e+03	4.643040e+03	2.565958e+03	0	4.260624e-04
1.320000e+09	2.215681e+12	0.000000e+00	6.478873e-01	5.426736e+13	1.384371e+14	3.841363e+13	5.599224e+03	4.636609e+03	2.562404e+03	0	4.245299e-04
1.330000e+09	2.191999e+12	0.000000e+00	6.478873e-01	5.374291e+13	1.373366e+14	3.825431e+13	5.589699e+03	4.630236e+03	2.558882e+03	0	4.230120e-04
1.340000e+09	2.168708e+12	0.000000e+00	6.478873e-01	5.322703e+13	1.362523e+14	3.809604e+13	5.580266e+03	4.623921e+03	2.555392e+03	0	4.215084e-04
1.350000e+09	2.145799e+12	0.000000e+00	6.478873e-01	5.271955e+13	1.351841e+14	3.793879e+13	5.570923e+03	4.617662e+03	2.551933e+03	0	4.200189e-04
1.360000e+09	2.123263e+12	0.000000e+00	6.478873e-01	5.222025e+13	1.341313e+14	3.778258e+13	5.561668e+03	4.611460e+03	2.548505e+03	0	4.185434e-04
