#t		Qconv[W]	Ri[Rp]		R*[Rp]		Qc[W]		Qm[W]		Qr[W]		Tcmb[K]		Tl[K]		Tup[K]		RiFlag		Bs[T]
0.000000e+00	6.820398e+13	0.000000e+00	6.453900e-01	1.008220e+15	6.886918e+13	1.435473e+14	1.080432e+04	3.919877e+03	2.421573e+03	0	1.285519e-03
1.000000e+07	6.656049e+13	0.000000e+00	6.453900e-01	9.847506e+14	7.783034e+13	1.427520e+14	1.072439e+04	3.993036e+03	2.466768e+03	0	1.275109e-03
2.000000e+07	6.494046e+13	0.000000e+00	6.453900e-01	9.616199e+14	8.732981e+13	1.419626e+14	1.064630e+04	4.063922e+03	2.510559e+03	0	1.264679e-03
3.000000e+07	6.334517e+13	0.000000e+00	6.453900e-01	9.388452e+14	9.733305e+13	1.411791e+14	1.057003e+04	4.132523e+03	2.552939e+03	0	1.254237e-03
4.000000e+07	6.177583e+13	0.000000e+00	6.453900e-01	9.164435e+14	1.078002e+14	1.404014e+14	1.049555e+04	4.198830e+03	2.593901e+03	0	1.243793e-03
5.000000e+07	6.023356e+13	0.000000e+00	6.453900e-01	8.944306e+14	1.186869e+14	1.396295e+14	1.042282e+04	4.262841e+03	2.633445e+03	0	1.233355e-03
6.000000e+07	5.871943e+13	0.000000e+00	6.453900e-01	8.728210e+14	1.299448e+14	1.388634e+14	1.035183e+04	4.324553e+03	2.671569e+03	0	1.222932e-03
7.000000e+07	5.723438e+13	0.000000e+00	6.453900e-01	8.516279e+14	1.415225e+14	1.381030e+14	1.028254e+04	4.383973e+03	2.708276e+03	0	1.212535e-03
8.000000e+07	5.577928e+13	0.000000e+00	6.453900e-01	8.308635e+14	1.533661e+14	1.373483e+14	1.021492e+04	4.441108e+03	2.743572e+03	0	1.202171e-03
9.000000e+07	5.435488e+13	0.000000e+00	6.453900e-01	8.105382e+14	1.654205e+14	1.365992e+14	1.014893e+04	4.495971e+03	2.777465e+03	0	1.191849e-03
1.000000e+08	5.296185e+13	0.000000e+00	6.453900e-01	7.906612e+14	1.776295e+14	1.358556e+14	1.008454e+04	4.548582e+03	2.809966e+03	0	1.181579e-03
1.100000e+08	5.160074e+13	0.000000e+00	6.453900e-01	7.712400e+14	1.899371e+14	1.351175e+14	1.002172e+04	4.598961e+03	2.841089e+03	0	1.171369e-03
1.200000e+08	5.027199e+13	0.000000e+00	6.453900e-01	7.522809e+14	2.022879e+14	1.343849e+14	9.960423e+03	4.647135e+03	2.870849e+03	0	1.161227e-03
1.300000e+08	4.897596e+13	0.000000e+00	6.453900e-01	7.337884e+14	2.146278e+14	1.336578e+14	9.900626e+03	4.693135e+03	2.899267e+03	0	1.151161e-03
1.400000e+08	4.771286e+13	0.000000e+00	6.453900e-01	7.157656e+14	2.269047e+14	1.329360e+14	9.842287e+03	4.736996e+03	2.926363e+03	0	1.141179e-03
1.500000e+08	4.648284e+13	0.000000e+00	6.453900e-01	6.982143e+14	2.390689e+14	1.322196e+14	9.785371e+03	4.778755e+03	2.952160e+03	0	1.131287e-03
1.600000e+08	4.528592e+13	0.000000e+00	6.453900e-01	6.811346e+14	2.510734e+14	1.315084e+14	9.729839e+03	4.818455e+03	2.976685e+03	0	1.121492e-03
1.700000e+08	4.412204e+13	0.000000e+00	6.453900e-01	6.645254e+14	2.628747e+14	1.308025e+14	9.675656e+03	4.856139e+03	2.999965e+03	0	1.111801e-03
1.800000e+08	4.299103e+13	0.000000e+00	6.453900e-01	6.483845e+14	2.744324e+14	1.301018e+14	9.622784e+03	4.891856e+03	3.022030e+03	0	1.102219e-03
1.900000e+08	4.189265e+13	0.000000e+00	6.453900e-01	6.327080e+14	2.857102e+14	1.294063e+14	9.571188e+03	4.925655e+03	3.042910e+03	0	1.092751e-03
2.000000e+08	4.082659e+13	0.000000e+00	6.453900e-01	6.174915e+14	2.966752e+14	1.287159e+14	9.520830e+03	4.957588e+03	3.062638e+03	0	1.083402e-03
2.100000e+08	3.979243e+13	0.000000e+00	6.453900e-01	6.027289e+14	3.072986e+14	1.280305e+14	9.471675e+03	4.987710e+03	3.081246e+03	0	1.074176e-03
2.200000e+08	3.878971e+13	0.000000e+00	6.453900e-01	5.884138e+14	3.175554e+14	1.273502e+14	9.423687e+03	5.016075e+03	3.098769e+03	0	1.065076e-03
2.300000e+08	3.781792e+13	0.000000e+00	6.453900e-01	5.745384e+14	3.274243e+14	1.266749e+14	9.376831e+03	5.042739e+03	3.115241e+03	0	1.056106e-03
2.400000e+08	3.687646e+13	0.000000e+00	6.453900e-01	5.610946e+14	3.368878e+14	1.260045e+14	9.331072e+03	5.067760e+03	3.130698e+03	0	1.047269e-03
2.500000e+08	3.596472e+13	0.000000e+00	6.453900e-01	5.480735e+14	3.459318e+14	1.253391e+14	9.286378e+03	5.091196e+03	3.145176e+03	0	1.038566e-03
2.600000e+08	3.508204e+13	0.000000e+00	6.453900e-01	5.354654e+14	3.545459e+14	1.246785e+14	9.242713e+03	5.113103e+03	3.158710e+03	0	1.029999e-03
2.700000e+08	3.422771e+13	0.000000e+00	6.453900e-01	5.232606e+14	3.627227e+14	1.240227e+14	9.200047e+03	5.133541e+03	3.171335e+03	0	1.021569e-03
2.800000e+08	3.340102e+13	0.000000e+00	6.453900e-01	5.114486e+14	3.704573e+14	1.233718e+14	9.158347e+03	5.152566e+03	3.183088e+03	0	1.013277e-03
2.900000e+08	3.260122e+13	0.000000e+00	6.453900e-01	5.000190e+14	3.777484e+14	1.227255e+14	9.117583e+03	5.170236e+03	3.194004e+03	0	1.005124e-03
3.000000e+08	3.182755e+13	0.000000e+00	6.453900e-01	4.889608e+14	3.845965e+14	1.220840e+14	9.077724e+03	5.186606e+03	3.204117e+03	0	9.971096e-04
3.100000e+08	3.107925e+13	0.000000e+00	6.453900e-01	4.782632e+14	3.910046e+14	1.214472e+14	9.038741e+03	5.201733e+03	3.213462e+03	0	9.892331e-04
3.200000e+08	3.035552e+13	0.000000e+00	6.453900e-01	4.679150e+14	3.969777e+14	1.208150e+14	9.000605e+03	5.215671e+03	3.222073e+03	0	9.814941e-04
3.300000e+08	2.965561e+13	0.000000e+00	6.453900e-01	4.579053e+14	4.025225e+14	1.201874e+14	8.963290e+03	5.228473e+03	3.229981e+03	0	9.738919e-04
3.400000e+08	2.897873e+13	0.000000e+00	6.453900e-01	4.482229e+14	4.076472e+14	1.195644e+14	8.926768e+03	5.240192e+03	3.237221e+03	0	9.664252e-04
3.500000e+08	2.832411e+13	0.000000e+00	6.453900e-01	4.388571e+14	4.123616e+14	1.189458e+14	8.891014e+03	5.250877e+03	3.243822e+03	0	9.590926e-04
3.600000e+08	2.769099e+13	0.000000e+00	6.453900e-01	4.297969e+14	4.166762e+14	1.183318e+14	8.856003e+03	5.260579e+03	3.249815e+03	0	9.518926e-04
3.700000e+08	2.707862e+13	0.000000e+00	6.453900e-01	4.210316e+14	4.206028e+14	1.177222e+14	8.821711e+03	5.269345e+03	3.255230e+03	0	9.448234e-04
3.800000e+08	2.648627e+13	0.000000e+00	6.453900e-01	4.125509e+14	4.241539e+14	1.171170e+14	8.788113e+03	5.277221e+03	3.260096e+03	0	9.378831e-04
3.900000e+08	2.591320e+13	0.000000e+00	6.453900e-01	4.043444e+14	4.273423e+14	1.165162e+14	8.755189e+03	5.284252e+03	3.264440e+03	0	9.310696e-04
4.000000e+08	2.535871e+13	0.000000e+00	6.453900e-01	3.964020e+14	4.301816e+14	1.159198e+14	8.722916e+03	5.290481e+03	3.268288e+03	0	9.243807e-04
4.100000e+08	2.482212e+13	0.000000e+00	6.453900e-01	3.887142e+14	4.326856e+14	1.153276e+14	8.691273e+03	5.295949e+03	3.271666e+03	0	9.178142e-04
4.200000e+08	2.430275e+13	0.000000e+00	6.453900e-01	3.812712e+14	4.348681e+14	1.147397e+14	8.660241e+03	5.300697e+03	3.274599e+03	0	9.113677e-04
4.300000e+08	2.379996e+13	0.000000e+00	6.453900e-01	3.740639e+14	4.367432e+14	1.141560e+14	8.629799e+03	5.304762e+03	3.277110e+03	0	9.050388e-04
4.400000e+08	2.331310e+13	0.000000e+00	6.453900e-01	3.670833e+14	4.383250e+14	1.135766e+14	8.599930e+03	5.308182e+03	3.279223e+03	0	8.988250e-04
4.500000e+08	2.284158e+13	0.000000e+00	6.453900e-01	3.603208e+14	4.396276e+14	1.130013e+14	8.570615e+03	5.310991e+03	3.280958e+03	0	8.927240e-04
4.600000e+08	2.238480e+13	0.000000e+00	6.453900e-01	3.537680e+14	4.406644e+14	1.124301e+14	8.541838e+03	5.313222e+03	3.282337e+03	0	8.867330e-04
4.700000e+08	2.194220e+13	0.000000e+00	6.453900e-01	3.474168e+14	4.414491e+14	1.118630e+14	8.513581e+03	5.314909e+03	3.283379e+03	0	8.808498e-04
4.800000e+08	2.151322e+13	0.000000e+00	6.453900e-01	3.412594e+14	4.419951e+14	1.113000e+14	8.485828e+03	5.316081e+03	3.284103e+03	0	8.750716e-04
4.900000e+08	2.109733e+13	0.000000e+00	6.453900e-01	3.352884e+14	4.423153e+14	1.107410e+14	8.458565e+03	5.316768e+03	3.284527e+03	0	8.693960e-04
5.000000e+08	2.069403e+13	0.000000e+00	6.453900e-01	3.294965e+14	4.424223e+14	1.101861e+14	8.431776e+03	5.316997e+03	3.284669e+03	0	8.638205e-04
5.100000e+08	2.030283e+13	0.000000e+00	6.453900e-01	3.238767e+14	4.423283e+14	1.096350e+14	8.405448e+03	5.316796e+03	3.284544e+03	0	8.583426e-04
5.200000e+08	1.992327e+13	0.000000e+00	6.453900e-01	3.184226e+14	4.420452e+14	1.090880e+14	8.379566e+03	5.316189e+03	3.284169e+03	0	8.529599e-04
5.300000e+08	1.955488e+13	0.000000e+00	6.453900e-01	3.131275e+14	4.415844e+14	1.085448e+14	8.354118e+03	5.315199e+03	3.283558e+03	0	8.476700e-04
5.400000e+08	1.919724e+13	0.000000e+00	6.453900e-01	3.079855e+14	4.409568e+14	1.080055e+14	8.329091e+03	5.313851e+03	3.282725e+03	0	8.424705e-04
5.500000e+08	1.884993e+13	0.000000e+00	6.453900e-01	3.029906e+14	4.401731e+14	1.074700e+14	8.304473e+03	5.312165e+03	3.281684e+03	0	8.373590e-04
5.600000e+08	1.851256e+13	0.000000e+00	6.453900e-01	2.981371e+14	4.392433e+14	1.069383e+14	8.280252e+03	5.310163e+03	3.280446e+03	0	8.323333e-04
5.700000e+08	1.818474e+13	0.000000e+00	6.453900e-01	2.934198e+14	4.381771e+14	1.064104e+14	8.256417e+03	5.307862e+03	3.279025e+03	0	8.273911e-04
5.800000e+08	1.786612e+13	0.000000e+00	6.453900e-01	2.888335e+14	4.369838e+14	1.058863e+14	8.232958e+03	5.305283e+03	3.277432e+03	0	8.225302e-04
5.900000e+08	1.755634e+13	0.000000e+00	6.453900e-01	2.843731e+14	4.356721e+14	1.053658e+14	8.209863e+03	5.302442e+03	3.275677e+03	0	8.177486e-04
6.000000e+08	1.725507e+13	0.000000e+00	6.453900e-01	2.800340e+14	4.342507e+14	1.048491e+14	8.187123e+03	5.299356e+03	3.273770e+03	0	8.130440e-04
6.100000e+08	1.696200e+13	0.000000e+00	6.453900e-01	2.758116e+14	4.327272e+14	1.043360e+14	8.164729e+03	5.296040e+03	3.271722e+03	0	8.084145e-04
6.200000e+08	1.667681e+13	0.000000e+00	6.453900e-01	2.717016e+14	4.311095e+14	1.038265e+14	8.142671e+03	5.292510e+03	3.269541e+03	0	8.038581e-04
6.300000e+08	1.639921e+13	0.000000e+00	6.453900e-01	2.676999e+14	4.294045e+14	1.033206e+14	8.120939e+03	5.288779e+03	3.267236e+03	0	7.993729e-04
6.400000e+08	1.612892e+13	0.000000e+00	6.453900e-01	2.638024e+14	4.276192e+14	1.028183e+14	8.099526e+03	5.284861e+03	3.264816e+03	0	7.949569e-04
6.500000e+08	1.586569e+13	0.000000e+00	6.453900e-01	2.600054e+14	4.257602e+14	1.023196e+14	8.078424e+03	5.280768e+03	3.262287e+03	0	7.906084e-04
6.600000e+08	1.560924e+13	0.000000e+00	6.453900e-01	2.563052e+14	4.238334e+14	1.018243e+14	8.057624e+03	5.276512e+03	3.259658e+03	0	7.863256e-04
6.700000e+08	1.535934e+13	0.000000e+00	6.453900e-01	2.526985e+14	4.218446e+14	1.013325e+14	8.037118e+03	5.272105e+03	3.256935e+03	0	7.821067e-04
6.800000e+08	1.511575e+13	0.000000e+00	6.453900e-01	2.491817e+14	4.197992e+14	1.008442e+14	8.016900e+03	5.267556e+03	3.254125e+03	0	7.779501e-04
6.900000e+08	1.487825e+13	0.000000e+00	6.453900e-01	2.457518e+14	4.177025e+14	1.003593e+14	7.996961e+03	5.262876e+03	3.251234e+03	0	7.738541e-04
7.000000e+08	1.464663e+13	0.000000e+00	6.453900e-01	2.424058e+14	4.155593e+14	9.987783e+13	7.977296e+03	5.258074e+03	3.248268e+03	0	7.698173e-04
7.100000e+08	1.442067e+13	0.000000e+00	6.453900e-01	2.391406e+14	4.133739e+14	9.939971e+13	7.957898e+03	5.253160e+03	3.245232e+03	0	7.658380e-04
7.200000e+08	1.420018e+13	0.000000e+00	6.453900e-01	2.359535e+14	4.111509e+14	9.892492e+13	7.938759e+03	5.248142e+03	3.242132e+03	0	7.619148e-04
7.300000e+08	1.398498e+13	0.000000e+00	6.453900e-01	2.328419e+14	4.088942e+14	9.845346e+13	7.919875e+03	5.243027e+03	3.238972e+03	0	7.580463e-04
7.400000e+08	1.377488e+13	0.000000e+00	6.453900e-01	2.298032e+14	4.066075e+14	9.798529e+13	7.901238e+03	5.237823e+03	3.235757e+03	0	7.542311e-04
7.500000e+08	1.356971e+13	0.000000e+00	6.453900e-01	2.268349e+14	4.042944e+14	9.752038e+13	7.882843e+03	5.232537e+03	3.232492e+03	0	7.504677e-04
7.600000e+08	1.336931e+13	0.000000e+00	6.453900e-01	2.239347e+14	4.019583e+14	9.705871e+13	7.864685e+03	5.227177e+03	3.229180e+03	0	7.467551e-04
7.700000e+08	1.317352e+13	0.000000e+00	6.453900e-01	2.211004e+14	3.996022e+14	9.660025e+13	7.846759e+03	5.221747e+03	3.225826e+03	0	7.430918e-04
7.800000e+08	1.298219e+13	0.000000e+00	6.453900e-01	2.183297e+14	3.972292e+14	9.614498e+13	7.829058e+03	5.216255e+03	3.222433e+03	0	7.394766e-04
7.900000e+08	1.279517e+13	0.000000e+00	6.453900e-01	2.156206e+14	3.948419e+14	9.569287e+13	7.811578e+03	5.210705e+03	3.219005e+03	0	7.359084e-04
8.000000e+08	1.261232e+13	0.000000e+00	6.453900e-01	2.129712e+14	3.924428e+14	9.524389e+13	7.794313e+03	5.205103e+03	3.215544e+03	0	7.323861e-04
8.100000e+08	1.243350e+13	0.000000e+00	6.453900e-01	2.103796e+14	3.900344e+14	9.479803e+13	7.777261e+03	5.199455e+03	3.212055e+03	0	7.289084e-04
8.200000e+08	1.225860e+13	0.000000e+00	6.453900e-01	2.078438e+14	3.876188e+14	9.435525e+13	7.760414e+03	5.193763e+03	3.208539e+03	0	7.254745e-04
8.300000e+08	1.208749e+13	0.000000e+00	6.453900e-01	2.053622e+14	3.851982e+14	9.391554e+13	7.743770e+03	5.188034e+03	3.205000e+03	0	7.220831e-04
8.400000e+08	1.192005e+13	0.000000e+00	6.453900e-01	2.029331e+14	3.827746e+14	9.347886e+13	7.727324e+03	5.182272e+03	3.201440e+03	0	7.187333e-04
8.500000e+08	1.175616e+13	0.000000e+00	6.453900e-01	2.005549e+14	3.803495e+14	9.304519e+13	7.711071e+03	5.176479e+03	3.197861e+03	0	7.154242e-04
8.600000e+08	1.159572e+13	0.000000e+00	6.453900e-01	1.982261e+14	3.779249e+14	9.261452e+13	7.695008e+03	5.170660e+03	3.194266e+03	0	7.121547e-04
8.700000e+08	1.143862e+13	0.000000e+00	6.453900e-01	1.959450e+14	3.755023e+14	9.218680e+13	7.679131e+03	5.164819e+03	3.190658e+03	0	7.089241e-04
8.800000e+08	1.128477e+13	0.000000e+00	6.453900e-01	1.937104e+14	3.730829e+14	9.176203e+13	7.663436e+03	5.158958e+03	3.187037e+03	0	7.057313e-04
8.900000e+08	1.113406e+13	0.000000e+00	6.453900e-01	1.915208e+14	3.706682e+14	9.134018e+13	7.647919e+03	5.153081e+03	3.183406e+03	0	7.025755e-04
9.000000e+08	1.098641e+13	0.000000e+00	6.453900e-01	1.893750e+14	3.682596e+14	9.092123e+13	7.632577e+03	5.147190e+03	3.179767e+03	0	6.994559e-04
9.100000e+08	1.084172e+13	0.000000e+00	6.453900e-01	1.872716e+14	3.658580e+14	9.050514e+13	7.617406e+03	5.141288e+03	3.176121e+03	0	6.963717e-04
9.200000e+08	1.069990e+13	0.000000e+00	6.453900e-01	1.852094e+14	3.634646e+14	9.009191e+13	7.602403e+03	5.135379e+03	3.172471e+03	0	6.933222e-04
9.300000e+08	1.056089e+13	0.000000e+00	6.453900e-01	1.831873e+14	3.610804e+14	8.968150e+13	7.587564e+03	5.129463e+03	3.168816e+03	0	6.903064e-04
9.400000e+08	1.042458e+13	0.000000e+00	6.453900e-01	1.812040e+14	3.587062e+14	8.927390e+13	7.572887e+03	5.123544e+03	3.165160e+03	0	6.873238e-04
9.500000e+08	1.029092e+13	0.000000e+00	6.453900e-01	1.792587e+14	3.563428e+14	8.886907e+13	7.558368e+03	5.117624e+03	3.161502e+03	0	6.843736e-04
9.600000e+08	1.015983e+13	0.000000e+00	6.453900e-01	1.773500e+14	3.539912e+14	8.846701e+13	7.544004e+03	5.111704e+03	3.157845e+03	0	6.814551e-04
9.700000e+08	1.003122e+13	0.000000e+00	6.453900e-01	1.754772e+14	3.516518e+14	8.806769e+13	7.529793e+03	5.105787e+03	3.154190e+03	0	6.785676e-04
9.800000e+08	9.905049e+12	0.000000e+00	6.453900e-01	1.736391e+14	3.493255e+14	8.767109e+13	7.515731e+03	5.099874e+03	3.150537e+03	0	6.757105e-04
9.900000e+08	9.781233e+12	0.000000e+00	6.453900e-01	1.718349e+14	3.470128e+14	8.727718e+13	7.501815e+03	5.093967e+03	3.146887e+03	0	6.728832e-04
1.000000e+09	9.659714e+12	0.000000e+00	6.453900e-01	1.700636e+14	3.447141e+14	8.688594e+13	7.488044e+03	5.088067e+03	3.143243e+03	0	6.700850e-04
1.010000e+09	9.540429e+12	0.000000e+00	6.453900e-01	1.683244e+14	3.424300e+14	8.649736e+13	7.474414e+03	5.082176e+03	3.139603e+03	0	6.673153e-04
1.020000e+09	9.423320e+12	0.000000e+00	6.453900e-01	1.666164e+14	3.401610e+14	8.611141e+13	7.460923e+03	5.076295e+03	3.135970e+03	0	6.645736e-04
1.030000e+09	9.308330e+12	0.000000e+00	6.453900e-01	1.649389e+14	3.379074e+14	8.572807e+13	7.447569e+03	5.070425e+03	3.132344e+03	0	6.618594e-04
1.040000e+09	9.195402e+12	0.000000e+00	6.453900e-01	1.632909e+14	3.356695e+14	8.534732e+13	7.434348e+03	5.064568e+03	3.128726e+03	0	6.591719e-04
1.050000e+09	9.084485e+12	0.000000e+00	6.453900e-01	1.616718e+14	3.334477e+14	8.496915e+13	7.421259e+03	5.058725e+03	3.125117e+03	0	6.565108e-04
1.060000e+09	8.975526e+12	0.000000e+00	6.453900e-01	1.600808e+14	3.312423e+14	8.459352e+13	7.408300e+03	5.052897e+03	3.121516e+03	0	6.538755e-04
1.070000e+09	8.868475e+12	0.000000e+00	6.453900e-01	1.585172e+14	3.290535e+14	8.422043e+13	7.395467e+03	5.047084e+03	3.117925e+03	0	6.512656e-04
1.080000e+09	8.763285e+12	0.000000e+00	6.453900e-01	1.569803e+14	3.268816e+14	8.384984e+13	7.382759e+03	5.041289e+03	3.114345e+03	0	6.486804e-04
1.090000e+09	8.659909e+12	0.000000e+00	6.453900e-01	1.554695e+14	3.247267e+14	8.348175e+13	7.370174e+03	5.035510e+03	3.110775e+03	0	6.461196e-04
1.100000e+09	8.558302e+12	0.000000e+00	6.453900e-01	1.539842e+14	3.225890e+14	8.311613e+13	7.357710e+03	5.029750e+03	3.107216e+03	0	6.435826e-04
1.110000e+09	8.458420e+12	0.000000e+00	6.453900e-01	1.525236e+14	3.204686e+14	8.275296e+13	7.345364e+03	5.024008e+03	3.103670e+03	0	6.410691e-04
1.120000e+09	8.360222e+12	0.000000e+00	6.453900e-01	1.510872e+14	3.183656e+14	8.239222e+13	7.333135e+03	5.018287e+03	3.100135e+03	0	6.385786e-04
1.130000e+09	8.263666e+12	0.000000e+00	6.453900e-01	1.496744e+14	3.162801e+14	8.203390e+13	7.321021e+03	5.012585e+03	3.096613e+03	0	6.361107e-04
1.140000e+09	8.168714e+12	0.000000e+00	6.453900e-01	1.482847e+14	3.142123e+14	8.167797e+13	7.309019e+03	5.006904e+03	3.093103e+03	0	6.336649e-04
1.150000e+09	8.075326e+12	0.000000e+00	6.453900e-01	1.469175e+14	3.121621e+14	8.132442e+13	7.297129e+03	5.001245e+03	3.089607e+03	0	6.312409e-04
1.160000e+09	7.983467e+12	0.000000e+00	6.453900e-01	1.455723e+14	3.101296e+14	8.097323e+13	7.285348e+03	4.995608e+03	3.086125e+03	0	6.288383e-04
1.170000e+09	7.893099e+12	0.000000e+00	6.453900e-01	1.442485e+14	3.081148e+14	8.062438e+13	7.273674e+03	4.989992e+03	3.082656e+03	0	6.264566e-04
1.180000e+09	7.804189e+12	0.000000e+00	6.453900e-01	1.429458e+14	3.061177e+14	8.027785e+13	7.262106e+03	4.984400e+03	3.079201e+03	0	6.240955e-04
1.190000e+09	7.716703e+12	0.000000e+00	6.453900e-01	1.416635e+14	3.041384e+14	7.993362e+13	7.250643e+03	4.978830e+03	3.075760e+03	0	6.217547e-04
1.200000e+09	7.630608e+12	0.000000e+00	6.453900e-01	1.404012e+14	3.021767e+14	7.959168e+13	7.239281e+03	4.973284e+03	3.072334e+03	0	6.194337e-04
1.210000e+09	7.545873e+12	0.000000e+00	6.453900e-01	1.391585e+14	3.002326e+14	7.925200e+13	7.228021e+03	4.967762e+03	3.068922e+03	0	6.171323e-04
1.220000e+09	7.462466e+12	0.000000e+00	6.453900e-01	1.379349e+14	2.983062e+14	7.891458e+13	7.216860e+03	4.962264e+03	3.065526e+03	0	6.148501e-04
1.230000e+09	7.380358e+12	0.000000e+00	6.453900e-01	1.367301e+14	2.963973e+14	7.857938e+13	7.205797e+03	4.956790e+03	3.062144e+03	0	6.125868e-04
1.240000e+09	7.299521e+12	0.000000e+00	6.453900e-01	1.355435e+14	2.945059e+14	7.824641e+13	7.194830e+03	4.951340e+03	3.058778e+03	0	6.103420e-04
1.250000e+09	7.219925e+12	0.000000e+00	6.453900e-01	1.343749e+14	2.926318e+14	7.791563e+13	7.183958e+03	4.945916e+03	3.055426e+03	0	6.081154e-04
1.260000e+09	7.141544e+12	0.000000e+00	6.453900e-01	1.332237e+14	2.907751e+14	7.758703e+13	7.173179e+03	4.940516e+03	3.052091e+03	0	6.059068e-04
1.270000e+09	7.064352e+12	0.000000e+00	6.453900e-01	1.320897e+14	2.889357e+14	7.726060e+13	7.162492e+03	4.935141e+03	3.048770e+03	0	6.037158e-04
1.280000e+09	6.988322e+12	0.000000e+00	6.453900e-01	1.309724e+14	2.871134e+14	7.693631e+13	7.151896e+03	4.929791e+03	3.045465e+03	0	6.015422e-04
1.290000e+09	6.913430e+12	0.000000e+00	6.453900e-01	1.298715e+14	2.853081e+14	7.661416e+13	7.141390e+03	4.924467e+03	3.042176e+03	0	5.993856e-04
1.300000e+09	6.839652e+12	0.000000e+00	6.453900e-01	1.287867e+14	2.835198e+14	7.629412e+13	7.130971e+03	4.919168e+03	3.038903e+03	0	5.972458e-04
1.310000e+09	6.766963e+12	0.000000e+00	6.453900e-01	1.277176e+14	2.817482e+14	7.597618e+13	7.120639e+03	4.913895e+03	3.035645e+03	0	5.951225e-04
1.320000e+09	6.695341e+12	0.000000e+00	6.453900e-01	1.266639e+14	2.799934e+14	7.566032e+13	7.110393e+03	4.908647e+03	3.032403e+03	0	5.930155e-04
1.330000e+09	6.624764e+12	0.000000e+00	6.453900e-01	1.256252e+14	2.782551e+14	7.534652e+13	7.100231e+03	4.903425e+03	3.029177e+03	0	5.909244e-04
1.340000e+09	6.555210e+12	0.000000e+00	6.453900e-01	1.246014e+14	2.765333e+14	7.503478e+13	7.090152e+03	4.898229e+03	3.025967e+03	0	5.888491e-04
1.350000e+09	6.486658e+12	0.000000e+00	6.453900e-01	1.235919e+14	2.748278e+14	7.472507e+13	7.080154e+03	4.893058e+03	3.022773e+03	0	5.867892e-04
1.360000e+09	6.419087e+12	0.000000e+00	6.453900e-01	1.225967e+14	2.731385e+14	7.441738e+13	7.070238e+03	4.887913e+03	3.019594e+03	0	5.847446e-04
