#t		Qconv[W]	Ri[Rp]		R*[Rp]		Qc[W]		Qm[W]		Qr[W]		Tcmb[K]		Tl[K]		Tup[K]		RiFlag		Bs[T]
0.000000e+00	1.800244e+13	0.000000e+00	6.428573e-01	2.897291e+14	7.119683e+13	1.850431e+14	9.159295e+03	3.753632e+03	2.530290e+03	0	8.161249e-04
1.000000e+07	1.789323e+13	0.000000e+00	6.428573e-01	2.882713e+14	7.385038e+13	1.840179e+14	9.142112e+03	3.773828e+03	2.543903e+03	0	8.144713e-04
2.000000e+07	1.778262e+13	0.000000e+00	6.428573e-01	2.867972e+14	7.654333e+13	1.830002e+14	9.125016e+03	3.793765e+03	2.557343e+03	0	8.127895e-04
3.000000e+07	1.767066e+13	0.000000e+00	6.428573e-01	2.853073e+14	7.927382e+13	1.819902e+14	9.108006e+03	3.813440e+03	2.570606e+03	0	8.110801e-04
4.000000e+07	1.755741e+13	0.000000e+00	6.428573e-01	2.838026e+14	8.203990e+13	1.809878e+14	9.091085e+03	3.832852e+03	2.583691e+03	0	8.093437e-04
5.000000e+07	1.744293e+13	0.000000e+00	6.428573e-01	2.822836e+14	8.483957e+13	1.799928e+14	9.074252e+03	3.851998e+03	2.596597e+03	0	8.075809e-04
6.000000e+07	1.732729e+13	0.000000e+00	6.428573e-01	2.807513e+14	8.767075e+13	1.790052e+14	9.057510e+03	3.870876e+03	2.609323e+03	0	8.057923e-04
7.000000e+07	1.721055e+13	0.000000e+00	6.428573e-01	2.792063e+14	9.053130e+13	1.780250e+14	9.040858e+03	3.889485e+03	2.621867e+03	0	8.039785e-04
8.000000e+07	1.709276e+13	0.000000e+00	6.428573e-01	2.776493e+14	9.341906e+13	1.770521e+14	9.024298e+03	3.907823e+03	2.634228e+03	0	8.021402e-04
9.000000e+07	1.697399e+13	0.000000e+00	6.428573e-01	2.760812e+14	9.633179e+13	1.760864e+14	9.007829e+03	3.925887e+03	2.646405e+03	0	8.002780e-04
1.000000e+08	1.685431e+13	0.000000e+00	6.428573e-01	2.745027e+14	9.926721e+13	1.751279e+14	8.991454e+03	3.943678e+03	2.658398e+03	0	7.983926e-04
1.100000e+08	1.673376e+13	0.000000e+00	6.428573e-01	2.729144e+14	1.022230e+14	1.741765e+14	8.975171e+03	3.961193e+03	2.670204e+03	0	7.964845e-04
1.200000e+08	1.661241e+13	0.000000e+00	6.428573e-01	2.713173e+14	1.051969e+14	1.732321e+14	8.958983e+03	3.978431e+03	2.681825e+03	0	7.945546e-04
1.300000e+08	1.649032e+13	0.000000e+00	6.428573e-01	2.697118e+14	1.081864e+14	1.722948e+14	8.942889e+03	3.995392e+03	2.693258e+03	0	7.926033e-04
1.400000e+08	1.636755e+13	0.000000e+00	6.428573e-01	2.680989e+14	1.111893e+14	1.713643e+14	8.926890e+03	4.012075e+03	2.704504e+03	0	7.906315e-04
1.500000e+08	1.624416e+13	0.000000e+00	6.428573e-01	2.664792e+14	1.142030e+14	1.704408e+14	8.910987e+03	4.028479e+03	2.715561e+03	0	7.886397e-04
1.600000e+08	1.612021e+13	0.000000e+00	6.428573e-01	2.648534e+14	1.172253e+14	1.695241e+14	8.895179e+03	4.044603e+03	2.726431e+03	0	7.866286e-04
1.700000e+08	1.599575e+13	0.000000e+00	6.428573e-01	2.632222e+14	1.202537e+14	1.686141e+14	8.879467e+03	4.060448e+03	2.737111e+03	0	7.845990e-04
1.800000e+08	1.587084e+13	0.000000e+00	6.428573e-01	2.615863e+14	1.232858e+14	1.677109e+14	8.863852e+03	4.076013e+03	2.747603e+03	0	7.825514e-04
1.900000e+08	1.574554e+13	0.000000e+00	6.428573e-01	2.599464e+14	1.263192e+14	1.668143e+14	8.848334e+03	4.091297e+03	2.757907e+03	0	7.804865e-04
2.000000e+08	1.561990e+13	0.000000e+00	6.428573e-01	2.583032e+14	1.293515e+14	1.659243e+14	8.832913e+03	4.106302e+03	2.768021e+03	0	7.784050e-04
2.100000e+08	1.549397e+13	0.000000e+00	6.428573e-01	2.566573e+14	1.323805e+14	1.650408e+14	8.817589e+03	4.121028e+03	2.777948e+03	0	7.763075e-04
2.200000e+08	1.536782e+13	0.000000e+00	6.428573e-01	2.550093e+14	1.354038e+14	1.641638e+14	8.802362e+03	4.135474e+03	2.787686e+03	0	7.741948e-04
2.300000e+08	1.524148e+13	0.000000e+00	6.428573e-01	2.533599e+14	1.384190e+14	1.632933e+14	8.787233e+03	4.149642e+03	2.797236e+03	0	7.720675e-04
2.400000e+08	1.511502e+13	0.000000e+00	6.428573e-01	2.517098e+14	1.414239e+14	1.624291e+14	8.772201e+03	4.163532e+03	2.806599e+03	0	7.699262e-04
2.500000e+08	1.498848e+13	0.000000e+00	6.428573e-01	2.500594e+14	1.444163e+14	1.615713e+14	8.757268e+03	4.177144e+03	2.815775e+03	0	7.677716e-04
2.600000e+08	1.486190e+13	0.000000e+00	6.428573e-01	2.484095e+14	1.473941e+14	1.607198e+14	8.742431e+03	4.190481e+03	2.824766e+03	0	7.656043e-04
2.700000e+08	1.473535e+13	0.000000e+00	6.428573e-01	2.467605e+14	1.503550e+14	1.598745e+14	8.727693e+03	4.203543e+03	2.833571e+03	0	7.634249e-04
2.800000e+08	1.460886e+13	0.000000e+00	6.428573e-01	2.451131e+14	1.532970e+14	1.590353e+14	8.713052e+03	4.216332e+03	2.842191e+03	0	7.612342e-04
2.900000e+08	1.448248e+13	0.000000e+00	6.428573e-01	2.434677e+14	1.562181e+14	1.582023e+14	8.698508e+03	4.228848e+03	2.850628e+03	0	7.590327e-04
3.000000e+08	1.435625e+13	0.000000e+00	6.428573e-01	2.418250e+14	1.591164e+14	1.573754e+14	8.684062e+03	4.241093e+03	2.858883e+03	0	7.568211e-04
3.100000e+08	1.423022e+13	0.000000e+00	6.428573e-01	2.401854e+14	1.619898e+14	1.565544e+14	8.669713e+03	4.253070e+03	2.866956e+03	0	7.545999e-04
3.200000e+08	1.410442e+13	0.000000e+00	6.428573e-01	2.385494e+14	1.648365e+14	1.557395e+14	8.655461e+03	4.264779e+03	2.874849e+03	0	7.523697e-04
3.300000e+08	1.397891e+13	0.000000e+00	6.428573e-01	2.369175e+14	1.676549e+14	1.549305e+14	8.641306e+03	4.276222e+03	2.882563e+03	0	7.501312e-04
3.400000e+08	1.385370e+13	0.000000e+00	6.428573e-01	2.352902e+14	1.704431e+14	1.541273e+14	8.627247e+03	4.287402e+03	2.890099e+03	0	7.478849e-04
3.500000e+08	1.372885e+13	0.000000e+00	6.428573e-01	2.336679e+14	1.731996e+14	1.533300e+14	8.613285e+03	4.298321e+03	2.897460e+03	0	7.456314e-04
3.600000e+08	1.360438e+13	0.000000e+00	6.428573e-01	2.320511e+14	1.759228e+14	1.525384e+14	8.599419e+03	4.308981e+03	2.904645e+03	0	7.433713e-04
3.700000e+08	1.348034e+13	0.000000e+00	6.428573e-01	2.304401e+14	1.786111e+14	1.517526e+14	8.585648e+03	4.319383e+03	2.911657e+03	0	7.411050e-04
3.800000e+08	1.335675e+13	0.000000e+00	6.428573e-01	2.288354e+14	1.812632e+14	1.509725e+14	8.571973e+03	4.329531e+03	2.918498e+03	0	7.388332e-04
3.900000e+08	1.323365e+13	0.000000e+00	6.428573e-01	2.272373e+14	1.838776e+14	1.501980e+14	8.558393e+03	4.339427e+03	2.925168e+03	0	7.365564e-04
4.000000e+08	1.311106e+13	0.000000e+00	6.428573e-01	2.256462e+14	1.864533e+14	1.494291e+14	8.544907e+03	4.349073e+03	2.931671e+03	0	7.342751e-04
4.100000e+08	1.298902e+13	0.000000e+00	6.428573e-01	2.240624e+14	1.889888e+14	1.486658e+14	8.531516e+03	4.358472e+03	2.938007e+03	0	7.319897e-04
4.200000e+08	1.286755e+13	0.000000e+00	6.428573e-01	2.224864e+14	1.914832e+14	1.479080e+14	8.518218e+03	4.367627e+03	2.944178e+03	0	7.297008e-04
4.300000e+08	1.274668e+13	0.000000e+00	6.428573e-01	2.209183e+14	1.939354e+14	1.471556e+14	8.505014e+03	4.376540e+03	2.950187e+03	0	7.274089e-04
4.400000e+08	1.262644e+13	0.000000e+00	6.428573e-01	2.193585e+14	1.963443e+14	1.464086e+14	8.491902e+03	4.385215e+03	2.956034e+03	0	7.251143e-04
4.500000e+08	1.250684e+13	0.000000e+00	6.428573e-01	2.178073e+14	1.987092e+14	1.456670e+14	8.478883e+03	4.393654e+03	2.961723e+03	0	7.228177e-04
4.600000e+08	1.238792e+13	0.000000e+00	6.428573e-01	2.162650e+14	2.010292e+14	1.449307e+14	8.465956e+03	4.401860e+03	2.967254e+03	0	7.205194e-04
4.700000e+08	1.226969e+13	0.000000e+00	6.428573e-01	2.147317e+14	2.033035e+14	1.441997e+14	8.453120e+03	4.409836e+03	2.972631e+03	0	7.182198e-04
4.800000e+08	1.215217e+13	0.000000e+00	6.428573e-01	2.132078e+14	2.055315e+14	1.434740e+14	8.440374e+03	4.417585e+03	2.977854e+03	0	7.159193e-04
4.900000e+08	1.203538e+13	0.000000e+00	6.428573e-01	2.116934e+14	2.077125e+14	1.427534e+14	8.427719e+03	4.425111e+03	2.982927e+03	0	7.136185e-04
5.000000e+08	1.191933e+13	0.000000e+00	6.428573e-01	2.101888e+14	2.098461e+14	1.420380e+14	8.415154e+03	4.432415e+03	2.987851e+03	0	7.113175e-04
5.100000e+08	1.180406e+13	0.000000e+00	6.428573e-01	2.086942e+14	2.119317e+14	1.413277e+14	8.402678e+03	4.439503e+03	2.992629e+03	0	7.090169e-04
5.200000e+08	1.168956e+13	0.000000e+00	6.428573e-01	2.072097e+14	2.139690e+14	1.406224e+14	8.390290e+03	4.446376e+03	2.997262e+03	0	7.067170e-04
5.300000e+08	1.157585e+13	0.000000e+00	6.428573e-01	2.057355e+14	2.159576e+14	1.399222e+14	8.377990e+03	4.453037e+03	3.001752e+03	0	7.044181e-04
5.400000e+08	1.146296e+13	0.000000e+00	6.428573e-01	2.042718e+14	2.178973e+14	1.392270e+14	8.365777e+03	4.459491e+03	3.006103e+03	0	7.021206e-04
5.500000e+08	1.135088e+13	0.000000e+00	6.428573e-01	2.028187e+14	2.197878e+14	1.385367e+14	8.353651e+03	4.465740e+03	3.010315e+03	0	6.998249e-04
5.600000e+08	1.123963e+13	0.000000e+00	6.428573e-01	2.013764e+14	2.216290e+14	1.378514e+14	8.341611e+03	4.471788e+03	3.014392e+03	0	6.975311e-04
5.700000e+08	1.112923e+13	0.000000e+00	6.428573e-01	1.999448e+14	2.234208e+14	1.371709e+14	8.329657e+03	4.477637e+03	3.018335e+03	0	6.952396e-04
5.800000e+08	1.101967e+13	0.000000e+00	6.428573e-01	1.985243e+14	2.251631e+14	1.364952e+14	8.317787e+03	4.483292e+03	3.022147e+03	0	6.929508e-04
5.900000e+08	1.091097e+13	0.000000e+00	6.428573e-01	1.971148e+14	2.268561e+14	1.358243e+14	8.306002e+03	4.488755e+03	3.025829e+03	0	6.906648e-04
6.000000e+08	1.080314e+13	0.000000e+00	6.428573e-01	1.957165e+14	2.284996e+14	1.351582e+14	8.294300e+03	4.494030e+03	3.029385e+03	0	6.883820e-04
6.100000e+08	1.069618e+13	0.000000e+00	6.428573e-01	1.943293e+14	2.300938e+14	1.344968e+14	8.282680e+03	4.499120e+03	3.032816e+03	0	6.861026e-04
6.200000e+08	1.059010e+13	0.000000e+00	6.428573e-01	1.929535e+14	2.316390e+14	1.338401e+14	8.271143e+03	4.504027e+03	3.036124e+03	0	6.838269e-04
6.300000e+08	1.048490e+13	0.000000e+00	6.428573e-01	1.915890e+14	2.331352e+14	1.331880e+14	8.259687e+03	4.508757e+03	3.039312e+03	0	6.815551e-04
6.400000e+08	1.038059e+13	0.000000e+00	6.428573e-01	1.902359e+14	2.345829e+14	1.325404e+14	8.248313e+03	4.513311e+03	3.042382e+03	0	6.792873e-04
6.500000e+08	1.027717e+13	0.000000e+00	6.428573e-01	1.888942e+14	2.359821e+14	1.318975e+14	8.237018e+03	4.517693e+03	3.045336e+03	0	6.770239e-04
6.600000e+08	1.017464e+13	0.000000e+00	6.428573e-01	1.875639e+14	2.373333e+14	1.312591e+14	8.225803e+03	4.521906e+03	3.048176e+03	0	6.747650e-04
6.700000e+08	1.007301e+13	0.000000e+00	6.428573e-01	1.862452e+14	2.386367e+14	1.306251e+14	8.214666e+03	4.525954e+03	3.050905e+03	0	6.725108e-04
6.800000e+08	9.972273e+12	0.000000e+00	6.428573e-01	1.849379e+14	2.398930e+14	1.299957e+14	8.203608e+03	4.529839e+03	3.053524e+03	0	6.702614e-04
6.900000e+08	9.872437e+12	0.000000e+00	6.428573e-01	1.836421e+14	2.411024e+14	1.293706e+14	8.192627e+03	4.533566e+03	3.056036e+03	0	6.680172e-04
7.000000e+08	9.773499e+12	0.000000e+00	6.428573e-01	1.823578e+14	2.422653e+14	1.287499e+14	8.181723e+03	4.537136e+03	3.058442e+03	0	6.657782e-04
7.100000e+08	9.675459e+12	0.000000e+00	6.428573e-01	1.810849e+14	2.433823e+14	1.281336e+14	8.170895e+03	4.540553e+03	3.060746e+03	0	6.635445e-04
7.200000e+08	9.578317e+12	0.000000e+00	6.428573e-01	1.798236e+14	2.444539e+14	1.275215e+14	8.160142e+03	4.543820e+03	3.062948e+03	0	6.613164e-04
7.300000e+08	9.482071e+12	0.000000e+00	6.428573e-01	1.785737e+14	2.454806e+14	1.269138e+14	8.149464e+03	4.546940e+03	3.065052e+03	0	6.590939e-04
7.400000e+08	9.386720e+12	0.000000e+00	6.428573e-01	1.773352e+14	2.464630e+14	1.263103e+14	8.138860e+03	4.549917e+03	3.067058e+03	0	6.568771e-04
7.500000e+08	9.292261e+12	0.000000e+00	6.428573e-01	1.761081e+14	2.474017e+14	1.257110e+14	8.128330e+03	4.552753e+03	3.068970e+03	0	6.546663e-04
7.600000e+08	9.198692e+12	0.000000e+00	6.428573e-01	1.748923e+14	2.482972e+14	1.251158e+14	8.117872e+03	4.555451e+03	3.070788e+03	0	6.524615e-04
7.700000e+08	9.106009e+12	0.000000e+00	6.428573e-01	1.736879e+14	2.491502e+14	1.245249e+14	8.107486e+03	4.558014e+03	3.072516e+03	0	6.502628e-04
7.800000e+08	9.014210e+12	0.000000e+00	6.428573e-01	1.724947e+14	2.499613e+14	1.239380e+14	8.097172e+03	4.560445e+03	3.074155e+03	0	6.480703e-04
7.900000e+08	8.923291e+12	0.000000e+00	6.428573e-01	1.713127e+14	2.507310e+14	1.233552e+14	8.086928e+03	4.562747e+03	3.075707e+03	0	6.458840e-04
8.000000e+08	8.833247e+12	0.000000e+00	6.428573e-01	1.701419e+14	2.514603e+14	1.227764e+14	8.076754e+03	4.564923e+03	3.077174e+03	0	6.437042e-04
8.100000e+08	8.744075e+12	0.000000e+00	6.428573e-01	1.689822e+14	2.521495e+14	1.222017e+14	8.066650e+03	4.566975e+03	3.078557e+03	0	6.415307e-04
8.200000e+08	8.655768e+12	0.000000e+00	6.428573e-01	1.678335e+14	2.527995e+14	1.216309e+14	8.056614e+03	4.568907e+03	3.079859e+03	0	6.393638e-04
8.300000e+08	8.568324e+12	0.000000e+00	6.428573e-01	1.666958e+14	2.534108e+14	1.210641e+14	8.046646e+03	4.570720e+03	3.081081e+03	0	6.372035e-04
8.400000e+08	8.481736e+12	0.000000e+00	6.428573e-01	1.655691e+14	2.539843e+14	1.205012e+14	8.036746e+03	4.572418e+03	3.082226e+03	0	6.350498e-04
8.500000e+08	8.395998e+12	0.000000e+00	6.428573e-01	1.644531e+14	2.545206e+14	1.199421e+14	8.026913e+03	4.574004e+03	3.083295e+03	0	6.329027e-04
8.600000e+08	8.311107e+12	0.000000e+00	6.428573e-01	1.633479e+14	2.550204e+14	1.193870e+14	8.017146e+03	4.575479e+03	3.084289e+03	0	6.307624e-04
8.700000e+08	8.227054e+12	0.000000e+00	6.428573e-01	1.622534e+14	2.554843e+14	1.188356e+14	8.007444e+03	4.576847e+03	3.085211e+03	0	6.286288e-04
8.800000e+08	8.143835e+12	0.000000e+00	6.428573e-01	1.611695e+14	2.559132e+14	1.182880e+14	7.997807e+03	4.578109e+03	3.086062e+03	0	6.265021e-04
8.900000e+08	8.061443e+12	0.000000e+00	6.428573e-01	1.600961e+14	2.563077e+14	1.177442e+14	7.988234e+03	4.579269e+03	3.086844e+03	0	6.243821e-04
9.000000e+08	7.979871e+12	0.000000e+00	6.428573e-01	1.590332e+14	2.566686e+14	1.172042e+14	7.978725e+03	4.580329e+03	3.087558e+03	0	6.222690e-04
9.100000e+08	7.899114e+12	0.000000e+00	6.428573e-01	1.579806e+14	2.569964e+14	1.166678e+14	7.969279e+03	4.581291e+03	3.088207e+03	0	6.201627e-04
9.200000e+08	7.819164e+12	0.000000e+00	6.428573e-01	1.569383e+14	2.572920e+14	1.161351e+14	7.959895e+03	4.582157e+03	3.088791e+03	0	6.180633e-04
9.300000e+08	7.740015e+12	0.000000e+00	6.428573e-01	1.559062e+14	2.575560e+14	1.156061e+14	7.950574e+03	4.582931e+03	3.089312e+03	0	6.159708e-04
9.400000e+08	7.661660e+12	0.000000e+00	6.428573e-01	1.548842e+14	2.577892e+14	1.150807e+14	7.941313e+03	4.583613e+03	3.089772e+03	0	6.138852e-04
9.500000e+08	7.584091e+12	0.000000e+00	6.428573e-01	1.538722e+14	2.579921e+14	1.145588e+14	7.932113e+03	4.584207e+03	3.090173e+03	0	6.118064e-04
9.600000e+08	7.507302e+12	0.000000e+00	6.428573e-01	1.528701e+14	2.581657e+14	1.140405e+14	7.922972e+03	4.584714e+03	3.090515e+03	0	6.097346e-04
9.700000e+08	7.431286e+12	0.000000e+00	6.428573e-01	1.518779e+14	2.583104e+14	1.135258e+14	7.913892e+03	4.585137e+03	3.090800e+03	0	6.076696e-04
9.800000e+08	7.356035e+12	0.000000e+00	6.428573e-01	1.508954e+14	2.584271e+14	1.130145e+14	7.904870e+03	4.585478e+03	3.091029e+03	0	6.056115e-04
9.900000e+08	7.281542e+12	0.000000e+00	6.428573e-01	1.499225e+14	2.585163e+14	1.125067e+14	7.895906e+03	4.585739e+03	3.091205e+03	0	6.035603e-04
1.000000e+09	7.207800e+12	0.000000e+00	6.428573e-01	1.489591e+14	2.585787e+14	1.120024e+14	7.887000e+03	4.585921e+03	3.091328e+03	0	6.015159e-04
1.010000e+09	7.134801e+12	0.000000e+00	6.428573e-01	1.480053e+14	2.586151e+14	1.115015e+14	7.878151e+03	4.586027e+03	3.091400e+03	0	5.994783e-04
1.020000e+09	7.062538e+12	0.000000e+00	6.428573e-01	1.470608e+14	2.586261e+14	1.110040e+14	7.869358e+03	4.586059e+03	3.091421e+03	0	5.974475e-04
1.030000e+09	6.991003e+12	0.000000e+00	6.428573e-01	1.461255e+14	2.586123e+14	1.105098e+14	7.860622e+03	4.586019e+03	3.091394e+03	0	5.954236e-04
1.040000e+09	6.920189e+12	0.000000e+00	6.428573e-01	1.451994e+14	2.585744e+14	1.100190e+14	7.851941e+03	4.585908e+03	3.091319e+03	0	5.934063e-04
1.050000e+09	6.850089e+12	0.000000e+00	6.428573e-01	1.442824e+14	2.585128e+14	1.095315e+14	7.843315e+03	4.585729e+03	3.091198e+03	0	5.913958e-04
1.060000e+09	6.780695e+12	0.000000e+00	6.428573e-01	1.433744e+14	2.584285e+14	1.090473e+14	7.834743e+03	4.585482e+03	3.091032e+03	0	5.893920e-04
1.070000e+09	6.712000e+12	0.000000e+00	6.428573e-01	1.424753e+14	2.583219e+14	1.085664e+14	7.826225e+03	4.585171e+03	3.090822e+03	0	5.873949e-04
1.080000e+09	6.643996e+12	0.000000e+00	6.428573e-01	1.415850e+14	2.581936e+14	1.080886e+14	7.817760e+03	4.584796e+03	3.090570e+03	0	5.854044e-04
1.090000e+09	6.576676e+12	0.000000e+00	6.428573e-01	1.407033e+14	2.580443e+14	1.076141e+14	7.809348e+03	4.584360e+03	3.090275e+03	0	5.834205e-04
1.100000e+09	6.510032e+12	0.000000e+00	6.428573e-01	1.398303e+14	2.578745e+14	1.071428e+14	7.800989e+03	4.583863e+03	3.089941e+03	0	5.814431e-04
1.110000e+09	6.444057e+12	0.000000e+00	6.428573e-01	1.389658e+14	2.576848e+14	1.066747e+14	7.792681e+03	4.583308e+03	3.089567e+03	0	5.794722e-04
1.120000e+09	6.378743e+12	0.000000e+00	6.428573e-01	1.381097e+14	2.574758e+14	1.062097e+14	7.784424e+03	4.582696e+03	3.089154e+03	0	5.775078e-04
1.130000e+09	6.314084e+12	0.000000e+00	6.428573e-01	1.372619e+14	2.572480e+14	1.057478e+14	7.776219e+03	4.582029e+03	3.088704e+03	0	5.755499e-04
1.140000e+09	6.250071e+12	0.000000e+00	6.428573e-01	1.364224e+14	2.570021e+14	1.052889e+14	7.768063e+03	4.581307e+03	3.088218e+03	0	5.735983e-04
1.150000e+09	6.186698e+12	0.000000e+00	6.428573e-01	1.355910e+14	2.567384e+14	1.048332e+14	7.759957e+03	4.580534e+03	3.087697e+03	0	5.716530e-04
1.160000e+09	6.123958e+12	0.000000e+00	6.428573e-01	1.347676e+14	2.564576e+14	1.043805e+14	7.751901e+03	4.579709e+03	3.087141e+03	0	5.697140e-04
1.170000e+09	6.061843e+12	0.000000e+00	6.428573e-01	1.339522e+14	2.561602e+14	1.039308e+14	7.743893e+03	4.578835e+03	3.086552e+03	0	5.677813e-04
1.180000e+09	6.000346e+12	0.000000e+00	6.428573e-01	1.331447e+14	2.558466e+14	1.034841e+14	7.735934e+03	4.577913e+03	3.085930e+03	0	5.658547e-04
1.190000e+09	5.939459e+12	0.000000e+00	6.428573e-01	1.323450e+14	2.555175e+14	1.030403e+14	7.728022e+03	4.576944e+03	3.085277e+03	0	5.639343e-04
1.200000e+09	5.879177e+12	0.000000e+00	6.428573e-01	1.315529e+14	2.551732e+14	1.025996e+14	7.720158e+03	4.575930e+03	3.084593e+03	0	5.620199e-04
1.210000e+09	5.819492e+12	0.000000e+00	6.428573e-01	1.307685e+14	2.548143e+14	1.021617e+14	7.712341e+03	4.574871e+03	3.083879e+03	0	5.601116e-04
1.220000e+09	5.760396e+12	0.000000e+00	6.428573e-01	1.299915e+14	2.544412e+14	1.017267e+14	7.704571e+03	4.573769e+03	3.083137e+03	0	5.582092e-04
1.230000e+09	5.701884e+12	0.000000e+00	6.428573e-01	1.292220e+14	2.540544e+14	1.012946e+14	7.696847e+03	4.572626e+03	3.082366e+03	0	5.563127e-04
1.240000e+09	5.643948e+12	0.000000e+00	6.428573e-01	1.284599e+14	2.536544e+14	1.008654e+14	7.689168e+03	4.571442e+03	3.081568e+03	0	5.544221e-04
1.250000e+09	5.586582e+12	0.000000e+00	6.428573e-01	1.277049e+14	2.532415e+14	1.004390e+14	7.681534e+03	4.570218e+03	3.080743e+03	0	5.525373e-04
1.260000e+09	5.529778e+12	0.000000e+00	6.428573e-01	1.269572e+14	2.528163e+14	1.000154e+14	7.673945e+03	4.568957e+03	3.079893e+03	0	5.506582e-04
1.270000e+09	5.473530e+12	0.000000e+00	6.428573e-01	1.262165e+14	2.523791e+14	9.959462e+13	7.666401e+03	4.567658e+03	3.079017e+03	0	5.487847e-04
1.280000e+09	5.417832e+12	0.000000e+00	6.428573e-01	1.254829e+14	2.519303e+14	9.917659e+13	7.658900e+03	4.566323e+03	3.078117e+03	0	5.469169e-04
1.290000e+09	5.362678e+12	0.000000e+00	6.428573e-01	1.247562e+14	2.514704e+14	9.876131e+13	7.651443e+03	4.564953e+03	3.077194e+03	0	5.450547e-04
1.300000e+09	5.308060e+12	0.000000e+00	6.428573e-01	1.240363e+14	2.509997e+14	9.834876e+13	7.644029e+03	4.563550e+03	3.076248e+03	0	5.431979e-04
1.310000e+09	5.253972e+12	0.000000e+00	6.428573e-01	1.233232e+14	2.505187e+14	9.793891e+13	7.636658e+03	4.562113e+03	3.075279e+03	0	5.413466e-04
1.320000e+09	5.200408e+12	0.000000e+00	6.428573e-01	1.226167e+14	2.500277e+14	9.753174e+13	7.629329e+03	4.560644e+03	3.074289e+03	0	5.395007e-04
1.330000e+09	5.147362e+12	0.000000e+00	6.428573e-01	1.219169e+14	2.495271e+14	9.712724e+13	7.622042e+03	4.559145e+03	3.073278e+03	0	5.376600e-04
1.340000e+09	5.094827e+12	0.000000e+00	6.428573e-01	1.212235e+14	2.490172e+14	9.672537e+13	7.614796e+03	4.557615e+03	3.072247e+03	0	5.358246e-04
1.350000e+09	5.042798e+12	0.000000e+00	6.428573e-01	1.205367e+14	2.484984e+14	9.632614e+13	7.607592e+03	4.556056e+03	3.071196e+03	0	5.339944e-04
1.360000e+09	4.991268e+12	0.000000e+00	6.428573e-01	1.198562e+14	2.479710e+14	9.592950e+13	7.600428e+03	4.554469e+03	3.070127e+03	0	5.321693e-04
