#t		Qconv[W]	Ri[Rp]		R*[Rp]		Qc[W]		Qm[W]		Qr[W]		Tcmb[K]		Tl[K]		Tup[K]		RiFlag		Bs[T]
0.000000e+00	5.462244e+14	0.000000e+00	6.428574e-01	6.226560e+15	6.677089e+13	2.137833e+14	1.848082e+04	5.055005e+03	2.594676e+03	0	2.534824e-03
1.000000e+07	5.223105e+14	0.000000e+00	6.428574e-01	5.959459e+15	1.008096e+14	2.125988e+14	1.818178e+04	5.369643e+03	2.756176e+03	0	2.497279e-03
2.000000e+07	4.987206e+14	0.000000e+00	6.428574e-01	5.696069e+15	1.441575e+14	2.114231e+14	1.789532e+04	5.669090e+03	2.909879e+03	0	2.459102e-03
3.000000e+07	4.755746e+14	0.000000e+00	6.428574e-01	5.437711e+15	1.970405e+14	2.102562e+14	1.762129e+04	5.953063e+03	3.055639e+03	0	2.420455e-03
4.000000e+07	4.529799e+14	0.000000e+00	6.428574e-01	5.185568e+15	2.592455e+14	2.090981e+14	1.735948e+04	6.221344e+03	3.193344e+03	0	2.381499e-03
5.000000e+07	4.310313e+14	0.000000e+00	6.428574e-01	4.940683e+15	3.301478e+14	2.079485e+14	1.710961e+04	6.473792e+03	3.322923e+03	0	2.342397e-03
6.000000e+07	4.098101e+14	0.000000e+00	6.428574e-01	4.703951e+15	4.087654e+14	2.068076e+14	1.687136e+04	6.710359e+03	3.444350e+03	0	2.303306e-03
7.000000e+07	3.893839e+14	0.000000e+00	6.428574e-01	4.476112e+15	4.938329e+14	2.056751e+14	1.664437e+04	6.931098e+03	3.557653e+03	0	2.264384e-03
8.000000e+07	3.698060e+14	0.000000e+00	6.428574e-01	4.257749e+15	5.838866e+14	2.045511e+14	1.642821e+04	7.136166e+03	3.662912e+03	0	2.225779e-03
9.000000e+07	3.511154e+14	0.000000e+00	6.428574e-01	4.049290e+15	6.773528e+14	2.034354e+14	1.622246e+04	7.325823e+03	3.760261e+03	0	2.187631e-03
1.000000e+08	3.333376e+14	0.000000e+00	6.428574e-01	3.851011e+15	7.726304e+14	2.023280e+14	1.602665e+04	7.500431e+03	3.849885e+03	0	2.150068e-03
1.100000e+08	3.164850e+14	0.000000e+00	6.428574e-01	3.663043e+15	8.681658e+14	2.012289e+14	1.584032e+04	7.660443e+03	3.932017e+03	0	2.113206e-03
1.200000e+08	3.005581e+14	0.000000e+00	6.428574e-01	3.485386e+15	9.625133e+14	2.001378e+14	1.566297e+04	7.806393e+03	4.006932e+03	0	2.077146e-03
1.300000e+08	2.855465e+14	0.000000e+00	6.428574e-01	3.317921e+15	1.054380e+15	1.990549e+14	1.549413e+04	7.938882e+03	4.074937e+03	0	2.041972e-03
1.400000e+08	2.714309e+14	0.000000e+00	6.428574e-01	3.160429e+15	1.142656e+15	1.979799e+14	1.533331e+04	8.058567e+03	4.136370e+03	0	2.007754e-03
1.500000e+08	2.581844e+14	0.000000e+00	6.428574e-01	3.012608e+15	1.226430e+15	1.969130e+14	1.518004e+04	8.166142e+03	4.191587e+03	0	1.974547e-03
1.600000e+08	2.457738e+14	0.000000e+00	6.428574e-01	2.874089e+15	1.304990e+15	1.958539e+14	1.503387e+04	8.262328e+03	4.240958e+03	0	1.942388e-03
1.700000e+08	2.341619e+14	0.000000e+00	6.428574e-01	2.744453e+15	1.377821e+15	1.948026e+14	1.489435e+04	8.347857e+03	4.284859e+03	0	1.911303e-03
1.800000e+08	2.233078e+14	0.000000e+00	6.428574e-01	2.623248e+15	1.444585e+15	1.937590e+14	1.476106e+04	8.423460e+03	4.323665e+03	0	1.881303e-03
1.900000e+08	2.131692e+14	0.000000e+00	6.428574e-01	2.509999e+15	1.505104e+15	1.927232e+14	1.463360e+04	8.489862e+03	4.357748e+03	0	1.852390e-03
2.000000e+08	2.037027e+14	0.000000e+00	6.428574e-01	2.404226e+15	1.559340e+15	1.916949e+14	1.451159e+04	8.547767e+03	4.387470e+03	0	1.824553e-03
2.100000e+08	1.948649e+14	0.000000e+00	6.428574e-01	2.305445e+15	1.607367e+15	1.906743e+14	1.439468e+04	8.597854e+03	4.413180e+03	0	1.797775e-03
2.200000e+08	1.866134e+14	0.000000e+00	6.428574e-01	2.213185e+15	1.649353e+15	1.896611e+14	1.428252e+04	8.640774e+03	4.435210e+03	0	1.772033e-03
2.300000e+08	1.789067e+14	0.000000e+00	6.428574e-01	2.126985e+15	1.685538e+15	1.886553e+14	1.417481e+04	8.677143e+03	4.453878e+03	0	1.747296e-03
2.400000e+08	1.717054e+14	0.000000e+00	6.428574e-01	2.046405e+15	1.716214e+15	1.876570e+14	1.407126e+04	8.707542e+03	4.469481e+03	0	1.723530e-03
2.500000e+08	1.649718e+14	0.000000e+00	6.428574e-01	1.971029e+15	1.741709e+15	1.866659e+14	1.397160e+04	8.732514e+03	4.482299e+03	0	1.700699e-03
2.600000e+08	1.586705e+14	0.000000e+00	6.428574e-01	1.900462e+15	1.762373e+15	1.856821e+14	1.387558e+04	8.752564e+03	4.492590e+03	0	1.678763e-03
2.700000e+08	1.527681e+14	0.000000e+00	6.428574e-01	1.834335e+15	1.778569e+15	1.847055e+14	1.378297e+04	8.768161e+03	4.500596e+03	0	1.657684e-03
2.800000e+08	1.472339e+14	0.000000e+00	6.428574e-01	1.772304e+15	1.790658e+15	1.837360e+14	1.369355e+04	8.779737e+03	4.506538e+03	0	1.637420e-03
2.900000e+08	1.420390e+14	0.000000e+00	6.428574e-01	1.714049e+15	1.798997e+15	1.827736e+14	1.360713e+04	8.787691e+03	4.510621e+03	0	1.617931e-03
3.000000e+08	1.371570e+14	0.000000e+00	6.428574e-01	1.659277e+15	1.803933e+15	1.818183e+14	1.352353e+04	8.792386e+03	4.513030e+03	0	1.599178e-03
3.100000e+08	1.325633e+14	0.000000e+00	6.428574e-01	1.607715e+15	1.805796e+15	1.808698e+14	1.344257e+04	8.794155e+03	4.513939e+03	0	1.581121e-03
3.200000e+08	1.282354e+14	0.000000e+00	6.428574e-01	1.559114e+15	1.804898e+15	1.799283e+14	1.336412e+04	8.793302e+03	4.513501e+03	0	1.563724e-03
3.300000e+08	1.241529e+14	0.000000e+00	6.428574e-01	1.513244e+15	1.801532e+15	1.789936e+14	1.328801e+04	8.790103e+03	4.511859e+03	0	1.546950e-03
3.400000e+08	1.202967e+14	0.000000e+00	6.428574e-01	1.469896e+15	1.795973e+15	1.780657e+14	1.321413e+04	8.784809e+03	4.509141e+03	0	1.530766e-03
3.500000e+08	1.166496e+14	0.000000e+00	6.428574e-01	1.428879e+15	1.788471e+15	1.771446e+14	1.314234e+04	8.777648e+03	4.505465e+03	0	1.515137e-03
3.600000e+08	1.131958e+14	0.000000e+00	6.428574e-01	1.390015e+15	1.779260e+15	1.762301e+14	1.307254e+04	8.768824e+03	4.500937e+03	0	1.500033e-03
3.700000e+08	1.099208e+14	0.000000e+00	6.428574e-01	1.353146e+15	1.768552e+15	1.753222e+14	1.300463e+04	8.758526e+03	4.495650e+03	0	1.485425e-03
3.800000e+08	1.068116e+14	0.000000e+00	6.428574e-01	1.318125e+15	1.756539e+15	1.744210e+14	1.293850e+04	8.746920e+03	4.489693e+03	0	1.471286e-03
3.900000e+08	1.038561e+14	0.000000e+00	6.428574e-01	1.284817e+15	1.743399e+15	1.735262e+14	1.287408e+04	8.734159e+03	4.483143e+03	0	1.457588e-03
4.000000e+08	1.010432e+14	0.000000e+00	6.428574e-01	1.253101e+15	1.729288e+15	1.726379e+14	1.281126e+04	8.720381e+03	4.476071e+03	0	1.444308e-03
4.100000e+08	9.836291e+13	0.000000e+00	6.428574e-01	1.222865e+15	1.714351e+15	1.717560e+14	1.274999e+04	8.705707e+03	4.468539e+03	0	1.431423e-03
4.200000e+08	9.580608e+13	0.000000e+00	6.428574e-01	1.194007e+15	1.698716e+15	1.708804e+14	1.269018e+04	8.690251e+03	4.460606e+03	0	1.418911e-03
4.300000e+08	9.336428e+13	0.000000e+00	6.428574e-01	1.166433e+15	1.682499e+15	1.700112e+14	1.263178e+04	8.674111e+03	4.452321e+03	0	1.406753e-03
4.400000e+08	9.102982e+13	0.000000e+00	6.428574e-01	1.140058e+15	1.665803e+15	1.691482e+14	1.257471e+04	8.657378e+03	4.443732e+03	0	1.394929e-03
4.500000e+08	8.879565e+13	0.000000e+00	6.428574e-01	1.114804e+15	1.648720e+15	1.682914e+14	1.251892e+04	8.640133e+03	4.434881e+03	0	1.383422e-03
4.600000e+08	8.665532e+13	0.000000e+00	6.428574e-01	1.090598e+15	1.631332e+15	1.674408e+14	1.246436e+04	8.622449e+03	4.425804e+03	0	1.372216e-03
4.700000e+08	8.460288e+13	0.000000e+00	6.428574e-01	1.067375e+15	1.613712e+15	1.665962e+14	1.241098e+04	8.604392e+03	4.416535e+03	0	1.361296e-03
4.800000e+08	8.263290e+13	0.000000e+00	6.428574e-01	1.045074e+15	1.595925e+15	1.657577e+14	1.235872e+04	8.586020e+03	4.407105e+03	0	1.350647e-03
4.900000e+08	8.074036e+13	0.000000e+00	6.428574e-01	1.023639e+15	1.578028e+15	1.649253e+14	1.230755e+04	8.567385e+03	4.397540e+03	0	1.340256e-03
5.000000e+08	7.892064e+13	0.000000e+00	6.428574e-01	1.003019e+15	1.560070e+15	1.640987e+14	1.225742e+04	8.548536e+03	4.387865e+03	0	1.330110e-03
5.100000e+08	7.716948e+13	0.000000e+00	6.428574e-01	9.831663e+14	1.542097e+15	1.632781e+14	1.220830e+04	8.529515e+03	4.378102e+03	0	1.320199e-03
5.200000e+08	7.548296e+13	0.000000e+00	6.428574e-01	9.640372e+14	1.524147e+15	1.624633e+14	1.216014e+04	8.510360e+03	4.368270e+03	0	1.310510e-03
5.300000e+08	7.385744e+13	0.000000e+00	6.428574e-01	9.455913e+14	1.506254e+15	1.616544e+14	1.211291e+04	8.491105e+03	4.358386e+03	0	1.301035e-03
5.400000e+08	7.228957e+13	0.000000e+00	6.428574e-01	9.277911e+14	1.488448e+15	1.608512e+14	1.206657e+04	8.471780e+03	4.348467e+03	0	1.291763e-03
5.500000e+08	7.077624e+13	0.000000e+00	6.428574e-01	9.106020e+14	1.470755e+15	1.600537e+14	1.202111e+04	8.452413e+03	4.338526e+03	0	1.282685e-03
5.600000e+08	6.931455e+13	0.000000e+00	6.428574e-01	8.939918e+14	1.453196e+15	1.592619e+14	1.197648e+04	8.433028e+03	4.328576e+03	0	1.273793e-03
5.700000e+08	6.790182e+13	0.000000e+00	6.428574e-01	8.779306e+14	1.435792e+15	1.584757e+14	1.193265e+04	8.413648e+03	4.318629e+03	0	1.265080e-03
5.800000e+08	6.653557e+13	0.000000e+00	6.428574e-01	8.623907e+14	1.418558e+15	1.576951e+14	1.188961e+04	8.394291e+03	4.308693e+03	0	1.256537e-03
5.900000e+08	6.521346e+13	0.000000e+00	6.428574e-01	8.473461e+14	1.401508e+15	1.569200e+14	1.184733e+04	8.374974e+03	4.298778e+03	0	1.248159e-03
6.000000e+08	6.393335e+13	0.000000e+00	6.428574e-01	8.327726e+14	1.384655e+15	1.561504e+14	1.180578e+04	8.355714e+03	4.288892e+03	0	1.239938e-03
6.100000e+08	6.269319e+13	0.000000e+00	6.428574e-01	8.186479e+14	1.368007e+15	1.553863e+14	1.176494e+04	8.336523e+03	4.279041e+03	0	1.231868e-03
6.200000e+08	6.149112e+13	0.000000e+00	6.428574e-01	8.049507e+14	1.351573e+15	1.546275e+14	1.172479e+04	8.317414e+03	4.269233e+03	0	1.223944e-03
6.300000e+08	6.032537e+13	0.000000e+00	6.428574e-01	7.916615e+14	1.335360e+15	1.538742e+14	1.168530e+04	8.298398e+03	4.259472e+03	0	1.216160e-03
6.400000e+08	5.919427e+13	0.000000e+00	6.428574e-01	7.787617e+14	1.319372e+15	1.531261e+14	1.164647e+04	8.279484e+03	4.249764e+03	0	1.208511e-03
6.500000e+08	5.809629e+13	0.000000e+00	6.428574e-01	7.662341e+14	1.303614e+15	1.523833e+14	1.160826e+04	8.260679e+03	4.240112e+03	0	1.200992e-03
6.600000e+08	5.702996e+13	0.000000e+00	6.428574e-01	7.540623e+14	1.288088e+15	1.516457e+14	1.157066e+04	8.241993e+03	4.230520e+03	0	1.193599e-03
6.700000e+08	5.599392e+13	0.000000e+00	6.428574e-01	7.422312e+14	1.272798e+15	1.509133e+14	1.153366e+04	8.223430e+03	4.220992e+03	0	1.186327e-03
6.800000e+08	5.498689e+13	0.000000e+00	6.428574e-01	7.307264e+14	1.257742e+15	1.501861e+14	1.149723e+04	8.204996e+03	4.211530e+03	0	1.179172e-03
6.900000e+08	5.400765e+13	0.000000e+00	6.428574e-01	7.195343e+14	1.242924e+15	1.494639e+14	1.146136e+04	8.186696e+03	4.202137e+03	0	1.172130e-03
7.000000e+08	5.305506e+13	0.000000e+00	6.428574e-01	7.086421e+14	1.228341e+15	1.487468e+14	1.142604e+04	8.168534e+03	4.192814e+03	0	1.165198e-03
7.100000e+08	5.212804e+13	0.000000e+00	6.428574e-01	6.980379e+14	1.213993e+15	1.480347e+14	1.139125e+04	8.150514e+03	4.183565e+03	0	1.158372e-03
7.200000e+08	5.122558e+13	0.000000e+00	6.428574e-01	6.877102e+14	1.199880e+15	1.473277e+14	1.135698e+04	8.132637e+03	4.174389e+03	0	1.151648e-03
7.300000e+08	5.034672e+13	0.000000e+00	6.428574e-01	6.776483e+14	1.186000e+15	1.466255e+14	1.132322e+04	8.114908e+03	4.165289e+03	0	1.145024e-03
7.400000e+08	4.949054e+13	0.000000e+00	6.428574e-01	6.678420e+14	1.172349e+15	1.459283e+14	1.128994e+04	8.097327e+03	4.156265e+03	0	1.138496e-03
7.500000e+08	4.865619e+13	0.000000e+00	6.428574e-01	6.582817e+14	1.158928e+15	1.452359e+14	1.125714e+04	8.079896e+03	4.147318e+03	0	1.132062e-03
7.600000e+08	4.784284e+13	0.000000e+00	6.428574e-01	6.489582e+14	1.145733e+15	1.445483e+14	1.122481e+04	8.062617e+03	4.138448e+03	0	1.125718e-03
7.700000e+08	4.704972e+13	0.000000e+00	6.428574e-01	6.398629e+14	1.132760e+15	1.438656e+14	1.119294e+04	8.045489e+03	4.129657e+03	0	1.119463e-03
7.800000e+08	4.627609e+13	0.000000e+00	6.428574e-01	6.309875e+14	1.120008e+15	1.431875e+14	1.116151e+04	8.028515e+03	4.120944e+03	0	1.113294e-03
7.900000e+08	4.552126e+13	0.000000e+00	6.428574e-01	6.223241e+14	1.107474e+15	1.425142e+14	1.113051e+04	8.011693e+03	4.112310e+03	0	1.107207e-03
8.000000e+08	4.478457e+13	0.000000e+00	6.428574e-01	6.138654e+14	1.095153e+15	1.418456e+14	1.109993e+04	7.995025e+03	4.103754e+03	0	1.101202e-03
8.100000e+08	4.406537e+13	0.000000e+00	6.428574e-01	6.056042e+14	1.083042e+15	1.411815e+14	1.106977e+04	7.978509e+03	4.095277e+03	0	1.095275e-03
8.200000e+08	4.336306e+13	0.000000e+00	6.428574e-01	5.975337e+14	1.071140e+15	1.405221e+14	1.104001e+04	7.962146e+03	4.086878e+03	0	1.089425e-03
8.300000e+08	4.267708e+13	0.000000e+00	6.428574e-01	5.896476e+14	1.059441e+15	1.398672e+14	1.101065e+04	7.945935e+03	4.078557e+03	0	1.083650e-03
8.400000e+08	4.200686e+13	0.000000e+00	6.428574e-01	5.819397e+14	1.047942e+15	1.392169e+14	1.098167e+04	7.929875e+03	4.070314e+03	0	1.077947e-03
8.500000e+08	4.135190e+13	0.000000e+00	6.428574e-01	5.744042e+14	1.036640e+15	1.385711e+14	1.095307e+04	7.913966e+03	4.062148e+03	0	1.072316e-03
8.600000e+08	4.071168e+13	0.000000e+00	6.428574e-01	5.670353e+14	1.025532e+15	1.379297e+14	1.092484e+04	7.898207e+03	4.054059e+03	0	1.066753e-03
8.700000e+08	4.008574e+13	0.000000e+00	6.428574e-01	5.598278e+14	1.014613e+15	1.372927e+14	1.089696e+04	7.882597e+03	4.046046e+03	0	1.061258e-03
8.800000e+08	3.947361e+13	0.000000e+00	6.428574e-01	5.527766e+14	1.003881e+15	1.366601e+14	1.086944e+04	7.867134e+03	4.038109e+03	0	1.055828e-03
8.900000e+08	3.887486e+13	0.000000e+00	6.428574e-01	5.458767e+14	9.933308e+14	1.360318e+14	1.084227e+04	7.851817e+03	4.030247e+03	0	1.050462e-03
9.000000e+08	3.828907e+13	0.000000e+00	6.428574e-01	5.391234e+14	9.829598e+14	1.354079e+14	1.081543e+04	7.836646e+03	4.022460e+03	0	1.045159e-03
9.100000e+08	3.771584e+13	0.000000e+00	6.428574e-01	5.325123e+14	9.727648e+14	1.347882e+14	1.078892e+04	7.821619e+03	4.014747e+03	0	1.039917e-03
9.200000e+08	3.715479e+13	0.000000e+00	6.428574e-01	5.260390e+14	9.627419e+14	1.341728e+14	1.076274e+04	7.806734e+03	4.007107e+03	0	1.034735e-03
9.300000e+08	3.660554e+13	0.000000e+00	6.428574e-01	5.196994e+14	9.528878e+14	1.335615e+14	1.073687e+04	7.791990e+03	3.999539e+03	0	1.029611e-03
9.400000e+08	3.606775e+13	0.000000e+00	6.428574e-01	5.134896e+14	9.431992e+14	1.329545e+14	1.071131e+04	7.777386e+03	3.992043e+03	0	1.024544e-03
9.500000e+08	3.554107e+13	0.000000e+00	6.428574e-01	5.074057e+14	9.336725e+14	1.323516e+14	1.068606e+04	7.762920e+03	3.984618e+03	0	1.019532e-03
9.600000e+08	3.502518e+13	0.000000e+00	6.428574e-01	5.014440e+14	9.243048e+14	1.317528e+14	1.066110e+04	7.748591e+03	3.977263e+03	0	1.014575e-03
9.700000e+08	3.451976e+13	0.000000e+00	6.428574e-01	4.956010e+14	9.150923e+14	1.311581e+14	1.063644e+04	7.734397e+03	3.969977e+03	0	1.009671e-03
9.800000e+08	3.402452e+13	0.000000e+00	6.428574e-01	4.898735e+14	9.060326e+14	1.305675e+14	1.061206e+04	7.720336e+03	3.962760e+03	0	1.004820e-03
9.900000e+08	3.353916e+13	0.000000e+00	6.428574e-01	4.842580e+14	8.971222e+14	1.299808e+14	1.058796e+04	7.706408e+03	3.955611e+03	0	1.000019e-03
1.000000e+09	3.306342e+13	0.000000e+00	6.428574e-01	4.787515e+14	8.883576e+14	1.293982e+14	1.056414e+04	7.692610e+03	3.948528e+03	0	9.952680e-04
1.010000e+09	3.259700e+13	0.000000e+00	6.428574e-01	4.733509e+14	8.797365e+14	1.288194e+14	1.054058e+04	7.678942e+03	3.941512e+03	0	9.905659e-04
1.020000e+09	3.213967e+13	0.000000e+00	6.428574e-01	4.680534e+14	8.712555e+14	1.282447e+14	1.051729e+04	7.665400e+03	3.934562e+03	0	9.859116e-04
1.030000e+09	3.169118e+13	0.000000e+00	6.428574e-01	4.628561e+14	8.629117e+14	1.276738e+14	1.049426e+04	7.651984e+03	3.927675e+03	0	9.813041e-04
1.040000e+09	3.125127e+13	0.000000e+00	6.428574e-01	4.577564e+14	8.547027e+14	1.271067e+14	1.047149e+04	7.638693e+03	3.920853e+03	0	9.767424e-04
1.050000e+09	3.081972e+13	0.000000e+00	6.428574e-01	4.527516e+14	8.466252e+14	1.265435e+14	1.044896e+04	7.625524e+03	3.914094e+03	0	9.722256e-04
1.060000e+09	3.039632e+13	0.000000e+00	6.428574e-01	4.478393e+14	8.386766e+14	1.259841e+14	1.042668e+04	7.612476e+03	3.907396e+03	0	9.677529e-04
1.070000e+09	2.998083e+13	0.000000e+00	6.428574e-01	4.430170e+14	8.308544e+14	1.254284e+14	1.040464e+04	7.599548e+03	3.900761e+03	0	9.633232e-04
1.080000e+09	2.957306e+13	0.000000e+00	6.428574e-01	4.382824e+14	8.231559e+14	1.248765e+14	1.038284e+04	7.586738e+03	3.894185e+03	0	9.589359e-04
1.090000e+09	2.917280e+13	0.000000e+00	6.428574e-01	4.336331e+14	8.155785e+14	1.243283e+14	1.036126e+04	7.574044e+03	3.887670e+03	0	9.545900e-04
1.100000e+09	2.877987e+13	0.000000e+00	6.428574e-01	4.290672e+14	8.081197e+14	1.237838e+14	1.033992e+04	7.561465e+03	3.881213e+03	0	9.502848e-04
1.110000e+09	2.839407e+13	0.000000e+00	6.428574e-01	4.245823e+14	8.007773e+14	1.232430e+14	1.031880e+04	7.549000e+03	3.874815e+03	0	9.460194e-04
1.120000e+09	2.801522e+13	0.000000e+00	6.428574e-01	4.201766e+14	7.935487e+14	1.227057e+14	1.029790e+04	7.536646e+03	3.868474e+03	0	9.417931e-04
1.130000e+09	2.764315e+13	0.000000e+00	6.428574e-01	4.158479e+14	7.864314e+14	1.221721e+14	1.027721e+04	7.524403e+03	3.862189e+03	0	9.376052e-04
1.140000e+09	2.727769e+13	0.000000e+00	6.428574e-01	4.115945e+14	7.794234e+14	1.216420e+14	1.025674e+04	7.512269e+03	3.855961e+03	0	9.334549e-04
1.150000e+09	2.691867e+13	0.000000e+00	6.428574e-01	4.074145e+14	7.725223e+14	1.211155e+14	1.023648e+04	7.500242e+03	3.849788e+03	0	9.293416e-04
1.160000e+09	2.656594e+13	0.000000e+00	6.428574e-01	4.033060e+14	7.657260e+14	1.205924e+14	1.021642e+04	7.488322e+03	3.843669e+03	0	9.252645e-04
1.170000e+09	2.621935e+13	0.000000e+00	6.428574e-01	3.992674e+14	7.590322e+14	1.200729e+14	1.019656e+04	7.476506e+03	3.837604e+03	0	9.212231e-04
1.180000e+09	2.587874e+13	0.000000e+00	6.428574e-01	3.952970e+14	7.524393e+14	1.195568e+14	1.017690e+04	7.464793e+03	3.831593e+03	0	9.172165e-04
1.190000e+09	2.554397e+13	0.000000e+00	6.428574e-01	3.913931e+14	7.459447e+14	1.190441e+14	1.015743e+04	7.453183e+03	3.825633e+03	0	9.132443e-04
1.200000e+09	2.521491e+13	0.000000e+00	6.428574e-01	3.875542e+14	7.395468e+14	1.185349e+14	1.013816e+04	7.441673e+03	3.819725e+03	0	9.093058e-04
1.210000e+09	2.489141e+13	0.000000e+00	6.428574e-01	3.837788e+14	7.332433e+14	1.180290e+14	1.011907e+04	7.430262e+03	3.813868e+03	0	9.054004e-04
1.220000e+09	2.457336e+13	0.000000e+00	6.428574e-01	3.800654e+14	7.270327e+14	1.175265e+14	1.010017e+04	7.418949e+03	3.808061e+03	0	9.015275e-04
1.230000e+09	2.426061e+13	0.000000e+00	6.428574e-01	3.764126e+14	7.209128e+14	1.170273e+14	1.008145e+04	7.407732e+03	3.802304e+03	0	8.976865e-04
1.240000e+09	2.395305e+13	0.000000e+00	6.428574e-01	3.728189e+14	7.148820e+14	1.165314e+14	1.006291e+04	7.396611e+03	3.796595e+03	0	8.938769e-04
1.250000e+09	2.365055e+13	0.000000e+00	6.428574e-01	3.692830e+14	7.089385e+14	1.160388e+14	1.004455e+04	7.385584e+03	3.790935e+03	0	8.900982e-04
1.260000e+09	2.335301e+13	0.000000e+00	6.428574e-01	3.658037e+14	7.030807e+14	1.155494e+14	1.002636e+04	7.374649e+03	3.785322e+03	0	8.863497e-04
1.270000e+09	2.306031e+13	0.000000e+00	6.428574e-01	3.623796e+14	6.973067e+14	1.150633e+14	1.000834e+04	7.363806e+03	3.779757e+03	0	8.826311e-04
1.280000e+09	2.277234e+13	0.000000e+00	6.428574e-01	3.590096e+14	6.916150e+14	1.145803e+14	9.990491e+03	7.353053e+03	3.774238e+03	0	8.789417e-04
1.290000e+09	2.248900e+13	0.000000e+00	6.428574e-01	3.556923e+14	6.860039e+14	1.141005e+14	9.972806e+03	7.342390e+03	3.768764e+03	0	8.752811e-04
1.300000e+09	2.221018e+13	0.000000e+00	6.428574e-01	3.524267e+14	6.804719e+14	1.136239e+14	9.955282e+03	7.331814e+03	3.763336e+03	0	8.716487e-04
1.310000e+09	2.193578e+13	0.000000e+00	6.428574e-01	3.492117e+14	6.750174e+14	1.131504e+14	9.937920e+03	7.321325e+03	3.757952e+03	0	8.680442e-04
1.320000e+09	2.166571e+13	0.000000e+00	6.428574e-01	3.460461e+14	6.696390e+14	1.126800e+14	9.920714e+03	7.310921e+03	3.752612e+03	0	8.644671e-04
1.330000e+09	2.139987e+13	0.000000e+00	6.428574e-01	3.429288e+14	6.643352e+14	1.122126e+14	9.903665e+03	7.300602e+03	3.747315e+03	0	8.609168e-04
1.340000e+09	2.113817e+13	0.000000e+00	6.428574e-01	3.398589e+14	6.591043e+14	1.117484e+14	9.886768e+03	7.290366e+03	3.742061e+03	0	8.573930e-04
1.350000e+09	2.088052e+13	0.000000e+00	6.428574e-01	3.368353e+14	6.539455e+14	1.112871e+14	9.870022e+03	7.280213e+03	3.736850e+03	0	8.538953e-04
1.360000e+09	2.062684e+13	0.000000e+00	6.428574e-01	3.338571e+14	6.488567e+14	1.108289e+14	9.853424e+03	7.270141e+03	3.731680e+03	0	8.504231e-04
