#t		Qconv[W]	Ri[Rp]		R*[Rp]		Qc[W]		Qm[W]		Qr[W]		Tcmb[K]		Tl[K]		Tup[K]		RiFlag		Bs[T]
0.000000e+00	2.708203e+14	0.000000e+00	6.402880e-01	2.923816e+15	6.324214e+13	2.710490e+14	1.670267e+04	4.922185e+03	2.707750e+03	0	1.993796e-03
1.000000e+07	2.664450e+14	0.000000e+00	6.402880e-01	2.879484e+15	7.490302e+13	2.695472e+14	1.659576e+04	5.040408e+03	2.772786e+03	0	1.983001e-03
2.000000e+07	2.620277e+14	0.000000e+00	6.402880e-01	2.834773e+15	8.789291e+13	2.680566e+14	1.649045e+04	5.156432e+03	2.836612e+03	0	1.971981e-03
3.000000e+07	2.575746e+14	0.000000e+00	6.402880e-01	2.789745e+15	1.022447e+14	2.665772e+14	1.638677e+04	5.270191e+03	2.899192e+03	0	1.960746e-03
4.000000e+07	2.530925e+14	0.000000e+00	6.402880e-01	2.744464e+15	1.179786e+14	2.651088e+14	1.628472e+04	5.381622e+03	2.960492e+03	0	1.949306e-03
5.000000e+07	2.485879e+14	0.000000e+00	6.402880e-01	2.698994e+15	1.351019e+14	2.636513e+14	1.618430e+04	5.490664e+03	3.020477e+03	0	1.937672e-03
6.000000e+07	2.440674e+14	0.000000e+00	6.402880e-01	2.653399e+15	1.536082e+14	2.622047e+14	1.608554e+04	5.597256e+03	3.079114e+03	0	1.925855e-03
7.000000e+07	2.395374e+14	0.000000e+00	6.402880e-01	2.607742e+15	1.734775e+14	2.607689e+14	1.598844e+04	5.701344e+03	3.136374e+03	0	1.913866e-03
8.000000e+07	2.350046e+14	0.000000e+00	6.402880e-01	2.562087e+15	1.946763e+14	2.593438e+14	1.589299e+04	5.802873e+03	3.192226e+03	0	1.901717e-03
9.000000e+07	2.304753e+14	0.000000e+00	6.402880e-01	2.516496e+15	2.171580e+14	2.579293e+14	1.579920e+04	5.901795e+03	3.246644e+03	0	1.889420e-03
1.000000e+08	2.259560e+14	0.000000e+00	6.402880e-01	2.471030e+15	2.408632e+14	2.565253e+14	1.570706e+04	5.998065e+03	3.299604e+03	0	1.876988e-03
1.100000e+08	2.214528e+14	0.000000e+00	6.402880e-01	2.425751e+15	2.657208e+14	2.551316e+14	1.561658e+04	6.091644e+03	3.351083e+03	0	1.864436e-03
1.200000e+08	2.169718e+14	0.000000e+00	6.402880e-01	2.380716e+15	2.916490e+14	2.537484e+14	1.552774e+04	6.182497e+03	3.401062e+03	0	1.851774e-03
1.300000e+08	2.125188e+14	0.000000e+00	6.402880e-01	2.335983e+15	3.185559e+14	2.523753e+14	1.544054e+04	6.270594e+03	3.449525e+03	0	1.839019e-03
1.400000e+08	2.080996e+14	0.000000e+00	6.402880e-01	2.291606e+15	3.463412e+14	2.510125e+14	1.535496e+04	6.355912e+03	3.496460e+03	0	1.826182e-03
1.500000e+08	2.037196e+14	0.000000e+00	6.402880e-01	2.247637e+15	3.748978e+14	2.496597e+14	1.527100e+04	6.438435e+03	3.541856e+03	0	1.813279e-03
1.600000e+08	1.993840e+14	0.000000e+00	6.402880e-01	2.204127e+15	4.041124e+14	2.483168e+14	1.518864e+04	6.518150e+03	3.585708e+03	0	1.800323e-03
1.700000e+08	1.950974e+14	0.000000e+00	6.402880e-01	2.161122e+15	4.338678e+14	2.469839e+14	1.510787e+04	6.595053e+03	3.628013e+03	0	1.787328e-03
1.800000e+08	1.908646e+14	0.000000e+00	6.402880e-01	2.118666e+15	4.640439e+14	2.456609e+14	1.502866e+04	6.669145e+03	3.668772e+03	0	1.774307e-03
1.900000e+08	1.866898e+14	0.000000e+00	6.402880e-01	2.076798e+15	4.945194e+14	2.443475e+14	1.495099e+04	6.740433e+03	3.707989e+03	0	1.761275e-03
2.000000e+08	1.825767e+14	0.000000e+00	6.402880e-01	2.035558e+15	5.251730e+14	2.430439e+14	1.487485e+04	6.808932e+03	3.745671e+03	0	1.748244e-03
2.100000e+08	1.785289e+14	0.000000e+00	6.402880e-01	1.994977e+15	5.558851e+14	2.417498e+14	1.480021e+04	6.874660e+03	3.781828e+03	0	1.735228e-03
2.200000e+08	1.745496e+14	0.000000e+00	6.402880e-01	1.955087e+15	5.865383e+14	2.404652e+14	1.472706e+04	6.937643e+03	3.816476e+03	0	1.722239e-03
2.300000e+08	1.706415e+14	0.000000e+00	6.402880e-01	1.915913e+15	6.170195e+14	2.391901e+14	1.465535e+04	6.997912e+03	3.849631e+03	0	1.709288e-03
2.400000e+08	1.668071e+14	0.000000e+00	6.402880e-01	1.877478e+15	6.472204e+14	2.379243e+14	1.458507e+04	7.055504e+03	3.881313e+03	0	1.696388e-03
2.500000e+08	1.630483e+14	0.000000e+00	6.402880e-01	1.839803e+15	6.770381e+14	2.366678e+14	1.451620e+04	7.110458e+03	3.911543e+03	0	1.683549e-03
2.600000e+08	1.593670e+14	0.000000e+00	6.402880e-01	1.802902e+15	7.063763e+14	2.354204e+14	1.444870e+04	7.162820e+03	3.940348e+03	0	1.670782e-03
2.700000e+08	1.557644e+14	0.000000e+00	6.402880e-01	1.766790e+15	7.351456e+14	2.341822e+14	1.438254e+04	7.212640e+03	3.967755e+03	0	1.658096e-03
2.800000e+08	1.522416e+14	0.000000e+00	6.402880e-01	1.731475e+15	7.632643e+14	2.329531e+14	1.431770e+04	7.259970e+03	3.993792e+03	0	1.645501e-03
2.900000e+08	1.487994e+14	0.000000e+00	6.402880e-01	1.696963e+15	7.906581e+14	2.317329e+14	1.425415e+04	7.304869e+03	4.018491e+03	0	1.633005e-03
3.000000e+08	1.454381e+14	0.000000e+00	6.402880e-01	1.663259e+15	8.172607e+14	2.305216e+14	1.419186e+04	7.347394e+03	4.041885e+03	0	1.620615e-03
3.100000e+08	1.421579e+14	0.000000e+00	6.402880e-01	1.630364e+15	8.430138e+14	2.293191e+14	1.413080e+04	7.387608e+03	4.064007e+03	0	1.608338e-03
3.200000e+08	1.389587e+14	0.000000e+00	6.402880e-01	1.598275e+15	8.678672e+14	2.281254e+14	1.407094e+04	7.425575e+03	4.084893e+03	0	1.596182e-03
3.300000e+08	1.358402e+14	0.000000e+00	6.402880e-01	1.566989e+15	8.917782e+14	2.269403e+14	1.401226e+04	7.461361e+03	4.104579e+03	0	1.584150e-03
3.400000e+08	1.328017e+14	0.000000e+00	6.402880e-01	1.536500e+15	9.147122e+14	2.257639e+14	1.395471e+04	7.495032e+03	4.123102e+03	0	1.572250e-03
3.500000e+08	1.298426e+14	0.000000e+00	6.402880e-01	1.506800e+15	9.366409e+14	2.245960e+14	1.389828e+04	7.526657e+03	4.140499e+03	0	1.560484e-03
3.600000e+08	1.269619e+14	0.000000e+00	6.402880e-01	1.477880e+15	9.575435e+14	2.234365e+14	1.384293e+04	7.556304e+03	4.156809e+03	0	1.548857e-03
3.700000e+08	1.241584e+14	0.000000e+00	6.402880e-01	1.449728e+15	9.774060e+14	2.222855e+14	1.378865e+04	7.584042e+03	4.172068e+03	0	1.537372e-03
3.800000e+08	1.214310e+14	0.000000e+00	6.402880e-01	1.422332e+15	9.962202e+14	2.211428e+14	1.373538e+04	7.609941e+03	4.186315e+03	0	1.526032e-03
3.900000e+08	1.187783e+14	0.000000e+00	6.402880e-01	1.395678e+15	1.013983e+15	2.200083e+14	1.368313e+04	7.634068e+03	4.199587e+03	0	1.514838e-03
4.000000e+08	1.161989e+14	0.000000e+00	6.402880e-01	1.369751e+15	1.030698e+15	2.188820e+14	1.363184e+04	7.656491e+03	4.211923e+03	0	1.503792e-03
4.100000e+08	1.136912e+14	0.000000e+00	6.402880e-01	1.344537e+15	1.046371e+15	2.177639e+14	1.358150e+04	7.677279e+03	4.223358e+03	0	1.492895e-03
4.200000e+08	1.112535e+14	0.000000e+00	6.402880e-01	1.320019e+15	1.061015e+15	2.166538e+14	1.353209e+04	7.696497e+03	4.233931e+03	0	1.482148e-03
4.300000e+08	1.088843e+14	0.000000e+00	6.402880e-01	1.296180e+15	1.074643e+15	2.155517e+14	1.348357e+04	7.714212e+03	4.243675e+03	0	1.471551e-03
4.400000e+08	1.065818e+14	0.000000e+00	6.402880e-01	1.273005e+15	1.087276e+15	2.144576e+14	1.343592e+04	7.730486e+03	4.252628e+03	0	1.461105e-03
4.500000e+08	1.043443e+14	0.000000e+00	6.402880e-01	1.250474e+15	1.098933e+15	2.133713e+14	1.338912e+04	7.745383e+03	4.260823e+03	0	1.450808e-03
4.600000e+08	1.021700e+14	0.000000e+00	6.402880e-01	1.228571e+15	1.109639e+15	2.122928e+14	1.334315e+04	7.758964e+03	4.268294e+03	0	1.440660e-03
4.700000e+08	1.000572e+14	0.000000e+00	6.402880e-01	1.207278e+15	1.119420e+15	2.112220e+14	1.329798e+04	7.771288e+03	4.275073e+03	0	1.430660e-03
4.800000e+08	9.800404e+13	0.000000e+00	6.402880e-01	1.186577e+15	1.128303e+15	2.101590e+14	1.325358e+04	7.782413e+03	4.281194e+03	0	1.420807e-03
4.900000e+08	9.600878e+13	0.000000e+00	6.402880e-01	1.166452e+15	1.136317e+15	2.091035e+14	1.320994e+04	7.792395e+03	4.286685e+03	0	1.411098e-03
5.000000e+08	9.406968e+13	0.000000e+00	6.402880e-01	1.146884e+15	1.143492e+15	2.080555e+14	1.316704e+04	7.801289e+03	4.291578e+03	0	1.401534e-03
5.100000e+08	9.218501e+13	0.000000e+00	6.402880e-01	1.127857e+15	1.149859e+15	2.070151e+14	1.312486e+04	7.809147e+03	4.295901e+03	0	1.392111e-03
5.200000e+08	9.035305e+13	0.000000e+00	6.402880e-01	1.109354e+15	1.155448e+15	2.059821e+14	1.308337e+04	7.816020e+03	4.299682e+03	0	1.382827e-03
5.300000e+08	8.857212e+13	0.000000e+00	6.402880e-01	1.091357e+15	1.160292e+15	2.049564e+14	1.304256e+04	7.821957e+03	4.302948e+03	0	1.373681e-03
5.400000e+08	8.684057e+13	0.000000e+00	6.402880e-01	1.073851e+15	1.164422e+15	2.039381e+14	1.300241e+04	7.827005e+03	4.305724e+03	0	1.364671e-03
5.500000e+08	8.515678e+13	0.000000e+00	6.402880e-01	1.056819e+15	1.167870e+15	2.029270e+14	1.296290e+04	7.831209e+03	4.308037e+03	0	1.355793e-03
5.600000e+08	8.351919e+13	0.000000e+00	6.402880e-01	1.040247e+15	1.170667e+15	2.019231e+14	1.292402e+04	7.834612e+03	4.309909e+03	0	1.347046e-03
5.700000e+08	8.192625e+13	0.000000e+00	6.402880e-01	1.024118e+15	1.172843e+15	2.009263e+14	1.288574e+04	7.837257e+03	4.311364e+03	0	1.338427e-03
5.800000e+08	8.037647e+13	0.000000e+00	6.402880e-01	1.008418e+15	1.174430e+15	1.999366e+14	1.284805e+04	7.839183e+03	4.312423e+03	0	1.329934e-03
5.900000e+08	7.886839e+13	0.000000e+00	6.402880e-01	9.931334e+14	1.175457e+15	1.989539e+14	1.281094e+04	7.840428e+03	4.313108e+03	0	1.321563e-03
6.000000e+08	7.740061e+13	0.000000e+00	6.402880e-01	9.782491e+14	1.175952e+15	1.979782e+14	1.277438e+04	7.841029e+03	4.313439e+03	0	1.313314e-03
6.100000e+08	7.597175e+13	0.000000e+00	6.402880e-01	9.637519e+14	1.175946e+15	1.970093e+14	1.273838e+04	7.841021e+03	4.313435e+03	0	1.305182e-03
6.200000e+08	7.458050e+13	0.000000e+00	6.402880e-01	9.496289e+14	1.175465e+15	1.960473e+14	1.270290e+04	7.840437e+03	4.313114e+03	0	1.297166e-03
6.300000e+08	7.322556e+13	0.000000e+00	6.402880e-01	9.358672e+14	1.174535e+15	1.950921e+14	1.266794e+04	7.839310e+03	4.312493e+03	0	1.289262e-03
6.400000e+08	7.190571e+13	0.000000e+00	6.402880e-01	9.224548e+14	1.173182e+15	1.941437e+14	1.263348e+04	7.837669e+03	4.311591e+03	0	1.281469e-03
6.500000e+08	7.061975e+13	0.000000e+00	6.402880e-01	9.093798e+14	1.171433e+15	1.932019e+14	1.259952e+04	7.835544e+03	4.310422e+03	0	1.273784e-03
6.600000e+08	6.936653e+13	0.000000e+00	6.402880e-01	8.966307e+14	1.169310e+15	1.922667e+14	1.256604e+04	7.832962e+03	4.309001e+03	0	1.266204e-03
6.700000e+08	6.814493e+13	0.000000e+00	6.402880e-01	8.841966e+14	1.166836e+15	1.913382e+14	1.253302e+04	7.829949e+03	4.307344e+03	0	1.258727e-03
6.800000e+08	6.695388e+13	0.000000e+00	6.402880e-01	8.720669e+14	1.164034e+15	1.904161e+14	1.250046e+04	7.826531e+03	4.305464e+03	0	1.251350e-03
6.900000e+08	6.579235e+13	0.000000e+00	6.402880e-01	8.602313e+14	1.160925e+15	1.895005e+14	1.246835e+04	7.822731e+03	4.303373e+03	0	1.244072e-03
7.000000e+08	6.465935e+13	0.000000e+00	6.402880e-01	8.486801e+14	1.157528e+15	1.885913e+14	1.243666e+04	7.818572e+03	4.301085e+03	0	1.236889e-03
7.100000e+08	6.355391e+13	0.000000e+00	6.402880e-01	8.374038e+14	1.153864e+15	1.876885e+14	1.240541e+04	7.814075e+03	4.298612e+03	0	1.229800e-03
7.200000e+08	6.247512e+13	0.000000e+00	6.402880e-01	8.263932e+14	1.149951e+15	1.867920e+14	1.237456e+04	7.809261e+03	4.295963e+03	0	1.222802e-03
7.300000e+08	6.142210e+13	0.000000e+00	6.402880e-01	8.156397e+14	1.145807e+15	1.859018e+14	1.234412e+04	7.804150e+03	4.293151e+03	0	1.215893e-03
7.400000e+08	6.039398e+13	0.000000e+00	6.402880e-01	8.051347e+14	1.141447e+15	1.850178e+14	1.231407e+04	7.798758e+03	4.290185e+03	0	1.209070e-03
7.500000e+08	5.938995e+13	0.000000e+00	6.402880e-01	7.948702e+14	1.136889e+15	1.841400e+14	1.228441e+04	7.793105e+03	4.287075e+03	0	1.202333e-03
7.600000e+08	5.840923e+13	0.000000e+00	6.402880e-01	7.848383e+14	1.132146e+15	1.832682e+14	1.225513e+04	7.787206e+03	4.283830e+03	0	1.195678e-03
7.700000e+08	5.745105e+13	0.000000e+00	6.402880e-01	7.750316e+14	1.127234e+15	1.824025e+14	1.222621e+04	7.781077e+03	4.280459e+03	0	1.189103e-03
7.800000e+08	5.651468e+13	0.000000e+00	6.402880e-01	7.654429e+14	1.122166e+15	1.815429e+14	1.219766e+04	7.774734e+03	4.276969e+03	0	1.182608e-03
7.900000e+08	5.559944e+13	0.000000e+00	6.402880e-01	7.560652e+14	1.116956e+15	1.806892e+14	1.216945e+04	7.768190e+03	4.273369e+03	0	1.176189e-03
8.000000e+08	5.470463e+13	0.000000e+00	6.402880e-01	7.468919e+14	1.111614e+15	1.798414e+14	1.214159e+04	7.761458e+03	4.269666e+03	0	1.169845e-03
8.100000e+08	5.382962e+13	0.000000e+00	6.402880e-01	7.379165e+14	1.106153e+15	1.789996e+14	1.211407e+04	7.754552e+03	4.265867e+03	0	1.163574e-03
8.200000e+08	5.297379e+13	0.000000e+00	6.402880e-01	7.291329e+14	1.100584e+15	1.781635e+14	1.208687e+04	7.747483e+03	4.261979e+03	0	1.157375e-03
8.300000e+08	5.213654e+13	0.000000e+00	6.402880e-01	7.205353e+14	1.094917e+15	1.773332e+14	1.206000e+04	7.740263e+03	4.258007e+03	0	1.151245e-03
8.400000e+08	5.131728e+13	0.000000e+00	6.402880e-01	7.121178e+14	1.089161e+15	1.765087e+14	1.203345e+04	7.732903e+03	4.253958e+03	0	1.145183e-03
8.500000e+08	5.051548e+13	0.000000e+00	6.402880e-01	7.038750e+14	1.083326e+15	1.756898e+14	1.200720e+04	7.725412e+03	4.249837e+03	0	1.139187e-03
8.600000e+08	4.973059e+13	0.000000e+00	6.402880e-01	6.958017e+14	1.077420e+15	1.748766e+14	1.198125e+04	7.717801e+03	4.245650e+03	0	1.133256e-03
8.700000e+08	4.896211e+13	0.000000e+00	6.402880e-01	6.878927e+14	1.071451e+15	1.740690e+14	1.195560e+04	7.710078e+03	4.241401e+03	0	1.127389e-03
8.800000e+08	4.820955e+13	0.000000e+00	6.402880e-01	6.801432e+14	1.065428e+15	1.732669e+14	1.193025e+04	7.702252e+03	4.237097e+03	0	1.121583e-03
8.900000e+08	4.747242e+13	0.000000e+00	6.402880e-01	6.725486e+14	1.059357e+15	1.724704e+14	1.190517e+04	7.694332e+03	4.232739e+03	0	1.115837e-03
9.000000e+08	4.675028e+13	0.000000e+00	6.402880e-01	6.651042e+14	1.053245e+15	1.716793e+14	1.188038e+04	7.686325e+03	4.228335e+03	0	1.110150e-03
9.100000e+08	4.604269e+13	0.000000e+00	6.402880e-01	6.578058e+14	1.047099e+15	1.708936e+14	1.185586e+04	7.678238e+03	4.223886e+03	0	1.104521e-03
9.200000e+08	4.534923e+13	0.000000e+00	6.402880e-01	6.506491e+14	1.040923e+15	1.701134e+14	1.183160e+04	7.670079e+03	4.219398e+03	0	1.098948e-03
9.300000e+08	4.466949e+13	0.000000e+00	6.402880e-01	6.436302e+14	1.034725e+15	1.693384e+14	1.180761e+04	7.661854e+03	4.214873e+03	0	1.093429e-03
9.400000e+08	4.400307e+13	0.000000e+00	6.402880e-01	6.367451e+14	1.028508e+15	1.685688e+14	1.178388e+04	7.653568e+03	4.210315e+03	0	1.087964e-03
9.500000e+08	4.334961e+13	0.000000e+00	6.402880e-01	6.299901e+14	1.022278e+15	1.678044e+14	1.176040e+04	7.645229e+03	4.205727e+03	0	1.082552e-03
9.600000e+08	4.270874e+13	0.000000e+00	6.402880e-01	6.233616e+14	1.016040e+15	1.670452e+14	1.173717e+04	7.636841e+03	4.201113e+03	0	1.077191e-03
9.700000e+08	4.208010e+13	0.000000e+00	6.402880e-01	6.168561e+14	1.009797e+15	1.662912e+14	1.171418e+04	7.628410e+03	4.196475e+03	0	1.071879e-03
9.800000e+08	4.146337e+13	0.000000e+00	6.402880e-01	6.104703e+14	1.003555e+15	1.655423e+14	1.169143e+04	7.619940e+03	4.191816e+03	0	1.066617e-03
9.900000e+08	4.085822e+13	0.000000e+00	6.402880e-01	6.042009e+14	9.973151e+14	1.647985e+14	1.166892e+04	7.611437e+03	4.187138e+03	0	1.061403e-03
1.000000e+09	4.026432e+13	0.000000e+00	6.402880e-01	5.980448e+14	9.910829e+14	1.640598e+14	1.164664e+04	7.602904e+03	4.182444e+03	0	1.056235e-03
1.010000e+09	3.968139e+13	0.000000e+00	6.402880e-01	5.919991e+14	9.848603e+14	1.633261e+14	1.162458e+04	7.594346e+03	4.177736e+03	0	1.051113e-03
1.020000e+09	3.910913e+13	0.000000e+00	6.402880e-01	5.860608e+14	9.786509e+14	1.625973e+14	1.160274e+04	7.585767e+03	4.173017e+03	0	1.046035e-03
1.030000e+09	3.854725e+13	0.000000e+00	6.402880e-01	5.802271e+14	9.724579e+14	1.618735e+14	1.158113e+04	7.577171e+03	4.168288e+03	0	1.041002e-03
1.040000e+09	3.799549e+13	0.000000e+00	6.402880e-01	5.744953e+14	9.662830e+14	1.611545e+14	1.155972e+04	7.568560e+03	4.163551e+03	0	1.036011e-03
1.050000e+09	3.745359e+13	0.000000e+00	6.402880e-01	5.688628e+14	9.601296e+14	1.604405e+14	1.153853e+04	7.559939e+03	4.158808e+03	0	1.031062e-03
1.060000e+09	3.692128e+13	0.000000e+00	6.402880e-01	5.633270e+14	9.539990e+14	1.597312e+14	1.151755e+04	7.551310e+03	4.154061e+03	0	1.026154e-03
1.070000e+09	3.639832e+13	0.000000e+00	6.402880e-01	5.578856e+14	9.478935e+14	1.590267e+14	1.149677e+04	7.542676e+03	4.149312e+03	0	1.021286e-03
1.080000e+09	3.588449e+13	0.000000e+00	6.402880e-01	5.525362e+14	9.418150e+14	1.583270e+14	1.147618e+04	7.534041e+03	4.144561e+03	0	1.016458e-03
1.090000e+09	3.537954e+13	0.000000e+00	6.402880e-01	5.472764e+14	9.357657e+14	1.576319e+14	1.145580e+04	7.525406e+03	4.139811e+03	0	1.011667e-03
1.100000e+09	3.488326e+13	0.000000e+00	6.402880e-01	5.421042e+14	9.297470e+14	1.569416e+14	1.143561e+04	7.516774e+03	4.135063e+03	0	1.006915e-03
1.110000e+09	3.439543e+13	0.000000e+00	6.402880e-01	5.370173e+14	9.237601e+14	1.562558e+14	1.141561e+04	7.508147e+03	4.130317e+03	0	1.002199e-03
1.120000e+09	3.391585e+13	0.000000e+00	6.402880e-01	5.320137e+14	9.178065e+14	1.555747e+14	1.139579e+04	7.499528e+03	4.125576e+03	0	9.975191e-04
1.130000e+09	3.344431e+13	0.000000e+00	6.402880e-01	5.270914e+14	9.118876e+14	1.548981e+14	1.137616e+04	7.490919e+03	4.120840e+03	0	9.928746e-04
1.140000e+09	3.298063e+13	0.000000e+00	6.402880e-01	5.222485e+14	9.060043e+14	1.542260e+14	1.135671e+04	7.482321e+03	4.116110e+03	0	9.882648e-04
1.150000e+09	3.252461e+13	0.000000e+00	6.402880e-01	5.174831e+14	9.001579e+14	1.535584e+14	1.133744e+04	7.473736e+03	4.111387e+03	0	9.836887e-04
1.160000e+09	3.207608e+13	0.000000e+00	6.402880e-01	5.127934e+14	8.943494e+14	1.528953e+14	1.131834e+04	7.465167e+03	4.106673e+03	0	9.791459e-04
1.170000e+09	3.163485e+13	0.000000e+00	6.402880e-01	5.081776e+14	8.885792e+14	1.522366e+14	1.129942e+04	7.456614e+03	4.101968e+03	0	9.746355e-04
1.180000e+09	3.120076e+13	0.000000e+00	6.402880e-01	5.036340e+14	8.828485e+14	1.515823e+14	1.128067e+04	7.448079e+03	4.097273e+03	0	9.701570e-04
1.190000e+09	3.077364e+13	0.000000e+00	6.402880e-01	4.991610e+14	8.771576e+14	1.509323e+14	1.126208e+04	7.439564e+03	4.092588e+03	0	9.657097e-04
1.200000e+09	3.035333e+13	0.000000e+00	6.402880e-01	4.947570e+14	8.715073e+14	1.502866e+14	1.124366e+04	7.431069e+03	4.087915e+03	0	9.612930e-04
1.210000e+09	2.993967e+13	0.000000e+00	6.402880e-01	4.904204e+14	8.658983e+14	1.496452e+14	1.122540e+04	7.422596e+03	4.083255e+03	0	9.569062e-04
1.220000e+09	2.953253e+13	0.000000e+00	6.402880e-01	4.861497e+14	8.603308e+14	1.490081e+14	1.120730e+04	7.414147e+03	4.078606e+03	0	9.525487e-04
1.230000e+09	2.913174e+13	0.000000e+00	6.402880e-01	4.819435e+14	8.548051e+14	1.483752e+14	1.118935e+04	7.405722e+03	4.073972e+03	0	9.482200e-04
1.240000e+09	2.873717e+13	0.000000e+00	6.402880e-01	4.778003e+14	8.493222e+14	1.477464e+14	1.117157e+04	7.397322e+03	4.069351e+03	0	9.439195e-04
1.250000e+09	2.834867e+13	0.000000e+00	6.402880e-01	4.737188e+14	8.438819e+14	1.471219e+14	1.115393e+04	7.388948e+03	4.064744e+03	0	9.396467e-04
1.260000e+09	2.796613e+13	0.000000e+00	6.402880e-01	4.696977e+14	8.384844e+14	1.465014e+14	1.113644e+04	7.380601e+03	4.060153e+03	0	9.354009e-04
1.270000e+09	2.758940e+13	0.000000e+00	6.402880e-01	4.657356e+14	8.331302e+14	1.458850e+14	1.111910e+04	7.372282e+03	4.055576e+03	0	9.311817e-04
1.280000e+09	2.721837e+13	0.000000e+00	6.402880e-01	4.618313e+14	8.278193e+14	1.452727e+14	1.110191e+04	7.363992e+03	4.051016e+03	0	9.269885e-04
1.290000e+09	2.685290e+13	0.000000e+00	6.402880e-01	4.579835e+14	8.225520e+14	1.446644e+14	1.108486e+04	7.355731e+03	4.046471e+03	0	9.228208e-04
1.300000e+09	2.649288e+13	0.000000e+00	6.402880e-01	4.541912e+14	8.173278e+14	1.440601e+14	1.106796e+04	7.347500e+03	4.041943e+03	0	9.186782e-04
1.310000e+09	2.613820e+13	0.000000e+00	6.402880e-01	4.504530e+14	8.121473e+14	1.434598e+14	1.105119e+04	7.339300e+03	4.037432e+03	0	9.145601e-04
1.320000e+09	2.578874e+13	0.000000e+00	6.402880e-01	4.467680e+14	8.070105e+14	1.428633e+14	1.103456e+04	7.331130e+03	4.032938e+03	0	9.104660e-04
1.330000e+09	2.544440e+13	0.000000e+00	6.402880e-01	4.431349e+14	8.019169e+14	1.422708e+14	1.101806e+04	7.322992e+03	4.028461e+03	0	9.063955e-04
1.340000e+09	2.510506e+13	0.000000e+00	6.402880e-01	4.395528e+14	7.968672e+14	1.416822e+14	1.100170e+04	7.314887e+03	4.024002e+03	0	9.023481e-04
1.350000e+09	2.477063e+13	0.000000e+00	6.402880e-01	4.360206e+14	7.918605e+14	1.410974e+14	1.098547e+04	7.306813e+03	4.019561e+03	0	8.983233e-04
1.360000e+09	2.444100e+13	0.000000e+00	6.402880e-01	4.325373e+14	7.868974e+14	1.405164e+14	1.096938e+04	7.298773e+03	4.015138e+03	0	8.943208e-04
