#t		Qconv[W]	Ri[Rp]		R*[Rp]		Qc[W]		Qm[W]		Qr[W]		Tcmb[K]		Tl[K]		Tup[K]		RiFlag		Bs[T]
0.000000e+00	2.916509e+14	0.000000e+00	6.402879e-01	3.093475e+15	6.155364e+13	2.849668e+14	1.723507e+04	5.014766e+03	2.734164e+03	0	2.040483e-03
1.000000e+07	2.872683e+14	0.000000e+00	6.402879e-01	3.050052e+15	7.291668e+13	2.833879e+14	1.712932e+04	5.134341e+03	2.799359e+03	0	2.030211e-03
2.000000e+07	2.828295e+14	0.000000e+00	6.402879e-01	3.006128e+15	8.559872e+13	2.818208e+14	1.702503e+04	5.251857e+03	2.863431e+03	0	2.019700e-03
3.000000e+07	2.783410e+14	0.000000e+00	6.402879e-01	2.961766e+15	9.963985e+13	2.802654e+14	1.692224e+04	5.367248e+03	2.926345e+03	0	2.008959e-03
4.000000e+07	2.738094e+14	0.000000e+00	6.402879e-01	2.917027e+15	1.150686e+14	2.787216e+14	1.682095e+04	5.480448e+03	2.988064e+03	0	1.997997e-03
5.000000e+07	2.692414e+14	0.000000e+00	6.402879e-01	2.871975e+15	1.319014e+14	2.771893e+14	1.672117e+04	5.591394e+03	3.048555e+03	0	1.986823e-03
6.000000e+07	2.646436e+14	0.000000e+00	6.402879e-01	2.826673e+15	1.501417e+14	2.756684e+14	1.662293e+04	5.700025e+03	3.107783e+03	0	1.975449e-03
7.000000e+07	2.600229e+14	0.000000e+00	6.402879e-01	2.781186e+15	1.697800e+14	2.741589e+14	1.652622e+04	5.806280e+03	3.165716e+03	0	1.963884e-03
8.000000e+07	2.553858e+14	0.000000e+00	6.402879e-01	2.735576e+15	1.907937e+14	2.726606e+14	1.643106e+04	5.910104e+03	3.222323e+03	0	1.952140e-03
9.000000e+07	2.507393e+14	0.000000e+00	6.402879e-01	2.689907e+15	2.131472e+14	2.711734e+14	1.633744e+04	6.011444e+03	3.277575e+03	0	1.940228e-03
1.000000e+08	2.460899e+14	0.000000e+00	6.402879e-01	2.644242e+15	2.367922e+14	2.696973e+14	1.624538e+04	6.110249e+03	3.331446e+03	0	1.928161e-03
1.100000e+08	2.414442e+14	0.000000e+00	6.402879e-01	2.598643e+15	2.616682e+14	2.682322e+14	1.615487e+04	6.206476e+03	3.383911e+03	0	1.915950e-03
1.200000e+08	2.368086e+14	0.000000e+00	6.402879e-01	2.553170e+15	2.877035e+14	2.667778e+14	1.606590e+04	6.300083e+03	3.434948e+03	0	1.903609e-03
1.300000e+08	2.321895e+14	0.000000e+00	6.402879e-01	2.507884e+15	3.148160e+14	2.653343e+14	1.597849e+04	6.391036e+03	3.484537e+03	0	1.891151e-03
1.400000e+08	2.275931e+14	0.000000e+00	6.402879e-01	2.462843e+15	3.429138e+14	2.639015e+14	1.589261e+04	6.479303e+03	3.532663e+03	0	1.878589e-03
1.500000e+08	2.230253e+14	0.000000e+00	6.402879e-01	2.418101e+15	3.718974e+14	2.624792e+14	1.580826e+04	6.564861e+03	3.579311e+03	0	1.865936e-03
1.600000e+08	2.184917e+14	0.000000e+00	6.402879e-01	2.373712e+15	4.016599e+14	2.610674e+14	1.572544e+04	6.647691e+03	3.624472e+03	0	1.853206e-03
1.700000e+08	2.139979e+14	0.000000e+00	6.402879e-01	2.329729e+15	4.320891e+14	2.596661e+14	1.564412e+04	6.727779e+03	3.668138e+03	0	1.840412e-03
1.800000e+08	2.095490e+14	0.000000e+00	6.402879e-01	2.286198e+15	4.630686e+14	2.582751e+14	1.556431e+04	6.805119e+03	3.710305e+03	0	1.827569e-03
1.900000e+08	2.051498e+14	0.000000e+00	6.402879e-01	2.243167e+15	4.944792e+14	2.568943e+14	1.548597e+04	6.879709e+03	3.750973e+03	0	1.814689e-03
2.000000e+08	2.008049e+14	0.000000e+00	6.402879e-01	2.200676e+15	5.262002e+14	2.555237e+14	1.540910e+04	6.951555e+03	3.790145e+03	0	1.801787e-03
2.100000e+08	1.965184e+14	0.000000e+00	6.402879e-01	2.158765e+15	5.581112e+14	2.541632e+14	1.533368e+04	7.020668e+03	3.827827e+03	0	1.788874e-03
2.200000e+08	1.922943e+14	0.000000e+00	6.402879e-01	2.117470e+15	5.900928e+14	2.528126e+14	1.525969e+04	7.087063e+03	3.864027e+03	0	1.775964e-03
2.300000e+08	1.881359e+14	0.000000e+00	6.402879e-01	2.076822e+15	6.220280e+14	2.514720e+14	1.518710e+04	7.150764e+03	3.898759e+03	0	1.763069e-03
2.400000e+08	1.840465e+14	0.000000e+00	6.402879e-01	2.036852e+15	6.538036e+14	2.501412e+14	1.511590e+04	7.211797e+03	3.932035e+03	0	1.750200e-03
2.500000e+08	1.800286e+14	0.000000e+00	6.402879e-01	1.997584e+15	6.853108e+14	2.488202e+14	1.504606e+04	7.270196e+03	3.963876e+03	0	1.737371e-03
2.600000e+08	1.760847e+14	0.000000e+00	6.402879e-01	1.959041e+15	7.164461e+14	2.475088e+14	1.497755e+04	7.325997e+03	3.994300e+03	0	1.724590e-03
2.700000e+08	1.722169e+14	0.000000e+00	6.402879e-01	1.921240e+15	7.471122e+14	2.462070e+14	1.491037e+04	7.379243e+03	4.023330e+03	0	1.711869e-03
2.800000e+08	1.684267e+14	0.000000e+00	6.402879e-01	1.884197e+15	7.772185e+14	2.449147e+14	1.484447e+04	7.429978e+03	4.050992e+03	0	1.699217e-03
2.900000e+08	1.647156e+14	0.000000e+00	6.402879e-01	1.847925e+15	8.066812e+14	2.436319e+14	1.477983e+04	7.478253e+03	4.077313e+03	0	1.686644e-03
3.000000e+08	1.610845e+14	0.000000e+00	6.402879e-01	1.812432e+15	8.354245e+14	2.423584e+14	1.471644e+04	7.524120e+03	4.102321e+03	0	1.674159e-03
3.100000e+08	1.575342e+14	0.000000e+00	6.402879e-01	1.777724e+15	8.633801e+14	2.410942e+14	1.465425e+04	7.567636e+03	4.126046e+03	0	1.661768e-03
3.200000e+08	1.540651e+14	0.000000e+00	6.402879e-01	1.743805e+15	8.904870e+14	2.398391e+14	1.459325e+04	7.608857e+03	4.148521e+03	0	1.649479e-03
3.300000e+08	1.506774e+14	0.000000e+00	6.402879e-01	1.710676e+15	9.166928e+14	2.385932e+14	1.453340e+04	7.647845e+03	4.169779e+03	0	1.637299e-03
3.400000e+08	1.473708e+14	0.000000e+00	6.402879e-01	1.678336e+15	9.419517e+14	2.373564e+14	1.447469e+04	7.684663e+03	4.189852e+03	0	1.625234e-03
3.500000e+08	1.441452e+14	0.000000e+00	6.402879e-01	1.646780e+15	9.662268e+14	2.361285e+14	1.441708e+04	7.719373e+03	4.208777e+03	0	1.613288e-03
3.600000e+08	1.409999e+14	0.000000e+00	6.402879e-01	1.616003e+15	9.894869e+14	2.349095e+14	1.436055e+04	7.752040e+03	4.226588e+03	0	1.601468e-03
3.700000e+08	1.379343e+14	0.000000e+00	6.402879e-01	1.585998e+15	1.011709e+15	2.336994e+14	1.430507e+04	7.782730e+03	4.243321e+03	0	1.589776e-03
3.800000e+08	1.349473e+14	0.000000e+00	6.402879e-01	1.556755e+15	1.032875e+15	2.324980e+14	1.425061e+04	7.811510e+03	4.259012e+03	0	1.578217e-03
3.900000e+08	1.320381e+14	0.000000e+00	6.402879e-01	1.528264e+15	1.052975e+15	2.313053e+14	1.419716e+04	7.838444e+03	4.273697e+03	0	1.566793e-03
4.000000e+08	1.292053e+14	0.000000e+00	6.402879e-01	1.500513e+15	1.072003e+15	2.301212e+14	1.414467e+04	7.863600e+03	4.287413e+03	0	1.555507e-03
4.100000e+08	1.264476e+14	0.000000e+00	6.402879e-01	1.473490e+15	1.089960e+15	2.289457e+14	1.409314e+04	7.887043e+03	4.300195e+03	0	1.544361e-03
4.200000e+08	1.237637e+14	0.000000e+00	6.402879e-01	1.447180e+15	1.106849e+15	2.277786e+14	1.404253e+04	7.908839e+03	4.312078e+03	0	1.533356e-03
4.300000e+08	1.211520e+14	0.000000e+00	6.402879e-01	1.421568e+15	1.122681e+15	2.266199e+14	1.399282e+04	7.929051e+03	4.323098e+03	0	1.522494e-03
4.400000e+08	1.186109e+14	0.000000e+00	6.402879e-01	1.396641e+15	1.137469e+15	2.254696e+14	1.394398e+04	7.947743e+03	4.333290e+03	0	1.511774e-03
4.500000e+08	1.161390e+14	0.000000e+00	6.402879e-01	1.372381e+15	1.151228e+15	2.243275e+14	1.389599e+04	7.964978e+03	4.342686e+03	0	1.501198e-03
4.600000e+08	1.137344e+14	0.000000e+00	6.402879e-01	1.348773e+15	1.163979e+15	2.231936e+14	1.384884e+04	7.980817e+03	4.351322e+03	0	1.490765e-03
4.700000e+08	1.113954e+14	0.000000e+00	6.402879e-01	1.325801e+15	1.175745e+15	2.220679e+14	1.380249e+04	7.995319e+03	4.359229e+03	0	1.480475e-03
4.800000e+08	1.091205e+14	0.000000e+00	6.402879e-01	1.303446e+15	1.186548e+15	2.209502e+14	1.375693e+04	8.008544e+03	4.366440e+03	0	1.470327e-03
4.900000e+08	1.069078e+14	0.000000e+00	6.402879e-01	1.281694e+15	1.196416e+15	2.198405e+14	1.371213e+04	8.020548e+03	4.372985e+03	0	1.460321e-03
5.000000e+08	1.047555e+14	0.000000e+00	6.402879e-01	1.260527e+15	1.205377e+15	2.187388e+14	1.366808e+04	8.031386e+03	4.378894e+03	0	1.450455e-03
5.100000e+08	1.026621e+14	0.000000e+00	6.402879e-01	1.239928e+15	1.213460e+15	2.176449e+14	1.362475e+04	8.041113e+03	4.384197e+03	0	1.440728e-03
5.200000e+08	1.006256e+14	0.000000e+00	6.402879e-01	1.219881e+15	1.220695e+15	2.165589e+14	1.358213e+04	8.049779e+03	4.388922e+03	0	1.431138e-03
5.300000e+08	9.864454e+13	0.000000e+00	6.402879e-01	1.200369e+15	1.227113e+15	2.154805e+14	1.354019e+04	8.057436e+03	4.393096e+03	0	1.421684e-03
5.400000e+08	9.671711e+13	0.000000e+00	6.402879e-01	1.181377e+15	1.232746e+15	2.144099e+14	1.349892e+04	8.064131e+03	4.396747e+03	0	1.412363e-03
5.500000e+08	9.484168e+13	0.000000e+00	6.402879e-01	1.162887e+15	1.237624e+15	2.133469e+14	1.345830e+04	8.069912e+03	4.399899e+03	0	1.403175e-03
5.600000e+08	9.301663e+13	0.000000e+00	6.402879e-01	1.144885e+15	1.241781e+15	2.122914e+14	1.341831e+04	8.074824e+03	4.402577e+03	0	1.394116e-03
5.700000e+08	9.124036e+13	0.000000e+00	6.402879e-01	1.127356e+15	1.245245e+15	2.112435e+14	1.337894e+04	8.078910e+03	4.404805e+03	0	1.385185e-03
5.800000e+08	8.951131e+13	0.000000e+00	6.402879e-01	1.110283e+15	1.248051e+15	2.102029e+14	1.334017e+04	8.082212e+03	4.406605e+03	0	1.376379e-03
5.900000e+08	8.782796e+13	0.000000e+00	6.402879e-01	1.093653e+15	1.250227e+15	2.091698e+14	1.330198e+04	8.084770e+03	4.408000e+03	0	1.367696e-03
6.000000e+08	8.618883e+13	0.000000e+00	6.402879e-01	1.077451e+15	1.251804e+15	2.081439e+14	1.326437e+04	8.086623e+03	4.409010e+03	0	1.359134e-03
6.100000e+08	8.459247e+13	0.000000e+00	6.402879e-01	1.061663e+15	1.252813e+15	2.071254e+14	1.322730e+04	8.087806e+03	4.409655e+03	0	1.350691e-03
6.200000e+08	8.303748e+13	0.000000e+00	6.402879e-01	1.046276e+15	1.253282e+15	2.061140e+14	1.319078e+04	8.088357e+03	4.409955e+03	0	1.342363e-03
6.300000e+08	8.152251e+13	0.000000e+00	6.402879e-01	1.031276e+15	1.253240e+15	2.051097e+14	1.315479e+04	8.088307e+03	4.409928e+03	0	1.334149e-03
6.400000e+08	8.004622e+13	0.000000e+00	6.402879e-01	1.016652e+15	1.252714e+15	2.041126e+14	1.311931e+04	8.087690e+03	4.409592e+03	0	1.326047e-03
6.500000e+08	7.860735e+13	0.000000e+00	6.402879e-01	1.002390e+15	1.251730e+15	2.031224e+14	1.308433e+04	8.086535e+03	4.408962e+03	0	1.318053e-03
6.600000e+08	7.720466e+13	0.000000e+00	6.402879e-01	9.884792e+14	1.250315e+15	2.021393e+14	1.304984e+04	8.084874e+03	4.408056e+03	0	1.310166e-03
6.700000e+08	7.583694e+13	0.000000e+00	6.402879e-01	9.749075e+14	1.248493e+15	2.011630e+14	1.301582e+04	8.082733e+03	4.406889e+03	0	1.302384e-03
6.800000e+08	7.450305e+13	0.000000e+00	6.402879e-01	9.616639e+14	1.246289e+15	2.001936e+14	1.298227e+04	8.080139e+03	4.405475e+03	0	1.294703e-03
6.900000e+08	7.320187e+13	0.000000e+00	6.402879e-01	9.487377e+14	1.243726e+15	1.992310e+14	1.294918e+04	8.077119e+03	4.403828e+03	0	1.287121e-03
7.000000e+08	7.193232e+13	0.000000e+00	6.402879e-01	9.361185e+14	1.240825e+15	1.982751e+14	1.291652e+04	8.073695e+03	4.401962e+03	0	1.279637e-03
7.100000e+08	7.069337e+13	0.000000e+00	6.402879e-01	9.237963e+14	1.237608e+15	1.973260e+14	1.288430e+04	8.069892e+03	4.399888e+03	0	1.272247e-03
7.200000e+08	6.948401e+13	0.000000e+00	6.402879e-01	9.117615e+14	1.234096e+15	1.963834e+14	1.285250e+04	8.065732e+03	4.397620e+03	0	1.264951e-03
7.300000e+08	6.830327e+13	0.000000e+00	6.402879e-01	9.000048e+14	1.230307e+15	1.954475e+14	1.282112e+04	8.061234e+03	4.395167e+03	0	1.257745e-03
7.400000e+08	6.715023e+13	0.000000e+00	6.402879e-01	8.885172e+14	1.226261e+15	1.945181e+14	1.279014e+04	8.056420e+03	4.392543e+03	0	1.250627e-03
7.500000e+08	6.602399e+13	0.000000e+00	6.402879e-01	8.772901e+14	1.221975e+15	1.935952e+14	1.275955e+04	8.051308e+03	4.389755e+03	0	1.243596e-03
7.600000e+08	6.492369e+13	0.000000e+00	6.402879e-01	8.663151e+14	1.217466e+15	1.926787e+14	1.272935e+04	8.045916e+03	4.386815e+03	0	1.236649e-03
7.700000e+08	6.384850e+13	0.000000e+00	6.402879e-01	8.555844e+14	1.212751e+15	1.917686e+14	1.269952e+04	8.040261e+03	4.383732e+03	0	1.229784e-03
7.800000e+08	6.279761e+13	0.000000e+00	6.402879e-01	8.450901e+14	1.207844e+15	1.908648e+14	1.267006e+04	8.034359e+03	4.380515e+03	0	1.223000e-03
7.900000e+08	6.177027e+13	0.000000e+00	6.402879e-01	8.348249e+14	1.202760e+15	1.899672e+14	1.264096e+04	8.028227e+03	4.377171e+03	0	1.216294e-03
8.000000e+08	6.076572e+13	0.000000e+00	6.402879e-01	8.247817e+14	1.197513e+15	1.890760e+14	1.261221e+04	8.021878e+03	4.373709e+03	0	1.209664e-03
8.100000e+08	5.978326e+13	0.000000e+00	6.402879e-01	8.149535e+14	1.192116e+15	1.881908e+14	1.258381e+04	8.015326e+03	4.370137e+03	0	1.203110e-03
8.200000e+08	5.882220e+13	0.000000e+00	6.402879e-01	8.053337e+14	1.186582e+15	1.873118e+14	1.255574e+04	8.008585e+03	4.366462e+03	0	1.196628e-03
8.300000e+08	5.788188e+13	0.000000e+00	6.402879e-01	7.959161e+14	1.180921e+15	1.864389e+14	1.252801e+04	8.001667e+03	4.362690e+03	0	1.190217e-03
8.400000e+08	5.696166e+13	0.000000e+00	6.402879e-01	7.866943e+14	1.175146e+15	1.855720e+14	1.250060e+04	7.994584e+03	4.358828e+03	0	1.183876e-03
8.500000e+08	5.606093e+13	0.000000e+00	6.402879e-01	7.776627e+14	1.169267e+15	1.847111e+14	1.247350e+04	7.987347e+03	4.354883e+03	0	1.177603e-03
8.600000e+08	5.517911e+13	0.000000e+00	6.402879e-01	7.688154e+14	1.163293e+15	1.838562e+14	1.244671e+04	7.979967e+03	4.350859e+03	0	1.171395e-03
8.700000e+08	5.431562e+13	0.000000e+00	6.402879e-01	7.601471e+14	1.157235e+15	1.830071e+14	1.242023e+04	7.972454e+03	4.346763e+03	0	1.165253e-03
8.800000e+08	5.346993e+13	0.000000e+00	6.402879e-01	7.516524e+14	1.151100e+15	1.821638e+14	1.239404e+04	7.964818e+03	4.342599e+03	0	1.159174e-03
8.900000e+08	5.264151e+13	0.000000e+00	6.402879e-01	7.433262e+14	1.144898e+15	1.813264e+14	1.236815e+04	7.957067e+03	4.338373e+03	0	1.153156e-03
9.000000e+08	5.182985e+13	0.000000e+00	6.402879e-01	7.351638e+14	1.138636e+15	1.804947e+14	1.234254e+04	7.949210e+03	4.334090e+03	0	1.147199e-03
9.100000e+08	5.103446e+13	0.000000e+00	6.402879e-01	7.271605e+14	1.132321e+15	1.796687e+14	1.231721e+04	7.941256e+03	4.329753e+03	0	1.141300e-03
9.200000e+08	5.025488e+13	0.000000e+00	6.402879e-01	7.193115e+14	1.125961e+15	1.788483e+14	1.229216e+04	7.933212e+03	4.325367e+03	0	1.135459e-03
9.300000e+08	4.949066e+13	0.000000e+00	6.402879e-01	7.116127e+14	1.119563e+15	1.780336e+14	1.226738e+04	7.925085e+03	4.320936e+03	0	1.129674e-03
9.400000e+08	4.874135e+13	0.000000e+00	6.402879e-01	7.040598e+14	1.113131e+15	1.772245e+14	1.224286e+04	7.916883e+03	4.316464e+03	0	1.123944e-03
9.500000e+08	4.800654e+13	0.000000e+00	6.402879e-01	6.966488e+14	1.106673e+15	1.764208e+14	1.221860e+04	7.908611e+03	4.311954e+03	0	1.118267e-03
9.600000e+08	4.728583e+13	0.000000e+00	6.402879e-01	6.893757e+14	1.100192e+15	1.756226e+14	1.219459e+04	7.900277e+03	4.307410e+03	0	1.112643e-03
9.700000e+08	4.657883e+13	0.000000e+00	6.402879e-01	6.822368e+14	1.093696e+15	1.748299e+14	1.217083e+04	7.891885e+03	4.302835e+03	0	1.107069e-03
9.800000e+08	4.588515e+13	0.000000e+00	6.402879e-01	6.752285e+14	1.087187e+15	1.740426e+14	1.214732e+04	7.883442e+03	4.298231e+03	0	1.101546e-03
9.900000e+08	4.520445e+13	0.000000e+00	6.402879e-01	6.683472e+14	1.080672e+15	1.732606e+14	1.212405e+04	7.874953e+03	4.293603e+03	0	1.096072e-03
1.000000e+09	4.453636e+13	0.000000e+00	6.402879e-01	6.615895e+14	1.074153e+15	1.724839e+14	1.210102e+04	7.866422e+03	4.288952e+03	0	1.090645e-03
1.010000e+09	4.388055e+13	0.000000e+00	6.402879e-01	6.549523e+14	1.067636e+15	1.717125e+14	1.207822e+04	7.857855e+03	4.284281e+03	0	1.085265e-03
1.020000e+09	4.323670e+13	0.000000e+00	6.402879e-01	6.484322e+14	1.061122e+15	1.709464e+14	1.205564e+04	7.849256e+03	4.279592e+03	0	1.079931e-03
1.030000e+09	4.260448e+13	0.000000e+00	6.402879e-01	6.420264e+14	1.054617e+15	1.701854e+14	1.203329e+04	7.840628e+03	4.274888e+03	0	1.074642e-03
1.040000e+09	4.198361e+13	0.000000e+00	6.402879e-01	6.357318e+14	1.048123e+15	1.694295e+14	1.201116e+04	7.831977e+03	4.270171e+03	0	1.069396e-03
1.050000e+09	4.137377e+13	0.000000e+00	6.402879e-01	6.295457e+14	1.041643e+15	1.686788e+14	1.198925e+04	7.823305e+03	4.265443e+03	0	1.064193e-03
1.060000e+09	4.077470e+13	0.000000e+00	6.402879e-01	6.234652e+14	1.035179e+15	1.679331e+14	1.196755e+04	7.814617e+03	4.260706e+03	0	1.059032e-03
1.070000e+09	4.018612e+13	0.000000e+00	6.402879e-01	6.174878e+14	1.028735e+15	1.671924e+14	1.194605e+04	7.805915e+03	4.255962e+03	0	1.053911e-03
1.080000e+09	3.960775e+13	0.000000e+00	6.402879e-01	6.116108e+14	1.022313e+15	1.664567e+14	1.192477e+04	7.797203e+03	4.251212e+03	0	1.048831e-03
1.090000e+09	3.903936e+13	0.000000e+00	6.402879e-01	6.058318e+14	1.015915e+15	1.657260e+14	1.190368e+04	7.788484e+03	4.246458e+03	0	1.043789e-03
1.100000e+09	3.848068e+13	0.000000e+00	6.402879e-01	6.001483e+14	1.009542e+15	1.650002e+14	1.188279e+04	7.779760e+03	4.241702e+03	0	1.038786e-03
1.110000e+09	3.793148e+13	0.000000e+00	6.402879e-01	5.945581e+14	1.003198e+15	1.642792e+14	1.186210e+04	7.771035e+03	4.236944e+03	0	1.033821e-03
1.120000e+09	3.739153e+13	0.000000e+00	6.402879e-01	5.890590e+14	9.968833e+14	1.635631e+14	1.184160e+04	7.762310e+03	4.232187e+03	0	1.028892e-03
1.130000e+09	3.686061e+13	0.000000e+00	6.402879e-01	5.836487e+14	9.905999e+14	1.628518e+14	1.182129e+04	7.753589e+03	4.227432e+03	0	1.023999e-03
1.140000e+09	3.633849e+13	0.000000e+00	6.402879e-01	5.783251e+14	9.843490e+14	1.621452e+14	1.180117e+04	7.744873e+03	4.222680e+03	0	1.019141e-03
1.150000e+09	3.582497e+13	0.000000e+00	6.402879e-01	5.730862e+14	9.781324e+14	1.614433e+14	1.178122e+04	7.736164e+03	4.217932e+03	0	1.014318e-03
1.160000e+09	3.531985e+13	0.000000e+00	6.402879e-01	5.679300e+14	9.719510e+14	1.607462e+14	1.176146e+04	7.727465e+03	4.213189e+03	0	1.009528e-03
1.170000e+09	3.482292e+13	0.000000e+00	6.402879e-01	5.628547e+14	9.658063e+14	1.600536e+14	1.174188e+04	7.718777e+03	4.208452e+03	0	1.004771e-03
1.180000e+09	3.433400e+13	0.000000e+00	6.402879e-01	5.578583e+14	9.596989e+14	1.593657e+14	1.172247e+04	7.710102e+03	4.203722e+03	0	1.000046e-03
1.190000e+09	3.385291e+13	0.000000e+00	6.402879e-01	5.529391e+14	9.536301e+14	1.586824e+14	1.170323e+04	7.701441e+03	4.199000e+03	0	9.953534e-04
1.200000e+09	3.337945e+13	0.000000e+00	6.402879e-01	5.480953e+14	9.476006e+14	1.580035e+14	1.168416e+04	7.692797e+03	4.194287e+03	0	9.906914e-04
1.210000e+09	3.291347e+13	0.000000e+00	6.402879e-01	5.433252e+14	9.416110e+14	1.573292e+14	1.166526e+04	7.684171e+03	4.189584e+03	0	9.860596e-04
1.220000e+09	3.245479e+13	0.000000e+00	6.402879e-01	5.386273e+14	9.356623e+14	1.566594e+14	1.164652e+04	7.675563e+03	4.184891e+03	0	9.814576e-04
1.230000e+09	3.200324e+13	0.000000e+00	6.402879e-01	5.339998e+14	9.297552e+14	1.559940e+14	1.162794e+04	7.666976e+03	4.180209e+03	0	9.768846e-04
1.240000e+09	3.155867e+13	0.000000e+00	6.402879e-01	5.294413e+14	9.238899e+14	1.553329e+14	1.160952e+04	7.658410e+03	4.175539e+03	0	9.723401e-04
1.250000e+09	3.112093e+13	0.000000e+00	6.402879e-01	5.249503e+14	9.180669e+14	1.546763e+14	1.159126e+04	7.649867e+03	4.170881e+03	0	9.678235e-04
1.260000e+09	3.068986e+13	0.000000e+00	6.402879e-01	5.205252e+14	9.122869e+14	1.540240e+14	1.157316e+04	7.641348e+03	4.166236e+03	0	9.633341e-04
1.270000e+09	3.026533e+13	0.000000e+00	6.402879e-01	5.161648e+14	9.065502e+14	1.533759e+14	1.155520e+04	7.632853e+03	4.161605e+03	0	9.588715e-04
1.280000e+09	2.984718e+13	0.000000e+00	6.402879e-01	5.118676e+14	9.008571e+14	1.527322e+14	1.153740e+04	7.624384e+03	4.156987e+03	0	9.544351e-04
1.290000e+09	2.943529e+13	0.000000e+00	6.402879e-01	5.076323e+14	8.952078e+14	1.520926e+14	1.151974e+04	7.615942e+03	4.152384e+03	0	9.500243e-04
1.300000e+09	2.902951e+13	0.000000e+00	6.402879e-01	5.034575e+14	8.896023e+14	1.514573e+14	1.150223e+04	7.607526e+03	4.147796e+03	0	9.456387e-04
1.310000e+09	2.862973e+13	0.000000e+00	6.402879e-01	4.993422e+14	8.840412e+14	1.508261e+14	1.148486e+04	7.599139e+03	4.143223e+03	0	9.412776e-04
1.320000e+09	2.823581e+13	0.000000e+00	6.402879e-01	4.952849e+14	8.785244e+14	1.501991e+14	1.146763e+04	7.590780e+03	4.138665e+03	0	9.369406e-04
1.330000e+09	2.784764e+13	0.000000e+00	6.402879e-01	4.912845e+14	8.730520e+14	1.495762e+14	1.145055e+04	7.582451e+03	4.134124e+03	0	9.326272e-04
1.340000e+09	2.746509e+13	0.000000e+00	6.402879e-01	4.873399e+14	8.676243e+14	1.489573e+14	1.143360e+04	7.574152e+03	4.129599e+03	0	9.283369e-04
1.350000e+09	2.708804e+13	0.000000e+00	6.402879e-01	4.834500e+14	8.622408e+14	1.483425e+14	1.141678e+04	7.565883e+03	4.125091e+03	0	9.240692e-04
1.360000e+09	2.671640e+13	0.000000e+00	6.402879e-01	4.796136e+14	8.569020e+14	1.477316e+14	1.140010e+04	7.557645e+03	4.120599e+03	0	9.198237e-04
