#t		Qconv[W]	Ri[Rp]		R*[Rp]		Qc[W]		Qm[W]		Qr[W]		Tcmb[K]		Tl[K]		Tup[K]		RiFlag		Bs[T]
0.000000e+00	2.992981e+14	0.000000e+00	6.402880e-01	3.152312e+15	6.062049e+13	2.918645e+14	1.747240e+04	5.057468e+03	2.747389e+03	0	2.056761e-03
1.000000e+07	2.949881e+14	0.000000e+00	6.402880e-01	3.110025e+15	7.173282e+13	2.902473e+14	1.736805e+04	5.176758e+03	2.812191e+03	0	2.046840e-03
2.000000e+07	2.906158e+14	0.000000e+00	6.402880e-01	3.067188e+15	8.413668e+13	2.886423e+14	1.726508e+04	5.294082e+03	2.875925e+03	0	2.036677e-03
3.000000e+07	2.861875e+14	0.000000e+00	6.402880e-01	3.023860e+15	9.787436e+13	2.870492e+14	1.716352e+04	5.409375e+03	2.938556e+03	0	2.026280e-03
4.000000e+07	2.817098e+14	0.000000e+00	6.402880e-01	2.980102e+15	1.129775e+14	2.854681e+14	1.706338e+04	5.522572e+03	3.000049e+03	0	2.015656e-03
5.000000e+07	2.771891e+14	0.000000e+00	6.402880e-01	2.935975e+15	1.294662e+14	2.838987e+14	1.696468e+04	5.633611e+03	3.060369e+03	0	2.004816e-03
6.000000e+07	2.726321e+14	0.000000e+00	6.402880e-01	2.891540e+15	1.473486e+14	2.823410e+14	1.686743e+04	5.742428e+03	3.119482e+03	0	1.993769e-03
7.000000e+07	2.680453e+14	0.000000e+00	6.402880e-01	2.846859e+15	1.666204e+14	2.807950e+14	1.677164e+04	5.848965e+03	3.177357e+03	0	1.982524e-03
8.000000e+07	2.634354e+14	0.000000e+00	6.402880e-01	2.801995e+15	1.872648e+14	2.792604e+14	1.667732e+04	5.953165e+03	3.233962e+03	0	1.971093e-03
9.000000e+07	2.588091e+14	0.000000e+00	6.402880e-01	2.757009e+15	2.092524e+14	2.777372e+14	1.658447e+04	6.054973e+03	3.289267e+03	0	1.959487e-03
1.000000e+08	2.541730e+14	0.000000e+00	6.402880e-01	2.711963e+15	2.325417e+14	2.762254e+14	1.649311e+04	6.154339e+03	3.343246e+03	0	1.947716e-03
1.100000e+08	2.495337e+14	0.000000e+00	6.402880e-01	2.666919e+15	2.570790e+14	2.747247e+14	1.640322e+04	6.251216e+03	3.395873e+03	0	1.935793e-03
1.200000e+08	2.448976e+14	0.000000e+00	6.402880e-01	2.621935e+15	2.827995e+14	2.732352e+14	1.631482e+04	6.345561e+03	3.447124e+03	0	1.923729e-03
1.300000e+08	2.402711e+14	0.000000e+00	6.402880e-01	2.577073e+15	3.096282e+14	2.717567e+14	1.622790e+04	6.437337e+03	3.496980e+03	0	1.911538e-03
1.400000e+08	2.356605e+14	0.000000e+00	6.402880e-01	2.532389e+15	3.374801e+14	2.702892e+14	1.614245e+04	6.526511e+03	3.545422e+03	0	1.899232e-03
1.500000e+08	2.310718e+14	0.000000e+00	6.402880e-01	2.487940e+15	3.662620e+14	2.688325e+14	1.605848e+04	6.613054e+03	3.592436e+03	0	1.886824e-03
1.600000e+08	2.265108e+14	0.000000e+00	6.402880e-01	2.443780e+15	3.958733e+14	2.673866e+14	1.597597e+04	6.696944e+03	3.638008e+03	0	1.874328e-03
1.700000e+08	2.219832e+14	0.000000e+00	6.402880e-01	2.399960e+15	4.262074e+14	2.659513e+14	1.589492e+04	6.778165e+03	3.682130e+03	0	1.861755e-03
1.800000e+08	2.174943e+14	0.000000e+00	6.402880e-01	2.356531e+15	4.571527e+14	2.645266e+14	1.581531e+04	6.856705e+03	3.724795e+03	0	1.849120e-03
1.900000e+08	2.130491e+14	0.000000e+00	6.402880e-01	2.313539e+15	4.885943e+14	2.631125e+14	1.573713e+04	6.932559e+03	3.766002e+03	0	1.836436e-03
2.000000e+08	2.086524e+14	0.000000e+00	6.402880e-01	2.271029e+15	5.204154e+14	2.617087e+14	1.566037e+04	7.005727e+03	3.805749e+03	0	1.823715e-03
2.100000e+08	2.043088e+14	0.000000e+00	6.402880e-01	2.229040e+15	5.524978e+14	2.603152e+14	1.558501e+04	7.076216e+03	3.844041e+03	0	1.810971e-03
2.200000e+08	2.000222e+14	0.000000e+00	6.402880e-01	2.187612e+15	5.847242e+14	2.589320e+14	1.551103e+04	7.144036e+03	3.880883e+03	0	1.798216e-03
2.300000e+08	1.957964e+14	0.000000e+00	6.402880e-01	2.146778e+15	6.169788e+14	2.575589e+14	1.543843e+04	7.209205e+03	3.916285e+03	0	1.785462e-03
2.400000e+08	1.916349e+14	0.000000e+00	6.402880e-01	2.106570e+15	6.491486e+14	2.561959e+14	1.536717e+04	7.271746e+03	3.950260e+03	0	1.772722e-03
2.500000e+08	1.875407e+14	0.000000e+00	6.402880e-01	2.067017e+15	6.811238e+14	2.548429e+14	1.529723e+04	7.331686e+03	3.982821e+03	0	1.760007e-03
2.600000e+08	1.835165e+14	0.000000e+00	6.402880e-01	2.028142e+15	7.128001e+14	2.534998e+14	1.522860e+04	7.389056e+03	4.013986e+03	0	1.747327e-03
2.700000e+08	1.795648e+14	0.000000e+00	6.402880e-01	1.989968e+15	7.440777e+14	2.521665e+14	1.516126e+04	7.443894e+03	4.043776e+03	0	1.734694e-03
2.800000e+08	1.756874e+14	0.000000e+00	6.402880e-01	1.952512e+15	7.748634e+14	2.508429e+14	1.509518e+04	7.496240e+03	4.072213e+03	0	1.722117e-03
2.900000e+08	1.718860e+14	0.000000e+00	6.402880e-01	1.915789e+15	8.050703e+14	2.495290e+14	1.503033e+04	7.546140e+03	4.099320e+03	0	1.709606e-03
3.000000e+08	1.681620e+14	0.000000e+00	6.402880e-01	1.879812e+15	8.346184e+14	2.482247e+14	1.496670e+04	7.593640e+03	4.125124e+03	0	1.697169e-03
3.100000e+08	1.645165e+14	0.000000e+00	6.402880e-01	1.844589e+15	8.634351e+14	2.469299e+14	1.490425e+04	7.638793e+03	4.149652e+03	0	1.684815e-03
3.200000e+08	1.609502e+14	0.000000e+00	6.402880e-01	1.810127e+15	8.914553e+14	2.456445e+14	1.484297e+04	7.681653e+03	4.172935e+03	0	1.672552e-03
3.300000e+08	1.574635e+14	0.000000e+00	6.402880e-01	1.776430e+15	9.186211e+14	2.443684e+14	1.478283e+04	7.722275e+03	4.195002e+03	0	1.660386e-03
3.400000e+08	1.540566e+14	0.000000e+00	6.402880e-01	1.743498e+15	9.448824e+14	2.431016e+14	1.472380e+04	7.760718e+03	4.215886e+03	0	1.648324e-03
3.500000e+08	1.507294e+14	0.000000e+00	6.402880e-01	1.711332e+15	9.701959e+14	2.418440e+14	1.466586e+04	7.797043e+03	4.235619e+03	0	1.636371e-03
3.600000e+08	1.474818e+14	0.000000e+00	6.402880e-01	1.679927e+15	9.945261e+14	2.405955e+14	1.460899e+04	7.831310e+03	4.254234e+03	0	1.624533e-03
3.700000e+08	1.443131e+14	0.000000e+00	6.402880e-01	1.649279e+15	1.017844e+15	2.393561e+14	1.455315e+04	7.863583e+03	4.271766e+03	0	1.612815e-03
3.800000e+08	1.412229e+14	0.000000e+00	6.402880e-01	1.619381e+15	1.040128e+15	2.381256e+14	1.449832e+04	7.893924e+03	4.288248e+03	0	1.601219e-03
3.900000e+08	1.382101e+14	0.000000e+00	6.402880e-01	1.590225e+15	1.061360e+15	2.369041e+14	1.444449e+04	7.922397e+03	4.303715e+03	0	1.589751e-03
4.000000e+08	1.352738e+14	0.000000e+00	6.402880e-01	1.561800e+15	1.081532e+15	2.356913e+14	1.439162e+04	7.949066e+03	4.318203e+03	0	1.578412e-03
4.100000e+08	1.324129e+14	0.000000e+00	6.402880e-01	1.534097e+15	1.100639e+15	2.344873e+14	1.433969e+04	7.973995e+03	4.331745e+03	0	1.567205e-03
4.200000e+08	1.296262e+14	0.000000e+00	6.402880e-01	1.507103e+15	1.118681e+15	2.332920e+14	1.428867e+04	7.997247e+03	4.344376e+03	0	1.556133e-03
4.300000e+08	1.269123e+14	0.000000e+00	6.402880e-01	1.480805e+15	1.135662e+15	2.321053e+14	1.423855e+04	8.018885e+03	4.356131e+03	0	1.545196e-03
4.400000e+08	1.242698e+14	0.000000e+00	6.402880e-01	1.455189e+15	1.151593e+15	2.309271e+14	1.418930e+04	8.038970e+03	4.367042e+03	0	1.534397e-03
4.500000e+08	1.216971e+14	0.000000e+00	6.402880e-01	1.430241e+15	1.166485e+15	2.297574e+14	1.414090e+04	8.057566e+03	4.377144e+03	0	1.523734e-03
4.600000e+08	1.191929e+14	0.000000e+00	6.402880e-01	1.405946e+15	1.180356e+15	2.285960e+14	1.409333e+04	8.074731e+03	4.386468e+03	0	1.513210e-03
4.700000e+08	1.167554e+14	0.000000e+00	6.402880e-01	1.382289e+15	1.193224e+15	2.274430e+14	1.404655e+04	8.090524e+03	4.395048e+03	0	1.502824e-03
4.800000e+08	1.143830e+14	0.000000e+00	6.402880e-01	1.359254e+15	1.205112e+15	2.262983e+14	1.400057e+04	8.105005e+03	4.402914e+03	0	1.492576e-03
4.900000e+08	1.120741e+14	0.000000e+00	6.402880e-01	1.336826e+15	1.216042e+15	2.251618e+14	1.395534e+04	8.118228e+03	4.410098e+03	0	1.482464e-03
5.000000e+08	1.098270e+14	0.000000e+00	6.402880e-01	1.314989e+15	1.226042e+15	2.240334e+14	1.391086e+04	8.130250e+03	4.416628e+03	0	1.472489e-03
5.100000e+08	1.076400e+14	0.000000e+00	6.402880e-01	1.293726e+15	1.235137e+15	2.229130e+14	1.386710e+04	8.141124e+03	4.422535e+03	0	1.462650e-03
5.200000e+08	1.055116e+14	0.000000e+00	6.402880e-01	1.273021e+15	1.243357e+15	2.218007e+14	1.382404e+04	8.150901e+03	4.427846e+03	0	1.452945e-03
5.300000e+08	1.034399e+14	0.000000e+00	6.402880e-01	1.252859e+15	1.250732e+15	2.206963e+14	1.378167e+04	8.159633e+03	4.432590e+03	0	1.443373e-03
5.400000e+08	1.014233e+14	0.000000e+00	6.402880e-01	1.233225e+15	1.257291e+15	2.195997e+14	1.373997e+04	8.167367e+03	4.436791e+03	0	1.433932e-03
5.500000e+08	9.946030e+13	0.000000e+00	6.402880e-01	1.214101e+15	1.263065e+15	2.185110e+14	1.369892e+04	8.174152e+03	4.440477e+03	0	1.424620e-03
5.600000e+08	9.754918e+13	0.000000e+00	6.402880e-01	1.195474e+15	1.268085e+15	2.174300e+14	1.365851e+04	8.180032e+03	4.443671e+03	0	1.415436e-03
5.700000e+08	9.568839e+13	0.000000e+00	6.402880e-01	1.177328e+15	1.272382e+15	2.163566e+14	1.361871e+04	8.185052e+03	4.446398e+03	0	1.406379e-03
5.800000e+08	9.387637e+13	0.000000e+00	6.402880e-01	1.159648e+15	1.275986e+15	2.152909e+14	1.357951e+04	8.189253e+03	4.448681e+03	0	1.397445e-03
5.900000e+08	9.211160e+13	0.000000e+00	6.402880e-01	1.142420e+15	1.278929e+15	2.142328e+14	1.354090e+04	8.192678e+03	4.450541e+03	0	1.388632e-03
6.000000e+08	9.039259e+13	0.000000e+00	6.402880e-01	1.125630e+15	1.281240e+15	2.131821e+14	1.350286e+04	8.195363e+03	4.452000e+03	0	1.379940e-03
6.100000e+08	8.871789e+13	0.000000e+00	6.402880e-01	1.109264e+15	1.282951e+15	2.121389e+14	1.346537e+04	8.197348e+03	4.453078e+03	0	1.371364e-03
6.200000e+08	8.708610e+13	0.000000e+00	6.402880e-01	1.093308e+15	1.284089e+15	2.111030e+14	1.342843e+04	8.198667e+03	4.453795e+03	0	1.362905e-03
6.300000e+08	8.549582e+13	0.000000e+00	6.402880e-01	1.077749e+15	1.284683e+15	2.100744e+14	1.339202e+04	8.199356e+03	4.454169e+03	0	1.354558e-03
6.400000e+08	8.394574e+13	0.000000e+00	6.402880e-01	1.062575e+15	1.284762e+15	2.090531e+14	1.335612e+04	8.199448e+03	4.454219e+03	0	1.346321e-03
6.500000e+08	8.243454e+13	0.000000e+00	6.402880e-01	1.047773e+15	1.284352e+15	2.080390e+14	1.332073e+04	8.198973e+03	4.453961e+03	0	1.338193e-03
6.600000e+08	8.096097e+13	0.000000e+00	6.402880e-01	1.033332e+15	1.283481e+15	2.070321e+14	1.328583e+04	8.197962e+03	4.453412e+03	0	1.330172e-03
6.700000e+08	7.952382e+13	0.000000e+00	6.402880e-01	1.019239e+15	1.282172e+15	2.060322e+14	1.325140e+04	8.196445e+03	4.452588e+03	0	1.322254e-03
6.800000e+08	7.812191e+13	0.000000e+00	6.402880e-01	1.005484e+15	1.280453e+15	2.050393e+14	1.321745e+04	8.194448e+03	4.451503e+03	0	1.314438e-03
6.900000e+08	7.675408e+13	0.000000e+00	6.402880e-01	9.920560e+14	1.278345e+15	2.040534e+14	1.318395e+04	8.191998e+03	4.450172e+03	0	1.306721e-03
7.000000e+08	7.541925e+13	0.000000e+00	6.402880e-01	9.789440e+14	1.275871e+15	2.030744e+14	1.315089e+04	8.189120e+03	4.448608e+03	0	1.299102e-03
7.100000e+08	7.411634e+13	0.000000e+00	6.402880e-01	9.661380e+14	1.273055e+15	2.021023e+14	1.311828e+04	8.185838e+03	4.446825e+03	0	1.291577e-03
7.200000e+08	7.284432e+13	0.000000e+00	6.402880e-01	9.536283e+14	1.269917e+15	2.011369e+14	1.308608e+04	8.182174e+03	4.444835e+03	0	1.284146e-03
7.300000e+08	7.160221e+13	0.000000e+00	6.402880e-01	9.414055e+14	1.266477e+15	2.001783e+14	1.305430e+04	8.178151e+03	4.442650e+03	0	1.276805e-03
7.400000e+08	7.038904e+13	0.000000e+00	6.402880e-01	9.294605e+14	1.262756e+15	1.992264e+14	1.302293e+04	8.173789e+03	4.440280e+03	0	1.269553e-03
7.500000e+08	6.920390e+13	0.000000e+00	6.402880e-01	9.177844e+14	1.258770e+15	1.982812e+14	1.299195e+04	8.169107e+03	4.437737e+03	0	1.262387e-03
7.600000e+08	6.804588e+13	0.000000e+00	6.402880e-01	9.063689e+14	1.254539e+15	1.973425e+14	1.296136e+04	8.164125e+03	4.435030e+03	0	1.255306e-03
7.700000e+08	6.691414e+13	0.000000e+00	6.402880e-01	8.952057e+14	1.250079e+15	1.964103e+14	1.293115e+04	8.158860e+03	4.432170e+03	0	1.248308e-03
7.800000e+08	6.580785e+13	0.000000e+00	6.402880e-01	8.842869e+14	1.245406e+15	1.954847e+14	1.290131e+04	8.153330e+03	4.429166e+03	0	1.241390e-03
7.900000e+08	6.472620e+13	0.000000e+00	6.402880e-01	8.736051e+14	1.240536e+15	1.945654e+14	1.287184e+04	8.147550e+03	4.426026e+03	0	1.234551e-03
8.000000e+08	6.366844e+13	0.000000e+00	6.402880e-01	8.631529e+14	1.235482e+15	1.936526e+14	1.284272e+04	8.141535e+03	4.422759e+03	0	1.227789e-03
8.100000e+08	6.263381e+13	0.000000e+00	6.402880e-01	8.529232e+14	1.230260e+15	1.927460e+14	1.281394e+04	8.135301e+03	4.419372e+03	0	1.221102e-03
8.200000e+08	6.162162e+13	0.000000e+00	6.402880e-01	8.429093e+14	1.224882e+15	1.918457e+14	1.278551e+04	8.128860e+03	4.415873e+03	0	1.214489e-03
8.300000e+08	6.063117e+13	0.000000e+00	6.402880e-01	8.331046e+14	1.219362e+15	1.909517e+14	1.275740e+04	8.122227e+03	4.412270e+03	0	1.207947e-03
8.400000e+08	5.966180e+13	0.000000e+00	6.402880e-01	8.235029e+14	1.213709e+15	1.900638e+14	1.272962e+04	8.115413e+03	4.408568e+03	0	1.201475e-03
8.500000e+08	5.871288e+13	0.000000e+00	6.402880e-01	8.140981e+14	1.207937e+15	1.891821e+14	1.270217e+04	8.108431e+03	4.404775e+03	0	1.195071e-03
8.600000e+08	5.778380e+13	0.000000e+00	6.402880e-01	8.048843e+14	1.202055e+15	1.883064e+14	1.267502e+04	8.101291e+03	4.400897e+03	0	1.188734e-03
8.700000e+08	5.687396e+13	0.000000e+00	6.402880e-01	7.958560e+14	1.196073e+15	1.874368e+14	1.264818e+04	8.094004e+03	4.396938e+03	0	1.182461e-03
8.800000e+08	5.598279e+13	0.000000e+00	6.402880e-01	7.870077e+14	1.190003e+15	1.865731e+14	1.262164e+04	8.086581e+03	4.392906e+03	0	1.176253e-03
8.900000e+08	5.510976e+13	0.000000e+00	6.402880e-01	7.783342e+14	1.183850e+15	1.857154e+14	1.259539e+04	8.079031e+03	4.388804e+03	0	1.170106e-03
9.000000e+08	5.425432e+13	0.000000e+00	6.402880e-01	7.698305e+14	1.177625e+15	1.848636e+14	1.256944e+04	8.071363e+03	4.384639e+03	0	1.164020e-03
9.100000e+08	5.341598e+13	0.000000e+00	6.402880e-01	7.614918e+14	1.171336e+15	1.840176e+14	1.254376e+04	8.063585e+03	4.380414e+03	0	1.157994e-03
9.200000e+08	5.259424e+13	0.000000e+00	6.402880e-01	7.533133e+14	1.164991e+15	1.831774e+14	1.251836e+04	8.055707e+03	4.376134e+03	0	1.152025e-03
9.300000e+08	5.178863e+13	0.000000e+00	6.402880e-01	7.452905e+14	1.158595e+15	1.823429e+14	1.249324e+04	8.047735e+03	4.371803e+03	0	1.146113e-03
9.400000e+08	5.099870e+13	0.000000e+00	6.402880e-01	7.374192e+14	1.152156e+15	1.815142e+14	1.246838e+04	8.039677e+03	4.367426e+03	0	1.140256e-03
9.500000e+08	5.022400e+13	0.000000e+00	6.402880e-01	7.296951e+14	1.145680e+15	1.806911e+14	1.244378e+04	8.031539e+03	4.363005e+03	0	1.134452e-03
9.600000e+08	4.946413e+13	0.000000e+00	6.402880e-01	7.221142e+14	1.139174e+15	1.798736e+14	1.241944e+04	8.023329e+03	4.358545e+03	0	1.128702e-03
9.700000e+08	4.871865e+13	0.000000e+00	6.402880e-01	7.146726e+14	1.132642e+15	1.790617e+14	1.239535e+04	8.015053e+03	4.354049e+03	0	1.123003e-03
9.800000e+08	4.798719e+13	0.000000e+00	6.402880e-01	7.073666e+14	1.126090e+15	1.782553e+14	1.237150e+04	8.006717e+03	4.349521e+03	0	1.117354e-03
9.900000e+08	4.726937e+13	0.000000e+00	6.402880e-01	7.001925e+14	1.119523e+15	1.774544e+14	1.234790e+04	7.998326e+03	4.344962e+03	0	1.111755e-03
1.000000e+09	4.656481e+13	0.000000e+00	6.402880e-01	6.931468e+14	1.112945e+15	1.766589e+14	1.232454e+04	7.989885e+03	4.340377e+03	0	1.106204e-03
1.010000e+09	4.587316e+13	0.000000e+00	6.402880e-01	6.862262e+14	1.106362e+15	1.758689e+14	1.230142e+04	7.981400e+03	4.335768e+03	0	1.100699e-03
1.020000e+09	4.519409e+13	0.000000e+00	6.402880e-01	6.794273e+14	1.099776e+15	1.750841e+14	1.227852e+04	7.972875e+03	4.331137e+03	0	1.095241e-03
1.030000e+09	4.452726e+13	0.000000e+00	6.402880e-01	6.727471e+14	1.093191e+15	1.743047e+14	1.225585e+04	7.964315e+03	4.326487e+03	0	1.089828e-03
1.040000e+09	4.387236e+13	0.000000e+00	6.402880e-01	6.661825e+14	1.086612e+15	1.735306e+14	1.223340e+04	7.955725e+03	4.321820e+03	0	1.084458e-03
1.050000e+09	4.322907e+13	0.000000e+00	6.402880e-01	6.597305e+14	1.080041e+15	1.727617e+14	1.221117e+04	7.947107e+03	4.317139e+03	0	1.079132e-03
1.060000e+09	4.259710e+13	0.000000e+00	6.402880e-01	6.533884e+14	1.073481e+15	1.719979e+14	1.218916e+04	7.938466e+03	4.312445e+03	0	1.073847e-03
1.070000e+09	4.197617e+13	0.000000e+00	6.402880e-01	6.471533e+14	1.066936e+15	1.712393e+14	1.216735e+04	7.929806e+03	4.307740e+03	0	1.068604e-03
1.080000e+09	4.136599e+13	0.000000e+00	6.402880e-01	6.410226e+14	1.060408e+15	1.704858e+14	1.214575e+04	7.921130e+03	4.303027e+03	0	1.063401e-03
1.090000e+09	4.076630e+13	0.000000e+00	6.402880e-01	6.349938e+14	1.053900e+15	1.697374e+14	1.212436e+04	7.912441e+03	4.298307e+03	0	1.058237e-03
1.100000e+09	4.017684e+13	0.000000e+00	6.402880e-01	6.290643e+14	1.047413e+15	1.689940e+14	1.210317e+04	7.903742e+03	4.293581e+03	0	1.053112e-03
1.110000e+09	3.959735e+13	0.000000e+00	6.402880e-01	6.232317e+14	1.040951e+15	1.682556e+14	1.208217e+04	7.895036e+03	4.288852e+03	0	1.048024e-03
1.120000e+09	3.902760e+13	0.000000e+00	6.402880e-01	6.174938e+14	1.034514e+15	1.675222e+14	1.206137e+04	7.886326e+03	4.284120e+03	0	1.042973e-03
1.130000e+09	3.846735e+13	0.000000e+00	6.402880e-01	6.118483e+14	1.028105e+15	1.667936e+14	1.204076e+04	7.877614e+03	4.279388e+03	0	1.037958e-03
1.140000e+09	3.791636e+13	0.000000e+00	6.402880e-01	6.062929e+14	1.021726e+15	1.660699e+14	1.202034e+04	7.868903e+03	4.274656e+03	0	1.032979e-03
1.150000e+09	3.737443e+13	0.000000e+00	6.402880e-01	6.008256e+14	1.015378e+15	1.653511e+14	1.200010e+04	7.860195e+03	4.269925e+03	0	1.028034e-03
1.160000e+09	3.684133e+13	0.000000e+00	6.402880e-01	5.954443e+14	1.009062e+15	1.646370e+14	1.198004e+04	7.851493e+03	4.265198e+03	0	1.023122e-03
1.170000e+09	3.631687e+13	0.000000e+00	6.402880e-01	5.901471e+14	1.002781e+15	1.639277e+14	1.196016e+04	7.842797e+03	4.260474e+03	0	1.018244e-03
1.180000e+09	3.580083e+13	0.000000e+00	6.402880e-01	5.849320e+14	9.965341e+14	1.632232e+14	1.194046e+04	7.834111e+03	4.255755e+03	0	1.013398e-03
1.190000e+09	3.529303e+13	0.000000e+00	6.402880e-01	5.797972e+14	9.903239e+14	1.625233e+14	1.192093e+04	7.825436e+03	4.251043e+03	0	1.008584e-03
1.200000e+09	3.479328e+13	0.000000e+00	6.402880e-01	5.747408e+14	9.841510e+14	1.618280e+14	1.190158e+04	7.816774e+03	4.246337e+03	0	1.003801e-03
1.210000e+09	3.430139e+13	0.000000e+00	6.402880e-01	5.697611e+14	9.780164e+14	1.611374e+14	1.188239e+04	7.808125e+03	4.241639e+03	0	9.990481e-04
1.220000e+09	3.381719e+13	0.000000e+00	6.402880e-01	5.648564e+14	9.719209e+14	1.604513e+14	1.186337e+04	7.799493e+03	4.236950e+03	0	9.943249e-04
1.230000e+09	3.334051e+13	0.000000e+00	6.402880e-01	5.600250e+14	9.658650e+14	1.597698e+14	1.184451e+04	7.790878e+03	4.232270e+03	0	9.896308e-04
1.240000e+09	3.287117e+13	0.000000e+00	6.402880e-01	5.552654e+14	9.598498e+14	1.590928e+14	1.182581e+04	7.782281e+03	4.227600e+03	0	9.849652e-04
1.250000e+09	3.240902e+13	0.000000e+00	6.402880e-01	5.505760e+14	9.538756e+14	1.584202e+14	1.180727e+04	7.773704e+03	4.222940e+03	0	9.803274e-04
1.260000e+09	3.195390e+13	0.000000e+00	6.402880e-01	5.459552e+14	9.479432e+14	1.577521e+14	1.178888e+04	7.765148e+03	4.218292e+03	0	9.757168e-04
1.270000e+09	3.150567e+13	0.000000e+00	6.402880e-01	5.414017e+14	9.420531e+14	1.570884e+14	1.177065e+04	7.756614e+03	4.213656e+03	0	9.711330e-04
1.280000e+09	3.106416e+13	0.000000e+00	6.402880e-01	5.369140e+14	9.362053e+14	1.564291e+14	1.175257e+04	7.748103e+03	4.209033e+03	0	9.665753e-04
1.290000e+09	3.062923e+13	0.000000e+00	6.402880e-01	5.324906e+14	9.304005e+14	1.557740e+14	1.173465e+04	7.739617e+03	4.204423e+03	0	9.620431e-04
1.300000e+09	3.020076e+13	0.000000e+00	6.402880e-01	5.281303e+14	9.246393e+14	1.551233e+14	1.171686e+04	7.731155e+03	4.199826e+03	0	9.575360e-04
1.310000e+09	2.977859e+13	0.000000e+00	6.402880e-01	5.238318e+14	9.189212e+14	1.544769e+14	1.169923e+04	7.722719e+03	4.195243e+03	0	9.530533e-04
1.320000e+09	2.936260e+13	0.000000e+00	6.402880e-01	5.195938e+14	9.132472e+14	1.538347e+14	1.168173e+04	7.714310e+03	4.190675e+03	0	9.485946e-04
1.330000e+09	2.895266e+13	0.000000e+00	6.402880e-01	5.154150e+14	9.076173e+14	1.531967e+14	1.166438e+04	7.705927e+03	4.186122e+03	0	9.441594e-04
1.340000e+09	2.854865e+13	0.000000e+00	6.402880e-01	5.112943e+14	9.020311e+14	1.525628e+14	1.164717e+04	7.697573e+03	4.181584e+03	0	9.397471e-04
1.350000e+09	2.815044e+13	0.000000e+00	6.402880e-01	5.072304e+14	8.964895e+14	1.519331e+14	1.163009e+04	7.689248e+03	4.177061e+03	0	9.353573e-04
1.360000e+09	2.775792e+13	0.000000e+00	6.402880e-01	5.032222e+14	8.909918e+14	1.513075e+14	1.161315e+04	7.680952e+03	4.172554e+03	0	9.309895e-04
