#t		Qconv[W]	Ri[Rp]		R*[Rp]		Qc[W]		Qm[W]		Qr[W]		Tcmb[K]		Tl[K]		Tup[K]		RiFlag		Bs[T]
0.000000e+00	3.200250e+14	0.000000e+00	6.402879e-01	3.323604e+15	5.884761e+13	3.057937e+14	1.799915e+04	5.147254e+03	2.772368e+03	0	2.100307e-03
1.000000e+07	3.157418e+14	0.000000e+00	6.402879e-01	3.282355e+15	6.965287e+13	3.040994e+14	1.789591e+04	5.267855e+03	2.837326e+03	0	2.090895e-03
2.000000e+07	3.113827e+14	0.000000e+00	6.402879e-01	3.240447e+15	8.173518e+13	3.024178e+14	1.779395e+04	5.386617e+03	2.901292e+03	0	2.081228e-03
3.000000e+07	3.069539e+14	0.000000e+00	6.402879e-01	3.197937e+15	9.514277e+13	3.007487e+14	1.769327e+04	5.503473e+03	2.964232e+03	0	2.071314e-03
4.000000e+07	3.024618e+14	0.000000e+00	6.402879e-01	3.154886e+15	1.099141e+14	2.990920e+14	1.759390e+04	5.618357e+03	3.026110e+03	0	2.061160e-03
5.000000e+07	2.979131e+14	0.000000e+00	6.402879e-01	3.111351e+15	1.260771e+14	2.974478e+14	1.749587e+04	5.731207e+03	3.086892e+03	0	2.050775e-03
6.000000e+07	2.933143e+14	0.000000e+00	6.402879e-01	3.067394e+15	1.436485e+14	2.958158e+14	1.739917e+04	5.841957e+03	3.146543e+03	0	2.040168e-03
7.000000e+07	2.886721e+14	0.000000e+00	6.402879e-01	3.023076e+15	1.626333e+14	2.941959e+14	1.730383e+04	5.950546e+03	3.205031e+03	0	2.029348e-03
8.000000e+07	2.839933e+14	0.000000e+00	6.402879e-01	2.978458e+15	1.830243e+14	2.925881e+14	1.720986e+04	6.056915e+03	3.262322e+03	0	2.018324e-03
9.000000e+07	2.792848e+14	0.000000e+00	6.402879e-01	2.933603e+15	2.048024e+14	2.909923e+14	1.711726e+04	6.161007e+03	3.318387e+03	0	2.007107e-03
1.000000e+08	2.745533e+14	0.000000e+00	6.402879e-01	2.888572e+15	2.279362e+14	2.894082e+14	1.702605e+04	6.262768e+03	3.373197e+03	0	1.995708e-03
1.100000e+08	2.698057e+14	0.000000e+00	6.402879e-01	2.843428e+15	2.523825e+14	2.878360e+14	1.693622e+04	6.362147e+03	3.426723e+03	0	1.984138e-03
1.200000e+08	2.650487e+14	0.000000e+00	6.402879e-01	2.798232e+15	2.780864e+14	2.862754e+14	1.684780e+04	6.459097e+03	3.478942e+03	0	1.972408e-03
1.300000e+08	2.602891e+14	0.000000e+00	6.402879e-01	2.753044e+15	3.049826e+14	2.847264e+14	1.676076e+04	6.553575e+03	3.529829e+03	0	1.960530e-03
1.400000e+08	2.555333e+14	0.000000e+00	6.402879e-01	2.707924e+15	3.329952e+14	2.831888e+14	1.667513e+04	6.645543e+03	3.579363e+03	0	1.948516e-03
1.500000e+08	2.507880e+14	0.000000e+00	6.402879e-01	2.662931e+15	3.620395e+14	2.816626e+14	1.659089e+04	6.734967e+03	3.627528e+03	0	1.936379e-03
1.600000e+08	2.460593e+14	0.000000e+00	6.402879e-01	2.618122e+15	3.920219e+14	2.801476e+14	1.650803e+04	6.821818e+03	3.674307e+03	0	1.924132e-03
1.700000e+08	2.413534e+14	0.000000e+00	6.402879e-01	2.573553e+15	4.228427e+14	2.786439e+14	1.642657e+04	6.906074e+03	3.719688e+03	0	1.911786e-03
1.800000e+08	2.366761e+14	0.000000e+00	6.402879e-01	2.529275e+15	4.543953e+14	2.771512e+14	1.634648e+04	6.987715e+03	3.763661e+03	0	1.899356e-03
1.900000e+08	2.320331e+14	0.000000e+00	6.402879e-01	2.485339e+15	4.865691e+14	2.756695e+14	1.626776e+04	7.066729e+03	3.806219e+03	0	1.886853e-03
2.000000e+08	2.274297e+14	0.000000e+00	6.402879e-01	2.441795e+15	5.192494e+14	2.741988e+14	1.619040e+04	7.143110e+03	3.847359e+03	0	1.874292e-03
2.100000e+08	2.228710e+14	0.000000e+00	6.402879e-01	2.398688e+15	5.523202e+14	2.727388e+14	1.611439e+04	7.216855e+03	3.887079e+03	0	1.861684e-03
2.200000e+08	2.183617e+14	0.000000e+00	6.402879e-01	2.356059e+15	5.856637e+14	2.712896e+14	1.603971e+04	7.287969e+03	3.925381e+03	0	1.849043e-03
2.300000e+08	2.139062e+14	0.000000e+00	6.402879e-01	2.313949e+15	6.191631e+14	2.698510e+14	1.596636e+04	7.356460e+03	3.962271e+03	0	1.836380e-03
2.400000e+08	2.095086e+14	0.000000e+00	6.402879e-01	2.272395e+15	6.527024e+14	2.684229e+14	1.589430e+04	7.422343e+03	3.997757e+03	0	1.823709e-03
2.500000e+08	2.051726e+14	0.000000e+00	6.402879e-01	2.231429e+15	6.861686e+14	2.670053e+14	1.582353e+04	7.485639e+03	4.031849e+03	0	1.811040e-03
2.600000e+08	2.009015e+14	0.000000e+00	6.402879e-01	2.191082e+15	7.194520e+14	2.655981e+14	1.575404e+04	7.546371e+03	4.064560e+03	0	1.798385e-03
2.700000e+08	1.966984e+14	0.000000e+00	6.402879e-01	2.151380e+15	7.524472e+14	2.642011e+14	1.568579e+04	7.604570e+03	4.095906e+03	0	1.785755e-03
2.800000e+08	1.925659e+14	0.000000e+00	6.402879e-01	2.112347e+15	7.850538e+14	2.628144e+14	1.561877e+04	7.660267e+03	4.125905e+03	0	1.773160e-03
2.900000e+08	1.885063e+14	0.000000e+00	6.402879e-01	2.074003e+15	8.171778e+14	2.614378e+14	1.555296e+04	7.713502e+03	4.154578e+03	0	1.760611e-03
3.000000e+08	1.845216e+14	0.000000e+00	6.402879e-01	2.036366e+15	8.487304e+14	2.600712e+14	1.548834e+04	7.764316e+03	4.181947e+03	0	1.748117e-03
3.100000e+08	1.806135e+14	0.000000e+00	6.402879e-01	1.999450e+15	8.796301e+14	2.587146e+14	1.542488e+04	7.812754e+03	4.208036e+03	0	1.735688e-03
3.200000e+08	1.767831e+14	0.000000e+00	6.402879e-01	1.963267e+15	9.098030e+14	2.573679e+14	1.536257e+04	7.858863e+03	4.232871e+03	0	1.723330e-03
3.300000e+08	1.730316e+14	0.000000e+00	6.402879e-01	1.927824e+15	9.391813e+14	2.560309e+14	1.530138e+04	7.902695e+03	4.256480e+03	0	1.711052e-03
3.400000e+08	1.693595e+14	0.000000e+00	6.402879e-01	1.893128e+15	9.677053e+14	2.547037e+14	1.524129e+04	7.944303e+03	4.278890e+03	0	1.698862e-03
3.500000e+08	1.657675e+14	0.000000e+00	6.402879e-01	1.859182e+15	9.953225e+14	2.533861e+14	1.518228e+04	7.983743e+03	4.300133e+03	0	1.686765e-03
3.600000e+08	1.622556e+14	0.000000e+00	6.402879e-01	1.825987e+15	1.021987e+15	2.520780e+14	1.512432e+04	8.021071e+03	4.320238e+03	0	1.674769e-03
3.700000e+08	1.588239e+14	0.000000e+00	6.402879e-01	1.793543e+15	1.047661e+15	2.507794e+14	1.506739e+04	8.056346e+03	4.339238e+03	0	1.662877e-03
3.800000e+08	1.554719e+14	0.000000e+00	6.402879e-01	1.761846e+15	1.072313e+15	2.494902e+14	1.501146e+04	8.089629e+03	4.357164e+03	0	1.651095e-03
3.900000e+08	1.521994e+14	0.000000e+00	6.402879e-01	1.730891e+15	1.095917e+15	2.482103e+14	1.495652e+04	8.120978e+03	4.374050e+03	0	1.639428e-03
4.000000e+08	1.490055e+14	0.000000e+00	6.402879e-01	1.700673e+15	1.118456e+15	2.469397e+14	1.490254e+04	8.150457e+03	4.389927e+03	0	1.627880e-03
4.100000e+08	1.458895e+14	0.000000e+00	6.402879e-01	1.671182e+15	1.139917e+15	2.456782e+14	1.484950e+04	8.178126e+03	4.404830e+03	0	1.616452e-03
4.200000e+08	1.428504e+14	0.000000e+00	6.402879e-01	1.642410e+15	1.160293e+15	2.444259e+14	1.479737e+04	8.204047e+03	4.418791e+03	0	1.605149e-03
4.300000e+08	1.398871e+14	0.000000e+00	6.402879e-01	1.614346e+15	1.179581e+15	2.431825e+14	1.474614e+04	8.228281e+03	4.431844e+03	0	1.593972e-03
4.400000e+08	1.369985e+14	0.000000e+00	6.402879e-01	1.586979e+15	1.197785e+15	2.419481e+14	1.469578e+04	8.250890e+03	4.444021e+03	0	1.582924e-03
4.500000e+08	1.341831e+14	0.000000e+00	6.402879e-01	1.560296e+15	1.214910e+15	2.407225e+14	1.464626e+04	8.271933e+03	4.455356e+03	0	1.572006e-03
4.600000e+08	1.314396e+14	0.000000e+00	6.402879e-01	1.534285e+15	1.230970e+15	2.395058e+14	1.459758e+04	8.291471e+03	4.465879e+03	0	1.561218e-03
4.700000e+08	1.287666e+14	0.000000e+00	6.402879e-01	1.508931e+15	1.245977e+15	2.382978e+14	1.454970e+04	8.309562e+03	4.475623e+03	0	1.550563e-03
4.800000e+08	1.261625e+14	0.000000e+00	6.402879e-01	1.484220e+15	1.259950e+15	2.370984e+14	1.450262e+04	8.326264e+03	4.484619e+03	0	1.540039e-03
4.900000e+08	1.236259e+14	0.000000e+00	6.402879e-01	1.460139e+15	1.272908e+15	2.359076e+14	1.445629e+04	8.341634e+03	4.492897e+03	0	1.529647e-03
5.000000e+08	1.211549e+14	0.000000e+00	6.402879e-01	1.436671e+15	1.284875e+15	2.347254e+14	1.441072e+04	8.355728e+03	4.500488e+03	0	1.519387e-03
5.100000e+08	1.187482e+14	0.000000e+00	6.402879e-01	1.413801e+15	1.295876e+15	2.335516e+14	1.436588e+04	8.368599e+03	4.507421e+03	0	1.509259e-03
5.200000e+08	1.164039e+14	0.000000e+00	6.402879e-01	1.391516e+15	1.305936e+15	2.323861e+14	1.432175e+04	8.380300e+03	4.513723e+03	0	1.499262e-03
5.300000e+08	1.141206e+14	0.000000e+00	6.402879e-01	1.369798e+15	1.315083e+15	2.312290e+14	1.427831e+04	8.390883e+03	4.519423e+03	0	1.489394e-03
5.400000e+08	1.118965e+14	0.000000e+00	6.402879e-01	1.348633e+15	1.323346e+15	2.300801e+14	1.423554e+04	8.400398e+03	4.524548e+03	0	1.479655e-03
5.500000e+08	1.097300e+14	0.000000e+00	6.402879e-01	1.328006e+15	1.330756e+15	2.289394e+14	1.419343e+04	8.408893e+03	4.529124e+03	0	1.470043e-03
5.600000e+08	1.076195e+14	0.000000e+00	6.402879e-01	1.307901e+15	1.337341e+15	2.278068e+14	1.415197e+04	8.416415e+03	4.533175e+03	0	1.460557e-03
5.700000e+08	1.055633e+14	0.000000e+00	6.402879e-01	1.288304e+15	1.343134e+15	2.266823e+14	1.411113e+04	8.423009e+03	4.536727e+03	0	1.451195e-03
5.800000e+08	1.035599e+14	0.000000e+00	6.402879e-01	1.269200e+15	1.348165e+15	2.255657e+14	1.407090e+04	8.428720e+03	4.539802e+03	0	1.441956e-03
5.900000e+08	1.016078e+14	0.000000e+00	6.402879e-01	1.250574e+15	1.352465e+15	2.244570e+14	1.403126e+04	8.433588e+03	4.542424e+03	0	1.432838e-03
6.000000e+08	9.970533e+13	0.000000e+00	6.402879e-01	1.232411e+15	1.356065e+15	2.233562e+14	1.399220e+04	8.437655e+03	4.544615e+03	0	1.423839e-03
6.100000e+08	9.785106e+13	0.000000e+00	6.402879e-01	1.214699e+15	1.358996e+15	2.222632e+14	1.395371e+04	8.440960e+03	4.546395e+03	0	1.414957e-03
6.200000e+08	9.604350e+13	0.000000e+00	6.402879e-01	1.197424e+15	1.361287e+15	2.211779e+14	1.391576e+04	8.443540e+03	4.547785e+03	0	1.406191e-03
6.300000e+08	9.428121e+13	0.000000e+00	6.402879e-01	1.180571e+15	1.362969e+15	2.201003e+14	1.387836e+04	8.445433e+03	4.548804e+03	0	1.397537e-03
6.400000e+08	9.256279e+13	0.000000e+00	6.402879e-01	1.164128e+15	1.364071e+15	2.190302e+14	1.384148e+04	8.446671e+03	4.549471e+03	0	1.388994e-03
6.500000e+08	9.088687e+13	0.000000e+00	6.402879e-01	1.148082e+15	1.364621e+15	2.179677e+14	1.380511e+04	8.447290e+03	4.549805e+03	0	1.380560e-03
6.600000e+08	8.925212e+13	0.000000e+00	6.402879e-01	1.132422e+15	1.364648e+15	2.169127e+14	1.376924e+04	8.447320e+03	4.549821e+03	0	1.372232e-03
6.700000e+08	8.765725e+13	0.000000e+00	6.402879e-01	1.117134e+15	1.364178e+15	2.158651e+14	1.373385e+04	8.446792e+03	4.549536e+03	0	1.364010e-03
6.800000e+08	8.610101e+13	0.000000e+00	6.402879e-01	1.102208e+15	1.363238e+15	2.148248e+14	1.369895e+04	8.445735e+03	4.548967e+03	0	1.355889e-03
6.900000e+08	8.458219e+13	0.000000e+00	6.402879e-01	1.087631e+15	1.361853e+15	2.137919e+14	1.366450e+04	8.444178e+03	4.548128e+03	0	1.347869e-03
7.000000e+08	8.309959e+13	0.000000e+00	6.402879e-01	1.073394e+15	1.360049e+15	2.127661e+14	1.363051e+04	8.442146e+03	4.547034e+03	0	1.339948e-03
7.100000e+08	8.165208e+13	0.000000e+00	6.402879e-01	1.059485e+15	1.357848e+15	2.117476e+14	1.359697e+04	8.439666e+03	4.545699e+03	0	1.332122e-03
7.200000e+08	8.023856e+13	0.000000e+00	6.402879e-01	1.045895e+15	1.355274e+15	2.107362e+14	1.356386e+04	8.436762e+03	4.544134e+03	0	1.324390e-03
7.300000e+08	7.885795e+13	0.000000e+00	6.402879e-01	1.032613e+15	1.352350e+15	2.097319e+14	1.353117e+04	8.433457e+03	4.542354e+03	0	1.316750e-03
7.400000e+08	7.750923e+13	0.000000e+00	6.402879e-01	1.019629e+15	1.349096e+15	2.087345e+14	1.349889e+04	8.429774e+03	4.540370e+03	0	1.309200e-03
7.500000e+08	7.619140e+13	0.000000e+00	6.402879e-01	1.006935e+15	1.345532e+15	2.077442e+14	1.346702e+04	8.425733e+03	4.538194e+03	0	1.301738e-03
7.600000e+08	7.490348e+13	0.000000e+00	6.402879e-01	9.945214e+14	1.341678e+15	2.067607e+14	1.343554e+04	8.421354e+03	4.535835e+03	0	1.294361e-03
7.700000e+08	7.364456e+13	0.000000e+00	6.402879e-01	9.823797e+14	1.337554e+15	2.057840e+14	1.340445e+04	8.416657e+03	4.533305e+03	0	1.287069e-03
7.800000e+08	7.241374e+13	0.000000e+00	6.402879e-01	9.705016e+14	1.333176e+15	2.048142e+14	1.337374e+04	8.411661e+03	4.530614e+03	0	1.279858e-03
7.900000e+08	7.121014e+13	0.000000e+00	6.402879e-01	9.588789e+14	1.328561e+15	2.038511e+14	1.334339e+04	8.406381e+03	4.527771e+03	0	1.272728e-03
8.000000e+08	7.003293e+13	0.000000e+00	6.402879e-01	9.475040e+14	1.323728e+15	2.028946e+14	1.331341e+04	8.400837e+03	4.524784e+03	0	1.265675e-03
8.100000e+08	6.888131e+13	0.000000e+00	6.402879e-01	9.363694e+14	1.318689e+15	2.019448e+14	1.328379e+04	8.395042e+03	4.521663e+03	0	1.258699e-03
8.200000e+08	6.775450e+13	0.000000e+00	6.402879e-01	9.254677e+14	1.313461e+15	2.010016e+14	1.325451e+04	8.389011e+03	4.518415e+03	0	1.251798e-03
8.300000e+08	6.665175e+13	0.000000e+00	6.402879e-01	9.147922e+14	1.308058e+15	2.000649e+14	1.322557e+04	8.382761e+03	4.515048e+03	0	1.244969e-03
8.400000e+08	6.557234e+13	0.000000e+00	6.402879e-01	9.043360e+14	1.302492e+15	1.991346e+14	1.319696e+04	8.376302e+03	4.511570e+03	0	1.238212e-03
8.500000e+08	6.451556e+13	0.000000e+00	6.402879e-01	8.940926e+14	1.296777e+15	1.982108e+14	1.316868e+04	8.369650e+03	4.507987e+03	0	1.231524e-03
8.600000e+08	6.348076e+13	0.000000e+00	6.402879e-01	8.840559e+14	1.290925e+15	1.972934e+14	1.314072e+04	8.362816e+03	4.504306e+03	0	1.224904e-03
8.700000e+08	6.246727e+13	0.000000e+00	6.402879e-01	8.742198e+14	1.284946e+15	1.963822e+14	1.311307e+04	8.355811e+03	4.500533e+03	0	1.218351e-03
8.800000e+08	6.147449e+13	0.000000e+00	6.402879e-01	8.645785e+14	1.278853e+15	1.954774e+14	1.308572e+04	8.348647e+03	4.496674e+03	0	1.211862e-03
8.900000e+08	6.050180e+13	0.000000e+00	6.402879e-01	8.551264e+14	1.272655e+15	1.945787e+14	1.305868e+04	8.341334e+03	4.492736e+03	0	1.205436e-03
9.000000e+08	5.954863e+13	0.000000e+00	6.402879e-01	8.458582e+14	1.266361e+15	1.936862e+14	1.303193e+04	8.333882e+03	4.488722e+03	0	1.199072e-03
9.100000e+08	5.861441e+13	0.000000e+00	6.402879e-01	8.367685e+14	1.259981e+15	1.927998e+14	1.300547e+04	8.326301e+03	4.484639e+03	0	1.192769e-03
9.200000e+08	5.769861e+13	0.000000e+00	6.402879e-01	8.278525e+14	1.253524e+15	1.919195e+14	1.297930e+04	8.318600e+03	4.480491e+03	0	1.186524e-03
9.300000e+08	5.680071e+13	0.000000e+00	6.402879e-01	8.191052e+14	1.246998e+15	1.910453e+14	1.295340e+04	8.310787e+03	4.476283e+03	0	1.180337e-03
9.400000e+08	5.592020e+13	0.000000e+00	6.402879e-01	8.105220e+14	1.240411e+15	1.901770e+14	1.292777e+04	8.302871e+03	4.472019e+03	0	1.174206e-03
9.500000e+08	5.505661e+13	0.000000e+00	6.402879e-01	8.020984e+14	1.233770e+15	1.893146e+14	1.290241e+04	8.294859e+03	4.467703e+03	0	1.168130e-03
9.600000e+08	5.420946e+13	0.000000e+00	6.402879e-01	7.938301e+14	1.227081e+15	1.884581e+14	1.287732e+04	8.286758e+03	4.463340e+03	0	1.162108e-03
9.700000e+08	5.337831e+13	0.000000e+00	6.402879e-01	7.857127e+14	1.220353e+15	1.876074e+14	1.285248e+04	8.278575e+03	4.458933e+03	0	1.156138e-03
9.800000e+08	5.256272e+13	0.000000e+00	6.402879e-01	7.777424e+14	1.213589e+15	1.867626e+14	1.282790e+04	8.270318e+03	4.454485e+03	0	1.150220e-03
9.900000e+08	5.176227e+13	0.000000e+00	6.402879e-01	7.699152e+14	1.206797e+15	1.859234e+14	1.280356e+04	8.261991e+03	4.450001e+03	0	1.144351e-03
1.000000e+09	5.097655e+13	0.000000e+00	6.402879e-01	7.622272e+14	1.199981e+15	1.850900e+14	1.277947e+04	8.253602e+03	4.445482e+03	0	1.138531e-03
1.010000e+09	5.020519e+13	0.000000e+00	6.402879e-01	7.546750e+14	1.193147e+15	1.842622e+14	1.275562e+04	8.245155e+03	4.440932e+03	0	1.132759e-03
1.020000e+09	4.944779e+13	0.000000e+00	6.402879e-01	7.472548e+14	1.186300e+15	1.834400e+14	1.273200e+04	8.236656e+03	4.436355e+03	0	1.127034e-03
1.030000e+09	4.870399e+13	0.000000e+00	6.402879e-01	7.399635e+14	1.179444e+15	1.826234e+14	1.270861e+04	8.228111e+03	4.431752e+03	0	1.121355e-03
1.040000e+09	4.797344e+13	0.000000e+00	6.402879e-01	7.327975e+14	1.172583e+15	1.818123e+14	1.268546e+04	8.219523e+03	4.427127e+03	0	1.115720e-03
1.050000e+09	4.725581e+13	0.000000e+00	6.402879e-01	7.257539e+14	1.165721e+15	1.810067e+14	1.266252e+04	8.210897e+03	4.422481e+03	0	1.110128e-03
1.060000e+09	4.655076e+13	0.000000e+00	6.402879e-01	7.188294e+14	1.158862e+15	1.802065e+14	1.263981e+04	8.202238e+03	4.417817e+03	0	1.104580e-03
1.070000e+09	4.585797e+13	0.000000e+00	6.402879e-01	7.120212e+14	1.152009e+15	1.794117e+14	1.261731e+04	8.193550e+03	4.413138e+03	0	1.099073e-03
1.080000e+09	4.517713e+13	0.000000e+00	6.402879e-01	7.053264e+14	1.145167e+15	1.786223e+14	1.259502e+04	8.184837e+03	4.408444e+03	0	1.093606e-03
1.090000e+09	4.450796e+13	0.000000e+00	6.402879e-01	6.987421e+14	1.138336e+15	1.778382e+14	1.257294e+04	8.176101e+03	4.403739e+03	0	1.088180e-03
1.100000e+09	4.385016e+13	0.000000e+00	6.402879e-01	6.922658e+14	1.131521e+15	1.770593e+14	1.255107e+04	8.167347e+03	4.399024e+03	0	1.082792e-03
1.110000e+09	4.320345e+13	0.000000e+00	6.402879e-01	6.858947e+14	1.124725e+15	1.762856e+14	1.252940e+04	8.158578e+03	4.394301e+03	0	1.077443e-03
1.120000e+09	4.256756e+13	0.000000e+00	6.402879e-01	6.796265e+14	1.117948e+15	1.755172e+14	1.250793e+04	8.149797e+03	4.389572e+03	0	1.072131e-03
1.130000e+09	4.194224e+13	0.000000e+00	6.402879e-01	6.734585e+14	1.111194e+15	1.747539e+14	1.248665e+04	8.141007e+03	4.384837e+03	0	1.066855e-03
1.140000e+09	4.132722e+13	0.000000e+00	6.402879e-01	6.673886e+14	1.104466e+15	1.739956e+14	1.246557e+04	8.132211e+03	4.380099e+03	0	1.061615e-03
1.150000e+09	4.072228e+13	0.000000e+00	6.402879e-01	6.614143e+14	1.097764e+15	1.732425e+14	1.244467e+04	8.123410e+03	4.375360e+03	0	1.056409e-03
1.160000e+09	4.012716e+13	0.000000e+00	6.402879e-01	6.555335e+14	1.091091e+15	1.724944e+14	1.242397e+04	8.114609e+03	4.370619e+03	0	1.051238e-03
1.170000e+09	3.954164e+13	0.000000e+00	6.402879e-01	6.497441e+14	1.084449e+15	1.717512e+14	1.240344e+04	8.105809e+03	4.365879e+03	0	1.046100e-03
1.180000e+09	3.896550e+13	0.000000e+00	6.402879e-01	6.440439e+14	1.077838e+15	1.710130e+14	1.238310e+04	8.097011e+03	4.361141e+03	0	1.040994e-03
1.190000e+09	3.839852e+13	0.000000e+00	6.402879e-01	6.384309e+14	1.071261e+15	1.702797e+14	1.236293e+04	8.088220e+03	4.356405e+03	0	1.035920e-03
1.200000e+09	3.784050e+13	0.000000e+00	6.402879e-01	6.329031e+14	1.064718e+15	1.695513e+14	1.234294e+04	8.079435e+03	4.351674e+03	0	1.030878e-03
1.210000e+09	3.729122e+13	0.000000e+00	6.402879e-01	6.274588e+14	1.058211e+15	1.688277e+14	1.232313e+04	8.070660e+03	4.346947e+03	0	1.025865e-03
1.220000e+09	3.675050e+13	0.000000e+00	6.402879e-01	6.220960e+14	1.051742e+15	1.681089e+14	1.230348e+04	8.061895e+03	4.342227e+03	0	1.020883e-03
1.230000e+09	3.621815e+13	0.000000e+00	6.402879e-01	6.168129e+14	1.045311e+15	1.673948e+14	1.228400e+04	8.053144e+03	4.337513e+03	0	1.015930e-03
1.240000e+09	3.569397e+13	0.000000e+00	6.402879e-01	6.116078e+14	1.038918e+15	1.666855e+14	1.226468e+04	8.044406e+03	4.332807e+03	0	1.011005e-03
1.250000e+09	3.517779e+13	0.000000e+00	6.402879e-01	6.064791e+14	1.032566e+15	1.659809e+14	1.224553e+04	8.035684e+03	4.328109e+03	0	1.006107e-03
1.260000e+09	3.466943e+13	0.000000e+00	6.402879e-01	6.014250e+14	1.026254e+15	1.652809e+14	1.222654e+04	8.026978e+03	4.323420e+03	0	1.001237e-03
1.270000e+09	3.416873e+13	0.000000e+00	6.402879e-01	5.964441e+14	1.019984e+15	1.645855e+14	1.220770e+04	8.018291e+03	4.318741e+03	0	9.963941e-04
1.280000e+09	3.367552e+13	0.000000e+00	6.402879e-01	5.915346e+14	1.013755e+15	1.638947e+14	1.218902e+04	8.009624e+03	4.314073e+03	0	9.915767e-04
1.290000e+09	3.318964e+13	0.000000e+00	6.402879e-01	5.866953e+14	1.007569e+15	1.632084e+14	1.217049e+04	8.000977e+03	4.309415e+03	0	9.867846e-04
1.300000e+09	3.271094e+13	0.000000e+00	6.402879e-01	5.819245e+14	1.001426e+15	1.625266e+14	1.215212e+04	7.992352e+03	4.304770e+03	0	9.820174e-04
1.310000e+09	3.223926e+13	0.000000e+00	6.402879e-01	5.772209e+14	9.953268e+14	1.618493e+14	1.213389e+04	7.983749e+03	4.300136e+03	0	9.772745e-04
1.320000e+09	3.177447e+13	0.000000e+00	6.402879e-01	5.725831e+14	9.892711e+14	1.611764e+14	1.211581e+04	7.975170e+03	4.295516e+03	0	9.725552e-04
1.330000e+09	3.131640e+13	0.000000e+00	6.402879e-01	5.680098e+14	9.832597e+14	1.605080e+14	1.209788e+04	7.966616e+03	4.290908e+03	0	9.678591e-04
1.340000e+09	3.086494e+13	0.000000e+00	6.402879e-01	5.634996e+14	9.772927e+14	1.598439e+14	1.208009e+04	7.958087e+03	4.286314e+03	0	9.631856e-04
1.350000e+09	3.041994e+13	0.000000e+00	6.402879e-01	5.590513e+14	9.713699e+14	1.591841e+14	1.206244e+04	7.949584e+03	4.281735e+03	0	9.585342e-04
1.360000e+09	2.998126e+13	0.000000e+00	6.402879e-01	5.546637e+14	9.654928e+14	1.585287e+14	1.204492e+04	7.941108e+03	4.277169e+03	0	9.539043e-04
