#t		Qconv[W]	Ri[Rp]		R*[Rp]		Qc[W]		Qm[W]		Qr[W]		Tcmb[K]		Tl[K]		Tup[K]		RiFlag		Bs[T]
0.000000e+00	3.409652e+14	0.000000e+00	6.402876e-01	3.499239e+15	5.705205e+13	3.197464e+14	1.852492e+04	5.235526e+03	2.796416e+03	0	2.142434e-03
1.000000e+07	3.367259e+14	0.000000e+00	6.402876e-01	3.459068e+15	6.755386e+13	3.179748e+14	1.842273e+04	5.357493e+03	2.861561e+03	0	2.133518e-03
2.000000e+07	3.323970e+14	0.000000e+00	6.402876e-01	3.418135e+15	7.931740e+13	3.162164e+14	1.832169e+04	5.477737e+03	2.925786e+03	0	2.124336e-03
3.000000e+07	3.279847e+14	0.000000e+00	6.402876e-01	3.376494e+15	9.239618e+13	3.144711e+14	1.822185e+04	5.596192e+03	2.989056e+03	0	2.114894e-03
4.000000e+07	3.234954e+14	0.000000e+00	6.402876e-01	3.334204e+15	1.068349e+14	3.127389e+14	1.812321e+04	5.712791e+03	3.051334e+03	0	2.105201e-03
5.000000e+07	3.189356e+14	0.000000e+00	6.402876e-01	3.291322e+15	1.226687e+14	3.110196e+14	1.802579e+04	5.827469e+03	3.112587e+03	0	2.095263e-03
6.000000e+07	3.143119e+14	0.000000e+00	6.402876e-01	3.247907e+15	1.399221e+14	3.093132e+14	1.792962e+04	5.940163e+03	3.172779e+03	0	2.085088e-03
7.000000e+07	3.096311e+14	0.000000e+00	6.402876e-01	3.204019e+15	1.586086e+14	3.076194e+14	1.783471e+04	6.050807e+03	3.231877e+03	0	2.074686e-03
8.000000e+07	3.049000e+14	0.000000e+00	6.402876e-01	3.159719e+15	1.787304e+14	3.059382e+14	1.774107e+04	6.159342e+03	3.289848e+03	0	2.064065e-03
9.000000e+07	3.001255e+14	0.000000e+00	6.402876e-01	3.115069e+15	2.002778e+14	3.042696e+14	1.764872e+04	6.265707e+03	3.346660e+03	0	2.053234e-03
1.000000e+08	2.953147e+14	0.000000e+00	6.402876e-01	3.070131e+15	2.232293e+14	3.026133e+14	1.755766e+04	6.369846e+03	3.402283e+03	0	2.042204e-03
1.100000e+08	2.904744e+14	0.000000e+00	6.402876e-01	3.024966e+15	2.475514e+14	3.009693e+14	1.746791e+04	6.471704e+03	3.456687e+03	0	2.030985e-03
1.200000e+08	2.856117e+14	0.000000e+00	6.402876e-01	2.979638e+15	2.731994e+14	2.993375e+14	1.737947e+04	6.571232e+03	3.509847e+03	0	2.019588e-03
1.300000e+08	2.807336e+14	0.000000e+00	6.402876e-01	2.934207e+15	3.001172e+14	2.977178e+14	1.729234e+04	6.668380e+03	3.561737e+03	0	2.008024e-03
1.400000e+08	2.758470e+14	0.000000e+00	6.402876e-01	2.888736e+15	3.282383e+14	2.961100e+14	1.720654e+04	6.763108e+03	3.612333e+03	0	1.996305e-03
1.500000e+08	2.709587e+14	0.000000e+00	6.402876e-01	2.843284e+15	3.574862e+14	2.945142e+14	1.712205e+04	6.855375e+03	3.661615e+03	0	1.984443e-03
1.600000e+08	2.660755e+14	0.000000e+00	6.402876e-01	2.797910e+15	3.877758e+14	2.929301e+14	1.703889e+04	6.945147e+03	3.709564e+03	0	1.972449e-03
1.700000e+08	2.612037e+14	0.000000e+00	6.402876e-01	2.752673e+15	4.190135e+14	2.913578e+14	1.695705e+04	7.032396e+03	3.756166e+03	0	1.960336e-03
1.800000e+08	2.563499e+14	0.000000e+00	6.402876e-01	2.707629e+15	4.510991e+14	2.897970e+14	1.687652e+04	7.117096e+03	3.801406e+03	0	1.948118e-03
1.900000e+08	2.515201e+14	0.000000e+00	6.402876e-01	2.662832e+15	4.839265e+14	2.882477e+14	1.679730e+04	7.199229e+03	3.845275e+03	0	1.935806e-03
2.000000e+08	2.467203e+14	0.000000e+00	6.402876e-01	2.618333e+15	5.173850e+14	2.867098e+14	1.671938e+04	7.278781e+03	3.887766e+03	0	1.923412e-03
2.100000e+08	2.419560e+14	0.000000e+00	6.402876e-01	2.574183e+15	5.513606e+14	2.851832e+14	1.664276e+04	7.355743e+03	3.928873e+03	0	1.910951e-03
2.200000e+08	2.372326e+14	0.000000e+00	6.402876e-01	2.530428e+15	5.857367e+14	2.836679e+14	1.656743e+04	7.430111e+03	3.968595e+03	0	1.898434e-03
2.300000e+08	2.325551e+14	0.000000e+00	6.402876e-01	2.487112e+15	6.203962e+14	2.821636e+14	1.649336e+04	7.501889e+03	4.006933e+03	0	1.885874e-03
2.400000e+08	2.279282e+14	0.000000e+00	6.402876e-01	2.444277e+15	6.552219e+14	2.806704e+14	1.642056e+04	7.571083e+03	4.043891e+03	0	1.873284e-03
2.500000e+08	2.233563e+14	0.000000e+00	6.402876e-01	2.401961e+15	6.900980e+14	2.791881e+14	1.634900e+04	7.637705e+03	4.079476e+03	0	1.860674e-03
2.600000e+08	2.188434e+14	0.000000e+00	6.402876e-01	2.360199e+15	7.249110e+14	2.777167e+14	1.627868e+04	7.701774e+03	4.113696e+03	0	1.848057e-03
2.700000e+08	2.143932e+14	0.000000e+00	6.402876e-01	2.319023e+15	7.595506e+14	2.762560e+14	1.620957e+04	7.763311e+03	4.146564e+03	0	1.835444e-03
2.800000e+08	2.100089e+14	0.000000e+00	6.402876e-01	2.278462e+15	7.939108e+14	2.748060e+14	1.614167e+04	7.822343e+03	4.178095e+03	0	1.822846e-03
2.900000e+08	2.056935e+14	0.000000e+00	6.402876e-01	2.238541e+15	8.278904e+14	2.733666e+14	1.607494e+04	7.878901e+03	4.208304e+03	0	1.810274e-03
3.000000e+08	2.014496e+14	0.000000e+00	6.402876e-01	2.199283e+15	8.613933e+14	2.719377e+14	1.600938e+04	7.933020e+03	4.237210e+03	0	1.797737e-03
3.100000e+08	1.972794e+14	0.000000e+00	6.402876e-01	2.160708e+15	8.943304e+14	2.705192e+14	1.594496e+04	7.984739e+03	4.264835e+03	0	1.785246e-03
3.200000e+08	1.931848e+14	0.000000e+00	6.402876e-01	2.122830e+15	9.266184e+14	2.691110e+14	1.588166e+04	8.034101e+03	4.291200e+03	0	1.772809e-03
3.300000e+08	1.891675e+14	0.000000e+00	6.402876e-01	2.085665e+15	9.581808e+14	2.677130e+14	1.581947e+04	8.081150e+03	4.316330e+03	0	1.760434e-03
3.400000e+08	1.852286e+14	0.000000e+00	6.402876e-01	2.049222e+15	9.889489e+14	2.663252e+14	1.575836e+04	8.125934e+03	4.340250e+03	0	1.748129e-03
3.500000e+08	1.813692e+14	0.000000e+00	6.402876e-01	2.013510e+15	1.018860e+15	2.649475e+14	1.569832e+04	8.168505e+03	4.362988e+03	0	1.735903e-03
3.600000e+08	1.775899e+14	0.000000e+00	6.402876e-01	1.978533e+15	1.047860e+15	2.635797e+14	1.563931e+04	8.208915e+03	4.384572e+03	0	1.723760e-03
3.700000e+08	1.738911e+14	0.000000e+00	6.402876e-01	1.944296e+15	1.075900e+15	2.622219e+14	1.558133e+04	8.247219e+03	4.405031e+03	0	1.711709e-03
3.800000e+08	1.702730e+14	0.000000e+00	6.402876e-01	1.910799e+15	1.102941e+15	2.608739e+14	1.552434e+04	8.283472e+03	4.424395e+03	0	1.699754e-03
3.900000e+08	1.667355e+14	0.000000e+00	6.402876e-01	1.878040e+15	1.128948e+15	2.595356e+14	1.546834e+04	8.317733e+03	4.442694e+03	0	1.687901e-03
4.000000e+08	1.632784e+14	0.000000e+00	6.402876e-01	1.846018e+15	1.153893e+15	2.582070e+14	1.541328e+04	8.350059e+03	4.459960e+03	0	1.676153e-03
4.100000e+08	1.599011e+14	0.000000e+00	6.402876e-01	1.814726e+15	1.177757e+15	2.568880e+14	1.535916e+04	8.380510e+03	4.476225e+03	0	1.664516e-03
4.200000e+08	1.566030e+14	0.000000e+00	6.402876e-01	1.784159e+15	1.200523e+15	2.555784e+14	1.530596e+04	8.409145e+03	4.491519e+03	0	1.652992e-03
4.300000e+08	1.533834e+14	0.000000e+00	6.402876e-01	1.754308e+15	1.222184e+15	2.542784e+14	1.525365e+04	8.436023e+03	4.505876e+03	0	1.641586e-03
4.400000e+08	1.502411e+14	0.000000e+00	6.402876e-01	1.725166e+15	1.242733e+15	2.529876e+14	1.520220e+04	8.461205e+03	4.519326e+03	0	1.630298e-03
4.500000e+08	1.471752e+14	0.000000e+00	6.402876e-01	1.696721e+15	1.262173e+15	2.517062e+14	1.515161e+04	8.484749e+03	4.531901e+03	0	1.619132e-03
4.600000e+08	1.441845e+14	0.000000e+00	6.402876e-01	1.668962e+15	1.280508e+15	2.504339e+14	1.510185e+04	8.506715e+03	4.543634e+03	0	1.608090e-03
4.700000e+08	1.412676e+14	0.000000e+00	6.402876e-01	1.641879e+15	1.297747e+15	2.491708e+14	1.505290e+04	8.527160e+03	4.554554e+03	0	1.597172e-03
4.800000e+08	1.384232e+14	0.000000e+00	6.402876e-01	1.615458e+15	1.313904e+15	2.479167e+14	1.500474e+04	8.546143e+03	4.564693e+03	0	1.586380e-03
4.900000e+08	1.356499e+14	0.000000e+00	6.402876e-01	1.589685e+15	1.328994e+15	2.466716e+14	1.495736e+04	8.563720e+03	4.574082e+03	0	1.575714e-03
5.000000e+08	1.329462e+14	0.000000e+00	6.402876e-01	1.564548e+15	1.343035e+15	2.454354e+14	1.491072e+04	8.579947e+03	4.582749e+03	0	1.565175e-03
5.100000e+08	1.303105e+14	0.000000e+00	6.402876e-01	1.540032e+15	1.356051e+15	2.442080e+14	1.486482e+04	8.594878e+03	4.590724e+03	0	1.554762e-03
5.200000e+08	1.277413e+14	0.000000e+00	6.402876e-01	1.516123e+15	1.368064e+15	2.429894e+14	1.481963e+04	8.608567e+03	4.598035e+03	0	1.544477e-03
5.300000e+08	1.252370e+14	0.000000e+00	6.402876e-01	1.492806e+15	1.379101e+15	2.417795e+14	1.477515e+04	8.621066e+03	4.604711e+03	0	1.534317e-03
5.400000e+08	1.227960e+14	0.000000e+00	6.402876e-01	1.470066e+15	1.389187e+15	2.405782e+14	1.473134e+04	8.632426e+03	4.610779e+03	0	1.524283e-03
5.500000e+08	1.204165e+14	0.000000e+00	6.402876e-01	1.447890e+15	1.398351e+15	2.393854e+14	1.468820e+04	8.642696e+03	4.616264e+03	0	1.514373e-03
5.600000e+08	1.180972e+14	0.000000e+00	6.402876e-01	1.426261e+15	1.406623e+15	2.382011e+14	1.464571e+04	8.651924e+03	4.621193e+03	0	1.504587e-03
5.700000e+08	1.158362e+14	0.000000e+00	6.402876e-01	1.405166e+15	1.414033e+15	2.370253e+14	1.460385e+04	8.660157e+03	4.625591e+03	0	1.494923e-03
5.800000e+08	1.136321e+14	0.000000e+00	6.402876e-01	1.384589e+15	1.420611e+15	2.358577e+14	1.456260e+04	8.667440e+03	4.629481e+03	0	1.485381e-03
5.900000e+08	1.114831e+14	0.000000e+00	6.402876e-01	1.364517e+15	1.426389e+15	2.346985e+14	1.452196e+04	8.673816e+03	4.632886e+03	0	1.475958e-03
6.000000e+08	1.093879e+14	0.000000e+00	6.402876e-01	1.344935e+15	1.431397e+15	2.335474e+14	1.448191e+04	8.679327e+03	4.635830e+03	0	1.466652e-03
6.100000e+08	1.073447e+14	0.000000e+00	6.402876e-01	1.325828e+15	1.435667e+15	2.324046e+14	1.444242e+04	8.684016e+03	4.638334e+03	0	1.457464e-03
6.200000e+08	1.053521e+14	0.000000e+00	6.402876e-01	1.307184e+15	1.439229e+15	2.312697e+14	1.440350e+04	8.687919e+03	4.640419e+03	0	1.448389e-03
6.300000e+08	1.034087e+14	0.000000e+00	6.402876e-01	1.288989e+15	1.442114e+15	2.301429e+14	1.436512e+04	8.691076e+03	4.642105e+03	0	1.439428e-03
6.400000e+08	1.015128e+14	0.000000e+00	6.402876e-01	1.271229e+15	1.444353e+15	2.290240e+14	1.432727e+04	8.693522e+03	4.643412e+03	0	1.430577e-03
6.500000e+08	9.966321e+13	0.000000e+00	6.402876e-01	1.253891e+15	1.445975e+15	2.279131e+14	1.428994e+04	8.695293e+03	4.644357e+03	0	1.421835e-03
6.600000e+08	9.785840e+13	0.000000e+00	6.402876e-01	1.236963e+15	1.447010e+15	2.268099e+14	1.425312e+04	8.696421e+03	4.644960e+03	0	1.413200e-03
6.700000e+08	9.609704e+13	0.000000e+00	6.402876e-01	1.220432e+15	1.447485e+15	2.257145e+14	1.421679e+04	8.696940e+03	4.645237e+03	0	1.404669e-03
6.800000e+08	9.437781e+13	0.000000e+00	6.402876e-01	1.204287e+15	1.447430e+15	2.246268e+14	1.418095e+04	8.696879e+03	4.645205e+03	0	1.396242e-03
6.900000e+08	9.269942e+13	0.000000e+00	6.402876e-01	1.188515e+15	1.446871e+15	2.235467e+14	1.414558e+04	8.696270e+03	4.644879e+03	0	1.387916e-03
7.000000e+08	9.106062e+13	0.000000e+00	6.402876e-01	1.173106e+15	1.445834e+15	2.224742e+14	1.411067e+04	8.695139e+03	4.644275e+03	0	1.379688e-03
7.100000e+08	8.946020e+13	0.000000e+00	6.402876e-01	1.158048e+15	1.444346e+15	2.214092e+14	1.407621e+04	8.693514e+03	4.643407e+03	0	1.371558e-03
7.200000e+08	8.789698e+13	0.000000e+00	6.402876e-01	1.143331e+15	1.442430e+15	2.203516e+14	1.404220e+04	8.691421e+03	4.642289e+03	0	1.363522e-03
7.300000e+08	8.636981e+13	0.000000e+00	6.402876e-01	1.128944e+15	1.440110e+15	2.193014e+14	1.400861e+04	8.688884e+03	4.640935e+03	0	1.355579e-03
7.400000e+08	8.487758e+13	0.000000e+00	6.402876e-01	1.114877e+15	1.437411e+15	2.182586e+14	1.397544e+04	8.685928e+03	4.639356e+03	0	1.347727e-03
7.500000e+08	8.341924e+13	0.000000e+00	6.402876e-01	1.101120e+15	1.434354e+15	2.172230e+14	1.394269e+04	8.682575e+03	4.637565e+03	0	1.339963e-03
7.600000e+08	8.199373e+13	0.000000e+00	6.402876e-01	1.087665e+15	1.430959e+15	2.161947e+14	1.391034e+04	8.678846e+03	4.635573e+03	0	1.332287e-03
7.700000e+08	8.060006e+13	0.000000e+00	6.402876e-01	1.074501e+15	1.427248e+15	2.151735e+14	1.387838e+04	8.674763e+03	4.633392e+03	0	1.324695e-03
7.800000e+08	7.923726e+13	0.000000e+00	6.402876e-01	1.061621e+15	1.423241e+15	2.141594e+14	1.384681e+04	8.670344e+03	4.631032e+03	0	1.317187e-03
7.900000e+08	7.790440e+13	0.000000e+00	6.402876e-01	1.049015e+15	1.418956e+15	2.131523e+14	1.381561e+04	8.665609e+03	4.628503e+03	0	1.309759e-03
8.000000e+08	7.660055e+13	0.000000e+00	6.402876e-01	1.036676e+15	1.414411e+15	2.121522e+14	1.378478e+04	8.660575e+03	4.625814e+03	0	1.302411e-03
8.100000e+08	7.532487e+13	0.000000e+00	6.402876e-01	1.024595e+15	1.409623e+15	2.111591e+14	1.375432e+04	8.655260e+03	4.622975e+03	0	1.295141e-03
8.200000e+08	7.407649e+13	0.000000e+00	6.402876e-01	1.012765e+15	1.404608e+15	2.101728e+14	1.372421e+04	8.649680e+03	4.619995e+03	0	1.287946e-03
8.300000e+08	7.285460e+13	0.000000e+00	6.402876e-01	1.001179e+15	1.399384e+15	2.091934e+14	1.369444e+04	8.643850e+03	4.616881e+03	0	1.280825e-03
8.400000e+08	7.165843e+13	0.000000e+00	6.402876e-01	9.898287e+14	1.393963e+15	2.082207e+14	1.366501e+04	8.637784e+03	4.613641e+03	0	1.273777e-03
8.500000e+08	7.048720e+13	0.000000e+00	6.402876e-01	9.787080e+14	1.388361e+15	2.072547e+14	1.363592e+04	8.631498e+03	4.610283e+03	0	1.266799e-03
8.600000e+08	6.934020e+13	0.000000e+00	6.402876e-01	9.678101e+14	1.382591e+15	2.062954e+14	1.360715e+04	8.625004e+03	4.606815e+03	0	1.259890e-03
8.700000e+08	6.821670e+13	0.000000e+00	6.402876e-01	9.571285e+14	1.376666e+15	2.053427e+14	1.357870e+04	8.618315e+03	4.603242e+03	0	1.253048e-03
8.800000e+08	6.711603e+13	0.000000e+00	6.402876e-01	9.466570e+14	1.370598e+15	2.043965e+14	1.355057e+04	8.611443e+03	4.599571e+03	0	1.246272e-03
8.900000e+08	6.603754e+13	0.000000e+00	6.402876e-01	9.363897e+14	1.364399e+15	2.034569e+14	1.352274e+04	8.604399e+03	4.595809e+03	0	1.239561e-03
9.000000e+08	6.498058e+13	0.000000e+00	6.402876e-01	9.263208e+14	1.358080e+15	2.025237e+14	1.349521e+04	8.597195e+03	4.591962e+03	0	1.232912e-03
9.100000e+08	6.394455e+13	0.000000e+00	6.402876e-01	9.164447e+14	1.351650e+15	2.015969e+14	1.346798e+04	8.589841e+03	4.588033e+03	0	1.226324e-03
9.200000e+08	6.292885e+13	0.000000e+00	6.402876e-01	9.067561e+14	1.345121e+15	2.006764e+14	1.344103e+04	8.582347e+03	4.584030e+03	0	1.219797e-03
9.300000e+08	6.193292e+13	0.000000e+00	6.402876e-01	8.972498e+14	1.338502e+15	1.997622e+14	1.341437e+04	8.574721e+03	4.579958e+03	0	1.213327e-03
9.400000e+08	6.095620e+13	0.000000e+00	6.402876e-01	8.879207e+14	1.331801e+15	1.988543e+14	1.338799e+04	8.566974e+03	4.575819e+03	0	1.206915e-03
9.500000e+08	5.999817e+13	0.000000e+00	6.402876e-01	8.787640e+14	1.325026e+15	1.979526e+14	1.336188e+04	8.559113e+03	4.571621e+03	0	1.200559e-03
9.600000e+08	5.905830e+13	0.000000e+00	6.402876e-01	8.697752e+14	1.318186e+15	1.970570e+14	1.333604e+04	8.551146e+03	4.567366e+03	0	1.194257e-03
9.700000e+08	5.813611e+13	0.000000e+00	6.402876e-01	8.609495e+14	1.311289e+15	1.961675e+14	1.331046e+04	8.543082e+03	4.563058e+03	0	1.188008e-03
9.800000e+08	5.723112e+13	0.000000e+00	6.402876e-01	8.522828e+14	1.304340e+15	1.952841e+14	1.328514e+04	8.534927e+03	4.558703e+03	0	1.181812e-03
9.900000e+08	5.634286e+13	0.000000e+00	6.402876e-01	8.437708e+14	1.297348e+15	1.944067e+14	1.326008e+04	8.526689e+03	4.554302e+03	0	1.175666e-03
1.000000e+09	5.547090e+13	0.000000e+00	6.402876e-01	8.354094e+14	1.290317e+15	1.935352e+14	1.323526e+04	8.518373e+03	4.549861e+03	0	1.169569e-03
1.010000e+09	5.461480e+13	0.000000e+00	6.402876e-01	8.271947e+14	1.283256e+15	1.926697e+14	1.321069e+04	8.509987e+03	4.545381e+03	0	1.163521e-03
1.020000e+09	5.377414e+13	0.000000e+00	6.402876e-01	8.191230e+14	1.276167e+15	1.918100e+14	1.318636e+04	8.501535e+03	4.540867e+03	0	1.157520e-03
1.030000e+09	5.294853e+13	0.000000e+00	6.402876e-01	8.111905e+14	1.269058e+15	1.909561e+14	1.316227e+04	8.493024e+03	4.536321e+03	0	1.151566e-03
1.040000e+09	5.213758e+13	0.000000e+00	6.402876e-01	8.033938e+14	1.261932e+15	1.901080e+14	1.313841e+04	8.484459e+03	4.531746e+03	0	1.145657e-03
1.050000e+09	5.134090e+13	0.000000e+00	6.402876e-01	7.957294e+14	1.254796e+15	1.892656e+14	1.311478e+04	8.475845e+03	4.527145e+03	0	1.139791e-03
1.060000e+09	5.055814e+13	0.000000e+00	6.402876e-01	7.881940e+14	1.247651e+15	1.884289e+14	1.309137e+04	8.467187e+03	4.522521e+03	0	1.133969e-03
1.070000e+09	4.978896e+13	0.000000e+00	6.402876e-01	7.807844e+14	1.240505e+15	1.875979e+14	1.306819e+04	8.458488e+03	4.517875e+03	0	1.128189e-03
1.080000e+09	4.903300e+13	0.000000e+00	6.402876e-01	7.734975e+14	1.233359e+15	1.867724e+14	1.304522e+04	8.449755e+03	4.513210e+03	0	1.122450e-03
1.090000e+09	4.828994e+13	0.000000e+00	6.402876e-01	7.663303e+14	1.226217e+15	1.859525e+14	1.302246e+04	8.440990e+03	4.508529e+03	0	1.116751e-03
1.100000e+09	4.755946e+13	0.000000e+00	6.402876e-01	7.592800e+14	1.219084e+15	1.851381e+14	1.299992e+04	8.432198e+03	4.503832e+03	0	1.111091e-03
1.110000e+09	4.684126e+13	0.000000e+00	6.402876e-01	7.523436e+14	1.211961e+15	1.843292e+14	1.297758e+04	8.423381e+03	4.499123e+03	0	1.105470e-03
1.120000e+09	4.613504e+13	0.000000e+00	6.402876e-01	7.455185e+14	1.204853e+15	1.835256e+14	1.295544e+04	8.414545e+03	4.494403e+03	0	1.099886e-03
1.130000e+09	4.544051e+13	0.000000e+00	6.402876e-01	7.388021e+14	1.197761e+15	1.827275e+14	1.293351e+04	8.405691e+03	4.489674e+03	0	1.094339e-03
1.140000e+09	4.475739e+13	0.000000e+00	6.402876e-01	7.321918e+14	1.190688e+15	1.819347e+14	1.291177e+04	8.396823e+03	4.484938e+03	0	1.088827e-03
1.150000e+09	4.408542e+13	0.000000e+00	6.402876e-01	7.256851e+14	1.183637e+15	1.811471e+14	1.289023e+04	8.387944e+03	4.480196e+03	0	1.083351e-03
1.160000e+09	4.342433e+13	0.000000e+00	6.402876e-01	7.192797e+14	1.176611e+15	1.803649e+14	1.286887e+04	8.379058e+03	4.475449e+03	0	1.077908e-03
1.170000e+09	4.277386e+13	0.000000e+00	6.402876e-01	7.129732e+14	1.169610e+15	1.795878e+14	1.284771e+04	8.370165e+03	4.470699e+03	0	1.072499e-03
1.180000e+09	4.213378e+13	0.000000e+00	6.402876e-01	7.067634e+14	1.162637e+15	1.788159e+14	1.282673e+04	8.361270e+03	4.465948e+03	0	1.067123e-03
1.190000e+09	4.150384e+13	0.000000e+00	6.402876e-01	7.006481e+14	1.155694e+15	1.780492e+14	1.280593e+04	8.352373e+03	4.461196e+03	0	1.061778e-03
1.200000e+09	4.088382e+13	0.000000e+00	6.402876e-01	6.946251e+14	1.148783e+15	1.772875e+14	1.278531e+04	8.343479e+03	4.456446e+03	0	1.056464e-03
1.210000e+09	4.027348e+13	0.000000e+00	6.402876e-01	6.886925e+14	1.141905e+15	1.765309e+14	1.276487e+04	8.334588e+03	4.451697e+03	0	1.051180e-03
1.220000e+09	3.967262e+13	0.000000e+00	6.402876e-01	6.828483e+14	1.135060e+15	1.757793e+14	1.274460e+04	8.325702e+03	4.446951e+03	0	1.045926e-03
1.230000e+09	3.908102e+13	0.000000e+00	6.402876e-01	6.770905e+14	1.128252e+15	1.750327e+14	1.272451e+04	8.316824e+03	4.442209e+03	0	1.040701e-03
1.240000e+09	3.849848e+13	0.000000e+00	6.402876e-01	6.714172e+14	1.121481e+15	1.742910e+14	1.270458e+04	8.307956e+03	4.437472e+03	0	1.035505e-03
1.250000e+09	3.792479e+13	0.000000e+00	6.402876e-01	6.658266e+14	1.114748e+15	1.735542e+14	1.268482e+04	8.299099e+03	4.432741e+03	0	1.030335e-03
1.260000e+09	3.735978e+13	0.000000e+00	6.402876e-01	6.603170e+14	1.108054e+15	1.728222e+14	1.266522e+04	8.290254e+03	4.428017e+03	0	1.025193e-03
1.270000e+09	3.680324e+13	0.000000e+00	6.402876e-01	6.548867e+14	1.101399e+15	1.720951e+14	1.264578e+04	8.281423e+03	4.423300e+03	0	1.020077e-03
1.280000e+09	3.625500e+13	0.000000e+00	6.402876e-01	6.495339e+14	1.094786e+15	1.713728e+14	1.262651e+04	8.272608e+03	4.418592e+03	0	1.014986e-03
1.290000e+09	3.571488e+13	0.000000e+00	6.402876e-01	6.442570e+14	1.088214e+15	1.706552e+14	1.260739e+04	8.263810e+03	4.413892e+03	0	1.009921e-03
1.300000e+09	3.518272e+13	0.000000e+00	6.402876e-01	6.390546e+14	1.081685e+15	1.699423e+14	1.258842e+04	8.255029e+03	4.409203e+03	0	1.004879e-03
1.310000e+09	3.465833e+13	0.000000e+00	6.402876e-01	6.339249e+14	1.075198e+15	1.692341e+14	1.256961e+04	8.246269e+03	4.404523e+03	0	9.998619e-04
1.320000e+09	3.414157e+13	0.000000e+00	6.402876e-01	6.288667e+14	1.068755e+15	1.685306e+14	1.255095e+04	8.237528e+03	4.399855e+03	0	9.948676e-04
1.330000e+09	3.363227e+13	0.000000e+00	6.402876e-01	6.238783e+14	1.062356e+15	1.678316e+14	1.253244e+04	8.228809e+03	4.395198e+03	0	9.898959e-04
1.340000e+09	3.313028e+13	0.000000e+00	6.402876e-01	6.189584e+14	1.056001e+15	1.671372e+14	1.251407e+04	8.220113e+03	4.390553e+03	0	9.849462e-04
1.350000e+09	3.263545e+13	0.000000e+00	6.402876e-01	6.141056e+14	1.049691e+15	1.664473e+14	1.249585e+04	8.211440e+03	4.385920e+03	0	9.800179e-04
1.360000e+09	3.214764e+13	0.000000e+00	6.402876e-01	6.093187e+14	1.043427e+15	1.657620e+14	1.247777e+04	8.202791e+03	4.381301e+03	0	9.751105e-04
