#t		Qconv[W]	Ri[Rp]		R*[Rp]		Qc[W]		Qm[W]		Qr[W]		Tcmb[K]		Tl[K]		Tup[K]		RiFlag		Bs[T]
0.000000e+00	4.104146e+14	0.000000e+00	6.402879e-01	4.106493e+15	5.549104e+13	3.429576e+14	1.959923e+04	5.392195e+03	2.825211e+03	0	2.272949e-03
1.000000e+07	4.055977e+14	0.000000e+00	6.402879e-01	4.062037e+15	6.654592e+13	3.410573e+14	1.949095e+04	5.526116e+03	2.895379e+03	0	2.264022e-03
2.000000e+07	4.006483e+14	0.000000e+00	6.402879e-01	4.016486e+15	7.906153e+13	3.391713e+14	1.938384e+04	5.658263e+03	2.964617e+03	0	2.254775e-03
3.000000e+07	3.955743e+14	0.000000e+00	6.402879e-01	3.969907e+15	9.311476e+13	3.372994e+14	1.927792e+04	5.788558e+03	3.032884e+03	0	2.245216e-03
4.000000e+07	3.903836e+14	0.000000e+00	6.402879e-01	3.922370e+15	1.087727e+14	3.354414e+14	1.917321e+04	5.916920e+03	3.100139e+03	0	2.235352e-03
5.000000e+07	3.850846e+14	0.000000e+00	6.402879e-01	3.873946e+15	1.260911e+14	3.335973e+14	1.906975e+04	6.043272e+03	3.166340e+03	0	2.225192e-03
6.000000e+07	3.796858e+14	0.000000e+00	6.402879e-01	3.824708e+15	1.451136e+14	3.317670e+14	1.896755e+04	6.167536e+03	3.231447e+03	0	2.214744e-03
7.000000e+07	3.741959e+14	0.000000e+00	6.402879e-01	3.774733e+15	1.658705e+14	3.299503e+14	1.886665e+04	6.289634e+03	3.295420e+03	0	2.204018e-03
8.000000e+07	3.686239e+14	0.000000e+00	6.402879e-01	3.724096e+15	1.883777e+14	3.281470e+14	1.876705e+04	6.409491e+03	3.358218e+03	0	2.193023e-03
9.000000e+07	3.629788e+14	0.000000e+00	6.402879e-01	3.672876e+15	2.126366e+14	3.263572e+14	1.866878e+04	6.527034e+03	3.419804e+03	0	2.181771e-03
1.000000e+08	3.572698e+14	0.000000e+00	6.402879e-01	3.621152e+15	2.386337e+14	3.245807e+14	1.857186e+04	6.642192e+03	3.480141e+03	0	2.170272e-03
1.100000e+08	3.515062e+14	0.000000e+00	6.402879e-01	3.569003e+15	2.663400e+14	3.228174e+14	1.847628e+04	6.754898e+03	3.539193e+03	0	2.158538e-03
1.200000e+08	3.456974e+14	0.000000e+00	6.402879e-01	3.516511e+15	2.957115e+14	3.210671e+14	1.838208e+04	6.865088e+03	3.596926e+03	0	2.146582e-03
1.300000e+08	3.398527e+14	0.000000e+00	6.402879e-01	3.463754e+15	3.266897e+14	3.193298e+14	1.828925e+04	6.972701e+03	3.653309e+03	0	2.134415e-03
1.400000e+08	3.339815e+14	0.000000e+00	6.402879e-01	3.410813e+15	3.592016e+14	3.176054e+14	1.819781e+04	7.077682e+03	3.708313e+03	0	2.122053e-03
1.500000e+08	3.280930e+14	0.000000e+00	6.402879e-01	3.357768e+15	3.931615e+14	3.158937e+14	1.810775e+04	7.179980e+03	3.761912e+03	0	2.109507e-03
1.600000e+08	3.221964e+14	0.000000e+00	6.402879e-01	3.304696e+15	4.284705e+14	3.141947e+14	1.801909e+04	7.279549e+03	3.814081e+03	0	2.096793e-03
1.700000e+08	3.163007e+14	0.000000e+00	6.402879e-01	3.251674e+15	4.650189e+14	3.125081e+14	1.793182e+04	7.376350e+03	3.864799e+03	0	2.083925e-03
1.800000e+08	3.104146e+14	0.000000e+00	6.402879e-01	3.198777e+15	5.026876e+14	3.108341e+14	1.784594e+04	7.470349e+03	3.914049e+03	0	2.070917e-03
1.900000e+08	3.045466e+14	0.000000e+00	6.402879e-01	3.146077e+15	5.413480e+14	3.091723e+14	1.776145e+04	7.561517e+03	3.961816e+03	0	2.057785e-03
2.000000e+08	2.987048e+14	0.000000e+00	6.402879e-01	3.093644e+15	5.808654e+14	3.075228e+14	1.767834e+04	7.649833e+03	4.008089e+03	0	2.044542e-03
2.100000e+08	2.928973e+14	0.000000e+00	6.402879e-01	3.041546e+15	6.210994e+14	3.058854e+14	1.759661e+04	7.735280e+03	4.052859e+03	0	2.031205e-03
2.200000e+08	2.871313e+14	0.000000e+00	6.402879e-01	2.989845e+15	6.619059e+14	3.042600e+14	1.751625e+04	7.817851e+03	4.096121e+03	0	2.017788e-03
2.300000e+08	2.814142e+14	0.000000e+00	6.402879e-01	2.938601e+15	7.031382e+14	3.026466e+14	1.743724e+04	7.897541e+03	4.137874e+03	0	2.004306e-03
2.400000e+08	2.757524e+14	0.000000e+00	6.402879e-01	2.887872e+15	7.446499e+14	3.010450e+14	1.735959e+04	7.974356e+03	4.178121e+03	0	1.990773e-03
2.500000e+08	2.701522e+14	0.000000e+00	6.402879e-01	2.837711e+15	7.862946e+14	2.994551e+14	1.728327e+04	8.048304e+03	4.216866e+03	0	1.977204e-03
2.600000e+08	2.646194e+14	0.000000e+00	6.402879e-01	2.788164e+15	8.279285e+14	2.978769e+14	1.720826e+04	8.119401e+03	4.254117e+03	0	1.963613e-03
2.700000e+08	2.591591e+14	0.000000e+00	6.402879e-01	2.739277e+15	8.694118e+14	2.963102e+14	1.713456e+04	8.187670e+03	4.289886e+03	0	1.950013e-03
2.800000e+08	2.537762e+14	0.000000e+00	6.402879e-01	2.691091e+15	9.106086e+14	2.947549e+14	1.706214e+04	8.253136e+03	4.324186e+03	0	1.936418e-03
2.900000e+08	2.484750e+14	0.000000e+00	6.402879e-01	2.643640e+15	9.513897e+14	2.932110e+14	1.699099e+04	8.315833e+03	4.357036e+03	0	1.922839e-03
3.000000e+08	2.432592e+14	0.000000e+00	6.402879e-01	2.596958e+15	9.916324e+14	2.916783e+14	1.692109e+04	8.375798e+03	4.388454e+03	0	1.909290e-03
3.100000e+08	2.381321e+14	0.000000e+00	6.402879e-01	2.551071e+15	1.031222e+15	2.901568e+14	1.685242e+04	8.433073e+03	4.418463e+03	0	1.895781e-03
3.200000e+08	2.330967e+14	0.000000e+00	6.402879e-01	2.506004e+15	1.070050e+15	2.886464e+14	1.678496e+04	8.487704e+03	4.447087e+03	0	1.882323e-03
3.300000e+08	2.281554e+14	0.000000e+00	6.402879e-01	2.461775e+15	1.108020e+15	2.871470e+14	1.671868e+04	8.539741e+03	4.474352e+03	0	1.868927e-03
3.400000e+08	2.233100e+14	0.000000e+00	6.402879e-01	2.418403e+15	1.145042e+15	2.856584e+14	1.665356e+04	8.589238e+03	4.500285e+03	0	1.855602e-03
3.500000e+08	2.185621e+14	0.000000e+00	6.402879e-01	2.375897e+15	1.181034e+15	2.841807e+14	1.658959e+04	8.636251e+03	4.524918e+03	0	1.842357e-03
3.600000e+08	2.139129e+14	0.000000e+00	6.402879e-01	2.334269e+15	1.215928e+15	2.827136e+14	1.652673e+04	8.680840e+03	4.548280e+03	0	1.829199e-03
3.700000e+08	2.093632e+14	0.000000e+00	6.402879e-01	2.293524e+15	1.249660e+15	2.812572e+14	1.646497e+04	8.723067e+03	4.570404e+03	0	1.816138e-03
3.800000e+08	2.049133e+14	0.000000e+00	6.402879e-01	2.253665e+15	1.282177e+15	2.798114e+14	1.640429e+04	8.762994e+03	4.591324e+03	0	1.803179e-03
3.900000e+08	2.005635e+14	0.000000e+00	6.402879e-01	2.214691e+15	1.313437e+15	2.783759e+14	1.634465e+04	8.800687e+03	4.611073e+03	0	1.790328e-03
4.000000e+08	1.963134e+14	0.000000e+00	6.402879e-01	2.176601e+15	1.343404e+15	2.769509e+14	1.628604e+04	8.836213e+03	4.629686e+03	0	1.777592e-03
4.100000e+08	1.921626e+14	0.000000e+00	6.402879e-01	2.139390e+15	1.372051e+15	2.755361e+14	1.622844e+04	8.869638e+03	4.647199e+03	0	1.764974e-03
4.200000e+08	1.881105e+14	0.000000e+00	6.402879e-01	2.103051e+15	1.399358e+15	2.741315e+14	1.617181e+04	8.901030e+03	4.663647e+03	0	1.752480e-03
4.300000e+08	1.841560e+14	0.000000e+00	6.402879e-01	2.067576e+15	1.425312e+15	2.727371e+14	1.611614e+04	8.930458e+03	4.679065e+03	0	1.740113e-03
4.400000e+08	1.802981e+14	0.000000e+00	6.402879e-01	2.032954e+15	1.449907e+15	2.713526e+14	1.606141e+04	8.957988e+03	4.693490e+03	0	1.727875e-03
4.500000e+08	1.765354e+14	0.000000e+00	6.402879e-01	1.999172e+15	1.473147e+15	2.699781e+14	1.600759e+04	8.983690e+03	4.706956e+03	0	1.715771e-03
4.600000e+08	1.728665e+14	0.000000e+00	6.402879e-01	1.966219e+15	1.495036e+15	2.686135e+14	1.595466e+04	9.007630e+03	4.719500e+03	0	1.703801e-03
4.700000e+08	1.692897e+14	0.000000e+00	6.402879e-01	1.934079e+15	1.515585e+15	2.672587e+14	1.590260e+04	9.029875e+03	4.731155e+03	0	1.691968e-03
4.800000e+08	1.658034e+14	0.000000e+00	6.402879e-01	1.902738e+15	1.534812e+15	2.659136e+14	1.585138e+04	9.050491e+03	4.741956e+03	0	1.680273e-03
4.900000e+08	1.624058e+14	0.000000e+00	6.402879e-01	1.872179e+15	1.552736e+15	2.645781e+14	1.580099e+04	9.069543e+03	4.751938e+03	0	1.668716e-03
5.000000e+08	1.590949e+14	0.000000e+00	6.402879e-01	1.842386e+15	1.569383e+15	2.632521e+14	1.575141e+04	9.087093e+03	4.761134e+03	0	1.657299e-03
5.100000e+08	1.558689e+14	0.000000e+00	6.402879e-01	1.813342e+15	1.584778e+15	2.619357e+14	1.570261e+04	9.103205e+03	4.769576e+03	0	1.646020e-03
5.200000e+08	1.527257e+14	0.000000e+00	6.402879e-01	1.785028e+15	1.598952e+15	2.606286e+14	1.565458e+04	9.117940e+03	4.777296e+03	0	1.634881e-03
5.300000e+08	1.496633e+14	0.000000e+00	6.402879e-01	1.757427e+15	1.611938e+15	2.593308e+14	1.560730e+04	9.131355e+03	4.784325e+03	0	1.623880e-03
5.400000e+08	1.466797e+14	0.000000e+00	6.402879e-01	1.730521e+15	1.623769e+15	2.580423e+14	1.556074e+04	9.143510e+03	4.790693e+03	0	1.613016e-03
5.500000e+08	1.437728e+14	0.000000e+00	6.402879e-01	1.704292e+15	1.634482e+15	2.567630e+14	1.551489e+04	9.154461e+03	4.796431e+03	0	1.602289e-03
5.600000e+08	1.409406e+14	0.000000e+00	6.402879e-01	1.678722e+15	1.644113e+15	2.554927e+14	1.546974e+04	9.164262e+03	4.801566e+03	0	1.591698e-03
5.700000e+08	1.381809e+14	0.000000e+00	6.402879e-01	1.653792e+15	1.652700e+15	2.542315e+14	1.542526e+04	9.172965e+03	4.806126e+03	0	1.581241e-03
5.800000e+08	1.354918e+14	0.000000e+00	6.402879e-01	1.629485e+15	1.660283e+15	2.529792e+14	1.538144e+04	9.180623e+03	4.810138e+03	0	1.570916e-03
5.900000e+08	1.328713e+14	0.000000e+00	6.402879e-01	1.605783e+15	1.666898e+15	2.517358e+14	1.533825e+04	9.187284e+03	4.813628e+03	0	1.560723e-03
6.000000e+08	1.303172e+14	0.000000e+00	6.402879e-01	1.582668e+15	1.672587e+15	2.505012e+14	1.529570e+04	9.192996e+03	4.816621e+03	0	1.550658e-03
6.100000e+08	1.278278e+14	0.000000e+00	6.402879e-01	1.560123e+15	1.677387e+15	2.492754e+14	1.525375e+04	9.197805e+03	4.819141e+03	0	1.540720e-03
6.200000e+08	1.254009e+14	0.000000e+00	6.402879e-01	1.538131e+15	1.681337e+15	2.480582e+14	1.521240e+04	9.201755e+03	4.821210e+03	0	1.530908e-03
6.300000e+08	1.230349e+14	0.000000e+00	6.402879e-01	1.516675e+15	1.684475e+15	2.468496e+14	1.517163e+04	9.204889e+03	4.822852e+03	0	1.521218e-03
6.400000e+08	1.207277e+14	0.000000e+00	6.402879e-01	1.495740e+15	1.686840e+15	2.456495e+14	1.513143e+04	9.207247e+03	4.824088e+03	0	1.511649e-03
6.500000e+08	1.184775e+14	0.000000e+00	6.402879e-01	1.475309e+15	1.688468e+15	2.444578e+14	1.509178e+04	9.208869e+03	4.824937e+03	0	1.502199e-03
6.600000e+08	1.162827e+14	0.000000e+00	6.402879e-01	1.455367e+15	1.689394e+15	2.432746e+14	1.505267e+04	9.209792e+03	4.825421e+03	0	1.492865e-03
6.700000e+08	1.141415e+14	0.000000e+00	6.402879e-01	1.435899e+15	1.689656e+15	2.420997e+14	1.501408e+04	9.210052e+03	4.825557e+03	0	1.483645e-03
6.800000e+08	1.120522e+14	0.000000e+00	6.402879e-01	1.416890e+15	1.689286e+15	2.409330e+14	1.497601e+04	9.209684e+03	4.825365e+03	0	1.474536e-03
6.900000e+08	1.100132e+14	0.000000e+00	6.402879e-01	1.398326e+15	1.688319e+15	2.397745e+14	1.493844e+04	9.208721e+03	4.824860e+03	0	1.465538e-03
7.000000e+08	1.080229e+14	0.000000e+00	6.402879e-01	1.380192e+15	1.686787e+15	2.386241e+14	1.490136e+04	9.207194e+03	4.824060e+03	0	1.456646e-03
7.100000e+08	1.060798e+14	0.000000e+00	6.402879e-01	1.362477e+15	1.684720e+15	2.374818e+14	1.486476e+04	9.205133e+03	4.822980e+03	0	1.447859e-03
7.200000e+08	1.041824e+14	0.000000e+00	6.402879e-01	1.345166e+15	1.682150e+15	2.363475e+14	1.482863e+04	9.202568e+03	4.821636e+03	0	1.439174e-03
7.300000e+08	1.023292e+14	0.000000e+00	6.402879e-01	1.328246e+15	1.679106e+15	2.352211e+14	1.479296e+04	9.199526e+03	4.820042e+03	0	1.430590e-03
7.400000e+08	1.005189e+14	0.000000e+00	6.402879e-01	1.311707e+15	1.675617e+15	2.341025e+14	1.475773e+04	9.196033e+03	4.818212e+03	0	1.422104e-03
7.500000e+08	9.875019e+13	0.000000e+00	6.402879e-01	1.295536e+15	1.671707e+15	2.329918e+14	1.472294e+04	9.192113e+03	4.816159e+03	0	1.413713e-03
7.600000e+08	9.702169e+13	0.000000e+00	6.402879e-01	1.279721e+15	1.667404e+15	2.318888e+14	1.468858e+04	9.187792e+03	4.813895e+03	0	1.405416e-03
7.700000e+08	9.533216e+13	0.000000e+00	6.402879e-01	1.264252e+15	1.662732e+15	2.307935e+14	1.465463e+04	9.183092e+03	4.811432e+03	0	1.397211e-03
7.800000e+08	9.368040e+13	0.000000e+00	6.402879e-01	1.249118e+15	1.657716e+15	2.297057e+14	1.462110e+04	9.178034e+03	4.808782e+03	0	1.389094e-03
7.900000e+08	9.206525e+13	0.000000e+00	6.402879e-01	1.234309e+15	1.652378e+15	2.286256e+14	1.458796e+04	9.172639e+03	4.805955e+03	0	1.381065e-03
8.000000e+08	9.048556e+13	0.000000e+00	6.402879e-01	1.219815e+15	1.646739e+15	2.275529e+14	1.455521e+04	9.166927e+03	4.802962e+03	0	1.373120e-03
8.100000e+08	8.894027e+13	0.000000e+00	6.402879e-01	1.205626e+15	1.640821e+15	2.264877e+14	1.452285e+04	9.160916e+03	4.799813e+03	0	1.365258e-03
8.200000e+08	8.742831e+13	0.000000e+00	6.402879e-01	1.191734e+15	1.634641e+15	2.254298e+14	1.449086e+04	9.154624e+03	4.796516e+03	0	1.357478e-03
8.300000e+08	8.594867e+13	0.000000e+00	6.402879e-01	1.178129e+15	1.628222e+15	2.243793e+14	1.445924e+04	9.148069e+03	4.793082e+03	0	1.349776e-03
8.400000e+08	8.450038e+13	0.000000e+00	6.402879e-01	1.164802e+15	1.621579e+15	2.233360e+14	1.442798e+04	9.141265e+03	4.789517e+03	0	1.342152e-03
8.500000e+08	8.308250e+13	0.000000e+00	6.402879e-01	1.151746e+15	1.614729e+15	2.222999e+14	1.439708e+04	9.134229e+03	4.785830e+03	0	1.334602e-03
8.600000e+08	8.169412e+13	0.000000e+00	6.402879e-01	1.138952e+15	1.607690e+15	2.212709e+14	1.436651e+04	9.126975e+03	4.782030e+03	0	1.327126e-03
8.700000e+08	8.033436e+13	0.000000e+00	6.402879e-01	1.126413e+15	1.600475e+15	2.202490e+14	1.433629e+04	9.119517e+03	4.778122e+03	0	1.319722e-03
8.800000e+08	7.900239e+13	0.000000e+00	6.402879e-01	1.114122e+15	1.593099e+15	2.192342e+14	1.430639e+04	9.111867e+03	4.774114e+03	0	1.312388e-03
8.900000e+08	7.769739e+13	0.000000e+00	6.402879e-01	1.102071e+15	1.585578e+15	2.182263e+14	1.427683e+04	9.104039e+03	4.770012e+03	0	1.305121e-03
9.000000e+08	7.641858e+13	0.000000e+00	6.402879e-01	1.090253e+15	1.577922e+15	2.172254e+14	1.424758e+04	9.096044e+03	4.765824e+03	0	1.297921e-03
9.100000e+08	7.516520e+13	0.000000e+00	6.402879e-01	1.078662e+15	1.570145e+15	2.162313e+14	1.421864e+04	9.087894e+03	4.761553e+03	0	1.290786e-03
9.200000e+08	7.393653e+13	0.000000e+00	6.402879e-01	1.067291e+15	1.562258e+15	2.152440e+14	1.419001e+04	9.079598e+03	4.757207e+03	0	1.283714e-03
9.300000e+08	7.273187e+13	0.000000e+00	6.402879e-01	1.056135e+15	1.554272e+15	2.142635e+14	1.416168e+04	9.071168e+03	4.752790e+03	0	1.276704e-03
9.400000e+08	7.155053e+13	0.000000e+00	6.402879e-01	1.045187e+15	1.546198e+15	2.132896e+14	1.413364e+04	9.062612e+03	4.748307e+03	0	1.269754e-03
9.500000e+08	7.039187e+13	0.000000e+00	6.402879e-01	1.034441e+15	1.538046e+15	2.123224e+14	1.410590e+04	9.053940e+03	4.743763e+03	0	1.262863e-03
9.600000e+08	6.925526e+13	0.000000e+00	6.402879e-01	1.023892e+15	1.529824e+15	2.113619e+14	1.407844e+04	9.045161e+03	4.739164e+03	0	1.256029e-03
9.700000e+08	6.814009e+13	0.000000e+00	6.402879e-01	1.013535e+15	1.521542e+15	2.104078e+14	1.405126e+04	9.036282e+03	4.734512e+03	0	1.249251e-03
9.800000e+08	6.704577e+13	0.000000e+00	6.402879e-01	1.003365e+15	1.513207e+15	2.094603e+14	1.402435e+04	9.027312e+03	4.729812e+03	0	1.242527e-03
9.900000e+08	6.597175e+13	0.000000e+00	6.402879e-01	9.933758e+14	1.504828e+15	2.085191e+14	1.399771e+04	9.018258e+03	4.725068e+03	0	1.235857e-03
1.000000e+09	6.491747e+13	0.000000e+00	6.402879e-01	9.835635e+14	1.496411e+15	2.075844e+14	1.397134e+04	9.009126e+03	4.720283e+03	0	1.229238e-03
1.010000e+09	6.388241e+13	0.000000e+00	6.402879e-01	9.739233e+14	1.487964e+15	2.066560e+14	1.394522e+04	8.999924e+03	4.715462e+03	0	1.222670e-03
1.020000e+09	6.286606e+13	0.000000e+00	6.402879e-01	9.644507e+14	1.479494e+15	2.057339e+14	1.391936e+04	8.990658e+03	4.710607e+03	0	1.216151e-03
1.030000e+09	6.186793e+13	0.000000e+00	6.402879e-01	9.551414e+14	1.471004e+15	2.048181e+14	1.389375e+04	8.981333e+03	4.705721e+03	0	1.209680e-03
1.040000e+09	6.088755e+13	0.000000e+00	6.402879e-01	9.459912e+14	1.462504e+15	2.039084e+14	1.386839e+04	8.971956e+03	4.700808e+03	0	1.203257e-03
1.050000e+09	5.992445e+13	0.000000e+00	6.402879e-01	9.369960e+14	1.453996e+15	2.030049e+14	1.384327e+04	8.962531e+03	4.695870e+03	0	1.196879e-03
1.060000e+09	5.897821e+13	0.000000e+00	6.402879e-01	9.281520e+14	1.445486e+15	2.021075e+14	1.381839e+04	8.953064e+03	4.690910e+03	0	1.190545e-03
1.070000e+09	5.804839e+13	0.000000e+00	6.402879e-01	9.194555e+14	1.436978e+15	2.012161e+14	1.379374e+04	8.943559e+03	4.685930e+03	0	1.184256e-03
1.080000e+09	5.713457e+13	0.000000e+00	6.402879e-01	9.109026e+14	1.428478e+15	2.003307e+14	1.376932e+04	8.934021e+03	4.680933e+03	0	1.178008e-03
1.090000e+09	5.623636e+13	0.000000e+00	6.402879e-01	9.024900e+14	1.419989e+15	1.994513e+14	1.374513e+04	8.924455e+03	4.675920e+03	0	1.171803e-03
1.100000e+09	5.535338e+13	0.000000e+00	6.402879e-01	8.942142e+14	1.411515e+15	1.985777e+14	1.372116e+04	8.914864e+03	4.670895e+03	0	1.165637e-03
1.110000e+09	5.448524e+13	0.000000e+00	6.402879e-01	8.860720e+14	1.403059e+15	1.977101e+14	1.369741e+04	8.905252e+03	4.665859e+03	0	1.159511e-03
1.120000e+09	5.363159e+13	0.000000e+00	6.402879e-01	8.780600e+14	1.394626e+15	1.968482e+14	1.367387e+04	8.895623e+03	4.660814e+03	0	1.153424e-03
1.130000e+09	5.279208e+13	0.000000e+00	6.402879e-01	8.701753e+14	1.386217e+15	1.959921e+14	1.365055e+04	8.885980e+03	4.655762e+03	0	1.147374e-03
1.140000e+09	5.196637e+13	0.000000e+00	6.402879e-01	8.624148e+14	1.377837e+15	1.951418e+14	1.362744e+04	8.876327e+03	4.650704e+03	0	1.141361e-03
1.150000e+09	5.115413e+13	0.000000e+00	6.402879e-01	8.547757e+14	1.369486e+15	1.942971e+14	1.360453e+04	8.866666e+03	4.645642e+03	0	1.135383e-03
1.160000e+09	5.035504e+13	0.000000e+00	6.402879e-01	8.472551e+14	1.361169e+15	1.934580e+14	1.358182e+04	8.857001e+03	4.640578e+03	0	1.129440e-03
1.170000e+09	4.956881e+13	0.000000e+00	6.402879e-01	8.398503e+14	1.352887e+15	1.926245e+14	1.355931e+04	8.847334e+03	4.635513e+03	0	1.123531e-03
1.180000e+09	4.879512e+13	0.000000e+00	6.402879e-01	8.325587e+14	1.344642e+15	1.917966e+14	1.353700e+04	8.837668e+03	4.630449e+03	0	1.117654e-03
1.190000e+09	4.803369e+13	0.000000e+00	6.402879e-01	8.253777e+14	1.336437e+15	1.909742e+14	1.351489e+04	8.828005e+03	4.625386e+03	0	1.111810e-03
1.200000e+09	4.728424e+13	0.000000e+00	6.402879e-01	8.183049e+14	1.328274e+15	1.901573e+14	1.349296e+04	8.818348e+03	4.620326e+03	0	1.105998e-03
1.210000e+09	4.654651e+13	0.000000e+00	6.402879e-01	8.113378e+14	1.320152e+15	1.893457e+14	1.347122e+04	8.808699e+03	4.615270e+03	0	1.100216e-03
1.220000e+09	4.582022e+13	0.000000e+00	6.402879e-01	8.044741e+14	1.312076e+15	1.885396e+14	1.344966e+04	8.799059e+03	4.610220e+03	0	1.094463e-03
1.230000e+09	4.510512e+13	0.000000e+00	6.402879e-01	7.977115e+14	1.304045e+15	1.877387e+14	1.342829e+04	8.789431e+03	4.605175e+03	0	1.088740e-03
1.240000e+09	4.440097e+13	0.000000e+00	6.402879e-01	7.910480e+14	1.296062e+15	1.869432e+14	1.340709e+04	8.779817e+03	4.600138e+03	0	1.083044e-03
1.250000e+09	4.370753e+13	0.000000e+00	6.402879e-01	7.844812e+14	1.288126e+15	1.861529e+14	1.338607e+04	8.770218e+03	4.595109e+03	0	1.077376e-03
1.260000e+09	4.302455e+13	0.000000e+00	6.402879e-01	7.780092e+14	1.280240e+15	1.853678e+14	1.336523e+04	8.760637e+03	4.590089e+03	0	1.071735e-03
1.270000e+09	4.235182e+13	0.000000e+00	6.402879e-01	7.716300e+14	1.272405e+15	1.845879e+14	1.334456e+04	8.751073e+03	4.585078e+03	0	1.066120e-03
1.280000e+09	4.168912e+13	0.000000e+00	6.402879e-01	7.653415e+14	1.264621e+15	1.838132e+14	1.332405e+04	8.741530e+03	4.580078e+03	0	1.060530e-03
1.290000e+09	4.103623e+13	0.000000e+00	6.402879e-01	7.591419e+14	1.256889e+15	1.830435e+14	1.330371e+04	8.732008e+03	4.575089e+03	0	1.054965e-03
1.300000e+09	4.039294e+13	0.000000e+00	6.402879e-01	7.530295e+14	1.249209e+15	1.822789e+14	1.328354e+04	8.722508e+03	4.570111e+03	0	1.049423e-03
1.310000e+09	3.975906e+13	0.000000e+00	6.402879e-01	7.470022e+14	1.241583e+15	1.815192e+14	1.326353e+04	8.713033e+03	4.565147e+03	0	1.043904e-03
1.320000e+09	3.913438e+13	0.000000e+00	6.402879e-01	7.410585e+14	1.234010e+15	1.807646e+14	1.324368e+04	8.703582e+03	4.560195e+03	0	1.038408e-03
1.330000e+09	3.851873e+13	0.000000e+00	6.402879e-01	7.351967e+14	1.226492e+15	1.800149e+14	1.322398e+04	8.694157e+03	4.555257e+03	0	1.032934e-03
1.340000e+09	3.791190e+13	0.000000e+00	6.402879e-01	7.294150e+14	1.219029e+15	1.792701e+14	1.320445e+04	8.684759e+03	4.550333e+03	0	1.027481e-03
1.350000e+09	3.731373e+13	0.000000e+00	6.402879e-01	7.237119e+14	1.211621e+15	1.785302e+14	1.318506e+04	8.675388e+03	4.545423e+03	0	1.022049e-03
1.360000e+09	3.672403e+13	0.000000e+00	6.402879e-01	7.180858e+14	1.204268e+15	1.777950e+14	1.316582e+04	8.666047e+03	4.540529e+03	0	1.016636e-03
