#t		Qconv[W]	Ri[Rp]		R*[Rp]		Qc[W]		Qm[W]		Qr[W]		Tcmb[K]		Tl[K]		Tup[K]		RiFlag		Bs[T]
0.000000e+00	1.003161e+15	0.000000e+00	6.376810e-01	9.034531e+15	4.534377e+13	4.128344e+14	2.531261e+04	6.076265e+03	2.932252e+03	0	3.058659e-03
1.000000e+07	9.896036e+14	0.000000e+00	6.376810e-01	8.919701e+15	6.151316e+13	4.105470e+14	2.512718e+04	6.323133e+03	3.051385e+03	0	3.044817e-03
2.000000e+07	9.753724e+14	0.000000e+00	6.376810e-01	8.799702e+15	8.155140e+13	4.082767e+14	2.494407e+04	6.566450e+03	3.168803e+03	0	3.030151e-03
3.000000e+07	9.605113e+14	0.000000e+00	6.376810e-01	8.674881e+15	1.059086e+14	4.060233e+14	2.476341e+04	6.805970e+03	3.284389e+03	0	3.014683e-03
4.000000e+07	9.450661e+14	0.000000e+00	6.376810e-01	8.545601e+15	1.350022e+14	4.037868e+14	2.458528e+04	7.041450e+03	3.398026e+03	0	2.998437e-03
5.000000e+07	9.290845e+14	0.000000e+00	6.376810e-01	8.412241e+15	1.692042e+14	4.015670e+14	2.440977e+04	7.272643e+03	3.509594e+03	0	2.981439e-03
6.000000e+07	9.126161e+14	0.000000e+00	6.376810e-01	8.275193e+15	2.088291e+14	3.993637e+14	2.423698e+04	7.499303e+03	3.618974e+03	0	2.963718e-03
7.000000e+07	8.957121e+14	0.000000e+00	6.376810e-01	8.134861e+15	2.541235e+14	3.971769e+14	2.406698e+04	7.721189e+03	3.726051e+03	0	2.945305e-03
8.000000e+07	8.784250e+14	0.000000e+00	6.376810e-01	7.991660e+15	3.052575e+14	3.950062e+14	2.389983e+04	7.938063e+03	3.830709e+03	0	2.926234e-03
9.000000e+07	8.608084e+14	0.000000e+00	6.376810e-01	7.846013e+15	3.623184e+14	3.928518e+14	2.373561e+04	8.149694e+03	3.932837e+03	0	2.906540e-03
1.000000e+08	8.429167e+14	0.000000e+00	6.376810e-01	7.698348e+15	4.253056e+14	3.907133e+14	2.357435e+04	8.355865e+03	4.032329e+03	0	2.886262e-03
1.100000e+08	8.248049e+14	0.000000e+00	6.376810e-01	7.549098e+15	4.941296e+14	3.885907e+14	2.341610e+04	8.556366e+03	4.129086e+03	0	2.865439e-03
1.200000e+08	8.065275e+14	0.000000e+00	6.376810e-01	7.398693e+15	5.686120e+14	3.864838e+14	2.326089e+04	8.751006e+03	4.223014e+03	0	2.844115e-03
1.300000e+08	7.881390e+14	0.000000e+00	6.376810e-01	7.247559e+15	6.484883e+14	3.843926e+14	2.310875e+04	8.939609e+03	4.314029e+03	0	2.822334e-03
1.400000e+08	7.696928e+14	0.000000e+00	6.376810e-01	7.096116e+15	7.334136e+14	3.823168e+14	2.295970e+04	9.122019e+03	4.402056e+03	0	2.800141e-03
1.500000e+08	7.512408e+14	0.000000e+00	6.376810e-01	6.944772e+15	8.229691e+14	3.802563e+14	2.281373e+04	9.298101e+03	4.487029e+03	0	2.777584e-03
1.600000e+08	7.328335e+14	0.000000e+00	6.376810e-01	6.793921e+15	9.166714e+14	3.782111e+14	2.267086e+04	9.467742e+03	4.568893e+03	0	2.754710e-03
1.700000e+08	7.145189e+14	0.000000e+00	6.376810e-01	6.643940e+15	1.013983e+15	3.761809e+14	2.253107e+04	9.630854e+03	4.647607e+03	0	2.731568e-03
1.800000e+08	6.963426e+14	0.000000e+00	6.376810e-01	6.495183e+15	1.114322e+15	3.741658e+14	2.239435e+04	9.787374e+03	4.723139e+03	0	2.708207e-03
1.900000e+08	6.783470e+14	0.000000e+00	6.376810e-01	6.347985e+15	1.217075e+15	3.721654e+14	2.226066e+04	9.937260e+03	4.795471e+03	0	2.684673e-03
2.000000e+08	6.605717e+14	0.000000e+00	6.376810e-01	6.202652e+15	1.321612e+15	3.701798e+14	2.212999e+04	1.008050e+04	4.864595e+03	0	2.661016e-03
2.100000e+08	6.430527e+14	0.000000e+00	6.376810e-01	6.059465e+15	1.427293e+15	3.682088e+14	2.200229e+04	1.021711e+04	4.930518e+03	0	2.637281e-03
2.200000e+08	6.258225e+14	0.000000e+00	6.376810e-01	5.918676e+15	1.533483e+15	3.662523e+14	2.187752e+04	1.034711e+04	4.993255e+03	0	2.613512e-03
2.300000e+08	6.089099e+14	0.000000e+00	6.376810e-01	5.780510e+15	1.639559e+15	3.643101e+14	2.175563e+04	1.047058e+04	5.052835e+03	0	2.589754e-03
2.400000e+08	5.923400e+14	0.000000e+00	6.376810e-01	5.645159e+15	1.744925e+15	3.623822e+14	2.163656e+04	1.058758e+04	5.109298e+03	0	2.566046e-03
2.500000e+08	5.761342e+14	0.000000e+00	6.376810e-01	5.512791e+15	1.849015e+15	3.604684e+14	2.152027e+04	1.069822e+04	5.162690e+03	0	2.542428e-03
2.600000e+08	5.603105e+14	0.000000e+00	6.376810e-01	5.383542e+15	1.951300e+15	3.585686e+14	2.140669e+04	1.080262e+04	5.213070e+03	0	2.518936e-03
2.700000e+08	5.448832e+14	0.000000e+00	6.376810e-01	5.257521e+15	2.051298e+15	3.566827e+14	2.129576e+04	1.090091e+04	5.260504e+03	0	2.495602e-03
2.800000e+08	5.298634e+14	0.000000e+00	6.376810e-01	5.134813e+15	2.148573e+15	3.548105e+14	2.118740e+04	1.099325e+04	5.305064e+03	0	2.472457e-03
2.900000e+08	5.152590e+14	0.000000e+00	6.376810e-01	5.015477e+15	2.242739e+15	3.529520e+14	2.108157e+04	1.107979e+04	5.346829e+03	0	2.449529e-03
3.000000e+08	5.010753e+14	0.000000e+00	6.376810e-01	4.899549e+15	2.333462e+15	3.511071e+14	2.097818e+04	1.116073e+04	5.385885e+03	0	2.426844e-03
3.100000e+08	4.873145e+14	0.000000e+00	6.376810e-01	4.787046e+15	2.420461e+15	3.492756e+14	2.087716e+04	1.123623e+04	5.422320e+03	0	2.404421e-03
3.200000e+08	4.739766e+14	0.000000e+00	6.376810e-01	4.677964e+15	2.503503e+15	3.474574e+14	2.077845e+04	1.130649e+04	5.456227e+03	0	2.382282e-03
3.300000e+08	4.610597e+14	0.000000e+00	6.376810e-01	4.572283e+15	2.582405e+15	3.456525e+14	2.068198e+04	1.137171e+04	5.487699e+03	0	2.360441e-03
3.400000e+08	4.485595e+14	0.000000e+00	6.376810e-01	4.469968e+15	2.657031e+15	3.438607e+14	2.058768e+04	1.143208e+04	5.516835e+03	0	2.338913e-03
3.500000e+08	4.364705e+14	0.000000e+00	6.376810e-01	4.370972e+15	2.727289e+15	3.420818e+14	2.049548e+04	1.148782e+04	5.543732e+03	0	2.317710e-03
3.600000e+08	4.247853e+14	0.000000e+00	6.376810e-01	4.275234e+15	2.793127e+15	3.403159e+14	2.040530e+04	1.153912e+04	5.568487e+03	0	2.296839e-03
3.700000e+08	4.134958e+14	0.000000e+00	6.376810e-01	4.182688e+15	2.854528e+15	3.385627e+14	2.031710e+04	1.158618e+04	5.591199e+03	0	2.276309e-03
3.800000e+08	4.025926e+14	0.000000e+00	6.376810e-01	4.093256e+15	2.911510e+15	3.368223e+14	2.023079e+04	1.162921e+04	5.611965e+03	0	2.256123e-03
3.900000e+08	3.920655e+14	0.000000e+00	6.376810e-01	4.006857e+15	2.964120e+15	3.350944e+14	2.014632e+04	1.166841e+04	5.630879e+03	0	2.236284e-03
4.000000e+08	3.819039e+14	0.000000e+00	6.376810e-01	3.923403e+15	3.012428e+15	3.333790e+14	2.006362e+04	1.170396e+04	5.648035e+03	0	2.216795e-03
4.100000e+08	3.720964e+14	0.000000e+00	6.376810e-01	3.842803e+15	3.056528e+15	3.316759e+14	1.998263e+04	1.173606e+04	5.663525e+03	0	2.197654e-03
4.200000e+08	3.626316e+14	0.000000e+00	6.376810e-01	3.764965e+15	3.096531e+15	3.299852e+14	1.990330e+04	1.176489e+04	5.677439e+03	0	2.178860e-03
4.300000e+08	3.534976e+14	0.000000e+00	6.376810e-01	3.689794e+15	3.132565e+15	3.283066e+14	1.982557e+04	1.179063e+04	5.689861e+03	0	2.160411e-03
4.400000e+08	3.446828e+14	0.000000e+00	6.376810e-01	3.617194e+15	3.164767e+15	3.266401e+14	1.974939e+04	1.181346e+04	5.700877e+03	0	2.142302e-03
4.500000e+08	3.361752e+14	0.000000e+00	6.376810e-01	3.547071e+15	3.193286e+15	3.249856e+14	1.967469e+04	1.183353e+04	5.710565e+03	0	2.124529e-03
4.600000e+08	3.279632e+14	0.000000e+00	6.376810e-01	3.479330e+15	3.218278e+15	3.233429e+14	1.960144e+04	1.185102e+04	5.719004e+03	0	2.107087e-03
4.700000e+08	3.200350e+14	0.000000e+00	6.376810e-01	3.413878e+15	3.239900e+15	3.217120e+14	1.952958e+04	1.186607e+04	5.726268e+03	0	2.089970e-03
4.800000e+08	3.123795e+14	0.000000e+00	6.376810e-01	3.350625e+15	3.258315e+15	3.200928e+14	1.945906e+04	1.187884e+04	5.732427e+03	0	2.073170e-03
4.900000e+08	3.049854e+14	0.000000e+00	6.376810e-01	3.289480e+15	3.273687e+15	3.184852e+14	1.938984e+04	1.188945e+04	5.737549e+03	0	2.056682e-03
5.000000e+08	2.978420e+14	0.000000e+00	6.376810e-01	3.230358e+15	3.286179e+15	3.168891e+14	1.932188e+04	1.189805e+04	5.741699e+03	0	2.040498e-03
5.100000e+08	2.909387e+14	0.000000e+00	6.376810e-01	3.173173e+15	3.295951e+15	3.153044e+14	1.925514e+04	1.190476e+04	5.744938e+03	0	2.024610e-03
5.200000e+08	2.842654e+14	0.000000e+00	6.376810e-01	3.117845e+15	3.303165e+15	3.137311e+14	1.918957e+04	1.190971e+04	5.747323e+03	0	2.009010e-03
5.300000e+08	2.778122e+14	0.000000e+00	6.376810e-01	3.064295e+15	3.307971e+15	3.121689e+14	1.912514e+04	1.191300e+04	5.748911e+03	0	1.993691e-03
5.400000e+08	2.715698e+14	0.000000e+00	6.376810e-01	3.012446e+15	3.310524e+15	3.106179e+14	1.906181e+04	1.191474e+04	5.749754e+03	0	1.978645e-03
5.500000e+08	2.655290e+14	0.000000e+00	6.376810e-01	2.962228e+15	3.310968e+15	3.090778e+14	1.899955e+04	1.191505e+04	5.749900e+03	0	1.963864e-03
5.600000e+08	2.596812e+14	0.000000e+00	6.376810e-01	2.913568e+15	3.309443e+15	3.075488e+14	1.893832e+04	1.191400e+04	5.749397e+03	0	1.949340e-03
5.700000e+08	2.540180e+14	0.000000e+00	6.376810e-01	2.866402e+15	3.306085e+15	3.060306e+14	1.887809e+04	1.191171e+04	5.748289e+03	0	1.935065e-03
5.800000e+08	2.485315e+14	0.000000e+00	6.376810e-01	2.820666e+15	3.301026e+15	3.045232e+14	1.881884e+04	1.190824e+04	5.746616e+03	0	1.921032e-03
5.900000e+08	2.432140e+14	0.000000e+00	6.376810e-01	2.776297e+15	3.294384e+15	3.030264e+14	1.876052e+04	1.190369e+04	5.744419e+03	0	1.907233e-03
6.000000e+08	2.380583e+14	0.000000e+00	6.376810e-01	2.733238e+15	3.286284e+15	3.015403e+14	1.870312e+04	1.189812e+04	5.741733e+03	0	1.893660e-03
6.100000e+08	2.330575e+14	0.000000e+00	6.376810e-01	2.691434e+15	3.276830e+15	3.000647e+14	1.864660e+04	1.189162e+04	5.738594e+03	0	1.880306e-03
6.200000e+08	2.282049e+14	0.000000e+00	6.376810e-01	2.650831e+15	3.266134e+15	2.985995e+14	1.859094e+04	1.188424e+04	5.735034e+03	0	1.867164e-03
6.300000e+08	2.234943e+14	0.000000e+00	6.376810e-01	2.611380e+15	3.254293e+15	2.971446e+14	1.853612e+04	1.187605e+04	5.731084e+03	0	1.854227e-03
6.400000e+08	2.189198e+14	0.000000e+00	6.376810e-01	2.573032e+15	3.241403e+15	2.957000e+14	1.848211e+04	1.186712e+04	5.726772e+03	0	1.841489e-03
6.500000e+08	2.144756e+14	0.000000e+00	6.376810e-01	2.535741e+15	3.227553e+15	2.942656e+14	1.842889e+04	1.185749e+04	5.722124e+03	0	1.828943e-03
6.600000e+08	2.101563e+14	0.000000e+00	6.376810e-01	2.499466e+15	3.212826e+15	2.928412e+14	1.837644e+04	1.184722e+04	5.717167e+03	0	1.816582e-03
6.700000e+08	2.059568e+14	0.000000e+00	6.376810e-01	2.464163e+15	3.197301e+15	2.914269e+14	1.832474e+04	1.183635e+04	5.711924e+03	0	1.804400e-03
6.800000e+08	2.018722e+14	0.000000e+00	6.376810e-01	2.429795e+15	3.181052e+15	2.900225e+14	1.827376e+04	1.182494e+04	5.706417e+03	0	1.792392e-03
6.900000e+08	1.978978e+14	0.000000e+00	6.376810e-01	2.396323e+15	3.164149e+15	2.886280e+14	1.822349e+04	1.181302e+04	5.700666e+03	0	1.780551e-03
7.000000e+08	1.940293e+14	0.000000e+00	6.376810e-01	2.363712e+15	3.146655e+15	2.872432e+14	1.817391e+04	1.180064e+04	5.694691e+03	0	1.768873e-03
7.100000e+08	1.902625e+14	0.000000e+00	6.376810e-01	2.331930e+15	3.128632e+15	2.858682e+14	1.812500e+04	1.178783e+04	5.688510e+03	0	1.757351e-03
7.200000e+08	1.865934e+14	0.000000e+00	6.376810e-01	2.300942e+15	3.110134e+15	2.845027e+14	1.807674e+04	1.177463e+04	5.682141e+03	0	1.745981e-03
7.300000e+08	1.830181e+14	0.000000e+00	6.376810e-01	2.270721e+15	3.091218e+15	2.831468e+14	1.802913e+04	1.176108e+04	5.675598e+03	0	1.734758e-03
7.400000e+08	1.795332e+14	0.000000e+00	6.376810e-01	2.241235e+15	3.071929e+15	2.818004e+14	1.798214e+04	1.174719e+04	5.668898e+03	0	1.723676e-03
7.500000e+08	1.761351e+14	0.000000e+00	6.376810e-01	2.212458e+15	3.052314e+15	2.804633e+14	1.793575e+04	1.173301e+04	5.662053e+03	0	1.712732e-03
7.600000e+08	1.728206e+14	0.000000e+00	6.376810e-01	2.184364e+15	3.032417e+15	2.791356e+14	1.788996e+04	1.171855e+04	5.655076e+03	0	1.701921e-03
7.700000e+08	1.695866e+14	0.000000e+00	6.376810e-01	2.156928e+15	3.012275e+15	2.778171e+14	1.784474e+04	1.170385e+04	5.647981e+03	0	1.691238e-03
7.800000e+08	1.664302e+14	0.000000e+00	6.376810e-01	2.130125e+15	2.991926e+15	2.765078e+14	1.780010e+04	1.168892e+04	5.640778e+03	0	1.680679e-03
7.900000e+08	1.633485e+14	0.000000e+00	6.376810e-01	2.103934e+15	2.971400e+15	2.752075e+14	1.775600e+04	1.167379e+04	5.633477e+03	0	1.670241e-03
8.000000e+08	1.603389e+14	0.000000e+00	6.376810e-01	2.078332e+15	2.950734e+15	2.739163e+14	1.771244e+04	1.165848e+04	5.626089e+03	0	1.659920e-03
8.100000e+08	1.573988e+14	0.000000e+00	6.376810e-01	2.053300e+15	2.929955e+15	2.726340e+14	1.766942e+04	1.164301e+04	5.618623e+03	0	1.649711e-03
8.200000e+08	1.545259e+14	0.000000e+00	6.376810e-01	2.028817e+15	2.909087e+15	2.713606e+14	1.762690e+04	1.162740e+04	5.611088e+03	0	1.639612e-03
8.300000e+08	1.517177e+14	0.000000e+00	6.376810e-01	2.004866e+15	2.888158e+15	2.700960e+14	1.758490e+04	1.161165e+04	5.603490e+03	0	1.629620e-03
8.400000e+08	1.489721e+14	0.000000e+00	6.376810e-01	1.981428e+15	2.867190e+15	2.688401e+14	1.754338e+04	1.159580e+04	5.595839e+03	0	1.619729e-03
8.500000e+08	1.462870e+14	0.000000e+00	6.376810e-01	1.958486e+15	2.846203e+15	2.675929e+14	1.750235e+04	1.157984e+04	5.588141e+03	0	1.609939e-03
8.600000e+08	1.436604e+14	0.000000e+00	6.376810e-01	1.936024e+15	2.825217e+15	2.663543e+14	1.746180e+04	1.156381e+04	5.580402e+03	0	1.600245e-03
8.700000e+08	1.410903e+14	0.000000e+00	6.376810e-01	1.914027e+15	2.804249e+15	2.651243e+14	1.742170e+04	1.154770e+04	5.572628e+03	0	1.590645e-03
8.800000e+08	1.385749e+14	0.000000e+00	6.376810e-01	1.892479e+15	2.783318e+15	2.639026e+14	1.738206e+04	1.153153e+04	5.564826e+03	0	1.581135e-03
8.900000e+08	1.361125e+14	0.000000e+00	6.376810e-01	1.871367e+15	2.762436e+15	2.626894e+14	1.734287e+04	1.151531e+04	5.557000e+03	0	1.571714e-03
9.000000e+08	1.337014e+14	0.000000e+00	6.376810e-01	1.850677e+15	2.741617e+15	2.614845e+14	1.730411e+04	1.149906e+04	5.549155e+03	0	1.562378e-03
9.100000e+08	1.313400e+14	0.000000e+00	6.376810e-01	1.830396e+15	2.720875e+15	2.602879e+14	1.726577e+04	1.148277e+04	5.541297e+03	0	1.553125e-03
9.200000e+08	1.290267e+14	0.000000e+00	6.376810e-01	1.810512e+15	2.700218e+15	2.590995e+14	1.722786e+04	1.146647e+04	5.533428e+03	0	1.543953e-03
9.300000e+08	1.267601e+14	0.000000e+00	6.376810e-01	1.791013e+15	2.679662e+15	2.579191e+14	1.719035e+04	1.145015e+04	5.525554e+03	0	1.534858e-03
9.400000e+08	1.245387e+14	0.000000e+00	6.376810e-01	1.771887e+15	2.659212e+15	2.567469e+14	1.715325e+04	1.143383e+04	5.517678e+03	0	1.525840e-03
9.500000e+08	1.223613e+14	0.000000e+00	6.376810e-01	1.753123e+15	2.638877e+15	2.555827e+14	1.711654e+04	1.141751e+04	5.509802e+03	0	1.516895e-03
9.600000e+08	1.202265e+14	0.000000e+00	6.376810e-01	1.734711e+15	2.618667e+15	2.544263e+14	1.708022e+04	1.140120e+04	5.501931e+03	0	1.508021e-03
9.700000e+08	1.181331e+14	0.000000e+00	6.376810e-01	1.716641e+15	2.598586e+15	2.532779e+14	1.704428e+04	1.138491e+04	5.494068e+03	0	1.499217e-03
9.800000e+08	1.160798e+14	0.000000e+00	6.376810e-01	1.698903e+15	2.578643e+15	2.521373e+14	1.700872e+04	1.136863e+04	5.486215e+03	0	1.490481e-03
9.900000e+08	1.140657e+14	0.000000e+00	6.376810e-01	1.681489e+15	2.558841e+15	2.510044e+14	1.697351e+04	1.135238e+04	5.478374e+03	0	1.481810e-03
1.000000e+09	1.120894e+14	0.000000e+00	6.376810e-01	1.664388e+15	2.539188e+15	2.498793e+14	1.693867e+04	1.133617e+04	5.470548e+03	0	1.473202e-03
1.010000e+09	1.101501e+14	0.000000e+00	6.376810e-01	1.647593e+15	2.519686e+15	2.487617e+14	1.690418e+04	1.131999e+04	5.462740e+03	0	1.464656e-03
1.020000e+09	1.082466e+14	0.000000e+00	6.376810e-01	1.631094e+15	2.500340e+15	2.476518e+14	1.687004e+04	1.130384e+04	5.454950e+03	0	1.456171e-03
1.030000e+09	1.063781e+14	0.000000e+00	6.376810e-01	1.614885e+15	2.481153e+15	2.465493e+14	1.683624e+04	1.128775e+04	5.447182e+03	0	1.447743e-03
1.040000e+09	1.045434e+14	0.000000e+00	6.376810e-01	1.598958e+15	2.462129e+15	2.454543e+14	1.680277e+04	1.127170e+04	5.439436e+03	0	1.439372e-03
1.050000e+09	1.027419e+14	0.000000e+00	6.376810e-01	1.583305e+15	2.443269e+15	2.443667e+14	1.676963e+04	1.125570e+04	5.431715e+03	0	1.431056e-03
1.060000e+09	1.009725e+14	0.000000e+00	6.376810e-01	1.567919e+15	2.424577e+15	2.432864e+14	1.673682e+04	1.123975e+04	5.424020e+03	0	1.422793e-03
1.070000e+09	9.923446e+13	0.000000e+00	6.376810e-01	1.552793e+15	2.406053e+15	2.422134e+14	1.670432e+04	1.122386e+04	5.416352e+03	0	1.414583e-03
1.080000e+09	9.752695e+13	0.000000e+00	6.376810e-01	1.537921e+15	2.387700e+15	2.411476e+14	1.667213e+04	1.120803e+04	5.408712e+03	0	1.406422e-03
1.090000e+09	9.584919e+13	0.000000e+00	6.376810e-01	1.523296e+15	2.369518e+15	2.400890e+14	1.664026e+04	1.119226e+04	5.401102e+03	0	1.398310e-03
1.100000e+09	9.420042e+13	0.000000e+00	6.376810e-01	1.508913e+15	2.351511e+15	2.390375e+14	1.660868e+04	1.117655e+04	5.393523e+03	0	1.390246e-03
1.110000e+09	9.257992e+13	0.000000e+00	6.376810e-01	1.494765e+15	2.333675e+15	2.379930e+14	1.657740e+04	1.116091e+04	5.385975e+03	0	1.382228e-03
1.120000e+09	9.098699e+13	0.000000e+00	6.376810e-01	1.480846e+15	2.316013e+15	2.369556e+14	1.654641e+04	1.114534e+04	5.378460e+03	0	1.374255e-03
1.130000e+09	8.942094e+13	0.000000e+00	6.376810e-01	1.467151e+15	2.298526e+15	2.359251e+14	1.651571e+04	1.112984e+04	5.370978e+03	0	1.366325e-03
1.140000e+09	8.788113e+13	0.000000e+00	6.376810e-01	1.453675e+15	2.281214e+15	2.349014e+14	1.648530e+04	1.111440e+04	5.363529e+03	0	1.358436e-03
1.150000e+09	8.636691e+13	0.000000e+00	6.376810e-01	1.440413e+15	2.264076e+15	2.338846e+14	1.645516e+04	1.109904e+04	5.356116e+03	0	1.350589e-03
1.160000e+09	8.487769e+13	0.000000e+00	6.376810e-01	1.427359e+15	2.247112e+15	2.328746e+14	1.642530e+04	1.108375e+04	5.348738e+03	0	1.342781e-03
1.170000e+09	8.341286e+13	0.000000e+00	6.376810e-01	1.414508e+15	2.230320e+15	2.318713e+14	1.639570e+04	1.106853e+04	5.341395e+03	0	1.335012e-03
1.180000e+09	8.197185e+13	0.000000e+00	6.376810e-01	1.401857e+15	2.213703e+15	2.308747e+14	1.636637e+04	1.105339e+04	5.334088e+03	0	1.327279e-03
1.190000e+09	8.055410e+13	0.000000e+00	6.376810e-01	1.389400e+15	2.197258e+15	2.298848e+14	1.633731e+04	1.103833e+04	5.326818e+03	0	1.319583e-03
1.200000e+09	7.915909e+13	0.000000e+00	6.376810e-01	1.377133e+15	2.180984e+15	2.289014e+14	1.630850e+04	1.102334e+04	5.319586e+03	0	1.311921e-03
1.210000e+09	7.778629e+13	0.000000e+00	6.376810e-01	1.365052e+15	2.164880e+15	2.279245e+14	1.627994e+04	1.100843e+04	5.312390e+03	0	1.304293e-03
1.220000e+09	7.643520e+13	0.000000e+00	6.376810e-01	1.353152e+15	2.148947e+15	2.269541e+14	1.625163e+04	1.099360e+04	5.305232e+03	0	1.296697e-03
1.230000e+09	7.510533e+13	0.000000e+00	6.376810e-01	1.341430e+15	2.133182e+15	2.259901e+14	1.622357e+04	1.097884e+04	5.298112e+03	0	1.289133e-03
1.240000e+09	7.379620e+13	0.000000e+00	6.376810e-01	1.329882e+15	2.117583e+15	2.250324e+14	1.619575e+04	1.096417e+04	5.291030e+03	0	1.281599e-03
1.250000e+09	7.250736e+13	0.000000e+00	6.376810e-01	1.318504e+15	2.102152e+15	2.240811e+14	1.616817e+04	1.094957e+04	5.283986e+03	0	1.274094e-03
1.260000e+09	7.123836e+13	0.000000e+00	6.376810e-01	1.307292e+15	2.086887e+15	2.231361e+14	1.614083e+04	1.093505e+04	5.276980e+03	0	1.266617e-03
1.270000e+09	6.998877e+13	0.000000e+00	6.376810e-01	1.296244e+15	2.071782e+15	2.221973e+14	1.611371e+04	1.092061e+04	5.270013e+03	0	1.259168e-03
1.280000e+09	6.875817e+13	0.000000e+00	6.376810e-01	1.285354e+15	2.056842e+15	2.212647e+14	1.608683e+04	1.090626e+04	5.263084e+03	0	1.251744e-03
1.290000e+09	6.754615e+13	0.000000e+00	6.376810e-01	1.274621e+15	2.042062e+15	2.203382e+14	1.606017e+04	1.089198e+04	5.256194e+03	0	1.244346e-03
1.300000e+09	6.635233e+13	0.000000e+00	6.376810e-01	1.264040e+15	2.027441e+15	2.194178e+14	1.603373e+04	1.087778e+04	5.249342e+03	0	1.236971e-03
1.310000e+09	6.517630e+13	0.000000e+00	6.376810e-01	1.253609e+15	2.012978e+15	2.185034e+14	1.600751e+04	1.086366e+04	5.242529e+03	0	1.229619e-03
1.320000e+09	6.401771e+13	0.000000e+00	6.376810e-01	1.243325e+15	1.998671e+15	2.175950e+14	1.598151e+04	1.084962e+04	5.235755e+03	0	1.222290e-03
1.330000e+09	6.287619e+13	0.000000e+00	6.376810e-01	1.233184e+15	1.984519e+15	2.166925e+14	1.595572e+04	1.083567e+04	5.229019e+03	0	1.214981e-03
1.340000e+09	6.175139e+13	0.000000e+00	6.376810e-01	1.223184e+15	1.970520e+15	2.157960e+14	1.593014e+04	1.082179e+04	5.222322e+03	0	1.207693e-03
1.350000e+09	6.064296e+13	0.000000e+00	6.376810e-01	1.213322e+15	1.956673e+15	2.149053e+14	1.590476e+04	1.080799e+04	5.215663e+03	0	1.200423e-03
1.360000e+09	5.955057e+13	0.000000e+00	6.376810e-01	1.203595e+15	1.942975e+15	2.140204e+14	1.587959e+04	1.079427e+04	5.209042e+03	0	1.193171e-03
