#t		Qconv[W]	Ri[Rp]		R*[Rp]		Qc[W]		Qm[W]		Qr[W]		Tcmb[K]		Tl[K]		Tup[K]		RiFlag		Bs[T]
0.000000e+00	8.322205e+14	0.000000e+00	6.350366e-01	7.735256e+15	4.033428e+13	4.645383e+14	2.559056e+04	6.112744e+03	2.993044e+03	0	2.871899e-03
1.000000e+07	8.253599e+14	0.000000e+00	6.350366e-01	7.675896e+15	5.125032e+13	4.619645e+14	2.545357e+04	6.301776e+03	3.085601e+03	0	2.863986e-03
2.000000e+07	8.180691e+14	0.000000e+00	6.350366e-01	7.613387e+15	6.423870e+13	4.594098e+14	2.531763e+04	6.489094e+03	3.177320e+03	0	2.855528e-03
3.000000e+07	8.103615e+14	0.000000e+00	6.350366e-01	7.547833e+15	7.951237e+13	4.568743e+14	2.518278e+04	6.674577e+03	3.268140e+03	0	2.846531e-03
4.000000e+07	8.022514e+14	0.000000e+00	6.350366e-01	7.479344e+15	9.727885e+13	4.543577e+14	2.504908e+04	6.858099e+03	3.358000e+03	0	2.837004e-03
5.000000e+07	7.937542e+14	0.000000e+00	6.350366e-01	7.408038e+15	1.177364e+14	4.518598e+14	2.491658e+04	7.039533e+03	3.446837e+03	0	2.826952e-03
6.000000e+07	7.848862e+14	0.000000e+00	6.350366e-01	7.334039e+15	1.410702e+14	4.493806e+14	2.478534e+04	7.218748e+03	3.534588e+03	0	2.816384e-03
7.000000e+07	7.756646e+14	0.000000e+00	6.350366e-01	7.257479e+15	1.674491e+14	4.469198e+14	2.465540e+04	7.395614e+03	3.621188e+03	0	2.805311e-03
8.000000e+07	7.661078e+14	0.000000e+00	6.350366e-01	7.178498e+15	1.970218e+14	4.444774e+14	2.452681e+04	7.570000e+03	3.706575e+03	0	2.793742e-03
9.000000e+07	7.562349e+14	0.000000e+00	6.350366e-01	7.097240e+15	2.299135e+14	4.420531e+14	2.439960e+04	7.741774e+03	3.790682e+03	0	2.781689e-03
1.000000e+08	7.460659e+14	0.000000e+00	6.350366e-01	7.013859e+15	2.662238e+14	4.396468e+14	2.427383e+04	7.910806e+03	3.873447e+03	0	2.769165e-03
1.100000e+08	7.356218e+14	0.000000e+00	6.350366e-01	6.928511e+15	3.060233e+14	4.372583e+14	2.414952e+04	8.076968e+03	3.954807e+03	0	2.756182e-03
1.200000e+08	7.249242e+14	0.000000e+00	6.350366e-01	6.841361e+15	3.493522e+14	4.348876e+14	2.402671e+04	8.240132e+03	4.034698e+03	0	2.742756e-03
1.300000e+08	7.139953e+14	0.000000e+00	6.350366e-01	6.752577e+15	3.962187e+14	4.325344e+14	2.390544e+04	8.400175e+03	4.113062e+03	0	2.728903e-03
1.400000e+08	7.028580e+14	0.000000e+00	6.350366e-01	6.662330e+15	4.465976e+14	4.301987e+14	2.378573e+04	8.556977e+03	4.189838e+03	0	2.714640e-03
1.500000e+08	6.915355e+14	0.000000e+00	6.350366e-01	6.570796e+15	5.004307e+14	4.278802e+14	2.366762e+04	8.710425e+03	4.264973e+03	0	2.699984e-03
1.600000e+08	6.800516e+14	0.000000e+00	6.350366e-01	6.478153e+15	5.576259e+14	4.255788e+14	2.355111e+04	8.860411e+03	4.338412e+03	0	2.684955e-03
1.700000e+08	6.684299e+14	0.000000e+00	6.350366e-01	6.384580e+15	6.180591e+14	4.232944e+14	2.343624e+04	9.006831e+03	4.410105e+03	0	2.669572e-03
1.800000e+08	6.566944e+14	0.000000e+00	6.350366e-01	6.290255e+15	6.815742e+14	4.210268e+14	2.332302e+04	9.149592e+03	4.480006e+03	0	2.653857e-03
1.900000e+08	6.448690e+14	0.000000e+00	6.350366e-01	6.195359e+15	7.479861e+14	4.187760e+14	2.321146e+04	9.288607e+03	4.548073e+03	0	2.637830e-03
2.000000e+08	6.329771e+14	0.000000e+00	6.350366e-01	6.100066e+15	8.170831e+14	4.165417e+14	2.310157e+04	9.423798e+03	4.614269e+03	0	2.621515e-03
2.100000e+08	6.210421e+14	0.000000e+00	6.350366e-01	6.004551e+15	8.886274e+14	4.143238e+14	2.299337e+04	9.555098e+03	4.678558e+03	0	2.604934e-03
2.200000e+08	6.090867e+14	0.000000e+00	6.350366e-01	5.908985e+15	9.623609e+14	4.121223e+14	2.288685e+04	9.682447e+03	4.740913e+03	0	2.588110e-03
2.300000e+08	5.971330e+14	0.000000e+00	6.350366e-01	5.813531e+15	1.038009e+15	4.099368e+14	2.278201e+04	9.805797e+03	4.801311e+03	0	2.571067e-03
2.400000e+08	5.852023e+14	0.000000e+00	6.350366e-01	5.718350e+15	1.115278e+15	4.077675e+14	2.267886e+04	9.925111e+03	4.859732e+03	0	2.553828e-03
2.500000e+08	5.733151e+14	0.000000e+00	6.350366e-01	5.623594e+15	1.193869e+15	4.056140e+14	2.257739e+04	1.004036e+04	4.916162e+03	0	2.536418e-03
2.600000e+08	5.614910e+14	0.000000e+00	6.350366e-01	5.529408e+15	1.273474e+15	4.034762e+14	2.247760e+04	1.015153e+04	4.970595e+03	0	2.518860e-03
2.700000e+08	5.497484e+14	0.000000e+00	6.350366e-01	5.435929e+15	1.353780e+15	4.013541e+14	2.237946e+04	1.025861e+04	5.023026e+03	0	2.501177e-03
2.800000e+08	5.381045e+14	0.000000e+00	6.350366e-01	5.343286e+15	1.434475e+15	3.992475e+14	2.228298e+04	1.036161e+04	5.073457e+03	0	2.483392e-03
2.900000e+08	5.265755e+14	0.000000e+00	6.350366e-01	5.251597e+15	1.515254e+15	3.971562e+14	2.218813e+04	1.046053e+04	5.121896e+03	0	2.465528e-03
3.000000e+08	5.151763e+14	0.000000e+00	6.350366e-01	5.160973e+15	1.595814e+15	3.950803e+14	2.209490e+04	1.055542e+04	5.168355e+03	0	2.447607e-03
3.100000e+08	5.039203e+14	0.000000e+00	6.350366e-01	5.071514e+15	1.675865e+15	3.930194e+14	2.200328e+04	1.064629e+04	5.212849e+03	0	2.429650e-03
3.200000e+08	4.928200e+14	0.000000e+00	6.350366e-01	4.983310e+15	1.755129e+15	3.909735e+14	2.191323e+04	1.073319e+04	5.255400e+03	0	2.411677e-03
3.300000e+08	4.818863e+14	0.000000e+00	6.350366e-01	4.896443e+15	1.833341e+15	3.889425e+14	2.182474e+04	1.081618e+04	5.296033e+03	0	2.393708e-03
3.400000e+08	4.711288e+14	0.000000e+00	6.350366e-01	4.810982e+15	1.910255e+15	3.869263e+14	2.173779e+04	1.089530e+04	5.334775e+03	0	2.375762e-03
3.500000e+08	4.605562e+14	0.000000e+00	6.350366e-01	4.726991e+15	1.985641e+15	3.849246e+14	2.165235e+04	1.097063e+04	5.371660e+03	0	2.357856e-03
3.600000e+08	4.501755e+14	0.000000e+00	6.350366e-01	4.644521e+15	2.059290e+15	3.829375e+14	2.156839e+04	1.104224e+04	5.406722e+03	0	2.340006e-03
3.700000e+08	4.399929e+14	0.000000e+00	6.350366e-01	4.563616e+15	2.131009e+15	3.809648e+14	2.148589e+04	1.111020e+04	5.440001e+03	0	2.322229e-03
3.800000e+08	4.300134e+14	0.000000e+00	6.350366e-01	4.484311e+15	2.200631e+15	3.790064e+14	2.140482e+04	1.117461e+04	5.471536e+03	0	2.304537e-03
3.900000e+08	4.202407e+14	0.000000e+00	6.350366e-01	4.406633e+15	2.268007e+15	3.770621e+14	2.132516e+04	1.123554e+04	5.501371e+03	0	2.286945e-03
4.000000e+08	4.106777e+14	0.000000e+00	6.350366e-01	4.330603e+15	2.333008e+15	3.751318e+14	2.124687e+04	1.129309e+04	5.529550e+03	0	2.269465e-03
4.100000e+08	4.013264e+14	0.000000e+00	6.350366e-01	4.256232e+15	2.395525e+15	3.732155e+14	2.116992e+04	1.134736e+04	5.556121e+03	0	2.252107e-03
4.200000e+08	3.921878e+14	0.000000e+00	6.350366e-01	4.183527e+15	2.455469e+15	3.713130e+14	2.109429e+04	1.139844e+04	5.581130e+03	0	2.234881e-03
4.300000e+08	3.832621e+14	0.000000e+00	6.350366e-01	4.112488e+15	2.512773e+15	3.694242e+14	2.101994e+04	1.144642e+04	5.604627e+03	0	2.217796e-03
4.400000e+08	3.745490e+14	0.000000e+00	6.350366e-01	4.043110e+15	2.567381e+15	3.675490e+14	2.094686e+04	1.149142e+04	5.626661e+03	0	2.200861e-03
4.500000e+08	3.660472e+14	0.000000e+00	6.350366e-01	3.975382e+15	2.619259e+15	3.656872e+14	2.087500e+04	1.153354e+04	5.647281e+03	0	2.184081e-03
4.600000e+08	3.577551e+14	0.000000e+00	6.350366e-01	3.909290e+15	2.668387e+15	3.638388e+14	2.080433e+04	1.157287e+04	5.666538e+03	0	2.167463e-03
4.700000e+08	3.496704e+14	0.000000e+00	6.350366e-01	3.844816e+15	2.714763e+15	3.620037e+14	2.073484e+04	1.160951e+04	5.684482e+03	0	2.151011e-03
4.800000e+08	3.417905e+14	0.000000e+00	6.350366e-01	3.781937e+15	2.758392e+15	3.601817e+14	2.066649e+04	1.164358e+04	5.701162e+03	0	2.134730e-03
4.900000e+08	3.341121e+14	0.000000e+00	6.350366e-01	3.720630e+15	2.799295e+15	3.583728e+14	2.059925e+04	1.167516e+04	5.716628e+03	0	2.118623e-03
5.000000e+08	3.266318e+14	0.000000e+00	6.350366e-01	3.660865e+15	2.837504e+15	3.565768e+14	2.053310e+04	1.170437e+04	5.730928e+03	0	2.102693e-03
5.100000e+08	3.193460e+14	0.000000e+00	6.350366e-01	3.602615e+15	2.873059e+15	3.547936e+14	2.046801e+04	1.173129e+04	5.744111e+03	0	2.086941e-03
5.200000e+08	3.122506e+14	0.000000e+00	6.350366e-01	3.545847e+15	2.906010e+15	3.530232e+14	2.040395e+04	1.175603e+04	5.756223e+03	0	2.071369e-03
5.300000e+08	3.053415e+14	0.000000e+00	6.350366e-01	3.490529e+15	2.936413e+15	3.512654e+14	2.034089e+04	1.177868e+04	5.767311e+03	0	2.055977e-03
5.400000e+08	2.986142e+14	0.000000e+00	6.350366e-01	3.436627e+15	2.964331e+15	3.495201e+14	2.027881e+04	1.179932e+04	5.777421e+03	0	2.040766e-03
5.500000e+08	2.920644e+14	0.000000e+00	6.350366e-01	3.384106e+15	2.989833e+15	3.477872e+14	2.021769e+04	1.181806e+04	5.786595e+03	0	2.025735e-03
5.600000e+08	2.856875e+14	0.000000e+00	6.350366e-01	3.332930e+15	3.012991e+15	3.460666e+14	2.015750e+04	1.183498e+04	5.794878e+03	0	2.010883e-03
5.700000e+08	2.794789e+14	0.000000e+00	6.350366e-01	3.283065e+15	3.033880e+15	3.443583e+14	2.009821e+04	1.185015e+04	5.802310e+03	0	1.996209e-03
5.800000e+08	2.734340e+14	0.000000e+00	6.350366e-01	3.234474e+15	3.052581e+15	3.426621e+14	2.003981e+04	1.186368e+04	5.808932e+03	0	1.981712e-03
5.900000e+08	2.675481e+14	0.000000e+00	6.350366e-01	3.187121e+15	3.069174e+15	3.409779e+14	1.998227e+04	1.187563e+04	5.814783e+03	0	1.967389e-03
6.000000e+08	2.618167e+14	0.000000e+00	6.350366e-01	3.140971e+15	3.083738e+15	3.393056e+14	1.992556e+04	1.188608e+04	5.819900e+03	0	1.953239e-03
6.100000e+08	2.562351e+14	0.000000e+00	6.350366e-01	3.095987e+15	3.096359e+15	3.376452e+14	1.986968e+04	1.189511e+04	5.824320e+03	0	1.939259e-03
6.200000e+08	2.507989e+14	0.000000e+00	6.350366e-01	3.052136e+15	3.107119e+15	3.359965e+14	1.981459e+04	1.190278e+04	5.828079e+03	0	1.925447e-03
6.300000e+08	2.455035e+14	0.000000e+00	6.350366e-01	3.009383e+15	3.116099e+15	3.343594e+14	1.976028e+04	1.190917e+04	5.831208e+03	0	1.911799e-03
6.400000e+08	2.403447e+14	0.000000e+00	6.350366e-01	2.967693e+15	3.123384e+15	3.327339e+14	1.970673e+04	1.191435e+04	5.833742e+03	0	1.898313e-03
6.500000e+08	2.353181e+14	0.000000e+00	6.350366e-01	2.927034e+15	3.129051e+15	3.311198e+14	1.965391e+04	1.191837e+04	5.835710e+03	0	1.884986e-03
6.600000e+08	2.304194e+14	0.000000e+00	6.350366e-01	2.887373e+15	3.133182e+15	3.295171e+14	1.960182e+04	1.192130e+04	5.837143e+03	0	1.871814e-03
6.700000e+08	2.256447e+14	0.000000e+00	6.350366e-01	2.848679e+15	3.135853e+15	3.279256e+14	1.955043e+04	1.192319e+04	5.838069e+03	0	1.858795e-03
6.800000e+08	2.209899e+14	0.000000e+00	6.350366e-01	2.810921e+15	3.137141e+15	3.263454e+14	1.949973e+04	1.192410e+04	5.838515e+03	0	1.845924e-03
6.900000e+08	2.164511e+14	0.000000e+00	6.350366e-01	2.774068e+15	3.137119e+15	3.247762e+14	1.944969e+04	1.192408e+04	5.838508e+03	0	1.833199e-03
7.000000e+08	2.120246e+14	0.000000e+00	6.350366e-01	2.738092e+15	3.135860e+15	3.232180e+14	1.940031e+04	1.192319e+04	5.838072e+03	0	1.820616e-03
7.100000e+08	2.077066e+14	0.000000e+00	6.350366e-01	2.702964e+15	3.133433e+15	3.216707e+14	1.935157e+04	1.192147e+04	5.837230e+03	0	1.808172e-03
7.200000e+08	2.034936e+14	0.000000e+00	6.350366e-01	2.668657e+15	3.129905e+15	3.201343e+14	1.930345e+04	1.191897e+04	5.836007e+03	0	1.795864e-03
7.300000e+08	1.993823e+14	0.000000e+00	6.350366e-01	2.635144e+15	3.125341e+15	3.186085e+14	1.925594e+04	1.191574e+04	5.834422e+03	0	1.783687e-03
7.400000e+08	1.953692e+14	0.000000e+00	6.350366e-01	2.602400e+15	3.119802e+15	3.170935e+14	1.920902e+04	1.191181e+04	5.832497e+03	0	1.771638e-03
7.500000e+08	1.914512e+14	0.000000e+00	6.350366e-01	2.570400e+15	3.113351e+15	3.155890e+14	1.916269e+04	1.190722e+04	5.830251e+03	0	1.759715e-03
7.600000e+08	1.876251e+14	0.000000e+00	6.350366e-01	2.539121e+15	3.106042e+15	3.140949e+14	1.911692e+04	1.190202e+04	5.827703e+03	0	1.747914e-03
7.700000e+08	1.838879e+14	0.000000e+00	6.350366e-01	2.508537e+15	3.097933e+15	3.126113e+14	1.907170e+04	1.189623e+04	5.824871e+03	0	1.736231e-03
7.800000e+08	1.802369e+14	0.000000e+00	6.350366e-01	2.478629e+15	3.089074e+15	3.111380e+14	1.902703e+04	1.188990e+04	5.821770e+03	0	1.724663e-03
7.900000e+08	1.766691e+14	0.000000e+00	6.350366e-01	2.449374e+15	3.079516e+15	3.096749e+14	1.898289e+04	1.188305e+04	5.818419e+03	0	1.713207e-03
8.000000e+08	1.731819e+14	0.000000e+00	6.350366e-01	2.420751e+15	3.069310e+15	3.082220e+14	1.893927e+04	1.187573e+04	5.814831e+03	0	1.701860e-03
8.100000e+08	1.697727e+14	0.000000e+00	6.350366e-01	2.392741e+15	3.058497e+15	3.067791e+14	1.889616e+04	1.186794e+04	5.811020e+03	0	1.690619e-03
8.200000e+08	1.664391e+14	0.000000e+00	6.350366e-01	2.365324e+15	3.047122e+15	3.053462e+14	1.885354e+04	1.185974e+04	5.807002e+03	0	1.679480e-03
8.300000e+08	1.631786e+14	0.000000e+00	6.350366e-01	2.338482e+15	3.035228e+15	3.039232e+14	1.881141e+04	1.185113e+04	5.802788e+03	0	1.668441e-03
8.400000e+08	1.599890e+14	0.000000e+00	6.350366e-01	2.312196e+15	3.022852e+15	3.025101e+14	1.876975e+04	1.184215e+04	5.798391e+03	0	1.657498e-03
8.500000e+08	1.568679e+14	0.000000e+00	6.350366e-01	2.286451e+15	3.010033e+15	3.011067e+14	1.872857e+04	1.183282e+04	5.793822e+03	0	1.646649e-03
8.600000e+08	1.538134e+14	0.000000e+00	6.350366e-01	2.261229e+15	2.996806e+15	2.997129e+14	1.868784e+04	1.182316e+04	5.789094e+03	0	1.635891e-03
8.700000e+08	1.508232e+14	0.000000e+00	6.350366e-01	2.236514e+15	2.983202e+15	2.983288e+14	1.864755e+04	1.181320e+04	5.784215e+03	0	1.625221e-03
8.800000e+08	1.478956e+14	0.000000e+00	6.350366e-01	2.212292e+15	2.969256e+15	2.969542e+14	1.860771e+04	1.180295e+04	5.779197e+03	0	1.614636e-03
8.900000e+08	1.450284e+14	0.000000e+00	6.350366e-01	2.188547e+15	2.954996e+15	2.955890e+14	1.856830e+04	1.179244e+04	5.774048e+03	0	1.604134e-03
9.000000e+08	1.422200e+14	0.000000e+00	6.350366e-01	2.165266e+15	2.940452e+15	2.942332e+14	1.852930e+04	1.178167e+04	5.768778e+03	0	1.593712e-03
9.100000e+08	1.394686e+14	0.000000e+00	6.350366e-01	2.142434e+15	2.925648e+15	2.928867e+14	1.849072e+04	1.177068e+04	5.763395e+03	0	1.583368e-03
9.200000e+08	1.367724e+14	0.000000e+00	6.350366e-01	2.120039e+15	2.910611e+15	2.915494e+14	1.845255e+04	1.175947e+04	5.757906e+03	0	1.573098e-03
9.300000e+08	1.341299e+14	0.000000e+00	6.350366e-01	2.098068e+15	2.895364e+15	2.902213e+14	1.841477e+04	1.174806e+04	5.752321e+03	0	1.562901e-03
9.400000e+08	1.315395e+14	0.000000e+00	6.350366e-01	2.076509e+15	2.879931e+15	2.889022e+14	1.837739e+04	1.173647e+04	5.746644e+03	0	1.552775e-03
9.500000e+08	1.289996e+14	0.000000e+00	6.350366e-01	2.055350e+15	2.864330e+15	2.875922e+14	1.834038e+04	1.172471e+04	5.740885e+03	0	1.542715e-03
9.600000e+08	1.265088e+14	0.000000e+00	6.350366e-01	2.034580e+15	2.848583e+15	2.862911e+14	1.830376e+04	1.171278e+04	5.735048e+03	0	1.532722e-03
9.700000e+08	1.240658e+14	0.000000e+00	6.350366e-01	2.014188e+15	2.832708e+15	2.849988e+14	1.826750e+04	1.170072e+04	5.729140e+03	0	1.522791e-03
9.800000e+08	1.216691e+14	0.000000e+00	6.350366e-01	1.994163e+15	2.816723e+15	2.837153e+14	1.823160e+04	1.168852e+04	5.723167e+03	0	1.512922e-03
9.900000e+08	1.193176e+14	0.000000e+00	6.350366e-01	1.974497e+15	2.800644e+15	2.824406e+14	1.819606e+04	1.167620e+04	5.717135e+03	0	1.503111e-03
1.000000e+09	1.170098e+14	0.000000e+00	6.350366e-01	1.955178e+15	2.784486e+15	2.811745e+14	1.816087e+04	1.166377e+04	5.711047e+03	0	1.493358e-03
1.010000e+09	1.147447e+14	0.000000e+00	6.350366e-01	1.936198e+15	2.768265e+15	2.799170e+14	1.812602e+04	1.165123e+04	5.704910e+03	0	1.483658e-03
1.020000e+09	1.125211e+14	0.000000e+00	6.350366e-01	1.917547e+15	2.751993e+15	2.786680e+14	1.809151e+04	1.163861e+04	5.698727e+03	0	1.474012e-03
1.030000e+09	1.103378e+14	0.000000e+00	6.350366e-01	1.899218e+15	2.735682e+15	2.774275e+14	1.805733e+04	1.162590e+04	5.692504e+03	0	1.464416e-03
1.040000e+09	1.081937e+14	0.000000e+00	6.350366e-01	1.881200e+15	2.719346e+15	2.761953e+14	1.802347e+04	1.161311e+04	5.686243e+03	0	1.454869e-03
1.050000e+09	1.060880e+14	0.000000e+00	6.350366e-01	1.863488e+15	2.702996e+15	2.749715e+14	1.798994e+04	1.160026e+04	5.679950e+03	0	1.445368e-03
1.060000e+09	1.040194e+14	0.000000e+00	6.350366e-01	1.846071e+15	2.686641e+15	2.737559e+14	1.795672e+04	1.158734e+04	5.673627e+03	0	1.435912e-03
1.070000e+09	1.019871e+14	0.000000e+00	6.350366e-01	1.828944e+15	2.670292e+15	2.725485e+14	1.792381e+04	1.157438e+04	5.667279e+03	0	1.426499e-03
1.080000e+09	9.999018e+13	0.000000e+00	6.350366e-01	1.812099e+15	2.653956e+15	2.713493e+14	1.789120e+04	1.156137e+04	5.660908e+03	0	1.417127e-03
1.090000e+09	9.802767e+13	0.000000e+00	6.350366e-01	1.795528e+15	2.637644e+15	2.701581e+14	1.785889e+04	1.154832e+04	5.654517e+03	0	1.407795e-03
1.100000e+09	9.609872e+13	0.000000e+00	6.350366e-01	1.779226e+15	2.621361e+15	2.689749e+14	1.782688e+04	1.153523e+04	5.648110e+03	0	1.398499e-03
1.110000e+09	9.420249e+13	0.000000e+00	6.350366e-01	1.763185e+15	2.605117e+15	2.677996e+14	1.779516e+04	1.152212e+04	5.641689e+03	0	1.389240e-03
1.120000e+09	9.233818e+13	0.000000e+00	6.350366e-01	1.747399e+15	2.588917e+15	2.666322e+14	1.776372e+04	1.150898e+04	5.635257e+03	0	1.380014e-03
1.130000e+09	9.050499e+13	0.000000e+00	6.350366e-01	1.731862e+15	2.572769e+15	2.654727e+14	1.773256e+04	1.149583e+04	5.628816e+03	0	1.370820e-03
1.140000e+09	8.870218e+13	0.000000e+00	6.350366e-01	1.716569e+15	2.556677e+15	2.643208e+14	1.770168e+04	1.148266e+04	5.622369e+03	0	1.361657e-03
1.150000e+09	8.692900e+13	0.000000e+00	6.350366e-01	1.701512e+15	2.540648e+15	2.631767e+14	1.767108e+04	1.146948e+04	5.615917e+03	0	1.352523e-03
1.160000e+09	8.518475e+13	0.000000e+00	6.350366e-01	1.686688e+15	2.524685e+15	2.620402e+14	1.764073e+04	1.145630e+04	5.609463e+03	0	1.343415e-03
1.170000e+09	8.346874e+13	0.000000e+00	6.350366e-01	1.672089e+15	2.508794e+15	2.609112e+14	1.761066e+04	1.144312e+04	5.603009e+03	0	1.334333e-03
1.180000e+09	8.178030e+13	0.000000e+00	6.350366e-01	1.657713e+15	2.492980e+15	2.597898e+14	1.758084e+04	1.142994e+04	5.596556e+03	0	1.325275e-03
1.190000e+09	8.011880e+13	0.000000e+00	6.350366e-01	1.643552e+15	2.477246e+15	2.586759e+14	1.755127e+04	1.141677e+04	5.590106e+03	0	1.316238e-03
1.200000e+09	7.848362e+13	0.000000e+00	6.350366e-01	1.629603e+15	2.461595e+15	2.575693e+14	1.752196e+04	1.140360e+04	5.583661e+03	0	1.307222e-03
1.210000e+09	7.687414e+13	0.000000e+00	6.350366e-01	1.615860e+15	2.446031e+15	2.564701e+14	1.749290e+04	1.139045e+04	5.577222e+03	0	1.298225e-03
1.220000e+09	7.528980e+13	0.000000e+00	6.350366e-01	1.602320e+15	2.430558e+15	2.553781e+14	1.746408e+04	1.137732e+04	5.570791e+03	0	1.289244e-03
1.230000e+09	7.373001e+13	0.000000e+00	6.350366e-01	1.588977e+15	2.415177e+15	2.542934e+14	1.743550e+04	1.136420e+04	5.564369e+03	0	1.280279e-03
1.240000e+09	7.219423e+13	0.000000e+00	6.350366e-01	1.575827e+15	2.399891e+15	2.532158e+14	1.740716e+04	1.135111e+04	5.557958e+03	0	1.271327e-03
1.250000e+09	7.068193e+13	0.000000e+00	6.350366e-01	1.562867e+15	2.384703e+15	2.521454e+14	1.737906e+04	1.133804e+04	5.551557e+03	0	1.262387e-03
1.260000e+09	6.919260e+13	0.000000e+00	6.350366e-01	1.550091e+15	2.369614e+15	2.510820e+14	1.735118e+04	1.132499e+04	5.545170e+03	0	1.253457e-03
1.270000e+09	6.772573e+13	0.000000e+00	6.350366e-01	1.537497e+15	2.354626e+15	2.500256e+14	1.732353e+04	1.131198e+04	5.538796e+03	0	1.244536e-03
1.280000e+09	6.628084e+13	0.000000e+00	6.350366e-01	1.525081e+15	2.339742e+15	2.489762e+14	1.729610e+04	1.129899e+04	5.532437e+03	0	1.235622e-03
1.290000e+09	6.485746e+13	0.000000e+00	6.350366e-01	1.512837e+15	2.324962e+15	2.479336e+14	1.726890e+04	1.128603e+04	5.526093e+03	0	1.226713e-03
1.300000e+09	6.345513e+13	0.000000e+00	6.350366e-01	1.500764e+15	2.310288e+15	2.468979e+14	1.724191e+04	1.127311e+04	5.519766e+03	0	1.217807e-03
1.310000e+09	6.207341e+13	0.000000e+00	6.350366e-01	1.488858e+15	2.295721e+15	2.458690e+14	1.721514e+04	1.126022e+04	5.513456e+03	0	1.208903e-03
1.320000e+09	6.071186e+13	0.000000e+00	6.350366e-01	1.477115e+15	2.281261e+15	2.448469e+14	1.718858e+04	1.124737e+04	5.507164e+03	0	1.199999e-03
1.330000e+09	5.937007e+13	0.000000e+00	6.350366e-01	1.465531e+15	2.266911e+15	2.438314e+14	1.716223e+04	1.123456e+04	5.500890e+03	0	1.191093e-03
1.340000e+09	5.804762e+13	0.000000e+00	6.350366e-01	1.454104e+15	2.252670e+15	2.428226e+14	1.713608e+04	1.122179e+04	5.494636e+03	0	1.182182e-03
1.350000e+09	5.674413e+13	0.000000e+00	6.350366e-01	1.442831e+15	2.238539e+15	2.418203e+14	1.711014e+04	1.120905e+04	5.488402e+03	0	1.173267e-03
1.360000e+09	5.545920e+13	0.000000e+00	6.350366e-01	1.431709e+15	2.224518e+15	2.408246e+14	1.708440e+04	1.119636e+04	5.482188e+03	0	1.164343e-03
