#t		Qconv[W]	Ri[Rp]		R*[Rp]		Qc[W]		Qm[W]		Qr[W]		Tcmb[K]		Tl[K]		Tup[K]		RiFlag		Bs[T]
0.000000e+00	2.027075e+13	0.000000e+00	8.991597e-01	2.894463e+14	5.827548e+14	3.764093e+13	8.717213e+03	3.195876e+03	2.401727e+03	0	7.181614e-04
1.000000e+07	1.990438e+13	0.000000e+00	8.991597e-01	2.855318e+14	5.272256e+14	3.743237e+13	8.706458e+03	3.143393e+03	2.362286e+03	0	7.138085e-04
2.000000e+07	1.958007e+13	0.000000e+00	8.991597e-01	2.820568e+14	4.850940e+14	3.722537e+13	8.695849e+03	3.101162e+03	2.330548e+03	0	7.099104e-04
3.000000e+07	1.928964e+13	0.000000e+00	8.991597e-01	2.789361e+14	4.523231e+14	3.701992e+13	8.685369e+03	3.066685e+03	2.304638e+03	0	7.063829e-04
4.000000e+07	1.902677e+13	0.000000e+00	8.991597e-01	2.761036e+14	4.263065e+14	3.681600e+13	8.675004e+03	3.038198e+03	2.283230e+03	0	7.031594e-04
5.000000e+07	1.878649e+13	0.000000e+00	8.991597e-01	2.735075e+14	4.052941e+14	3.661360e+13	8.664744e+03	3.014421e+03	2.265362e+03	0	7.001870e-04
6.000000e+07	1.856491e+13	0.000000e+00	8.991597e-01	2.711071e+14	3.880717e+14	3.641272e+13	8.654581e+03	2.994400e+03	2.250316e+03	0	6.974232e-04
7.000000e+07	1.835891e+13	0.000000e+00	8.991597e-01	2.688699e+14	3.737729e+14	3.621332e+13	8.644507e+03	2.977409e+03	2.237547e+03	0	6.948340e-04
8.000000e+07	1.816600e+13	0.000000e+00	8.991597e-01	2.667699e+14	3.617648e+14	3.601541e+13	8.634515e+03	2.962886e+03	2.226633e+03	0	6.923918e-04
9.000000e+07	1.798417e+13	0.000000e+00	8.991597e-01	2.647860e+14	3.515755e+14	3.581898e+13	8.624602e+03	2.950391e+03	2.217243e+03	0	6.900738e-04
1.000000e+08	1.781176e+13	0.000000e+00	8.991597e-01	2.629010e+14	3.428469e+14	3.562400e+13	8.614762e+03	2.939573e+03	2.209113e+03	0	6.878616e-04
1.100000e+08	1.764743e+13	0.000000e+00	8.991597e-01	2.611008e+14	3.353029e+14	3.543047e+13	8.604992e+03	2.930151e+03	2.202032e+03	0	6.857397e-04
1.200000e+08	1.749007e+13	0.000000e+00	8.991597e-01	2.593738e+14	3.287279e+14	3.523837e+13	8.595289e+03	2.921898e+03	2.195830e+03	0	6.836953e-04
1.300000e+08	1.733874e+13	0.000000e+00	8.991597e-01	2.577102e+14	3.229515e+14	3.504769e+13	8.585650e+03	2.914626e+03	2.190365e+03	0	6.817177e-04
1.400000e+08	1.719268e+13	0.000000e+00	8.991597e-01	2.561022e+14	3.178377e+14	3.485843e+13	8.576073e+03	2.908182e+03	2.185522e+03	0	6.797981e-04
1.500000e+08	1.705124e+13	0.000000e+00	8.991597e-01	2.545428e+14	3.132767e+14	3.467056e+13	8.566555e+03	2.902440e+03	2.181207e+03	0	6.779288e-04
1.600000e+08	1.691387e+13	0.000000e+00	8.991597e-01	2.530264e+14	3.091794e+14	3.448409e+13	8.557095e+03	2.897293e+03	2.177339e+03	0	6.761034e-04
1.700000e+08	1.678013e+13	0.000000e+00	8.991597e-01	2.515482e+14	3.054730e+14	3.429898e+13	8.547692e+03	2.892654e+03	2.173853e+03	0	6.743166e-04
1.800000e+08	1.664961e+13	0.000000e+00	8.991597e-01	2.501042e+14	3.020976e+14	3.411525e+13	8.538343e+03	2.888449e+03	2.170692e+03	0	6.725638e-04
1.900000e+08	1.652199e+13	0.000000e+00	8.991597e-01	2.486908e+14	2.990033e+14	3.393286e+13	8.529048e+03	2.884614e+03	2.167811e+03	0	6.708410e-04
2.000000e+08	1.639700e+13	0.000000e+00	8.991597e-01	2.473053e+14	2.961490e+14	3.375182e+13	8.519805e+03	2.881098e+03	2.165169e+03	0	6.691449e-04
2.100000e+08	1.627437e+13	0.000000e+00	8.991597e-01	2.459449e+14	2.935001e+14	3.357211e+13	8.510614e+03	2.877856e+03	2.162732e+03	0	6.674727e-04
2.200000e+08	1.615392e+13	0.000000e+00	8.991597e-01	2.446076e+14	2.910278e+14	3.339372e+13	8.501473e+03	2.874850e+03	2.160473e+03	0	6.658220e-04
2.300000e+08	1.603547e+13	0.000000e+00	8.991597e-01	2.432916e+14	2.887076e+14	3.321664e+13	8.492382e+03	2.872047e+03	2.158367e+03	0	6.641905e-04
2.400000e+08	1.591885e+13	0.000000e+00	8.991597e-01	2.419952e+14	2.865190e+14	3.304086e+13	8.483340e+03	2.869420e+03	2.156393e+03	0	6.625764e-04
2.500000e+08	1.580394e+13	0.000000e+00	8.991597e-01	2.407170e+14	2.844445e+14	3.286636e+13	8.474346e+03	2.866946e+03	2.154533e+03	0	6.609784e-04
2.600000e+08	1.569063e+13	0.000000e+00	8.991597e-01	2.394558e+14	2.824695e+14	3.269314e+13	8.465399e+03	2.864605e+03	2.152774e+03	0	6.593948e-04
2.700000e+08	1.557881e+13	0.000000e+00	8.991597e-01	2.382106e+14	2.805813e+14	3.252119e+13	8.456499e+03	2.862379e+03	2.151101e+03	0	6.578247e-04
2.800000e+08	1.546839e+13	0.000000e+00	8.991597e-01	2.369806e+14	2.787693e+14	3.235050e+13	8.447645e+03	2.860252e+03	2.149503e+03	0	6.562669e-04
2.900000e+08	1.535932e+13	0.000000e+00	8.991597e-01	2.357648e+14	2.770242e+14	3.218105e+13	8.438837e+03	2.858214e+03	2.147971e+03	0	6.547207e-04
3.000000e+08	1.525150e+13	0.000000e+00	8.991597e-01	2.345626e+14	2.753382e+14	3.201283e+13	8.430074e+03	2.856252e+03	2.146497e+03	0	6.531851e-04
3.100000e+08	1.514489e+13	0.000000e+00	8.991597e-01	2.333734e+14	2.737047e+14	3.184584e+13	8.421355e+03	2.854358e+03	2.145073e+03	0	6.516597e-04
3.200000e+08	1.503944e+13	0.000000e+00	8.991597e-01	2.321966e+14	2.721177e+14	3.168007e+13	8.412681e+03	2.852523e+03	2.143694e+03	0	6.501437e-04
3.300000e+08	1.493510e+13	0.000000e+00	8.991597e-01	2.310318e+14	2.705724e+14	3.151550e+13	8.404050e+03	2.850739e+03	2.142354e+03	0	6.486366e-04
3.400000e+08	1.483182e+13	0.000000e+00	8.991597e-01	2.298784e+14	2.690645e+14	3.135212e+13	8.395463e+03	2.849002e+03	2.141048e+03	0	6.471380e-04
3.500000e+08	1.472958e+13	0.000000e+00	8.991597e-01	2.287363e+14	2.675902e+14	3.118993e+13	8.386918e+03	2.847305e+03	2.139773e+03	0	6.456476e-04
3.600000e+08	1.462833e+13	0.000000e+00	8.991597e-01	2.276049e+14	2.661464e+14	3.102892e+13	8.378416e+03	2.845645e+03	2.138525e+03	0	6.441649e-04
3.700000e+08	1.452806e+13	0.000000e+00	8.991597e-01	2.264840e+14	2.647303e+14	3.086907e+13	8.369956e+03	2.844016e+03	2.137301e+03	0	6.426896e-04
3.800000e+08	1.442873e+13	0.000000e+00	8.991597e-01	2.253733e+14	2.633395e+14	3.071038e+13	8.361537e+03	2.842417e+03	2.136099e+03	0	6.412215e-04
3.900000e+08	1.433031e+13	0.000000e+00	8.991597e-01	2.242725e+14	2.619718e+14	3.055284e+13	8.353160e+03	2.840843e+03	2.134916e+03	0	6.397604e-04
4.000000e+08	1.423280e+13	0.000000e+00	8.991597e-01	2.231815e+14	2.606256e+14	3.039644e+13	8.344823e+03	2.839292e+03	2.133751e+03	0	6.383059e-04
4.100000e+08	1.413616e+13	0.000000e+00	8.991597e-01	2.220999e+14	2.592992e+14	3.024116e+13	8.336527e+03	2.837763e+03	2.132601e+03	0	6.368579e-04
4.200000e+08	1.404038e+13	0.000000e+00	8.991597e-01	2.210277e+14	2.579912e+14	3.008700e+13	8.328271e+03	2.836252e+03	2.131466e+03	0	6.354163e-04
4.300000e+08	1.394543e+13	0.000000e+00	8.991597e-01	2.199646e+14	2.567004e+14	2.993395e+13	8.320055e+03	2.834758e+03	2.130344e+03	0	6.339808e-04
4.400000e+08	1.385132e+13	0.000000e+00	8.991597e-01	2.189104e+14	2.554258e+14	2.978201e+13	8.311878e+03	2.833281e+03	2.129233e+03	0	6.325514e-04
4.500000e+08	1.375801e+13	0.000000e+00	8.991597e-01	2.178650e+14	2.541664e+14	2.963115e+13	8.303741e+03	2.831818e+03	2.128134e+03	0	6.311278e-04
4.600000e+08	1.366550e+13	0.000000e+00	8.991597e-01	2.168283e+14	2.529214e+14	2.948138e+13	8.295642e+03	2.830368e+03	2.127044e+03	0	6.297101e-04
4.700000e+08	1.357377e+13	0.000000e+00	8.991597e-01	2.158000e+14	2.516900e+14	2.933268e+13	8.287582e+03	2.828930e+03	2.125964e+03	0	6.282980e-04
4.800000e+08	1.348282e+13	0.000000e+00	8.991597e-01	2.147801e+14	2.504717e+14	2.918505e+13	8.279560e+03	2.827504e+03	2.124892e+03	0	6.268914e-04
4.900000e+08	1.339262e+13	0.000000e+00	8.991597e-01	2.137685e+14	2.492659e+14	2.903847e+13	8.271576e+03	2.826089e+03	2.123829e+03	0	6.254903e-04
5.000000e+08	1.330317e+13	0.000000e+00	8.991597e-01	2.127650e+14	2.480720e+14	2.889295e+13	8.263629e+03	2.824684e+03	2.122773e+03	0	6.240946e-04
5.100000e+08	1.321445e+13	0.000000e+00	8.991597e-01	2.117695e+14	2.468896e+14	2.874846e+13	8.255719e+03	2.823288e+03	2.121724e+03	0	6.227042e-04
5.200000e+08	1.312646e+13	0.000000e+00	8.991597e-01	2.107819e+14	2.457183e+14	2.860500e+13	8.247847e+03	2.821901e+03	2.120681e+03	0	6.213191e-04
5.300000e+08	1.303919e+13	0.000000e+00	8.991597e-01	2.098021e+14	2.445577e+14	2.846257e+13	8.240011e+03	2.820522e+03	2.119645e+03	0	6.199391e-04
5.400000e+08	1.295263e+13	0.000000e+00	8.991597e-01	2.088300e+14	2.434075e+14	2.832115e+13	8.232212e+03	2.819152e+03	2.118615e+03	0	6.185641e-04
5.500000e+08	1.286676e+13	0.000000e+00	8.991597e-01	2.078656e+14	2.422675e+14	2.818074e+13	8.224448e+03	2.817789e+03	2.117591e+03	0	6.171942e-04
5.600000e+08	1.278158e+13	0.000000e+00	8.991597e-01	2.069086e+14	2.411373e+14	2.804132e+13	8.216721e+03	2.816433e+03	2.116572e+03	0	6.158293e-04
5.700000e+08	1.269709e+13	0.000000e+00	8.991597e-01	2.059590e+14	2.400167e+14	2.790290e+13	8.209029e+03	2.815085e+03	2.115559e+03	0	6.144692e-04
5.800000e+08	1.261326e+13	0.000000e+00	8.991597e-01	2.050167e+14	2.389055e+14	2.776546e+13	8.201372e+03	2.813743e+03	2.114551e+03	0	6.131140e-04
5.900000e+08	1.253010e+13	0.000000e+00	8.991597e-01	2.040817e+14	2.378034e+14	2.762899e+13	8.193750e+03	2.812408e+03	2.113548e+03	0	6.117637e-04
6.000000e+08	1.244760e+13	0.000000e+00	8.991597e-01	2.031539e+14	2.367103e+14	2.749349e+13	8.186163e+03	2.811080e+03	2.112549e+03	0	6.104180e-04
6.100000e+08	1.236575e+13	0.000000e+00	8.991597e-01	2.022331e+14	2.356261e+14	2.735894e+13	8.178610e+03	2.809757e+03	2.111555e+03	0	6.090771e-04
6.200000e+08	1.228454e+13	0.000000e+00	8.991597e-01	2.013193e+14	2.345504e+14	2.722535e+13	8.171092e+03	2.808441e+03	2.110566e+03	0	6.077408e-04
6.300000e+08	1.220396e+13	0.000000e+00	8.991597e-01	2.004124e+14	2.334833e+14	2.709270e+13	8.163607e+03	2.807130e+03	2.109581e+03	0	6.064091e-04
6.400000e+08	1.212401e+13	0.000000e+00	8.991597e-01	1.995124e+14	2.324245e+14	2.696099e+13	8.156156e+03	2.805826e+03	2.108601e+03	0	6.050820e-04
6.500000e+08	1.204468e+13	0.000000e+00	8.991597e-01	1.986191e+14	2.313739e+14	2.683020e+13	8.148739e+03	2.804527e+03	2.107624e+03	0	6.037594e-04
6.600000e+08	1.196597e+13	0.000000e+00	8.991597e-01	1.977326e+14	2.303314e+14	2.670033e+13	8.141354e+03	2.803233e+03	2.106652e+03	0	6.024412e-04
6.700000e+08	1.188786e+13	0.000000e+00	8.991597e-01	1.968526e+14	2.292969e+14	2.657138e+13	8.134003e+03	2.801945e+03	2.105684e+03	0	6.011275e-04
6.800000e+08	1.181035e+13	0.000000e+00	8.991597e-01	1.959792e+14	2.282702e+14	2.644333e+13	8.126684e+03	2.800662e+03	2.104720e+03	0	5.998182e-04
6.900000e+08	1.173343e+13	0.000000e+00	8.991597e-01	1.951123e+14	2.272513e+14	2.631618e+13	8.119398e+03	2.799385e+03	2.103760e+03	0	5.985133e-04
7.000000e+08	1.165710e+13	0.000000e+00	8.991597e-01	1.942517e+14	2.262400e+14	2.618993e+13	8.112144e+03	2.798112e+03	2.102804e+03	0	5.972126e-04
7.100000e+08	1.158136e+13	0.000000e+00	8.991597e-01	1.933976e+14	2.252363e+14	2.606455e+13	8.104922e+03	2.796845e+03	2.101852e+03	0	5.959163e-04
7.200000e+08	1.150618e+13	0.000000e+00	8.991597e-01	1.925497e+14	2.242400e+14	2.594006e+13	8.097731e+03	2.795583e+03	2.100903e+03	0	5.946242e-04
7.300000e+08	1.143158e+13	0.000000e+00	8.991597e-01	1.917080e+14	2.232511e+14	2.581643e+13	8.090572e+03	2.794326e+03	2.099958e+03	0	5.933362e-04
7.400000e+08	1.135754e+13	0.000000e+00	8.991597e-01	1.908724e+14	2.222695e+14	2.569366e+13	8.083444e+03	2.793073e+03	2.099017e+03	0	5.920525e-04
7.500000e+08	1.128406e+13	0.000000e+00	8.991597e-01	1.900429e+14	2.212950e+14	2.557176e+13	8.076348e+03	2.791826e+03	2.098080e+03	0	5.907729e-04
7.600000e+08	1.121113e+13	0.000000e+00	8.991597e-01	1.892195e+14	2.203277e+14	2.545070e+13	8.069282e+03	2.790583e+03	2.097146e+03	0	5.894973e-04
7.700000e+08	1.113874e+13	0.000000e+00	8.991597e-01	1.884020e+14	2.193674e+14	2.533048e+13	8.062246e+03	2.789345e+03	2.096216e+03	0	5.882259e-04
7.800000e+08	1.106689e+13	0.000000e+00	8.991597e-01	1.875904e+14	2.184140e+14	2.521110e+13	8.055241e+03	2.788112e+03	2.095289e+03	0	5.869584e-04
7.900000e+08	1.099558e+13	0.000000e+00	8.991597e-01	1.867847e+14	2.174676e+14	2.509255e+13	8.048267e+03	2.786884e+03	2.094366e+03	0	5.856950e-04
8.000000e+08	1.092480e+13	0.000000e+00	8.991597e-01	1.859847e+14	2.165279e+14	2.497482e+13	8.041322e+03	2.785660e+03	2.093446e+03	0	5.844355e-04
8.100000e+08	1.085454e+13	0.000000e+00	8.991597e-01	1.851905e+14	2.155949e+14	2.485790e+13	8.034406e+03	2.784441e+03	2.092530e+03	0	5.831799e-04
8.200000e+08	1.078480e+13	0.000000e+00	8.991597e-01	1.844019e+14	2.146686e+14	2.474180e+13	8.027521e+03	2.783226e+03	2.091617e+03	0	5.819283e-04
8.300000e+08	1.071557e+13	0.000000e+00	8.991597e-01	1.836190e+14	2.137489e+14	2.462650e+13	8.020664e+03	2.782016e+03	2.090708e+03	0	5.806805e-04
8.400000e+08	1.064685e+13	0.000000e+00	8.991597e-01	1.828416e+14	2.128357e+14	2.451199e+13	8.013837e+03	2.780811e+03	2.089802e+03	0	5.794365e-04
8.500000e+08	1.057863e+13	0.000000e+00	8.991597e-01	1.820697e+14	2.119290e+14	2.439827e+13	8.007038e+03	2.779609e+03	2.088899e+03	0	5.781963e-04
8.600000e+08	1.051092e+13	0.000000e+00	8.991597e-01	1.813032e+14	2.110287e+14	2.428534e+13	8.000268e+03	2.778413e+03	2.088000e+03	0	5.769599e-04
8.700000e+08	1.044369e+13	0.000000e+00	8.991597e-01	1.805422e+14	2.101346e+14	2.417319e+13	7.993527e+03	2.777220e+03	2.087104e+03	0	5.757272e-04
8.800000e+08	1.037695e+13	0.000000e+00	8.991597e-01	1.797864e+14	2.092469e+14	2.406180e+13	7.986814e+03	2.776032e+03	2.086211e+03	0	5.744982e-04
8.900000e+08	1.031070e+13	0.000000e+00	8.991597e-01	1.790360e+14	2.083653e+14	2.395119e+13	7.980129e+03	2.774849e+03	2.085321e+03	0	5.732730e-04
9.000000e+08	1.024492e+13	0.000000e+00	8.991597e-01	1.782908e+14	2.074899e+14	2.384133e+13	7.973471e+03	2.773669e+03	2.084435e+03	0	5.720513e-04
9.100000e+08	1.017962e+13	0.000000e+00	8.991597e-01	1.775508e+14	2.066206e+14	2.373222e+13	7.966842e+03	2.772494e+03	2.083552e+03	0	5.708333e-04
9.200000e+08	1.011478e+13	0.000000e+00	8.991597e-01	1.768159e+14	2.057573e+14	2.362386e+13	7.960240e+03	2.771323e+03	2.082672e+03	0	5.696188e-04
9.300000e+08	1.005042e+13	0.000000e+00	8.991597e-01	1.760861e+14	2.048999e+14	2.351625e+13	7.953665e+03	2.770157e+03	2.081795e+03	0	5.684079e-04
9.400000e+08	9.986507e+12	0.000000e+00	8.991597e-01	1.753613e+14	2.040485e+14	2.340937e+13	7.947117e+03	2.768994e+03	2.080922e+03	0	5.672006e-04
9.500000e+08	9.923054e+12	0.000000e+00	8.991597e-01	1.746416e+14	2.032029e+14	2.330321e+13	7.940597e+03	2.767836e+03	2.080051e+03	0	5.659967e-04
9.600000e+08	9.860051e+12	0.000000e+00	8.991597e-01	1.739267e+14	2.023631e+14	2.319779e+13	7.934102e+03	2.766682e+03	2.079184e+03	0	5.647963e-04
9.700000e+08	9.797496e+12	0.000000e+00	8.991597e-01	1.732168e+14	2.015290e+14	2.309308e+13	7.927635e+03	2.765532e+03	2.078319e+03	0	5.635993e-04
9.800000e+08	9.735383e+12	0.000000e+00	8.991597e-01	1.725117e+14	2.007007e+14	2.298908e+13	7.921194e+03	2.764386e+03	2.077458e+03	0	5.624058e-04
9.900000e+08	9.673708e+12	0.000000e+00	8.991597e-01	1.718114e+14	1.998779e+14	2.288579e+13	7.914779e+03	2.763244e+03	2.076600e+03	0	5.612156e-04
1.000000e+09	9.612467e+12	0.000000e+00	8.991597e-01	1.711159e+14	1.990608e+14	2.278320e+13	7.908390e+03	2.762106e+03	2.075745e+03	0	5.600289e-04
1.010000e+09	9.551656e+12	0.000000e+00	8.991597e-01	1.704251e+14	1.982492e+14	2.268130e+13	7.902027e+03	2.760972e+03	2.074893e+03	0	5.588454e-04
1.020000e+09	9.491271e+12	0.000000e+00	8.991597e-01	1.697389e+14	1.974430e+14	2.258010e+13	7.895689e+03	2.759842e+03	2.074044e+03	0	5.576652e-04
1.030000e+09	9.431307e+12	0.000000e+00	8.991597e-01	1.690574e+14	1.966423e+14	2.247958e+13	7.889377e+03	2.758716e+03	2.073197e+03	0	5.564883e-04
1.040000e+09	9.371761e+12	0.000000e+00	8.991597e-01	1.683804e+14	1.958469e+14	2.237974e+13	7.883091e+03	2.757594e+03	2.072354e+03	0	5.553147e-04
1.050000e+09	9.312629e+12	0.000000e+00	8.991597e-01	1.677080e+14	1.950569e+14	2.228058e+13	7.876829e+03	2.756476e+03	2.071514e+03	0	5.541443e-04
1.060000e+09	9.253907e+12	0.000000e+00	8.991597e-01	1.670401e+14	1.942722e+14	2.218208e+13	7.870593e+03	2.755362e+03	2.070677e+03	0	5.529771e-04
1.070000e+09	9.195591e+12	0.000000e+00	8.991597e-01	1.663766e+14	1.934926e+14	2.208425e+13	7.864381e+03	2.754251e+03	2.069842e+03	0	5.518131e-04
1.080000e+09	9.137677e+12	0.000000e+00	8.991597e-01	1.657176e+14	1.927183e+14	2.198707e+13	7.858194e+03	2.753145e+03	2.069011e+03	0	5.506522e-04
1.090000e+09	9.080161e+12	0.000000e+00	8.991597e-01	1.650629e+14	1.919491e+14	2.189055e+13	7.852031e+03	2.752042e+03	2.068182e+03	0	5.494944e-04
1.100000e+09	9.023040e+12	0.000000e+00	8.991597e-01	1.644126e+14	1.911850e+14	2.179468e+13	7.845893e+03	2.750943e+03	2.067356e+03	0	5.483398e-04
1.110000e+09	8.966310e+12	0.000000e+00	8.991597e-01	1.637665e+14	1.904259e+14	2.169945e+13	7.839779e+03	2.749848e+03	2.066533e+03	0	5.471882e-04
1.120000e+09	8.909968e+12	0.000000e+00	8.991597e-01	1.631247e+14	1.896719e+14	2.160486e+13	7.833689e+03	2.748757e+03	2.065713e+03	0	5.460396e-04
1.130000e+09	8.854009e+12	0.000000e+00	8.991597e-01	1.624871e+14	1.889227e+14	2.151090e+13	7.827622e+03	2.747669e+03	2.064895e+03	0	5.448941e-04
1.140000e+09	8.798430e+12	0.000000e+00	8.991597e-01	1.618537e+14	1.881785e+14	2.141757e+13	7.821580e+03	2.746585e+03	2.064081e+03	0	5.437516e-04
1.150000e+09	8.743229e+12	0.000000e+00	8.991597e-01	1.612244e+14	1.874392e+14	2.132486e+13	7.815561e+03	2.745505e+03	2.063269e+03	0	5.426120e-04
1.160000e+09	8.688400e+12	0.000000e+00	8.991597e-01	1.605993e+14	1.867047e+14	2.123277e+13	7.809565e+03	2.744428e+03	2.062460e+03	0	5.414754e-04
1.170000e+09	8.633941e+12	0.000000e+00	8.991597e-01	1.599781e+14	1.859749e+14	2.114129e+13	7.803592e+03	2.743355e+03	2.061654e+03	0	5.403417e-04
1.180000e+09	8.579849e+12	0.000000e+00	8.991597e-01	1.593611e+14	1.852499e+14	2.105043e+13	7.797643e+03	2.742286e+03	2.060850e+03	0	5.392109e-04
1.190000e+09	8.526120e+12	0.000000e+00	8.991597e-01	1.587480e+14	1.845296e+14	2.096016e+13	7.791716e+03	2.741220e+03	2.060049e+03	0	5.380830e-04
1.200000e+09	8.472751e+12	0.000000e+00	8.991597e-01	1.581388e+14	1.838140e+14	2.087050e+13	7.785813e+03	2.740158e+03	2.059251e+03	0	5.369579e-04
1.210000e+09	8.419738e+12	0.000000e+00	8.991597e-01	1.575336e+14	1.831029e+14	2.078143e+13	7.779931e+03	2.739100e+03	2.058455e+03	0	5.358357e-04
1.220000e+09	8.367079e+12	0.000000e+00	8.991597e-01	1.569322e+14	1.823964e+14	2.069295e+13	7.774073e+03	2.738045e+03	2.057663e+03	0	5.347163e-04
1.230000e+09	8.314770e+12	0.000000e+00	8.991597e-01	1.563348e+14	1.816945e+14	2.060506e+13	7.768236e+03	2.736993e+03	2.056872e+03	0	5.335996e-04
1.240000e+09	8.262808e+12	0.000000e+00	8.991597e-01	1.557411e+14	1.809970e+14	2.051774e+13	7.762422e+03	2.735945e+03	2.056085e+03	0	5.324858e-04
1.250000e+09	8.211189e+12	0.000000e+00	8.991597e-01	1.551512e+14	1.803040e+14	2.043101e+13	7.756630e+03	2.734901e+03	2.055300e+03	0	5.313746e-04
1.260000e+09	8.159912e+12	0.000000e+00	8.991597e-01	1.545650e+14	1.796154e+14	2.034484e+13	7.750860e+03	2.733860e+03	2.054518e+03	0	5.302662e-04
1.270000e+09	8.108972e+12	0.000000e+00	8.991597e-01	1.539826e+14	1.789312e+14	2.025924e+13	7.745112e+03	2.732822e+03	2.053738e+03	0	5.291604e-04
1.280000e+09	8.058367e+12	0.000000e+00	8.991597e-01	1.534038e+14	1.782514e+14	2.017421e+13	7.739385e+03	2.731788e+03	2.052961e+03	0	5.280574e-04
1.290000e+09	8.008093e+12	0.000000e+00	8.991597e-01	1.528287e+14	1.775758e+14	2.008973e+13	7.733680e+03	2.730757e+03	2.052186e+03	0	5.269570e-04
1.300000e+09	7.958148e+12	0.000000e+00	8.991597e-01	1.522573e+14	1.769045e+14	2.000581e+13	7.727996e+03	2.729730e+03	2.051414e+03	0	5.258592e-04
1.310000e+09	7.908529e+12	0.000000e+00	8.991597e-01	1.516894e+14	1.762374e+14	1.992244e+13	7.722333e+03	2.728706e+03	2.050645e+03	0	5.247640e-04
1.320000e+09	7.859234e+12	0.000000e+00	8.991597e-01	1.511250e+14	1.755745e+14	1.983962e+13	7.716692e+03	2.727685e+03	2.049878e+03	0	5.236714e-04
1.330000e+09	7.810258e+12	0.000000e+00	8.991597e-01	1.505642e+14	1.749158e+14	1.975734e+13	7.711071e+03	2.726668e+03	2.049113e+03	0	5.225813e-04
1.340000e+09	7.761599e+12	0.000000e+00	8.991597e-01	1.500069e+14	1.742611e+14	1.967559e+13	7.705471e+03	2.725654e+03	2.048351e+03	0	5.214938e-04
1.350000e+09	7.713255e+12	0.000000e+00	8.991597e-01	1.494530e+14	1.736106e+14	1.959438e+13	7.699892e+03	2.724644e+03	2.047592e+03	0	5.204089e-04
1.360000e+09	7.665223e+12	0.000000e+00	8.991597e-01	1.489026e+14	1.729641e+14	1.951370e+13	7.694334e+03	2.723636e+03	2.046835e+03	0	5.193264e-04
