#t		Qconv[W]	Ri[Rp]		R*[Rp]		Qc[W]		Qm[W]		Qr[W]		Tcmb[K]		Tl[K]		Tup[K]		RiFlag		Bs[T]
0.000000e+00	2.174205e+13	0.000000e+00	8.991597e-01	3.216288e+14	6.190908e+14	4.248210e+13	9.142846e+03	3.283256e+03	2.448340e+03	0	7.311444e-04
1.000000e+07	2.135208e+13	0.000000e+00	8.991597e-01	3.176839e+14	5.668101e+14	4.224672e+13	9.132741e+03	3.236366e+03	2.413374e+03	0	7.267467e-04
2.000000e+07	2.100534e+13	0.000000e+00	8.991597e-01	3.141644e+14	5.263021e+14	4.201310e+13	9.122759e+03	3.198092e+03	2.384833e+03	0	7.227913e-04
3.000000e+07	2.069367e+13	0.000000e+00	8.991597e-01	3.109903e+14	4.942451e+14	4.178123e+13	9.112888e+03	3.166466e+03	2.361249e+03	0	7.191986e-04
4.000000e+07	2.041072e+13	0.000000e+00	8.991597e-01	3.080992e+14	4.684243e+14	4.155108e+13	9.103117e+03	3.140060e+03	2.341558e+03	0	7.159057e-04
5.000000e+07	2.015149e+13	0.000000e+00	8.991597e-01	3.054417e+14	4.473122e+14	4.132265e+13	9.093436e+03	3.117818e+03	2.324972e+03	0	7.128620e-04
6.000000e+07	1.991201e+13	0.000000e+00	8.991597e-01	3.029789e+14	4.298243e+14	4.109593e+13	9.083838e+03	3.098935e+03	2.310891e+03	0	7.100268e-04
7.000000e+07	1.968910e+13	0.000000e+00	8.991597e-01	3.006795e+14	4.151715e+14	4.087089e+13	9.074318e+03	3.082793e+03	2.298854e+03	0	7.073673e-04
8.000000e+07	1.948017e+13	0.000000e+00	8.991597e-01	2.985182e+14	4.027675e+14	4.064753e+13	9.064870e+03	3.068905e+03	2.288497e+03	0	7.048563e-04
9.000000e+07	1.928313e+13	0.000000e+00	8.991597e-01	2.964743e+14	3.921686e+14	4.042582e+13	9.055490e+03	3.056884e+03	2.279534e+03	0	7.024718e-04
1.000000e+08	1.909626e+13	0.000000e+00	8.991597e-01	2.945309e+14	3.830337e+14	4.020577e+13	9.046174e+03	3.046422e+03	2.271732e+03	0	7.001952e-04
1.100000e+08	1.891813e+13	0.000000e+00	8.991597e-01	2.926739e+14	3.750965e+14	3.998734e+13	9.036919e+03	3.037266e+03	2.264904e+03	0	6.980112e-04
1.200000e+08	1.874755e+13	0.000000e+00	8.991597e-01	2.908918e+14	3.681471e+14	3.977054e+13	9.027722e+03	3.029211e+03	2.258897e+03	0	6.959070e-04
1.300000e+08	1.858355e+13	0.000000e+00	8.991597e-01	2.891748e+14	3.620178e+14	3.955534e+13	9.018581e+03	3.022086e+03	2.253584e+03	0	6.938718e-04
1.400000e+08	1.842529e+13	0.000000e+00	8.991597e-01	2.875147e+14	3.565735e+14	3.934173e+13	9.009494e+03	3.015753e+03	2.248861e+03	0	6.918965e-04
1.500000e+08	1.827208e+13	0.000000e+00	8.991597e-01	2.859048e+14	3.517046e+14	3.912971e+13	9.000459e+03	3.010092e+03	2.244641e+03	0	6.899734e-04
1.600000e+08	1.812332e+13	0.000000e+00	8.991597e-01	2.843391e+14	3.473211e+14	3.891925e+13	8.991474e+03	3.005008e+03	2.240849e+03	0	6.880958e-04
1.700000e+08	1.797851e+13	0.000000e+00	8.991597e-01	2.828128e+14	3.433492e+14	3.871034e+13	8.982539e+03	3.000416e+03	2.237425e+03	0	6.862583e-04
1.800000e+08	1.783723e+13	0.000000e+00	8.991597e-01	2.813217e+14	3.397275e+14	3.850297e+13	8.973651e+03	2.996247e+03	2.234316e+03	0	6.844560e-04
1.900000e+08	1.769912e+13	0.000000e+00	8.991597e-01	2.798622e+14	3.364050e+14	3.829713e+13	8.964810e+03	2.992442e+03	2.231479e+03	0	6.826848e-04
2.000000e+08	1.756386e+13	0.000000e+00	8.991597e-01	2.784312e+14	3.333389e+14	3.809280e+13	8.956015e+03	2.988951e+03	2.228876e+03	0	6.809412e-04
2.100000e+08	1.743118e+13	0.000000e+00	8.991597e-01	2.770261e+14	3.304933e+14	3.788998e+13	8.947265e+03	2.985732e+03	2.226475e+03	0	6.792223e-04
2.200000e+08	1.730086e+13	0.000000e+00	8.991597e-01	2.756446e+14	3.278379e+14	3.768865e+13	8.938560e+03	2.982747e+03	2.224249e+03	0	6.775254e-04
2.300000e+08	1.717269e+13	0.000000e+00	8.991597e-01	2.742848e+14	3.253470e+14	3.748879e+13	8.929897e+03	2.979966e+03	2.222175e+03	0	6.758482e-04
2.400000e+08	1.704651e+13	0.000000e+00	8.991597e-01	2.729449e+14	3.229991e+14	3.729040e+13	8.921277e+03	2.977362e+03	2.220233e+03	0	6.741888e-04
2.500000e+08	1.692217e+13	0.000000e+00	8.991597e-01	2.716236e+14	3.207754e+14	3.709346e+13	8.912699e+03	2.974911e+03	2.218406e+03	0	6.725456e-04
2.600000e+08	1.679954e+13	0.000000e+00	8.991597e-01	2.703195e+14	3.186602e+14	3.689796e+13	8.904163e+03	2.972594e+03	2.216678e+03	0	6.709170e-04
2.700000e+08	1.667850e+13	0.000000e+00	8.991597e-01	2.690316e+14	3.166401e+14	3.670390e+13	8.895667e+03	2.970395e+03	2.215038e+03	0	6.693018e-04
2.800000e+08	1.655896e+13	0.000000e+00	8.991597e-01	2.677588e+14	3.147034e+14	3.651125e+13	8.887212e+03	2.968297e+03	2.213474e+03	0	6.676989e-04
2.900000e+08	1.644083e+13	0.000000e+00	8.991597e-01	2.665003e+14	3.128403e+14	3.632000e+13	8.878797e+03	2.966289e+03	2.211977e+03	0	6.661073e-04
3.000000e+08	1.632403e+13	0.000000e+00	8.991597e-01	2.652555e+14	3.110421e+14	3.613015e+13	8.870421e+03	2.964360e+03	2.210538e+03	0	6.645263e-04
3.100000e+08	1.620851e+13	0.000000e+00	8.991597e-01	2.640235e+14	3.093015e+14	3.594168e+13	8.862085e+03	2.962500e+03	2.209151e+03	0	6.629549e-04
3.200000e+08	1.609419e+13	0.000000e+00	8.991597e-01	2.628038e+14	3.076122e+14	3.575459e+13	8.853787e+03	2.960700e+03	2.207809e+03	0	6.613927e-04
3.300000e+08	1.598104e+13	0.000000e+00	8.991597e-01	2.615960e+14	3.059687e+14	3.556885e+13	8.845527e+03	2.958955e+03	2.206507e+03	0	6.598390e-04
3.400000e+08	1.586899e+13	0.000000e+00	8.991597e-01	2.603996e+14	3.043663e+14	3.538447e+13	8.837306e+03	2.957256e+03	2.205241e+03	0	6.582934e-04
3.500000e+08	1.575802e+13	0.000000e+00	8.991597e-01	2.592141e+14	3.028007e+14	3.520142e+13	8.829122e+03	2.955600e+03	2.204006e+03	0	6.567553e-04
3.600000e+08	1.564809e+13	0.000000e+00	8.991597e-01	2.580392e+14	3.012686e+14	3.501970e+13	8.820975e+03	2.953982e+03	2.202798e+03	0	6.552245e-04
3.700000e+08	1.553916e+13	0.000000e+00	8.991597e-01	2.568746e+14	2.997666e+14	3.483929e+13	8.812864e+03	2.952396e+03	2.201616e+03	0	6.537005e-04
3.800000e+08	1.543120e+13	0.000000e+00	8.991597e-01	2.557199e+14	2.982923e+14	3.466019e+13	8.804791e+03	2.950840e+03	2.200456e+03	0	6.521831e-04
3.900000e+08	1.532419e+13	0.000000e+00	8.991597e-01	2.545750e+14	2.968431e+14	3.448239e+13	8.796754e+03	2.949311e+03	2.199316e+03	0	6.506720e-04
4.000000e+08	1.521809e+13	0.000000e+00	8.991597e-01	2.534395e+14	2.954171e+14	3.430586e+13	8.788752e+03	2.947806e+03	2.198193e+03	0	6.491670e-04
4.100000e+08	1.511290e+13	0.000000e+00	8.991597e-01	2.523133e+14	2.940125e+14	3.413062e+13	8.780787e+03	2.946323e+03	2.197087e+03	0	6.476678e-04
4.200000e+08	1.500859e+13	0.000000e+00	8.991597e-01	2.511961e+14	2.926276e+14	3.395663e+13	8.772856e+03	2.944859e+03	2.195996e+03	0	6.461742e-04
4.300000e+08	1.490514e+13	0.000000e+00	8.991597e-01	2.500878e+14	2.912612e+14	3.378390e+13	8.764961e+03	2.943412e+03	2.194917e+03	0	6.446862e-04
4.400000e+08	1.480253e+13	0.000000e+00	8.991597e-01	2.489882e+14	2.899119e+14	3.361241e+13	8.757100e+03	2.941982e+03	2.193851e+03	0	6.432034e-04
4.500000e+08	1.470075e+13	0.000000e+00	8.991597e-01	2.478971e+14	2.885788e+14	3.344215e+13	8.749274e+03	2.940567e+03	2.192795e+03	0	6.417258e-04
4.600000e+08	1.459978e+13	0.000000e+00	8.991597e-01	2.468144e+14	2.872609e+14	3.327312e+13	8.741483e+03	2.939165e+03	2.191750e+03	0	6.402533e-04
4.700000e+08	1.449961e+13	0.000000e+00	8.991597e-01	2.457399e+14	2.859574e+14	3.310530e+13	8.733725e+03	2.937776e+03	2.190714e+03	0	6.387857e-04
4.800000e+08	1.440023e+13	0.000000e+00	8.991597e-01	2.446735e+14	2.846675e+14	3.293868e+13	8.726001e+03	2.936398e+03	2.189686e+03	0	6.373229e-04
4.900000e+08	1.430162e+13	0.000000e+00	8.991597e-01	2.436151e+14	2.833907e+14	3.277325e+13	8.718310e+03	2.935031e+03	2.188667e+03	0	6.358648e-04
5.000000e+08	1.420378e+13	0.000000e+00	8.991597e-01	2.425646e+14	2.821262e+14	3.260900e+13	8.710653e+03	2.933674e+03	2.187655e+03	0	6.344114e-04
5.100000e+08	1.410668e+13	0.000000e+00	8.991597e-01	2.415218e+14	2.808736e+14	3.244593e+13	8.703028e+03	2.932326e+03	2.186650e+03	0	6.329625e-04
5.200000e+08	1.401033e+13	0.000000e+00	8.991597e-01	2.404868e+14	2.796325e+14	3.228403e+13	8.695437e+03	2.930987e+03	2.185651e+03	0	6.315181e-04
5.300000e+08	1.391471e+13	0.000000e+00	8.991597e-01	2.394592e+14	2.784024e+14	3.212327e+13	8.687877e+03	2.929656e+03	2.184659e+03	0	6.300781e-04
5.400000e+08	1.381981e+13	0.000000e+00	8.991597e-01	2.384391e+14	2.771830e+14	3.196367e+13	8.680351e+03	2.928333e+03	2.183672e+03	0	6.286424e-04
5.500000e+08	1.372562e+13	0.000000e+00	8.991597e-01	2.374264e+14	2.759739e+14	3.180519e+13	8.672856e+03	2.927017e+03	2.182691e+03	0	6.272110e-04
5.600000e+08	1.363214e+13	0.000000e+00	8.991597e-01	2.364210e+14	2.747748e+14	3.164785e+13	8.665393e+03	2.925709e+03	2.181715e+03	0	6.257838e-04
5.700000e+08	1.353935e+13	0.000000e+00	8.991597e-01	2.354228e+14	2.735855e+14	3.149162e+13	8.657961e+03	2.924407e+03	2.180745e+03	0	6.243608e-04
5.800000e+08	1.344725e+13	0.000000e+00	8.991597e-01	2.344317e+14	2.724057e+14	3.133650e+13	8.650561e+03	2.923112e+03	2.179779e+03	0	6.229418e-04
5.900000e+08	1.335583e+13	0.000000e+00	8.991597e-01	2.334476e+14	2.712352e+14	3.118248e+13	8.643192e+03	2.921823e+03	2.178818e+03	0	6.215269e-04
6.000000e+08	1.326508e+13	0.000000e+00	8.991597e-01	2.324705e+14	2.700738e+14	3.102955e+13	8.635854e+03	2.920541e+03	2.177861e+03	0	6.201160e-04
6.100000e+08	1.317499e+13	0.000000e+00	8.991597e-01	2.315002e+14	2.689213e+14	3.087770e+13	8.628546e+03	2.919264e+03	2.176909e+03	0	6.187090e-04
6.200000e+08	1.308556e+13	0.000000e+00	8.991597e-01	2.305368e+14	2.677774e+14	3.072693e+13	8.621269e+03	2.917992e+03	2.175961e+03	0	6.173060e-04
6.300000e+08	1.299678e+13	0.000000e+00	8.991597e-01	2.295801e+14	2.666421e+14	3.057722e+13	8.614022e+03	2.916727e+03	2.175017e+03	0	6.159067e-04
6.400000e+08	1.290865e+13	0.000000e+00	8.991597e-01	2.286300e+14	2.655153e+14	3.042857e+13	8.606805e+03	2.915466e+03	2.174077e+03	0	6.145114e-04
6.500000e+08	1.282115e+13	0.000000e+00	8.991597e-01	2.276866e+14	2.643966e+14	3.028096e+13	8.599618e+03	2.914211e+03	2.173141e+03	0	6.131197e-04
6.600000e+08	1.273428e+13	0.000000e+00	8.991597e-01	2.267496e+14	2.632861e+14	3.013439e+13	8.592461e+03	2.912961e+03	2.172209e+03	0	6.117319e-04
6.700000e+08	1.264803e+13	0.000000e+00	8.991597e-01	2.258192e+14	2.621836e+14	2.998885e+13	8.585333e+03	2.911716e+03	2.171281e+03	0	6.103477e-04
6.800000e+08	1.256240e+13	0.000000e+00	8.991597e-01	2.248951e+14	2.610890e+14	2.984433e+13	8.578234e+03	2.910476e+03	2.170356e+03	0	6.089671e-04
6.900000e+08	1.247738e+13	0.000000e+00	8.991597e-01	2.239773e+14	2.600021e+14	2.970083e+13	8.571165e+03	2.909241e+03	2.169435e+03	0	6.075902e-04
7.000000e+08	1.239296e+13	0.000000e+00	8.991597e-01	2.230659e+14	2.589230e+14	2.955834e+13	8.564124e+03	2.908010e+03	2.168518e+03	0	6.062169e-04
7.100000e+08	1.230914e+13	0.000000e+00	8.991597e-01	2.221606e+14	2.578514e+14	2.941684e+13	8.557111e+03	2.906785e+03	2.167604e+03	0	6.048471e-04
7.200000e+08	1.222592e+13	0.000000e+00	8.991597e-01	2.212615e+14	2.567872e+14	2.927633e+13	8.550127e+03	2.905564e+03	2.166693e+03	0	6.034809e-04
7.300000e+08	1.214328e+13	0.000000e+00	8.991597e-01	2.203684e+14	2.557305e+14	2.913680e+13	8.543172e+03	2.904347e+03	2.165786e+03	0	6.021181e-04
7.400000e+08	1.206122e+13	0.000000e+00	8.991597e-01	2.194814e+14	2.546810e+14	2.899825e+13	8.536244e+03	2.903135e+03	2.164882e+03	0	6.007588e-04
7.500000e+08	1.197974e+13	0.000000e+00	8.991597e-01	2.186004e+14	2.536388e+14	2.886066e+13	8.529344e+03	2.901927e+03	2.163981e+03	0	5.994028e-04
7.600000e+08	1.189882e+13	0.000000e+00	8.991597e-01	2.177253e+14	2.526037e+14	2.872403e+13	8.522472e+03	2.900724e+03	2.163084e+03	0	5.980503e-04
7.700000e+08	1.181848e+13	0.000000e+00	8.991597e-01	2.168560e+14	2.515756e+14	2.858835e+13	8.515628e+03	2.899525e+03	2.162190e+03	0	5.967011e-04
7.800000e+08	1.173868e+13	0.000000e+00	8.991597e-01	2.159926e+14	2.505545e+14	2.845362e+13	8.508810e+03	2.898331e+03	2.161300e+03	0	5.953552e-04
7.900000e+08	1.165945e+13	0.000000e+00	8.991597e-01	2.151349e+14	2.495403e+14	2.831982e+13	8.502020e+03	2.897141e+03	2.160412e+03	0	5.940126e-04
8.000000e+08	1.158076e+13	0.000000e+00	8.991597e-01	2.142829e+14	2.485330e+14	2.818695e+13	8.495257e+03	2.895955e+03	2.159528e+03	0	5.926733e-04
8.100000e+08	1.150261e+13	0.000000e+00	8.991597e-01	2.134365e+14	2.475324e+14	2.805499e+13	8.488520e+03	2.894773e+03	2.158646e+03	0	5.913372e-04
8.200000e+08	1.142500e+13	0.000000e+00	8.991597e-01	2.125957e+14	2.465385e+14	2.792396e+13	8.481810e+03	2.893595e+03	2.157768e+03	0	5.900042e-04
8.300000e+08	1.134793e+13	0.000000e+00	8.991597e-01	2.117605e+14	2.455512e+14	2.779383e+13	8.475127e+03	2.892422e+03	2.156893e+03	0	5.886745e-04
8.400000e+08	1.127138e+13	0.000000e+00	8.991597e-01	2.109307e+14	2.445705e+14	2.766459e+13	8.468470e+03	2.891252e+03	2.156021e+03	0	5.873478e-04
8.500000e+08	1.119535e+13	0.000000e+00	8.991597e-01	2.101064e+14	2.435962e+14	2.753625e+13	8.461838e+03	2.890087e+03	2.155152e+03	0	5.860243e-04
8.600000e+08	1.111985e+13	0.000000e+00	8.991597e-01	2.092875e+14	2.426285e+14	2.740879e+13	8.455233e+03	2.888926e+03	2.154286e+03	0	5.847038e-04
8.700000e+08	1.104485e+13	0.000000e+00	8.991597e-01	2.084739e+14	2.416670e+14	2.728222e+13	8.448653e+03	2.887768e+03	2.153423e+03	0	5.833864e-04
8.800000e+08	1.097037e+13	0.000000e+00	8.991597e-01	2.076656e+14	2.407119e+14	2.715651e+13	8.442099e+03	2.886615e+03	2.152563e+03	0	5.820720e-04
8.900000e+08	1.089638e+13	0.000000e+00	8.991597e-01	2.068625e+14	2.397631e+14	2.703166e+13	8.435570e+03	2.885465e+03	2.151706e+03	0	5.807606e-04
9.000000e+08	1.082290e+13	0.000000e+00	8.991597e-01	2.060646e+14	2.388204e+14	2.690767e+13	8.429067e+03	2.884320e+03	2.150851e+03	0	5.794521e-04
9.100000e+08	1.074991e+13	0.000000e+00	8.991597e-01	2.052719e+14	2.378839e+14	2.678454e+13	8.422588e+03	2.883178e+03	2.150000e+03	0	5.781466e-04
9.200000e+08	1.067741e+13	0.000000e+00	8.991597e-01	2.044843e+14	2.369535e+14	2.666224e+13	8.416135e+03	2.882040e+03	2.149152e+03	0	5.768440e-04
9.300000e+08	1.060540e+13	0.000000e+00	8.991597e-01	2.037017e+14	2.360290e+14	2.654078e+13	8.409706e+03	2.880906e+03	2.148306e+03	0	5.755442e-04
9.400000e+08	1.053387e+13	0.000000e+00	8.991597e-01	2.029242e+14	2.351106e+14	2.642016e+13	8.403301e+03	2.879776e+03	2.147463e+03	0	5.742473e-04
9.500000e+08	1.046281e+13	0.000000e+00	8.991597e-01	2.021516e+14	2.341981e+14	2.630035e+13	8.396921e+03	2.878650e+03	2.146623e+03	0	5.729532e-04
9.600000e+08	1.039223e+13	0.000000e+00	8.991597e-01	2.013839e+14	2.332914e+14	2.618136e+13	8.390566e+03	2.877527e+03	2.145786e+03	0	5.716619e-04
9.700000e+08	1.032212e+13	0.000000e+00	8.991597e-01	2.006212e+14	2.323906e+14	2.606319e+13	8.384234e+03	2.876409e+03	2.144952e+03	0	5.703734e-04
9.800000e+08	1.025247e+13	0.000000e+00	8.991597e-01	1.998632e+14	2.314955e+14	2.594581e+13	8.377927e+03	2.875294e+03	2.144120e+03	0	5.690876e-04
9.900000e+08	1.018328e+13	0.000000e+00	8.991597e-01	1.991101e+14	2.306061e+14	2.582924e+13	8.371643e+03	2.874182e+03	2.143292e+03	0	5.678045e-04
1.000000e+09	1.011454e+13	0.000000e+00	8.991597e-01	1.983616e+14	2.297224e+14	2.571345e+13	8.365383e+03	2.873075e+03	2.142466e+03	0	5.665241e-04
1.010000e+09	1.004626e+13	0.000000e+00	8.991597e-01	1.976180e+14	2.288443e+14	2.559845e+13	8.359146e+03	2.871970e+03	2.141642e+03	0	5.652464e-04
1.020000e+09	9.978423e+12	0.000000e+00	8.991597e-01	1.968789e+14	2.279718e+14	2.548423e+13	8.352933e+03	2.870870e+03	2.140822e+03	0	5.639713e-04
1.030000e+09	9.911031e+12	0.000000e+00	8.991597e-01	1.961445e+14	2.271048e+14	2.537079e+13	8.346743e+03	2.869773e+03	2.140004e+03	0	5.626988e-04
1.040000e+09	9.844080e+12	0.000000e+00	8.991597e-01	1.954147e+14	2.262432e+14	2.525811e+13	8.340576e+03	2.868680e+03	2.139189e+03	0	5.614288e-04
1.050000e+09	9.777564e+12	0.000000e+00	8.991597e-01	1.946895e+14	2.253871e+14	2.514619e+13	8.334432e+03	2.867591e+03	2.138376e+03	0	5.601615e-04
1.060000e+09	9.711480e+12	0.000000e+00	8.991597e-01	1.939687e+14	2.245363e+14	2.503502e+13	8.328311e+03	2.866504e+03	2.137566e+03	0	5.588966e-04
1.070000e+09	9.645825e+12	0.000000e+00	8.991597e-01	1.932524e+14	2.236909e+14	2.492461e+13	8.322212e+03	2.865422e+03	2.136759e+03	0	5.576343e-04
1.080000e+09	9.580594e+12	0.000000e+00	8.991597e-01	1.925406e+14	2.228508e+14	2.481493e+13	8.316136e+03	2.864343e+03	2.135955e+03	0	5.563744e-04
1.090000e+09	9.515784e+12	0.000000e+00	8.991597e-01	1.918331e+14	2.220158e+14	2.470600e+13	8.310082e+03	2.863268e+03	2.135153e+03	0	5.551170e-04
1.100000e+09	9.451392e+12	0.000000e+00	8.991597e-01	1.911300e+14	2.211861e+14	2.459780e+13	8.304050e+03	2.862196e+03	2.134353e+03	0	5.538620e-04
1.110000e+09	9.387412e+12	0.000000e+00	8.991597e-01	1.904312e+14	2.203615e+14	2.449032e+13	8.298041e+03	2.861127e+03	2.133556e+03	0	5.526095e-04
1.120000e+09	9.323843e+12	0.000000e+00	8.991597e-01	1.897367e+14	2.195421e+14	2.438356e+13	8.292053e+03	2.860062e+03	2.132762e+03	0	5.513593e-04
1.130000e+09	9.260680e+12	0.000000e+00	8.991597e-01	1.890464e+14	2.187277e+14	2.427752e+13	8.286087e+03	2.859000e+03	2.131970e+03	0	5.501114e-04
1.140000e+09	9.197920e+12	0.000000e+00	8.991597e-01	1.883604e+14	2.179183e+14	2.417218e+13	8.280143e+03	2.857942e+03	2.131181e+03	0	5.488659e-04
1.150000e+09	9.135560e+12	0.000000e+00	8.991597e-01	1.876785e+14	2.171139e+14	2.406755e+13	8.274221e+03	2.856887e+03	2.130395e+03	0	5.476227e-04
1.160000e+09	9.073596e+12	0.000000e+00	8.991597e-01	1.870008e+14	2.163144e+14	2.396362e+13	8.268320e+03	2.855836e+03	2.129611e+03	0	5.463817e-04
1.170000e+09	9.012024e+12	0.000000e+00	8.991597e-01	1.863271e+14	2.155198e+14	2.386037e+13	8.262440e+03	2.854787e+03	2.128829e+03	0	5.451430e-04
1.180000e+09	8.950841e+12	0.000000e+00	8.991597e-01	1.856575e+14	2.147301e+14	2.375782e+13	8.256581e+03	2.853743e+03	2.128050e+03	0	5.439066e-04
1.190000e+09	8.890044e+12	0.000000e+00	8.991597e-01	1.849920e+14	2.139452e+14	2.365595e+13	8.250744e+03	2.852701e+03	2.127273e+03	0	5.426723e-04
1.200000e+09	8.829630e+12	0.000000e+00	8.991597e-01	1.843305e+14	2.131650e+14	2.355475e+13	8.244927e+03	2.851663e+03	2.126499e+03	0	5.414402e-04
1.210000e+09	8.769596e+12	0.000000e+00	8.991597e-01	1.836729e+14	2.123896e+14	2.345423e+13	8.239131e+03	2.850628e+03	2.125727e+03	0	5.402103e-04
1.220000e+09	8.709937e+12	0.000000e+00	8.991597e-01	1.830193e+14	2.116189e+14	2.335437e+13	8.233356e+03	2.849596e+03	2.124958e+03	0	5.389825e-04
1.230000e+09	8.650652e+12	0.000000e+00	8.991597e-01	1.823695e+14	2.108528e+14	2.325517e+13	8.227601e+03	2.848568e+03	2.124191e+03	0	5.377569e-04
1.240000e+09	8.591736e+12	0.000000e+00	8.991597e-01	1.817237e+14	2.100914e+14	2.315663e+13	8.221866e+03	2.847543e+03	2.123427e+03	0	5.365333e-04
1.250000e+09	8.533187e+12	0.000000e+00	8.991597e-01	1.810817e+14	2.093345e+14	2.305873e+13	8.216152e+03	2.846521e+03	2.122664e+03	0	5.353117e-04
1.260000e+09	8.475002e+12	0.000000e+00	8.991597e-01	1.804434e+14	2.085822e+14	2.296149e+13	8.210458e+03	2.845502e+03	2.121905e+03	0	5.340923e-04
1.270000e+09	8.417177e+12	0.000000e+00	8.991597e-01	1.798090e+14	2.078344e+14	2.286488e+13	8.204784e+03	2.844486e+03	2.121147e+03	0	5.328748e-04
1.280000e+09	8.359710e+12	0.000000e+00	8.991597e-01	1.791783e+14	2.070910e+14	2.276891e+13	8.199130e+03	2.843474e+03	2.120393e+03	0	5.316593e-04
1.290000e+09	8.302598e+12	0.000000e+00	8.991597e-01	1.785513e+14	2.063521e+14	2.267357e+13	8.193496e+03	2.842465e+03	2.119640e+03	0	5.304458e-04
1.300000e+09	8.245837e+12	0.000000e+00	8.991597e-01	1.779280e+14	2.056176e+14	2.257886e+13	8.187882e+03	2.841459e+03	2.118890e+03	0	5.292342e-04
1.310000e+09	8.189425e+12	0.000000e+00	8.991597e-01	1.773084e+14	2.048875e+14	2.248476e+13	8.182287e+03	2.840456e+03	2.118142e+03	0	5.280246e-04
1.320000e+09	8.133359e+12	0.000000e+00	8.991597e-01	1.766923e+14	2.041616e+14	2.239129e+13	8.176712e+03	2.839456e+03	2.117396e+03	0	5.268169e-04
1.330000e+09	8.077636e+12	0.000000e+00	8.991597e-01	1.760799e+14	2.034401e+14	2.229842e+13	8.171155e+03	2.838459e+03	2.116653e+03	0	5.256110e-04
1.340000e+09	8.022253e+12	0.000000e+00	8.991597e-01	1.754710e+14	2.027228e+14	2.220616e+13	8.165619e+03	2.837465e+03	2.115912e+03	0	5.244070e-04
1.350000e+09	7.967207e+12	0.000000e+00	8.991597e-01	1.748657e+14	2.020098e+14	2.211450e+13	8.160101e+03	2.836475e+03	2.115173e+03	0	5.232048e-04
1.360000e+09	7.912496e+12	0.000000e+00	8.991597e-01	1.742639e+14	2.013009e+14	2.202344e+13	8.154602e+03	2.835487e+03	2.114436e+03	0	5.220044e-04
