#t		Qconv[W]	Ri[Rp]		R*[Rp]		Qc[W]		Qm[W]		Qr[W]		Tcmb[K]		Tl[K]		Tup[K]		RiFlag		Bs[T]
0.000000e+00	2.227425e+14	0.000000e+00	9.059831e-01	2.382972e+15	1.065524e+15	5.994550e+13	1.666062e+04	4.068219e+03	2.648744e+03	0	1.561652e-03
1.000000e+07	2.240792e+14	0.000000e+00	9.059831e-01	2.392624e+15	1.401011e+15	5.961336e+13	1.662181e+04	4.254173e+03	2.769816e+03	0	1.564770e-03
2.000000e+07	2.242654e+14	0.000000e+00	9.059831e-01	2.392844e+15	1.691881e+15	5.928370e+13	1.658285e+04	4.392858e+03	2.860111e+03	0	1.565203e-03
3.000000e+07	2.236063e+14	0.000000e+00	9.059831e-01	2.386139e+15	1.919605e+15	5.895651e+13	1.654389e+04	4.491391e+03	2.924264e+03	0	1.563668e-03
4.000000e+07	2.223633e+14	0.000000e+00	9.059831e-01	2.374653e+15	2.084062e+15	5.863176e+13	1.650503e+04	4.558635e+03	2.968046e+03	0	1.560765e-03
5.000000e+07	2.207342e+14	0.000000e+00	9.059831e-01	2.360011e+15	2.195054e+15	5.830943e+13	1.646636e+04	4.602939e+03	2.996891e+03	0	1.556944e-03
6.000000e+07	2.188591e+14	0.000000e+00	9.059831e-01	2.343362e+15	2.265155e+15	5.798950e+13	1.642793e+04	4.631105e+03	3.015229e+03	0	1.552523e-03
7.000000e+07	2.168332e+14	0.000000e+00	9.059831e-01	2.325487e+15	2.305860e+15	5.767195e+13	1.638977e+04	4.648225e+03	3.026376e+03	0	1.547718e-03
8.000000e+07	2.147198e+14	0.000000e+00	9.059831e-01	2.306904e+15	2.326250e+15	5.735677e+13	1.635190e+04	4.657920e+03	3.032688e+03	0	1.542673e-03
9.000000e+07	2.125602e+14	0.000000e+00	9.059831e-01	2.287953e+15	2.332955e+15	5.704393e+13	1.631433e+04	4.662676e+03	3.035785e+03	0	1.537484e-03
1.000000e+08	2.103813e+14	0.000000e+00	9.059831e-01	2.268854e+15	2.330604e+15	5.673342e+13	1.627707e+04	4.664174e+03	3.036760e+03	0	1.532212e-03
1.100000e+08	2.082005e+14	0.000000e+00	9.059831e-01	2.249750e+15	2.322341e+15	5.642520e+13	1.624012e+04	4.663530e+03	3.036341e+03	0	1.526899e-03
1.200000e+08	2.060289e+14	0.000000e+00	9.059831e-01	2.230731e+15	2.310267e+15	5.611928e+13	1.620348e+04	4.661485e+03	3.035009e+03	0	1.521572e-03
1.300000e+08	2.038735e+14	0.000000e+00	9.059831e-01	2.211857e+15	2.295771e+15	5.581561e+13	1.616715e+04	4.658526e+03	3.033083e+03	0	1.516248e-03
1.400000e+08	2.017390e+14	0.000000e+00	9.059831e-01	2.193162e+15	2.279769e+15	5.551420e+13	1.613112e+04	4.654975e+03	3.030771e+03	0	1.510937e-03
1.500000e+08	1.996278e+14	0.000000e+00	9.059831e-01	2.174670e+15	2.262859e+15	5.521501e+13	1.609540e+04	4.651043e+03	3.028210e+03	0	1.505648e-03
1.600000e+08	1.975417e+14	0.000000e+00	9.059831e-01	2.156393e+15	2.245435e+15	5.491804e+13	1.605998e+04	4.646868e+03	3.025493e+03	0	1.500385e-03
1.700000e+08	1.954816e+14	0.000000e+00	9.059831e-01	2.138339e+15	2.227754e+15	5.462325e+13	1.602486e+04	4.642544e+03	3.022677e+03	0	1.495151e-03
1.800000e+08	1.934478e+14	0.000000e+00	9.059831e-01	2.120510e+15	2.209982e+15	5.433064e+13	1.599003e+04	4.638131e+03	3.019804e+03	0	1.489948e-03
1.900000e+08	1.914405e+14	0.000000e+00	9.059831e-01	2.102908e+15	2.192229e+15	5.404018e+13	1.595549e+04	4.633668e+03	3.016898e+03	0	1.484777e-03
2.000000e+08	1.894596e+14	0.000000e+00	9.059831e-01	2.085532e+15	2.174565e+15	5.375186e+13	1.592123e+04	4.629182e+03	3.013977e+03	0	1.479638e-03
2.100000e+08	1.875048e+14	0.000000e+00	9.059831e-01	2.068379e+15	2.157037e+15	5.346566e+13	1.588726e+04	4.624691e+03	3.011053e+03	0	1.474531e-03
2.200000e+08	1.855758e+14	0.000000e+00	9.059831e-01	2.051447e+15	2.139672e+15	5.318156e+13	1.585357e+04	4.620206e+03	3.008133e+03	0	1.469457e-03
2.300000e+08	1.836724e+14	0.000000e+00	9.059831e-01	2.034734e+15	2.122488e+15	5.289955e+13	1.582015e+04	4.615735e+03	3.005222e+03	0	1.464416e-03
2.400000e+08	1.817941e+14	0.000000e+00	9.059831e-01	2.018236e+15	2.105497e+15	5.261961e+13	1.578700e+04	4.611283e+03	3.002323e+03	0	1.459407e-03
2.500000e+08	1.799406e+14	0.000000e+00	9.059831e-01	2.001949e+15	2.088704e+15	5.234171e+13	1.575412e+04	4.606853e+03	2.999439e+03	0	1.454430e-03
2.600000e+08	1.781114e+14	0.000000e+00	9.059831e-01	1.985871e+15	2.072111e+15	5.206585e+13	1.572151e+04	4.602447e+03	2.996571e+03	0	1.449485e-03
2.700000e+08	1.763062e+14	0.000000e+00	9.059831e-01	1.969998e+15	2.055721e+15	5.179201e+13	1.568916e+04	4.598067e+03	2.993719e+03	0	1.444571e-03
2.800000e+08	1.745245e+14	0.000000e+00	9.059831e-01	1.954326e+15	2.039531e+15	5.152016e+13	1.565706e+04	4.593714e+03	2.990885e+03	0	1.439689e-03
2.900000e+08	1.727660e+14	0.000000e+00	9.059831e-01	1.938853e+15	2.023541e+15	5.125030e+13	1.562522e+04	4.589387e+03	2.988068e+03	0	1.434837e-03
3.000000e+08	1.710302e+14	0.000000e+00	9.059831e-01	1.923574e+15	2.007748e+15	5.098241e+13	1.559363e+04	4.585088e+03	2.985268e+03	0	1.430016e-03
3.100000e+08	1.693168e+14	0.000000e+00	9.059831e-01	1.908487e+15	1.992150e+15	5.071647e+13	1.556229e+04	4.580815e+03	2.982487e+03	0	1.425224e-03
3.200000e+08	1.676253e+14	0.000000e+00	9.059831e-01	1.893588e+15	1.976744e+15	5.045246e+13	1.553120e+04	4.576570e+03	2.979723e+03	0	1.420462e-03
3.300000e+08	1.659555e+14	0.000000e+00	9.059831e-01	1.878875e+15	1.961527e+15	5.019038e+13	1.550035e+04	4.572351e+03	2.976976e+03	0	1.415730e-03
3.400000e+08	1.643070e+14	0.000000e+00	9.059831e-01	1.864343e+15	1.946497e+15	4.993019e+13	1.546973e+04	4.568160e+03	2.974247e+03	0	1.411026e-03
3.500000e+08	1.626793e+14	0.000000e+00	9.059831e-01	1.849991e+15	1.931651e+15	4.967190e+13	1.543936e+04	4.563994e+03	2.971535e+03	0	1.406352e-03
3.600000e+08	1.610722e+14	0.000000e+00	9.059831e-01	1.835815e+15	1.916985e+15	4.941547e+13	1.540921e+04	4.559855e+03	2.968840e+03	0	1.401705e-03
3.700000e+08	1.594852e+14	0.000000e+00	9.059831e-01	1.821812e+15	1.902497e+15	4.916091e+13	1.537930e+04	4.555742e+03	2.966162e+03	0	1.397087e-03
3.800000e+08	1.579182e+14	0.000000e+00	9.059831e-01	1.807979e+15	1.888183e+15	4.890818e+13	1.534961e+04	4.551655e+03	2.963501e+03	0	1.392496e-03
3.900000e+08	1.563707e+14	0.000000e+00	9.059831e-01	1.794314e+15	1.874042e+15	4.865729e+13	1.532015e+04	4.547594e+03	2.960857e+03	0	1.387932e-03
4.000000e+08	1.548423e+14	0.000000e+00	9.059831e-01	1.780814e+15	1.860070e+15	4.840820e+13	1.529091e+04	4.543557e+03	2.958229e+03	0	1.383396e-03
4.100000e+08	1.533329e+14	0.000000e+00	9.059831e-01	1.767475e+15	1.846265e+15	4.816091e+13	1.526189e+04	4.539546e+03	2.955617e+03	0	1.378886e-03
4.200000e+08	1.518420e+14	0.000000e+00	9.059831e-01	1.754297e+15	1.832624e+15	4.791541e+13	1.523309e+04	4.535559e+03	2.953021e+03	0	1.374402e-03
4.300000e+08	1.503695e+14	0.000000e+00	9.059831e-01	1.741275e+15	1.819143e+15	4.767167e+13	1.520450e+04	4.531597e+03	2.950442e+03	0	1.369945e-03
4.400000e+08	1.489149e+14	0.000000e+00	9.059831e-01	1.728407e+15	1.805822e+15	4.742968e+13	1.517613e+04	4.527660e+03	2.947878e+03	0	1.365513e-03
4.500000e+08	1.474780e+14	0.000000e+00	9.059831e-01	1.715692e+15	1.792657e+15	4.718944e+13	1.514796e+04	4.523746e+03	2.945330e+03	0	1.361107e-03
4.600000e+08	1.460585e+14	0.000000e+00	9.059831e-01	1.703126e+15	1.779645e+15	4.695092e+13	1.512000e+04	4.519856e+03	2.942797e+03	0	1.356726e-03
4.700000e+08	1.446561e+14	0.000000e+00	9.059831e-01	1.690707e+15	1.766785e+15	4.671411e+13	1.509224e+04	4.515989e+03	2.940280e+03	0	1.352370e-03
4.800000e+08	1.432705e+14	0.000000e+00	9.059831e-01	1.678433e+15	1.754073e+15	4.647899e+13	1.506469e+04	4.512146e+03	2.937777e+03	0	1.348038e-03
4.900000e+08	1.419016e+14	0.000000e+00	9.059831e-01	1.666301e+15	1.741508e+15	4.624556e+13	1.503733e+04	4.508326e+03	2.935290e+03	0	1.343731e-03
5.000000e+08	1.405489e+14	0.000000e+00	9.059831e-01	1.654310e+15	1.729088e+15	4.601380e+13	1.501018e+04	4.504529e+03	2.932818e+03	0	1.339447e-03
5.100000e+08	1.392123e+14	0.000000e+00	9.059831e-01	1.642457e+15	1.716809e+15	4.578370e+13	1.498322e+04	4.500754e+03	2.930360e+03	0	1.335188e-03
5.200000e+08	1.378916e+14	0.000000e+00	9.059831e-01	1.630739e+15	1.704670e+15	4.555523e+13	1.495645e+04	4.497002e+03	2.927917e+03	0	1.330952e-03
5.300000e+08	1.365863e+14	0.000000e+00	9.059831e-01	1.619156e+15	1.692669e+15	4.532840e+13	1.492987e+04	4.493271e+03	2.925488e+03	0	1.326739e-03
5.400000e+08	1.352964e+14	0.000000e+00	9.059831e-01	1.607704e+15	1.680804e+15	4.510318e+13	1.490348e+04	4.489563e+03	2.923074e+03	0	1.322550e-03
5.500000e+08	1.340216e+14	0.000000e+00	9.059831e-01	1.596382e+15	1.669071e+15	4.487956e+13	1.487727e+04	4.485876e+03	2.920674e+03	0	1.318382e-03
5.600000e+08	1.327616e+14	0.000000e+00	9.059831e-01	1.585188e+15	1.657471e+15	4.465754e+13	1.485125e+04	4.482211e+03	2.918287e+03	0	1.314238e-03
5.700000e+08	1.315162e+14	0.000000e+00	9.059831e-01	1.574119e+15	1.645999e+15	4.443709e+13	1.482541e+04	4.478568e+03	2.915915e+03	0	1.310115e-03
5.800000e+08	1.302851e+14	0.000000e+00	9.059831e-01	1.563175e+15	1.634656e+15	4.421820e+13	1.479976e+04	4.474945e+03	2.913556e+03	0	1.306015e-03
5.900000e+08	1.290683e+14	0.000000e+00	9.059831e-01	1.552352e+15	1.623437e+15	4.400087e+13	1.477428e+04	4.471343e+03	2.911211e+03	0	1.301936e-03
6.000000e+08	1.278654e+14	0.000000e+00	9.059831e-01	1.541649e+15	1.612343e+15	4.378507e+13	1.474897e+04	4.467762e+03	2.908879e+03	0	1.297879e-03
6.100000e+08	1.266762e+14	0.000000e+00	9.059831e-01	1.531065e+15	1.601370e+15	4.357081e+13	1.472384e+04	4.464201e+03	2.906561e+03	0	1.293843e-03
6.200000e+08	1.255006e+14	0.000000e+00	9.059831e-01	1.520598e+15	1.590517e+15	4.335805e+13	1.469889e+04	4.460660e+03	2.904256e+03	0	1.289828e-03
6.300000e+08	1.243382e+14	0.000000e+00	9.059831e-01	1.510245e+15	1.579783e+15	4.314680e+13	1.467410e+04	4.457140e+03	2.901964e+03	0	1.285833e-03
6.400000e+08	1.231890e+14	0.000000e+00	9.059831e-01	1.500005e+15	1.569164e+15	4.293703e+13	1.464948e+04	4.453639e+03	2.899684e+03	0	1.281860e-03
6.500000e+08	1.220527e+14	0.000000e+00	9.059831e-01	1.489877e+15	1.558661e+15	4.272875e+13	1.462503e+04	4.450158e+03	2.897418e+03	0	1.277906e-03
6.600000e+08	1.209292e+14	0.000000e+00	9.059831e-01	1.479858e+15	1.548271e+15	4.252193e+13	1.460074e+04	4.446697e+03	2.895164e+03	0	1.273973e-03
6.700000e+08	1.198181e+14	0.000000e+00	9.059831e-01	1.469948e+15	1.537992e+15	4.231656e+13	1.457661e+04	4.443255e+03	2.892923e+03	0	1.270059e-03
6.800000e+08	1.187195e+14	0.000000e+00	9.059831e-01	1.460144e+15	1.527823e+15	4.211264e+13	1.455265e+04	4.439832e+03	2.890695e+03	0	1.266166e-03
6.900000e+08	1.176330e+14	0.000000e+00	9.059831e-01	1.450446e+15	1.517762e+15	4.191015e+13	1.452885e+04	4.436428e+03	2.888478e+03	0	1.262291e-03
7.000000e+08	1.165584e+14	0.000000e+00	9.059831e-01	1.440851e+15	1.507808e+15	4.170908e+13	1.450520e+04	4.433043e+03	2.886274e+03	0	1.258436e-03
7.100000e+08	1.154958e+14	0.000000e+00	9.059831e-01	1.431358e+15	1.497959e+15	4.150941e+13	1.448171e+04	4.429676e+03	2.884082e+03	0	1.254600e-03
7.200000e+08	1.144447e+14	0.000000e+00	9.059831e-01	1.421965e+15	1.488213e+15	4.131114e+13	1.445838e+04	4.426328e+03	2.881902e+03	0	1.250782e-03
7.300000e+08	1.134051e+14	0.000000e+00	9.059831e-01	1.412672e+15	1.478570e+15	4.111426e+13	1.443519e+04	4.422998e+03	2.879734e+03	0	1.246984e-03
7.400000e+08	1.123768e+14	0.000000e+00	9.059831e-01	1.403476e+15	1.469027e+15	4.091875e+13	1.441216e+04	4.419686e+03	2.877578e+03	0	1.243203e-03
7.500000e+08	1.113597e+14	0.000000e+00	9.059831e-01	1.394377e+15	1.459584e+15	4.072460e+13	1.438928e+04	4.416392e+03	2.875434e+03	0	1.239441e-03
7.600000e+08	1.103536e+14	0.000000e+00	9.059831e-01	1.385372e+15	1.450238e+15	4.053181e+13	1.436655e+04	4.413116e+03	2.873300e+03	0	1.235697e-03
7.700000e+08	1.093582e+14	0.000000e+00	9.059831e-01	1.376461e+15	1.440989e+15	4.034035e+13	1.434396e+04	4.409857e+03	2.871179e+03	0	1.231971e-03
7.800000e+08	1.083736e+14	0.000000e+00	9.059831e-01	1.367642e+15	1.431834e+15	4.015023e+13	1.432152e+04	4.406616e+03	2.869069e+03	0	1.228262e-03
7.900000e+08	1.073994e+14	0.000000e+00	9.059831e-01	1.358915e+15	1.422774e+15	3.996143e+13	1.429922e+04	4.403392e+03	2.866970e+03	0	1.224571e-03
8.000000e+08	1.064356e+14	0.000000e+00	9.059831e-01	1.350277e+15	1.413806e+15	3.977394e+13	1.427706e+04	4.400185e+03	2.864882e+03	0	1.220897e-03
8.100000e+08	1.054821e+14	0.000000e+00	9.059831e-01	1.341727e+15	1.404930e+15	3.958775e+13	1.425504e+04	4.396996e+03	2.862805e+03	0	1.217240e-03
8.200000e+08	1.045386e+14	0.000000e+00	9.059831e-01	1.333265e+15	1.396143e+15	3.940284e+13	1.423317e+04	4.393823e+03	2.860739e+03	0	1.213600e-03
8.300000e+08	1.036051e+14	0.000000e+00	9.059831e-01	1.324888e+15	1.387445e+15	3.921922e+13	1.421143e+04	4.390666e+03	2.858684e+03	0	1.209976e-03
8.400000e+08	1.026813e+14	0.000000e+00	9.059831e-01	1.316597e+15	1.378834e+15	3.903686e+13	1.418983e+04	4.387527e+03	2.856640e+03	0	1.206369e-03
8.500000e+08	1.017672e+14	0.000000e+00	9.059831e-01	1.308389e+15	1.370310e+15	3.885576e+13	1.416836e+04	4.384403e+03	2.854606e+03	0	1.202779e-03
8.600000e+08	1.008626e+14	0.000000e+00	9.059831e-01	1.300263e+15	1.361870e+15	3.867591e+13	1.414702e+04	4.381296e+03	2.852583e+03	0	1.199205e-03
8.700000e+08	9.996746e+13	0.000000e+00	9.059831e-01	1.292219e+15	1.353515e+15	3.849730e+13	1.412582e+04	4.378205e+03	2.850571e+03	0	1.195646e-03
8.800000e+08	9.908155e+13	0.000000e+00	9.059831e-01	1.284256e+15	1.345242e+15	3.831991e+13	1.410475e+04	4.375130e+03	2.848569e+03	0	1.192104e-03
8.900000e+08	9.820476e+13	0.000000e+00	9.059831e-01	1.276371e+15	1.337052e+15	3.814375e+13	1.408381e+04	4.372071e+03	2.846577e+03	0	1.188577e-03
9.000000e+08	9.733699e+13	0.000000e+00	9.059831e-01	1.268564e+15	1.328941e+15	3.796879e+13	1.406299e+04	4.369027e+03	2.844595e+03	0	1.185066e-03
9.100000e+08	9.647810e+13	0.000000e+00	9.059831e-01	1.260835e+15	1.320910e+15	3.779503e+13	1.404231e+04	4.365999e+03	2.842623e+03	0	1.181570e-03
9.200000e+08	9.562798e+13	0.000000e+00	9.059831e-01	1.253182e+15	1.312958e+15	3.762246e+13	1.402175e+04	4.362986e+03	2.840662e+03	0	1.178089e-03
9.300000e+08	9.478650e+13	0.000000e+00	9.059831e-01	1.245603e+15	1.305083e+15	3.745108e+13	1.400131e+04	4.359989e+03	2.838710e+03	0	1.174623e-03
9.400000e+08	9.395355e+13	0.000000e+00	9.059831e-01	1.238099e+15	1.297285e+15	3.728086e+13	1.398100e+04	4.357006e+03	2.836769e+03	0	1.171173e-03
9.500000e+08	9.312901e+13	0.000000e+00	9.059831e-01	1.230667e+15	1.289562e+15	3.711181e+13	1.396081e+04	4.354039e+03	2.834837e+03	0	1.167736e-03
9.600000e+08	9.231278e+13	0.000000e+00	9.059831e-01	1.223308e+15	1.281913e+15	3.694391e+13	1.394074e+04	4.351087e+03	2.832914e+03	0	1.164315e-03
9.700000e+08	9.150473e+13	0.000000e+00	9.059831e-01	1.216020e+15	1.274337e+15	3.677715e+13	1.392079e+04	4.348149e+03	2.831002e+03	0	1.160908e-03
9.800000e+08	9.070476e+13	0.000000e+00	9.059831e-01	1.208801e+15	1.266834e+15	3.661153e+13	1.390096e+04	4.345226e+03	2.829099e+03	0	1.157515e-03
9.900000e+08	8.991276e+13	0.000000e+00	9.059831e-01	1.201653e+15	1.259403e+15	3.644703e+13	1.388125e+04	4.342317e+03	2.827205e+03	0	1.154136e-03
1.000000e+09	8.912864e+13	0.000000e+00	9.059831e-01	1.194572e+15	1.252042e+15	3.628365e+13	1.386165e+04	4.339423e+03	2.825320e+03	0	1.150771e-03
1.010000e+09	8.835227e+13	0.000000e+00	9.059831e-01	1.187559e+15	1.244751e+15	3.612138e+13	1.384217e+04	4.336543e+03	2.823445e+03	0	1.147420e-03
1.020000e+09	8.758356e+13	0.000000e+00	9.059831e-01	1.180613e+15	1.237528e+15	3.596020e+13	1.382280e+04	4.333677e+03	2.821580e+03	0	1.144083e-03
1.030000e+09	8.682241e+13	0.000000e+00	9.059831e-01	1.173732e+15	1.230374e+15	3.580012e+13	1.380354e+04	4.330826e+03	2.819723e+03	0	1.140759e-03
1.040000e+09	8.606873e+13	0.000000e+00	9.059831e-01	1.166916e+15	1.223286e+15	3.564112e+13	1.378440e+04	4.327988e+03	2.817875e+03	0	1.137448e-03
1.050000e+09	8.532240e+13	0.000000e+00	9.059831e-01	1.160164e+15	1.216265e+15	3.548320e+13	1.376537e+04	4.325164e+03	2.816036e+03	0	1.134151e-03
1.060000e+09	8.458335e+13	0.000000e+00	9.059831e-01	1.153476e+15	1.209309e+15	3.532633e+13	1.374645e+04	4.322353e+03	2.814207e+03	0	1.130867e-03
1.070000e+09	8.385146e+13	0.000000e+00	9.059831e-01	1.146849e+15	1.202417e+15	3.517053e+13	1.372764e+04	4.319557e+03	2.812386e+03	0	1.127596e-03
1.080000e+09	8.312666e+13	0.000000e+00	9.059831e-01	1.140285e+15	1.195589e+15	3.501577e+13	1.370893e+04	4.316773e+03	2.810574e+03	0	1.124337e-03
1.090000e+09	8.240884e+13	0.000000e+00	9.059831e-01	1.133781e+15	1.188824e+15	3.486206e+13	1.369033e+04	4.314003e+03	2.808770e+03	0	1.121092e-03
1.100000e+09	8.169793e+13	0.000000e+00	9.059831e-01	1.127337e+15	1.182121e+15	3.470937e+13	1.367184e+04	4.311246e+03	2.806975e+03	0	1.117859e-03
1.110000e+09	8.099383e+13	0.000000e+00	9.059831e-01	1.120953e+15	1.175479e+15	3.455771e+13	1.365345e+04	4.308503e+03	2.805189e+03	0	1.114638e-03
1.120000e+09	8.029645e+13	0.000000e+00	9.059831e-01	1.114627e+15	1.168898e+15	3.440707e+13	1.363517e+04	4.305772e+03	2.803411e+03	0	1.111430e-03
1.130000e+09	7.960571e+13	0.000000e+00	9.059831e-01	1.108359e+15	1.162377e+15	3.425743e+13	1.361699e+04	4.303055e+03	2.801642e+03	0	1.108233e-03
1.140000e+09	7.892152e+13	0.000000e+00	9.059831e-01	1.102148e+15	1.155914e+15	3.410880e+13	1.359891e+04	4.300350e+03	2.799880e+03	0	1.105049e-03
1.150000e+09	7.824381e+13	0.000000e+00	9.059831e-01	1.095994e+15	1.149510e+15	3.396115e+13	1.358093e+04	4.297657e+03	2.798128e+03	0	1.101877e-03
1.160000e+09	7.757248e+13	0.000000e+00	9.059831e-01	1.089895e+15	1.143164e+15	3.381450e+13	1.356306e+04	4.294978e+03	2.796383e+03	0	1.098717e-03
1.170000e+09	7.690747e+13	0.000000e+00	9.059831e-01	1.083851e+15	1.136874e+15	3.366882e+13	1.354528e+04	4.292311e+03	2.794647e+03	0	1.095568e-03
1.180000e+09	7.624869e+13	0.000000e+00	9.059831e-01	1.077862e+15	1.130641e+15	3.352410e+13	1.352760e+04	4.289656e+03	2.792918e+03	0	1.092431e-03
1.190000e+09	7.559606e+13	0.000000e+00	9.059831e-01	1.071926e+15	1.124463e+15	3.338035e+13	1.351002e+04	4.287014e+03	2.791198e+03	0	1.089305e-03
1.200000e+09	7.494951e+13	0.000000e+00	9.059831e-01	1.066044e+15	1.118340e+15	3.323756e+13	1.349253e+04	4.284384e+03	2.789485e+03	0	1.086191e-03
1.210000e+09	7.430896e+13	0.000000e+00	9.059831e-01	1.060214e+15	1.112271e+15	3.309571e+13	1.347514e+04	4.281766e+03	2.787781e+03	0	1.083088e-03
1.220000e+09	7.367433e+13	0.000000e+00	9.059831e-01	1.054435e+15	1.106256e+15	3.295480e+13	1.345785e+04	4.279160e+03	2.786084e+03	0	1.079995e-03
1.230000e+09	7.304557e+13	0.000000e+00	9.059831e-01	1.048708e+15	1.100294e+15	3.281482e+13	1.344065e+04	4.276566e+03	2.784395e+03	0	1.076914e-03
1.240000e+09	7.242258e+13	0.000000e+00	9.059831e-01	1.043031e+15	1.094384e+15	3.267577e+13	1.342354e+04	4.273984e+03	2.782714e+03	0	1.073844e-03
1.250000e+09	7.180531e+13	0.000000e+00	9.059831e-01	1.037404e+15	1.088525e+15	3.253764e+13	1.340653e+04	4.271413e+03	2.781041e+03	0	1.070784e-03
1.260000e+09	7.119367e+13	0.000000e+00	9.059831e-01	1.031826e+15	1.082717e+15	3.240042e+13	1.338961e+04	4.268855e+03	2.779375e+03	0	1.067735e-03
1.270000e+09	7.058761e+13	0.000000e+00	9.059831e-01	1.026297e+15	1.076960e+15	3.226410e+13	1.337277e+04	4.266307e+03	2.777716e+03	0	1.064697e-03
1.280000e+09	6.998706e+13	0.000000e+00	9.059831e-01	1.020816e+15	1.071253e+15	3.212868e+13	1.335603e+04	4.263772e+03	2.776065e+03	0	1.061669e-03
1.290000e+09	6.939195e+13	0.000000e+00	9.059831e-01	1.015383e+15	1.065595e+15	3.199414e+13	1.333938e+04	4.261247e+03	2.774422e+03	0	1.058651e-03
1.300000e+09	6.880221e+13	0.000000e+00	9.059831e-01	1.009996e+15	1.059985e+15	3.186049e+13	1.332282e+04	4.258734e+03	2.772785e+03	0	1.055644e-03
1.310000e+09	6.821777e+13	0.000000e+00	9.059831e-01	1.004656e+15	1.054424e+15	3.172772e+13	1.330634e+04	4.256232e+03	2.771157e+03	0	1.052646e-03
1.320000e+09	6.763859e+13	0.000000e+00	9.059831e-01	9.993623e+14	1.048910e+15	3.159582e+13	1.328995e+04	4.253742e+03	2.769535e+03	0	1.049658e-03
1.330000e+09	6.706458e+13	0.000000e+00	9.059831e-01	9.941136e+14	1.043443e+15	3.146478e+13	1.327365e+04	4.251262e+03	2.767920e+03	0	1.046681e-03
1.340000e+09	6.649570e+13	0.000000e+00	9.059831e-01	9.889097e+14	1.038022e+15	3.133459e+13	1.325743e+04	4.248794e+03	2.766313e+03	0	1.043713e-03
1.350000e+09	6.593188e+13	0.000000e+00	9.059831e-01	9.837501e+14	1.032647e+15	3.120526e+13	1.324130e+04	4.246336e+03	2.764713e+03	0	1.040755e-03
1.360000e+09	6.537306e+13	0.000000e+00	9.059831e-01	9.786343e+14	1.027318e+15	3.107677e+13	1.322525e+04	4.243889e+03	2.763120e+03	0	1.037806e-03
