#t		Qconv[W]	Ri[Rp]		R*[Rp]		Qc[W]		Qm[W]		Qr[W]		Tcmb[K]		Tl[K]		Tup[K]		RiFlag		Bs[T]
0.000000e+00	2.204341e+14	0.000000e+00	9.059829e-01	2.414013e+15	1.057704e+15	6.276043e+13	1.692725e+04	4.113309e+03	2.672734e+03	0	1.554272e-03
1.000000e+07	2.220563e+14	0.000000e+00	9.059829e-01	2.425731e+15	1.387346e+15	6.241269e+13	1.689071e+04	4.297740e+03	2.792573e+03	0	1.558075e-03
2.000000e+07	2.225311e+14	0.000000e+00	9.059829e-01	2.428184e+15	1.678509e+15	6.206755e+13	1.685400e+04	4.437709e+03	2.883522e+03	0	1.559185e-03
3.000000e+07	2.221399e+14	0.000000e+00	9.059829e-01	2.423648e+15	1.911872e+15	6.172500e+13	1.681725e+04	4.539163e+03	2.949445e+03	0	1.558271e-03
4.000000e+07	2.211330e+14	0.000000e+00	9.059829e-01	2.414147e+15	2.084995e+15	6.138499e+13	1.678057e+04	4.609939e+03	2.995433e+03	0	1.555913e-03
5.000000e+07	2.197071e+14	0.000000e+00	9.059829e-01	2.401270e+15	2.205475e+15	6.104753e+13	1.674403e+04	4.657712e+03	3.026475e+03	0	1.552561e-03
6.000000e+07	2.180055e+14	0.000000e+00	9.059829e-01	2.386176e+15	2.284470e+15	6.071258e+13	1.670768e+04	4.688946e+03	3.046770e+03	0	1.548543e-03
7.000000e+07	2.161284e+14	0.000000e+00	9.059829e-01	2.369675e+15	2.332825e+15	6.038012e+13	1.667157e+04	4.708622e+03	3.059555e+03	0	1.544086e-03
8.000000e+07	2.141440e+14	0.000000e+00	9.059829e-01	2.352317e+15	2.359475e+15	6.005014e+13	1.663570e+04	4.720371e+03	3.067189e+03	0	1.539345e-03
9.000000e+07	2.120979e+14	0.000000e+00	9.059829e-01	2.334471e+15	2.371162e+15	5.972261e+13	1.660010e+04	4.726750e+03	3.071334e+03	0	1.534427e-03
1.000000e+08	2.100204e+14	0.000000e+00	9.059829e-01	2.316382e+15	2.372727e+15	5.939751e+13	1.656476e+04	4.729519e+03	3.073133e+03	0	1.529401e-03
1.100000e+08	2.079315e+14	0.000000e+00	9.059829e-01	2.298211e+15	2.367535e+15	5.907483e+13	1.652970e+04	4.729874e+03	3.073364e+03	0	1.524313e-03
1.200000e+08	2.058443e+14	0.000000e+00	9.059829e-01	2.280064e+15	2.357885e+15	5.875453e+13	1.649491e+04	4.728621e+03	3.072550e+03	0	1.519195e-03
1.300000e+08	2.037672e+14	0.000000e+00	9.059829e-01	2.262010e+15	2.345328e+15	5.843661e+13	1.646039e+04	4.726300e+03	3.071042e+03	0	1.514068e-03
1.400000e+08	2.017059e+14	0.000000e+00	9.059829e-01	2.244092e+15	2.330904e+15	5.812104e+13	1.642615e+04	4.723272e+03	3.069074e+03	0	1.508946e-03
1.500000e+08	1.996638e+14	0.000000e+00	9.059829e-01	2.226340e+15	2.315307e+15	5.780781e+13	1.639218e+04	4.719780e+03	3.066806e+03	0	1.503836e-03
1.600000e+08	1.976430e+14	0.000000e+00	9.059829e-01	2.208770e+15	2.298998e+15	5.749688e+13	1.635848e+04	4.715986e+03	3.064340e+03	0	1.498746e-03
1.700000e+08	1.956450e+14	0.000000e+00	9.059829e-01	2.191393e+15	2.282284e+15	5.718826e+13	1.632504e+04	4.711996e+03	3.061747e+03	0	1.493678e-03
1.800000e+08	1.936704e+14	0.000000e+00	9.059829e-01	2.174215e+15	2.265370e+15	5.688190e+13	1.629187e+04	4.707884e+03	3.059075e+03	0	1.488636e-03
1.900000e+08	1.917195e+14	0.000000e+00	9.059829e-01	2.157239e+15	2.248391e+15	5.657781e+13	1.625895e+04	4.703698e+03	3.056356e+03	0	1.483621e-03
2.000000e+08	1.897926e+14	0.000000e+00	9.059829e-01	2.140465e+15	2.231436e+15	5.627595e+13	1.622629e+04	4.699471e+03	3.053609e+03	0	1.478633e-03
2.100000e+08	1.878894e+14	0.000000e+00	9.059829e-01	2.123893e+15	2.214564e+15	5.597631e+13	1.619389e+04	4.695225e+03	3.050850e+03	0	1.473674e-03
2.200000e+08	1.860100e+14	0.000000e+00	9.059829e-01	2.107521e+15	2.197814e+15	5.567887e+13	1.616173e+04	4.690975e+03	3.048088e+03	0	1.468744e-03
2.300000e+08	1.841539e+14	0.000000e+00	9.059829e-01	2.091347e+15	2.181211e+15	5.538362e+13	1.612982e+04	4.686730e+03	3.045330e+03	0	1.463842e-03
2.400000e+08	1.823209e+14	0.000000e+00	9.059829e-01	2.075369e+15	2.164770e+15	5.509052e+13	1.609816e+04	4.682497e+03	3.042580e+03	0	1.458969e-03
2.500000e+08	1.805107e+14	0.000000e+00	9.059829e-01	2.059584e+15	2.148500e+15	5.479958e+13	1.606674e+04	4.678280e+03	3.039840e+03	0	1.454125e-03
2.600000e+08	1.787230e+14	0.000000e+00	9.059829e-01	2.043989e+15	2.132408e+15	5.451077e+13	1.603555e+04	4.674083e+03	3.037113e+03	0	1.449309e-03
2.700000e+08	1.769575e+14	0.000000e+00	9.059829e-01	2.028582e+15	2.116497e+15	5.422406e+13	1.600460e+04	4.669908e+03	3.034399e+03	0	1.444520e-03
2.800000e+08	1.752137e+14	0.000000e+00	9.059829e-01	2.013359e+15	2.100766e+15	5.393945e+13	1.597389e+04	4.665755e+03	3.031701e+03	0	1.439760e-03
2.900000e+08	1.734914e+14	0.000000e+00	9.059829e-01	1.998317e+15	2.085217e+15	5.365692e+13	1.594340e+04	4.661625e+03	3.029017e+03	0	1.435027e-03
3.000000e+08	1.717902e+14	0.000000e+00	9.059829e-01	1.983455e+15	2.069847e+15	5.337645e+13	1.591314e+04	4.657519e+03	3.026349e+03	0	1.430321e-03
3.100000e+08	1.701097e+14	0.000000e+00	9.059829e-01	1.968769e+15	2.054655e+15	5.309802e+13	1.588311e+04	4.653437e+03	3.023697e+03	0	1.425642e-03
3.200000e+08	1.684497e+14	0.000000e+00	9.059829e-01	1.954256e+15	2.039640e+15	5.282162e+13	1.585330e+04	4.649379e+03	3.021060e+03	0	1.420989e-03
3.300000e+08	1.668099e+14	0.000000e+00	9.059829e-01	1.939913e+15	2.024798e+15	5.254722e+13	1.582371e+04	4.645345e+03	3.018439e+03	0	1.416363e-03
3.400000e+08	1.651898e+14	0.000000e+00	9.059829e-01	1.925739e+15	2.010128e+15	5.227482e+13	1.579433e+04	4.641336e+03	3.015834e+03	0	1.411763e-03
3.500000e+08	1.635892e+14	0.000000e+00	9.059829e-01	1.911729e+15	1.995628e+15	5.200440e+13	1.576517e+04	4.637350e+03	3.013244e+03	0	1.407188e-03
3.600000e+08	1.620077e+14	0.000000e+00	9.059829e-01	1.897883e+15	1.981294e+15	5.173593e+13	1.573622e+04	4.633388e+03	3.010669e+03	0	1.402639e-03
3.700000e+08	1.604452e+14	0.000000e+00	9.059829e-01	1.884196e+15	1.967124e+15	5.146941e+13	1.570748e+04	4.629449e+03	3.008110e+03	0	1.398115e-03
3.800000e+08	1.589012e+14	0.000000e+00	9.059829e-01	1.870667e+15	1.953116e+15	5.120482e+13	1.567894e+04	4.625533e+03	3.005566e+03	0	1.393616e-03
3.900000e+08	1.573754e+14	0.000000e+00	9.059829e-01	1.857293e+15	1.939267e+15	5.094214e+13	1.565061e+04	4.621641e+03	3.003037e+03	0	1.389141e-03
4.000000e+08	1.558677e+14	0.000000e+00	9.059829e-01	1.844071e+15	1.925576e+15	5.068136e+13	1.562248e+04	4.617772e+03	3.000523e+03	0	1.384691e-03
4.100000e+08	1.543777e+14	0.000000e+00	9.059829e-01	1.831001e+15	1.912039e+15	5.042246e+13	1.559456e+04	4.613925e+03	2.998023e+03	0	1.380264e-03
4.200000e+08	1.529051e+14	0.000000e+00	9.059829e-01	1.818078e+15	1.898654e+15	5.016542e+13	1.556683e+04	4.610101e+03	2.995538e+03	0	1.375861e-03
4.300000e+08	1.514496e+14	0.000000e+00	9.059829e-01	1.805301e+15	1.885419e+15	4.991024e+13	1.553929e+04	4.606299e+03	2.993068e+03	0	1.371482e-03
4.400000e+08	1.500111e+14	0.000000e+00	9.059829e-01	1.792667e+15	1.872332e+15	4.965689e+13	1.551195e+04	4.602519e+03	2.990612e+03	0	1.367126e-03
4.500000e+08	1.485892e+14	0.000000e+00	9.059829e-01	1.780175e+15	1.859390e+15	4.940537e+13	1.548480e+04	4.598761e+03	2.988170e+03	0	1.362793e-03
4.600000e+08	1.471837e+14	0.000000e+00	9.059829e-01	1.767822e+15	1.846592e+15	4.915564e+13	1.545784e+04	4.595024e+03	2.985742e+03	0	1.358482e-03
4.700000e+08	1.457943e+14	0.000000e+00	9.059829e-01	1.755607e+15	1.833935e+15	4.890771e+13	1.543106e+04	4.591309e+03	2.983328e+03	0	1.354194e-03
4.800000e+08	1.444207e+14	0.000000e+00	9.059829e-01	1.743526e+15	1.821416e+15	4.866156e+13	1.540447e+04	4.587615e+03	2.980927e+03	0	1.349928e-03
4.900000e+08	1.430629e+14	0.000000e+00	9.059829e-01	1.731579e+15	1.809035e+15	4.841717e+13	1.537806e+04	4.583942e+03	2.978541e+03	0	1.345684e-03
5.000000e+08	1.417204e+14	0.000000e+00	9.059829e-01	1.719762e+15	1.796789e+15	4.817452e+13	1.535184e+04	4.580290e+03	2.976168e+03	0	1.341461e-03
5.100000e+08	1.403931e+14	0.000000e+00	9.059829e-01	1.708075e+15	1.784675e+15	4.793361e+13	1.532579e+04	4.576658e+03	2.973808e+03	0	1.337260e-03
5.200000e+08	1.390808e+14	0.000000e+00	9.059829e-01	1.696515e+15	1.772693e+15	4.769442e+13	1.529991e+04	4.573047e+03	2.971462e+03	0	1.333081e-03
5.300000e+08	1.377831e+14	0.000000e+00	9.059829e-01	1.685080e+15	1.760839e+15	4.745694e+13	1.527422e+04	4.569456e+03	2.969128e+03	0	1.328922e-03
5.400000e+08	1.365000e+14	0.000000e+00	9.059829e-01	1.673769e+15	1.749113e+15	4.722114e+13	1.524869e+04	4.565885e+03	2.966808e+03	0	1.324784e-03
5.500000e+08	1.352312e+14	0.000000e+00	9.059829e-01	1.662580e+15	1.737512e+15	4.698702e+13	1.522334e+04	4.562334e+03	2.964501e+03	0	1.320666e-03
5.600000e+08	1.339764e+14	0.000000e+00	9.059829e-01	1.651510e+15	1.726034e+15	4.675457e+13	1.519815e+04	4.558803e+03	2.962206e+03	0	1.316569e-03
5.700000e+08	1.327356e+14	0.000000e+00	9.059829e-01	1.640559e+15	1.714678e+15	4.652377e+13	1.517314e+04	4.555291e+03	2.959924e+03	0	1.312491e-03
5.800000e+08	1.315083e+14	0.000000e+00	9.059829e-01	1.629724e+15	1.703443e+15	4.629461e+13	1.514828e+04	4.551798e+03	2.957654e+03	0	1.308434e-03
5.900000e+08	1.302946e+14	0.000000e+00	9.059829e-01	1.619004e+15	1.692325e+15	4.606707e+13	1.512360e+04	4.548324e+03	2.955397e+03	0	1.304396e-03
6.000000e+08	1.290941e+14	0.000000e+00	9.059829e-01	1.608397e+15	1.681324e+15	4.584114e+13	1.509907e+04	4.544870e+03	2.953153e+03	0	1.300378e-03
6.100000e+08	1.279067e+14	0.000000e+00	9.059829e-01	1.597901e+15	1.670438e+15	4.561681e+13	1.507471e+04	4.541434e+03	2.950920e+03	0	1.296379e-03
6.200000e+08	1.267322e+14	0.000000e+00	9.059829e-01	1.587516e+15	1.659665e+15	4.539406e+13	1.505050e+04	4.538016e+03	2.948699e+03	0	1.292398e-03
6.300000e+08	1.255704e+14	0.000000e+00	9.059829e-01	1.577239e+15	1.649004e+15	4.517289e+13	1.502645e+04	4.534617e+03	2.946491e+03	0	1.288437e-03
6.400000e+08	1.244211e+14	0.000000e+00	9.059829e-01	1.567069e+15	1.638453e+15	4.495328e+13	1.500256e+04	4.531237e+03	2.944294e+03	0	1.284494e-03
6.500000e+08	1.232841e+14	0.000000e+00	9.059829e-01	1.557004e+15	1.628010e+15	4.473521e+13	1.497881e+04	4.527874e+03	2.942109e+03	0	1.280569e-03
6.600000e+08	1.221593e+14	0.000000e+00	9.059829e-01	1.547043e+15	1.617675e+15	4.451868e+13	1.495523e+04	4.524529e+03	2.939936e+03	0	1.276663e-03
6.700000e+08	1.210465e+14	0.000000e+00	9.059829e-01	1.537184e+15	1.607445e+15	4.430367e+13	1.493179e+04	4.521202e+03	2.937774e+03	0	1.272775e-03
6.800000e+08	1.199456e+14	0.000000e+00	9.059829e-01	1.527427e+15	1.597319e+15	4.409017e+13	1.490850e+04	4.517893e+03	2.935624e+03	0	1.268904e-03
6.900000e+08	1.188562e+14	0.000000e+00	9.059829e-01	1.517769e+15	1.587296e+15	4.387817e+13	1.488536e+04	4.514601e+03	2.933485e+03	0	1.265051e-03
7.000000e+08	1.177784e+14	0.000000e+00	9.059829e-01	1.508209e+15	1.577374e+15	4.366766e+13	1.486236e+04	4.511327e+03	2.931357e+03	0	1.261215e-03
7.100000e+08	1.167119e+14	0.000000e+00	9.059829e-01	1.498746e+15	1.567551e+15	4.345861e+13	1.483951e+04	4.508069e+03	2.929240e+03	0	1.257397e-03
7.200000e+08	1.156566e+14	0.000000e+00	9.059829e-01	1.489378e+15	1.557828e+15	4.325103e+13	1.481681e+04	4.504828e+03	2.927135e+03	0	1.253596e-03
7.300000e+08	1.146123e+14	0.000000e+00	9.059829e-01	1.480105e+15	1.548201e+15	4.304491e+13	1.479424e+04	4.501605e+03	2.925040e+03	0	1.249811e-03
7.400000e+08	1.135788e+14	0.000000e+00	9.059829e-01	1.470925e+15	1.538671e+15	4.284022e+13	1.477181e+04	4.498398e+03	2.922956e+03	0	1.246043e-03
7.500000e+08	1.125561e+14	0.000000e+00	9.059829e-01	1.461836e+15	1.529234e+15	4.263695e+13	1.474953e+04	4.495207e+03	2.920883e+03	0	1.242292e-03
7.600000e+08	1.115439e+14	0.000000e+00	9.059829e-01	1.452838e+15	1.519891e+15	4.243511e+13	1.472738e+04	4.492033e+03	2.918820e+03	0	1.238557e-03
7.700000e+08	1.105422e+14	0.000000e+00	9.059829e-01	1.443929e+15	1.510640e+15	4.223466e+13	1.470537e+04	4.488875e+03	2.916769e+03	0	1.234838e-03
7.800000e+08	1.095507e+14	0.000000e+00	9.059829e-01	1.435108e+15	1.501480e+15	4.203561e+13	1.468349e+04	4.485733e+03	2.914727e+03	0	1.231135e-03
7.900000e+08	1.085694e+14	0.000000e+00	9.059829e-01	1.426373e+15	1.492410e+15	4.183795e+13	1.466174e+04	4.482608e+03	2.912696e+03	0	1.227448e-03
8.000000e+08	1.075980e+14	0.000000e+00	9.059829e-01	1.417725e+15	1.483427e+15	4.164165e+13	1.464013e+04	4.479498e+03	2.910675e+03	0	1.223777e-03
8.100000e+08	1.066366e+14	0.000000e+00	9.059829e-01	1.409161e+15	1.474532e+15	4.144671e+13	1.461865e+04	4.476403e+03	2.908665e+03	0	1.220121e-03
8.200000e+08	1.056848e+14	0.000000e+00	9.059829e-01	1.400680e+15	1.465723e+15	4.125313e+13	1.459729e+04	4.473325e+03	2.906664e+03	0	1.216480e-03
8.300000e+08	1.047427e+14	0.000000e+00	9.059829e-01	1.392281e+15	1.456999e+15	4.106088e+13	1.457607e+04	4.470261e+03	2.904674e+03	0	1.212854e-03
8.400000e+08	1.038100e+14	0.000000e+00	9.059829e-01	1.383964e+15	1.448359e+15	4.086996e+13	1.455497e+04	4.467214e+03	2.902693e+03	0	1.209244e-03
8.500000e+08	1.028867e+14	0.000000e+00	9.059829e-01	1.375727e+15	1.439801e+15	4.068035e+13	1.453400e+04	4.464181e+03	2.900723e+03	0	1.205648e-03
8.600000e+08	1.019726e+14	0.000000e+00	9.059829e-01	1.367569e+15	1.431325e+15	4.049206e+13	1.451315e+04	4.461163e+03	2.898762e+03	0	1.202067e-03
8.700000e+08	1.010676e+14	0.000000e+00	9.059829e-01	1.359489e+15	1.422930e+15	4.030506e+13	1.449243e+04	4.458160e+03	2.896811e+03	0	1.198500e-03
8.800000e+08	1.001716e+14	0.000000e+00	9.059829e-01	1.351486e+15	1.414614e+15	4.011934e+13	1.447183e+04	4.455172e+03	2.894869e+03	0	1.194948e-03
8.900000e+08	9.928448e+13	0.000000e+00	9.059829e-01	1.343559e+15	1.406377e+15	3.993490e+13	1.445135e+04	4.452199e+03	2.892937e+03	0	1.191410e-03
9.000000e+08	9.840607e+13	0.000000e+00	9.059829e-01	1.335707e+15	1.398217e+15	3.975173e+13	1.443099e+04	4.449240e+03	2.891014e+03	0	1.187886e-03
9.100000e+08	9.753628e+13	0.000000e+00	9.059829e-01	1.327929e+15	1.390134e+15	3.956982e+13	1.441075e+04	4.446295e+03	2.889101e+03	0	1.184376e-03
9.200000e+08	9.667502e+13	0.000000e+00	9.059829e-01	1.320225e+15	1.382126e+15	3.938915e+13	1.439062e+04	4.443365e+03	2.887197e+03	0	1.180879e-03
9.300000e+08	9.582216e+13	0.000000e+00	9.059829e-01	1.312592e+15	1.374192e+15	3.920971e+13	1.437062e+04	4.440449e+03	2.885303e+03	0	1.177396e-03
9.400000e+08	9.497760e+13	0.000000e+00	9.059829e-01	1.305031e+15	1.366333e+15	3.903150e+13	1.435072e+04	4.437547e+03	2.883417e+03	0	1.173927e-03
9.500000e+08	9.414123e+13	0.000000e+00	9.059829e-01	1.297540e+15	1.358546e+15	3.885451e+13	1.433095e+04	4.434660e+03	2.881540e+03	0	1.170471e-03
9.600000e+08	9.331294e+13	0.000000e+00	9.059829e-01	1.290119e+15	1.350831e+15	3.867872e+13	1.431128e+04	4.431786e+03	2.879673e+03	0	1.167028e-03
9.700000e+08	9.249263e+13	0.000000e+00	9.059829e-01	1.282766e+15	1.343186e+15	3.850414e+13	1.429173e+04	4.428925e+03	2.877814e+03	0	1.163598e-03
9.800000e+08	9.168020e+13	0.000000e+00	9.059829e-01	1.275481e+15	1.335612e+15	3.833074e+13	1.427229e+04	4.426079e+03	2.875965e+03	0	1.160181e-03
9.900000e+08	9.087555e+13	0.000000e+00	9.059829e-01	1.268263e+15	1.328107e+15	3.815852e+13	1.425296e+04	4.423245e+03	2.874124e+03	0	1.156777e-03
1.000000e+09	9.007858e+13	0.000000e+00	9.059829e-01	1.261111e+15	1.320670e+15	3.798746e+13	1.423374e+04	4.420426e+03	2.872292e+03	0	1.153386e-03
1.010000e+09	8.928918e+13	0.000000e+00	9.059829e-01	1.254024e+15	1.313300e+15	3.781757e+13	1.421463e+04	4.417619e+03	2.870468e+03	0	1.150007e-03
1.020000e+09	8.850728e+13	0.000000e+00	9.059829e-01	1.247002e+15	1.305998e+15	3.764883e+13	1.419562e+04	4.414826e+03	2.868653e+03	0	1.146640e-03
1.030000e+09	8.773276e+13	0.000000e+00	9.059829e-01	1.240043e+15	1.298760e+15	3.748123e+13	1.417672e+04	4.412045e+03	2.866846e+03	0	1.143285e-03
1.040000e+09	8.696555e+13	0.000000e+00	9.059829e-01	1.233147e+15	1.291588e+15	3.731476e+13	1.415793e+04	4.409278e+03	2.865048e+03	0	1.139943e-03
1.050000e+09	8.620554e+13	0.000000e+00	9.059829e-01	1.226313e+15	1.284480e+15	3.714942e+13	1.413924e+04	4.406524e+03	2.863259e+03	0	1.136613e-03
1.060000e+09	8.545264e+13	0.000000e+00	9.059829e-01	1.219541e+15	1.277435e+15	3.698519e+13	1.412065e+04	4.403782e+03	2.861477e+03	0	1.133294e-03
1.070000e+09	8.470678e+13	0.000000e+00	9.059829e-01	1.212829e+15	1.270453e+15	3.682207e+13	1.410217e+04	4.401053e+03	2.859704e+03	0	1.129987e-03
1.080000e+09	8.396786e+13	0.000000e+00	9.059829e-01	1.206177e+15	1.263533e+15	3.666005e+13	1.408378e+04	4.398337e+03	2.857939e+03	0	1.126692e-03
1.090000e+09	8.323579e+13	0.000000e+00	9.059829e-01	1.199584e+15	1.256674e+15	3.649911e+13	1.406550e+04	4.395633e+03	2.856182e+03	0	1.123408e-03
1.100000e+09	8.251049e+13	0.000000e+00	9.059829e-01	1.193049e+15	1.249875e+15	3.633926e+13	1.404732e+04	4.392942e+03	2.854433e+03	0	1.120135e-03
1.110000e+09	8.179188e+13	0.000000e+00	9.059829e-01	1.186572e+15	1.243136e+15	3.618048e+13	1.402924e+04	4.390262e+03	2.852692e+03	0	1.116874e-03
1.120000e+09	8.107988e+13	0.000000e+00	9.059829e-01	1.180152e+15	1.236456e+15	3.602276e+13	1.401125e+04	4.387595e+03	2.850959e+03	0	1.113624e-03
1.130000e+09	8.037440e+13	0.000000e+00	9.059829e-01	1.173788e+15	1.229834e+15	3.586610e+13	1.399336e+04	4.384941e+03	2.849234e+03	0	1.110384e-03
1.140000e+09	7.967537e+13	0.000000e+00	9.059829e-01	1.167480e+15	1.223270e+15	3.571048e+13	1.397557e+04	4.382298e+03	2.847517e+03	0	1.107156e-03
1.150000e+09	7.898271e+13	0.000000e+00	9.059829e-01	1.161227e+15	1.216762e+15	3.555591e+13	1.395787e+04	4.379667e+03	2.845807e+03	0	1.103938e-03
1.160000e+09	7.829633e+13	0.000000e+00	9.059829e-01	1.155028e+15	1.210311e+15	3.540236e+13	1.394027e+04	4.377047e+03	2.844105e+03	0	1.100731e-03
1.170000e+09	7.761617e+13	0.000000e+00	9.059829e-01	1.148883e+15	1.203915e+15	3.524984e+13	1.392277e+04	4.374440e+03	2.842411e+03	0	1.097534e-03
1.180000e+09	7.694215e+13	0.000000e+00	9.059829e-01	1.142791e+15	1.197574e+15	3.509833e+13	1.390535e+04	4.371844e+03	2.840724e+03	0	1.094348e-03
1.190000e+09	7.627420e+13	0.000000e+00	9.059829e-01	1.136751e+15	1.191287e+15	3.494783e+13	1.388803e+04	4.369260e+03	2.839045e+03	0	1.091172e-03
1.200000e+09	7.561224e+13	0.000000e+00	9.059829e-01	1.130763e+15	1.185054e+15	3.479833e+13	1.387080e+04	4.366687e+03	2.837374e+03	0	1.088006e-03
1.210000e+09	7.495620e+13	0.000000e+00	9.059829e-01	1.124826e+15	1.178874e+15	3.464982e+13	1.385366e+04	4.364126e+03	2.835709e+03	0	1.084851e-03
1.220000e+09	7.430602e+13	0.000000e+00	9.059829e-01	1.118940e+15	1.172746e+15	3.450230e+13	1.383661e+04	4.361576e+03	2.834052e+03	0	1.081705e-03
1.230000e+09	7.366161e+13	0.000000e+00	9.059829e-01	1.113104e+15	1.166670e+15	3.435575e+13	1.381964e+04	4.359037e+03	2.832402e+03	0	1.078569e-03
1.240000e+09	7.302292e+13	0.000000e+00	9.059829e-01	1.107317e+15	1.160645e+15	3.421017e+13	1.380277e+04	4.356509e+03	2.830760e+03	0	1.075442e-03
1.250000e+09	7.238988e+13	0.000000e+00	9.059829e-01	1.101579e+15	1.154671e+15	3.406555e+13	1.378598e+04	4.353992e+03	2.829125e+03	0	1.072326e-03
1.260000e+09	7.176242e+13	0.000000e+00	9.059829e-01	1.095890e+15	1.148747e+15	3.392188e+13	1.376929e+04	4.351486e+03	2.827496e+03	0	1.069218e-03
1.270000e+09	7.114047e+13	0.000000e+00	9.059829e-01	1.090248e+15	1.142872e+15	3.377916e+13	1.375267e+04	4.348991e+03	2.825875e+03	0	1.066121e-03
1.280000e+09	7.052397e+13	0.000000e+00	9.059829e-01	1.084653e+15	1.137046e+15	3.363738e+13	1.373614e+04	4.346507e+03	2.824261e+03	0	1.063032e-03
1.290000e+09	6.991287e+13	0.000000e+00	9.059829e-01	1.079105e+15	1.131268e+15	3.349653e+13	1.371970e+04	4.344034e+03	2.822654e+03	0	1.059953e-03
1.300000e+09	6.930708e+13	0.000000e+00	9.059829e-01	1.073603e+15	1.125538e+15	3.335660e+13	1.370334e+04	4.341571e+03	2.821054e+03	0	1.056882e-03
1.310000e+09	6.870656e+13	0.000000e+00	9.059829e-01	1.068147e+15	1.119855e+15	3.321760e+13	1.368707e+04	4.339119e+03	2.819460e+03	0	1.053821e-03
1.320000e+09	6.811124e+13	0.000000e+00	9.059829e-01	1.062736e+15	1.114219e+15	3.307950e+13	1.367087e+04	4.336677e+03	2.817874e+03	0	1.050768e-03
1.330000e+09	6.752107e+13	0.000000e+00	9.059829e-01	1.057369e+15	1.108629e+15	3.294230e+13	1.365476e+04	4.334246e+03	2.816294e+03	0	1.047725e-03
1.340000e+09	6.693597e+13	0.000000e+00	9.059829e-01	1.052046e+15	1.103085e+15	3.280601e+13	1.363873e+04	4.331825e+03	2.814721e+03	0	1.044690e-03
1.350000e+09	6.635591e+13	0.000000e+00	9.059829e-01	1.046767e+15	1.097586e+15	3.267060e+13	1.362278e+04	4.329414e+03	2.813155e+03	0	1.041663e-03
1.360000e+09	6.578081e+13	0.000000e+00	9.059829e-01	1.041531e+15	1.092132e+15	3.253607e+13	1.360692e+04	4.327014e+03	2.811595e+03	0	1.038645e-03
