#t		Qconv[W]	Ri[Rp]		R*[Rp]		Qc[W]		Qm[W]		Qr[W]		Tcmb[K]		Tl[K]		Tup[K]		RiFlag		Bs[T]
0.000000e+00	4.858227e+12	0.000000e+00	9.251701e-01	9.617177e+13	7.126312e+13	2.317415e+13	5.861158e+03	2.952888e+03	2.135100e+03	0	4.381158e-04
1.000000e+07	4.841395e+12	0.000000e+00	9.251701e-01	9.594846e+13	7.400941e+13	2.304575e+13	5.857103e+03	2.970706e+03	2.147983e+03	0	4.376092e-04
2.000000e+07	4.823328e+12	0.000000e+00	9.251701e-01	9.571084e+13	7.664743e+13	2.291831e+13	5.853058e+03	2.987360e+03	2.160026e+03	0	4.370642e-04
3.000000e+07	4.804201e+12	0.000000e+00	9.251701e-01	9.546096e+13	7.917003e+13	2.279182e+13	5.849022e+03	3.002889e+03	2.171254e+03	0	4.364857e-04
4.000000e+07	4.784175e+12	0.000000e+00	9.251701e-01	9.520068e+13	8.157174e+13	2.266627e+13	5.844997e+03	3.017334e+03	2.181699e+03	0	4.358784e-04
5.000000e+07	4.763395e+12	0.000000e+00	9.251701e-01	9.493170e+13	8.384870e+13	2.254167e+13	5.840982e+03	3.030738e+03	2.191390e+03	0	4.352464e-04
6.000000e+07	4.741991e+12	0.000000e+00	9.251701e-01	9.465553e+13	8.599849e+13	2.241799e+13	5.836980e+03	3.043146e+03	2.200362e+03	0	4.345935e-04
7.000000e+07	4.720077e+12	0.000000e+00	9.251701e-01	9.437352e+13	8.802009e+13	2.229523e+13	5.832988e+03	3.054605e+03	2.208647e+03	0	4.339230e-04
8.000000e+07	4.697757e+12	0.000000e+00	9.251701e-01	9.408685e+13	8.991370e+13	2.217338e+13	5.829009e+03	3.065162e+03	2.216280e+03	0	4.332379e-04
9.000000e+07	4.675119e+12	0.000000e+00	9.251701e-01	9.379656e+13	9.168054e+13	2.205244e+13	5.825042e+03	3.074863e+03	2.223295e+03	0	4.325409e-04
1.000000e+08	4.652240e+12	0.000000e+00	9.251701e-01	9.350356e+13	9.332286e+13	2.193240e+13	5.821087e+03	3.083756e+03	2.229725e+03	0	4.318342e-04
1.100000e+08	4.629188e+12	0.000000e+00	9.251701e-01	9.320862e+13	9.484359e+13	2.181325e+13	5.817144e+03	3.091888e+03	2.235605e+03	0	4.311197e-04
1.200000e+08	4.606020e+12	0.000000e+00	9.251701e-01	9.291241e+13	9.624638e+13	2.169498e+13	5.813214e+03	3.099303e+03	2.240967e+03	0	4.303993e-04
1.300000e+08	4.582784e+12	0.000000e+00	9.251701e-01	9.261550e+13	9.753537e+13	2.157759e+13	5.809296e+03	3.106046e+03	2.245842e+03	0	4.296743e-04
1.400000e+08	4.559522e+12	0.000000e+00	9.251701e-01	9.231837e+13	9.871508e+13	2.146107e+13	5.805391e+03	3.112160e+03	2.250263e+03	0	4.289461e-04
1.500000e+08	4.536268e+12	0.000000e+00	9.251701e-01	9.202142e+13	9.979035e+13	2.134541e+13	5.801498e+03	3.117685e+03	2.254258e+03	0	4.282156e-04
1.600000e+08	4.513051e+12	0.000000e+00	9.251701e-01	9.172499e+13	1.007662e+14	2.123060e+13	5.797618e+03	3.122661e+03	2.257856e+03	0	4.274838e-04
1.700000e+08	4.489894e+12	0.000000e+00	9.251701e-01	9.142934e+13	1.016477e+14	2.111664e+13	5.793750e+03	3.127125e+03	2.261084e+03	0	4.267514e-04
1.800000e+08	4.466818e+12	0.000000e+00	9.251701e-01	9.113471e+13	1.024401e+14	2.100352e+13	5.789895e+03	3.131114e+03	2.263967e+03	0	4.260191e-04
1.900000e+08	4.443837e+12	0.000000e+00	9.251701e-01	9.084127e+13	1.031485e+14	2.089123e+13	5.786052e+03	3.134660e+03	2.266532e+03	0	4.252872e-04
2.000000e+08	4.420963e+12	0.000000e+00	9.251701e-01	9.054917e+13	1.037780e+14	2.077977e+13	5.782221e+03	3.137796e+03	2.268799e+03	0	4.245563e-04
2.100000e+08	4.398207e+12	0.000000e+00	9.251701e-01	9.025852e+13	1.043336e+14	2.066913e+13	5.778403e+03	3.140552e+03	2.270792e+03	0	4.238266e-04
2.200000e+08	4.375576e+12	0.000000e+00	9.251701e-01	8.996940e+13	1.048199e+14	2.055930e+13	5.774597e+03	3.142956e+03	2.272530e+03	0	4.230984e-04
2.300000e+08	4.353075e+12	0.000000e+00	9.251701e-01	8.968188e+13	1.052417e+14	2.045028e+13	5.770803e+03	3.145034e+03	2.274033e+03	0	4.223719e-04
2.400000e+08	4.330708e+12	0.000000e+00	9.251701e-01	8.939601e+13	1.056035e+14	2.034206e+13	5.767022e+03	3.146812e+03	2.275318e+03	0	4.216472e-04
2.500000e+08	4.308479e+12	0.000000e+00	9.251701e-01	8.911181e+13	1.059095e+14	2.023462e+13	5.763252e+03	3.148311e+03	2.276402e+03	0	4.209246e-04
2.600000e+08	4.286388e+12	0.000000e+00	9.251701e-01	8.882931e+13	1.061636e+14	2.012798e+13	5.759494e+03	3.149555e+03	2.277301e+03	0	4.202039e-04
2.700000e+08	4.264436e+12	0.000000e+00	9.251701e-01	8.854851e+13	1.063698e+14	2.002212e+13	5.755749e+03	3.150561e+03	2.278029e+03	0	4.194854e-04
2.800000e+08	4.242624e+12	0.000000e+00	9.251701e-01	8.826942e+13	1.065316e+14	1.991702e+13	5.752015e+03	3.151351e+03	2.278600e+03	0	4.187689e-04
2.900000e+08	4.220950e+12	0.000000e+00	9.251701e-01	8.799202e+13	1.066524e+14	1.981270e+13	5.748293e+03	3.151939e+03	2.279025e+03	0	4.180546e-04
3.000000e+08	4.199415e+12	0.000000e+00	9.251701e-01	8.771630e+13	1.067354e+14	1.970914e+13	5.744582e+03	3.152343e+03	2.279318e+03	0	4.173424e-04
3.100000e+08	4.178017e+12	0.000000e+00	9.251701e-01	8.744226e+13	1.067835e+14	1.960633e+13	5.740883e+03	3.152578e+03	2.279487e+03	0	4.166324e-04
3.200000e+08	4.156754e+12	0.000000e+00	9.251701e-01	8.716986e+13	1.067996e+14	1.950427e+13	5.737196e+03	3.152656e+03	2.279544e+03	0	4.159244e-04
3.300000e+08	4.135624e+12	0.000000e+00	9.251701e-01	8.689911e+13	1.067863e+14	1.940295e+13	5.733520e+03	3.152591e+03	2.279497e+03	0	4.152184e-04
3.400000e+08	4.114627e+12	0.000000e+00	9.251701e-01	8.662996e+13	1.067459e+14	1.930236e+13	5.729856e+03	3.152395e+03	2.279355e+03	0	4.145145e-04
3.500000e+08	4.093759e+12	0.000000e+00	9.251701e-01	8.636240e+13	1.066806e+14	1.920251e+13	5.726203e+03	3.152077e+03	2.279125e+03	0	4.138126e-04
3.600000e+08	4.073020e+12	0.000000e+00	9.251701e-01	8.609641e+13	1.065927e+14	1.910338e+13	5.722561e+03	3.151649e+03	2.278815e+03	0	4.131126e-04
3.700000e+08	4.052406e+12	0.000000e+00	9.251701e-01	8.583197e+13	1.064839e+14	1.900497e+13	5.718930e+03	3.151118e+03	2.278432e+03	0	4.124145e-04
3.800000e+08	4.031917e+12	0.000000e+00	9.251701e-01	8.556904e+13	1.063561e+14	1.890727e+13	5.715311e+03	3.150495e+03	2.277981e+03	0	4.117183e-04
3.900000e+08	4.011550e+12	0.000000e+00	9.251701e-01	8.530762e+13	1.062110e+14	1.881027e+13	5.711702e+03	3.149786e+03	2.277469e+03	0	4.110239e-04
4.000000e+08	3.991304e+12	0.000000e+00	9.251701e-01	8.504767e+13	1.060500e+14	1.871398e+13	5.708105e+03	3.148999e+03	2.276899e+03	0	4.103312e-04
4.100000e+08	3.971176e+12	0.000000e+00	9.251701e-01	8.478917e+13	1.058745e+14	1.861838e+13	5.704518e+03	3.148140e+03	2.276278e+03	0	4.096403e-04
4.200000e+08	3.951166e+12	0.000000e+00	9.251701e-01	8.453211e+13	1.056859e+14	1.852347e+13	5.700943e+03	3.147216e+03	2.275610e+03	0	4.089511e-04
4.300000e+08	3.931270e+12	0.000000e+00	9.251701e-01	8.427646e+13	1.054853e+14	1.842925e+13	5.697378e+03	3.146232e+03	2.274898e+03	0	4.082635e-04
4.400000e+08	3.911488e+12	0.000000e+00	9.251701e-01	8.402221e+13	1.052739e+14	1.833570e+13	5.693824e+03	3.145192e+03	2.274147e+03	0	4.075776e-04
4.500000e+08	3.891817e+12	0.000000e+00	9.251701e-01	8.376933e+13	1.050526e+14	1.824282e+13	5.690281e+03	3.144103e+03	2.273359e+03	0	4.068932e-04
4.600000e+08	3.872257e+12	0.000000e+00	9.251701e-01	8.351780e+13	1.048224e+14	1.815061e+13	5.686748e+03	3.142968e+03	2.272539e+03	0	4.062104e-04
4.700000e+08	3.852806e+12	0.000000e+00	9.251701e-01	8.326761e+13	1.045841e+14	1.805907e+13	5.683226e+03	3.141792e+03	2.271688e+03	0	4.055291e-04
4.800000e+08	3.833462e+12	0.000000e+00	9.251701e-01	8.301875e+13	1.043386e+14	1.796817e+13	5.679715e+03	3.140577e+03	2.270810e+03	0	4.048492e-04
4.900000e+08	3.814224e+12	0.000000e+00	9.251701e-01	8.277118e+13	1.040865e+14	1.787793e+13	5.676214e+03	3.139328e+03	2.269907e+03	0	4.041709e-04
5.000000e+08	3.795091e+12	0.000000e+00	9.251701e-01	8.252491e+13	1.038285e+14	1.778834e+13	5.672724e+03	3.138047e+03	2.268981e+03	0	4.034939e-04
5.100000e+08	3.776061e+12	0.000000e+00	9.251701e-01	8.227991e+13	1.035653e+14	1.769938e+13	5.669243e+03	3.136738e+03	2.268034e+03	0	4.028184e-04
5.200000e+08	3.757134e+12	0.000000e+00	9.251701e-01	8.203617e+13	1.032974e+14	1.761106e+13	5.665774e+03	3.135403e+03	2.267069e+03	0	4.021442e-04
5.300000e+08	3.738307e+12	0.000000e+00	9.251701e-01	8.179368e+13	1.030252e+14	1.752337e+13	5.662314e+03	3.134044e+03	2.266086e+03	0	4.014714e-04
5.400000e+08	3.719581e+12	0.000000e+00	9.251701e-01	8.155242e+13	1.027493e+14	1.743630e+13	5.658865e+03	3.132664e+03	2.265088e+03	0	4.007999e-04
5.500000e+08	3.700953e+12	0.000000e+00	9.251701e-01	8.131237e+13	1.024702e+14	1.734986e+13	5.655425e+03	3.131265e+03	2.264076e+03	0	4.001297e-04
5.600000e+08	3.682423e+12	0.000000e+00	9.251701e-01	8.107354e+13	1.021881e+14	1.726402e+13	5.651996e+03	3.129848e+03	2.263052e+03	0	3.994608e-04
5.700000e+08	3.663990e+12	0.000000e+00	9.251701e-01	8.083589e+13	1.019035e+14	1.717880e+13	5.648577e+03	3.128415e+03	2.262016e+03	0	3.987932e-04
5.800000e+08	3.645652e+12	0.000000e+00	9.251701e-01	8.059943e+13	1.016167e+14	1.709418e+13	5.645168e+03	3.126969e+03	2.260970e+03	0	3.981268e-04
5.900000e+08	3.627410e+12	0.000000e+00	9.251701e-01	8.036414e+13	1.013280e+14	1.701016e+13	5.641769e+03	3.125510e+03	2.259915e+03	0	3.974616e-04
6.000000e+08	3.609262e+12	0.000000e+00	9.251701e-01	8.013002e+13	1.010377e+14	1.692674e+13	5.638380e+03	3.124039e+03	2.258852e+03	0	3.967976e-04
6.100000e+08	3.591206e+12	0.000000e+00	9.251701e-01	7.989704e+13	1.007460e+14	1.684391e+13	5.635001e+03	3.122559e+03	2.257782e+03	0	3.961349e-04
6.200000e+08	3.573243e+12	0.000000e+00	9.251701e-01	7.966520e+13	1.004533e+14	1.676166e+13	5.631631e+03	3.121069e+03	2.256705e+03	0	3.954733e-04
6.300000e+08	3.555371e+12	0.000000e+00	9.251701e-01	7.943450e+13	1.001596e+14	1.667999e+13	5.628272e+03	3.119572e+03	2.255622e+03	0	3.948128e-04
6.400000e+08	3.537590e+12	0.000000e+00	9.251701e-01	7.920491e+13	9.986520e+13	1.659890e+13	5.624922e+03	3.118068e+03	2.254534e+03	0	3.941536e-04
6.500000e+08	3.519899e+12	0.000000e+00	9.251701e-01	7.897643e+13	9.957026e+13	1.651838e+13	5.621582e+03	3.116558e+03	2.253443e+03	0	3.934954e-04
6.600000e+08	3.502297e+12	0.000000e+00	9.251701e-01	7.874906e+13	9.927498e+13	1.643842e+13	5.618251e+03	3.115042e+03	2.252347e+03	0	3.928384e-04
6.700000e+08	3.484783e+12	0.000000e+00	9.251701e-01	7.852278e+13	9.897949e+13	1.635903e+13	5.614930e+03	3.113523e+03	2.251248e+03	0	3.921825e-04
6.800000e+08	3.467357e+12	0.000000e+00	9.251701e-01	7.829759e+13	9.868392e+13	1.628020e+13	5.611618e+03	3.111999e+03	2.250146e+03	0	3.915277e-04
6.900000e+08	3.450018e+12	0.000000e+00	9.251701e-01	7.807347e+13	9.838840e+13	1.620192e+13	5.608316e+03	3.110472e+03	2.249042e+03	0	3.908740e-04
7.000000e+08	3.432765e+12	0.000000e+00	9.251701e-01	7.785041e+13	9.809304e+13	1.612419e+13	5.605024e+03	3.108943e+03	2.247937e+03	0	3.902213e-04
7.100000e+08	3.415598e+12	0.000000e+00	9.251701e-01	7.762842e+13	9.779797e+13	1.604700e+13	5.601740e+03	3.107412e+03	2.246830e+03	0	3.895697e-04
7.200000e+08	3.398515e+12	0.000000e+00	9.251701e-01	7.740748e+13	9.750325e+13	1.597035e+13	5.598466e+03	3.105879e+03	2.245721e+03	0	3.889192e-04
7.300000e+08	3.381517e+12	0.000000e+00	9.251701e-01	7.718758e+13	9.720899e+13	1.589424e+13	5.595202e+03	3.104345e+03	2.244612e+03	0	3.882697e-04
7.400000e+08	3.364603e+12	0.000000e+00	9.251701e-01	7.696872e+13	9.691526e+13	1.581866e+13	5.591947e+03	3.102811e+03	2.243503e+03	0	3.876212e-04
7.500000e+08	3.347771e+12	0.000000e+00	9.251701e-01	7.675089e+13	9.662214e+13	1.574360e+13	5.588701e+03	3.101276e+03	2.242393e+03	0	3.869738e-04
7.600000e+08	3.331023e+12	0.000000e+00	9.251701e-01	7.653408e+13	9.632968e+13	1.566907e+13	5.585464e+03	3.099741e+03	2.241283e+03	0	3.863274e-04
7.700000e+08	3.314355e+12	0.000000e+00	9.251701e-01	7.631828e+13	9.603796e+13	1.559506e+13	5.582236e+03	3.098207e+03	2.240174e+03	0	3.856819e-04
7.800000e+08	3.297770e+12	0.000000e+00	9.251701e-01	7.610350e+13	9.574702e+13	1.552156e+13	5.579017e+03	3.096673e+03	2.239065e+03	0	3.850375e-04
7.900000e+08	3.281264e+12	0.000000e+00	9.251701e-01	7.588971e+13	9.545693e+13	1.544857e+13	5.575808e+03	3.095140e+03	2.237956e+03	0	3.843941e-04
8.000000e+08	3.264839e+12	0.000000e+00	9.251701e-01	7.567691e+13	9.516772e+13	1.537609e+13	5.572607e+03	3.093608e+03	2.236849e+03	0	3.837516e-04
8.100000e+08	3.248494e+12	0.000000e+00	9.251701e-01	7.546510e+13	9.487943e+13	1.530411e+13	5.569415e+03	3.092078e+03	2.235743e+03	0	3.831101e-04
8.200000e+08	3.232227e+12	0.000000e+00	9.251701e-01	7.525427e+13	9.459208e+13	1.523263e+13	5.566233e+03	3.090550e+03	2.234637e+03	0	3.824696e-04
8.300000e+08	3.216039e+12	0.000000e+00	9.251701e-01	7.504442e+13	9.430573e+13	1.516164e+13	5.563059e+03	3.089023e+03	2.233533e+03	0	3.818300e-04
8.400000e+08	3.199929e+12	0.000000e+00	9.251701e-01	7.483553e+13	9.402041e+13	1.509114e+13	5.559894e+03	3.087498e+03	2.232431e+03	0	3.811914e-04
8.500000e+08	3.183896e+12	0.000000e+00	9.251701e-01	7.462760e+13	9.373614e+13	1.502113e+13	5.556738e+03	3.085976e+03	2.231330e+03	0	3.805537e-04
8.600000e+08	3.167940e+12	0.000000e+00	9.251701e-01	7.442062e+13	9.345292e+13	1.495160e+13	5.553590e+03	3.084456e+03	2.230231e+03	0	3.799169e-04
8.700000e+08	3.152061e+12	0.000000e+00	9.251701e-01	7.421459e+13	9.317080e+13	1.488255e+13	5.550451e+03	3.082938e+03	2.229133e+03	0	3.792811e-04
8.800000e+08	3.136257e+12	0.000000e+00	9.251701e-01	7.400950e+13	9.288979e+13	1.481398e+13	5.547321e+03	3.081423e+03	2.228038e+03	0	3.786461e-04
8.900000e+08	3.120529e+12	0.000000e+00	9.251701e-01	7.380535e+13	9.260992e+13	1.474588e+13	5.544200e+03	3.079910e+03	2.226944e+03	0	3.780121e-04
9.000000e+08	3.104875e+12	0.000000e+00	9.251701e-01	7.360213e+13	9.233117e+13	1.467824e+13	5.541087e+03	3.078400e+03	2.225853e+03	0	3.773789e-04
9.100000e+08	3.089296e+12	0.000000e+00	9.251701e-01	7.339983e+13	9.205359e+13	1.461107e+13	5.537983e+03	3.076893e+03	2.224763e+03	0	3.767467e-04
9.200000e+08	3.073791e+12	0.000000e+00	9.251701e-01	7.319845e+13	9.177716e+13	1.454436e+13	5.534887e+03	3.075389e+03	2.223676e+03	0	3.761153e-04
9.300000e+08	3.058359e+12	0.000000e+00	9.251701e-01	7.299798e+13	9.150193e+13	1.447810e+13	5.531800e+03	3.073888e+03	2.222590e+03	0	3.754849e-04
9.400000e+08	3.043000e+12	0.000000e+00	9.251701e-01	7.279841e+13	9.122787e+13	1.441230e+13	5.528721e+03	3.072391e+03	2.221507e+03	0	3.748552e-04
9.500000e+08	3.027713e+12	0.000000e+00	9.251701e-01	7.259975e+13	9.095500e+13	1.434694e+13	5.525651e+03	3.070896e+03	2.220427e+03	0	3.742265e-04
9.600000e+08	3.012499e+12	0.000000e+00	9.251701e-01	7.240197e+13	9.068333e+13	1.428203e+13	5.522589e+03	3.069405e+03	2.219348e+03	0	3.735986e-04
9.700000e+08	2.997355e+12	0.000000e+00	9.251701e-01	7.220509e+13	9.041287e+13	1.421757e+13	5.519535e+03	3.067917e+03	2.218272e+03	0	3.729715e-04
9.800000e+08	2.982283e+12	0.000000e+00	9.251701e-01	7.200909e+13	9.014360e+13	1.415354e+13	5.516490e+03	3.066432e+03	2.217199e+03	0	3.723453e-04
9.900000e+08	2.967282e+12	0.000000e+00	9.251701e-01	7.181397e+13	8.987555e+13	1.408995e+13	5.513453e+03	3.064951e+03	2.216128e+03	0	3.717200e-04
1.000000e+09	2.952350e+12	0.000000e+00	9.251701e-01	7.161972e+13	8.960871e+13	1.402679e+13	5.510424e+03	3.063473e+03	2.215059e+03	0	3.710954e-04
1.010000e+09	2.937489e+12	0.000000e+00	9.251701e-01	7.142633e+13	8.934308e+13	1.396405e+13	5.507403e+03	3.061998e+03	2.213993e+03	0	3.704717e-04
1.020000e+09	2.922696e+12	0.000000e+00	9.251701e-01	7.123381e+13	8.907866e+13	1.390175e+13	5.504391e+03	3.060527e+03	2.212929e+03	0	3.698488e-04
1.030000e+09	2.907973e+12	0.000000e+00	9.251701e-01	7.104214e+13	8.881545e+13	1.383986e+13	5.501386e+03	3.059060e+03	2.211868e+03	0	3.692267e-04
1.040000e+09	2.893318e+12	0.000000e+00	9.251701e-01	7.085132e+13	8.855347e+13	1.377839e+13	5.498390e+03	3.057596e+03	2.210810e+03	0	3.686054e-04
1.050000e+09	2.878730e+12	0.000000e+00	9.251701e-01	7.066135e+13	8.829269e+13	1.371734e+13	5.495402e+03	3.056135e+03	2.209754e+03	0	3.679848e-04
1.060000e+09	2.864211e+12	0.000000e+00	9.251701e-01	7.047222e+13	8.803312e+13	1.365670e+13	5.492421e+03	3.054678e+03	2.208700e+03	0	3.673651e-04
1.070000e+09	2.849758e+12	0.000000e+00	9.251701e-01	7.028392e+13	8.777475e+13	1.359647e+13	5.489449e+03	3.053225e+03	2.207649e+03	0	3.667462e-04
1.080000e+09	2.835372e+12	0.000000e+00	9.251701e-01	7.009646e+13	8.751759e+13	1.353664e+13	5.486484e+03	3.051775e+03	2.206601e+03	0	3.661280e-04
1.090000e+09	2.821052e+12	0.000000e+00	9.251701e-01	6.990981e+13	8.726162e+13	1.347722e+13	5.483528e+03	3.050329e+03	2.205556e+03	0	3.655106e-04
1.100000e+09	2.806799e+12	0.000000e+00	9.251701e-01	6.972399e+13	8.700686e+13	1.341819e+13	5.480579e+03	3.048887e+03	2.204513e+03	0	3.648940e-04
1.110000e+09	2.792610e+12	0.000000e+00	9.251701e-01	6.953898e+13	8.675330e+13	1.335956e+13	5.477638e+03	3.047448e+03	2.203472e+03	0	3.642781e-04
1.120000e+09	2.778487e+12	0.000000e+00	9.251701e-01	6.935479e+13	8.650093e+13	1.330133e+13	5.474705e+03	3.046013e+03	2.202435e+03	0	3.636630e-04
1.130000e+09	2.764428e+12	0.000000e+00	9.251701e-01	6.917139e+13	8.624974e+13	1.324348e+13	5.471780e+03	3.044581e+03	2.201400e+03	0	3.630486e-04
1.140000e+09	2.750434e+12	0.000000e+00	9.251701e-01	6.898880e+13	8.599974e+13	1.318602e+13	5.468863e+03	3.043153e+03	2.200367e+03	0	3.624349e-04
1.150000e+09	2.736504e+12	0.000000e+00	9.251701e-01	6.880700e+13	8.575090e+13	1.312894e+13	5.465953e+03	3.041729e+03	2.199337e+03	0	3.618220e-04
1.160000e+09	2.722637e+12	0.000000e+00	9.251701e-01	6.862600e+13	8.550325e+13	1.307224e+13	5.463051e+03	3.040309e+03	2.198310e+03	0	3.612098e-04
1.170000e+09	2.708833e+12	0.000000e+00	9.251701e-01	6.844577e+13	8.525677e+13	1.301593e+13	5.460156e+03	3.038892e+03	2.197286e+03	0	3.605983e-04
1.180000e+09	2.695091e+12	0.000000e+00	9.251701e-01	6.826633e+13	8.501144e+13	1.295998e+13	5.457269e+03	3.037478e+03	2.196264e+03	0	3.599875e-04
1.190000e+09	2.681412e+12	0.000000e+00	9.251701e-01	6.808767e+13	8.476728e+13	1.290441e+13	5.454390e+03	3.036069e+03	2.195245e+03	0	3.593774e-04
1.200000e+09	2.667795e+12	0.000000e+00	9.251701e-01	6.790978e+13	8.452426e+13	1.284921e+13	5.451518e+03	3.034663e+03	2.194228e+03	0	3.587681e-04
1.210000e+09	2.654240e+12	0.000000e+00	9.251701e-01	6.773265e+13	8.428240e+13	1.279437e+13	5.448654e+03	3.033260e+03	2.193214e+03	0	3.581594e-04
1.220000e+09	2.640746e+12	0.000000e+00	9.251701e-01	6.755629e+13	8.404169e+13	1.273990e+13	5.445797e+03	3.031862e+03	2.192203e+03	0	3.575514e-04
1.230000e+09	2.627312e+12	0.000000e+00	9.251701e-01	6.738068e+13	8.380209e+13	1.268578e+13	5.442947e+03	3.030467e+03	2.191194e+03	0	3.569441e-04
1.240000e+09	2.613939e+12	0.000000e+00	9.251701e-01	6.720583e+13	8.356364e+13	1.263203e+13	5.440105e+03	3.029075e+03	2.190188e+03	0	3.563374e-04
1.250000e+09	2.600627e+12	0.000000e+00	9.251701e-01	6.703173e+13	8.332630e+13	1.257863e+13	5.437270e+03	3.027687e+03	2.189184e+03	0	3.557315e-04
1.260000e+09	2.587373e+12	0.000000e+00	9.251701e-01	6.685837e+13	8.309009e+13	1.252558e+13	5.434443e+03	3.026303e+03	2.188183e+03	0	3.551262e-04
1.270000e+09	2.574180e+12	0.000000e+00	9.251701e-01	6.668576e+13	8.285499e+13	1.247288e+13	5.431623e+03	3.024922e+03	2.187185e+03	0	3.545215e-04
1.280000e+09	2.561045e+12	0.000000e+00	9.251701e-01	6.651388e+13	8.262100e+13	1.242053e+13	5.428810e+03	3.023545e+03	2.186189e+03	0	3.539175e-04
1.290000e+09	2.547969e+12	0.000000e+00	9.251701e-01	6.634273e+13	8.238810e+13	1.236852e+13	5.426005e+03	3.022172e+03	2.185196e+03	0	3.533141e-04
1.300000e+09	2.534951e+12	0.000000e+00	9.251701e-01	6.617230e+13	8.215630e+13	1.231685e+13	5.423206e+03	3.020802e+03	2.184206e+03	0	3.527114e-04
1.310000e+09	2.521991e+12	0.000000e+00	9.251701e-01	6.600261e+13	8.192560e+13	1.226552e+13	5.420415e+03	3.019436e+03	2.183218e+03	0	3.521093e-04
1.320000e+09	2.509089e+12	0.000000e+00	9.251701e-01	6.583363e+13	8.169597e+13	1.221453e+13	5.417631e+03	3.018073e+03	2.182232e+03	0	3.515078e-04
1.330000e+09	2.496244e+12	0.000000e+00	9.251701e-01	6.566536e+13	8.146742e+13	1.216387e+13	5.414854e+03	3.016713e+03	2.181250e+03	0	3.509069e-04
1.340000e+09	2.483456e+12	0.000000e+00	9.251701e-01	6.549781e+13	8.123993e+13	1.211355e+13	5.412084e+03	3.015358e+03	2.180269e+03	0	3.503067e-04
1.350000e+09	2.470725e+12	0.000000e+00	9.251701e-01	6.533096e+13	8.101352e+13	1.206355e+13	5.409322e+03	3.014006e+03	2.179292e+03	0	3.497071e-04
1.360000e+09	2.458050e+12	0.000000e+00	9.251701e-01	6.516481e+13	8.078816e+13	1.201387e+13	5.406566e+03	3.012657e+03	2.178317e+03	0	3.491080e-04
