#t		Qconv[W]	Ri[Rp]		R*[Rp]		Qc[W]		Qm[W]		Qr[W]		Tcmb[K]		Tl[K]		Tup[K]		RiFlag		Bs[T]
0.000000e+00	1.243570e+13	0.000000e+00	5.327102e-01	3.975594e+14	9.734618e+14	8.152368e+13	9.009002e+03	2.998645e+03	2.352101e+03	0	8.720687e-04
1.000000e+07	1.143666e+13	0.000000e+00	5.327102e-01	3.659020e+14	8.679236e+14	8.107198e+13	8.867788e+03	2.950114e+03	2.314033e+03	0	8.480610e-04
2.000000e+07	1.057059e+13	0.000000e+00	5.327102e-01	3.384539e+14	7.834477e+14	8.062366e+13	8.737561e+03	2.908489e+03	2.281383e+03	0	8.260893e-04
3.000000e+07	9.813084e+12	0.000000e+00	5.327102e-01	3.144435e+14	7.143413e+14	8.017868e+13	8.616888e+03	2.872239e+03	2.252949e+03	0	8.058654e-04
4.000000e+07	9.145407e+12	0.000000e+00	5.327102e-01	2.932775e+14	6.567788e+14	7.973703e+13	8.504596e+03	2.840265e+03	2.227869e+03	0	7.871576e-04
5.000000e+07	8.552886e+12	0.000000e+00	5.327102e-01	2.744915e+14	6.080994e+14	7.929868e+13	8.399711e+03	2.811760e+03	2.205510e+03	0	7.697769e-04
6.000000e+07	8.023873e+12	0.000000e+00	5.327102e-01	2.577167e+14	5.663979e+14	7.886359e+13	8.301415e+03	2.786113e+03	2.185393e+03	0	7.535673e-04
7.000000e+07	7.548995e+12	0.000000e+00	5.327102e-01	2.426566e+14	5.302756e+14	7.843174e+13	8.209015e+03	2.762856e+03	2.167151e+03	0	7.383978e-04
8.000000e+07	7.120623e+12	0.000000e+00	5.327102e-01	2.290695e+14	4.986833e+14	7.800310e+13	8.121917e+03	2.741622e+03	2.150495e+03	0	7.241580e-04
9.000000e+07	6.732483e+12	0.000000e+00	5.327102e-01	2.167568e+14	4.708187e+14	7.757765e+13	8.039613e+03	2.722119e+03	2.135197e+03	0	7.107536e-04
1.000000e+08	6.379371e+12	0.000000e+00	5.327102e-01	2.055539e+14	4.460582e+14	7.715536e+13	7.961659e+03	2.704111e+03	2.121072e+03	0	6.981037e-04
1.100000e+08	6.056930e+12	0.000000e+00	5.327102e-01	1.953226e+14	4.239100e+14	7.673620e+13	7.887669e+03	2.687406e+03	2.107968e+03	0	6.861381e-04
1.200000e+08	5.761488e+12	0.000000e+00	5.327102e-01	1.859469e+14	4.039807e+14	7.632015e+13	7.817305e+03	2.671844e+03	2.095762e+03	0	6.747956e-04
1.300000e+08	5.489927e+12	0.000000e+00	5.327102e-01	1.773278e+14	3.859523e+14	7.590718e+13	7.750268e+03	2.657295e+03	2.084350e+03	0	6.640226e-04
1.400000e+08	5.239584e+12	0.000000e+00	5.327102e-01	1.693811e+14	3.695647e+14	7.549727e+13	7.686292e+03	2.643645e+03	2.073643e+03	0	6.537719e-04
1.500000e+08	5.008171e+12	0.000000e+00	5.327102e-01	1.620344e+14	3.546033e+14	7.509039e+13	7.625143e+03	2.630801e+03	2.063568e+03	0	6.440018e-04
1.600000e+08	4.793712e+12	0.000000e+00	5.327102e-01	1.552250e+14	3.408892e+14	7.468651e+13	7.566610e+03	2.618681e+03	2.054062e+03	0	6.346749e-04
1.700000e+08	4.594491e+12	0.000000e+00	5.327102e-01	1.488986e+14	3.282723e+14	7.428561e+13	7.510503e+03	2.607216e+03	2.045069e+03	0	6.257581e-04
1.800000e+08	4.409011e+12	0.000000e+00	5.327102e-01	1.430078e+14	3.166257e+14	7.388767e+13	7.456654e+03	2.596346e+03	2.036542e+03	0	6.172215e-04
1.900000e+08	4.235963e+12	0.000000e+00	5.327102e-01	1.375111e+14	3.058413e+14	7.349266e+13	7.404908e+03	2.586017e+03	2.028440e+03	0	6.090385e-04
2.000000e+08	4.074194e+12	0.000000e+00	5.327102e-01	1.323719e+14	2.958265e+14	7.310056e+13	7.355126e+03	2.576184e+03	2.020728e+03	0	6.011846e-04
2.100000e+08	3.922685e+12	0.000000e+00	5.327102e-01	1.275581e+14	2.865015e+14	7.271133e+13	7.307182e+03	2.566806e+03	2.013372e+03	0	5.936382e-04
2.200000e+08	3.780537e+12	0.000000e+00	5.327102e-01	1.230411e+14	2.777970e+14	7.232497e+13	7.260961e+03	2.557847e+03	2.006344e+03	0	5.863791e-04
2.300000e+08	3.646949e+12	0.000000e+00	5.327102e-01	1.187956e+14	2.696530e+14	7.194144e+13	7.216358e+03	2.549274e+03	1.999620e+03	0	5.793894e-04
2.400000e+08	3.521205e+12	0.000000e+00	5.327102e-01	1.147988e+14	2.620166e+14	7.156073e+13	7.173277e+03	2.541060e+03	1.993177e+03	0	5.726524e-04
2.500000e+08	3.402667e+12	0.000000e+00	5.327102e-01	1.110305e+14	2.548417e+14	7.118280e+13	7.131630e+03	2.533178e+03	1.986995e+03	0	5.661530e-04
2.600000e+08	3.290763e+12	0.000000e+00	5.327102e-01	1.074727e+14	2.480874e+14	7.080764e+13	7.091335e+03	2.525606e+03	1.981055e+03	0	5.598773e-04
2.700000e+08	3.184977e+12	0.000000e+00	5.327102e-01	1.041090e+14	2.417174e+14	7.043522e+13	7.052318e+03	2.518322e+03	1.975342e+03	0	5.538125e-04
2.800000e+08	3.084845e+12	0.000000e+00	5.327102e-01	1.009246e+14	2.356998e+14	7.006553e+13	7.014509e+03	2.511308e+03	1.969840e+03	0	5.479468e-04
2.900000e+08	2.989947e+12	0.000000e+00	5.327102e-01	9.790621e+13	2.300057e+14	6.969853e+13	6.977845e+03	2.504547e+03	1.964536e+03	0	5.422695e-04
3.000000e+08	2.899903e+12	0.000000e+00	5.327102e-01	9.504187e+13	2.246096e+14	6.933420e+13	6.942267e+03	2.498022e+03	1.959418e+03	0	5.367703e-04
3.100000e+08	2.814367e+12	0.000000e+00	5.327102e-01	9.232060e+13	2.194884e+14	6.897253e+13	6.907720e+03	2.491720e+03	1.954475e+03	0	5.314400e-04
3.200000e+08	2.733027e+12	0.000000e+00	5.327102e-01	8.973244e+13	2.146215e+14	6.861349e+13	6.874152e+03	2.485627e+03	1.949696e+03	0	5.262700e-04
3.300000e+08	2.655595e+12	0.000000e+00	5.327102e-01	8.726832e+13	2.099901e+14	6.825707e+13	6.841517e+03	2.479732e+03	1.945072e+03	0	5.212523e-04
3.400000e+08	2.581811e+12	0.000000e+00	5.327102e-01	8.491995e+13	2.055773e+14	6.790323e+13	6.809770e+03	2.474024e+03	1.940594e+03	0	5.163793e-04
3.500000e+08	2.511434e+12	0.000000e+00	5.327102e-01	8.267975e+13	2.013678e+14	6.755195e+13	6.778870e+03	2.468491e+03	1.936255e+03	0	5.116441e-04
3.600000e+08	2.444247e+12	0.000000e+00	5.327102e-01	8.054077e+13	1.973477e+14	6.720323e+13	6.748777e+03	2.463126e+03	1.932046e+03	0	5.070401e-04
3.700000e+08	2.380046e+12	0.000000e+00	5.327102e-01	7.849663e+13	1.935042e+14	6.685703e+13	6.719457e+03	2.457919e+03	1.927962e+03	0	5.025614e-04
3.800000e+08	2.318648e+12	0.000000e+00	5.327102e-01	7.654144e+13	1.898259e+14	6.651333e+13	6.690874e+03	2.452862e+03	1.923995e+03	0	4.982022e-04
3.900000e+08	2.259882e+12	0.000000e+00	5.327102e-01	7.466981e+13	1.863020e+14	6.617212e+13	6.662997e+03	2.447947e+03	1.920140e+03	0	4.939571e-04
4.000000e+08	2.203589e+12	0.000000e+00	5.327102e-01	7.287674e+13	1.829229e+14	6.583337e+13	6.635797e+03	2.443168e+03	1.916391e+03	0	4.898212e-04
4.100000e+08	2.149626e+12	0.000000e+00	5.327102e-01	7.115762e+13	1.796796e+14	6.549707e+13	6.609244e+03	2.438518e+03	1.912744e+03	0	4.857897e-04
4.200000e+08	2.097857e+12	0.000000e+00	5.327102e-01	6.950819e+13	1.765639e+14	6.516319e+13	6.583313e+03	2.433991e+03	1.909193e+03	0	4.818583e-04
4.300000e+08	2.048158e+12	0.000000e+00	5.327102e-01	6.792450e+13	1.735684e+14	6.483172e+13	6.557978e+03	2.429582e+03	1.905734e+03	0	4.780227e-04
4.400000e+08	2.000413e+12	0.000000e+00	5.327102e-01	6.640287e+13	1.706859e+14	6.450263e+13	6.533216e+03	2.425284e+03	1.902363e+03	0	4.742790e-04
4.500000e+08	1.954515e+12	0.000000e+00	5.327102e-01	6.493990e+13	1.679100e+14	6.417590e+13	6.509005e+03	2.421094e+03	1.899077e+03	0	4.706236e-04
4.600000e+08	1.910364e+12	0.000000e+00	5.327102e-01	6.353242e+13	1.652349e+14	6.385152e+13	6.485323e+03	2.417005e+03	1.895870e+03	0	4.670528e-04
4.700000e+08	1.867867e+12	0.000000e+00	5.327102e-01	6.217749e+13	1.626548e+14	6.352947e+13	6.462150e+03	2.413015e+03	1.892740e+03	0	4.635635e-04
4.800000e+08	1.826936e+12	0.000000e+00	5.327102e-01	6.087235e+13	1.601648e+14	6.320972e+13	6.439469e+03	2.409119e+03	1.889684e+03	0	4.601525e-04
4.900000e+08	1.787493e+12	0.000000e+00	5.327102e-01	5.961444e+13	1.577601e+14	6.289226e+13	6.417260e+03	2.405312e+03	1.886698e+03	0	4.568168e-04
5.000000e+08	1.749460e+12	0.000000e+00	5.327102e-01	5.840135e+13	1.554361e+14	6.257708e+13	6.395506e+03	2.401592e+03	1.883780e+03	0	4.535537e-04
5.100000e+08	1.712767e+12	0.000000e+00	5.327102e-01	5.723086e+13	1.531887e+14	6.226414e+13	6.374193e+03	2.397955e+03	1.880927e+03	0	4.503603e-04
5.200000e+08	1.677349e+12	0.000000e+00	5.327102e-01	5.610086e+13	1.510142e+14	6.195344e+13	6.353303e+03	2.394397e+03	1.878136e+03	0	4.472343e-04
5.300000e+08	1.643142e+12	0.000000e+00	5.327102e-01	5.500938e+13	1.489088e+14	6.164495e+13	6.332824e+03	2.390915e+03	1.875405e+03	0	4.441732e-04
5.400000e+08	1.610090e+12	0.000000e+00	5.327102e-01	5.395457e+13	1.468692e+14	6.133867e+13	6.312740e+03	2.387507e+03	1.872732e+03	0	4.411748e-04
5.500000e+08	1.578137e+12	0.000000e+00	5.327102e-01	5.293472e+13	1.448922e+14	6.103456e+13	6.293038e+03	2.384170e+03	1.870114e+03	0	4.382368e-04
5.600000e+08	1.547232e+12	0.000000e+00	5.327102e-01	5.194818e+13	1.429750e+14	6.073261e+13	6.273707e+03	2.380901e+03	1.867550e+03	0	4.353572e-04
5.700000e+08	1.517326e+12	0.000000e+00	5.327102e-01	5.099343e+13	1.411146e+14	6.043281e+13	6.254734e+03	2.377697e+03	1.865037e+03	0	4.325341e-04
5.800000e+08	1.488376e+12	0.000000e+00	5.327102e-01	5.006903e+13	1.393086e+14	6.013513e+13	6.236107e+03	2.374557e+03	1.862574e+03	0	4.297655e-04
5.900000e+08	1.460337e+12	0.000000e+00	5.327102e-01	4.917363e+13	1.375544e+14	5.983956e+13	6.217816e+03	2.371478e+03	1.860158e+03	0	4.270496e-04
6.000000e+08	1.433169e+12	0.000000e+00	5.327102e-01	4.830593e+13	1.358497e+14	5.954609e+13	6.199850e+03	2.368457e+03	1.857789e+03	0	4.243848e-04
6.100000e+08	1.406835e+12	0.000000e+00	5.327102e-01	4.746474e+13	1.341924e+14	5.925469e+13	6.182199e+03	2.365493e+03	1.855464e+03	0	4.217694e-04
6.200000e+08	1.381299e+12	0.000000e+00	5.327102e-01	4.664891e+13	1.325804e+14	5.896536e+13	6.164854e+03	2.362584e+03	1.853182e+03	0	4.192019e-04
6.300000e+08	1.356526e+12	0.000000e+00	5.327102e-01	4.585738e+13	1.310118e+14	5.867806e+13	6.147805e+03	2.359728e+03	1.850942e+03	0	4.166807e-04
6.400000e+08	1.332484e+12	0.000000e+00	5.327102e-01	4.508911e+13	1.294848e+14	5.839279e+13	6.131043e+03	2.356923e+03	1.848742e+03	0	4.142044e-04
6.500000e+08	1.309144e+12	0.000000e+00	5.327102e-01	4.434314e+13	1.279977e+14	5.810953e+13	6.114561e+03	2.354168e+03	1.846581e+03	0	4.117717e-04
6.600000e+08	1.286476e+12	0.000000e+00	5.327102e-01	4.361857e+13	1.265488e+14	5.782826e+13	6.098350e+03	2.351461e+03	1.844457e+03	0	4.093812e-04
6.700000e+08	1.264454e+12	0.000000e+00	5.327102e-01	4.291453e+13	1.251366e+14	5.754897e+13	6.082402e+03	2.348800e+03	1.842370e+03	0	4.070318e-04
6.800000e+08	1.243050e+12	0.000000e+00	5.327102e-01	4.223020e+13	1.237596e+14	5.727164e+13	6.066711e+03	2.346183e+03	1.840318e+03	0	4.047221e-04
6.900000e+08	1.222242e+12	0.000000e+00	5.327102e-01	4.156479e+13	1.224164e+14	5.699626e+13	6.051268e+03	2.343611e+03	1.838300e+03	0	4.024511e-04
7.000000e+08	1.202005e+12	0.000000e+00	5.327102e-01	4.091758e+13	1.211058e+14	5.672281e+13	6.036067e+03	2.341080e+03	1.836315e+03	0	4.002175e-04
7.100000e+08	1.182318e+12	0.000000e+00	5.327102e-01	4.028785e+13	1.198266e+14	5.645127e+13	6.021102e+03	2.338591e+03	1.834362e+03	0	3.980205e-04
7.200000e+08	1.163159e+12	0.000000e+00	5.327102e-01	3.967495e+13	1.185774e+14	5.618163e+13	6.006366e+03	2.336141e+03	1.832441e+03	0	3.958589e-04
7.300000e+08	1.144509e+12	0.000000e+00	5.327102e-01	3.907824e+13	1.173572e+14	5.591388e+13	5.991852e+03	2.333729e+03	1.830549e+03	0	3.937317e-04
7.400000e+08	1.126349e+12	0.000000e+00	5.327102e-01	3.849711e+13	1.161650e+14	5.564799e+13	5.977556e+03	2.331355e+03	1.828687e+03	0	3.916381e-04
7.500000e+08	1.108659e+12	0.000000e+00	5.327102e-01	3.793099e+13	1.149997e+14	5.538396e+13	5.963472e+03	2.329017e+03	1.826853e+03	0	3.895771e-04
7.600000e+08	1.091425e+12	0.000000e+00	5.327102e-01	3.737933e+13	1.138604e+14	5.512177e+13	5.949593e+03	2.326714e+03	1.825046e+03	0	3.875478e-04
7.700000e+08	1.074627e+12	0.000000e+00	5.327102e-01	3.684161e+13	1.127461e+14	5.486140e+13	5.935916e+03	2.324445e+03	1.823267e+03	0	3.855493e-04
7.800000e+08	1.058252e+12	0.000000e+00	5.327102e-01	3.631733e+13	1.116560e+14	5.460284e+13	5.922434e+03	2.322210e+03	1.821513e+03	0	3.835810e-04
7.900000e+08	1.042285e+12	0.000000e+00	5.327102e-01	3.580602e+13	1.105892e+14	5.434608e+13	5.909143e+03	2.320006e+03	1.819785e+03	0	3.816419e-04
8.000000e+08	1.026710e+12	0.000000e+00	5.327102e-01	3.530722e+13	1.095449e+14	5.409109e+13	5.896038e+03	2.317835e+03	1.818081e+03	0	3.797314e-04
8.100000e+08	1.011514e+12	0.000000e+00	5.327102e-01	3.482051e+13	1.085225e+14	5.383788e+13	5.883115e+03	2.315693e+03	1.816402e+03	0	3.778487e-04
8.200000e+08	9.966846e+11	0.000000e+00	5.327102e-01	3.434546e+13	1.075211e+14	5.358642e+13	5.870369e+03	2.313581e+03	1.814745e+03	0	3.759931e-04
8.300000e+08	9.822091e+11	0.000000e+00	5.327102e-01	3.388168e+13	1.065400e+14	5.333669e+13	5.857797e+03	2.311499e+03	1.813111e+03	0	3.741640e-04
8.400000e+08	9.680755e+11	0.000000e+00	5.327102e-01	3.342880e+13	1.055786e+14	5.308869e+13	5.845393e+03	2.309444e+03	1.811500e+03	0	3.723606e-04
8.500000e+08	9.542724e+11	0.000000e+00	5.327102e-01	3.298645e+13	1.046363e+14	5.284240e+13	5.833154e+03	2.307417e+03	1.809910e+03	0	3.705824e-04
8.600000e+08	9.407889e+11	0.000000e+00	5.327102e-01	3.255428e+13	1.037125e+14	5.259781e+13	5.821077e+03	2.305416e+03	1.808340e+03	0	3.688287e-04
8.700000e+08	9.276147e+11	0.000000e+00	5.327102e-01	3.213196e+13	1.028065e+14	5.235491e+13	5.809157e+03	2.303441e+03	1.806791e+03	0	3.670990e-04
8.800000e+08	9.147396e+11	0.000000e+00	5.327102e-01	3.171918e+13	1.019179e+14	5.211367e+13	5.797391e+03	2.301492e+03	1.805262e+03	0	3.653927e-04
8.900000e+08	9.021541e+11	0.000000e+00	5.327102e-01	3.131563e+13	1.010461e+14	5.187409e+13	5.785775e+03	2.299567e+03	1.803753e+03	0	3.637092e-04
9.000000e+08	8.898490e+11	0.000000e+00	5.327102e-01	3.092101e+13	1.001905e+14	5.163616e+13	5.774307e+03	2.297667e+03	1.802262e+03	0	3.620480e-04
9.100000e+08	8.778156e+11	0.000000e+00	5.327102e-01	3.053506e+13	9.935071e+13	5.139985e+13	5.762982e+03	2.295790e+03	1.800790e+03	0	3.604086e-04
9.200000e+08	8.660452e+11	0.000000e+00	5.327102e-01	3.015749e+13	9.852625e+13	5.116517e+13	5.751799e+03	2.293935e+03	1.799335e+03	0	3.587904e-04
9.300000e+08	8.545299e+11	0.000000e+00	5.327102e-01	2.978805e+13	9.771665e+13	5.093209e+13	5.740753e+03	2.292104e+03	1.797898e+03	0	3.571931e-04
9.400000e+08	8.432618e+11	0.000000e+00	5.327102e-01	2.942649e+13	9.692149e+13	5.070060e+13	5.729841e+03	2.290293e+03	1.796478e+03	0	3.556161e-04
9.500000e+08	8.322334e+11	0.000000e+00	5.327102e-01	2.907258e+13	9.614035e+13	5.047069e+13	5.719062e+03	2.288505e+03	1.795075e+03	0	3.540591e-04
9.600000e+08	8.214375e+11	0.000000e+00	5.327102e-01	2.872608e+13	9.537283e+13	5.024236e+13	5.708411e+03	2.286737e+03	1.793689e+03	0	3.525214e-04
9.700000e+08	8.108673e+11	0.000000e+00	5.327102e-01	2.838677e+13	9.461854e+13	5.001557e+13	5.697887e+03	2.284989e+03	1.792318e+03	0	3.510028e-04
9.800000e+08	8.005159e+11	0.000000e+00	5.327102e-01	2.805445e+13	9.387712e+13	4.979033e+13	5.687487e+03	2.283261e+03	1.790963e+03	0	3.495028e-04
9.900000e+08	7.903771e+11	0.000000e+00	5.327102e-01	2.772890e+13	9.314821e+13	4.956662e+13	5.677208e+03	2.281553e+03	1.789622e+03	0	3.480210e-04
1.000000e+09	7.804447e+11	0.000000e+00	5.327102e-01	2.740994e+13	9.243146e+13	4.934443e+13	5.667048e+03	2.279863e+03	1.788297e+03	0	3.465570e-04
1.010000e+09	7.707127e+11	0.000000e+00	5.327102e-01	2.709737e+13	9.172655e+13	4.912375e+13	5.657005e+03	2.278192e+03	1.786987e+03	0	3.451105e-04
1.020000e+09	7.611754e+11	0.000000e+00	5.327102e-01	2.679102e+13	9.103317e+13	4.890456e+13	5.647075e+03	2.276539e+03	1.785690e+03	0	3.436810e-04
1.030000e+09	7.518274e+11	0.000000e+00	5.327102e-01	2.649070e+13	9.035100e+13	4.868685e+13	5.637257e+03	2.274904e+03	1.784407e+03	0	3.422683e-04
1.040000e+09	7.426632e+11	0.000000e+00	5.327102e-01	2.619625e+13	8.967975e+13	4.847062e+13	5.627549e+03	2.273286e+03	1.783138e+03	0	3.408720e-04
1.050000e+09	7.336779e+11	0.000000e+00	5.327102e-01	2.590751e+13	8.901913e+13	4.825584e+13	5.617949e+03	2.271686e+03	1.781883e+03	0	3.394917e-04
1.060000e+09	7.248664e+11	0.000000e+00	5.327102e-01	2.562431e+13	8.836888e+13	4.804252e+13	5.608453e+03	2.270101e+03	1.780640e+03	0	3.381271e-04
1.070000e+09	7.162241e+11	0.000000e+00	5.327102e-01	2.534651e+13	8.772872e+13	4.783063e+13	5.599061e+03	2.268533e+03	1.779410e+03	0	3.367779e-04
1.080000e+09	7.077463e+11	0.000000e+00	5.327102e-01	2.507397e+13	8.709841e+13	4.762016e+13	5.589771e+03	2.266981e+03	1.778192e+03	0	3.354439e-04
1.090000e+09	6.994286e+11	0.000000e+00	5.327102e-01	2.480653e+13	8.647770e+13	4.741112e+13	5.580580e+03	2.265444e+03	1.776987e+03	0	3.341246e-04
1.100000e+09	6.912667e+11	0.000000e+00	5.327102e-01	2.454407e+13	8.586634e+13	4.720347e+13	5.571487e+03	2.263923e+03	1.775794e+03	0	3.328198e-04
1.110000e+09	6.832565e+11	0.000000e+00	5.327102e-01	2.428645e+13	8.526411e+13	4.699722e+13	5.562490e+03	2.262416e+03	1.774612e+03	0	3.315293e-04
1.120000e+09	6.753941e+11	0.000000e+00	5.327102e-01	2.403354e+13	8.467079e+13	4.679235e+13	5.553586e+03	2.260924e+03	1.773442e+03	0	3.302527e-04
1.130000e+09	6.676755e+11	0.000000e+00	5.327102e-01	2.378524e+13	8.408617e+13	4.658885e+13	5.544775e+03	2.259447e+03	1.772283e+03	0	3.289898e-04
1.140000e+09	6.600970e+11	0.000000e+00	5.327102e-01	2.354140e+13	8.351002e+13	4.638671e+13	5.536055e+03	2.257983e+03	1.771135e+03	0	3.277404e-04
1.150000e+09	6.526551e+11	0.000000e+00	5.327102e-01	2.330193e+13	8.294217e+13	4.618592e+13	5.527424e+03	2.256533e+03	1.769998e+03	0	3.265041e-04
1.160000e+09	6.453463e+11	0.000000e+00	5.327102e-01	2.306670e+13	8.238240e+13	4.598647e+13	5.518881e+03	2.255097e+03	1.768871e+03	0	3.252807e-04
1.170000e+09	6.381672e+11	0.000000e+00	5.327102e-01	2.283562e+13	8.183054e+13	4.578835e+13	5.510423e+03	2.253674e+03	1.767755e+03	0	3.240700e-04
1.180000e+09	6.311145e+11	0.000000e+00	5.327102e-01	2.260858e+13	8.128639e+13	4.559155e+13	5.502050e+03	2.252264e+03	1.766649e+03	0	3.228717e-04
1.190000e+09	6.241851e+11	0.000000e+00	5.327102e-01	2.238548e+13	8.074979e+13	4.539605e+13	5.493759e+03	2.250867e+03	1.765552e+03	0	3.216857e-04
1.200000e+09	6.173760e+11	0.000000e+00	5.327102e-01	2.216622e+13	8.022057e+13	4.520186e+13	5.485551e+03	2.249482e+03	1.764466e+03	0	3.205117e-04
1.210000e+09	6.106842e+11	0.000000e+00	5.327102e-01	2.195070e+13	7.969855e+13	4.500895e+13	5.477422e+03	2.248109e+03	1.763389e+03	0	3.193495e-04
1.220000e+09	6.041068e+11	0.000000e+00	5.327102e-01	2.173884e+13	7.918359e+13	4.481732e+13	5.469372e+03	2.246748e+03	1.762322e+03	0	3.181988e-04
1.230000e+09	5.976411e+11	0.000000e+00	5.327102e-01	2.153056e+13	7.867552e+13	4.462695e+13	5.461400e+03	2.245399e+03	1.761264e+03	0	3.170595e-04
1.240000e+09	5.912844e+11	0.000000e+00	5.327102e-01	2.132575e+13	7.817419e+13	4.443785e+13	5.453503e+03	2.244062e+03	1.760215e+03	0	3.159314e-04
1.250000e+09	5.850341e+11	0.000000e+00	5.327102e-01	2.112434e+13	7.767946e+13	4.424999e+13	5.445682e+03	2.242736e+03	1.759175e+03	0	3.148143e-04
1.260000e+09	5.788877e+11	0.000000e+00	5.327102e-01	2.092626e+13	7.719119e+13	4.406338e+13	5.437934e+03	2.241421e+03	1.758144e+03	0	3.137079e-04
1.270000e+09	5.728427e+11	0.000000e+00	5.327102e-01	2.073142e+13	7.670924e+13	4.387799e+13	5.430259e+03	2.240118e+03	1.757121e+03	0	3.126121e-04
1.280000e+09	5.668967e+11	0.000000e+00	5.327102e-01	2.053974e+13	7.623348e+13	4.369382e+13	5.422655e+03	2.238825e+03	1.756107e+03	0	3.115267e-04
1.290000e+09	5.610476e+11	0.000000e+00	5.327102e-01	2.035116e+13	7.576377e+13	4.351086e+13	5.415120e+03	2.237542e+03	1.755101e+03	0	3.104516e-04
1.300000e+09	5.552930e+11	0.000000e+00	5.327102e-01	2.016560e+13	7.530000e+13	4.332910e+13	5.407655e+03	2.236270e+03	1.754103e+03	0	3.093865e-04
1.310000e+09	5.496308e+11	0.000000e+00	5.327102e-01	1.998299e+13	7.484204e+13	4.314853e+13	5.400258e+03	2.235008e+03	1.753113e+03	0	3.083313e-04
1.320000e+09	5.440588e+11	0.000000e+00	5.327102e-01	1.980327e+13	7.438977e+13	4.296915e+13	5.392928e+03	2.233756e+03	1.752132e+03	0	3.072859e-04
1.330000e+09	5.385751e+11	0.000000e+00	5.327102e-01	1.962638e+13	7.394307e+13	4.279094e+13	5.385663e+03	2.232515e+03	1.751157e+03	0	3.062500e-04
1.340000e+09	5.331777e+11	0.000000e+00	5.327102e-01	1.945224e+13	7.350184e+13	4.261389e+13	5.378463e+03	2.231282e+03	1.750191e+03	0	3.052235e-04
1.350000e+09	5.278646e+11	0.000000e+00	5.327102e-01	1.928080e+13	7.306597e+13	4.243800e+13	5.371326e+03	2.230060e+03	1.749232e+03	0	3.042063e-04
1.360000e+09	5.226340e+11	0.000000e+00	5.327102e-01	1.911200e+13	7.263536e+13	4.226326e+13	5.364252e+03	2.228846e+03	1.748280e+03	0	3.031982e-04
