#t		Qconv[W]	Ri[Rp]		R*[Rp]		Qc[W]		Qm[W]		Qr[W]		Tcmb[K]		Tl[K]		Tup[K]		RiFlag		Bs[T]
0.000000e+00	2.631241e+13	0.000000e+00	5.283019e-01	7.226678e+14	1.197453e+15	1.064625e+14	1.123052e+04	3.265947e+03	2.479136e+03	0	1.113721e-03
1.000000e+07	2.417132e+13	0.000000e+00	5.283019e-01	6.644631e+14	1.110531e+15	1.058726e+14	1.103726e+04	3.237479e+03	2.457526e+03	0	1.082654e-03
2.000000e+07	2.230371e+13	0.000000e+00	5.283019e-01	6.136846e+14	1.034457e+15	1.052872e+14	1.085918e+04	3.211056e+03	2.437469e+03	0	1.054020e-03
3.000000e+07	2.066345e+13	0.000000e+00	5.283019e-01	5.690807e+14	9.674256e+14	1.047061e+14	1.069439e+04	3.186446e+03	2.418787e+03	0	1.027521e-03
4.000000e+07	1.921388e+13	0.000000e+00	5.283019e-01	5.296562e+14	9.079985e+14	1.041293e+14	1.054131e+04	3.163450e+03	2.401331e+03	0	1.002909e-03
5.000000e+07	1.792557e+13	0.000000e+00	5.283019e-01	4.946120e+14	8.550169e+14	1.035569e+14	1.039861e+04	3.141900e+03	2.384973e+03	0	9.799727e-04
6.000000e+07	1.677464e+13	0.000000e+00	5.283019e-01	4.632995e+14	8.075382e+14	1.029887e+14	1.026516e+04	3.121649e+03	2.369601e+03	0	9.585335e-04
7.000000e+07	1.574151e+13	0.000000e+00	5.283019e-01	4.351878e+14	7.647895e+14	1.024247e+14	1.013999e+04	3.102573e+03	2.355120e+03	0	9.384370e-04
8.000000e+07	1.481008e+13	0.000000e+00	5.283019e-01	4.098390e+14	7.261312e+14	1.018650e+14	1.002227e+04	3.084561e+03	2.341448e+03	0	9.195501e-04
9.000000e+07	1.396691e+13	0.000000e+00	5.283019e-01	3.868888e+14	6.910308e+14	1.013094e+14	9.911281e+03	3.067519e+03	2.328512e+03	0	9.017575e-04
1.000000e+08	1.320078e+13	0.000000e+00	5.283019e-01	3.660318e+14	6.590412e+14	1.007579e+14	9.806397e+03	3.051362e+03	2.316247e+03	0	8.849582e-04
1.100000e+08	1.250220e+13	0.000000e+00	5.283019e-01	3.470111e+14	6.297850e+14	1.002105e+14	9.707071e+03	3.036015e+03	2.304598e+03	0	8.690640e-04
1.200000e+08	1.186316e+13	0.000000e+00	5.283019e-01	3.296085e+14	6.029419e+14	9.966717e+13	9.612821e+03	3.021414e+03	2.293514e+03	0	8.539971e-04
1.300000e+08	1.127680e+13	0.000000e+00	5.283019e-01	3.136379e+14	5.782378e+14	9.912787e+13	9.523223e+03	3.007500e+03	2.282952e+03	0	8.396885e-04
1.400000e+08	1.073724e+13	0.000000e+00	5.283019e-01	2.989398e+14	5.554377e+14	9.859256e+13	9.437899e+03	2.994219e+03	2.272871e+03	0	8.260770e-04
1.500000e+08	1.023943e+13	0.000000e+00	5.283019e-01	2.853767e+14	5.343387e+14	9.806121e+13	9.356513e+03	2.981526e+03	2.263236e+03	0	8.131081e-04
1.600000e+08	9.778995e+12	0.000000e+00	5.283019e-01	2.728297e+14	5.147648e+14	9.753378e+13	9.278766e+03	2.969379e+03	2.254015e+03	0	8.007329e-04
1.700000e+08	9.352114e+12	0.000000e+00	5.283019e-01	2.611952e+14	4.965630e+14	9.701025e+13	9.204389e+03	2.957738e+03	2.245179e+03	0	7.889077e-04
1.800000e+08	8.955466e+12	0.000000e+00	5.283019e-01	2.503830e+14	4.795992e+14	9.649057e+13	9.133140e+03	2.946571e+03	2.236701e+03	0	7.775930e-04
1.900000e+08	8.586136e+12	0.000000e+00	5.283019e-01	2.403137e+14	4.637560e+14	9.597472e+13	9.064801e+03	2.935845e+03	2.228559e+03	0	7.667531e-04
2.000000e+08	8.241560e+12	0.000000e+00	5.283019e-01	2.309178e+14	4.489299e+14	9.546267e+13	8.999175e+03	2.925532e+03	2.220731e+03	0	7.563557e-04
2.100000e+08	7.919475e+12	0.000000e+00	5.283019e-01	2.221337e+14	4.350292e+14	9.495438e+13	8.936082e+03	2.915606e+03	2.213196e+03	0	7.463716e-04
2.200000e+08	7.617876e+12	0.000000e+00	5.283019e-01	2.139069e+14	4.219730e+14	9.444983e+13	8.875359e+03	2.906043e+03	2.205938e+03	0	7.367739e-04
2.300000e+08	7.334981e+12	0.000000e+00	5.283019e-01	2.061890e+14	4.096890e+14	9.394898e+13	8.816858e+03	2.896823e+03	2.198938e+03	0	7.275385e-04
2.400000e+08	7.069204e+12	0.000000e+00	5.283019e-01	1.989370e+14	3.981127e+14	9.345180e+13	8.760443e+03	2.887923e+03	2.192183e+03	0	7.186429e-04
2.500000e+08	6.819126e+12	0.000000e+00	5.283019e-01	1.921121e+14	3.871866e+14	9.295826e+13	8.705989e+03	2.879328e+03	2.185658e+03	0	7.100668e-04
2.600000e+08	6.583475e+12	0.000000e+00	5.283019e-01	1.856800e+14	3.768589e+14	9.246834e+13	8.653383e+03	2.871018e+03	2.179351e+03	0	7.017914e-04
2.700000e+08	6.361111e+12	0.000000e+00	5.283019e-01	1.796094e+14	3.670832e+14	9.198199e+13	8.602518e+03	2.862980e+03	2.173248e+03	0	6.937994e-04
2.800000e+08	6.151003e+12	0.000000e+00	5.283019e-01	1.738725e+14	3.578174e+14	9.149920e+13	8.553299e+03	2.855197e+03	2.167341e+03	0	6.860750e-04
2.900000e+08	5.952224e+12	0.000000e+00	5.283019e-01	1.684440e+14	3.490237e+14	9.101993e+13	8.505635e+03	2.847657e+03	2.161617e+03	0	6.786034e-04
3.000000e+08	5.763935e+12	0.000000e+00	5.283019e-01	1.633011e+14	3.406677e+14	9.054416e+13	8.459444e+03	2.840348e+03	2.156069e+03	0	6.713711e-04
3.100000e+08	5.585372e+12	0.000000e+00	5.283019e-01	1.584231e+14	3.327184e+14	9.007185e+13	8.414649e+03	2.833257e+03	2.150686e+03	0	6.643654e-04
3.200000e+08	5.415845e+12	0.000000e+00	5.283019e-01	1.537911e+14	3.251473e+14	8.960298e+13	8.371179e+03	2.826374e+03	2.145461e+03	0	6.575746e-04
3.300000e+08	5.254722e+12	0.000000e+00	5.283019e-01	1.493880e+14	3.179286e+14	8.913751e+13	8.328967e+03	2.819688e+03	2.140387e+03	0	6.509878e-04
3.400000e+08	5.101430e+12	0.000000e+00	5.283019e-01	1.451982e+14	3.110386e+14	8.867543e+13	8.287953e+03	2.813191e+03	2.135455e+03	0	6.445950e-04
3.500000e+08	4.955444e+12	0.000000e+00	5.283019e-01	1.412073e+14	3.044560e+14	8.821670e+13	8.248078e+03	2.806874e+03	2.130659e+03	0	6.383867e-04
3.600000e+08	4.816282e+12	0.000000e+00	5.283019e-01	1.374024e+14	2.981607e+14	8.776130e+13	8.209290e+03	2.800728e+03	2.125994e+03	0	6.323540e-04
3.700000e+08	4.683504e+12	0.000000e+00	5.283019e-01	1.337714e+14	2.921348e+14	8.730919e+13	8.171537e+03	2.794745e+03	2.121453e+03	0	6.264887e-04
3.800000e+08	4.556705e+12	0.000000e+00	5.283019e-01	1.303034e+14	2.863614e+14	8.686036e+13	8.134773e+03	2.788919e+03	2.117030e+03	0	6.207832e-04
3.900000e+08	4.435513e+12	0.000000e+00	5.283019e-01	1.269881e+14	2.808253e+14	8.641477e+13	8.098954e+03	2.783242e+03	2.112721e+03	0	6.152301e-04
4.000000e+08	4.319584e+12	0.000000e+00	5.283019e-01	1.238162e+14	2.755122e+14	8.597239e+13	8.064038e+03	2.777708e+03	2.108520e+03	0	6.098227e-04
4.100000e+08	4.208602e+12	0.000000e+00	5.283019e-01	1.207792e+14	2.704090e+14	8.553321e+13	8.029988e+03	2.772311e+03	2.104423e+03	0	6.045547e-04
4.200000e+08	4.102275e+12	0.000000e+00	5.283019e-01	1.178691e+14	2.655037e+14	8.509720e+13	7.996765e+03	2.767045e+03	2.100426e+03	0	5.994200e-04
4.300000e+08	4.000332e+12	0.000000e+00	5.283019e-01	1.150785e+14	2.607850e+14	8.466432e+13	7.964337e+03	2.761905e+03	2.096524e+03	0	5.944130e-04
4.400000e+08	3.902522e+12	0.000000e+00	5.283019e-01	1.124005e+14	2.562426e+14	8.423456e+13	7.932670e+03	2.756886e+03	2.092714e+03	0	5.895284e-04
4.500000e+08	3.808613e+12	0.000000e+00	5.283019e-01	1.098289e+14	2.518667e+14	8.380788e+13	7.901735e+03	2.751983e+03	2.088993e+03	0	5.847612e-04
4.600000e+08	3.718389e+12	0.000000e+00	5.283019e-01	1.073578e+14	2.476484e+14	8.338427e+13	7.871502e+03	2.747191e+03	2.085355e+03	0	5.801067e-04
4.700000e+08	3.631649e+12	0.000000e+00	5.283019e-01	1.049817e+14	2.435793e+14	8.296370e+13	7.841944e+03	2.742507e+03	2.081799e+03	0	5.755604e-04
4.800000e+08	3.548207e+12	0.000000e+00	5.283019e-01	1.026956e+14	2.396516e+14	8.254614e+13	7.813035e+03	2.737926e+03	2.078322e+03	0	5.711181e-04
4.900000e+08	3.467887e+12	0.000000e+00	5.283019e-01	1.004946e+14	2.358581e+14	8.213157e+13	7.784751e+03	2.733443e+03	2.074919e+03	0	5.667758e-04
5.000000e+08	3.390528e+12	0.000000e+00	5.283019e-01	9.837437e+13	2.321920e+14	8.171997e+13	7.757069e+03	2.729057e+03	2.071589e+03	0	5.625296e-04
5.100000e+08	3.315977e+12	0.000000e+00	5.283019e-01	9.633077e+13	2.286469e+14	8.131130e+13	7.729967e+03	2.724762e+03	2.068329e+03	0	5.583761e-04
5.200000e+08	3.244094e+12	0.000000e+00	5.283019e-01	9.435994e+13	2.252170e+14	8.090555e+13	7.703424e+03	2.720556e+03	2.065136e+03	0	5.543117e-04
5.300000e+08	3.174744e+12	0.000000e+00	5.283019e-01	9.245825e+13	2.218965e+14	8.050270e+13	7.677421e+03	2.716435e+03	2.062009e+03	0	5.503334e-04
5.400000e+08	3.107804e+12	0.000000e+00	5.283019e-01	9.062232e+13	2.186804e+14	8.010271e+13	7.651937e+03	2.712397e+03	2.058944e+03	0	5.464379e-04
5.500000e+08	3.043156e+12	0.000000e+00	5.283019e-01	8.884896e+13	2.155638e+14	7.970558e+13	7.626957e+03	2.708439e+03	2.055939e+03	0	5.426224e-04
5.600000e+08	2.980693e+12	0.000000e+00	5.283019e-01	8.713521e+13	2.125419e+14	7.931126e+13	7.602462e+03	2.704558e+03	2.052993e+03	0	5.388841e-04
5.700000e+08	2.920310e+12	0.000000e+00	5.283019e-01	8.547825e+13	2.096106e+14	7.891975e+13	7.578436e+03	2.700751e+03	2.050103e+03	0	5.352203e-04
5.800000e+08	2.861911e+12	0.000000e+00	5.283019e-01	8.387545e+13	2.067657e+14	7.853101e+13	7.554865e+03	2.697016e+03	2.047268e+03	0	5.316286e-04
5.900000e+08	2.805405e+12	0.000000e+00	5.283019e-01	8.232435e+13	2.040034e+14	7.814503e+13	7.531732e+03	2.693350e+03	2.044485e+03	0	5.281065e-04
6.000000e+08	2.750707e+12	0.000000e+00	5.283019e-01	8.082259e+13	2.013202e+14	7.776178e+13	7.509025e+03	2.689752e+03	2.041753e+03	0	5.246516e-04
6.100000e+08	2.697735e+12	0.000000e+00	5.283019e-01	7.936799e+13	1.987125e+14	7.738124e+13	7.486729e+03	2.686218e+03	2.039071e+03	0	5.212620e-04
6.200000e+08	2.646414e+12	0.000000e+00	5.283019e-01	7.795847e+13	1.961772e+14	7.700339e+13	7.464832e+03	2.682748e+03	2.036437e+03	0	5.179353e-04
6.300000e+08	2.596672e+12	0.000000e+00	5.283019e-01	7.659207e+13	1.937112e+14	7.662820e+13	7.443322e+03	2.679339e+03	2.033849e+03	0	5.146697e-04
6.400000e+08	2.548440e+12	0.000000e+00	5.283019e-01	7.526695e+13	1.913117e+14	7.625567e+13	7.422186e+03	2.675988e+03	2.031306e+03	0	5.114633e-04
6.500000e+08	2.501656e+12	0.000000e+00	5.283019e-01	7.398134e+13	1.889760e+14	7.588576e+13	7.401414e+03	2.672695e+03	2.028806e+03	0	5.083141e-04
6.600000e+08	2.456257e+12	0.000000e+00	5.283019e-01	7.273361e+13	1.867014e+14	7.551845e+13	7.380994e+03	2.669458e+03	2.026349e+03	0	5.052204e-04
6.700000e+08	2.412188e+12	0.000000e+00	5.283019e-01	7.152219e+13	1.844856e+14	7.515372e+13	7.360917e+03	2.666274e+03	2.023932e+03	0	5.021807e-04
6.800000e+08	2.369392e+12	0.000000e+00	5.283019e-01	7.034558e+13	1.823262e+14	7.479155e+13	7.341173e+03	2.663143e+03	2.021555e+03	0	4.991931e-04
6.900000e+08	2.327820e+12	0.000000e+00	5.283019e-01	6.920240e+13	1.802211e+14	7.443193e+13	7.321752e+03	2.660062e+03	2.019217e+03	0	4.962563e-04
7.000000e+08	2.287421e+12	0.000000e+00	5.283019e-01	6.809130e+13	1.781681e+14	7.407483e+13	7.302644e+03	2.657031e+03	2.016916e+03	0	4.933688e-04
7.100000e+08	2.248149e+12	0.000000e+00	5.283019e-01	6.701101e+13	1.761652e+14	7.372022e+13	7.283841e+03	2.654048e+03	2.014651e+03	0	4.905290e-04
7.200000e+08	2.209961e+12	0.000000e+00	5.283019e-01	6.596035e+13	1.742107e+14	7.336810e+13	7.265336e+03	2.651111e+03	2.012422e+03	0	4.877357e-04
7.300000e+08	2.172815e+12	0.000000e+00	5.283019e-01	6.493816e+13	1.723027e+14	7.301844e+13	7.247118e+03	2.648219e+03	2.010226e+03	0	4.849875e-04
7.400000e+08	2.136670e+12	0.000000e+00	5.283019e-01	6.394336e+13	1.704395e+14	7.267121e+13	7.229182e+03	2.645371e+03	2.008065e+03	0	4.822832e-04
7.500000e+08	2.101490e+12	0.000000e+00	5.283019e-01	6.297492e+13	1.686195e+14	7.232641e+13	7.211519e+03	2.642565e+03	2.005935e+03	0	4.796216e-04
7.600000e+08	2.067237e+12	0.000000e+00	5.283019e-01	6.203185e+13	1.668411e+14	7.198401e+13	7.194122e+03	2.639802e+03	2.003837e+03	0	4.770014e-04
7.700000e+08	2.033877e+12	0.000000e+00	5.283019e-01	6.111322e+13	1.651030e+14	7.164399e+13	7.176984e+03	2.637078e+03	2.001770e+03	0	4.744217e-04
7.800000e+08	2.001379e+12	0.000000e+00	5.283019e-01	6.021815e+13	1.634036e+14	7.130634e+13	7.160099e+03	2.634394e+03	1.999732e+03	0	4.718813e-04
7.900000e+08	1.969710e+12	0.000000e+00	5.283019e-01	5.934577e+13	1.617416e+14	7.097103e+13	7.143460e+03	2.631748e+03	1.997724e+03	0	4.693791e-04
8.000000e+08	1.938841e+12	0.000000e+00	5.283019e-01	5.849528e+13	1.601158e+14	7.063805e+13	7.127060e+03	2.629139e+03	1.995744e+03	0	4.669142e-04
8.100000e+08	1.908744e+12	0.000000e+00	5.283019e-01	5.766590e+13	1.585250e+14	7.030737e+13	7.110895e+03	2.626567e+03	1.993791e+03	0	4.644856e-04
8.200000e+08	1.879392e+12	0.000000e+00	5.283019e-01	5.685690e+13	1.569679e+14	6.997898e+13	7.094958e+03	2.624030e+03	1.991865e+03	0	4.620923e-04
8.300000e+08	1.850758e+12	0.000000e+00	5.283019e-01	5.606757e+13	1.554435e+14	6.965286e+13	7.079243e+03	2.621528e+03	1.989966e+03	0	4.597335e-04
8.400000e+08	1.822819e+12	0.000000e+00	5.283019e-01	5.529724e+13	1.539507e+14	6.932900e+13	7.063745e+03	2.619059e+03	1.988091e+03	0	4.574084e-04
8.500000e+08	1.795549e+12	0.000000e+00	5.283019e-01	5.454526e+13	1.524885e+14	6.900737e+13	7.048459e+03	2.616622e+03	1.986242e+03	0	4.551160e-04
8.600000e+08	1.768928e+12	0.000000e+00	5.283019e-01	5.381101e+13	1.510558e+14	6.868796e+13	7.033380e+03	2.614218e+03	1.984417e+03	0	4.528555e-04
8.700000e+08	1.742933e+12	0.000000e+00	5.283019e-01	5.309390e+13	1.496519e+14	6.837074e+13	7.018503e+03	2.611845e+03	1.982615e+03	0	4.506263e-04
8.800000e+08	1.717543e+12	0.000000e+00	5.283019e-01	5.239338e+13	1.482757e+14	6.805571e+13	7.003824e+03	2.609502e+03	1.980837e+03	0	4.484274e-04
8.900000e+08	1.692739e+12	0.000000e+00	5.283019e-01	5.170890e+13	1.469265e+14	6.774284e+13	6.989337e+03	2.607188e+03	1.979081e+03	0	4.462583e-04
9.000000e+08	1.668502e+12	0.000000e+00	5.283019e-01	5.103993e+13	1.456033e+14	6.743212e+13	6.975039e+03	2.604904e+03	1.977347e+03	0	4.441182e-04
9.100000e+08	1.644814e+12	0.000000e+00	5.283019e-01	5.038600e+13	1.443054e+14	6.712353e+13	6.960925e+03	2.602648e+03	1.975634e+03	0	4.420064e-04
9.200000e+08	1.621656e+12	0.000000e+00	5.283019e-01	4.974660e+13	1.430321e+14	6.681705e+13	6.946990e+03	2.600419e+03	1.973943e+03	0	4.399222e-04
9.300000e+08	1.599013e+12	0.000000e+00	5.283019e-01	4.912130e+13	1.417826e+14	6.651267e+13	6.933232e+03	2.598218e+03	1.972271e+03	0	4.378650e-04
9.400000e+08	1.576868e+12	0.000000e+00	5.283019e-01	4.850965e+13	1.405562e+14	6.621037e+13	6.919646e+03	2.596042e+03	1.970620e+03	0	4.358343e-04
9.500000e+08	1.555206e+12	0.000000e+00	5.283019e-01	4.791123e+13	1.393523e+14	6.591013e+13	6.906229e+03	2.593893e+03	1.968988e+03	0	4.338293e-04
9.600000e+08	1.534012e+12	0.000000e+00	5.283019e-01	4.732564e+13	1.381702e+14	6.561194e+13	6.892976e+03	2.591768e+03	1.967376e+03	0	4.318496e-04
9.700000e+08	1.513272e+12	0.000000e+00	5.283019e-01	4.675249e+13	1.370092e+14	6.531578e+13	6.879885e+03	2.589668e+03	1.965782e+03	0	4.298946e-04
9.800000e+08	1.492972e+12	0.000000e+00	5.283019e-01	4.619140e+13	1.358688e+14	6.502164e+13	6.866952e+03	2.587593e+03	1.964206e+03	0	4.279636e-04
9.900000e+08	1.473099e+12	0.000000e+00	5.283019e-01	4.564201e+13	1.347484e+14	6.472950e+13	6.854173e+03	2.585540e+03	1.962648e+03	0	4.260563e-04
1.000000e+09	1.453641e+12	0.000000e+00	5.283019e-01	4.510399e+13	1.336475e+14	6.443933e+13	6.841545e+03	2.583511e+03	1.961107e+03	0	4.241720e-04
1.010000e+09	1.434584e+12	0.000000e+00	5.283019e-01	4.457699e+13	1.325655e+14	6.415114e+13	6.829066e+03	2.581504e+03	1.959584e+03	0	4.223103e-04
1.020000e+09	1.415919e+12	0.000000e+00	5.283019e-01	4.406070e+13	1.315019e+14	6.386490e+13	6.816732e+03	2.579519e+03	1.958077e+03	0	4.204707e-04
1.030000e+09	1.397632e+12	0.000000e+00	5.283019e-01	4.355481e+13	1.304562e+14	6.358060e+13	6.804540e+03	2.577555e+03	1.956587e+03	0	4.186527e-04
1.040000e+09	1.379714e+12	0.000000e+00	5.283019e-01	4.305903e+13	1.294280e+14	6.329821e+13	6.792488e+03	2.575613e+03	1.955112e+03	0	4.168559e-04
1.050000e+09	1.362154e+12	0.000000e+00	5.283019e-01	4.257306e+13	1.284167e+14	6.301774e+13	6.780572e+03	2.573691e+03	1.953653e+03	0	4.150799e-04
1.060000e+09	1.344942e+12	0.000000e+00	5.283019e-01	4.209664e+13	1.274220e+14	6.273915e+13	6.768790e+03	2.571789e+03	1.952210e+03	0	4.133242e-04
1.070000e+09	1.328068e+12	0.000000e+00	5.283019e-01	4.162949e+13	1.264434e+14	6.246244e+13	6.757140e+03	2.569907e+03	1.950781e+03	0	4.115883e-04
1.080000e+09	1.311523e+12	0.000000e+00	5.283019e-01	4.117137e+13	1.254804e+14	6.218760e+13	6.745618e+03	2.568045e+03	1.949367e+03	0	4.098720e-04
1.090000e+09	1.295298e+12	0.000000e+00	5.283019e-01	4.072202e+13	1.245328e+14	6.191460e+13	6.734223e+03	2.566201e+03	1.947968e+03	0	4.081747e-04
1.100000e+09	1.279383e+12	0.000000e+00	5.283019e-01	4.028121e+13	1.236000e+14	6.164344e+13	6.722951e+03	2.564376e+03	1.946583e+03	0	4.064962e-04
1.110000e+09	1.263772e+12	0.000000e+00	5.283019e-01	3.984871e+13	1.226818e+14	6.137409e+13	6.711802e+03	2.562569e+03	1.945211e+03	0	4.048361e-04
1.120000e+09	1.248455e+12	0.000000e+00	5.283019e-01	3.942429e+13	1.217778e+14	6.110655e+13	6.700771e+03	2.560780e+03	1.943853e+03	0	4.031939e-04
1.130000e+09	1.233425e+12	0.000000e+00	5.283019e-01	3.900774e+13	1.208876e+14	6.084080e+13	6.689857e+03	2.559009e+03	1.942508e+03	0	4.015693e-04
1.140000e+09	1.218674e+12	0.000000e+00	5.283019e-01	3.859886e+13	1.200109e+14	6.057682e+13	6.679059e+03	2.557254e+03	1.941177e+03	0	3.999621e-04
1.150000e+09	1.204195e+12	0.000000e+00	5.283019e-01	3.819745e+13	1.191473e+14	6.031461e+13	6.668373e+03	2.555517e+03	1.939858e+03	0	3.983718e-04
1.160000e+09	1.189981e+12	0.000000e+00	5.283019e-01	3.780330e+13	1.182966e+14	6.005415e+13	6.657798e+03	2.553796e+03	1.938552e+03	0	3.967981e-04
1.170000e+09	1.176025e+12	0.000000e+00	5.283019e-01	3.741625e+13	1.174585e+14	5.979542e+13	6.647331e+03	2.552091e+03	1.937257e+03	0	3.952408e-04
1.180000e+09	1.162320e+12	0.000000e+00	5.283019e-01	3.703609e+13	1.166326e+14	5.953841e+13	6.636972e+03	2.550402e+03	1.935975e+03	0	3.936995e-04
1.190000e+09	1.148860e+12	0.000000e+00	5.283019e-01	3.666267e+13	1.158187e+14	5.928311e+13	6.626717e+03	2.548729e+03	1.934705e+03	0	3.921739e-04
1.200000e+09	1.135640e+12	0.000000e+00	5.283019e-01	3.629581e+13	1.150165e+14	5.902951e+13	6.616565e+03	2.547071e+03	1.933447e+03	0	3.906638e-04
1.210000e+09	1.122652e+12	0.000000e+00	5.283019e-01	3.593534e+13	1.142257e+14	5.877759e+13	6.606515e+03	2.545428e+03	1.932200e+03	0	3.891688e-04
1.220000e+09	1.109891e+12	0.000000e+00	5.283019e-01	3.558112e+13	1.134461e+14	5.852734e+13	6.596564e+03	2.543800e+03	1.930964e+03	0	3.876886e-04
1.230000e+09	1.097352e+12	0.000000e+00	5.283019e-01	3.523298e+13	1.126774e+14	5.827874e+13	6.586710e+03	2.542186e+03	1.929739e+03	0	3.862231e-04
1.240000e+09	1.085028e+12	0.000000e+00	5.283019e-01	3.489078e+13	1.119194e+14	5.803179e+13	6.576953e+03	2.540587e+03	1.928524e+03	0	3.847719e-04
1.250000e+09	1.072916e+12	0.000000e+00	5.283019e-01	3.455437e+13	1.111718e+14	5.778646e+13	6.567291e+03	2.539001e+03	1.927321e+03	0	3.833348e-04
1.260000e+09	1.061009e+12	0.000000e+00	5.283019e-01	3.422362e+13	1.104344e+14	5.754276e+13	6.557721e+03	2.537429e+03	1.926128e+03	0	3.819115e-04
1.270000e+09	1.049304e+12	0.000000e+00	5.283019e-01	3.389839e+13	1.097071e+14	5.730066e+13	6.548242e+03	2.535871e+03	1.924945e+03	0	3.805018e-04
1.280000e+09	1.037794e+12	0.000000e+00	5.283019e-01	3.357855e+13	1.089895e+14	5.706015e+13	6.538853e+03	2.534326e+03	1.923772e+03	0	3.791054e-04
1.290000e+09	1.026475e+12	0.000000e+00	5.283019e-01	3.326397e+13	1.082814e+14	5.682122e+13	6.529553e+03	2.532794e+03	1.922609e+03	0	3.777222e-04
1.300000e+09	1.015344e+12	0.000000e+00	5.283019e-01	3.295453e+13	1.075827e+14	5.658386e+13	6.520339e+03	2.531274e+03	1.921456e+03	0	3.763518e-04
1.310000e+09	1.004395e+12	0.000000e+00	5.283019e-01	3.265011e+13	1.068932e+14	5.634806e+13	6.511211e+03	2.529767e+03	1.920312e+03	0	3.749942e-04
1.320000e+09	9.936248e+11	0.000000e+00	5.283019e-01	3.235060e+13	1.062127e+14	5.611380e+13	6.502167e+03	2.528273e+03	1.919177e+03	0	3.736489e-04
1.330000e+09	9.830286e+11	0.000000e+00	5.283019e-01	3.205588e+13	1.055409e+14	5.588107e+13	6.493205e+03	2.526791e+03	1.918052e+03	0	3.723160e-04
1.340000e+09	9.726027e+11	0.000000e+00	5.283019e-01	3.176584e+13	1.048778e+14	5.564987e+13	6.484325e+03	2.525320e+03	1.916936e+03	0	3.709950e-04
1.350000e+09	9.623432e+11	0.000000e+00	5.283019e-01	3.148039e+13	1.042231e+14	5.542017e+13	6.475525e+03	2.523862e+03	1.915829e+03	0	3.696859e-04
1.360000e+09	9.522464e+11	0.000000e+00	5.283019e-01	3.119941e+13	1.035766e+14	5.519197e+13	6.466804e+03	2.522415e+03	1.914730e+03	0	3.683885e-04
