#t		Qconv[W]	Ri[Rp]		R*[Rp]		Qc[W]		Qm[W]		Qr[W]		Tcmb[K]		Tl[K]		Tup[K]		RiFlag		Bs[T]
0.000000e+00	1.019205e+14	0.000000e+00	5.377358e-01	2.384464e+15	1.779888e+15	1.227615e+14	1.483678e+04	3.516311e+03	2.509137e+03	0	1.703360e-03
1.000000e+07	8.915553e+13	0.000000e+00	5.377358e-01	2.087415e+15	1.848045e+15	1.220813e+14	1.433733e+04	3.564927e+03	2.543829e+03	0	1.629054e-03
2.000000e+07	7.863175e+13	0.000000e+00	5.377358e-01	1.842487e+15	1.847211e+15	1.214062e+14	1.389768e+04	3.589075e+03	2.561060e+03	0	1.562255e-03
3.000000e+07	6.988022e+13	0.000000e+00	5.377358e-01	1.638778e+15	1.803057e+15	1.207361e+14	1.350774e+04	3.596876e+03	2.566627e+03	0	1.502003e-03
4.000000e+07	6.253971e+13	0.000000e+00	5.377358e-01	1.467888e+15	1.734298e+15	1.200711e+14	1.315944e+04	3.593934e+03	2.564527e+03	0	1.447453e-03
5.000000e+07	5.633096e+13	0.000000e+00	5.377358e-01	1.323325e+15	1.653393e+15	1.194110e+14	1.284629e+04	3.584042e+03	2.557469e+03	0	1.397875e-03
6.000000e+07	5.103717e+13	0.000000e+00	5.377358e-01	1.200046e+15	1.568166e+15	1.187558e+14	1.256305e+04	3.569749e+03	2.547269e+03	0	1.352638e-03
7.000000e+07	4.648906e+13	0.000000e+00	5.377358e-01	1.094115e+15	1.483297e+15	1.181055e+14	1.230543e+04	3.552758e+03	2.535145e+03	0	1.311202e-03
8.000000e+07	4.255358e+13	0.000000e+00	5.377358e-01	1.002438e+15	1.401442e+15	1.174601e+14	1.206994e+04	3.534213e+03	2.521912e+03	0	1.273106e-03
9.000000e+07	3.912538e+13	0.000000e+00	5.377358e-01	9.225659e+14	1.323987e+15	1.168194e+14	1.185367e+04	3.514874e+03	2.508113e+03	0	1.237957e-03
1.000000e+08	3.612044e+13	0.000000e+00	5.377358e-01	8.525432e+14	1.251546e+15	1.161835e+14	1.165421e+04	3.495253e+03	2.494111e+03	0	1.205416e-03
1.100000e+08	3.347121e+13	0.000000e+00	5.377358e-01	7.907990e+14	1.184275e+15	1.155523e+14	1.146952e+04	3.475685e+03	2.480148e+03	0	1.175194e-03
1.200000e+08	3.112297e+13	0.000000e+00	5.377358e-01	7.360606e+14	1.122064e+15	1.149258e+14	1.129792e+04	3.456392e+03	2.466381e+03	0	1.147043e-03
1.300000e+08	2.903109e+13	0.000000e+00	5.377358e-01	6.872896e+14	1.064660e+15	1.143040e+14	1.113793e+04	3.437516e+03	2.452912e+03	0	1.120746e-03
1.400000e+08	2.715887e+13	0.000000e+00	5.377358e-01	6.436325e+14	1.011742e+15	1.136867e+14	1.098832e+04	3.419146e+03	2.439803e+03	0	1.096116e-03
1.500000e+08	2.547597e+13	0.000000e+00	5.377358e-01	6.043831e+14	9.629617e+14	1.130740e+14	1.084803e+04	3.401331e+03	2.427091e+03	0	1.072991e-03
1.600000e+08	2.395711e+13	0.000000e+00	5.377358e-01	5.689535e+14	9.179706e+14	1.124658e+14	1.071613e+04	3.384098e+03	2.414795e+03	0	1.051229e-03
1.700000e+08	2.258113e+13	0.000000e+00	5.377358e-01	5.368509e+14	8.764344e+14	1.118621e+14	1.059182e+04	3.367455e+03	2.402919e+03	0	1.030705e-03
1.800000e+08	2.133016e+13	0.000000e+00	5.377358e-01	5.076599e+14	8.380402e+14	1.112629e+14	1.047440e+04	3.351399e+03	2.391461e+03	0	1.011309e-03
1.900000e+08	2.018910e+13	0.000000e+00	5.377358e-01	4.810287e+14	8.024999e+14	1.106681e+14	1.036325e+04	3.335918e+03	2.380414e+03	0	9.929443e-04
2.000000e+08	1.914504e+13	0.000000e+00	5.377358e-01	4.566572e+14	7.695506e+14	1.100776e+14	1.025783e+04	3.320996e+03	2.369767e+03	0	9.755241e-04
2.100000e+08	1.818696e+13	0.000000e+00	5.377358e-01	4.342888e+14	7.389544e+14	1.094915e+14	1.015767e+04	3.306614e+03	2.359504e+03	0	9.589722e-04
2.200000e+08	1.730538e+13	0.000000e+00	5.377358e-01	4.137024e+14	7.104965e+14	1.089097e+14	1.006234e+04	3.292751e+03	2.349612e+03	0	9.432199e-04
2.300000e+08	1.649208e+13	0.000000e+00	5.377358e-01	3.947072e+14	6.839838e+14	1.083322e+14	9.971461e+03	3.279385e+03	2.340074e+03	0	9.282060e-04
2.400000e+08	1.573995e+13	0.000000e+00	5.377358e-01	3.771375e+14	6.592428e+14	1.077589e+14	9.884691e+03	3.266494e+03	2.330875e+03	0	9.138754e-04
2.500000e+08	1.504278e+13	0.000000e+00	5.377358e-01	3.608489e+14	6.361177e+14	1.071898e+14	9.801729e+03	3.254055e+03	2.322000e+03	0	9.001786e-04
2.600000e+08	1.439517e+13	0.000000e+00	5.377358e-01	3.457151e+14	6.144686e+14	1.066249e+14	9.722301e+03	3.242048e+03	2.313432e+03	0	8.870706e-04
2.700000e+08	1.379234e+13	0.000000e+00	5.377358e-01	3.316254e+14	5.941697e+14	1.060641e+14	9.646158e+03	3.230452e+03	2.305157e+03	0	8.745110e-04
2.800000e+08	1.323011e+13	0.000000e+00	5.377358e-01	3.184820e+14	5.751081e+14	1.055074e+14	9.573078e+03	3.219246e+03	2.297161e+03	0	8.624629e-04
2.900000e+08	1.270476e+13	0.000000e+00	5.377358e-01	3.061987e+14	5.571820e+14	1.049547e+14	9.502857e+03	3.208413e+03	2.289431e+03	0	8.508927e-04
3.000000e+08	1.221302e+13	0.000000e+00	5.377358e-01	2.946989e+14	5.402997e+14	1.044061e+14	9.435310e+03	3.197933e+03	2.281953e+03	0	8.397698e-04
3.100000e+08	1.175196e+13	0.000000e+00	5.377358e-01	2.839146e+14	5.243785e+14	1.038615e+14	9.370269e+03	3.187791e+03	2.274715e+03	0	8.290664e-04
3.200000e+08	1.131897e+13	0.000000e+00	5.377358e-01	2.737852e+14	5.093436e+14	1.033208e+14	9.307580e+03	3.177968e+03	2.267706e+03	0	8.187568e-04
3.300000e+08	1.091174e+13	0.000000e+00	5.377358e-01	2.642564e+14	4.951272e+14	1.027841e+14	9.247102e+03	3.168451e+03	2.260915e+03	0	8.088175e-04
3.400000e+08	1.052816e+13	0.000000e+00	5.377358e-01	2.552795e+14	4.816680e+14	1.022513e+14	9.188705e+03	3.159225e+03	2.254332e+03	0	7.992269e-04
3.500000e+08	1.016637e+13	0.000000e+00	5.377358e-01	2.468109e+14	4.689103e+14	1.017223e+14	9.132269e+03	3.150276e+03	2.247946e+03	0	7.899650e-04
3.600000e+08	9.824672e+12	0.000000e+00	5.377358e-01	2.388111e+14	4.568034e+14	1.011972e+14	9.077685e+03	3.141591e+03	2.241749e+03	0	7.810136e-04
3.700000e+08	9.501543e+12	0.000000e+00	5.377358e-01	2.312446e+14	4.453011e+14	1.006759e+14	9.024852e+03	3.133159e+03	2.235731e+03	0	7.723556e-04
3.800000e+08	9.195601e+12	0.000000e+00	5.377358e-01	2.240792e+14	4.343613e+14	1.001583e+14	8.973675e+03	3.124966e+03	2.229886e+03	0	7.639753e-04
3.900000e+08	8.905595e+12	0.000000e+00	5.377358e-01	2.172857e+14	4.239457e+14	9.964452e+13	8.924068e+03	3.117004e+03	2.224204e+03	0	7.558580e-04
4.000000e+08	8.630385e+12	0.000000e+00	5.377358e-01	2.108377e+14	4.140189e+14	9.913443e+13	8.875950e+03	3.109261e+03	2.218679e+03	0	7.479903e-04
4.100000e+08	8.368937e+12	0.000000e+00	5.377358e-01	2.047109e+14	4.045487e+14	9.862801e+13	8.829246e+03	3.101729e+03	2.213304e+03	0	7.403596e-04
4.200000e+08	8.120306e+12	0.000000e+00	5.377358e-01	1.988833e+14	3.955056e+14	9.812524e+13	8.783886e+03	3.094397e+03	2.208072e+03	0	7.329540e-04
4.300000e+08	7.883629e+12	0.000000e+00	5.377358e-01	1.933349e+14	3.868623e+14	9.762609e+13	8.739805e+03	3.087257e+03	2.202977e+03	0	7.257627e-04
4.400000e+08	7.658115e+12	0.000000e+00	5.377358e-01	1.880472e+14	3.785938e+14	9.713053e+13	8.696942e+03	3.080302e+03	2.198014e+03	0	7.187754e-04
4.500000e+08	7.443039e+12	0.000000e+00	5.377358e-01	1.830033e+14	3.706771e+14	9.663854e+13	8.655242e+03	3.073523e+03	2.193177e+03	0	7.119826e-04
4.600000e+08	7.237738e+12	0.000000e+00	5.377358e-01	1.781876e+14	3.630908e+14	9.615007e+13	8.614649e+03	3.066914e+03	2.188461e+03	0	7.053752e-04
4.700000e+08	7.041598e+12	0.000000e+00	5.377358e-01	1.735860e+14	3.558154e+14	9.566511e+13	8.575116e+03	3.060467e+03	2.183860e+03	0	6.989450e-04
4.800000e+08	6.854057e+12	0.000000e+00	5.377358e-01	1.691853e+14	3.488326e+14	9.518363e+13	8.536595e+03	3.054176e+03	2.179371e+03	0	6.926840e-04
4.900000e+08	6.674595e+12	0.000000e+00	5.377358e-01	1.649733e+14	3.421257e+14	9.470559e+13	8.499042e+03	3.048034e+03	2.174989e+03	0	6.865848e-04
5.000000e+08	6.502730e+12	0.000000e+00	5.377358e-01	1.609389e+14	3.356789e+14	9.423097e+13	8.462416e+03	3.042037e+03	2.170709e+03	0	6.806406e-04
5.100000e+08	6.338020e+12	0.000000e+00	5.377358e-01	1.570716e+14	3.294777e+14	9.375974e+13	8.426679e+03	3.036178e+03	2.166528e+03	0	6.748446e-04
5.200000e+08	6.180052e+12	0.000000e+00	5.377358e-01	1.533620e+14	3.235088e+14	9.329187e+13	8.391794e+03	3.030452e+03	2.162443e+03	0	6.691908e-04
5.300000e+08	6.028446e+12	0.000000e+00	5.377358e-01	1.498011e+14	3.177596e+14	9.282734e+13	8.357726e+03	3.024854e+03	2.158448e+03	0	6.636733e-04
5.400000e+08	5.882846e+12	0.000000e+00	5.377358e-01	1.463805e+14	3.122184e+14	9.236612e+13	8.324443e+03	3.019379e+03	2.154542e+03	0	6.582867e-04
5.500000e+08	5.742924e+12	0.000000e+00	5.377358e-01	1.430928e+14	3.068742e+14	9.190818e+13	8.291914e+03	3.014024e+03	2.150720e+03	0	6.530257e-04
5.600000e+08	5.608373e+12	0.000000e+00	5.377358e-01	1.399306e+14	3.017170e+14	9.145350e+13	8.260110e+03	3.008782e+03	2.146980e+03	0	6.478855e-04
5.700000e+08	5.478908e+12	0.000000e+00	5.377358e-01	1.368874e+14	2.967373e+14	9.100204e+13	8.229004e+03	3.003652e+03	2.143319e+03	0	6.428613e-04
5.800000e+08	5.354263e+12	0.000000e+00	5.377358e-01	1.339568e+14	2.919261e+14	9.055379e+13	8.198569e+03	2.998627e+03	2.139734e+03	0	6.379488e-04
5.900000e+08	5.234188e+12	0.000000e+00	5.377358e-01	1.311332e+14	2.872751e+14	9.010872e+13	8.168781e+03	2.993706e+03	2.136222e+03	0	6.331438e-04
6.000000e+08	5.118451e+12	0.000000e+00	5.377358e-01	1.284111e+14	2.827766e+14	8.966679e+13	8.139617e+03	2.988884e+03	2.132781e+03	0	6.284423e-04
6.100000e+08	5.006835e+12	0.000000e+00	5.377358e-01	1.257854e+14	2.784232e+14	8.922800e+13	8.111054e+03	2.984158e+03	2.129409e+03	0	6.238407e-04
6.200000e+08	4.899137e+12	0.000000e+00	5.377358e-01	1.232513e+14	2.742081e+14	8.879230e+13	8.083071e+03	2.979524e+03	2.126102e+03	0	6.193352e-04
6.300000e+08	4.795164e+12	0.000000e+00	5.377358e-01	1.208045e+14	2.701248e+14	8.835968e+13	8.055648e+03	2.974980e+03	2.122860e+03	0	6.149225e-04
6.400000e+08	4.694739e+12	0.000000e+00	5.377358e-01	1.184406e+14	2.661673e+14	8.793011e+13	8.028765e+03	2.970523e+03	2.119679e+03	0	6.105995e-04
6.500000e+08	4.597694e+12	0.000000e+00	5.377358e-01	1.161559e+14	2.623299e+14	8.750356e+13	8.002406e+03	2.966150e+03	2.116558e+03	0	6.063629e-04
6.600000e+08	4.503869e+12	0.000000e+00	5.377358e-01	1.139465e+14	2.586072e+14	8.708002e+13	7.976551e+03	2.961857e+03	2.113496e+03	0	6.022098e-04
6.700000e+08	4.413117e+12	0.000000e+00	5.377358e-01	1.118091e+14	2.549941e+14	8.665946e+13	7.951185e+03	2.957644e+03	2.110489e+03	0	5.981375e-04
6.800000e+08	4.325297e+12	0.000000e+00	5.377358e-01	1.097404e+14	2.514859e+14	8.624184e+13	7.926292e+03	2.953506e+03	2.107536e+03	0	5.941433e-04
6.900000e+08	4.240278e+12	0.000000e+00	5.377358e-01	1.077372e+14	2.480780e+14	8.582716e+13	7.901856e+03	2.949442e+03	2.104636e+03	0	5.902247e-04
7.000000e+08	4.157936e+12	0.000000e+00	5.377358e-01	1.057967e+14	2.447663e+14	8.541539e+13	7.877864e+03	2.945449e+03	2.101787e+03	0	5.863791e-04
7.100000e+08	4.078152e+12	0.000000e+00	5.377358e-01	1.039161e+14	2.415466e+14	8.500650e+13	7.854301e+03	2.941526e+03	2.098988e+03	0	5.826044e-04
7.200000e+08	4.000817e+12	0.000000e+00	5.377358e-01	1.020929e+14	2.384151e+14	8.460046e+13	7.831155e+03	2.937670e+03	2.096236e+03	0	5.788981e-04
7.300000e+08	3.925826e+12	0.000000e+00	5.377358e-01	1.003246e+14	2.353684e+14	8.419727e+13	7.808412e+03	2.933879e+03	2.093531e+03	0	5.752583e-04
7.400000e+08	3.853079e+12	0.000000e+00	5.377358e-01	9.860890e+13	2.324028e+14	8.379689e+13	7.786061e+03	2.930152e+03	2.090871e+03	0	5.716829e-04
7.500000e+08	3.782484e+12	0.000000e+00	5.377358e-01	9.694359e+13	2.295153e+14	8.339930e+13	7.764090e+03	2.926485e+03	2.088255e+03	0	5.681700e-04
7.600000e+08	3.713950e+12	0.000000e+00	5.377358e-01	9.532662e+13	2.267027e+14	8.300448e+13	7.742488e+03	2.922879e+03	2.085682e+03	0	5.647175e-04
7.700000e+08	3.647395e+12	0.000000e+00	5.377358e-01	9.375600e+13	2.239622e+14	8.261240e+13	7.721244e+03	2.919330e+03	2.083150e+03	0	5.613239e-04
7.800000e+08	3.582739e+12	0.000000e+00	5.377358e-01	9.222990e+13	2.212909e+14	8.222306e+13	7.700349e+03	2.915838e+03	2.080658e+03	0	5.579873e-04
7.900000e+08	3.519906e+12	0.000000e+00	5.377358e-01	9.074653e+13	2.186862e+14	8.183641e+13	7.679791e+03	2.912400e+03	2.078205e+03	0	5.547061e-04
8.000000e+08	3.458825e+12	0.000000e+00	5.377358e-01	8.930422e+13	2.161456e+14	8.145245e+13	7.659562e+03	2.909016e+03	2.075790e+03	0	5.514787e-04
8.100000e+08	3.399426e+12	0.000000e+00	5.377358e-01	8.790138e+13	2.136668e+14	8.107115e+13	7.639653e+03	2.905684e+03	2.073412e+03	0	5.483036e-04
8.200000e+08	3.341646e+12	0.000000e+00	5.377358e-01	8.653649e+13	2.112475e+14	8.069249e+13	7.620055e+03	2.902401e+03	2.071070e+03	0	5.451794e-04
8.300000e+08	3.285423e+12	0.000000e+00	5.377358e-01	8.520812e+13	2.088856e+14	8.031644e+13	7.600760e+03	2.899168e+03	2.068762e+03	0	5.421045e-04
8.400000e+08	3.230698e+12	0.000000e+00	5.377358e-01	8.391488e+13	2.065789e+14	7.994299e+13	7.581760e+03	2.895983e+03	2.066489e+03	0	5.390777e-04
8.500000e+08	3.177416e+12	0.000000e+00	5.377358e-01	8.265548e+13	2.043255e+14	7.957212e+13	7.563046e+03	2.892844e+03	2.064249e+03	0	5.360977e-04
8.600000e+08	3.125522e+12	0.000000e+00	5.377358e-01	8.142868e+13	2.021236e+14	7.920381e+13	7.544612e+03	2.889750e+03	2.062042e+03	0	5.331632e-04
8.700000e+08	3.074968e+12	0.000000e+00	5.377358e-01	8.023329e+13	1.999713e+14	7.883803e+13	7.526450e+03	2.886700e+03	2.059865e+03	0	5.302729e-04
8.800000e+08	3.025704e+12	0.000000e+00	5.377358e-01	7.906817e+13	1.978671e+14	7.847477e+13	7.508553e+03	2.883693e+03	2.057720e+03	0	5.274258e-04
8.900000e+08	2.977684e+12	0.000000e+00	5.377358e-01	7.793226e+13	1.958091e+14	7.811400e+13	7.490915e+03	2.880728e+03	2.055604e+03	0	5.246208e-04
9.000000e+08	2.930865e+12	0.000000e+00	5.377358e-01	7.682452e+13	1.937960e+14	7.775571e+13	7.473529e+03	2.877803e+03	2.053517e+03	0	5.218566e-04
9.100000e+08	2.885204e+12	0.000000e+00	5.377358e-01	7.574397e+13	1.918261e+14	7.739988e+13	7.456389e+03	2.874919e+03	2.051459e+03	0	5.191323e-04
9.200000e+08	2.840661e+12	0.000000e+00	5.377358e-01	7.468968e+13	1.898982e+14	7.704648e+13	7.439489e+03	2.872073e+03	2.049428e+03	0	5.164470e-04
9.300000e+08	2.797198e+12	0.000000e+00	5.377358e-01	7.366074e+13	1.880108e+14	7.669550e+13	7.422823e+03	2.869265e+03	2.047425e+03	0	5.137995e-04
9.400000e+08	2.754779e+12	0.000000e+00	5.377358e-01	7.265630e+13	1.861626e+14	7.634692e+13	7.406385e+03	2.866494e+03	2.045447e+03	0	5.111890e-04
9.500000e+08	2.713368e+12	0.000000e+00	5.377358e-01	7.167554e+13	1.843524e+14	7.600071e+13	7.390171e+03	2.863759e+03	2.043496e+03	0	5.086146e-04
9.600000e+08	2.672931e+12	0.000000e+00	5.377358e-01	7.071767e+13	1.825789e+14	7.565687e+13	7.374174e+03	2.861059e+03	2.041569e+03	0	5.060754e-04
9.700000e+08	2.633437e+12	0.000000e+00	5.377358e-01	6.978194e+13	1.808411e+14	7.531537e+13	7.358391e+03	2.858394e+03	2.039667e+03	0	5.035705e-04
9.800000e+08	2.594855e+12	0.000000e+00	5.377358e-01	6.886763e+13	1.791379e+14	7.497620e+13	7.342815e+03	2.855762e+03	2.037789e+03	0	5.010991e-04
9.900000e+08	2.557155e+12	0.000000e+00	5.377358e-01	6.797405e+13	1.774681e+14	7.463932e+13	7.327442e+03	2.853162e+03	2.035934e+03	0	4.986605e-04
1.000000e+09	2.520309e+12	0.000000e+00	5.377358e-01	6.710053e+13	1.758308e+14	7.430474e+13	7.312268e+03	2.850595e+03	2.034102e+03	0	4.962538e-04
1.010000e+09	2.484290e+12	0.000000e+00	5.377358e-01	6.624645e+13	1.742250e+14	7.397243e+13	7.297288e+03	2.848059e+03	2.032292e+03	0	4.938784e-04
1.020000e+09	2.449072e+12	0.000000e+00	5.377358e-01	6.541119e+13	1.726497e+14	7.364236e+13	7.282498e+03	2.845553e+03	2.030505e+03	0	4.915335e-04
1.030000e+09	2.414630e+12	0.000000e+00	5.377358e-01	6.459416e+13	1.711042e+14	7.331453e+13	7.267894e+03	2.843078e+03	2.028738e+03	0	4.892184e-04
1.040000e+09	2.380940e+12	0.000000e+00	5.377358e-01	6.379482e+13	1.695874e+14	7.298892e+13	7.253471e+03	2.840631e+03	2.026992e+03	0	4.869325e-04
1.050000e+09	2.347979e+12	0.000000e+00	5.377358e-01	6.301261e+13	1.680986e+14	7.266550e+13	7.239226e+03	2.838214e+03	2.025267e+03	0	4.846750e-04
1.060000e+09	2.315724e+12	0.000000e+00	5.377358e-01	6.224702e+13	1.666371e+14	7.234427e+13	7.225154e+03	2.835824e+03	2.023562e+03	0	4.824454e-04
1.070000e+09	2.284155e+12	0.000000e+00	5.377358e-01	6.149755e+13	1.652019e+14	7.202520e+13	7.211254e+03	2.833461e+03	2.021876e+03	0	4.802431e-04
1.080000e+09	2.253251e+12	0.000000e+00	5.377358e-01	6.076373e+13	1.637924e+14	7.170827e+13	7.197519e+03	2.831125e+03	2.020209e+03	0	4.780674e-04
1.090000e+09	2.222993e+12	0.000000e+00	5.377358e-01	6.004509e+13	1.624079e+14	7.139348e+13	7.183948e+03	2.828816e+03	2.018561e+03	0	4.759178e-04
1.100000e+09	2.193361e+12	0.000000e+00	5.377358e-01	5.934118e+13	1.610476e+14	7.108080e+13	7.170537e+03	2.826532e+03	2.016931e+03	0	4.737937e-04
1.110000e+09	2.164338e+12	0.000000e+00	5.377358e-01	5.865159e+13	1.597110e+14	7.077022e+13	7.157283e+03	2.824273e+03	2.015319e+03	0	4.716946e-04
1.120000e+09	2.135905e+12	0.000000e+00	5.377358e-01	5.797590e+13	1.583974e+14	7.046172e+13	7.144181e+03	2.822038e+03	2.013725e+03	0	4.696200e-04
1.130000e+09	2.108046e+12	0.000000e+00	5.377358e-01	5.731371e+13	1.571061e+14	7.015528e+13	7.131231e+03	2.819828e+03	2.012147e+03	0	4.675693e-04
1.140000e+09	2.080745e+12	0.000000e+00	5.377358e-01	5.666465e+13	1.558366e+14	6.985089e+13	7.118427e+03	2.817641e+03	2.010587e+03	0	4.655420e-04
1.150000e+09	2.053986e+12	0.000000e+00	5.377358e-01	5.602835e+13	1.545884e+14	6.954854e+13	7.105768e+03	2.815477e+03	2.009043e+03	0	4.635377e-04
1.160000e+09	2.027754e+12	0.000000e+00	5.377358e-01	5.540445e+13	1.533608e+14	6.924820e+13	7.093250e+03	2.813336e+03	2.007515e+03	0	4.615559e-04
1.170000e+09	2.002034e+12	0.000000e+00	5.377358e-01	5.479261e+13	1.521533e+14	6.894986e+13	7.080872e+03	2.811217e+03	2.006003e+03	0	4.595962e-04
1.180000e+09	1.976813e+12	0.000000e+00	5.377358e-01	5.419250e+13	1.509654e+14	6.865351e+13	7.068629e+03	2.809120e+03	2.004507e+03	0	4.576580e-04
1.190000e+09	1.952076e+12	0.000000e+00	5.377358e-01	5.360380e+13	1.497967e+14	6.835912e+13	7.056521e+03	2.807044e+03	2.003025e+03	0	4.557410e-04
1.200000e+09	1.927811e+12	0.000000e+00	5.377358e-01	5.302622e+13	1.486466e+14	6.806669e+13	7.044543e+03	2.804989e+03	2.001559e+03	0	4.538448e-04
1.210000e+09	1.904004e+12	0.000000e+00	5.377358e-01	5.245944e+13	1.475147e+14	6.777620e+13	7.032694e+03	2.802954e+03	2.000107e+03	0	4.519689e-04
1.220000e+09	1.880645e+12	0.000000e+00	5.377358e-01	5.190319e+13	1.464005e+14	6.748764e+13	7.020970e+03	2.800940e+03	1.998670e+03	0	4.501130e-04
1.230000e+09	1.857721e+12	0.000000e+00	5.377358e-01	5.135718e+13	1.453036e+14	6.720098e+13	7.009371e+03	2.798945e+03	1.997246e+03	0	4.482766e-04
1.240000e+09	1.835220e+12	0.000000e+00	5.377358e-01	5.082116e+13	1.442235e+14	6.691622e+13	6.997894e+03	2.796969e+03	1.995836e+03	0	4.464594e-04
1.250000e+09	1.813132e+12	0.000000e+00	5.377358e-01	5.029486e+13	1.431600e+14	6.663334e+13	6.986535e+03	2.795013e+03	1.994440e+03	0	4.446610e-04
1.260000e+09	1.791446e+12	0.000000e+00	5.377358e-01	4.977804e+13	1.421125e+14	6.635232e+13	6.975294e+03	2.793075e+03	1.993057e+03	0	4.428811e-04
1.270000e+09	1.770151e+12	0.000000e+00	5.377358e-01	4.927045e+13	1.410808e+14	6.607316e+13	6.964168e+03	2.791155e+03	1.991688e+03	0	4.411193e-04
1.280000e+09	1.749239e+12	0.000000e+00	5.377358e-01	4.877185e+13	1.400643e+14	6.579583e+13	6.953155e+03	2.789254e+03	1.990331e+03	0	4.393753e-04
1.290000e+09	1.728698e+12	0.000000e+00	5.377358e-01	4.828203e+13	1.390629e+14	6.552032e+13	6.942254e+03	2.787370e+03	1.988986e+03	0	4.376487e-04
1.300000e+09	1.708521e+12	0.000000e+00	5.377358e-01	4.780077e+13	1.380760e+14	6.524663e+13	6.931461e+03	2.785503e+03	1.987654e+03	0	4.359393e-04
1.310000e+09	1.688697e+12	0.000000e+00	5.377358e-01	4.732785e+13	1.371035e+14	6.497472e+13	6.920775e+03	2.783653e+03	1.986334e+03	0	4.342467e-04
1.320000e+09	1.669218e+12	0.000000e+00	5.377358e-01	4.686306e+13	1.361450e+14	6.470460e+13	6.910195e+03	2.781820e+03	1.985026e+03	0	4.325706e-04
1.330000e+09	1.650076e+12	0.000000e+00	5.377358e-01	4.640622e+13	1.352001e+14	6.443624e+13	6.899719e+03	2.780003e+03	1.983730e+03	0	4.309107e-04
1.340000e+09	1.631263e+12	0.000000e+00	5.377358e-01	4.595713e+13	1.342685e+14	6.416964e+13	6.889344e+03	2.778202e+03	1.982445e+03	0	4.292667e-04
1.350000e+09	1.612770e+12	0.000000e+00	5.377358e-01	4.551560e+13	1.333501e+14	6.390478e+13	6.879069e+03	2.776417e+03	1.981171e+03	0	4.276384e-04
1.360000e+09	1.594590e+12	0.000000e+00	5.377358e-01	4.508145e+13	1.324444e+14	6.364164e+13	6.868893e+03	2.774648e+03	1.979908e+03	0	4.260255e-04
