#t		Qconv[W]	Ri[Rp]		R*[Rp]		Qc[W]		Qm[W]		Qr[W]		Tcmb[K]		Tl[K]		Tup[K]		RiFlag		Bs[T]
0.000000e+00	1.510105e+15	0.000000e+00	5.327103e-01	2.903567e+16	3.836596e+15	1.637366e+14	3.166031e+04	4.436451e+03	2.624541e+03	0	4.141847e-03
1.000000e+07	1.025079e+15	0.000000e+00	5.327103e-01	1.972242e+16	1.282504e+16	1.628293e+14	2.767691e+04	5.667961e+03	3.353085e+03	0	3.640079e-03
2.000000e+07	7.338217e+14	0.000000e+00	5.327103e-01	1.412898e+16	1.477654e+16	1.619289e+14	2.486808e+04	5.974302e+03	3.534312e+03	0	3.256281e-03
3.000000e+07	5.504659e+14	0.000000e+00	5.327103e-01	1.060711e+16	1.322357e+16	1.610352e+14	2.280113e+04	5.953050e+03	3.521740e+03	0	2.958707e-03
4.000000e+07	4.287269e+14	0.000000e+00	5.327103e-01	8.268344e+15	1.114496e+16	1.601482e+14	2.121778e+04	5.841635e+03	3.455828e+03	0	2.722191e-03
5.000000e+07	3.440648e+14	0.000000e+00	5.327103e-01	6.641561e+15	9.326858e+15	1.592677e+14	1.996408e+04	5.713674e+03	3.380128e+03	0	2.529716e-03
6.000000e+07	2.828759e+14	0.000000e+00	5.327103e-01	5.465582e+15	7.869595e+15	1.583939e+14	1.894445e+04	5.590795e+03	3.307434e+03	0	2.369866e-03
7.000000e+07	2.372142e+14	0.000000e+00	5.327103e-01	4.587842e+15	6.721099e+15	1.575265e+14	1.809687e+04	5.478613e+03	3.241069e+03	0	2.234800e-03
8.000000e+07	2.022143e+14	0.000000e+00	5.327103e-01	3.914912e+15	5.812010e+15	1.566656e+14	1.737947e+04	5.377733e+03	3.181390e+03	0	2.118991e-03
9.000000e+07	1.747720e+14	0.000000e+00	5.327103e-01	3.387179e+15	5.084343e+15	1.558111e+14	1.676305e+04	5.287247e+03	3.127860e+03	0	2.018439e-03
1.000000e+08	1.528351e+14	0.000000e+00	5.327103e-01	2.965230e+15	4.494281e+15	1.549630e+14	1.622658e+04	5.205894e+03	3.079732e+03	0	1.930187e-03
1.100000e+08	1.350045e+14	0.000000e+00	5.327103e-01	2.622189e+15	4.009583e+15	1.541211e+14	1.575459e+04	5.132441e+03	3.036279e+03	0	1.852001e-03
1.200000e+08	1.202998e+14	0.000000e+00	5.327103e-01	2.339227e+15	3.606560e+15	1.532855e+14	1.533538e+04	5.065799e+03	2.996854e+03	0	1.782160e-03
1.300000e+08	1.080182e+14	0.000000e+00	5.327103e-01	2.102842e+15	3.267682e+15	1.524561e+14	1.495999e+04	5.005036e+03	2.960908e+03	0	1.719323e-03
1.400000e+08	9.764488e+13	0.000000e+00	5.327103e-01	1.903140e+15	2.979821e+15	1.516328e+14	1.462142e+04	4.949372e+03	2.927978e+03	0	1.662423e-03
1.500000e+08	8.879572e+13	0.000000e+00	5.327103e-01	1.732744e+15	2.733026e+15	1.508156e+14	1.431409e+04	4.898150e+03	2.897676e+03	0	1.610605e-03
1.600000e+08	8.117938e+13	0.000000e+00	5.327103e-01	1.586053e+15	2.519657e+15	1.500044e+14	1.403355e+04	4.850821e+03	2.869677e+03	0	1.563173e-03
1.700000e+08	7.457156e+13	0.000000e+00	5.327103e-01	1.458758e+15	2.333777e+15	1.491992e+14	1.377616e+04	4.806922e+03	2.843706e+03	0	1.519554e-03
1.800000e+08	6.879723e+13	0.000000e+00	5.327103e-01	1.347495e+15	2.170718e+15	1.484000e+14	1.353893e+04	4.766060e+03	2.819533e+03	0	1.479274e-03
1.900000e+08	6.371816e+13	0.000000e+00	5.327103e-01	1.249606e+15	2.026771e+15	1.476066e+14	1.331937e+04	4.727903e+03	2.796960e+03	0	1.441937e-03
2.000000e+08	5.922396e+13	0.000000e+00	5.327103e-01	1.162969e+15	1.898957e+15	1.468191e+14	1.311541e+04	4.692164e+03	2.775817e+03	0	1.407206e-03
2.100000e+08	5.522555e+13	0.000000e+00	5.327103e-01	1.085872e+15	1.784865e+15	1.460374e+14	1.292529e+04	4.658598e+03	2.755960e+03	0	1.374797e-03
2.200000e+08	5.165042e+13	0.000000e+00	5.327103e-01	1.016921e+15	1.682522e+15	1.452614e+14	1.274751e+04	4.626993e+03	2.737263e+03	0	1.344466e-03
2.300000e+08	4.843903e+13	0.000000e+00	5.327103e-01	9.549712e+14	1.590302e+15	1.444911e+14	1.258081e+04	4.597164e+03	2.719617e+03	0	1.316003e-03
2.400000e+08	4.554208e+13	0.000000e+00	5.327103e-01	8.990740e+14	1.506857e+15	1.437264e+14	1.242406e+04	4.568950e+03	2.702925e+03	0	1.289227e-03
2.500000e+08	4.291849e+13	0.000000e+00	5.327103e-01	8.484394e+14	1.431058e+15	1.429674e+14	1.227633e+04	4.542209e+03	2.687106e+03	0	1.263979e-03
2.600000e+08	4.053377e+13	0.000000e+00	5.327103e-01	8.024040e+14	1.361957e+15	1.422139e+14	1.213676e+04	4.516816e+03	2.672084e+03	0	1.240121e-03
2.700000e+08	3.835877e+13	0.000000e+00	5.327103e-01	7.604075e+14	1.298749e+15	1.414659e+14	1.200464e+04	4.492660e+03	2.657794e+03	0	1.217531e-03
2.800000e+08	3.636875e+13	0.000000e+00	5.327103e-01	7.219736e+14	1.240751e+15	1.407234e+14	1.187933e+04	4.469644e+03	2.644178e+03	0	1.196101e-03
2.900000e+08	3.454256e+13	0.000000e+00	5.327103e-01	6.866955e+14	1.187375e+15	1.399863e+14	1.176024e+04	4.447679e+03	2.631183e+03	0	1.175736e-03
3.000000e+08	3.286205e+13	0.000000e+00	5.327103e-01	6.542239e+14	1.138119e+15	1.392546e+14	1.164689e+04	4.426687e+03	2.618765e+03	0	1.156352e-03
3.100000e+08	3.131156e+13	0.000000e+00	5.327103e-01	6.242574e+14	1.092546e+15	1.385282e+14	1.153881e+04	4.406598e+03	2.606880e+03	0	1.137872e-03
3.200000e+08	2.987749e+13	0.000000e+00	5.327103e-01	5.965345e+14	1.050278e+15	1.378070e+14	1.143561e+04	4.387347e+03	2.595492e+03	0	1.120228e-03
3.300000e+08	2.854804e+13	0.000000e+00	5.327103e-01	5.708279e+14	1.010985e+15	1.370912e+14	1.133693e+04	4.368878e+03	2.584566e+03	0	1.103360e-03
3.400000e+08	2.731289e+13	0.000000e+00	5.327103e-01	5.469388e+14	9.743788e+14	1.363805e+14	1.124245e+04	4.351137e+03	2.574071e+03	0	1.087212e-03
3.500000e+08	2.616296e+13	0.000000e+00	5.327103e-01	5.246927e+14	9.402048e+14	1.356750e+14	1.115186e+04	4.334079e+03	2.563979e+03	0	1.071735e-03
3.600000e+08	2.509028e+13	0.000000e+00	5.327103e-01	5.039361e+14	9.082396e+14	1.349746e+14	1.106491e+04	4.317659e+03	2.554265e+03	0	1.056883e-03
3.700000e+08	2.408780e+13	0.000000e+00	5.327103e-01	4.845334e+14	8.782851e+14	1.342793e+14	1.098136e+04	4.301838e+03	2.544906e+03	0	1.042615e-03
3.800000e+08	2.314929e+13	0.000000e+00	5.327103e-01	4.663641e+14	8.501655e+14	1.335890e+14	1.090099e+04	4.286580e+03	2.535880e+03	0	1.028895e-03
3.900000e+08	2.226918e+13	0.000000e+00	5.327103e-01	4.493215e+14	8.237245e+14	1.329037e+14	1.082359e+04	4.271853e+03	2.527167e+03	0	1.015687e-03
4.000000e+08	2.144254e+13	0.000000e+00	5.327103e-01	4.333102e+14	7.988223e+14	1.322233e+14	1.074899e+04	4.257625e+03	2.518750e+03	0	1.002960e-03
4.100000e+08	2.066492e+13	0.000000e+00	5.327103e-01	4.182449e+14	7.753338e+14	1.315478e+14	1.067701e+04	4.243868e+03	2.510612e+03	0	9.906867e-04
4.200000e+08	1.993237e+13	0.000000e+00	5.327103e-01	4.040492e+14	7.531468e+14	1.308773e+14	1.060751e+04	4.230557e+03	2.502737e+03	0	9.788393e-04
4.300000e+08	1.924132e+13	0.000000e+00	5.327103e-01	3.906545e+14	7.321602e+14	1.302115e+14	1.054034e+04	4.217668e+03	2.495112e+03	0	9.673940e-04
4.400000e+08	1.858856e+13	0.000000e+00	5.327103e-01	3.779988e+14	7.122829e+14	1.295505e+14	1.047538e+04	4.205178e+03	2.487723e+03	0	9.563283e-04
4.500000e+08	1.797119e+13	0.000000e+00	5.327103e-01	3.660263e+14	6.934324e+14	1.288943e+14	1.041249e+04	4.193068e+03	2.480559e+03	0	9.456215e-04
4.600000e+08	1.738658e+13	0.000000e+00	5.327103e-01	3.546863e+14	6.755340e+14	1.282428e+14	1.035158e+04	4.181317e+03	2.473607e+03	0	9.352544e-04
4.700000e+08	1.683235e+13	0.000000e+00	5.327103e-01	3.439330e+14	6.585200e+14	1.275960e+14	1.029254e+04	4.169908e+03	2.466858e+03	0	9.252093e-04
4.800000e+08	1.630634e+13	0.000000e+00	5.327103e-01	3.337247e+14	6.423286e+14	1.269538e+14	1.023527e+04	4.158824e+03	2.460301e+03	0	9.154695e-04
4.900000e+08	1.580657e+13	0.000000e+00	5.327103e-01	3.240234e+14	6.269036e+14	1.263162e+14	1.017968e+04	4.148051e+03	2.453928e+03	0	9.060198e-04
5.000000e+08	1.533126e+13	0.000000e+00	5.327103e-01	3.147945e+14	6.121936e+14	1.256832e+14	1.012569e+04	4.137573e+03	2.447729e+03	0	8.968457e-04
5.100000e+08	1.487876e+13	0.000000e+00	5.327103e-01	3.060063e+14	5.981516e+14	1.250547e+14	1.007323e+04	4.127376e+03	2.441697e+03	0	8.879340e-04
5.200000e+08	1.444757e+13	0.000000e+00	5.327103e-01	2.976297e+14	5.847345e+14	1.244306e+14	1.002221e+04	4.117449e+03	2.435824e+03	0	8.792721e-04
5.300000e+08	1.403630e+13	0.000000e+00	5.327103e-01	2.896383e+14	5.719027e+14	1.238110e+14	9.972585e+03	4.107780e+03	2.430104e+03	0	8.708485e-04
5.400000e+08	1.364369e+13	0.000000e+00	5.327103e-01	2.820076e+14	5.596198e+14	1.231959e+14	9.924277e+03	4.098356e+03	2.424529e+03	0	8.626521e-04
5.500000e+08	1.326858e+13	0.000000e+00	5.327103e-01	2.747152e+14	5.478524e+14	1.225851e+14	9.877230e+03	4.089168e+03	2.419094e+03	0	8.546728e-04
5.600000e+08	1.290989e+13	0.000000e+00	5.327103e-01	2.677403e+14	5.365695e+14	1.219786e+14	9.831389e+03	4.080206e+03	2.413792e+03	0	8.469009e-04
5.700000e+08	1.256664e+13	0.000000e+00	5.327103e-01	2.610638e+14	5.257426e+14	1.213765e+14	9.786703e+03	4.071460e+03	2.408618e+03	0	8.393274e-04
5.800000e+08	1.223790e+13	0.000000e+00	5.327103e-01	2.546680e+14	5.153453e+14	1.207786e+14	9.743121e+03	4.062922e+03	2.403567e+03	0	8.319438e-04
5.900000e+08	1.192283e+13	0.000000e+00	5.327103e-01	2.485367e+14	5.053532e+14	1.201850e+14	9.700599e+03	4.054583e+03	2.398634e+03	0	8.247422e-04
6.000000e+08	1.162065e+13	0.000000e+00	5.327103e-01	2.426548e+14	4.957435e+14	1.195956e+14	9.659092e+03	4.046436e+03	2.393814e+03	0	8.177148e-04
6.100000e+08	1.133063e+13	0.000000e+00	5.327103e-01	2.370081e+14	4.864952e+14	1.190103e+14	9.618560e+03	4.038472e+03	2.389103e+03	0	8.108548e-04
6.200000e+08	1.105209e+13	0.000000e+00	5.327103e-01	2.315836e+14	4.775888e+14	1.184292e+14	9.578964e+03	4.030686e+03	2.384496e+03	0	8.041553e-04
6.300000e+08	1.078442e+13	0.000000e+00	5.327103e-01	2.263692e+14	4.690060e+14	1.178522e+14	9.540267e+03	4.023069e+03	2.379990e+03	0	7.976101e-04
6.400000e+08	1.052701e+13	0.000000e+00	5.327103e-01	2.213537e+14	4.607298e+14	1.172792e+14	9.502435e+03	4.015617e+03	2.375582e+03	0	7.912130e-04
6.500000e+08	1.027933e+13	0.000000e+00	5.327103e-01	2.165265e+14	4.527444e+14	1.167103e+14	9.465434e+03	4.008323e+03	2.371267e+03	0	7.849585e-04
6.600000e+08	1.004087e+13	0.000000e+00	5.327103e-01	2.118778e+14	4.450350e+14	1.161454e+14	9.429235e+03	4.001181e+03	2.367041e+03	0	7.788411e-04
6.700000e+08	9.811153e+12	0.000000e+00	5.327103e-01	2.073985e+14	4.375877e+14	1.155845e+14	9.393808e+03	3.994186e+03	2.362903e+03	0	7.728557e-04
6.800000e+08	9.589738e+12	0.000000e+00	5.327103e-01	2.030799e+14	4.303897e+14	1.150275e+14	9.359124e+03	3.987332e+03	2.358849e+03	0	7.669976e-04
6.900000e+08	9.376208e+12	0.000000e+00	5.327103e-01	1.989140e+14	4.234288e+14	1.144744e+14	9.325157e+03	3.980616e+03	2.354875e+03	0	7.612620e-04
7.000000e+08	9.170176e+12	0.000000e+00	5.327103e-01	1.948934e+14	4.166937e+14	1.139251e+14	9.291883e+03	3.974031e+03	2.350980e+03	0	7.556447e-04
7.100000e+08	8.971275e+12	0.000000e+00	5.327103e-01	1.910110e+14	4.101736e+14	1.133798e+14	9.259276e+03	3.967574e+03	2.347160e+03	0	7.501414e-04
7.200000e+08	8.779165e+12	0.000000e+00	5.327103e-01	1.872602e+14	4.038586e+14	1.128382e+14	9.227315e+03	3.961241e+03	2.343413e+03	0	7.447482e-04
7.300000e+08	8.593525e+12	0.000000e+00	5.327103e-01	1.836347e+14	3.977393e+14	1.123004e+14	9.195977e+03	3.955027e+03	2.339737e+03	0	7.394614e-04
7.400000e+08	8.414051e+12	0.000000e+00	5.327103e-01	1.801288e+14	3.918067e+14	1.117664e+14	9.165242e+03	3.948928e+03	2.336129e+03	0	7.342773e-04
7.500000e+08	8.240460e+12	0.000000e+00	5.327103e-01	1.767370e+14	3.860526e+14	1.112361e+14	9.135089e+03	3.942941e+03	2.332588e+03	0	7.291926e-04
7.600000e+08	8.072485e+12	0.000000e+00	5.327103e-01	1.734540e+14	3.804690e+14	1.107095e+14	9.105501e+03	3.937063e+03	2.329110e+03	0	7.242038e-04
7.700000e+08	7.909873e+12	0.000000e+00	5.327103e-01	1.702751e+14	3.750486e+14	1.101866e+14	9.076460e+03	3.931289e+03	2.325695e+03	0	7.193080e-04
7.800000e+08	7.752387e+12	0.000000e+00	5.327103e-01	1.671955e+14	3.697844e+14	1.096673e+14	9.047947e+03	3.925617e+03	2.322339e+03	0	7.145022e-04
7.900000e+08	7.599803e+12	0.000000e+00	5.327103e-01	1.642111e+14	3.646697e+14	1.091516e+14	9.019947e+03	3.920044e+03	2.319042e+03	0	7.097834e-04
8.000000e+08	7.451908e+12	0.000000e+00	5.327103e-01	1.613176e+14	3.596983e+14	1.086395e+14	8.992443e+03	3.914566e+03	2.315801e+03	0	7.051490e-04
8.100000e+08	7.308503e+12	0.000000e+00	5.327103e-01	1.585113e+14	3.548643e+14	1.081309e+14	8.965421e+03	3.909181e+03	2.312616e+03	0	7.005964e-04
8.200000e+08	7.169398e+12	0.000000e+00	5.327103e-01	1.557884e+14	3.501620e+14	1.076258e+14	8.938867e+03	3.903886e+03	2.309483e+03	0	6.961230e-04
8.300000e+08	7.034415e+12	0.000000e+00	5.327103e-01	1.531455e+14	3.455862e+14	1.071243e+14	8.912766e+03	3.898678e+03	2.306402e+03	0	6.917265e-04
8.400000e+08	6.903382e+12	0.000000e+00	5.327103e-01	1.505793e+14	3.411319e+14	1.066262e+14	8.887105e+03	3.893555e+03	2.303372e+03	0	6.874045e-04
8.500000e+08	6.776140e+12	0.000000e+00	5.327103e-01	1.480866e+14	3.367942e+14	1.061315e+14	8.861872e+03	3.888515e+03	2.300390e+03	0	6.831549e-04
8.600000e+08	6.652536e+12	0.000000e+00	5.327103e-01	1.456647e+14	3.325686e+14	1.056403e+14	8.837055e+03	3.883554e+03	2.297455e+03	0	6.789756e-04
8.700000e+08	6.532425e+12	0.000000e+00	5.327103e-01	1.433105e+14	3.284509e+14	1.051524e+14	8.812640e+03	3.878672e+03	2.294567e+03	0	6.748645e-04
8.800000e+08	6.415670e+12	0.000000e+00	5.327103e-01	1.410216e+14	3.244370e+14	1.046679e+14	8.788619e+03	3.873865e+03	2.291723e+03	0	6.708196e-04
8.900000e+08	6.302141e+12	0.000000e+00	5.327103e-01	1.387953e+14	3.205229e+14	1.041867e+14	8.764979e+03	3.869132e+03	2.288923e+03	0	6.668392e-04
9.000000e+08	6.191714e+12	0.000000e+00	5.327103e-01	1.366293e+14	3.167051e+14	1.037088e+14	8.741710e+03	3.864470e+03	2.286165e+03	0	6.629214e-04
9.100000e+08	6.084270e+12	0.000000e+00	5.327103e-01	1.345212e+14	3.129798e+14	1.032342e+14	8.718802e+03	3.859878e+03	2.283449e+03	0	6.590645e-04
9.200000e+08	5.979697e+12	0.000000e+00	5.327103e-01	1.324690e+14	3.093439e+14	1.027629e+14	8.696246e+03	3.855355e+03	2.280773e+03	0	6.552668e-04
9.300000e+08	5.877889e+12	0.000000e+00	5.327103e-01	1.304705e+14	3.057941e+14	1.022948e+14	8.674032e+03	3.850897e+03	2.278136e+03	0	6.515267e-04
9.400000e+08	5.778743e+12	0.000000e+00	5.327103e-01	1.285237e+14	3.023274e+14	1.018298e+14	8.652152e+03	3.846503e+03	2.275536e+03	0	6.478427e-04
9.500000e+08	5.682163e+12	0.000000e+00	5.327103e-01	1.266269e+14	2.989408e+14	1.013681e+14	8.630597e+03	3.842173e+03	2.272975e+03	0	6.442132e-04
9.600000e+08	5.588057e+12	0.000000e+00	5.327103e-01	1.247781e+14	2.956316e+14	1.009095e+14	8.609358e+03	3.837903e+03	2.270449e+03	0	6.406370e-04
9.700000e+08	5.496335e+12	0.000000e+00	5.327103e-01	1.229757e+14	2.923971e+14	1.004540e+14	8.588427e+03	3.833694e+03	2.267958e+03	0	6.371125e-04
9.800000e+08	5.406914e+12	0.000000e+00	5.327103e-01	1.212181e+14	2.892349e+14	1.000016e+14	8.567798e+03	3.829542e+03	2.265502e+03	0	6.336385e-04
9.900000e+08	5.319713e+12	0.000000e+00	5.327103e-01	1.195037e+14	2.861425e+14	9.955227e+13	8.547462e+03	3.825447e+03	2.263080e+03	0	6.302137e-04
1.000000e+09	5.234656e+12	0.000000e+00	5.327103e-01	1.178309e+14	2.831175e+14	9.910601e+13	8.527412e+03	3.821407e+03	2.260690e+03	0	6.268368e-04
1.010000e+09	5.151668e+12	0.000000e+00	5.327103e-01	1.161985e+14	2.801579e+14	9.866278e+13	8.507641e+03	3.817421e+03	2.258332e+03	0	6.235066e-04
1.020000e+09	5.070681e+12	0.000000e+00	5.327103e-01	1.146049e+14	2.772613e+14	9.822255e+13	8.488143e+03	3.813488e+03	2.256005e+03	0	6.202220e-04
1.030000e+09	4.991625e+12	0.000000e+00	5.327103e-01	1.130490e+14	2.744259e+14	9.778529e+13	8.468911e+03	3.809607e+03	2.253709e+03	0	6.169819e-04
1.040000e+09	4.914438e+12	0.000000e+00	5.327103e-01	1.115295e+14	2.716497e+14	9.735100e+13	8.449939e+03	3.805775e+03	2.251442e+03	0	6.137851e-04
1.050000e+09	4.839057e+12	0.000000e+00	5.327103e-01	1.100451e+14	2.689308e+14	9.691963e+13	8.431221e+03	3.801993e+03	2.249205e+03	0	6.106307e-04
1.060000e+09	4.765424e+12	0.000000e+00	5.327103e-01	1.085948e+14	2.662675e+14	9.649118e+13	8.412751e+03	3.798258e+03	2.246995e+03	0	6.075177e-04
1.070000e+09	4.693482e+12	0.000000e+00	5.327103e-01	1.071774e+14	2.636579e+14	9.606561e+13	8.394523e+03	3.794571e+03	2.244814e+03	0	6.044450e-04
1.080000e+09	4.623177e+12	0.000000e+00	5.327103e-01	1.057919e+14	2.611006e+14	9.564290e+13	8.376532e+03	3.790929e+03	2.242659e+03	0	6.014117e-04
1.090000e+09	4.554456e+12	0.000000e+00	5.327103e-01	1.044372e+14	2.585938e+14	9.522304e+13	8.358773e+03	3.787331e+03	2.240531e+03	0	5.984170e-04
1.100000e+09	4.487271e+12	0.000000e+00	5.327103e-01	1.031125e+14	2.561362e+14	9.480600e+13	8.341240e+03	3.783778e+03	2.238429e+03	0	5.954599e-04
1.110000e+09	4.421572e+12	0.000000e+00	5.327103e-01	1.018168e+14	2.537262e+14	9.439175e+13	8.323928e+03	3.780267e+03	2.236352e+03	0	5.925395e-04
1.120000e+09	4.357315e+12	0.000000e+00	5.327103e-01	1.005491e+14	2.513624e+14	9.398028e+13	8.306833e+03	3.776798e+03	2.234300e+03	0	5.896551e-04
1.130000e+09	4.294454e+12	0.000000e+00	5.327103e-01	9.930868e+13	2.490435e+14	9.357156e+13	8.289950e+03	3.773369e+03	2.232271e+03	0	5.868058e-04
1.140000e+09	4.232948e+12	0.000000e+00	5.327103e-01	9.809466e+13	2.467682e+14	9.316557e+13	8.273275e+03	3.769981e+03	2.230267e+03	0	5.839909e-04
1.150000e+09	4.172756e+12	0.000000e+00	5.327103e-01	9.690627e+13	2.445353e+14	9.276230e+13	8.256802e+03	3.766632e+03	2.228286e+03	0	5.812096e-04
1.160000e+09	4.113838e+12	0.000000e+00	5.327103e-01	9.574273e+13	2.423435e+14	9.236171e+13	8.240528e+03	3.763321e+03	2.226327e+03	0	5.784611e-04
1.170000e+09	4.056158e+12	0.000000e+00	5.327103e-01	9.460331e+13	2.401917e+14	9.196379e+13	8.224449e+03	3.760048e+03	2.224391e+03	0	5.757448e-04
1.180000e+09	3.999677e+12	0.000000e+00	5.327103e-01	9.348732e+13	2.380788e+14	9.156852e+13	8.208560e+03	3.756812e+03	2.222476e+03	0	5.730600e-04
1.190000e+09	3.944363e+12	0.000000e+00	5.327103e-01	9.239408e+13	2.360038e+14	9.117588e+13	8.192858e+03	3.753611e+03	2.220583e+03	0	5.704059e-04
1.200000e+09	3.890180e+12	0.000000e+00	5.327103e-01	9.132292e+13	2.339655e+14	9.078585e+13	8.177339e+03	3.750446e+03	2.218710e+03	0	5.677820e-04
1.210000e+09	3.837097e+12	0.000000e+00	5.327103e-01	9.027322e+13	2.319631e+14	9.039840e+13	8.161999e+03	3.747315e+03	2.216858e+03	0	5.651877e-04
1.220000e+09	3.785083e+12	0.000000e+00	5.327103e-01	8.924439e+13	2.299954e+14	9.001352e+13	8.146835e+03	3.744218e+03	2.215026e+03	0	5.626222e-04
1.230000e+09	3.734107e+12	0.000000e+00	5.327103e-01	8.823582e+13	2.280618e+14	8.963118e+13	8.131843e+03	3.741154e+03	2.213213e+03	0	5.600851e-04
1.240000e+09	3.684140e+12	0.000000e+00	5.327103e-01	8.724697e+13	2.261611e+14	8.925137e+13	8.117019e+03	3.738123e+03	2.211420e+03	0	5.575756e-04
1.250000e+09	3.635155e+12	0.000000e+00	5.327103e-01	8.627728e+13	2.242926e+14	8.887407e+13	8.102361e+03	3.735123e+03	2.209646e+03	0	5.550934e-04
1.260000e+09	3.587124e+12	0.000000e+00	5.327103e-01	8.532623e+13	2.224554e+14	8.849926e+13	8.087866e+03	3.732155e+03	2.207890e+03	0	5.526378e-04
1.270000e+09	3.540022e+12	0.000000e+00	5.327103e-01	8.439332e+13	2.206488e+14	8.812691e+13	8.073529e+03	3.729217e+03	2.206152e+03	0	5.502082e-04
1.280000e+09	3.493823e+12	0.000000e+00	5.327103e-01	8.347806e+13	2.188719e+14	8.775702e+13	8.059349e+03	3.726309e+03	2.204431e+03	0	5.478042e-04
1.290000e+09	3.448504e+12	0.000000e+00	5.327103e-01	8.257999e+13	2.171241e+14	8.738955e+13	8.045322e+03	3.723431e+03	2.202729e+03	0	5.454253e-04
1.300000e+09	3.404040e+12	0.000000e+00	5.327103e-01	8.169863e+13	2.154045e+14	8.702450e+13	8.031445e+03	3.720582e+03	2.201043e+03	0	5.430710e-04
1.310000e+09	3.360409e+12	0.000000e+00	5.327103e-01	8.083356e+13	2.137125e+14	8.666184e+13	8.017716e+03	3.717761e+03	2.199374e+03	0	5.407408e-04
1.320000e+09	3.317590e+12	0.000000e+00	5.327103e-01	7.998435e+13	2.120474e+14	8.630156e+13	8.004132e+03	3.714967e+03	2.197722e+03	0	5.384342e-04
1.330000e+09	3.275560e+12	0.000000e+00	5.327103e-01	7.915059e+13	2.104086e+14	8.594363e+13	7.990690e+03	3.712201e+03	2.196085e+03	0	5.361508e-04
1.340000e+09	3.234301e+12	0.000000e+00	5.327103e-01	7.833189e+13	2.087954e+14	8.558804e+13	7.977387e+03	3.709462e+03	2.194465e+03	0	5.338901e-04
1.350000e+09	3.193792e+12	0.000000e+00	5.327103e-01	7.752785e+13	2.072072e+14	8.523477e+13	7.964222e+03	3.706749e+03	2.192860e+03	0	5.316518e-04
1.360000e+09	3.154013e+12	0.000000e+00	5.327103e-01	7.673812e+13	2.056434e+14	8.488381e+13	7.951191e+03	3.704062e+03	2.191270e+03	0	5.294353e-04
