#t		Qconv[W]	Ri[Rp]		R*[Rp]		Qc[W]		Qm[W]		Qr[W]		Tcmb[K]		Tl[K]		Tup[K]		RiFlag		Bs[T]
0.000000e+00	1.232752e+14	0.000000e+00	5.238095e-01	2.333383e+15	1.656569e+15	1.863261e+14	1.729755e+04	3.862846e+03	2.729192e+03	0	1.824761e-03
1.000000e+07	1.133087e+14	0.000000e+00	5.238095e-01	2.147470e+15	1.722861e+15	1.852937e+14	1.695390e+04	3.903074e+03	2.757615e+03	0	1.774197e-03
2.000000e+07	1.044740e+14	0.000000e+00	5.238095e-01	1.982638e+15	1.758504e+15	1.842690e+14	1.663689e+04	3.931468e+03	2.777675e+03	0	1.726832e-03
3.000000e+07	9.661836e+13	0.000000e+00	5.238095e-01	1.836043e+15	1.769608e+15	1.832520e+14	1.634358e+04	3.950471e+03	2.791102e+03	0	1.682418e-03
4.000000e+07	8.961170e+13	0.000000e+00	5.238095e-01	1.705263e+15	1.761823e+15	1.822426e+14	1.607142e+04	3.962088e+03	2.799309e+03	0	1.640724e-03
5.000000e+07	8.334289e+13	0.000000e+00	5.238095e-01	1.588230e+15	1.740001e+15	1.812407e+14	1.581818e+04	3.967932e+03	2.803438e+03	0	1.601537e-03
6.000000e+07	7.771688e+13	0.000000e+00	5.238095e-01	1.483175e+15	1.708112e+15	1.802463e+14	1.558193e+04	3.969292e+03	2.804399e+03	0	1.564657e-03
7.000000e+07	7.265226e+13	0.000000e+00	5.238095e-01	1.388580e+15	1.669300e+15	1.792593e+14	1.536097e+04	3.967188e+03	2.802912e+03	0	1.529902e-03
8.000000e+07	6.807922e+13	0.000000e+00	5.238095e-01	1.303147e+15	1.625992e+15	1.782796e+14	1.515380e+04	3.962423e+03	2.799545e+03	0	1.497105e-03
9.000000e+07	6.393780e+13	0.000000e+00	5.238095e-01	1.225760e+15	1.580024e+15	1.773073e+14	1.495912e+04	3.955630e+03	2.794746e+03	0	1.466110e-03
1.000000e+08	6.017642e+13	0.000000e+00	5.238095e-01	1.155457e+15	1.532761e+15	1.763421e+14	1.477578e+04	3.947305e+03	2.788865e+03	0	1.436777e-03
1.100000e+08	5.675064e+13	0.000000e+00	5.238095e-01	1.091411e+15	1.485204e+15	1.753841e+14	1.460276e+04	3.937839e+03	2.782177e+03	0	1.408978e-03
1.200000e+08	5.362204e+13	0.000000e+00	5.238095e-01	1.032906e+15	1.438068e+15	1.744332e+14	1.443916e+04	3.927536e+03	2.774897e+03	0	1.382596e-03
1.300000e+08	5.075740e+13	0.000000e+00	5.238095e-01	9.793241e+14	1.391857e+15	1.734893e+14	1.428417e+04	3.916636e+03	2.767196e+03	0	1.357523e-03
1.400000e+08	4.812783e+13	0.000000e+00	5.238095e-01	9.301266e+14	1.346912e+15	1.725525e+14	1.413709e+04	3.905328e+03	2.759206e+03	0	1.333663e-03
1.500000e+08	4.570824e+13	0.000000e+00	5.238095e-01	8.848458e+14	1.303458e+15	1.716225e+14	1.399727e+04	3.893757e+03	2.751031e+03	0	1.310928e-03
1.600000e+08	4.347669e+13	0.000000e+00	5.238095e-01	8.430734e+14	1.261628e+15	1.706994e+14	1.386416e+04	3.882040e+03	2.742753e+03	0	1.289237e-03
1.700000e+08	4.141401e+13	0.000000e+00	5.238095e-01	8.044519e+14	1.221493e+15	1.697832e+14	1.373723e+04	3.870265e+03	2.734434e+03	0	1.268517e-03
1.800000e+08	3.950337e+13	0.000000e+00	5.238095e-01	7.686679e+14	1.183075e+15	1.688736e+14	1.361603e+04	3.858504e+03	2.726125e+03	0	1.248702e-03
1.900000e+08	3.772997e+13	0.000000e+00	5.238095e-01	7.354453e+14	1.146366e+15	1.679708e+14	1.350014e+04	3.846811e+03	2.717863e+03	0	1.229729e-03
2.000000e+08	3.608075e+13	0.000000e+00	5.238095e-01	7.045408e+14	1.111331e+15	1.670746e+14	1.338919e+04	3.835227e+03	2.709679e+03	0	1.211544e-03
2.100000e+08	3.454415e+13	0.000000e+00	5.238095e-01	6.757391e+14	1.077922e+15	1.661851e+14	1.328284e+04	3.823784e+03	2.701594e+03	0	1.194095e-03
2.200000e+08	3.310993e+13	0.000000e+00	5.238095e-01	6.488491e+14	1.046079e+15	1.653020e+14	1.318078e+04	3.812506e+03	2.693625e+03	0	1.177335e-03
2.300000e+08	3.176899e+13	0.000000e+00	5.238095e-01	6.237012e+14	1.015738e+15	1.644254e+14	1.308273e+04	3.801410e+03	2.685786e+03	0	1.161222e-03
2.400000e+08	3.051322e+13	0.000000e+00	5.238095e-01	6.001440e+14	9.868286e+14	1.635553e+14	1.298843e+04	3.790510e+03	2.678085e+03	0	1.145715e-03
2.500000e+08	2.933535e+13	0.000000e+00	5.238095e-01	5.780423e+14	9.592810e+14	1.626915e+14	1.289765e+04	3.779815e+03	2.670528e+03	0	1.130779e-03
2.600000e+08	2.822891e+13	0.000000e+00	5.238095e-01	5.572751e+14	9.330254e+14	1.618341e+14	1.281017e+04	3.769329e+03	2.663120e+03	0	1.116380e-03
2.700000e+08	2.718806e+13	0.000000e+00	5.238095e-01	5.377336e+14	9.079933e+14	1.609829e+14	1.272579e+04	3.759056e+03	2.655862e+03	0	1.102487e-03
2.800000e+08	2.620757e+13	0.000000e+00	5.238095e-01	5.193202e+14	8.841184e+14	1.601380e+14	1.264434e+04	3.748997e+03	2.648755e+03	0	1.089071e-03
2.900000e+08	2.528271e+13	0.000000e+00	5.238095e-01	5.019467e+14	8.613368e+14	1.592992e+14	1.256565e+04	3.739152e+03	2.641800e+03	0	1.076106e-03
3.000000e+08	2.440922e+13	0.000000e+00	5.238095e-01	4.855335e+14	8.395876e+14	1.584665e+14	1.248956e+04	3.729520e+03	2.634994e+03	0	1.063568e-03
3.100000e+08	2.358323e+13	0.000000e+00	5.238095e-01	4.700086e+14	8.188128e+14	1.576399e+14	1.241594e+04	3.720096e+03	2.628336e+03	0	1.051433e-03
3.200000e+08	2.280124e+13	0.000000e+00	5.238095e-01	4.553067e+14	7.989578e+14	1.568193e+14	1.234464e+04	3.710880e+03	2.621824e+03	0	1.039681e-03
3.300000e+08	2.206008e+13	0.000000e+00	5.238095e-01	4.413684e+14	7.799705e+14	1.560046e+14	1.227555e+04	3.701865e+03	2.615456e+03	0	1.028292e-03
3.400000e+08	2.135685e+13	0.000000e+00	5.238095e-01	4.281396e+14	7.618023e+14	1.551959e+14	1.220855e+04	3.693049e+03	2.609227e+03	0	1.017247e-03
3.500000e+08	2.068891e+13	0.000000e+00	5.238095e-01	4.155710e+14	7.444073e+14	1.543931e+14	1.214355e+04	3.684427e+03	2.603135e+03	0	1.006530e-03
3.600000e+08	2.005384e+13	0.000000e+00	5.238095e-01	4.036178e+14	7.277423e+14	1.535960e+14	1.208043e+04	3.675994e+03	2.597177e+03	0	9.961236e-04
3.700000e+08	1.944945e+13	0.000000e+00	5.238095e-01	3.922386e+14	7.117669e+14	1.528048e+14	1.201911e+04	3.667745e+03	2.591349e+03	0	9.860141e-04
3.800000e+08	1.887371e+13	0.000000e+00	5.238095e-01	3.813958e+14	6.964431e+14	1.520193e+14	1.195950e+04	3.659676e+03	2.585648e+03	0	9.761872e-04
3.900000e+08	1.832477e+13	0.000000e+00	5.238095e-01	3.710547e+14	6.817354e+14	1.512394e+14	1.190153e+04	3.651781e+03	2.580070e+03	0	9.666298e-04
4.000000e+08	1.780092e+13	0.000000e+00	5.238095e-01	3.611834e+14	6.676105e+14	1.504652e+14	1.184511e+04	3.644055e+03	2.574611e+03	0	9.573296e-04
4.100000e+08	1.730059e+13	0.000000e+00	5.238095e-01	3.517528e+14	6.540370e+14	1.496965e+14	1.179018e+04	3.636494e+03	2.569269e+03	0	9.482751e-04
4.200000e+08	1.682235e+13	0.000000e+00	5.238095e-01	3.427357e+14	6.409858e+14	1.489334e+14	1.173667e+04	3.629093e+03	2.564040e+03	0	9.394555e-04
4.300000e+08	1.636485e+13	0.000000e+00	5.238095e-01	3.341073e+14	6.284292e+14	1.481758e+14	1.168452e+04	3.621847e+03	2.558921e+03	0	9.308607e-04
4.400000e+08	1.592686e+13	0.000000e+00	5.238095e-01	3.258445e+14	6.163417e+14	1.474237e+14	1.163368e+04	3.614751e+03	2.553907e+03	0	9.224809e-04
4.500000e+08	1.550724e+13	0.000000e+00	5.238095e-01	3.179259e+14	6.046990e+14	1.466769e+14	1.158408e+04	3.607802e+03	2.548997e+03	0	9.143073e-04
4.600000e+08	1.510493e+13	0.000000e+00	5.238095e-01	3.103318e+14	5.934786e+14	1.459356e+14	1.153568e+04	3.600993e+03	2.544187e+03	0	9.063312e-04
4.700000e+08	1.471896e+13	0.000000e+00	5.238095e-01	3.030438e+14	5.826591e+14	1.451995e+14	1.148842e+04	3.594323e+03	2.539474e+03	0	8.985447e-04
4.800000e+08	1.434840e+13	0.000000e+00	5.238095e-01	2.960450e+14	5.722207e+14	1.444687e+14	1.144227e+04	3.587785e+03	2.534855e+03	0	8.909401e-04
4.900000e+08	1.399242e+13	0.000000e+00	5.238095e-01	2.893195e+14	5.621445e+14	1.437431e+14	1.139717e+04	3.581377e+03	2.530327e+03	0	8.835103e-04
5.000000e+08	1.365022e+13	0.000000e+00	5.238095e-01	2.828524e+14	5.524129e+14	1.430228e+14	1.135309e+04	3.575093e+03	2.525888e+03	0	8.762484e-04
5.100000e+08	1.332107e+13	0.000000e+00	5.238095e-01	2.766302e+14	5.430094e+14	1.423075e+14	1.130998e+04	3.568932e+03	2.521535e+03	0	8.691480e-04
5.200000e+08	1.300429e+13	0.000000e+00	5.238095e-01	2.706400e+14	5.339184e+14	1.415974e+14	1.126782e+04	3.562888e+03	2.517264e+03	0	8.622030e-04
5.300000e+08	1.269923e+13	0.000000e+00	5.238095e-01	2.648697e+14	5.251252e+14	1.408924e+14	1.122657e+04	3.556958e+03	2.513075e+03	0	8.554076e-04
5.400000e+08	1.240529e+13	0.000000e+00	5.238095e-01	2.593083e+14	5.166160e+14	1.401923e+14	1.118619e+04	3.551139e+03	2.508964e+03	0	8.487563e-04
5.500000e+08	1.212192e+13	0.000000e+00	5.238095e-01	2.539452e+14	5.083777e+14	1.394973e+14	1.114665e+04	3.545428e+03	2.504929e+03	0	8.422438e-04
5.600000e+08	1.184859e+13	0.000000e+00	5.238095e-01	2.487706e+14	5.003981e+14	1.388071e+14	1.110792e+04	3.539821e+03	2.500968e+03	0	8.358653e-04
5.700000e+08	1.158482e+13	0.000000e+00	5.238095e-01	2.437754e+14	4.926656e+14	1.381219e+14	1.106997e+04	3.534316e+03	2.497078e+03	0	8.296159e-04
5.800000e+08	1.133013e+13	0.000000e+00	5.238095e-01	2.389508e+14	4.851692e+14	1.374416e+14	1.103279e+04	3.528909e+03	2.493258e+03	0	8.234912e-04
5.900000e+08	1.108410e+13	0.000000e+00	5.238095e-01	2.342889e+14	4.778987e+14	1.367661e+14	1.099633e+04	3.523598e+03	2.489505e+03	0	8.174869e-04
6.000000e+08	1.084632e+13	0.000000e+00	5.238095e-01	2.297819e+14	4.708441e+14	1.360953e+14	1.096058e+04	3.518379e+03	2.485818e+03	0	8.115989e-04
6.100000e+08	1.061640e+13	0.000000e+00	5.238095e-01	2.254227e+14	4.639963e+14	1.354293e+14	1.092552e+04	3.513251e+03	2.482195e+03	0	8.058233e-04
6.200000e+08	1.039400e+13	0.000000e+00	5.238095e-01	2.212047e+14	4.573466e+14	1.347680e+14	1.089111e+04	3.508210e+03	2.478634e+03	0	8.001564e-04
6.300000e+08	1.017876e+13	0.000000e+00	5.238095e-01	2.171213e+14	4.508867e+14	1.341114e+14	1.085734e+04	3.503255e+03	2.475132e+03	0	7.945946e-04
6.400000e+08	9.970364e+12	0.000000e+00	5.238095e-01	2.131667e+14	4.446087e+14	1.334594e+14	1.082420e+04	3.498382e+03	2.471690e+03	0	7.891345e-04
6.500000e+08	9.768518e+12	0.000000e+00	5.238095e-01	2.093351e+14	4.385052e+14	1.328120e+14	1.079165e+04	3.493589e+03	2.468304e+03	0	7.837729e-04
6.600000e+08	9.572933e+12	0.000000e+00	5.238095e-01	2.056213e+14	4.325692e+14	1.321691e+14	1.075969e+04	3.488875e+03	2.464973e+03	0	7.785067e-04
6.700000e+08	9.383341e+12	0.000000e+00	5.238095e-01	2.020202e+14	4.267939e+14	1.315308e+14	1.072829e+04	3.484237e+03	2.461696e+03	0	7.733330e-04
6.800000e+08	9.199485e+12	0.000000e+00	5.238095e-01	1.985271e+14	4.211731e+14	1.308970e+14	1.069743e+04	3.479673e+03	2.458471e+03	0	7.682488e-04
6.900000e+08	9.021126e+12	0.000000e+00	5.238095e-01	1.951373e+14	4.157007e+14	1.302676e+14	1.066711e+04	3.475181e+03	2.455298e+03	0	7.632514e-04
7.000000e+08	8.848036e+12	0.000000e+00	5.238095e-01	1.918467e+14	4.103710e+14	1.296426e+14	1.063730e+04	3.470759e+03	2.452174e+03	0	7.583383e-04
7.100000e+08	8.679998e+12	0.000000e+00	5.238095e-01	1.886512e+14	4.051784e+14	1.290220e+14	1.060799e+04	3.466406e+03	2.449098e+03	0	7.535069e-04
7.200000e+08	8.516809e+12	0.000000e+00	5.238095e-01	1.855469e+14	4.001180e+14	1.284057e+14	1.057917e+04	3.462118e+03	2.446069e+03	0	7.487549e-04
7.300000e+08	8.358272e+12	0.000000e+00	5.238095e-01	1.825302e+14	3.951846e+14	1.277937e+14	1.055081e+04	3.457896e+03	2.443085e+03	0	7.440798e-04
7.400000e+08	8.204206e+12	0.000000e+00	5.238095e-01	1.795978e+14	3.903736e+14	1.271860e+14	1.052292e+04	3.453737e+03	2.440147e+03	0	7.394796e-04
7.500000e+08	8.054433e+12	0.000000e+00	5.238095e-01	1.767461e+14	3.856806e+14	1.265826e+14	1.049547e+04	3.449639e+03	2.437251e+03	0	7.349521e-04
7.600000e+08	7.908788e+12	0.000000e+00	5.238095e-01	1.739723e+14	3.811013e+14	1.259833e+14	1.046846e+04	3.445600e+03	2.434398e+03	0	7.304952e-04
7.700000e+08	7.767113e+12	0.000000e+00	5.238095e-01	1.712732e+14	3.766316e+14	1.253882e+14	1.044186e+04	3.441621e+03	2.431586e+03	0	7.261069e-04
7.800000e+08	7.629257e+12	0.000000e+00	5.238095e-01	1.686461e+14	3.722676e+14	1.247973e+14	1.041568e+04	3.437698e+03	2.428815e+03	0	7.217854e-04
7.900000e+08	7.495078e+12	0.000000e+00	5.238095e-01	1.660883e+14	3.680056e+14	1.242104e+14	1.038990e+04	3.433830e+03	2.426082e+03	0	7.175289e-04
8.000000e+08	7.364438e+12	0.000000e+00	5.238095e-01	1.635972e+14	3.638421e+14	1.236277e+14	1.036450e+04	3.430017e+03	2.423388e+03	0	7.133356e-04
8.100000e+08	7.237208e+12	0.000000e+00	5.238095e-01	1.611704e+14	3.597737e+14	1.230489e+14	1.033949e+04	3.426256e+03	2.420731e+03	0	7.092038e-04
8.200000e+08	7.113264e+12	0.000000e+00	5.238095e-01	1.588055e+14	3.557972e+14	1.224742e+14	1.031484e+04	3.422547e+03	2.418110e+03	0	7.051319e-04
8.300000e+08	6.992488e+12	0.000000e+00	5.238095e-01	1.565004e+14	3.519095e+14	1.219034e+14	1.029056e+04	3.418888e+03	2.415525e+03	0	7.011182e-04
8.400000e+08	6.874767e+12	0.000000e+00	5.238095e-01	1.542529e+14	3.481077e+14	1.213366e+14	1.026662e+04	3.415278e+03	2.412975e+03	0	6.971614e-04
8.500000e+08	6.759994e+12	0.000000e+00	5.238095e-01	1.520610e+14	3.443888e+14	1.207737e+14	1.024303e+04	3.411716e+03	2.410458e+03	0	6.932600e-04
8.600000e+08	6.648065e+12	0.000000e+00	5.238095e-01	1.499228e+14	3.407503e+14	1.202147e+14	1.021977e+04	3.408201e+03	2.407975e+03	0	6.894124e-04
8.700000e+08	6.538883e+12	0.000000e+00	5.238095e-01	1.478364e+14	3.371895e+14	1.196595e+14	1.019683e+04	3.404732e+03	2.405523e+03	0	6.856175e-04
8.800000e+08	6.432353e+12	0.000000e+00	5.238095e-01	1.458001e+14	3.337039e+14	1.191082e+14	1.017422e+04	3.401307e+03	2.403104e+03	0	6.818738e-04
8.900000e+08	6.328387e+12	0.000000e+00	5.238095e-01	1.438122e+14	3.302911e+14	1.185606e+14	1.015191e+04	3.397925e+03	2.400715e+03	0	6.781801e-04
9.000000e+08	6.226897e+12	0.000000e+00	5.238095e-01	1.418710e+14	3.269490e+14	1.180168e+14	1.012991e+04	3.394586e+03	2.398356e+03	0	6.745351e-04
9.100000e+08	6.127801e+12	0.000000e+00	5.238095e-01	1.399751e+14	3.236752e+14	1.174767e+14	1.010820e+04	3.391289e+03	2.396026e+03	0	6.709378e-04
9.200000e+08	6.031022e+12	0.000000e+00	5.238095e-01	1.381229e+14	3.204676e+14	1.169403e+14	1.008678e+04	3.388033e+03	2.393726e+03	0	6.673869e-04
9.300000e+08	5.936483e+12	0.000000e+00	5.238095e-01	1.363130e+14	3.173244e+14	1.164076e+14	1.006564e+04	3.384816e+03	2.391453e+03	0	6.638813e-04
9.400000e+08	5.844112e+12	0.000000e+00	5.238095e-01	1.345441e+14	3.142434e+14	1.158785e+14	1.004478e+04	3.381639e+03	2.389208e+03	0	6.604200e-04
9.500000e+08	5.753840e+12	0.000000e+00	5.238095e-01	1.328149e+14	3.112229e+14	1.153531e+14	1.002419e+04	3.378499e+03	2.386989e+03	0	6.570019e-04
9.600000e+08	5.665599e+12	0.000000e+00	5.238095e-01	1.311240e+14	3.082611e+14	1.148312e+14	1.000386e+04	3.375396e+03	2.384798e+03	0	6.536260e-04
9.700000e+08	5.579328e+12	0.000000e+00	5.238095e-01	1.294704e+14	3.053563e+14	1.143129e+14	9.983791e+03	3.372330e+03	2.382631e+03	0	6.502914e-04
9.800000e+08	5.494963e+12	0.000000e+00	5.238095e-01	1.278528e+14	3.025067e+14	1.137981e+14	9.963972e+03	3.369300e+03	2.380490e+03	0	6.469970e-04
9.900000e+08	5.412447e+12	0.000000e+00	5.238095e-01	1.262702e+14	2.997108e+14	1.132868e+14	9.944400e+03	3.366305e+03	2.378374e+03	0	6.437421e-04
1.000000e+09	5.331722e+12	0.000000e+00	5.238095e-01	1.247215e+14	2.969672e+14	1.127789e+14	9.925069e+03	3.363343e+03	2.376282e+03	0	6.405256e-04
1.010000e+09	5.252735e+12	0.000000e+00	5.238095e-01	1.232056e+14	2.942742e+14	1.122746e+14	9.905974e+03	3.360416e+03	2.374213e+03	0	6.373469e-04
1.020000e+09	5.175433e+12	0.000000e+00	5.238095e-01	1.217216e+14	2.916305e+14	1.117736e+14	9.887111e+03	3.357520e+03	2.372168e+03	0	6.342049e-04
1.030000e+09	5.099766e+12	0.000000e+00	5.238095e-01	1.202686e+14	2.890347e+14	1.112760e+14	9.868473e+03	3.354657e+03	2.370145e+03	0	6.310989e-04
1.040000e+09	5.025685e+12	0.000000e+00	5.238095e-01	1.188455e+14	2.864855e+14	1.107818e+14	9.850057e+03	3.351826e+03	2.368144e+03	0	6.280282e-04
1.050000e+09	4.953145e+12	0.000000e+00	5.238095e-01	1.174517e+14	2.839816e+14	1.102909e+14	9.831858e+03	3.349025e+03	2.366165e+03	0	6.249919e-04
1.060000e+09	4.882101e+12	0.000000e+00	5.238095e-01	1.160861e+14	2.815219e+14	1.098034e+14	9.813872e+03	3.346254e+03	2.364208e+03	0	6.219893e-04
1.070000e+09	4.812509e+12	0.000000e+00	5.238095e-01	1.147481e+14	2.791050e+14	1.093191e+14	9.796094e+03	3.343513e+03	2.362271e+03	0	6.190198e-04
1.080000e+09	4.744327e+12	0.000000e+00	5.238095e-01	1.134368e+14	2.767300e+14	1.088381e+14	9.778520e+03	3.340801e+03	2.360355e+03	0	6.160826e-04
1.090000e+09	4.677517e+12	0.000000e+00	5.238095e-01	1.121514e+14	2.743956e+14	1.083603e+14	9.761146e+03	3.338118e+03	2.358459e+03	0	6.131770e-04
1.100000e+09	4.612040e+12	0.000000e+00	5.238095e-01	1.108913e+14	2.721009e+14	1.078857e+14	9.743969e+03	3.335462e+03	2.356583e+03	0	6.103023e-04
1.110000e+09	4.547858e+12	0.000000e+00	5.238095e-01	1.096558e+14	2.698447e+14	1.074143e+14	9.726983e+03	3.332833e+03	2.354726e+03	0	6.074581e-04
1.120000e+09	4.484935e+12	0.000000e+00	5.238095e-01	1.084441e+14	2.676262e+14	1.069460e+14	9.710186e+03	3.330231e+03	2.352887e+03	0	6.046435e-04
1.130000e+09	4.423237e+12	0.000000e+00	5.238095e-01	1.072556e+14	2.654443e+14	1.064809e+14	9.693574e+03	3.327656e+03	2.351068e+03	0	6.018581e-04
1.140000e+09	4.362731e+12	0.000000e+00	5.238095e-01	1.060898e+14	2.632982e+14	1.060189e+14	9.677144e+03	3.325106e+03	2.349266e+03	0	5.991012e-04
1.150000e+09	4.303385e+12	0.000000e+00	5.238095e-01	1.049459e+14	2.611868e+14	1.055600e+14	9.660891e+03	3.322582e+03	2.347483e+03	0	5.963722e-04
1.160000e+09	4.245166e+12	0.000000e+00	5.238095e-01	1.038234e+14	2.591095e+14	1.051042e+14	9.644813e+03	3.320082e+03	2.345717e+03	0	5.936707e-04
1.170000e+09	4.188047e+12	0.000000e+00	5.238095e-01	1.027218e+14	2.570653e+14	1.046514e+14	9.628906e+03	3.317607e+03	2.343968e+03	0	5.909960e-04
1.180000e+09	4.131997e+12	0.000000e+00	5.238095e-01	1.016404e+14	2.550534e+14	1.042016e+14	9.613167e+03	3.315156e+03	2.342236e+03	0	5.883476e-04
1.190000e+09	4.076988e+12	0.000000e+00	5.238095e-01	1.005788e+14	2.530730e+14	1.037547e+14	9.597594e+03	3.312728e+03	2.340521e+03	0	5.857251e-04
1.200000e+09	4.022993e+12	0.000000e+00	5.238095e-01	9.953648e+13	2.511235e+14	1.033109e+14	9.582182e+03	3.310323e+03	2.338822e+03	0	5.831279e-04
1.210000e+09	3.969987e+12	0.000000e+00	5.238095e-01	9.851290e+13	2.492040e+14	1.028700e+14	9.566930e+03	3.307941e+03	2.337139e+03	0	5.805555e-04
1.220000e+09	3.917944e+12	0.000000e+00	5.238095e-01	9.750760e+13	2.473138e+14	1.024320e+14	9.551834e+03	3.305581e+03	2.335471e+03	0	5.780075e-04
1.230000e+09	3.866840e+12	0.000000e+00	5.238095e-01	9.652012e+13	2.454524e+14	1.019969e+14	9.536891e+03	3.303243e+03	2.333820e+03	0	5.754833e-04
1.240000e+09	3.816650e+12	0.000000e+00	5.238095e-01	9.555002e+13	2.436189e+14	1.015647e+14	9.522099e+03	3.300927e+03	2.332183e+03	0	5.729826e-04
1.250000e+09	3.767352e+12	0.000000e+00	5.238095e-01	9.459686e+13	2.418127e+14	1.011354e+14	9.507456e+03	3.298631e+03	2.330561e+03	0	5.705049e-04
1.260000e+09	3.718924e+12	0.000000e+00	5.238095e-01	9.366022e+13	2.400333e+14	1.007089e+14	9.492958e+03	3.296356e+03	2.328954e+03	0	5.680498e-04
1.270000e+09	3.671344e+12	0.000000e+00	5.238095e-01	9.273970e+13	2.382800e+14	1.002851e+14	9.478603e+03	3.294102e+03	2.327361e+03	0	5.656169e-04
1.280000e+09	3.624591e+12	0.000000e+00	5.238095e-01	9.183491e+13	2.365522e+14	9.986421e+13	9.464388e+03	3.291867e+03	2.325782e+03	0	5.632057e-04
1.290000e+09	3.578646e+12	0.000000e+00	5.238095e-01	9.094546e+13	2.348494e+14	9.944605e+13	9.450312e+03	3.289653e+03	2.324217e+03	0	5.608159e-04
1.300000e+09	3.533489e+12	0.000000e+00	5.238095e-01	9.007100e+13	2.331710e+14	9.903063e+13	9.436372e+03	3.287457e+03	2.322666e+03	0	5.584470e-04
1.310000e+09	3.489101e+12	0.000000e+00	5.238095e-01	8.921115e+13	2.315165e+14	9.861794e+13	9.422565e+03	3.285281e+03	2.321129e+03	0	5.560987e-04
1.320000e+09	3.445464e+12	0.000000e+00	5.238095e-01	8.836558e+13	2.298853e+14	9.820795e+13	9.408890e+03	3.283123e+03	2.319604e+03	0	5.537706e-04
1.330000e+09	3.402559e+12	0.000000e+00	5.238095e-01	8.753395e+13	2.282769e+14	9.780064e+13	9.395344e+03	3.280984e+03	2.318093e+03	0	5.514624e-04
1.340000e+09	3.360370e+12	0.000000e+00	5.238095e-01	8.671594e+13	2.266909e+14	9.739600e+13	9.381925e+03	3.278862e+03	2.316594e+03	0	5.491737e-04
1.350000e+09	3.318880e+12	0.000000e+00	5.238095e-01	8.591123e+13	2.251268e+14	9.699399e+13	9.368631e+03	3.276759e+03	2.315108e+03	0	5.469041e-04
1.360000e+09	3.278073e+12	0.000000e+00	5.238095e-01	8.511951e+13	2.235841e+14	9.659460e+13	9.355460e+03	3.274673e+03	2.313634e+03	0	5.446534e-04
