#t		Qconv[W]	Ri[Rp]		R*[Rp]		Qc[W]		Qm[W]		Qr[W]		Tcmb[K]		Tl[K]		Tup[K]		RiFlag		Bs[T]
0.000000e+00	1.535511e+14	0.000000e+00	5.283019e-01	2.619526e+15	1.764336e+15	2.072309e+14	1.783957e+04	3.939440e+03	2.749257e+03	0	1.932692e-03
1.000000e+07	1.418065e+14	0.000000e+00	5.283019e-01	2.422511e+15	1.849418e+15	2.060826e+14	1.750231e+04	3.984191e+03	2.780488e+03	0	1.882105e-03
2.000000e+07	1.313104e+14	0.000000e+00	5.283019e-01	2.246401e+15	1.901918e+15	2.049430e+14	1.718976e+04	4.016964e+03	2.803359e+03	0	1.834473e-03
3.000000e+07	1.219069e+14	0.000000e+00	5.283019e-01	2.088591e+15	1.927372e+15	2.038119e+14	1.689936e+04	4.040055e+03	2.819475e+03	0	1.789594e-03
4.000000e+07	1.134614e+14	0.000000e+00	5.283019e-01	1.946827e+15	1.931238e+15	2.026893e+14	1.662888e+04	4.055392e+03	2.830178e+03	0	1.747274e-03
5.000000e+07	1.058571e+14	0.000000e+00	5.283019e-01	1.819155e+15	1.918432e+15	2.015750e+14	1.637634e+04	4.064561e+03	2.836577e+03	0	1.707334e-03
6.000000e+07	9.899291e+13	0.000000e+00	5.283019e-01	1.703880e+15	1.893149e+15	2.004690e+14	1.614000e+04	4.068854e+03	2.839572e+03	0	1.669603e-03
7.000000e+07	9.278071e+13	0.000000e+00	5.283019e-01	1.599529e+15	1.858824e+15	1.993712e+14	1.591832e+04	4.069310e+03	2.839891e+03	0	1.633921e-03
8.000000e+07	8.714411e+13	0.000000e+00	5.283019e-01	1.504824e+15	1.818202e+15	1.982817e+14	1.570994e+04	4.066765e+03	2.838115e+03	0	1.600139e-03
9.000000e+07	8.201671e+13	0.000000e+00	5.283019e-01	1.418652e+15	1.773425e+15	1.972002e+14	1.551366e+04	4.061885e+03	2.834709e+03	0	1.568120e-03
1.000000e+08	7.734078e+13	0.000000e+00	5.283019e-01	1.340047e+15	1.726136e+15	1.961267e+14	1.532841e+04	4.055200e+03	2.830044e+03	0	1.537734e-03
1.100000e+08	7.306601e+13	0.000000e+00	5.283019e-01	1.268167e+15	1.677579e+15	1.950612e+14	1.515323e+04	4.047133e+03	2.824414e+03	0	1.508864e-03
1.200000e+08	6.914858e+13	0.000000e+00	5.283019e-01	1.202279e+15	1.628679e+15	1.940036e+14	1.498729e+04	4.038020e+03	2.818054e+03	0	1.481402e-03
1.300000e+08	6.555022e+13	0.000000e+00	5.283019e-01	1.141740e+15	1.580112e+15	1.929539e+14	1.482982e+04	4.028126e+03	2.811149e+03	0	1.455246e-03
1.400000e+08	6.223743e+13	0.000000e+00	5.283019e-01	1.085991e+15	1.532365e+15	1.919119e+14	1.468015e+04	4.017665e+03	2.803849e+03	0	1.430306e-03
1.500000e+08	5.918087e+13	0.000000e+00	5.283019e-01	1.034539e+15	1.485778e+15	1.908776e+14	1.453768e+04	4.006804e+03	2.796269e+03	0	1.406497e-03
1.600000e+08	5.635476e+13	0.000000e+00	5.283019e-01	9.869527e+14	1.440581e+15	1.898510e+14	1.440185e+04	3.995677e+03	2.788504e+03	0	1.383742e-03
1.700000e+08	5.373639e+13	0.000000e+00	5.283019e-01	9.428522e+14	1.396920e+15	1.888319e+14	1.427217e+04	3.984389e+03	2.780626e+03	0	1.361971e-03
1.800000e+08	5.130575e+13	0.000000e+00	5.283019e-01	9.019019e+14	1.354879e+15	1.878203e+14	1.414821e+04	3.973026e+03	2.772696e+03	0	1.341118e-03
1.900000e+08	4.904511e+13	0.000000e+00	5.283019e-01	8.638049e+14	1.314496e+15	1.868162e+14	1.402955e+04	3.961652e+03	2.764758e+03	0	1.321124e-03
2.000000e+08	4.693879e+13	0.000000e+00	5.283019e-01	8.282981e+14	1.275776e+15	1.858195e+14	1.391583e+04	3.950320e+03	2.756850e+03	0	1.301934e-03
2.100000e+08	4.497284e+13	0.000000e+00	5.283019e-01	7.951480e+14	1.238699e+15	1.848301e+14	1.380673e+04	3.939071e+03	2.749000e+03	0	1.283498e-03
2.200000e+08	4.313484e+13	0.000000e+00	5.283019e-01	7.641463e+14	1.203229e+15	1.838480e+14	1.370193e+04	3.927937e+03	2.741229e+03	0	1.265769e-03
2.300000e+08	4.141371e+13	0.000000e+00	5.283019e-01	7.351073e+14	1.169316e+15	1.828731e+14	1.360117e+04	3.916941e+03	2.733555e+03	0	1.248705e-03
2.400000e+08	3.979954e+13	0.000000e+00	5.283019e-01	7.078648e+14	1.136905e+15	1.819053e+14	1.350419e+04	3.906102e+03	2.725991e+03	0	1.232266e-03
2.500000e+08	3.828344e+13	0.000000e+00	5.283019e-01	6.822698e+14	1.105935e+15	1.809446e+14	1.341077e+04	3.895435e+03	2.718547e+03	0	1.216416e-03
2.600000e+08	3.685743e+13	0.000000e+00	5.283019e-01	6.581885e+14	1.076343e+15	1.799910e+14	1.332068e+04	3.884948e+03	2.711228e+03	0	1.201121e-03
2.700000e+08	3.551432e+13	0.000000e+00	5.283019e-01	6.355005e+14	1.048065e+15	1.790443e+14	1.323373e+04	3.874649e+03	2.704041e+03	0	1.186350e-03
2.800000e+08	3.424765e+13	0.000000e+00	5.283019e-01	6.140971e+14	1.021036e+15	1.781046e+14	1.314974e+04	3.864543e+03	2.696988e+03	0	1.172075e-03
2.900000e+08	3.305154e+13	0.000000e+00	5.283019e-01	5.938800e+14	9.951942e+14	1.771717e+14	1.306856e+04	3.854631e+03	2.690071e+03	0	1.158268e-03
3.000000e+08	3.192070e+13	0.000000e+00	5.283019e-01	5.747603e+14	9.704791e+14	1.762456e+14	1.299002e+04	3.844915e+03	2.683290e+03	0	1.144904e-03
3.100000e+08	3.085033e+13	0.000000e+00	5.283019e-01	5.566572e+14	9.468319e+14	1.753262e+14	1.291397e+04	3.835394e+03	2.676645e+03	0	1.131961e-03
3.200000e+08	2.983603e+13	0.000000e+00	5.283019e-01	5.394975e+14	9.241966e+14	1.744135e+14	1.284030e+04	3.826066e+03	2.670136e+03	0	1.119417e-03
3.300000e+08	2.887385e+13	0.000000e+00	5.283019e-01	5.232144e+14	9.025196e+14	1.735075e+14	1.276888e+04	3.816931e+03	2.663761e+03	0	1.107252e-03
3.400000e+08	2.796015e+13	0.000000e+00	5.283019e-01	5.077469e+14	8.817500e+14	1.726081e+14	1.269959e+04	3.807984e+03	2.657517e+03	0	1.095447e-03
3.500000e+08	2.709160e+13	0.000000e+00	5.283019e-01	4.930394e+14	8.618395e+14	1.717151e+14	1.263233e+04	3.799224e+03	2.651403e+03	0	1.083985e-03
3.600000e+08	2.626519e+13	0.000000e+00	5.283019e-01	4.790409e+14	8.427425e+14	1.708287e+14	1.256700e+04	3.790645e+03	2.645416e+03	0	1.072849e-03
3.700000e+08	2.547813e+13	0.000000e+00	5.283019e-01	4.657048e+14	8.244160e+14	1.699486e+14	1.250351e+04	3.782244e+03	2.639554e+03	0	1.062024e-03
3.800000e+08	2.472786e+13	0.000000e+00	5.283019e-01	4.529883e+14	8.068192e+14	1.690750e+14	1.244177e+04	3.774018e+03	2.633813e+03	0	1.051495e-03
3.900000e+08	2.401205e+13	0.000000e+00	5.283019e-01	4.408520e+14	7.899139e+14	1.682076e+14	1.238170e+04	3.765962e+03	2.628190e+03	0	1.041249e-03
4.000000e+08	2.332853e+13	0.000000e+00	5.283019e-01	4.292596e+14	7.736640e+14	1.673466e+14	1.232322e+04	3.758072e+03	2.622684e+03	0	1.031274e-03
4.100000e+08	2.267532e+13	0.000000e+00	5.283019e-01	4.181777e+14	7.580355e+14	1.664917e+14	1.226627e+04	3.750343e+03	2.617290e+03	0	1.021558e-03
4.200000e+08	2.205058e+13	0.000000e+00	5.283019e-01	4.075754e+14	7.429966e+14	1.656430e+14	1.221077e+04	3.742771e+03	2.612006e+03	0	1.012088e-03
4.300000e+08	2.145261e+13	0.000000e+00	5.283019e-01	3.974243e+14	7.285171e+14	1.648004e+14	1.215668e+04	3.735353e+03	2.606829e+03	0	1.002856e-03
4.400000e+08	2.087985e+13	0.000000e+00	5.283019e-01	3.876980e+14	7.145688e+14	1.639638e+14	1.210391e+04	3.728083e+03	2.601756e+03	0	9.938500e-04
4.500000e+08	2.033083e+13	0.000000e+00	5.283019e-01	3.783720e+14	7.011251e+14	1.631333e+14	1.205243e+04	3.720958e+03	2.596783e+03	0	9.850617e-04
4.600000e+08	1.980421e+13	0.000000e+00	5.283019e-01	3.694237e+14	6.881610e+14	1.623087e+14	1.200218e+04	3.713974e+03	2.591909e+03	0	9.764820e-04
4.700000e+08	1.929874e+13	0.000000e+00	5.283019e-01	3.608319e+14	6.756529e+14	1.614901e+14	1.195310e+04	3.707126e+03	2.587130e+03	0	9.681025e-04
4.800000e+08	1.881324e+13	0.000000e+00	5.283019e-01	3.525771e+14	6.635788e+14	1.606773e+14	1.190516e+04	3.700412e+03	2.582444e+03	0	9.599154e-04
4.900000e+08	1.834665e+13	0.000000e+00	5.283019e-01	3.446410e+14	6.519176e+14	1.598703e+14	1.185831e+04	3.693826e+03	2.577848e+03	0	9.519130e-04
5.000000e+08	1.789793e+13	0.000000e+00	5.283019e-01	3.370067e+14	6.406499e+14	1.590691e+14	1.181250e+04	3.687365e+03	2.573339e+03	0	9.440884e-04
5.100000e+08	1.746616e+13	0.000000e+00	5.283019e-01	3.296583e+14	6.297570e+14	1.582737e+14	1.176770e+04	3.681026e+03	2.568915e+03	0	9.364348e-04
5.200000e+08	1.705045e+13	0.000000e+00	5.283019e-01	3.225810e+14	6.192216e+14	1.574839e+14	1.172387e+04	3.674805e+03	2.564574e+03	0	9.289458e-04
5.300000e+08	1.664999e+13	0.000000e+00	5.283019e-01	3.157610e+14	6.090271e+14	1.566997e+14	1.168098e+04	3.668699e+03	2.560313e+03	0	9.216153e-04
5.400000e+08	1.626399e+13	0.000000e+00	5.283019e-01	3.091853e+14	5.991580e+14	1.559211e+14	1.163898e+04	3.662705e+03	2.556129e+03	0	9.144376e-04
5.500000e+08	1.589175e+13	0.000000e+00	5.283019e-01	3.028419e+14	5.895996e+14	1.551481e+14	1.159785e+04	3.656819e+03	2.552021e+03	0	9.074073e-04
5.600000e+08	1.553258e+13	0.000000e+00	5.283019e-01	2.967192e+14	5.803382e+14	1.543806e+14	1.155757e+04	3.651038e+03	2.547987e+03	0	9.005190e-04
5.700000e+08	1.518585e+13	0.000000e+00	5.283019e-01	2.908068e+14	5.713606e+14	1.536185e+14	1.151809e+04	3.645360e+03	2.544024e+03	0	8.937679e-04
5.800000e+08	1.485097e+13	0.000000e+00	5.283019e-01	2.850946e+14	5.626545e+14	1.528618e+14	1.147939e+04	3.639781e+03	2.540131e+03	0	8.871492e-04
5.900000e+08	1.452738e+13	0.000000e+00	5.283019e-01	2.795731e+14	5.542082e+14	1.521105e+14	1.144145e+04	3.634298e+03	2.536305e+03	0	8.806584e-04
6.000000e+08	1.421455e+13	0.000000e+00	5.283019e-01	2.742335e+14	5.460105e+14	1.513645e+14	1.140423e+04	3.628910e+03	2.532544e+03	0	8.742912e-04
6.100000e+08	1.391199e+13	0.000000e+00	5.283019e-01	2.690676e+14	5.380511e+14	1.506237e+14	1.136773e+04	3.623612e+03	2.528847e+03	0	8.680435e-04
6.200000e+08	1.361924e+13	0.000000e+00	5.283019e-01	2.640674e+14	5.303199e+14	1.498882e+14	1.133190e+04	3.618404e+03	2.525213e+03	0	8.619114e-04
6.300000e+08	1.333585e+13	0.000000e+00	5.283019e-01	2.592256e+14	5.228076e+14	1.491579e+14	1.129674e+04	3.613282e+03	2.521638e+03	0	8.558912e-04
6.400000e+08	1.306141e+13	0.000000e+00	5.283019e-01	2.545351e+14	5.155053e+14	1.484328e+14	1.126222e+04	3.608244e+03	2.518122e+03	0	8.499793e-04
6.500000e+08	1.279552e+13	0.000000e+00	5.283019e-01	2.499895e+14	5.084045e+14	1.477128e+14	1.122832e+04	3.603288e+03	2.514663e+03	0	8.441723e-04
6.600000e+08	1.253783e+13	0.000000e+00	5.283019e-01	2.455824e+14	5.014972e+14	1.469978e+14	1.119502e+04	3.598411e+03	2.511260e+03	0	8.384668e-04
6.700000e+08	1.228798e+13	0.000000e+00	5.283019e-01	2.413081e+14	4.947757e+14	1.462878e+14	1.116230e+04	3.593612e+03	2.507911e+03	0	8.328598e-04
6.800000e+08	1.204564e+13	0.000000e+00	5.283019e-01	2.371608e+14	4.882328e+14	1.455829e+14	1.113016e+04	3.588888e+03	2.504614e+03	0	8.273482e-04
6.900000e+08	1.181050e+13	0.000000e+00	5.283019e-01	2.331354e+14	4.818615e+14	1.448829e+14	1.109856e+04	3.584237e+03	2.501368e+03	0	8.219292e-04
7.000000e+08	1.158225e+13	0.000000e+00	5.283019e-01	2.292269e+14	4.756554e+14	1.441878e+14	1.106749e+04	3.579658e+03	2.498173e+03	0	8.166000e-04
7.100000e+08	1.136063e+13	0.000000e+00	5.283019e-01	2.254305e+14	4.696082e+14	1.434975e+14	1.103694e+04	3.575149e+03	2.495026e+03	0	8.113580e-04
7.200000e+08	1.114536e+13	0.000000e+00	5.283019e-01	2.217417e+14	4.637140e+14	1.428121e+14	1.100690e+04	3.570707e+03	2.491926e+03	0	8.062006e-04
7.300000e+08	1.093620e+13	0.000000e+00	5.283019e-01	2.181563e+14	4.579671e+14	1.421315e+14	1.097734e+04	3.566332e+03	2.488872e+03	0	8.011254e-04
7.400000e+08	1.073290e+13	0.000000e+00	5.283019e-01	2.146703e+14	4.523621e+14	1.414556e+14	1.094826e+04	3.562021e+03	2.485864e+03	0	7.961300e-04
7.500000e+08	1.053523e+13	0.000000e+00	5.283019e-01	2.112797e+14	4.468939e+14	1.407844e+14	1.091964e+04	3.557772e+03	2.482899e+03	0	7.912122e-04
7.600000e+08	1.034297e+13	0.000000e+00	5.283019e-01	2.079810e+14	4.415576e+14	1.401180e+14	1.089147e+04	3.553585e+03	2.479977e+03	0	7.863699e-04
7.700000e+08	1.015593e+13	0.000000e+00	5.283019e-01	2.047706e+14	4.363485e+14	1.394561e+14	1.086374e+04	3.549458e+03	2.477096e+03	0	7.816008e-04
7.800000e+08	9.973907e+12	0.000000e+00	5.283019e-01	2.016452e+14	4.312621e+14	1.387989e+14	1.083643e+04	3.545389e+03	2.474256e+03	0	7.769030e-04
7.900000e+08	9.796710e+12	0.000000e+00	5.283019e-01	1.986018e+14	4.262942e+14	1.381462e+14	1.080954e+04	3.541376e+03	2.471456e+03	0	7.722747e-04
8.000000e+08	9.624163e+12	0.000000e+00	5.283019e-01	1.956373e+14	4.214407e+14	1.374980e+14	1.078305e+04	3.537419e+03	2.468695e+03	0	7.677138e-04
8.100000e+08	9.456097e+12	0.000000e+00	5.283019e-01	1.927487e+14	4.166978e+14	1.368543e+14	1.075696e+04	3.533516e+03	2.465971e+03	0	7.632187e-04
8.200000e+08	9.292350e+12	0.000000e+00	5.283019e-01	1.899335e+14	4.120616e+14	1.362151e+14	1.073125e+04	3.529666e+03	2.463284e+03	0	7.587876e-04
8.300000e+08	9.132768e+12	0.000000e+00	5.283019e-01	1.871890e+14	4.075287e+14	1.355803e+14	1.070591e+04	3.525868e+03	2.460633e+03	0	7.544188e-04
8.400000e+08	8.977204e+12	0.000000e+00	5.283019e-01	1.845127e+14	4.030956e+14	1.349499e+14	1.068094e+04	3.522119e+03	2.458017e+03	0	7.501108e-04
8.500000e+08	8.825517e+12	0.000000e+00	5.283019e-01	1.819022e+14	3.987591e+14	1.343239e+14	1.065632e+04	3.518420e+03	2.455436e+03	0	7.458619e-04
8.600000e+08	8.677573e+12	0.000000e+00	5.283019e-01	1.793553e+14	3.945160e+14	1.337021e+14	1.063205e+04	3.514769e+03	2.452888e+03	0	7.416707e-04
8.700000e+08	8.533242e+12	0.000000e+00	5.283019e-01	1.768697e+14	3.903634e+14	1.330847e+14	1.060811e+04	3.511165e+03	2.450373e+03	0	7.375358e-04
8.800000e+08	8.392404e+12	0.000000e+00	5.283019e-01	1.744435e+14	3.862983e+14	1.324715e+14	1.058451e+04	3.507607e+03	2.447890e+03	0	7.334556e-04
8.900000e+08	8.254939e+12	0.000000e+00	5.283019e-01	1.720746e+14	3.823181e+14	1.318625e+14	1.056123e+04	3.504094e+03	2.445438e+03	0	7.294290e-04
9.000000e+08	8.120735e+12	0.000000e+00	5.283019e-01	1.697611e+14	3.784201e+14	1.312576e+14	1.053827e+04	3.500624e+03	2.443016e+03	0	7.254545e-04
9.100000e+08	7.989685e+12	0.000000e+00	5.283019e-01	1.675013e+14	3.746016e+14	1.306570e+14	1.051561e+04	3.497197e+03	2.440625e+03	0	7.215309e-04
9.200000e+08	7.861686e+12	0.000000e+00	5.283019e-01	1.652933e+14	3.708605e+14	1.300604e+14	1.049325e+04	3.493812e+03	2.438262e+03	0	7.176570e-04
9.300000e+08	7.736638e+12	0.000000e+00	5.283019e-01	1.631355e+14	3.671941e+14	1.294679e+14	1.047118e+04	3.490469e+03	2.435929e+03	0	7.138317e-04
9.400000e+08	7.614448e+12	0.000000e+00	5.283019e-01	1.610263e+14	3.636005e+14	1.288795e+14	1.044941e+04	3.487165e+03	2.433623e+03	0	7.100537e-04
9.500000e+08	7.495023e+12	0.000000e+00	5.283019e-01	1.589642e+14	3.600773e+14	1.282951e+14	1.042791e+04	3.483900e+03	2.431345e+03	0	7.063220e-04
9.600000e+08	7.378277e+12	0.000000e+00	5.283019e-01	1.569476e+14	3.566225e+14	1.277146e+14	1.040668e+04	3.480674e+03	2.429093e+03	0	7.026354e-04
9.700000e+08	7.264126e+12	0.000000e+00	5.283019e-01	1.549752e+14	3.532341e+14	1.271382e+14	1.038573e+04	3.477485e+03	2.426868e+03	0	6.989930e-04
9.800000e+08	7.152490e+12	0.000000e+00	5.283019e-01	1.530456e+14	3.499102e+14	1.265656e+14	1.036504e+04	3.474333e+03	2.424668e+03	0	6.953938e-04
9.900000e+08	7.043291e+12	0.000000e+00	5.283019e-01	1.511575e+14	3.466489e+14	1.259969e+14	1.034460e+04	3.471217e+03	2.422494e+03	0	6.918367e-04
1.000000e+09	6.936456e+12	0.000000e+00	5.283019e-01	1.493096e+14	3.434486e+14	1.254321e+14	1.032441e+04	3.468137e+03	2.420344e+03	0	6.883209e-04
1.010000e+09	6.831913e+12	0.000000e+00	5.283019e-01	1.475008e+14	3.403073e+14	1.248712e+14	1.030447e+04	3.465090e+03	2.418218e+03	0	6.848453e-04
1.020000e+09	6.729593e+12	0.000000e+00	5.283019e-01	1.457298e+14	3.372236e+14	1.243140e+14	1.028477e+04	3.462078e+03	2.416116e+03	0	6.814092e-04
1.030000e+09	6.629431e+12	0.000000e+00	5.283019e-01	1.439956e+14	3.341958e+14	1.237606e+14	1.026531e+04	3.459099e+03	2.414037e+03	0	6.780116e-04
1.040000e+09	6.531363e+12	0.000000e+00	5.283019e-01	1.422971e+14	3.312224e+14	1.232109e+14	1.024608e+04	3.456152e+03	2.411980e+03	0	6.746518e-04
1.050000e+09	6.435328e+12	0.000000e+00	5.283019e-01	1.406332e+14	3.283019e+14	1.226650e+14	1.022707e+04	3.453237e+03	2.409946e+03	0	6.713288e-04
1.060000e+09	6.341267e+12	0.000000e+00	5.283019e-01	1.390030e+14	3.254330e+14	1.221227e+14	1.020828e+04	3.450353e+03	2.407933e+03	0	6.680420e-04
1.070000e+09	6.249125e+12	0.000000e+00	5.283019e-01	1.374055e+14	3.226141e+14	1.215841e+14	1.018971e+04	3.447500e+03	2.405942e+03	0	6.647905e-04
1.080000e+09	6.158845e+12	0.000000e+00	5.283019e-01	1.358397e+14	3.198440e+14	1.210491e+14	1.017136e+04	3.444677e+03	2.403972e+03	0	6.615736e-04
1.090000e+09	6.070376e+12	0.000000e+00	5.283019e-01	1.343049e+14	3.171214e+14	1.205177e+14	1.015321e+04	3.441883e+03	2.402022e+03	0	6.583905e-04
1.100000e+09	5.983667e+12	0.000000e+00	5.283019e-01	1.328001e+14	3.144451e+14	1.199899e+14	1.013527e+04	3.439118e+03	2.400092e+03	0	6.552407e-04
1.110000e+09	5.898669e+12	0.000000e+00	5.283019e-01	1.313244e+14	3.118140e+14	1.194656e+14	1.011752e+04	3.436381e+03	2.398182e+03	0	6.521233e-04
1.120000e+09	5.815336e+12	0.000000e+00	5.283019e-01	1.298772e+14	3.092267e+14	1.189448e+14	1.009998e+04	3.433672e+03	2.396292e+03	0	6.490378e-04
1.130000e+09	5.733620e+12	0.000000e+00	5.283019e-01	1.284576e+14	3.066823e+14	1.184275e+14	1.008262e+04	3.430990e+03	2.394420e+03	0	6.459834e-04
1.140000e+09	5.653480e+12	0.000000e+00	5.283019e-01	1.270648e+14	3.041796e+14	1.179137e+14	1.006546e+04	3.428335e+03	2.392567e+03	0	6.429596e-04
1.150000e+09	5.574872e+12	0.000000e+00	5.283019e-01	1.256983e+14	3.017176e+14	1.174033e+14	1.004848e+04	3.425706e+03	2.390732e+03	0	6.399657e-04
1.160000e+09	5.497755e+12	0.000000e+00	5.283019e-01	1.243572e+14	2.992953e+14	1.168963e+14	1.003168e+04	3.423103e+03	2.388916e+03	0	6.370011e-04
1.170000e+09	5.422091e+12	0.000000e+00	5.283019e-01	1.230409e+14	2.969117e+14	1.163927e+14	1.001506e+04	3.420525e+03	2.387117e+03	0	6.340653e-04
1.180000e+09	5.347840e+12	0.000000e+00	5.283019e-01	1.217488e+14	2.945660e+14	1.158924e+14	9.998613e+03	3.417972e+03	2.385335e+03	0	6.311577e-04
1.190000e+09	5.274966e+12	0.000000e+00	5.283019e-01	1.204802e+14	2.922571e+14	1.153955e+14	9.982341e+03	3.415443e+03	2.383570e+03	0	6.282776e-04
1.200000e+09	5.203434e+12	0.000000e+00	5.283019e-01	1.192345e+14	2.899842e+14	1.149018e+14	9.966238e+03	3.412938e+03	2.381822e+03	0	6.254247e-04
1.210000e+09	5.133208e+12	0.000000e+00	5.283019e-01	1.180111e+14	2.877464e+14	1.144115e+14	9.950301e+03	3.410456e+03	2.380090e+03	0	6.225984e-04
1.220000e+09	5.064256e+12	0.000000e+00	5.283019e-01	1.168096e+14	2.855429e+14	1.139243e+14	9.934526e+03	3.407998e+03	2.378374e+03	0	6.197981e-04
1.230000e+09	4.996545e+12	0.000000e+00	5.283019e-01	1.156292e+14	2.833730e+14	1.134404e+14	9.918912e+03	3.405562e+03	2.376674e+03	0	6.170234e-04
1.240000e+09	4.930044e+12	0.000000e+00	5.283019e-01	1.144696e+14	2.812358e+14	1.129597e+14	9.903455e+03	3.403148e+03	2.374990e+03	0	6.142738e-04
1.250000e+09	4.864723e+12	0.000000e+00	5.283019e-01	1.133302e+14	2.791305e+14	1.124822e+14	9.888152e+03	3.400756e+03	2.373321e+03	0	6.115488e-04
1.260000e+09	4.800553e+12	0.000000e+00	5.283019e-01	1.122104e+14	2.770565e+14	1.120078e+14	9.873001e+03	3.398386e+03	2.371666e+03	0	6.088479e-04
1.270000e+09	4.737505e+12	0.000000e+00	5.283019e-01	1.111098e+14	2.750131e+14	1.115366e+14	9.857999e+03	3.396037e+03	2.370027e+03	0	6.061707e-04
1.280000e+09	4.675552e+12	0.000000e+00	5.283019e-01	1.100280e+14	2.729995e+14	1.110684e+14	9.843144e+03	3.393709e+03	2.368402e+03	0	6.035168e-04
1.290000e+09	4.614668e+12	0.000000e+00	5.283019e-01	1.089645e+14	2.710151e+14	1.106034e+14	9.828434e+03	3.391401e+03	2.366791e+03	0	6.008857e-04
1.300000e+09	4.554826e+12	0.000000e+00	5.283019e-01	1.079188e+14	2.690592e+14	1.101413e+14	9.813864e+03	3.389113e+03	2.365195e+03	0	5.982770e-04
1.310000e+09	4.496002e+12	0.000000e+00	5.283019e-01	1.068906e+14	2.671312e+14	1.096823e+14	9.799435e+03	3.386845e+03	2.363612e+03	0	5.956903e-04
1.320000e+09	4.438171e+12	0.000000e+00	5.283019e-01	1.058794e+14	2.652306e+14	1.092264e+14	9.785142e+03	3.384596e+03	2.362043e+03	0	5.931252e-04
1.330000e+09	4.381311e+12	0.000000e+00	5.283019e-01	1.048848e+14	2.633567e+14	1.087733e+14	9.770984e+03	3.382367e+03	2.360487e+03	0	5.905814e-04
1.340000e+09	4.325398e+12	0.000000e+00	5.283019e-01	1.039064e+14	2.615089e+14	1.083233e+14	9.756958e+03	3.380156e+03	2.358944e+03	0	5.880583e-04
1.350000e+09	4.270410e+12	0.000000e+00	5.283019e-01	1.029439e+14	2.596867e+14	1.078762e+14	9.743063e+03	3.377963e+03	2.357414e+03	0	5.855558e-04
1.360000e+09	4.216327e+12	0.000000e+00	5.283019e-01	1.019969e+14	2.578896e+14	1.074320e+14	9.729297e+03	3.375789e+03	2.355896e+03	0	5.830733e-04
