#t		Qconv[W]	Ri[Rp]		R*[Rp]		Qc[W]		Qm[W]		Qr[W]		Tcmb[K]		Tl[K]		Tup[K]		RiFlag		Bs[T]
0.000000e+00	1.734752e+14	0.000000e+00	5.288462e-01	2.978664e+15	1.664260e+15	2.084055e+14	1.915208e+04	4.005253e+03	2.797990e+03	0	2.024745e-03
1.000000e+07	1.601687e+14	0.000000e+00	5.288462e-01	2.753921e+15	1.798671e+15	2.072508e+14	1.877883e+04	4.069466e+03	2.842847e+03	0	1.971592e-03
2.000000e+07	1.482504e+14	0.000000e+00	5.288462e-01	2.552584e+15	1.894922e+15	2.061047e+14	1.843299e+04	4.118358e+03	2.877003e+03	0	1.921423e-03
3.000000e+07	1.375533e+14	0.000000e+00	5.288462e-01	2.371841e+15	1.957208e+15	2.049672e+14	1.811179e+04	4.154627e+03	2.902339e+03	0	1.874051e-03
4.000000e+07	1.279326e+14	0.000000e+00	5.288462e-01	2.209251e+15	1.990816e+15	2.038382e+14	1.781278e+04	4.180619e+03	2.920497e+03	0	1.829300e-03
5.000000e+07	1.192619e+14	0.000000e+00	5.288462e-01	2.062683e+15	2.001172e+15	2.027176e+14	1.753378e+04	4.198326e+03	2.932866e+03	0	1.787002e-03
6.000000e+07	1.114303e+14	0.000000e+00	5.288462e-01	1.930268e+15	1.993300e+15	2.016053e+14	1.727288e+04	4.209403e+03	2.940605e+03	0	1.746997e-03
7.000000e+07	1.043407e+14	0.000000e+00	5.288462e-01	1.810372e+15	1.971569e+15	2.005013e+14	1.702837e+04	4.215209e+03	2.944661e+03	0	1.709133e-03
8.000000e+07	9.790816e+13	0.000000e+00	5.288462e-01	1.701559e+15	1.939617e+15	1.994056e+14	1.679873e+04	4.216846e+03	2.945805e+03	0	1.673263e-03
9.000000e+07	9.205814e+13	0.000000e+00	5.288462e-01	1.602577e+15	1.900390e+15	1.983180e+14	1.658262e+04	4.215203e+03	2.944657e+03	0	1.639250e-03
1.000000e+08	8.672546e+13	0.000000e+00	5.288462e-01	1.512324e+15	1.856214e+15	1.972384e+14	1.637884e+04	4.210994e+03	2.941716e+03	0	1.606966e-03
1.100000e+08	8.185308e+13	0.000000e+00	5.288462e-01	1.429841e+15	1.808894e+15	1.961669e+14	1.618632e+04	4.204788e+03	2.937381e+03	0	1.576290e-03
1.200000e+08	7.739102e+13	0.000000e+00	5.288462e-01	1.354283e+15	1.759812e+15	1.951033e+14	1.600412e+04	4.197042e+03	2.931970e+03	0	1.547110e-03
1.300000e+08	7.329551e+13	0.000000e+00	5.288462e-01	1.284914e+15	1.710006e+15	1.940476e+14	1.583137e+04	4.188120e+03	2.925737e+03	0	1.519324e-03
1.400000e+08	6.952813e+13	0.000000e+00	5.288462e-01	1.221085e+15	1.660248e+15	1.929997e+14	1.566733e+04	4.178311e+03	2.918884e+03	0	1.492833e-03
1.500000e+08	6.605514e+13	0.000000e+00	5.288462e-01	1.162227e+15	1.611098e+15	1.919596e+14	1.551131e+04	4.167847e+03	2.911574e+03	0	1.467552e-03
1.600000e+08	6.284686e+13	0.000000e+00	5.288462e-01	1.107840e+15	1.562957e+15	1.909271e+14	1.536268e+04	4.156912e+03	2.903936e+03	0	1.443397e-03
1.700000e+08	5.987712e+13	0.000000e+00	5.288462e-01	1.057482e+15	1.516103e+15	1.899023e+14	1.522091e+04	4.145653e+03	2.896070e+03	0	1.420294e-03
1.800000e+08	5.712282e+13	0.000000e+00	5.288462e-01	1.010764e+15	1.470720e+15	1.888850e+14	1.508548e+04	4.134186e+03	2.888060e+03	0	1.398173e-03
1.900000e+08	5.456350e+13	0.000000e+00	5.288462e-01	9.673415e+14	1.426921e+15	1.878752e+14	1.495595e+04	4.122605e+03	2.879970e+03	0	1.376972e-03
2.000000e+08	5.218106e+13	0.000000e+00	5.288462e-01	9.269075e+14	1.384768e+15	1.868728e+14	1.483191e+04	4.110983e+03	2.871851e+03	0	1.356632e-03
2.100000e+08	4.995938e+13	0.000000e+00	5.288462e-01	8.891909e+14	1.344281e+15	1.858778e+14	1.471298e+04	4.099379e+03	2.863744e+03	0	1.337099e-03
2.200000e+08	4.788413e+13	0.000000e+00	5.288462e-01	8.539497e+14	1.305455e+15	1.848901e+14	1.459883e+04	4.087837e+03	2.855682e+03	0	1.318323e-03
2.300000e+08	4.594253e+13	0.000000e+00	5.288462e-01	8.209682e+14	1.268264e+15	1.839097e+14	1.448914e+04	4.076395e+03	2.847688e+03	0	1.300258e-03
2.400000e+08	4.412312e+13	0.000000e+00	5.288462e-01	7.900532e+14	1.232666e+15	1.829364e+14	1.438363e+04	4.065079e+03	2.839783e+03	0	1.282862e-03
2.500000e+08	4.241568e+13	0.000000e+00	5.288462e-01	7.610318e+14	1.198610e+15	1.819703e+14	1.428205e+04	4.053912e+03	2.831982e+03	0	1.266096e-03
2.600000e+08	4.081099e+13	0.000000e+00	5.288462e-01	7.337487e+14	1.166038e+15	1.810113e+14	1.418416e+04	4.042909e+03	2.824296e+03	0	1.249924e-03
2.700000e+08	3.930079e+13	0.000000e+00	5.288462e-01	7.080644e+14	1.134891e+15	1.800592e+14	1.408973e+04	4.032083e+03	2.816732e+03	0	1.234312e-03
2.800000e+08	3.787763e+13	0.000000e+00	5.288462e-01	6.838527e+14	1.105105e+15	1.791141e+14	1.399857e+04	4.021441e+03	2.809298e+03	0	1.219229e-03
2.900000e+08	3.653475e+13	0.000000e+00	5.288462e-01	6.610000e+14	1.076618e+15	1.781759e+14	1.391050e+04	4.010990e+03	2.801997e+03	0	1.204647e-03
3.000000e+08	3.526607e+13	0.000000e+00	5.288462e-01	6.394033e+14	1.049365e+15	1.772446e+14	1.382533e+04	4.000733e+03	2.794832e+03	0	1.190539e-03
3.100000e+08	3.406607e+13	0.000000e+00	5.288462e-01	6.189694e+14	1.023288e+15	1.763200e+14	1.374292e+04	3.990672e+03	2.787804e+03	0	1.176879e-03
3.200000e+08	3.292973e+13	0.000000e+00	5.288462e-01	5.996134e+14	9.983248e+14	1.754022e+14	1.366311e+04	3.980808e+03	2.780913e+03	0	1.163645e-03
3.300000e+08	3.185248e+13	0.000000e+00	5.288462e-01	5.812583e+14	9.744199e+14	1.744910e+14	1.358577e+04	3.971140e+03	2.774159e+03	0	1.150815e-03
3.400000e+08	3.083017e+13	0.000000e+00	5.288462e-01	5.638338e+14	9.515182e+14	1.735865e+14	1.351078e+04	3.961665e+03	2.767540e+03	0	1.138369e-03
3.500000e+08	2.985900e+13	0.000000e+00	5.288462e-01	5.472757e+14	9.295673e+14	1.726885e+14	1.343801e+04	3.952383e+03	2.761056e+03	0	1.126288e-03
3.600000e+08	2.893550e+13	0.000000e+00	5.288462e-01	5.315255e+14	9.085178e+14	1.717970e+14	1.336736e+04	3.943289e+03	2.754703e+03	0	1.114555e-03
3.700000e+08	2.805649e+13	0.000000e+00	5.288462e-01	5.165293e+14	8.883224e+14	1.709120e+14	1.329873e+04	3.934381e+03	2.748480e+03	0	1.103153e-03
3.800000e+08	2.721906e+13	0.000000e+00	5.288462e-01	5.022379e+14	8.689365e+14	1.700334e+14	1.323201e+04	3.925655e+03	2.742384e+03	0	1.092066e-03
3.900000e+08	2.642053e+13	0.000000e+00	5.288462e-01	4.886061e+14	8.503181e+14	1.691611e+14	1.316712e+04	3.917107e+03	2.736413e+03	0	1.081280e-03
4.000000e+08	2.565845e+13	0.000000e+00	5.288462e-01	4.755922e+14	8.324274e+14	1.682951e+14	1.310397e+04	3.908733e+03	2.730563e+03	0	1.070782e-03
4.100000e+08	2.493053e+13	0.000000e+00	5.288462e-01	4.631579e+14	8.152268e+14	1.674354e+14	1.304250e+04	3.900528e+03	2.724831e+03	0	1.060559e-03
4.200000e+08	2.423470e+13	0.000000e+00	5.288462e-01	4.512678e+14	7.986810e+14	1.665819e+14	1.298261e+04	3.892490e+03	2.719216e+03	0	1.050599e-03
4.300000e+08	2.356902e+13	0.000000e+00	5.288462e-01	4.398893e+14	7.827566e+14	1.657345e+14	1.292425e+04	3.884613e+03	2.713713e+03	0	1.040890e-03
4.400000e+08	2.293170e+13	0.000000e+00	5.288462e-01	4.289921e+14	7.674223e+14	1.648932e+14	1.286735e+04	3.876893e+03	2.708320e+03	0	1.031422e-03
4.500000e+08	2.232109e+13	0.000000e+00	5.288462e-01	4.185482e+14	7.526486e+14	1.640580e+14	1.281185e+04	3.869326e+03	2.703034e+03	0	1.022185e-03
4.600000e+08	2.173566e+13	0.000000e+00	5.288462e-01	4.085318e+14	7.384076e+14	1.632288e+14	1.275769e+04	3.861908e+03	2.697852e+03	0	1.013169e-03
4.700000e+08	2.117399e+13	0.000000e+00	5.288462e-01	3.989187e+14	7.246730e+14	1.624055e+14	1.270481e+04	3.854635e+03	2.692771e+03	0	1.004366e-03
4.800000e+08	2.063475e+13	0.000000e+00	5.288462e-01	3.896867e+14	7.114203e+14	1.615881e+14	1.265317e+04	3.847503e+03	2.687789e+03	0	9.957666e-04
4.900000e+08	2.011672e+13	0.000000e+00	5.288462e-01	3.808147e+14	6.986262e+14	1.607765e+14	1.260272e+04	3.840507e+03	2.682902e+03	0	9.873631e-04
5.000000e+08	1.961875e+13	0.000000e+00	5.288462e-01	3.722836e+14	6.862687e+14	1.599708e+14	1.255340e+04	3.833645e+03	2.678108e+03	0	9.791478e-04
5.100000e+08	1.913978e+13	0.000000e+00	5.288462e-01	3.640752e+14	6.743273e+14	1.591708e+14	1.250518e+04	3.826912e+03	2.673404e+03	0	9.711137e-04
5.200000e+08	1.867880e+13	0.000000e+00	5.288462e-01	3.561727e+14	6.627824e+14	1.583765e+14	1.245802e+04	3.820304e+03	2.668788e+03	0	9.632539e-04
5.300000e+08	1.823489e+13	0.000000e+00	5.288462e-01	3.485603e+14	6.516157e+14	1.575879e+14	1.241187e+04	3.813819e+03	2.664258e+03	0	9.555620e-04
5.400000e+08	1.780718e+13	0.000000e+00	5.288462e-01	3.412233e+14	6.408099e+14	1.568049e+14	1.236670e+04	3.807452e+03	2.659810e+03	0	9.480317e-04
5.500000e+08	1.739485e+13	0.000000e+00	5.288462e-01	3.341479e+14	6.303486e+14	1.560275e+14	1.232248e+04	3.801201e+03	2.655443e+03	0	9.406572e-04
5.600000e+08	1.699715e+13	0.000000e+00	5.288462e-01	3.273211e+14	6.202164e+14	1.552556e+14	1.227916e+04	3.795061e+03	2.651154e+03	0	9.334331e-04
5.700000e+08	1.661336e+13	0.000000e+00	5.288462e-01	3.207310e+14	6.103987e+14	1.544892e+14	1.223673e+04	3.789031e+03	2.646941e+03	0	9.263540e-04
5.800000e+08	1.624281e+13	0.000000e+00	5.288462e-01	3.143661e+14	6.008816e+14	1.537283e+14	1.219514e+04	3.783106e+03	2.642802e+03	0	9.194148e-04
5.900000e+08	1.588486e+13	0.000000e+00	5.288462e-01	3.082157e+14	5.916521e+14	1.529727e+14	1.215438e+04	3.777284e+03	2.638735e+03	0	9.126108e-04
6.000000e+08	1.553893e+13	0.000000e+00	5.288462e-01	3.022698e+14	5.826980e+14	1.522224e+14	1.211440e+04	3.771563e+03	2.634738e+03	0	9.059374e-04
6.100000e+08	1.520446e+13	0.000000e+00	5.288462e-01	2.965190e+14	5.740074e+14	1.514775e+14	1.207520e+04	3.765938e+03	2.630809e+03	0	8.993902e-04
6.200000e+08	1.488093e+13	0.000000e+00	5.288462e-01	2.909544e+14	5.655694e+14	1.507379e+14	1.203673e+04	3.760408e+03	2.626946e+03	0	8.929651e-04
6.300000e+08	1.456784e+13	0.000000e+00	5.288462e-01	2.855676e+14	5.573735e+14	1.500034e+14	1.199898e+04	3.754971e+03	2.623148e+03	0	8.866581e-04
6.400000e+08	1.426472e+13	0.000000e+00	5.288462e-01	2.803508e+14	5.494096e+14	1.492742e+14	1.196192e+04	3.749623e+03	2.619411e+03	0	8.804654e-04
6.500000e+08	1.397115e+13	0.000000e+00	5.288462e-01	2.752963e+14	5.416684e+14	1.485500e+14	1.192554e+04	3.744362e+03	2.615736e+03	0	8.743832e-04
6.600000e+08	1.368669e+13	0.000000e+00	5.288462e-01	2.703973e+14	5.341410e+14	1.478310e+14	1.188981e+04	3.739185e+03	2.612120e+03	0	8.684083e-04
6.700000e+08	1.341097e+13	0.000000e+00	5.288462e-01	2.656471e+14	5.268188e+14	1.471170e+14	1.185471e+04	3.734092e+03	2.608562e+03	0	8.625372e-04
6.800000e+08	1.314360e+13	0.000000e+00	5.288462e-01	2.610393e+14	5.196937e+14	1.464081e+14	1.182023e+04	3.729078e+03	2.605060e+03	0	8.567667e-04
6.900000e+08	1.288424e+13	0.000000e+00	5.288462e-01	2.565680e+14	5.127581e+14	1.457041e+14	1.178634e+04	3.724143e+03	2.601612e+03	0	8.510938e-04
7.000000e+08	1.263256e+13	0.000000e+00	5.288462e-01	2.522277e+14	5.060047e+14	1.450051e+14	1.175303e+04	3.719284e+03	2.598218e+03	0	8.455155e-04
7.100000e+08	1.238824e+13	0.000000e+00	5.288462e-01	2.480129e+14	4.994266e+14	1.443109e+14	1.172027e+04	3.714500e+03	2.594875e+03	0	8.400291e-04
7.200000e+08	1.215098e+13	0.000000e+00	5.288462e-01	2.439185e+14	4.930172e+14	1.436216e+14	1.168806e+04	3.709787e+03	2.591583e+03	0	8.346318e-04
7.300000e+08	1.192051e+13	0.000000e+00	5.288462e-01	2.399399e+14	4.867701e+14	1.429371e+14	1.165638e+04	3.705145e+03	2.588341e+03	0	8.293211e-04
7.400000e+08	1.169654e+13	0.000000e+00	5.288462e-01	2.360723e+14	4.806794e+14	1.422574e+14	1.162522e+04	3.700572e+03	2.585146e+03	0	8.240944e-04
7.500000e+08	1.147883e+13	0.000000e+00	5.288462e-01	2.323115e+14	4.747393e+14	1.415825e+14	1.159455e+04	3.696066e+03	2.581998e+03	0	8.189494e-04
7.600000e+08	1.126714e+13	0.000000e+00	5.288462e-01	2.286534e+14	4.689445e+14	1.409122e+14	1.156437e+04	3.691625e+03	2.578895e+03	0	8.138837e-04
7.700000e+08	1.106123e+13	0.000000e+00	5.288462e-01	2.250941e+14	4.632897e+14	1.402466e+14	1.153466e+04	3.687247e+03	2.575837e+03	0	8.088952e-04
7.800000e+08	1.086088e+13	0.000000e+00	5.288462e-01	2.216297e+14	4.577700e+14	1.395856e+14	1.150542e+04	3.682932e+03	2.572823e+03	0	8.039818e-04
7.900000e+08	1.066590e+13	0.000000e+00	5.288462e-01	2.182569e+14	4.523807e+14	1.389292e+14	1.147662e+04	3.678677e+03	2.569851e+03	0	7.991413e-04
8.000000e+08	1.047606e+13	0.000000e+00	5.288462e-01	2.149721e+14	4.471171e+14	1.382774e+14	1.144825e+04	3.674482e+03	2.566920e+03	0	7.943718e-04
8.100000e+08	1.029120e+13	0.000000e+00	5.288462e-01	2.117722e+14	4.419751e+14	1.376301e+14	1.142031e+04	3.670344e+03	2.564029e+03	0	7.896715e-04
8.200000e+08	1.011112e+13	0.000000e+00	5.288462e-01	2.086541e+14	4.369505e+14	1.369872e+14	1.139279e+04	3.666262e+03	2.561178e+03	0	7.850384e-04
8.300000e+08	9.935660e+12	0.000000e+00	5.288462e-01	2.056149e+14	4.320393e+14	1.363489e+14	1.136566e+04	3.662236e+03	2.558365e+03	0	7.804709e-04
8.400000e+08	9.764649e+12	0.000000e+00	5.288462e-01	2.026518e+14	4.272378e+14	1.357149e+14	1.133894e+04	3.658263e+03	2.555589e+03	0	7.759672e-04
8.500000e+08	9.597931e+12	0.000000e+00	5.288462e-01	1.997621e+14	4.225423e+14	1.350853e+14	1.131259e+04	3.654342e+03	2.552850e+03	0	7.715256e-04
8.600000e+08	9.435358e+12	0.000000e+00	5.288462e-01	1.969432e+14	4.179494e+14	1.344600e+14	1.128662e+04	3.650473e+03	2.550147e+03	0	7.671446e-04
8.700000e+08	9.276785e+12	0.000000e+00	5.288462e-01	1.941928e+14	4.134557e+14	1.338390e+14	1.126101e+04	3.646653e+03	2.547479e+03	0	7.628227e-04
8.800000e+08	9.122076e+12	0.000000e+00	5.288462e-01	1.915085e+14	4.090582e+14	1.332224e+14	1.123576e+04	3.642883e+03	2.544845e+03	0	7.585584e-04
8.900000e+08	8.971100e+12	0.000000e+00	5.288462e-01	1.888881e+14	4.047536e+14	1.326099e+14	1.121086e+04	3.639160e+03	2.542244e+03	0	7.543503e-04
9.000000e+08	8.823732e+12	0.000000e+00	5.288462e-01	1.863294e+14	4.005392e+14	1.320016e+14	1.118629e+04	3.635484e+03	2.539677e+03	0	7.501969e-04
9.100000e+08	8.679852e+12	0.000000e+00	5.288462e-01	1.838305e+14	3.964121e+14	1.313976e+14	1.116206e+04	3.631854e+03	2.537140e+03	0	7.460969e-04
9.200000e+08	8.539344e+12	0.000000e+00	5.288462e-01	1.813892e+14	3.923697e+14	1.307976e+14	1.113815e+04	3.628268e+03	2.534636e+03	0	7.420491e-04
9.300000e+08	8.402100e+12	0.000000e+00	5.288462e-01	1.790039e+14	3.884092e+14	1.302018e+14	1.111455e+04	3.624726e+03	2.532161e+03	0	7.380522e-04
9.400000e+08	8.268013e+12	0.000000e+00	5.288462e-01	1.766726e+14	3.845284e+14	1.296100e+14	1.109127e+04	3.621227e+03	2.529717e+03	0	7.341050e-04
9.500000e+08	8.136982e+12	0.000000e+00	5.288462e-01	1.743937e+14	3.807247e+14	1.290223e+14	1.106829e+04	3.617769e+03	2.527301e+03	0	7.302063e-04
9.600000e+08	8.008911e+12	0.000000e+00	5.288462e-01	1.721655e+14	3.769958e+14	1.284386e+14	1.104560e+04	3.614353e+03	2.524915e+03	0	7.263550e-04
9.700000e+08	7.883706e+12	0.000000e+00	5.288462e-01	1.699864e+14	3.733397e+14	1.278588e+14	1.102320e+04	3.610976e+03	2.522556e+03	0	7.225501e-04
9.800000e+08	7.761278e+12	0.000000e+00	5.288462e-01	1.678549e+14	3.697541e+14	1.272830e+14	1.100108e+04	3.607639e+03	2.520224e+03	0	7.187903e-04
9.900000e+08	7.641541e+12	0.000000e+00	5.288462e-01	1.657696e+14	3.662371e+14	1.267111e+14	1.097924e+04	3.604340e+03	2.517920e+03	0	7.150748e-04
1.000000e+09	7.524413e+12	0.000000e+00	5.288462e-01	1.637290e+14	3.627866e+14	1.261431e+14	1.095767e+04	3.601078e+03	2.515641e+03	0	7.114024e-04
1.010000e+09	7.409815e+12	0.000000e+00	5.288462e-01	1.617318e+14	3.594008e+14	1.255790e+14	1.093636e+04	3.597854e+03	2.513389e+03	0	7.077724e-04
1.020000e+09	7.297671e+12	0.000000e+00	5.288462e-01	1.597766e+14	3.560779e+14	1.250186e+14	1.091532e+04	3.594665e+03	2.511161e+03	0	7.041836e-04
1.030000e+09	7.187906e+12	0.000000e+00	5.288462e-01	1.578623e+14	3.528160e+14	1.244621e+14	1.089452e+04	3.591512e+03	2.508959e+03	0	7.006352e-04
1.040000e+09	7.080452e+12	0.000000e+00	5.288462e-01	1.559877e+14	3.496136e+14	1.239093e+14	1.087398e+04	3.588393e+03	2.506780e+03	0	6.971263e-04
1.050000e+09	6.975240e+12	0.000000e+00	5.288462e-01	1.541515e+14	3.464690e+14	1.233603e+14	1.085367e+04	3.585308e+03	2.504625e+03	0	6.936561e-04
1.060000e+09	6.872205e+12	0.000000e+00	5.288462e-01	1.523527e+14	3.433806e+14	1.228149e+14	1.083361e+04	3.582257e+03	2.502493e+03	0	6.902236e-04
1.070000e+09	6.771284e+12	0.000000e+00	5.288462e-01	1.505902e+14	3.403469e+14	1.222733e+14	1.081378e+04	3.579238e+03	2.500384e+03	0	6.868282e-04
1.080000e+09	6.672416e+12	0.000000e+00	5.288462e-01	1.488630e+14	3.373665e+14	1.217352e+14	1.079417e+04	3.576251e+03	2.498297e+03	0	6.834691e-04
1.090000e+09	6.575545e+12	0.000000e+00	5.288462e-01	1.471700e+14	3.344379e+14	1.212008e+14	1.077479e+04	3.573295e+03	2.496233e+03	0	6.801453e-04
1.100000e+09	6.480612e+12	0.000000e+00	5.288462e-01	1.455104e+14	3.315598e+14	1.206700e+14	1.075563e+04	3.570370e+03	2.494189e+03	0	6.768563e-04
1.110000e+09	6.387565e+12	0.000000e+00	5.288462e-01	1.438832e+14	3.287309e+14	1.201428e+14	1.073669e+04	3.567475e+03	2.492167e+03	0	6.736013e-04
1.120000e+09	6.296351e+12	0.000000e+00	5.288462e-01	1.422874e+14	3.259498e+14	1.196190e+14	1.071796e+04	3.564610e+03	2.490165e+03	0	6.703796e-04
1.130000e+09	6.206920e+12	0.000000e+00	5.288462e-01	1.407223e+14	3.232155e+14	1.190988e+14	1.069943e+04	3.561773e+03	2.488184e+03	0	6.671905e-04
1.140000e+09	6.119222e+12	0.000000e+00	5.288462e-01	1.391871e+14	3.205266e+14	1.185821e+14	1.068111e+04	3.558965e+03	2.486222e+03	0	6.640333e-04
1.150000e+09	6.033212e+12	0.000000e+00	5.288462e-01	1.376808e+14	3.178821e+14	1.180688e+14	1.066298e+04	3.556185e+03	2.484280e+03	0	6.609075e-04
1.160000e+09	5.948844e+12	0.000000e+00	5.288462e-01	1.362028e+14	3.152809e+14	1.175589e+14	1.064505e+04	3.553432e+03	2.482357e+03	0	6.578123e-04
1.170000e+09	5.866073e+12	0.000000e+00	5.288462e-01	1.347522e+14	3.127218e+14	1.170524e+14	1.062731e+04	3.550707e+03	2.480453e+03	0	6.547472e-04
1.180000e+09	5.784859e+12	0.000000e+00	5.288462e-01	1.333285e+14	3.102039e+14	1.165493e+14	1.060977e+04	3.548007e+03	2.478567e+03	0	6.517115e-04
1.190000e+09	5.705160e+12	0.000000e+00	5.288462e-01	1.319308e+14	3.077260e+14	1.160496e+14	1.059240e+04	3.545334e+03	2.476699e+03	0	6.487048e-04
1.200000e+09	5.626937e+12	0.000000e+00	5.288462e-01	1.305585e+14	3.052874e+14	1.155531e+14	1.057522e+04	3.542686e+03	2.474850e+03	0	6.457263e-04
1.210000e+09	5.550151e+12	0.000000e+00	5.288462e-01	1.292110e+14	3.028870e+14	1.150600e+14	1.055821e+04	3.540063e+03	2.473017e+03	0	6.427756e-04
1.220000e+09	5.474766e+12	0.000000e+00	5.288462e-01	1.278876e+14	3.005239e+14	1.145701e+14	1.054138e+04	3.537464e+03	2.471202e+03	0	6.398522e-04
1.230000e+09	5.400746e+12	0.000000e+00	5.288462e-01	1.265877e+14	2.981973e+14	1.140835e+14	1.052473e+04	3.534890e+03	2.469404e+03	0	6.369554e-04
1.240000e+09	5.328057e+12	0.000000e+00	5.288462e-01	1.253107e+14	2.959063e+14	1.136000e+14	1.050824e+04	3.532339e+03	2.467622e+03	0	6.340849e-04
1.250000e+09	5.256664e+12	0.000000e+00	5.288462e-01	1.240561e+14	2.936500e+14	1.131198e+14	1.049191e+04	3.529812e+03	2.465856e+03	0	6.312401e-04
1.260000e+09	5.186537e+12	0.000000e+00	5.288462e-01	1.228232e+14	2.914277e+14	1.126427e+14	1.047575e+04	3.527308e+03	2.464107e+03	0	6.284204e-04
1.270000e+09	5.117643e+12	0.000000e+00	5.288462e-01	1.216117e+14	2.892385e+14	1.121688e+14	1.045975e+04	3.524826e+03	2.462373e+03	0	6.256256e-04
1.280000e+09	5.049953e+12	0.000000e+00	5.288462e-01	1.204208e+14	2.870818e+14	1.116980e+14	1.044391e+04	3.522366e+03	2.460654e+03	0	6.228550e-04
1.290000e+09	4.983437e+12	0.000000e+00	5.288462e-01	1.192503e+14	2.849568e+14	1.112303e+14	1.042822e+04	3.519928e+03	2.458951e+03	0	6.201082e-04
1.300000e+09	4.918066e+12	0.000000e+00	5.288462e-01	1.180995e+14	2.828628e+14	1.107657e+14	1.041268e+04	3.517511e+03	2.457263e+03	0	6.173848e-04
1.310000e+09	4.853813e+12	0.000000e+00	5.288462e-01	1.169679e+14	2.807992e+14	1.103041e+14	1.039730e+04	3.515115e+03	2.455589e+03	0	6.146844e-04
1.320000e+09	4.790652e+12	0.000000e+00	5.288462e-01	1.158552e+14	2.787651e+14	1.098455e+14	1.038205e+04	3.512740e+03	2.453930e+03	0	6.120065e-04
1.330000e+09	4.728556e+12	0.000000e+00	5.288462e-01	1.147609e+14	2.767601e+14	1.093899e+14	1.036696e+04	3.510386e+03	2.452285e+03	0	6.093507e-04
1.340000e+09	4.667501e+12	0.000000e+00	5.288462e-01	1.136845e+14	2.747834e+14	1.089373e+14	1.035201e+04	3.508051e+03	2.450654e+03	0	6.067167e-04
1.350000e+09	4.607462e+12	0.000000e+00	5.288462e-01	1.126257e+14	2.728344e+14	1.084877e+14	1.033719e+04	3.505736e+03	2.449037e+03	0	6.041040e-04
1.360000e+09	4.548415e+12	0.000000e+00	5.288462e-01	1.115840e+14	2.709127e+14	1.080410e+14	1.032251e+04	3.503440e+03	2.447434e+03	0	6.015123e-04
