#t		Qconv[W]	Ri[Rp]		R*[Rp]		Qc[W]		Qm[W]		Qr[W]		Tcmb[K]		Tl[K]		Tup[K]		RiFlag		Bs[T]
0.000000e+00	2.011682e+14	0.000000e+00	5.238097e-01	3.390227e+15	1.811162e+15	2.208975e+14	1.966012e+04	4.056947e+03	2.796669e+03	0	2.127991e-03
1.000000e+07	1.848608e+14	0.000000e+00	5.238097e-01	3.119766e+15	1.974809e+15	2.196736e+14	1.925024e+04	4.128809e+03	2.846207e+03	0	2.068862e-03
2.000000e+07	1.703542e+14	0.000000e+00	5.238097e-01	2.879121e+15	2.091829e+15	2.184588e+14	1.887213e+04	4.183131e+03	2.883654e+03	0	2.013265e-03
3.000000e+07	1.574171e+14	0.000000e+00	5.238097e-01	2.664465e+15	2.167213e+15	2.172531e+14	1.852241e+04	4.223093e+03	2.911202e+03	0	1.960953e-03
4.000000e+07	1.458514e+14	0.000000e+00	5.238097e-01	2.472523e+15	2.207545e+15	2.160564e+14	1.819809e+04	4.251454e+03	2.930752e+03	0	1.911702e-03
5.000000e+07	1.354863e+14	0.000000e+00	5.238097e-01	2.300464e+15	2.219654e+15	2.148686e+14	1.789657e+04	4.270539e+03	2.943909e+03	0	1.865299e-03
6.000000e+07	1.261738e+14	0.000000e+00	5.238097e-01	2.145842e+15	2.209856e+15	2.136897e+14	1.761554e+04	4.282269e+03	2.951994e+03	0	1.821544e-03
7.000000e+07	1.177854e+14	0.000000e+00	5.238097e-01	2.006529e+15	2.183606e+15	2.125196e+14	1.735298e+04	4.288203e+03	2.956085e+03	0	1.780248e-03
8.000000e+07	1.102099e+14	0.000000e+00	5.238097e-01	1.880683e+15	2.145406e+15	2.113581e+14	1.710710e+04	4.289598e+03	2.957047e+03	0	1.741233e-03
9.000000e+07	1.033505e+14	0.000000e+00	5.238097e-01	1.766702e+15	2.098855e+15	2.102053e+14	1.687632e+04	4.287456e+03	2.955570e+03	0	1.704331e-03
1.000000e+08	9.712317e+13	0.000000e+00	5.238097e-01	1.663199e+15	2.046765e+15	2.090611e+14	1.665924e+04	4.282574e+03	2.952205e+03	0	1.669389e-03
1.100000e+08	9.145520e+13	0.000000e+00	5.238097e-01	1.568965e+15	1.991289e+15	2.079253e+14	1.645464e+04	4.275586e+03	2.947388e+03	0	1.636261e-03
1.200000e+08	8.628318e+13	0.000000e+00	5.238097e-01	1.482953e+15	1.934049e+15	2.067980e+14	1.626142e+04	4.266990e+03	2.941462e+03	0	1.604816e-03
1.300000e+08	8.155200e+13	0.000000e+00	5.238097e-01	1.404250e+15	1.876246e+15	2.056790e+14	1.607861e+04	4.257184e+03	2.934702e+03	0	1.574931e-03
1.400000e+08	7.721362e+13	0.000000e+00	5.238097e-01	1.332061e+15	1.818759e+15	2.045683e+14	1.590532e+04	4.246479e+03	2.927322e+03	0	1.546493e-03
1.500000e+08	7.322611e+13	0.000000e+00	5.238097e-01	1.265690e+15	1.762212e+15	2.034658e+14	1.574080e+04	4.235122e+03	2.919494e+03	0	1.519399e-03
1.600000e+08	6.955279e+13	0.000000e+00	5.238097e-01	1.204531e+15	1.707043e+15	2.023715e+14	1.558434e+04	4.223309e+03	2.911351e+03	0	1.493556e-03
1.700000e+08	6.616150e+13	0.000000e+00	5.238097e-01	1.148051e+15	1.653543e+15	2.012852e+14	1.543532e+04	4.211195e+03	2.902999e+03	0	1.468876e-03
1.800000e+08	6.302399e+13	0.000000e+00	5.238097e-01	1.095782e+15	1.601898e+15	2.002069e+14	1.529319e+04	4.198899e+03	2.894524e+03	0	1.445280e-03
1.900000e+08	6.011539e+13	0.000000e+00	5.238097e-01	1.047311e+15	1.552215e+15	1.991366e+14	1.515742e+04	4.186519e+03	2.885989e+03	0	1.422695e-03
2.000000e+08	5.741375e+13	0.000000e+00	5.238097e-01	1.002276e+15	1.504538e+15	1.980741e+14	1.502758e+04	4.174129e+03	2.877448e+03	0	1.401055e-03
2.100000e+08	5.489965e+13	0.000000e+00	5.238097e-01	9.603536e+14	1.458875e+15	1.970195e+14	1.490324e+04	4.161788e+03	2.868941e+03	0	1.380299e-03
2.200000e+08	5.255587e+13	0.000000e+00	5.238097e-01	9.212594e+14	1.415199e+15	1.959726e+14	1.478404e+04	4.149542e+03	2.860499e+03	0	1.360370e-03
2.300000e+08	5.036711e+13	0.000000e+00	5.238097e-01	8.847395e+14	1.373463e+15	1.949334e+14	1.466962e+04	4.137426e+03	2.852147e+03	0	1.341217e-03
2.400000e+08	4.831973e+13	0.000000e+00	5.238097e-01	8.505678e+14	1.333607e+15	1.939018e+14	1.455968e+04	4.125466e+03	2.843902e+03	0	1.322792e-03
2.500000e+08	4.640156e+13	0.000000e+00	5.238097e-01	8.185426e+14	1.295560e+15	1.928778e+14	1.445393e+04	4.113684e+03	2.835780e+03	0	1.305051e-03
2.600000e+08	4.460171e+13	0.000000e+00	5.238097e-01	7.884832e+14	1.259246e+15	1.918612e+14	1.435211e+04	4.102094e+03	2.827790e+03	0	1.287954e-03
2.700000e+08	4.291040e+13	0.000000e+00	5.238097e-01	7.602277e+14	1.224586e+15	1.908521e+14	1.425399e+04	4.090706e+03	2.819940e+03	0	1.271464e-03
2.800000e+08	4.131887e+13	0.000000e+00	5.238097e-01	7.336305e+14	1.191501e+15	1.898504e+14	1.415934e+04	4.079529e+03	2.812235e+03	0	1.255546e-03
2.900000e+08	3.981920e+13	0.000000e+00	5.238097e-01	7.085603e+14	1.159912e+15	1.888560e+14	1.406797e+04	4.068566e+03	2.804678e+03	0	1.240169e-03
3.000000e+08	3.840425e+13	0.000000e+00	5.238097e-01	6.848989e+14	1.129742e+15	1.878688e+14	1.397968e+04	4.057819e+03	2.797270e+03	0	1.225302e-03
3.100000e+08	3.706758e+13	0.000000e+00	5.238097e-01	6.625391e+14	1.100917e+15	1.868888e+14	1.389431e+04	4.047291e+03	2.790012e+03	0	1.210918e-03
3.200000e+08	3.580334e+13	0.000000e+00	5.238097e-01	6.413841e+14	1.073365e+15	1.859159e+14	1.381170e+04	4.036979e+03	2.782903e+03	0	1.196992e-03
3.300000e+08	3.460622e+13	0.000000e+00	5.238097e-01	6.213458e+14	1.047016e+15	1.849502e+14	1.373169e+04	4.026881e+03	2.775942e+03	0	1.183499e-03
3.400000e+08	3.347141e+13	0.000000e+00	5.238097e-01	6.023441e+14	1.021807e+15	1.839914e+14	1.365416e+04	4.016996e+03	2.769128e+03	0	1.170419e-03
3.500000e+08	3.239450e+13	0.000000e+00	5.238097e-01	5.843061e+14	9.976750e+14	1.830396e+14	1.357898e+04	4.007319e+03	2.762457e+03	0	1.157729e-03
3.600000e+08	3.137149e+13	0.000000e+00	5.238097e-01	5.671652e+14	9.745613e+14	1.820947e+14	1.350603e+04	3.997848e+03	2.755928e+03	0	1.145412e-03
3.700000e+08	3.039872e+13	0.000000e+00	5.238097e-01	5.508606e+14	9.524108e+14	1.811566e+14	1.343520e+04	3.988577e+03	2.749537e+03	0	1.133448e-03
3.800000e+08	2.947282e+13	0.000000e+00	5.238097e-01	5.353367e+14	9.311715e+14	1.802253e+14	1.336638e+04	3.979502e+03	2.743281e+03	0	1.121822e-03
3.900000e+08	2.859073e+13	0.000000e+00	5.238097e-01	5.205423e+14	9.107942e+14	1.793008e+14	1.329948e+04	3.970619e+03	2.737158e+03	0	1.110516e-03
4.000000e+08	2.774963e+13	0.000000e+00	5.238097e-01	5.064306e+14	8.912328e+14	1.783829e+14	1.323442e+04	3.961923e+03	2.731163e+03	0	1.099518e-03
4.100000e+08	2.694691e+13	0.000000e+00	5.238097e-01	4.929584e+14	8.724439e+14	1.774716e+14	1.317111e+04	3.953409e+03	2.725294e+03	0	1.088812e-03
4.200000e+08	2.618019e+13	0.000000e+00	5.238097e-01	4.800860e+14	8.543867e+14	1.765670e+14	1.310946e+04	3.945072e+03	2.719547e+03	0	1.078386e-03
4.300000e+08	2.544726e+13	0.000000e+00	5.238097e-01	4.677768e+14	8.370230e+14	1.756688e+14	1.304941e+04	3.936907e+03	2.713918e+03	0	1.068227e-03
4.400000e+08	2.474608e+13	0.000000e+00	5.238097e-01	4.559970e+14	8.203168e+14	1.747771e+14	1.299089e+04	3.928910e+03	2.708405e+03	0	1.058324e-03
4.500000e+08	2.407478e+13	0.000000e+00	5.238097e-01	4.447152e+14	8.042342e+14	1.738918e+14	1.293383e+04	3.921075e+03	2.703005e+03	0	1.048666e-03
4.600000e+08	2.343161e+13	0.000000e+00	5.238097e-01	4.339026e+14	7.887435e+14	1.730128e+14	1.287816e+04	3.913399e+03	2.697713e+03	0	1.039243e-03
4.700000e+08	2.281496e+13	0.000000e+00	5.238097e-01	4.235322e+14	7.738149e+14	1.721402e+14	1.282384e+04	3.905877e+03	2.692528e+03	0	1.030046e-03
4.800000e+08	2.222332e+13	0.000000e+00	5.238097e-01	4.135792e+14	7.594203e+14	1.712738e+14	1.277081e+04	3.898503e+03	2.687445e+03	0	1.021064e-03
4.900000e+08	2.165531e+13	0.000000e+00	5.238097e-01	4.040204e+14	7.455334e+14	1.704136e+14	1.271902e+04	3.891275e+03	2.682462e+03	0	1.012289e-03
5.000000e+08	2.110963e+13	0.000000e+00	5.238097e-01	3.948342e+14	7.321295e+14	1.695596e+14	1.266841e+04	3.884187e+03	2.677576e+03	0	1.003714e-03
5.100000e+08	2.058508e+13	0.000000e+00	5.238097e-01	3.860007e+14	7.191850e+14	1.687117e+14	1.261895e+04	3.877235e+03	2.672784e+03	0	9.953307e-04
5.200000e+08	2.008053e+13	0.000000e+00	5.238097e-01	3.775012e+14	7.066782e+14	1.678698e+14	1.257058e+04	3.870416e+03	2.668083e+03	0	9.871313e-04
5.300000e+08	1.959493e+13	0.000000e+00	5.238097e-01	3.693181e+14	6.945883e+14	1.670339e+14	1.252327e+04	3.863726e+03	2.663471e+03	0	9.791092e-04
5.400000e+08	1.912730e+13	0.000000e+00	5.238097e-01	3.614351e+14	6.828958e+14	1.662040e+14	1.247698e+04	3.857161e+03	2.658945e+03	0	9.712577e-04
5.500000e+08	1.867674e+13	0.000000e+00	5.238097e-01	3.538372e+14	6.715825e+14	1.653800e+14	1.243167e+04	3.850717e+03	2.654503e+03	0	9.635707e-04
5.600000e+08	1.824237e+13	0.000000e+00	5.238097e-01	3.465099e+14	6.606309e+14	1.645618e+14	1.238730e+04	3.844391e+03	2.650142e+03	0	9.560421e-04
5.700000e+08	1.782341e+13	0.000000e+00	5.238097e-01	3.394400e+14	6.500247e+14	1.637495e+14	1.234385e+04	3.838179e+03	2.645860e+03	0	9.486663e-04
5.800000e+08	1.741909e+13	0.000000e+00	5.238097e-01	3.326149e+14	6.397485e+14	1.629429e+14	1.230128e+04	3.832078e+03	2.641654e+03	0	9.414380e-04
5.900000e+08	1.702871e+13	0.000000e+00	5.238097e-01	3.260228e+14	6.297878e+14	1.621420e+14	1.225956e+04	3.826085e+03	2.637523e+03	0	9.343520e-04
6.000000e+08	1.665161e+13	0.000000e+00	5.238097e-01	3.196527e+14	6.201287e+14	1.613468e+14	1.221866e+04	3.820197e+03	2.633464e+03	0	9.274034e-04
6.100000e+08	1.628717e+13	0.000000e+00	5.238097e-01	3.134943e+14	6.107583e+14	1.605572e+14	1.217855e+04	3.814411e+03	2.629475e+03	0	9.205875e-04
6.200000e+08	1.593479e+13	0.000000e+00	5.238097e-01	3.075378e+14	6.016642e+14	1.597732e+14	1.213921e+04	3.808723e+03	2.625555e+03	0	9.139000e-04
6.300000e+08	1.559393e+13	0.000000e+00	5.238097e-01	3.017739e+14	5.928348e+14	1.589948e+14	1.210062e+04	3.803133e+03	2.621701e+03	0	9.073366e-04
6.400000e+08	1.526407e+13	0.000000e+00	5.238097e-01	2.961940e+14	5.842590e+14	1.582218e+14	1.206274e+04	3.797635e+03	2.617911e+03	0	9.008932e-04
6.500000e+08	1.494471e+13	0.000000e+00	5.238097e-01	2.907900e+14	5.759264e+14	1.574543e+14	1.202556e+04	3.792229e+03	2.614184e+03	0	8.945660e-04
6.600000e+08	1.463540e+13	0.000000e+00	5.238097e-01	2.855541e+14	5.678270e+14	1.566921e+14	1.198905e+04	3.786911e+03	2.610518e+03	0	8.883513e-04
6.700000e+08	1.433569e+13	0.000000e+00	5.238097e-01	2.804791e+14	5.599515e+14	1.559354e+14	1.195320e+04	3.781680e+03	2.606912e+03	0	8.822455e-04
6.800000e+08	1.404518e+13	0.000000e+00	5.238097e-01	2.755580e+14	5.522908e+14	1.551839e+14	1.191798e+04	3.776532e+03	2.603363e+03	0	8.762452e-04
6.900000e+08	1.376347e+13	0.000000e+00	5.238097e-01	2.707844e+14	5.448366e+14	1.544377e+14	1.188337e+04	3.771466e+03	2.599871e+03	0	8.703473e-04
7.000000e+08	1.349020e+13	0.000000e+00	5.238097e-01	2.661521e+14	5.375808e+14	1.536968e+14	1.184936e+04	3.766479e+03	2.596433e+03	0	8.645485e-04
7.100000e+08	1.322501e+13	0.000000e+00	5.238097e-01	2.616553e+14	5.305156e+14	1.529610e+14	1.181593e+04	3.761569e+03	2.593049e+03	0	8.588459e-04
7.200000e+08	1.296758e+13	0.000000e+00	5.238097e-01	2.572884e+14	5.236339e+14	1.522304e+14	1.178306e+04	3.756735e+03	2.589716e+03	0	8.532367e-04
7.300000e+08	1.271758e+13	0.000000e+00	5.238097e-01	2.530463e+14	5.169287e+14	1.515049e+14	1.175074e+04	3.751974e+03	2.586434e+03	0	8.477181e-04
7.400000e+08	1.247473e+13	0.000000e+00	5.238097e-01	2.489238e+14	5.103934e+14	1.507845e+14	1.171894e+04	3.747284e+03	2.583201e+03	0	8.422874e-04
7.500000e+08	1.223874e+13	0.000000e+00	5.238097e-01	2.449164e+14	5.040218e+14	1.500690e+14	1.168766e+04	3.742664e+03	2.580017e+03	0	8.369422e-04
7.600000e+08	1.200933e+13	0.000000e+00	5.238097e-01	2.410196e+14	4.978077e+14	1.493586e+14	1.165689e+04	3.738112e+03	2.576879e+03	0	8.316799e-04
7.700000e+08	1.178627e+13	0.000000e+00	5.238097e-01	2.372290e+14	4.917456e+14	1.486531e+14	1.162659e+04	3.733626e+03	2.573786e+03	0	8.264984e-04
7.800000e+08	1.156929e+13	0.000000e+00	5.238097e-01	2.335406e+14	4.858300e+14	1.479525e+14	1.159678e+04	3.729205e+03	2.570738e+03	0	8.213952e-04
7.900000e+08	1.135818e+13	0.000000e+00	5.238097e-01	2.299507e+14	4.800557e+14	1.472568e+14	1.156742e+04	3.724846e+03	2.567734e+03	0	8.163683e-04
8.000000e+08	1.115271e+13	0.000000e+00	5.238097e-01	2.264554e+14	4.744177e+14	1.465659e+14	1.153851e+04	3.720549e+03	2.564771e+03	0	8.114155e-04
8.100000e+08	1.095267e+13	0.000000e+00	5.238097e-01	2.230513e+14	4.689113e+14	1.458798e+14	1.151004e+04	3.716311e+03	2.561850e+03	0	8.065350e-04
8.200000e+08	1.075786e+13	0.000000e+00	5.238097e-01	2.197351e+14	4.635320e+14	1.451984e+14	1.148200e+04	3.712132e+03	2.558969e+03	0	8.017246e-04
8.300000e+08	1.056810e+13	0.000000e+00	5.238097e-01	2.165036e+14	4.582754e+14	1.445217e+14	1.145437e+04	3.708010e+03	2.556128e+03	0	7.969826e-04
8.400000e+08	1.038320e+13	0.000000e+00	5.238097e-01	2.133538e+14	4.531375e+14	1.438498e+14	1.142714e+04	3.703944e+03	2.553324e+03	0	7.923072e-04
8.500000e+08	1.020298e+13	0.000000e+00	5.238097e-01	2.102828e+14	4.481143e+14	1.431824e+14	1.140031e+04	3.699932e+03	2.550559e+03	0	7.876966e-04
8.600000e+08	1.002730e+13	0.000000e+00	5.238097e-01	2.072878e+14	4.432019e+14	1.425197e+14	1.137387e+04	3.695972e+03	2.547829e+03	0	7.831492e-04
8.700000e+08	9.855973e+12	0.000000e+00	5.238097e-01	2.043661e+14	4.383968e+14	1.418615e+14	1.134779e+04	3.692065e+03	2.545136e+03	0	7.786634e-04
8.800000e+08	9.688865e+12	0.000000e+00	5.238097e-01	2.015154e+14	4.336955e+14	1.412078e+14	1.132209e+04	3.688208e+03	2.542477e+03	0	7.742375e-04
8.900000e+08	9.525828e+12	0.000000e+00	5.238097e-01	1.987331e+14	4.290946e+14	1.405587e+14	1.129674e+04	3.684401e+03	2.539853e+03	0	7.698702e-04
9.000000e+08	9.366724e+12	0.000000e+00	5.238097e-01	1.960169e+14	4.245911e+14	1.399139e+14	1.127174e+04	3.680642e+03	2.537261e+03	0	7.655599e-04
9.100000e+08	9.211421e+12	0.000000e+00	5.238097e-01	1.933647e+14	4.201817e+14	1.392737e+14	1.124708e+04	3.676930e+03	2.534703e+03	0	7.613052e-04
9.200000e+08	9.059793e+12	0.000000e+00	5.238097e-01	1.907743e+14	4.158637e+14	1.386377e+14	1.122275e+04	3.673265e+03	2.532176e+03	0	7.571048e-04
9.300000e+08	8.911719e+12	0.000000e+00	5.238097e-01	1.882437e+14	4.116341e+14	1.380062e+14	1.119874e+04	3.669644e+03	2.529680e+03	0	7.529574e-04
9.400000e+08	8.767082e+12	0.000000e+00	5.238097e-01	1.857710e+14	4.074903e+14	1.373790e+14	1.117506e+04	3.666068e+03	2.527215e+03	0	7.488617e-04
9.500000e+08	8.625773e+12	0.000000e+00	5.238097e-01	1.833543e+14	4.034296e+14	1.367560e+14	1.115168e+04	3.662535e+03	2.524779e+03	0	7.448164e-04
9.600000e+08	8.487684e+12	0.000000e+00	5.238097e-01	1.809918e+14	3.994496e+14	1.361373e+14	1.112860e+04	3.659044e+03	2.522373e+03	0	7.408205e-04
9.700000e+08	8.352713e+12	0.000000e+00	5.238097e-01	1.786819e+14	3.955480e+14	1.355228e+14	1.110582e+04	3.655595e+03	2.519995e+03	0	7.368726e-04
9.800000e+08	8.220762e+12	0.000000e+00	5.238097e-01	1.764228e+14	3.917223e+14	1.349125e+14	1.108334e+04	3.652186e+03	2.517645e+03	0	7.329718e-04
9.900000e+08	8.091738e+12	0.000000e+00	5.238097e-01	1.742130e+14	3.879704e+14	1.343063e+14	1.106113e+04	3.648817e+03	2.515322e+03	0	7.291169e-04
1.000000e+09	7.965549e+12	0.000000e+00	5.238097e-01	1.720510e+14	3.842901e+14	1.337043e+14	1.103920e+04	3.645486e+03	2.513027e+03	0	7.253069e-04
1.010000e+09	7.842110e+12	0.000000e+00	5.238097e-01	1.699354e+14	3.806794e+14	1.331063e+14	1.101754e+04	3.642193e+03	2.510757e+03	0	7.215408e-04
1.020000e+09	7.721336e+12	0.000000e+00	5.238097e-01	1.678647e+14	3.771363e+14	1.325124e+14	1.099615e+04	3.638938e+03	2.508513e+03	0	7.178175e-04
1.030000e+09	7.603148e+12	0.000000e+00	5.238097e-01	1.658376e+14	3.736589e+14	1.319225e+14	1.097501e+04	3.635719e+03	2.506294e+03	0	7.141362e-04
1.040000e+09	7.487468e+12	0.000000e+00	5.238097e-01	1.638528e+14	3.702454e+14	1.313366e+14	1.095414e+04	3.632536e+03	2.504099e+03	0	7.104959e-04
1.050000e+09	7.374222e+12	0.000000e+00	5.238097e-01	1.619091e+14	3.668941e+14	1.307546e+14	1.093350e+04	3.629387e+03	2.501929e+03	0	7.068957e-04
1.060000e+09	7.263339e+12	0.000000e+00	5.238097e-01	1.600052e+14	3.636031e+14	1.301766e+14	1.091312e+04	3.626273e+03	2.499782e+03	0	7.033347e-04
1.070000e+09	7.154751e+12	0.000000e+00	5.238097e-01	1.581400e+14	3.603709e+14	1.296024e+14	1.089297e+04	3.623192e+03	2.497658e+03	0	6.998120e-04
1.080000e+09	7.048390e+12	0.000000e+00	5.238097e-01	1.563125e+14	3.571959e+14	1.290322e+14	1.087306e+04	3.620145e+03	2.495557e+03	0	6.963270e-04
1.090000e+09	6.944194e+12	0.000000e+00	5.238097e-01	1.545215e+14	3.540766e+14	1.284657e+14	1.085337e+04	3.617129e+03	2.493479e+03	0	6.928787e-04
1.100000e+09	6.842101e+12	0.000000e+00	5.238097e-01	1.527660e+14	3.510115e+14	1.279031e+14	1.083391e+04	3.614146e+03	2.491422e+03	0	6.894663e-04
1.110000e+09	6.742052e+12	0.000000e+00	5.238097e-01	1.510450e+14	3.479992e+14	1.273442e+14	1.081467e+04	3.611193e+03	2.489386e+03	0	6.860892e-04
1.120000e+09	6.643989e+12	0.000000e+00	5.238097e-01	1.493576e+14	3.450383e+14	1.267891e+14	1.079565e+04	3.608270e+03	2.487372e+03	0	6.827466e-04
1.130000e+09	6.547858e+12	0.000000e+00	5.238097e-01	1.477029e+14	3.421274e+14	1.262377e+14	1.077683e+04	3.605378e+03	2.485378e+03	0	6.794377e-04
1.140000e+09	6.453606e+12	0.000000e+00	5.238097e-01	1.460799e+14	3.392654e+14	1.256900e+14	1.075823e+04	3.602515e+03	2.483404e+03	0	6.761620e-04
1.150000e+09	6.361182e+12	0.000000e+00	5.238097e-01	1.444877e+14	3.364509e+14	1.251459e+14	1.073983e+04	3.599680e+03	2.481450e+03	0	6.729186e-04
1.160000e+09	6.270536e+12	0.000000e+00	5.238097e-01	1.429257e+14	3.336828e+14	1.246055e+14	1.072163e+04	3.596874e+03	2.479516e+03	0	6.697069e-04
1.170000e+09	6.181620e+12	0.000000e+00	5.238097e-01	1.413929e+14	3.309599e+14	1.240687e+14	1.070362e+04	3.594095e+03	2.477600e+03	0	6.665264e-04
1.180000e+09	6.094389e+12	0.000000e+00	5.238097e-01	1.398886e+14	3.282811e+14	1.235354e+14	1.068581e+04	3.591344e+03	2.475703e+03	0	6.633763e-04
1.190000e+09	6.008797e+12	0.000000e+00	5.238097e-01	1.384120e+14	3.256453e+14	1.230057e+14	1.066819e+04	3.588619e+03	2.473825e+03	0	6.602561e-04
1.200000e+09	5.924803e+12	0.000000e+00	5.238097e-01	1.369625e+14	3.230514e+14	1.224795e+14	1.065075e+04	3.585920e+03	2.471965e+03	0	6.571652e-04
1.210000e+09	5.842364e+12	0.000000e+00	5.238097e-01	1.355392e+14	3.204986e+14	1.219568e+14	1.063349e+04	3.583247e+03	2.470122e+03	0	6.541029e-04
1.220000e+09	5.761440e+12	0.000000e+00	5.238097e-01	1.341417e+14	3.179857e+14	1.214375e+14	1.061641e+04	3.580599e+03	2.468297e+03	0	6.510688e-04
1.230000e+09	5.681992e+12	0.000000e+00	5.238097e-01	1.327691e+14	3.155118e+14	1.209217e+14	1.059951e+04	3.577977e+03	2.466489e+03	0	6.480623e-04
1.240000e+09	5.603983e+12	0.000000e+00	5.238097e-01	1.314209e+14	3.130760e+14	1.204093e+14	1.058278e+04	3.575378e+03	2.464697e+03	0	6.450829e-04
1.250000e+09	5.527377e+12	0.000000e+00	5.238097e-01	1.300964e+14	3.106774e+14	1.199003e+14	1.056622e+04	3.572803e+03	2.462922e+03	0	6.421300e-04
1.260000e+09	5.452138e+12	0.000000e+00	5.238097e-01	1.287951e+14	3.083152e+14	1.193946e+14	1.054982e+04	3.570252e+03	2.461164e+03	0	6.392031e-04
1.270000e+09	5.378233e+12	0.000000e+00	5.238097e-01	1.275164e+14	3.059885e+14	1.188923e+14	1.053359e+04	3.567724e+03	2.459421e+03	0	6.363017e-04
1.280000e+09	5.305627e+12	0.000000e+00	5.238097e-01	1.262598e+14	3.036965e+14	1.183933e+14	1.051752e+04	3.565219e+03	2.457694e+03	0	6.334254e-04
1.290000e+09	5.234290e+12	0.000000e+00	5.238097e-01	1.250246e+14	3.014384e+14	1.178975e+14	1.050161e+04	3.562736e+03	2.455983e+03	0	6.305737e-04
1.300000e+09	5.164191e+12	0.000000e+00	5.238097e-01	1.238104e+14	2.992134e+14	1.174050e+14	1.048585e+04	3.560275e+03	2.454286e+03	0	6.277461e-04
1.310000e+09	5.095299e+12	0.000000e+00	5.238097e-01	1.226167e+14	2.970209e+14	1.169158e+14	1.047025e+04	3.557836e+03	2.452605e+03	0	6.249421e-04
1.320000e+09	5.027586e+12	0.000000e+00	5.238097e-01	1.214430e+14	2.948600e+14	1.164297e+14	1.045479e+04	3.555418e+03	2.450938e+03	0	6.221614e-04
1.330000e+09	4.961023e+12	0.000000e+00	5.238097e-01	1.202888e+14	2.927302e+14	1.159468e+14	1.043948e+04	3.553020e+03	2.449285e+03	0	6.194035e-04
1.340000e+09	4.895583e+12	0.000000e+00	5.238097e-01	1.191536e+14	2.906307e+14	1.154671e+14	1.042432e+04	3.550644e+03	2.447647e+03	0	6.166679e-04
1.350000e+09	4.831239e+12	0.000000e+00	5.238097e-01	1.180371e+14	2.885608e+14	1.149905e+14	1.040930e+04	3.548287e+03	2.446022e+03	0	6.139544e-04
1.360000e+09	4.767967e+12	0.000000e+00	5.238097e-01	1.169387e+14	2.865200e+14	1.145170e+14	1.039442e+04	3.545951e+03	2.444411e+03	0	6.112624e-04
