#t		Qconv[W]	Ri[Rp]		R*[Rp]		Qc[W]		Qm[W]		Qr[W]		Tcmb[K]		Tl[K]		Tup[K]		RiFlag		Bs[T]
0.000000e+00	4.698877e+14	0.000000e+00	5.288462e-01	6.334305e+15	1.953562e+15	2.950374e+14	2.456900e+04	4.395953e+03	2.925583e+03	0	2.759884e-03
1.000000e+07	4.331485e+14	0.000000e+00	5.288462e-01	5.848617e+15	2.361426e+15	2.934027e+14	2.403635e+04	4.538805e+03	3.020654e+03	0	2.685994e-03
2.000000e+07	4.001191e+14	0.000000e+00	5.288462e-01	5.411875e+15	2.713332e+15	2.917802e+14	2.354338e+04	4.653598e+03	3.097051e+03	0	2.615908e-03
3.000000e+07	3.703670e+14	0.000000e+00	5.288462e-01	5.018379e+15	2.997204e+15	2.901698e+14	2.308622e+04	4.743962e+03	3.157189e+03	0	2.549393e-03
4.000000e+07	3.435284e+14	0.000000e+00	5.288462e-01	4.663331e+15	3.210885e+15	2.885715e+14	2.266143e+04	4.813563e+03	3.203510e+03	0	2.486262e-03
5.000000e+07	3.192879e+14	0.000000e+00	5.288462e-01	4.342571e+15	3.358944e+15	2.869851e+14	2.226595e+04	4.865866e+03	3.238318e+03	0	2.426351e-03
6.000000e+07	2.973666e+14	0.000000e+00	5.288462e-01	4.052423e+15	3.449641e+15	2.854105e+14	2.189703e+04	4.903981e+03	3.263685e+03	0	2.369500e-03
7.000000e+07	2.775157e+14	0.000000e+00	5.288462e-01	3.789602e+15	3.492619e+15	2.838476e+14	2.155219e+04	4.930605e+03	3.281404e+03	0	2.315556e-03
8.000000e+07	2.595122e+14	0.000000e+00	5.288462e-01	3.551172e+15	3.497423e+15	2.822963e+14	2.122923e+04	4.948011e+03	3.292988e+03	0	2.264359e-03
9.000000e+07	2.431572e+14	0.000000e+00	5.288462e-01	3.334506e+15	3.472689e+15	2.807566e+14	2.092617e+04	4.958080e+03	3.299689e+03	0	2.215755e-03
1.000000e+08	2.282727e+14	0.000000e+00	5.288462e-01	3.137259e+15	3.425798e+15	2.792283e+14	2.064122e+04	4.962347e+03	3.302528e+03	0	2.169589e-03
1.100000e+08	2.147008e+14	0.000000e+00	5.288462e-01	2.957346e+15	3.362827e+15	2.777114e+14	2.037279e+04	4.962051e+03	3.302332e+03	0	2.125710e-03
1.200000e+08	2.023013e+14	0.000000e+00	5.288462e-01	2.792918e+15	3.288635e+15	2.762057e+14	2.011948e+04	4.958189e+03	3.299761e+03	0	2.083974e-03
1.300000e+08	1.909498e+14	0.000000e+00	5.288462e-01	2.642337e+15	3.207027e+15	2.747111e+14	1.987999e+04	4.951555e+03	3.295346e+03	0	2.044243e-03
1.400000e+08	1.805367e+14	0.000000e+00	5.288462e-01	2.504154e+15	3.120931e+15	2.732276e+14	1.965318e+04	4.942785e+03	3.289509e+03	0	2.006386e-03
1.500000e+08	1.709647e+14	0.000000e+00	5.288462e-01	2.377088e+15	3.032564e+15	2.717551e+14	1.943804e+04	4.932381e+03	3.282586e+03	0	1.970281e-03
1.600000e+08	1.621483e+14	0.000000e+00	5.288462e-01	2.260007e+15	2.943581e+15	2.702934e+14	1.923363e+04	4.920746e+03	3.274842e+03	0	1.935813e-03
1.700000e+08	1.540114e+14	0.000000e+00	5.288462e-01	2.151912e+15	2.855196e+15	2.688426e+14	1.903913e+04	4.908196e+03	3.266490e+03	0	1.902876e-03
1.800000e+08	1.464872e+14	0.000000e+00	5.288462e-01	2.051917e+15	2.768281e+15	2.674024e+14	1.885379e+04	4.894986e+03	3.257699e+03	0	1.871368e-03
1.900000e+08	1.395162e+14	0.000000e+00	5.288462e-01	1.959238e+15	2.683450e+15	2.659729e+14	1.867694e+04	4.881315e+03	3.248600e+03	0	1.841200e-03
2.000000e+08	1.330458e+14	0.000000e+00	5.288462e-01	1.873181e+15	2.601118e+15	2.645538e+14	1.850795e+04	4.867342e+03	3.239301e+03	0	1.812285e-03
2.100000e+08	1.270292e+14	0.000000e+00	5.288462e-01	1.793129e+15	2.521551e+15	2.631452e+14	1.834628e+04	4.853194e+03	3.229885e+03	0	1.784544e-03
2.200000e+08	1.214248e+14	0.000000e+00	5.288462e-01	1.718533e+15	2.444903e+15	2.617469e+14	1.819143e+04	4.838969e+03	3.220418e+03	0	1.757904e-03
2.300000e+08	1.161957e+14	0.000000e+00	5.288462e-01	1.648904e+15	2.371245e+15	2.603589e+14	1.804293e+04	4.824746e+03	3.210953e+03	0	1.732299e-03
2.400000e+08	1.113089e+14	0.000000e+00	5.288462e-01	1.583806e+15	2.300588e+15	2.589811e+14	1.790037e+04	4.810587e+03	3.201530e+03	0	1.707665e-03
2.500000e+08	1.067346e+14	0.000000e+00	5.288462e-01	1.522848e+15	2.232900e+15	2.576134e+14	1.776336e+04	4.796539e+03	3.192181e+03	0	1.683945e-03
2.600000e+08	1.024465e+14	0.000000e+00	5.288462e-01	1.465680e+15	2.168116e+15	2.562557e+14	1.763156e+04	4.782640e+03	3.182931e+03	0	1.661085e-03
2.700000e+08	9.842088e+13	0.000000e+00	5.288462e-01	1.411988e+15	2.106152e+15	2.549079e+14	1.750465e+04	4.768919e+03	3.173799e+03	0	1.639036e-03
2.800000e+08	9.463628e+13	0.000000e+00	5.288462e-01	1.361491e+15	2.046906e+15	2.535699e+14	1.738233e+04	4.755396e+03	3.164799e+03	0	1.617752e-03
2.900000e+08	9.107349e+13	0.000000e+00	5.288462e-01	1.313934e+15	1.990273e+15	2.522417e+14	1.726434e+04	4.742088e+03	3.155942e+03	0	1.597191e-03
3.000000e+08	8.771515e+13	0.000000e+00	5.288462e-01	1.269088e+15	1.936138e+15	2.509232e+14	1.715042e+04	4.729006e+03	3.147236e+03	0	1.577312e-03
3.100000e+08	8.454555e+13	0.000000e+00	5.288462e-01	1.226744e+15	1.884387e+15	2.496143e+14	1.704035e+04	4.716157e+03	3.138685e+03	0	1.558080e-03
3.200000e+08	8.155047e+13	0.000000e+00	5.288462e-01	1.186715e+15	1.834905e+15	2.483150e+14	1.693391e+04	4.703548e+03	3.130293e+03	0	1.539459e-03
3.300000e+08	7.871700e+13	0.000000e+00	5.288462e-01	1.148829e+15	1.787582e+15	2.470250e+14	1.683090e+04	4.691179e+03	3.122062e+03	0	1.521419e-03
3.400000e+08	7.603341e+13	0.000000e+00	5.288462e-01	1.112933e+15	1.742307e+15	2.457445e+14	1.673115e+04	4.679053e+03	3.113991e+03	0	1.503930e-03
3.500000e+08	7.348902e+13	0.000000e+00	5.288462e-01	1.078884e+15	1.698976e+15	2.444732e+14	1.663449e+04	4.667167e+03	3.106081e+03	0	1.486963e-03
3.600000e+08	7.107409e+13	0.000000e+00	5.288462e-01	1.046554e+15	1.657488e+15	2.432112e+14	1.654075e+04	4.655521e+03	3.098331e+03	0	1.470494e-03
3.700000e+08	6.877973e+13	0.000000e+00	5.288462e-01	1.015825e+15	1.617746e+15	2.419582e+14	1.644980e+04	4.644112e+03	3.090737e+03	0	1.454497e-03
3.800000e+08	6.659778e+13	0.000000e+00	5.288462e-01	9.865896e+14	1.579658e+15	2.407144e+14	1.636149e+04	4.632935e+03	3.083299e+03	0	1.438951e-03
3.900000e+08	6.452080e+13	0.000000e+00	5.288462e-01	9.587482e+14	1.543137e+15	2.394795e+14	1.627569e+04	4.621986e+03	3.076012e+03	0	1.423834e-03
4.000000e+08	6.254194e+13	0.000000e+00	5.288462e-01	9.322107e+14	1.508102e+15	2.382536e+14	1.619230e+04	4.611262e+03	3.068875e+03	0	1.409126e-03
4.100000e+08	6.065491e+13	0.000000e+00	5.288462e-01	9.068937e+14	1.474474e+15	2.370365e+14	1.611119e+04	4.600757e+03	3.061884e+03	0	1.394809e-03
4.200000e+08	5.885393e+13	0.000000e+00	5.288462e-01	8.827207e+14	1.442180e+15	2.358282e+14	1.603227e+04	4.590467e+03	3.055036e+03	0	1.380865e-03
4.300000e+08	5.713365e+13	0.000000e+00	5.288462e-01	8.596210e+14	1.411149e+15	2.346286e+14	1.595543e+04	4.580385e+03	3.048326e+03	0	1.367278e-03
4.400000e+08	5.548917e+13	0.000000e+00	5.288462e-01	8.375294e+14	1.381318e+15	2.334376e+14	1.588058e+04	4.570508e+03	3.041753e+03	0	1.354032e-03
4.500000e+08	5.391592e+13	0.000000e+00	5.288462e-01	8.163857e+14	1.352625e+15	2.322551e+14	1.580764e+04	4.560829e+03	3.035311e+03	0	1.341112e-03
4.600000e+08	5.240972e+13	0.000000e+00	5.288462e-01	7.961341e+14	1.325011e+15	2.310812e+14	1.573653e+04	4.551344e+03	3.028999e+03	0	1.328505e-03
4.700000e+08	5.096666e+13	0.000000e+00	5.288462e-01	7.767229e+14	1.298422e+15	2.299157e+14	1.566717e+04	4.542047e+03	3.022811e+03	0	1.316199e-03
4.800000e+08	4.958312e+13	0.000000e+00	5.288462e-01	7.581044e+14	1.272806e+15	2.287585e+14	1.559948e+04	4.532933e+03	3.016746e+03	0	1.304179e-03
4.900000e+08	4.825577e+13	0.000000e+00	5.288462e-01	7.402339e+14	1.248116e+15	2.276096e+14	1.553341e+04	4.523997e+03	3.010799e+03	0	1.292436e-03
5.000000e+08	4.698147e+13	0.000000e+00	5.288462e-01	7.230703e+14	1.224306e+15	2.264689e+14	1.546888e+04	4.515234e+03	3.004967e+03	0	1.280958e-03
5.100000e+08	4.575734e+13	0.000000e+00	5.288462e-01	7.065750e+14	1.201333e+15	2.253364e+14	1.540583e+04	4.506639e+03	2.999247e+03	0	1.269735e-03
5.200000e+08	4.458066e+13	0.000000e+00	5.288462e-01	6.907122e+14	1.179157e+15	2.242120e+14	1.534422e+04	4.498208e+03	2.993636e+03	0	1.258756e-03
5.300000e+08	4.344892e+13	0.000000e+00	5.288462e-01	6.754485e+14	1.157739e+15	2.230955e+14	1.528397e+04	4.489935e+03	2.988130e+03	0	1.248013e-03
5.400000e+08	4.235978e+13	0.000000e+00	5.288462e-01	6.607527e+14	1.137044e+15	2.219871e+14	1.522505e+04	4.481817e+03	2.982727e+03	0	1.237496e-03
5.500000e+08	4.131102e+13	0.000000e+00	5.288462e-01	6.465956e+14	1.117039e+15	2.208865e+14	1.516740e+04	4.473849e+03	2.977424e+03	0	1.227198e-03
5.600000e+08	4.030061e+13	0.000000e+00	5.288462e-01	6.329500e+14	1.097690e+15	2.197937e+14	1.511097e+04	4.466026e+03	2.972218e+03	0	1.217110e-03
5.700000e+08	3.932661e+13	0.000000e+00	5.288462e-01	6.197903e+14	1.078969e+15	2.187087e+14	1.505573e+04	4.458345e+03	2.967106e+03	0	1.207225e-03
5.800000e+08	3.838723e+13	0.000000e+00	5.288462e-01	6.070926e+14	1.060847e+15	2.176314e+14	1.500163e+04	4.450801e+03	2.962086e+03	0	1.197535e-03
5.900000e+08	3.748078e+13	0.000000e+00	5.288462e-01	5.948346e+14	1.043297e+15	2.165618e+14	1.494863e+04	4.443391e+03	2.957154e+03	0	1.188034e-03
6.000000e+08	3.660566e+13	0.000000e+00	5.288462e-01	5.829950e+14	1.026293e+15	2.154997e+14	1.489669e+04	4.436111e+03	2.952309e+03	0	1.178715e-03
6.100000e+08	3.576040e+13	0.000000e+00	5.288462e-01	5.715542e+14	1.009813e+15	2.144451e+14	1.484578e+04	4.428958e+03	2.947549e+03	0	1.169572e-03
6.200000e+08	3.494360e+13	0.000000e+00	5.288462e-01	5.604936e+14	9.938321e+14	2.133980e+14	1.479587e+04	4.421927e+03	2.942869e+03	0	1.160598e-03
6.300000e+08	3.415393e+13	0.000000e+00	5.288462e-01	5.497956e+14	9.783304e+14	2.123582e+14	1.474691e+04	4.415015e+03	2.938270e+03	0	1.151789e-03
6.400000e+08	3.339016e+13	0.000000e+00	5.288462e-01	5.394438e+14	9.632873e+14	2.113258e+14	1.469888e+04	4.408220e+03	2.933747e+03	0	1.143139e-03
6.500000e+08	3.265111e+13	0.000000e+00	5.288462e-01	5.294225e+14	9.486834e+14	2.103007e+14	1.465175e+04	4.401537e+03	2.929300e+03	0	1.134642e-03
6.600000e+08	3.193569e+13	0.000000e+00	5.288462e-01	5.197173e+14	9.345007e+14	2.092828e+14	1.460549e+04	4.394965e+03	2.924926e+03	0	1.126293e-03
6.700000e+08	3.124286e+13	0.000000e+00	5.288462e-01	5.103142e+14	9.207217e+14	2.082720e+14	1.456007e+04	4.388499e+03	2.920623e+03	0	1.118089e-03
6.800000e+08	3.057163e+13	0.000000e+00	5.288462e-01	5.012001e+14	9.073303e+14	2.072684e+14	1.451547e+04	4.382137e+03	2.916389e+03	0	1.110024e-03
6.900000e+08	2.992107e+13	0.000000e+00	5.288462e-01	4.923628e+14	8.943108e+14	2.062717e+14	1.447166e+04	4.375877e+03	2.912222e+03	0	1.102094e-03
7.000000e+08	2.929031e+13	0.000000e+00	5.288462e-01	4.837905e+14	8.816485e+14	2.052821e+14	1.442862e+04	4.369715e+03	2.908122e+03	0	1.094294e-03
7.100000e+08	2.867853e+13	0.000000e+00	5.288462e-01	4.754723e+14	8.693293e+14	2.042994e+14	1.438632e+04	4.363649e+03	2.904085e+03	0	1.086622e-03
7.200000e+08	2.808492e+13	0.000000e+00	5.288462e-01	4.673975e+14	8.573400e+14	2.033236e+14	1.434475e+04	4.357677e+03	2.900110e+03	0	1.079072e-03
7.300000e+08	2.750874e+13	0.000000e+00	5.288462e-01	4.595563e+14	8.456678e+14	2.023545e+14	1.430388e+04	4.351796e+03	2.896196e+03	0	1.071642e-03
7.400000e+08	2.694930e+13	0.000000e+00	5.288462e-01	4.519393e+14	8.343008e+14	2.013923e+14	1.426369e+04	4.346003e+03	2.892341e+03	0	1.064327e-03
7.500000e+08	2.640592e+13	0.000000e+00	5.288462e-01	4.445376e+14	8.232274e+14	2.004368e+14	1.422416e+04	4.340297e+03	2.888543e+03	0	1.057125e-03
7.600000e+08	2.587796e+13	0.000000e+00	5.288462e-01	4.373427e+14	8.124367e+14	1.994879e+14	1.418528e+04	4.334676e+03	2.884802e+03	0	1.050032e-03
7.700000e+08	2.536481e+13	0.000000e+00	5.288462e-01	4.303464e+14	8.019183e+14	1.985456e+14	1.414702e+04	4.329136e+03	2.881115e+03	0	1.043046e-03
7.800000e+08	2.486591e+13	0.000000e+00	5.288462e-01	4.235413e+14	7.916623e+14	1.976098e+14	1.410937e+04	4.323677e+03	2.877482e+03	0	1.036162e-03
7.900000e+08	2.438071e+13	0.000000e+00	5.288462e-01	4.169200e+14	7.816592e+14	1.966806e+14	1.407232e+04	4.318295e+03	2.873901e+03	0	1.029378e-03
8.000000e+08	2.390869e+13	0.000000e+00	5.288462e-01	4.104755e+14	7.719001e+14	1.957578e+14	1.403583e+04	4.312990e+03	2.870370e+03	0	1.022692e-03
8.100000e+08	2.344935e+13	0.000000e+00	5.288462e-01	4.042014e+14	7.623761e+14	1.948414e+14	1.399992e+04	4.307760e+03	2.866889e+03	0	1.016100e-03
8.200000e+08	2.300223e+13	0.000000e+00	5.288462e-01	3.980912e+14	7.530793e+14	1.939314e+14	1.396454e+04	4.302602e+03	2.863456e+03	0	1.009600e-03
8.300000e+08	2.256686e+13	0.000000e+00	5.288462e-01	3.921390e+14	7.440016e+14	1.930276e+14	1.392970e+04	4.297515e+03	2.860071e+03	0	1.003190e-03
8.400000e+08	2.214284e+13	0.000000e+00	5.288462e-01	3.863391e+14	7.351356e+14	1.921301e+14	1.389538e+04	4.292497e+03	2.856731e+03	0	9.968669e-04
8.500000e+08	2.172974e+13	0.000000e+00	5.288462e-01	3.806861e+14	7.264740e+14	1.912388e+14	1.386156e+04	4.287546e+03	2.853437e+03	0	9.906287e-04
8.600000e+08	2.132718e+13	0.000000e+00	5.288462e-01	3.751748e+14	7.180101e+14	1.903536e+14	1.382824e+04	4.282662e+03	2.850186e+03	0	9.844732e-04
8.700000e+08	2.093479e+13	0.000000e+00	5.288462e-01	3.698002e+14	7.097372e+14	1.894745e+14	1.379539e+04	4.277841e+03	2.846978e+03	0	9.783981e-04
8.800000e+08	2.055221e+13	0.000000e+00	5.288462e-01	3.645575e+14	7.016491e+14	1.886014e+14	1.376301e+04	4.273084e+03	2.843812e+03	0	9.724014e-04
8.900000e+08	2.017910e+13	0.000000e+00	5.288462e-01	3.594422e+14	6.937396e+14	1.877344e+14	1.373109e+04	4.268389e+03	2.840687e+03	0	9.664811e-04
9.000000e+08	1.981514e+13	0.000000e+00	5.288462e-01	3.544500e+14	6.860031e+14	1.868733e+14	1.369962e+04	4.263753e+03	2.837602e+03	0	9.606351e-04
9.100000e+08	1.946002e+13	0.000000e+00	5.288462e-01	3.495768e+14	6.784340e+14	1.860181e+14	1.366858e+04	4.259176e+03	2.834556e+03	0	9.548617e-04
9.200000e+08	1.911344e+13	0.000000e+00	5.288462e-01	3.448186e+14	6.710270e+14	1.851688e+14	1.363797e+04	4.254657e+03	2.831548e+03	0	9.491591e-04
9.300000e+08	1.877511e+13	0.000000e+00	5.288462e-01	3.401715e+14	6.637770e+14	1.843253e+14	1.360777e+04	4.250194e+03	2.828578e+03	0	9.435253e-04
9.400000e+08	1.844477e+13	0.000000e+00	5.288462e-01	3.356320e+14	6.566791e+14	1.834875e+14	1.357797e+04	4.245786e+03	2.825644e+03	0	9.379589e-04
9.500000e+08	1.812215e+13	0.000000e+00	5.288462e-01	3.311965e+14	6.497287e+14	1.826555e+14	1.354857e+04	4.241431e+03	2.822746e+03	0	9.324580e-04
9.600000e+08	1.780700e+13	0.000000e+00	5.288462e-01	3.268617e+14	6.429211e+14	1.818291e+14	1.351956e+04	4.237129e+03	2.819883e+03	0	9.270212e-04
9.700000e+08	1.749909e+13	0.000000e+00	5.288462e-01	3.226245e+14	6.362522e+14	1.810083e+14	1.349093e+04	4.232879e+03	2.817055e+03	0	9.216468e-04
9.800000e+08	1.719818e+13	0.000000e+00	5.288462e-01	3.184816e+14	6.297177e+14	1.801932e+14	1.346266e+04	4.228679e+03	2.814260e+03	0	9.163334e-04
9.900000e+08	1.690405e+13	0.000000e+00	5.288462e-01	3.144303e+14	6.233137e+14	1.793836e+14	1.343476e+04	4.224528e+03	2.811497e+03	0	9.110796e-04
1.000000e+09	1.661649e+13	0.000000e+00	5.288462e-01	3.104676e+14	6.170362e+14	1.785795e+14	1.340721e+04	4.220426e+03	2.808767e+03	0	9.058838e-04
1.010000e+09	1.633530e+13	0.000000e+00	5.288462e-01	3.065908e+14	6.108817e+14	1.777808e+14	1.338001e+04	4.216371e+03	2.806068e+03	0	9.007448e-04
1.020000e+09	1.606029e+13	0.000000e+00	5.288462e-01	3.027973e+14	6.048466e+14	1.769875e+14	1.335314e+04	4.212362e+03	2.803400e+03	0	8.956613e-04
1.030000e+09	1.579125e+13	0.000000e+00	5.288462e-01	2.990847e+14	5.989274e+14	1.761996e+14	1.332661e+04	4.208398e+03	2.800762e+03	0	8.906319e-04
1.040000e+09	1.552802e+13	0.000000e+00	5.288462e-01	2.954504e+14	5.931208e+14	1.754171e+14	1.330040e+04	4.204479e+03	2.798154e+03	0	8.856554e-04
1.050000e+09	1.527043e+13	0.000000e+00	5.288462e-01	2.918921e+14	5.874238e+14	1.746398e+14	1.327450e+04	4.200603e+03	2.795575e+03	0	8.807306e-04
1.060000e+09	1.501829e+13	0.000000e+00	5.288462e-01	2.884077e+14	5.818331e+14	1.738678e+14	1.324892e+04	4.196770e+03	2.793024e+03	0	8.758564e-04
1.070000e+09	1.477146e+13	0.000000e+00	5.288462e-01	2.849950e+14	5.763459e+14	1.731009e+14	1.322364e+04	4.192979e+03	2.790501e+03	0	8.710315e-04
1.080000e+09	1.452978e+13	0.000000e+00	5.288462e-01	2.816519e+14	5.709594e+14	1.723393e+14	1.319866e+04	4.189229e+03	2.788005e+03	0	8.662549e-04
1.090000e+09	1.429309e+13	0.000000e+00	5.288462e-01	2.783764e+14	5.656707e+14	1.715827e+14	1.317397e+04	4.185519e+03	2.785536e+03	0	8.615255e-04
1.100000e+09	1.406126e+13	0.000000e+00	5.288462e-01	2.751665e+14	5.604773e+14	1.708312e+14	1.314957e+04	4.181848e+03	2.783093e+03	0	8.568422e-04
1.110000e+09	1.383416e+13	0.000000e+00	5.288462e-01	2.720205e+14	5.553767e+14	1.700848e+14	1.312545e+04	4.178216e+03	2.780676e+03	0	8.522041e-04
1.120000e+09	1.361163e+13	0.000000e+00	5.288462e-01	2.689366e+14	5.503662e+14	1.693434e+14	1.310160e+04	4.174622e+03	2.778284e+03	0	8.476101e-04
1.130000e+09	1.339356e+13	0.000000e+00	5.288462e-01	2.659129e+14	5.454437e+14	1.686069e+14	1.307802e+04	4.171065e+03	2.775917e+03	0	8.430593e-04
1.140000e+09	1.317983e+13	0.000000e+00	5.288462e-01	2.629480e+14	5.406067e+14	1.678754e+14	1.305470e+04	4.167545e+03	2.773574e+03	0	8.385507e-04
1.150000e+09	1.297031e+13	0.000000e+00	5.288462e-01	2.600401e+14	5.358531e+14	1.671487e+14	1.303165e+04	4.164060e+03	2.771255e+03	0	8.340834e-04
1.160000e+09	1.276488e+13	0.000000e+00	5.288462e-01	2.571877e+14	5.311808e+14	1.664269e+14	1.300885e+04	4.160611e+03	2.768959e+03	0	8.296565e-04
1.170000e+09	1.256345e+13	0.000000e+00	5.288462e-01	2.543894e+14	5.265876e+14	1.657099e+14	1.298629e+04	4.157196e+03	2.766686e+03	0	8.252693e-04
1.180000e+09	1.236589e+13	0.000000e+00	5.288462e-01	2.516436e+14	5.220715e+14	1.649976e+14	1.296399e+04	4.153814e+03	2.764436e+03	0	8.209207e-04
1.190000e+09	1.217211e+13	0.000000e+00	5.288462e-01	2.489490e+14	5.176307e+14	1.642901e+14	1.294192e+04	4.150466e+03	2.762208e+03	0	8.166100e-04
1.200000e+09	1.198201e+13	0.000000e+00	5.288462e-01	2.463043e+14	5.132633e+14	1.635873e+14	1.292009e+04	4.147151e+03	2.760001e+03	0	8.123364e-04
1.210000e+09	1.179548e+13	0.000000e+00	5.288462e-01	2.437082e+14	5.089674e+14	1.628892e+14	1.289848e+04	4.143868e+03	2.757816e+03	0	8.080991e-04
1.220000e+09	1.161245e+13	0.000000e+00	5.288462e-01	2.411593e+14	5.047414e+14	1.621957e+14	1.287711e+04	4.140616e+03	2.755652e+03	0	8.038974e-04
1.230000e+09	1.143280e+13	0.000000e+00	5.288462e-01	2.386566e+14	5.005834e+14	1.615067e+14	1.285596e+04	4.137395e+03	2.753509e+03	0	7.997305e-04
1.240000e+09	1.125647e+13	0.000000e+00	5.288462e-01	2.361987e+14	4.964919e+14	1.608223e+14	1.283503e+04	4.134205e+03	2.751385e+03	0	7.955976e-04
1.250000e+09	1.108336e+13	0.000000e+00	5.288462e-01	2.337847e+14	4.924653e+14	1.601425e+14	1.281431e+04	4.131044e+03	2.749282e+03	0	7.914980e-04
1.260000e+09	1.091339e+13	0.000000e+00	5.288462e-01	2.314133e+14	4.885021e+14	1.594671e+14	1.279380e+04	4.127913e+03	2.747198e+03	0	7.874312e-04
1.270000e+09	1.074648e+13	0.000000e+00	5.288462e-01	2.290835e+14	4.846007e+14	1.587962e+14	1.277350e+04	4.124810e+03	2.745133e+03	0	7.833963e-04
1.280000e+09	1.058256e+13	0.000000e+00	5.288462e-01	2.267943e+14	4.807597e+14	1.581297e+14	1.275340e+04	4.121736e+03	2.743087e+03	0	7.793928e-04
1.290000e+09	1.042156e+13	0.000000e+00	5.288462e-01	2.245447e+14	4.769778e+14	1.574675e+14	1.273351e+04	4.118690e+03	2.741060e+03	0	7.754199e-04
1.300000e+09	1.026339e+13	0.000000e+00	5.288462e-01	2.223337e+14	4.732535e+14	1.568097e+14	1.271381e+04	4.115671e+03	2.739051e+03	0	7.714771e-04
1.310000e+09	1.010800e+13	0.000000e+00	5.288462e-01	2.201605e+14	4.695855e+14	1.561563e+14	1.269430e+04	4.112679e+03	2.737059e+03	0	7.675637e-04
1.320000e+09	9.955305e+12	0.000000e+00	5.288462e-01	2.180239e+14	4.659726e+14	1.555071e+14	1.267499e+04	4.109713e+03	2.735086e+03	0	7.636791e-04
1.330000e+09	9.805252e+12	0.000000e+00	5.288462e-01	2.159233e+14	4.624136e+14	1.548621e+14	1.265586e+04	4.106773e+03	2.733129e+03	0	7.598228e-04
1.340000e+09	9.657774e+12	0.000000e+00	5.288462e-01	2.138578e+14	4.589071e+14	1.542214e+14	1.263691e+04	4.103860e+03	2.731190e+03	0	7.559941e-04
1.350000e+09	9.512810e+12	0.000000e+00	5.288462e-01	2.118265e+14	4.554521e+14	1.535848e+14	1.261815e+04	4.100971e+03	2.729268e+03	0	7.521925e-04
1.360000e+09	9.370301e+12	0.000000e+00	5.288462e-01	2.098286e+14	4.520475e+14	1.529524e+14	1.259956e+04	4.098107e+03	2.727362e+03	0	7.484175e-04
