#t		Qconv[W]	Ri[Rp]		R*[Rp]		Qc[W]		Qm[W]		Qr[W]		Tcmb[K]		Tl[K]		Tup[K]		RiFlag		Bs[T]
0.000000e+00	5.312747e+14	0.000000e+00	5.288461e-01	6.919470e+15	1.917589e+15	3.111454e+14	2.560977e+04	4.474830e+03	2.955784e+03	0	2.870618e-03
1.000000e+07	4.907140e+14	0.000000e+00	5.288461e-01	6.402080e+15	2.358670e+15	3.094214e+14	2.506281e+04	4.629809e+03	3.058153e+03	0	2.795623e-03
2.000000e+07	4.541216e+14	0.000000e+00	5.288461e-01	5.935202e+15	2.750960e+15	3.077103e+14	2.455558e+04	4.755965e+03	3.141483e+03	0	2.724331e-03
3.000000e+07	4.210443e+14	0.000000e+00	5.288461e-01	5.513075e+15	3.077717e+15	3.060120e+14	2.408435e+04	4.856650e+03	3.207990e+03	0	2.656512e-03
4.000000e+07	3.911042e+14	0.000000e+00	5.288461e-01	5.130891e+15	3.332907e+15	3.043264e+14	2.364577e+04	4.935386e+03	3.259997e+03	0	2.591990e-03
5.000000e+07	3.639748e+14	0.000000e+00	5.288461e-01	4.784497e+15	3.518451e+15	3.026534e+14	2.323684e+04	4.995600e+03	3.299771e+03	0	2.530616e-03
6.000000e+07	3.393674e+14	0.000000e+00	5.288461e-01	4.470218e+15	3.641168e+15	3.009928e+14	2.285487e+04	5.040449e+03	3.329395e+03	0	2.472250e-03
7.000000e+07	3.170229e+14	0.000000e+00	5.288461e-01	4.184759e+15	3.710215e+15	2.993446e+14	2.249743e+04	5.072723e+03	3.350713e+03	0	2.416755e-03
8.000000e+07	2.967079e+14	0.000000e+00	5.288461e-01	3.925150e+15	3.735293e+15	2.977086e+14	2.216231e+04	5.094815e+03	3.365306e+03	0	2.363989e-03
9.000000e+07	2.782121e+14	0.000000e+00	5.288461e-01	3.688712e+15	3.725568e+15	2.960849e+14	2.184755e+04	5.108732e+03	3.374498e+03	0	2.313810e-03
1.000000e+08	2.613462e+14	0.000000e+00	5.288461e-01	3.473041e+15	3.689121e+15	2.944731e+14	2.155138e+04	5.116128e+03	3.379384e+03	0	2.266076e-03
1.100000e+08	2.459407e+14	0.000000e+00	5.288461e-01	3.275977e+15	3.632768e+15	2.928734e+14	2.127218e+04	5.118356e+03	3.380855e+03	0	2.220645e-03
1.200000e+08	2.318440e+14	0.000000e+00	5.288461e-01	3.095592e+15	3.562069e+15	2.912855e+14	2.100853e+04	5.116509e+03	3.379636e+03	0	2.177381e-03
1.300000e+08	2.189211e+14	0.000000e+00	5.288461e-01	2.930167e+15	3.481459e+15	2.897093e+14	2.075914e+04	5.111468e+03	3.376305e+03	0	2.136150e-03
1.400000e+08	2.070519e+14	0.000000e+00	5.288461e-01	2.778175e+15	3.394403e+15	2.881448e+14	2.052284e+04	5.103937e+03	3.371331e+03	0	2.096825e-03
1.500000e+08	1.961297e+14	0.000000e+00	5.288461e-01	2.638257e+15	3.303569e+15	2.865919e+14	2.029859e+04	5.094484e+03	3.365087e+03	0	2.059287e-03
1.600000e+08	1.860597e+14	0.000000e+00	5.288461e-01	2.509207e+15	3.210980e+15	2.850505e+14	2.008545e+04	5.083557e+03	3.357870e+03	0	2.023422e-03
1.700000e+08	1.767579e+14	0.000000e+00	5.288461e-01	2.389955e+15	3.118147e+15	2.835204e+14	1.988257e+04	5.071519e+03	3.349918e+03	0	1.989125e-03
1.800000e+08	1.681498e+14	0.000000e+00	5.288461e-01	2.279553e+15	3.026183e+15	2.820016e+14	1.968918e+04	5.058656e+03	3.341421e+03	0	1.956296e-03
1.900000e+08	1.601690e+14	0.000000e+00	5.288461e-01	2.177156e+15	2.935888e+15	2.804940e+14	1.950460e+04	5.045197e+03	3.332531e+03	0	1.924843e-03
2.000000e+08	1.527567e+14	0.000000e+00	5.288461e-01	2.082013e+15	2.847825e+15	2.789975e+14	1.932818e+04	5.031325e+03	3.323369e+03	0	1.894680e-03
2.100000e+08	1.458603e+14	0.000000e+00	5.288461e-01	1.993458e+15	2.762374e+15	2.775119e+14	1.915937e+04	5.017186e+03	3.314029e+03	0	1.865727e-03
2.200000e+08	1.394333e+14	0.000000e+00	5.288461e-01	1.910895e+15	2.679777e+15	2.760373e+14	1.899764e+04	5.002896e+03	3.304590e+03	0	1.837911e-03
2.300000e+08	1.334338e+14	0.000000e+00	5.288461e-01	1.833792e+15	2.600173e+15	2.745736e+14	1.884251e+04	4.988545e+03	3.295111e+03	0	1.811164e-03
2.400000e+08	1.278245e+14	0.000000e+00	5.288461e-01	1.761674e+15	2.523625e+15	2.731205e+14	1.869356e+04	4.974207e+03	3.285640e+03	0	1.785420e-03
2.500000e+08	1.225721e+14	0.000000e+00	5.288461e-01	1.694115e+15	2.450138e+15	2.716781e+14	1.855040e+04	4.959940e+03	3.276216e+03	0	1.760623e-03
2.600000e+08	1.176466e+14	0.000000e+00	5.288461e-01	1.630734e+15	2.379674e+15	2.702463e+14	1.841266e+04	4.945787e+03	3.266868e+03	0	1.736716e-03
2.700000e+08	1.130210e+14	0.000000e+00	5.288461e-01	1.571187e+15	2.312169e+15	2.688249e+14	1.828001e+04	4.931784e+03	3.257618e+03	0	1.713650e-03
2.800000e+08	1.086711e+14	0.000000e+00	5.288461e-01	1.515166e+15	2.247536e+15	2.674139e+14	1.815214e+04	4.917958e+03	3.248485e+03	0	1.691377e-03
2.900000e+08	1.045751e+14	0.000000e+00	5.288461e-01	1.462390e+15	2.185677e+15	2.660132e+14	1.802879e+04	4.904329e+03	3.239483e+03	0	1.669854e-03
3.000000e+08	1.007131e+14	0.000000e+00	5.288461e-01	1.412610e+15	2.126482e+15	2.646227e+14	1.790968e+04	4.890911e+03	3.230620e+03	0	1.649040e-03
3.100000e+08	9.706742e+13	0.000000e+00	5.288461e-01	1.365595e+15	2.069841e+15	2.632423e+14	1.779458e+04	4.877717e+03	3.221905e+03	0	1.628897e-03
3.200000e+08	9.362172e+13	0.000000e+00	5.288461e-01	1.321141e+15	2.015637e+15	2.618720e+14	1.768326e+04	4.864754e+03	3.213342e+03	0	1.609390e-03
3.300000e+08	9.036131e+13	0.000000e+00	5.288461e-01	1.279059e+15	1.963758e+15	2.605117e+14	1.757554e+04	4.852025e+03	3.204934e+03	0	1.590486e-03
3.400000e+08	8.727282e+13	0.000000e+00	5.288461e-01	1.239178e+15	1.914092e+15	2.591612e+14	1.747121e+04	4.839534e+03	3.196684e+03	0	1.572155e-03
3.500000e+08	8.434406e+13	0.000000e+00	5.288461e-01	1.201342e+15	1.866529e+15	2.578205e+14	1.737010e+04	4.827282e+03	3.188591e+03	0	1.554368e-03
3.600000e+08	8.156388e+13	0.000000e+00	5.288461e-01	1.165410e+15	1.820964e+15	2.564896e+14	1.727204e+04	4.815268e+03	3.180655e+03	0	1.537099e-03
3.700000e+08	7.892214e+13	0.000000e+00	5.288461e-01	1.131252e+15	1.777296e+15	2.551682e+14	1.717689e+04	4.803489e+03	3.172875e+03	0	1.520321e-03
3.800000e+08	7.640951e+13	0.000000e+00	5.288461e-01	1.098749e+15	1.735427e+15	2.538565e+14	1.708451e+04	4.791944e+03	3.165249e+03	0	1.504013e-03
3.900000e+08	7.401746e+13	0.000000e+00	5.288461e-01	1.067792e+15	1.695265e+15	2.525542e+14	1.699475e+04	4.780629e+03	3.157775e+03	0	1.488152e-03
4.000000e+08	7.173816e+13	0.000000e+00	5.288461e-01	1.038281e+15	1.656723e+15	2.512613e+14	1.690750e+04	4.769540e+03	3.150450e+03	0	1.472717e-03
4.100000e+08	6.956441e+13	0.000000e+00	5.288461e-01	1.010123e+15	1.619718e+15	2.499778e+14	1.682263e+04	4.758673e+03	3.143272e+03	0	1.457689e-03
4.200000e+08	6.748958e+13	0.000000e+00	5.288461e-01	9.832345e+14	1.584169e+15	2.487035e+14	1.674005e+04	4.748023e+03	3.136237e+03	0	1.443050e-03
4.300000e+08	6.550755e+13	0.000000e+00	5.288461e-01	9.575370e+14	1.550004e+15	2.474384e+14	1.665965e+04	4.737585e+03	3.129343e+03	0	1.428783e-03
4.400000e+08	6.361269e+13	0.000000e+00	5.288461e-01	9.329584e+14	1.517151e+15	2.461824e+14	1.658133e+04	4.727355e+03	3.122585e+03	0	1.414872e-03
4.500000e+08	6.179977e+13	0.000000e+00	5.288461e-01	9.094320e+14	1.485544e+15	2.449354e+14	1.650500e+04	4.717327e+03	3.115962e+03	0	1.401301e-03
4.600000e+08	6.006399e+13	0.000000e+00	5.288461e-01	8.868962e+14	1.455120e+15	2.436974e+14	1.643059e+04	4.707496e+03	3.109468e+03	0	1.388057e-03
4.700000e+08	5.840086e+13	0.000000e+00	5.288461e-01	8.652937e+14	1.425821e+15	2.424682e+14	1.635800e+04	4.697858e+03	3.103102e+03	0	1.375125e-03
4.800000e+08	5.680624e+13	0.000000e+00	5.288461e-01	8.445716e+14	1.397590e+15	2.412478e+14	1.628716e+04	4.688407e+03	3.096859e+03	0	1.362494e-03
4.900000e+08	5.527628e+13	0.000000e+00	5.288461e-01	8.246806e+14	1.370376e+15	2.400362e+14	1.621801e+04	4.679139e+03	3.090737e+03	0	1.350150e-03
5.000000e+08	5.380741e+13	0.000000e+00	5.288461e-01	8.055748e+14	1.344128e+15	2.388333e+14	1.615048e+04	4.670047e+03	3.084732e+03	0	1.338083e-03
5.100000e+08	5.239628e+13	0.000000e+00	5.288461e-01	7.872117e+14	1.318800e+15	2.376389e+14	1.608449e+04	4.661128e+03	3.078840e+03	0	1.326282e-03
5.200000e+08	5.103981e+13	0.000000e+00	5.288461e-01	7.695515e+14	1.294348e+15	2.364531e+14	1.602000e+04	4.652377e+03	3.073060e+03	0	1.314737e-03
5.300000e+08	4.973508e+13	0.000000e+00	5.288461e-01	7.525572e+14	1.270730e+15	2.352757e+14	1.595695e+04	4.643789e+03	3.067387e+03	0	1.303437e-03
5.400000e+08	4.847941e+13	0.000000e+00	5.288461e-01	7.361941e+14	1.247908e+15	2.341067e+14	1.589528e+04	4.635360e+03	3.061819e+03	0	1.292374e-03
5.500000e+08	4.727027e+13	0.000000e+00	5.288461e-01	7.204300e+14	1.225844e+15	2.329461e+14	1.583494e+04	4.627085e+03	3.056353e+03	0	1.281539e-03
5.600000e+08	4.610529e+13	0.000000e+00	5.288461e-01	7.052346e+14	1.204504e+15	2.317936e+14	1.577588e+04	4.618960e+03	3.050986e+03	0	1.270923e-03
5.700000e+08	4.498226e+13	0.000000e+00	5.288461e-01	6.905795e+14	1.183854e+15	2.306494e+14	1.571806e+04	4.610980e+03	3.045716e+03	0	1.260519e-03
5.800000e+08	4.389912e+13	0.000000e+00	5.288461e-01	6.764383e+14	1.163864e+15	2.295133e+14	1.566143e+04	4.603142e+03	3.040539e+03	0	1.250320e-03
5.900000e+08	4.285393e+13	0.000000e+00	5.288461e-01	6.627860e+14	1.144505e+15	2.283852e+14	1.560596e+04	4.595442e+03	3.035452e+03	0	1.240317e-03
6.000000e+08	4.184484e+13	0.000000e+00	5.288461e-01	6.495992e+14	1.125748e+15	2.272651e+14	1.555159e+04	4.587876e+03	3.030455e+03	0	1.230504e-03
6.100000e+08	4.087017e+13	0.000000e+00	5.288461e-01	6.368560e+14	1.107567e+15	2.261530e+14	1.549830e+04	4.580441e+03	3.025543e+03	0	1.220875e-03
6.200000e+08	3.992828e+13	0.000000e+00	5.288461e-01	6.245357e+14	1.089938e+15	2.250487e+14	1.544605e+04	4.573132e+03	3.020715e+03	0	1.211423e-03
6.300000e+08	3.901768e+13	0.000000e+00	5.288461e-01	6.126189e+14	1.072837e+15	2.239522e+14	1.539481e+04	4.565946e+03	3.015969e+03	0	1.202143e-03
6.400000e+08	3.813692e+13	0.000000e+00	5.288461e-01	6.010873e+14	1.056241e+15	2.228634e+14	1.534453e+04	4.558880e+03	3.011302e+03	0	1.193029e-03
6.500000e+08	3.728467e+13	0.000000e+00	5.288461e-01	5.899236e+14	1.040130e+15	2.217823e+14	1.529520e+04	4.551931e+03	3.006712e+03	0	1.184075e-03
6.600000e+08	3.645966e+13	0.000000e+00	5.288461e-01	5.791115e+14	1.024484e+15	2.207088e+14	1.524677e+04	4.545096e+03	3.002197e+03	0	1.175276e-03
6.700000e+08	3.566068e+13	0.000000e+00	5.288461e-01	5.686356e+14	1.009283e+15	2.196429e+14	1.519923e+04	4.538371e+03	2.997755e+03	0	1.166628e-03
6.800000e+08	3.488662e+13	0.000000e+00	5.288461e-01	5.584815e+14	9.945092e+14	2.185844e+14	1.515254e+04	4.531753e+03	2.993384e+03	0	1.158125e-03
6.900000e+08	3.413639e+13	0.000000e+00	5.288461e-01	5.486355e+14	9.801463e+14	2.175334e+14	1.510669e+04	4.525241e+03	2.989082e+03	0	1.149763e-03
7.000000e+08	3.340899e+13	0.000000e+00	5.288461e-01	5.390844e+14	9.661776e+14	2.164897e+14	1.506163e+04	4.518830e+03	2.984847e+03	0	1.141538e-03
7.100000e+08	3.270346e+13	0.000000e+00	5.288461e-01	5.298161e+14	9.525877e+14	2.154534e+14	1.501736e+04	4.512519e+03	2.980679e+03	0	1.133445e-03
7.200000e+08	3.201890e+13	0.000000e+00	5.288461e-01	5.208189e+14	9.393619e+14	2.144243e+14	1.497384e+04	4.506304e+03	2.976574e+03	0	1.125480e-03
7.300000e+08	3.135445e+13	0.000000e+00	5.288461e-01	5.120817e+14	9.264863e+14	2.134023e+14	1.493106e+04	4.500184e+03	2.972531e+03	0	1.117641e-03
7.400000e+08	3.070929e+13	0.000000e+00	5.288461e-01	5.035942e+14	9.139476e+14	2.123876e+14	1.488899e+04	4.494156e+03	2.968549e+03	0	1.109922e-03
7.500000e+08	3.008265e+13	0.000000e+00	5.288461e-01	4.953464e+14	9.017331e+14	2.113798e+14	1.484761e+04	4.488218e+03	2.964627e+03	0	1.102320e-03
7.600000e+08	2.947380e+13	0.000000e+00	5.288461e-01	4.873288e+14	8.898308e+14	2.103792e+14	1.480691e+04	4.482366e+03	2.960762e+03	0	1.094833e-03
7.700000e+08	2.888204e+13	0.000000e+00	5.288461e-01	4.795325e+14	8.782292e+14	2.093854e+14	1.476686e+04	4.476600e+03	2.956953e+03	0	1.087456e-03
7.800000e+08	2.830671e+13	0.000000e+00	5.288461e-01	4.719490e+14	8.669175e+14	2.083986e+14	1.472745e+04	4.470917e+03	2.953199e+03	0	1.080187e-03
7.900000e+08	2.774718e+13	0.000000e+00	5.288461e-01	4.645701e+14	8.558850e+14	2.074186e+14	1.468866e+04	4.465315e+03	2.949499e+03	0	1.073022e-03
8.000000e+08	2.720285e+13	0.000000e+00	5.288461e-01	4.573883e+14	8.451220e+14	2.064455e+14	1.465048e+04	4.459792e+03	2.945851e+03	0	1.065959e-03
8.100000e+08	2.667315e+13	0.000000e+00	5.288461e-01	4.503961e+14	8.346189e+14	2.054790e+14	1.461288e+04	4.454347e+03	2.942254e+03	0	1.058995e-03
8.200000e+08	2.615754e+13	0.000000e+00	5.288461e-01	4.435866e+14	8.243665e+14	2.045193e+14	1.457585e+04	4.448976e+03	2.938706e+03	0	1.052127e-03
8.300000e+08	2.565550e+13	0.000000e+00	5.288461e-01	4.369531e+14	8.143563e+14	2.035662e+14	1.453938e+04	4.443679e+03	2.935208e+03	0	1.045352e-03
8.400000e+08	2.516654e+13	0.000000e+00	5.288461e-01	4.304892e+14	8.045799e+14	2.026197e+14	1.450345e+04	4.438454e+03	2.931756e+03	0	1.038668e-03
8.500000e+08	2.469018e+13	0.000000e+00	5.288461e-01	4.241889e+14	7.950295e+14	2.016797e+14	1.446805e+04	4.433299e+03	2.928351e+03	0	1.032073e-03
8.600000e+08	2.422599e+13	0.000000e+00	5.288461e-01	4.180464e+14	7.856973e+14	2.007462e+14	1.443317e+04	4.428212e+03	2.924991e+03	0	1.025564e-03
8.700000e+08	2.377352e+13	0.000000e+00	5.288461e-01	4.120562e+14	7.765763e+14	1.998191e+14	1.439879e+04	4.423193e+03	2.921675e+03	0	1.019139e-03
8.800000e+08	2.333237e+13	0.000000e+00	5.288461e-01	4.062130e+14	7.676593e+14	1.988984e+14	1.436490e+04	4.418238e+03	2.918403e+03	0	1.012796e-03
8.900000e+08	2.290215e+13	0.000000e+00	5.288461e-01	4.005118e+14	7.589398e+14	1.979840e+14	1.433149e+04	4.413348e+03	2.915172e+03	0	1.006533e-03
9.000000e+08	2.248249e+13	0.000000e+00	5.288461e-01	3.949477e+14	7.504114e+14	1.970759e+14	1.429854e+04	4.408519e+03	2.911983e+03	0	1.000347e-03
9.100000e+08	2.207302e+13	0.000000e+00	5.288461e-01	3.895161e+14	7.420679e+14	1.961740e+14	1.426605e+04	4.403752e+03	2.908834e+03	0	9.942364e-04
9.200000e+08	2.167340e+13	0.000000e+00	5.288461e-01	3.842126e+14	7.339036e+14	1.952783e+14	1.423401e+04	4.399045e+03	2.905725e+03	0	9.881999e-04
9.300000e+08	2.128331e+13	0.000000e+00	5.288461e-01	3.790330e+14	7.259128e+14	1.943887e+14	1.420240e+04	4.394396e+03	2.902654e+03	0	9.822352e-04
9.400000e+08	2.090243e+13	0.000000e+00	5.288461e-01	3.739732e+14	7.180900e+14	1.935052e+14	1.417121e+04	4.389804e+03	2.899621e+03	0	9.763407e-04
9.500000e+08	2.053047e+13	0.000000e+00	5.288461e-01	3.690293e+14	7.104301e+14	1.926278e+14	1.414044e+04	4.385268e+03	2.896625e+03	0	9.705145e-04
9.600000e+08	2.016712e+13	0.000000e+00	5.288461e-01	3.641977e+14	7.029282e+14	1.917563e+14	1.411007e+04	4.380786e+03	2.893665e+03	0	9.647551e-04
9.700000e+08	1.981212e+13	0.000000e+00	5.288461e-01	3.594747e+14	6.955794e+14	1.908907e+14	1.408010e+04	4.376358e+03	2.890740e+03	0	9.590607e-04
9.800000e+08	1.946520e+13	0.000000e+00	5.288461e-01	3.548570e+14	6.883792e+14	1.900311e+14	1.405051e+04	4.371983e+03	2.887850e+03	0	9.534299e-04
9.900000e+08	1.912611e+13	0.000000e+00	5.288461e-01	3.503411e+14	6.813232e+14	1.891772e+14	1.402131e+04	4.367658e+03	2.884993e+03	0	9.478610e-04
1.000000e+09	1.879460e+13	0.000000e+00	5.288461e-01	3.459241e+14	6.744071e+14	1.883292e+14	1.399247e+04	4.363384e+03	2.882170e+03	0	9.423527e-04
1.010000e+09	1.847044e+13	0.000000e+00	5.288461e-01	3.416028e+14	6.676268e+14	1.874870e+14	1.396400e+04	4.359159e+03	2.879379e+03	0	9.369035e-04
1.020000e+09	1.815340e+13	0.000000e+00	5.288461e-01	3.373744e+14	6.609783e+14	1.866504e+14	1.393588e+04	4.354982e+03	2.876620e+03	0	9.315119e-04
1.030000e+09	1.784326e+13	0.000000e+00	5.288461e-01	3.332360e+14	6.544580e+14	1.858195e+14	1.390811e+04	4.350853e+03	2.873892e+03	0	9.261767e-04
1.040000e+09	1.753982e+13	0.000000e+00	5.288461e-01	3.291849e+14	6.480622e+14	1.849942e+14	1.388067e+04	4.346769e+03	2.871195e+03	0	9.208966e-04
1.050000e+09	1.724288e+13	0.000000e+00	5.288461e-01	3.252187e+14	6.417874e+14	1.841745e+14	1.385357e+04	4.342731e+03	2.868527e+03	0	9.156702e-04
1.060000e+09	1.695225e+13	0.000000e+00	5.288461e-01	3.213347e+14	6.356301e+14	1.833603e+14	1.382679e+04	4.338737e+03	2.865889e+03	0	9.104963e-04
1.070000e+09	1.666773e+13	0.000000e+00	5.288461e-01	3.175305e+14	6.295872e+14	1.825516e+14	1.380034e+04	4.334786e+03	2.863280e+03	0	9.053738e-04
1.080000e+09	1.638915e+13	0.000000e+00	5.288461e-01	3.138040e+14	6.236555e+14	1.817483e+14	1.377419e+04	4.330879e+03	2.860699e+03	0	9.003014e-04
1.090000e+09	1.611634e+13	0.000000e+00	5.288461e-01	3.101528e+14	6.178319e+14	1.809505e+14	1.374835e+04	4.327013e+03	2.858145e+03	0	8.952781e-04
1.100000e+09	1.584914e+13	0.000000e+00	5.288461e-01	3.065748e+14	6.121137e+14	1.801580e+14	1.372281e+04	4.323188e+03	2.855619e+03	0	8.903026e-04
1.110000e+09	1.558738e+13	0.000000e+00	5.288461e-01	3.030680e+14	6.064978e+14	1.793708e+14	1.369756e+04	4.319403e+03	2.853119e+03	0	8.853741e-04
1.120000e+09	1.533091e+13	0.000000e+00	5.288461e-01	2.996303e+14	6.009817e+14	1.785889e+14	1.367260e+04	4.315657e+03	2.850645e+03	0	8.804913e-04
1.130000e+09	1.507958e+13	0.000000e+00	5.288461e-01	2.962598e+14	5.955626e+14	1.778122e+14	1.364792e+04	4.311951e+03	2.848196e+03	0	8.756533e-04
1.140000e+09	1.483325e+13	0.000000e+00	5.288461e-01	2.929548e+14	5.902381e+14	1.770407e+14	1.362352e+04	4.308282e+03	2.845773e+03	0	8.708591e-04
1.150000e+09	1.459179e+13	0.000000e+00	5.288461e-01	2.897133e+14	5.850058e+14	1.762744e+14	1.359939e+04	4.304651e+03	2.843374e+03	0	8.661078e-04
1.160000e+09	1.435505e+13	0.000000e+00	5.288461e-01	2.865338e+14	5.798631e+14	1.755132e+14	1.357553e+04	4.301056e+03	2.841000e+03	0	8.613983e-04
1.170000e+09	1.412292e+13	0.000000e+00	5.288461e-01	2.834144e+14	5.748080e+14	1.747570e+14	1.355192e+04	4.297497e+03	2.838649e+03	0	8.567299e-04
1.180000e+09	1.389526e+13	0.000000e+00	5.288461e-01	2.803537e+14	5.698381e+14	1.740059e+14	1.352858e+04	4.293973e+03	2.836321e+03	0	8.521015e-04
1.190000e+09	1.367196e+13	0.000000e+00	5.288461e-01	2.773501e+14	5.649513e+14	1.732597e+14	1.350548e+04	4.290484e+03	2.834017e+03	0	8.475123e-04
1.200000e+09	1.345290e+13	0.000000e+00	5.288461e-01	2.744020e+14	5.601455e+14	1.725186e+14	1.348263e+04	4.287029e+03	2.831735e+03	0	8.429615e-04
1.210000e+09	1.323797e+13	0.000000e+00	5.288461e-01	2.715081e+14	5.554188e+14	1.717823e+14	1.346002e+04	4.283607e+03	2.829474e+03	0	8.384482e-04
1.220000e+09	1.302706e+13	0.000000e+00	5.288461e-01	2.686668e+14	5.507692e+14	1.710509e+14	1.343766e+04	4.280218e+03	2.827236e+03	0	8.339716e-04
1.230000e+09	1.282007e+13	0.000000e+00	5.288461e-01	2.658770e+14	5.461949e+14	1.703244e+14	1.341552e+04	4.276862e+03	2.825019e+03	0	8.295310e-04
1.240000e+09	1.261690e+13	0.000000e+00	5.288461e-01	2.631372e+14	5.416939e+14	1.696026e+14	1.339361e+04	4.273537e+03	2.822822e+03	0	8.251255e-04
1.250000e+09	1.241745e+13	0.000000e+00	5.288461e-01	2.604462e+14	5.372647e+14	1.688857e+14	1.337193e+04	4.270243e+03	2.820646e+03	0	8.207545e-04
1.260000e+09	1.222163e+13	0.000000e+00	5.288461e-01	2.578028e+14	5.329054e+14	1.681734e+14	1.335047e+04	4.266979e+03	2.818491e+03	0	8.164171e-04
1.270000e+09	1.202933e+13	0.000000e+00	5.288461e-01	2.552058e+14	5.286144e+14	1.674659e+14	1.332922e+04	4.263746e+03	2.816355e+03	0	8.121127e-04
1.280000e+09	1.184049e+13	0.000000e+00	5.288461e-01	2.526541e+14	5.243902e+14	1.667629e+14	1.330819e+04	4.260542e+03	2.814239e+03	0	8.078405e-04
1.290000e+09	1.165500e+13	0.000000e+00	5.288461e-01	2.501464e+14	5.202311e+14	1.660647e+14	1.328737e+04	4.257367e+03	2.812142e+03	0	8.035999e-04
1.300000e+09	1.147279e+13	0.000000e+00	5.288461e-01	2.476818e+14	5.161357e+14	1.653710e+14	1.326675e+04	4.254220e+03	2.810063e+03	0	7.993902e-04
1.310000e+09	1.129378e+13	0.000000e+00	5.288461e-01	2.452593e+14	5.121026e+14	1.646818e+14	1.324634e+04	4.251102e+03	2.808004e+03	0	7.952107e-04
1.320000e+09	1.111789e+13	0.000000e+00	5.288461e-01	2.428777e+14	5.081302e+14	1.639972e+14	1.322613e+04	4.248011e+03	2.805962e+03	0	7.910609e-04
1.330000e+09	1.094504e+13	0.000000e+00	5.288461e-01	2.405362e+14	5.042173e+14	1.633170e+14	1.320611e+04	4.244948e+03	2.803938e+03	0	7.869400e-04
1.340000e+09	1.077517e+13	0.000000e+00	5.288461e-01	2.382338e+14	5.003625e+14	1.626413e+14	1.318628e+04	4.241911e+03	2.801933e+03	0	7.828474e-04
1.350000e+09	1.060819e+13	0.000000e+00	5.288461e-01	2.359695e+14	4.965645e+14	1.619700e+14	1.316664e+04	4.238900e+03	2.799944e+03	0	7.787826e-04
1.360000e+09	1.044405e+13	0.000000e+00	5.288461e-01	2.337424e+14	4.928221e+14	1.613030e+14	1.314719e+04	4.235916e+03	2.797972e+03	0	7.747449e-04
