#t		Qconv[W]	Ri[Rp]		R*[Rp]		Qc[W]		Qm[W]		Qr[W]		Tcmb[K]		Tl[K]		Tup[K]		RiFlag		Bs[T]
0.000000e+00	5.804254e+14	0.000000e+00	5.288461e-01	7.392146e+15	1.901551e+15	3.221398e+14	2.634621e+04	4.527166e+03	2.974481e+03	0	2.953252e-03
1.000000e+07	5.365726e+14	0.000000e+00	5.288461e-01	6.845556e+15	2.370303e+15	3.203549e+14	2.578541e+04	4.691652e+03	3.082553e+03	0	2.876920e-03
2.000000e+07	4.969442e+14	0.000000e+00	5.288461e-01	6.351503e+15	2.794996e+15	3.185833e+14	2.526490e+04	4.826455e+03	3.171122e+03	0	2.804277e-03
3.000000e+07	4.610609e+14	0.000000e+00	5.288461e-01	5.904038e+15	3.155277e+15	3.168250e+14	2.478095e+04	4.934791e+03	3.242303e+03	0	2.735087e-03
4.000000e+07	4.285262e+14	0.000000e+00	5.288461e-01	5.498229e+15	3.442212e+15	3.150798e+14	2.433021e+04	5.020138e+03	3.298378e+03	0	2.669177e-03
5.000000e+07	3.989989e+14	0.000000e+00	5.288461e-01	5.129836e+15	3.655822e+15	3.133477e+14	2.390970e+04	5.085949e+03	3.341618e+03	0	2.606407e-03
6.000000e+07	3.721772e+14	0.000000e+00	5.288461e-01	4.795109e+15	3.801974e+15	3.116284e+14	2.351670e+04	5.135457e+03	3.374146e+03	0	2.546644e-03
7.000000e+07	3.477902e+14	0.000000e+00	5.288461e-01	4.490677e+15	3.889601e+15	3.099220e+14	2.314876e+04	5.171553e+03	3.397863e+03	0	2.489760e-03
8.000000e+07	3.255926e+14	0.000000e+00	5.288461e-01	4.213491e+15	3.928654e+15	3.082282e+14	2.280368e+04	5.196741e+03	3.414411e+03	0	2.435622e-03
9.000000e+07	3.053623e+14	0.000000e+00	5.288461e-01	3.960790e+15	3.928806e+15	3.065471e+14	2.247945e+04	5.213134e+03	3.425182e+03	0	2.384094e-03
1.000000e+08	2.868986e+14	0.000000e+00	5.288461e-01	3.730080e+15	3.898751e+15	3.048784e+14	2.217429e+04	5.222490e+03	3.431329e+03	0	2.335041e-03
1.100000e+08	2.700209e+14	0.000000e+00	5.288461e-01	3.519114e+15	3.845924e+15	3.032221e+14	2.188655e+04	5.226248e+03	3.433799e+03	0	2.288324e-03
1.200000e+08	2.545672e+14	0.000000e+00	5.288461e-01	3.325878e+15	3.776458e+15	3.015781e+14	2.161479e+04	5.225578e+03	3.433359e+03	0	2.243809e-03
1.300000e+08	2.403924e+14	0.000000e+00	5.288461e-01	3.148569e+15	3.695283e+15	2.999462e+14	2.135767e+04	5.221425e+03	3.430630e+03	0	2.201364e-03
1.400000e+08	2.273672e+14	0.000000e+00	5.288461e-01	2.985578e+15	3.606288e+15	2.983265e+14	2.111403e+04	5.214548e+03	3.426111e+03	0	2.160865e-03
1.500000e+08	2.153763e+14	0.000000e+00	5.288461e-01	2.835472e+15	3.512486e+15	2.967187e+14	2.088279e+04	5.205556e+03	3.420203e+03	0	2.122190e-03
1.600000e+08	2.043173e+14	0.000000e+00	5.288461e-01	2.696977e+15	3.416177e+15	2.951228e+14	2.066298e+04	5.194936e+03	3.413226e+03	0	2.085227e-03
1.700000e+08	1.940989e+14	0.000000e+00	5.288461e-01	2.568958e+15	3.319094e+15	2.935386e+14	2.045374e+04	5.183079e+03	3.405435e+03	0	2.049868e-03
1.800000e+08	1.846400e+14	0.000000e+00	5.288461e-01	2.450407e+15	3.222522e+15	2.919662e+14	2.025428e+04	5.170295e+03	3.397036e+03	0	2.016014e-03
1.900000e+08	1.758686e+14	0.000000e+00	5.288461e-01	2.340427e+15	3.127396e+15	2.904053e+14	2.006389e+04	5.156834e+03	3.388191e+03	0	1.983571e-03
2.000000e+08	1.677205e+14	0.000000e+00	5.288461e-01	2.238219e+15	3.034381e+15	2.888559e+14	1.988191e+04	5.142893e+03	3.379032e+03	0	1.952452e-03
2.100000e+08	1.601384e+14	0.000000e+00	5.288461e-01	2.143071e+15	2.943938e+15	2.873179e+14	1.970777e+04	5.128633e+03	3.369663e+03	0	1.922576e-03
2.200000e+08	1.530712e+14	0.000000e+00	5.288461e-01	2.054348e+15	2.856367e+15	2.857912e+14	1.954094e+04	5.114178e+03	3.360165e+03	0	1.893867e-03
2.300000e+08	1.464734e+14	0.000000e+00	5.288461e-01	1.971482e+15	2.771852e+15	2.842757e+14	1.938091e+04	5.099630e+03	3.350607e+03	0	1.866256e-03
2.400000e+08	1.403042e+14	0.000000e+00	5.288461e-01	1.893964e+15	2.690485e+15	2.827713e+14	1.922726e+04	5.085068e+03	3.341039e+03	0	1.839678e-03
2.500000e+08	1.345269e+14	0.000000e+00	5.288461e-01	1.821341e+15	2.612296e+15	2.812779e+14	1.907957e+04	5.070555e+03	3.331503e+03	0	1.814073e-03
2.600000e+08	1.291089e+14	0.000000e+00	5.288461e-01	1.753202e+15	2.537263e+15	2.797955e+14	1.893748e+04	5.056140e+03	3.322032e+03	0	1.789384e-03
2.700000e+08	1.240204e+14	0.000000e+00	5.288461e-01	1.689181e+15	2.465330e+15	2.783239e+14	1.880064e+04	5.041863e+03	3.312652e+03	0	1.765561e-03
2.800000e+08	1.192350e+14	0.000000e+00	5.288461e-01	1.628946e+15	2.396418e+15	2.768630e+14	1.866873e+04	5.027753e+03	3.303381e+03	0	1.742554e-03
2.900000e+08	1.147287e+14	0.000000e+00	5.288461e-01	1.572198e+15	2.330429e+15	2.754128e+14	1.854148e+04	5.013833e+03	3.294236e+03	0	1.720319e-03
3.000000e+08	1.104798e+14	0.000000e+00	5.288461e-01	1.518668e+15	2.267257e+15	2.739732e+14	1.841860e+04	5.000121e+03	3.285226e+03	0	1.698814e-03
3.100000e+08	1.064686e+14	0.000000e+00	5.288461e-01	1.468111e+15	2.206787e+15	2.725441e+14	1.829987e+04	4.986629e+03	3.276362e+03	0	1.678001e-03
3.200000e+08	1.026775e+14	0.000000e+00	5.288461e-01	1.420304e+15	2.148903e+15	2.711253e+14	1.818504e+04	4.973366e+03	3.267648e+03	0	1.657843e-03
3.300000e+08	9.909013e+13	0.000000e+00	5.288461e-01	1.375047e+15	2.093486e+15	2.697169e+14	1.807392e+04	4.960338e+03	3.259088e+03	0	1.638306e-03
3.400000e+08	9.569190e+13	0.000000e+00	5.288461e-01	1.332157e+15	2.040421e+15	2.683187e+14	1.796629e+04	4.947548e+03	3.250685e+03	0	1.619360e-03
3.500000e+08	9.246938e+13	0.000000e+00	5.288461e-01	1.291465e+15	1.989593e+15	2.669307e+14	1.786200e+04	4.934998e+03	3.242439e+03	0	1.600974e-03
3.600000e+08	8.941036e+13	0.000000e+00	5.288461e-01	1.252820e+15	1.940892e+15	2.655527e+14	1.776085e+04	4.922689e+03	3.234351e+03	0	1.583122e-03
3.700000e+08	8.650363e+13	0.000000e+00	5.288461e-01	1.216083e+15	1.894212e+15	2.641847e+14	1.766270e+04	4.910617e+03	3.226420e+03	0	1.565777e-03
3.800000e+08	8.373898e+13	0.000000e+00	5.288461e-01	1.181124e+15	1.849451e+15	2.628266e+14	1.756741e+04	4.898782e+03	3.218644e+03	0	1.548915e-03
3.900000e+08	8.110702e+13	0.000000e+00	5.288461e-01	1.147828e+15	1.806511e+15	2.614783e+14	1.747482e+04	4.887180e+03	3.211021e+03	0	1.532514e-03
4.000000e+08	7.859914e+13	0.000000e+00	5.288461e-01	1.116087e+15	1.765299e+15	2.601397e+14	1.738482e+04	4.875808e+03	3.203549e+03	0	1.516553e-03
4.100000e+08	7.620741e+13	0.000000e+00	5.288461e-01	1.085801e+15	1.725727e+15	2.588108e+14	1.729729e+04	4.864662e+03	3.196226e+03	0	1.501012e-03
4.200000e+08	7.392454e+13	0.000000e+00	5.288461e-01	1.056881e+15	1.687711e+15	2.574915e+14	1.721212e+04	4.853736e+03	3.189047e+03	0	1.485871e-03
4.300000e+08	7.174380e+13	0.000000e+00	5.288461e-01	1.029242e+15	1.651173e+15	2.561817e+14	1.712919e+04	4.843027e+03	3.182011e+03	0	1.471114e-03
4.400000e+08	6.965900e+13	0.000000e+00	5.288461e-01	1.002805e+15	1.616037e+15	2.548813e+14	1.704841e+04	4.832529e+03	3.175114e+03	0	1.456724e-03
4.500000e+08	6.766440e+13	0.000000e+00	5.288461e-01	9.775011e+14	1.582233e+15	2.535902e+14	1.696969e+04	4.822238e+03	3.168352e+03	0	1.442686e-03
4.600000e+08	6.575468e+13	0.000000e+00	5.288461e-01	9.532621e+14	1.549695e+15	2.523084e+14	1.689294e+04	4.812148e+03	3.161723e+03	0	1.428984e-03
4.700000e+08	6.392493e+13	0.000000e+00	5.288461e-01	9.300272e+14	1.518358e+15	2.510359e+14	1.681807e+04	4.802254e+03	3.155222e+03	0	1.415604e-03
4.800000e+08	6.217059e+13	0.000000e+00	5.288461e-01	9.077391e+14	1.488165e+15	2.497724e+14	1.674502e+04	4.792552e+03	3.148848e+03	0	1.402534e-03
4.900000e+08	6.048742e+13	0.000000e+00	5.288461e-01	8.863451e+14	1.459058e+15	2.485180e+14	1.667370e+04	4.783036e+03	3.142595e+03	0	1.389761e-03
5.000000e+08	5.887149e+13	0.000000e+00	5.288461e-01	8.657957e+14	1.430985e+15	2.472725e+14	1.660405e+04	4.773702e+03	3.136462e+03	0	1.377273e-03
5.100000e+08	5.731911e+13	0.000000e+00	5.288461e-01	8.460452e+14	1.403897e+15	2.460359e+14	1.653601e+04	4.764544e+03	3.130445e+03	0	1.365059e-03
5.200000e+08	5.582689e+13	0.000000e+00	5.288461e-01	8.270509e+14	1.377746e+15	2.448082e+14	1.646950e+04	4.755557e+03	3.124541e+03	0	1.353109e-03
5.300000e+08	5.439163e+13	0.000000e+00	5.288461e-01	8.087729e+14	1.352488e+15	2.435892e+14	1.640448e+04	4.746737e+03	3.118746e+03	0	1.341413e-03
5.400000e+08	5.301036e+13	0.000000e+00	5.288461e-01	7.911739e+14	1.328081e+15	2.423789e+14	1.634088e+04	4.738080e+03	3.113058e+03	0	1.329960e-03
5.500000e+08	5.168031e+13	0.000000e+00	5.288461e-01	7.742193e+14	1.304486e+15	2.411773e+14	1.627866e+04	4.729581e+03	3.107474e+03	0	1.318743e-03
5.600000e+08	5.039887e+13	0.000000e+00	5.288461e-01	7.578764e+14	1.281665e+15	2.399841e+14	1.621776e+04	4.721235e+03	3.101990e+03	0	1.307752e-03
5.700000e+08	4.916360e+13	0.000000e+00	5.288461e-01	7.421148e+14	1.259584e+15	2.387994e+14	1.615813e+04	4.713039e+03	3.096605e+03	0	1.296979e-03
5.800000e+08	4.797224e+13	0.000000e+00	5.288461e-01	7.269060e+14	1.238209e+15	2.376232e+14	1.609974e+04	4.704988e+03	3.091315e+03	0	1.286417e-03
5.900000e+08	4.682264e+13	0.000000e+00	5.288461e-01	7.122231e+14	1.217509e+15	2.364553e+14	1.604254e+04	4.697077e+03	3.086118e+03	0	1.276058e-03
6.000000e+08	4.571279e+13	0.000000e+00	5.288461e-01	6.980411e+14	1.197454e+15	2.352956e+14	1.598649e+04	4.689305e+03	3.081011e+03	0	1.265895e-03
6.100000e+08	4.464081e+13	0.000000e+00	5.288461e-01	6.843363e+14	1.178016e+15	2.341441e+14	1.593154e+04	4.681666e+03	3.075992e+03	0	1.255921e-03
6.200000e+08	4.360492e+13	0.000000e+00	5.288461e-01	6.710864e+14	1.159168e+15	2.330008e+14	1.587766e+04	4.674157e+03	3.071058e+03	0	1.246130e-03
6.300000e+08	4.260346e+13	0.000000e+00	5.288461e-01	6.582706e+14	1.140885e+15	2.318656e+14	1.582483e+04	4.666774e+03	3.066208e+03	0	1.236517e-03
6.400000e+08	4.163485e+13	0.000000e+00	5.288461e-01	6.458691e+14	1.123144e+15	2.307383e+14	1.577299e+04	4.659514e+03	3.061438e+03	0	1.227074e-03
6.500000e+08	4.069762e+13	0.000000e+00	5.288461e-01	6.338635e+14	1.105922e+15	2.296190e+14	1.572212e+04	4.652374e+03	3.056746e+03	0	1.217796e-03
6.600000e+08	3.979036e+13	0.000000e+00	5.288461e-01	6.222361e+14	1.089197e+15	2.285076e+14	1.567220e+04	4.645350e+03	3.052132e+03	0	1.208679e-03
6.700000e+08	3.891177e+13	0.000000e+00	5.288461e-01	6.109704e+14	1.072949e+15	2.274040e+14	1.562318e+04	4.638440e+03	3.047592e+03	0	1.199717e-03
6.800000e+08	3.806058e+13	0.000000e+00	5.288461e-01	6.000509e+14	1.057159e+15	2.263082e+14	1.557505e+04	4.631640e+03	3.043124e+03	0	1.190904e-03
6.900000e+08	3.723564e+13	0.000000e+00	5.288461e-01	5.894627e+14	1.041808e+15	2.252200e+14	1.552777e+04	4.624948e+03	3.038727e+03	0	1.182237e-03
7.000000e+08	3.643581e+13	0.000000e+00	5.288461e-01	5.791918e+14	1.026880e+15	2.241394e+14	1.548132e+04	4.618361e+03	3.034399e+03	0	1.173711e-03
7.100000e+08	3.566006e+13	0.000000e+00	5.288461e-01	5.692252e+14	1.012357e+15	2.230665e+14	1.543568e+04	4.611875e+03	3.030137e+03	0	1.165321e-03
7.200000e+08	3.490738e+13	0.000000e+00	5.288461e-01	5.595502e+14	9.982236e+14	2.220010e+14	1.539082e+04	4.605489e+03	3.025941e+03	0	1.157064e-03
7.300000e+08	3.417683e+13	0.000000e+00	5.288461e-01	5.501549e+14	9.844653e+14	2.209430e+14	1.534671e+04	4.599199e+03	3.021809e+03	0	1.148935e-03
7.400000e+08	3.346751e+13	0.000000e+00	5.288461e-01	5.410282e+14	9.710678e+14	2.198923e+14	1.530334e+04	4.593004e+03	3.017739e+03	0	1.140931e-03
7.500000e+08	3.277858e+13	0.000000e+00	5.288461e-01	5.321593e+14	9.580175e+14	2.188490e+14	1.526069e+04	4.586901e+03	3.013729e+03	0	1.133048e-03
7.600000e+08	3.210922e+13	0.000000e+00	5.288461e-01	5.235381e+14	9.453013e+14	2.178129e+14	1.521873e+04	4.580887e+03	3.009778e+03	0	1.125283e-03
7.700000e+08	3.145867e+13	0.000000e+00	5.288461e-01	5.151550e+14	9.329072e+14	2.167841e+14	1.517745e+04	4.574961e+03	3.005884e+03	0	1.117631e-03
7.800000e+08	3.082619e+13	0.000000e+00	5.288461e-01	5.070008e+14	9.208232e+14	2.157624e+14	1.513682e+04	4.569121e+03	3.002046e+03	0	1.110090e-03
7.900000e+08	3.021111e+13	0.000000e+00	5.288461e-01	4.990667e+14	9.090384e+14	2.147478e+14	1.509684e+04	4.563363e+03	2.998264e+03	0	1.102657e-03
8.000000e+08	2.961275e+13	0.000000e+00	5.288461e-01	4.913446e+14	8.975419e+14	2.137403e+14	1.505748e+04	4.557687e+03	2.994534e+03	0	1.095329e-03
8.100000e+08	2.903049e+13	0.000000e+00	5.288461e-01	4.838264e+14	8.863237e+14	2.127397e+14	1.501872e+04	4.552090e+03	2.990857e+03	0	1.088102e-03
8.200000e+08	2.846374e+13	0.000000e+00	5.288461e-01	4.765047e+14	8.753739e+14	2.117460e+14	1.498055e+04	4.546570e+03	2.987230e+03	0	1.080975e-03
8.300000e+08	2.791191e+13	0.000000e+00	5.288461e-01	4.693724e+14	8.646834e+14	2.107592e+14	1.494296e+04	4.541125e+03	2.983653e+03	0	1.073944e-03
8.400000e+08	2.737448e+13	0.000000e+00	5.288461e-01	4.624226e+14	8.542431e+14	2.097793e+14	1.490593e+04	4.535755e+03	2.980124e+03	0	1.067006e-03
8.500000e+08	2.685092e+13	0.000000e+00	5.288461e-01	4.556487e+14	8.440447e+14	2.088061e+14	1.486944e+04	4.530456e+03	2.976643e+03	0	1.060160e-03
8.600000e+08	2.634073e+13	0.000000e+00	5.288461e-01	4.490445e+14	8.340800e+14	2.078396e+14	1.483349e+04	4.525228e+03	2.973208e+03	0	1.053402e-03
8.700000e+08	2.584346e+13	0.000000e+00	5.288461e-01	4.426042e+14	8.243412e+14	2.068797e+14	1.479805e+04	4.520068e+03	2.969818e+03	0	1.046731e-03
8.800000e+08	2.535863e+13	0.000000e+00	5.288461e-01	4.363220e+14	8.148209e+14	2.059265e+14	1.476312e+04	4.514976e+03	2.966472e+03	0	1.040144e-03
8.900000e+08	2.488583e+13	0.000000e+00	5.288461e-01	4.301924e+14	8.055119e+14	2.049798e+14	1.472869e+04	4.509949e+03	2.963169e+03	0	1.033639e-03
9.000000e+08	2.442464e+13	0.000000e+00	5.288461e-01	4.242104e+14	7.964074e+14	2.040396e+14	1.469473e+04	4.504986e+03	2.959908e+03	0	1.027214e-03
9.100000e+08	2.397467e+13	0.000000e+00	5.288461e-01	4.183710e+14	7.875009e+14	2.031058e+14	1.466125e+04	4.500086e+03	2.956689e+03	0	1.020867e-03
9.200000e+08	2.353554e+13	0.000000e+00	5.288461e-01	4.126693e+14	7.787861e+14	2.021785e+14	1.462822e+04	4.495247e+03	2.953510e+03	0	1.014596e-03
9.300000e+08	2.310689e+13	0.000000e+00	5.288461e-01	4.071008e+14	7.702570e+14	2.012575e+14	1.459564e+04	4.490469e+03	2.950370e+03	0	1.008398e-03
9.400000e+08	2.268838e+13	0.000000e+00	5.288461e-01	4.016613e+14	7.619077e+14	2.003428e+14	1.456350e+04	4.485749e+03	2.947269e+03	0	1.002273e-03
9.500000e+08	2.227966e+13	0.000000e+00	5.288461e-01	3.963464e+14	7.537328e+14	1.994343e+14	1.453179e+04	4.481086e+03	2.944205e+03	0	9.962184e-04
9.600000e+08	2.188044e+13	0.000000e+00	5.288461e-01	3.911522e+14	7.457269e+14	1.985320e+14	1.450049e+04	4.476479e+03	2.941178e+03	0	9.902321e-04
9.700000e+08	2.149039e+13	0.000000e+00	5.288461e-01	3.860749e+14	7.378848e+14	1.976359e+14	1.446960e+04	4.471928e+03	2.938188e+03	0	9.843127e-04
9.800000e+08	2.110924e+13	0.000000e+00	5.288461e-01	3.811108e+14	7.302018e+14	1.967458e+14	1.443912e+04	4.467430e+03	2.935233e+03	0	9.784587e-04
9.900000e+08	2.073669e+13	0.000000e+00	5.288461e-01	3.762563e+14	7.226730e+14	1.958619e+14	1.440902e+04	4.462985e+03	2.932312e+03	0	9.726684e-04
1.000000e+09	2.037248e+13	0.000000e+00	5.288461e-01	3.715081e+14	7.152939e+14	1.949839e+14	1.437930e+04	4.458591e+03	2.929426e+03	0	9.669403e-04
1.010000e+09	2.001636e+13	0.000000e+00	5.288461e-01	3.668628e+14	7.080601e+14	1.941118e+14	1.434996e+04	4.454248e+03	2.926572e+03	0	9.612729e-04
1.020000e+09	1.966807e+13	0.000000e+00	5.288461e-01	3.623174e+14	7.009674e+14	1.932457e+14	1.432098e+04	4.449955e+03	2.923751e+03	0	9.556647e-04
1.030000e+09	1.932737e+13	0.000000e+00	5.288461e-01	3.578689e+14	6.940118e+14	1.923855e+14	1.429236e+04	4.445710e+03	2.920962e+03	0	9.501145e-04
1.040000e+09	1.899405e+13	0.000000e+00	5.288461e-01	3.535143e+14	6.871894e+14	1.915310e+14	1.426409e+04	4.441512e+03	2.918204e+03	0	9.446208e-04
1.050000e+09	1.866787e+13	0.000000e+00	5.288461e-01	3.492508e+14	6.804964e+14	1.906823e+14	1.423616e+04	4.437361e+03	2.915477e+03	0	9.391823e-04
1.060000e+09	1.834862e+13	0.000000e+00	5.288461e-01	3.450759e+14	6.739292e+14	1.898394e+14	1.420857e+04	4.433256e+03	2.912779e+03	0	9.337977e-04
1.070000e+09	1.803610e+13	0.000000e+00	5.288461e-01	3.409868e+14	6.674843e+14	1.890021e+14	1.418131e+04	4.429195e+03	2.910111e+03	0	9.284657e-04
1.080000e+09	1.773012e+13	0.000000e+00	5.288461e-01	3.369812e+14	6.611583e+14	1.881705e+14	1.415437e+04	4.425178e+03	2.907472e+03	0	9.231853e-04
1.090000e+09	1.743048e+13	0.000000e+00	5.288461e-01	3.330566e+14	6.549481e+14	1.873444e+14	1.412774e+04	4.421204e+03	2.904861e+03	0	9.179551e-04
1.100000e+09	1.713701e+13	0.000000e+00	5.288461e-01	3.292108e+14	6.488505e+14	1.865239e+14	1.410142e+04	4.417272e+03	2.902278e+03	0	9.127741e-04
1.110000e+09	1.684952e+13	0.000000e+00	5.288461e-01	3.254415e+14	6.428624e+14	1.857089e+14	1.407541e+04	4.413382e+03	2.899722e+03	0	9.076412e-04
1.120000e+09	1.656785e+13	0.000000e+00	5.288461e-01	3.217465e+14	6.369809e+14	1.848994e+14	1.404969e+04	4.409532e+03	2.897192e+03	0	9.025551e-04
1.130000e+09	1.629184e+13	0.000000e+00	5.288461e-01	3.181239e+14	6.312033e+14	1.840952e+14	1.402426e+04	4.405722e+03	2.894689e+03	0	8.975150e-04
1.140000e+09	1.602133e+13	0.000000e+00	5.288461e-01	3.145715e+14	6.255269e+14	1.832965e+14	1.399912e+04	4.401951e+03	2.892211e+03	0	8.925197e-04
1.150000e+09	1.575616e+13	0.000000e+00	5.288461e-01	3.110876e+14	6.199489e+14	1.825031e+14	1.397426e+04	4.398218e+03	2.889758e+03	0	8.875683e-04
1.160000e+09	1.549619e+13	0.000000e+00	5.288461e-01	3.076703e+14	6.144669e+14	1.817149e+14	1.394967e+04	4.394523e+03	2.887331e+03	0	8.826598e-04
1.170000e+09	1.524129e+13	0.000000e+00	5.288461e-01	3.043177e+14	6.090785e+14	1.809321e+14	1.392535e+04	4.390865e+03	2.884927e+03	0	8.777932e-04
1.180000e+09	1.499130e+13	0.000000e+00	5.288461e-01	3.010281e+14	6.037812e+14	1.801544e+14	1.390130e+04	4.387243e+03	2.882547e+03	0	8.729676e-04
1.190000e+09	1.474611e+13	0.000000e+00	5.288461e-01	2.977999e+14	5.985728e+14	1.793819e+14	1.387750e+04	4.383656e+03	2.880191e+03	0	8.681821e-04
1.200000e+09	1.450558e+13	0.000000e+00	5.288461e-01	2.946315e+14	5.934510e+14	1.786145e+14	1.385396e+04	4.380105e+03	2.877857e+03	0	8.634358e-04
1.210000e+09	1.426960e+13	0.000000e+00	5.288461e-01	2.915213e+14	5.884138e+14	1.778523e+14	1.383067e+04	4.376588e+03	2.875547e+03	0	8.587279e-04
1.220000e+09	1.403803e+13	0.000000e+00	5.288461e-01	2.884678e+14	5.834590e+14	1.770950e+14	1.380762e+04	4.373104e+03	2.873258e+03	0	8.540575e-04
1.230000e+09	1.381078e+13	0.000000e+00	5.288461e-01	2.854695e+14	5.785846e+14	1.763428e+14	1.378481e+04	4.369654e+03	2.870991e+03	0	8.494237e-04
1.240000e+09	1.358772e+13	0.000000e+00	5.288461e-01	2.825250e+14	5.737888e+14	1.755956e+14	1.376224e+04	4.366236e+03	2.868745e+03	0	8.448259e-04
1.250000e+09	1.336876e+13	0.000000e+00	5.288461e-01	2.796331e+14	5.690695e+14	1.748533e+14	1.373990e+04	4.362850e+03	2.866521e+03	0	8.402632e-04
1.260000e+09	1.315377e+13	0.000000e+00	5.288461e-01	2.767923e+14	5.644251e+14	1.741159e+14	1.371779e+04	4.359496e+03	2.864317e+03	0	8.357347e-04
1.270000e+09	1.294268e+13	0.000000e+00	5.288461e-01	2.740013e+14	5.598537e+14	1.733833e+14	1.369591e+04	4.356172e+03	2.862133e+03	0	8.312399e-04
1.280000e+09	1.273537e+13	0.000000e+00	5.288461e-01	2.712591e+14	5.553536e+14	1.726556e+14	1.367424e+04	4.352879e+03	2.859970e+03	0	8.267779e-04
1.290000e+09	1.253176e+13	0.000000e+00	5.288461e-01	2.685642e+14	5.509232e+14	1.719326e+14	1.365279e+04	4.349616e+03	2.857825e+03	0	8.223481e-04
1.300000e+09	1.233175e+13	0.000000e+00	5.288461e-01	2.659157e+14	5.465609e+14	1.712144e+14	1.363155e+04	4.346382e+03	2.855701e+03	0	8.179497e-04
1.310000e+09	1.213526e+13	0.000000e+00	5.288461e-01	2.633124e+14	5.422650e+14	1.705009e+14	1.361052e+04	4.343177e+03	2.853595e+03	0	8.135820e-04
1.320000e+09	1.194220e+13	0.000000e+00	5.288461e-01	2.607531e+14	5.380342e+14	1.697920e+14	1.358970e+04	4.340000e+03	2.851508e+03	0	8.092444e-04
1.330000e+09	1.175248e+13	0.000000e+00	5.288461e-01	2.582369e+14	5.338669e+14	1.690878e+14	1.356907e+04	4.336851e+03	2.849439e+03	0	8.049363e-04
1.340000e+09	1.156603e+13	0.000000e+00	5.288461e-01	2.557627e+14	5.297616e+14	1.683882e+14	1.354865e+04	4.333730e+03	2.847388e+03	0	8.006568e-04
1.350000e+09	1.138277e+13	0.000000e+00	5.288461e-01	2.533295e+14	5.257172e+14	1.676932e+14	1.352842e+04	4.330636e+03	2.845355e+03	0	7.964055e-04
1.360000e+09	1.120262e+13	0.000000e+00	5.288461e-01	2.509364e+14	5.217320e+14	1.670027e+14	1.350838e+04	4.327568e+03	2.843339e+03	0	7.921818e-04
