#t		Qconv[W]	Ri[Rp]		R*[Rp]		Qc[W]		Qm[W]		Qr[W]		Tcmb[K]		Tl[K]		Tup[K]		RiFlag		Bs[T]
0.000000e+00	8.919691e+14	0.000000e+00	5.242719e-01	1.076590e+16	1.761108e+15	3.623747e+14	3.100009e+04	4.777739e+03	3.065962e+03	0	3.438639e-03
1.000000e+07	8.211123e+14	0.000000e+00	5.242719e-01	9.929085e+15	2.436859e+15	3.603669e+14	3.027529e+04	5.019136e+03	3.220871e+03	0	3.345062e-03
2.000000e+07	7.573834e+14	0.000000e+00	5.242719e-01	9.176257e+15	3.105027e+15	3.583741e+14	2.960510e+04	5.219704e+03	3.349579e+03	0	3.256181e-03
3.000000e+07	6.998768e+14	0.000000e+00	5.242719e-01	8.496763e+15	3.712559e+15	3.563961e+14	2.898426e+04	5.382664e+03	3.454153e+03	0	3.171591e-03
4.000000e+07	6.478848e+14	0.000000e+00	5.242719e-01	7.882272e+15	4.225338e+15	3.544330e+14	2.840812e+04	5.512141e+03	3.537241e+03	0	3.091026e-03
5.000000e+07	6.008265e+14	0.000000e+00	5.242719e-01	7.325942e+15	4.628443e+15	3.524845e+14	2.787256e+04	5.612695e+03	3.601769e+03	0	3.014299e-03
6.000000e+07	5.582022e+14	0.000000e+00	5.242719e-01	6.821889e+15	4.922011e+15	3.505505e+14	2.737386e+04	5.688892e+03	3.650666e+03	0	2.941263e-03
7.000000e+07	5.195680e+14	0.000000e+00	5.242719e-01	6.364879e+15	5.115778e+15	3.486309e+14	2.690865e+04	5.744991e+03	3.686666e+03	0	2.871778e-03
8.000000e+07	4.845221e+14	0.000000e+00	5.242719e-01	5.950182e+15	5.224244e+15	3.467256e+14	2.647389e+04	5.784770e+03	3.712192e+03	0	2.805700e-03
9.000000e+07	4.526990e+14	0.000000e+00	5.242719e-01	5.573490e+15	5.263216e+15	3.448345e+14	2.606683e+04	5.811462e+03	3.729321e+03	0	2.742878e-03
1.000000e+08	4.237667e+14	0.000000e+00	5.242719e-01	5.230891e+15	5.247721e+15	3.429574e+14	2.568500e+04	5.827762e+03	3.739781e+03	0	2.683154e-03
1.100000e+08	3.974243e+14	0.000000e+00	5.242719e-01	4.918842e+15	5.190964e+15	3.410942e+14	2.532616e+04	5.835874e+03	3.744987e+03	0	2.626363e-03
1.200000e+08	3.734012e+14	0.000000e+00	5.242719e-01	4.634155e+15	5.103979e+15	3.392449e+14	2.498831e+04	5.837580e+03	3.746081e+03	0	2.572341e-03
1.300000e+08	3.514547e+14	0.000000e+00	5.242719e-01	4.373970e+15	4.995665e+15	3.374092e+14	2.466965e+04	5.834302e+03	3.743978e+03	0	2.520924e-03
1.400000e+08	3.313680e+14	0.000000e+00	5.242719e-01	4.135735e+15	4.873015e+15	3.355872e+14	2.436855e+04	5.827173e+03	3.739403e+03	0	2.471953e-03
1.500000e+08	3.129484e+14	0.000000e+00	5.242719e-01	3.917177e+15	4.741412e+15	3.337786e+14	2.408356e+04	5.817092e+03	3.732934e+03	0	2.425275e-03
1.600000e+08	2.960247e+14	0.000000e+00	5.242719e-01	3.716281e+15	4.604931e+15	3.319833e+14	2.381338e+04	5.804766e+03	3.725024e+03	0	2.380744e-03
1.700000e+08	2.804449e+14	0.000000e+00	5.242719e-01	3.531255e+15	4.466604e+15	3.302013e+14	2.355682e+04	5.790756e+03	3.716034e+03	0	2.338223e-03
1.800000e+08	2.660745e+14	0.000000e+00	5.242719e-01	3.360514e+15	4.328653e+15	3.284324e+14	2.331283e+04	5.775502e+03	3.706245e+03	0	2.297582e-03
1.900000e+08	2.527942e+14	0.000000e+00	5.242719e-01	3.202651e+15	4.192672e+15	3.266766e+14	2.308046e+04	5.759351e+03	3.695881e+03	0	2.258702e-03
2.000000e+08	2.404981e+14	0.000000e+00	5.242719e-01	3.056419e+15	4.059780e+15	3.249337e+14	2.285883e+04	5.742579e+03	3.685117e+03	0	2.221470e-03
2.100000e+08	2.290923e+14	0.000000e+00	5.242719e-01	2.920711e+15	3.930735e+15	3.232036e+14	2.264718e+04	5.725398e+03	3.674092e+03	0	2.185782e-03
2.200000e+08	2.184933e+14	0.000000e+00	5.242719e-01	2.794543e+15	3.806024e+15	3.214862e+14	2.244479e+04	5.707979e+03	3.662915e+03	0	2.151540e-03
2.300000e+08	2.086271e+14	0.000000e+00	5.242719e-01	2.677039e+15	3.685934e+15	3.197814e+14	2.225102e+04	5.690455e+03	3.651669e+03	0	2.118655e-03
2.400000e+08	1.994273e+14	0.000000e+00	5.242719e-01	2.567420e+15	3.570605e+15	3.180891e+14	2.206529e+04	5.672929e+03	3.640422e+03	0	2.087044e-03
2.500000e+08	1.908350e+14	0.000000e+00	5.242719e-01	2.464988e+15	3.460068e+15	3.164092e+14	2.188707e+04	5.655481e+03	3.629225e+03	0	2.056629e-03
2.600000e+08	1.827974e+14	0.000000e+00	5.242719e-01	2.369122e+15	3.354276e+15	3.147417e+14	2.171586e+04	5.638174e+03	3.618119e+03	0	2.027341e-03
2.700000e+08	1.752673e+14	0.000000e+00	5.242719e-01	2.279264e+15	3.253132e+15	3.130862e+14	2.155123e+04	5.621057e+03	3.607135e+03	0	1.999111e-03
2.800000e+08	1.682023e+14	0.000000e+00	5.242719e-01	2.194913e+15	3.156495e+15	3.114429e+14	2.139277e+04	5.604165e+03	3.596295e+03	0	1.971881e-03
2.900000e+08	1.615641e+14	0.000000e+00	5.242719e-01	2.115619e+15	3.064206e+15	3.098116e+14	2.124010e+04	5.587526e+03	3.585618e+03	0	1.945592e-03
3.000000e+08	1.553187e+14	0.000000e+00	5.242719e-01	2.040977e+15	2.976087e+15	3.081922e+14	2.109289e+04	5.571160e+03	3.575115e+03	0	1.920192e-03
3.100000e+08	1.494349e+14	0.000000e+00	5.242719e-01	1.970622e+15	2.891954e+15	3.065845e+14	2.095080e+04	5.555081e+03	3.564797e+03	0	1.895632e-03
3.200000e+08	1.438848e+14	0.000000e+00	5.242719e-01	1.904223e+15	2.811619e+15	3.049886e+14	2.081356e+04	5.539297e+03	3.554668e+03	0	1.871867e-03
3.300000e+08	1.386430e+14	0.000000e+00	5.242719e-01	1.841481e+15	2.734896e+15	3.034043e+14	2.068090e+04	5.523815e+03	3.544733e+03	0	1.848854e-03
3.400000e+08	1.336867e+14	0.000000e+00	5.242719e-01	1.782125e+15	2.661601e+15	3.018314e+14	2.055256e+04	5.508638e+03	3.534993e+03	0	1.826555e-03
3.500000e+08	1.289950e+14	0.000000e+00	5.242719e-01	1.725908e+15	2.591557e+15	3.002700e+14	2.042831e+04	5.493765e+03	3.525449e+03	0	1.804932e-03
3.600000e+08	1.245488e+14	0.000000e+00	5.242719e-01	1.672605e+15	2.524594e+15	2.987199e+14	2.030794e+04	5.479195e+03	3.516099e+03	0	1.783952e-03
3.700000e+08	1.203309e+14	0.000000e+00	5.242719e-01	1.622012e+15	2.460546e+15	2.971811e+14	2.019126e+04	5.464925e+03	3.506942e+03	0	1.763582e-03
3.800000e+08	1.163255e+14	0.000000e+00	5.242719e-01	1.573943e+15	2.399257e+15	2.956533e+14	2.007806e+04	5.450951e+03	3.497975e+03	0	1.743793e-03
3.900000e+08	1.125180e+14	0.000000e+00	5.242719e-01	1.528226e+15	2.340580e+15	2.941366e+14	1.996819e+04	5.437269e+03	3.489195e+03	0	1.724556e-03
4.000000e+08	1.088954e+14	0.000000e+00	5.242719e-01	1.484705e+15	2.284373e+15	2.926309e+14	1.986148e+04	5.423872e+03	3.480597e+03	0	1.705846e-03
4.100000e+08	1.054454e+14	0.000000e+00	5.242719e-01	1.443236e+15	2.230503e+15	2.911360e+14	1.975778e+04	5.410754e+03	3.472180e+03	0	1.687638e-03
4.200000e+08	1.021570e+14	0.000000e+00	5.242719e-01	1.403688e+15	2.178847e+15	2.896519e+14	1.965695e+04	5.397910e+03	3.463937e+03	0	1.669909e-03
4.300000e+08	9.901980e+13	0.000000e+00	5.242719e-01	1.365939e+15	2.129284e+15	2.881785e+14	1.955886e+04	5.385332e+03	3.455866e+03	0	1.652637e-03
4.400000e+08	9.602445e+13	0.000000e+00	5.242719e-01	1.329877e+15	2.081705e+15	2.867157e+14	1.946339e+04	5.373015e+03	3.447962e+03	0	1.635802e-03
4.500000e+08	9.316223e+13	0.000000e+00	5.242719e-01	1.295399e+15	2.036004e+15	2.852634e+14	1.937041e+04	5.360950e+03	3.440219e+03	0	1.619384e-03
4.600000e+08	9.042509e+13	0.000000e+00	5.242719e-01	1.262411e+15	1.992083e+15	2.838215e+14	1.927982e+04	5.349132e+03	3.432635e+03	0	1.603367e-03
4.700000e+08	8.780561e+13	0.000000e+00	5.242719e-01	1.230823e+15	1.949849e+15	2.823900e+14	1.919152e+04	5.337553e+03	3.425205e+03	0	1.587733e-03
4.800000e+08	8.529690e+13	0.000000e+00	5.242719e-01	1.200555e+15	1.909217e+15	2.809687e+14	1.910541e+04	5.326207e+03	3.417924e+03	0	1.572465e-03
4.900000e+08	8.289259e+13	0.000000e+00	5.242719e-01	1.171530e+15	1.870104e+15	2.795576e+14	1.902141e+04	5.315087e+03	3.410789e+03	0	1.557550e-03
5.000000e+08	8.058675e+13	0.000000e+00	5.242719e-01	1.143680e+15	1.832433e+15	2.781566e+14	1.893941e+04	5.304188e+03	3.403794e+03	0	1.542971e-03
5.100000e+08	7.837389e+13	0.000000e+00	5.242719e-01	1.116937e+15	1.796132e+15	2.767656e+14	1.885935e+04	5.293502e+03	3.396936e+03	0	1.528717e-03
5.200000e+08	7.624889e+13	0.000000e+00	5.242719e-01	1.091243e+15	1.761133e+15	2.753845e+14	1.878115e+04	5.283023e+03	3.390212e+03	0	1.514774e-03
5.300000e+08	7.420699e+13	0.000000e+00	5.242719e-01	1.066540e+15	1.727373e+15	2.740133e+14	1.870474e+04	5.272745e+03	3.383617e+03	0	1.501130e-03
5.400000e+08	7.224375e+13	0.000000e+00	5.242719e-01	1.042776e+15	1.694791e+15	2.726518e+14	1.863004e+04	5.262663e+03	3.377147e+03	0	1.487773e-03
5.500000e+08	7.035504e+13	0.000000e+00	5.242719e-01	1.019901e+15	1.663331e+15	2.713001e+14	1.855699e+04	5.252771e+03	3.370799e+03	0	1.474693e-03
5.600000e+08	6.853698e+13	0.000000e+00	5.242719e-01	9.978694e+14	1.632940e+15	2.699579e+14	1.848553e+04	5.243064e+03	3.364570e+03	0	1.461880e-03
5.700000e+08	6.678596e+13	0.000000e+00	5.242719e-01	9.766388e+14	1.603566e+15	2.686253e+14	1.841561e+04	5.233535e+03	3.358455e+03	0	1.449323e-03
5.800000e+08	6.509860e+13	0.000000e+00	5.242719e-01	9.561688e+14	1.575164e+15	2.673021e+14	1.834716e+04	5.224180e+03	3.352452e+03	0	1.437013e-03
5.900000e+08	6.347173e+13	0.000000e+00	5.242719e-01	9.364218e+14	1.547688e+15	2.659883e+14	1.828014e+04	5.214995e+03	3.346557e+03	0	1.424941e-03
6.000000e+08	6.190238e+13	0.000000e+00	5.242719e-01	9.173623e+14	1.521097e+15	2.646838e+14	1.821450e+04	5.205973e+03	3.340768e+03	0	1.413099e-03
6.100000e+08	6.038777e+13	0.000000e+00	5.242719e-01	8.989575e+14	1.495350e+15	2.633885e+14	1.815018e+04	5.197110e+03	3.335081e+03	0	1.401478e-03
6.200000e+08	5.892527e+13	0.000000e+00	5.242719e-01	8.811760e+14	1.470411e+15	2.621024e+14	1.808714e+04	5.188403e+03	3.329493e+03	0	1.390072e-03
6.300000e+08	5.751244e+13	0.000000e+00	5.242719e-01	8.639889e+14	1.446243e+15	2.608254e+14	1.802534e+04	5.179846e+03	3.324001e+03	0	1.378872e-03
6.400000e+08	5.614695e+13	0.000000e+00	5.242719e-01	8.473684e+14	1.422813e+15	2.595573e+14	1.796474e+04	5.171435e+03	3.318604e+03	0	1.367872e-03
6.500000e+08	5.482663e+13	0.000000e+00	5.242719e-01	8.312888e+14	1.400089e+15	2.582982e+14	1.790529e+04	5.163166e+03	3.313298e+03	0	1.357065e-03
6.600000e+08	5.354944e+13	0.000000e+00	5.242719e-01	8.157256e+14	1.378042e+15	2.570480e+14	1.784697e+04	5.155036e+03	3.308080e+03	0	1.346444e-03
6.700000e+08	5.231343e+13	0.000000e+00	5.242719e-01	8.006559e+14	1.356644e+15	2.558065e+14	1.778973e+04	5.147040e+03	3.302949e+03	0	1.336004e-03
6.800000e+08	5.111679e+13	0.000000e+00	5.242719e-01	7.860580e+14	1.335866e+15	2.545738e+14	1.773355e+04	5.139175e+03	3.297902e+03	0	1.325738e-03
6.900000e+08	4.995778e+13	0.000000e+00	5.242719e-01	7.719113e+14	1.315683e+15	2.533497e+14	1.767838e+04	5.131437e+03	3.292937e+03	0	1.315642e-03
7.000000e+08	4.883480e+13	0.000000e+00	5.242719e-01	7.581965e+14	1.296073e+15	2.521342e+14	1.762420e+04	5.123823e+03	3.288051e+03	0	1.305709e-03
7.100000e+08	4.774629e+13	0.000000e+00	5.242719e-01	7.448953e+14	1.277010e+15	2.509272e+14	1.757097e+04	5.116329e+03	3.283242e+03	0	1.295935e-03
7.200000e+08	4.669081e+13	0.000000e+00	5.242719e-01	7.319904e+14	1.258474e+15	2.497287e+14	1.751868e+04	5.108953e+03	3.278508e+03	0	1.286314e-03
7.300000e+08	4.566697e+13	0.000000e+00	5.242719e-01	7.194653e+14	1.240445e+15	2.485385e+14	1.746728e+04	5.101691e+03	3.273848e+03	0	1.276843e-03
7.400000e+08	4.467347e+13	0.000000e+00	5.242719e-01	7.073045e+14	1.222901e+15	2.473566e+14	1.741676e+04	5.094540e+03	3.269260e+03	0	1.267515e-03
7.500000e+08	4.370908e+13	0.000000e+00	5.242719e-01	6.954932e+14	1.205825e+15	2.461830e+14	1.736709e+04	5.087498e+03	3.264740e+03	0	1.258328e-03
7.600000e+08	4.277261e+13	0.000000e+00	5.242719e-01	6.840176e+14	1.189198e+15	2.450176e+14	1.731824e+04	5.080562e+03	3.260289e+03	0	1.249277e-03
7.700000e+08	4.186297e+13	0.000000e+00	5.242719e-01	6.728642e+14	1.173005e+15	2.438602e+14	1.727020e+04	5.073728e+03	3.255904e+03	0	1.240357e-03
7.800000e+08	4.097909e+13	0.000000e+00	5.242719e-01	6.620206e+14	1.157228e+15	2.427109e+14	1.722293e+04	5.066995e+03	3.251583e+03	0	1.231565e-03
7.900000e+08	4.011996e+13	0.000000e+00	5.242719e-01	6.514747e+14	1.141852e+15	2.415696e+14	1.717642e+04	5.060359e+03	3.247325e+03	0	1.222898e-03
8.000000e+08	3.928464e+13	0.000000e+00	5.242719e-01	6.412151e+14	1.126863e+15	2.404362e+14	1.713065e+04	5.053819e+03	3.243128e+03	0	1.214351e-03
8.100000e+08	3.847221e+13	0.000000e+00	5.242719e-01	6.312310e+14	1.112246e+15	2.393106e+14	1.708559e+04	5.047372e+03	3.238991e+03	0	1.205922e-03
8.200000e+08	3.768181e+13	0.000000e+00	5.242719e-01	6.215121e+14	1.097989e+15	2.381929e+14	1.704124e+04	5.041015e+03	3.234912e+03	0	1.197606e-03
8.300000e+08	3.691262e+13	0.000000e+00	5.242719e-01	6.120486e+14	1.084078e+15	2.370829e+14	1.699756e+04	5.034748e+03	3.230889e+03	0	1.189401e-03
8.400000e+08	3.616386e+13	0.000000e+00	5.242719e-01	6.028311e+14	1.070502e+15	2.359805e+14	1.695454e+04	5.028566e+03	3.226923e+03	0	1.181304e-03
8.500000e+08	3.543477e+13	0.000000e+00	5.242719e-01	5.938507e+14	1.057249e+15	2.348857e+14	1.691217e+04	5.022469e+03	3.223010e+03	0	1.173311e-03
8.600000e+08	3.472465e+13	0.000000e+00	5.242719e-01	5.850988e+14	1.044307e+15	2.337985e+14	1.687043e+04	5.016455e+03	3.219151e+03	0	1.165420e-03
8.700000e+08	3.403281e+13	0.000000e+00	5.242719e-01	5.765674e+14	1.031667e+15	2.327188e+14	1.682930e+04	5.010521e+03	3.215343e+03	0	1.157629e-03
8.800000e+08	3.335860e+13	0.000000e+00	5.242719e-01	5.682486e+14	1.019318e+15	2.316465e+14	1.678876e+04	5.004665e+03	3.211585e+03	0	1.149933e-03
8.900000e+08	3.270141e+13	0.000000e+00	5.242719e-01	5.601352e+14	1.007250e+15	2.305816e+14	1.674881e+04	4.998887e+03	3.207877e+03	0	1.142332e-03
9.000000e+08	3.206065e+13	0.000000e+00	5.242719e-01	5.522199e+14	9.954535e+14	2.295239e+14	1.670943e+04	4.993183e+03	3.204217e+03	0	1.134821e-03
9.100000e+08	3.143575e+13	0.000000e+00	5.242719e-01	5.444961e+14	9.839206e+14	2.284736e+14	1.667060e+04	4.987552e+03	3.200603e+03	0	1.127400e-03
9.200000e+08	3.082616e+13	0.000000e+00	5.242719e-01	5.369572e+14	9.726423e+14	2.274304e+14	1.663231e+04	4.981994e+03	3.197036e+03	0	1.120065e-03
9.300000e+08	3.023137e+13	0.000000e+00	5.242719e-01	5.295971e+14	9.616105e+14	2.263943e+14	1.659454e+04	4.976505e+03	3.193514e+03	0	1.112814e-03
9.400000e+08	2.965088e+13	0.000000e+00	5.242719e-01	5.224099e+14	9.508173e+14	2.253654e+14	1.655730e+04	4.971085e+03	3.190036e+03	0	1.105645e-03
9.500000e+08	2.908423e+13	0.000000e+00	5.242719e-01	5.153898e+14	9.402552e+14	2.243434e+14	1.652055e+04	4.965732e+03	3.186601e+03	0	1.098557e-03
9.600000e+08	2.853095e+13	0.000000e+00	5.242719e-01	5.085314e+14	9.299170e+14	2.233285e+14	1.648430e+04	4.960444e+03	3.183207e+03	0	1.091546e-03
9.700000e+08	2.799060e+13	0.000000e+00	5.242719e-01	5.018295e+14	9.197957e+14	2.223204e+14	1.644853e+04	4.955221e+03	3.179855e+03	0	1.084611e-03
9.800000e+08	2.746279e+13	0.000000e+00	5.242719e-01	4.952791e+14	9.098848e+14	2.213192e+14	1.641322e+04	4.950060e+03	3.176544e+03	0	1.077750e-03
9.900000e+08	2.694709e+13	0.000000e+00	5.242719e-01	4.888754e+14	9.001779e+14	2.203248e+14	1.637838e+04	4.944960e+03	3.173271e+03	0	1.070962e-03
1.000000e+09	2.644313e+13	0.000000e+00	5.242719e-01	4.826139e+14	8.906688e+14	2.193372e+14	1.634398e+04	4.939921e+03	3.170038e+03	0	1.064243e-03
1.010000e+09	2.595054e+13	0.000000e+00	5.242719e-01	4.764900e+14	8.813517e+14	2.183562e+14	1.631003e+04	4.934941e+03	3.166842e+03	0	1.057594e-03
1.020000e+09	2.546896e+13	0.000000e+00	5.242719e-01	4.704995e+14	8.722208e+14	2.173819e+14	1.627650e+04	4.930018e+03	3.163683e+03	0	1.051011e-03
1.030000e+09	2.499806e+13	0.000000e+00	5.242719e-01	4.646385e+14	8.632707e+14	2.164142e+14	1.624339e+04	4.925152e+03	3.160560e+03	0	1.044493e-03
1.040000e+09	2.453751e+13	0.000000e+00	5.242719e-01	4.589028e+14	8.544963e+14	2.154530e+14	1.621069e+04	4.920341e+03	3.157473e+03	0	1.038039e-03
1.050000e+09	2.408700e+13	0.000000e+00	5.242719e-01	4.532889e+14	8.458923e+14	2.144984e+14	1.617840e+04	4.915584e+03	3.154420e+03	0	1.031646e-03
1.060000e+09	2.364622e+13	0.000000e+00	5.242719e-01	4.477930e+14	8.374541e+14	2.135501e+14	1.614650e+04	4.910880e+03	3.151402e+03	0	1.025315e-03
1.070000e+09	2.321488e+13	0.000000e+00	5.242719e-01	4.424117e+14	8.291768e+14	2.126083e+14	1.611498e+04	4.906229e+03	3.148416e+03	0	1.019042e-03
1.080000e+09	2.279270e+13	0.000000e+00	5.242719e-01	4.371416e+14	8.210561e+14	2.116728e+14	1.608384e+04	4.901628e+03	3.145464e+03	0	1.012827e-03
1.090000e+09	2.237942e+13	0.000000e+00	5.242719e-01	4.319796e+14	8.130875e+14	2.107435e+14	1.605307e+04	4.897077e+03	3.142544e+03	0	1.006668e-03
1.100000e+09	2.197478e+13	0.000000e+00	5.242719e-01	4.269224e+14	8.052668e+14	2.098205e+14	1.602266e+04	4.892575e+03	3.139655e+03	0	1.000564e-03
1.110000e+09	2.157852e+13	0.000000e+00	5.242719e-01	4.219671e+14	7.975901e+14	2.089038e+14	1.599261e+04	4.888122e+03	3.136797e+03	0	9.945132e-04
1.120000e+09	2.119041e+13	0.000000e+00	5.242719e-01	4.171108e+14	7.900534e+14	2.079931e+14	1.596290e+04	4.883715e+03	3.133969e+03	0	9.885147e-04
1.130000e+09	2.081022e+13	0.000000e+00	5.242719e-01	4.123508e+14	7.826530e+14	2.070885e+14	1.593353e+04	4.879355e+03	3.131171e+03	0	9.825671e-04
1.140000e+09	2.043772e+13	0.000000e+00	5.242719e-01	4.076844e+14	7.753852e+14	2.061900e+14	1.590450e+04	4.875040e+03	3.128402e+03	0	9.766691e-04
1.150000e+09	2.007270e+13	0.000000e+00	5.242719e-01	4.031089e+14	7.682465e+14	2.052975e+14	1.587580e+04	4.870769e+03	3.125662e+03	0	9.708197e-04
1.160000e+09	1.971495e+13	0.000000e+00	5.242719e-01	3.986219e+14	7.612337e+14	2.044110e+14	1.584741e+04	4.866543e+03	3.122949e+03	0	9.650175e-04
1.170000e+09	1.936427e+13	0.000000e+00	5.242719e-01	3.942210e+14	7.543433e+14	2.035303e+14	1.581934e+04	4.862359e+03	3.120264e+03	0	9.592615e-04
1.180000e+09	1.902047e+13	0.000000e+00	5.242719e-01	3.899039e+14	7.475722e+14	2.026555e+14	1.579158e+04	4.858217e+03	3.117606e+03	0	9.535506e-04
1.190000e+09	1.868336e+13	0.000000e+00	5.242719e-01	3.856682e+14	7.409175e+14	2.017865e+14	1.576413e+04	4.854116e+03	3.114975e+03	0	9.478836e-04
1.200000e+09	1.835276e+13	0.000000e+00	5.242719e-01	3.815119e+14	7.343761e+14	2.009233e+14	1.573697e+04	4.850056e+03	3.112369e+03	0	9.422594e-04
1.210000e+09	1.802851e+13	0.000000e+00	5.242719e-01	3.774329e+14	7.279452e+14	2.000658e+14	1.571010e+04	4.846036e+03	3.109790e+03	0	9.366772e-04
1.220000e+09	1.771042e+13	0.000000e+00	5.242719e-01	3.734292e+14	7.216220e+14	1.992140e+14	1.568351e+04	4.842055e+03	3.107235e+03	0	9.311357e-04
1.230000e+09	1.739835e+13	0.000000e+00	5.242719e-01	3.694987e+14	7.154039e+14	1.983679e+14	1.565721e+04	4.838112e+03	3.104705e+03	0	9.256340e-04
1.240000e+09	1.709212e+13	0.000000e+00	5.242719e-01	3.656396e+14	7.092883e+14	1.975273e+14	1.563119e+04	4.834207e+03	3.102199e+03	0	9.201712e-04
1.250000e+09	1.679160e+13	0.000000e+00	5.242719e-01	3.618501e+14	7.032727e+14	1.966923e+14	1.560543e+04	4.830339e+03	3.099717e+03	0	9.147463e-04
1.260000e+09	1.649663e+13	0.000000e+00	5.242719e-01	3.581284e+14	6.973546e+14	1.958627e+14	1.557994e+04	4.826508e+03	3.097258e+03	0	9.093583e-04
1.270000e+09	1.620707e+13	0.000000e+00	5.242719e-01	3.544728e+14	6.915318e+14	1.950387e+14	1.555472e+04	4.822712e+03	3.094822e+03	0	9.040064e-04
1.280000e+09	1.592279e+13	0.000000e+00	5.242719e-01	3.508817e+14	6.858020e+14	1.942201e+14	1.552975e+04	4.818952e+03	3.092409e+03	0	8.986896e-04
1.290000e+09	1.564365e+13	0.000000e+00	5.242719e-01	3.473534e+14	6.801629e+14	1.934068e+14	1.550503e+04	4.815226e+03	3.090018e+03	0	8.934070e-04
1.300000e+09	1.536953e+13	0.000000e+00	5.242719e-01	3.438864e+14	6.746124e+14	1.925989e+14	1.548056e+04	4.811534e+03	3.087649e+03	0	8.881579e-04
1.310000e+09	1.510029e+13	0.000000e+00	5.242719e-01	3.404793e+14	6.691486e+14	1.917963e+14	1.545633e+04	4.807875e+03	3.085301e+03	0	8.829412e-04
1.320000e+09	1.483583e+13	0.000000e+00	5.242719e-01	3.371304e+14	6.637693e+14	1.909989e+14	1.543234e+04	4.804250e+03	3.082975e+03	0	8.777563e-04
1.330000e+09	1.457602e+13	0.000000e+00	5.242719e-01	3.338386e+14	6.584726e+14	1.902067e+14	1.540859e+04	4.800656e+03	3.080669e+03	0	8.726022e-04
1.340000e+09	1.432075e+13	0.000000e+00	5.242719e-01	3.306023e+14	6.532567e+14	1.894198e+14	1.538506e+04	4.797095e+03	3.078383e+03	0	8.674782e-04
1.350000e+09	1.406991e+13	0.000000e+00	5.242719e-01	3.274202e+14	6.481197e+14	1.886379e+14	1.536177e+04	4.793565e+03	3.076118e+03	0	8.623835e-04
1.360000e+09	1.382339e+13	0.000000e+00	5.242719e-01	3.242911e+14	6.430599e+14	1.878612e+14	1.533870e+04	4.790065e+03	3.073872e+03	0	8.573173e-04
