#t		Qconv[W]	Ri[Rp]		R*[Rp]		Qc[W]		Qm[W]		Qr[W]		Tcmb[K]		Tl[K]		Tup[K]		RiFlag		Bs[T]
0.000000e+00	9.596123e+14	0.000000e+00	5.242719e-01	1.136466e+16	1.728409e+15	3.733423e+14	3.177827e+04	4.826470e+03	3.082881e+03	0	3.520751e-03
1.000000e+07	8.842414e+14	0.000000e+00	5.242719e-01	1.049191e+16	2.424377e+15	3.712737e+14	3.103987e+04	5.077810e+03	3.243423e+03	0	3.426050e-03
2.000000e+07	8.163483e+14	0.000000e+00	5.242719e-01	9.705538e+15	3.123986e+15	3.692206e+14	3.035645e+04	5.287810e+03	3.377560e+03	0	3.336019e-03
3.000000e+07	7.549830e+14	0.000000e+00	5.242719e-01	8.994598e+15	3.770029e+15	3.671828e+14	2.972277e+04	5.459421e+03	3.487176e+03	0	3.250243e-03
4.000000e+07	6.994083e+14	0.000000e+00	5.242719e-01	8.350576e+15	4.323655e+15	3.651603e+14	2.913424e+04	5.596586e+03	3.574789e+03	0	3.168451e-03
5.000000e+07	6.490231e+14	0.000000e+00	5.242719e-01	7.766536e+15	4.765910e+15	3.631528e+14	2.858676e+04	5.703785e+03	3.643261e+03	0	3.090462e-03
6.000000e+07	6.033131e+14	0.000000e+00	5.242719e-01	7.236537e+15	5.094192e+15	3.611603e+14	2.807660e+04	5.785588e+03	3.695513e+03	0	3.016136e-03
7.000000e+07	5.618214e+14	0.000000e+00	5.242719e-01	6.755300e+15	5.316823e+15	3.591826e+14	2.760044e+04	5.846324e+03	3.734308e+03	0	2.945345e-03
8.000000e+07	5.241339e+14	0.000000e+00	5.242719e-01	6.318042e+15	5.447933e+15	3.572196e+14	2.715521e+04	5.889874e+03	3.762125e+03	0	2.877956e-03
9.000000e+07	4.898721e+14	0.000000e+00	5.242719e-01	5.920391e+15	5.503641e+15	3.552713e+14	2.673818e+04	5.919587e+03	3.781104e+03	0	2.813828e-03
1.000000e+08	4.586905e+14	0.000000e+00	5.242719e-01	5.558356e+15	5.499653e+15	3.533374e+14	2.634684e+04	5.938275e+03	3.793041e+03	0	2.752812e-03
1.100000e+08	4.302748e+14	0.000000e+00	5.242719e-01	5.228307e+15	5.449999e+15	3.514178e+14	2.597894e+04	5.948247e+03	3.799411e+03	0	2.694751e-03
1.200000e+08	4.043406e+14	0.000000e+00	5.242719e-01	4.926959e+15	5.366540e+15	3.495125e+14	2.563246e+04	5.951380e+03	3.801411e+03	0	2.639485e-03
1.300000e+08	3.806320e+14	0.000000e+00	5.242719e-01	4.651358e+15	5.258929e+15	3.476213e+14	2.530558e+04	5.949176e+03	3.800004e+03	0	2.586853e-03
1.400000e+08	3.589197e+14	0.000000e+00	5.242719e-01	4.398856e+15	5.134809e+15	3.457440e+14	2.499665e+04	5.942835e+03	3.795954e+03	0	2.536700e-03
1.500000e+08	3.389992e+14	0.000000e+00	5.242719e-01	4.167088e+15	5.000105e+15	3.438807e+14	2.470420e+04	5.933311e+03	3.789870e+03	0	2.488874e-03
1.600000e+08	3.206883e+14	0.000000e+00	5.242719e-01	3.953951e+15	4.859328e+15	3.420311e+14	2.442689e+04	5.921358e+03	3.782235e+03	0	2.443230e-03
1.700000e+08	3.038248e+14	0.000000e+00	5.242719e-01	3.757573e+15	4.715858e+15	3.401952e+14	2.416354e+04	5.907571e+03	3.773429e+03	0	2.399631e-03
1.800000e+08	2.882650e+14	0.000000e+00	5.242719e-01	3.576291e+15	4.572186e+15	3.383728e+14	2.391305e+04	5.892422e+03	3.763752e+03	0	2.357947e-03
1.900000e+08	2.738811e+14	0.000000e+00	5.242719e-01	3.408630e+15	4.430118e+15	3.365638e+14	2.367446e+04	5.876281e+03	3.753442e+03	0	2.318057e-03
2.000000e+08	2.605596e+14	0.000000e+00	5.242719e-01	3.253279e+15	4.290931e+15	3.347681e+14	2.344689e+04	5.859441e+03	3.742686e+03	0	2.279847e-03
2.100000e+08	2.481998e+14	0.000000e+00	5.242719e-01	3.109071e+15	4.155504e+15	3.329857e+14	2.322954e+04	5.842134e+03	3.731631e+03	0	2.243213e-03
2.200000e+08	2.367120e+14	0.000000e+00	5.242719e-01	2.974972e+15	4.024415e+15	3.312163e+14	2.302168e+04	5.824541e+03	3.720394e+03	0	2.208056e-03
2.300000e+08	2.260162e+14	0.000000e+00	5.242719e-01	2.850056e+15	3.898015e+15	3.294599e+14	2.282267e+04	5.806804e+03	3.709064e+03	0	2.174286e-03
2.400000e+08	2.160414e+14	0.000000e+00	5.242719e-01	2.733502e+15	3.776493e+15	3.277164e+14	2.263190e+04	5.789036e+03	3.697715e+03	0	2.141817e-03
2.500000e+08	2.067238e+14	0.000000e+00	5.242719e-01	2.624572e+15	3.659914e+15	3.259857e+14	2.244883e+04	5.771323e+03	3.686401e+03	0	2.110572e-03
2.600000e+08	1.980066e+14	0.000000e+00	5.242719e-01	2.522610e+15	3.548254e+15	3.242676e+14	2.227296e+04	5.753734e+03	3.675166e+03	0	2.080479e-03
2.700000e+08	1.898388e+14	0.000000e+00	5.242719e-01	2.427024e+15	3.441429e+15	3.225621e+14	2.210384e+04	5.736321e+03	3.664044e+03	0	2.051469e-03
2.800000e+08	1.821746e+14	0.000000e+00	5.242719e-01	2.337286e+15	3.339308e+15	3.208691e+14	2.194104e+04	5.719124e+03	3.653060e+03	0	2.023482e-03
2.900000e+08	1.749729e+14	0.000000e+00	5.242719e-01	2.252919e+15	3.241736e+15	3.191884e+14	2.178420e+04	5.702174e+03	3.642232e+03	0	1.996459e-03
3.000000e+08	1.681966e+14	0.000000e+00	5.242719e-01	2.173494e+15	3.148534e+15	3.175199e+14	2.163295e+04	5.685491e+03	3.631576e+03	0	1.970346e-03
3.100000e+08	1.618121e+14	0.000000e+00	5.242719e-01	2.098623e+15	3.059517e+15	3.158636e+14	2.148697e+04	5.669092e+03	3.621102e+03	0	1.945093e-03
3.200000e+08	1.557894e+14	0.000000e+00	5.242719e-01	2.027957e+15	2.974493e+15	3.142194e+14	2.134597e+04	5.652988e+03	3.610816e+03	0	1.920655e-03
3.300000e+08	1.501009e+14	0.000000e+00	5.242719e-01	1.961177e+15	2.893270e+15	3.125871e+14	2.120966e+04	5.637186e+03	3.600722e+03	0	1.896988e-03
3.400000e+08	1.447219e+14	0.000000e+00	5.242719e-01	1.897996e+15	2.815659e+15	3.109667e+14	2.107779e+04	5.621690e+03	3.590824e+03	0	1.874051e-03
3.500000e+08	1.396297e+14	0.000000e+00	5.242719e-01	1.838153e+15	2.741476e+15	3.093580e+14	2.095013e+04	5.606500e+03	3.581121e+03	0	1.851808e-03
3.600000e+08	1.348039e+14	0.000000e+00	5.242719e-01	1.781408e+15	2.670543e+15	3.077610e+14	2.082645e+04	5.591615e+03	3.571614e+03	0	1.830224e-03
3.700000e+08	1.302256e+14	0.000000e+00	5.242719e-01	1.727546e+15	2.602688e+15	3.061756e+14	2.070655e+04	5.577034e+03	3.562300e+03	0	1.809265e-03
3.800000e+08	1.258777e+14	0.000000e+00	5.242719e-01	1.676367e+15	2.537749e+15	3.046016e+14	2.059024e+04	5.562752e+03	3.553178e+03	0	1.788901e-03
3.900000e+08	1.217447e+14	0.000000e+00	5.242719e-01	1.627691e+15	2.475569e+15	3.030390e+14	2.047734e+04	5.548766e+03	3.544244e+03	0	1.769104e-03
4.000000e+08	1.178121e+14	0.000000e+00	5.242719e-01	1.581350e+15	2.416001e+15	3.014877e+14	2.036769e+04	5.535068e+03	3.535495e+03	0	1.749847e-03
4.100000e+08	1.140669e+14	0.000000e+00	5.242719e-01	1.537193e+15	2.358907e+15	2.999476e+14	2.026113e+04	5.521655e+03	3.526927e+03	0	1.731104e-03
4.200000e+08	1.104969e+14	0.000000e+00	5.242719e-01	1.495079e+15	2.304153e+15	2.984185e+14	2.015752e+04	5.508519e+03	3.518537e+03	0	1.712853e-03
4.300000e+08	1.070911e+14	0.000000e+00	5.242719e-01	1.454880e+15	2.251615e+15	2.969005e+14	2.005672e+04	5.495654e+03	3.510319e+03	0	1.695071e-03
4.400000e+08	1.038392e+14	0.000000e+00	5.242719e-01	1.416476e+15	2.201178e+15	2.953934e+14	1.995861e+04	5.483054e+03	3.502271e+03	0	1.677737e-03
4.500000e+08	1.007318e+14	0.000000e+00	5.242719e-01	1.379758e+15	2.152729e+15	2.938972e+14	1.986307e+04	5.470711e+03	3.494387e+03	0	1.660831e-03
4.600000e+08	9.776011e+13	0.000000e+00	5.242719e-01	1.344625e+15	2.106166e+15	2.924117e+14	1.976998e+04	5.458619e+03	3.486663e+03	0	1.644336e-03
4.700000e+08	9.491614e+13	0.000000e+00	5.242719e-01	1.310983e+15	2.061391e+15	2.909368e+14	1.967925e+04	5.446770e+03	3.479095e+03	0	1.628234e-03
4.800000e+08	9.219241e+13	0.000000e+00	5.242719e-01	1.278745e+15	2.018311e+15	2.894725e+14	1.959076e+04	5.435160e+03	3.471679e+03	0	1.612508e-03
4.900000e+08	8.958200e+13	0.000000e+00	5.242719e-01	1.247831e+15	1.976842e+15	2.880187e+14	1.950444e+04	5.423780e+03	3.464410e+03	0	1.597142e-03
5.000000e+08	8.707849e+13	0.000000e+00	5.242719e-01	1.218167e+15	1.936901e+15	2.865753e+14	1.942018e+04	5.412624e+03	3.457284e+03	0	1.582123e-03
5.100000e+08	8.467592e+13	0.000000e+00	5.242719e-01	1.189683e+15	1.898413e+15	2.851422e+14	1.933791e+04	5.401685e+03	3.450297e+03	0	1.567437e-03
5.200000e+08	8.236872e+13	0.000000e+00	5.242719e-01	1.162314e+15	1.861305e+15	2.837193e+14	1.925755e+04	5.390959e+03	3.443446e+03	0	1.553069e-03
5.300000e+08	8.015175e+13	0.000000e+00	5.242719e-01	1.136001e+15	1.825510e+15	2.823066e+14	1.917902e+04	5.380438e+03	3.436726e+03	0	1.539009e-03
5.400000e+08	7.802019e+13	0.000000e+00	5.242719e-01	1.110687e+15	1.790964e+15	2.809039e+14	1.910226e+04	5.370116e+03	3.430133e+03	0	1.525243e-03
5.500000e+08	7.596953e+13	0.000000e+00	5.242719e-01	1.086320e+15	1.757608e+15	2.795112e+14	1.902720e+04	5.359989e+03	3.423664e+03	0	1.511761e-03
5.600000e+08	7.399559e+13	0.000000e+00	5.242719e-01	1.062852e+15	1.725385e+15	2.781284e+14	1.895377e+04	5.350050e+03	3.417315e+03	0	1.498553e-03
5.700000e+08	7.209444e+13	0.000000e+00	5.242719e-01	1.040236e+15	1.694242e+15	2.767555e+14	1.888192e+04	5.340293e+03	3.411083e+03	0	1.485607e-03
5.800000e+08	7.026241e+13	0.000000e+00	5.242719e-01	1.018430e+15	1.664129e+15	2.753922e+14	1.881159e+04	5.330714e+03	3.404965e+03	0	1.472915e-03
5.900000e+08	6.849607e+13	0.000000e+00	5.242719e-01	9.973941e+14	1.634998e+15	2.740387e+14	1.874271e+04	5.321308e+03	3.398956e+03	0	1.460468e-03
6.000000e+08	6.679218e+13	0.000000e+00	5.242719e-01	9.770904e+14	1.606806e+15	2.726947e+14	1.867526e+04	5.312069e+03	3.393055e+03	0	1.448256e-03
6.100000e+08	6.514773e+13	0.000000e+00	5.242719e-01	9.574837e+14	1.579510e+15	2.713602e+14	1.860916e+04	5.302993e+03	3.387258e+03	0	1.436271e-03
6.200000e+08	6.355988e+13	0.000000e+00	5.242719e-01	9.385410e+14	1.553069e+15	2.700352e+14	1.854439e+04	5.294075e+03	3.381562e+03	0	1.424506e-03
6.300000e+08	6.202596e+13	0.000000e+00	5.242719e-01	9.202312e+14	1.527447e+15	2.687195e+14	1.848088e+04	5.285311e+03	3.375964e+03	0	1.412953e-03
6.400000e+08	6.054345e+13	0.000000e+00	5.242719e-01	9.025249e+14	1.502609e+15	2.674131e+14	1.841861e+04	5.276697e+03	3.370462e+03	0	1.401605e-03
6.500000e+08	5.911000e+13	0.000000e+00	5.242719e-01	8.853947e+14	1.478520e+15	2.661159e+14	1.835753e+04	5.268228e+03	3.365052e+03	0	1.390455e-03
6.600000e+08	5.772337e+13	0.000000e+00	5.242719e-01	8.688146e+14	1.455148e+15	2.648278e+14	1.829760e+04	5.259900e+03	3.359733e+03	0	1.379496e-03
6.700000e+08	5.638147e+13	0.000000e+00	5.242719e-01	8.527601e+14	1.432464e+15	2.635488e+14	1.823878e+04	5.251710e+03	3.354501e+03	0	1.368723e-03
6.800000e+08	5.508233e+13	0.000000e+00	5.242719e-01	8.372081e+14	1.410439e+15	2.622787e+14	1.818105e+04	5.243654e+03	3.349355e+03	0	1.358128e-03
6.900000e+08	5.382406e+13	0.000000e+00	5.242719e-01	8.221367e+14	1.389046e+15	2.610176e+14	1.812436e+04	5.235727e+03	3.344293e+03	0	1.347707e-03
7.000000e+08	5.260491e+13	0.000000e+00	5.242719e-01	8.075254e+14	1.368259e+15	2.597653e+14	1.806869e+04	5.227928e+03	3.339311e+03	0	1.337454e-03
7.100000e+08	5.142320e+13	0.000000e+00	5.242719e-01	7.933546e+14	1.348054e+15	2.585218e+14	1.801400e+04	5.220252e+03	3.334407e+03	0	1.327363e-03
7.200000e+08	5.027736e+13	0.000000e+00	5.242719e-01	7.796060e+14	1.328408e+15	2.572870e+14	1.796026e+04	5.212695e+03	3.329581e+03	0	1.317430e-03
7.300000e+08	4.916588e+13	0.000000e+00	5.242719e-01	7.662619e+14	1.309299e+15	2.560608e+14	1.790745e+04	5.205256e+03	3.324829e+03	0	1.307649e-03
7.400000e+08	4.808736e+13	0.000000e+00	5.242719e-01	7.533060e+14	1.290705e+15	2.548431e+14	1.785554e+04	5.197930e+03	3.320150e+03	0	1.298017e-03
7.500000e+08	4.704044e+13	0.000000e+00	5.242719e-01	7.407224e+14	1.272608e+15	2.536340e+14	1.780450e+04	5.190715e+03	3.315541e+03	0	1.288528e-03
7.600000e+08	4.602386e+13	0.000000e+00	5.242719e-01	7.284963e+14	1.254988e+15	2.524333e+14	1.775431e+04	5.183609e+03	3.311002e+03	0	1.279178e-03
7.700000e+08	4.503641e+13	0.000000e+00	5.242719e-01	7.166136e+14	1.237827e+15	2.512409e+14	1.770494e+04	5.176608e+03	3.306530e+03	0	1.269964e-03
7.800000e+08	4.407694e+13	0.000000e+00	5.242719e-01	7.050608e+14	1.221108e+15	2.500568e+14	1.765638e+04	5.169709e+03	3.302123e+03	0	1.260880e-03
7.900000e+08	4.314435e+13	0.000000e+00	5.242719e-01	6.938251e+14	1.204815e+15	2.488809e+14	1.760859e+04	5.162910e+03	3.297781e+03	0	1.251924e-03
8.000000e+08	4.223762e+13	0.000000e+00	5.242719e-01	6.828945e+14	1.188932e+15	2.477132e+14	1.756156e+04	5.156209e+03	3.293501e+03	0	1.243092e-03
8.100000e+08	4.135575e+13	0.000000e+00	5.242719e-01	6.722575e+14	1.173444e+15	2.465536e+14	1.751527e+04	5.149604e+03	3.289281e+03	0	1.234379e-03
8.200000e+08	4.049781e+13	0.000000e+00	5.242719e-01	6.619029e+14	1.158338e+15	2.454020e+14	1.746969e+04	5.143091e+03	3.285121e+03	0	1.225784e-03
8.300000e+08	3.966290e+13	0.000000e+00	5.242719e-01	6.518204e+14	1.143599e+15	2.442584e+14	1.742482e+04	5.136669e+03	3.281019e+03	0	1.217302e-03
8.400000e+08	3.885018e+13	0.000000e+00	5.242719e-01	6.420000e+14	1.129216e+15	2.431227e+14	1.738062e+04	5.130335e+03	3.276974e+03	0	1.208930e-03
8.500000e+08	3.805882e+13	0.000000e+00	5.242719e-01	6.324322e+14	1.115175e+15	2.419948e+14	1.733708e+04	5.124088e+03	3.272983e+03	0	1.200665e-03
8.600000e+08	3.728807e+13	0.000000e+00	5.242719e-01	6.231079e+14	1.101464e+15	2.408747e+14	1.729420e+04	5.117925e+03	3.269047e+03	0	1.192504e-03
8.700000e+08	3.653717e+13	0.000000e+00	5.242719e-01	6.140184e+14	1.088073e+15	2.397623e+14	1.725194e+04	5.111844e+03	3.265163e+03	0	1.184445e-03
8.800000e+08	3.580542e+13	0.000000e+00	5.242719e-01	6.051555e+14	1.074991e+15	2.386575e+14	1.721029e+04	5.105844e+03	3.261330e+03	0	1.176485e-03
8.900000e+08	3.509216e+13	0.000000e+00	5.242719e-01	5.965114e+14	1.062208e+15	2.375603e+14	1.716924e+04	5.099923e+03	3.257548e+03	0	1.168620e-03
9.000000e+08	3.439673e+13	0.000000e+00	5.242719e-01	5.880784e+14	1.049713e+15	2.364707e+14	1.712878e+04	5.094078e+03	3.253815e+03	0	1.160849e-03
9.100000e+08	3.371853e+13	0.000000e+00	5.242719e-01	5.798494e+14	1.037497e+15	2.353885e+14	1.708888e+04	5.088308e+03	3.250129e+03	0	1.153169e-03
9.200000e+08	3.305696e+13	0.000000e+00	5.242719e-01	5.718175e+14	1.025552e+15	2.343138e+14	1.704954e+04	5.082612e+03	3.246491e+03	0	1.145577e-03
9.300000e+08	3.241147e+13	0.000000e+00	5.242719e-01	5.639760e+14	1.013868e+15	2.332464e+14	1.701074e+04	5.076987e+03	3.242898e+03	0	1.138072e-03
9.400000e+08	3.178151e+13	0.000000e+00	5.242719e-01	5.563187e+14	1.002437e+15	2.321863e+14	1.697248e+04	5.071433e+03	3.239350e+03	0	1.130650e-03
9.500000e+08	3.116657e+13	0.000000e+00	5.242719e-01	5.488395e+14	9.912510e+14	2.311334e+14	1.693473e+04	5.065947e+03	3.235846e+03	0	1.123310e-03
9.600000e+08	3.056615e+13	0.000000e+00	5.242719e-01	5.415326e+14	9.803028e+14	2.300877e+14	1.689748e+04	5.060528e+03	3.232385e+03	0	1.116050e-03
9.700000e+08	2.997979e+13	0.000000e+00	5.242719e-01	5.343924e+14	9.695848e+14	2.290492e+14	1.686073e+04	5.055175e+03	3.228966e+03	0	1.108867e-03
9.800000e+08	2.940703e+13	0.000000e+00	5.242719e-01	5.274137e+14	9.590900e+14	2.280176e+14	1.682446e+04	5.049887e+03	3.225588e+03	0	1.101760e-03
9.900000e+08	2.884744e+13	0.000000e+00	5.242719e-01	5.205913e+14	9.488115e+14	2.269932e+14	1.678866e+04	5.044661e+03	3.222250e+03	0	1.094727e-03
1.000000e+09	2.830059e+13	0.000000e+00	5.242719e-01	5.139202e+14	9.387429e+14	2.259756e+14	1.675333e+04	5.039496e+03	3.218951e+03	0	1.087765e-03
1.010000e+09	2.776609e+13	0.000000e+00	5.242719e-01	5.073959e+14	9.288779e+14	2.249650e+14	1.671844e+04	5.034392e+03	3.215691e+03	0	1.080874e-03
1.020000e+09	2.724355e+13	0.000000e+00	5.242719e-01	5.010138e+14	9.192105e+14	2.239612e+14	1.668400e+04	5.029347e+03	3.212468e+03	0	1.074050e-03
1.030000e+09	2.673260e+13	0.000000e+00	5.242719e-01	4.947695e+14	9.097350e+14	2.229642e+14	1.664998e+04	5.024360e+03	3.209283e+03	0	1.067293e-03
1.040000e+09	2.623290e+13	0.000000e+00	5.242719e-01	4.886589e+14	9.004457e+14	2.219739e+14	1.661639e+04	5.019430e+03	3.206134e+03	0	1.060601e-03
1.050000e+09	2.574409e+13	0.000000e+00	5.242719e-01	4.826779e+14	8.913373e+14	2.209904e+14	1.658321e+04	5.014555e+03	3.203020e+03	0	1.053972e-03
1.060000e+09	2.526585e+13	0.000000e+00	5.242719e-01	4.768227e+14	8.824047e+14	2.200134e+14	1.655044e+04	5.009734e+03	3.199940e+03	0	1.047405e-03
1.070000e+09	2.479787e+13	0.000000e+00	5.242719e-01	4.710896e+14	8.736428e+14	2.190431e+14	1.651806e+04	5.004967e+03	3.196895e+03	0	1.040898e-03
1.080000e+09	2.433984e+13	0.000000e+00	5.242719e-01	4.654751e+14	8.650470e+14	2.180792e+14	1.648607e+04	5.000252e+03	3.193884e+03	0	1.034449e-03
1.090000e+09	2.389146e+13	0.000000e+00	5.242719e-01	4.599756e+14	8.566125e+14	2.171219e+14	1.645446e+04	4.995588e+03	3.190905e+03	0	1.028058e-03
1.100000e+09	2.345247e+13	0.000000e+00	5.242719e-01	4.545878e+14	8.483349e+14	2.161710e+14	1.642322e+04	4.990974e+03	3.187958e+03	0	1.021722e-03
1.110000e+09	2.302259e+13	0.000000e+00	5.242719e-01	4.493087e+14	8.402101e+14	2.152264e+14	1.639235e+04	4.986410e+03	3.185042e+03	0	1.015441e-03
1.120000e+09	2.260155e+13	0.000000e+00	5.242719e-01	4.441350e+14	8.322337e+14	2.142882e+14	1.636183e+04	4.981893e+03	3.182157e+03	0	1.009213e-03
1.130000e+09	2.218911e+13	0.000000e+00	5.242719e-01	4.390639e+14	8.244019e+14	2.133563e+14	1.633167e+04	4.977425e+03	3.179303e+03	0	1.003036e-03
1.140000e+09	2.178503e+13	0.000000e+00	5.242719e-01	4.340925e+14	8.167107e+14	2.124306e+14	1.630184e+04	4.973002e+03	3.176478e+03	0	9.969103e-04
1.150000e+09	2.138906e+13	0.000000e+00	5.242719e-01	4.292181e+14	8.091565e+14	2.115111e+14	1.627235e+04	4.968625e+03	3.173683e+03	0	9.908334e-04
1.160000e+09	2.100099e+13	0.000000e+00	5.242719e-01	4.244379e+14	8.017357e+14	2.105977e+14	1.624320e+04	4.964293e+03	3.170915e+03	0	9.848044e-04
1.170000e+09	2.062061e+13	0.000000e+00	5.242719e-01	4.197495e+14	7.944449e+14	2.096904e+14	1.621436e+04	4.960005e+03	3.168176e+03	0	9.788223e-04
1.180000e+09	2.024768e+13	0.000000e+00	5.242719e-01	4.151502e+14	7.872805e+14	2.087891e+14	1.618585e+04	4.955760e+03	3.165465e+03	0	9.728857e-04
1.190000e+09	1.988203e+13	0.000000e+00	5.242719e-01	4.106379e+14	7.802395e+14	2.078938e+14	1.615764e+04	4.951558e+03	3.162781e+03	0	9.669936e-04
1.200000e+09	1.952345e+13	0.000000e+00	5.242719e-01	4.062101e+14	7.733187e+14	2.070045e+14	1.612974e+04	4.947397e+03	3.160123e+03	0	9.611449e-04
1.210000e+09	1.917175e+13	0.000000e+00	5.242719e-01	4.018646e+14	7.665151e+14	2.061210e+14	1.610214e+04	4.943276e+03	3.157491e+03	0	9.553385e-04
1.220000e+09	1.882675e+13	0.000000e+00	5.242719e-01	3.975993e+14	7.598257e+14	2.052434e+14	1.607484e+04	4.939196e+03	3.154885e+03	0	9.495733e-04
1.230000e+09	1.848828e+13	0.000000e+00	5.242719e-01	3.934121e+14	7.532477e+14	2.043717e+14	1.604782e+04	4.935155e+03	3.152304e+03	0	9.438483e-04
1.240000e+09	1.815616e+13	0.000000e+00	5.242719e-01	3.893010e+14	7.467784e+14	2.035057e+14	1.602108e+04	4.931153e+03	3.149747e+03	0	9.381624e-04
1.250000e+09	1.783023e+13	0.000000e+00	5.242719e-01	3.852641e+14	7.404152e+14	2.026454e+14	1.599463e+04	4.927189e+03	3.147215e+03	0	9.325147e-04
1.260000e+09	1.751033e+13	0.000000e+00	5.242719e-01	3.812993e+14	7.341554e+14	2.017907e+14	1.596845e+04	4.923262e+03	3.144707e+03	0	9.269042e-04
1.270000e+09	1.719631e+13	0.000000e+00	5.242719e-01	3.774051e+14	7.279966e+14	2.009417e+14	1.594253e+04	4.919372e+03	3.142222e+03	0	9.213299e-04
1.280000e+09	1.688802e+13	0.000000e+00	5.242719e-01	3.735794e+14	7.219363e+14	2.000983e+14	1.591688e+04	4.915518e+03	3.139760e+03	0	9.157908e-04
1.290000e+09	1.658531e+13	0.000000e+00	5.242719e-01	3.698208e+14	7.159723e+14	1.992604e+14	1.589149e+04	4.911699e+03	3.137321e+03	0	9.102861e-04
1.300000e+09	1.628805e+13	0.000000e+00	5.242719e-01	3.661275e+14	7.101022e+14	1.984281e+14	1.586636e+04	4.907915e+03	3.134904e+03	0	9.048149e-04
1.310000e+09	1.599609e+13	0.000000e+00	5.242719e-01	3.624979e+14	7.043240e+14	1.976012e+14	1.584147e+04	4.904166e+03	3.132509e+03	0	8.993761e-04
1.320000e+09	1.570932e+13	0.000000e+00	5.242719e-01	3.589305e+14	6.986354e+14	1.967797e+14	1.581683e+04	4.900450e+03	3.130136e+03	0	8.939691e-04
1.330000e+09	1.542760e+13	0.000000e+00	5.242719e-01	3.554237e+14	6.930344e+14	1.959635e+14	1.579243e+04	4.896767e+03	3.127783e+03	0	8.885928e-04
1.340000e+09	1.515080e+13	0.000000e+00	5.242719e-01	3.519762e+14	6.875190e+14	1.951527e+14	1.576827e+04	4.893117e+03	3.125452e+03	0	8.832465e-04
1.350000e+09	1.487882e+13	0.000000e+00	5.242719e-01	3.485865e+14	6.820873e+14	1.943472e+14	1.574435e+04	4.889499e+03	3.123141e+03	0	8.779293e-04
1.360000e+09	1.461153e+13	0.000000e+00	5.242719e-01	3.452532e+14	6.767374e+14	1.935470e+14	1.572065e+04	4.885913e+03	3.120850e+03	0	8.726403e-04
