#t		Qconv[W]	Ri[Rp]		R*[Rp]		Qc[W]		Qm[W]		Qr[W]		Tcmb[K]		Tl[K]		Tup[K]		RiFlag		Bs[T]
0.000000e+00	8.111064e+11	0.000000e+00	3.718592e-01	3.726906e+13	2.058715e+15	1.648211e+14	5.118179e+03	3.520371e+03	2.130973e+03	0	4.090009e-04
1.000000e+07	7.970490e+11	0.000000e+00	3.718592e-01	3.665886e+13	1.776047e+15	1.639079e+14	5.098148e+03	3.416375e+03	2.068021e+03	0	4.066243e-04
2.000000e+07	7.781978e+11	0.000000e+00	3.718592e-01	3.584430e+13	1.554272e+15	1.630015e+14	5.078437e+03	3.327506e+03	2.014227e+03	0	4.033930e-04
3.000000e+07	7.569667e+11	0.000000e+00	3.718592e-01	3.492842e+13	1.376872e+15	1.621018e+14	5.059155e+03	3.250596e+03	1.967671e+03	0	3.996906e-04
4.000000e+07	7.347717e+11	0.000000e+00	3.718592e-01	3.397166e+13	1.232559e+15	1.612089e+14	5.040359e+03	3.183312e+03	1.926942e+03	0	3.957453e-04
5.000000e+07	7.124474e+11	0.000000e+00	3.718592e-01	3.300965e+13	1.113418e+15	1.603227e+14	5.022070e+03	3.123895e+03	1.890975e+03	0	3.916961e-04
6.000000e+07	6.904824e+11	0.000000e+00	3.718592e-01	3.206324e+13	1.013778e+15	1.594430e+14	5.004293e+03	3.070997e+03	1.858955e+03	0	3.876286e-04
7.000000e+07	6.691562e+11	0.000000e+00	3.718592e-01	3.114435e+13	9.294869e+14	1.585699e+14	4.987020e+03	3.023566e+03	1.830244e+03	0	3.835961e-04
8.000000e+07	6.486204e+11	0.000000e+00	3.718592e-01	3.025943e+13	8.574521e+14	1.577033e+14	4.970236e+03	2.980770e+03	1.804338e+03	0	3.796312e-04
9.000000e+07	6.289472e+11	0.000000e+00	3.718592e-01	2.941156e+13	7.953294e+14	1.568432e+14	4.953925e+03	2.941940e+03	1.780833e+03	0	3.757535e-04
1.000000e+08	6.101606e+11	0.000000e+00	3.718592e-01	2.860176e+13	7.413162e+14	1.559894e+14	4.938067e+03	2.906532e+03	1.759400e+03	0	3.719744e-04
1.100000e+08	5.922545e+11	0.000000e+00	3.718592e-01	2.782975e+13	6.940068e+14	1.551420e+14	4.922641e+03	2.874100e+03	1.739768e+03	0	3.682995e-04
1.200000e+08	5.752051e+11	0.000000e+00	3.718592e-01	2.709450e+13	6.522921e+14	1.543008e+14	4.907629e+03	2.844274e+03	1.721713e+03	0	3.647309e-04
1.300000e+08	5.589782e+11	0.000000e+00	3.718592e-01	2.639456e+13	6.152864e+14	1.534659e+14	4.893009e+03	2.816743e+03	1.705049e+03	0	3.612684e-04
1.400000e+08	5.435344e+11	0.000000e+00	3.718592e-01	2.572822e+13	5.822757e+14	1.526371e+14	4.878765e+03	2.791247e+03	1.689615e+03	0	3.579101e-04
1.500000e+08	5.288317e+11	0.000000e+00	3.718592e-01	2.509368e+13	5.526787e+14	1.518145e+14	4.864877e+03	2.767562e+03	1.675278e+03	0	3.546534e-04
1.600000e+08	5.148280e+11	0.000000e+00	3.718592e-01	2.448915e+13	5.260180e+14	1.509980e+14	4.851329e+03	2.745499e+03	1.661923e+03	0	3.514949e-04
1.700000e+08	5.014818e+11	0.000000e+00	3.718592e-01	2.391283e+13	5.018984e+14	1.501875e+14	4.838105e+03	2.724893e+03	1.649449e+03	0	3.484309e-04
1.800000e+08	4.887531e+11	0.000000e+00	3.718592e-01	2.336303e+13	4.799903e+14	1.493829e+14	4.825190e+03	2.705601e+03	1.637771e+03	0	3.454576e-04
1.900000e+08	4.766040e+11	0.000000e+00	3.718592e-01	2.283811e+13	4.600171e+14	1.485843e+14	4.812570e+03	2.687500e+03	1.626815e+03	0	3.425712e-04
2.000000e+08	4.649988e+11	0.000000e+00	3.718592e-01	2.233654e+13	4.417450e+14	1.477916e+14	4.800232e+03	2.670482e+03	1.616513e+03	0	3.397678e-04
2.100000e+08	4.539038e+11	0.000000e+00	3.718592e-01	2.185688e+13	4.249751e+14	1.470047e+14	4.788163e+03	2.654450e+03	1.606808e+03	0	3.370437e-04
2.200000e+08	4.432877e+11	0.000000e+00	3.718592e-01	2.139779e+13	4.095375e+14	1.462235e+14	4.776351e+03	2.639321e+03	1.597650e+03	0	3.343953e-04
2.300000e+08	4.331212e+11	0.000000e+00	3.718592e-01	2.095800e+13	3.952862e+14	1.454481e+14	4.764786e+03	2.625019e+03	1.588993e+03	0	3.318192e-04
2.400000e+08	4.233772e+11	0.000000e+00	3.718592e-01	2.053637e+13	3.820951e+14	1.446784e+14	4.753457e+03	2.611477e+03	1.580796e+03	0	3.293119e-04
2.500000e+08	4.140303e+11	0.000000e+00	3.718592e-01	2.013180e+13	3.698548e+14	1.439143e+14	4.742355e+03	2.598637e+03	1.573023e+03	0	3.268705e-04
2.600000e+08	4.050573e+11	0.000000e+00	3.718592e-01	1.974329e+13	3.584701e+14	1.431559e+14	4.731470e+03	2.586443e+03	1.565642e+03	0	3.244918e-04
2.700000e+08	3.964361e+11	0.000000e+00	3.718592e-01	1.936990e+13	3.478576e+14	1.424029e+14	4.720794e+03	2.574849e+03	1.558624e+03	0	3.221732e-04
2.800000e+08	3.881467e+11	0.000000e+00	3.718592e-01	1.901078e+13	3.379440e+14	1.416555e+14	4.710318e+03	2.563811e+03	1.551942e+03	0	3.199118e-04
2.900000e+08	3.801702e+11	0.000000e+00	3.718592e-01	1.866510e+13	3.286649e+14	1.409135e+14	4.700036e+03	2.553289e+03	1.545573e+03	0	3.177052e-04
3.000000e+08	3.724892e+11	0.000000e+00	3.718592e-01	1.833213e+13	3.199633e+14	1.401769e+14	4.689940e+03	2.543248e+03	1.539495e+03	0	3.155510e-04
3.100000e+08	3.650874e+11	0.000000e+00	3.718592e-01	1.801116e+13	3.117884e+14	1.394457e+14	4.680023e+03	2.533655e+03	1.533688e+03	0	3.134469e-04
3.200000e+08	3.579497e+11	0.000000e+00	3.718592e-01	1.770156e+13	3.040954e+14	1.387198e+14	4.670279e+03	2.524481e+03	1.528135e+03	0	3.113907e-04
3.300000e+08	3.510621e+11	0.000000e+00	3.718592e-01	1.740271e+13	2.968438e+14	1.379992e+14	4.660701e+03	2.515698e+03	1.522818e+03	0	3.093805e-04
3.400000e+08	3.444114e+11	0.000000e+00	3.718592e-01	1.711405e+13	2.899978e+14	1.372838e+14	4.651284e+03	2.507282e+03	1.517724e+03	0	3.074144e-04
3.500000e+08	3.379855e+11	0.000000e+00	3.718592e-01	1.683506e+13	2.835251e+14	1.365736e+14	4.642022e+03	2.499211e+03	1.512838e+03	0	3.054905e-04
3.600000e+08	3.317729e+11	0.000000e+00	3.718592e-01	1.656525e+13	2.773965e+14	1.358686e+14	4.632911e+03	2.491462e+03	1.508147e+03	0	3.036071e-04
3.700000e+08	3.257630e+11	0.000000e+00	3.718592e-01	1.630417e+13	2.715859e+14	1.351687e+14	4.623945e+03	2.484017e+03	1.503641e+03	0	3.017627e-04
3.800000e+08	3.199457e+11	0.000000e+00	3.718592e-01	1.605137e+13	2.660695e+14	1.344738e+14	4.615120e+03	2.476859e+03	1.499308e+03	0	2.999557e-04
3.900000e+08	3.143117e+11	0.000000e+00	3.718592e-01	1.580647e+13	2.608260e+14	1.337840e+14	4.606431e+03	2.469970e+03	1.495138e+03	0	2.981846e-04
4.000000e+08	3.088524e+11	0.000000e+00	3.718592e-01	1.556909e+13	2.558357e+14	1.330991e+14	4.597873e+03	2.463336e+03	1.491122e+03	0	2.964481e-04
4.100000e+08	3.035594e+11	0.000000e+00	3.718592e-01	1.533888e+13	2.510810e+14	1.324192e+14	4.589444e+03	2.456942e+03	1.487251e+03	0	2.947449e-04
4.200000e+08	2.984252e+11	0.000000e+00	3.718592e-01	1.511550e+13	2.465457e+14	1.317441e+14	4.581139e+03	2.450775e+03	1.483518e+03	0	2.930737e-04
4.300000e+08	2.934424e+11	0.000000e+00	3.718592e-01	1.489865e+13	2.422150e+14	1.310740e+14	4.572954e+03	2.444824e+03	1.479916e+03	0	2.914334e-04
4.400000e+08	2.886044e+11	0.000000e+00	3.718592e-01	1.468803e+13	2.380753e+14	1.304086e+14	4.564886e+03	2.439076e+03	1.476437e+03	0	2.898228e-04
4.500000e+08	2.839046e+11	0.000000e+00	3.718592e-01	1.448337e+13	2.341144e+14	1.297481e+14	4.556932e+03	2.433521e+03	1.473074e+03	0	2.882410e-04
4.600000e+08	2.793370e+11	0.000000e+00	3.718592e-01	1.428441e+13	2.303209e+14	1.290923e+14	4.549088e+03	2.428150e+03	1.469823e+03	0	2.866869e-04
4.700000e+08	2.748961e+11	0.000000e+00	3.718592e-01	1.409090e+13	2.266842e+14	1.284412e+14	4.541351e+03	2.422953e+03	1.466677e+03	0	2.851595e-04
4.800000e+08	2.705763e+11	0.000000e+00	3.718592e-01	1.390263e+13	2.231948e+14	1.277947e+14	4.533718e+03	2.417921e+03	1.463631e+03	0	2.836579e-04
4.900000e+08	2.663728e+11	0.000000e+00	3.718592e-01	1.371936e+13	2.198437e+14	1.271529e+14	4.526188e+03	2.413047e+03	1.460680e+03	0	2.821813e-04
5.000000e+08	2.622807e+11	0.000000e+00	3.718592e-01	1.354090e+13	2.166229e+14	1.265157e+14	4.518756e+03	2.408322e+03	1.457821e+03	0	2.807289e-04
5.100000e+08	2.582955e+11	0.000000e+00	3.718592e-01	1.336705e+13	2.135246e+14	1.258830e+14	4.511420e+03	2.403740e+03	1.455047e+03	0	2.792998e-04
5.200000e+08	2.544128e+11	0.000000e+00	3.718592e-01	1.319762e+13	2.105419e+14	1.252548e+14	4.504178e+03	2.399295e+03	1.452356e+03	0	2.778932e-04
5.300000e+08	2.506288e+11	0.000000e+00	3.718592e-01	1.303245e+13	2.076683e+14	1.246311e+14	4.497027e+03	2.394978e+03	1.449743e+03	0	2.765086e-04
5.400000e+08	2.469395e+11	0.000000e+00	3.718592e-01	1.287137e+13	2.048977e+14	1.240119e+14	4.489966e+03	2.390786e+03	1.447206e+03	0	2.751451e-04
5.500000e+08	2.433414e+11	0.000000e+00	3.718592e-01	1.271422e+13	2.022245e+14	1.233971e+14	4.482991e+03	2.386712e+03	1.444739e+03	0	2.738022e-04
5.600000e+08	2.398309e+11	0.000000e+00	3.718592e-01	1.256086e+13	1.996434e+14	1.227866e+14	4.476102e+03	2.382751e+03	1.442342e+03	0	2.724792e-04
5.700000e+08	2.364048e+11	0.000000e+00	3.718592e-01	1.241114e+13	1.971496e+14	1.221805e+14	4.469295e+03	2.378898e+03	1.440009e+03	0	2.711755e-04
5.800000e+08	2.330600e+11	0.000000e+00	3.718592e-01	1.226493e+13	1.947385e+14	1.215786e+14	4.462569e+03	2.375148e+03	1.437739e+03	0	2.698905e-04
5.900000e+08	2.297935e+11	0.000000e+00	3.718592e-01	1.212211e+13	1.924060e+14	1.209811e+14	4.455922e+03	2.371497e+03	1.435529e+03	0	2.686237e-04
6.000000e+08	2.266026e+11	0.000000e+00	3.718592e-01	1.198255e+13	1.901480e+14	1.203877e+14	4.449352e+03	2.367941e+03	1.433377e+03	0	2.673745e-04
6.100000e+08	2.234845e+11	0.000000e+00	3.718592e-01	1.184613e+13	1.879607e+14	1.197986e+14	4.442857e+03	2.364475e+03	1.431279e+03	0	2.661424e-04
6.200000e+08	2.204367e+11	0.000000e+00	3.718592e-01	1.171275e+13	1.858409e+14	1.192136e+14	4.436436e+03	2.361097e+03	1.429234e+03	0	2.649270e-04
6.300000e+08	2.174568e+11	0.000000e+00	3.718592e-01	1.158231e+13	1.837851e+14	1.186328e+14	4.430087e+03	2.357802e+03	1.427239e+03	0	2.637278e-04
6.400000e+08	2.145424e+11	0.000000e+00	3.718592e-01	1.145469e+13	1.817903e+14	1.180560e+14	4.423809e+03	2.354586e+03	1.425293e+03	0	2.625444e-04
6.500000e+08	2.116914e+11	0.000000e+00	3.718592e-01	1.132982e+13	1.798537e+14	1.174834e+14	4.417599e+03	2.351448e+03	1.423393e+03	0	2.613762e-04
6.600000e+08	2.089015e+11	0.000000e+00	3.718592e-01	1.120760e+13	1.779726e+14	1.169147e+14	4.411457e+03	2.348384e+03	1.421538e+03	0	2.602229e-04
6.700000e+08	2.061710e+11	0.000000e+00	3.718592e-01	1.108793e+13	1.761444e+14	1.163500e+14	4.405381e+03	2.345390e+03	1.419726e+03	0	2.590841e-04
6.800000e+08	2.034977e+11	0.000000e+00	3.718592e-01	1.097074e+13	1.743667e+14	1.157894e+14	4.399369e+03	2.342465e+03	1.417955e+03	0	2.579595e-04
6.900000e+08	2.008798e+11	0.000000e+00	3.718592e-01	1.085596e+13	1.726373e+14	1.152326e+14	4.393421e+03	2.339605e+03	1.416224e+03	0	2.568485e-04
7.000000e+08	1.983156e+11	0.000000e+00	3.718592e-01	1.074349e+13	1.709541e+14	1.146797e+14	4.387535e+03	2.336808e+03	1.414531e+03	0	2.557510e-04
7.100000e+08	1.958035e+11	0.000000e+00	3.718592e-01	1.063328e+13	1.693151e+14	1.141308e+14	4.381710e+03	2.334072e+03	1.412875e+03	0	2.546665e-04
7.200000e+08	1.933417e+11	0.000000e+00	3.718592e-01	1.052524e+13	1.677183e+14	1.135856e+14	4.375944e+03	2.331394e+03	1.411254e+03	0	2.535947e-04
7.300000e+08	1.909287e+11	0.000000e+00	3.718592e-01	1.041932e+13	1.661621e+14	1.130443e+14	4.370237e+03	2.328773e+03	1.409667e+03	0	2.525353e-04
7.400000e+08	1.885632e+11	0.000000e+00	3.718592e-01	1.031545e+13	1.646446e+14	1.125067e+14	4.364586e+03	2.326206e+03	1.408113e+03	0	2.514880e-04
7.500000e+08	1.862435e+11	0.000000e+00	3.718592e-01	1.021357e+13	1.631644e+14	1.119729e+14	4.358992e+03	2.323691e+03	1.406591e+03	0	2.504525e-04
7.600000e+08	1.839684e+11	0.000000e+00	3.718592e-01	1.011362e+13	1.617199e+14	1.114428e+14	4.353453e+03	2.321226e+03	1.405099e+03	0	2.494285e-04
7.700000e+08	1.817366e+11	0.000000e+00	3.718592e-01	1.001554e+13	1.603096e+14	1.109164e+14	4.347968e+03	2.318810e+03	1.403637e+03	0	2.484157e-04
7.800000e+08	1.795468e+11	0.000000e+00	3.718592e-01	9.919288e+12	1.589323e+14	1.103937e+14	4.342537e+03	2.316441e+03	1.402203e+03	0	2.474140e-04
7.900000e+08	1.773978e+11	0.000000e+00	3.718592e-01	9.824799e+12	1.575865e+14	1.098746e+14	4.337157e+03	2.314118e+03	1.400796e+03	0	2.464229e-04
8.000000e+08	1.752884e+11	0.000000e+00	3.718592e-01	9.732027e+12	1.562712e+14	1.093591e+14	4.331828e+03	2.311838e+03	1.399416e+03	0	2.454423e-04
8.100000e+08	1.732175e+11	0.000000e+00	3.718592e-01	9.640925e+12	1.549851e+14	1.088471e+14	4.326549e+03	2.309600e+03	1.398061e+03	0	2.444719e-04
8.200000e+08	1.711841e+11	0.000000e+00	3.718592e-01	9.551447e+12	1.537272e+14	1.083387e+14	4.321320e+03	2.307403e+03	1.396731e+03	0	2.435115e-04
8.300000e+08	1.691871e+11	0.000000e+00	3.718592e-01	9.463547e+12	1.524964e+14	1.078338e+14	4.316139e+03	2.305245e+03	1.395425e+03	0	2.425609e-04
8.400000e+08	1.672255e+11	0.000000e+00	3.718592e-01	9.377183e+12	1.512916e+14	1.073324e+14	4.311005e+03	2.303126e+03	1.394142e+03	0	2.416198e-04
8.500000e+08	1.652984e+11	0.000000e+00	3.718592e-01	9.292314e+12	1.501120e+14	1.068345e+14	4.305919e+03	2.301043e+03	1.392882e+03	0	2.406880e-04
8.600000e+08	1.634048e+11	0.000000e+00	3.718592e-01	9.208900e+12	1.489567e+14	1.063400e+14	4.300878e+03	2.298996e+03	1.391643e+03	0	2.397654e-04
8.700000e+08	1.615439e+11	0.000000e+00	3.718592e-01	9.126903e+12	1.478247e+14	1.058489e+14	4.295882e+03	2.296984e+03	1.390425e+03	0	2.388518e-04
8.800000e+08	1.597147e+11	0.000000e+00	3.718592e-01	9.046285e+12	1.467154e+14	1.053612e+14	4.290931e+03	2.295005e+03	1.389227e+03	0	2.379469e-04
8.900000e+08	1.579166e+11	0.000000e+00	3.718592e-01	8.967011e+12	1.456278e+14	1.048768e+14	4.286023e+03	2.293058e+03	1.388048e+03	0	2.370505e-04
9.000000e+08	1.561486e+11	0.000000e+00	3.718592e-01	8.889047e+12	1.445612e+14	1.043958e+14	4.281158e+03	2.291143e+03	1.386889e+03	0	2.361625e-04
9.100000e+08	1.544100e+11	0.000000e+00	3.718592e-01	8.812360e+12	1.435150e+14	1.039180e+14	4.276335e+03	2.289258e+03	1.385748e+03	0	2.352828e-04
9.200000e+08	1.527001e+11	0.000000e+00	3.718592e-01	8.736916e+12	1.424884e+14	1.034435e+14	4.271554e+03	2.287402e+03	1.384625e+03	0	2.344110e-04
9.300000e+08	1.510181e+11	0.000000e+00	3.718592e-01	8.662687e+12	1.414808e+14	1.029723e+14	4.266813e+03	2.285575e+03	1.383519e+03	0	2.335472e-04
9.400000e+08	1.493634e+11	0.000000e+00	3.718592e-01	8.589641e+12	1.404915e+14	1.025043e+14	4.262113e+03	2.283776e+03	1.382429e+03	0	2.326910e-04
9.500000e+08	1.477352e+11	0.000000e+00	3.718592e-01	8.517750e+12	1.395201e+14	1.020395e+14	4.257452e+03	2.282003e+03	1.381356e+03	0	2.318425e-04
9.600000e+08	1.461330e+11	0.000000e+00	3.718592e-01	8.446985e+12	1.385659e+14	1.015778e+14	4.252831e+03	2.280257e+03	1.380299e+03	0	2.310013e-04
9.700000e+08	1.445561e+11	0.000000e+00	3.718592e-01	8.377321e+12	1.376283e+14	1.011193e+14	4.248247e+03	2.278535e+03	1.379257e+03	0	2.301674e-04
9.800000e+08	1.430039e+11	0.000000e+00	3.718592e-01	8.308730e+12	1.367069e+14	1.006640e+14	4.243701e+03	2.276838e+03	1.378230e+03	0	2.293406e-04
9.900000e+08	1.414758e+11	0.000000e+00	3.718592e-01	8.241187e+12	1.358012e+14	1.002117e+14	4.239192e+03	2.275165e+03	1.377217e+03	0	2.285208e-04
1.000000e+09	1.399713e+11	0.000000e+00	3.718592e-01	8.174669e+12	1.349106e+14	9.976245e+13	4.234720e+03	2.273515e+03	1.376219e+03	0	2.277078e-04
1.010000e+09	1.384898e+11	0.000000e+00	3.718592e-01	8.109151e+12	1.340347e+14	9.931628e+13	4.230284e+03	2.271888e+03	1.375233e+03	0	2.269016e-04
1.020000e+09	1.370308e+11	0.000000e+00	3.718592e-01	8.044610e+12	1.331731e+14	9.887314e+13	4.225883e+03	2.270282e+03	1.374261e+03	0	2.261020e-04
1.030000e+09	1.355937e+11	0.000000e+00	3.718592e-01	7.981025e+12	1.323254e+14	9.843299e+13	4.221517e+03	2.268698e+03	1.373302e+03	0	2.253088e-04
1.040000e+09	1.341781e+11	0.000000e+00	3.718592e-01	7.918373e+12	1.314911e+14	9.799581e+13	4.217186e+03	2.267134e+03	1.372356e+03	0	2.245220e-04
1.050000e+09	1.327835e+11	0.000000e+00	3.718592e-01	7.856634e+12	1.306699e+14	9.756159e+13	4.212888e+03	2.265590e+03	1.371421e+03	0	2.237414e-04
1.060000e+09	1.314093e+11	0.000000e+00	3.718592e-01	7.795788e+12	1.298613e+14	9.713030e+13	4.208624e+03	2.264066e+03	1.370498e+03	0	2.229669e-04
1.070000e+09	1.300553e+11	0.000000e+00	3.718592e-01	7.735814e+12	1.290652e+14	9.670191e+13	4.204393e+03	2.262560e+03	1.369587e+03	0	2.221984e-04
1.080000e+09	1.287209e+11	0.000000e+00	3.718592e-01	7.676695e+12	1.282809e+14	9.627641e+13	4.200194e+03	2.261073e+03	1.368687e+03	0	2.214359e-04
1.090000e+09	1.274056e+11	0.000000e+00	3.718592e-01	7.618411e+12	1.275084e+14	9.585376e+13	4.196028e+03	2.259604e+03	1.367798e+03	0	2.206791e-04
1.100000e+09	1.261091e+11	0.000000e+00	3.718592e-01	7.560945e+12	1.267472e+14	9.543395e+13	4.191893e+03	2.258153e+03	1.366919e+03	0	2.199280e-04
1.110000e+09	1.248310e+11	0.000000e+00	3.718592e-01	7.504278e+12	1.259970e+14	9.501696e+13	4.187789e+03	2.256718e+03	1.366051e+03	0	2.191825e-04
1.120000e+09	1.235709e+11	0.000000e+00	3.718592e-01	7.448396e+12	1.252575e+14	9.460277e+13	4.183715e+03	2.255300e+03	1.365193e+03	0	2.184425e-04
1.130000e+09	1.223284e+11	0.000000e+00	3.718592e-01	7.393280e+12	1.245286e+14	9.419134e+13	4.179672e+03	2.253899e+03	1.364344e+03	0	2.177079e-04
1.140000e+09	1.211032e+11	0.000000e+00	3.718592e-01	7.338915e+12	1.238098e+14	9.378266e+13	4.175659e+03	2.252513e+03	1.363505e+03	0	2.169786e-04
1.150000e+09	1.198948e+11	0.000000e+00	3.718592e-01	7.285285e+12	1.231009e+14	9.337672e+13	4.171675e+03	2.251142e+03	1.362675e+03	0	2.162545e-04
1.160000e+09	1.187029e+11	0.000000e+00	3.718592e-01	7.232376e+12	1.224016e+14	9.297348e+13	4.167720e+03	2.249786e+03	1.361855e+03	0	2.155355e-04
1.170000e+09	1.175273e+11	0.000000e+00	3.718592e-01	7.180173e+12	1.217118e+14	9.257293e+13	4.163794e+03	2.248445e+03	1.361043e+03	0	2.148216e-04
1.180000e+09	1.163675e+11	0.000000e+00	3.718592e-01	7.128662e+12	1.210312e+14	9.217504e+13	4.159896e+03	2.247118e+03	1.360240e+03	0	2.141126e-04
1.190000e+09	1.152232e+11	0.000000e+00	3.718592e-01	7.077828e+12	1.203596e+14	9.177980e+13	4.156026e+03	2.245805e+03	1.359445e+03	0	2.134085e-04
1.200000e+09	1.140942e+11	0.000000e+00	3.718592e-01	7.027659e+12	1.196967e+14	9.138718e+13	4.152184e+03	2.244506e+03	1.358658e+03	0	2.127092e-04
1.210000e+09	1.129802e+11	0.000000e+00	3.718592e-01	6.978141e+12	1.190423e+14	9.099716e+13	4.148369e+03	2.243219e+03	1.357880e+03	0	2.120146e-04
1.220000e+09	1.118807e+11	0.000000e+00	3.718592e-01	6.929262e+12	1.183962e+14	9.060973e+13	4.144580e+03	2.241946e+03	1.357109e+03	0	2.113246e-04
1.230000e+09	1.107956e+11	0.000000e+00	3.718592e-01	6.881009e+12	1.177583e+14	9.022486e+13	4.140818e+03	2.240685e+03	1.356345e+03	0	2.106392e-04
1.240000e+09	1.097246e+11	0.000000e+00	3.718592e-01	6.833369e+12	1.171283e+14	8.984254e+13	4.137082e+03	2.239437e+03	1.355590e+03	0	2.099583e-04
1.250000e+09	1.086674e+11	0.000000e+00	3.718592e-01	6.786333e+12	1.165060e+14	8.946274e+13	4.133372e+03	2.238200e+03	1.354841e+03	0	2.092818e-04
1.260000e+09	1.076238e+11	0.000000e+00	3.718592e-01	6.739887e+12	1.158914e+14	8.908544e+13	4.129688e+03	2.236975e+03	1.354100e+03	0	2.086096e-04
1.270000e+09	1.065934e+11	0.000000e+00	3.718592e-01	6.694021e+12	1.152841e+14	8.871063e+13	4.126028e+03	2.235762e+03	1.353365e+03	0	2.079418e-04
1.280000e+09	1.055760e+11	0.000000e+00	3.718592e-01	6.648724e+12	1.146841e+14	8.833829e+13	4.122394e+03	2.234560e+03	1.352638e+03	0	2.072781e-04
1.290000e+09	1.045715e+11	0.000000e+00	3.718592e-01	6.603985e+12	1.140911e+14	8.796839e+13	4.118784e+03	2.233369e+03	1.351917e+03	0	2.066186e-04
1.300000e+09	1.035795e+11	0.000000e+00	3.718592e-01	6.559794e+12	1.135051e+14	8.760092e+13	4.115198e+03	2.232188e+03	1.351202e+03	0	2.059631e-04
1.310000e+09	1.025998e+11	0.000000e+00	3.718592e-01	6.516142e+12	1.129258e+14	8.723586e+13	4.111636e+03	2.231018e+03	1.350494e+03	0	2.053117e-04
1.320000e+09	1.016321e+11	0.000000e+00	3.718592e-01	6.473017e+12	1.123532e+14	8.687319e+13	4.108098e+03	2.229858e+03	1.349792e+03	0	2.046643e-04
1.330000e+09	1.006764e+11	0.000000e+00	3.718592e-01	6.430411e+12	1.117870e+14	8.651289e+13	4.104583e+03	2.228709e+03	1.349096e+03	0	2.040207e-04
1.340000e+09	9.973233e+10	0.000000e+00	3.718592e-01	6.388314e+12	1.112272e+14	8.615495e+13	4.101091e+03	2.227569e+03	1.348406e+03	0	2.033810e-04
1.350000e+09	9.879969e+10	0.000000e+00	3.718592e-01	6.346718e+12	1.106736e+14	8.579934e+13	4.097622e+03	2.226438e+03	1.347722e+03	0	2.027450e-04
1.360000e+09	9.787830e+10	0.000000e+00	3.718592e-01	6.305613e+12	1.101261e+14	8.544605e+13	4.094176e+03	2.225318e+03	1.347043e+03	0	2.021128e-04
