#t		Qconv[W]	Ri[Rp]		R*[Rp]		Qc[W]		Qm[W]		Qr[W]		Tcmb[K]		Tl[K]		Tup[K]		RiFlag		Bs[T]
0.000000e+00	2.828835e+12	0.000000e+00	3.618090e-01	9.767286e+13	3.209946e+15	2.808695e+14	6.974279e+03	4.467810e+03	2.288272e+03	0	6.109743e-04
1.000000e+07	2.740440e+12	0.000000e+00	3.618090e-01	9.489659e+13	2.848601e+15	2.793132e+14	6.943440e+03	4.365531e+03	2.235888e+03	0	6.045430e-04
2.000000e+07	2.650257e+12	0.000000e+00	3.618090e-01	9.206637e+13	2.553079e+15	2.777686e+14	6.913463e+03	4.275719e+03	2.189889e+03	0	5.978374e-04
3.000000e+07	2.560843e+12	0.000000e+00	3.618090e-01	8.926118e+13	2.308013e+15	2.762356e+14	6.884368e+03	4.196145e+03	2.149133e+03	0	5.910371e-04
4.000000e+07	2.473672e+12	0.000000e+00	3.618090e-01	8.652658e+13	2.102281e+15	2.747140e+14	6.856149e+03	4.125089e+03	2.112741e+03	0	5.842532e-04
5.000000e+07	2.389561e+12	0.000000e+00	3.618090e-01	8.388779e+13	1.927674e+15	2.732038e+14	6.828783e+03	4.061200e+03	2.080019e+03	0	5.775547e-04
6.000000e+07	2.308925e+12	0.000000e+00	3.618090e-01	8.135757e+13	1.778033e+15	2.717048e+14	6.802243e+03	4.003404e+03	2.050418e+03	0	5.709837e-04
7.000000e+07	2.231932e+12	0.000000e+00	3.618090e-01	7.894103e+13	1.648663e+15	2.702169e+14	6.776495e+03	3.950835e+03	2.023493e+03	0	5.645651e-04
8.000000e+07	2.158595e+12	0.000000e+00	3.618090e-01	7.663857e+13	1.535933e+15	2.687402e+14	6.751504e+03	3.902787e+03	1.998885e+03	0	5.583126e-04
9.000000e+07	2.088838e+12	0.000000e+00	3.618090e-01	7.444779e+13	1.437002e+15	2.672744e+14	6.727235e+03	3.858679e+03	1.976294e+03	0	5.522325e-04
1.000000e+08	2.022532e+12	0.000000e+00	3.618090e-01	7.236462e+13	1.349616e+15	2.658195e+14	6.703654e+03	3.818026e+03	1.955473e+03	0	5.463264e-04
1.100000e+08	1.959517e+12	0.000000e+00	3.618090e-01	7.038410e+13	1.271972e+15	2.643754e+14	6.680726e+03	3.780423e+03	1.936214e+03	0	5.405926e-04
1.200000e+08	1.899622e+12	0.000000e+00	3.618090e-01	6.850086e+13	1.202609e+15	2.629420e+14	6.658420e+03	3.745527e+03	1.918341e+03	0	5.350276e-04
1.300000e+08	1.842669e+12	0.000000e+00	3.618090e-01	6.670939e+13	1.140338e+15	2.615192e+14	6.636707e+03	3.713044e+03	1.901704e+03	0	5.296263e-04
1.400000e+08	1.788484e+12	0.000000e+00	3.618090e-01	6.500426e+13	1.084175e+15	2.601070e+14	6.615556e+03	3.682725e+03	1.886176e+03	0	5.243832e-04
1.500000e+08	1.736898e+12	0.000000e+00	3.618090e-01	6.338020e+13	1.033309e+15	2.587052e+14	6.594942e+03	3.654353e+03	1.871645e+03	0	5.192922e-04
1.600000e+08	1.687749e+12	0.000000e+00	3.618090e-01	6.183221e+13	9.870594e+14	2.573137e+14	6.574839e+03	3.627740e+03	1.858014e+03	0	5.143472e-04
1.700000e+08	1.640886e+12	0.000000e+00	3.618090e-01	6.035553e+13	9.448535e+14	2.559325e+14	6.555223e+03	3.602722e+03	1.845201e+03	0	5.095419e-04
1.800000e+08	1.596165e+12	0.000000e+00	3.618090e-01	5.894573e+13	9.062074e+14	2.545615e+14	6.536073e+03	3.579156e+03	1.833131e+03	0	5.048701e-04
1.900000e+08	1.553453e+12	0.000000e+00	3.618090e-01	5.759863e+13	8.707089e+14	2.532006e+14	6.517366e+03	3.556914e+03	1.821740e+03	0	5.003260e-04
2.000000e+08	1.512624e+12	0.000000e+00	3.618090e-01	5.631037e+13	8.380051e+14	2.518497e+14	6.499084e+03	3.535886e+03	1.810970e+03	0	4.959038e-04
2.100000e+08	1.473564e+12	0.000000e+00	3.618090e-01	5.507733e+13	8.077923e+14	2.505087e+14	6.481209e+03	3.515971e+03	1.800770e+03	0	4.915980e-04
2.200000e+08	1.436165e+12	0.000000e+00	3.618090e-01	5.389617e+13	7.798080e+14	2.491776e+14	6.463721e+03	3.497082e+03	1.791095e+03	0	4.874034e-04
2.300000e+08	1.400327e+12	0.000000e+00	3.618090e-01	5.276378e+13	7.538242e+14	2.478563e+14	6.446607e+03	3.479138e+03	1.781905e+03	0	4.833150e-04
2.400000e+08	1.365957e+12	0.000000e+00	3.618090e-01	5.167727e+13	7.296420e+14	2.465446e+14	6.429850e+03	3.462069e+03	1.773163e+03	0	4.793279e-04
2.500000e+08	1.332969e+12	0.000000e+00	3.618090e-01	5.063397e+13	7.070873e+14	2.452426e+14	6.413436e+03	3.445810e+03	1.764835e+03	0	4.754379e-04
2.600000e+08	1.301283e+12	0.000000e+00	3.618090e-01	4.963139e+13	6.860071e+14	2.439500e+14	6.397351e+03	3.430303e+03	1.756893e+03	0	4.716405e-04
2.700000e+08	1.270826e+12	0.000000e+00	3.618090e-01	4.866723e+13	6.662663e+14	2.426670e+14	6.381582e+03	3.415497e+03	1.749310e+03	0	4.679317e-04
2.800000e+08	1.241529e+12	0.000000e+00	3.618090e-01	4.773934e+13	6.477455e+14	2.413933e+14	6.366118e+03	3.401344e+03	1.742061e+03	0	4.643078e-04
2.900000e+08	1.213327e+12	0.000000e+00	3.618090e-01	4.684572e+13	6.303386e+14	2.401289e+14	6.350948e+03	3.387799e+03	1.735124e+03	0	4.607652e-04
3.000000e+08	1.186161e+12	0.000000e+00	3.618090e-01	4.598453e+13	6.139510e+14	2.388737e+14	6.336059e+03	3.374825e+03	1.728479e+03	0	4.573004e-04
3.100000e+08	1.159975e+12	0.000000e+00	3.618090e-01	4.515403e+13	5.984983e+14	2.376276e+14	6.321443e+03	3.362383e+03	1.722107e+03	0	4.539102e-04
3.200000e+08	1.134719e+12	0.000000e+00	3.618090e-01	4.435261e+13	5.839050e+14	2.363906e+14	6.307089e+03	3.350443e+03	1.715991e+03	0	4.505917e-04
3.300000e+08	1.110343e+12	0.000000e+00	3.618090e-01	4.357877e+13	5.701032e+14	2.351627e+14	6.292989e+03	3.338972e+03	1.710116e+03	0	4.473417e-04
3.400000e+08	1.086802e+12	0.000000e+00	3.618090e-01	4.283111e+13	5.570316e+14	2.339436e+14	6.279133e+03	3.327943e+03	1.704468e+03	0	4.441578e-04
3.500000e+08	1.064056e+12	0.000000e+00	3.618090e-01	4.210832e+13	5.446352e+14	2.327334e+14	6.265513e+03	3.317331e+03	1.699032e+03	0	4.410372e-04
3.600000e+08	1.042064e+12	0.000000e+00	3.618090e-01	4.140917e+13	5.328640e+14	2.315319e+14	6.252123e+03	3.307111e+03	1.693798e+03	0	4.379775e-04
3.700000e+08	1.020789e+12	0.000000e+00	3.618090e-01	4.073251e+13	5.216728e+14	2.303392e+14	6.238953e+03	3.297261e+03	1.688753e+03	0	4.349764e-04
3.800000e+08	1.000197e+12	0.000000e+00	3.618090e-01	4.007728e+13	5.110204e+14	2.291551e+14	6.225998e+03	3.287761e+03	1.683888e+03	0	4.320317e-04
3.900000e+08	9.802566e+11	0.000000e+00	3.618090e-01	3.944245e+13	5.008695e+14	2.279795e+14	6.213250e+03	3.278593e+03	1.679192e+03	0	4.291413e-04
4.000000e+08	9.609362e+11	0.000000e+00	3.618090e-01	3.882708e+13	4.911858e+14	2.268124e+14	6.200703e+03	3.269737e+03	1.674656e+03	0	4.263032e-04
4.100000e+08	9.422077e+11	0.000000e+00	3.618090e-01	3.823029e+13	4.819384e+14	2.256538e+14	6.188350e+03	3.261179e+03	1.670273e+03	0	4.235155e-04
4.200000e+08	9.240443e+11	0.000000e+00	3.618090e-01	3.765123e+13	4.730985e+14	2.245035e+14	6.176187e+03	3.252902e+03	1.666034e+03	0	4.207764e-04
4.300000e+08	9.064207e+11	0.000000e+00	3.618090e-01	3.708912e+13	4.646400e+14	2.233615e+14	6.164207e+03	3.244893e+03	1.661932e+03	0	4.180841e-04
4.400000e+08	8.893133e+11	0.000000e+00	3.618090e-01	3.654322e+13	4.565389e+14	2.222277e+14	6.152405e+03	3.237139e+03	1.657961e+03	0	4.154372e-04
4.500000e+08	8.726997e+11	0.000000e+00	3.618090e-01	3.601283e+13	4.487730e+14	2.211020e+14	6.140776e+03	3.229626e+03	1.654113e+03	0	4.128339e-04
4.600000e+08	8.565587e+11	0.000000e+00	3.618090e-01	3.549729e+13	4.413220e+14	2.199844e+14	6.129315e+03	3.222343e+03	1.650383e+03	0	4.102729e-04
4.700000e+08	8.408704e+11	0.000000e+00	3.618090e-01	3.499597e+13	4.341670e+14	2.188749e+14	6.118017e+03	3.215279e+03	1.646765e+03	0	4.077526e-04
4.800000e+08	8.256160e+11	0.000000e+00	3.618090e-01	3.450829e+13	4.272908e+14	2.177733e+14	6.106878e+03	3.208425e+03	1.643254e+03	0	4.052719e-04
4.900000e+08	8.107776e+11	0.000000e+00	3.618090e-01	3.403370e+13	4.206771e+14	2.166796e+14	6.095893e+03	3.201770e+03	1.639846e+03	0	4.028293e-04
5.000000e+08	7.963385e+11	0.000000e+00	3.618090e-01	3.357165e+13	4.143112e+14	2.155937e+14	6.085059e+03	3.195305e+03	1.636535e+03	0	4.004236e-04
5.100000e+08	7.822827e+11	0.000000e+00	3.618090e-01	3.312167e+13	4.081792e+14	2.145155e+14	6.074372e+03	3.189022e+03	1.633317e+03	0	3.980537e-04
5.200000e+08	7.685950e+11	0.000000e+00	3.618090e-01	3.268327e+13	4.022682e+14	2.134451e+14	6.063827e+03	3.182912e+03	1.630188e+03	0	3.957184e-04
5.300000e+08	7.552613e+11	0.000000e+00	3.618090e-01	3.225600e+13	3.965663e+14	2.123823e+14	6.053421e+03	3.176969e+03	1.627144e+03	0	3.934167e-04
5.400000e+08	7.422677e+11	0.000000e+00	3.618090e-01	3.183945e+13	3.910625e+14	2.113270e+14	6.043150e+03	3.171185e+03	1.624181e+03	0	3.911475e-04
5.500000e+08	7.296015e+11	0.000000e+00	3.618090e-01	3.143321e+13	3.857463e+14	2.102793e+14	6.033012e+03	3.165553e+03	1.621297e+03	0	3.889099e-04
5.600000e+08	7.172504e+11	0.000000e+00	3.618090e-01	3.103689e+13	3.806080e+14	2.092390e+14	6.023002e+03	3.160068e+03	1.618487e+03	0	3.867028e-04
5.700000e+08	7.052028e+11	0.000000e+00	3.618090e-01	3.065013e+13	3.756388e+14	2.082061e+14	6.013118e+03	3.154722e+03	1.615749e+03	0	3.845255e-04
5.800000e+08	6.934475e+11	0.000000e+00	3.618090e-01	3.027258e+13	3.708300e+14	2.071806e+14	6.003357e+03	3.149510e+03	1.613080e+03	0	3.823769e-04
5.900000e+08	6.819741e+11	0.000000e+00	3.618090e-01	2.990391e+13	3.661738e+14	2.061623e+14	5.993716e+03	3.144427e+03	1.610477e+03	0	3.802563e-04
6.000000e+08	6.707724e+11	0.000000e+00	3.618090e-01	2.954382e+13	3.616628e+14	2.051512e+14	5.984191e+03	3.139468e+03	1.607937e+03	0	3.781628e-04
6.100000e+08	6.598329e+11	0.000000e+00	3.618090e-01	2.919199e+13	3.572901e+14	2.041472e+14	5.974781e+03	3.134627e+03	1.605458e+03	0	3.760957e-04
6.200000e+08	6.491464e+11	0.000000e+00	3.618090e-01	2.884814e+13	3.530491e+14	2.031504e+14	5.965482e+03	3.129901e+03	1.603037e+03	0	3.740543e-04
6.300000e+08	6.387043e+11	0.000000e+00	3.618090e-01	2.851200e+13	3.489338e+14	2.021606e+14	5.956293e+03	3.125285e+03	1.600672e+03	0	3.720378e-04
6.400000e+08	6.284983e+11	0.000000e+00	3.618090e-01	2.818332e+13	3.449382e+14	2.011778e+14	5.947210e+03	3.120774e+03	1.598362e+03	0	3.700455e-04
6.500000e+08	6.185204e+11	0.000000e+00	3.618090e-01	2.786183e+13	3.410572e+14	2.002019e+14	5.938231e+03	3.116364e+03	1.596104e+03	0	3.680768e-04
6.600000e+08	6.087630e+11	0.000000e+00	3.618090e-01	2.754731e+13	3.372854e+14	1.992328e+14	5.929355e+03	3.112053e+03	1.593896e+03	0	3.661310e-04
6.700000e+08	5.992189e+11	0.000000e+00	3.618090e-01	2.723952e+13	3.336182e+14	1.982706e+14	5.920578e+03	3.107836e+03	1.591736e+03	0	3.642075e-04
6.800000e+08	5.898812e+11	0.000000e+00	3.618090e-01	2.693826e+13	3.300510e+14	1.973151e+14	5.911899e+03	3.103709e+03	1.589622e+03	0	3.623058e-04
6.900000e+08	5.807432e+11	0.000000e+00	3.618090e-01	2.664330e+13	3.265794e+14	1.963664e+14	5.903315e+03	3.099670e+03	1.587554e+03	0	3.604252e-04
7.000000e+08	5.717985e+11	0.000000e+00	3.618090e-01	2.635446e+13	3.231996e+14	1.954243e+14	5.894826e+03	3.095716e+03	1.585528e+03	0	3.585652e-04
7.100000e+08	5.630412e+11	0.000000e+00	3.618090e-01	2.607153e+13	3.199075e+14	1.944887e+14	5.886428e+03	3.091843e+03	1.583545e+03	0	3.567252e-04
7.200000e+08	5.544653e+11	0.000000e+00	3.618090e-01	2.579435e+13	3.166997e+14	1.935598e+14	5.878119e+03	3.088049e+03	1.581601e+03	0	3.549048e-04
7.300000e+08	5.460652e+11	0.000000e+00	3.618090e-01	2.552273e+13	3.135727e+14	1.926373e+14	5.869899e+03	3.084330e+03	1.579697e+03	0	3.531034e-04
7.400000e+08	5.378357e+11	0.000000e+00	3.618090e-01	2.525650e+13	3.105232e+14	1.917212e+14	5.861765e+03	3.080685e+03	1.577830e+03	0	3.513206e-04
7.500000e+08	5.297716e+11	0.000000e+00	3.618090e-01	2.499551e+13	3.075482e+14	1.908116e+14	5.853716e+03	3.077111e+03	1.575999e+03	0	3.495559e-04
7.600000e+08	5.218679e+11	0.000000e+00	3.618090e-01	2.473959e+13	3.046447e+14	1.899083e+14	5.845750e+03	3.073605e+03	1.574204e+03	0	3.478088e-04
7.700000e+08	5.141199e+11	0.000000e+00	3.618090e-01	2.448861e+13	3.018101e+14	1.890112e+14	5.837864e+03	3.070166e+03	1.572442e+03	0	3.460790e-04
7.800000e+08	5.065231e+11	0.000000e+00	3.618090e-01	2.424241e+13	2.990416e+14	1.881204e+14	5.830059e+03	3.066790e+03	1.570713e+03	0	3.443659e-04
7.900000e+08	4.990730e+11	0.000000e+00	3.618090e-01	2.400086e+13	2.963367e+14	1.872358e+14	5.822332e+03	3.063476e+03	1.569016e+03	0	3.426692e-04
8.000000e+08	4.917654e+11	0.000000e+00	3.618090e-01	2.376383e+13	2.936931e+14	1.863573e+14	5.814681e+03	3.060223e+03	1.567350e+03	0	3.409885e-04
8.100000e+08	4.845964e+11	0.000000e+00	3.618090e-01	2.353119e+13	2.911086e+14	1.854850e+14	5.807106e+03	3.057027e+03	1.565713e+03	0	3.393234e-04
8.200000e+08	4.775621e+11	0.000000e+00	3.618090e-01	2.330282e+13	2.885810e+14	1.846186e+14	5.799605e+03	3.053887e+03	1.564105e+03	0	3.376735e-04
8.300000e+08	4.706585e+11	0.000000e+00	3.618090e-01	2.307860e+13	2.861081e+14	1.837582e+14	5.792176e+03	3.050802e+03	1.562525e+03	0	3.360385e-04
8.400000e+08	4.638823e+11	0.000000e+00	3.618090e-01	2.285841e+13	2.836882e+14	1.829038e+14	5.784818e+03	3.047770e+03	1.560972e+03	0	3.344180e-04
8.500000e+08	4.572298e+11	0.000000e+00	3.618090e-01	2.264215e+13	2.813192e+14	1.820553e+14	5.777531e+03	3.044789e+03	1.559445e+03	0	3.328117e-04
8.600000e+08	4.506978e+11	0.000000e+00	3.618090e-01	2.242972e+13	2.789995e+14	1.812126e+14	5.770312e+03	3.041857e+03	1.557943e+03	0	3.312192e-04
8.700000e+08	4.442830e+11	0.000000e+00	3.618090e-01	2.222100e+13	2.767274e+14	1.803757e+14	5.763161e+03	3.038973e+03	1.556466e+03	0	3.296403e-04
8.800000e+08	4.379823e+11	0.000000e+00	3.618090e-01	2.201591e+13	2.745012e+14	1.795446e+14	5.756076e+03	3.036136e+03	1.555013e+03	0	3.280746e-04
8.900000e+08	4.317926e+11	0.000000e+00	3.618090e-01	2.181434e+13	2.723194e+14	1.787192e+14	5.749056e+03	3.033344e+03	1.553584e+03	0	3.265218e-04
9.000000e+08	4.257112e+11	0.000000e+00	3.618090e-01	2.161621e+13	2.701805e+14	1.778995e+14	5.742100e+03	3.030596e+03	1.552176e+03	0	3.249816e-04
9.100000e+08	4.197352e+11	0.000000e+00	3.618090e-01	2.142143e+13	2.680831e+14	1.770853e+14	5.735208e+03	3.027891e+03	1.550791e+03	0	3.234538e-04
9.200000e+08	4.138618e+11	0.000000e+00	3.618090e-01	2.122991e+13	2.660259e+14	1.762768e+14	5.728377e+03	3.025227e+03	1.549426e+03	0	3.219380e-04
9.300000e+08	4.080885e+11	0.000000e+00	3.618090e-01	2.104158e+13	2.640075e+14	1.754738e+14	5.721607e+03	3.022604e+03	1.548082e+03	0	3.204340e-04
9.400000e+08	4.024128e+11	0.000000e+00	3.618090e-01	2.085635e+13	2.620268e+14	1.746762e+14	5.714897e+03	3.020019e+03	1.546759e+03	0	3.189415e-04
9.500000e+08	3.968323e+11	0.000000e+00	3.618090e-01	2.067414e+13	2.600825e+14	1.738842e+14	5.708246e+03	3.017472e+03	1.545454e+03	0	3.174603e-04
9.600000e+08	3.913445e+11	0.000000e+00	3.618090e-01	2.049489e+13	2.581735e+14	1.730975e+14	5.701653e+03	3.014962e+03	1.544169e+03	0	3.159901e-04
9.700000e+08	3.859472e+11	0.000000e+00	3.618090e-01	2.031851e+13	2.562988e+14	1.723161e+14	5.695117e+03	3.012489e+03	1.542902e+03	0	3.145307e-04
9.800000e+08	3.806382e+11	0.000000e+00	3.618090e-01	2.014495e+13	2.544573e+14	1.715401e+14	5.688636e+03	3.010050e+03	1.541653e+03	0	3.130818e-04
9.900000e+08	3.754154e+11	0.000000e+00	3.618090e-01	1.997413e+13	2.526479e+14	1.707694e+14	5.682212e+03	3.007644e+03	1.540421e+03	0	3.116433e-04
1.000000e+09	3.702767e+11	0.000000e+00	3.618090e-01	1.980598e+13	2.508698e+14	1.700039e+14	5.675841e+03	3.005272e+03	1.539206e+03	0	3.102148e-04
1.010000e+09	3.652201e+11	0.000000e+00	3.618090e-01	1.964046e+13	2.491220e+14	1.692436e+14	5.669524e+03	3.002933e+03	1.538008e+03	0	3.087962e-04
1.020000e+09	3.602436e+11	0.000000e+00	3.618090e-01	1.947748e+13	2.474036e+14	1.684884e+14	5.663259e+03	3.000624e+03	1.536825e+03	0	3.073873e-04
1.030000e+09	3.553455e+11	0.000000e+00	3.618090e-01	1.931701e+13	2.457138e+14	1.677384e+14	5.657047e+03	2.998346e+03	1.535658e+03	0	3.059877e-04
1.040000e+09	3.505239e+11	0.000000e+00	3.618090e-01	1.915897e+13	2.440517e+14	1.669934e+14	5.650885e+03	2.996097e+03	1.534507e+03	0	3.045975e-04
1.050000e+09	3.457770e+11	0.000000e+00	3.618090e-01	1.900331e+13	2.424167e+14	1.662534e+14	5.644774e+03	2.993878e+03	1.533370e+03	0	3.032162e-04
1.060000e+09	3.411031e+11	0.000000e+00	3.618090e-01	1.884999e+13	2.408078e+14	1.655185e+14	5.638712e+03	2.991686e+03	1.532248e+03	0	3.018438e-04
1.070000e+09	3.365006e+11	0.000000e+00	3.618090e-01	1.869894e+13	2.392245e+14	1.647885e+14	5.632699e+03	2.989522e+03	1.531139e+03	0	3.004801e-04
1.080000e+09	3.319679e+11	0.000000e+00	3.618090e-01	1.855011e+13	2.376659e+14	1.640634e+14	5.626734e+03	2.987385e+03	1.530045e+03	0	2.991248e-04
1.090000e+09	3.275034e+11	0.000000e+00	3.618090e-01	1.840347e+13	2.361315e+14	1.633431e+14	5.620816e+03	2.985274e+03	1.528963e+03	0	2.977778e-04
1.100000e+09	3.231057e+11	0.000000e+00	3.618090e-01	1.825895e+13	2.346205e+14	1.626278e+14	5.614945e+03	2.983188e+03	1.527895e+03	0	2.964390e-04
1.110000e+09	3.187731e+11	0.000000e+00	3.618090e-01	1.811652e+13	2.331324e+14	1.619172e+14	5.609120e+03	2.981128e+03	1.526840e+03	0	2.951080e-04
1.120000e+09	3.145045e+11	0.000000e+00	3.618090e-01	1.797613e+13	2.316666e+14	1.612113e+14	5.603341e+03	2.979091e+03	1.525797e+03	0	2.937848e-04
1.130000e+09	3.102982e+11	0.000000e+00	3.618090e-01	1.783773e+13	2.302224e+14	1.605102e+14	5.597606e+03	2.977078e+03	1.524766e+03	0	2.924692e-04
1.140000e+09	3.061531e+11	0.000000e+00	3.618090e-01	1.770128e+13	2.287993e+14	1.598138e+14	5.591915e+03	2.975088e+03	1.523746e+03	0	2.911611e-04
1.150000e+09	3.020678e+11	0.000000e+00	3.618090e-01	1.756675e+13	2.273969e+14	1.591220e+14	5.586267e+03	2.973120e+03	1.522739e+03	0	2.898602e-04
1.160000e+09	2.980411e+11	0.000000e+00	3.618090e-01	1.743409e+13	2.260144e+14	1.584349e+14	5.580662e+03	2.971175e+03	1.521742e+03	0	2.885664e-04
1.170000e+09	2.940716e+11	0.000000e+00	3.618090e-01	1.730326e+13	2.246516e+14	1.577523e+14	5.575100e+03	2.969251e+03	1.520757e+03	0	2.872796e-04
1.180000e+09	2.901583e+11	0.000000e+00	3.618090e-01	1.717423e+13	2.233078e+14	1.570743e+14	5.569579e+03	2.967348e+03	1.519782e+03	0	2.859996e-04
1.190000e+09	2.863000e+11	0.000000e+00	3.618090e-01	1.704695e+13	2.219826e+14	1.564008e+14	5.564099e+03	2.965465e+03	1.518818e+03	0	2.847263e-04
1.200000e+09	2.824955e+11	0.000000e+00	3.618090e-01	1.692140e+13	2.206755e+14	1.557317e+14	5.558660e+03	2.963602e+03	1.517864e+03	0	2.834594e-04
1.210000e+09	2.787437e+11	0.000000e+00	3.618090e-01	1.679754e+13	2.193862e+14	1.550671e+14	5.553261e+03	2.961759e+03	1.516920e+03	0	2.821990e-04
1.220000e+09	2.750437e+11	0.000000e+00	3.618090e-01	1.667533e+13	2.181142e+14	1.544069e+14	5.547901e+03	2.959935e+03	1.515986e+03	0	2.809448e-04
1.230000e+09	2.713942e+11	0.000000e+00	3.618090e-01	1.655474e+13	2.168590e+14	1.537510e+14	5.542580e+03	2.958130e+03	1.515061e+03	0	2.796967e-04
1.240000e+09	2.677944e+11	0.000000e+00	3.618090e-01	1.643574e+13	2.156204e+14	1.530995e+14	5.537297e+03	2.956342e+03	1.514146e+03	0	2.784545e-04
1.250000e+09	2.642432e+11	0.000000e+00	3.618090e-01	1.631830e+13	2.143978e+14	1.524523e+14	5.532052e+03	2.954573e+03	1.513239e+03	0	2.772182e-04
1.260000e+09	2.607397e+11	0.000000e+00	3.618090e-01	1.620239e+13	2.131910e+14	1.518093e+14	5.526845e+03	2.952821e+03	1.512342e+03	0	2.759875e-04
1.270000e+09	2.572830e+11	0.000000e+00	3.618090e-01	1.608798e+13	2.119996e+14	1.511706e+14	5.521674e+03	2.951087e+03	1.511454e+03	0	2.747625e-04
1.280000e+09	2.538720e+11	0.000000e+00	3.618090e-01	1.597504e+13	2.108232e+14	1.505361e+14	5.516540e+03	2.949369e+03	1.510574e+03	0	2.735429e-04
1.290000e+09	2.505061e+11	0.000000e+00	3.618090e-01	1.586354e+13	2.096616e+14	1.499058e+14	5.511442e+03	2.947667e+03	1.509702e+03	0	2.723286e-04
1.300000e+09	2.471842e+11	0.000000e+00	3.618090e-01	1.575345e+13	2.085143e+14	1.492796e+14	5.506379e+03	2.945982e+03	1.508839e+03	0	2.711194e-04
1.310000e+09	2.439056e+11	0.000000e+00	3.618090e-01	1.564475e+13	2.073811e+14	1.486575e+14	5.501352e+03	2.944312e+03	1.507984e+03	0	2.699154e-04
1.320000e+09	2.406694e+11	0.000000e+00	3.618090e-01	1.553742e+13	2.062616e+14	1.480395e+14	5.496359e+03	2.942657e+03	1.507136e+03	0	2.687163e-04
1.330000e+09	2.374749e+11	0.000000e+00	3.618090e-01	1.543142e+13	2.051556e+14	1.474255e+14	5.491400e+03	2.941018e+03	1.506297e+03	0	2.675221e-04
1.340000e+09	2.343212e+11	0.000000e+00	3.618090e-01	1.532673e+13	2.040628e+14	1.468155e+14	5.486475e+03	2.939393e+03	1.505465e+03	0	2.663326e-04
1.350000e+09	2.312076e+11	0.000000e+00	3.618090e-01	1.522333e+13	2.029829e+14	1.462095e+14	5.481583e+03	2.937783e+03	1.504640e+03	0	2.651477e-04
1.360000e+09	2.281334e+11	0.000000e+00	3.618090e-01	1.512120e+13	2.019156e+14	1.456075e+14	5.476724e+03	2.936187e+03	1.503822e+03	0	2.639673e-04
