#t		Qconv[W]	Ri[Rp]		R*[Rp]		Qc[W]		Qm[W]		Qr[W]		Tcmb[K]		Tl[K]		Tup[K]		RiFlag		Bs[T]
0.000000e+00	5.981554e+12	0.000000e+00	3.618090e-01	1.695417e+14	3.953646e+15	3.796100e+14	8.432010e+03	5.202211e+03	2.393691e+03	0	7.707468e-04
1.000000e+07	5.774670e+12	0.000000e+00	3.618090e-01	1.643762e+14	3.577065e+15	3.775067e+14	8.393727e+03	5.105918e+03	2.349383e+03	0	7.617564e-04
2.000000e+07	5.572540e+12	0.000000e+00	3.618090e-01	1.593300e+14	3.260036e+15	3.754191e+14	8.356594e+03	5.019768e+03	2.309743e+03	0	7.527627e-04
3.000000e+07	5.377110e+12	0.000000e+00	3.618090e-01	1.544508e+14	2.990323e+15	3.733471e+14	8.320587e+03	4.942175e+03	2.274040e+03	0	7.438580e-04
4.000000e+07	5.189406e+12	0.000000e+00	3.618090e-01	1.497637e+14	2.758696e+15	3.712906e+14	8.285670e+03	4.871871e+03	2.241691e+03	0	7.350997e-04
5.000000e+07	5.009881e+12	0.000000e+00	3.618090e-01	1.452794e+14	2.558084e+15	3.692494e+14	8.251801e+03	4.807831e+03	2.212225e+03	0	7.265232e-04
6.000000e+07	4.838629e+12	0.000000e+00	3.618090e-01	1.410002e+14	2.382999e+15	3.672234e+14	8.218936e+03	4.749218e+03	2.185255e+03	0	7.181489e-04
7.000000e+07	4.675525e+12	0.000000e+00	3.618090e-01	1.369230e+14	2.229128e+15	3.652126e+14	8.187029e+03	4.695338e+03	2.160463e+03	0	7.099872e-04
8.000000e+07	4.520313e+12	0.000000e+00	3.618090e-01	1.330413e+14	2.093043e+15	3.632166e+14	8.156035e+03	4.645618e+03	2.137585e+03	0	7.020422e-04
9.000000e+07	4.372660e+12	0.000000e+00	3.618090e-01	1.293469e+14	1.971992e+15	3.612356e+14	8.125912e+03	4.599571e+03	2.116398e+03	0	6.943135e-04
1.000000e+08	4.232196e+12	0.000000e+00	3.618090e-01	1.258306e+14	1.863743e+15	3.592692e+14	8.096618e+03	4.556787e+03	2.096712e+03	0	6.867979e-04
1.100000e+08	4.098534e+12	0.000000e+00	3.618090e-01	1.224829e+14	1.766469e+15	3.573174e+14	8.068113e+03	4.516917e+03	2.078366e+03	0	6.794902e-04
1.200000e+08	3.971289e+12	0.000000e+00	3.618090e-01	1.192942e+14	1.678664e+15	3.553801e+14	8.040360e+03	4.479660e+03	2.061223e+03	0	6.723842e-04
1.300000e+08	3.850083e+12	0.000000e+00	3.618090e-01	1.162552e+14	1.599078e+15	3.534571e+14	8.013324e+03	4.444756e+03	2.045163e+03	0	6.654730e-04
1.400000e+08	3.734556e+12	0.000000e+00	3.618090e-01	1.133569e+14	1.526661e+15	3.515484e+14	7.986971e+03	4.411981e+03	2.030082e+03	0	6.587491e-04
1.500000e+08	3.624363e+12	0.000000e+00	3.618090e-01	1.105909e+14	1.460533e+15	3.496538e+14	7.961269e+03	4.381137e+03	2.015890e+03	0	6.522052e-04
1.600000e+08	3.519178e+12	0.000000e+00	3.618090e-01	1.079491e+14	1.399944e+15	3.477731e+14	7.936190e+03	4.352051e+03	2.002507e+03	0	6.458338e-04
1.700000e+08	3.418698e+12	0.000000e+00	3.618090e-01	1.054240e+14	1.344259e+15	3.459064e+14	7.911706e+03	4.324572e+03	1.989863e+03	0	6.396277e-04
1.800000e+08	3.322636e+12	0.000000e+00	3.618090e-01	1.030086e+14	1.292929e+15	3.440534e+14	7.887790e+03	4.298564e+03	1.977896e+03	0	6.335798e-04
1.900000e+08	3.230728e+12	0.000000e+00	3.618090e-01	1.006962e+14	1.245486e+15	3.422140e+14	7.864418e+03	4.273909e+03	1.966551e+03	0	6.276832e-04
2.000000e+08	3.142725e+12	0.000000e+00	3.618090e-01	9.848081e+13	1.201522e+15	3.403882e+14	7.841567e+03	4.250498e+03	1.955779e+03	0	6.219314e-04
2.100000e+08	3.058396e+12	0.000000e+00	3.618090e-01	9.635665e+13	1.160682e+15	3.385759e+14	7.819216e+03	4.228236e+03	1.945536e+03	0	6.163181e-04
2.200000e+08	2.977527e+12	0.000000e+00	3.618090e-01	9.431844e+13	1.122658e+15	3.367768e+14	7.797343e+03	4.207039e+03	1.935782e+03	0	6.108374e-04
2.300000e+08	2.899919e+12	0.000000e+00	3.618090e-01	9.236123e+13	1.087180e+15	3.349909e+14	7.775930e+03	4.186827e+03	1.926482e+03	0	6.054835e-04
2.400000e+08	2.825385e+12	0.000000e+00	3.618090e-01	9.048045e+13	1.054008e+15	3.332181e+14	7.754959e+03	4.167532e+03	1.917604e+03	0	6.002511e-04
2.500000e+08	2.753754e+12	0.000000e+00	3.618090e-01	8.867182e+13	1.022934e+15	3.314583e+14	7.734411e+03	4.149090e+03	1.909118e+03	0	5.951349e-04
2.600000e+08	2.684864e+12	0.000000e+00	3.618090e-01	8.693136e+13	9.937711e+14	3.297114e+14	7.714272e+03	4.131444e+03	1.900999e+03	0	5.901302e-04
2.700000e+08	2.618566e+12	0.000000e+00	3.618090e-01	8.525538e+13	9.663537e+14	3.279773e+14	7.694526e+03	4.114541e+03	1.893221e+03	0	5.852322e-04
2.800000e+08	2.554720e+12	0.000000e+00	3.618090e-01	8.364043e+13	9.405345e+14	3.262558e+14	7.675158e+03	4.098333e+03	1.885764e+03	0	5.804367e-04
2.900000e+08	2.493197e+12	0.000000e+00	3.618090e-01	8.208328e+13	9.161820e+14	3.245469e+14	7.656155e+03	4.082777e+03	1.878606e+03	0	5.757393e-04
3.000000e+08	2.433875e+12	0.000000e+00	3.618090e-01	8.058094e+13	8.931782e+14	3.228504e+14	7.637504e+03	4.067833e+03	1.871730e+03	0	5.711363e-04
3.100000e+08	2.376640e+12	0.000000e+00	3.618090e-01	7.913060e+13	8.714169e+14	3.211664e+14	7.619192e+03	4.053464e+03	1.865118e+03	0	5.666239e-04
3.200000e+08	2.321388e+12	0.000000e+00	3.618090e-01	7.772963e+13	8.508028e+14	3.194945e+14	7.601207e+03	4.039635e+03	1.858755e+03	0	5.621984e-04
3.300000e+08	2.268018e+12	0.000000e+00	3.618090e-01	7.637559e+13	8.312496e+14	3.178348e+14	7.583540e+03	4.026317e+03	1.852627e+03	0	5.578566e-04
3.400000e+08	2.216439e+12	0.000000e+00	3.618090e-01	7.506618e+13	8.126793e+14	3.161872e+14	7.566178e+03	4.013480e+03	1.846720e+03	0	5.535952e-04
3.500000e+08	2.166563e+12	0.000000e+00	3.618090e-01	7.379925e+13	7.950210e+14	3.145515e+14	7.549113e+03	4.001096e+03	1.841022e+03	0	5.494111e-04
3.600000e+08	2.118308e+12	0.000000e+00	3.618090e-01	7.257277e+13	7.782105e+14	3.129277e+14	7.532334e+03	3.989143e+03	1.835522e+03	0	5.453016e-04
3.700000e+08	2.071599e+12	0.000000e+00	3.618090e-01	7.138486e+13	7.621893e+14	3.113156e+14	7.515832e+03	3.977596e+03	1.830209e+03	0	5.412638e-04
3.800000e+08	2.026364e+12	0.000000e+00	3.618090e-01	7.023372e+13	7.469039e+14	3.097152e+14	7.499599e+03	3.966434e+03	1.825073e+03	0	5.372951e-04
3.900000e+08	1.982535e+12	0.000000e+00	3.618090e-01	6.911770e+13	7.323054e+14	3.081264e+14	7.483626e+03	3.955637e+03	1.820105e+03	0	5.333930e-04
4.000000e+08	1.940048e+12	0.000000e+00	3.618090e-01	6.803521e+13	7.183491e+14	3.065491e+14	7.467906e+03	3.945188e+03	1.815297e+03	0	5.295552e-04
4.100000e+08	1.898844e+12	0.000000e+00	3.618090e-01	6.698477e+13	7.049940e+14	3.049831e+14	7.452431e+03	3.935068e+03	1.810640e+03	0	5.257793e-04
4.200000e+08	1.858867e+12	0.000000e+00	3.618090e-01	6.596498e+13	6.922024e+14	3.034284e+14	7.437194e+03	3.925261e+03	1.806128e+03	0	5.220633e-04
4.300000e+08	1.820063e+12	0.000000e+00	3.618090e-01	6.497453e+13	6.799396e+14	3.018849e+14	7.422187e+03	3.915753e+03	1.801753e+03	0	5.184050e-04
4.400000e+08	1.782382e+12	0.000000e+00	3.618090e-01	6.401216e+13	6.681737e+14	3.003525e+14	7.407405e+03	3.906529e+03	1.797509e+03	0	5.148024e-04
4.500000e+08	1.745776e+12	0.000000e+00	3.618090e-01	6.307671e+13	6.568751e+14	2.988311e+14	7.392841e+03	3.897575e+03	1.793389e+03	0	5.112538e-04
4.600000e+08	1.710202e+12	0.000000e+00	3.618090e-01	6.216706e+13	6.460166e+14	2.973207e+14	7.378488e+03	3.888881e+03	1.789388e+03	0	5.077573e-04
4.700000e+08	1.675617e+12	0.000000e+00	3.618090e-01	6.128216e+13	6.355728e+14	2.958211e+14	7.364342e+03	3.880432e+03	1.785501e+03	0	5.043112e-04
4.800000e+08	1.641980e+12	0.000000e+00	3.618090e-01	6.042101e+13	6.255206e+14	2.943322e+14	7.350396e+03	3.872220e+03	1.781722e+03	0	5.009138e-04
4.900000e+08	1.609253e+12	0.000000e+00	3.618090e-01	5.958267e+13	6.158380e+14	2.928540e+14	7.336645e+03	3.864233e+03	1.778047e+03	0	4.975635e-04
5.000000e+08	1.577402e+12	0.000000e+00	3.618090e-01	5.876625e+13	6.065050e+14	2.913863e+14	7.323084e+03	3.856462e+03	1.774472e+03	0	4.942589e-04
5.100000e+08	1.546391e+12	0.000000e+00	3.618090e-01	5.797090e+13	5.975027e+14	2.899291e+14	7.309708e+03	3.848897e+03	1.770991e+03	0	4.909985e-04
5.200000e+08	1.516188e+12	0.000000e+00	3.618090e-01	5.719581e+13	5.888138e+14	2.884824e+14	7.296512e+03	3.841529e+03	1.767601e+03	0	4.877808e-04
5.300000e+08	1.486762e+12	0.000000e+00	3.618090e-01	5.644022e+13	5.804219e+14	2.870459e+14	7.283492e+03	3.834351e+03	1.764298e+03	0	4.846046e-04
5.400000e+08	1.458085e+12	0.000000e+00	3.618090e-01	5.570340e+13	5.723118e+14	2.856197e+14	7.270643e+03	3.827355e+03	1.761079e+03	0	4.814686e-04
5.500000e+08	1.430128e+12	0.000000e+00	3.618090e-01	5.498466e+13	5.644692e+14	2.842037e+14	7.257961e+03	3.820533e+03	1.757940e+03	0	4.783716e-04
5.600000e+08	1.402865e+12	0.000000e+00	3.618090e-01	5.428334e+13	5.568810e+14	2.827977e+14	7.245442e+03	3.813878e+03	1.754878e+03	0	4.753123e-04
5.700000e+08	1.376271e+12	0.000000e+00	3.618090e-01	5.359882e+13	5.495346e+14	2.814016e+14	7.233082e+03	3.807384e+03	1.751890e+03	0	4.722896e-04
5.800000e+08	1.350322e+12	0.000000e+00	3.618090e-01	5.293050e+13	5.424184e+14	2.800155e+14	7.220878e+03	3.801045e+03	1.748973e+03	0	4.693025e-04
5.900000e+08	1.324995e+12	0.000000e+00	3.618090e-01	5.227781e+13	5.355215e+14	2.786393e+14	7.208825e+03	3.794854e+03	1.746124e+03	0	4.663498e-04
6.000000e+08	1.300268e+12	0.000000e+00	3.618090e-01	5.164021e+13	5.288336e+14	2.772727e+14	7.196920e+03	3.788805e+03	1.743341e+03	0	4.634305e-04
6.100000e+08	1.276120e+12	0.000000e+00	3.618090e-01	5.101718e+13	5.223450e+14	2.759158e+14	7.185159e+03	3.782895e+03	1.740621e+03	0	4.605437e-04
6.200000e+08	1.252532e+12	0.000000e+00	3.618090e-01	5.040822e+13	5.160466e+14	2.745685e+14	7.173540e+03	3.777116e+03	1.737962e+03	0	4.576885e-04
6.300000e+08	1.229485e+12	0.000000e+00	3.618090e-01	4.981287e+13	5.099300e+14	2.732308e+14	7.162059e+03	3.771465e+03	1.735362e+03	0	4.548638e-04
6.400000e+08	1.206960e+12	0.000000e+00	3.618090e-01	4.923067e+13	5.039870e+14	2.719024e+14	7.150713e+03	3.765937e+03	1.732819e+03	0	4.520689e-04
6.500000e+08	1.184940e+12	0.000000e+00	3.618090e-01	4.866120e+13	4.982100e+14	2.705834e+14	7.139499e+03	3.760527e+03	1.730329e+03	0	4.493028e-04
6.600000e+08	1.163409e+12	0.000000e+00	3.618090e-01	4.810403e+13	4.925920e+14	2.692737e+14	7.128415e+03	3.755232e+03	1.727893e+03	0	4.465648e-04
6.700000e+08	1.142351e+12	0.000000e+00	3.618090e-01	4.755877e+13	4.871262e+14	2.679732e+14	7.117456e+03	3.750047e+03	1.725507e+03	0	4.438541e-04
6.800000e+08	1.121750e+12	0.000000e+00	3.618090e-01	4.702505e+13	4.818061e+14	2.666819e+14	7.106622e+03	3.744968e+03	1.723170e+03	0	4.411698e-04
6.900000e+08	1.101593e+12	0.000000e+00	3.618090e-01	4.650250e+13	4.766257e+14	2.653996e+14	7.095909e+03	3.739992e+03	1.720880e+03	0	4.385113e-04
7.000000e+08	1.081865e+12	0.000000e+00	3.618090e-01	4.599078e+13	4.715793e+14	2.641263e+14	7.085314e+03	3.735115e+03	1.718636e+03	0	4.358778e-04
7.100000e+08	1.062553e+12	0.000000e+00	3.618090e-01	4.548955e+13	4.666614e+14	2.628619e+14	7.074836e+03	3.730334e+03	1.716437e+03	0	4.332686e-04
7.200000e+08	1.043644e+12	0.000000e+00	3.618090e-01	4.499849e+13	4.618671e+14	2.616063e+14	7.064471e+03	3.725646e+03	1.714279e+03	0	4.306830e-04
7.300000e+08	1.025125e+12	0.000000e+00	3.618090e-01	4.451730e+13	4.571913e+14	2.603595e+14	7.054218e+03	3.721047e+03	1.712163e+03	0	4.281205e-04
7.400000e+08	1.006986e+12	0.000000e+00	3.618090e-01	4.404567e+13	4.526295e+14	2.591215e+14	7.044074e+03	3.716536e+03	1.710087e+03	0	4.255803e-04
7.500000e+08	9.892140e+11	0.000000e+00	3.618090e-01	4.358334e+13	4.481772e+14	2.578920e+14	7.034037e+03	3.712108e+03	1.708050e+03	0	4.230618e-04
7.600000e+08	9.717991e+11	0.000000e+00	3.618090e-01	4.313002e+13	4.438304e+14	2.566711e+14	7.024105e+03	3.707761e+03	1.706050e+03	0	4.205644e-04
7.700000e+08	9.547306e+11	0.000000e+00	3.618090e-01	4.268546e+13	4.395851e+14	2.554587e+14	7.014276e+03	3.703493e+03	1.704086e+03	0	4.180876e-04
7.800000e+08	9.379984e+11	0.000000e+00	3.618090e-01	4.224940e+13	4.354375e+14	2.542548e+14	7.004548e+03	3.699301e+03	1.702157e+03	0	4.156308e-04
7.900000e+08	9.215928e+11	0.000000e+00	3.618090e-01	4.182160e+13	4.313840e+14	2.530592e+14	6.994919e+03	3.695183e+03	1.700262e+03	0	4.131934e-04
8.000000e+08	9.055046e+11	0.000000e+00	3.618090e-01	4.140183e+13	4.274212e+14	2.518719e+14	6.985387e+03	3.691136e+03	1.698401e+03	0	4.107749e-04
8.100000e+08	8.897247e+11	0.000000e+00	3.618090e-01	4.098987e+13	4.235459e+14	2.506928e+14	6.975950e+03	3.687159e+03	1.696571e+03	0	4.083748e-04
8.200000e+08	8.742447e+11	0.000000e+00	3.618090e-01	4.058550e+13	4.197550e+14	2.495218e+14	6.966608e+03	3.683250e+03	1.694772e+03	0	4.059925e-04
8.300000e+08	8.590562e+11	0.000000e+00	3.618090e-01	4.018851e+13	4.160455e+14	2.483590e+14	6.957357e+03	3.679405e+03	1.693003e+03	0	4.036276e-04
8.400000e+08	8.441511e+11	0.000000e+00	3.618090e-01	3.979871e+13	4.124146e+14	2.472042e+14	6.948196e+03	3.675624e+03	1.691263e+03	0	4.012796e-04
8.500000e+08	8.295218e+11	0.000000e+00	3.618090e-01	3.941589e+13	4.088596e+14	2.460574e+14	6.939124e+03	3.671904e+03	1.689551e+03	0	3.989480e-04
8.600000e+08	8.151609e+11	0.000000e+00	3.618090e-01	3.903988e+13	4.053780e+14	2.449185e+14	6.930138e+03	3.668244e+03	1.687867e+03	0	3.966324e-04
8.700000e+08	8.010612e+11	0.000000e+00	3.618090e-01	3.867049e+13	4.019673e+14	2.437874e+14	6.921238e+03	3.664642e+03	1.686210e+03	0	3.943322e-04
8.800000e+08	7.872157e+11	0.000000e+00	3.618090e-01	3.830755e+13	3.986251e+14	2.426641e+14	6.912422e+03	3.661096e+03	1.684578e+03	0	3.920471e-04
8.900000e+08	7.736179e+11	0.000000e+00	3.618090e-01	3.795089e+13	3.953493e+14	2.415485e+14	6.903689e+03	3.657605e+03	1.682972e+03	0	3.897767e-04
9.000000e+08	7.602612e+11	0.000000e+00	3.618090e-01	3.760036e+13	3.921376e+14	2.404406e+14	6.895037e+03	3.654167e+03	1.681390e+03	0	3.875205e-04
9.100000e+08	7.471395e+11	0.000000e+00	3.618090e-01	3.725579e+13	3.889881e+14	2.393403e+14	6.886464e+03	3.650781e+03	1.679832e+03	0	3.852781e-04
9.200000e+08	7.342467e+11	0.000000e+00	3.618090e-01	3.691704e+13	3.858987e+14	2.382475e+14	6.877970e+03	3.647445e+03	1.678297e+03	0	3.830490e-04
9.300000e+08	7.215771e+11	0.000000e+00	3.618090e-01	3.658396e+13	3.828676e+14	2.371621e+14	6.869552e+03	3.644158e+03	1.676784e+03	0	3.808330e-04
9.400000e+08	7.091249e+11	0.000000e+00	3.618090e-01	3.625641e+13	3.798929e+14	2.360842e+14	6.861211e+03	3.640918e+03	1.675294e+03	0	3.786297e-04
9.500000e+08	6.968849e+11	0.000000e+00	3.618090e-01	3.593425e+13	3.769730e+14	2.350137e+14	6.852943e+03	3.637725e+03	1.673824e+03	0	3.764385e-04
9.600000e+08	6.848517e+11	0.000000e+00	3.618090e-01	3.561735e+13	3.741061e+14	2.339504e+14	6.844749e+03	3.634577e+03	1.672376e+03	0	3.742593e-04
9.700000e+08	6.730203e+11	0.000000e+00	3.618090e-01	3.530558e+13	3.712908e+14	2.328944e+14	6.836627e+03	3.631473e+03	1.670948e+03	0	3.720915e-04
9.800000e+08	6.613858e+11	0.000000e+00	3.618090e-01	3.499883e+13	3.685253e+14	2.318456e+14	6.828576e+03	3.628411e+03	1.669539e+03	0	3.699349e-04
9.900000e+08	6.499434e+11	0.000000e+00	3.618090e-01	3.469696e+13	3.658084e+14	2.308039e+14	6.820595e+03	3.625391e+03	1.668149e+03	0	3.677891e-04
1.000000e+09	6.386885e+11	0.000000e+00	3.618090e-01	3.439987e+13	3.631385e+14	2.297693e+14	6.812682e+03	3.622412e+03	1.666778e+03	0	3.656538e-04
1.010000e+09	6.276166e+11	0.000000e+00	3.618090e-01	3.410745e+13	3.605144e+14	2.287417e+14	6.804837e+03	3.619472e+03	1.665426e+03	0	3.635285e-04
1.020000e+09	6.167235e+11	0.000000e+00	3.618090e-01	3.381958e+13	3.579346e+14	2.277211e+14	6.797059e+03	3.616571e+03	1.664091e+03	0	3.614131e-04
1.030000e+09	6.060050e+11	0.000000e+00	3.618090e-01	3.353616e+13	3.553980e+14	2.267073e+14	6.789346e+03	3.613707e+03	1.662773e+03	0	3.593071e-04
1.040000e+09	5.954570e+11	0.000000e+00	3.618090e-01	3.325709e+13	3.529034e+14	2.257004e+14	6.781697e+03	3.610880e+03	1.661472e+03	0	3.572102e-04
1.050000e+09	5.850756e+11	0.000000e+00	3.618090e-01	3.298227e+13	3.504496e+14	2.247004e+14	6.774112e+03	3.608088e+03	1.660188e+03	0	3.551221e-04
1.060000e+09	5.748569e+11	0.000000e+00	3.618090e-01	3.271160e+13	3.480354e+14	2.237070e+14	6.766589e+03	3.605331e+03	1.658919e+03	0	3.530425e-04
1.070000e+09	5.647974e+11	0.000000e+00	3.618090e-01	3.244499e+13	3.456599e+14	2.227204e+14	6.759128e+03	3.602609e+03	1.657666e+03	0	3.509710e-04
1.080000e+09	5.548933e+11	0.000000e+00	3.618090e-01	3.218236e+13	3.433219e+14	2.217404e+14	6.751727e+03	3.599919e+03	1.656429e+03	0	3.489074e-04
1.090000e+09	5.451413e+11	0.000000e+00	3.618090e-01	3.192360e+13	3.410204e+14	2.207669e+14	6.744387e+03	3.597262e+03	1.655206e+03	0	3.468514e-04
1.100000e+09	5.355379e+11	0.000000e+00	3.618090e-01	3.166865e+13	3.387546e+14	2.198001e+14	6.737105e+03	3.594636e+03	1.653998e+03	0	3.448025e-04
1.110000e+09	5.260799e+11	0.000000e+00	3.618090e-01	3.141741e+13	3.365234e+14	2.188397e+14	6.729881e+03	3.592041e+03	1.652804e+03	0	3.427606e-04
1.120000e+09	5.167641e+11	0.000000e+00	3.618090e-01	3.116980e+13	3.343261e+14	2.178857e+14	6.722714e+03	3.589477e+03	1.651624e+03	0	3.407254e-04
1.130000e+09	5.075875e+11	0.000000e+00	3.618090e-01	3.092575e+13	3.321616e+14	2.169381e+14	6.715603e+03	3.586941e+03	1.650457e+03	0	3.386965e-04
1.140000e+09	4.985469e+11	0.000000e+00	3.618090e-01	3.068519e+13	3.300292e+14	2.159969e+14	6.708549e+03	3.584435e+03	1.649304e+03	0	3.366736e-04
1.150000e+09	4.896396e+11	0.000000e+00	3.618090e-01	3.044803e+13	3.279281e+14	2.150619e+14	6.701548e+03	3.581956e+03	1.648164e+03	0	3.346565e-04
1.160000e+09	4.808626e+11	0.000000e+00	3.618090e-01	3.021422e+13	3.258575e+14	2.141332e+14	6.694602e+03	3.579505e+03	1.647036e+03	0	3.326448e-04
1.170000e+09	4.722132e+11	0.000000e+00	3.618090e-01	2.998367e+13	3.238167e+14	2.132106e+14	6.687709e+03	3.577081e+03	1.645920e+03	0	3.306383e-04
1.180000e+09	4.636888e+11	0.000000e+00	3.618090e-01	2.975632e+13	3.218048e+14	2.122942e+14	6.680869e+03	3.574683e+03	1.644817e+03	0	3.286366e-04
1.190000e+09	4.552868e+11	0.000000e+00	3.618090e-01	2.953210e+13	3.198213e+14	2.113839e+14	6.674080e+03	3.572311e+03	1.643726e+03	0	3.266395e-04
1.200000e+09	4.470046e+11	0.000000e+00	3.618090e-01	2.931096e+13	3.178655e+14	2.104797e+14	6.667342e+03	3.569964e+03	1.642646e+03	0	3.246467e-04
1.210000e+09	4.388397e+11	0.000000e+00	3.618090e-01	2.909283e+13	3.159366e+14	2.095814e+14	6.660654e+03	3.567642e+03	1.641577e+03	0	3.226579e-04
1.220000e+09	4.307898e+11	0.000000e+00	3.618090e-01	2.887764e+13	3.140341e+14	2.086891e+14	6.654017e+03	3.565343e+03	1.640519e+03	0	3.206728e-04
1.230000e+09	4.228525e+11	0.000000e+00	3.618090e-01	2.866535e+13	3.121573e+14	2.078027e+14	6.647428e+03	3.563068e+03	1.639473e+03	0	3.186912e-04
1.240000e+09	4.150256e+11	0.000000e+00	3.618090e-01	2.845589e+13	3.103057e+14	2.069221e+14	6.640887e+03	3.560816e+03	1.638436e+03	0	3.167126e-04
1.250000e+09	4.073069e+11	0.000000e+00	3.618090e-01	2.824920e+13	3.084787e+14	2.060474e+14	6.634394e+03	3.558587e+03	1.637411e+03	0	3.147369e-04
1.260000e+09	3.996942e+11	0.000000e+00	3.618090e-01	2.804524e+13	3.066757e+14	2.051784e+14	6.627949e+03	3.556379e+03	1.636395e+03	0	3.127637e-04
1.270000e+09	3.921854e+11	0.000000e+00	3.618090e-01	2.784394e+13	3.048961e+14	2.043151e+14	6.621549e+03	3.554194e+03	1.635389e+03	0	3.107927e-04
1.280000e+09	3.847785e+11	0.000000e+00	3.618090e-01	2.764527e+13	3.031396e+14	2.034576e+14	6.615195e+03	3.552029e+03	1.634393e+03	0	3.088237e-04
1.290000e+09	3.774716e+11	0.000000e+00	3.618090e-01	2.744916e+13	3.014054e+14	2.026056e+14	6.608887e+03	3.549885e+03	1.633407e+03	0	3.068564e-04
1.300000e+09	3.702626e+11	0.000000e+00	3.618090e-01	2.725558e+13	2.996933e+14	2.017593e+14	6.602623e+03	3.547761e+03	1.632429e+03	0	3.048903e-04
1.310000e+09	3.631496e+11	0.000000e+00	3.618090e-01	2.706446e+13	2.980026e+14	2.009185e+14	6.596404e+03	3.545658e+03	1.631462e+03	0	3.029253e-04
1.320000e+09	3.561310e+11	0.000000e+00	3.618090e-01	2.687577e+13	2.963330e+14	2.000832e+14	6.590228e+03	3.543574e+03	1.630503e+03	0	3.009610e-04
1.330000e+09	3.492048e+11	0.000000e+00	3.618090e-01	2.668946e+13	2.946839e+14	1.992534e+14	6.584094e+03	3.541509e+03	1.629552e+03	0	2.989972e-04
1.340000e+09	3.423693e+11	0.000000e+00	3.618090e-01	2.650549e+13	2.930550e+14	1.984290e+14	6.578004e+03	3.539462e+03	1.628611e+03	0	2.970334e-04
1.350000e+09	3.356228e+11	0.000000e+00	3.618090e-01	2.632381e+13	2.914458e+14	1.976100e+14	6.571955e+03	3.537434e+03	1.627678e+03	0	2.950694e-04
1.360000e+09	3.289637e+11	0.000000e+00	3.618090e-01	2.614438e+13	2.898559e+14	1.967963e+14	6.565947e+03	3.535424e+03	1.626753e+03	0	2.931049e-04
