#t		Qconv[W]	Ri[Rp]		R*[Rp]		Qc[W]		Qm[W]		Qr[W]		Tcmb[K]		Tl[K]		Tup[K]		RiFlag		Bs[T]
0.000000e+00	8.103300e+12	0.000000e+00	3.618091e-01	2.139856e+14	4.248936e+15	4.286258e+14	9.168830e+03	5.570406e+03	2.441341e+03	0	8.476295e-04
1.000000e+07	7.816421e+12	0.000000e+00	3.618091e-01	2.074212e+14	3.876874e+15	4.262509e+14	9.126945e+03	5.477761e+03	2.400738e+03	0	8.375063e-04
2.000000e+07	7.538984e+12	0.000000e+00	3.618091e-01	2.010724e+14	3.559612e+15	4.238937e+14	9.086328e+03	5.394194e+03	2.364113e+03	0	8.274778e-04
3.000000e+07	7.272396e+12	0.000000e+00	3.618091e-01	1.949706e+14	3.286592e+15	4.215542e+14	9.046940e+03	5.318376e+03	2.330884e+03	0	8.176070e-04
4.000000e+07	7.017284e+12	0.000000e+00	3.618091e-01	1.891297e+14	3.049701e+15	4.192321e+14	9.008734e+03	5.249228e+03	2.300579e+03	0	8.079326e-04
5.000000e+07	6.773789e+12	0.000000e+00	3.618091e-01	1.835525e+14	2.842617e+15	4.169274e+14	8.971660e+03	5.185869e+03	2.272810e+03	0	7.984774e-04
6.000000e+07	6.541744e+12	0.000000e+00	3.618091e-01	1.782353e+14	2.660359e+15	4.146398e+14	8.935668e+03	5.127566e+03	2.247258e+03	0	7.892537e-04
7.000000e+07	6.320804e+12	0.000000e+00	3.618091e-01	1.731701e+14	2.498955e+15	4.123693e+14	8.900709e+03	5.073711e+03	2.223655e+03	0	7.802663e-04
8.000000e+07	6.110515e+12	0.000000e+00	3.618091e-01	1.683465e+14	2.355210e+15	4.101157e+14	8.866734e+03	5.023789e+03	2.201776e+03	0	7.715156e-04
9.000000e+07	5.910366e+12	0.000000e+00	3.618091e-01	1.637530e+14	2.226525e+15	4.078788e+14	8.833696e+03	4.977366e+03	2.181430e+03	0	7.629983e-04
1.000000e+08	5.719826e+12	0.000000e+00	3.618091e-01	1.593776e+14	2.110771e+15	4.056585e+14	8.801551e+03	4.934068e+03	2.162454e+03	0	7.547093e-04
1.100000e+08	5.538361e+12	0.000000e+00	3.618091e-01	1.552081e+14	2.006189e+15	4.034547e+14	8.770258e+03	4.893576e+03	2.144707e+03	0	7.466421e-04
1.200000e+08	5.365446e+12	0.000000e+00	3.618091e-01	1.512327e+14	1.911313e+15	4.012673e+14	8.739777e+03	4.855613e+03	2.128069e+03	0	7.387895e-04
1.300000e+08	5.200578e+12	0.000000e+00	3.618091e-01	1.474400e+14	1.824916e+15	3.990960e+14	8.710070e+03	4.819940e+03	2.112435e+03	0	7.311435e-04
1.400000e+08	5.043277e+12	0.000000e+00	3.618091e-01	1.438191e+14	1.745964e+15	3.969408e+14	8.681103e+03	4.786345e+03	2.097711e+03	0	7.236963e-04
1.500000e+08	4.893088e+12	0.000000e+00	3.618091e-01	1.403598e+14	1.673575e+15	3.948015e+14	8.652841e+03	4.754643e+03	2.083817e+03	0	7.164399e-04
1.600000e+08	4.749585e+12	0.000000e+00	3.618091e-01	1.370524e+14	1.607002e+15	3.926781e+14	8.625253e+03	4.724673e+03	2.070682e+03	0	7.093665e-04
1.700000e+08	4.612368e+12	0.000000e+00	3.618091e-01	1.338879e+14	1.545600e+15	3.905703e+14	8.598311e+03	4.696290e+03	2.058243e+03	0	7.024683e-04
1.800000e+08	4.481062e+12	0.000000e+00	3.618091e-01	1.308577e+14	1.488814e+15	3.884780e+14	8.571987e+03	4.669366e+03	2.046443e+03	0	6.957380e-04
1.900000e+08	4.355318e+12	0.000000e+00	3.618091e-01	1.279541e+14	1.436163e+15	3.864012e+14	8.546253e+03	4.643785e+03	2.035231e+03	0	6.891684e-04
2.000000e+08	4.234812e+12	0.000000e+00	3.618091e-01	1.251696e+14	1.387231e+15	3.843396e+14	8.521087e+03	4.619446e+03	2.024564e+03	0	6.827528e-04
2.100000e+08	4.119241e+12	0.000000e+00	3.618091e-01	1.224973e+14	1.341650e+15	3.822932e+14	8.496465e+03	4.596256e+03	2.014401e+03	0	6.764844e-04
2.200000e+08	4.008322e+12	0.000000e+00	3.618091e-01	1.199310e+14	1.299102e+15	3.802619e+14	8.472365e+03	4.574133e+03	2.004705e+03	0	6.703572e-04
2.300000e+08	3.901794e+12	0.000000e+00	3.618091e-01	1.174646e+14	1.259304e+15	3.782454e+14	8.448767e+03	4.553001e+03	1.995443e+03	0	6.643652e-04
2.400000e+08	3.799411e+12	0.000000e+00	3.618091e-01	1.150927e+14	1.222007e+15	3.762437e+14	8.425650e+03	4.532792e+03	1.986587e+03	0	6.585026e-04
2.500000e+08	3.700946e+12	0.000000e+00	3.618091e-01	1.128100e+14	1.186990e+15	3.742567e+14	8.402998e+03	4.513445e+03	1.978107e+03	0	6.527642e-04
2.600000e+08	3.606187e+12	0.000000e+00	3.618091e-01	1.106117e+14	1.154058e+15	3.722842e+14	8.380792e+03	4.494903e+03	1.969981e+03	0	6.471448e-04
2.700000e+08	3.514935e+12	0.000000e+00	3.618091e-01	1.084934e+14	1.123034e+15	3.703262e+14	8.359016e+03	4.477114e+03	1.962184e+03	0	6.416396e-04
2.800000e+08	3.427006e+12	0.000000e+00	3.618091e-01	1.064510e+14	1.093764e+15	3.683824e+14	8.337654e+03	4.460032e+03	1.954698e+03	0	6.362440e-04
2.900000e+08	3.342228e+12	0.000000e+00	3.618091e-01	1.044803e+14	1.066106e+15	3.664528e+14	8.316692e+03	4.443613e+03	1.947502e+03	0	6.309536e-04
3.000000e+08	3.260439e+12	0.000000e+00	3.618091e-01	1.025780e+14	1.039934e+15	3.645373e+14	8.296116e+03	4.427819e+03	1.940580e+03	0	6.257643e-04
3.100000e+08	3.181488e+12	0.000000e+00	3.618091e-01	1.007404e+14	1.015135e+15	3.626358e+14	8.275913e+03	4.412611e+03	1.933915e+03	0	6.206721e-04
3.200000e+08	3.105235e+12	0.000000e+00	3.618091e-01	9.896436e+13	9.916058e+14	3.607481e+14	8.256069e+03	4.397957e+03	1.927492e+03	0	6.156732e-04
3.300000e+08	3.031547e+12	0.000000e+00	3.618091e-01	9.724696e+13	9.692539e+14	3.588741e+14	8.236573e+03	4.383826e+03	1.921299e+03	0	6.107641e-04
3.400000e+08	2.960300e+12	0.000000e+00	3.618091e-01	9.558535e+13	9.479947e+14	3.570137e+14	8.217414e+03	4.370188e+03	1.915322e+03	0	6.059414e-04
3.500000e+08	2.891378e+12	0.000000e+00	3.618091e-01	9.397689e+13	9.277517e+14	3.551668e+14	8.198580e+03	4.357018e+03	1.909550e+03	0	6.012019e-04
3.600000e+08	2.824671e+12	0.000000e+00	3.618091e-01	9.241910e+13	9.084548e+14	3.533333e+14	8.180061e+03	4.344289e+03	1.903971e+03	0	5.965425e-04
3.700000e+08	2.760078e+12	0.000000e+00	3.618091e-01	9.090965e+13	8.900405e+14	3.515131e+14	8.161848e+03	4.331980e+03	1.898577e+03	0	5.919602e-04
3.800000e+08	2.697502e+12	0.000000e+00	3.618091e-01	8.944636e+13	8.724503e+14	3.497061e+14	8.143931e+03	4.320068e+03	1.893356e+03	0	5.874524e-04
3.900000e+08	2.636851e+12	0.000000e+00	3.618091e-01	8.802715e+13	8.556309e+14	3.479121e+14	8.126300e+03	4.308535e+03	1.888301e+03	0	5.830162e-04
4.000000e+08	2.578041e+12	0.000000e+00	3.618091e-01	8.665009e+13	8.395333e+14	3.461311e+14	8.108948e+03	4.297360e+03	1.883404e+03	0	5.786492e-04
4.100000e+08	2.520990e+12	0.000000e+00	3.618091e-01	8.531334e+13	8.241123e+14	3.443629e+14	8.091866e+03	4.286527e+03	1.878656e+03	0	5.743489e-04
4.200000e+08	2.465623e+12	0.000000e+00	3.618091e-01	8.401517e+13	8.093267e+14	3.426075e+14	8.075046e+03	4.276019e+03	1.874050e+03	0	5.701130e-04
4.300000e+08	2.411868e+12	0.000000e+00	3.618091e-01	8.275396e+13	7.951381e+14	3.408647e+14	8.058481e+03	4.265821e+03	1.869581e+03	0	5.659394e-04
4.400000e+08	2.359656e+12	0.000000e+00	3.618091e-01	8.152815e+13	7.815113e+14	3.391344e+14	8.042164e+03	4.255918e+03	1.865241e+03	0	5.618258e-04
4.500000e+08	2.308925e+12	0.000000e+00	3.618091e-01	8.033629e+13	7.684136e+14	3.374166e+14	8.026087e+03	4.246298e+03	1.861025e+03	0	5.577703e-04
4.600000e+08	2.259613e+12	0.000000e+00	3.618091e-01	7.917700e+13	7.558147e+14	3.357111e+14	8.010243e+03	4.236947e+03	1.856926e+03	0	5.537708e-04
4.700000e+08	2.211662e+12	0.000000e+00	3.618091e-01	7.804897e+13	7.436868e+14	3.340179e+14	7.994628e+03	4.227854e+03	1.852941e+03	0	5.498256e-04
4.800000e+08	2.165018e+12	0.000000e+00	3.618091e-01	7.695096e+13	7.320038e+14	3.323367e+14	7.979234e+03	4.219006e+03	1.849064e+03	0	5.459329e-04
4.900000e+08	2.119630e+12	0.000000e+00	3.618091e-01	7.588180e+13	7.207416e+14	3.306677e+14	7.964055e+03	4.210395e+03	1.845290e+03	0	5.420909e-04
5.000000e+08	2.075449e+12	0.000000e+00	3.618091e-01	7.484036e+13	7.098776e+14	3.290105e+14	7.949086e+03	4.202009e+03	1.841614e+03	0	5.382980e-04
5.100000e+08	2.032428e+12	0.000000e+00	3.618091e-01	7.382560e+13	6.993909e+14	3.273652e+14	7.934322e+03	4.193840e+03	1.838034e+03	0	5.345526e-04
5.200000e+08	1.990523e+12	0.000000e+00	3.618091e-01	7.283651e+13	6.892620e+14	3.257316e+14	7.919757e+03	4.185878e+03	1.834544e+03	0	5.308532e-04
5.300000e+08	1.949692e+12	0.000000e+00	3.618091e-01	7.187213e+13	6.794726e+14	3.241097e+14	7.905387e+03	4.178115e+03	1.831142e+03	0	5.271984e-04
5.400000e+08	1.909895e+12	0.000000e+00	3.618091e-01	7.093155e+13	6.700057e+14	3.224993e+14	7.891206e+03	4.170542e+03	1.827823e+03	0	5.235867e-04
5.500000e+08	1.871094e+12	0.000000e+00	3.618091e-01	7.001390e+13	6.608454e+14	3.209004e+14	7.877209e+03	4.163154e+03	1.824585e+03	0	5.200167e-04
5.600000e+08	1.833253e+12	0.000000e+00	3.618091e-01	6.911837e+13	6.519767e+14	3.193129e+14	7.863393e+03	4.155941e+03	1.821424e+03	0	5.164872e-04
5.700000e+08	1.796338e+12	0.000000e+00	3.618091e-01	6.824416e+13	6.433857e+14	3.177366e+14	7.849753e+03	4.148898e+03	1.818337e+03	0	5.129970e-04
5.800000e+08	1.760316e+12	0.000000e+00	3.618091e-01	6.739053e+13	6.350591e+14	3.161715e+14	7.836285e+03	4.142017e+03	1.815322e+03	0	5.095447e-04
5.900000e+08	1.725155e+12	0.000000e+00	3.618091e-01	6.655676e+13	6.269847e+14	3.146175e+14	7.822984e+03	4.135294e+03	1.812375e+03	0	5.061293e-04
6.000000e+08	1.690826e+12	0.000000e+00	3.618091e-01	6.574217e+13	6.191509e+14	3.130745e+14	7.809848e+03	4.128721e+03	1.809494e+03	0	5.027496e-04
6.100000e+08	1.657300e+12	0.000000e+00	3.618091e-01	6.494611e+13	6.115467e+14	3.115425e+14	7.796871e+03	4.122294e+03	1.806677e+03	0	4.994045e-04
6.200000e+08	1.624549e+12	0.000000e+00	3.618091e-01	6.416796e+13	6.041619e+14	3.100212e+14	7.784051e+03	4.116006e+03	1.803922e+03	0	4.960929e-04
6.300000e+08	1.592549e+12	0.000000e+00	3.618091e-01	6.340712e+13	5.969868e+14	3.085107e+14	7.771384e+03	4.109854e+03	1.801226e+03	0	4.928139e-04
6.400000e+08	1.561273e+12	0.000000e+00	3.618091e-01	6.266303e+13	5.900123e+14	3.070108e+14	7.758867e+03	4.103833e+03	1.798586e+03	0	4.895665e-04
6.500000e+08	1.530699e+12	0.000000e+00	3.618091e-01	6.193513e+13	5.832298e+14	3.055215e+14	7.746496e+03	4.097936e+03	1.796002e+03	0	4.863497e-04
6.600000e+08	1.500802e+12	0.000000e+00	3.618091e-01	6.122292e+13	5.766312e+14	3.040427e+14	7.734268e+03	4.092162e+03	1.793471e+03	0	4.831625e-04
6.700000e+08	1.471563e+12	0.000000e+00	3.618091e-01	6.052589e+13	5.702087e+14	3.025743e+14	7.722180e+03	4.086504e+03	1.790992e+03	0	4.800042e-04
6.800000e+08	1.442959e+12	0.000000e+00	3.618091e-01	5.984356e+13	5.639551e+14	3.011162e+14	7.710229e+03	4.080960e+03	1.788562e+03	0	4.768737e-04
6.900000e+08	1.414970e+12	0.000000e+00	3.618091e-01	5.917547e+13	5.578635e+14	2.996683e+14	7.698413e+03	4.075524e+03	1.786180e+03	0	4.737703e-04
7.000000e+08	1.387579e+12	0.000000e+00	3.618091e-01	5.852119e+13	5.519273e+14	2.982306e+14	7.686728e+03	4.070195e+03	1.783844e+03	0	4.706932e-04
7.100000e+08	1.360765e+12	0.000000e+00	3.618091e-01	5.788030e+13	5.461405e+14	2.968030e+14	7.675172e+03	4.064968e+03	1.781553e+03	0	4.676415e-04
7.200000e+08	1.334511e+12	0.000000e+00	3.618091e-01	5.725238e+13	5.404972e+14	2.953853e+14	7.663741e+03	4.059840e+03	1.779306e+03	0	4.646145e-04
7.300000e+08	1.308801e+12	0.000000e+00	3.618091e-01	5.663706e+13	5.349918e+14	2.939775e+14	7.652435e+03	4.054807e+03	1.777100e+03	0	4.616115e-04
7.400000e+08	1.283617e+12	0.000000e+00	3.618091e-01	5.603395e+13	5.296189e+14	2.925796e+14	7.641249e+03	4.049867e+03	1.774935e+03	0	4.586316e-04
7.500000e+08	1.258946e+12	0.000000e+00	3.618091e-01	5.544271e+13	5.243737e+14	2.911914e+14	7.630182e+03	4.045017e+03	1.772809e+03	0	4.556742e-04
7.600000e+08	1.234770e+12	0.000000e+00	3.618091e-01	5.486298e+13	5.192513e+14	2.898128e+14	7.619231e+03	4.040254e+03	1.770722e+03	0	4.527385e-04
7.700000e+08	1.211077e+12	0.000000e+00	3.618091e-01	5.429444e+13	5.142472e+14	2.884439e+14	7.608395e+03	4.035575e+03	1.768671e+03	0	4.498240e-04
7.800000e+08	1.187852e+12	0.000000e+00	3.618091e-01	5.373676e+13	5.093571e+14	2.870845e+14	7.597670e+03	4.030978e+03	1.766657e+03	0	4.469300e-04
7.900000e+08	1.165081e+12	0.000000e+00	3.618091e-01	5.318964e+13	5.045768e+14	2.857345e+14	7.587056e+03	4.026460e+03	1.764676e+03	0	4.440557e-04
8.000000e+08	1.142752e+12	0.000000e+00	3.618091e-01	5.265278e+13	4.999026e+14	2.843939e+14	7.576549e+03	4.022019e+03	1.762730e+03	0	4.412006e-04
8.100000e+08	1.120852e+12	0.000000e+00	3.618091e-01	5.212590e+13	4.953305e+14	2.830626e+14	7.566147e+03	4.017652e+03	1.760816e+03	0	4.383640e-04
8.200000e+08	1.099370e+12	0.000000e+00	3.618091e-01	5.160873e+13	4.908571e+14	2.817404e+14	7.555849e+03	4.013358e+03	1.758934e+03	0	4.355454e-04
8.300000e+08	1.078294e+12	0.000000e+00	3.618091e-01	5.110100e+13	4.864789e+14	2.804275e+14	7.545654e+03	4.009133e+03	1.757083e+03	0	4.327441e-04
8.400000e+08	1.057613e+12	0.000000e+00	3.618091e-01	5.060246e+13	4.821928e+14	2.791236e+14	7.535558e+03	4.004977e+03	1.755261e+03	0	4.299596e-04
8.500000e+08	1.037316e+12	0.000000e+00	3.618091e-01	5.011285e+13	4.779956e+14	2.778287e+14	7.525560e+03	4.000887e+03	1.753469e+03	0	4.271913e-04
8.600000e+08	1.017392e+12	0.000000e+00	3.618091e-01	4.963196e+13	4.738844e+14	2.765427e+14	7.515659e+03	3.996862e+03	1.751704e+03	0	4.244386e-04
8.700000e+08	9.978331e+11	0.000000e+00	3.618091e-01	4.915953e+13	4.698562e+14	2.752656e+14	7.505852e+03	3.992899e+03	1.749967e+03	0	4.217011e-04
8.800000e+08	9.786281e+11	0.000000e+00	3.618091e-01	4.869536e+13	4.659085e+14	2.739972e+14	7.496139e+03	3.988996e+03	1.748257e+03	0	4.189781e-04
8.900000e+08	9.597681e+11	0.000000e+00	3.618091e-01	4.823924e+13	4.620386e+14	2.727376e+14	7.486517e+03	3.985153e+03	1.746573e+03	0	4.162691e-04
9.000000e+08	9.412442e+11	0.000000e+00	3.618091e-01	4.779095e+13	4.582441e+14	2.714866e+14	7.476984e+03	3.981367e+03	1.744914e+03	0	4.135736e-04
9.100000e+08	9.230478e+11	0.000000e+00	3.618091e-01	4.735030e+13	4.545225e+14	2.702442e+14	7.467540e+03	3.977637e+03	1.743279e+03	0	4.108912e-04
9.200000e+08	9.051705e+11	0.000000e+00	3.618091e-01	4.691709e+13	4.508717e+14	2.690103e+14	7.458183e+03	3.973962e+03	1.741668e+03	0	4.082212e-04
9.300000e+08	8.876042e+11	0.000000e+00	3.618091e-01	4.649115e+13	4.472893e+14	2.677848e+14	7.448912e+03	3.970339e+03	1.740080e+03	0	4.055632e-04
9.400000e+08	8.703411e+11	0.000000e+00	3.618091e-01	4.607228e+13	4.437733e+14	2.665677e+14	7.439724e+03	3.966768e+03	1.738515e+03	0	4.029167e-04
9.500000e+08	8.533738e+11	0.000000e+00	3.618091e-01	4.566033e+13	4.403218e+14	2.653590e+14	7.430618e+03	3.963247e+03	1.736972e+03	0	4.002812e-04
9.600000e+08	8.366948e+11	0.000000e+00	3.618091e-01	4.525511e+13	4.369327e+14	2.641584e+14	7.421594e+03	3.959775e+03	1.735450e+03	0	3.976562e-04
9.700000e+08	8.202972e+11	0.000000e+00	3.618091e-01	4.485646e+13	4.336043e+14	2.629661e+14	7.412650e+03	3.956350e+03	1.733949e+03	0	3.950413e-04
9.800000e+08	8.041740e+11	0.000000e+00	3.618091e-01	4.446424e+13	4.303347e+14	2.617818e+14	7.403784e+03	3.952972e+03	1.732469e+03	0	3.924359e-04
9.900000e+08	7.883188e+11	0.000000e+00	3.618091e-01	4.407828e+13	4.271222e+14	2.606056e+14	7.394995e+03	3.949639e+03	1.731008e+03	0	3.898397e-04
1.000000e+09	7.727250e+11	0.000000e+00	3.618091e-01	4.369844e+13	4.239653e+14	2.594374e+14	7.386283e+03	3.946350e+03	1.729567e+03	0	3.872521e-04
1.010000e+09	7.573865e+11	0.000000e+00	3.618091e-01	4.332458e+13	4.208623e+14	2.582771e+14	7.377645e+03	3.943104e+03	1.728144e+03	0	3.846726e-04
1.020000e+09	7.422972e+11	0.000000e+00	3.618091e-01	4.295655e+13	4.178117e+14	2.571247e+14	7.369082e+03	3.939900e+03	1.726740e+03	0	3.821009e-04
1.030000e+09	7.274514e+11	0.000000e+00	3.618091e-01	4.259422e+13	4.148120e+14	2.559801e+14	7.360590e+03	3.936737e+03	1.725354e+03	0	3.795364e-04
1.040000e+09	7.128434e+11	0.000000e+00	3.618091e-01	4.223747e+13	4.118619e+14	2.548432e+14	7.352170e+03	3.933614e+03	1.723985e+03	0	3.769787e-04
1.050000e+09	6.984677e+11	0.000000e+00	3.618091e-01	4.188617e+13	4.089599e+14	2.537140e+14	7.343821e+03	3.930530e+03	1.722633e+03	0	3.744273e-04
1.060000e+09	6.843190e+11	0.000000e+00	3.618091e-01	4.154018e+13	4.061048e+14	2.525924e+14	7.335540e+03	3.927483e+03	1.721298e+03	0	3.718818e-04
1.070000e+09	6.703921e+11	0.000000e+00	3.618091e-01	4.119941e+13	4.032954e+14	2.514783e+14	7.327328e+03	3.924474e+03	1.719979e+03	0	3.693417e-04
1.080000e+09	6.566822e+11	0.000000e+00	3.618091e-01	4.086372e+13	4.005304e+14	2.503718e+14	7.319183e+03	3.921501e+03	1.718676e+03	0	3.668066e-04
1.090000e+09	6.431842e+11	0.000000e+00	3.618091e-01	4.053301e+13	3.978086e+14	2.492727e+14	7.311104e+03	3.918563e+03	1.717388e+03	0	3.642760e-04
1.100000e+09	6.298936e+11	0.000000e+00	3.618091e-01	4.020717e+13	3.951289e+14	2.481809e+14	7.303091e+03	3.915660e+03	1.716116e+03	0	3.617494e-04
1.110000e+09	6.168057e+11	0.000000e+00	3.618091e-01	3.988609e+13	3.924903e+14	2.470965e+14	7.295141e+03	3.912790e+03	1.714858e+03	0	3.592264e-04
1.120000e+09	6.039162e+11	0.000000e+00	3.618091e-01	3.956967e+13	3.898917e+14	2.460194e+14	7.287255e+03	3.909953e+03	1.713615e+03	0	3.567065e-04
1.130000e+09	5.912206e+11	0.000000e+00	3.618091e-01	3.925781e+13	3.873320e+14	2.449495e+14	7.279432e+03	3.907149e+03	1.712386e+03	0	3.541892e-04
1.140000e+09	5.787149e+11	0.000000e+00	3.618091e-01	3.895042e+13	3.848103e+14	2.438867e+14	7.271669e+03	3.904376e+03	1.711171e+03	0	3.516740e-04
1.150000e+09	5.663949e+11	0.000000e+00	3.618091e-01	3.864740e+13	3.823257e+14	2.428310e+14	7.263968e+03	3.901634e+03	1.709969e+03	0	3.491606e-04
1.160000e+09	5.542568e+11	0.000000e+00	3.618091e-01	3.834866e+13	3.798773e+14	2.417823e+14	7.256326e+03	3.898922e+03	1.708780e+03	0	3.466483e-04
1.170000e+09	5.422966e+11	0.000000e+00	3.618091e-01	3.805411e+13	3.774641e+14	2.407407e+14	7.248743e+03	3.896239e+03	1.707605e+03	0	3.441367e-04
1.180000e+09	5.305106e+11	0.000000e+00	3.618091e-01	3.776366e+13	3.750853e+14	2.397060e+14	7.241218e+03	3.893586e+03	1.706441e+03	0	3.416254e-04
1.190000e+09	5.188953e+11	0.000000e+00	3.618091e-01	3.747723e+13	3.727401e+14	2.386781e+14	7.233751e+03	3.890960e+03	1.705291e+03	0	3.391137e-04
1.200000e+09	5.074470e+11	0.000000e+00	3.618091e-01	3.719474e+13	3.704277e+14	2.376571e+14	7.226340e+03	3.888362e+03	1.704152e+03	0	3.366012e-04
1.210000e+09	4.961624e+11	0.000000e+00	3.618091e-01	3.691610e+13	3.681473e+14	2.366428e+14	7.218984e+03	3.885791e+03	1.703025e+03	0	3.340873e-04
1.220000e+09	4.850380e+11	0.000000e+00	3.618091e-01	3.664125e+13	3.658982e+14	2.356353e+14	7.211684e+03	3.883246e+03	1.701910e+03	0	3.315716e-04
1.230000e+09	4.740707e+11	0.000000e+00	3.618091e-01	3.637011e+13	3.636797e+14	2.346344e+14	7.204438e+03	3.880728e+03	1.700806e+03	0	3.290535e-04
1.240000e+09	4.632573e+11	0.000000e+00	3.618091e-01	3.610259e+13	3.614910e+14	2.336402e+14	7.197245e+03	3.878234e+03	1.699713e+03	0	3.265323e-04
1.250000e+09	4.525947e+11	0.000000e+00	3.618091e-01	3.583864e+13	3.593315e+14	2.326525e+14	7.190105e+03	3.875766e+03	1.698631e+03	0	3.240076e-04
1.260000e+09	4.420799e+11	0.000000e+00	3.618091e-01	3.557817e+13	3.572005e+14	2.316713e+14	7.183018e+03	3.873321e+03	1.697560e+03	0	3.214788e-04
1.270000e+09	4.317100e+11	0.000000e+00	3.618091e-01	3.532113e+13	3.550974e+14	2.306966e+14	7.175981e+03	3.870901e+03	1.696499e+03	0	3.189452e-04
1.280000e+09	4.214821e+11	0.000000e+00	3.618091e-01	3.506745e+13	3.530216e+14	2.297283e+14	7.168996e+03	3.868503e+03	1.695449e+03	0	3.164063e-04
1.290000e+09	4.113934e+11	0.000000e+00	3.618091e-01	3.481706e+13	3.509724e+14	2.287664e+14	7.162060e+03	3.866129e+03	1.694408e+03	0	3.138614e-04
1.300000e+09	4.014414e+11	0.000000e+00	3.618091e-01	3.456990e+13	3.489494e+14	2.278107e+14	7.155174e+03	3.863777e+03	1.693377e+03	0	3.113098e-04
1.310000e+09	3.916232e+11	0.000000e+00	3.618091e-01	3.432591e+13	3.469519e+14	2.268614e+14	7.148336e+03	3.861447e+03	1.692356e+03	0	3.087509e-04
1.320000e+09	3.819364e+11	0.000000e+00	3.618091e-01	3.408503e+13	3.449794e+14	2.259182e+14	7.141547e+03	3.859139e+03	1.691344e+03	0	3.061840e-04
1.330000e+09	3.723785e+11	0.000000e+00	3.618091e-01	3.384720e+13	3.430314e+14	2.249812e+14	7.134805e+03	3.856851e+03	1.690342e+03	0	3.036083e-04
1.340000e+09	3.629470e+11	0.000000e+00	3.618091e-01	3.361236e+13	3.411073e+14	2.240504e+14	7.128110e+03	3.854585e+03	1.689349e+03	0	3.010231e-04
1.350000e+09	3.536395e+11	0.000000e+00	3.618091e-01	3.338047e+13	3.392067e+14	2.231256e+14	7.121461e+03	3.852338e+03	1.688364e+03	0	2.984276e-04
1.360000e+09	3.444537e+11	0.000000e+00	3.618091e-01	3.315146e+13	3.373291e+14	2.222069e+14	7.114859e+03	3.850112e+03	1.687388e+03	0	2.958210e-04
