#t		Qconv[W]	Ri[Rp]		R*[Rp]		Qc[W]		Qm[W]		Qr[W]		Tcmb[K]		Tl[K]		Tup[K]		RiFlag		Bs[T]
0.000000e+00	9.737478e+12	0.000000e+00	3.618090e-01	2.467150e+14	4.421205e+15	4.612685e+14	9.658123e+03	5.814036e+03	2.471352e+03	0	8.979834e-04
1.000000e+07	9.389025e+12	0.000000e+00	3.618090e-01	2.391488e+14	4.055179e+15	4.587127e+14	9.613854e+03	5.724004e+03	2.433082e+03	0	8.871417e-04
2.000000e+07	9.053610e+12	0.000000e+00	3.618090e-01	2.318645e+14	3.740567e+15	4.561760e+14	9.570927e+03	5.642380e+03	2.398386e+03	0	8.764492e-04
3.000000e+07	8.732226e+12	0.000000e+00	3.618090e-01	2.248828e+14	3.467882e+15	4.536583e+14	9.529291e+03	5.567986e+03	2.366764e+03	0	8.659533e-04
4.000000e+07	8.425188e+12	0.000000e+00	3.618090e-01	2.182101e+14	3.229745e+15	4.511594e+14	9.488896e+03	5.499858e+03	2.337805e+03	0	8.556826e-04
5.000000e+07	8.132390e+12	0.000000e+00	3.618090e-01	2.118440e+14	3.020348e+15	4.486792e+14	9.449687e+03	5.437200e+03	2.311171e+03	0	8.456530e-04
6.000000e+07	7.853463e+12	0.000000e+00	3.618090e-01	2.057765e+14	2.835067e+15	4.462174e+14	9.411610e+03	5.379347e+03	2.286580e+03	0	8.358722e-04
7.000000e+07	7.587886e+12	0.000000e+00	3.618090e-01	1.999963e+14	2.670184e+15	4.437740e+14	9.374613e+03	5.325741e+03	2.263794e+03	0	8.263418e-04
8.000000e+07	7.335052e+12	0.000000e+00	3.618090e-01	1.944903e+14	2.522682e+15	4.413487e+14	9.338645e+03	5.275908e+03	2.242611e+03	0	8.170599e-04
9.000000e+07	7.094315e+12	0.000000e+00	3.618090e-01	1.892446e+14	2.390090e+15	4.389415e+14	9.303659e+03	5.229444e+03	2.222861e+03	0	8.080216e-04
1.000000e+08	6.865021e+12	0.000000e+00	3.618090e-01	1.842452e+14	2.270368e+15	4.365521e+14	9.269608e+03	5.186002e+03	2.204396e+03	0	7.992208e-04
1.100000e+08	6.646522e+12	0.000000e+00	3.618090e-01	1.794782e+14	2.161820e+15	4.341805e+14	9.236449e+03	5.145284e+03	2.187087e+03	0	7.906501e-04
1.200000e+08	6.438192e+12	0.000000e+00	3.618090e-01	1.749302e+14	2.063025e+15	4.318264e+14	9.204140e+03	5.107027e+03	2.170826e+03	0	7.823014e-04
1.300000e+08	6.239431e+12	0.000000e+00	3.618090e-01	1.705883e+14	1.972787e+15	4.294898e+14	9.172643e+03	5.071005e+03	2.155514e+03	0	7.741667e-04
1.400000e+08	6.049671e+12	0.000000e+00	3.618090e-01	1.664402e+14	1.890091e+15	4.271705e+14	9.141922e+03	5.037019e+03	2.141068e+03	0	7.662375e-04
1.500000e+08	5.868375e+12	0.000000e+00	3.618090e-01	1.624745e+14	1.814070e+15	4.248683e+14	9.111942e+03	5.004893e+03	2.127412e+03	0	7.585056e-04
1.600000e+08	5.695040e+12	0.000000e+00	3.618090e-01	1.586805e+14	1.743982e+15	4.225831e+14	9.082671e+03	4.974470e+03	2.114480e+03	0	7.509628e-04
1.700000e+08	5.529195e+12	0.000000e+00	3.618090e-01	1.550479e+14	1.679188e+15	4.203148e+14	9.054079e+03	4.945612e+03	2.102214e+03	0	7.436013e-04
1.800000e+08	5.370400e+12	0.000000e+00	3.618090e-01	1.515673e+14	1.619135e+15	4.180632e+14	9.026136e+03	4.918197e+03	2.090561e+03	0	7.364134e-04
1.900000e+08	5.218243e+12	0.000000e+00	3.618090e-01	1.482300e+14	1.563340e+15	4.158282e+14	8.998816e+03	4.892113e+03	2.079473e+03	0	7.293919e-04
2.000000e+08	5.072343e+12	0.000000e+00	3.618090e-01	1.450277e+14	1.511385e+15	4.136096e+14	8.972093e+03	4.867262e+03	2.068910e+03	0	7.225297e-04
2.100000e+08	4.932343e+12	0.000000e+00	3.618090e-01	1.419528e+14	1.462900e+15	4.114074e+14	8.945944e+03	4.843554e+03	2.058832e+03	0	7.158201e-04
2.200000e+08	4.797909e+12	0.000000e+00	3.618090e-01	1.389981e+14	1.417563e+15	4.092213e+14	8.920345e+03	4.820907e+03	2.049206e+03	0	7.092568e-04
2.300000e+08	4.668733e+12	0.000000e+00	3.618090e-01	1.361570e+14	1.375085e+15	4.070513e+14	8.895276e+03	4.799250e+03	2.040000e+03	0	7.028336e-04
2.400000e+08	4.544526e+12	0.000000e+00	3.618090e-01	1.334232e+14	1.335215e+15	4.048972e+14	8.870716e+03	4.778516e+03	2.031187e+03	0	6.965447e-04
2.500000e+08	4.425019e+12	0.000000e+00	3.618090e-01	1.307911e+14	1.297728e+15	4.027588e+14	8.846646e+03	4.758644e+03	2.022740e+03	0	6.903847e-04
2.600000e+08	4.309960e+12	0.000000e+00	3.618090e-01	1.282551e+14	1.262421e+15	4.006361e+14	8.823047e+03	4.739579e+03	2.014636e+03	0	6.843483e-04
2.700000e+08	4.199115e+12	0.000000e+00	3.618090e-01	1.258103e+14	1.229117e+15	3.985290e+14	8.799903e+03	4.721270e+03	2.006853e+03	0	6.784306e-04
2.800000e+08	4.092266e+12	0.000000e+00	3.618090e-01	1.234520e+14	1.197654e+15	3.964372e+14	8.777198e+03	4.703671e+03	1.999373e+03	0	6.726267e-04
2.900000e+08	3.989207e+12	0.000000e+00	3.618090e-01	1.211758e+14	1.167889e+15	3.943607e+14	8.754916e+03	4.686740e+03	1.992176e+03	0	6.669322e-04
3.000000e+08	3.889748e+12	0.000000e+00	3.618090e-01	1.189775e+14	1.139689e+15	3.922993e+14	8.733042e+03	4.670437e+03	1.985246e+03	0	6.613428e-04
3.100000e+08	3.793708e+12	0.000000e+00	3.618090e-01	1.168532e+14	1.112939e+15	3.902529e+14	8.711563e+03	4.654727e+03	1.978568e+03	0	6.558544e-04
3.200000e+08	3.700921e+12	0.000000e+00	3.618090e-01	1.147995e+14	1.087532e+15	3.882214e+14	8.690465e+03	4.639576e+03	1.972128e+03	0	6.504632e-04
3.300000e+08	3.611229e+12	0.000000e+00	3.618090e-01	1.128129e+14	1.063371e+15	3.862047e+14	8.669736e+03	4.624952e+03	1.965912e+03	0	6.451655e-04
3.400000e+08	3.524484e+12	0.000000e+00	3.618090e-01	1.108902e+14	1.040369e+15	3.842027e+14	8.649364e+03	4.610829e+03	1.959909e+03	0	6.399578e-04
3.500000e+08	3.440547e+12	0.000000e+00	3.618090e-01	1.090284e+14	1.018446e+15	3.822151e+14	8.629336e+03	4.597178e+03	1.954106e+03	0	6.348366e-04
3.600000e+08	3.359289e+12	0.000000e+00	3.618090e-01	1.072247e+14	9.975286e+14	3.802420e+14	8.609644e+03	4.583976e+03	1.948494e+03	0	6.297990e-04
3.700000e+08	3.280586e+12	0.000000e+00	3.618090e-01	1.054766e+14	9.775506e+14	3.782832e+14	8.590275e+03	4.571199e+03	1.943063e+03	0	6.248416e-04
3.800000e+08	3.204324e+12	0.000000e+00	3.618090e-01	1.037814e+14	9.584509e+14	3.763385e+14	8.571220e+03	4.558827e+03	1.937804e+03	0	6.199618e-04
3.900000e+08	3.130393e+12	0.000000e+00	3.618090e-01	1.021369e+14	9.401734e+14	3.744079e+14	8.552471e+03	4.546838e+03	1.932708e+03	0	6.151567e-04
4.000000e+08	3.058691e+12	0.000000e+00	3.618090e-01	1.005409e+14	9.226669e+14	3.724913e+14	8.534016e+03	4.535214e+03	1.927767e+03	0	6.104237e-04
4.100000e+08	2.989122e+12	0.000000e+00	3.618090e-01	9.899120e+13	9.058840e+14	3.705884e+14	8.515849e+03	4.523939e+03	1.922974e+03	0	6.057602e-04
4.200000e+08	2.921595e+12	0.000000e+00	3.618090e-01	9.748594e+13	8.897809e+14	3.686993e+14	8.497960e+03	4.512995e+03	1.918323e+03	0	6.011638e-04
4.300000e+08	2.856022e+12	0.000000e+00	3.618090e-01	9.602322e+13	8.743176e+14	3.668238e+14	8.480342e+03	4.502367e+03	1.913805e+03	0	5.966322e-04
4.400000e+08	2.792323e+12	0.000000e+00	3.618090e-01	9.460129e+13	8.594567e+14	3.649618e+14	8.462987e+03	4.492040e+03	1.909416e+03	0	5.921631e-04
4.500000e+08	2.730420e+12	0.000000e+00	3.618090e-01	9.321848e+13	8.451637e+14	3.631131e+14	8.445888e+03	4.482002e+03	1.905149e+03	0	5.877545e-04
4.600000e+08	2.670241e+12	0.000000e+00	3.618090e-01	9.187322e+13	8.314068e+14	3.612778e+14	8.429037e+03	4.472240e+03	1.900999e+03	0	5.834043e-04
4.700000e+08	2.611717e+12	0.000000e+00	3.618090e-01	9.056402e+13	8.181562e+14	3.594555e+14	8.412428e+03	4.462741e+03	1.896961e+03	0	5.791106e-04
4.800000e+08	2.554781e+12	0.000000e+00	3.618090e-01	8.928946e+13	8.053845e+14	3.576464e+14	8.396056e+03	4.453494e+03	1.893031e+03	0	5.748714e-04
4.900000e+08	2.499372e+12	0.000000e+00	3.618090e-01	8.804819e+13	7.930660e+14	3.558502e+14	8.379912e+03	4.444488e+03	1.889203e+03	0	5.706850e-04
5.000000e+08	2.445430e+12	0.000000e+00	3.618090e-01	8.683895e+13	7.811768e+14	3.540668e+14	8.363992e+03	4.435714e+03	1.885473e+03	0	5.665496e-04
5.100000e+08	2.392901e+12	0.000000e+00	3.618090e-01	8.566052e+13	7.696947e+14	3.522962e+14	8.348289e+03	4.427162e+03	1.881838e+03	0	5.624635e-04
5.200000e+08	2.341729e+12	0.000000e+00	3.618090e-01	8.451174e+13	7.585989e+14	3.505382e+14	8.332799e+03	4.418823e+03	1.878293e+03	0	5.584252e-04
5.300000e+08	2.291865e+12	0.000000e+00	3.618090e-01	8.339154e+13	7.478700e+14	3.487928e+14	8.317515e+03	4.410687e+03	1.874835e+03	0	5.544331e-04
5.400000e+08	2.243261e+12	0.000000e+00	3.618090e-01	8.229885e+13	7.374898e+14	3.470598e+14	8.302433e+03	4.402749e+03	1.871461e+03	0	5.504857e-04
5.500000e+08	2.195870e+12	0.000000e+00	3.618090e-01	8.123269e+13	7.274413e+14	3.453391e+14	8.287548e+03	4.394998e+03	1.868166e+03	0	5.465816e-04
5.600000e+08	2.149649e+12	0.000000e+00	3.618090e-01	8.019212e+13	7.177085e+14	3.436307e+14	8.272855e+03	4.387430e+03	1.864949e+03	0	5.427193e-04
5.700000e+08	2.104556e+12	0.000000e+00	3.618090e-01	7.917622e+13	7.082766e+14	3.419344e+14	8.258350e+03	4.380035e+03	1.861806e+03	0	5.388976e-04
5.800000e+08	2.060551e+12	0.000000e+00	3.618090e-01	7.818415e+13	6.991314e+14	3.402501e+14	8.244027e+03	4.372808e+03	1.858734e+03	0	5.351152e-04
5.900000e+08	2.017597e+12	0.000000e+00	3.618090e-01	7.721508e+13	6.902597e+14	3.385777e+14	8.229883e+03	4.365743e+03	1.855731e+03	0	5.313707e-04
6.000000e+08	1.975658e+12	0.000000e+00	3.618090e-01	7.626822e+13	6.816493e+14	3.369172e+14	8.215914e+03	4.358834e+03	1.852794e+03	0	5.276631e-04
6.100000e+08	1.934698e+12	0.000000e+00	3.618090e-01	7.534283e+13	6.732883e+14	3.352685e+14	8.202115e+03	4.352075e+03	1.849921e+03	0	5.239910e-04
6.200000e+08	1.894685e+12	0.000000e+00	3.618090e-01	7.443820e+13	6.651657e+14	3.336314e+14	8.188483e+03	4.345460e+03	1.847109e+03	0	5.203535e-04
6.300000e+08	1.855587e+12	0.000000e+00	3.618090e-01	7.355363e+13	6.572712e+14	3.320058e+14	8.175014e+03	4.338986e+03	1.844357e+03	0	5.167493e-04
6.400000e+08	1.817374e+12	0.000000e+00	3.618090e-01	7.268848e+13	6.495949e+14	3.303918e+14	8.161705e+03	4.332645e+03	1.841662e+03	0	5.131775e-04
6.500000e+08	1.780017e+12	0.000000e+00	3.618090e-01	7.184211e+13	6.421277e+14	3.287890e+14	8.148551e+03	4.326435e+03	1.839022e+03	0	5.096369e-04
6.600000e+08	1.743489e+12	0.000000e+00	3.618090e-01	7.101393e+13	6.348607e+14	3.271976e+14	8.135550e+03	4.320350e+03	1.836436e+03	0	5.061267e-04
6.700000e+08	1.707763e+12	0.000000e+00	3.618090e-01	7.020336e+13	6.277858e+14	3.256174e+14	8.122698e+03	4.314387e+03	1.833901e+03	0	5.026457e-04
6.800000e+08	1.672813e+12	0.000000e+00	3.618090e-01	6.940985e+13	6.208949e+14	3.240482e+14	8.109993e+03	4.308541e+03	1.831416e+03	0	4.991931e-04
6.900000e+08	1.638615e+12	0.000000e+00	3.618090e-01	6.863287e+13	6.141809e+14	3.224901e+14	8.097430e+03	4.302808e+03	1.828979e+03	0	4.957680e-04
7.000000e+08	1.605146e+12	0.000000e+00	3.618090e-01	6.787191e+13	6.076365e+14	3.209429e+14	8.085008e+03	4.297185e+03	1.826589e+03	0	4.923694e-04
7.100000e+08	1.572384e+12	0.000000e+00	3.618090e-01	6.712650e+13	6.012552e+14	3.194065e+14	8.072722e+03	4.291668e+03	1.824244e+03	0	4.889964e-04
7.200000e+08	1.540307e+12	0.000000e+00	3.618090e-01	6.639616e+13	5.950306e+14	3.178808e+14	8.060572e+03	4.286253e+03	1.821942e+03	0	4.856483e-04
7.300000e+08	1.508894e+12	0.000000e+00	3.618090e-01	6.568044e+13	5.889568e+14	3.163658e+14	8.048552e+03	4.280938e+03	1.819683e+03	0	4.823242e-04
7.400000e+08	1.478125e+12	0.000000e+00	3.618090e-01	6.497891e+13	5.830280e+14	3.148614e+14	8.036663e+03	4.275719e+03	1.817465e+03	0	4.790232e-04
7.500000e+08	1.447982e+12	0.000000e+00	3.618090e-01	6.429116e+13	5.772387e+14	3.133675e+14	8.024899e+03	4.270594e+03	1.815286e+03	0	4.757446e-04
7.600000e+08	1.418447e+12	0.000000e+00	3.618090e-01	6.361680e+13	5.715840e+14	3.118840e+14	8.013260e+03	4.265559e+03	1.813146e+03	0	4.724877e-04
7.700000e+08	1.389500e+12	0.000000e+00	3.618090e-01	6.295542e+13	5.660587e+14	3.104108e+14	8.001742e+03	4.260612e+03	1.811043e+03	0	4.692515e-04
7.800000e+08	1.361126e+12	0.000000e+00	3.618090e-01	6.230668e+13	5.606583e+14	3.089479e+14	7.990344e+03	4.255749e+03	1.808976e+03	0	4.660355e-04
7.900000e+08	1.333309e+12	0.000000e+00	3.618090e-01	6.167021e+13	5.553784e+14	3.074951e+14	7.979062e+03	4.250969e+03	1.806944e+03	0	4.628388e-04
8.000000e+08	1.306032e+12	0.000000e+00	3.618090e-01	6.104567e+13	5.502145e+14	3.060524e+14	7.967896e+03	4.246270e+03	1.804947e+03	0	4.596608e-04
8.100000e+08	1.279281e+12	0.000000e+00	3.618090e-01	6.043273e+13	5.451628e+14	3.046197e+14	7.956842e+03	4.241647e+03	1.802982e+03	0	4.565007e-04
8.200000e+08	1.253040e+12	0.000000e+00	3.618090e-01	5.983108e+13	5.402194e+14	3.031969e+14	7.945899e+03	4.237101e+03	1.801049e+03	0	4.533578e-04
8.300000e+08	1.227296e+12	0.000000e+00	3.618090e-01	5.924040e+13	5.353805e+14	3.017839e+14	7.935064e+03	4.232627e+03	1.799148e+03	0	4.502316e-04
8.400000e+08	1.202036e+12	0.000000e+00	3.618090e-01	5.866042e+13	5.306426e+14	3.003807e+14	7.924336e+03	4.228225e+03	1.797276e+03	0	4.471213e-04
8.500000e+08	1.177246e+12	0.000000e+00	3.618090e-01	5.809083e+13	5.260024e+14	2.989872e+14	7.913713e+03	4.223891e+03	1.795434e+03	0	4.440262e-04
8.600000e+08	1.152914e+12	0.000000e+00	3.618090e-01	5.753136e+13	5.214566e+14	2.976032e+14	7.903192e+03	4.219625e+03	1.793621e+03	0	4.409457e-04
8.700000e+08	1.129027e+12	0.000000e+00	3.618090e-01	5.698176e+13	5.170023e+14	2.962289e+14	7.892773e+03	4.215424e+03	1.791835e+03	0	4.378791e-04
8.800000e+08	1.105574e+12	0.000000e+00	3.618090e-01	5.644176e+13	5.126363e+14	2.948639e+14	7.882453e+03	4.211287e+03	1.790077e+03	0	4.348259e-04
8.900000e+08	1.082543e+12	0.000000e+00	3.618090e-01	5.591111e+13	5.083559e+14	2.935084e+14	7.872230e+03	4.207211e+03	1.788344e+03	0	4.317854e-04
9.000000e+08	1.059924e+12	0.000000e+00	3.618090e-01	5.538959e+13	5.041585e+14	2.921621e+14	7.862103e+03	4.203196e+03	1.786637e+03	0	4.287569e-04
9.100000e+08	1.037707e+12	0.000000e+00	3.618090e-01	5.487696e+13	5.000413e+14	2.908251e+14	7.852070e+03	4.199239e+03	1.784956e+03	0	4.257399e-04
9.200000e+08	1.015880e+12	0.000000e+00	3.618090e-01	5.437299e+13	4.960020e+14	2.894972e+14	7.842130e+03	4.195339e+03	1.783298e+03	0	4.227337e-04
9.300000e+08	9.944334e+11	0.000000e+00	3.618090e-01	5.387747e+13	4.920381e+14	2.881784e+14	7.832280e+03	4.191494e+03	1.781664e+03	0	4.197378e-04
9.400000e+08	9.733587e+11	0.000000e+00	3.618090e-01	5.339019e+13	4.881474e+14	2.868687e+14	7.822521e+03	4.187704e+03	1.780052e+03	0	4.167514e-04
9.500000e+08	9.526461e+11	0.000000e+00	3.618090e-01	5.291095e+13	4.843276e+14	2.855678e+14	7.812849e+03	4.183966e+03	1.778463e+03	0	4.137741e-04
9.600000e+08	9.322868e+11	0.000000e+00	3.618090e-01	5.243956e+13	4.805767e+14	2.842759e+14	7.803264e+03	4.180279e+03	1.776896e+03	0	4.108053e-04
9.700000e+08	9.122722e+11	0.000000e+00	3.618090e-01	5.197583e+13	4.768927e+14	2.829927e+14	7.793764e+03	4.176642e+03	1.775351e+03	0	4.078442e-04
9.800000e+08	8.925938e+11	0.000000e+00	3.618090e-01	5.151956e+13	4.732736e+14	2.817183e+14	7.784347e+03	4.173054e+03	1.773825e+03	0	4.048904e-04
9.900000e+08	8.732435e+11	0.000000e+00	3.618090e-01	5.107060e+13	4.697175e+14	2.804525e+14	7.775013e+03	4.169514e+03	1.772320e+03	0	4.019431e-04
1.000000e+09	8.542136e+11	0.000000e+00	3.618090e-01	5.062876e+13	4.662226e+14	2.791953e+14	7.765760e+03	4.166019e+03	1.770835e+03	0	3.990019e-04
1.010000e+09	8.354964e+11	0.000000e+00	3.618090e-01	5.019387e+13	4.627873e+14	2.779467e+14	7.756587e+03	4.162570e+03	1.769369e+03	0	3.960661e-04
1.020000e+09	8.170846e+11	0.000000e+00	3.618090e-01	4.976579e+13	4.594098e+14	2.767065e+14	7.747493e+03	4.159165e+03	1.767921e+03	0	3.931351e-04
1.030000e+09	7.989711e+11	0.000000e+00	3.618090e-01	4.934434e+13	4.560886e+14	2.754747e+14	7.738476e+03	4.155803e+03	1.766492e+03	0	3.902083e-04
1.040000e+09	7.811489e+11	0.000000e+00	3.618090e-01	4.892939e+13	4.528221e+14	2.742512e+14	7.729535e+03	4.152483e+03	1.765081e+03	0	3.872851e-04
1.050000e+09	7.636113e+11	0.000000e+00	3.618090e-01	4.852078e+13	4.496088e+14	2.730360e+14	7.720669e+03	4.149203e+03	1.763687e+03	0	3.843648e-04
1.060000e+09	7.463519e+11	0.000000e+00	3.618090e-01	4.811837e+13	4.464474e+14	2.718290e+14	7.711877e+03	4.145964e+03	1.762310e+03	0	3.814468e-04
1.070000e+09	7.293643e+11	0.000000e+00	3.618090e-01	4.772202e+13	4.433364e+14	2.706301e+14	7.703157e+03	4.142764e+03	1.760950e+03	0	3.785306e-04
1.080000e+09	7.126424e+11	0.000000e+00	3.618090e-01	4.733160e+13	4.402744e+14	2.694393e+14	7.694509e+03	4.139601e+03	1.759606e+03	0	3.756154e-04
1.090000e+09	6.961803e+11	0.000000e+00	3.618090e-01	4.694698e+13	4.372603e+14	2.682564e+14	7.685932e+03	4.136476e+03	1.758277e+03	0	3.727006e-04
1.100000e+09	6.799722e+11	0.000000e+00	3.618090e-01	4.656803e+13	4.342928e+14	2.670816e+14	7.677424e+03	4.133388e+03	1.756964e+03	0	3.697855e-04
1.110000e+09	6.640125e+11	0.000000e+00	3.618090e-01	4.619462e+13	4.313707e+14	2.659146e+14	7.668985e+03	4.130335e+03	1.755667e+03	0	3.668695e-04
1.120000e+09	6.482959e+11	0.000000e+00	3.618090e-01	4.582665e+13	4.284929e+14	2.647554e+14	7.660613e+03	4.127317e+03	1.754384e+03	0	3.639518e-04
1.130000e+09	6.328169e+11	0.000000e+00	3.618090e-01	4.546399e+13	4.256581e+14	2.636040e+14	7.652308e+03	4.124332e+03	1.753115e+03	0	3.610318e-04
1.140000e+09	6.175705e+11	0.000000e+00	3.618090e-01	4.510654e+13	4.228655e+14	2.624603e+14	7.644068e+03	4.121382e+03	1.751861e+03	0	3.581088e-04
1.150000e+09	6.025517e+11	0.000000e+00	3.618090e-01	4.475417e+13	4.201138e+14	2.613242e+14	7.635893e+03	4.118463e+03	1.750620e+03	0	3.551820e-04
1.160000e+09	5.877557e+11	0.000000e+00	3.618090e-01	4.440679e+13	4.174022e+14	2.601957e+14	7.627782e+03	4.115576e+03	1.749393e+03	0	3.522506e-04
1.170000e+09	5.731778e+11	0.000000e+00	3.618090e-01	4.406429e+13	4.147296e+14	2.590747e+14	7.619733e+03	4.112721e+03	1.748180e+03	0	3.493140e-04
1.180000e+09	5.588133e+11	0.000000e+00	3.618090e-01	4.372657e+13	4.120952e+14	2.579612e+14	7.611746e+03	4.109896e+03	1.746979e+03	0	3.463712e-04
1.190000e+09	5.446579e+11	0.000000e+00	3.618090e-01	4.339354e+13	4.094980e+14	2.568550e+14	7.603820e+03	4.107100e+03	1.745790e+03	0	3.434214e-04
1.200000e+09	5.307071e+11	0.000000e+00	3.618090e-01	4.306509e+13	4.069371e+14	2.557562e+14	7.595955e+03	4.104334e+03	1.744615e+03	0	3.404639e-04
1.210000e+09	5.169569e+11	0.000000e+00	3.618090e-01	4.274114e+13	4.044117e+14	2.546648e+14	7.588149e+03	4.101596e+03	1.743451e+03	0	3.374978e-04
1.220000e+09	5.034030e+11	0.000000e+00	3.618090e-01	4.242160e+13	4.019210e+14	2.535805e+14	7.580401e+03	4.098887e+03	1.742299e+03	0	3.345221e-04
1.230000e+09	4.900416e+11	0.000000e+00	3.618090e-01	4.210637e+13	3.994641e+14	2.525034e+14	7.572712e+03	4.096204e+03	1.741159e+03	0	3.315358e-04
1.240000e+09	4.768686e+11	0.000000e+00	3.618090e-01	4.179537e+13	3.970404e+14	2.514334e+14	7.565079e+03	4.093549e+03	1.740030e+03	0	3.285381e-04
1.250000e+09	4.638804e+11	0.000000e+00	3.618090e-01	4.148852e+13	3.946490e+14	2.503705e+14	7.557502e+03	4.090920e+03	1.738913e+03	0	3.255279e-04
1.260000e+09	4.510733e+11	0.000000e+00	3.618090e-01	4.118574e+13	3.922892e+14	2.493146e+14	7.549981e+03	4.088316e+03	1.737806e+03	0	3.225041e-04
1.270000e+09	4.384437e+11	0.000000e+00	3.618090e-01	4.088695e+13	3.899604e+14	2.482657e+14	7.542515e+03	4.085738e+03	1.736710e+03	0	3.194656e-04
1.280000e+09	4.259880e+11	0.000000e+00	3.618090e-01	4.059207e+13	3.876619e+14	2.472236e+14	7.535103e+03	4.083184e+03	1.735625e+03	0	3.164113e-04
1.290000e+09	4.137030e+11	0.000000e+00	3.618090e-01	4.030103e+13	3.853929e+14	2.461884e+14	7.527744e+03	4.080655e+03	1.734549e+03	0	3.133399e-04
1.300000e+09	4.015852e+11	0.000000e+00	3.618090e-01	4.001375e+13	3.831529e+14	2.451600e+14	7.520437e+03	4.078149e+03	1.733484e+03	0	3.102502e-04
1.310000e+09	3.896315e+11	0.000000e+00	3.618090e-01	3.973016e+13	3.809413e+14	2.441384e+14	7.513183e+03	4.075667e+03	1.732429e+03	0	3.071408e-04
1.320000e+09	3.778386e+11	0.000000e+00	3.618090e-01	3.945020e+13	3.787574e+14	2.431234e+14	7.505980e+03	4.073208e+03	1.731384e+03	0	3.040103e-04
1.330000e+09	3.662036e+11	0.000000e+00	3.618090e-01	3.917379e+13	3.766007e+14	2.421151e+14	7.498827e+03	4.070771e+03	1.730348e+03	0	3.008572e-04
1.340000e+09	3.547235e+11	0.000000e+00	3.618090e-01	3.890087e+13	3.744705e+14	2.411133e+14	7.491725e+03	4.068356e+03	1.729321e+03	0	2.976799e-04
1.350000e+09	3.433953e+11	0.000000e+00	3.618090e-01	3.863137e+13	3.723664e+14	2.401181e+14	7.484672e+03	4.065962e+03	1.728304e+03	0	2.944767e-04
1.360000e+09	3.322161e+11	0.000000e+00	3.618090e-01	3.836524e+13	3.702879e+14	2.391294e+14	7.477667e+03	4.063590e+03	1.727296e+03	0	2.912458e-04
