#t		Qconv[W]	Ri[Rp]		R*[Rp]		Qc[W]		Qm[W]		Qr[W]		Tcmb[K]		Tl[K]		Tup[K]		RiFlag		Bs[T]
0.000000e+00	2.458765e+13	0.000000e+00	3.567839e-01	5.223885e+14	5.142802e+15	6.758909e+14	1.288462e+04	7.406168e+03	2.642299e+03	0	1.214386e-03
1.000000e+07	2.365879e+13	0.000000e+00	3.567839e-01	5.065445e+14	4.849041e+15	6.721460e+14	1.282261e+04	7.334997e+03	2.616907e+03	0	1.198898e-03
2.000000e+07	2.277634e+13	0.000000e+00	3.567839e-01	4.914807e+14	4.585435e+15	6.684290e+14	1.276246e+04	7.268680e+03	2.593247e+03	0	1.183802e-03
3.000000e+07	2.193777e+13	0.000000e+00	3.567839e-01	4.771548e+14	4.347798e+15	6.647399e+14	1.270408e+04	7.206707e+03	2.571137e+03	0	1.169092e-03
4.000000e+07	2.114056e+13	0.000000e+00	3.567839e-01	4.635246e+14	4.132657e+15	6.610783e+14	1.264739e+04	7.148638e+03	2.550420e+03	0	1.154756e-03
5.000000e+07	2.038229e+13	0.000000e+00	3.567839e-01	4.505495e+14	3.937113e+15	6.574440e+14	1.259229e+04	7.094092e+03	2.530959e+03	0	1.140781e-03
6.000000e+07	1.966061e+13	0.000000e+00	3.567839e-01	4.381902e+14	3.758727e+15	6.538368e+14	1.253873e+04	7.042739e+03	2.512638e+03	0	1.127155e-03
7.000000e+07	1.897332e+13	0.000000e+00	3.567839e-01	4.264096e+14	3.595435e+15	6.502564e+14	1.248662e+04	6.994287e+03	2.495352e+03	0	1.113864e-03
8.000000e+07	1.831831e+13	0.000000e+00	3.567839e-01	4.151728e+14	3.445484e+15	6.467027e+14	1.243590e+04	6.948483e+03	2.479011e+03	0	1.100896e-03
9.000000e+07	1.769363e+13	0.000000e+00	3.567839e-01	4.044468e+14	3.307371e+15	6.431754e+14	1.238651e+04	6.905101e+03	2.463533e+03	0	1.088237e-03
1.000000e+08	1.709743e+13	0.000000e+00	3.567839e-01	3.942008e+14	3.179806e+15	6.396743e+14	1.233838e+04	6.863941e+03	2.448849e+03	0	1.075874e-03
1.100000e+08	1.652800e+13	0.000000e+00	3.567839e-01	3.844062e+14	3.061672e+15	6.361992e+14	1.229146e+04	6.824826e+03	2.434893e+03	0	1.063795e-03
1.200000e+08	1.598373e+13	0.000000e+00	3.567839e-01	3.750360e+14	2.952001e+15	6.327499e+14	1.224569e+04	6.787597e+03	2.421611e+03	0	1.051988e-03
1.300000e+08	1.546314e+13	0.000000e+00	3.567839e-01	3.660653e+14	2.849950e+15	6.293260e+14	1.220103e+04	6.752111e+03	2.408951e+03	0	1.040440e-03
1.400000e+08	1.496484e+13	0.000000e+00	3.567839e-01	3.574708e+14	2.754779e+15	6.259276e+14	1.215743e+04	6.718241e+03	2.396867e+03	0	1.029142e-03
1.500000e+08	1.448753e+13	0.000000e+00	3.567839e-01	3.492309e+14	2.665841e+15	6.225542e+14	1.211485e+04	6.685871e+03	2.385318e+03	0	1.018082e-03
1.600000e+08	1.403001e+13	0.000000e+00	3.567839e-01	3.413254e+14	2.582562e+15	6.192058e+14	1.207324e+04	6.654897e+03	2.374268e+03	0	1.007250e-03
1.700000e+08	1.359116e+13	0.000000e+00	3.567839e-01	3.337355e+14	2.504438e+15	6.158820e+14	1.203256e+04	6.625224e+03	2.363681e+03	0	9.966363e-04
1.800000e+08	1.316993e+13	0.000000e+00	3.567839e-01	3.264437e+14	2.431020e+15	6.125828e+14	1.199279e+04	6.596767e+03	2.353529e+03	0	9.862320e-04
1.900000e+08	1.276536e+13	0.000000e+00	3.567839e-01	3.194337e+14	2.361907e+15	6.093079e+14	1.195387e+04	6.569447e+03	2.343782e+03	0	9.760280e-04
2.000000e+08	1.237654e+13	0.000000e+00	3.567839e-01	3.126902e+14	2.296742e+15	6.060570e+14	1.191579e+04	6.543193e+03	2.334415e+03	0	9.660160e-04
2.100000e+08	1.200262e+13	0.000000e+00	3.567839e-01	3.061992e+14	2.235207e+15	6.028301e+14	1.187850e+04	6.517938e+03	2.325405e+03	0	9.561879e-04
2.200000e+08	1.164281e+13	0.000000e+00	3.567839e-01	2.999473e+14	2.177014e+15	5.996269e+14	1.184198e+04	6.493622e+03	2.316730e+03	0	9.465362e-04
2.300000e+08	1.129638e+13	0.000000e+00	3.567839e-01	2.939222e+14	2.121906e+15	5.964472e+14	1.180621e+04	6.470192e+03	2.308370e+03	0	9.370535e-04
2.400000e+08	1.096264e+13	0.000000e+00	3.567839e-01	2.881123e+14	2.069648e+15	5.932908e+14	1.177114e+04	6.447594e+03	2.300308e+03	0	9.277329e-04
2.500000e+08	1.064094e+13	0.000000e+00	3.567839e-01	2.825067e+14	2.020032e+15	5.901575e+14	1.173677e+04	6.425783e+03	2.292527e+03	0	9.185677e-04
2.600000e+08	1.033067e+13	0.000000e+00	3.567839e-01	2.770953e+14	1.972866e+15	5.870471e+14	1.170306e+04	6.404715e+03	2.285010e+03	0	9.095518e-04
2.700000e+08	1.003128e+13	0.000000e+00	3.567839e-01	2.718686e+14	1.927976e+15	5.839595e+14	1.166999e+04	6.384350e+03	2.277745e+03	0	9.006790e-04
2.800000e+08	9.742229e+12	0.000000e+00	3.567839e-01	2.668177e+14	1.885205e+15	5.808944e+14	1.163754e+04	6.364651e+03	2.270717e+03	0	8.919435e-04
2.900000e+08	9.463022e+12	0.000000e+00	3.567839e-01	2.619341e+14	1.844409e+15	5.778517e+14	1.160569e+04	6.345582e+03	2.263913e+03	0	8.833399e-04
3.000000e+08	9.193192e+12	0.000000e+00	3.567839e-01	2.572100e+14	1.805457e+15	5.748312e+14	1.157442e+04	6.327112e+03	2.257324e+03	0	8.748629e-04
3.100000e+08	8.932298e+12	0.000000e+00	3.567839e-01	2.526381e+14	1.768228e+15	5.718327e+14	1.154371e+04	6.309210e+03	2.250937e+03	0	8.665075e-04
3.200000e+08	8.679928e+12	0.000000e+00	3.567839e-01	2.482113e+14	1.732612e+15	5.688560e+14	1.151355e+04	6.291849e+03	2.244743e+03	0	8.582687e-04
3.300000e+08	8.435693e+12	0.000000e+00	3.567839e-01	2.439231e+14	1.698508e+15	5.659010e+14	1.148390e+04	6.275002e+03	2.238733e+03	0	8.501420e-04
3.400000e+08	8.199225e+12	0.000000e+00	3.567839e-01	2.397673e+14	1.665823e+15	5.629674e+14	1.145477e+04	6.258646e+03	2.232897e+03	0	8.421229e-04
3.500000e+08	7.970179e+12	0.000000e+00	3.567839e-01	2.357381e+14	1.634471e+15	5.600551e+14	1.142613e+04	6.242756e+03	2.227228e+03	0	8.342072e-04
3.600000e+08	7.748230e+12	0.000000e+00	3.567839e-01	2.318300e+14	1.604372e+15	5.571639e+14	1.139797e+04	6.227313e+03	2.221718e+03	0	8.263907e-04
3.700000e+08	7.533070e+12	0.000000e+00	3.567839e-01	2.280377e+14	1.575454e+15	5.542936e+14	1.137028e+04	6.212294e+03	2.216360e+03	0	8.186694e-04
3.800000e+08	7.324408e+12	0.000000e+00	3.567839e-01	2.243565e+14	1.547649e+15	5.514441e+14	1.134303e+04	6.197683e+03	2.211147e+03	0	8.110396e-04
3.900000e+08	7.121968e+12	0.000000e+00	3.567839e-01	2.207816e+14	1.520894e+15	5.486153e+14	1.131622e+04	6.183460e+03	2.206073e+03	0	8.034976e-04
4.000000e+08	6.925492e+12	0.000000e+00	3.567839e-01	2.173087e+14	1.495131e+15	5.458068e+14	1.128984e+04	6.169609e+03	2.201131e+03	0	7.960398e-04
4.100000e+08	6.734733e+12	0.000000e+00	3.567839e-01	2.139336e+14	1.470306e+15	5.430186e+14	1.126387e+04	6.156114e+03	2.196317e+03	0	7.886628e-04
4.200000e+08	6.549457e+12	0.000000e+00	3.567839e-01	2.106524e+14	1.446368e+15	5.402505e+14	1.123830e+04	6.142961e+03	2.191624e+03	0	7.813633e-04
4.300000e+08	6.369445e+12	0.000000e+00	3.567839e-01	2.074612e+14	1.423272e+15	5.375023e+14	1.121312e+04	6.130135e+03	2.187048e+03	0	7.741381e-04
4.400000e+08	6.194485e+12	0.000000e+00	3.567839e-01	2.043567e+14	1.400973e+15	5.347739e+14	1.118832e+04	6.117623e+03	2.182584e+03	0	7.669840e-04
4.500000e+08	6.024380e+12	0.000000e+00	3.567839e-01	2.013354e+14	1.379430e+15	5.320651e+14	1.116389e+04	6.105412e+03	2.178228e+03	0	7.598981e-04
4.600000e+08	5.858941e+12	0.000000e+00	3.567839e-01	1.983941e+14	1.358606e+15	5.293758e+14	1.113982e+04	6.093491e+03	2.173975e+03	0	7.528774e-04
4.700000e+08	5.697988e+12	0.000000e+00	3.567839e-01	1.955298e+14	1.338465e+15	5.267057e+14	1.111610e+04	6.081848e+03	2.169821e+03	0	7.459191e-04
4.800000e+08	5.541350e+12	0.000000e+00	3.567839e-01	1.927395e+14	1.318973e+15	5.240548e+14	1.109272e+04	6.070473e+03	2.165763e+03	0	7.390204e-04
4.900000e+08	5.388865e+12	0.000000e+00	3.567839e-01	1.900207e+14	1.300099e+15	5.214228e+14	1.106967e+04	6.059355e+03	2.161796e+03	0	7.321785e-04
5.000000e+08	5.240379e+12	0.000000e+00	3.567839e-01	1.873705e+14	1.281815e+15	5.188097e+14	1.104695e+04	6.048485e+03	2.157918e+03	0	7.253909e-04
5.100000e+08	5.095744e+12	0.000000e+00	3.567839e-01	1.847866e+14	1.264093e+15	5.162153e+14	1.102454e+04	6.037854e+03	2.154125e+03	0	7.186550e-04
5.200000e+08	4.954822e+12	0.000000e+00	3.567839e-01	1.822665e+14	1.246906e+15	5.136393e+14	1.100244e+04	6.027453e+03	2.150415e+03	0	7.119682e-04
5.300000e+08	4.817477e+12	0.000000e+00	3.567839e-01	1.798081e+14	1.230231e+15	5.110817e+14	1.098063e+04	6.017274e+03	2.146783e+03	0	7.053280e-04
5.400000e+08	4.683582e+12	0.000000e+00	3.567839e-01	1.774090e+14	1.214044e+15	5.085424e+14	1.095912e+04	6.007309e+03	2.143228e+03	0	6.987320e-04
5.500000e+08	4.553016e+12	0.000000e+00	3.567839e-01	1.750673e+14	1.198324e+15	5.060211e+14	1.093790e+04	5.997550e+03	2.139746e+03	0	6.921777e-04
5.600000e+08	4.425663e+12	0.000000e+00	3.567839e-01	1.727810e+14	1.183052e+15	5.035177e+14	1.091696e+04	5.987990e+03	2.136335e+03	0	6.856630e-04
5.700000e+08	4.301412e+12	0.000000e+00	3.567839e-01	1.705483e+14	1.168207e+15	5.010321e+14	1.089629e+04	5.978623e+03	2.132993e+03	0	6.791853e-04
5.800000e+08	4.180158e+12	0.000000e+00	3.567839e-01	1.683672e+14	1.153771e+15	4.985642e+14	1.087588e+04	5.969441e+03	2.129718e+03	0	6.727424e-04
5.900000e+08	4.061797e+12	0.000000e+00	3.567839e-01	1.662361e+14	1.139728e+15	4.961137e+14	1.085573e+04	5.960440e+03	2.126506e+03	0	6.663320e-04
6.000000e+08	3.946235e+12	0.000000e+00	3.567839e-01	1.641533e+14	1.126061e+15	4.936806e+14	1.083584e+04	5.951612e+03	2.123357e+03	0	6.599518e-04
6.100000e+08	3.833377e+12	0.000000e+00	3.567839e-01	1.621174e+14	1.112755e+15	4.912647e+14	1.081620e+04	5.942952e+03	2.120267e+03	0	6.535996e-04
6.200000e+08	3.723136e+12	0.000000e+00	3.567839e-01	1.601266e+14	1.099795e+15	4.888659e+14	1.079680e+04	5.934455e+03	2.117236e+03	0	6.472731e-04
6.300000e+08	3.615426e+12	0.000000e+00	3.567839e-01	1.581797e+14	1.087168e+15	4.864840e+14	1.077763e+04	5.926115e+03	2.114260e+03	0	6.409700e-04
6.400000e+08	3.510166e+12	0.000000e+00	3.567839e-01	1.562752e+14	1.074861e+15	4.841189e+14	1.075870e+04	5.917928e+03	2.111339e+03	0	6.346882e-04
6.500000e+08	3.407278e+12	0.000000e+00	3.567839e-01	1.544117e+14	1.062861e+15	4.817705e+14	1.073999e+04	5.909889e+03	2.108471e+03	0	6.284254e-04
6.600000e+08	3.306686e+12	0.000000e+00	3.567839e-01	1.525881e+14	1.051156e+15	4.794386e+14	1.072151e+04	5.901993e+03	2.105654e+03	0	6.221793e-04
6.700000e+08	3.208319e+12	0.000000e+00	3.567839e-01	1.508030e+14	1.039736e+15	4.771230e+14	1.070325e+04	5.894235e+03	2.102886e+03	0	6.159476e-04
6.800000e+08	3.112109e+12	0.000000e+00	3.567839e-01	1.490554e+14	1.028589e+15	4.748238e+14	1.068519e+04	5.886613e+03	2.100167e+03	0	6.097280e-04
6.900000e+08	3.017988e+12	0.000000e+00	3.567839e-01	1.473440e+14	1.017707e+15	4.725407e+14	1.066735e+04	5.879120e+03	2.097494e+03	0	6.035182e-04
7.000000e+08	2.925893e+12	0.000000e+00	3.567839e-01	1.456679e+14	1.007078e+15	4.702735e+14	1.064971e+04	5.871755e+03	2.094866e+03	0	5.973159e-04
7.100000e+08	2.835764e+12	0.000000e+00	3.567839e-01	1.440259e+14	9.966944e+14	4.680223e+14	1.063227e+04	5.864513e+03	2.092282e+03	0	5.911186e-04
7.200000e+08	2.747541e+12	0.000000e+00	3.567839e-01	1.424170e+14	9.865469e+14	4.657868e+14	1.061502e+04	5.857390e+03	2.089741e+03	0	5.849238e-04
7.300000e+08	2.661169e+12	0.000000e+00	3.567839e-01	1.408403e+14	9.766273e+14	4.635669e+14	1.059797e+04	5.850383e+03	2.087241e+03	0	5.787292e-04
7.400000e+08	2.576591e+12	0.000000e+00	3.567839e-01	1.392949e+14	9.669277e+14	4.613625e+14	1.058111e+04	5.843488e+03	2.084781e+03	0	5.725320e-04
7.500000e+08	2.493758e+12	0.000000e+00	3.567839e-01	1.377798e+14	9.574405e+14	4.591735e+14	1.056443e+04	5.836704e+03	2.082361e+03	0	5.663297e-04
7.600000e+08	2.412617e+12	0.000000e+00	3.567839e-01	1.362942e+14	9.481585e+14	4.569997e+14	1.054793e+04	5.830025e+03	2.079978e+03	0	5.601195e-04
7.700000e+08	2.333122e+12	0.000000e+00	3.567839e-01	1.348373e+14	9.390748e+14	4.548411e+14	1.053160e+04	5.823451e+03	2.077633e+03	0	5.538987e-04
7.800000e+08	2.255224e+12	0.000000e+00	3.567839e-01	1.334083e+14	9.301829e+14	4.526975e+14	1.051546e+04	5.816977e+03	2.075323e+03	0	5.476644e-04
7.900000e+08	2.178880e+12	0.000000e+00	3.567839e-01	1.320064e+14	9.214763e+14	4.505687e+14	1.049948e+04	5.810601e+03	2.073048e+03	0	5.414134e-04
8.000000e+08	2.104046e+12	0.000000e+00	3.567839e-01	1.306309e+14	9.129491e+14	4.484547e+14	1.048367e+04	5.804320e+03	2.070807e+03	0	5.351427e-04
8.100000e+08	2.030680e+12	0.000000e+00	3.567839e-01	1.292810e+14	9.045955e+14	4.463554e+14	1.046802e+04	5.798132e+03	2.068600e+03	0	5.288490e-04
8.200000e+08	1.958742e+12	0.000000e+00	3.567839e-01	1.279560e+14	8.964099e+14	4.442706e+14	1.045254e+04	5.792034e+03	2.066424e+03	0	5.225289e-04
8.300000e+08	1.888193e+12	0.000000e+00	3.567839e-01	1.266554e+14	8.883871e+14	4.422002e+14	1.043721e+04	5.786025e+03	2.064280e+03	0	5.161786e-04
8.400000e+08	1.818995e+12	0.000000e+00	3.567839e-01	1.253784e+14	8.805221e+14	4.401441e+14	1.042204e+04	5.780101e+03	2.062167e+03	0	5.097944e-04
8.500000e+08	1.751113e+12	0.000000e+00	3.567839e-01	1.241244e+14	8.728098e+14	4.381022e+14	1.040702e+04	5.774261e+03	2.060083e+03	0	5.033723e-04
8.600000e+08	1.684512e+12	0.000000e+00	3.567839e-01	1.228929e+14	8.652458e+14	4.360743e+14	1.039215e+04	5.768502e+03	2.058029e+03	0	4.969079e-04
8.700000e+08	1.619158e+12	0.000000e+00	3.567839e-01	1.216832e+14	8.578254e+14	4.340604e+14	1.037742e+04	5.762822e+03	2.056002e+03	0	4.903968e-04
8.800000e+08	1.555017e+12	0.000000e+00	3.567839e-01	1.204949e+14	8.505444e+14	4.320604e+14	1.036285e+04	5.757220e+03	2.054004e+03	0	4.838339e-04
8.900000e+08	1.492060e+12	0.000000e+00	3.567839e-01	1.193272e+14	8.433987e+14	4.300741e+14	1.034841e+04	5.751694e+03	2.052032e+03	0	4.772142e-04
9.000000e+08	1.430255e+12	0.000000e+00	3.567839e-01	1.181798e+14	8.363843e+14	4.281015e+14	1.033411e+04	5.746241e+03	2.050086e+03	0	4.705319e-04
9.100000e+08	1.369573e+12	0.000000e+00	3.567839e-01	1.170521e+14	8.294974e+14	4.261424e+14	1.031995e+04	5.740859e+03	2.048167e+03	0	4.637810e-04
9.200000e+08	1.309986e+12	0.000000e+00	3.567839e-01	1.159437e+14	8.227343e+14	4.241966e+14	1.030593e+04	5.735548e+03	2.046272e+03	0	4.569550e-04
9.300000e+08	1.251465e+12	0.000000e+00	3.567839e-01	1.148540e+14	8.160915e+14	4.222642e+14	1.029203e+04	5.730306e+03	2.044401e+03	0	4.500466e-04
9.400000e+08	1.193985e+12	0.000000e+00	3.567839e-01	1.137826e+14	8.095656e+14	4.203450e+14	1.027827e+04	5.725130e+03	2.042555e+03	0	4.430481e-04
9.500000e+08	1.137520e+12	0.000000e+00	3.567839e-01	1.127291e+14	8.031533e+14	4.184390e+14	1.026464e+04	5.720019e+03	2.040731e+03	0	4.359509e-04
9.600000e+08	1.082044e+12	0.000000e+00	3.567839e-01	1.116930e+14	7.968516e+14	4.165459e+14	1.025113e+04	5.714972e+03	2.038931e+03	0	4.287455e-04
9.700000e+08	1.027534e+12	0.000000e+00	3.567839e-01	1.106739e+14	7.906574e+14	4.146657e+14	1.023774e+04	5.709987e+03	2.037152e+03	0	4.214215e-04
9.800000e+08	9.739660e+11	0.000000e+00	3.567839e-01	1.096715e+14	7.845677e+14	4.127982e+14	1.022448e+04	5.705063e+03	2.035396e+03	0	4.139671e-04
9.900000e+08	9.213175e+11	0.000000e+00	3.567839e-01	1.086852e+14	7.785798e+14	4.109435e+14	1.021134e+04	5.700199e+03	2.033660e+03	0	4.063694e-04
1.000000e+09	8.695665e+11	0.000000e+00	3.567839e-01	1.077148e+14	7.726909e+14	4.091014e+14	1.019831e+04	5.695392e+03	2.031945e+03	0	3.986136e-04
1.010000e+09	8.186917e+11	0.000000e+00	3.567839e-01	1.067599e+14	7.668985e+14	4.072718e+14	1.018540e+04	5.690643e+03	2.030251e+03	0	3.906832e-04
1.020000e+09	7.686726e+11	0.000000e+00	3.567839e-01	1.058201e+14	7.612000e+14	4.054545e+14	1.017260e+04	5.685949e+03	2.028576e+03	0	3.825589e-04
1.030000e+09	7.194891e+11	0.000000e+00	3.567839e-01	1.048950e+14	7.555930e+14	4.036496e+14	1.015992e+04	5.681309e+03	2.026921e+03	0	3.742191e-04
1.040000e+09	6.711218e+11	0.000000e+00	3.567839e-01	1.039844e+14	7.500751e+14	4.018568e+14	1.014735e+04	5.676722e+03	2.025284e+03	0	3.656383e-04
1.050000e+09	6.235520e+11	0.000000e+00	3.567839e-01	1.030879e+14	7.446441e+14	4.000762e+14	1.013488e+04	5.672188e+03	2.023666e+03	0	3.567868e-04
1.060000e+09	5.767613e+11	0.000000e+00	3.567839e-01	1.022052e+14	7.392979e+14	3.983076e+14	1.012253e+04	5.667704e+03	2.022067e+03	0	3.476295e-04
1.070000e+09	5.307320e+11	0.000000e+00	3.567839e-01	1.013360e+14	7.340342e+14	3.965509e+14	1.011027e+04	5.663270e+03	2.020485e+03	0	3.381243e-04
1.080000e+09	4.854470e+11	0.000000e+00	3.567839e-01	1.004799e+14	7.288510e+14	3.948060e+14	1.009813e+04	5.658884e+03	2.018920e+03	0	3.282201e-04
1.090000e+09	4.408895e+11	0.000000e+00	3.567839e-01	9.963681e+13	7.237464e+14	3.930728e+14	1.008608e+04	5.654547e+03	2.017373e+03	0	3.178541e-04
1.100000e+09	3.970434e+11	0.000000e+00	3.567839e-01	9.880631e+13	7.187185e+14	3.913513e+14	1.007414e+04	5.650256e+03	2.015842e+03	0	3.069474e-04
1.110000e+09	3.538929e+11	0.000000e+00	3.567839e-01	9.798815e+13	7.137654e+14	3.896413e+14	1.006229e+04	5.646011e+03	2.014327e+03	0	2.953986e-04
1.120000e+09	3.114226e+11	0.000000e+00	3.567839e-01	9.718208e+13	7.088853e+14	3.879428e+14	1.005054e+04	5.641810e+03	2.012829e+03	0	2.830748e-04
1.130000e+09	2.696178e+11	0.000000e+00	3.567839e-01	9.638784e+13	7.040765e+14	3.862556e+14	1.003889e+04	5.637654e+03	2.011346e+03	0	2.697951e-04
1.140000e+09	2.284640e+11	0.000000e+00	3.567839e-01	9.560517e+13	6.993373e+14	3.845797e+14	1.002734e+04	5.633540e+03	2.009878e+03	0	2.553037e-04
1.150000e+09	1.879471e+11	0.000000e+00	3.567839e-01	9.483384e+13	6.946662e+14	3.829151e+14	1.001587e+04	5.629469e+03	2.008426e+03	0	2.392194e-04
1.160000e+09	1.480535e+11	0.000000e+00	3.567839e-01	9.407360e+13	6.900614e+14	3.812615e+14	1.000450e+04	5.625439e+03	2.006988e+03	0	2.209314e-04
1.170000e+09	1.087700e+11	0.000000e+00	3.567839e-01	9.332422e+13	6.855216e+14	3.796189e+14	9.993224e+03	5.621449e+03	2.005565e+03	0	1.993521e-04
1.180000e+09	7.008354e+10	0.000000e+00	3.567839e-01	9.258549e+13	6.810453e+14	3.779873e+14	9.982035e+03	5.617500e+03	2.004155e+03	0	1.721829e-04
1.190000e+09	3.198169e+10	0.000000e+00	3.567839e-01	9.185718e+13	6.766309e+14	3.763665e+14	9.970933e+03	5.613589e+03	2.002760e+03	0	1.325618e-04
1.200000e+09	-5.547799e+09	0.000000e+00	3.567839e-01	9.113908e+13	6.722772e+14	3.747564e+14	9.959919e+03	5.609716e+03	2.001379e+03	0	nan
