#t		Qconv[W]	Ri[Rp]		R*[Rp]		Qc[W]		Qm[W]		Qr[W]		Tcmb[K]		Tl[K]		Tup[K]		RiFlag		Bs[T]
0.000000e+00	2.764569e+13	0.000000e+00	3.567838e-01	5.751383e+14	5.198219e+15	7.085334e+14	1.337619e+04	7.647046e+03	2.665177e+03	0	1.260578e-03
1.000000e+07	2.659882e+13	0.000000e+00	3.567838e-01	5.578507e+14	4.918261e+15	7.046076e+14	1.331177e+04	7.578934e+03	2.641438e+03	0	1.244461e-03
2.000000e+07	2.560451e+13	0.000000e+00	3.567838e-01	5.414177e+14	4.665644e+15	7.007111e+14	1.324926e+04	7.515244e+03	2.619241e+03	0	1.228757e-03
3.000000e+07	2.465969e+13	0.000000e+00	3.567838e-01	5.257894e+14	4.436740e+15	6.968438e+14	1.318857e+04	7.455531e+03	2.598430e+03	0	1.213453e-03
4.000000e+07	2.376138e+13	0.000000e+00	3.567838e-01	5.109178e+14	4.228515e+15	6.930054e+14	1.312961e+04	7.399410e+03	2.578870e+03	0	1.198536e-03
5.000000e+07	2.290675e+13	0.000000e+00	3.567838e-01	4.967571e+14	4.038413e+15	6.891956e+14	1.307231e+04	7.346544e+03	2.560445e+03	0	1.183991e-03
6.000000e+07	2.209313e+13	0.000000e+00	3.567838e-01	4.832638e+14	3.864272e+15	6.854142e+14	1.301658e+04	7.296640e+03	2.543052e+03	0	1.169804e-03
7.000000e+07	2.131799e+13	0.000000e+00	3.567838e-01	4.703972e+14	3.704248e+15	6.816609e+14	1.296235e+04	7.249440e+03	2.526602e+03	0	1.155960e-03
8.000000e+07	2.057898e+13	0.000000e+00	3.567838e-01	4.581191e+14	3.556762e+15	6.779356e+14	1.290955e+04	7.204714e+03	2.511014e+03	0	1.142445e-03
9.000000e+07	1.987388e+13	0.000000e+00	3.567838e-01	4.463937e+14	3.420457e+15	6.742379e+14	1.285812e+04	7.162259e+03	2.496217e+03	0	1.129245e-03
1.000000e+08	1.920063e+13	0.000000e+00	3.567838e-01	4.351877e+14	3.294156e+15	6.705677e+14	1.280799e+04	7.121896e+03	2.482150e+03	0	1.116347e-03
1.100000e+08	1.855733e+13	0.000000e+00	3.567838e-01	4.244701e+14	3.176839e+15	6.669248e+14	1.275911e+04	7.083462e+03	2.468755e+03	0	1.103737e-03
1.200000e+08	1.794218e+13	0.000000e+00	3.567838e-01	4.142119e+14	3.067616e+15	6.633088e+14	1.271142e+04	7.046812e+03	2.455981e+03	0	1.091404e-03
1.300000e+08	1.735352e+13	0.000000e+00	3.567838e-01	4.043863e+14	2.965707e+15	6.597196e+14	1.266488e+04	7.011817e+03	2.443785e+03	0	1.079336e-03
1.400000e+08	1.678982e+13	0.000000e+00	3.567838e-01	3.949683e+14	2.870427e+15	6.561570e+14	1.261943e+04	6.978360e+03	2.432124e+03	0	1.067520e-03
1.500000e+08	1.624963e+13	0.000000e+00	3.567838e-01	3.859345e+14	2.781170e+15	6.526208e+14	1.257503e+04	6.946332e+03	2.420962e+03	0	1.055946e-03
1.600000e+08	1.573162e+13	0.000000e+00	3.567838e-01	3.772633e+14	2.697402e+15	6.491106e+14	1.253164e+04	6.915639e+03	2.410264e+03	0	1.044604e-03
1.700000e+08	1.523453e+13	0.000000e+00	3.567838e-01	3.689345e+14	2.618646e+15	6.456263e+14	1.248922e+04	6.886193e+03	2.400002e+03	0	1.033484e-03
1.800000e+08	1.475723e+13	0.000000e+00	3.567838e-01	3.609293e+14	2.544480e+15	6.421678e+14	1.244772e+04	6.857912e+03	2.390145e+03	0	1.022576e-03
1.900000e+08	1.429861e+13	0.000000e+00	3.567838e-01	3.532303e+14	2.474526e+15	6.387347e+14	1.240712e+04	6.830725e+03	2.380670e+03	0	1.011871e-03
2.000000e+08	1.385768e+13	0.000000e+00	3.567838e-01	3.458209e+14	2.408443e+15	6.353269e+14	1.236738e+04	6.804565e+03	2.371552e+03	0	1.001361e-03
2.100000e+08	1.343350e+13	0.000000e+00	3.567838e-01	3.386860e+14	2.345928e+15	6.319441e+14	1.232847e+04	6.779369e+03	2.362771e+03	0	9.910380e-04
2.200000e+08	1.302519e+13	0.000000e+00	3.567838e-01	3.318114e+14	2.286707e+15	6.285862e+14	1.229036e+04	6.755082e+03	2.354306e+03	0	9.808936e-04
2.300000e+08	1.263192e+13	0.000000e+00	3.567838e-01	3.251835e+14	2.230532e+15	6.252529e+14	1.225301e+04	6.731651e+03	2.346140e+03	0	9.709205e-04
2.400000e+08	1.225293e+13	0.000000e+00	3.567838e-01	3.187901e+14	2.177180e+15	6.219440e+14	1.221641e+04	6.709029e+03	2.338256e+03	0	9.611117e-04
2.500000e+08	1.188750e+13	0.000000e+00	3.567838e-01	3.126195e+14	2.126447e+15	6.186594e+14	1.218052e+04	6.687170e+03	2.330637e+03	0	9.514604e-04
2.600000e+08	1.153496e+13	0.000000e+00	3.567838e-01	3.066605e+14	2.078149e+15	6.153988e+14	1.214532e+04	6.666034e+03	2.323271e+03	0	9.419602e-04
2.700000e+08	1.119467e+13	0.000000e+00	3.567838e-01	3.009031e+14	2.032118e+15	6.121621e+14	1.211078e+04	6.645583e+03	2.316143e+03	0	9.326049e-04
2.800000e+08	1.086605e+13	0.000000e+00	3.567838e-01	2.953376e+14	1.988202e+15	6.089490e+14	1.207689e+04	6.625781e+03	2.309242e+03	0	9.233885e-04
2.900000e+08	1.054854e+13	0.000000e+00	3.567838e-01	2.899549e+14	1.946259e+15	6.057594e+14	1.204363e+04	6.606595e+03	2.302555e+03	0	9.143055e-04
3.000000e+08	1.024161e+13	0.000000e+00	3.567838e-01	2.847465e+14	1.906163e+15	6.025930e+14	1.201096e+04	6.587994e+03	2.296072e+03	0	9.053503e-04
3.100000e+08	9.944777e+12	0.000000e+00	3.567838e-01	2.797044e+14	1.867795e+15	5.994496e+14	1.197888e+04	6.569950e+03	2.289783e+03	0	8.965178e-04
3.200000e+08	9.657576e+12	0.000000e+00	3.567838e-01	2.748210e+14	1.831047e+15	5.963292e+14	1.194737e+04	6.552436e+03	2.283679e+03	0	8.878030e-04
3.300000e+08	9.379571e+12	0.000000e+00	3.567838e-01	2.700894e+14	1.795820e+15	5.932314e+14	1.191640e+04	6.535426e+03	2.277751e+03	0	8.792011e-04
3.400000e+08	9.110351e+12	0.000000e+00	3.567838e-01	2.655027e+14	1.762023e+15	5.901562e+14	1.188596e+04	6.518898e+03	2.271991e+03	0	8.707075e-04
3.500000e+08	8.849530e+12	0.000000e+00	3.567838e-01	2.610547e+14	1.729570e+15	5.871032e+14	1.185603e+04	6.502830e+03	2.266390e+03	0	8.623177e-04
3.600000e+08	8.596742e+12	0.000000e+00	3.567838e-01	2.567393e+14	1.698385e+15	5.840724e+14	1.182661e+04	6.487200e+03	2.260943e+03	0	8.540275e-04
3.700000e+08	8.351641e+12	0.000000e+00	3.567838e-01	2.525510e+14	1.668394e+15	5.810635e+14	1.179767e+04	6.471989e+03	2.255642e+03	0	8.458328e-04
3.800000e+08	8.113901e+12	0.000000e+00	3.567838e-01	2.484845e+14	1.639530e+15	5.780764e+14	1.176919e+04	6.457179e+03	2.250480e+03	0	8.377295e-04
3.900000e+08	7.883214e+12	0.000000e+00	3.567838e-01	2.445346e+14	1.611732e+15	5.751109e+14	1.174118e+04	6.442754e+03	2.245453e+03	0	8.297139e-04
4.000000e+08	7.659286e+12	0.000000e+00	3.567838e-01	2.406966e+14	1.584941e+15	5.721668e+14	1.171360e+04	6.428696e+03	2.240553e+03	0	8.217821e-04
4.100000e+08	7.441842e+12	0.000000e+00	3.567838e-01	2.369660e+14	1.559104e+15	5.692439e+14	1.168646e+04	6.414990e+03	2.235776e+03	0	8.139306e-04
4.200000e+08	7.230619e+12	0.000000e+00	3.567838e-01	2.333386e+14	1.534170e+15	5.663421e+14	1.165973e+04	6.401622e+03	2.231117e+03	0	8.061560e-04
4.300000e+08	7.025369e+12	0.000000e+00	3.567838e-01	2.298101e+14	1.510094e+15	5.634613e+14	1.163341e+04	6.388578e+03	2.226571e+03	0	7.984547e-04
4.400000e+08	6.825855e+12	0.000000e+00	3.567838e-01	2.263768e+14	1.486831e+15	5.606011e+14	1.160749e+04	6.375846e+03	2.222134e+03	0	7.908235e-04
4.500000e+08	6.631853e+12	0.000000e+00	3.567838e-01	2.230350e+14	1.464341e+15	5.577615e+14	1.158196e+04	6.363413e+03	2.217800e+03	0	7.832592e-04
4.600000e+08	6.443150e+12	0.000000e+00	3.567838e-01	2.197812e+14	1.442585e+15	5.549422e+14	1.155679e+04	6.351268e+03	2.213568e+03	0	7.757587e-04
4.700000e+08	6.259544e+12	0.000000e+00	3.567838e-01	2.166121e+14	1.421528e+15	5.521432e+14	1.153200e+04	6.339399e+03	2.209431e+03	0	7.683188e-04
4.800000e+08	6.080843e+12	0.000000e+00	3.567838e-01	2.135245e+14	1.401137e+15	5.493643e+14	1.150756e+04	6.327796e+03	2.205387e+03	0	7.609367e-04
4.900000e+08	5.906863e+12	0.000000e+00	3.567838e-01	2.105155e+14	1.381380e+15	5.466052e+14	1.148346e+04	6.316450e+03	2.201433e+03	0	7.536092e-04
5.000000e+08	5.737430e+12	0.000000e+00	3.567838e-01	2.075821e+14	1.362227e+15	5.438659e+14	1.145971e+04	6.305350e+03	2.197564e+03	0	7.463337e-04
5.100000e+08	5.572378e+12	0.000000e+00	3.567838e-01	2.047217e+14	1.343652e+15	5.411461e+14	1.143628e+04	6.294489e+03	2.193779e+03	0	7.391072e-04
5.200000e+08	5.411549e+12	0.000000e+00	3.567838e-01	2.019317e+14	1.325627e+15	5.384458e+14	1.141317e+04	6.283857e+03	2.190073e+03	0	7.319270e-04
5.300000e+08	5.254791e+12	0.000000e+00	3.567838e-01	1.992095e+14	1.308129e+15	5.357647e+14	1.139038e+04	6.273446e+03	2.186445e+03	0	7.247903e-04
5.400000e+08	5.101960e+12	0.000000e+00	3.567838e-01	1.965528e+14	1.291134e+15	5.331027e+14	1.136790e+04	6.263249e+03	2.182891e+03	0	7.176945e-04
5.500000e+08	4.952919e+12	0.000000e+00	3.567838e-01	1.939594e+14	1.274620e+15	5.304596e+14	1.134571e+04	6.253259e+03	2.179409e+03	0	7.106367e-04
5.600000e+08	4.807536e+12	0.000000e+00	3.567838e-01	1.914271e+14	1.258567e+15	5.278354e+14	1.132381e+04	6.243467e+03	2.175997e+03	0	7.036145e-04
5.700000e+08	4.665687e+12	0.000000e+00	3.567838e-01	1.889538e+14	1.242956e+15	5.252297e+14	1.130220e+04	6.233869e+03	2.172651e+03	0	6.966251e-04
5.800000e+08	4.527250e+12	0.000000e+00	3.567838e-01	1.865375e+14	1.227768e+15	5.226426e+14	1.128087e+04	6.224456e+03	2.169371e+03	0	6.896659e-04
5.900000e+08	4.392112e+12	0.000000e+00	3.567838e-01	1.841764e+14	1.212985e+15	5.200738e+14	1.125981e+04	6.215224e+03	2.166153e+03	0	6.827343e-04
6.000000e+08	4.260162e+12	0.000000e+00	3.567838e-01	1.818686e+14	1.198592e+15	5.175232e+14	1.123901e+04	6.206166e+03	2.162996e+03	0	6.758276e-04
6.100000e+08	4.131295e+12	0.000000e+00	3.567838e-01	1.796125e+14	1.184572e+15	5.149906e+14	1.121847e+04	6.197276e+03	2.159898e+03	0	6.689433e-04
6.200000e+08	4.005411e+12	0.000000e+00	3.567838e-01	1.774064e+14	1.170912e+15	5.124759e+14	1.119819e+04	6.188550e+03	2.156856e+03	0	6.620787e-04
6.300000e+08	3.882413e+12	0.000000e+00	3.567838e-01	1.752486e+14	1.157596e+15	5.099790e+14	1.117815e+04	6.179982e+03	2.153870e+03	0	6.552310e-04
6.400000e+08	3.762208e+12	0.000000e+00	3.567838e-01	1.731377e+14	1.144612e+15	5.074997e+14	1.115836e+04	6.171567e+03	2.150938e+03	0	6.483978e-04
6.500000e+08	3.644709e+12	0.000000e+00	3.567838e-01	1.710721e+14	1.131947e+15	5.050378e+14	1.113881e+04	6.163301e+03	2.148057e+03	0	6.415761e-04
6.600000e+08	3.529830e+12	0.000000e+00	3.567838e-01	1.690506e+14	1.119589e+15	5.025933e+14	1.111948e+04	6.155179e+03	2.145226e+03	0	6.347633e-04
6.700000e+08	3.417489e+12	0.000000e+00	3.567838e-01	1.670717e+14	1.107526e+15	5.001659e+14	1.110039e+04	6.147196e+03	2.142444e+03	0	6.279566e-04
6.800000e+08	3.307609e+12	0.000000e+00	3.567838e-01	1.651341e+14	1.095748e+15	4.977556e+14	1.108152e+04	6.139350e+03	2.139709e+03	0	6.211531e-04
6.900000e+08	3.200114e+12	0.000000e+00	3.567838e-01	1.632367e+14	1.084245e+15	4.953622e+14	1.106286e+04	6.131634e+03	2.137020e+03	0	6.143498e-04
7.000000e+08	3.094931e+12	0.000000e+00	3.567838e-01	1.613782e+14	1.073006e+15	4.929856e+14	1.104442e+04	6.124047e+03	2.134376e+03	0	6.075438e-04
7.100000e+08	2.991992e+12	0.000000e+00	3.567838e-01	1.595574e+14	1.062023e+15	4.906257e+14	1.102619e+04	6.116583e+03	2.131774e+03	0	6.007320e-04
7.200000e+08	2.891230e+12	0.000000e+00	3.567838e-01	1.577733e+14	1.051285e+15	4.882822e+14	1.100816e+04	6.109241e+03	2.129215e+03	0	5.939111e-04
7.300000e+08	2.792580e+12	0.000000e+00	3.567838e-01	1.560248e+14	1.040786e+15	4.859551e+14	1.099034e+04	6.102015e+03	2.126697e+03	0	5.870780e-04
7.400000e+08	2.695980e+12	0.000000e+00	3.567838e-01	1.543109e+14	1.030516e+15	4.836443e+14	1.097271e+04	6.094903e+03	2.124218e+03	0	5.802291e-04
7.500000e+08	2.601372e+12	0.000000e+00	3.567838e-01	1.526306e+14	1.020467e+15	4.813495e+14	1.095527e+04	6.087902e+03	2.121778e+03	0	5.733609e-04
7.600000e+08	2.508698e+12	0.000000e+00	3.567838e-01	1.509829e+14	1.010633e+15	4.790708e+14	1.093802e+04	6.081008e+03	2.119376e+03	0	5.664697e-04
7.700000e+08	2.417903e+12	0.000000e+00	3.567838e-01	1.493670e+14	1.001007e+15	4.768079e+14	1.092096e+04	6.074219e+03	2.117010e+03	0	5.595517e-04
7.800000e+08	2.328933e+12	0.000000e+00	3.567838e-01	1.477820e+14	9.915805e+14	4.745607e+14	1.090408e+04	6.067533e+03	2.114679e+03	0	5.526026e-04
7.900000e+08	2.241739e+12	0.000000e+00	3.567838e-01	1.462269e+14	9.823483e+14	4.723291e+14	1.088738e+04	6.060945e+03	2.112383e+03	0	5.456183e-04
8.000000e+08	2.156269e+12	0.000000e+00	3.567838e-01	1.447010e+14	9.733039e+14	4.701130e+14	1.087085e+04	6.054454e+03	2.110121e+03	0	5.385941e-04
8.100000e+08	2.072478e+12	0.000000e+00	3.567838e-01	1.432036e+14	9.644412e+14	4.679123e+14	1.085450e+04	6.048057e+03	2.107891e+03	0	5.315252e-04
8.200000e+08	1.990318e+12	0.000000e+00	3.567838e-01	1.417338e+14	9.557547e+14	4.657268e+14	1.083831e+04	6.041751e+03	2.105694e+03	0	5.244065e-04
8.300000e+08	1.909747e+12	0.000000e+00	3.567838e-01	1.402908e+14	9.472387e+14	4.635564e+14	1.082229e+04	6.035535e+03	2.103527e+03	0	5.172325e-04
8.400000e+08	1.830720e+12	0.000000e+00	3.567838e-01	1.388741e+14	9.388881e+14	4.614010e+14	1.080643e+04	6.029406e+03	2.101391e+03	0	5.099973e-04
8.500000e+08	1.753197e+12	0.000000e+00	3.567838e-01	1.374829e+14	9.306979e+14	4.592605e+14	1.079074e+04	6.023362e+03	2.099285e+03	0	5.026945e-04
8.600000e+08	1.677138e+12	0.000000e+00	3.567838e-01	1.361166e+14	9.226632e+14	4.571347e+14	1.077519e+04	6.017400e+03	2.097207e+03	0	4.953173e-04
8.700000e+08	1.602504e+12	0.000000e+00	3.567838e-01	1.347745e+14	9.147793e+14	4.550236e+14	1.075981e+04	6.011519e+03	2.095157e+03	0	4.878583e-04
8.800000e+08	1.529260e+12	0.000000e+00	3.567838e-01	1.334559e+14	9.070419e+14	4.529270e+14	1.074457e+04	6.005717e+03	2.093135e+03	0	4.803093e-04
8.900000e+08	1.457367e+12	0.000000e+00	3.567838e-01	1.321604e+14	8.994466e+14	4.508448e+14	1.072948e+04	5.999991e+03	2.091139e+03	0	4.726615e-04
9.000000e+08	1.386793e+12	0.000000e+00	3.567838e-01	1.308873e+14	8.919893e+14	4.487768e+14	1.071454e+04	5.994340e+03	2.089170e+03	0	4.649052e-04
9.100000e+08	1.317502e+12	0.000000e+00	3.567838e-01	1.296360e+14	8.846661e+14	4.467231e+14	1.069974e+04	5.988763e+03	2.087226e+03	0	4.570296e-04
9.200000e+08	1.249464e+12	0.000000e+00	3.567838e-01	1.284061e+14	8.774732e+14	4.446834e+14	1.068508e+04	5.983256e+03	2.085307e+03	0	4.490229e-04
9.300000e+08	1.182645e+12	0.000000e+00	3.567838e-01	1.271970e+14	8.704068e+14	4.426577e+14	1.067057e+04	5.977820e+03	2.083412e+03	0	4.408716e-04
9.400000e+08	1.117017e+12	0.000000e+00	3.567838e-01	1.260081e+14	8.634636e+14	4.406458e+14	1.065618e+04	5.972451e+03	2.081541e+03	0	4.325609e-04
9.500000e+08	1.052550e+12	0.000000e+00	3.567838e-01	1.248391e+14	8.566401e+14	4.386477e+14	1.064193e+04	5.967149e+03	2.079693e+03	0	4.240738e-04
9.600000e+08	9.892145e+11	0.000000e+00	3.567838e-01	1.236894e+14	8.499330e+14	4.366631e+14	1.062782e+04	5.961912e+03	2.077868e+03	0	4.153913e-04
9.700000e+08	9.269837e+11	0.000000e+00	3.567838e-01	1.225585e+14	8.433391e+14	4.346921e+14	1.061383e+04	5.956738e+03	2.076065e+03	0	4.064913e-04
9.800000e+08	8.658307e+11	0.000000e+00	3.567838e-01	1.214461e+14	8.368556e+14	4.327345e+14	1.059997e+04	5.951627e+03	2.074283e+03	0	3.973485e-04
9.900000e+08	8.057297e+11	0.000000e+00	3.567838e-01	1.203517e+14	8.304793e+14	4.307902e+14	1.058624e+04	5.946576e+03	2.072523e+03	0	3.879333e-04
1.000000e+09	7.466557e+11	0.000000e+00	3.567838e-01	1.192748e+14	8.242076e+14	4.288591e+14	1.057263e+04	5.941584e+03	2.070783e+03	0	3.782109e-04
1.010000e+09	6.885841e+11	0.000000e+00	3.567838e-01	1.182151e+14	8.180376e+14	4.269411e+14	1.055914e+04	5.936650e+03	2.069064e+03	0	3.681399e-04
1.020000e+09	6.314917e+11	0.000000e+00	3.567838e-01	1.171722e+14	8.119668e+14	4.250361e+14	1.054577e+04	5.931773e+03	2.067364e+03	0	3.576705e-04
1.030000e+09	5.753553e+11	0.000000e+00	3.567838e-01	1.161456e+14	8.059926e+14	4.231440e+14	1.053251e+04	5.926952e+03	2.065683e+03	0	3.467416e-04
1.040000e+09	5.201530e+11	0.000000e+00	3.567838e-01	1.151351e+14	8.001126e+14	4.212647e+14	1.051938e+04	5.922185e+03	2.064022e+03	0	3.352774e-04
1.050000e+09	4.658632e+11	0.000000e+00	3.567838e-01	1.141402e+14	7.943244e+14	4.193981e+14	1.050635e+04	5.917471e+03	2.062379e+03	0	3.231817e-04
1.060000e+09	4.124650e+11	0.000000e+00	3.567838e-01	1.131606e+14	7.886257e+14	4.175440e+14	1.049344e+04	5.912809e+03	2.060754e+03	0	3.103294e-04
1.070000e+09	3.599382e+11	0.000000e+00	3.567838e-01	1.121960e+14	7.830143e+14	4.157025e+14	1.048064e+04	5.908198e+03	2.059147e+03	0	2.965536e-04
1.080000e+09	3.082632e+11	0.000000e+00	3.567838e-01	1.112461e+14	7.774882e+14	4.138733e+14	1.046795e+04	5.903637e+03	2.057558e+03	0	2.816228e-04
1.090000e+09	2.574207e+11	0.000000e+00	3.567838e-01	1.103104e+14	7.720451e+14	4.120564e+14	1.045537e+04	5.899125e+03	2.055985e+03	0	2.652010e-04
1.100000e+09	2.073924e+11	0.000000e+00	3.567838e-01	1.093888e+14	7.666831e+14	4.102518e+14	1.044289e+04	5.894661e+03	2.054429e+03	0	2.467695e-04
1.110000e+09	1.581602e+11	0.000000e+00	3.567838e-01	1.084808e+14	7.614003e+14	4.084592e+14	1.043051e+04	5.890244e+03	2.052890e+03	0	2.254549e-04
1.120000e+09	1.097066e+11	0.000000e+00	3.567838e-01	1.075863e+14	7.561949e+14	4.066787e+14	1.041824e+04	5.885872e+03	2.051366e+03	0	1.995744e-04
1.130000e+09	6.201454e+10	0.000000e+00	3.567838e-01	1.067049e+14	7.510649e+14	4.049100e+14	1.040607e+04	5.881546e+03	2.049858e+03	0	1.650156e-04
1.140000e+09	1.506761e+10	0.000000e+00	3.567838e-01	1.058364e+14	7.460087e+14	4.031532e+14	1.039400e+04	5.877263e+03	2.048366e+03	0	1.029695e-04
1.150000e+09	-3.115028e+10	0.000000e+00	3.567838e-01	1.049804e+14	7.410246e+14	4.014081e+14	1.038202e+04	5.873024e+03	2.046888e+03	0	nan
