#t		Qconv[W]	Ri[Rp]		R*[Rp]		Qc[W]		Qm[W]		Qr[W]		Tcmb[K]		Tl[K]		Tup[K]		RiFlag		Bs[T]
0.000000e+00	1.253098e+12	0.000000e+00	5.477386e-01	3.563977e+13	8.043987e+13	1.275952e+14	4.693918e+03	3.306610e+03	2.100256e+03	0	3.731323e-04
1.000000e+07	1.237183e+12	0.000000e+00	5.477386e-01	3.526774e+13	8.139131e+13	1.268883e+14	4.687653e+03	3.312827e+03	2.104204e+03	0	3.715458e-04
2.000000e+07	1.221463e+12	0.000000e+00	5.477386e-01	3.490028e+13	8.232741e+13	1.261866e+14	4.681454e+03	3.318890e+03	2.108056e+03	0	3.699655e-04
3.000000e+07	1.205940e+12	0.000000e+00	5.477386e-01	3.453739e+13	8.324788e+13	1.254901e+14	4.675320e+03	3.324801e+03	2.111810e+03	0	3.683916e-04
4.000000e+07	1.190614e+12	0.000000e+00	5.477386e-01	3.417909e+13	8.415247e+13	1.247989e+14	4.669249e+03	3.330564e+03	2.115471e+03	0	3.668243e-04
5.000000e+07	1.175486e+12	0.000000e+00	5.477386e-01	3.382538e+13	8.504099e+13	1.241128e+14	4.663240e+03	3.336179e+03	2.119037e+03	0	3.652640e-04
6.000000e+07	1.160556e+12	0.000000e+00	5.477386e-01	3.347629e+13	8.591322e+13	1.234318e+14	4.657294e+03	3.341648e+03	2.122511e+03	0	3.637110e-04
7.000000e+07	1.145824e+12	0.000000e+00	5.477386e-01	3.313180e+13	8.676898e+13	1.227559e+14	4.651409e+03	3.346974e+03	2.125894e+03	0	3.621655e-04
8.000000e+07	1.131290e+12	0.000000e+00	5.477386e-01	3.279191e+13	8.760812e+13	1.220851e+14	4.645585e+03	3.352159e+03	2.129187e+03	0	3.606277e-04
9.000000e+07	1.116954e+12	0.000000e+00	5.477386e-01	3.245663e+13	8.843048e+13	1.214192e+14	4.639820e+03	3.357204e+03	2.132392e+03	0	3.590979e-04
1.000000e+08	1.102816e+12	0.000000e+00	5.477386e-01	3.212593e+13	8.923596e+13	1.207582e+14	4.634114e+03	3.362112e+03	2.135509e+03	0	3.575763e-04
1.100000e+08	1.088875e+12	0.000000e+00	5.477386e-01	3.179981e+13	9.002445e+13	1.201022e+14	4.628466e+03	3.366884e+03	2.138540e+03	0	3.560632e-04
1.200000e+08	1.075130e+12	0.000000e+00	5.477386e-01	3.147824e+13	9.079587e+13	1.194510e+14	4.622875e+03	3.371523e+03	2.141486e+03	0	3.545586e-04
1.300000e+08	1.061580e+12	0.000000e+00	5.477386e-01	3.116122e+13	9.155013e+13	1.188047e+14	4.617341e+03	3.376030e+03	2.144349e+03	0	3.530628e-04
1.400000e+08	1.048225e+12	0.000000e+00	5.477386e-01	3.084871e+13	9.228723e+13	1.181631e+14	4.611862e+03	3.380408e+03	2.147130e+03	0	3.515761e-04
1.500000e+08	1.035064e+12	0.000000e+00	5.477386e-01	3.054070e+13	9.300709e+13	1.175263e+14	4.606439e+03	3.384658e+03	2.149830e+03	0	3.500984e-04
1.600000e+08	1.022095e+12	0.000000e+00	5.477386e-01	3.023715e+13	9.370970e+13	1.168942e+14	4.601069e+03	3.388783e+03	2.152450e+03	0	3.486301e-04
1.700000e+08	1.009317e+12	0.000000e+00	5.477386e-01	2.993803e+13	9.439507e+13	1.162667e+14	4.595752e+03	3.392785e+03	2.154991e+03	0	3.471711e-04
1.800000e+08	9.967289e+11	0.000000e+00	5.477386e-01	2.964332e+13	9.506321e+13	1.156439e+14	4.590488e+03	3.396665e+03	2.157456e+03	0	3.457218e-04
1.900000e+08	9.843292e+11	0.000000e+00	5.477386e-01	2.935297e+13	9.571414e+13	1.150256e+14	4.585276e+03	3.400426e+03	2.159845e+03	0	3.442822e-04
2.000000e+08	9.721162e+11	0.000000e+00	5.477386e-01	2.906696e+13	9.634790e+13	1.144119e+14	4.580114e+03	3.404069e+03	2.162159e+03	0	3.428524e-04
2.100000e+08	9.600884e+11	0.000000e+00	5.477386e-01	2.878524e+13	9.696456e+13	1.138028e+14	4.575003e+03	3.407597e+03	2.164400e+03	0	3.414325e-04
2.200000e+08	9.482440e+11	0.000000e+00	5.477386e-01	2.850777e+13	9.756417e+13	1.131980e+14	4.569941e+03	3.411011e+03	2.166568e+03	0	3.400226e-04
2.300000e+08	9.365813e+11	0.000000e+00	5.477386e-01	2.823452e+13	9.814682e+13	1.125978e+14	4.564928e+03	3.414314e+03	2.168666e+03	0	3.386229e-04
2.400000e+08	9.250985e+11	0.000000e+00	5.477386e-01	2.796543e+13	9.871258e+13	1.120019e+14	4.559963e+03	3.417507e+03	2.170694e+03	0	3.372333e-04
2.500000e+08	9.137936e+11	0.000000e+00	5.477386e-01	2.770047e+13	9.926158e+13	1.114104e+14	4.555045e+03	3.420592e+03	2.172654e+03	0	3.358540e-04
2.600000e+08	9.026648e+11	0.000000e+00	5.477386e-01	2.743959e+13	9.979389e+13	1.108232e+14	4.550174e+03	3.423572e+03	2.174547e+03	0	3.344850e-04
2.700000e+08	8.917099e+11	0.000000e+00	5.477386e-01	2.718274e+13	1.003097e+14	1.102403e+14	4.545348e+03	3.426448e+03	2.176373e+03	0	3.331263e-04
2.800000e+08	8.809271e+11	0.000000e+00	5.477386e-01	2.692988e+13	1.008090e+14	1.096617e+14	4.540568e+03	3.429221e+03	2.178135e+03	0	3.317781e-04
2.900000e+08	8.703141e+11	0.000000e+00	5.477386e-01	2.668096e+13	1.012921e+14	1.090873e+14	4.535832e+03	3.431895e+03	2.179833e+03	0	3.304404e-04
3.000000e+08	8.598690e+11	0.000000e+00	5.477386e-01	2.643593e+13	1.017590e+14	1.085171e+14	4.531139e+03	3.434470e+03	2.181469e+03	0	3.291131e-04
3.100000e+08	8.495896e+11	0.000000e+00	5.477386e-01	2.619474e+13	1.022100e+14	1.079510e+14	4.526490e+03	3.436949e+03	2.183043e+03	0	3.277964e-04
3.200000e+08	8.394737e+11	0.000000e+00	5.477386e-01	2.595733e+13	1.026451e+14	1.073891e+14	4.521883e+03	3.439333e+03	2.184557e+03	0	3.264902e-04
3.300000e+08	8.295191e+11	0.000000e+00	5.477386e-01	2.572366e+13	1.030646e+14	1.068312e+14	4.517317e+03	3.441624e+03	2.186013e+03	0	3.251945e-04
3.400000e+08	8.197236e+11	0.000000e+00	5.477386e-01	2.549368e+13	1.034686e+14	1.062774e+14	4.512793e+03	3.443824e+03	2.187410e+03	0	3.239094e-04
3.500000e+08	8.100850e+11	0.000000e+00	5.477386e-01	2.526734e+13	1.038573e+14	1.057276e+14	4.508309e+03	3.445935e+03	2.188751e+03	0	3.226349e-04
3.600000e+08	8.006010e+11	0.000000e+00	5.477386e-01	2.504457e+13	1.042309e+14	1.051818e+14	4.503865e+03	3.447958e+03	2.190036e+03	0	3.213708e-04
3.700000e+08	7.912695e+11	0.000000e+00	5.477386e-01	2.482534e+13	1.045896e+14	1.046400e+14	4.499459e+03	3.449896e+03	2.191266e+03	0	3.201174e-04
3.800000e+08	7.820881e+11	0.000000e+00	5.477386e-01	2.460959e+13	1.049335e+14	1.041021e+14	4.495093e+03	3.451749e+03	2.192443e+03	0	3.188744e-04
3.900000e+08	7.730546e+11	0.000000e+00	5.477386e-01	2.439726e+13	1.052629e+14	1.035680e+14	4.490764e+03	3.453519e+03	2.193568e+03	0	3.176419e-04
4.000000e+08	7.641668e+11	0.000000e+00	5.477386e-01	2.418831e+13	1.055780e+14	1.030378e+14	4.486472e+03	3.455209e+03	2.194641e+03	0	3.164199e-04
4.100000e+08	7.554223e+11	0.000000e+00	5.477386e-01	2.398268e+13	1.058789e+14	1.025115e+14	4.482218e+03	3.456819e+03	2.195664e+03	0	3.152083e-04
4.200000e+08	7.468191e+11	0.000000e+00	5.477386e-01	2.378032e+13	1.061659e+14	1.019889e+14	4.477999e+03	3.458352e+03	2.196638e+03	0	3.140072e-04
4.300000e+08	7.383547e+11	0.000000e+00	5.477386e-01	2.358118e+13	1.064392e+14	1.014701e+14	4.473816e+03	3.459808e+03	2.197563e+03	0	3.128163e-04
4.400000e+08	7.300269e+11	0.000000e+00	5.477386e-01	2.338520e+13	1.066990e+14	1.009550e+14	4.469667e+03	3.461190e+03	2.198441e+03	0	3.116358e-04
4.500000e+08	7.218336e+11	0.000000e+00	5.477386e-01	2.319234e+13	1.069456e+14	1.004437e+14	4.465553e+03	3.462499e+03	2.199272e+03	0	3.104656e-04
4.600000e+08	7.137725e+11	0.000000e+00	5.477386e-01	2.300254e+13	1.071790e+14	9.993598e+13	4.461473e+03	3.463737e+03	2.200058e+03	0	3.093055e-04
4.700000e+08	7.058414e+11	0.000000e+00	5.477386e-01	2.281575e+13	1.073996e+14	9.943193e+13	4.457427e+03	3.464905e+03	2.200800e+03	0	3.081557e-04
4.800000e+08	6.980381e+11	0.000000e+00	5.477386e-01	2.263192e+13	1.076076e+14	9.893148e+13	4.453413e+03	3.466004e+03	2.201498e+03	0	3.070159e-04
4.900000e+08	6.903605e+11	0.000000e+00	5.477386e-01	2.245101e+13	1.078031e+14	9.843462e+13	4.449431e+03	3.467036e+03	2.202153e+03	0	3.058861e-04
5.000000e+08	6.828063e+11	0.000000e+00	5.477386e-01	2.227295e+13	1.079865e+14	9.794131e+13	4.445481e+03	3.468002e+03	2.202767e+03	0	3.047663e-04
5.100000e+08	6.753735e+11	0.000000e+00	5.477386e-01	2.209771e+13	1.081578e+14	9.745153e+13	4.441563e+03	3.468905e+03	2.203340e+03	0	3.036564e-04
5.200000e+08	6.680600e+11	0.000000e+00	5.477386e-01	2.192523e+13	1.083174e+14	9.696524e+13	4.437675e+03	3.469744e+03	2.203873e+03	0	3.025563e-04
5.300000e+08	6.608635e+11	0.000000e+00	5.477386e-01	2.175547e+13	1.084655e+14	9.648242e+13	4.433818e+03	3.470522e+03	2.204368e+03	0	3.014660e-04
5.400000e+08	6.537822e+11	0.000000e+00	5.477386e-01	2.158837e+13	1.086023e+14	9.600304e+13	4.429990e+03	3.471239e+03	2.204823e+03	0	3.003854e-04
5.500000e+08	6.468138e+11	0.000000e+00	5.477386e-01	2.142389e+13	1.087279e+14	9.552707e+13	4.426191e+03	3.471898e+03	2.205242e+03	0	2.993143e-04
5.600000e+08	6.399564e+11	0.000000e+00	5.477386e-01	2.126198e+13	1.088427e+14	9.505448e+13	4.422422e+03	3.472500e+03	2.205624e+03	0	2.982528e-04
5.700000e+08	6.332080e+11	0.000000e+00	5.477386e-01	2.110259e+13	1.089468e+14	9.458525e+13	4.418681e+03	3.473045e+03	2.205970e+03	0	2.972008e-04
5.800000e+08	6.265666e+11	0.000000e+00	5.477386e-01	2.094569e+13	1.090405e+14	9.411935e+13	4.414968e+03	3.473535e+03	2.206281e+03	0	2.961580e-04
5.900000e+08	6.200302e+11	0.000000e+00	5.477386e-01	2.079122e+13	1.091239e+14	9.365675e+13	4.411282e+03	3.473971e+03	2.206558e+03	0	2.951246e-04
6.000000e+08	6.135970e+11	0.000000e+00	5.477386e-01	2.063914e+13	1.091973e+14	9.319742e+13	4.407624e+03	3.474354e+03	2.206802e+03	0	2.941003e-04
6.100000e+08	6.072649e+11	0.000000e+00	5.477386e-01	2.048941e+13	1.092609e+14	9.274135e+13	4.403992e+03	3.474686e+03	2.207013e+03	0	2.930852e-04
6.200000e+08	6.010322e+11	0.000000e+00	5.477386e-01	2.034197e+13	1.093148e+14	9.228850e+13	4.400387e+03	3.474968e+03	2.207192e+03	0	2.920790e-04
6.300000e+08	5.948969e+11	0.000000e+00	5.477386e-01	2.019680e+13	1.093594e+14	9.183884e+13	4.396808e+03	3.475201e+03	2.207339e+03	0	2.910818e-04
6.400000e+08	5.888573e+11	0.000000e+00	5.477386e-01	2.005385e+13	1.093948e+14	9.139235e+13	4.393254e+03	3.475385e+03	2.207457e+03	0	2.900934e-04
6.500000e+08	5.829116e+11	0.000000e+00	5.477386e-01	1.991307e+13	1.094212e+14	9.094902e+13	4.389725e+03	3.475523e+03	2.207544e+03	0	2.891137e-04
6.600000e+08	5.770579e+11	0.000000e+00	5.477386e-01	1.977443e+13	1.094388e+14	9.050880e+13	4.386221e+03	3.475615e+03	2.207603e+03	0	2.881427e-04
6.700000e+08	5.712946e+11	0.000000e+00	5.477386e-01	1.963788e+13	1.094478e+14	9.007167e+13	4.382741e+03	3.475662e+03	2.207632e+03	0	2.871802e-04
6.800000e+08	5.656199e+11	0.000000e+00	5.477386e-01	1.950339e+13	1.094485e+14	8.963762e+13	4.379285e+03	3.475665e+03	2.207635e+03	0	2.862262e-04
6.900000e+08	5.600322e+11	0.000000e+00	5.477386e-01	1.937091e+13	1.094409e+14	8.920661e+13	4.375853e+03	3.475626e+03	2.207609e+03	0	2.852805e-04
7.000000e+08	5.545298e+11	0.000000e+00	5.477386e-01	1.924041e+13	1.094253e+14	8.877862e+13	4.372444e+03	3.475545e+03	2.207558e+03	0	2.843431e-04
7.100000e+08	5.491110e+11	0.000000e+00	5.477386e-01	1.911185e+13	1.094020e+14	8.835363e+13	4.369058e+03	3.475423e+03	2.207480e+03	0	2.834139e-04
7.200000e+08	5.437744e+11	0.000000e+00	5.477386e-01	1.898520e+13	1.093710e+14	8.793161e+13	4.365695e+03	3.475261e+03	2.207378e+03	0	2.824928e-04
7.300000e+08	5.385181e+11	0.000000e+00	5.477386e-01	1.886041e+13	1.093325e+14	8.751253e+13	4.362353e+03	3.475060e+03	2.207250e+03	0	2.815796e-04
7.400000e+08	5.333409e+11	0.000000e+00	5.477386e-01	1.873746e+13	1.092868e+14	8.709639e+13	4.359034e+03	3.474822e+03	2.207099e+03	0	2.806743e-04
7.500000e+08	5.282410e+11	0.000000e+00	5.477386e-01	1.861630e+13	1.092341e+14	8.668314e+13	4.355737e+03	3.474546e+03	2.206924e+03	0	2.797769e-04
7.600000e+08	5.232171e+11	0.000000e+00	5.477386e-01	1.849690e+13	1.091744e+14	8.627278e+13	4.352460e+03	3.474234e+03	2.206726e+03	0	2.788871e-04
7.700000e+08	5.182676e+11	0.000000e+00	5.477386e-01	1.837923e+13	1.091080e+14	8.586527e+13	4.349205e+03	3.473887e+03	2.206505e+03	0	2.780049e-04
7.800000e+08	5.133912e+11	0.000000e+00	5.477386e-01	1.826326e+13	1.090350e+14	8.546059e+13	4.345970e+03	3.473506e+03	2.206263e+03	0	2.771302e-04
7.900000e+08	5.085863e+11	0.000000e+00	5.477386e-01	1.814894e+13	1.089557e+14	8.505872e+13	4.342756e+03	3.473091e+03	2.205999e+03	0	2.762630e-04
8.000000e+08	5.038517e+11	0.000000e+00	5.477386e-01	1.803626e+13	1.088701e+14	8.465964e+13	4.339561e+03	3.472643e+03	2.205715e+03	0	2.754030e-04
8.100000e+08	4.991859e+11	0.000000e+00	5.477386e-01	1.792517e+13	1.087785e+14	8.426332e+13	4.336387e+03	3.472163e+03	2.205410e+03	0	2.745503e-04
8.200000e+08	4.945877e+11	0.000000e+00	5.477386e-01	1.781566e+13	1.086810e+14	8.386975e+13	4.333232e+03	3.471652e+03	2.205086e+03	0	2.737047e-04
8.300000e+08	4.900556e+11	0.000000e+00	5.477386e-01	1.770768e+13	1.085777e+14	8.347890e+13	4.330096e+03	3.471111e+03	2.204742e+03	0	2.728661e-04
8.400000e+08	4.855885e+11	0.000000e+00	5.477386e-01	1.760121e+13	1.084689e+14	8.309075e+13	4.326980e+03	3.470539e+03	2.204379e+03	0	2.720344e-04
8.500000e+08	4.811851e+11	0.000000e+00	5.477386e-01	1.749621e+13	1.083546e+14	8.270528e+13	4.323882e+03	3.469939e+03	2.203998e+03	0	2.712097e-04
8.600000e+08	4.768441e+11	0.000000e+00	5.477386e-01	1.739267e+13	1.082351e+14	8.232246e+13	4.320802e+03	3.469311e+03	2.203598e+03	0	2.703916e-04
8.700000e+08	4.725643e+11	0.000000e+00	5.477386e-01	1.729055e+13	1.081104e+14	8.194228e+13	4.317741e+03	3.468655e+03	2.203182e+03	0	2.695803e-04
8.800000e+08	4.683446e+11	0.000000e+00	5.477386e-01	1.718982e+13	1.079808e+14	8.156471e+13	4.314697e+03	3.467972e+03	2.202748e+03	0	2.687754e-04
8.900000e+08	4.641837e+11	0.000000e+00	5.477386e-01	1.709046e+13	1.078463e+14	8.118974e+13	4.311671e+03	3.467263e+03	2.202298e+03	0	2.679771e-04
9.000000e+08	4.600806e+11	0.000000e+00	5.477386e-01	1.699245e+13	1.077070e+14	8.081734e+13	4.308663e+03	3.466529e+03	2.201832e+03	0	2.671852e-04
9.100000e+08	4.560340e+11	0.000000e+00	5.477386e-01	1.689575e+13	1.075633e+14	8.044750e+13	4.305672e+03	3.465770e+03	2.201349e+03	0	2.663996e-04
9.200000e+08	4.520430e+11	0.000000e+00	5.477386e-01	1.680034e+13	1.074151e+14	8.008018e+13	4.302698e+03	3.464986e+03	2.200852e+03	0	2.656202e-04
9.300000e+08	4.481065e+11	0.000000e+00	5.477386e-01	1.670619e+13	1.072625e+14	7.971538e+13	4.299740e+03	3.464179e+03	2.200339e+03	0	2.648469e-04
9.400000e+08	4.442233e+11	0.000000e+00	5.477386e-01	1.661329e+13	1.071058e+14	7.935307e+13	4.296800e+03	3.463349e+03	2.199812e+03	0	2.640796e-04
9.500000e+08	4.403925e+11	0.000000e+00	5.477386e-01	1.652160e+13	1.069451e+14	7.899324e+13	4.293875e+03	3.462497e+03	2.199270e+03	0	2.633183e-04
9.600000e+08	4.366130e+11	0.000000e+00	5.477386e-01	1.643111e+13	1.067804e+14	7.863586e+13	4.290967e+03	3.461623e+03	2.198715e+03	0	2.625629e-04
9.700000e+08	4.328839e+11	0.000000e+00	5.477386e-01	1.634179e+13	1.066119e+14	7.828091e+13	4.288074e+03	3.460727e+03	2.198146e+03	0	2.618132e-04
9.800000e+08	4.292043e+11	0.000000e+00	5.477386e-01	1.625362e+13	1.064398e+14	7.792838e+13	4.285197e+03	3.459811e+03	2.197565e+03	0	2.610693e-04
9.900000e+08	4.255730e+11	0.000000e+00	5.477386e-01	1.616657e+13	1.062640e+14	7.757825e+13	4.282336e+03	3.458875e+03	2.196970e+03	0	2.603310e-04
1.000000e+09	4.219893e+11	0.000000e+00	5.477386e-01	1.608063e+13	1.060848e+14	7.723049e+13	4.279490e+03	3.457919e+03	2.196363e+03	0	2.595982e-04
1.010000e+09	4.184523e+11	0.000000e+00	5.477386e-01	1.599578e+13	1.059023e+14	7.688509e+13	4.276659e+03	3.456944e+03	2.195743e+03	0	2.588708e-04
1.020000e+09	4.149609e+11	0.000000e+00	5.477386e-01	1.591199e+13	1.057165e+14	7.654203e+13	4.273843e+03	3.455951e+03	2.195112e+03	0	2.581488e-04
1.030000e+09	4.115144e+11	0.000000e+00	5.477386e-01	1.582925e+13	1.055276e+14	7.620129e+13	4.271042e+03	3.454939e+03	2.194470e+03	0	2.574321e-04
1.040000e+09	4.081119e+11	0.000000e+00	5.477386e-01	1.574752e+13	1.053357e+14	7.586286e+13	4.268255e+03	3.453910e+03	2.193816e+03	0	2.567207e-04
1.050000e+09	4.047526e+11	0.000000e+00	5.477386e-01	1.566681e+13	1.051408e+14	7.552671e+13	4.265483e+03	3.452863e+03	2.193152e+03	0	2.560144e-04
1.060000e+09	4.014356e+11	0.000000e+00	5.477386e-01	1.558708e+13	1.049432e+14	7.519282e+13	4.262725e+03	3.451800e+03	2.192476e+03	0	2.553131e-04
1.070000e+09	3.981602e+11	0.000000e+00	5.477386e-01	1.550832e+13	1.047427e+14	7.486119e+13	4.259981e+03	3.450721e+03	2.191791e+03	0	2.546168e-04
1.080000e+09	3.949256e+11	0.000000e+00	5.477386e-01	1.543050e+13	1.045397e+14	7.453179e+13	4.257250e+03	3.449626e+03	2.191096e+03	0	2.539254e-04
1.090000e+09	3.917309e+11	0.000000e+00	5.477386e-01	1.535362e+13	1.043341e+14	7.420460e+13	4.254534e+03	3.448516e+03	2.190390e+03	0	2.532389e-04
1.100000e+09	3.885755e+11	0.000000e+00	5.477386e-01	1.527766e+13	1.041261e+14	7.387961e+13	4.251830e+03	3.447391e+03	2.189676e+03	0	2.525571e-04
1.110000e+09	3.854587e+11	0.000000e+00	5.477386e-01	1.520259e+13	1.039157e+14	7.355680e+13	4.249141e+03	3.446252e+03	2.188952e+03	0	2.518800e-04
1.120000e+09	3.823796e+11	0.000000e+00	5.477386e-01	1.512840e+13	1.037030e+14	7.323615e+13	4.246464e+03	3.445098e+03	2.188219e+03	0	2.512075e-04
1.130000e+09	3.793376e+11	0.000000e+00	5.477386e-01	1.505508e+13	1.034882e+14	7.291765e+13	4.243800e+03	3.443931e+03	2.187478e+03	0	2.505396e-04
1.140000e+09	3.763321e+11	0.000000e+00	5.477386e-01	1.498261e+13	1.032713e+14	7.260127e+13	4.241150e+03	3.442750e+03	2.186728e+03	0	2.498762e-04
1.150000e+09	3.733622e+11	0.000000e+00	5.477386e-01	1.491097e+13	1.030523e+14	7.228701e+13	4.238512e+03	3.441557e+03	2.185970e+03	0	2.492171e-04
1.160000e+09	3.704275e+11	0.000000e+00	5.477386e-01	1.484015e+13	1.028314e+14	7.197485e+13	4.235886e+03	3.440351e+03	2.185204e+03	0	2.485624e-04
1.170000e+09	3.675272e+11	0.000000e+00	5.477386e-01	1.477013e+13	1.026086e+14	7.166476e+13	4.233273e+03	3.439133e+03	2.184430e+03	0	2.479120e-04
1.180000e+09	3.646607e+11	0.000000e+00	5.477386e-01	1.470090e+13	1.023840e+14	7.135674e+13	4.230673e+03	3.437903e+03	2.183649e+03	0	2.472658e-04
1.190000e+09	3.618274e+11	0.000000e+00	5.477386e-01	1.463244e+13	1.021577e+14	7.105076e+13	4.228084e+03	3.436662e+03	2.182861e+03	0	2.466238e-04
1.200000e+09	3.590266e+11	0.000000e+00	5.477386e-01	1.456475e+13	1.019298e+14	7.074682e+13	4.225508e+03	3.435410e+03	2.182066e+03	0	2.459858e-04
1.210000e+09	3.562579e+11	0.000000e+00	5.477386e-01	1.449780e+13	1.017003e+14	7.044489e+13	4.222943e+03	3.434147e+03	2.181263e+03	0	2.453518e-04
1.220000e+09	3.535205e+11	0.000000e+00	5.477386e-01	1.443158e+13	1.014693e+14	7.014496e+13	4.220391e+03	3.432873e+03	2.180454e+03	0	2.447218e-04
1.230000e+09	3.508140e+11	0.000000e+00	5.477386e-01	1.436609e+13	1.012368e+14	6.984702e+13	4.217850e+03	3.431589e+03	2.179639e+03	0	2.440957e-04
1.240000e+09	3.481378e+11	0.000000e+00	5.477386e-01	1.430130e+13	1.010030e+14	6.955105e+13	4.215320e+03	3.430296e+03	2.178817e+03	0	2.434734e-04
1.250000e+09	3.454913e+11	0.000000e+00	5.477386e-01	1.423721e+13	1.007678e+14	6.925703e+13	4.212802e+03	3.428993e+03	2.177990e+03	0	2.428549e-04
1.260000e+09	3.428740e+11	0.000000e+00	5.477386e-01	1.417380e+13	1.005315e+14	6.896495e+13	4.210295e+03	3.427681e+03	2.177156e+03	0	2.422401e-04
1.270000e+09	3.402855e+11	0.000000e+00	5.477386e-01	1.411106e+13	1.002939e+14	6.867479e+13	4.207799e+03	3.426360e+03	2.176317e+03	0	2.416289e-04
1.280000e+09	3.377251e+11	0.000000e+00	5.477386e-01	1.404898e+13	1.000552e+14	6.838654e+13	4.205314e+03	3.425030e+03	2.175473e+03	0	2.410214e-04
1.290000e+09	3.351924e+11	0.000000e+00	5.477386e-01	1.398754e+13	9.981540e+13	6.810019e+13	4.202840e+03	3.423692e+03	2.174623e+03	0	2.404174e-04
1.300000e+09	3.326869e+11	0.000000e+00	5.477386e-01	1.392675e+13	9.957461e+13	6.781571e+13	4.200377e+03	3.422346e+03	2.173768e+03	0	2.398168e-04
1.310000e+09	3.302082e+11	0.000000e+00	5.477386e-01	1.386657e+13	9.933285e+13	6.753310e+13	4.197925e+03	3.420992e+03	2.172908e+03	0	2.392198e-04
1.320000e+09	3.277557e+11	0.000000e+00	5.477386e-01	1.380701e+13	9.909019e+13	6.725234e+13	4.195483e+03	3.419630e+03	2.172043e+03	0	2.386260e-04
1.330000e+09	3.253290e+11	0.000000e+00	5.477386e-01	1.374806e+13	9.884666e+13	6.697342e+13	4.193052e+03	3.418262e+03	2.171174e+03	0	2.380357e-04
1.340000e+09	3.229276e+11	0.000000e+00	5.477386e-01	1.368970e+13	9.860234e+13	6.669632e+13	4.190631e+03	3.416886e+03	2.170300e+03	0	2.374485e-04
1.350000e+09	3.205512e+11	0.000000e+00	5.477386e-01	1.363192e+13	9.835726e+13	6.642103e+13	4.188220e+03	3.415503e+03	2.169421e+03	0	2.368646e-04
1.360000e+09	3.181993e+11	0.000000e+00	5.477386e-01	1.357471e+13	9.811147e+13	6.614753e+13	4.185819e+03	3.414114e+03	2.168539e+03	0	2.362839e-04
