#t		Qconv[W]	Ri[Rp]		R*[Rp]		Qc[W]		Qm[W]		Qr[W]		Tcmb[K]		Tl[K]		Tup[K]		RiFlag		Bs[T]
0.000000e+00	1.122645e+13	0.000000e+00	5.276382e-01	2.479748e+14	1.185942e+14	3.591581e+14	8.810316e+03	5.399870e+03	2.434264e+03	0	7.522539e-04
1.000000e+07	1.106312e+13	0.000000e+00	5.276382e-01	2.457858e+14	1.208427e+14	3.571681e+14	8.796506e+03	5.415106e+03	2.441133e+03	0	7.485880e-04
2.000000e+07	1.090078e+13	0.000000e+00	5.276382e-01	2.436104e+14	1.230931e+14	3.551930e+14	8.782817e+03	5.430142e+03	2.447911e+03	0	7.449083e-04
3.000000e+07	1.073944e+13	0.000000e+00	5.276382e-01	2.414489e+14	1.253446e+14	3.532326e+14	8.769249e+03	5.444978e+03	2.454599e+03	0	7.412150e-04
4.000000e+07	1.057913e+13	0.000000e+00	5.276382e-01	2.393017e+14	1.275963e+14	3.512869e+14	8.755801e+03	5.459614e+03	2.461197e+03	0	7.375085e-04
5.000000e+07	1.041988e+13	0.000000e+00	5.276382e-01	2.371690e+14	1.298474e+14	3.493557e+14	8.742473e+03	5.474051e+03	2.467705e+03	0	7.337891e-04
6.000000e+07	1.026170e+13	0.000000e+00	5.276382e-01	2.350510e+14	1.320971e+14	3.474389e+14	8.729263e+03	5.488291e+03	2.474124e+03	0	7.300570e-04
7.000000e+07	1.010462e+13	0.000000e+00	5.276382e-01	2.329480e+14	1.343446e+14	3.455363e+14	8.716171e+03	5.502334e+03	2.480455e+03	0	7.263127e-04
8.000000e+07	9.948648e+12	0.000000e+00	5.276382e-01	2.308601e+14	1.365890e+14	3.436480e+14	8.703195e+03	5.516182e+03	2.486698e+03	0	7.225563e-04
9.000000e+07	9.793809e+12	0.000000e+00	5.276382e-01	2.287878e+14	1.388296e+14	3.417736e+14	8.690336e+03	5.529835e+03	2.492853e+03	0	7.187881e-04
1.000000e+08	9.640119e+12	0.000000e+00	5.276382e-01	2.267310e+14	1.410656e+14	3.399132e+14	8.677592e+03	5.543295e+03	2.498920e+03	0	7.150084e-04
1.100000e+08	9.487595e+12	0.000000e+00	5.276382e-01	2.246900e+14	1.432962e+14	3.380666e+14	8.664962e+03	5.556562e+03	2.504901e+03	0	7.112174e-04
1.200000e+08	9.336252e+12	0.000000e+00	5.276382e-01	2.226651e+14	1.455207e+14	3.362336e+14	8.652446e+03	5.569638e+03	2.510796e+03	0	7.074154e-04
1.300000e+08	9.186105e+12	0.000000e+00	5.276382e-01	2.206563e+14	1.477383e+14	3.344143e+14	8.640042e+03	5.582523e+03	2.516604e+03	0	7.036026e-04
1.400000e+08	9.037166e+12	0.000000e+00	5.276382e-01	2.186639e+14	1.499483e+14	3.326084e+14	8.627750e+03	5.595220e+03	2.522328e+03	0	6.997793e-04
1.500000e+08	8.889450e+12	0.000000e+00	5.276382e-01	2.166879e+14	1.521499e+14	3.308158e+14	8.615568e+03	5.607728e+03	2.527967e+03	0	6.959456e-04
1.600000e+08	8.742967e+12	0.000000e+00	5.276382e-01	2.147285e+14	1.543424e+14	3.290365e+14	8.603497e+03	5.620050e+03	2.533522e+03	0	6.921017e-04
1.700000e+08	8.597729e+12	0.000000e+00	5.276382e-01	2.127858e+14	1.565253e+14	3.272703e+14	8.591534e+03	5.632187e+03	2.538993e+03	0	6.882479e-04
1.800000e+08	8.453746e+12	0.000000e+00	5.276382e-01	2.108600e+14	1.586977e+14	3.255171e+14	8.579680e+03	5.644139e+03	2.544381e+03	0	6.843843e-04
1.900000e+08	8.311026e+12	0.000000e+00	5.276382e-01	2.089511e+14	1.608590e+14	3.237769e+14	8.567932e+03	5.655909e+03	2.549687e+03	0	6.805111e-04
2.000000e+08	8.169580e+12	0.000000e+00	5.276382e-01	2.070593e+14	1.630087e+14	3.220495e+14	8.556291e+03	5.667497e+03	2.554910e+03	0	6.766284e-04
2.100000e+08	8.029414e+12	0.000000e+00	5.276382e-01	2.051846e+14	1.651460e+14	3.203347e+14	8.544755e+03	5.678904e+03	2.560053e+03	0	6.727364e-04
2.200000e+08	7.890535e+12	0.000000e+00	5.276382e-01	2.033271e+14	1.672704e+14	3.186326e+14	8.533323e+03	5.690133e+03	2.565115e+03	0	6.688352e-04
2.300000e+08	7.752950e+12	0.000000e+00	5.276382e-01	2.014868e+14	1.693812e+14	3.169429e+14	8.521994e+03	5.701184e+03	2.570097e+03	0	6.649250e-04
2.400000e+08	7.616663e+12	0.000000e+00	5.276382e-01	1.996639e+14	1.714779e+14	3.152657e+14	8.510768e+03	5.712058e+03	2.574999e+03	0	6.610058e-04
2.500000e+08	7.481680e+12	0.000000e+00	5.276382e-01	1.978583e+14	1.735599e+14	3.136007e+14	8.499643e+03	5.722758e+03	2.579822e+03	0	6.570777e-04
2.600000e+08	7.348005e+12	0.000000e+00	5.276382e-01	1.960701e+14	1.756267e+14	3.119479e+14	8.488618e+03	5.733284e+03	2.584567e+03	0	6.531408e-04
2.700000e+08	7.215641e+12	0.000000e+00	5.276382e-01	1.942994e+14	1.776778e+14	3.103072e+14	8.477693e+03	5.743638e+03	2.589235e+03	0	6.491952e-04
2.800000e+08	7.084591e+12	0.000000e+00	5.276382e-01	1.925461e+14	1.797126e+14	3.086784e+14	8.466866e+03	5.753822e+03	2.593826e+03	0	6.452409e-04
2.900000e+08	6.954856e+12	0.000000e+00	5.276382e-01	1.908103e+14	1.817307e+14	3.070616e+14	8.456137e+03	5.763836e+03	2.598340e+03	0	6.412780e-04
3.000000e+08	6.826438e+12	0.000000e+00	5.276382e-01	1.890919e+14	1.837315e+14	3.054565e+14	8.445505e+03	5.773682e+03	2.602779e+03	0	6.373065e-04
3.100000e+08	6.699338e+12	0.000000e+00	5.276382e-01	1.873910e+14	1.857147e+14	3.038632e+14	8.434968e+03	5.783362e+03	2.607143e+03	0	6.333264e-04
3.200000e+08	6.573556e+12	0.000000e+00	5.276382e-01	1.857076e+14	1.876797e+14	3.022814e+14	8.424525e+03	5.792878e+03	2.611432e+03	0	6.293377e-04
3.300000e+08	6.449092e+12	0.000000e+00	5.276382e-01	1.840415e+14	1.896263e+14	3.007111e+14	8.414176e+03	5.802230e+03	2.615648e+03	0	6.253404e-04
3.400000e+08	6.325944e+12	0.000000e+00	5.276382e-01	1.823930e+14	1.915539e+14	2.991523e+14	8.403920e+03	5.811420e+03	2.619791e+03	0	6.213344e-04
3.500000e+08	6.204110e+12	0.000000e+00	5.276382e-01	1.807617e+14	1.934622e+14	2.976047e+14	8.393756e+03	5.820449e+03	2.623862e+03	0	6.173197e-04
3.600000e+08	6.083590e+12	0.000000e+00	5.276382e-01	1.791479e+14	1.953507e+14	2.960684e+14	8.383682e+03	5.829320e+03	2.627861e+03	0	6.132962e-04
3.700000e+08	5.964380e+12	0.000000e+00	5.276382e-01	1.775513e+14	1.972193e+14	2.945432e+14	8.373698e+03	5.838033e+03	2.631789e+03	0	6.092639e-04
3.800000e+08	5.846477e+12	0.000000e+00	5.276382e-01	1.759720e+14	1.990675e+14	2.930290e+14	8.363803e+03	5.846591e+03	2.635646e+03	0	6.052225e-04
3.900000e+08	5.729878e+12	0.000000e+00	5.276382e-01	1.744099e+14	2.008950e+14	2.915258e+14	8.353996e+03	5.854994e+03	2.639435e+03	0	6.011720e-04
4.000000e+08	5.614579e+12	0.000000e+00	5.276382e-01	1.728649e+14	2.027015e+14	2.900334e+14	8.344275e+03	5.863245e+03	2.643154e+03	0	5.971123e-04
4.100000e+08	5.500575e+12	0.000000e+00	5.276382e-01	1.713370e+14	2.044867e+14	2.885518e+14	8.334641e+03	5.871344e+03	2.646805e+03	0	5.930432e-04
4.200000e+08	5.387861e+12	0.000000e+00	5.276382e-01	1.698261e+14	2.062505e+14	2.870809e+14	8.325091e+03	5.879294e+03	2.650389e+03	0	5.889645e-04
4.300000e+08	5.276432e+12	0.000000e+00	5.276382e-01	1.683321e+14	2.079924e+14	2.856205e+14	8.315626e+03	5.887095e+03	2.653906e+03	0	5.848760e-04
4.400000e+08	5.166283e+12	0.000000e+00	5.276382e-01	1.668549e+14	2.097123e+14	2.841707e+14	8.306244e+03	5.894750e+03	2.657356e+03	0	5.807774e-04
4.500000e+08	5.057408e+12	0.000000e+00	5.276382e-01	1.653945e+14	2.114099e+14	2.827313e+14	8.296944e+03	5.902260e+03	2.660742e+03	0	5.766686e-04
4.600000e+08	4.949799e+12	0.000000e+00	5.276382e-01	1.639507e+14	2.130852e+14	2.813022e+14	8.287725e+03	5.909626e+03	2.664063e+03	0	5.725492e-04
4.700000e+08	4.843451e+12	0.000000e+00	5.276382e-01	1.625236e+14	2.147378e+14	2.798834e+14	8.278586e+03	5.916851e+03	2.667319e+03	0	5.684191e-04
4.800000e+08	4.738356e+12	0.000000e+00	5.276382e-01	1.611129e+14	2.163676e+14	2.784747e+14	8.269527e+03	5.923935e+03	2.670513e+03	0	5.642777e-04
4.900000e+08	4.634507e+12	0.000000e+00	5.276382e-01	1.597185e+14	2.179745e+14	2.770761e+14	8.260547e+03	5.930880e+03	2.673644e+03	0	5.601249e-04
5.000000e+08	4.531897e+12	0.000000e+00	5.276382e-01	1.583404e+14	2.195582e+14	2.756876e+14	8.251644e+03	5.937687e+03	2.676713e+03	0	5.559601e-04
5.100000e+08	4.430516e+12	0.000000e+00	5.276382e-01	1.569785e+14	2.211188e+14	2.743089e+14	8.242817e+03	5.944360e+03	2.679720e+03	0	5.517831e-04
5.200000e+08	4.330358e+12	0.000000e+00	5.276382e-01	1.556326e+14	2.226560e+14	2.729401e+14	8.234067e+03	5.950897e+03	2.682668e+03	0	5.475935e-04
5.300000e+08	4.231414e+12	0.000000e+00	5.276382e-01	1.543026e+14	2.241697e+14	2.715810e+14	8.225391e+03	5.957303e+03	2.685555e+03	0	5.433906e-04
5.400000e+08	4.133674e+12	0.000000e+00	5.276382e-01	1.529884e+14	2.256600e+14	2.702317e+14	8.216790e+03	5.963577e+03	2.688383e+03	0	5.391741e-04
5.500000e+08	4.037130e+12	0.000000e+00	5.276382e-01	1.516899e+14	2.271266e+14	2.688919e+14	8.208261e+03	5.969721e+03	2.691153e+03	0	5.349435e-04
5.600000e+08	3.941774e+12	0.000000e+00	5.276382e-01	1.504070e+14	2.285696e+14	2.675616e+14	8.199805e+03	5.975737e+03	2.693866e+03	0	5.306981e-04
5.700000e+08	3.847595e+12	0.000000e+00	5.276382e-01	1.491395e+14	2.299889e+14	2.662408e+14	8.191420e+03	5.981627e+03	2.696521e+03	0	5.264374e-04
5.800000e+08	3.754583e+12	0.000000e+00	5.276382e-01	1.478873e+14	2.313844e+14	2.649294e+14	8.183106e+03	5.987392e+03	2.699120e+03	0	5.221608e-04
5.900000e+08	3.662731e+12	0.000000e+00	5.276382e-01	1.466503e+14	2.327562e+14	2.636273e+14	8.174861e+03	5.993033e+03	2.701663e+03	0	5.178675e-04
6.000000e+08	3.572026e+12	0.000000e+00	5.276382e-01	1.454283e+14	2.341042e+14	2.623343e+14	8.166685e+03	5.998553e+03	2.704151e+03	0	5.135569e-04
6.100000e+08	3.482461e+12	0.000000e+00	5.276382e-01	1.442213e+14	2.354284e+14	2.610506e+14	8.158577e+03	6.003952e+03	2.706585e+03	0	5.092281e-04
6.200000e+08	3.394023e+12	0.000000e+00	5.276382e-01	1.430290e+14	2.367288e+14	2.597759e+14	8.150537e+03	6.009231e+03	2.708965e+03	0	5.048805e-04
6.300000e+08	3.306703e+12	0.000000e+00	5.276382e-01	1.418513e+14	2.380055e+14	2.585102e+14	8.142562e+03	6.014394e+03	2.711292e+03	0	5.005130e-04
6.400000e+08	3.220491e+12	0.000000e+00	5.276382e-01	1.406881e+14	2.392585e+14	2.572534e+14	8.134654e+03	6.019440e+03	2.713567e+03	0	4.961249e-04
6.500000e+08	3.135377e+12	0.000000e+00	5.276382e-01	1.395393e+14	2.404878e+14	2.560055e+14	8.126810e+03	6.024372e+03	2.715790e+03	0	4.917151e-04
6.600000e+08	3.051348e+12	0.000000e+00	5.276382e-01	1.384047e+14	2.416935e+14	2.547663e+14	8.119030e+03	6.029191e+03	2.717962e+03	0	4.872826e-04
6.700000e+08	2.968396e+12	0.000000e+00	5.276382e-01	1.372842e+14	2.428756e+14	2.535359e+14	8.111313e+03	6.033898e+03	2.720084e+03	0	4.828263e-04
6.800000e+08	2.886508e+12	0.000000e+00	5.276382e-01	1.361776e+14	2.440343e+14	2.523141e+14	8.103658e+03	6.038495e+03	2.722157e+03	0	4.783450e-04
6.900000e+08	2.805674e+12	0.000000e+00	5.276382e-01	1.350848e+14	2.451694e+14	2.511009e+14	8.096066e+03	6.042983e+03	2.724180e+03	0	4.738375e-04
7.000000e+08	2.725884e+12	0.000000e+00	5.276382e-01	1.340057e+14	2.462813e+14	2.498962e+14	8.088533e+03	6.047364e+03	2.726155e+03	0	4.693024e-04
7.100000e+08	2.647126e+12	0.000000e+00	5.276382e-01	1.329400e+14	2.473699e+14	2.486999e+14	8.081061e+03	6.051639e+03	2.728082e+03	0	4.647384e-04
7.200000e+08	2.569390e+12	0.000000e+00	5.276382e-01	1.318877e+14	2.484354e+14	2.475120e+14	8.073649e+03	6.055809e+03	2.729962e+03	0	4.601439e-04
7.300000e+08	2.492663e+12	0.000000e+00	5.276382e-01	1.308486e+14	2.494779e+14	2.463324e+14	8.066295e+03	6.059877e+03	2.731796e+03	0	4.555173e-04
7.400000e+08	2.416936e+12	0.000000e+00	5.276382e-01	1.298226e+14	2.504974e+14	2.451610e+14	8.058998e+03	6.063843e+03	2.733584e+03	0	4.508569e-04
7.500000e+08	2.342197e+12	0.000000e+00	5.276382e-01	1.288094e+14	2.514942e+14	2.439978e+14	8.051759e+03	6.067708e+03	2.735326e+03	0	4.461608e-04
7.600000e+08	2.268435e+12	0.000000e+00	5.276382e-01	1.278091e+14	2.524683e+14	2.428427e+14	8.044577e+03	6.071475e+03	2.737024e+03	0	4.414272e-04
7.700000e+08	2.195638e+12	0.000000e+00	5.276382e-01	1.268214e+14	2.534199e+14	2.416956e+14	8.037450e+03	6.075144e+03	2.738678e+03	0	4.366538e-04
7.800000e+08	2.123797e+12	0.000000e+00	5.276382e-01	1.258461e+14	2.543492e+14	2.405565e+14	8.030377e+03	6.078717e+03	2.740289e+03	0	4.318384e-04
7.900000e+08	2.052899e+12	0.000000e+00	5.276382e-01	1.248832e+14	2.552561e+14	2.394253e+14	8.023360e+03	6.082195e+03	2.741857e+03	0	4.269787e-04
8.000000e+08	1.982933e+12	0.000000e+00	5.276382e-01	1.239324e+14	2.561411e+14	2.383020e+14	8.016396e+03	6.085580e+03	2.743383e+03	0	4.220718e-04
8.100000e+08	1.913889e+12	0.000000e+00	5.276382e-01	1.229937e+14	2.570041e+14	2.371864e+14	8.009484e+03	6.088872e+03	2.744867e+03	0	4.171151e-04
8.200000e+08	1.845756e+12	0.000000e+00	5.276382e-01	1.220669e+14	2.578453e+14	2.360786e+14	8.002625e+03	6.092073e+03	2.746310e+03	0	4.121055e-04
8.300000e+08	1.778522e+12	0.000000e+00	5.276382e-01	1.211519e+14	2.586650e+14	2.349784e+14	7.995818e+03	6.095185e+03	2.747713e+03	0	4.070396e-04
8.400000e+08	1.712176e+12	0.000000e+00	5.276382e-01	1.202484e+14	2.594632e+14	2.338858e+14	7.989062e+03	6.098208e+03	2.749076e+03	0	4.019140e-04
8.500000e+08	1.646708e+12	0.000000e+00	5.276382e-01	1.193565e+14	2.602403e+14	2.328008e+14	7.982356e+03	6.101145e+03	2.750399e+03	0	3.967246e-04
8.600000e+08	1.582106e+12	0.000000e+00	5.276382e-01	1.184758e+14	2.609962e+14	2.317232e+14	7.975699e+03	6.103995e+03	2.751684e+03	0	3.914673e-04
8.700000e+08	1.518359e+12	0.000000e+00	5.276382e-01	1.176063e+14	2.617314e+14	2.306531e+14	7.969092e+03	6.106761e+03	2.752931e+03	0	3.861374e-04
8.800000e+08	1.455458e+12	0.000000e+00	5.276382e-01	1.167479e+14	2.624458e+14	2.295903e+14	7.962533e+03	6.109444e+03	2.754140e+03	0	3.807298e-04
8.900000e+08	1.393390e+12	0.000000e+00	5.276382e-01	1.159003e+14	2.631398e+14	2.285348e+14	7.956021e+03	6.112044e+03	2.755313e+03	0	3.752390e-04
9.000000e+08	1.332146e+12	0.000000e+00	5.276382e-01	1.150635e+14	2.638134e+14	2.274866e+14	7.949557e+03	6.114564e+03	2.756448e+03	0	3.696587e-04
9.100000e+08	1.271715e+12	0.000000e+00	5.276382e-01	1.142374e+14	2.644670e+14	2.264455e+14	7.943140e+03	6.117003e+03	2.757548e+03	0	3.639823e-04
9.200000e+08	1.212085e+12	0.000000e+00	5.276382e-01	1.134217e+14	2.651007e+14	2.254116e+14	7.936769e+03	6.119365e+03	2.758613e+03	0	3.582020e-04
9.300000e+08	1.153247e+12	0.000000e+00	5.276382e-01	1.126163e+14	2.657147e+14	2.243848e+14	7.930443e+03	6.121648e+03	2.759642e+03	0	3.523096e-04
9.400000e+08	1.095191e+12	0.000000e+00	5.276382e-01	1.118212e+14	2.663092e+14	2.233649e+14	7.924162e+03	6.123856e+03	2.760638e+03	0	3.462956e-04
9.500000e+08	1.037905e+12	0.000000e+00	5.276382e-01	1.110361e+14	2.668845e+14	2.223521e+14	7.917925e+03	6.125989e+03	2.761599e+03	0	3.401492e-04
9.600000e+08	9.813794e+11	0.000000e+00	5.276382e-01	1.102610e+14	2.674407e+14	2.213461e+14	7.911732e+03	6.128047e+03	2.762527e+03	0	3.338586e-04
9.700000e+08	9.256041e+11	0.000000e+00	5.276382e-01	1.094956e+14	2.679780e+14	2.203470e+14	7.905582e+03	6.130033e+03	2.763422e+03	0	3.274101e-04
9.800000e+08	8.705690e+11	0.000000e+00	5.276382e-01	1.087400e+14	2.684967e+14	2.193547e+14	7.899474e+03	6.131947e+03	2.764285e+03	0	3.207880e-04
9.900000e+08	8.162639e+11	0.000000e+00	5.276382e-01	1.079938e+14	2.689970e+14	2.183691e+14	7.893409e+03	6.133791e+03	2.765116e+03	0	3.139741e-04
1.000000e+09	7.626789e+11	0.000000e+00	5.276382e-01	1.072571e+14	2.694791e+14	2.173902e+14	7.887385e+03	6.135565e+03	2.765916e+03	0	3.069476e-04
1.010000e+09	7.098042e+11	0.000000e+00	5.276382e-01	1.065297e+14	2.699431e+14	2.164180e+14	7.881403e+03	6.137271e+03	2.766685e+03	0	2.996837e-04
1.020000e+09	6.576299e+11	0.000000e+00	5.276382e-01	1.058114e+14	2.703895e+14	2.154523e+14	7.875460e+03	6.138909e+03	2.767423e+03	0	2.921533e-04
1.030000e+09	6.061462e+11	0.000000e+00	5.276382e-01	1.051022e+14	2.708182e+14	2.144932e+14	7.869558e+03	6.140481e+03	2.768132e+03	0	2.843213e-04
1.040000e+09	5.553438e+11	0.000000e+00	5.276382e-01	1.044019e+14	2.712296e+14	2.135406e+14	7.863696e+03	6.141987e+03	2.768811e+03	0	2.761453e-04
1.050000e+09	5.052129e+11	0.000000e+00	5.276382e-01	1.037103e+14	2.716238e+14	2.125944e+14	7.857872e+03	6.143429e+03	2.769461e+03	0	2.675727e-04
1.060000e+09	4.557442e+11	0.000000e+00	5.276382e-01	1.030274e+14	2.720012e+14	2.116546e+14	7.852087e+03	6.144808e+03	2.770083e+03	0	2.585378e-04
1.070000e+09	4.069283e+11	0.000000e+00	5.276382e-01	1.023531e+14	2.723619e+14	2.107211e+14	7.846340e+03	6.146125e+03	2.770676e+03	0	2.489562e-04
1.080000e+09	3.587561e+11	0.000000e+00	5.276382e-01	1.016871e+14	2.727061e+14	2.097939e+14	7.840630e+03	6.147380e+03	2.771242e+03	0	2.387170e-04
1.090000e+09	3.112183e+11	0.000000e+00	5.276382e-01	1.010295e+14	2.730342e+14	2.088729e+14	7.834958e+03	6.148575e+03	2.771781e+03	0	2.276698e-04
1.100000e+09	2.643061e+11	0.000000e+00	5.276382e-01	1.003800e+14	2.733461e+14	2.079581e+14	7.829322e+03	6.149711e+03	2.772293e+03	0	2.156020e-04
1.110000e+09	2.180103e+11	0.000000e+00	5.276382e-01	9.973861e+13	2.736423e+14	2.070494e+14	7.823722e+03	6.150788e+03	2.772778e+03	0	2.021976e-04
1.120000e+09	1.723222e+11	0.000000e+00	5.276382e-01	9.910516e+13	2.739229e+14	2.061469e+14	7.818158e+03	6.151808e+03	2.773238e+03	0	1.869523e-04
1.130000e+09	1.272331e+11	0.000000e+00	5.276382e-01	9.847955e+13	2.741880e+14	2.052503e+14	7.812629e+03	6.152771e+03	2.773672e+03	0	1.689729e-04
1.140000e+09	8.273430e+10	0.000000e+00	5.276382e-01	9.786167e+13	2.744381e+14	2.043598e+14	7.807136e+03	6.153678e+03	2.774081e+03	0	1.463903e-04
1.150000e+09	3.881725e+10	0.000000e+00	5.276382e-01	9.725140e+13	2.746732e+14	2.034752e+14	7.801676e+03	6.154531e+03	2.774466e+03	0	1.137519e-04
1.160000e+09	-4.526462e+09	0.000000e+00	5.276382e-01	9.664863e+13	2.748936e+14	2.025965e+14	7.796251e+03	6.155330e+03	2.774826e+03	0	nan
