#t		Qconv[W]	Ri[Rp]		R*[Rp]		Qc[W]		Qm[W]		Qr[W]		Tcmb[K]		Tl[K]		Tup[K]		RiFlag		Bs[T]
0.000000e+00	1.260398e+13	0.000000e+00	5.276381e-01	2.827352e+14	1.191474e+14	3.839822e+14	9.239508e+03	5.614328e+03	2.461998e+03	0	7.796933e-04
1.000000e+07	1.241597e+13	0.000000e+00	5.276381e-01	2.803004e+14	1.214668e+14	3.818547e+14	9.225113e+03	5.630484e+03	2.469082e+03	0	7.757970e-04
2.000000e+07	1.222898e+13	0.000000e+00	5.276381e-01	2.778794e+14	1.237905e+14	3.797430e+14	9.210842e+03	5.646437e+03	2.476078e+03	0	7.718827e-04
3.000000e+07	1.204304e+13	0.000000e+00	5.276381e-01	2.754727e+14	1.261177e+14	3.776472e+14	9.196694e+03	5.662187e+03	2.482985e+03	0	7.679505e-04
4.000000e+07	1.185817e+13	0.000000e+00	5.276381e-01	2.730805e+14	1.284476e+14	3.755670e+14	9.182668e+03	5.677734e+03	2.489802e+03	0	7.640009e-04
5.000000e+07	1.167442e+13	0.000000e+00	5.276381e-01	2.707032e+14	1.307791e+14	3.735023e+14	9.168764e+03	5.693080e+03	2.496532e+03	0	7.600340e-04
6.000000e+07	1.149180e+13	0.000000e+00	5.276381e-01	2.683410e+14	1.331117e+14	3.714530e+14	9.154980e+03	5.708226e+03	2.503174e+03	0	7.560501e-04
7.000000e+07	1.131033e+13	0.000000e+00	5.276381e-01	2.659943e+14	1.354443e+14	3.694189e+14	9.141317e+03	5.723172e+03	2.509728e+03	0	7.520494e-04
8.000000e+07	1.113005e+13	0.000000e+00	5.276381e-01	2.636633e+14	1.377762e+14	3.674000e+14	9.127772e+03	5.737920e+03	2.516195e+03	0	7.480321e-04
9.000000e+07	1.095097e+13	0.000000e+00	5.276381e-01	2.613482e+14	1.401066e+14	3.653961e+14	9.114346e+03	5.752470e+03	2.522575e+03	0	7.439985e-04
1.000000e+08	1.077311e+13	0.000000e+00	5.276381e-01	2.590494e+14	1.424346e+14	3.634071e+14	9.101038e+03	5.766823e+03	2.528870e+03	0	7.399488e-04
1.100000e+08	1.059650e+13	0.000000e+00	5.276381e-01	2.567670e+14	1.447595e+14	3.614329e+14	9.087847e+03	5.780980e+03	2.535078e+03	0	7.358831e-04
1.200000e+08	1.042116e+13	0.000000e+00	5.276381e-01	2.545013e+14	1.470806e+14	3.594732e+14	9.074771e+03	5.794943e+03	2.541201e+03	0	7.318016e-04
1.300000e+08	1.024711e+13	0.000000e+00	5.276381e-01	2.522525e+14	1.493969e+14	3.575281e+14	9.061811e+03	5.808712e+03	2.547239e+03	0	7.277044e-04
1.400000e+08	1.007435e+13	0.000000e+00	5.276381e-01	2.500208e+14	1.517078e+14	3.555974e+14	9.048965e+03	5.822288e+03	2.553192e+03	0	7.235918e-04
1.500000e+08	9.902919e+12	0.000000e+00	5.276381e-01	2.478063e+14	1.540125e+14	3.536810e+14	9.036232e+03	5.835673e+03	2.559062e+03	0	7.194639e-04
1.600000e+08	9.732820e+12	0.000000e+00	5.276381e-01	2.456093e+14	1.563103e+14	3.517787e+14	9.023612e+03	5.848868e+03	2.564848e+03	0	7.153208e-04
1.700000e+08	9.564071e+12	0.000000e+00	5.276381e-01	2.434299e+14	1.586004e+14	3.498904e+14	9.011104e+03	5.861873e+03	2.570551e+03	0	7.111625e-04
1.800000e+08	9.396685e+12	0.000000e+00	5.276381e-01	2.412682e+14	1.608822e+14	3.480161e+14	8.998706e+03	5.874690e+03	2.576172e+03	0	7.069893e-04
1.900000e+08	9.230676e+12	0.000000e+00	5.276381e-01	2.391244e+14	1.631550e+14	3.461555e+14	8.986418e+03	5.887321e+03	2.581710e+03	0	7.028011e-04
2.000000e+08	9.066054e+12	0.000000e+00	5.276381e-01	2.369986e+14	1.654179e+14	3.443087e+14	8.974239e+03	5.899766e+03	2.587168e+03	0	6.985980e-04
2.100000e+08	8.902832e+12	0.000000e+00	5.276381e-01	2.348910e+14	1.676706e+14	3.424754e+14	8.962169e+03	5.912026e+03	2.592544e+03	0	6.943802e-04
2.200000e+08	8.741019e+12	0.000000e+00	5.276381e-01	2.328016e+14	1.699121e+14	3.406556e+14	8.950205e+03	5.924104e+03	2.597840e+03	0	6.901476e-04
2.300000e+08	8.580625e+12	0.000000e+00	5.276381e-01	2.307306e+14	1.721419e+14	3.388492e+14	8.938348e+03	5.935999e+03	2.603057e+03	0	6.859002e-04
2.400000e+08	8.421657e+12	0.000000e+00	5.276381e-01	2.286779e+14	1.743594e+14	3.370560e+14	8.926595e+03	5.947714e+03	2.608194e+03	0	6.816380e-04
2.500000e+08	8.264125e+12	0.000000e+00	5.276381e-01	2.266438e+14	1.765640e+14	3.352760e+14	8.914948e+03	5.959250e+03	2.613253e+03	0	6.773610e-04
2.600000e+08	8.108033e+12	0.000000e+00	5.276381e-01	2.246282e+14	1.787551e+14	3.335089e+14	8.903403e+03	5.970608e+03	2.618233e+03	0	6.730693e-04
2.700000e+08	7.953389e+12	0.000000e+00	5.276381e-01	2.226312e+14	1.809321e+14	3.317548e+14	8.891961e+03	5.981789e+03	2.623137e+03	0	6.687626e-04
2.800000e+08	7.800197e+12	0.000000e+00	5.276381e-01	2.206530e+14	1.830945e+14	3.300135e+14	8.880621e+03	5.992795e+03	2.627963e+03	0	6.644410e-04
2.900000e+08	7.648462e+12	0.000000e+00	5.276381e-01	2.186934e+14	1.852417e+14	3.282849e+14	8.869381e+03	6.003627e+03	2.632713e+03	0	6.601044e-04
3.000000e+08	7.498187e+12	0.000000e+00	5.276381e-01	2.167525e+14	1.873732e+14	3.265689e+14	8.858241e+03	6.014287e+03	2.637388e+03	0	6.557526e-04
3.100000e+08	7.349376e+12	0.000000e+00	5.276381e-01	2.148305e+14	1.894885e+14	3.248654e+14	8.847199e+03	6.024775e+03	2.641987e+03	0	6.513855e-04
3.200000e+08	7.202031e+12	0.000000e+00	5.276381e-01	2.129272e+14	1.915871e+14	3.231743e+14	8.836256e+03	6.035094e+03	2.646512e+03	0	6.470029e-04
3.300000e+08	7.056153e+12	0.000000e+00	5.276381e-01	2.110426e+14	1.936685e+14	3.214955e+14	8.825409e+03	6.045245e+03	2.650964e+03	0	6.426047e-04
3.400000e+08	6.911743e+12	0.000000e+00	5.276381e-01	2.091769e+14	1.957323e+14	3.198289e+14	8.814657e+03	6.055229e+03	2.655342e+03	0	6.381907e-04
3.500000e+08	6.768801e+12	0.000000e+00	5.276381e-01	2.073299e+14	1.977781e+14	3.181744e+14	8.804001e+03	6.065048e+03	2.659647e+03	0	6.337605e-04
3.600000e+08	6.627328e+12	0.000000e+00	5.276381e-01	2.055016e+14	1.998053e+14	3.165319e+14	8.793439e+03	6.074703e+03	2.663881e+03	0	6.293140e-04
3.700000e+08	6.487322e+12	0.000000e+00	5.276381e-01	2.036921e+14	2.018136e+14	3.149013e+14	8.782969e+03	6.084195e+03	2.668044e+03	0	6.248509e-04
3.800000e+08	6.348782e+12	0.000000e+00	5.276381e-01	2.019013e+14	2.038027e+14	3.132824e+14	8.772592e+03	6.093526e+03	2.672136e+03	0	6.203709e-04
3.900000e+08	6.211705e+12	0.000000e+00	5.276381e-01	2.001291e+14	2.057721e+14	3.116753e+14	8.762305e+03	6.102698e+03	2.676158e+03	0	6.158735e-04
4.000000e+08	6.076089e+12	0.000000e+00	5.276381e-01	1.983755e+14	2.077215e+14	3.100798e+14	8.752109e+03	6.111712e+03	2.680111e+03	0	6.113585e-04
4.100000e+08	5.941931e+12	0.000000e+00	5.276381e-01	1.966405e+14	2.096505e+14	3.084958e+14	8.742002e+03	6.120570e+03	2.683995e+03	0	6.068255e-04
4.200000e+08	5.809227e+12	0.000000e+00	5.276381e-01	1.949240e+14	2.115590e+14	3.069232e+14	8.731983e+03	6.129272e+03	2.687811e+03	0	6.022739e-04
4.300000e+08	5.677973e+12	0.000000e+00	5.276381e-01	1.932259e+14	2.134463e+14	3.053619e+14	8.722052e+03	6.137821e+03	2.691560e+03	0	5.977034e-04
4.400000e+08	5.548164e+12	0.000000e+00	5.276381e-01	1.915461e+14	2.153125e+14	3.038119e+14	8.712207e+03	6.146218e+03	2.695242e+03	0	5.931133e-04
4.500000e+08	5.419795e+12	0.000000e+00	5.276381e-01	1.898847e+14	2.171571e+14	3.022730e+14	8.702447e+03	6.154464e+03	2.698858e+03	0	5.885033e-04
4.600000e+08	5.292860e+12	0.000000e+00	5.276381e-01	1.882415e+14	2.189799e+14	3.007451e+14	8.692772e+03	6.162562e+03	2.702409e+03	0	5.838726e-04
4.700000e+08	5.167354e+12	0.000000e+00	5.276381e-01	1.866164e+14	2.207807e+14	2.992282e+14	8.683180e+03	6.170512e+03	2.705895e+03	0	5.792206e-04
4.800000e+08	5.043269e+12	0.000000e+00	5.276381e-01	1.850093e+14	2.225592e+14	2.977222e+14	8.673671e+03	6.178316e+03	2.709318e+03	0	5.745467e-04
4.900000e+08	4.920600e+12	0.000000e+00	5.276381e-01	1.834202e+14	2.243153e+14	2.962269e+14	8.664244e+03	6.185975e+03	2.712676e+03	0	5.698501e-04
5.000000e+08	4.799340e+12	0.000000e+00	5.276381e-01	1.818489e+14	2.260487e+14	2.947424e+14	8.654897e+03	6.193492e+03	2.715973e+03	0	5.651301e-04
5.100000e+08	4.679479e+12	0.000000e+00	5.276381e-01	1.802954e+14	2.277592e+14	2.932684e+14	8.645631e+03	6.200867e+03	2.719207e+03	0	5.603858e-04
5.200000e+08	4.561012e+12	0.000000e+00	5.276381e-01	1.787595e+14	2.294467e+14	2.918050e+14	8.636444e+03	6.208103e+03	2.722380e+03	0	5.556163e-04
5.300000e+08	4.443929e+12	0.000000e+00	5.276381e-01	1.772411e+14	2.311111e+14	2.903520e+14	8.627334e+03	6.215200e+03	2.725492e+03	0	5.508207e-04
5.400000e+08	4.328222e+12	0.000000e+00	5.276381e-01	1.757402e+14	2.327521e+14	2.889094e+14	8.618302e+03	6.222160e+03	2.728544e+03	0	5.459980e-04
5.500000e+08	4.213882e+12	0.000000e+00	5.276381e-01	1.742565e+14	2.343698e+14	2.874770e+14	8.609346e+03	6.228985e+03	2.731537e+03	0	5.411471e-04
5.600000e+08	4.100900e+12	0.000000e+00	5.276381e-01	1.727900e+14	2.359638e+14	2.860548e+14	8.600466e+03	6.235676e+03	2.734471e+03	0	5.362669e-04
5.700000e+08	3.989267e+12	0.000000e+00	5.276381e-01	1.713406e+14	2.375343e+14	2.846427e+14	8.591661e+03	6.242235e+03	2.737347e+03	0	5.313561e-04
5.800000e+08	3.878974e+12	0.000000e+00	5.276381e-01	1.699081e+14	2.390810e+14	2.832407e+14	8.582929e+03	6.248663e+03	2.740166e+03	0	5.264133e-04
5.900000e+08	3.770010e+12	0.000000e+00	5.276381e-01	1.684924e+14	2.406039e+14	2.818485e+14	8.574270e+03	6.254961e+03	2.742928e+03	0	5.214373e-04
6.000000e+08	3.662365e+12	0.000000e+00	5.276381e-01	1.670934e+14	2.421029e+14	2.804662e+14	8.565683e+03	6.261132e+03	2.745634e+03	0	5.164264e-04
6.100000e+08	3.556029e+12	0.000000e+00	5.276381e-01	1.657109e+14	2.435781e+14	2.790937e+14	8.557167e+03	6.267177e+03	2.748285e+03	0	5.113792e-04
6.200000e+08	3.450992e+12	0.000000e+00	5.276381e-01	1.643448e+14	2.450293e+14	2.777309e+14	8.548721e+03	6.273097e+03	2.750881e+03	0	5.062938e-04
6.300000e+08	3.347243e+12	0.000000e+00	5.276381e-01	1.629950e+14	2.464565e+14	2.763777e+14	8.540345e+03	6.278893e+03	2.753423e+03	0	5.011684e-04
6.400000e+08	3.244772e+12	0.000000e+00	5.276381e-01	1.616612e+14	2.478598e+14	2.750341e+14	8.532038e+03	6.284568e+03	2.755911e+03	0	4.960011e-04
6.500000e+08	3.143567e+12	0.000000e+00	5.276381e-01	1.603435e+14	2.492390e+14	2.736999e+14	8.523799e+03	6.290122e+03	2.758347e+03	0	4.907897e-04
6.600000e+08	3.043616e+12	0.000000e+00	5.276381e-01	1.590416e+14	2.505943e+14	2.723751e+14	8.515626e+03	6.295557e+03	2.760730e+03	0	4.855320e-04
6.700000e+08	2.944910e+12	0.000000e+00	5.276381e-01	1.577554e+14	2.519256e+14	2.710597e+14	8.507520e+03	6.300875e+03	2.763062e+03	0	4.802256e-04
6.800000e+08	2.847437e+12	0.000000e+00	5.276381e-01	1.564847e+14	2.532330e+14	2.697534e+14	8.499479e+03	6.306076e+03	2.765343e+03	0	4.748677e-04
6.900000e+08	2.751184e+12	0.000000e+00	5.276381e-01	1.552295e+14	2.545165e+14	2.684564e+14	8.491503e+03	6.311164e+03	2.767574e+03	0	4.694556e-04
7.000000e+08	2.656141e+12	0.000000e+00	5.276381e-01	1.539894e+14	2.557762e+14	2.671684e+14	8.483591e+03	6.316138e+03	2.769755e+03	0	4.639861e-04
7.100000e+08	2.562296e+12	0.000000e+00	5.276381e-01	1.527645e+14	2.570121e+14	2.658894e+14	8.475742e+03	6.321000e+03	2.771888e+03	0	4.584561e-04
7.200000e+08	2.469637e+12	0.000000e+00	5.276381e-01	1.515545e+14	2.582243e+14	2.646194e+14	8.467955e+03	6.325752e+03	2.773971e+03	0	4.528618e-04
7.300000e+08	2.378152e+12	0.000000e+00	5.276381e-01	1.503594e+14	2.594127e+14	2.633583e+14	8.460230e+03	6.330395e+03	2.776007e+03	0	4.471993e-04
7.400000e+08	2.287830e+12	0.000000e+00	5.276381e-01	1.491788e+14	2.605777e+14	2.621059e+14	8.452566e+03	6.334930e+03	2.777996e+03	0	4.414646e-04
7.500000e+08	2.198658e+12	0.000000e+00	5.276381e-01	1.480128e+14	2.617191e+14	2.608623e+14	8.444962e+03	6.339360e+03	2.779939e+03	0	4.356528e-04
7.600000e+08	2.110624e+12	0.000000e+00	5.276381e-01	1.468611e+14	2.628372e+14	2.596274e+14	8.437417e+03	6.343684e+03	2.781835e+03	0	4.297589e-04
7.700000e+08	2.023717e+12	0.000000e+00	5.276381e-01	1.457236e+14	2.639320e+14	2.584010e+14	8.429931e+03	6.347906e+03	2.783686e+03	0	4.237775e-04
7.800000e+08	1.937924e+12	0.000000e+00	5.276381e-01	1.446001e+14	2.650036e+14	2.571832e+14	8.422502e+03	6.352025e+03	2.785493e+03	0	4.177023e-04
7.900000e+08	1.853233e+12	0.000000e+00	5.276381e-01	1.434906e+14	2.660522e+14	2.559738e+14	8.415131e+03	6.356044e+03	2.787255e+03	0	4.115266e-04
8.000000e+08	1.769632e+12	0.000000e+00	5.276381e-01	1.423947e+14	2.670778e+14	2.547728e+14	8.407816e+03	6.359963e+03	2.788974e+03	0	4.052431e-04
8.100000e+08	1.687109e+12	0.000000e+00	5.276381e-01	1.413124e+14	2.680807e+14	2.535802e+14	8.400557e+03	6.363785e+03	2.790650e+03	0	3.988433e-04
8.200000e+08	1.605652e+12	0.000000e+00	5.276381e-01	1.402435e+14	2.690609e+14	2.523957e+14	8.393353e+03	6.367510e+03	2.792283e+03	0	3.923182e-04
8.300000e+08	1.525249e+12	0.000000e+00	5.276381e-01	1.391879e+14	2.700186e+14	2.512195e+14	8.386204e+03	6.371139e+03	2.793875e+03	0	3.856572e-04
8.400000e+08	1.445887e+12	0.000000e+00	5.276381e-01	1.381454e+14	2.709539e+14	2.500514e+14	8.379108e+03	6.374674e+03	2.795425e+03	0	3.788489e-04
8.500000e+08	1.367555e+12	0.000000e+00	5.276381e-01	1.371159e+14	2.718670e+14	2.488914e+14	8.372065e+03	6.378117e+03	2.796935e+03	0	3.718800e-04
8.600000e+08	1.290240e+12	0.000000e+00	5.276381e-01	1.360992e+14	2.727581e+14	2.477394e+14	8.365075e+03	6.381468e+03	2.798404e+03	0	3.647355e-04
8.700000e+08	1.213930e+12	0.000000e+00	5.276381e-01	1.350951e+14	2.736273e+14	2.465953e+14	8.358137e+03	6.384729e+03	2.799834e+03	0	3.573983e-04
8.800000e+08	1.138614e+12	0.000000e+00	5.276381e-01	1.341035e+14	2.744747e+14	2.454590e+14	8.351249e+03	6.387901e+03	2.801225e+03	0	3.498485e-04
8.900000e+08	1.064279e+12	0.000000e+00	5.276381e-01	1.331243e+14	2.753006e+14	2.443306e+14	8.344412e+03	6.390986e+03	2.802578e+03	0	3.420632e-04
9.000000e+08	9.909133e+11	0.000000e+00	5.276381e-01	1.321573e+14	2.761051e+14	2.432099e+14	8.337625e+03	6.393983e+03	2.803892e+03	0	3.340154e-04
9.100000e+08	9.185054e+11	0.000000e+00	5.276381e-01	1.312024e+14	2.768885e+14	2.420969e+14	8.330887e+03	6.396896e+03	2.805170e+03	0	3.256731e-04
9.200000e+08	8.470432e+11	0.000000e+00	5.276381e-01	1.302593e+14	2.776507e+14	2.409915e+14	8.324198e+03	6.399724e+03	2.806410e+03	0	3.169980e-04
9.300000e+08	7.765151e+11	0.000000e+00	5.276381e-01	1.293280e+14	2.783922e+14	2.398937e+14	8.317557e+03	6.402470e+03	2.807614e+03	0	3.079436e-04
9.400000e+08	7.069091e+11	0.000000e+00	5.276381e-01	1.284083e+14	2.791131e+14	2.388034e+14	8.310963e+03	6.405134e+03	2.808782e+03	0	2.984529e-04
9.500000e+08	6.382138e+11	0.000000e+00	5.276381e-01	1.275001e+14	2.798134e+14	2.377205e+14	8.304416e+03	6.407718e+03	2.809915e+03	0	2.884541e-04
9.600000e+08	5.704176e+11	0.000000e+00	5.276381e-01	1.266032e+14	2.804936e+14	2.366450e+14	8.297915e+03	6.410222e+03	2.811013e+03	0	2.778554e-04
9.700000e+08	5.035088e+11	0.000000e+00	5.276381e-01	1.257174e+14	2.811536e+14	2.355768e+14	8.291460e+03	6.412648e+03	2.812077e+03	0	2.665367e-04
9.800000e+08	4.374761e+11	0.000000e+00	5.276381e-01	1.248427e+14	2.817939e+14	2.345159e+14	8.285050e+03	6.414997e+03	2.813107e+03	0	2.543349e-04
9.900000e+08	3.723082e+11	0.000000e+00	5.276381e-01	1.239789e+14	2.824144e+14	2.334622e+14	8.278684e+03	6.417270e+03	2.814104e+03	0	2.410213e-04
1.000000e+09	3.079937e+11	0.000000e+00	5.276381e-01	1.231258e+14	2.830155e+14	2.324157e+14	8.272363e+03	6.419468e+03	2.815068e+03	0	2.262569e-04
1.010000e+09	2.445214e+11	0.000000e+00	5.276381e-01	1.222833e+14	2.835974e+14	2.313763e+14	8.266085e+03	6.421593e+03	2.816000e+03	0	2.095046e-04
1.020000e+09	1.818803e+11	0.000000e+00	5.276381e-01	1.214513e+14	2.841603e+14	2.303439e+14	8.259849e+03	6.423645e+03	2.816899e+03	0	1.898234e-04
1.030000e+09	1.200594e+11	0.000000e+00	5.276381e-01	1.206296e+14	2.847043e+14	2.293185e+14	8.253657e+03	6.425625e+03	2.817768e+03	0	1.652799e-04
1.040000e+09	5.904758e+10	0.000000e+00	5.276381e-01	1.198181e+14	2.852296e+14	2.283000e+14	8.247506e+03	6.427535e+03	2.818605e+03	0	1.304634e-04
1.050000e+09	-1.165856e+09	0.000000e+00	5.276381e-01	1.190167e+14	2.857366e+14	2.272884e+14	8.241396e+03	6.429376e+03	2.819413e+03	0	nan
