#t		Qconv[W]	Ri[Rp]		R*[Rp]		Qc[W]		Qm[W]		Qr[W]		Tcmb[K]		Tl[K]		Tup[K]		RiFlag		Bs[T]
0.000000e+00	1.452456e+13	0.000000e+00	5.276383e-01	3.350735e+14	1.203128e+14	4.234011e+14	9.802619e+03	5.895472e+03	2.497953e+03	0	8.128152e-04
1.000000e+07	1.429717e+13	0.000000e+00	5.276383e-01	3.322807e+14	1.227229e+14	4.210551e+14	9.787507e+03	5.912772e+03	2.505283e+03	0	8.085511e-04
2.000000e+07	1.407085e+13	0.000000e+00	5.276383e-01	3.295020e+14	1.251404e+14	4.187267e+14	9.772520e+03	5.929867e+03	2.512526e+03	0	8.042620e-04
3.000000e+07	1.384564e+13	0.000000e+00	5.276383e-01	3.267379e+14	1.275644e+14	4.164157e+14	9.757659e+03	5.946758e+03	2.519683e+03	0	7.999481e-04
4.000000e+07	1.362158e+13	0.000000e+00	5.276383e-01	3.239888e+14	1.299941e+14	4.141219e+14	9.742922e+03	5.963445e+03	2.526753e+03	0	7.956095e-04
5.000000e+07	1.339870e+13	0.000000e+00	5.276383e-01	3.212550e+14	1.324286e+14	4.118453e+14	9.728309e+03	5.979928e+03	2.533737e+03	0	7.912463e-04
6.000000e+07	1.317704e+13	0.000000e+00	5.276383e-01	3.185368e+14	1.348672e+14	4.095856e+14	9.713819e+03	5.996209e+03	2.540636e+03	0	7.868587e-04
7.000000e+07	1.295662e+13	0.000000e+00	5.276383e-01	3.158347e+14	1.373090e+14	4.073428e+14	9.699451e+03	6.012288e+03	2.547449e+03	0	7.824467e-04
8.000000e+07	1.273749e+13	0.000000e+00	5.276383e-01	3.131489e+14	1.397532e+14	4.051166e+14	9.685205e+03	6.028167e+03	2.554177e+03	0	7.780104e-04
9.000000e+07	1.251966e+13	0.000000e+00	5.276383e-01	3.104798e+14	1.421989e+14	4.029070e+14	9.671080e+03	6.043846e+03	2.560820e+03	0	7.735498e-04
1.000000e+08	1.230317e+13	0.000000e+00	5.276383e-01	3.078277e+14	1.446453e+14	4.007138e+14	9.657074e+03	6.059325e+03	2.567379e+03	0	7.690651e-04
1.100000e+08	1.208804e+13	0.000000e+00	5.276383e-01	3.051928e+14	1.470917e+14	3.985368e+14	9.643189e+03	6.074606e+03	2.573853e+03	0	7.645563e-04
1.200000e+08	1.187431e+13	0.000000e+00	5.276383e-01	3.025755e+14	1.495372e+14	3.963760e+14	9.629422e+03	6.089691e+03	2.580245e+03	0	7.600233e-04
1.300000e+08	1.166199e+13	0.000000e+00	5.276383e-01	2.999760e+14	1.519810e+14	3.942312e+14	9.615772e+03	6.104578e+03	2.586553e+03	0	7.554661e-04
1.400000e+08	1.145111e+13	0.000000e+00	5.276383e-01	2.973946e+14	1.544223e+14	3.921023e+14	9.602240e+03	6.119271e+03	2.592778e+03	0	7.508848e-04
1.500000e+08	1.124169e+13	0.000000e+00	5.276383e-01	2.948315e+14	1.568604e+14	3.899891e+14	9.588824e+03	6.133769e+03	2.598921e+03	0	7.462792e-04
1.600000e+08	1.103375e+13	0.000000e+00	5.276383e-01	2.922868e+14	1.592945e+14	3.878916e+14	9.575523e+03	6.148073e+03	2.604982e+03	0	7.416493e-04
1.700000e+08	1.082732e+13	0.000000e+00	5.276383e-01	2.897609e+14	1.617239e+14	3.858095e+14	9.562337e+03	6.162186e+03	2.610961e+03	0	7.369949e-04
1.800000e+08	1.062242e+13	0.000000e+00	5.276383e-01	2.872540e+14	1.641477e+14	3.837427e+14	9.549265e+03	6.176107e+03	2.616860e+03	0	7.323161e-04
1.900000e+08	1.041905e+13	0.000000e+00	5.276383e-01	2.847661e+14	1.665653e+14	3.816912e+14	9.536305e+03	6.189838e+03	2.622678e+03	0	7.276126e-04
2.000000e+08	1.021724e+13	0.000000e+00	5.276383e-01	2.822976e+14	1.689760e+14	3.796548e+14	9.523458e+03	6.203380e+03	2.628416e+03	0	7.228842e-04
2.100000e+08	1.001701e+13	0.000000e+00	5.276383e-01	2.798485e+14	1.713790e+14	3.776333e+14	9.510721e+03	6.216734e+03	2.634074e+03	0	7.181308e-04
2.200000e+08	9.818368e+12	0.000000e+00	5.276383e-01	2.774190e+14	1.737737e+14	3.756267e+14	9.498095e+03	6.229902e+03	2.639653e+03	0	7.133521e-04
2.300000e+08	9.621330e+12	0.000000e+00	5.276383e-01	2.750092e+14	1.761593e+14	3.736348e+14	9.485579e+03	6.242884e+03	2.645154e+03	0	7.085479e-04
2.400000e+08	9.425909e+12	0.000000e+00	5.276383e-01	2.726194e+14	1.785352e+14	3.716575e+14	9.473170e+03	6.255681e+03	2.650576e+03	0	7.037178e-04
2.500000e+08	9.232116e+12	0.000000e+00	5.276383e-01	2.702495e+14	1.809008e+14	3.696947e+14	9.460870e+03	6.268296e+03	2.655921e+03	0	6.988617e-04
2.600000e+08	9.039963e+12	0.000000e+00	5.276383e-01	2.678998e+14	1.832553e+14	3.677463e+14	9.448676e+03	6.280728e+03	2.661189e+03	0	6.939791e-04
2.700000e+08	8.849461e+12	0.000000e+00	5.276383e-01	2.655702e+14	1.855983e+14	3.658121e+14	9.436588e+03	6.292980e+03	2.666380e+03	0	6.890696e-04
2.800000e+08	8.660618e+12	0.000000e+00	5.276383e-01	2.632609e+14	1.879290e+14	3.638920e+14	9.424605e+03	6.305053e+03	2.671495e+03	0	6.841328e-04
2.900000e+08	8.473442e+12	0.000000e+00	5.276383e-01	2.609720e+14	1.902469e+14	3.619860e+14	9.412726e+03	6.316947e+03	2.676535e+03	0	6.791683e-04
3.000000e+08	8.287941e+12	0.000000e+00	5.276383e-01	2.587035e+14	1.925513e+14	3.600938e+14	9.400950e+03	6.328664e+03	2.681500e+03	0	6.741756e-04
3.100000e+08	8.104122e+12	0.000000e+00	5.276383e-01	2.564555e+14	1.948418e+14	3.582155e+14	9.389276e+03	6.340206e+03	2.686390e+03	0	6.691541e-04
3.200000e+08	7.921990e+12	0.000000e+00	5.276383e-01	2.542280e+14	1.971178e+14	3.563508e+14	9.377704e+03	6.351574e+03	2.691206e+03	0	6.641032e-04
3.300000e+08	7.741550e+12	0.000000e+00	5.276383e-01	2.520211e+14	1.993787e+14	3.544996e+14	9.366232e+03	6.362769e+03	2.695950e+03	0	6.590223e-04
3.400000e+08	7.562807e+12	0.000000e+00	5.276383e-01	2.498347e+14	2.016240e+14	3.526619e+14	9.354859e+03	6.373792e+03	2.700620e+03	0	6.539108e-04
3.500000e+08	7.385762e+12	0.000000e+00	5.276383e-01	2.476690e+14	2.038533e+14	3.508376e+14	9.343584e+03	6.384645e+03	2.705219e+03	0	6.487678e-04
3.600000e+08	7.210420e+12	0.000000e+00	5.276383e-01	2.455239e+14	2.060659e+14	3.490264e+14	9.332408e+03	6.395329e+03	2.709746e+03	0	6.435925e-04
3.700000e+08	7.036782e+12	0.000000e+00	5.276383e-01	2.433995e+14	2.082616e+14	3.472284e+14	9.321327e+03	6.405846e+03	2.714202e+03	0	6.383843e-04
3.800000e+08	6.864848e+12	0.000000e+00	5.276383e-01	2.412957e+14	2.104397e+14	3.454434e+14	9.310343e+03	6.416196e+03	2.718587e+03	0	6.331420e-04
3.900000e+08	6.694619e+12	0.000000e+00	5.276383e-01	2.392125e+14	2.126000e+14	3.436713e+14	9.299453e+03	6.426382e+03	2.722903e+03	0	6.278647e-04
4.000000e+08	6.526095e+12	0.000000e+00	5.276383e-01	2.371498e+14	2.147418e+14	3.419119e+14	9.288658e+03	6.436405e+03	2.727150e+03	0	6.225515e-04
4.100000e+08	6.359274e+12	0.000000e+00	5.276383e-01	2.351078e+14	2.168649e+14	3.401653e+14	9.277955e+03	6.446266e+03	2.731328e+03	0	6.172011e-04
4.200000e+08	6.194156e+12	0.000000e+00	5.276383e-01	2.330863e+14	2.189689e+14	3.384313e+14	9.267344e+03	6.455966e+03	2.735438e+03	0	6.118123e-04
4.300000e+08	6.030738e+12	0.000000e+00	5.276383e-01	2.310852e+14	2.210533e+14	3.367097e+14	9.256824e+03	6.465508e+03	2.739481e+03	0	6.063838e-04
4.400000e+08	5.869016e+12	0.000000e+00	5.276383e-01	2.291046e+14	2.231178e+14	3.350006e+14	9.246394e+03	6.474892e+03	2.743457e+03	0	6.009144e-04
4.500000e+08	5.708988e+12	0.000000e+00	5.276383e-01	2.271444e+14	2.251621e+14	3.333037e+14	9.236054e+03	6.484119e+03	2.747367e+03	0	5.954023e-04
4.600000e+08	5.550649e+12	0.000000e+00	5.276383e-01	2.252045e+14	2.271858e+14	3.316190e+14	9.225802e+03	6.493192e+03	2.751211e+03	0	5.898461e-04
4.700000e+08	5.393995e+12	0.000000e+00	5.276383e-01	2.232849e+14	2.291887e+14	3.299464e+14	9.215637e+03	6.502112e+03	2.754991e+03	0	5.842441e-04
4.800000e+08	5.239020e+12	0.000000e+00	5.276383e-01	2.213854e+14	2.311704e+14	3.282858e+14	9.205559e+03	6.510880e+03	2.758706e+03	0	5.785943e-04
4.900000e+08	5.085720e+12	0.000000e+00	5.276383e-01	2.195061e+14	2.331307e+14	3.266370e+14	9.195566e+03	6.519498e+03	2.762357e+03	0	5.728949e-04
5.000000e+08	4.934088e+12	0.000000e+00	5.276383e-01	2.176468e+14	2.350692e+14	3.250001e+14	9.185658e+03	6.527966e+03	2.765945e+03	0	5.671437e-04
5.100000e+08	4.784117e+12	0.000000e+00	5.276383e-01	2.158074e+14	2.369858e+14	3.233748e+14	9.175834e+03	6.536288e+03	2.769471e+03	0	5.613384e-04
5.200000e+08	4.635800e+12	0.000000e+00	5.276383e-01	2.139878e+14	2.388802e+14	3.217611e+14	9.166093e+03	6.544463e+03	2.772935e+03	0	5.554765e-04
5.300000e+08	4.489131e+12	0.000000e+00	5.276383e-01	2.121880e+14	2.407521e+14	3.201590e+14	9.156433e+03	6.552494e+03	2.776338e+03	0	5.495555e-04
5.400000e+08	4.344100e+12	0.000000e+00	5.276383e-01	2.104079e+14	2.426014e+14	3.185682e+14	9.146855e+03	6.560382e+03	2.779680e+03	0	5.435724e-04
5.500000e+08	4.200700e+12	0.000000e+00	5.276383e-01	2.086472e+14	2.444280e+14	3.169888e+14	9.137357e+03	6.568128e+03	2.782962e+03	0	5.375242e-04
5.600000e+08	4.058923e+12	0.000000e+00	5.276383e-01	2.069060e+14	2.462315e+14	3.154206e+14	9.127939e+03	6.575734e+03	2.786185e+03	0	5.314076e-04
5.700000e+08	3.918758e+12	0.000000e+00	5.276383e-01	2.051841e+14	2.480117e+14	3.138636e+14	9.118599e+03	6.583201e+03	2.789349e+03	0	5.252188e-04
5.800000e+08	3.780197e+12	0.000000e+00	5.276383e-01	2.034813e+14	2.497687e+14	3.123176e+14	9.109336e+03	6.590531e+03	2.792454e+03	0	5.189541e-04
5.900000e+08	3.643231e+12	0.000000e+00	5.276383e-01	2.017977e+14	2.515022e+14	3.107825e+14	9.100150e+03	6.597726e+03	2.795503e+03	0	5.126092e-04
6.000000e+08	3.507848e+12	0.000000e+00	5.276383e-01	2.001329e+14	2.532122e+14	3.092583e+14	9.091040e+03	6.604786e+03	2.798494e+03	0	5.061793e-04
6.100000e+08	3.374039e+12	0.000000e+00	5.276383e-01	1.984870e+14	2.548984e+14	3.077449e+14	9.082005e+03	6.611713e+03	2.801429e+03	0	4.996595e-04
6.200000e+08	3.241793e+12	0.000000e+00	5.276383e-01	1.968597e+14	2.565608e+14	3.062422e+14	9.073045e+03	6.618509e+03	2.804309e+03	0	4.930443e-04
6.300000e+08	3.111100e+12	0.000000e+00	5.276383e-01	1.952510e+14	2.581994e+14	3.047501e+14	9.064157e+03	6.625175e+03	2.807133e+03	0	4.863275e-04
6.400000e+08	2.981948e+12	0.000000e+00	5.276383e-01	1.936607e+14	2.598140e+14	3.032686e+14	9.055342e+03	6.631713e+03	2.809903e+03	0	4.795024e-04
6.500000e+08	2.854325e+12	0.000000e+00	5.276383e-01	1.920886e+14	2.614045e+14	3.017974e+14	9.046599e+03	6.638123e+03	2.812619e+03	0	4.725618e-04
6.600000e+08	2.728221e+12	0.000000e+00	5.276383e-01	1.905346e+14	2.629709e+14	3.003366e+14	9.037927e+03	6.644408e+03	2.815282e+03	0	4.654975e-04
6.700000e+08	2.603623e+12	0.000000e+00	5.276383e-01	1.889986e+14	2.645133e+14	2.988861e+14	9.029325e+03	6.650569e+03	2.817893e+03	0	4.583003e-04
6.800000e+08	2.480520e+12	0.000000e+00	5.276383e-01	1.874805e+14	2.660314e+14	2.974458e+14	9.020792e+03	6.656607e+03	2.820451e+03	0	4.509604e-04
6.900000e+08	2.358899e+12	0.000000e+00	5.276383e-01	1.859800e+14	2.675254e+14	2.960156e+14	9.012327e+03	6.662523e+03	2.822958e+03	0	4.434663e-04
7.000000e+08	2.238748e+12	0.000000e+00	5.276383e-01	1.844970e+14	2.689951e+14	2.945954e+14	9.003930e+03	6.668320e+03	2.825414e+03	0	4.358053e-04
7.100000e+08	2.120054e+12	0.000000e+00	5.276383e-01	1.830314e+14	2.704407e+14	2.931851e+14	8.995600e+03	6.673998e+03	2.827820e+03	0	4.279632e-04
7.200000e+08	2.002805e+12	0.000000e+00	5.276383e-01	1.815830e+14	2.718621e+14	2.917847e+14	8.987336e+03	6.679559e+03	2.830176e+03	0	4.199237e-04
7.300000e+08	1.886988e+12	0.000000e+00	5.276383e-01	1.801516e+14	2.732593e+14	2.903941e+14	8.979137e+03	6.685004e+03	2.832483e+03	0	4.116681e-04
7.400000e+08	1.772590e+12	0.000000e+00	5.276383e-01	1.787372e+14	2.746324e+14	2.890132e+14	8.971003e+03	6.690335e+03	2.834742e+03	0	4.031750e-04
7.500000e+08	1.659598e+12	0.000000e+00	5.276383e-01	1.773395e+14	2.759814e+14	2.876419e+14	8.962932e+03	6.695553e+03	2.836953e+03	0	3.944196e-04
7.600000e+08	1.547999e+12	0.000000e+00	5.276383e-01	1.759584e+14	2.773064e+14	2.862802e+14	8.954925e+03	6.700659e+03	2.839116e+03	0	3.853728e-04
7.700000e+08	1.437779e+12	0.000000e+00	5.276383e-01	1.745937e+14	2.786073e+14	2.849279e+14	8.946980e+03	6.705655e+03	2.841233e+03	0	3.760003e-04
7.800000e+08	1.328926e+12	0.000000e+00	5.276383e-01	1.732453e+14	2.798843e+14	2.835851e+14	8.939096e+03	6.710542e+03	2.843304e+03	0	3.662613e-04
7.900000e+08	1.221426e+12	0.000000e+00	5.276383e-01	1.719129e+14	2.811375e+14	2.822516e+14	8.931273e+03	6.715322e+03	2.845329e+03	0	3.561065e-04
8.000000e+08	1.115265e+12	0.000000e+00	5.276383e-01	1.705965e+14	2.823669e+14	2.809273e+14	8.923510e+03	6.719995e+03	2.847309e+03	0	3.454752e-04
8.100000e+08	1.010430e+12	0.000000e+00	5.276383e-01	1.692959e+14	2.835726e+14	2.796122e+14	8.915807e+03	6.724564e+03	2.849245e+03	0	3.342922e-04
8.200000e+08	9.069079e+11	0.000000e+00	5.276383e-01	1.680109e+14	2.847546e+14	2.783062e+14	8.908162e+03	6.729029e+03	2.851137e+03	0	3.224620e-04
8.300000e+08	8.046844e+11	0.000000e+00	5.276383e-01	1.667414e+14	2.859131e+14	2.770092e+14	8.900575e+03	6.733392e+03	2.852985e+03	0	3.098603e-04
8.400000e+08	7.037460e+11	0.000000e+00	5.276383e-01	1.654871e+14	2.870484e+14	2.757212e+14	8.893046e+03	6.737654e+03	2.854791e+03	0	2.963213e-04
8.500000e+08	6.040793e+11	0.000000e+00	5.276383e-01	1.642479e+14	2.881602e+14	2.744421e+14	8.885573e+03	6.741816e+03	2.856555e+03	0	2.816148e-04
8.600000e+08	5.056704e+11	0.000000e+00	5.276383e-01	1.630237e+14	2.892489e+14	2.731718e+14	8.878155e+03	6.745880e+03	2.858277e+03	0	2.654076e-04
8.700000e+08	4.085058e+11	0.000000e+00	5.276383e-01	1.618143e+14	2.903147e+14	2.719102e+14	8.870793e+03	6.749847e+03	2.859958e+03	0	2.471858e-04
8.800000e+08	3.125719e+11	0.000000e+00	5.276383e-01	1.606196e+14	2.913575e+14	2.706573e+14	8.863486e+03	6.753718e+03	2.861598e+03	0	2.260862e-04
8.900000e+08	2.178548e+11	0.000000e+00	5.276383e-01	1.594393e+14	2.923775e+14	2.694131e+14	8.856232e+03	6.757495e+03	2.863198e+03	0	2.004533e-04
9.000000e+08	1.243411e+11	0.000000e+00	5.276383e-01	1.582733e+14	2.933748e+14	2.681773e+14	8.849032e+03	6.761178e+03	2.864758e+03	0	1.662758e-04
9.100000e+08	3.201714e+10	0.000000e+00	5.276383e-01	1.571214e+14	2.943497e+14	2.669501e+14	8.841884e+03	6.764769e+03	2.866280e+03	0	1.057836e-04
9.200000e+08	-5.913073e+10	0.000000e+00	5.276383e-01	1.559836e+14	2.953023e+14	2.657312e+14	8.834788e+03	6.768269e+03	2.867763e+03	0	nan
