#t		Qconv[W]	Ri[Rp]		R*[Rp]		Qc[W]		Qm[W]		Qr[W]		Tcmb[K]		Tl[K]		Tup[K]		RiFlag		Bs[T]
0.000000e+00	1.571931e+13	0.000000e+00	5.276381e-01	3.754336e+14	1.199213e+14	4.482355e+14	1.022441e+04	6.105082e+03	2.523061e+03	0	8.327257e-04
1.000000e+07	1.546370e+13	0.000000e+00	5.276381e-01	3.723752e+14	1.223779e+14	4.457519e+14	1.020876e+04	6.123284e+03	2.530584e+03	0	8.281874e-04
2.000000e+07	1.520916e+13	0.000000e+00	5.276381e-01	3.693308e+14	1.248442e+14	4.432870e+14	1.019323e+04	6.141278e+03	2.538020e+03	0	8.236182e-04
3.000000e+07	1.495574e+13	0.000000e+00	5.276381e-01	3.663010e+14	1.273192e+14	4.408404e+14	1.017784e+04	6.159066e+03	2.545372e+03	0	8.190180e-04
4.000000e+07	1.470347e+13	0.000000e+00	5.276381e-01	3.632862e+14	1.298021e+14	4.384121e+14	1.016257e+04	6.176647e+03	2.552637e+03	0	8.143869e-04
5.000000e+07	1.445240e+13	0.000000e+00	5.276381e-01	3.602867e+14	1.322921e+14	4.360019e+14	1.014742e+04	6.194023e+03	2.559818e+03	0	8.097249e-04
6.000000e+07	1.420257e+13	0.000000e+00	5.276381e-01	3.573030e+14	1.347884e+14	4.336097e+14	1.013240e+04	6.211194e+03	2.566915e+03	0	8.050320e-04
7.000000e+07	1.395401e+13	0.000000e+00	5.276381e-01	3.543355e+14	1.372901e+14	4.312353e+14	1.011751e+04	6.228160e+03	2.573926e+03	0	8.003081e-04
8.000000e+07	1.370677e+13	0.000000e+00	5.276381e-01	3.513846e+14	1.397964e+14	4.288786e+14	1.010274e+04	6.244924e+03	2.580854e+03	0	7.955531e-04
9.000000e+07	1.346087e+13	0.000000e+00	5.276381e-01	3.484506e+14	1.423064e+14	4.265393e+14	1.008809e+04	6.261484e+03	2.587698e+03	0	7.907670e-04
1.000000e+08	1.321636e+13	0.000000e+00	5.276381e-01	3.455339e+14	1.448194e+14	4.242175e+14	1.007356e+04	6.277843e+03	2.594459e+03	0	7.859496e-04
1.100000e+08	1.297326e+13	0.000000e+00	5.276381e-01	3.426348e+14	1.473345e+14	4.219129e+14	1.005915e+04	6.294001e+03	2.601137e+03	0	7.811009e-04
1.200000e+08	1.273160e+13	0.000000e+00	5.276381e-01	3.397537e+14	1.498510e+14	4.196253e+14	1.004487e+04	6.309959e+03	2.607731e+03	0	7.762206e-04
1.300000e+08	1.249142e+13	0.000000e+00	5.276381e-01	3.368909e+14	1.523680e+14	4.173547e+14	1.003070e+04	6.325717e+03	2.614244e+03	0	7.713085e-04
1.400000e+08	1.225275e+13	0.000000e+00	5.276381e-01	3.340466e+14	1.548847e+14	4.151009e+14	1.001666e+04	6.341277e+03	2.620674e+03	0	7.663645e-04
1.500000e+08	1.201562e+13	0.000000e+00	5.276381e-01	3.312212e+14	1.574003e+14	4.128638e+14	1.000273e+04	6.356640e+03	2.627023e+03	0	7.613882e-04
1.600000e+08	1.178004e+13	0.000000e+00	5.276381e-01	3.284148e+14	1.599141e+14	4.106432e+14	9.988920e+03	6.371806e+03	2.633291e+03	0	7.563794e-04
1.700000e+08	1.154605e+13	0.000000e+00	5.276381e-01	3.256279e+14	1.624253e+14	4.084390e+14	9.975227e+03	6.386777e+03	2.639478e+03	0	7.513378e-04
1.800000e+08	1.131366e+13	0.000000e+00	5.276381e-01	3.228606e+14	1.649331e+14	4.062510e+14	9.961650e+03	6.401553e+03	2.645585e+03	0	7.462630e-04
1.900000e+08	1.108291e+13	0.000000e+00	5.276381e-01	3.201131e+14	1.674368e+14	4.040791e+14	9.948187e+03	6.416136e+03	2.651611e+03	0	7.411545e-04
2.000000e+08	1.085382e+13	0.000000e+00	5.276381e-01	3.173856e+14	1.699356e+14	4.019233e+14	9.934839e+03	6.430526e+03	2.657559e+03	0	7.360121e-04
2.100000e+08	1.062639e+13	0.000000e+00	5.276381e-01	3.146784e+14	1.724288e+14	3.997832e+14	9.921605e+03	6.444725e+03	2.663427e+03	0	7.308352e-04
2.200000e+08	1.040067e+13	0.000000e+00	5.276381e-01	3.119917e+14	1.749157e+14	3.976589e+14	9.908483e+03	6.458734e+03	2.669216e+03	0	7.256233e-04
2.300000e+08	1.017665e+13	0.000000e+00	5.276381e-01	3.093256e+14	1.773955e+14	3.955502e+14	9.895473e+03	6.472554e+03	2.674927e+03	0	7.203758e-04
2.400000e+08	9.954363e+12	0.000000e+00	5.276381e-01	3.066802e+14	1.798676e+14	3.934570e+14	9.882574e+03	6.486185e+03	2.680561e+03	0	7.150921e-04
2.500000e+08	9.733822e+12	0.000000e+00	5.276381e-01	3.040559e+14	1.823313e+14	3.913790e+14	9.869785e+03	6.499630e+03	2.686117e+03	0	7.097716e-04
2.600000e+08	9.515040e+12	0.000000e+00	5.276381e-01	3.014526e+14	1.847859e+14	3.893163e+14	9.857106e+03	6.512889e+03	2.691597e+03	0	7.044135e-04
2.700000e+08	9.298032e+12	0.000000e+00	5.276381e-01	2.988705e+14	1.872308e+14	3.872687e+14	9.844535e+03	6.525964e+03	2.697000e+03	0	6.990171e-04
2.800000e+08	9.082811e+12	0.000000e+00	5.276381e-01	2.963098e+14	1.896653e+14	3.852360e+14	9.832071e+03	6.538855e+03	2.702328e+03	0	6.935816e-04
2.900000e+08	8.869388e+12	0.000000e+00	5.276381e-01	2.937705e+14	1.920888e+14	3.832181e+14	9.819714e+03	6.551565e+03	2.707580e+03	0	6.881060e-04
3.000000e+08	8.657774e+12	0.000000e+00	5.276381e-01	2.912528e+14	1.945007e+14	3.812150e+14	9.807462e+03	6.564093e+03	2.712758e+03	0	6.825894e-04
3.100000e+08	8.447980e+12	0.000000e+00	5.276381e-01	2.887567e+14	1.969003e+14	3.792265e+14	9.795315e+03	6.576442e+03	2.717862e+03	0	6.770308e-04
3.200000e+08	8.240013e+12	0.000000e+00	5.276381e-01	2.862823e+14	1.992871e+14	3.772524e+14	9.783273e+03	6.588613e+03	2.722891e+03	0	6.714290e-04
3.300000e+08	8.033882e+12	0.000000e+00	5.276381e-01	2.838296e+14	2.016605e+14	3.752927e+14	9.771333e+03	6.600606e+03	2.727848e+03	0	6.657829e-04
3.400000e+08	7.829594e+12	0.000000e+00	5.276381e-01	2.813988e+14	2.040200e+14	3.733472e+14	9.759495e+03	6.612424e+03	2.732732e+03	0	6.600911e-04
3.500000e+08	7.627154e+12	0.000000e+00	5.276381e-01	2.789899e+14	2.063649e+14	3.714158e+14	9.747759e+03	6.624067e+03	2.737544e+03	0	6.543523e-04
3.600000e+08	7.426569e+12	0.000000e+00	5.276381e-01	2.766029e+14	2.086949e+14	3.694984e+14	9.736123e+03	6.635537e+03	2.742284e+03	0	6.485651e-04
3.700000e+08	7.227842e+12	0.000000e+00	5.276381e-01	2.742379e+14	2.110093e+14	3.675949e+14	9.724586e+03	6.646835e+03	2.746953e+03	0	6.427277e-04
3.800000e+08	7.030978e+12	0.000000e+00	5.276381e-01	2.718948e+14	2.133077e+14	3.657052e+14	9.713148e+03	6.657963e+03	2.751552e+03	0	6.368386e-04
3.900000e+08	6.835978e+12	0.000000e+00	5.276381e-01	2.695737e+14	2.155895e+14	3.638292e+14	9.701807e+03	6.668922e+03	2.756081e+03	0	6.308959e-04
4.000000e+08	6.642844e+12	0.000000e+00	5.276381e-01	2.672746e+14	2.178544e+14	3.619667e+14	9.690563e+03	6.679713e+03	2.760541e+03	0	6.248976e-04
4.100000e+08	6.451578e+12	0.000000e+00	5.276381e-01	2.649974e+14	2.201018e+14	3.601176e+14	9.679414e+03	6.690337e+03	2.764931e+03	0	6.188415e-04
4.200000e+08	6.262181e+12	0.000000e+00	5.276381e-01	2.627422e+14	2.223313e+14	3.582819e+14	9.668361e+03	6.700797e+03	2.769254e+03	0	6.127256e-04
4.300000e+08	6.074651e+12	0.000000e+00	5.276381e-01	2.605090e+14	2.245426e+14	3.564593e+14	9.657401e+03	6.711093e+03	2.773509e+03	0	6.065472e-04
4.400000e+08	5.888988e+12	0.000000e+00	5.276381e-01	2.582976e+14	2.267352e+14	3.546499e+14	9.646534e+03	6.721226e+03	2.777697e+03	0	6.003037e-04
4.500000e+08	5.705191e+12	0.000000e+00	5.276381e-01	2.561081e+14	2.289087e+14	3.528535e+14	9.635760e+03	6.731199e+03	2.781818e+03	0	5.939924e-04
4.600000e+08	5.523256e+12	0.000000e+00	5.276381e-01	2.539405e+14	2.310627e+14	3.510700e+14	9.625076e+03	6.741012e+03	2.785874e+03	0	5.876100e-04
4.700000e+08	5.343181e+12	0.000000e+00	5.276381e-01	2.517946e+14	2.331969e+14	3.492993e+14	9.614483e+03	6.750668e+03	2.789864e+03	0	5.811534e-04
4.800000e+08	5.164962e+12	0.000000e+00	5.276381e-01	2.496704e+14	2.353109e+14	3.475412e+14	9.603979e+03	6.760166e+03	2.793790e+03	0	5.746188e-04
4.900000e+08	4.988595e+12	0.000000e+00	5.276381e-01	2.475679e+14	2.374044e+14	3.457958e+14	9.593564e+03	6.769510e+03	2.797651e+03	0	5.680025e-04
5.000000e+08	4.814075e+12	0.000000e+00	5.276381e-01	2.454870e+14	2.394771e+14	3.440628e+14	9.583236e+03	6.778699e+03	2.801449e+03	0	5.613001e-04
5.100000e+08	4.641397e+12	0.000000e+00	5.276381e-01	2.434275e+14	2.415287e+14	3.423422e+14	9.572995e+03	6.787737e+03	2.805184e+03	0	5.545070e-04
5.200000e+08	4.470555e+12	0.000000e+00	5.276381e-01	2.413895e+14	2.435590e+14	3.406339e+14	9.562840e+03	6.796623e+03	2.808856e+03	0	5.476183e-04
5.300000e+08	4.301542e+12	0.000000e+00	5.276381e-01	2.393729e+14	2.455675e+14	3.389378e+14	9.552769e+03	6.805360e+03	2.812467e+03	0	5.406284e-04
5.400000e+08	4.134351e+12	0.000000e+00	5.276381e-01	2.373775e+14	2.475542e+14	3.372538e+14	9.542783e+03	6.813949e+03	2.816016e+03	0	5.335313e-04
5.500000e+08	3.968976e+12	0.000000e+00	5.276381e-01	2.354032e+14	2.495187e+14	3.355817e+14	9.532880e+03	6.822391e+03	2.819505e+03	0	5.263205e-04
5.600000e+08	3.805408e+12	0.000000e+00	5.276381e-01	2.334500e+14	2.514608e+14	3.339215e+14	9.523059e+03	6.830688e+03	2.822934e+03	0	5.189887e-04
5.700000e+08	3.643638e+12	0.000000e+00	5.276381e-01	2.315177e+14	2.533803e+14	3.322731e+14	9.513319e+03	6.838841e+03	2.826304e+03	0	5.115278e-04
5.800000e+08	3.483659e+12	0.000000e+00	5.276381e-01	2.296063e+14	2.552770e+14	3.306364e+14	9.503660e+03	6.846852e+03	2.829615e+03	0	5.039290e-04
5.900000e+08	3.325460e+12	0.000000e+00	5.276381e-01	2.277156e+14	2.571507e+14	3.290114e+14	9.494080e+03	6.854722e+03	2.832867e+03	0	4.961824e-04
6.000000e+08	3.169033e+12	0.000000e+00	5.276381e-01	2.258455e+14	2.590013e+14	3.273978e+14	9.484579e+03	6.862453e+03	2.836062e+03	0	4.882772e-04
6.100000e+08	3.014368e+12	0.000000e+00	5.276381e-01	2.239958e+14	2.608286e+14	3.257956e+14	9.475156e+03	6.870045e+03	2.839200e+03	0	4.802008e-04
6.200000e+08	2.861453e+12	0.000000e+00	5.276381e-01	2.221665e+14	2.626324e+14	3.242048e+14	9.465810e+03	6.877501e+03	2.842281e+03	0	4.719395e-04
6.300000e+08	2.710279e+12	0.000000e+00	5.276381e-01	2.203574e+14	2.644126e+14	3.226251e+14	9.456540e+03	6.884822e+03	2.845307e+03	0	4.634777e-04
6.400000e+08	2.560834e+12	0.000000e+00	5.276381e-01	2.185683e+14	2.661691e+14	3.210567e+14	9.447346e+03	6.892009e+03	2.848277e+03	0	4.547974e-04
6.500000e+08	2.413108e+12	0.000000e+00	5.276381e-01	2.167993e+14	2.679018e+14	3.194992e+14	9.438226e+03	6.899064e+03	2.851192e+03	0	4.458784e-04
6.600000e+08	2.267089e+12	0.000000e+00	5.276381e-01	2.150500e+14	2.696106e+14	3.179528e+14	9.429180e+03	6.905988e+03	2.854054e+03	0	4.366971e-04
6.700000e+08	2.122764e+12	0.000000e+00	5.276381e-01	2.133203e+14	2.712953e+14	3.164172e+14	9.420207e+03	6.912783e+03	2.856862e+03	0	4.272264e-04
6.800000e+08	1.980122e+12	0.000000e+00	5.276381e-01	2.116102e+14	2.729560e+14	3.148924e+14	9.411305e+03	6.919450e+03	2.859617e+03	0	4.174343e-04
6.900000e+08	1.839151e+12	0.000000e+00	5.276381e-01	2.099194e+14	2.745926e+14	3.133782e+14	9.402476e+03	6.925990e+03	2.862320e+03	0	4.072833e-04
7.000000e+08	1.699837e+12	0.000000e+00	5.276381e-01	2.082479e+14	2.762049e+14	3.118747e+14	9.393716e+03	6.932404e+03	2.864971e+03	0	3.967284e-04
7.100000e+08	1.562169e+12	0.000000e+00	5.276381e-01	2.065954e+14	2.777931e+14	3.103818e+14	9.385026e+03	6.938695e+03	2.867571e+03	0	3.857153e-04
7.200000e+08	1.426133e+12	0.000000e+00	5.276381e-01	2.049618e+14	2.793569e+14	3.088992e+14	9.376405e+03	6.944864e+03	2.870120e+03	0	3.741774e-04
7.300000e+08	1.291716e+12	0.000000e+00	5.276381e-01	2.033469e+14	2.808965e+14	3.074271e+14	9.367852e+03	6.950911e+03	2.872619e+03	0	3.620316e-04
7.400000e+08	1.158905e+12	0.000000e+00	5.276381e-01	2.017506e+14	2.824118e+14	3.059652e+14	9.359366e+03	6.956839e+03	2.875069e+03	0	3.491725e-04
7.500000e+08	1.027685e+12	0.000000e+00	5.276381e-01	2.001728e+14	2.839028e+14	3.045134e+14	9.350947e+03	6.962649e+03	2.877470e+03	0	3.354627e-04
7.600000e+08	8.980443e+11	0.000000e+00	5.276381e-01	1.986132e+14	2.853696e+14	3.030719e+14	9.342594e+03	6.968342e+03	2.879823e+03	0	3.207180e-04
7.700000e+08	7.699679e+11	0.000000e+00	5.276381e-01	1.970717e+14	2.868121e+14	3.016403e+14	9.334305e+03	6.973919e+03	2.882128e+03	0	3.046831e-04
7.800000e+08	6.434423e+11	0.000000e+00	5.276381e-01	1.955481e+14	2.882303e+14	3.002187e+14	9.326081e+03	6.979382e+03	2.884385e+03	0	2.869860e-04
7.900000e+08	5.184532e+11	0.000000e+00	5.276381e-01	1.940423e+14	2.896244e+14	2.988069e+14	9.317920e+03	6.984732e+03	2.886597e+03	0	2.670509e-04
8.000000e+08	3.949866e+11	0.000000e+00	5.276381e-01	1.925541e+14	2.909942e+14	2.974050e+14	9.309822e+03	6.989971e+03	2.888762e+03	0	2.439036e-04
8.100000e+08	2.730282e+11	0.000000e+00	5.276381e-01	1.910834e+14	2.923400e+14	2.960127e+14	9.301786e+03	6.995099e+03	2.890881e+03	0	2.156552e-04
8.200000e+08	1.525636e+11	0.000000e+00	5.276381e-01	1.896299e+14	2.936617e+14	2.946301e+14	9.293812e+03	7.000119e+03	2.892956e+03	0	1.776265e-04
8.300000e+08	3.357842e+10	0.000000e+00	5.276381e-01	1.881935e+14	2.949595e+14	2.932571e+14	9.285898e+03	7.005032e+03	2.894986e+03	0	1.072451e-04
8.400000e+08	-8.394182e+10	0.000000e+00	5.276381e-01	1.867740e+14	2.962334e+14	2.918935e+14	9.278043e+03	7.009838e+03	2.896972e+03	0	nan
