#t		Qconv[W]	Ri[Rp]		R*[Rp]		Qc[W]		Qm[W]		Qr[W]		Tcmb[K]		Tl[K]		Tup[K]		RiFlag		Bs[T]
0.000000e+00	5.773371e+13	0.000000e+00	8.410596e-01	9.069809e+14	9.050313e+14	3.536910e+13	8.988621e+03	3.560939e+03	2.079409e+03	0	1.073859e-03
1.000000e+07	5.594810e+13	0.000000e+00	8.410596e-01	8.794402e+14	9.074009e+14	3.517313e+13	8.914717e+03	3.569594e+03	2.084463e+03	0	1.062672e-03
2.000000e+07	5.424392e+13	0.000000e+00	8.410596e-01	8.531526e+14	9.007222e+14	3.497863e+13	8.843037e+03	3.571255e+03	2.085433e+03	0	1.051771e-03
3.000000e+07	5.261793e+13	0.000000e+00	8.410596e-01	8.280682e+14	8.882905e+14	3.478557e+13	8.773481e+03	3.568306e+03	2.083711e+03	0	1.041155e-03
4.000000e+07	5.106612e+13	0.000000e+00	8.410596e-01	8.041252e+14	8.723524e+14	3.459396e+13	8.705953e+03	3.562352e+03	2.080235e+03	0	1.030817e-03
5.000000e+07	4.958433e+13	0.000000e+00	8.410596e-01	7.812599e+14	8.544022e+14	3.440378e+13	8.640361e+03	3.554464e+03	2.075628e+03	0	1.020749e-03
6.000000e+07	4.816854e+13	0.000000e+00	8.410596e-01	7.594102e+14	8.354185e+14	3.421502e+13	8.576618e+03	3.545356e+03	2.070310e+03	0	1.010940e-03
7.000000e+07	4.681492e+13	0.000000e+00	8.410596e-01	7.385175e+14	8.160338e+14	3.402766e+13	8.514643e+03	3.535502e+03	2.064555e+03	0	1.001380e-03
8.000000e+07	4.551989e+13	0.000000e+00	8.410596e-01	7.185266e+14	7.966521e+14	3.384170e+13	8.454360e+03	3.525219e+03	2.058551e+03	0	9.920599e-04
9.000000e+07	4.428011e+13	0.000000e+00	8.410596e-01	6.993862e+14	7.775274e+14	3.365711e+13	8.395694e+03	3.514719e+03	2.052419e+03	0	9.829702e-04
1.000000e+08	4.309245e+13	0.000000e+00	8.410596e-01	6.810481e+14	7.588153e+14	3.347390e+13	8.338579e+03	3.504140e+03	2.046241e+03	0	9.741022e-04
1.100000e+08	4.195400e+13	0.000000e+00	8.410596e-01	6.634677e+14	7.406073e+14	3.329205e+13	8.282950e+03	3.493577e+03	2.040073e+03	0	9.654474e-04
1.200000e+08	4.086206e+13	0.000000e+00	8.410596e-01	6.466034e+14	7.229533e+14	3.311155e+13	8.228746e+03	3.483091e+03	2.033950e+03	0	9.569977e-04
1.300000e+08	3.981409e+13	0.000000e+00	8.410596e-01	6.304162e+14	7.058761e+14	3.293238e+13	8.175909e+03	3.472723e+03	2.027896e+03	0	9.487456e-04
1.400000e+08	3.880774e+13	0.000000e+00	8.410596e-01	6.148698e+14	6.893808e+14	3.275454e+13	8.124385e+03	3.462499e+03	2.021925e+03	0	9.406836e-04
1.500000e+08	3.784079e+13	0.000000e+00	8.410596e-01	5.999303e+14	6.734616e+14	3.257801e+13	8.074121e+03	3.452435e+03	2.016048e+03	0	9.328051e-04
1.600000e+08	3.691120e+13	0.000000e+00	8.410596e-01	5.855660e+14	6.581058e+14	3.240279e+13	8.025070e+03	3.442539e+03	2.010270e+03	0	9.251032e-04
1.700000e+08	3.601702e+13	0.000000e+00	8.410596e-01	5.717472e+14	6.432964e+14	3.222886e+13	7.977185e+03	3.432818e+03	2.004593e+03	0	9.175718e-04
1.800000e+08	3.515645e+13	0.000000e+00	8.410596e-01	5.584461e+14	6.290141e+14	3.205621e+13	7.930422e+03	3.423272e+03	1.999018e+03	0	9.102049e-04
1.900000e+08	3.432780e+13	0.000000e+00	8.410596e-01	5.456368e+14	6.152383e+14	3.188484e+13	7.884739e+03	3.413901e+03	1.993546e+03	0	9.029967e-04
2.000000e+08	3.352948e+13	0.000000e+00	8.410596e-01	5.332948e+14	6.019483e+14	3.171472e+13	7.840097e+03	3.404703e+03	1.988175e+03	0	8.959418e-04
2.100000e+08	3.276001e+13	0.000000e+00	8.410596e-01	5.213972e+14	5.891233e+14	3.154586e+13	7.796457e+03	3.395675e+03	1.982903e+03	0	8.890350e-04
2.200000e+08	3.201799e+13	0.000000e+00	8.410596e-01	5.099225e+14	5.767429e+14	3.137824e+13	7.753784e+03	3.386815e+03	1.977729e+03	0	8.822713e-04
2.300000e+08	3.130209e+13	0.000000e+00	8.410596e-01	4.988504e+14	5.647876e+14	3.121184e+13	7.712044e+03	3.378117e+03	1.972650e+03	0	8.756461e-04
2.400000e+08	3.061109e+13	0.000000e+00	8.410596e-01	4.881620e+14	5.532384e+14	3.104667e+13	7.671205e+03	3.369579e+03	1.967664e+03	0	8.691547e-04
2.500000e+08	2.994382e+13	0.000000e+00	8.410596e-01	4.778393e+14	5.420773e+14	3.088271e+13	7.631234e+03	3.361195e+03	1.962769e+03	0	8.627929e-04
2.600000e+08	2.929919e+13	0.000000e+00	8.410596e-01	4.678655e+14	5.312869e+14	3.071994e+13	7.592104e+03	3.352963e+03	1.957962e+03	0	8.565565e-04
2.700000e+08	2.867615e+13	0.000000e+00	8.410596e-01	4.582246e+14	5.208509e+14	3.055837e+13	7.553784e+03	3.344877e+03	1.953240e+03	0	8.504415e-04
2.800000e+08	2.807375e+13	0.000000e+00	8.410596e-01	4.489017e+14	5.107537e+14	3.039797e+13	7.516250e+03	3.336934e+03	1.948602e+03	0	8.444442e-04
2.900000e+08	2.749105e+13	0.000000e+00	8.410596e-01	4.398827e+14	5.009804e+14	3.023875e+13	7.479474e+03	3.329130e+03	1.944044e+03	0	8.385608e-04
3.000000e+08	2.692718e+13	0.000000e+00	8.410596e-01	4.311540e+14	4.915171e+14	3.008069e+13	7.443433e+03	3.321460e+03	1.939566e+03	0	8.327880e-04
3.100000e+08	2.638134e+13	0.000000e+00	8.410596e-01	4.227032e+14	4.823505e+14	2.992378e+13	7.408102e+03	3.313922e+03	1.935164e+03	0	8.271224e-04
3.200000e+08	2.585274e+13	0.000000e+00	8.410596e-01	4.145183e+14	4.734678e+14	2.976801e+13	7.373459e+03	3.306511e+03	1.930836e+03	0	8.215607e-04
3.300000e+08	2.534064e+13	0.000000e+00	8.410596e-01	4.065879e+14	4.648572e+14	2.961337e+13	7.339484e+03	3.299224e+03	1.926581e+03	0	8.161000e-04
3.400000e+08	2.484436e+13	0.000000e+00	8.410596e-01	3.989013e+14	4.565073e+14	2.945986e+13	7.306154e+03	3.292057e+03	1.922396e+03	0	8.107371e-04
3.500000e+08	2.436322e+13	0.000000e+00	8.410596e-01	3.914484e+14	4.484074e+14	2.930746e+13	7.273451e+03	3.285008e+03	1.918279e+03	0	8.054694e-04
3.600000e+08	2.389662e+13	0.000000e+00	8.410596e-01	3.842196e+14	4.405471e+14	2.915616e+13	7.241355e+03	3.278072e+03	1.914229e+03	0	8.002941e-04
3.700000e+08	2.344394e+13	0.000000e+00	8.410596e-01	3.772058e+14	4.329169e+14	2.900596e+13	7.209849e+03	3.271248e+03	1.910244e+03	0	7.952085e-04
3.800000e+08	2.300464e+13	0.000000e+00	8.410596e-01	3.703982e+14	4.255074e+14	2.885685e+13	7.178914e+03	3.264531e+03	1.906322e+03	0	7.902102e-04
3.900000e+08	2.257818e+13	0.000000e+00	8.410596e-01	3.637887e+14	4.183101e+14	2.870882e+13	7.148535e+03	3.257920e+03	1.902461e+03	0	7.852967e-04
4.000000e+08	2.216404e+13	0.000000e+00	8.410596e-01	3.573695e+14	4.113164e+14	2.856185e+13	7.118695e+03	3.251411e+03	1.898660e+03	0	7.804657e-04
4.100000e+08	2.176176e+13	0.000000e+00	8.410596e-01	3.511330e+14	4.045185e+14	2.841595e+13	7.089378e+03	3.245001e+03	1.894918e+03	0	7.757149e-04
4.200000e+08	2.137086e+13	0.000000e+00	8.410596e-01	3.450723e+14	3.979090e+14	2.827109e+13	7.060570e+03	3.238689e+03	1.891232e+03	0	7.710422e-04
4.300000e+08	2.099092e+13	0.000000e+00	8.410596e-01	3.391807e+14	3.914805e+14	2.812728e+13	7.032257e+03	3.232471e+03	1.887601e+03	0	7.664455e-04
4.400000e+08	2.062151e+13	0.000000e+00	8.410596e-01	3.334517e+14	3.852264e+14	2.798451e+13	7.004424e+03	3.226346e+03	1.884024e+03	0	7.619228e-04
4.500000e+08	2.026224e+13	0.000000e+00	8.410596e-01	3.278792e+14	3.791400e+14	2.784276e+13	6.977059e+03	3.220311e+03	1.880499e+03	0	7.574721e-04
4.600000e+08	1.991274e+13	0.000000e+00	8.410596e-01	3.224574e+14	3.732153e+14	2.770202e+13	6.950149e+03	3.214363e+03	1.877026e+03	0	7.530916e-04
4.700000e+08	1.957264e+13	0.000000e+00	8.410596e-01	3.171808e+14	3.674462e+14	2.756230e+13	6.923682e+03	3.208500e+03	1.873603e+03	0	7.487795e-04
4.800000e+08	1.924160e+13	0.000000e+00	8.410596e-01	3.120441e+14	3.618272e+14	2.742358e+13	6.897645e+03	3.202722e+03	1.870228e+03	0	7.445340e-04
4.900000e+08	1.891929e+13	0.000000e+00	8.410596e-01	3.070422e+14	3.563529e+14	2.728585e+13	6.872028e+03	3.197024e+03	1.866901e+03	0	7.403535e-04
5.000000e+08	1.860541e+13	0.000000e+00	8.410596e-01	3.021703e+14	3.510181e+14	2.714911e+13	6.846820e+03	3.191406e+03	1.863621e+03	0	7.362363e-04
5.100000e+08	1.829965e+13	0.000000e+00	8.410596e-01	2.974239e+14	3.458179e+14	2.701334e+13	6.822009e+03	3.185866e+03	1.860386e+03	0	7.321809e-04
5.200000e+08	1.800172e+13	0.000000e+00	8.410596e-01	2.927985e+14	3.407477e+14	2.687854e+13	6.797586e+03	3.180402e+03	1.857195e+03	0	7.281857e-04
5.300000e+08	1.771136e+13	0.000000e+00	8.410596e-01	2.882900e+14	3.358029e+14	2.674470e+13	6.773542e+03	3.175011e+03	1.854047e+03	0	7.242493e-04
5.400000e+08	1.742830e+13	0.000000e+00	8.410596e-01	2.838942e+14	3.309793e+14	2.661182e+13	6.749865e+03	3.169693e+03	1.850941e+03	0	7.203703e-04
5.500000e+08	1.715229e+13	0.000000e+00	8.410596e-01	2.796074e+14	3.262727e+14	2.647988e+13	6.726548e+03	3.164446e+03	1.847877e+03	0	7.165473e-04
5.600000e+08	1.688310e+13	0.000000e+00	8.410596e-01	2.754259e+14	3.216793e+14	2.634888e+13	6.703582e+03	3.159267e+03	1.844853e+03	0	7.127790e-04
5.700000e+08	1.662049e+13	0.000000e+00	8.410596e-01	2.713461e+14	3.171952e+14	2.621881e+13	6.680957e+03	3.154156e+03	1.841869e+03	0	7.090640e-04
5.800000e+08	1.636425e+13	0.000000e+00	8.410596e-01	2.673647e+14	3.128169e+14	2.608967e+13	6.658665e+03	3.149112e+03	1.838923e+03	0	7.054012e-04
5.900000e+08	1.611417e+13	0.000000e+00	8.410596e-01	2.634784e+14	3.085409e+14	2.596143e+13	6.636700e+03	3.144131e+03	1.836014e+03	0	7.017894e-04
6.000000e+08	1.587004e+13	0.000000e+00	8.410596e-01	2.596842e+14	3.043639e+14	2.583411e+13	6.615052e+03	3.139214e+03	1.833143e+03	0	6.982274e-04
6.100000e+08	1.563168e+13	0.000000e+00	8.410596e-01	2.559790e+14	3.002827e+14	2.570769e+13	6.593714e+03	3.134359e+03	1.830308e+03	0	6.947140e-04
6.200000e+08	1.539889e+13	0.000000e+00	8.410596e-01	2.523601e+14	2.962943e+14	2.558216e+13	6.572679e+03	3.129564e+03	1.827508e+03	0	6.912482e-04
6.300000e+08	1.517151e+13	0.000000e+00	8.410596e-01	2.488246e+14	2.923957e+14	2.545751e+13	6.551941e+03	3.124828e+03	1.824742e+03	0	6.878288e-04
6.400000e+08	1.494935e+13	0.000000e+00	8.410596e-01	2.453699e+14	2.885841e+14	2.533375e+13	6.531491e+03	3.120150e+03	1.822011e+03	0	6.844550e-04
6.500000e+08	1.473226e+13	0.000000e+00	8.410596e-01	2.419936e+14	2.848569e+14	2.521086e+13	6.511325e+03	3.115529e+03	1.819312e+03	0	6.811256e-04
6.600000e+08	1.452007e+13	0.000000e+00	8.410596e-01	2.386931e+14	2.812115e+14	2.508883e+13	6.491434e+03	3.110963e+03	1.816646e+03	0	6.778398e-04
6.700000e+08	1.431264e+13	0.000000e+00	8.410596e-01	2.354662e+14	2.776453e+14	2.496766e+13	6.471814e+03	3.106452e+03	1.814011e+03	0	6.745965e-04
6.800000e+08	1.410983e+13	0.000000e+00	8.410596e-01	2.323106e+14	2.741559e+14	2.484734e+13	6.452458e+03	3.101993e+03	1.811408e+03	0	6.713949e-04
6.900000e+08	1.391148e+13	0.000000e+00	8.410596e-01	2.292241e+14	2.707411e+14	2.472786e+13	6.433360e+03	3.097587e+03	1.808835e+03	0	6.682341e-04
7.000000e+08	1.371747e+13	0.000000e+00	8.410596e-01	2.262047e+14	2.673987e+14	2.460923e+13	6.414515e+03	3.093232e+03	1.806292e+03	0	6.651132e-04
7.100000e+08	1.352767e+13	0.000000e+00	8.410596e-01	2.232504e+14	2.641264e+14	2.449142e+13	6.395917e+03	3.088928e+03	1.803778e+03	0	6.620313e-04
7.200000e+08	1.334196e+13	0.000000e+00	8.410596e-01	2.203593e+14	2.609224e+14	2.437444e+13	6.377560e+03	3.084672e+03	1.801293e+03	0	6.589878e-04
7.300000e+08	1.316021e+13	0.000000e+00	8.410596e-01	2.175295e+14	2.577845e+14	2.425827e+13	6.359441e+03	3.080464e+03	1.798836e+03	0	6.559817e-04
7.400000e+08	1.298230e+13	0.000000e+00	8.410596e-01	2.147592e+14	2.547108e+14	2.414292e+13	6.341553e+03	3.076304e+03	1.796407e+03	0	6.530123e-04
7.500000e+08	1.280813e+13	0.000000e+00	8.410596e-01	2.120467e+14	2.516996e+14	2.402837e+13	6.323892e+03	3.072190e+03	1.794004e+03	0	6.500790e-04
7.600000e+08	1.263760e+13	0.000000e+00	8.410596e-01	2.093904e+14	2.487491e+14	2.391461e+13	6.306454e+03	3.068121e+03	1.791629e+03	0	6.471808e-04
7.700000e+08	1.247059e+13	0.000000e+00	8.410596e-01	2.067887e+14	2.458576e+14	2.380165e+13	6.289232e+03	3.064097e+03	1.789279e+03	0	6.443173e-04
7.800000e+08	1.230700e+13	0.000000e+00	8.410596e-01	2.042400e+14	2.430234e+14	2.368948e+13	6.272224e+03	3.060117e+03	1.786954e+03	0	6.414876e-04
7.900000e+08	1.214675e+13	0.000000e+00	8.410596e-01	2.017429e+14	2.402449e+14	2.357808e+13	6.255425e+03	3.056179e+03	1.784655e+03	0	6.386911e-04
8.000000e+08	1.198973e+13	0.000000e+00	8.410596e-01	1.992959e+14	2.375207e+14	2.346746e+13	6.238830e+03	3.052283e+03	1.782380e+03	0	6.359271e-04
8.100000e+08	1.183587e+13	0.000000e+00	8.410596e-01	1.968976e+14	2.348491e+14	2.335760e+13	6.222436e+03	3.048429e+03	1.780129e+03	0	6.331951e-04
8.200000e+08	1.168506e+13	0.000000e+00	8.410596e-01	1.945467e+14	2.322289e+14	2.324850e+13	6.206239e+03	3.044615e+03	1.777902e+03	0	6.304943e-04
8.300000e+08	1.153724e+13	0.000000e+00	8.410596e-01	1.922420e+14	2.296586e+14	2.314016e+13	6.190234e+03	3.040841e+03	1.775698e+03	0	6.278243e-04
8.400000e+08	1.139231e+13	0.000000e+00	8.410596e-01	1.899821e+14	2.271370e+14	2.303256e+13	6.174417e+03	3.037106e+03	1.773517e+03	0	6.251844e-04
8.500000e+08	1.125021e+13	0.000000e+00	8.410596e-01	1.877659e+14	2.246626e+14	2.292571e+13	6.158786e+03	3.033410e+03	1.771359e+03	0	6.225740e-04
8.600000e+08	1.111085e+13	0.000000e+00	8.410596e-01	1.855923e+14	2.222343e+14	2.281960e+13	6.143337e+03	3.029751e+03	1.769222e+03	0	6.199927e-04
8.700000e+08	1.097416e+13	0.000000e+00	8.410596e-01	1.834600e+14	2.198509e+14	2.271421e+13	6.128066e+03	3.026129e+03	1.767107e+03	0	6.174398e-04
8.800000e+08	1.084008e+13	0.000000e+00	8.410596e-01	1.813681e+14	2.175113e+14	2.260955e+13	6.112970e+03	3.022544e+03	1.765013e+03	0	6.149149e-04
8.900000e+08	1.070853e+13	0.000000e+00	8.410596e-01	1.793154e+14	2.152142e+14	2.250561e+13	6.098045e+03	3.018994e+03	1.762940e+03	0	6.124174e-04
9.000000e+08	1.057946e+13	0.000000e+00	8.410596e-01	1.773010e+14	2.129586e+14	2.240238e+13	6.083288e+03	3.015479e+03	1.760888e+03	0	6.099468e-04
9.100000e+08	1.045279e+13	0.000000e+00	8.410596e-01	1.753239e+14	2.107435e+14	2.229986e+13	6.068697e+03	3.011999e+03	1.758856e+03	0	6.075027e-04
9.200000e+08	1.032846e+13	0.000000e+00	8.410596e-01	1.733831e+14	2.085679e+14	2.219804e+13	6.054268e+03	3.008553e+03	1.756843e+03	0	6.050845e-04
9.300000e+08	1.020642e+13	0.000000e+00	8.410596e-01	1.714777e+14	2.064307e+14	2.209692e+13	6.039998e+03	3.005140e+03	1.754850e+03	0	6.026918e-04
9.400000e+08	1.008661e+13	0.000000e+00	8.410596e-01	1.696069e+14	2.043310e+14	2.199649e+13	6.025884e+03	3.001759e+03	1.752876e+03	0	6.003242e-04
9.500000e+08	9.968969e+12	0.000000e+00	8.410596e-01	1.677697e+14	2.022679e+14	2.189674e+13	6.011924e+03	2.998411e+03	1.750921e+03	0	5.979812e-04
9.600000e+08	9.853447e+12	0.000000e+00	8.410596e-01	1.659653e+14	2.002405e+14	2.179768e+13	5.998114e+03	2.995095e+03	1.748985e+03	0	5.956624e-04
9.700000e+08	9.739991e+12	0.000000e+00	8.410596e-01	1.641930e+14	1.982479e+14	2.169929e+13	5.984452e+03	2.991810e+03	1.747067e+03	0	5.933674e-04
9.800000e+08	9.628551e+12	0.000000e+00	8.410596e-01	1.624519e+14	1.962893e+14	2.160157e+13	5.970936e+03	2.988556e+03	1.745166e+03	0	5.910957e-04
9.900000e+08	9.519077e+12	0.000000e+00	8.410596e-01	1.607412e+14	1.943639e+14	2.150451e+13	5.957562e+03	2.985331e+03	1.743283e+03	0	5.888470e-04
1.000000e+09	9.411523e+12	0.000000e+00	8.410596e-01	1.590604e+14	1.924709e+14	2.140811e+13	5.944329e+03	2.982137e+03	1.741418e+03	0	5.866208e-04
1.010000e+09	9.305841e+12	0.000000e+00	8.410596e-01	1.574085e+14	1.906095e+14	2.131237e+13	5.931234e+03	2.978971e+03	1.739569e+03	0	5.844168e-04
1.020000e+09	9.201987e+12	0.000000e+00	8.410596e-01	1.557851e+14	1.887790e+14	2.121727e+13	5.918274e+03	2.975834e+03	1.737738e+03	0	5.822346e-04
1.030000e+09	9.099917e+12	0.000000e+00	8.410596e-01	1.541892e+14	1.869787e+14	2.112282e+13	5.905448e+03	2.972726e+03	1.735922e+03	0	5.800739e-04
1.040000e+09	8.999591e+12	0.000000e+00	8.410596e-01	1.526205e+14	1.852078e+14	2.102901e+13	5.892752e+03	2.969645e+03	1.734123e+03	0	5.779342e-04
1.050000e+09	8.900966e+12	0.000000e+00	8.410596e-01	1.510781e+14	1.834658e+14	2.093583e+13	5.880185e+03	2.966592e+03	1.732340e+03	0	5.758153e-04
1.060000e+09	8.804004e+12	0.000000e+00	8.410596e-01	1.495615e+14	1.817518e+14	2.084328e+13	5.867745e+03	2.963565e+03	1.730573e+03	0	5.737168e-04
1.070000e+09	8.708665e+12	0.000000e+00	8.410596e-01	1.480700e+14	1.800654e+14	2.075135e+13	5.855429e+03	2.960566e+03	1.728821e+03	0	5.716383e-04
1.080000e+09	8.614914e+12	0.000000e+00	8.410596e-01	1.466032e+14	1.784058e+14	2.066004e+13	5.843236e+03	2.957592e+03	1.727085e+03	0	5.695796e-04
1.090000e+09	8.522712e+12	0.000000e+00	8.410596e-01	1.451605e+14	1.767725e+14	2.056934e+13	5.831163e+03	2.954644e+03	1.725363e+03	0	5.675404e-04
1.100000e+09	8.432026e+12	0.000000e+00	8.410596e-01	1.437413e+14	1.751649e+14	2.047926e+13	5.819209e+03	2.951721e+03	1.723657e+03	0	5.655202e-04
1.110000e+09	8.342820e+12	0.000000e+00	8.410596e-01	1.423450e+14	1.735824e+14	2.038977e+13	5.807371e+03	2.948824e+03	1.721965e+03	0	5.635189e-04
1.120000e+09	8.255063e+12	0.000000e+00	8.410596e-01	1.409712e+14	1.720245e+14	2.030089e+13	5.795647e+03	2.945950e+03	1.720287e+03	0	5.615360e-04
1.130000e+09	8.168721e+12	0.000000e+00	8.410596e-01	1.396194e+14	1.704906e+14	2.021260e+13	5.784037e+03	2.943102e+03	1.718623e+03	0	5.595714e-04
1.140000e+09	8.083763e+12	0.000000e+00	8.410596e-01	1.382890e+14	1.689802e+14	2.012490e+13	5.772537e+03	2.940277e+03	1.716974e+03	0	5.576247e-04
1.150000e+09	8.000160e+12	0.000000e+00	8.410596e-01	1.369797e+14	1.674929e+14	2.003779e+13	5.761146e+03	2.937475e+03	1.715338e+03	0	5.556957e-04
1.160000e+09	7.917880e+12	0.000000e+00	8.410596e-01	1.356909e+14	1.660280e+14	1.995126e+13	5.749864e+03	2.934697e+03	1.713715e+03	0	5.537841e-04
1.170000e+09	7.836896e+12	0.000000e+00	8.410596e-01	1.344223e+14	1.645852e+14	1.986531e+13	5.738687e+03	2.931941e+03	1.712106e+03	0	5.518896e-04
1.180000e+09	7.757179e+12	0.000000e+00	8.410596e-01	1.331733e+14	1.631640e+14	1.977992e+13	5.727614e+03	2.929208e+03	1.710510e+03	0	5.500119e-04
1.190000e+09	7.678702e+12	0.000000e+00	8.410596e-01	1.319436e+14	1.617638e+14	1.969511e+13	5.716643e+03	2.926497e+03	1.708927e+03	0	5.481508e-04
1.200000e+09	7.601438e+12	0.000000e+00	8.410596e-01	1.307327e+14	1.603844e+14	1.961085e+13	5.705774e+03	2.923808e+03	1.707357e+03	0	5.463061e-04
1.210000e+09	7.525363e+12	0.000000e+00	8.410596e-01	1.295403e+14	1.590251e+14	1.952716e+13	5.695004e+03	2.921141e+03	1.705799e+03	0	5.444775e-04
1.220000e+09	7.450450e+12	0.000000e+00	8.410596e-01	1.283659e+14	1.576858e+14	1.944402e+13	5.684332e+03	2.918494e+03	1.704254e+03	0	5.426648e-04
1.230000e+09	7.376676e+12	0.000000e+00	8.410596e-01	1.272092e+14	1.563658e+14	1.936143e+13	5.673757e+03	2.915869e+03	1.702721e+03	0	5.408677e-04
1.240000e+09	7.304017e+12	0.000000e+00	8.410596e-01	1.260698e+14	1.550648e+14	1.927939e+13	5.663276e+03	2.913264e+03	1.701200e+03	0	5.390860e-04
1.250000e+09	7.232448e+12	0.000000e+00	8.410596e-01	1.249474e+14	1.537825e+14	1.919789e+13	5.652889e+03	2.910680e+03	1.699691e+03	0	5.373195e-04
1.260000e+09	7.161949e+12	0.000000e+00	8.410596e-01	1.238416e+14	1.525185e+14	1.911692e+13	5.642595e+03	2.908116e+03	1.698193e+03	0	5.355679e-04
1.270000e+09	7.092497e+12	0.000000e+00	8.410596e-01	1.227520e+14	1.512723e+14	1.903649e+13	5.632391e+03	2.905572e+03	1.696708e+03	0	5.338311e-04
1.280000e+09	7.024070e+12	0.000000e+00	8.410596e-01	1.216784e+14	1.500437e+14	1.895659e+13	5.622277e+03	2.903047e+03	1.695233e+03	0	5.321088e-04
1.290000e+09	6.956648e+12	0.000000e+00	8.410596e-01	1.206204e+14	1.488322e+14	1.887721e+13	5.612250e+03	2.900541e+03	1.693770e+03	0	5.304008e-04
1.300000e+09	6.890210e+12	0.000000e+00	8.410596e-01	1.195777e+14	1.476376e+14	1.879836e+13	5.602311e+03	2.898054e+03	1.692318e+03	0	5.287069e-04
1.310000e+09	6.824738e+12	0.000000e+00	8.410596e-01	1.185500e+14	1.464596e+14	1.872002e+13	5.592458e+03	2.895587e+03	1.690877e+03	0	5.270269e-04
1.320000e+09	6.760211e+12	0.000000e+00	8.410596e-01	1.175370e+14	1.452977e+14	1.864219e+13	5.582689e+03	2.893137e+03	1.689447e+03	0	5.253607e-04
1.330000e+09	6.696610e+12	0.000000e+00	8.410596e-01	1.165384e+14	1.441517e+14	1.856488e+13	5.573003e+03	2.890706e+03	1.688027e+03	0	5.237079e-04
1.340000e+09	6.633918e+12	0.000000e+00	8.410596e-01	1.155539e+14	1.430213e+14	1.848807e+13	5.563399e+03	2.888293e+03	1.686618e+03	0	5.220685e-04
1.350000e+09	6.572116e+12	0.000000e+00	8.410596e-01	1.145832e+14	1.419062e+14	1.841176e+13	5.553876e+03	2.885898e+03	1.685219e+03	0	5.204423e-04
1.360000e+09	6.511188e+12	0.000000e+00	8.410596e-01	1.136262e+14	1.408061e+14	1.833594e+13	5.544433e+03	2.883520e+03	1.683831e+03	0	5.188290e-04
