#t		Qconv[W]	Ri[Rp]		R*[Rp]		Qc[W]		Qm[W]		Qr[W]		Tcmb[K]		Tl[K]		Tup[K]		RiFlag		Bs[T]
0.000000e+00	2.094206e+14	0.000000e+00	8.378375e-01	2.244788e+15	1.811822e+15	1.105822e+14	1.322569e+04	4.567361e+03	2.480901e+03	0	1.569936e-03
1.000000e+07	2.072365e+14	0.000000e+00	8.378375e-01	2.224595e+15	1.910831e+15	1.099695e+14	1.318630e+04	4.612182e+03	2.505247e+03	0	1.564460e-03
2.000000e+07	2.049171e+14	0.000000e+00	8.378375e-01	2.203241e+15	1.988357e+15	1.093613e+14	1.314726e+04	4.647005e+03	2.524162e+03	0	1.558601e-03
3.000000e+07	2.025052e+14	0.000000e+00	8.378375e-01	2.181100e+15	2.046974e+15	1.087578e+14	1.310860e+04	4.673582e+03	2.538598e+03	0	1.552462e-03
4.000000e+07	2.000341e+14	0.000000e+00	8.378375e-01	2.158458e+15	2.089485e+15	1.081587e+14	1.307033e+04	4.693452e+03	2.549391e+03	0	1.546121e-03
5.000000e+07	1.975291e+14	0.000000e+00	8.378375e-01	2.135536e+15	2.118618e+15	1.075641e+14	1.303245e+04	4.707920e+03	2.557250e+03	0	1.539640e-03
6.000000e+07	1.950094e+14	0.000000e+00	8.378375e-01	2.112500e+15	2.136851e+15	1.069739e+14	1.299497e+04	4.718075e+03	2.562766e+03	0	1.533066e-03
7.000000e+07	1.924895e+14	0.000000e+00	8.378375e-01	2.089475e+15	2.146335e+15	1.063881e+14	1.295790e+04	4.724808e+03	2.566423e+03	0	1.526434e-03
8.000000e+07	1.899799e+14	0.000000e+00	8.378375e-01	2.066553e+15	2.148882e+15	1.058067e+14	1.292122e+04	4.728836e+03	2.568611e+03	0	1.519771e-03
9.000000e+07	1.874888e+14	0.000000e+00	8.378375e-01	2.043803e+15	2.145985e+15	1.052296e+14	1.288495e+04	4.730738e+03	2.569644e+03	0	1.513099e-03
1.000000e+08	1.850219e+14	0.000000e+00	8.378375e-01	2.021276e+15	2.138857e+15	1.046568e+14	1.284908e+04	4.730971e+03	2.569770e+03	0	1.506433e-03
1.100000e+08	1.825835e+14	0.000000e+00	8.378375e-01	1.999009e+15	2.128469e+15	1.040882e+14	1.281360e+04	4.729898e+03	2.569188e+03	0	1.499786e-03
1.200000e+08	1.801766e+14	0.000000e+00	8.378375e-01	1.977028e+15	2.115593e+15	1.035239e+14	1.277851e+04	4.727807e+03	2.568052e+03	0	1.493167e-03
1.300000e+08	1.778035e+14	0.000000e+00	8.378375e-01	1.955351e+15	2.100838e+15	1.029637e+14	1.274380e+04	4.724924e+03	2.566486e+03	0	1.486582e-03
1.400000e+08	1.754654e+14	0.000000e+00	8.378375e-01	1.933990e+15	2.084685e+15	1.024077e+14	1.270948e+04	4.721426e+03	2.564586e+03	0	1.480038e-03
1.500000e+08	1.731633e+14	0.000000e+00	8.378375e-01	1.912952e+15	2.067509e+15	1.018558e+14	1.267552e+04	4.717453e+03	2.562428e+03	0	1.473536e-03
1.600000e+08	1.708977e+14	0.000000e+00	8.378375e-01	1.892243e+15	2.049604e+15	1.013079e+14	1.264194e+04	4.713116e+03	2.560072e+03	0	1.467082e-03
1.700000e+08	1.686687e+14	0.000000e+00	8.378375e-01	1.871862e+15	2.031198e+15	1.007641e+14	1.260872e+04	4.708500e+03	2.557565e+03	0	1.460676e-03
1.800000e+08	1.664763e+14	0.000000e+00	8.378375e-01	1.851810e+15	2.012469e+15	1.002244e+14	1.257585e+04	4.703674e+03	2.554944e+03	0	1.454319e-03
1.900000e+08	1.643202e+14	0.000000e+00	8.378375e-01	1.832084e+15	1.993555e+15	9.968855e+13	1.254334e+04	4.698692e+03	2.552237e+03	0	1.448014e-03
2.000000e+08	1.622002e+14	0.000000e+00	8.378375e-01	1.812680e+15	1.974564e+15	9.915669e+13	1.251117e+04	4.693594e+03	2.549468e+03	0	1.441759e-03
2.100000e+08	1.601157e+14	0.000000e+00	8.378375e-01	1.793596e+15	1.955577e+15	9.862873e+13	1.247934e+04	4.688415e+03	2.546655e+03	0	1.435556e-03
2.200000e+08	1.580663e+14	0.000000e+00	8.378375e-01	1.774826e+15	1.936658e+15	9.810465e+13	1.244784e+04	4.683181e+03	2.543812e+03	0	1.429405e-03
2.300000e+08	1.560513e+14	0.000000e+00	8.378375e-01	1.756365e+15	1.917855e+15	9.758442e+13	1.241668e+04	4.677911e+03	2.540950e+03	0	1.423305e-03
2.400000e+08	1.540702e+14	0.000000e+00	8.378375e-01	1.738208e+15	1.899206e+15	9.706800e+13	1.238583e+04	4.672623e+03	2.538077e+03	0	1.417256e-03
2.500000e+08	1.521223e+14	0.000000e+00	8.378375e-01	1.720349e+15	1.880737e+15	9.655537e+13	1.235531e+04	4.667329e+03	2.535201e+03	0	1.411258e-03
2.600000e+08	1.502070e+14	0.000000e+00	8.378375e-01	1.702782e+15	1.862471e+15	9.604648e+13	1.232509e+04	4.662039e+03	2.532328e+03	0	1.405311e-03
2.700000e+08	1.483237e+14	0.000000e+00	8.378375e-01	1.685502e+15	1.844420e+15	9.554132e+13	1.229519e+04	4.656760e+03	2.529461e+03	0	1.399412e-03
2.800000e+08	1.464716e+14	0.000000e+00	8.378375e-01	1.668502e+15	1.826598e+15	9.503985e+13	1.226558e+04	4.651500e+03	2.526603e+03	0	1.393563e-03
2.900000e+08	1.446503e+14	0.000000e+00	8.378375e-01	1.651778e+15	1.809009e+15	9.454203e+13	1.223628e+04	4.646263e+03	2.523759e+03	0	1.387763e-03
3.000000e+08	1.428589e+14	0.000000e+00	8.378375e-01	1.635324e+15	1.791661e+15	9.404785e+13	1.220727e+04	4.641052e+03	2.520928e+03	0	1.382011e-03
3.100000e+08	1.410970e+14	0.000000e+00	8.378375e-01	1.619133e+15	1.774554e+15	9.355726e+13	1.217854e+04	4.635870e+03	2.518114e+03	0	1.376305e-03
3.200000e+08	1.393638e+14	0.000000e+00	8.378375e-01	1.603201e+15	1.757690e+15	9.307025e+13	1.215010e+04	4.630721e+03	2.515317e+03	0	1.370647e-03
3.300000e+08	1.376588e+14	0.000000e+00	8.378375e-01	1.587521e+15	1.741069e+15	9.258677e+13	1.212194e+04	4.625605e+03	2.512537e+03	0	1.365034e-03
3.400000e+08	1.359814e+14	0.000000e+00	8.378375e-01	1.572090e+15	1.724690e+15	9.210681e+13	1.209405e+04	4.620523e+03	2.509777e+03	0	1.359467e-03
3.500000e+08	1.343310e+14	0.000000e+00	8.378375e-01	1.556900e+15	1.708550e+15	9.163033e+13	1.206643e+04	4.615477e+03	2.507036e+03	0	1.353945e-03
3.600000e+08	1.327069e+14	0.000000e+00	8.378375e-01	1.541948e+15	1.692647e+15	9.115730e+13	1.203908e+04	4.610466e+03	2.504315e+03	0	1.348466e-03
3.700000e+08	1.311088e+14	0.000000e+00	8.378375e-01	1.527229e+15	1.676979e+15	9.068770e+13	1.201199e+04	4.605493e+03	2.501613e+03	0	1.343031e-03
3.800000e+08	1.295359e+14	0.000000e+00	8.378375e-01	1.512737e+15	1.661541e+15	9.022150e+13	1.198516e+04	4.600556e+03	2.498931e+03	0	1.337639e-03
3.900000e+08	1.279879e+14	0.000000e+00	8.378375e-01	1.498468e+15	1.646331e+15	8.975866e+13	1.195858e+04	4.595656e+03	2.496270e+03	0	1.332289e-03
4.000000e+08	1.264641e+14	0.000000e+00	8.378375e-01	1.484417e+15	1.631345e+15	8.929917e+13	1.193225e+04	4.590792e+03	2.493628e+03	0	1.326981e-03
4.100000e+08	1.249640e+14	0.000000e+00	8.378375e-01	1.470579e+15	1.616579e+15	8.884300e+13	1.190617e+04	4.585966e+03	2.491006e+03	0	1.321713e-03
4.200000e+08	1.234872e+14	0.000000e+00	8.378375e-01	1.456951e+15	1.602029e+15	8.839011e+13	1.188033e+04	4.581176e+03	2.488405e+03	0	1.316486e-03
4.300000e+08	1.220332e+14	0.000000e+00	8.378375e-01	1.443528e+15	1.587691e+15	8.794048e+13	1.185473e+04	4.576422e+03	2.485822e+03	0	1.311299e-03
4.400000e+08	1.206015e+14	0.000000e+00	8.378375e-01	1.430306e+15	1.573563e+15	8.749409e+13	1.182937e+04	4.571704e+03	2.483260e+03	0	1.306150e-03
4.500000e+08	1.191916e+14	0.000000e+00	8.378375e-01	1.417280e+15	1.559639e+15	8.705091e+13	1.180423e+04	4.567022e+03	2.480717e+03	0	1.301040e-03
4.600000e+08	1.178032e+14	0.000000e+00	8.378375e-01	1.404448e+15	1.545916e+15	8.661090e+13	1.177933e+04	4.562375e+03	2.478193e+03	0	1.295969e-03
4.700000e+08	1.164357e+14	0.000000e+00	8.378375e-01	1.391804e+15	1.532390e+15	8.617406e+13	1.175465e+04	4.557764e+03	2.475688e+03	0	1.290935e-03
4.800000e+08	1.150887e+14	0.000000e+00	8.378375e-01	1.379345e+15	1.519058e+15	8.574034e+13	1.173019e+04	4.553187e+03	2.473201e+03	0	1.285937e-03
4.900000e+08	1.137619e+14	0.000000e+00	8.378375e-01	1.367067e+15	1.505916e+15	8.530973e+13	1.170595e+04	4.548644e+03	2.470734e+03	0	1.280977e-03
5.000000e+08	1.124548e+14	0.000000e+00	8.378375e-01	1.354967e+15	1.492960e+15	8.488219e+13	1.168192e+04	4.544135e+03	2.468285e+03	0	1.276052e-03
5.100000e+08	1.111670e+14	0.000000e+00	8.378375e-01	1.343042e+15	1.480186e+15	8.445772e+13	1.165811e+04	4.539660e+03	2.465854e+03	0	1.271162e-03
5.200000e+08	1.098982e+14	0.000000e+00	8.378375e-01	1.331287e+15	1.467592e+15	8.403627e+13	1.163451e+04	4.535218e+03	2.463441e+03	0	1.266307e-03
5.300000e+08	1.086479e+14	0.000000e+00	8.378375e-01	1.319700e+15	1.455174e+15	8.361782e+13	1.161111e+04	4.530808e+03	2.461046e+03	0	1.261487e-03
5.400000e+08	1.074159e+14	0.000000e+00	8.378375e-01	1.308277e+15	1.442929e+15	8.320236e+13	1.158791e+04	4.526432e+03	2.458669e+03	0	1.256700e-03
5.500000e+08	1.062017e+14	0.000000e+00	8.378375e-01	1.297015e+15	1.430852e+15	8.278986e+13	1.156492e+04	4.522087e+03	2.456309e+03	0	1.251947e-03
5.600000e+08	1.050050e+14	0.000000e+00	8.378375e-01	1.285911e+15	1.418942e+15	8.238028e+13	1.154212e+04	4.517773e+03	2.453966e+03	0	1.247227e-03
5.700000e+08	1.038254e+14	0.000000e+00	8.378375e-01	1.274962e+15	1.407195e+15	8.197362e+13	1.151952e+04	4.513491e+03	2.451640e+03	0	1.242539e-03
5.800000e+08	1.026627e+14	0.000000e+00	8.378375e-01	1.264165e+15	1.395608e+15	8.156984e+13	1.149711e+04	4.509240e+03	2.449330e+03	0	1.237884e-03
5.900000e+08	1.015165e+14	0.000000e+00	8.378375e-01	1.253517e+15	1.384178e+15	8.116892e+13	1.147488e+04	4.505019e+03	2.447038e+03	0	1.233260e-03
6.000000e+08	1.003865e+14	0.000000e+00	8.378375e-01	1.243015e+15	1.372901e+15	8.077084e+13	1.145285e+04	4.500828e+03	2.444761e+03	0	1.228667e-03
6.100000e+08	9.927243e+13	0.000000e+00	8.378375e-01	1.232657e+15	1.361776e+15	8.037557e+13	1.143100e+04	4.496667e+03	2.442501e+03	0	1.224104e-03
6.200000e+08	9.817390e+13	0.000000e+00	8.378375e-01	1.222440e+15	1.350800e+15	7.998310e+13	1.140933e+04	4.492536e+03	2.440257e+03	0	1.219572e-03
6.300000e+08	9.709066e+13	0.000000e+00	8.378375e-01	1.212361e+15	1.339969e+15	7.959340e+13	1.138784e+04	4.488433e+03	2.438029e+03	0	1.215070e-03
6.400000e+08	9.602243e+13	0.000000e+00	8.378375e-01	1.202417e+15	1.329281e+15	7.920645e+13	1.136653e+04	4.484359e+03	2.435816e+03	0	1.210598e-03
6.500000e+08	9.496892e+13	0.000000e+00	8.378375e-01	1.192607e+15	1.318734e+15	7.882222e+13	1.134539e+04	4.480314e+03	2.433618e+03	0	1.206154e-03
6.600000e+08	9.392987e+13	0.000000e+00	8.378375e-01	1.182927e+15	1.308325e+15	7.844070e+13	1.132442e+04	4.476296e+03	2.431436e+03	0	1.201739e-03
6.700000e+08	9.290500e+13	0.000000e+00	8.378375e-01	1.173376e+15	1.298051e+15	7.806186e+13	1.130362e+04	4.472306e+03	2.429269e+03	0	1.197352e-03
6.800000e+08	9.189406e+13	0.000000e+00	8.378375e-01	1.163951e+15	1.287910e+15	7.768568e+13	1.128299e+04	4.468344e+03	2.427117e+03	0	1.192993e-03
6.900000e+08	9.089678e+13	0.000000e+00	8.378375e-01	1.154650e+15	1.277900e+15	7.731214e+13	1.126253e+04	4.464409e+03	2.424979e+03	0	1.188662e-03
7.000000e+08	8.991293e+13	0.000000e+00	8.378375e-01	1.145470e+15	1.268018e+15	7.694122e+13	1.124223e+04	4.460500e+03	2.422856e+03	0	1.184358e-03
7.100000e+08	8.894226e+13	0.000000e+00	8.378375e-01	1.136409e+15	1.258262e+15	7.657289e+13	1.122209e+04	4.456617e+03	2.420747e+03	0	1.180081e-03
7.200000e+08	8.798453e+13	0.000000e+00	8.378375e-01	1.127466e+15	1.248630e+15	7.620714e+13	1.120210e+04	4.452761e+03	2.418652e+03	0	1.175829e-03
7.300000e+08	8.703950e+13	0.000000e+00	8.378375e-01	1.118638e+15	1.239120e+15	7.584395e+13	1.118228e+04	4.448931e+03	2.416572e+03	0	1.171605e-03
7.400000e+08	8.610696e+13	0.000000e+00	8.378375e-01	1.109922e+15	1.229729e+15	7.548329e+13	1.116261e+04	4.445126e+03	2.414505e+03	0	1.167405e-03
7.500000e+08	8.518668e+13	0.000000e+00	8.378375e-01	1.101318e+15	1.220456e+15	7.512515e+13	1.114309e+04	4.441346e+03	2.412452e+03	0	1.163231e-03
7.600000e+08	8.427844e+13	0.000000e+00	8.378375e-01	1.092824e+15	1.211298e+15	7.476950e+13	1.112373e+04	4.437591e+03	2.410412e+03	0	1.159083e-03
7.700000e+08	8.338203e+13	0.000000e+00	8.378375e-01	1.084436e+15	1.202254e+15	7.441632e+13	1.110451e+04	4.433861e+03	2.408386e+03	0	1.154959e-03
7.800000e+08	8.249724e+13	0.000000e+00	8.378375e-01	1.076154e+15	1.193321e+15	7.406560e+13	1.108544e+04	4.430155e+03	2.406373e+03	0	1.150859e-03
7.900000e+08	8.162388e+13	0.000000e+00	8.378375e-01	1.067976e+15	1.184498e+15	7.371732e+13	1.106652e+04	4.426473e+03	2.404373e+03	0	1.146783e-03
8.000000e+08	8.076173e+13	0.000000e+00	8.378375e-01	1.059899e+15	1.175782e+15	7.337145e+13	1.104773e+04	4.422815e+03	2.402386e+03	0	1.142731e-03
8.100000e+08	7.991062e+13	0.000000e+00	8.378375e-01	1.051922e+15	1.167173e+15	7.302798e+13	1.102910e+04	4.419181e+03	2.400412e+03	0	1.138703e-03
8.200000e+08	7.907034e+13	0.000000e+00	8.378375e-01	1.044044e+15	1.158668e+15	7.268688e+13	1.101060e+04	4.415570e+03	2.398451e+03	0	1.134698e-03
8.300000e+08	7.824071e+13	0.000000e+00	8.378375e-01	1.036263e+15	1.150265e+15	7.234814e+13	1.099223e+04	4.411982e+03	2.396502e+03	0	1.130715e-03
8.400000e+08	7.742155e+13	0.000000e+00	8.378375e-01	1.028576e+15	1.141963e+15	7.201175e+13	1.097401e+04	4.408416e+03	2.394565e+03	0	1.126755e-03
8.500000e+08	7.661269e+13	0.000000e+00	8.378375e-01	1.020983e+15	1.133760e+15	7.167767e+13	1.095592e+04	4.404873e+03	2.392641e+03	0	1.122817e-03
8.600000e+08	7.581394e+13	0.000000e+00	8.378375e-01	1.013482e+15	1.125654e+15	7.134590e+13	1.093796e+04	4.401353e+03	2.390728e+03	0	1.118902e-03
8.700000e+08	7.502515e+13	0.000000e+00	8.378375e-01	1.006072e+15	1.117645e+15	7.101641e+13	1.092014e+04	4.397854e+03	2.388828e+03	0	1.115008e-03
8.800000e+08	7.424613e+13	0.000000e+00	8.378375e-01	9.987504e+14	1.109729e+15	7.068919e+13	1.090244e+04	4.394377e+03	2.386939e+03	0	1.111135e-03
8.900000e+08	7.347673e+13	0.000000e+00	8.378375e-01	9.915162e+14	1.101907e+15	7.036421e+13	1.088488e+04	4.390922e+03	2.385063e+03	0	1.107284e-03
9.000000e+08	7.271678e+13	0.000000e+00	8.378375e-01	9.843681e+14	1.094175e+15	7.004147e+13	1.086744e+04	4.387488e+03	2.383197e+03	0	1.103453e-03
9.100000e+08	7.196614e+13	0.000000e+00	8.378375e-01	9.773046e+14	1.086534e+15	6.972094e+13	1.085012e+04	4.384075e+03	2.381344e+03	0	1.099643e-03
9.200000e+08	7.122465e+13	0.000000e+00	8.378375e-01	9.703243e+14	1.078980e+15	6.940260e+13	1.083293e+04	4.380683e+03	2.379501e+03	0	1.095853e-03
9.300000e+08	7.049215e+13	0.000000e+00	8.378375e-01	9.634259e+14	1.071514e+15	6.908644e+13	1.081587e+04	4.377312e+03	2.377670e+03	0	1.092083e-03
9.400000e+08	6.976851e+13	0.000000e+00	8.378375e-01	9.566081e+14	1.064133e+15	6.877244e+13	1.079892e+04	4.373961e+03	2.375850e+03	0	1.088334e-03
9.500000e+08	6.905357e+13	0.000000e+00	8.378375e-01	9.498696e+14	1.056836e+15	6.846059e+13	1.078209e+04	4.370631e+03	2.374041e+03	0	1.084603e-03
9.600000e+08	6.834720e+13	0.000000e+00	8.378375e-01	9.432091e+14	1.049622e+15	6.815086e+13	1.076538e+04	4.367320e+03	2.372242e+03	0	1.080892e-03
9.700000e+08	6.764925e+13	0.000000e+00	8.378375e-01	9.366253e+14	1.042490e+15	6.784324e+13	1.074879e+04	4.364029e+03	2.370455e+03	0	1.077201e-03
9.800000e+08	6.695960e+13	0.000000e+00	8.378375e-01	9.301172e+14	1.035438e+15	6.753771e+13	1.073232e+04	4.360758e+03	2.368678e+03	0	1.073528e-03
9.900000e+08	6.627811e+13	0.000000e+00	8.378375e-01	9.236833e+14	1.028465e+15	6.723426e+13	1.071595e+04	4.357506e+03	2.366912e+03	0	1.069873e-03
1.000000e+09	6.560464e+13	0.000000e+00	8.378375e-01	9.173227e+14	1.021570e+15	6.693287e+13	1.069970e+04	4.354273e+03	2.365156e+03	0	1.066237e-03
1.010000e+09	6.493908e+13	0.000000e+00	8.378375e-01	9.110341e+14	1.014752e+15	6.663353e+13	1.068357e+04	4.351060e+03	2.363410e+03	0	1.062619e-03
1.020000e+09	6.428130e+13	0.000000e+00	8.378375e-01	9.048165e+14	1.008009e+15	6.633621e+13	1.066754e+04	4.347865e+03	2.361675e+03	0	1.059019e-03
1.030000e+09	6.363117e+13	0.000000e+00	8.378375e-01	8.986687e+14	1.001340e+15	6.604090e+13	1.065162e+04	4.344689e+03	2.359949e+03	0	1.055437e-03
1.040000e+09	6.298857e+13	0.000000e+00	8.378375e-01	8.925896e+14	9.947441e+14	6.574759e+13	1.063581e+04	4.341531e+03	2.358234e+03	0	1.051872e-03
1.050000e+09	6.235339e+13	0.000000e+00	8.378375e-01	8.865782e+14	9.882205e+14	6.545627e+13	1.062011e+04	4.338391e+03	2.356529e+03	0	1.048324e-03
1.060000e+09	6.172552e+13	0.000000e+00	8.378375e-01	8.806335e+14	9.817678e+14	6.516690e+13	1.060451e+04	4.335270e+03	2.354833e+03	0	1.044794e-03
1.070000e+09	6.110483e+13	0.000000e+00	8.378375e-01	8.747545e+14	9.753851e+14	6.487949e+13	1.058902e+04	4.332166e+03	2.353147e+03	0	1.041280e-03
1.080000e+09	6.049122e+13	0.000000e+00	8.378375e-01	8.689400e+14	9.690712e+14	6.459400e+13	1.057363e+04	4.329080e+03	2.351471e+03	0	1.037783e-03
1.090000e+09	5.988458e+13	0.000000e+00	8.378375e-01	8.631893e+14	9.628251e+14	6.431044e+13	1.055834e+04	4.326011e+03	2.349804e+03	0	1.034302e-03
1.100000e+09	5.928481e+13	0.000000e+00	8.378375e-01	8.575012e+14	9.566458e+14	6.402879e+13	1.054315e+04	4.322960e+03	2.348147e+03	0	1.030837e-03
1.110000e+09	5.869179e+13	0.000000e+00	8.378375e-01	8.518750e+14	9.505323e+14	6.374902e+13	1.052807e+04	4.319926e+03	2.346499e+03	0	1.027389e-03
1.120000e+09	5.810543e+13	0.000000e+00	8.378375e-01	8.463095e+14	9.444836e+14	6.347112e+13	1.051308e+04	4.316910e+03	2.344860e+03	0	1.023956e-03
1.130000e+09	5.752562e+13	0.000000e+00	8.378375e-01	8.408040e+14	9.384989e+14	6.319509e+13	1.049819e+04	4.313909e+03	2.343231e+03	0	1.020538e-03
1.140000e+09	5.695227e+13	0.000000e+00	8.378375e-01	8.353576e+14	9.325771e+14	6.292090e+13	1.048339e+04	4.310926e+03	2.341610e+03	0	1.017137e-03
1.150000e+09	5.638528e+13	0.000000e+00	8.378375e-01	8.299693e+14	9.267174e+14	6.264854e+13	1.046869e+04	4.307959e+03	2.339999e+03	0	1.013750e-03
1.160000e+09	5.582456e+13	0.000000e+00	8.378375e-01	8.246383e+14	9.209188e+14	6.237800e+13	1.045409e+04	4.305009e+03	2.338396e+03	0	1.010378e-03
1.170000e+09	5.527000e+13	0.000000e+00	8.378375e-01	8.193639e+14	9.151805e+14	6.210926e+13	1.043958e+04	4.302074e+03	2.336802e+03	0	1.007022e-03
1.180000e+09	5.472153e+13	0.000000e+00	8.378375e-01	8.141451e+14	9.095016e+14	6.184230e+13	1.042516e+04	4.299156e+03	2.335217e+03	0	1.003679e-03
1.190000e+09	5.417905e+13	0.000000e+00	8.378375e-01	8.089811e+14	9.038812e+14	6.157713e+13	1.041084e+04	4.296254e+03	2.333641e+03	0	1.000352e-03
1.200000e+09	5.364247e+13	0.000000e+00	8.378375e-01	8.038712e+14	8.983186e+14	6.131371e+13	1.039660e+04	4.293367e+03	2.332073e+03	0	9.970383e-04
1.210000e+09	5.311170e+13	0.000000e+00	8.378375e-01	7.988146e+14	8.928128e+14	6.105204e+13	1.038246e+04	4.290496e+03	2.330513e+03	0	9.937390e-04
1.220000e+09	5.258667e+13	0.000000e+00	8.378375e-01	7.938105e+14	8.873632e+14	6.079211e+13	1.036840e+04	4.287641e+03	2.328962e+03	0	9.904536e-04
1.230000e+09	5.206728e+13	0.000000e+00	8.378375e-01	7.888582e+14	8.819688e+14	6.053389e+13	1.035443e+04	4.284801e+03	2.327420e+03	0	9.871820e-04
1.240000e+09	5.155347e+13	0.000000e+00	8.378375e-01	7.839568e+14	8.766290e+14	6.027738e+13	1.034055e+04	4.281976e+03	2.325885e+03	0	9.839240e-04
1.250000e+09	5.104513e+13	0.000000e+00	8.378375e-01	7.791058e+14	8.713429e+14	6.002256e+13	1.032675e+04	4.279166e+03	2.324359e+03	0	9.806793e-04
1.260000e+09	5.054220e+13	0.000000e+00	8.378375e-01	7.743044e+14	8.661098e+14	5.976943e+13	1.031304e+04	4.276371e+03	2.322841e+03	0	9.774480e-04
1.270000e+09	5.004461e+13	0.000000e+00	8.378375e-01	7.695518e+14	8.609291e+14	5.951796e+13	1.029942e+04	4.273590e+03	2.321330e+03	0	9.742297e-04
1.280000e+09	4.955226e+13	0.000000e+00	8.378375e-01	7.648475e+14	8.557998e+14	5.926814e+13	1.028587e+04	4.270825e+03	2.319828e+03	0	9.710243e-04
1.290000e+09	4.906510e+13	0.000000e+00	8.378375e-01	7.601907e+14	8.507214e+14	5.901997e+13	1.027241e+04	4.268073e+03	2.318334e+03	0	9.678316e-04
1.300000e+09	4.858304e+13	0.000000e+00	8.378375e-01	7.555807e+14	8.456932e+14	5.877343e+13	1.025903e+04	4.265337e+03	2.316847e+03	0	9.646516e-04
1.310000e+09	4.810601e+13	0.000000e+00	8.378375e-01	7.510170e+14	8.407144e+14	5.852850e+13	1.024574e+04	4.262614e+03	2.315368e+03	0	9.614839e-04
1.320000e+09	4.763395e+13	0.000000e+00	8.378375e-01	7.464989e+14	8.357844e+14	5.828517e+13	1.023252e+04	4.259905e+03	2.313897e+03	0	9.583286e-04
1.330000e+09	4.716678e+13	0.000000e+00	8.378375e-01	7.420257e+14	8.309025e+14	5.804344e+13	1.021938e+04	4.257211e+03	2.312433e+03	0	9.551854e-04
1.340000e+09	4.670443e+13	0.000000e+00	8.378375e-01	7.375968e+14	8.260682e+14	5.780329e+13	1.020632e+04	4.254530e+03	2.310977e+03	0	9.520541e-04
1.350000e+09	4.624685e+13	0.000000e+00	8.378375e-01	7.332117e+14	8.212806e+14	5.756470e+13	1.019334e+04	4.251863e+03	2.309528e+03	0	9.489346e-04
1.360000e+09	4.579395e+13	0.000000e+00	8.378375e-01	7.288697e+14	8.165393e+14	5.732767e+13	1.018044e+04	4.249210e+03	2.308087e+03	0	9.458268e-04
