#t		Qconv[W]	Ri[Rp]		R*[Rp]		Qc[W]		Qm[W]		Qr[W]		Tcmb[K]		Tl[K]		Tup[K]		RiFlag		Bs[T]
0.000000e+00	2.510014e+14	0.000000e+00	8.255034e-01	2.658239e+15	1.970076e+15	1.268262e+14	1.401047e+04	4.765344e+03	2.515671e+03	0	1.678465e-03
1.000000e+07	2.484599e+14	0.000000e+00	8.255034e-01	2.634921e+15	2.111738e+15	1.261235e+14	1.396648e+04	4.825195e+03	2.547266e+03	0	1.672780e-03
2.000000e+07	2.457005e+14	0.000000e+00	8.255034e-01	2.609755e+15	2.226771e+15	1.254261e+14	1.392287e+04	4.872680e+03	2.572334e+03	0	1.666564e-03
3.000000e+07	2.427867e+14	0.000000e+00	8.255034e-01	2.583287e+15	2.317181e+15	1.247338e+14	1.387967e+04	4.909739e+03	2.591898e+03	0	1.659950e-03
4.000000e+07	2.397689e+14	0.000000e+00	8.255034e-01	2.555947e+15	2.385803e+15	1.240468e+14	1.383691e+04	4.938156e+03	2.606900e+03	0	1.653044e-03
5.000000e+07	2.366859e+14	0.000000e+00	8.255034e-01	2.528066e+15	2.435766e+15	1.233648e+14	1.379461e+04	4.959505e+03	2.618170e+03	0	1.645928e-03
6.000000e+07	2.335674e+14	0.000000e+00	8.255034e-01	2.499900e+15	2.470141e+15	1.226879e+14	1.375276e+04	4.975133e+03	2.626420e+03	0	1.638668e-03
7.000000e+07	2.304359e+14	0.000000e+00	8.255034e-01	2.471639e+15	2.491744e+15	1.220161e+14	1.371138e+04	4.986166e+03	2.632245e+03	0	1.631311e-03
8.000000e+07	2.273085e+14	0.000000e+00	8.255034e-01	2.443430e+15	2.503040e+15	1.213493e+14	1.367046e+04	4.993534e+03	2.636134e+03	0	1.623898e-03
9.000000e+07	2.241976e+14	0.000000e+00	8.255034e-01	2.415381e+15	2.506119e+15	1.206874e+14	1.363001e+04	4.997990e+03	2.638487e+03	0	1.616456e-03
1.000000e+08	2.211129e+14	0.000000e+00	8.255034e-01	2.387571e+15	2.502717e+15	1.200305e+14	1.359002e+04	5.000144e+03	2.639624e+03	0	1.609008e-03
1.100000e+08	2.180611e+14	0.000000e+00	8.255034e-01	2.360059e+15	2.494252e+15	1.193784e+14	1.355049e+04	5.000481e+03	2.639802e+03	0	1.601571e-03
1.200000e+08	2.150473e+14	0.000000e+00	8.255034e-01	2.332888e+15	2.481866e+15	1.187311e+14	1.351141e+04	4.999391e+03	2.639226e+03	0	1.594158e-03
1.300000e+08	2.120750e+14	0.000000e+00	8.255034e-01	2.306088e+15	2.466474e+15	1.180887e+14	1.347279e+04	4.997180e+03	2.638059e+03	0	1.586780e-03
1.400000e+08	2.091467e+14	0.000000e+00	8.255034e-01	2.279680e+15	2.448803e+15	1.174510e+14	1.343460e+04	4.994094e+03	2.636430e+03	0	1.579442e-03
1.500000e+08	2.062640e+14	0.000000e+00	8.255034e-01	2.253677e+15	2.429426e+15	1.168180e+14	1.339685e+04	4.990324e+03	2.634440e+03	0	1.572152e-03
1.600000e+08	2.034278e+14	0.000000e+00	8.255034e-01	2.228088e+15	2.408797e+15	1.161897e+14	1.335953e+04	4.986025e+03	2.632170e+03	0	1.564913e-03
1.700000e+08	2.006387e+14	0.000000e+00	8.255034e-01	2.202915e+15	2.387270e+15	1.155660e+14	1.332263e+04	4.981315e+03	2.629684e+03	0	1.557728e-03
1.800000e+08	1.978967e+14	0.000000e+00	8.255034e-01	2.178161e+15	2.365123e+15	1.149469e+14	1.328615e+04	4.976292e+03	2.627032e+03	0	1.550599e-03
1.900000e+08	1.952018e+14	0.000000e+00	8.255034e-01	2.153823e+15	2.342575e+15	1.143324e+14	1.325007e+04	4.971029e+03	2.624254e+03	0	1.543529e-03
2.000000e+08	1.925535e+14	0.000000e+00	8.255034e-01	2.129899e+15	2.319793e+15	1.137224e+14	1.321440e+04	4.965588e+03	2.621381e+03	0	1.536517e-03
2.100000e+08	1.899513e+14	0.000000e+00	8.255034e-01	2.106382e+15	2.296911e+15	1.131169e+14	1.317912e+04	4.960014e+03	2.618439e+03	0	1.529564e-03
2.200000e+08	1.873947e+14	0.000000e+00	8.255034e-01	2.083269e+15	2.274030e+15	1.125158e+14	1.314423e+04	4.954345e+03	2.615446e+03	0	1.522670e-03
2.300000e+08	1.848828e+14	0.000000e+00	8.255034e-01	2.060552e+15	2.251229e+15	1.119192e+14	1.310972e+04	4.948611e+03	2.612419e+03	0	1.515836e-03
2.400000e+08	1.824150e+14	0.000000e+00	8.255034e-01	2.038225e+15	2.228569e+15	1.113269e+14	1.307559e+04	4.942835e+03	2.609370e+03	0	1.509061e-03
2.500000e+08	1.799903e+14	0.000000e+00	8.255034e-01	2.016280e+15	2.206095e+15	1.107390e+14	1.304183e+04	4.937036e+03	2.606308e+03	0	1.502346e-03
2.600000e+08	1.776081e+14	0.000000e+00	8.255034e-01	1.994710e+15	2.183844e+15	1.101553e+14	1.300842e+04	4.931227e+03	2.603242e+03	0	1.495688e-03
2.700000e+08	1.752673e+14	0.000000e+00	8.255034e-01	1.973508e+15	2.161841e+15	1.095760e+14	1.297538e+04	4.925422e+03	2.600177e+03	0	1.489088e-03
2.800000e+08	1.729672e+14	0.000000e+00	8.255034e-01	1.952666e+15	2.140104e+15	1.090008e+14	1.294268e+04	4.919629e+03	2.597119e+03	0	1.482545e-03
2.900000e+08	1.707069e+14	0.000000e+00	8.255034e-01	1.932177e+15	2.118649e+15	1.084299e+14	1.291033e+04	4.913854e+03	2.594070e+03	0	1.476059e-03
3.000000e+08	1.684855e+14	0.000000e+00	8.255034e-01	1.912032e+15	2.097484e+15	1.078631e+14	1.287831e+04	4.908105e+03	2.591035e+03	0	1.469629e-03
3.100000e+08	1.663023e+14	0.000000e+00	8.255034e-01	1.892225e+15	2.076616e+15	1.073004e+14	1.284663e+04	4.902384e+03	2.588015e+03	0	1.463253e-03
3.200000e+08	1.641563e+14	0.000000e+00	8.255034e-01	1.872748e+15	2.056047e+15	1.067419e+14	1.281528e+04	4.896696e+03	2.585013e+03	0	1.456932e-03
3.300000e+08	1.620467e+14	0.000000e+00	8.255034e-01	1.853594e+15	2.035780e+15	1.061874e+14	1.278425e+04	4.891044e+03	2.582029e+03	0	1.450664e-03
3.400000e+08	1.599728e+14	0.000000e+00	8.255034e-01	1.834757e+15	2.015814e+15	1.056369e+14	1.275353e+04	4.885429e+03	2.579064e+03	0	1.444449e-03
3.500000e+08	1.579338e+14	0.000000e+00	8.255034e-01	1.816228e+15	1.996147e+15	1.050905e+14	1.272313e+04	4.879852e+03	2.576120e+03	0	1.438286e-03
3.600000e+08	1.559289e+14	0.000000e+00	8.255034e-01	1.798002e+15	1.976778e+15	1.045479e+14	1.269303e+04	4.874315e+03	2.573198e+03	0	1.432174e-03
3.700000e+08	1.539574e+14	0.000000e+00	8.255034e-01	1.780072e+15	1.957703e+15	1.040094e+14	1.266323e+04	4.868819e+03	2.570296e+03	0	1.426112e-03
3.800000e+08	1.520184e+14	0.000000e+00	8.255034e-01	1.762431e+15	1.938919e+15	1.034747e+14	1.263373e+04	4.863365e+03	2.567416e+03	0	1.420100e-03
3.900000e+08	1.501114e+14	0.000000e+00	8.255034e-01	1.745074e+15	1.920421e+15	1.029438e+14	1.260452e+04	4.857951e+03	2.564559e+03	0	1.414136e-03
4.000000e+08	1.482355e+14	0.000000e+00	8.255034e-01	1.727993e+15	1.902205e+15	1.024169e+14	1.257560e+04	4.852579e+03	2.561723e+03	0	1.408221e-03
4.100000e+08	1.463902e+14	0.000000e+00	8.255034e-01	1.711183e+15	1.884267e+15	1.018937e+14	1.254696e+04	4.847249e+03	2.558909e+03	0	1.402353e-03
4.200000e+08	1.445748e+14	0.000000e+00	8.255034e-01	1.694639e+15	1.866602e+15	1.013743e+14	1.251859e+04	4.841960e+03	2.556117e+03	0	1.396532e-03
4.300000e+08	1.427886e+14	0.000000e+00	8.255034e-01	1.678354e+15	1.849204e+15	1.008586e+14	1.249051e+04	4.836713e+03	2.553347e+03	0	1.390757e-03
4.400000e+08	1.410310e+14	0.000000e+00	8.255034e-01	1.662324e+15	1.832070e+15	1.003466e+14	1.246268e+04	4.831507e+03	2.550598e+03	0	1.385027e-03
4.500000e+08	1.393013e+14	0.000000e+00	8.255034e-01	1.646542e+15	1.815193e+15	9.983833e+13	1.243513e+04	4.826341e+03	2.547872e+03	0	1.379342e-03
4.600000e+08	1.375991e+14	0.000000e+00	8.255034e-01	1.631003e+15	1.798570e+15	9.933369e+13	1.240783e+04	4.821216e+03	2.545166e+03	0	1.373700e-03
4.700000e+08	1.359236e+14	0.000000e+00	8.255034e-01	1.615703e+15	1.782196e+15	9.883268e+13	1.238080e+04	4.816131e+03	2.542482e+03	0	1.368102e-03
4.800000e+08	1.342744e+14	0.000000e+00	8.255034e-01	1.600636e+15	1.766065e+15	9.833525e+13	1.235401e+04	4.811086e+03	2.539818e+03	0	1.362546e-03
4.900000e+08	1.326509e+14	0.000000e+00	8.255034e-01	1.585798e+15	1.750173e+15	9.784138e+13	1.232748e+04	4.806080e+03	2.537175e+03	0	1.357032e-03
5.000000e+08	1.310525e+14	0.000000e+00	8.255034e-01	1.571183e+15	1.734515e+15	9.735105e+13	1.230119e+04	4.801113e+03	2.534553e+03	0	1.351560e-03
5.100000e+08	1.294788e+14	0.000000e+00	8.255034e-01	1.556787e+15	1.719088e+15	9.686421e+13	1.227514e+04	4.796184e+03	2.531951e+03	0	1.346128e-03
5.200000e+08	1.279292e+14	0.000000e+00	8.255034e-01	1.542607e+15	1.703885e+15	9.638086e+13	1.224933e+04	4.791293e+03	2.529369e+03	0	1.340736e-03
5.300000e+08	1.264032e+14	0.000000e+00	8.255034e-01	1.528636e+15	1.688903e+15	9.590095e+13	1.222375e+04	4.786440e+03	2.526807e+03	0	1.335384e-03
5.400000e+08	1.249003e+14	0.000000e+00	8.255034e-01	1.514872e+15	1.674138e+15	9.542445e+13	1.219840e+04	4.781624e+03	2.524265e+03	0	1.330070e-03
5.500000e+08	1.234201e+14	0.000000e+00	8.255034e-01	1.501309e+15	1.659584e+15	9.495135e+13	1.217329e+04	4.776844e+03	2.521741e+03	0	1.324795e-03
5.600000e+08	1.219621e+14	0.000000e+00	8.255034e-01	1.487945e+15	1.645239e+15	9.448161e+13	1.214839e+04	4.772101e+03	2.519237e+03	0	1.319558e-03
5.700000e+08	1.205259e+14	0.000000e+00	8.255034e-01	1.474774e+15	1.631098e+15	9.401521e+13	1.212372e+04	4.767393e+03	2.516752e+03	0	1.314358e-03
5.800000e+08	1.191110e+14	0.000000e+00	8.255034e-01	1.461794e+15	1.617158e+15	9.355212e+13	1.209926e+04	4.762720e+03	2.514285e+03	0	1.309194e-03
5.900000e+08	1.177170e+14	0.000000e+00	8.255034e-01	1.449000e+15	1.603413e+15	9.309230e+13	1.207502e+04	4.758083e+03	2.511837e+03	0	1.304067e-03
6.000000e+08	1.163435e+14	0.000000e+00	8.255034e-01	1.436388e+15	1.589861e+15	9.263575e+13	1.205100e+04	4.753479e+03	2.509407e+03	0	1.298975e-03
6.100000e+08	1.149900e+14	0.000000e+00	8.255034e-01	1.423956e+15	1.576498e+15	9.218242e+13	1.202718e+04	4.748910e+03	2.506995e+03	0	1.293918e-03
6.200000e+08	1.136563e+14	0.000000e+00	8.255034e-01	1.411699e+15	1.563320e+15	9.173230e+13	1.200356e+04	4.744375e+03	2.504600e+03	0	1.288896e-03
6.300000e+08	1.123418e+14	0.000000e+00	8.255034e-01	1.399614e+15	1.550324e+15	9.128535e+13	1.198015e+04	4.739872e+03	2.502224e+03	0	1.283908e-03
6.400000e+08	1.110463e+14	0.000000e+00	8.255034e-01	1.387699e+15	1.537506e+15	9.084156e+13	1.195694e+04	4.735402e+03	2.499864e+03	0	1.278954e-03
6.500000e+08	1.097693e+14	0.000000e+00	8.255034e-01	1.375949e+15	1.524862e+15	9.040089e+13	1.193392e+04	4.730965e+03	2.497521e+03	0	1.274032e-03
6.600000e+08	1.085105e+14	0.000000e+00	8.255034e-01	1.364362e+15	1.512391e+15	8.996332e+13	1.191110e+04	4.726559e+03	2.495196e+03	0	1.269144e-03
6.700000e+08	1.072696e+14	0.000000e+00	8.255034e-01	1.352934e+15	1.500088e+15	8.952883e+13	1.188847e+04	4.722185e+03	2.492887e+03	0	1.264287e-03
6.800000e+08	1.060462e+14	0.000000e+00	8.255034e-01	1.341662e+15	1.487950e+15	8.909739e+13	1.186603e+04	4.717842e+03	2.490594e+03	0	1.259462e-03
6.900000e+08	1.048400e+14	0.000000e+00	8.255034e-01	1.330544e+15	1.475974e+15	8.866898e+13	1.184378e+04	4.713530e+03	2.488317e+03	0	1.254669e-03
7.000000e+08	1.036506e+14	0.000000e+00	8.255034e-01	1.319577e+15	1.464158e+15	8.824357e+13	1.182171e+04	4.709249e+03	2.486057e+03	0	1.249906e-03
7.100000e+08	1.024777e+14	0.000000e+00	8.255034e-01	1.308758e+15	1.452498e+15	8.782114e+13	1.179982e+04	4.704997e+03	2.483813e+03	0	1.245174e-03
7.200000e+08	1.013211e+14	0.000000e+00	8.255034e-01	1.298084e+15	1.440991e+15	8.740166e+13	1.177811e+04	4.700775e+03	2.481584e+03	0	1.240471e-03
7.300000e+08	1.001804e+14	0.000000e+00	8.255034e-01	1.287552e+15	1.429635e+15	8.698512e+13	1.175658e+04	4.696582e+03	2.479370e+03	0	1.235799e-03
7.400000e+08	9.905534e+13	0.000000e+00	8.255034e-01	1.277160e+15	1.418427e+15	8.657148e+13	1.173522e+04	4.692419e+03	2.477172e+03	0	1.231155e-03
7.500000e+08	9.794561e+13	0.000000e+00	8.255034e-01	1.266906e+15	1.407364e+15	8.616073e+13	1.171404e+04	4.688283e+03	2.474989e+03	0	1.226540e-03
7.600000e+08	9.685095e+13	0.000000e+00	8.255034e-01	1.256786e+15	1.396444e+15	8.575283e+13	1.169302e+04	4.684177e+03	2.472821e+03	0	1.221954e-03
7.700000e+08	9.577106e+13	0.000000e+00	8.255034e-01	1.246799e+15	1.385664e+15	8.534778e+13	1.167217e+04	4.680098e+03	2.470668e+03	0	1.217395e-03
7.800000e+08	9.470570e+13	0.000000e+00	8.255034e-01	1.236941e+15	1.375022e+15	8.494554e+13	1.165149e+04	4.676046e+03	2.468529e+03	0	1.212864e-03
7.900000e+08	9.365459e+13	0.000000e+00	8.255034e-01	1.227212e+15	1.364515e+15	8.454609e+13	1.163097e+04	4.672022e+03	2.466405e+03	0	1.208360e-03
8.000000e+08	9.261747e+13	0.000000e+00	8.255034e-01	1.217608e+15	1.354141e+15	8.414942e+13	1.161061e+04	4.668025e+03	2.464295e+03	0	1.203883e-03
8.100000e+08	9.159410e+13	0.000000e+00	8.255034e-01	1.208127e+15	1.343897e+15	8.375549e+13	1.159041e+04	4.664055e+03	2.462199e+03	0	1.199433e-03
8.200000e+08	9.058424e+13	0.000000e+00	8.255034e-01	1.198767e+15	1.333782e+15	8.336429e+13	1.157036e+04	4.660111e+03	2.460117e+03	0	1.195008e-03
8.300000e+08	8.958763e+13	0.000000e+00	8.255034e-01	1.189526e+15	1.323792e+15	8.297580e+13	1.155047e+04	4.656193e+03	2.458049e+03	0	1.190610e-03
8.400000e+08	8.860405e+13	0.000000e+00	8.255034e-01	1.180402e+15	1.313927e+15	8.258998e+13	1.153074e+04	4.652301e+03	2.455994e+03	0	1.186237e-03
8.500000e+08	8.763327e+13	0.000000e+00	8.255034e-01	1.171392e+15	1.304184e+15	8.220683e+13	1.151115e+04	4.648434e+03	2.453953e+03	0	1.181888e-03
8.600000e+08	8.667506e+13	0.000000e+00	8.255034e-01	1.162496e+15	1.294560e+15	8.182632e+13	1.149172e+04	4.644593e+03	2.451925e+03	0	1.177565e-03
8.700000e+08	8.572921e+13	0.000000e+00	8.255034e-01	1.153710e+15	1.285053e+15	8.144843e+13	1.147243e+04	4.640776e+03	2.449910e+03	0	1.173266e-03
8.800000e+08	8.479549e+13	0.000000e+00	8.255034e-01	1.145034e+15	1.275663e+15	8.107314e+13	1.145328e+04	4.636984e+03	2.447908e+03	0	1.168991e-03
8.900000e+08	8.387371e+13	0.000000e+00	8.255034e-01	1.136465e+15	1.266386e+15	8.070043e+13	1.143428e+04	4.633216e+03	2.445919e+03	0	1.164739e-03
9.000000e+08	8.296365e+13	0.000000e+00	8.255034e-01	1.128001e+15	1.257221e+15	8.033028e+13	1.141543e+04	4.629473e+03	2.443943e+03	0	1.160511e-03
9.100000e+08	8.206512e+13	0.000000e+00	8.255034e-01	1.119640e+15	1.248166e+15	7.996266e+13	1.139671e+04	4.625753e+03	2.441979e+03	0	1.156307e-03
9.200000e+08	8.117791e+13	0.000000e+00	8.255034e-01	1.111382e+15	1.239219e+15	7.959756e+13	1.137813e+04	4.622057e+03	2.440028e+03	0	1.152124e-03
9.300000e+08	8.030184e+13	0.000000e+00	8.255034e-01	1.103223e+15	1.230378e+15	7.923496e+13	1.135969e+04	4.618383e+03	2.438089e+03	0	1.147965e-03
9.400000e+08	7.943672e+13	0.000000e+00	8.255034e-01	1.095163e+15	1.221643e+15	7.887483e+13	1.134138e+04	4.614733e+03	2.436162e+03	0	1.143828e-03
9.500000e+08	7.858236e+13	0.000000e+00	8.255034e-01	1.087200e+15	1.213009e+15	7.851717e+13	1.132321e+04	4.611106e+03	2.434247e+03	0	1.139712e-03
9.600000e+08	7.773858e+13	0.000000e+00	8.255034e-01	1.079332e+15	1.204478e+15	7.816194e+13	1.130516e+04	4.607501e+03	2.432344e+03	0	1.135618e-03
9.700000e+08	7.690521e+13	0.000000e+00	8.255034e-01	1.071557e+15	1.196045e+15	7.780914e+13	1.128725e+04	4.603919e+03	2.430453e+03	0	1.131546e-03
9.800000e+08	7.608208e+13	0.000000e+00	8.255034e-01	1.063875e+15	1.187711e+15	7.745873e+13	1.126947e+04	4.600359e+03	2.428573e+03	0	1.127494e-03
9.900000e+08	7.526901e+13	0.000000e+00	8.255034e-01	1.056283e+15	1.179473e+15	7.711070e+13	1.125181e+04	4.596820e+03	2.426705e+03	0	1.123463e-03
1.000000e+09	7.446583e+13	0.000000e+00	8.255034e-01	1.048781e+15	1.171330e+15	7.676504e+13	1.123428e+04	4.593303e+03	2.424848e+03	0	1.119453e-03
1.010000e+09	7.367240e+13	0.000000e+00	8.255034e-01	1.041366e+15	1.163280e+15	7.642172e+13	1.121688e+04	4.589807e+03	2.423003e+03	0	1.115463e-03
1.020000e+09	7.288854e+13	0.000000e+00	8.255034e-01	1.034037e+15	1.155322e+15	7.608073e+13	1.119959e+04	4.586333e+03	2.421169e+03	0	1.111493e-03
1.030000e+09	7.211411e+13	0.000000e+00	8.255034e-01	1.026794e+15	1.147455e+15	7.574205e+13	1.118243e+04	4.582879e+03	2.419346e+03	0	1.107542e-03
1.040000e+09	7.134895e+13	0.000000e+00	8.255034e-01	1.019634e+15	1.139676e+15	7.540565e+13	1.116539e+04	4.579446e+03	2.417533e+03	0	1.103611e-03
1.050000e+09	7.059290e+13	0.000000e+00	8.255034e-01	1.012556e+15	1.131985e+15	7.507153e+13	1.114847e+04	4.576034e+03	2.415732e+03	0	1.099699e-03
1.060000e+09	6.984584e+13	0.000000e+00	8.255034e-01	1.005559e+15	1.124381e+15	7.473966e+13	1.113166e+04	4.572642e+03	2.413941e+03	0	1.095806e-03
1.070000e+09	6.910760e+13	0.000000e+00	8.255034e-01	9.986418e+14	1.116861e+15	7.441002e+13	1.111497e+04	4.569269e+03	2.412161e+03	0	1.091931e-03
1.080000e+09	6.837805e+13	0.000000e+00	8.255034e-01	9.918030e+14	1.109425e+15	7.408260e+13	1.109839e+04	4.565917e+03	2.410391e+03	0	1.088075e-03
1.090000e+09	6.765706e+13	0.000000e+00	8.255034e-01	9.850415e+14	1.102071e+15	7.375739e+13	1.108193e+04	4.562584e+03	2.408632e+03	0	1.084238e-03
1.100000e+09	6.694448e+13	0.000000e+00	8.255034e-01	9.783559e+14	1.094798e+15	7.343435e+13	1.106558e+04	4.559271e+03	2.406883e+03	0	1.080418e-03
1.110000e+09	6.624019e+13	0.000000e+00	8.255034e-01	9.717451e+14	1.087605e+15	7.311349e+13	1.104934e+04	4.555977e+03	2.405144e+03	0	1.076616e-03
1.120000e+09	6.554406e+13	0.000000e+00	8.255034e-01	9.652080e+14	1.080490e+15	7.279477e+13	1.103321e+04	4.552702e+03	2.403415e+03	0	1.072831e-03
1.130000e+09	6.485595e+13	0.000000e+00	8.255034e-01	9.587435e+14	1.073453e+15	7.247819e+13	1.101719e+04	4.549446e+03	2.401696e+03	0	1.069063e-03
1.140000e+09	6.417575e+13	0.000000e+00	8.255034e-01	9.523504e+14	1.066492e+15	7.216372e+13	1.100127e+04	4.546209e+03	2.399987e+03	0	1.065313e-03
1.150000e+09	6.350333e+13	0.000000e+00	8.255034e-01	9.460276e+14	1.059607e+15	7.185136e+13	1.098547e+04	4.542990e+03	2.398288e+03	0	1.061579e-03
1.160000e+09	6.283858e+13	0.000000e+00	8.255034e-01	9.397741e+14	1.052795e+15	7.154107e+13	1.096976e+04	4.539789e+03	2.396598e+03	0	1.057862e-03
1.170000e+09	6.218137e+13	0.000000e+00	8.255034e-01	9.335888e+14	1.046056e+15	7.123286e+13	1.095416e+04	4.536607e+03	2.394918e+03	0	1.054161e-03
1.180000e+09	6.153158e+13	0.000000e+00	8.255034e-01	9.274707e+14	1.039389e+15	7.092669e+13	1.093866e+04	4.533442e+03	2.393247e+03	0	1.050476e-03
1.190000e+09	6.088912e+13	0.000000e+00	8.255034e-01	9.214189e+14	1.032792e+15	7.062256e+13	1.092327e+04	4.530295e+03	2.391586e+03	0	1.046807e-03
1.200000e+09	6.025386e+13	0.000000e+00	8.255034e-01	9.154322e+14	1.026265e+15	7.032045e+13	1.090797e+04	4.527166e+03	2.389934e+03	0	1.043154e-03
1.210000e+09	5.962570e+13	0.000000e+00	8.255034e-01	9.095098e+14	1.019807e+15	7.002034e+13	1.089277e+04	4.524054e+03	2.388291e+03	0	1.039516e-03
1.220000e+09	5.900452e+13	0.000000e+00	8.255034e-01	9.036507e+14	1.013417e+15	6.972222e+13	1.087767e+04	4.520960e+03	2.386658e+03	0	1.035894e-03
1.230000e+09	5.839024e+13	0.000000e+00	8.255034e-01	8.978540e+14	1.007093e+15	6.942607e+13	1.086267e+04	4.517882e+03	2.385033e+03	0	1.032286e-03
1.240000e+09	5.778274e+13	0.000000e+00	8.255034e-01	8.921187e+14	1.000835e+15	6.913188e+13	1.084776e+04	4.514822e+03	2.383417e+03	0	1.028694e-03
1.250000e+09	5.718191e+13	0.000000e+00	8.255034e-01	8.864440e+14	9.946420e+14	6.883963e+13	1.083295e+04	4.511778e+03	2.381811e+03	0	1.025116e-03
1.260000e+09	5.658768e+13	0.000000e+00	8.255034e-01	8.808289e+14	9.885126e+14	6.854931e+13	1.081824e+04	4.508751e+03	2.380213e+03	0	1.021553e-03
1.270000e+09	5.599993e+13	0.000000e+00	8.255034e-01	8.752726e+14	9.824462e+14	6.826090e+13	1.080361e+04	4.505740e+03	2.378623e+03	0	1.018003e-03
1.280000e+09	5.541856e+13	0.000000e+00	8.255034e-01	8.697743e+14	9.764418e+14	6.797439e+13	1.078908e+04	4.502746e+03	2.377042e+03	0	1.014468e-03
1.290000e+09	5.484350e+13	0.000000e+00	8.255034e-01	8.643331e+14	9.704986e+14	6.768977e+13	1.077464e+04	4.499768e+03	2.375470e+03	0	1.010947e-03
1.300000e+09	5.427465e+13	0.000000e+00	8.255034e-01	8.589483e+14	9.646157e+14	6.740700e+13	1.076029e+04	4.496805e+03	2.373906e+03	0	1.007440e-03
1.310000e+09	5.371190e+13	0.000000e+00	8.255034e-01	8.536189e+14	9.587922e+14	6.712610e+13	1.074603e+04	4.493859e+03	2.372351e+03	0	1.003946e-03
1.320000e+09	5.315519e+13	0.000000e+00	8.255034e-01	8.483442e+14	9.530273e+14	6.684703e+13	1.073185e+04	4.490928e+03	2.370804e+03	0	1.000465e-03
1.330000e+09	5.260442e+13	0.000000e+00	8.255034e-01	8.431235e+14	9.473203e+14	6.656979e+13	1.071777e+04	4.488013e+03	2.369265e+03	0	9.969978e-04
1.340000e+09	5.205950e+13	0.000000e+00	8.255034e-01	8.379559e+14	9.416702e+14	6.629436e+13	1.070377e+04	4.485113e+03	2.367734e+03	0	9.935433e-04
1.350000e+09	5.152035e+13	0.000000e+00	8.255034e-01	8.328408e+14	9.360764e+14	6.602073e+13	1.068985e+04	4.482229e+03	2.366211e+03	0	9.901015e-04
1.360000e+09	5.098690e+13	0.000000e+00	8.255034e-01	8.277774e+14	9.305380e+14	6.574888e+13	1.067603e+04	4.479359e+03	2.364696e+03	0	9.866724e-04
