#t		Qconv[W]	Ri[Rp]		R*[Rp]		Qc[W]		Qm[W]		Qr[W]		Tcmb[K]		Tl[K]		Tup[K]		RiFlag		Bs[T]
0.000000e+00	2.552693e+14	0.000000e+00	8.255033e-01	2.841265e+15	1.993318e+15	1.438634e+14	1.478151e+04	4.951248e+03	2.579165e+03	0	1.682096e-03
1.000000e+07	2.533919e+14	0.000000e+00	8.255033e-01	2.823931e+15	2.149598e+15	1.430663e+14	1.474327e+04	5.016546e+03	2.613180e+03	0	1.677962e-03
2.000000e+07	2.512365e+14	0.000000e+00	8.255033e-01	2.804329e+15	2.282278e+15	1.422752e+14	1.470527e+04	5.070139e+03	2.641097e+03	0	1.673191e-03
3.000000e+07	2.488670e+14	0.000000e+00	8.255033e-01	2.782982e+15	2.391988e+15	1.414899e+14	1.466752e+04	5.113549e+03	2.663710e+03	0	1.667914e-03
4.000000e+07	2.463362e+14	0.000000e+00	8.255033e-01	2.760329e+15	2.480378e+15	1.407106e+14	1.463006e+04	5.148249e+03	2.681786e+03	0	1.662241e-03
5.000000e+07	2.436876e+14	0.000000e+00	8.255033e-01	2.736723e+15	2.549673e+15	1.399370e+14	1.459291e+04	5.175602e+03	2.696034e+03	0	1.656262e-03
6.000000e+07	2.409558e+14	0.000000e+00	8.255033e-01	2.712451e+15	2.602328e+15	1.391692e+14	1.455607e+04	5.196827e+03	2.707091e+03	0	1.650050e-03
7.000000e+07	2.381684e+14	0.000000e+00	8.255033e-01	2.687740e+15	2.640784e+15	1.384071e+14	1.451956e+04	5.212987e+03	2.715508e+03	0	1.643662e-03
8.000000e+07	2.353471e+14	0.000000e+00	8.255033e-01	2.662767e+15	2.667328e+15	1.376507e+14	1.448338e+04	5.224989e+03	2.721761e+03	0	1.637146e-03
9.000000e+07	2.325090e+14	0.000000e+00	8.255033e-01	2.637673e+15	2.684010e+15	1.368999e+14	1.444754e+04	5.233598e+03	2.726245e+03	0	1.630539e-03
1.000000e+08	2.296673e+14	0.000000e+00	8.255033e-01	2.612567e+15	2.692616e+15	1.361547e+14	1.441203e+04	5.239449e+03	2.729293e+03	0	1.623869e-03
1.100000e+08	2.268324e+14	0.000000e+00	8.255033e-01	2.587534e+15	2.694670e+15	1.354150e+14	1.437686e+04	5.243068e+03	2.731178e+03	0	1.617160e-03
1.200000e+08	2.240122e+14	0.000000e+00	8.255033e-01	2.562638e+15	2.691450e+15	1.346808e+14	1.434202e+04	5.244884e+03	2.732124e+03	0	1.610430e-03
1.300000e+08	2.212129e+14	0.000000e+00	8.255033e-01	2.537930e+15	2.684015e+15	1.339521e+14	1.430752e+04	5.245248e+03	2.732314e+03	0	1.603693e-03
1.400000e+08	2.184390e+14	0.000000e+00	8.255033e-01	2.513448e+15	2.673236e+15	1.332287e+14	1.427335e+04	5.244445e+03	2.731895e+03	0	1.596962e-03
1.500000e+08	2.156940e+14	0.000000e+00	8.255033e-01	2.489220e+15	2.659822e+15	1.325107e+14	1.423951e+04	5.242706e+03	2.730990e+03	0	1.590244e-03
1.600000e+08	2.129806e+14	0.000000e+00	8.255033e-01	2.465266e+15	2.644351e+15	1.317980e+14	1.420600e+04	5.240219e+03	2.729694e+03	0	1.583548e-03
1.700000e+08	2.103005e+14	0.000000e+00	8.255033e-01	2.441603e+15	2.627287e+15	1.310905e+14	1.417280e+04	5.237133e+03	2.728086e+03	0	1.576878e-03
1.800000e+08	2.076553e+14	0.000000e+00	8.255033e-01	2.418242e+15	2.609006e+15	1.303883e+14	1.413993e+04	5.233571e+03	2.726231e+03	0	1.570238e-03
1.900000e+08	2.050456e+14	0.000000e+00	8.255033e-01	2.395188e+15	2.589810e+15	1.296912e+14	1.410736e+04	5.229632e+03	2.724179e+03	0	1.563633e-03
2.000000e+08	2.024722e+14	0.000000e+00	8.255033e-01	2.372447e+15	2.569940e+15	1.289993e+14	1.407511e+04	5.225394e+03	2.721971e+03	0	1.557063e-03
2.100000e+08	1.999352e+14	0.000000e+00	8.255033e-01	2.350020e+15	2.549591e+15	1.283124e+14	1.404316e+04	5.220921e+03	2.719641e+03	0	1.550533e-03
2.200000e+08	1.974347e+14	0.000000e+00	8.255033e-01	2.327908e+15	2.528917e+15	1.276306e+14	1.401152e+04	5.216266e+03	2.717217e+03	0	1.544042e-03
2.300000e+08	1.949706e+14	0.000000e+00	8.255033e-01	2.306110e+15	2.508041e+15	1.269538e+14	1.398017e+04	5.211470e+03	2.714718e+03	0	1.537591e-03
2.400000e+08	1.925428e+14	0.000000e+00	8.255033e-01	2.284624e+15	2.487062e+15	1.262820e+14	1.394911e+04	5.206567e+03	2.712164e+03	0	1.531183e-03
2.500000e+08	1.901509e+14	0.000000e+00	8.255033e-01	2.263448e+15	2.466058e+15	1.256151e+14	1.391834e+04	5.201584e+03	2.709569e+03	0	1.524816e-03
2.600000e+08	1.877945e+14	0.000000e+00	8.255033e-01	2.242576e+15	2.445091e+15	1.249530e+14	1.388786e+04	5.196544e+03	2.706943e+03	0	1.518491e-03
2.700000e+08	1.854731e+14	0.000000e+00	8.255033e-01	2.222007e+15	2.424210e+15	1.242958e+14	1.385765e+04	5.191463e+03	2.704296e+03	0	1.512208e-03
2.800000e+08	1.831863e+14	0.000000e+00	8.255033e-01	2.201735e+15	2.403453e+15	1.236434e+14	1.382772e+04	5.186357e+03	2.701636e+03	0	1.505967e-03
2.900000e+08	1.809336e+14	0.000000e+00	8.255033e-01	2.181756e+15	2.382850e+15	1.229958e+14	1.379807e+04	5.181236e+03	2.698969e+03	0	1.499769e-03
3.000000e+08	1.787144e+14	0.000000e+00	8.255033e-01	2.162066e+15	2.362425e+15	1.223529e+14	1.376868e+04	5.176111e+03	2.696300e+03	0	1.493612e-03
3.100000e+08	1.765281e+14	0.000000e+00	8.255033e-01	2.142659e+15	2.342196e+15	1.217146e+14	1.373956e+04	5.170989e+03	2.693631e+03	0	1.487496e-03
3.200000e+08	1.743742e+14	0.000000e+00	8.255033e-01	2.123531e+15	2.322175e+15	1.210810e+14	1.371070e+04	5.165876e+03	2.690968e+03	0	1.481422e-03
3.300000e+08	1.722522e+14	0.000000e+00	8.255033e-01	2.104677e+15	2.302373e+15	1.204521e+14	1.368209e+04	5.160778e+03	2.688312e+03	0	1.475388e-03
3.400000e+08	1.701614e+14	0.000000e+00	8.255033e-01	2.086093e+15	2.282798e+15	1.198276e+14	1.365374e+04	5.155697e+03	2.685665e+03	0	1.469394e-03
3.500000e+08	1.681013e+14	0.000000e+00	8.255033e-01	2.067772e+15	2.263454e+15	1.192078e+14	1.362564e+04	5.150637e+03	2.683030e+03	0	1.463440e-03
3.600000e+08	1.660713e+14	0.000000e+00	8.255033e-01	2.049712e+15	2.244345e+15	1.185924e+14	1.359778e+04	5.145601e+03	2.680406e+03	0	1.457525e-03
3.700000e+08	1.640709e+14	0.000000e+00	8.255033e-01	2.031906e+15	2.225472e+15	1.179814e+14	1.357017e+04	5.140590e+03	2.677796e+03	0	1.451649e-03
3.800000e+08	1.620994e+14	0.000000e+00	8.255033e-01	2.014350e+15	2.206836e+15	1.173749e+14	1.354280e+04	5.135607e+03	2.675200e+03	0	1.445812e-03
3.900000e+08	1.601565e+14	0.000000e+00	8.255033e-01	1.997040e+15	2.188437e+15	1.167728e+14	1.351566e+04	5.130652e+03	2.672619e+03	0	1.440012e-03
4.000000e+08	1.582415e+14	0.000000e+00	8.255033e-01	1.979971e+15	2.170273e+15	1.161750e+14	1.348875e+04	5.125727e+03	2.670054e+03	0	1.434249e-03
4.100000e+08	1.563540e+14	0.000000e+00	8.255033e-01	1.963138e+15	2.152344e+15	1.155815e+14	1.346208e+04	5.120832e+03	2.667504e+03	0	1.428524e-03
4.200000e+08	1.544933e+14	0.000000e+00	8.255033e-01	1.946538e+15	2.134646e+15	1.149924e+14	1.343563e+04	5.115967e+03	2.664970e+03	0	1.422835e-03
4.300000e+08	1.526591e+14	0.000000e+00	8.255033e-01	1.930165e+15	2.117179e+15	1.144074e+14	1.340940e+04	5.111133e+03	2.662452e+03	0	1.417181e-03
4.400000e+08	1.508507e+14	0.000000e+00	8.255033e-01	1.914016e+15	2.099938e+15	1.138267e+14	1.338339e+04	5.106330e+03	2.659950e+03	0	1.411563e-03
4.500000e+08	1.490678e+14	0.000000e+00	8.255033e-01	1.898087e+15	2.082921e+15	1.132501e+14	1.335760e+04	5.101559e+03	2.657464e+03	0	1.405980e-03
4.600000e+08	1.473099e+14	0.000000e+00	8.255033e-01	1.882373e+15	2.066125e+15	1.126777e+14	1.333203e+04	5.096819e+03	2.654995e+03	0	1.400431e-03
4.700000e+08	1.455764e+14	0.000000e+00	8.255033e-01	1.866871e+15	2.049547e+15	1.121093e+14	1.330666e+04	5.092110e+03	2.652542e+03	0	1.394917e-03
4.800000e+08	1.438670e+14	0.000000e+00	8.255033e-01	1.851576e+15	2.033184e+15	1.115451e+14	1.328150e+04	5.087433e+03	2.650106e+03	0	1.389435e-03
4.900000e+08	1.421812e+14	0.000000e+00	8.255033e-01	1.836486e+15	2.017032e+15	1.109849e+14	1.325655e+04	5.082786e+03	2.647685e+03	0	1.383987e-03
5.000000e+08	1.405185e+14	0.000000e+00	8.255033e-01	1.821595e+15	2.001089e+15	1.104287e+14	1.323181e+04	5.078171e+03	2.645281e+03	0	1.378571e-03
5.100000e+08	1.388786e+14	0.000000e+00	8.255033e-01	1.806902e+15	1.985350e+15	1.098764e+14	1.320726e+04	5.073586e+03	2.642893e+03	0	1.373187e-03
5.200000e+08	1.372610e+14	0.000000e+00	8.255033e-01	1.792401e+15	1.969812e+15	1.093282e+14	1.318291e+04	5.069032e+03	2.640520e+03	0	1.367835e-03
5.300000e+08	1.356653e+14	0.000000e+00	8.255033e-01	1.778090e+15	1.954473e+15	1.087838e+14	1.315875e+04	5.064507e+03	2.638164e+03	0	1.362514e-03
5.400000e+08	1.340912e+14	0.000000e+00	8.255033e-01	1.763966e+15	1.939329e+15	1.082433e+14	1.313479e+04	5.060013e+03	2.635823e+03	0	1.357223e-03
5.500000e+08	1.325381e+14	0.000000e+00	8.255033e-01	1.750024e+15	1.924376e+15	1.077066e+14	1.311102e+04	5.055549e+03	2.633497e+03	0	1.351963e-03
5.600000e+08	1.310059e+14	0.000000e+00	8.255033e-01	1.736263e+15	1.909612e+15	1.071738e+14	1.308743e+04	5.051114e+03	2.631187e+03	0	1.346733e-03
5.700000e+08	1.294940e+14	0.000000e+00	8.255033e-01	1.722677e+15	1.895033e+15	1.066447e+14	1.306403e+04	5.046709e+03	2.628892e+03	0	1.341532e-03
5.800000e+08	1.280021e+14	0.000000e+00	8.255033e-01	1.709265e+15	1.880637e+15	1.061194e+14	1.304081e+04	5.042332e+03	2.626612e+03	0	1.336360e-03
5.900000e+08	1.265299e+14	0.000000e+00	8.255033e-01	1.696024e+15	1.866420e+15	1.055978e+14	1.301777e+04	5.037984e+03	2.624347e+03	0	1.331217e-03
6.000000e+08	1.250771e+14	0.000000e+00	8.255033e-01	1.682950e+15	1.852379e+15	1.050800e+14	1.299491e+04	5.033664e+03	2.622097e+03	0	1.326103e-03
6.100000e+08	1.236432e+14	0.000000e+00	8.255033e-01	1.670041e+15	1.838511e+15	1.045657e+14	1.297223e+04	5.029372e+03	2.619861e+03	0	1.321016e-03
6.200000e+08	1.222279e+14	0.000000e+00	8.255033e-01	1.657294e+15	1.824814e+15	1.040551e+14	1.294972e+04	5.025108e+03	2.617640e+03	0	1.315956e-03
6.300000e+08	1.208310e+14	0.000000e+00	8.255033e-01	1.644705e+15	1.811284e+15	1.035482e+14	1.292738e+04	5.020871e+03	2.615433e+03	0	1.310924e-03
6.400000e+08	1.194521e+14	0.000000e+00	8.255033e-01	1.632273e+15	1.797920e+15	1.030447e+14	1.290521e+04	5.016662e+03	2.613240e+03	0	1.305918e-03
6.500000e+08	1.180909e+14	0.000000e+00	8.255033e-01	1.619994e+15	1.784717e+15	1.025449e+14	1.288321e+04	5.012479e+03	2.611062e+03	0	1.300938e-03
6.600000e+08	1.167471e+14	0.000000e+00	8.255033e-01	1.607867e+15	1.771673e+15	1.020485e+14	1.286137e+04	5.008323e+03	2.608897e+03	0	1.295985e-03
6.700000e+08	1.154204e+14	0.000000e+00	8.255033e-01	1.595888e+15	1.758787e+15	1.015557e+14	1.283970e+04	5.004194e+03	2.606745e+03	0	1.291057e-03
6.800000e+08	1.141104e+14	0.000000e+00	8.255033e-01	1.584054e+15	1.746054e+15	1.010663e+14	1.281819e+04	5.000090e+03	2.604608e+03	0	1.286154e-03
6.900000e+08	1.128170e+14	0.000000e+00	8.255033e-01	1.572365e+15	1.733473e+15	1.005803e+14	1.279683e+04	4.996012e+03	2.602484e+03	0	1.281276e-03
7.000000e+08	1.115399e+14	0.000000e+00	8.255033e-01	1.560816e+15	1.721042e+15	1.000978e+14	1.277563e+04	4.991960e+03	2.600373e+03	0	1.276423e-03
7.100000e+08	1.102787e+14	0.000000e+00	8.255033e-01	1.549407e+15	1.708757e+15	9.961858e+13	1.275459e+04	4.987932e+03	2.598275e+03	0	1.271594e-03
7.200000e+08	1.090332e+14	0.000000e+00	8.255033e-01	1.538134e+15	1.696616e+15	9.914275e+13	1.273371e+04	4.983930e+03	2.596190e+03	0	1.266789e-03
7.300000e+08	1.078031e+14	0.000000e+00	8.255033e-01	1.526995e+15	1.684617e+15	9.867025e+13	1.271297e+04	4.979953e+03	2.594118e+03	0	1.262007e-03
7.400000e+08	1.065883e+14	0.000000e+00	8.255033e-01	1.515989e+15	1.672759e+15	9.820104e+13	1.269238e+04	4.975999e+03	2.592059e+03	0	1.257248e-03
7.500000e+08	1.053883e+14	0.000000e+00	8.255033e-01	1.505112e+15	1.661037e+15	9.773511e+13	1.267194e+04	4.972071e+03	2.590012e+03	0	1.252512e-03
7.600000e+08	1.042030e+14	0.000000e+00	8.255033e-01	1.494363e+15	1.649451e+15	9.727242e+13	1.265165e+04	4.968165e+03	2.587978e+03	0	1.247799e-03
7.700000e+08	1.030322e+14	0.000000e+00	8.255033e-01	1.483740e+15	1.637998e+15	9.681296e+13	1.263150e+04	4.964284e+03	2.585956e+03	0	1.243108e-03
7.800000e+08	1.018756e+14	0.000000e+00	8.255033e-01	1.473241e+15	1.626677e+15	9.635668e+13	1.261150e+04	4.960426e+03	2.583946e+03	0	1.238439e-03
7.900000e+08	1.007330e+14	0.000000e+00	8.255033e-01	1.462863e+15	1.615484e+15	9.590358e+13	1.259164e+04	4.956591e+03	2.581949e+03	0	1.233792e-03
8.000000e+08	9.960410e+13	0.000000e+00	8.255033e-01	1.452606e+15	1.604418e+15	9.545361e+13	1.257191e+04	4.952779e+03	2.579963e+03	0	1.229165e-03
8.100000e+08	9.848875e+13	0.000000e+00	8.255033e-01	1.442466e+15	1.593477e+15	9.500677e+13	1.255233e+04	4.948990e+03	2.577989e+03	0	1.224560e-03
8.200000e+08	9.738671e+13	0.000000e+00	8.255033e-01	1.432443e+15	1.582659e+15	9.456302e+13	1.253288e+04	4.945224e+03	2.576027e+03	0	1.219975e-03
8.300000e+08	9.629776e+13	0.000000e+00	8.255033e-01	1.422533e+15	1.571963e+15	9.412233e+13	1.251356e+04	4.941479e+03	2.574077e+03	0	1.215411e-03
8.400000e+08	9.522171e+13	0.000000e+00	8.255033e-01	1.412737e+15	1.561385e+15	9.368469e+13	1.249438e+04	4.937757e+03	2.572138e+03	0	1.210867e-03
8.500000e+08	9.415835e+13	0.000000e+00	8.255033e-01	1.403051e+15	1.550925e+15	9.325007e+13	1.247533e+04	4.934056e+03	2.570210e+03	0	1.206343e-03
8.600000e+08	9.310747e+13	0.000000e+00	8.255033e-01	1.393474e+15	1.540581e+15	9.281845e+13	1.245641e+04	4.930377e+03	2.568294e+03	0	1.201838e-03
8.700000e+08	9.206888e+13	0.000000e+00	8.255033e-01	1.384004e+15	1.530351e+15	9.238979e+13	1.243762e+04	4.926719e+03	2.566388e+03	0	1.197353e-03
8.800000e+08	9.104239e+13	0.000000e+00	8.255033e-01	1.374640e+15	1.520233e+15	9.196409e+13	1.241896e+04	4.923083e+03	2.564494e+03	0	1.192886e-03
8.900000e+08	9.002781e+13	0.000000e+00	8.255033e-01	1.365380e+15	1.510225e+15	9.154131e+13	1.240042e+04	4.919467e+03	2.562610e+03	0	1.188439e-03
9.000000e+08	8.902495e+13	0.000000e+00	8.255033e-01	1.356223e+15	1.500326e+15	9.112143e+13	1.238201e+04	4.915872e+03	2.560738e+03	0	1.184009e-03
9.100000e+08	8.803363e+13	0.000000e+00	8.255033e-01	1.347166e+15	1.490534e+15	9.070443e+13	1.236372e+04	4.912298e+03	2.558876e+03	0	1.179598e-03
9.200000e+08	8.705368e+13	0.000000e+00	8.255033e-01	1.338209e+15	1.480848e+15	9.029028e+13	1.234555e+04	4.908744e+03	2.557024e+03	0	1.175205e-03
9.300000e+08	8.608492e+13	0.000000e+00	8.255033e-01	1.329350e+15	1.471265e+15	8.987897e+13	1.232751e+04	4.905210e+03	2.555184e+03	0	1.170829e-03
9.400000e+08	8.512718e+13	0.000000e+00	8.255033e-01	1.320587e+15	1.461785e+15	8.947047e+13	1.230958e+04	4.901696e+03	2.553353e+03	0	1.166471e-03
9.500000e+08	8.418028e+13	0.000000e+00	8.255033e-01	1.311919e+15	1.452406e+15	8.906476e+13	1.229177e+04	4.898201e+03	2.551533e+03	0	1.162130e-03
9.600000e+08	8.324408e+13	0.000000e+00	8.255033e-01	1.303345e+15	1.443127e+15	8.866181e+13	1.227408e+04	4.894727e+03	2.549723e+03	0	1.157806e-03
9.700000e+08	8.231840e+13	0.000000e+00	8.255033e-01	1.294862e+15	1.433945e+15	8.826161e+13	1.225650e+04	4.891271e+03	2.547923e+03	0	1.153498e-03
9.800000e+08	8.140308e+13	0.000000e+00	8.255033e-01	1.286471e+15	1.424861e+15	8.786413e+13	1.223904e+04	4.887835e+03	2.546133e+03	0	1.149207e-03
9.900000e+08	8.049798e+13	0.000000e+00	8.255033e-01	1.278169e+15	1.415871e+15	8.746935e+13	1.222169e+04	4.884417e+03	2.544353e+03	0	1.144932e-03
1.000000e+09	7.960294e+13	0.000000e+00	8.255033e-01	1.269955e+15	1.406975e+15	8.707726e+13	1.220445e+04	4.881019e+03	2.542582e+03	0	1.140672e-03
1.010000e+09	7.871780e+13	0.000000e+00	8.255033e-01	1.261829e+15	1.398171e+15	8.668782e+13	1.218732e+04	4.877639e+03	2.540822e+03	0	1.136429e-03
1.020000e+09	7.784243e+13	0.000000e+00	8.255033e-01	1.253787e+15	1.389459e+15	8.630102e+13	1.217030e+04	4.874277e+03	2.539071e+03	0	1.132200e-03
1.030000e+09	7.697668e+13	0.000000e+00	8.255033e-01	1.245831e+15	1.380836e+15	8.591684e+13	1.215339e+04	4.870934e+03	2.537329e+03	0	1.127987e-03
1.040000e+09	7.612040e+13	0.000000e+00	8.255033e-01	1.237957e+15	1.372302e+15	8.553525e+13	1.213659e+04	4.867609e+03	2.535597e+03	0	1.123789e-03
1.050000e+09	7.527346e+13	0.000000e+00	8.255033e-01	1.230165e+15	1.363856e+15	8.515624e+13	1.211989e+04	4.864302e+03	2.533874e+03	0	1.119606e-03
1.060000e+09	7.443572e+13	0.000000e+00	8.255033e-01	1.222454e+15	1.355495e+15	8.477979e+13	1.210330e+04	4.861012e+03	2.532161e+03	0	1.115437e-03
1.070000e+09	7.360705e+13	0.000000e+00	8.255033e-01	1.214823e+15	1.347219e+15	8.440587e+13	1.208681e+04	4.857741e+03	2.530456e+03	0	1.111282e-03
1.080000e+09	7.278732e+13	0.000000e+00	8.255033e-01	1.207270e+15	1.339027e+15	8.403447e+13	1.207042e+04	4.854486e+03	2.528761e+03	0	1.107141e-03
1.090000e+09	7.197639e+13	0.000000e+00	8.255033e-01	1.199795e+15	1.330917e+15	8.366557e+13	1.205414e+04	4.851249e+03	2.527075e+03	0	1.103015e-03
1.100000e+09	7.117414e+13	0.000000e+00	8.255033e-01	1.192396e+15	1.322889e+15	8.329914e+13	1.203796e+04	4.848029e+03	2.525397e+03	0	1.098901e-03
1.110000e+09	7.038045e+13	0.000000e+00	8.255033e-01	1.185072e+15	1.314941e+15	8.293518e+13	1.202187e+04	4.844826e+03	2.523729e+03	0	1.094801e-03
1.120000e+09	6.959520e+13	0.000000e+00	8.255033e-01	1.177822e+15	1.307072e+15	8.257364e+13	1.200589e+04	4.841639e+03	2.522069e+03	0	1.090714e-03
1.130000e+09	6.881826e+13	0.000000e+00	8.255033e-01	1.170645e+15	1.299281e+15	8.221453e+13	1.199000e+04	4.838470e+03	2.520418e+03	0	1.086640e-03
1.140000e+09	6.804952e+13	0.000000e+00	8.255033e-01	1.163541e+15	1.291567e+15	8.185782e+13	1.197421e+04	4.835317e+03	2.518775e+03	0	1.082579e-03
1.150000e+09	6.728885e+13	0.000000e+00	8.255033e-01	1.156508e+15	1.283928e+15	8.150349e+13	1.195851e+04	4.832180e+03	2.517141e+03	0	1.078530e-03
1.160000e+09	6.653616e+13	0.000000e+00	8.255033e-01	1.149544e+15	1.276365e+15	8.115153e+13	1.194291e+04	4.829059e+03	2.515516e+03	0	1.074493e-03
1.170000e+09	6.579132e+13	0.000000e+00	8.255033e-01	1.142650e+15	1.268876e+15	8.080191e+13	1.192740e+04	4.825955e+03	2.513899e+03	0	1.070469e-03
1.180000e+09	6.505423e+13	0.000000e+00	8.255033e-01	1.135825e+15	1.261459e+15	8.045461e+13	1.191199e+04	4.822866e+03	2.512290e+03	0	1.066456e-03
1.190000e+09	6.432477e+13	0.000000e+00	8.255033e-01	1.129066e+15	1.254114e+15	8.010963e+13	1.189667e+04	4.819793e+03	2.510689e+03	0	1.062455e-03
1.200000e+09	6.360285e+13	0.000000e+00	8.255033e-01	1.122374e+15	1.246840e+15	7.976693e+13	1.188144e+04	4.816736e+03	2.509096e+03	0	1.058466e-03
1.210000e+09	6.288836e+13	0.000000e+00	8.255033e-01	1.115747e+15	1.239637e+15	7.942651e+13	1.186630e+04	4.813694e+03	2.507512e+03	0	1.054487e-03
1.220000e+09	6.218119e+13	0.000000e+00	8.255033e-01	1.109186e+15	1.232502e+15	7.908834e+13	1.185124e+04	4.810668e+03	2.505935e+03	0	1.050520e-03
1.230000e+09	6.148125e+13	0.000000e+00	8.255033e-01	1.102687e+15	1.225435e+15	7.875241e+13	1.183628e+04	4.807656e+03	2.504367e+03	0	1.046563e-03
1.240000e+09	6.078844e+13	0.000000e+00	8.255033e-01	1.096252e+15	1.218436e+15	7.841870e+13	1.182140e+04	4.804660e+03	2.502806e+03	0	1.042617e-03
1.250000e+09	6.010265e+13	0.000000e+00	8.255033e-01	1.089879e+15	1.211503e+15	7.808719e+13	1.180661e+04	4.801679e+03	2.501253e+03	0	1.038682e-03
1.260000e+09	5.942380e+13	0.000000e+00	8.255033e-01	1.083567e+15	1.204635e+15	7.775787e+13	1.179191e+04	4.798713e+03	2.499708e+03	0	1.034756e-03
1.270000e+09	5.875179e+13	0.000000e+00	8.255033e-01	1.077315e+15	1.197832e+15	7.743072e+13	1.177729e+04	4.795761e+03	2.498171e+03	0	1.030841e-03
1.280000e+09	5.808654e+13	0.000000e+00	8.255033e-01	1.071123e+15	1.191093e+15	7.710572e+13	1.176276e+04	4.792824e+03	2.496641e+03	0	1.026935e-03
1.290000e+09	5.742793e+13	0.000000e+00	8.255033e-01	1.064990e+15	1.184417e+15	7.678286e+13	1.174831e+04	4.789902e+03	2.495118e+03	0	1.023039e-03
1.300000e+09	5.677590e+13	0.000000e+00	8.255033e-01	1.058915e+15	1.177802e+15	7.646211e+13	1.173394e+04	4.786994e+03	2.493603e+03	0	1.019153e-03
1.310000e+09	5.613035e+13	0.000000e+00	8.255033e-01	1.052897e+15	1.171250e+15	7.614347e+13	1.171965e+04	4.784100e+03	2.492096e+03	0	1.015275e-03
1.320000e+09	5.549120e+13	0.000000e+00	8.255033e-01	1.046936e+15	1.164758e+15	7.582691e+13	1.170545e+04	4.781220e+03	2.490596e+03	0	1.011407e-03
1.330000e+09	5.485835e+13	0.000000e+00	8.255033e-01	1.041030e+15	1.158325e+15	7.551243e+13	1.169132e+04	4.778354e+03	2.489103e+03	0	1.007547e-03
1.340000e+09	5.423174e+13	0.000000e+00	8.255033e-01	1.035180e+15	1.151952e+15	7.520000e+13	1.167727e+04	4.775502e+03	2.487617e+03	0	1.003696e-03
1.350000e+09	5.361127e+13	0.000000e+00	8.255033e-01	1.029384e+15	1.145637e+15	7.488961e+13	1.166331e+04	4.772663e+03	2.486138e+03	0	9.998540e-04
1.360000e+09	5.299686e+13	0.000000e+00	8.255033e-01	1.023642e+15	1.139379e+15	7.458124e+13	1.164942e+04	4.769839e+03	2.484667e+03	0	9.960197e-04
