#t		Qconv[W]	Ri[Rp]		R*[Rp]		Qc[W]		Qm[W]		Qr[W]		Tcmb[K]		Tl[K]		Tup[K]		RiFlag		Bs[T]
0.000000e+00	3.291738e+13	0.000000e+00	8.367349e-01	1.773489e+15	1.626162e+15	1.750331e+14	1.446391e+04	4.949829e+03	2.708946e+03	0	8.384637e-04
1.000000e+07	3.253129e+13	0.000000e+00	8.367349e-01	1.768980e+15	1.660863e+15	1.740633e+14	1.444956e+04	4.967375e+03	2.718549e+03	0	8.351727e-04
2.000000e+07	3.209435e+13	0.000000e+00	8.367349e-01	1.764078e+15	1.691295e+15	1.731007e+14	1.443523e+04	4.982720e+03	2.726947e+03	0	8.314167e-04
3.000000e+07	3.161303e+13	0.000000e+00	8.367349e-01	1.758836e+15	1.717757e+15	1.721454e+14	1.442095e+04	4.996080e+03	2.734259e+03	0	8.272395e-04
4.000000e+07	3.109315e+13	0.000000e+00	8.367349e-01	1.753299e+15	1.740560e+15	1.711971e+14	1.440671e+04	5.007656e+03	2.740594e+03	0	8.226797e-04
5.000000e+07	3.053993e+13	0.000000e+00	8.367349e-01	1.747507e+15	1.760015e+15	1.702560e+14	1.439252e+04	5.017635e+03	2.746056e+03	0	8.177713e-04
6.000000e+07	2.995803e+13	0.000000e+00	8.367349e-01	1.741496e+15	1.776425e+15	1.693218e+14	1.437837e+04	5.026187e+03	2.750736e+03	0	8.125441e-04
7.000000e+07	2.935159e+13	0.000000e+00	8.367349e-01	1.735300e+15	1.790084e+15	1.683946e+14	1.436427e+04	5.033468e+03	2.754721e+03	0	8.070239e-04
8.000000e+07	2.872429e+13	0.000000e+00	8.367349e-01	1.728947e+15	1.801265e+15	1.674743e+14	1.435022e+04	5.039619e+03	2.758087e+03	0	8.012332e-04
9.000000e+07	2.807937e+13	0.000000e+00	8.367349e-01	1.722462e+15	1.810227e+15	1.665609e+14	1.433622e+04	5.044767e+03	2.760904e+03	0	7.951913e-04
1.000000e+08	2.741969e+13	0.000000e+00	8.367349e-01	1.715868e+15	1.817208e+15	1.656542e+14	1.432228e+04	5.049026e+03	2.763235e+03	0	7.889147e-04
1.100000e+08	2.674779e+13	0.000000e+00	8.367349e-01	1.709185e+15	1.822426e+15	1.647543e+14	1.430838e+04	5.052500e+03	2.765136e+03	0	7.824174e-04
1.200000e+08	2.606587e+13	0.000000e+00	8.367349e-01	1.702429e+15	1.826081e+15	1.638610e+14	1.429454e+04	5.055278e+03	2.766657e+03	0	7.757110e-04
1.300000e+08	2.537588e+13	0.000000e+00	8.367349e-01	1.695616e+15	1.828352e+15	1.629744e+14	1.428076e+04	5.057443e+03	2.767842e+03	0	7.688050e-04
1.400000e+08	2.467951e+13	0.000000e+00	8.367349e-01	1.688760e+15	1.829403e+15	1.620943e+14	1.426703e+04	5.059067e+03	2.768731e+03	0	7.617072e-04
1.500000e+08	2.397827e+13	0.000000e+00	8.367349e-01	1.681871e+15	1.829379e+15	1.612207e+14	1.425336e+04	5.060215e+03	2.769359e+03	0	7.544234e-04
1.600000e+08	2.327344e+13	0.000000e+00	8.367349e-01	1.674960e+15	1.828410e+15	1.603536e+14	1.423974e+04	5.060943e+03	2.769757e+03	0	7.469578e-04
1.700000e+08	2.256616e+13	0.000000e+00	8.367349e-01	1.668036e+15	1.826613e+15	1.594928e+14	1.422618e+04	5.061302e+03	2.769953e+03	0	7.393132e-04
1.800000e+08	2.185743e+13	0.000000e+00	8.367349e-01	1.661107e+15	1.824090e+15	1.586384e+14	1.421267e+04	5.061336e+03	2.769972e+03	0	7.314908e-04
1.900000e+08	2.114810e+13	0.000000e+00	8.367349e-01	1.654179e+15	1.820935e+15	1.577903e+14	1.419922e+04	5.061084e+03	2.769834e+03	0	7.234907e-04
2.000000e+08	2.043891e+13	0.000000e+00	8.367349e-01	1.647257e+15	1.817227e+15	1.569485e+14	1.418583e+04	5.060582e+03	2.769560e+03	0	7.153114e-04
2.100000e+08	1.973053e+13	0.000000e+00	8.367349e-01	1.640348e+15	1.813040e+15	1.561128e+14	1.417249e+04	5.059860e+03	2.769164e+03	0	7.069501e-04
2.200000e+08	1.902351e+13	0.000000e+00	8.367349e-01	1.633456e+15	1.808435e+15	1.552833e+14	1.415921e+04	5.058944e+03	2.768663e+03	0	6.984030e-04
2.300000e+08	1.831834e+13	0.000000e+00	8.367349e-01	1.626583e+15	1.803470e+15	1.544598e+14	1.414598e+04	5.057860e+03	2.768070e+03	0	6.896646e-04
2.400000e+08	1.761544e+13	0.000000e+00	8.367349e-01	1.619735e+15	1.798194e+15	1.536424e+14	1.413281e+04	5.056627e+03	2.767395e+03	0	6.807281e-04
2.500000e+08	1.691517e+13	0.000000e+00	8.367349e-01	1.612912e+15	1.792649e+15	1.528310e+14	1.411970e+04	5.055264e+03	2.766649e+03	0	6.715856e-04
2.600000e+08	1.621785e+13	0.000000e+00	8.367349e-01	1.606118e+15	1.786875e+15	1.520255e+14	1.410664e+04	5.053787e+03	2.765841e+03	0	6.622271e-04
2.700000e+08	1.552374e+13	0.000000e+00	8.367349e-01	1.599355e+15	1.780904e+15	1.512260e+14	1.409363e+04	5.052212e+03	2.764979e+03	0	6.526415e-04
2.800000e+08	1.483307e+13	0.000000e+00	8.367349e-01	1.592624e+15	1.774766e+15	1.504322e+14	1.408068e+04	5.050549e+03	2.764069e+03	0	6.428153e-04
2.900000e+08	1.414604e+13	0.000000e+00	8.367349e-01	1.585928e+15	1.768488e+15	1.496442e+14	1.406779e+04	5.048811e+03	2.763118e+03	0	6.327334e-04
3.000000e+08	1.346280e+13	0.000000e+00	8.367349e-01	1.579266e+15	1.762092e+15	1.488620e+14	1.405494e+04	5.047008e+03	2.762131e+03	0	6.223781e-04
3.100000e+08	1.278350e+13	0.000000e+00	8.367349e-01	1.572641e+15	1.755598e+15	1.480855e+14	1.404216e+04	5.045147e+03	2.761112e+03	0	6.117291e-04
3.200000e+08	1.210826e+13	0.000000e+00	8.367349e-01	1.566053e+15	1.749023e+15	1.473147e+14	1.402942e+04	5.043236e+03	2.760067e+03	0	6.007629e-04
3.300000e+08	1.143717e+13	0.000000e+00	8.367349e-01	1.559503e+15	1.742382e+15	1.465494e+14	1.401674e+04	5.041283e+03	2.758998e+03	0	5.894523e-04
3.400000e+08	1.077030e+13	0.000000e+00	8.367349e-01	1.552991e+15	1.735691e+15	1.457897e+14	1.400411e+04	5.039293e+03	2.757908e+03	0	5.777658e-04
3.500000e+08	1.010773e+13	0.000000e+00	8.367349e-01	1.546518e+15	1.728959e+15	1.450355e+14	1.399154e+04	5.037271e+03	2.756802e+03	0	5.656665e-04
3.600000e+08	9.449504e+12	0.000000e+00	8.367349e-01	1.540085e+15	1.722197e+15	1.442868e+14	1.397901e+04	5.035221e+03	2.755680e+03	0	5.531109e-04
3.700000e+08	8.795658e+12	0.000000e+00	8.367349e-01	1.533691e+15	1.715415e+15	1.435435e+14	1.396654e+04	5.033149e+03	2.754546e+03	0	5.400475e-04
3.800000e+08	8.146223e+12	0.000000e+00	8.367349e-01	1.527337e+15	1.708621e+15	1.428056e+14	1.395412e+04	5.031057e+03	2.753401e+03	0	5.264146e-04
3.900000e+08	7.501218e+12	0.000000e+00	8.367349e-01	1.521022e+15	1.701820e+15	1.420730e+14	1.394176e+04	5.028948e+03	2.752247e+03	0	5.121374e-04
4.000000e+08	6.860658e+12	0.000000e+00	8.367349e-01	1.514748e+15	1.695020e+15	1.413457e+14	1.392944e+04	5.026826e+03	2.751085e+03	0	4.971237e-04
4.100000e+08	6.224546e+12	0.000000e+00	8.367349e-01	1.508513e+15	1.688226e+15	1.406236e+14	1.391717e+04	5.024692e+03	2.749918e+03	0	4.812585e-04
4.200000e+08	5.592884e+12	0.000000e+00	8.367349e-01	1.502319e+15	1.681442e+15	1.399068e+14	1.390496e+04	5.022549e+03	2.748745e+03	0	4.643953e-04
4.300000e+08	4.965665e+12	0.000000e+00	8.367349e-01	1.496164e+15	1.674672e+15	1.391951e+14	1.389279e+04	5.020399e+03	2.747568e+03	0	4.463426e-04
4.400000e+08	4.342882e+12	0.000000e+00	8.367349e-01	1.490049e+15	1.667920e+15	1.384885e+14	1.388067e+04	5.018243e+03	2.746388e+03	0	4.268434e-04
4.500000e+08	3.724520e+12	0.000000e+00	8.367349e-01	1.483973e+15	1.661188e+15	1.377870e+14	1.386861e+04	5.016084e+03	2.745206e+03	0	4.055390e-04
4.600000e+08	3.110563e+12	0.000000e+00	8.367349e-01	1.477937e+15	1.654480e+15	1.370906e+14	1.385659e+04	5.013921e+03	2.744023e+03	0	3.819052e-04
4.700000e+08	2.500993e+12	0.000000e+00	8.367349e-01	1.471940e+15	1.647798e+15	1.363991e+14	1.384462e+04	5.011757e+03	2.742839e+03	0	3.551240e-04
4.800000e+08	1.895786e+12	0.000000e+00	8.367349e-01	1.465983e+15	1.641143e+15	1.357126e+14	1.383270e+04	5.009592e+03	2.741654e+03	0	3.237966e-04
4.900000e+08	1.294920e+12	0.000000e+00	8.367349e-01	1.460064e+15	1.634518e+15	1.350311e+14	1.382083e+04	5.007428e+03	2.740469e+03	0	2.851610e-04
5.000000e+08	6.983692e+11	0.000000e+00	8.367349e-01	1.454183e+15	1.627923e+15	1.343543e+14	1.380901e+04	5.005264e+03	2.739285e+03	0	2.321155e-04
5.100000e+08	1.061061e+11	0.000000e+00	8.367349e-01	1.448341e+15	1.621361e+15	1.336825e+14	1.379723e+04	5.003102e+03	2.738102e+03	0	1.238576e-04
5.200000e+08	-4.818974e+11	0.000000e+00	8.367349e-01	1.442537e+15	1.614831e+15	1.330154e+14	1.378550e+04	5.000943e+03	2.736920e+03	0	nan
