#t		Qconv[W]	Ri[Rp]		R*[Rp]		Qc[W]		Qm[W]		Qr[W]		Tcmb[K]		Tl[K]		Tup[K]		RiFlag		Bs[T]
0.000000e+00	2.031647e+14	0.000000e+00	8.231297e-01	3.859807e+15	2.015689e+15	2.071837e+14	1.787017e+04	5.510324e+03	2.763182e+03	0	1.549046e-03
1.000000e+07	2.040405e+14	0.000000e+00	8.231297e-01	3.863006e+15	2.252684e+15	2.060357e+14	1.784247e+04	5.608140e+03	2.812232e+03	0	1.551269e-03
2.000000e+07	2.043719e+14	0.000000e+00	8.231297e-01	3.862004e+15	2.476262e+15	2.048964e+14	1.781474e+04	5.694362e+03	2.855469e+03	0	1.552108e-03
3.000000e+07	2.042244e+14	0.000000e+00	8.231297e-01	3.857310e+15	2.682481e+15	2.037655e+14	1.778702e+04	5.769560e+03	2.893178e+03	0	1.551735e-03
4.000000e+07	2.036625e+14	0.000000e+00	8.231297e-01	3.849423e+15	2.868811e+15	2.026431e+14	1.775934e+04	5.834498e+03	2.925741e+03	0	1.550310e-03
5.000000e+07	2.027469e+14	0.000000e+00	8.231297e-01	3.838817e+15	3.034026e+15	2.015291e+14	1.773171e+04	5.890057e+03	2.953601e+03	0	1.547983e-03
6.000000e+07	2.015334e+14	0.000000e+00	8.231297e-01	3.825923e+15	3.177983e+15	2.004233e+14	1.770415e+04	5.937179e+03	2.977231e+03	0	1.544889e-03
7.000000e+07	2.000717e+14	0.000000e+00	8.231297e-01	3.811126e+15	3.301374e+15	1.993258e+14	1.767669e+04	5.976810e+03	2.997104e+03	0	1.541145e-03
8.000000e+07	1.984053e+14	0.000000e+00	8.231297e-01	3.794764e+15	3.405468e+15	1.982365e+14	1.764933e+04	6.009870e+03	3.013682e+03	0	1.536854e-03
9.000000e+07	1.965719e+14	0.000000e+00	8.231297e-01	3.777130e+15	3.491891e+15	1.971553e+14	1.762209e+04	6.037216e+03	3.027395e+03	0	1.532106e-03
1.000000e+08	1.946035e+14	0.000000e+00	8.231297e-01	3.758470e+15	3.562440e+15	1.960821e+14	1.759498e+04	6.059638e+03	3.038638e+03	0	1.526975e-03
1.100000e+08	1.925274e+14	0.000000e+00	8.231297e-01	3.738997e+15	3.618956e+15	1.950168e+14	1.756800e+04	6.077841e+03	3.047767e+03	0	1.521525e-03
1.200000e+08	1.903663e+14	0.000000e+00	8.231297e-01	3.718887e+15	3.663221e+15	1.939595e+14	1.754116e+04	6.092453e+03	3.055094e+03	0	1.515811e-03
1.300000e+08	1.881394e+14	0.000000e+00	8.231297e-01	3.698287e+15	3.696906e+15	1.929099e+14	1.751447e+04	6.104020e+03	3.060894e+03	0	1.509877e-03
1.400000e+08	1.858625e+14	0.000000e+00	8.231297e-01	3.677321e+15	3.721531e+15	1.918682e+14	1.748792e+04	6.113015e+03	3.065405e+03	0	1.503761e-03
1.500000e+08	1.835488e+14	0.000000e+00	8.231297e-01	3.656090e+15	3.738455e+15	1.908341e+14	1.746152e+04	6.119846e+03	3.068830e+03	0	1.497495e-03
1.600000e+08	1.812091e+14	0.000000e+00	8.231297e-01	3.634678e+15	3.748872e+15	1.898077e+14	1.743528e+04	6.124858e+03	3.071344e+03	0	1.491105e-03
1.700000e+08	1.788524e+14	0.000000e+00	8.231297e-01	3.613154e+15	3.753822e+15	1.887889e+14	1.740919e+04	6.128348e+03	3.073093e+03	0	1.484613e-03
1.800000e+08	1.764860e+14	0.000000e+00	8.231297e-01	3.591577e+15	3.754197e+15	1.877776e+14	1.738325e+04	6.130562e+03	3.074204e+03	0	1.478036e-03
1.900000e+08	1.741161e+14	0.000000e+00	8.231297e-01	3.569991e+15	3.750763e+15	1.867737e+14	1.735747e+04	6.131713e+03	3.074781e+03	0	1.471390e-03
2.000000e+08	1.717475e+14	0.000000e+00	8.231297e-01	3.548435e+15	3.744168e+15	1.857772e+14	1.733184e+04	6.131975e+03	3.074912e+03	0	1.464688e-03
2.100000e+08	1.693843e+14	0.000000e+00	8.231297e-01	3.526941e+15	3.734959e+15	1.847880e+14	1.730636e+04	6.131498e+03	3.074673e+03	0	1.457939e-03
2.200000e+08	1.670298e+14	0.000000e+00	8.231297e-01	3.505534e+15	3.723599e+15	1.838061e+14	1.728104e+04	6.130404e+03	3.074125e+03	0	1.451152e-03
2.300000e+08	1.646868e+14	0.000000e+00	8.231297e-01	3.484235e+15	3.710476e+15	1.828314e+14	1.725588e+04	6.128799e+03	3.073320e+03	0	1.444335e-03
2.400000e+08	1.623572e+14	0.000000e+00	8.231297e-01	3.463059e+15	3.695913e+15	1.818639e+14	1.723086e+04	6.126769e+03	3.072302e+03	0	1.437492e-03
2.500000e+08	1.600429e+14	0.000000e+00	8.231297e-01	3.442021e+15	3.680183e+15	1.809034e+14	1.720600e+04	6.124387e+03	3.071107e+03	0	1.430629e-03
2.600000e+08	1.577452e+14	0.000000e+00	8.231297e-01	3.421130e+15	3.663512e+15	1.799500e+14	1.718129e+04	6.121713e+03	3.069766e+03	0	1.423750e-03
2.700000e+08	1.554653e+14	0.000000e+00	8.231297e-01	3.400395e+15	3.646089e+15	1.790036e+14	1.715673e+04	6.118797e+03	3.068304e+03	0	1.416857e-03
2.800000e+08	1.532040e+14	0.000000e+00	8.231297e-01	3.379823e+15	3.628071e+15	1.780640e+14	1.713232e+04	6.115683e+03	3.066743e+03	0	1.409954e-03
2.900000e+08	1.509620e+14	0.000000e+00	8.231297e-01	3.359418e+15	3.609589e+15	1.771313e+14	1.710805e+04	6.112406e+03	3.065099e+03	0	1.403042e-03
3.000000e+08	1.487397e+14	0.000000e+00	8.231297e-01	3.339185e+15	3.590750e+15	1.762054e+14	1.708393e+04	6.108995e+03	3.063389e+03	0	1.396124e-03
3.100000e+08	1.465375e+14	0.000000e+00	8.231297e-01	3.319125e+15	3.571647e+15	1.752863e+14	1.705996e+04	6.105475e+03	3.061624e+03	0	1.389199e-03
3.200000e+08	1.443557e+14	0.000000e+00	8.231297e-01	3.299241e+15	3.552353e+15	1.743738e+14	1.703613e+04	6.101866e+03	3.059814e+03	0	1.382270e-03
3.300000e+08	1.421945e+14	0.000000e+00	8.231297e-01	3.279533e+15	3.532932e+15	1.734680e+14	1.701244e+04	6.098187e+03	3.057969e+03	0	1.375337e-03
3.400000e+08	1.400538e+14	0.000000e+00	8.231297e-01	3.260003e+15	3.513433e+15	1.725687e+14	1.698889e+04	6.094450e+03	3.056095e+03	0	1.368401e-03
3.500000e+08	1.379339e+14	0.000000e+00	8.231297e-01	3.240650e+15	3.493901e+15	1.716760e+14	1.696548e+04	6.090669e+03	3.054199e+03	0	1.361461e-03
3.600000e+08	1.358345e+14	0.000000e+00	8.231297e-01	3.221474e+15	3.474370e+15	1.707898e+14	1.694221e+04	6.086854e+03	3.052286e+03	0	1.354519e-03
3.700000e+08	1.337557e+14	0.000000e+00	8.231297e-01	3.202474e+15	3.454869e+15	1.699099e+14	1.691908e+04	6.083012e+03	3.050360e+03	0	1.347573e-03
3.800000e+08	1.316974e+14	0.000000e+00	8.231297e-01	3.183649e+15	3.435422e+15	1.690365e+14	1.689609e+04	6.079151e+03	3.048424e+03	0	1.340625e-03
3.900000e+08	1.296594e+14	0.000000e+00	8.231297e-01	3.164999e+15	3.416050e+15	1.681693e+14	1.687323e+04	6.075278e+03	3.046481e+03	0	1.333674e-03
4.000000e+08	1.276417e+14	0.000000e+00	8.231297e-01	3.146521e+15	3.396768e+15	1.673084e+14	1.685050e+04	6.071396e+03	3.044535e+03	0	1.326719e-03
4.100000e+08	1.256439e+14	0.000000e+00	8.231297e-01	3.128215e+15	3.377589e+15	1.664538e+14	1.682791e+04	6.067511e+03	3.042586e+03	0	1.319761e-03
4.200000e+08	1.236661e+14	0.000000e+00	8.231297e-01	3.110079e+15	3.358524e+15	1.656052e+14	1.680545e+04	6.063625e+03	3.040638e+03	0	1.312800e-03
4.300000e+08	1.217079e+14	0.000000e+00	8.231297e-01	3.092111e+15	3.339582e+15	1.647628e+14	1.678311e+04	6.059741e+03	3.038690e+03	0	1.305833e-03
4.400000e+08	1.197691e+14	0.000000e+00	8.231297e-01	3.074310e+15	3.320769e+15	1.639265e+14	1.676091e+04	6.055862e+03	3.036745e+03	0	1.298862e-03
4.500000e+08	1.178496e+14	0.000000e+00	8.231297e-01	3.056674e+15	3.302091e+15	1.630962e+14	1.673883e+04	6.051991e+03	3.034804e+03	0	1.291886e-03
4.600000e+08	1.159492e+14	0.000000e+00	8.231297e-01	3.039201e+15	3.283553e+15	1.622718e+14	1.671688e+04	6.048128e+03	3.032867e+03	0	1.284904e-03
4.700000e+08	1.140676e+14	0.000000e+00	8.231297e-01	3.021890e+15	3.265158e+15	1.614533e+14	1.669506e+04	6.044275e+03	3.030935e+03	0	1.277916e-03
4.800000e+08	1.122046e+14	0.000000e+00	8.231297e-01	3.004738e+15	3.246907e+15	1.606407e+14	1.667336e+04	6.040433e+03	3.029008e+03	0	1.270921e-03
4.900000e+08	1.103601e+14	0.000000e+00	8.231297e-01	2.987744e+15	3.228804e+15	1.598339e+14	1.665178e+04	6.036603e+03	3.027088e+03	0	1.263918e-03
5.000000e+08	1.085337e+14	0.000000e+00	8.231297e-01	2.970905e+15	3.210848e+15	1.590329e+14	1.663033e+04	6.032786e+03	3.025174e+03	0	1.256907e-03
5.100000e+08	1.067253e+14	0.000000e+00	8.231297e-01	2.954221e+15	3.193042e+15	1.582376e+14	1.660899e+04	6.028983e+03	3.023267e+03	0	1.249887e-03
5.200000e+08	1.049347e+14	0.000000e+00	8.231297e-01	2.937689e+15	3.175384e+15	1.574480e+14	1.658778e+04	6.025194e+03	3.021367e+03	0	1.242857e-03
5.300000e+08	1.031616e+14	0.000000e+00	8.231297e-01	2.921308e+15	3.157876e+15	1.566640e+14	1.656668e+04	6.021420e+03	3.019474e+03	0	1.235817e-03
5.400000e+08	1.014059e+14	0.000000e+00	8.231297e-01	2.905075e+15	3.140516e+15	1.558856e+14	1.654570e+04	6.017661e+03	3.017589e+03	0	1.228766e-03
5.500000e+08	9.966720e+13	0.000000e+00	8.231297e-01	2.888989e+15	3.123305e+15	1.551128e+14	1.652484e+04	6.013916e+03	3.015711e+03	0	1.221703e-03
5.600000e+08	9.794546e+13	0.000000e+00	8.231297e-01	2.873049e+15	3.106241e+15	1.543454e+14	1.650409e+04	6.010188e+03	3.013841e+03	0	1.214627e-03
5.700000e+08	9.624040e+13	0.000000e+00	8.231297e-01	2.857251e+15	3.089323e+15	1.535835e+14	1.648346e+04	6.006474e+03	3.011979e+03	0	1.207538e-03
5.800000e+08	9.455184e+13	0.000000e+00	8.231297e-01	2.841596e+15	3.072552e+15	1.528270e+14	1.646294e+04	6.002777e+03	3.010125e+03	0	1.200434e-03
5.900000e+08	9.287956e+13	0.000000e+00	8.231297e-01	2.826080e+15	3.055925e+15	1.520758e+14	1.644253e+04	5.999095e+03	3.008279e+03	0	1.193315e-03
6.000000e+08	9.122337e+13	0.000000e+00	8.231297e-01	2.810703e+15	3.039441e+15	1.513300e+14	1.642223e+04	5.995429e+03	3.006441e+03	0	1.186179e-03
6.100000e+08	8.958305e+13	0.000000e+00	8.231297e-01	2.795462e+15	3.023100e+15	1.505894e+14	1.640205e+04	5.991779e+03	3.004610e+03	0	1.179026e-03
6.200000e+08	8.795843e+13	0.000000e+00	8.231297e-01	2.780357e+15	3.006900e+15	1.498541e+14	1.638197e+04	5.988145e+03	3.002788e+03	0	1.171855e-03
6.300000e+08	8.634930e+13	0.000000e+00	8.231297e-01	2.765385e+15	2.990839e+15	1.491240e+14	1.636200e+04	5.984527e+03	3.000974e+03	0	1.164665e-03
6.400000e+08	8.475547e+13	0.000000e+00	8.231297e-01	2.750544e+15	2.974916e+15	1.483990e+14	1.634214e+04	5.980925e+03	2.999167e+03	0	1.157455e-03
6.500000e+08	8.317675e+13	0.000000e+00	8.231297e-01	2.735834e+15	2.959130e+15	1.476791e+14	1.632238e+04	5.977338e+03	2.997369e+03	0	1.150223e-03
6.600000e+08	8.161297e+13	0.000000e+00	8.231297e-01	2.721253e+15	2.943480e+15	1.469643e+14	1.630273e+04	5.973767e+03	2.995578e+03	0	1.142969e-03
6.700000e+08	8.006392e+13	0.000000e+00	8.231297e-01	2.706798e+15	2.927963e+15	1.462545e+14	1.628319e+04	5.970212e+03	2.993795e+03	0	1.135692e-03
6.800000e+08	7.852944e+13	0.000000e+00	8.231297e-01	2.692469e+15	2.912579e+15	1.455497e+14	1.626375e+04	5.966673e+03	2.992021e+03	0	1.128390e-03
6.900000e+08	7.700935e+13	0.000000e+00	8.231297e-01	2.678265e+15	2.897326e+15	1.448499e+14	1.624441e+04	5.963149e+03	2.990253e+03	0	1.121061e-03
7.000000e+08	7.550346e+13	0.000000e+00	8.231297e-01	2.664183e+15	2.882203e+15	1.441549e+14	1.622517e+04	5.959640e+03	2.988494e+03	0	1.113706e-03
7.100000e+08	7.401161e+13	0.000000e+00	8.231297e-01	2.650222e+15	2.867208e+15	1.434648e+14	1.620604e+04	5.956147e+03	2.986742e+03	0	1.106322e-03
7.200000e+08	7.253363e+13	0.000000e+00	8.231297e-01	2.636381e+15	2.852340e+15	1.427796e+14	1.618700e+04	5.952669e+03	2.984998e+03	0	1.098908e-03
7.300000e+08	7.106935e+13	0.000000e+00	8.231297e-01	2.622658e+15	2.837598e+15	1.420991e+14	1.616806e+04	5.949206e+03	2.983262e+03	0	1.091463e-03
7.400000e+08	6.961860e+13	0.000000e+00	8.231297e-01	2.609053e+15	2.822980e+15	1.414234e+14	1.614923e+04	5.945759e+03	2.981533e+03	0	1.083985e-03
7.500000e+08	6.818122e+13	0.000000e+00	8.231297e-01	2.595563e+15	2.808484e+15	1.407524e+14	1.613049e+04	5.942326e+03	2.979812e+03	0	1.076473e-03
7.600000e+08	6.675705e+13	0.000000e+00	8.231297e-01	2.582187e+15	2.794110e+15	1.400860e+14	1.611184e+04	5.938909e+03	2.978098e+03	0	1.068925e-03
7.700000e+08	6.534592e+13	0.000000e+00	8.231297e-01	2.568924e+15	2.779855e+15	1.394243e+14	1.609329e+04	5.935506e+03	2.976392e+03	0	1.061340e-03
7.800000e+08	6.394770e+13	0.000000e+00	8.231297e-01	2.555773e+15	2.765719e+15	1.387672e+14	1.607484e+04	5.932118e+03	2.974693e+03	0	1.053715e-03
7.900000e+08	6.256221e+13	0.000000e+00	8.231297e-01	2.542732e+15	2.751701e+15	1.381147e+14	1.605648e+04	5.928744e+03	2.973001e+03	0	1.046050e-03
8.000000e+08	6.118932e+13	0.000000e+00	8.231297e-01	2.529801e+15	2.737799e+15	1.374667e+14	1.603822e+04	5.925385e+03	2.971317e+03	0	1.038341e-03
8.100000e+08	5.982886e+13	0.000000e+00	8.231297e-01	2.516977e+15	2.724011e+15	1.368232e+14	1.602005e+04	5.922040e+03	2.969640e+03	0	1.030588e-03
8.200000e+08	5.848070e+13	0.000000e+00	8.231297e-01	2.504260e+15	2.710337e+15	1.361841e+14	1.600197e+04	5.918710e+03	2.967970e+03	0	1.022788e-03
8.300000e+08	5.714469e+13	0.000000e+00	8.231297e-01	2.491648e+15	2.696775e+15	1.355495e+14	1.598398e+04	5.915394e+03	2.966307e+03	0	1.014940e-03
8.400000e+08	5.582068e+13	0.000000e+00	8.231297e-01	2.479140e+15	2.683324e+15	1.349192e+14	1.596608e+04	5.912092e+03	2.964651e+03	0	1.007040e-03
8.500000e+08	5.450854e+13	0.000000e+00	8.231297e-01	2.466735e+15	2.669983e+15	1.342933e+14	1.594827e+04	5.908804e+03	2.963002e+03	0	9.990865e-04
8.600000e+08	5.320812e+13	0.000000e+00	8.231297e-01	2.454433e+15	2.656750e+15	1.336717e+14	1.593055e+04	5.905530e+03	2.961360e+03	0	9.910774e-04
8.700000e+08	5.191930e+13	0.000000e+00	8.231297e-01	2.442231e+15	2.643624e+15	1.330544e+14	1.591292e+04	5.902270e+03	2.959726e+03	0	9.830098e-04
8.800000e+08	5.064192e+13	0.000000e+00	8.231297e-01	2.430128e+15	2.630605e+15	1.324413e+14	1.589537e+04	5.899024e+03	2.958098e+03	0	9.748811e-04
8.900000e+08	4.937587e+13	0.000000e+00	8.231297e-01	2.418124e+15	2.617690e+15	1.318324e+14	1.587792e+04	5.895791e+03	2.956476e+03	0	9.666884e-04
9.000000e+08	4.812102e+13	0.000000e+00	8.231297e-01	2.406218e+15	2.604880e+15	1.312277e+14	1.586055e+04	5.892572e+03	2.954862e+03	0	9.584288e-04
9.100000e+08	4.687722e+13	0.000000e+00	8.231297e-01	2.394407e+15	2.592172e+15	1.306272e+14	1.584326e+04	5.889366e+03	2.953255e+03	0	9.500990e-04
9.200000e+08	4.564436e+13	0.000000e+00	8.231297e-01	2.382692e+15	2.579565e+15	1.300308e+14	1.582606e+04	5.886173e+03	2.951654e+03	0	9.416957e-04
9.300000e+08	4.442230e+13	0.000000e+00	8.231297e-01	2.371071e+15	2.567059e+15	1.294384e+14	1.580894e+04	5.882994e+03	2.950059e+03	0	9.332155e-04
9.400000e+08	4.321094e+13	0.000000e+00	8.231297e-01	2.359543e+15	2.554652e+15	1.288501e+14	1.579191e+04	5.879828e+03	2.948472e+03	0	9.246545e-04
9.500000e+08	4.201014e+13	0.000000e+00	8.231297e-01	2.348107e+15	2.542344e+15	1.282658e+14	1.577496e+04	5.876675e+03	2.946891e+03	0	9.160087e-04
9.600000e+08	4.081978e+13	0.000000e+00	8.231297e-01	2.336762e+15	2.530132e+15	1.276855e+14	1.575809e+04	5.873535e+03	2.945316e+03	0	9.072740e-04
9.700000e+08	3.963975e+13	0.000000e+00	8.231297e-01	2.325508e+15	2.518017e+15	1.271092e+14	1.574130e+04	5.870408e+03	2.943748e+03	0	8.984458e-04
9.800000e+08	3.846993e+13	0.000000e+00	8.231297e-01	2.314342e+15	2.505997e+15	1.265368e+14	1.572459e+04	5.867293e+03	2.942186e+03	0	8.895193e-04
9.900000e+08	3.731020e+13	0.000000e+00	8.231297e-01	2.303265e+15	2.494071e+15	1.259682e+14	1.570797e+04	5.864192e+03	2.940631e+03	0	8.804893e-04
1.000000e+09	3.616045e+13	0.000000e+00	8.231297e-01	2.292274e+15	2.482238e+15	1.254036e+14	1.569142e+04	5.861103e+03	2.939082e+03	0	8.713504e-04
1.010000e+09	3.502058e+13	0.000000e+00	8.231297e-01	2.281370e+15	2.470498e+15	1.248427e+14	1.567495e+04	5.858026e+03	2.937539e+03	0	8.620967e-04
1.020000e+09	3.389046e+13	0.000000e+00	8.231297e-01	2.270551e+15	2.458848e+15	1.242857e+14	1.565856e+04	5.854962e+03	2.936003e+03	0	8.527218e-04
1.030000e+09	3.276999e+13	0.000000e+00	8.231297e-01	2.259817e+15	2.447288e+15	1.237324e+14	1.564225e+04	5.851910e+03	2.934472e+03	0	8.432189e-04
1.040000e+09	3.165906e+13	0.000000e+00	8.231297e-01	2.249166e+15	2.435818e+15	1.231829e+14	1.562601e+04	5.848871e+03	2.932948e+03	0	8.335806e-04
1.050000e+09	3.055757e+13	0.000000e+00	8.231297e-01	2.238598e+15	2.424436e+15	1.226370e+14	1.560985e+04	5.845844e+03	2.931430e+03	0	8.237988e-04
1.060000e+09	2.946541e+13	0.000000e+00	8.231297e-01	2.228111e+15	2.413141e+15	1.220949e+14	1.559377e+04	5.842829e+03	2.929918e+03	0	8.138651e-04
1.070000e+09	2.838249e+13	0.000000e+00	8.231297e-01	2.217705e+15	2.401933e+15	1.215564e+14	1.557776e+04	5.839826e+03	2.928412e+03	0	8.037699e-04
1.080000e+09	2.730869e+13	0.000000e+00	8.231297e-01	2.207380e+15	2.390810e+15	1.210215e+14	1.556183e+04	5.836835e+03	2.926913e+03	0	7.935029e-04
1.090000e+09	2.624392e+13	0.000000e+00	8.231297e-01	2.197133e+15	2.379772e+15	1.204903e+14	1.554597e+04	5.833855e+03	2.925419e+03	0	7.830529e-04
1.100000e+09	2.518808e+13	0.000000e+00	8.231297e-01	2.186964e+15	2.368817e+15	1.199625e+14	1.553018e+04	5.830888e+03	2.923930e+03	0	7.724077e-04
1.110000e+09	2.414107e+13	0.000000e+00	8.231297e-01	2.176874e+15	2.357945e+15	1.194384e+14	1.551447e+04	5.827932e+03	2.922448e+03	0	7.615534e-04
1.120000e+09	2.310279e+13	0.000000e+00	8.231297e-01	2.166859e+15	2.347156e+15	1.189177e+14	1.549883e+04	5.824988e+03	2.920972e+03	0	7.504753e-04
1.130000e+09	2.207316e+13	0.000000e+00	8.231297e-01	2.156921e+15	2.336447e+15	1.184006e+14	1.548326e+04	5.822055e+03	2.919501e+03	0	7.391565e-04
1.140000e+09	2.105208e+13	0.000000e+00	8.231297e-01	2.147058e+15	2.325819e+15	1.178868e+14	1.546776e+04	5.819134e+03	2.918037e+03	0	7.275786e-04
1.150000e+09	2.003945e+13	0.000000e+00	8.231297e-01	2.137269e+15	2.315270e+15	1.173766e+14	1.545234e+04	5.816224e+03	2.916578e+03	0	7.157206e-04
1.160000e+09	1.903518e+13	0.000000e+00	8.231297e-01	2.127553e+15	2.304800e+15	1.168697e+14	1.543698e+04	5.813326e+03	2.915124e+03	0	7.035591e-04
1.170000e+09	1.803920e+13	0.000000e+00	8.231297e-01	2.117910e+15	2.294408e+15	1.163662e+14	1.542169e+04	5.810439e+03	2.913676e+03	0	6.910678e-04
1.180000e+09	1.705139e+13	0.000000e+00	8.231297e-01	2.108340e+15	2.284093e+15	1.158660e+14	1.540648e+04	5.807563e+03	2.912234e+03	0	6.782163e-04
1.190000e+09	1.607169e+13	0.000000e+00	8.231297e-01	2.098840e+15	2.273854e+15	1.153692e+14	1.539133e+04	5.804698e+03	2.910798e+03	0	6.649701e-04
1.200000e+09	1.510000e+13	0.000000e+00	8.231297e-01	2.089411e+15	2.263691e+15	1.148757e+14	1.537625e+04	5.801844e+03	2.909366e+03	0	6.512892e-04
1.210000e+09	1.413624e+13	0.000000e+00	8.231297e-01	2.080052e+15	2.253602e+15	1.143854e+14	1.536123e+04	5.799001e+03	2.907941e+03	0	6.371272e-04
1.220000e+09	1.318032e+13	0.000000e+00	8.231297e-01	2.070762e+15	2.243587e+15	1.138984e+14	1.534629e+04	5.796169e+03	2.906521e+03	0	6.224295e-04
1.230000e+09	1.223216e+13	0.000000e+00	8.231297e-01	2.061540e+15	2.233646e+15	1.134146e+14	1.533141e+04	5.793348e+03	2.905106e+03	0	6.071313e-04
1.240000e+09	1.129168e+13	0.000000e+00	8.231297e-01	2.052387e+15	2.223777e+15	1.129340e+14	1.531660e+04	5.790538e+03	2.903697e+03	0	5.911546e-04
1.250000e+09	1.035880e+13	0.000000e+00	8.231297e-01	2.043300e+15	2.213980e+15	1.124566e+14	1.530185e+04	5.787738e+03	2.902293e+03	0	5.744048e-04
1.260000e+09	9.433437e+12	0.000000e+00	8.231297e-01	2.034279e+15	2.204254e+15	1.119823e+14	1.528717e+04	5.784949e+03	2.900894e+03	0	5.567645e-04
1.270000e+09	8.515516e+12	0.000000e+00	8.231297e-01	2.025324e+15	2.194599e+15	1.115112e+14	1.527255e+04	5.782170e+03	2.899501e+03	0	5.380862e-04
1.280000e+09	7.604957e+12	0.000000e+00	8.231297e-01	2.016435e+15	2.185013e+15	1.110431e+14	1.525800e+04	5.779402e+03	2.898113e+03	0	5.181798e-04
1.290000e+09	6.701684e+12	0.000000e+00	8.231297e-01	2.007609e+15	2.175496e+15	1.105782e+14	1.524351e+04	5.776644e+03	2.896730e+03	0	4.967939e-04
1.300000e+09	5.805622e+12	0.000000e+00	8.231297e-01	1.998848e+15	2.166048e+15	1.101163e+14	1.522908e+04	5.773897e+03	2.895352e+03	0	4.735849e-04
1.310000e+09	4.916695e+12	0.000000e+00	8.231297e-01	1.990149e+15	2.156667e+15	1.096574e+14	1.521472e+04	5.771160e+03	2.893979e+03	0	4.480633e-04
1.320000e+09	4.034832e+12	0.000000e+00	8.231297e-01	1.981513e+15	2.147353e+15	1.092015e+14	1.520042e+04	5.768433e+03	2.892612e+03	0	4.194917e-04
1.330000e+09	3.159957e+12	0.000000e+00	8.231297e-01	1.972939e+15	2.138105e+15	1.087486e+14	1.518618e+04	5.765716e+03	2.891250e+03	0	3.866713e-04
1.340000e+09	2.292001e+12	0.000000e+00	8.231297e-01	1.964426e+15	2.128924e+15	1.082986e+14	1.517200e+04	5.763009e+03	2.889892e+03	0	3.474187e-04
1.350000e+09	1.430892e+12	0.000000e+00	8.231297e-01	1.955973e+15	2.119807e+15	1.078516e+14	1.515788e+04	5.760312e+03	2.888540e+03	0	2.969275e-04
1.360000e+09	5.765595e+11	0.000000e+00	8.231297e-01	1.947581e+15	2.110754e+15	1.074075e+14	1.514383e+04	5.757626e+03	2.887193e+03	0	2.193123e-04
