#t		Qconv[W]	Ri[Rp]		R*[Rp]		Qc[W]		Qm[W]		Qr[W]		Tcmb[K]		Tl[K]		Tup[K]		RiFlag		Bs[T]
0.000000e+00	1.332324e+11	0.000000e+00	5.075377e-01	5.881300e+12	8.479899e+14	6.907152e+13	3.618446e+03	2.740842e+03	1.975903e+03	0	1.955930e-04
1.000000e+07	1.367095e+11	0.000000e+00	5.075377e-01	6.026938e+12	7.179477e+14	6.868882e+13	3.615683e+03	2.646783e+03	1.908094e+03	0	1.972799e-04
2.000000e+07	1.377119e+11	0.000000e+00	5.075377e-01	6.068761e+12	6.187266e+14	6.830897e+13	3.612852e+03	2.567836e+03	1.851180e+03	0	1.977609e-04
3.000000e+07	1.372643e+11	0.000000e+00	5.075377e-01	6.049753e+12	5.412033e+14	6.793197e+13	3.610000e+03	2.500543e+03	1.802668e+03	0	1.975464e-04
4.000000e+07	1.359686e+11	0.000000e+00	5.075377e-01	5.995172e+12	4.793902e+14	6.755777e+13	3.607158e+03	2.442435e+03	1.760777e+03	0	1.969229e-04
5.000000e+07	1.341864e+11	0.000000e+00	5.075377e-01	5.920179e+12	4.292334e+14	6.718637e+13	3.604341e+03	2.391701e+03	1.724203e+03	0	1.960587e-04
6.000000e+07	1.321383e+11	0.000000e+00	5.075377e-01	5.834039e+12	3.879123e+14	6.681774e+13	3.601559e+03	2.346985e+03	1.691967e+03	0	1.950561e-04
7.000000e+07	1.299610e+11	0.000000e+00	5.075377e-01	5.742480e+12	3.534154e+14	6.645185e+13	3.598817e+03	2.307248e+03	1.663320e+03	0	1.939788e-04
8.000000e+07	1.277395e+11	0.000000e+00	5.075377e-01	5.649071e+12	3.242775e+14	6.608869e+13	3.596118e+03	2.271684e+03	1.637681e+03	0	1.928672e-04
9.000000e+07	1.255267e+11	0.000000e+00	5.075377e-01	5.556029e+12	2.994103e+14	6.572822e+13	3.593463e+03	2.239652e+03	1.614589e+03	0	1.917471e-04
1.000000e+08	1.233551e+11	0.000000e+00	5.075377e-01	5.464718e+12	2.779913e+14	6.537043e+13	3.590851e+03	2.210640e+03	1.593674e+03	0	1.906349e-04
1.100000e+08	1.212441e+11	0.000000e+00	5.075377e-01	5.375954e+12	2.593895e+14	6.501530e+13	3.588282e+03	2.184235e+03	1.574638e+03	0	1.895411e-04
1.200000e+08	1.192047e+11	0.000000e+00	5.075377e-01	5.290199e+12	2.431137e+14	6.466280e+13	3.585755e+03	2.160092e+03	1.557234e+03	0	1.884724e-04
1.300000e+08	1.172425e+11	0.000000e+00	5.075377e-01	5.207684e+12	2.287770e+14	6.431291e+13	3.583268e+03	2.137932e+03	1.541258e+03	0	1.874326e-04
1.400000e+08	1.153595e+11	0.000000e+00	5.075377e-01	5.128494e+12	2.160710e+14	6.396561e+13	3.580820e+03	2.117515e+03	1.526539e+03	0	1.864237e-04
1.500000e+08	1.135554e+11	0.000000e+00	5.075377e-01	5.052616e+12	2.047470e+14	6.362087e+13	3.578409e+03	2.098643e+03	1.512934e+03	0	1.854467e-04
1.600000e+08	1.118284e+11	0.000000e+00	5.075377e-01	4.979978e+12	1.946031e+14	6.327868e+13	3.576033e+03	2.081146e+03	1.500320e+03	0	1.845018e-04
1.700000e+08	1.101759e+11	0.000000e+00	5.075377e-01	4.910468e+12	1.854734e+14	6.293902e+13	3.573692e+03	2.064878e+03	1.488593e+03	0	1.835885e-04
1.800000e+08	1.085948e+11	0.000000e+00	5.075377e-01	4.843956e+12	1.772208e+14	6.260186e+13	3.571383e+03	2.049715e+03	1.477661e+03	0	1.827061e-04
1.900000e+08	1.070818e+11	0.000000e+00	5.075377e-01	4.780298e+12	1.697312e+14	6.226718e+13	3.569105e+03	2.035547e+03	1.467448e+03	0	1.818536e-04
2.000000e+08	1.056332e+11	0.000000e+00	5.075377e-01	4.719348e+12	1.629085e+14	6.193497e+13	3.566857e+03	2.022281e+03	1.457884e+03	0	1.810298e-04
2.100000e+08	1.042456e+11	0.000000e+00	5.075377e-01	4.660959e+12	1.566718e+14	6.160520e+13	3.564638e+03	2.009834e+03	1.448911e+03	0	1.802336e-04
2.200000e+08	1.029155e+11	0.000000e+00	5.075377e-01	4.604988e+12	1.509523e+14	6.127785e+13	3.562446e+03	1.998131e+03	1.440474e+03	0	1.794638e-04
2.300000e+08	1.016398e+11	0.000000e+00	5.075377e-01	4.551298e+12	1.456913e+14	6.095291e+13	3.560281e+03	1.987111e+03	1.432529e+03	0	1.787192e-04
2.400000e+08	1.004153e+11	0.000000e+00	5.075377e-01	4.499755e+12	1.408382e+14	6.063034e+13	3.558140e+03	1.976714e+03	1.425034e+03	0	1.779986e-04
2.500000e+08	9.923896e+10	0.000000e+00	5.075377e-01	4.450237e+12	1.363494e+14	6.031014e+13	3.556024e+03	1.966891e+03	1.417953e+03	0	1.773008e-04
2.600000e+08	9.810801e+10	0.000000e+00	5.075377e-01	4.402625e+12	1.321872e+14	5.999228e+13	3.553931e+03	1.957595e+03	1.411251e+03	0	1.766247e-04
2.700000e+08	9.701982e+10	0.000000e+00	5.075377e-01	4.356808e+12	1.283187e+14	5.967675e+13	3.551861e+03	1.948786e+03	1.404901e+03	0	1.759693e-04
2.800000e+08	9.597191e+10	0.000000e+00	5.075377e-01	4.312683e+12	1.247151e+14	5.936352e+13	3.549812e+03	1.940428e+03	1.398876e+03	0	1.753334e-04
2.900000e+08	9.496197e+10	0.000000e+00	5.075377e-01	4.270153e+12	1.213511e+14	5.905258e+13	3.547783e+03	1.932487e+03	1.393151e+03	0	1.747162e-04
3.000000e+08	9.398785e+10	0.000000e+00	5.075377e-01	4.229126e+12	1.182045e+14	5.874390e+13	3.545775e+03	1.924933e+03	1.387705e+03	0	1.741167e-04
3.100000e+08	9.304752e+10	0.000000e+00	5.075377e-01	4.189519e+12	1.152556e+14	5.843747e+13	3.543786e+03	1.917740e+03	1.382519e+03	0	1.735341e-04
3.200000e+08	9.213909e+10	0.000000e+00	5.075377e-01	4.151251e+12	1.124870e+14	5.813328e+13	3.541816e+03	1.910881e+03	1.377575e+03	0	1.729675e-04
3.300000e+08	9.126080e+10	0.000000e+00	5.075377e-01	4.114249e+12	1.098832e+14	5.783129e+13	3.539863e+03	1.904336e+03	1.372856e+03	0	1.724162e-04
3.400000e+08	9.041101e+10	0.000000e+00	5.075377e-01	4.078444e+12	1.074302e+14	5.753150e+13	3.537928e+03	1.898083e+03	1.368348e+03	0	1.718794e-04
3.500000e+08	8.958819e+10	0.000000e+00	5.075377e-01	4.043772e+12	1.051158e+14	5.723388e+13	3.536010e+03	1.892103e+03	1.364037e+03	0	1.713564e-04
3.600000e+08	8.879089e+10	0.000000e+00	5.075377e-01	4.010172e+12	1.029287e+14	5.693842e+13	3.534108e+03	1.886379e+03	1.359911e+03	0	1.708465e-04
3.700000e+08	8.801778e+10	0.000000e+00	5.075377e-01	3.977588e+12	1.008590e+14	5.664510e+13	3.532221e+03	1.880895e+03	1.355958e+03	0	1.703492e-04
3.800000e+08	8.726761e+10	0.000000e+00	5.075377e-01	3.945967e+12	9.889773e+13	5.635390e+13	3.530350e+03	1.875637e+03	1.352167e+03	0	1.698639e-04
3.900000e+08	8.653920e+10	0.000000e+00	5.075377e-01	3.915260e+12	9.703664e+13	5.606480e+13	3.528494e+03	1.870591e+03	1.348529e+03	0	1.693899e-04
4.000000e+08	8.583145e+10	0.000000e+00	5.075377e-01	3.885422e+12	9.526838e+13	5.577780e+13	3.526653e+03	1.865745e+03	1.345036e+03	0	1.689269e-04
4.100000e+08	8.514334e+10	0.000000e+00	5.075377e-01	3.856408e+12	9.358626e+13	5.549286e+13	3.524825e+03	1.861087e+03	1.341677e+03	0	1.684743e-04
4.200000e+08	8.447390e+10	0.000000e+00	5.075377e-01	3.828179e+12	9.198417e+13	5.520998e+13	3.523011e+03	1.856606e+03	1.338447e+03	0	1.680315e-04
4.300000e+08	8.382223e+10	0.000000e+00	5.075377e-01	3.800696e+12	9.045658e+13	5.492914e+13	3.521210e+03	1.852292e+03	1.335337e+03	0	1.675983e-04
4.400000e+08	8.318749e+10	0.000000e+00	5.075377e-01	3.773924e+12	8.899840e+13	5.465031e+13	3.519422e+03	1.848137e+03	1.332342e+03	0	1.671742e-04
4.500000e+08	8.256887e+10	0.000000e+00	5.075377e-01	3.747830e+12	8.760501e+13	5.437349e+13	3.517647e+03	1.844131e+03	1.329454e+03	0	1.667588e-04
4.600000e+08	8.196563e+10	0.000000e+00	5.075377e-01	3.722381e+12	8.627214e+13	5.409866e+13	3.515884e+03	1.840267e+03	1.326668e+03	0	1.663517e-04
4.700000e+08	8.137706e+10	0.000000e+00	5.075377e-01	3.697550e+12	8.499592e+13	5.382580e+13	3.514133e+03	1.836537e+03	1.323979e+03	0	1.659526e-04
4.800000e+08	8.080251e+10	0.000000e+00	5.075377e-01	3.673307e+12	8.377274e+13	5.355489e+13	3.512393e+03	1.832934e+03	1.321382e+03	0	1.655611e-04
4.900000e+08	8.024134e+10	0.000000e+00	5.075377e-01	3.649626e+12	8.259931e+13	5.328592e+13	3.510665e+03	1.829452e+03	1.318872e+03	0	1.651769e-04
5.000000e+08	7.969298e+10	0.000000e+00	5.075377e-01	3.626484e+12	8.147260e+13	5.301888e+13	3.508948e+03	1.826085e+03	1.316444e+03	0	1.647998e-04
5.100000e+08	7.915687e+10	0.000000e+00	5.075377e-01	3.603856e+12	8.038979e+13	5.275374e+13	3.507242e+03	1.822826e+03	1.314095e+03	0	1.644294e-04
5.200000e+08	7.863248e+10	0.000000e+00	5.075377e-01	3.581721e+12	7.934829e+13	5.249050e+13	3.505547e+03	1.819670e+03	1.311820e+03	0	1.640655e-04
5.300000e+08	7.811932e+10	0.000000e+00	5.075377e-01	3.560058e+12	7.834570e+13	5.222913e+13	3.503862e+03	1.816614e+03	1.309616e+03	0	1.637078e-04
5.400000e+08	7.761693e+10	0.000000e+00	5.075377e-01	3.538848e+12	7.737979e+13	5.196963e+13	3.502187e+03	1.813650e+03	1.307480e+03	0	1.633561e-04
5.500000e+08	7.712487e+10	0.000000e+00	5.075377e-01	3.518071e+12	7.644849e+13	5.171197e+13	3.500522e+03	1.810776e+03	1.305408e+03	0	1.630102e-04
5.600000e+08	7.664271e+10	0.000000e+00	5.075377e-01	3.497711e+12	7.554988e+13	5.145614e+13	3.498867e+03	1.807987e+03	1.303398e+03	0	1.626698e-04
5.700000e+08	7.617007e+10	0.000000e+00	5.075377e-01	3.477751e+12	7.468219e+13	5.120213e+13	3.497221e+03	1.805280e+03	1.301445e+03	0	1.623347e-04
5.800000e+08	7.570657e+10	0.000000e+00	5.075377e-01	3.458175e+12	7.384374e+13	5.094992e+13	3.495585e+03	1.802649e+03	1.299549e+03	0	1.620048e-04
5.900000e+08	7.525186e+10	0.000000e+00	5.075377e-01	3.438969e+12	7.303298e+13	5.069950e+13	3.493958e+03	1.800093e+03	1.297706e+03	0	1.616798e-04
6.000000e+08	7.480560e+10	0.000000e+00	5.075377e-01	3.420118e+12	7.224848e+13	5.045085e+13	3.492340e+03	1.797607e+03	1.295914e+03	0	1.613596e-04
6.100000e+08	7.436748e+10	0.000000e+00	5.075377e-01	3.401609e+12	7.148887e+13	5.020397e+13	3.490731e+03	1.795188e+03	1.294170e+03	0	1.610439e-04
6.200000e+08	7.393719e+10	0.000000e+00	5.075377e-01	3.383429e+12	7.075290e+13	4.995882e+13	3.489131e+03	1.792834e+03	1.292473e+03	0	1.607327e-04
6.300000e+08	7.351444e+10	0.000000e+00	5.075377e-01	3.365566e+12	7.003938e+13	4.971541e+13	3.487539e+03	1.790542e+03	1.290821e+03	0	1.604258e-04
6.400000e+08	7.309896e+10	0.000000e+00	5.075377e-01	3.348009e+12	6.934721e+13	4.947371e+13	3.485956e+03	1.788309e+03	1.289211e+03	0	1.601230e-04
6.500000e+08	7.269050e+10	0.000000e+00	5.075377e-01	3.330747e+12	6.867534e+13	4.923372e+13	3.484380e+03	1.786132e+03	1.287642e+03	0	1.598242e-04
6.600000e+08	7.228880e+10	0.000000e+00	5.075377e-01	3.313769e+12	6.802282e+13	4.899541e+13	3.482813e+03	1.784009e+03	1.286111e+03	0	1.595292e-04
6.700000e+08	7.189364e+10	0.000000e+00	5.075377e-01	3.297066e+12	6.738871e+13	4.875878e+13	3.481254e+03	1.781938e+03	1.284619e+03	0	1.592380e-04
6.800000e+08	7.150478e+10	0.000000e+00	5.075377e-01	3.280628e+12	6.677216e+13	4.852381e+13	3.479703e+03	1.779918e+03	1.283162e+03	0	1.589504e-04
6.900000e+08	7.112202e+10	0.000000e+00	5.075377e-01	3.264447e+12	6.617236e+13	4.829049e+13	3.478159e+03	1.777944e+03	1.281739e+03	0	1.586663e-04
7.000000e+08	7.074516e+10	0.000000e+00	5.075377e-01	3.248513e+12	6.558855e+13	4.805881e+13	3.476623e+03	1.776017e+03	1.280350e+03	0	1.583855e-04
7.100000e+08	7.037399e+10	0.000000e+00	5.075377e-01	3.232820e+12	6.502001e+13	4.782875e+13	3.475095e+03	1.774133e+03	1.278992e+03	0	1.581081e-04
7.200000e+08	7.000834e+10	0.000000e+00	5.075377e-01	3.217358e+12	6.446607e+13	4.760029e+13	3.473574e+03	1.772292e+03	1.277664e+03	0	1.578338e-04
7.300000e+08	6.964803e+10	0.000000e+00	5.075377e-01	3.202120e+12	6.392609e+13	4.737343e+13	3.472060e+03	1.770491e+03	1.276366e+03	0	1.575625e-04
7.400000e+08	6.929288e+10	0.000000e+00	5.075377e-01	3.187101e+12	6.339946e+13	4.714816e+13	3.470553e+03	1.768730e+03	1.275096e+03	0	1.572943e-04
7.500000e+08	6.894275e+10	0.000000e+00	5.075377e-01	3.172291e+12	6.288563e+13	4.692446e+13	3.469054e+03	1.767005e+03	1.273853e+03	0	1.570289e-04
7.600000e+08	6.859748e+10	0.000000e+00	5.075377e-01	3.157687e+12	6.238404e+13	4.670231e+13	3.467561e+03	1.765317e+03	1.272636e+03	0	1.567663e-04
7.700000e+08	6.825691e+10	0.000000e+00	5.075377e-01	3.143280e+12	6.189420e+13	4.648171e+13	3.466075e+03	1.763663e+03	1.271444e+03	0	1.565064e-04
7.800000e+08	6.792092e+10	0.000000e+00	5.075377e-01	3.129066e+12	6.141561e+13	4.626265e+13	3.464596e+03	1.762043e+03	1.270276e+03	0	1.562492e-04
7.900000e+08	6.758936e+10	0.000000e+00	5.075377e-01	3.115038e+12	6.094783e+13	4.604510e+13	3.463124e+03	1.760455e+03	1.269131e+03	0	1.559945e-04
8.000000e+08	6.726210e+10	0.000000e+00	5.075377e-01	3.101191e+12	6.049042e+13	4.582907e+13	3.461658e+03	1.758898e+03	1.268008e+03	0	1.557424e-04
8.100000e+08	6.693903e+10	0.000000e+00	5.075377e-01	3.087521e+12	6.004298e+13	4.561453e+13	3.460199e+03	1.757370e+03	1.266907e+03	0	1.554926e-04
8.200000e+08	6.662003e+10	0.000000e+00	5.075377e-01	3.074021e+12	5.960511e+13	4.540148e+13	3.458746e+03	1.755872e+03	1.265827e+03	0	1.552452e-04
8.300000e+08	6.630497e+10	0.000000e+00	5.075377e-01	3.060688e+12	5.917645e+13	4.518990e+13	3.457300e+03	1.754401e+03	1.264766e+03	0	1.550001e-04
8.400000e+08	6.599376e+10	0.000000e+00	5.075377e-01	3.047516e+12	5.875664e+13	4.497978e+13	3.455860e+03	1.752956e+03	1.263725e+03	0	1.547572e-04
8.500000e+08	6.568629e+10	0.000000e+00	5.075377e-01	3.034502e+12	5.834535e+13	4.477111e+13	3.454426e+03	1.751538e+03	1.262702e+03	0	1.545165e-04
8.600000e+08	6.538246e+10	0.000000e+00	5.075377e-01	3.021641e+12	5.794227e+13	4.456387e+13	3.452998e+03	1.750144e+03	1.261698e+03	0	1.542779e-04
8.700000e+08	6.508217e+10	0.000000e+00	5.075377e-01	3.008929e+12	5.754710e+13	4.435807e+13	3.451576e+03	1.748774e+03	1.260710e+03	0	1.540414e-04
8.800000e+08	6.478534e+10	0.000000e+00	5.075377e-01	2.996363e+12	5.715955e+13	4.415368e+13	3.450160e+03	1.747428e+03	1.259740e+03	0	1.538068e-04
8.900000e+08	6.449186e+10	0.000000e+00	5.075377e-01	2.983937e+12	5.677934e+13	4.395070e+13	3.448750e+03	1.746104e+03	1.258785e+03	0	1.535742e-04
9.000000e+08	6.420167e+10	0.000000e+00	5.075377e-01	2.971650e+12	5.640622e+13	4.374910e+13	3.447346e+03	1.744801e+03	1.257846e+03	0	1.533435e-04
9.100000e+08	6.391467e+10	0.000000e+00	5.075377e-01	2.959498e+12	5.603994e+13	4.354889e+13	3.445948e+03	1.743519e+03	1.256922e+03	0	1.531147e-04
9.200000e+08	6.363079e+10	0.000000e+00	5.075377e-01	2.947477e+12	5.568026e+13	4.335006e+13	3.444555e+03	1.742258e+03	1.256012e+03	0	1.528877e-04
9.300000e+08	6.334995e+10	0.000000e+00	5.075377e-01	2.935583e+12	5.532696e+13	4.315258e+13	3.443168e+03	1.741016e+03	1.255117e+03	0	1.526624e-04
9.400000e+08	6.307208e+10	0.000000e+00	5.075377e-01	2.923815e+12	5.497983e+13	4.295645e+13	3.441787e+03	1.739793e+03	1.254235e+03	0	1.524389e-04
9.500000e+08	6.279710e+10	0.000000e+00	5.075377e-01	2.912169e+12	5.463865e+13	4.276166e+13	3.440411e+03	1.738588e+03	1.253367e+03	0	1.522170e-04
9.600000e+08	6.252496e+10	0.000000e+00	5.075377e-01	2.900642e+12	5.430324e+13	4.256820e+13	3.439040e+03	1.737401e+03	1.252511e+03	0	1.519968e-04
9.700000e+08	6.225559e+10	0.000000e+00	5.075377e-01	2.889232e+12	5.397340e+13	4.237605e+13	3.437676e+03	1.736231e+03	1.251668e+03	0	1.517782e-04
9.800000e+08	6.198892e+10	0.000000e+00	5.075377e-01	2.877935e+12	5.364896e+13	4.218522e+13	3.436316e+03	1.735078e+03	1.250836e+03	0	1.515612e-04
9.900000e+08	6.172489e+10	0.000000e+00	5.075377e-01	2.866750e+12	5.332975e+13	4.199568e+13	3.434962e+03	1.733940e+03	1.250016e+03	0	1.513457e-04
1.000000e+09	6.146345e+10	0.000000e+00	5.075377e-01	2.855673e+12	5.301559e+13	4.180742e+13	3.433613e+03	1.732819e+03	1.249207e+03	0	1.511317e-04
1.010000e+09	6.120453e+10	0.000000e+00	5.075377e-01	2.844703e+12	5.270635e+13	4.162045e+13	3.432269e+03	1.731712e+03	1.248410e+03	0	1.509192e-04
1.020000e+09	6.094809e+10	0.000000e+00	5.075377e-01	2.833838e+12	5.240186e+13	4.143474e+13	3.430930e+03	1.730620e+03	1.247622e+03	0	1.507081e-04
1.030000e+09	6.069407e+10	0.000000e+00	5.075377e-01	2.823074e+12	5.210198e+13	4.125028e+13	3.429597e+03	1.729542e+03	1.246845e+03	0	1.504985e-04
1.040000e+09	6.044242e+10	0.000000e+00	5.075377e-01	2.812410e+12	5.180657e+13	4.106708e+13	3.428268e+03	1.728478e+03	1.246078e+03	0	1.502902e-04
1.050000e+09	6.019310e+10	0.000000e+00	5.075377e-01	2.801844e+12	5.151551e+13	4.088511e+13	3.426945e+03	1.727427e+03	1.245321e+03	0	1.500832e-04
1.060000e+09	5.994604e+10	0.000000e+00	5.075377e-01	2.791373e+12	5.122866e+13	4.070437e+13	3.425626e+03	1.726389e+03	1.244572e+03	0	1.498776e-04
1.070000e+09	5.970122e+10	0.000000e+00	5.075377e-01	2.780997e+12	5.094591e+13	4.052484e+13	3.424312e+03	1.725364e+03	1.243833e+03	0	1.496733e-04
1.080000e+09	5.945858e+10	0.000000e+00	5.075377e-01	2.770713e+12	5.066714e+13	4.034653e+13	3.423004e+03	1.724351e+03	1.243103e+03	0	1.494703e-04
1.090000e+09	5.921809e+10	0.000000e+00	5.075377e-01	2.760519e+12	5.039224e+13	4.016941e+13	3.421700e+03	1.723349e+03	1.242381e+03	0	1.492685e-04
1.100000e+09	5.897969e+10	0.000000e+00	5.075377e-01	2.750413e+12	5.012109e+13	3.999348e+13	3.420401e+03	1.722360e+03	1.241668e+03	0	1.490679e-04
1.110000e+09	5.874336e+10	0.000000e+00	5.075377e-01	2.740394e+12	4.985360e+13	3.981873e+13	3.419106e+03	1.721381e+03	1.240962e+03	0	1.488685e-04
1.120000e+09	5.850905e+10	0.000000e+00	5.075377e-01	2.730461e+12	4.958967e+13	3.964515e+13	3.417817e+03	1.720414e+03	1.240265e+03	0	1.486703e-04
1.130000e+09	5.827672e+10	0.000000e+00	5.075377e-01	2.720611e+12	4.932921e+13	3.947274e+13	3.416532e+03	1.719457e+03	1.239575e+03	0	1.484733e-04
1.140000e+09	5.804634e+10	0.000000e+00	5.075377e-01	2.710843e+12	4.907211e+13	3.930147e+13	3.415251e+03	1.718510e+03	1.238892e+03	0	1.482774e-04
1.150000e+09	5.781787e+10	0.000000e+00	5.075377e-01	2.701156e+12	4.881830e+13	3.913135e+13	3.413976e+03	1.717573e+03	1.238217e+03	0	1.480826e-04
1.160000e+09	5.759128e+10	0.000000e+00	5.075377e-01	2.691548e+12	4.856768e+13	3.896237e+13	3.412705e+03	1.716646e+03	1.237549e+03	0	1.478889e-04
1.170000e+09	5.736654e+10	0.000000e+00	5.075377e-01	2.682018e+12	4.832019e+13	3.879451e+13	3.411438e+03	1.715729e+03	1.236887e+03	0	1.476963e-04
1.180000e+09	5.714361e+10	0.000000e+00	5.075377e-01	2.672564e+12	4.807573e+13	3.862777e+13	3.410176e+03	1.714820e+03	1.236232e+03	0	1.475047e-04
1.190000e+09	5.692246e+10	0.000000e+00	5.075377e-01	2.663185e+12	4.783424e+13	3.846213e+13	3.408918e+03	1.713921e+03	1.235584e+03	0	1.473142e-04
1.200000e+09	5.670307e+10	0.000000e+00	5.075377e-01	2.653880e+12	4.759564e+13	3.829760e+13	3.407665e+03	1.713030e+03	1.234942e+03	0	1.471247e-04
1.210000e+09	5.648539e+10	0.000000e+00	5.075377e-01	2.644648e+12	4.735986e+13	3.813415e+13	3.406416e+03	1.712148e+03	1.234306e+03	0	1.469362e-04
1.220000e+09	5.626941e+10	0.000000e+00	5.075377e-01	2.635487e+12	4.712683e+13	3.797179e+13	3.405171e+03	1.711275e+03	1.233676e+03	0	1.467486e-04
1.230000e+09	5.605510e+10	0.000000e+00	5.075377e-01	2.626397e+12	4.689649e+13	3.781051e+13	3.403931e+03	1.710409e+03	1.233052e+03	0	1.465621e-04
1.240000e+09	5.584242e+10	0.000000e+00	5.075377e-01	2.617375e+12	4.666877e+13	3.765029e+13	3.402695e+03	1.709551e+03	1.232434e+03	0	1.463765e-04
1.250000e+09	5.563136e+10	0.000000e+00	5.075377e-01	2.608422e+12	4.644363e+13	3.749112e+13	3.401463e+03	1.708701e+03	1.231821e+03	0	1.461919e-04
1.260000e+09	5.542189e+10	0.000000e+00	5.075377e-01	2.599535e+12	4.622098e+13	3.733301e+13	3.400235e+03	1.707859e+03	1.231214e+03	0	1.460081e-04
1.270000e+09	5.521398e+10	0.000000e+00	5.075377e-01	2.590715e+12	4.600079e+13	3.717594e+13	3.399012e+03	1.707024e+03	1.230612e+03	0	1.458253e-04
1.280000e+09	5.500761e+10	0.000000e+00	5.075377e-01	2.581959e+12	4.578299e+13	3.701990e+13	3.397793e+03	1.706196e+03	1.230015e+03	0	1.456434e-04
1.290000e+09	5.480275e+10	0.000000e+00	5.075377e-01	2.573267e+12	4.556754e+13	3.686489e+13	3.396577e+03	1.705375e+03	1.229423e+03	0	1.454624e-04
1.300000e+09	5.459939e+10	0.000000e+00	5.075377e-01	2.564638e+12	4.535438e+13	3.671089e+13	3.395366e+03	1.704560e+03	1.228836e+03	0	1.452823e-04
1.310000e+09	5.439750e+10	0.000000e+00	5.075377e-01	2.556071e+12	4.514346e+13	3.655791e+13	3.394159e+03	1.703753e+03	1.228254e+03	0	1.451030e-04
1.320000e+09	5.419705e+10	0.000000e+00	5.075377e-01	2.547566e+12	4.493473e+13	3.640592e+13	3.392956e+03	1.702952e+03	1.227676e+03	0	1.449245e-04
1.330000e+09	5.399804e+10	0.000000e+00	5.075377e-01	2.539120e+12	4.472816e+13	3.625493e+13	3.391757e+03	1.702157e+03	1.227103e+03	0	1.447469e-04
1.340000e+09	5.380043e+10	0.000000e+00	5.075377e-01	2.530734e+12	4.452369e+13	3.610493e+13	3.390562e+03	1.701369e+03	1.226535e+03	0	1.445701e-04
1.350000e+09	5.360421e+10	0.000000e+00	5.075377e-01	2.522406e+12	4.432128e+13	3.595590e+13	3.389371e+03	1.700586e+03	1.225971e+03	0	1.443942e-04
1.360000e+09	5.340936e+10	0.000000e+00	5.075377e-01	2.514137e+12	4.412090e+13	3.580785e+13	3.388184e+03	1.699810e+03	1.225411e+03	0	1.442190e-04
