#t		Qconv[W]	Ri[Rp]		R*[Rp]		Qc[W]		Qm[W]		Qr[W]		Tcmb[K]		Tl[K]		Tup[K]		RiFlag		Bs[T]
0.000000e+00	2.282560e+11	0.000000e+00	5.075377e-01	8.893547e+12	1.012810e+15	8.269826e+13	3.934008e+03	2.886422e+03	2.008432e+03	0	2.309328e-04
1.000000e+07	2.309409e+11	0.000000e+00	5.075377e-01	8.992358e+12	8.619415e+14	8.224005e+13	3.930602e+03	2.790912e+03	1.941974e+03	0	2.318348e-04
2.000000e+07	2.305763e+11	0.000000e+00	5.075377e-01	8.978481e+12	7.459536e+14	8.178527e+13	3.927157e+03	2.710349e+03	1.885916e+03	0	2.317127e-04
3.000000e+07	2.284640e+11	0.000000e+00	5.075377e-01	8.900031e+12	6.547509e+14	8.133389e+13	3.923717e+03	2.641392e+03	1.837935e+03	0	2.310030e-04
4.000000e+07	2.253667e+11	0.000000e+00	5.075377e-01	8.785187e+12	5.816356e+14	8.088587e+13	3.920307e+03	2.581636e+03	1.796355e+03	0	2.299543e-04
5.000000e+07	2.217397e+11	0.000000e+00	5.075377e-01	8.650775e+12	5.220319e+14	8.044120e+13	3.916941e+03	2.529303e+03	1.759941e+03	0	2.287140e-04
6.000000e+07	2.178587e+11	0.000000e+00	5.075377e-01	8.506981e+12	4.727300e+14	7.999984e+13	3.913626e+03	2.483054e+03	1.727760e+03	0	2.273718e-04
7.000000e+07	2.138918e+11	0.000000e+00	5.075377e-01	8.360023e+12	4.314256e+14	7.956177e+13	3.910366e+03	2.441858e+03	1.699095e+03	0	2.259833e-04
8.000000e+07	2.099416e+11	0.000000e+00	5.075377e-01	8.213690e+12	3.964297e+14	7.912696e+13	3.907162e+03	2.404909e+03	1.673385e+03	0	2.245835e-04
9.000000e+07	2.060699e+11	0.000000e+00	5.075377e-01	8.070262e+12	3.664810e+14	7.869538e+13	3.904013e+03	2.371567e+03	1.650185e+03	0	2.231943e-04
1.000000e+08	2.023129e+11	0.000000e+00	5.075377e-01	7.931076e+12	3.406219e+14	7.826701e+13	3.900920e+03	2.341317e+03	1.629136e+03	0	2.218296e-04
1.100000e+08	1.986902e+11	0.000000e+00	5.075377e-01	7.796861e+12	3.181147e+14	7.784181e+13	3.897880e+03	2.313740e+03	1.609948e+03	0	2.204975e-04
1.200000e+08	1.952113e+11	0.000000e+00	5.075377e-01	7.667967e+12	2.983827e+14	7.741976e+13	3.894891e+03	2.288490e+03	1.592378e+03	0	2.192031e-04
1.300000e+08	1.918791e+11	0.000000e+00	5.075377e-01	7.544499e+12	2.809703e+14	7.700084e+13	3.891951e+03	2.265281e+03	1.576229e+03	0	2.179487e-04
1.400000e+08	1.886923e+11	0.000000e+00	5.075377e-01	7.426408e+12	2.655130e+14	7.658503e+13	3.889059e+03	2.243872e+03	1.561332e+03	0	2.167353e-04
1.500000e+08	1.856470e+11	0.000000e+00	5.075377e-01	7.313550e+12	2.517164e+14	7.617228e+13	3.886212e+03	2.224059e+03	1.547545e+03	0	2.155630e-04
1.600000e+08	1.827378e+11	0.000000e+00	5.075377e-01	7.205725e+12	2.393405e+14	7.576258e+13	3.883408e+03	2.205668e+03	1.534749e+03	0	2.144311e-04
1.700000e+08	1.799584e+11	0.000000e+00	5.075377e-01	7.102703e+12	2.281878e+14	7.535591e+13	3.880645e+03	2.188552e+03	1.522839e+03	0	2.133384e-04
1.800000e+08	1.773022e+11	0.000000e+00	5.075377e-01	7.004239e+12	2.180947e+14	7.495223e+13	3.877922e+03	2.172582e+03	1.511727e+03	0	2.122836e-04
1.900000e+08	1.747625e+11	0.000000e+00	5.075377e-01	6.910083e+12	2.089247e+14	7.455153e+13	3.875236e+03	2.157647e+03	1.501335e+03	0	2.112651e-04
2.000000e+08	1.723327e+11	0.000000e+00	5.075377e-01	6.819991e+12	2.005628e+14	7.415378e+13	3.872586e+03	2.143649e+03	1.491595e+03	0	2.102814e-04
2.100000e+08	1.700063e+11	0.000000e+00	5.075377e-01	6.733725e+12	1.929119e+14	7.375895e+13	3.869971e+03	2.130503e+03	1.482447e+03	0	2.093309e-04
2.200000e+08	1.677772e+11	0.000000e+00	5.075377e-01	6.651058e+12	1.858892e+14	7.336702e+13	3.867389e+03	2.118134e+03	1.473841e+03	0	2.084120e-04
2.300000e+08	1.656396e+11	0.000000e+00	5.075377e-01	6.571774e+12	1.794240e+14	7.297797e+13	3.864838e+03	2.106475e+03	1.465729e+03	0	2.075231e-04
2.400000e+08	1.635880e+11	0.000000e+00	5.075377e-01	6.495671e+12	1.734556e+14	7.259177e+13	3.862318e+03	2.095469e+03	1.458070e+03	0	2.066627e-04
2.500000e+08	1.616171e+11	0.000000e+00	5.075377e-01	6.422556e+12	1.679311e+14	7.220840e+13	3.859827e+03	2.085061e+03	1.450828e+03	0	2.058294e-04
2.600000e+08	1.597223e+11	0.000000e+00	5.075377e-01	6.352253e+12	1.628051e+14	7.182783e+13	3.857364e+03	2.075205e+03	1.443970e+03	0	2.050218e-04
2.700000e+08	1.578989e+11	0.000000e+00	5.075377e-01	6.284594e+12	1.580376e+14	7.145005e+13	3.854928e+03	2.065860e+03	1.437467e+03	0	2.042387e-04
2.800000e+08	1.561428e+11	0.000000e+00	5.075377e-01	6.219424e+12	1.535939e+14	7.107502e+13	3.852517e+03	2.056985e+03	1.431292e+03	0	2.034787e-04
2.900000e+08	1.544500e+11	0.000000e+00	5.075377e-01	6.156598e+12	1.494433e+14	7.070273e+13	3.850132e+03	2.048549e+03	1.425422e+03	0	2.027407e-04
3.000000e+08	1.528170e+11	0.000000e+00	5.075377e-01	6.095981e+12	1.455587e+14	7.033316e+13	3.847771e+03	2.040518e+03	1.419834e+03	0	2.020236e-04
3.100000e+08	1.512402e+11	0.000000e+00	5.075377e-01	6.037447e+12	1.419164e+14	6.996628e+13	3.845433e+03	2.032865e+03	1.414509e+03	0	2.013264e-04
3.200000e+08	1.497166e+11	0.000000e+00	5.075377e-01	5.980879e+12	1.384951e+14	6.960207e+13	3.843117e+03	2.025565e+03	1.409430e+03	0	2.006481e-04
3.300000e+08	1.482432e+11	0.000000e+00	5.075377e-01	5.926168e+12	1.352758e+14	6.924050e+13	3.840823e+03	2.018594e+03	1.404579e+03	0	1.999877e-04
3.400000e+08	1.468173e+11	0.000000e+00	5.075377e-01	5.873213e+12	1.322418e+14	6.888157e+13	3.838550e+03	2.011930e+03	1.399942e+03	0	1.993444e-04
3.500000e+08	1.454362e+11	0.000000e+00	5.075377e-01	5.821918e+12	1.293780e+14	6.852523e+13	3.836297e+03	2.005554e+03	1.395505e+03	0	1.987174e-04
3.600000e+08	1.440976e+11	0.000000e+00	5.075377e-01	5.772197e+12	1.266706e+14	6.817148e+13	3.834064e+03	1.999447e+03	1.391256e+03	0	1.981058e-04
3.700000e+08	1.427993e+11	0.000000e+00	5.075377e-01	5.723965e+12	1.241077e+14	6.782029e+13	3.831850e+03	1.993594e+03	1.387183e+03	0	1.975090e-04
3.800000e+08	1.415391e+11	0.000000e+00	5.075377e-01	5.677146e+12	1.216781e+14	6.747165e+13	3.829654e+03	1.987978e+03	1.383276e+03	0	1.969263e-04
3.900000e+08	1.403152e+11	0.000000e+00	5.075377e-01	5.631668e+12	1.193718e+14	6.712552e+13	3.827476e+03	1.982586e+03	1.379524e+03	0	1.963571e-04
4.000000e+08	1.391258e+11	0.000000e+00	5.075377e-01	5.587464e+12	1.171800e+14	6.678189e+13	3.825316e+03	1.977405e+03	1.375919e+03	0	1.958007e-04
4.100000e+08	1.379690e+11	0.000000e+00	5.075377e-01	5.544470e+12	1.150942e+14	6.644074e+13	3.823173e+03	1.972423e+03	1.372452e+03	0	1.952565e-04
4.200000e+08	1.368433e+11	0.000000e+00	5.075377e-01	5.502628e+12	1.131072e+14	6.610205e+13	3.821046e+03	1.967628e+03	1.369116e+03	0	1.947240e-04
4.300000e+08	1.357473e+11	0.000000e+00	5.075377e-01	5.461882e+12	1.112121e+14	6.576580e+13	3.818935e+03	1.963010e+03	1.365903e+03	0	1.942027e-04
4.400000e+08	1.346794e+11	0.000000e+00	5.075377e-01	5.422181e+12	1.094026e+14	6.543197e+13	3.816840e+03	1.958560e+03	1.362806e+03	0	1.936922e-04
4.500000e+08	1.336385e+11	0.000000e+00	5.075377e-01	5.383476e+12	1.076731e+14	6.510054e+13	3.814760e+03	1.954268e+03	1.359820e+03	0	1.931919e-04
4.600000e+08	1.326232e+11	0.000000e+00	5.075377e-01	5.345720e+12	1.060185e+14	6.477148e+13	3.812694e+03	1.950126e+03	1.356938e+03	0	1.927014e-04
4.700000e+08	1.316325e+11	0.000000e+00	5.075377e-01	5.308871e+12	1.044338e+14	6.444479e+13	3.810644e+03	1.946126e+03	1.354154e+03	0	1.922203e-04
4.800000e+08	1.306651e+11	0.000000e+00	5.075377e-01	5.272889e+12	1.029147e+14	6.412044e+13	3.808607e+03	1.942261e+03	1.351465e+03	0	1.917483e-04
4.900000e+08	1.297201e+11	0.000000e+00	5.075377e-01	5.237734e+12	1.014571e+14	6.379841e+13	3.806584e+03	1.938524e+03	1.348865e+03	0	1.912849e-04
5.000000e+08	1.287965e+11	0.000000e+00	5.075377e-01	5.203373e+12	1.000574e+14	6.347868e+13	3.804575e+03	1.934909e+03	1.346349e+03	0	1.908299e-04
5.100000e+08	1.278934e+11	0.000000e+00	5.075377e-01	5.169769e+12	9.871203e+13	6.316124e+13	3.802579e+03	1.931409e+03	1.343914e+03	0	1.903828e-04
5.200000e+08	1.270099e+11	0.000000e+00	5.075377e-01	5.136892e+12	9.741780e+13	6.284606e+13	3.800595e+03	1.928020e+03	1.341555e+03	0	1.899434e-04
5.300000e+08	1.261452e+11	0.000000e+00	5.075377e-01	5.104712e+12	9.617179e+13	6.253313e+13	3.798624e+03	1.924735e+03	1.339270e+03	0	1.895114e-04
5.400000e+08	1.252986e+11	0.000000e+00	5.075377e-01	5.073199e+12	9.497124e+13	6.222243e+13	3.796666e+03	1.921549e+03	1.337053e+03	0	1.890864e-04
5.500000e+08	1.244692e+11	0.000000e+00	5.075377e-01	5.042327e+12	9.381360e+13	6.191393e+13	3.794720e+03	1.918459e+03	1.334903e+03	0	1.886683e-04
5.600000e+08	1.236565e+11	0.000000e+00	5.075377e-01	5.012071e+12	9.269652e+13	6.160764e+13	3.792785e+03	1.915459e+03	1.332816e+03	0	1.882568e-04
5.700000e+08	1.228597e+11	0.000000e+00	5.075377e-01	4.982405e+12	9.161779e+13	6.130351e+13	3.790862e+03	1.912546e+03	1.330789e+03	0	1.878516e-04
5.800000e+08	1.220783e+11	0.000000e+00	5.075377e-01	4.953308e+12	9.057537e+13	6.100155e+13	3.788950e+03	1.909715e+03	1.328819e+03	0	1.874525e-04
5.900000e+08	1.213116e+11	0.000000e+00	5.075377e-01	4.924758e+12	8.956734e+13	6.070173e+13	3.787050e+03	1.906963e+03	1.326904e+03	0	1.870592e-04
6.000000e+08	1.205592e+11	0.000000e+00	5.075377e-01	4.896734e+12	8.859191e+13	6.040402e+13	3.785160e+03	1.904287e+03	1.325042e+03	0	1.866717e-04
6.100000e+08	1.198204e+11	0.000000e+00	5.075377e-01	4.869216e+12	8.764742e+13	6.010843e+13	3.783282e+03	1.901682e+03	1.323229e+03	0	1.862896e-04
6.200000e+08	1.190948e+11	0.000000e+00	5.075377e-01	4.842187e+12	8.673231e+13	5.981492e+13	3.781413e+03	1.899147e+03	1.321465e+03	0	1.859128e-04
6.300000e+08	1.183819e+11	0.000000e+00	5.075377e-01	4.815628e+12	8.584511e+13	5.952348e+13	3.779556e+03	1.896677e+03	1.319747e+03	0	1.855411e-04
6.400000e+08	1.176813e+11	0.000000e+00	5.075377e-01	4.789523e+12	8.498447e+13	5.923410e+13	3.777708e+03	1.894270e+03	1.318072e+03	0	1.851743e-04
6.500000e+08	1.169924e+11	0.000000e+00	5.075377e-01	4.763856e+12	8.414910e+13	5.894676e+13	3.775870e+03	1.891924e+03	1.316440e+03	0	1.848123e-04
6.600000e+08	1.163150e+11	0.000000e+00	5.075377e-01	4.738612e+12	8.333778e+13	5.866144e+13	3.774042e+03	1.889636e+03	1.314848e+03	0	1.844549e-04
6.700000e+08	1.156486e+11	0.000000e+00	5.075377e-01	4.713776e+12	8.254940e+13	5.837813e+13	3.772224e+03	1.887404e+03	1.313294e+03	0	1.841020e-04
6.800000e+08	1.149929e+11	0.000000e+00	5.075377e-01	4.689334e+12	8.178289e+13	5.809681e+13	3.770416e+03	1.885225e+03	1.311778e+03	0	1.837533e-04
6.900000e+08	1.143474e+11	0.000000e+00	5.075377e-01	4.665275e+12	8.103724e+13	5.781746e+13	3.768616e+03	1.883097e+03	1.310297e+03	0	1.834089e-04
7.000000e+08	1.137119e+11	0.000000e+00	5.075377e-01	4.641584e+12	8.031152e+13	5.754006e+13	3.766826e+03	1.881018e+03	1.308851e+03	0	1.830685e-04
7.100000e+08	1.130861e+11	0.000000e+00	5.075377e-01	4.618250e+12	7.960483e+13	5.726461e+13	3.765045e+03	1.878986e+03	1.307437e+03	0	1.827320e-04
7.200000e+08	1.124695e+11	0.000000e+00	5.075377e-01	4.595263e+12	7.891634e+13	5.699109e+13	3.763273e+03	1.877000e+03	1.306055e+03	0	1.823993e-04
7.300000e+08	1.118620e+11	0.000000e+00	5.075377e-01	4.572610e+12	7.824526e+13	5.671948e+13	3.761510e+03	1.875057e+03	1.304703e+03	0	1.820703e-04
7.400000e+08	1.112633e+11	0.000000e+00	5.075377e-01	4.550282e+12	7.759084e+13	5.644976e+13	3.759755e+03	1.873156e+03	1.303381e+03	0	1.817449e-04
7.500000e+08	1.106731e+11	0.000000e+00	5.075377e-01	4.528268e+12	7.695237e+13	5.618192e+13	3.758009e+03	1.871296e+03	1.302086e+03	0	1.814230e-04
7.600000e+08	1.100911e+11	0.000000e+00	5.075377e-01	4.506560e+12	7.632920e+13	5.591595e+13	3.756272e+03	1.869474e+03	1.300818e+03	0	1.811044e-04
7.700000e+08	1.095171e+11	0.000000e+00	5.075377e-01	4.485148e+12	7.572068e+13	5.565183e+13	3.754542e+03	1.867690e+03	1.299577e+03	0	1.807891e-04
7.800000e+08	1.089508e+11	0.000000e+00	5.075377e-01	4.464024e+12	7.512622e+13	5.538955e+13	3.752821e+03	1.865941e+03	1.298360e+03	0	1.804770e-04
7.900000e+08	1.083921e+11	0.000000e+00	5.075377e-01	4.443178e+12	7.454525e+13	5.512909e+13	3.751108e+03	1.864227e+03	1.297167e+03	0	1.801679e-04
8.000000e+08	1.078407e+11	0.000000e+00	5.075377e-01	4.422604e+12	7.397725e+13	5.487043e+13	3.749403e+03	1.862547e+03	1.295998e+03	0	1.798619e-04
8.100000e+08	1.072963e+11	0.000000e+00	5.075377e-01	4.402294e+12	7.342169e+13	5.461357e+13	3.747706e+03	1.860898e+03	1.294851e+03	0	1.795588e-04
8.200000e+08	1.067590e+11	0.000000e+00	5.075377e-01	4.382240e+12	7.287810e+13	5.435848e+13	3.746017e+03	1.859281e+03	1.293726e+03	0	1.792585e-04
8.300000e+08	1.062283e+11	0.000000e+00	5.075377e-01	4.362435e+12	7.234601e+13	5.410516e+13	3.744335e+03	1.857693e+03	1.292621e+03	0	1.789610e-04
8.400000e+08	1.057042e+11	0.000000e+00	5.075377e-01	4.342873e+12	7.182500e+13	5.385359e+13	3.742661e+03	1.856135e+03	1.291536e+03	0	1.786662e-04
8.500000e+08	1.051864e+11	0.000000e+00	5.075377e-01	4.323547e+12	7.131464e+13	5.360375e+13	3.740995e+03	1.854604e+03	1.290471e+03	0	1.783740e-04
8.600000e+08	1.046749e+11	0.000000e+00	5.075377e-01	4.304451e+12	7.081455e+13	5.335564e+13	3.739336e+03	1.853100e+03	1.289425e+03	0	1.780843e-04
8.700000e+08	1.041693e+11	0.000000e+00	5.075377e-01	4.285579e+12	7.032434e+13	5.310923e+13	3.737684e+03	1.851622e+03	1.288396e+03	0	1.777972e-04
8.800000e+08	1.036697e+11	0.000000e+00	5.075377e-01	4.266926e+12	6.984367e+13	5.286452e+13	3.736039e+03	1.850169e+03	1.287385e+03	0	1.775125e-04
8.900000e+08	1.031758e+11	0.000000e+00	5.075377e-01	4.248485e+12	6.937219e+13	5.262149e+13	3.734402e+03	1.848740e+03	1.286391e+03	0	1.772301e-04
9.000000e+08	1.026875e+11	0.000000e+00	5.075377e-01	4.230251e+12	6.890959e+13	5.238012e+13	3.732772e+03	1.847334e+03	1.285413e+03	0	1.769501e-04
9.100000e+08	1.022046e+11	0.000000e+00	5.075377e-01	4.212220e+12	6.845554e+13	5.214042e+13	3.731148e+03	1.845952e+03	1.284451e+03	0	1.766723e-04
9.200000e+08	1.017271e+11	0.000000e+00	5.075377e-01	4.194387e+12	6.800976e+13	5.190235e+13	3.729532e+03	1.844591e+03	1.283504e+03	0	1.763967e-04
9.300000e+08	1.012548e+11	0.000000e+00	5.075377e-01	4.176746e+12	6.757196e+13	5.166591e+13	3.727922e+03	1.843251e+03	1.282572e+03	0	1.761233e-04
9.400000e+08	1.007875e+11	0.000000e+00	5.075377e-01	4.159294e+12	6.714189e+13	5.143109e+13	3.726319e+03	1.841932e+03	1.281654e+03	0	1.758520e-04
9.500000e+08	1.003252e+11	0.000000e+00	5.075377e-01	4.142025e+12	6.671927e+13	5.119787e+13	3.724723e+03	1.840633e+03	1.280750e+03	0	1.755827e-04
9.600000e+08	9.986777e+10	0.000000e+00	5.075377e-01	4.124936e+12	6.630388e+13	5.096624e+13	3.723134e+03	1.839352e+03	1.279859e+03	0	1.753154e-04
9.700000e+08	9.941504e+10	0.000000e+00	5.075377e-01	4.108023e+12	6.589546e+13	5.073619e+13	3.721551e+03	1.838091e+03	1.278981e+03	0	1.750501e-04
9.800000e+08	9.896694e+10	0.000000e+00	5.075377e-01	4.091281e+12	6.549381e+13	5.050770e+13	3.719974e+03	1.836847e+03	1.278116e+03	0	1.747867e-04
9.900000e+08	9.852336e+10	0.000000e+00	5.075377e-01	4.074707e+12	6.509870e+13	5.028077e+13	3.718404e+03	1.835621e+03	1.277263e+03	0	1.745252e-04
1.000000e+09	9.808421e+10	0.000000e+00	5.075377e-01	4.058298e+12	6.470994e+13	5.005538e+13	3.716840e+03	1.834412e+03	1.276421e+03	0	1.742655e-04
1.010000e+09	9.764938e+10	0.000000e+00	5.075377e-01	4.042049e+12	6.432732e+13	4.983151e+13	3.715283e+03	1.833219e+03	1.275591e+03	0	1.740076e-04
1.020000e+09	9.721880e+10	0.000000e+00	5.075377e-01	4.025958e+12	6.395067e+13	4.960917e+13	3.713732e+03	1.832042e+03	1.274772e+03	0	1.737514e-04
1.030000e+09	9.679236e+10	0.000000e+00	5.075377e-01	4.010020e+12	6.357979e+13	4.938832e+13	3.712186e+03	1.830881e+03	1.273964e+03	0	1.734970e-04
1.040000e+09	9.636999e+10	0.000000e+00	5.075377e-01	3.994234e+12	6.321452e+13	4.916897e+13	3.710648e+03	1.829734e+03	1.273167e+03	0	1.732443e-04
1.050000e+09	9.595159e+10	0.000000e+00	5.075377e-01	3.978595e+12	6.285469e+13	4.895111e+13	3.709115e+03	1.828602e+03	1.272379e+03	0	1.729932e-04
1.060000e+09	9.553710e+10	0.000000e+00	5.075377e-01	3.963101e+12	6.250015e+13	4.873471e+13	3.707588e+03	1.827485e+03	1.271601e+03	0	1.727437e-04
1.070000e+09	9.512643e+10	0.000000e+00	5.075377e-01	3.947749e+12	6.215073e+13	4.851976e+13	3.706067e+03	1.826380e+03	1.270833e+03	0	1.724959e-04
1.080000e+09	9.471951e+10	0.000000e+00	5.075377e-01	3.932536e+12	6.180631e+13	4.830627e+13	3.704552e+03	1.825290e+03	1.270074e+03	0	1.722496e-04
1.090000e+09	9.431626e+10	0.000000e+00	5.075377e-01	3.917460e+12	6.146673e+13	4.809421e+13	3.703042e+03	1.824212e+03	1.269324e+03	0	1.720048e-04
1.100000e+09	9.391662e+10	0.000000e+00	5.075377e-01	3.902517e+12	6.113186e+13	4.788357e+13	3.701539e+03	1.823146e+03	1.268582e+03	0	1.717615e-04
1.110000e+09	9.352051e+10	0.000000e+00	5.075377e-01	3.887706e+12	6.080158e+13	4.767435e+13	3.700041e+03	1.822093e+03	1.267850e+03	0	1.715197e-04
1.120000e+09	9.312787e+10	0.000000e+00	5.075377e-01	3.873024e+12	6.047575e+13	4.746653e+13	3.698549e+03	1.821052e+03	1.267125e+03	0	1.712793e-04
1.130000e+09	9.273864e+10	0.000000e+00	5.075377e-01	3.858468e+12	6.015426e+13	4.726010e+13	3.697063e+03	1.820022e+03	1.266409e+03	0	1.710403e-04
1.140000e+09	9.235276e+10	0.000000e+00	5.075377e-01	3.844036e+12	5.983700e+13	4.705504e+13	3.695582e+03	1.819004e+03	1.265700e+03	0	1.708028e-04
1.150000e+09	9.197015e+10	0.000000e+00	5.075377e-01	3.829727e+12	5.952386e+13	4.685136e+13	3.694107e+03	1.817996e+03	1.264999e+03	0	1.705666e-04
1.160000e+09	9.159078e+10	0.000000e+00	5.075377e-01	3.815537e+12	5.921472e+13	4.664904e+13	3.692637e+03	1.816999e+03	1.264305e+03	0	1.703317e-04
1.170000e+09	9.121457e+10	0.000000e+00	5.075377e-01	3.801465e+12	5.890949e+13	4.644806e+13	3.691172e+03	1.816013e+03	1.263619e+03	0	1.700982e-04
1.180000e+09	9.084148e+10	0.000000e+00	5.075377e-01	3.787509e+12	5.860806e+13	4.624843e+13	3.689713e+03	1.815036e+03	1.262939e+03	0	1.698660e-04
1.190000e+09	9.047145e+10	0.000000e+00	5.075377e-01	3.773667e+12	5.831035e+13	4.605011e+13	3.688260e+03	1.814070e+03	1.262267e+03	0	1.696350e-04
1.200000e+09	9.010443e+10	0.000000e+00	5.075377e-01	3.759936e+12	5.801626e+13	4.585312e+13	3.686811e+03	1.813113e+03	1.261601e+03	0	1.694053e-04
1.210000e+09	8.974037e+10	0.000000e+00	5.075377e-01	3.746315e+12	5.772570e+13	4.565743e+13	3.685368e+03	1.812165e+03	1.260942e+03	0	1.691768e-04
1.220000e+09	8.937922e+10	0.000000e+00	5.075377e-01	3.732803e+12	5.743859e+13	4.546304e+13	3.683930e+03	1.811227e+03	1.260288e+03	0	1.689496e-04
1.230000e+09	8.902093e+10	0.000000e+00	5.075377e-01	3.719396e+12	5.715485e+13	4.526993e+13	3.682498e+03	1.810297e+03	1.259642e+03	0	1.687235e-04
1.240000e+09	8.866546e+10	0.000000e+00	5.075377e-01	3.706095e+12	5.687439e+13	4.507810e+13	3.681070e+03	1.809376e+03	1.259001e+03	0	1.684987e-04
1.250000e+09	8.831276e+10	0.000000e+00	5.075377e-01	3.692896e+12	5.659715e+13	4.488754e+13	3.679648e+03	1.808463e+03	1.258366e+03	0	1.682749e-04
1.260000e+09	8.796278e+10	0.000000e+00	5.075377e-01	3.679799e+12	5.632304e+13	4.469823e+13	3.678230e+03	1.807559e+03	1.257736e+03	0	1.680524e-04
1.270000e+09	8.761550e+10	0.000000e+00	5.075377e-01	3.666802e+12	5.605200e+13	4.451017e+13	3.676818e+03	1.806662e+03	1.257112e+03	0	1.678309e-04
1.280000e+09	8.727086e+10	0.000000e+00	5.075377e-01	3.653903e+12	5.578396e+13	4.432335e+13	3.675411e+03	1.805774e+03	1.256494e+03	0	1.676106e-04
1.290000e+09	8.692882e+10	0.000000e+00	5.075377e-01	3.641101e+12	5.551885e+13	4.413776e+13	3.674008e+03	1.804893e+03	1.255881e+03	0	1.673913e-04
1.300000e+09	8.658935e+10	0.000000e+00	5.075377e-01	3.628394e+12	5.525661e+13	4.395338e+13	3.672611e+03	1.804019e+03	1.255273e+03	0	1.671731e-04
1.310000e+09	8.625240e+10	0.000000e+00	5.075377e-01	3.615781e+12	5.499718e+13	4.377021e+13	3.671218e+03	1.803153e+03	1.254671e+03	0	1.669560e-04
1.320000e+09	8.591795e+10	0.000000e+00	5.075377e-01	3.603261e+12	5.474049e+13	4.358824e+13	3.669830e+03	1.802294e+03	1.254073e+03	0	1.667399e-04
1.330000e+09	8.558595e+10	0.000000e+00	5.075377e-01	3.590832e+12	5.448649e+13	4.340747e+13	3.668447e+03	1.801442e+03	1.253480e+03	0	1.665249e-04
1.340000e+09	8.525636e+10	0.000000e+00	5.075377e-01	3.578493e+12	5.423512e+13	4.322787e+13	3.667069e+03	1.800597e+03	1.252892e+03	0	1.663108e-04
1.350000e+09	8.492916e+10	0.000000e+00	5.075377e-01	3.566242e+12	5.398633e+13	4.304944e+13	3.665696e+03	1.799758e+03	1.252308e+03	0	1.660978e-04
1.360000e+09	8.460431e+10	0.000000e+00	5.075377e-01	3.554079e+12	5.374006e+13	4.287218e+13	3.664327e+03	1.798926e+03	1.251730e+03	0	1.658858e-04
