#t		Qconv[W]	Ri[Rp]		R*[Rp]		Qc[W]		Qm[W]		Qr[W]		Tcmb[K]		Tl[K]		Tup[K]		RiFlag		Bs[T]
0.000000e+00	5.147860e+11	0.000000e+00	5.025125e-01	1.679008e+13	1.339785e+15	1.104179e+14	4.557414e+03	3.176554e+03	2.069029e+03	0	2.988175e-04
1.000000e+07	5.125286e+11	0.000000e+00	5.025125e-01	1.671959e+13	1.151367e+15	1.098061e+14	4.552631e+03	3.078823e+03	2.005373e+03	0	2.983801e-04
2.000000e+07	5.064588e+11	0.000000e+00	5.025125e-01	1.653172e+13	1.004440e+15	1.091989e+14	4.547867e+03	2.995616e+03	1.951177e+03	0	2.971975e-04
3.000000e+07	4.983301e+11	0.000000e+00	5.025125e-01	1.628047e+13	8.875088e+14	1.085962e+14	4.543156e+03	2.923834e+03	1.904422e+03	0	2.955989e-04
4.000000e+07	4.891655e+11	0.000000e+00	5.025125e-01	1.599734e+13	7.927962e+14	1.079980e+14	4.538516e+03	2.861207e+03	1.863630e+03	0	2.937756e-04
5.000000e+07	4.795698e+11	0.000000e+00	5.025125e-01	1.570096e+13	7.148956e+14	1.074043e+14	4.533956e+03	2.806039e+03	1.827696e+03	0	2.918420e-04
6.000000e+07	4.699022e+11	0.000000e+00	5.025125e-01	1.540237e+13	6.499576e+14	1.068150e+14	4.529480e+03	2.757033e+03	1.795777e+03	0	2.898676e-04
7.000000e+07	4.603746e+11	0.000000e+00	5.025125e-01	1.510812e+13	5.951821e+14	1.062301e+14	4.525090e+03	2.713181e+03	1.767214e+03	0	2.878951e-04
8.000000e+07	4.511091e+11	0.000000e+00	5.025125e-01	1.482195e+13	5.484925e+14	1.056495e+14	4.520783e+03	2.673691e+03	1.741492e+03	0	2.859506e-04
9.000000e+07	4.421729e+11	0.000000e+00	5.025125e-01	1.454594e+13	5.083221e+14	1.050733e+14	4.516557e+03	2.637924e+03	1.718196e+03	0	2.840498e-04
1.000000e+08	4.335986e+11	0.000000e+00	5.025125e-01	1.428108e+13	4.734706e+14	1.045013e+14	4.512409e+03	2.605366e+03	1.696989e+03	0	2.822018e-04
1.100000e+08	4.253976e+11	0.000000e+00	5.025125e-01	1.402774e+13	4.430053e+14	1.039336e+14	4.508337e+03	2.575593e+03	1.677597e+03	0	2.804113e-04
1.200000e+08	4.175683e+11	0.000000e+00	5.025125e-01	1.378586e+13	4.161921e+14	1.033701e+14	4.504337e+03	2.548257e+03	1.659792e+03	0	2.786803e-04
1.300000e+08	4.101012e+11	0.000000e+00	5.025125e-01	1.355514e+13	3.924467e+14	1.028107e+14	4.500406e+03	2.523063e+03	1.643382e+03	0	2.770092e-04
1.400000e+08	4.029820e+11	0.000000e+00	5.025125e-01	1.333514e+13	3.712990e+14	1.022555e+14	4.496540e+03	2.499767e+03	1.628208e+03	0	2.753969e-04
1.500000e+08	3.961942e+11	0.000000e+00	5.025125e-01	1.312537e+13	3.523672e+14	1.017044e+14	4.492737e+03	2.478158e+03	1.614134e+03	0	2.738419e-04
1.600000e+08	3.897199e+11	0.000000e+00	5.025125e-01	1.292526e+13	3.353383e+14	1.011574e+14	4.488993e+03	2.458059e+03	1.601042e+03	0	2.723420e-04
1.700000e+08	3.835414e+11	0.000000e+00	5.025125e-01	1.273426e+13	3.199538e+14	1.006144e+14	4.485307e+03	2.439313e+03	1.588832e+03	0	2.708951e-04
1.800000e+08	3.776408e+11	0.000000e+00	5.025125e-01	1.255184e+13	3.059983e+14	1.000755e+14	4.481675e+03	2.421789e+03	1.577418e+03	0	2.694988e-04
1.900000e+08	3.720013e+11	0.000000e+00	5.025125e-01	1.237746e+13	2.932915e+14	9.954044e+13	4.478094e+03	2.405370e+03	1.566724e+03	0	2.681505e-04
2.000000e+08	3.666064e+11	0.000000e+00	5.025125e-01	1.221063e+13	2.816810e+14	9.900937e+13	4.474564e+03	2.389955e+03	1.556683e+03	0	2.668479e-04
2.100000e+08	3.614410e+11	0.000000e+00	5.025125e-01	1.205087e+13	2.710376e+14	9.848219e+13	4.471081e+03	2.375454e+03	1.547238e+03	0	2.655887e-04
2.200000e+08	3.564907e+11	0.000000e+00	5.025125e-01	1.189774e+13	2.612509e+14	9.795889e+13	4.467643e+03	2.361788e+03	1.538336e+03	0	2.643706e-04
2.300000e+08	3.517420e+11	0.000000e+00	5.025125e-01	1.175083e+13	2.522262e+14	9.743943e+13	4.464249e+03	2.348887e+03	1.529934e+03	0	2.631915e-04
2.400000e+08	3.471824e+11	0.000000e+00	5.025125e-01	1.160976e+13	2.438817e+14	9.692378e+13	4.460896e+03	2.336689e+03	1.521989e+03	0	2.620493e-04
2.500000e+08	3.428004e+11	0.000000e+00	5.025125e-01	1.147415e+13	2.361467e+14	9.641191e+13	4.457584e+03	2.325139e+03	1.514465e+03	0	2.609422e-04
2.600000e+08	3.385850e+11	0.000000e+00	5.025125e-01	1.134369e+13	2.289596e+14	9.590378e+13	4.454311e+03	2.314186e+03	1.507331e+03	0	2.598682e-04
2.700000e+08	3.345264e+11	0.000000e+00	5.025125e-01	1.121806e+13	2.222665e+14	9.539937e+13	4.451074e+03	2.303785e+03	1.500557e+03	0	2.588256e-04
2.800000e+08	3.306151e+11	0.000000e+00	5.025125e-01	1.109697e+13	2.160202e+14	9.489864e+13	4.447874e+03	2.293897e+03	1.494116e+03	0	2.578129e-04
2.900000e+08	3.268425e+11	0.000000e+00	5.025125e-01	1.098016e+13	2.101791e+14	9.440157e+13	4.444708e+03	2.284484e+03	1.487985e+03	0	2.568286e-04
3.000000e+08	3.232007e+11	0.000000e+00	5.025125e-01	1.086739e+13	2.047064e+14	9.390812e+13	4.441575e+03	2.275513e+03	1.482142e+03	0	2.558711e-04
3.100000e+08	3.196822e+11	0.000000e+00	5.025125e-01	1.075841e+13	1.995695e+14	9.341826e+13	4.438474e+03	2.266955e+03	1.476567e+03	0	2.549392e-04
3.200000e+08	3.162800e+11	0.000000e+00	5.025125e-01	1.065303e+13	1.947396e+14	9.293197e+13	4.435404e+03	2.258780e+03	1.471243e+03	0	2.540316e-04
3.300000e+08	3.129878e+11	0.000000e+00	5.025125e-01	1.055104e+13	1.901906e+14	9.244921e+13	4.432365e+03	2.250966e+03	1.466153e+03	0	2.531471e-04
3.400000e+08	3.097996e+11	0.000000e+00	5.025125e-01	1.045225e+13	1.858995e+14	9.196996e+13	4.429354e+03	2.243487e+03	1.461282e+03	0	2.522846e-04
3.500000e+08	3.067098e+11	0.000000e+00	5.025125e-01	1.035651e+13	1.818457e+14	9.149419e+13	4.426371e+03	2.236324e+03	1.456616e+03	0	2.514431e-04
3.600000e+08	3.037132e+11	0.000000e+00	5.025125e-01	1.026363e+13	1.780103e+14	9.102187e+13	4.423416e+03	2.229457e+03	1.452144e+03	0	2.506215e-04
3.700000e+08	3.008050e+11	0.000000e+00	5.025125e-01	1.017349e+13	1.743767e+14	9.055296e+13	4.420487e+03	2.222868e+03	1.447852e+03	0	2.498190e-04
3.800000e+08	2.979806e+11	0.000000e+00	5.025125e-01	1.008593e+13	1.709297e+14	9.008745e+13	4.417584e+03	2.216540e+03	1.443730e+03	0	2.490347e-04
3.900000e+08	2.952359e+11	0.000000e+00	5.025125e-01	1.000083e+13	1.676554e+14	8.962531e+13	4.414706e+03	2.210459e+03	1.439769e+03	0	2.482677e-04
4.000000e+08	2.925670e+11	0.000000e+00	5.025125e-01	9.918062e+12	1.645415e+14	8.916650e+13	4.411852e+03	2.204610e+03	1.435960e+03	0	2.475173e-04
4.100000e+08	2.899701e+11	0.000000e+00	5.025125e-01	9.837520e+12	1.615765e+14	8.871100e+13	4.409022e+03	2.198980e+03	1.432292e+03	0	2.467828e-04
4.200000e+08	2.874417e+11	0.000000e+00	5.025125e-01	9.759094e+12	1.587502e+14	8.825879e+13	4.406214e+03	2.193557e+03	1.428760e+03	0	2.460634e-04
4.300000e+08	2.849787e+11	0.000000e+00	5.025125e-01	9.682685e+12	1.560531e+14	8.780983e+13	4.403429e+03	2.188330e+03	1.425356e+03	0	2.453586e-04
4.400000e+08	2.825780e+11	0.000000e+00	5.025125e-01	9.608198e+12	1.534767e+14	8.736410e+13	4.400666e+03	2.183288e+03	1.422072e+03	0	2.446677e-04
4.500000e+08	2.802367e+11	0.000000e+00	5.025125e-01	9.535547e+12	1.510129e+14	8.692157e+13	4.397924e+03	2.178422e+03	1.418902e+03	0	2.439901e-04
4.600000e+08	2.779522e+11	0.000000e+00	5.025125e-01	9.464647e+12	1.486546e+14	8.648222e+13	4.395202e+03	2.173722e+03	1.415841e+03	0	2.433253e-04
4.700000e+08	2.757220e+11	0.000000e+00	5.025125e-01	9.395422e+12	1.463950e+14	8.604602e+13	4.392501e+03	2.169179e+03	1.412882e+03	0	2.426727e-04
4.800000e+08	2.735436e+11	0.000000e+00	5.025125e-01	9.327799e+12	1.442281e+14	8.561295e+13	4.389820e+03	2.164787e+03	1.410021e+03	0	2.420319e-04
4.900000e+08	2.714149e+11	0.000000e+00	5.025125e-01	9.261708e+12	1.421482e+14	8.518298e+13	4.387157e+03	2.160537e+03	1.407253e+03	0	2.414025e-04
5.000000e+08	2.693338e+11	0.000000e+00	5.025125e-01	9.197086e+12	1.401501e+14	8.475608e+13	4.384514e+03	2.156423e+03	1.404573e+03	0	2.407839e-04
5.100000e+08	2.672982e+11	0.000000e+00	5.025125e-01	9.133869e+12	1.382290e+14	8.433223e+13	4.381889e+03	2.152437e+03	1.401977e+03	0	2.401757e-04
5.200000e+08	2.653063e+11	0.000000e+00	5.025125e-01	9.072002e+12	1.363803e+14	8.391141e+13	4.379282e+03	2.148574e+03	1.399461e+03	0	2.395777e-04
5.300000e+08	2.633563e+11	0.000000e+00	5.025125e-01	9.011429e+12	1.346000e+14	8.349359e+13	4.376693e+03	2.144828e+03	1.397021e+03	0	2.389893e-04
5.400000e+08	2.614465e+11	0.000000e+00	5.025125e-01	8.952098e+12	1.328842e+14	8.307874e+13	4.374121e+03	2.141194e+03	1.394654e+03	0	2.384102e-04
5.500000e+08	2.595754e+11	0.000000e+00	5.025125e-01	8.893962e+12	1.312294e+14	8.266685e+13	4.371566e+03	2.137666e+03	1.392356e+03	0	2.378401e-04
5.600000e+08	2.577415e+11	0.000000e+00	5.025125e-01	8.836972e+12	1.296322e+14	8.225789e+13	4.369027e+03	2.134239e+03	1.390124e+03	0	2.372786e-04
5.700000e+08	2.559433e+11	0.000000e+00	5.025125e-01	8.781087e+12	1.280896e+14	8.185182e+13	4.366505e+03	2.130909e+03	1.387955e+03	0	2.367255e-04
5.800000e+08	2.541795e+11	0.000000e+00	5.025125e-01	8.726264e+12	1.265986e+14	8.144864e+13	4.363998e+03	2.127672e+03	1.385846e+03	0	2.361805e-04
5.900000e+08	2.524489e+11	0.000000e+00	5.025125e-01	8.672463e+12	1.251566e+14	8.104832e+13	4.361507e+03	2.124523e+03	1.383795e+03	0	2.356432e-04
6.000000e+08	2.507501e+11	0.000000e+00	5.025125e-01	8.619649e+12	1.237611e+14	8.065083e+13	4.359032e+03	2.121459e+03	1.381800e+03	0	2.351135e-04
6.100000e+08	2.490821e+11	0.000000e+00	5.025125e-01	8.567784e+12	1.224097e+14	8.025616e+13	4.356572e+03	2.118476e+03	1.379857e+03	0	2.345910e-04
6.200000e+08	2.474437e+11	0.000000e+00	5.025125e-01	8.516836e+12	1.211002e+14	7.986427e+13	4.354126e+03	2.115571e+03	1.377965e+03	0	2.340755e-04
6.300000e+08	2.458340e+11	0.000000e+00	5.025125e-01	8.466772e+12	1.198305e+14	7.947515e+13	4.351695e+03	2.112740e+03	1.376121e+03	0	2.335668e-04
6.400000e+08	2.442519e+11	0.000000e+00	5.025125e-01	8.417561e+12	1.185988e+14	7.908877e+13	4.349278e+03	2.109981e+03	1.374323e+03	0	2.330647e-04
6.500000e+08	2.426965e+11	0.000000e+00	5.025125e-01	8.369176e+12	1.174033e+14	7.870511e+13	4.346875e+03	2.107290e+03	1.372570e+03	0	2.325689e-04
6.600000e+08	2.411669e+11	0.000000e+00	5.025125e-01	8.321587e+12	1.162421e+14	7.832416e+13	4.344486e+03	2.104664e+03	1.370860e+03	0	2.320793e-04
6.700000e+08	2.396622e+11	0.000000e+00	5.025125e-01	8.274770e+12	1.151138e+14	7.794588e+13	4.342111e+03	2.102101e+03	1.369191e+03	0	2.315956e-04
6.800000e+08	2.381817e+11	0.000000e+00	5.025125e-01	8.228698e+12	1.140168e+14	7.757026e+13	4.339749e+03	2.099599e+03	1.367561e+03	0	2.311177e-04
6.900000e+08	2.367245e+11	0.000000e+00	5.025125e-01	8.183347e+12	1.129496e+14	7.719727e+13	4.337400e+03	2.097155e+03	1.365969e+03	0	2.306455e-04
7.000000e+08	2.352899e+11	0.000000e+00	5.025125e-01	8.138695e+12	1.119111e+14	7.682690e+13	4.335064e+03	2.094766e+03	1.364413e+03	0	2.301786e-04
7.100000e+08	2.338773e+11	0.000000e+00	5.025125e-01	8.094721e+12	1.108998e+14	7.645913e+13	4.332740e+03	2.092431e+03	1.362892e+03	0	2.297170e-04
7.200000e+08	2.324858e+11	0.000000e+00	5.025125e-01	8.051402e+12	1.099147e+14	7.609392e+13	4.330429e+03	2.090148e+03	1.361405e+03	0	2.292605e-04
7.300000e+08	2.311149e+11	0.000000e+00	5.025125e-01	8.008720e+12	1.089546e+14	7.573127e+13	4.328131e+03	2.087914e+03	1.359950e+03	0	2.288090e-04
7.400000e+08	2.297640e+11	0.000000e+00	5.025125e-01	7.966654e+12	1.080184e+14	7.537114e+13	4.325845e+03	2.085728e+03	1.358526e+03	0	2.283623e-04
7.500000e+08	2.284325e+11	0.000000e+00	5.025125e-01	7.925187e+12	1.071051e+14	7.501353e+13	4.323570e+03	2.083588e+03	1.357132e+03	0	2.279203e-04
7.600000e+08	2.271197e+11	0.000000e+00	5.025125e-01	7.884302e+12	1.062138e+14	7.465841e+13	4.321308e+03	2.081492e+03	1.355767e+03	0	2.274829e-04
7.700000e+08	2.258252e+11	0.000000e+00	5.025125e-01	7.843981e+12	1.053436e+14	7.430576e+13	4.319057e+03	2.079438e+03	1.354430e+03	0	2.270499e-04
7.800000e+08	2.245485e+11	0.000000e+00	5.025125e-01	7.804209e+12	1.044937e+14	7.395556e+13	4.316818e+03	2.077426e+03	1.353119e+03	0	2.266212e-04
7.900000e+08	2.232890e+11	0.000000e+00	5.025125e-01	7.764970e+12	1.036632e+14	7.360779e+13	4.314590e+03	2.075453e+03	1.351834e+03	0	2.261967e-04
8.000000e+08	2.220462e+11	0.000000e+00	5.025125e-01	7.726249e+12	1.028513e+14	7.326244e+13	4.312373e+03	2.073519e+03	1.350574e+03	0	2.257763e-04
8.100000e+08	2.208198e+11	0.000000e+00	5.025125e-01	7.688033e+12	1.020574e+14	7.291948e+13	4.310167e+03	2.071621e+03	1.349338e+03	0	2.253598e-04
8.200000e+08	2.196092e+11	0.000000e+00	5.025125e-01	7.650307e+12	1.012808e+14	7.257889e+13	4.307972e+03	2.069759e+03	1.348125e+03	0	2.249472e-04
8.300000e+08	2.184141e+11	0.000000e+00	5.025125e-01	7.613059e+12	1.005207e+14	7.224065e+13	4.305788e+03	2.067931e+03	1.346935e+03	0	2.245384e-04
8.400000e+08	2.172340e+11	0.000000e+00	5.025125e-01	7.576276e+12	9.977668e+13	7.190476e+13	4.303615e+03	2.066137e+03	1.345766e+03	0	2.241333e-04
8.500000e+08	2.160686e+11	0.000000e+00	5.025125e-01	7.539947e+12	9.904800e+13	7.157118e+13	4.301452e+03	2.064374e+03	1.344617e+03	0	2.237318e-04
8.600000e+08	2.149174e+11	0.000000e+00	5.025125e-01	7.504059e+12	9.833414e+13	7.123990e+13	4.299299e+03	2.062642e+03	1.343489e+03	0	2.233337e-04
8.700000e+08	2.137801e+11	0.000000e+00	5.025125e-01	7.468602e+12	9.763457e+13	7.091090e+13	4.297157e+03	2.060940e+03	1.342381e+03	0	2.229391e-04
8.800000e+08	2.126565e+11	0.000000e+00	5.025125e-01	7.433564e+12	9.694878e+13	7.058416e+13	4.295025e+03	2.059267e+03	1.341291e+03	0	2.225478e-04
8.900000e+08	2.115460e+11	0.000000e+00	5.025125e-01	7.398936e+12	9.627628e+13	7.025967e+13	4.292902e+03	2.057622e+03	1.340220e+03	0	2.221598e-04
9.000000e+08	2.104485e+11	0.000000e+00	5.025125e-01	7.364708e+12	9.561661e+13	6.993740e+13	4.290790e+03	2.056004e+03	1.339166e+03	0	2.217749e-04
9.100000e+08	2.093635e+11	0.000000e+00	5.025125e-01	7.330870e+12	9.496932e+13	6.961735e+13	4.288687e+03	2.054412e+03	1.338129e+03	0	2.213931e-04
9.200000e+08	2.082909e+11	0.000000e+00	5.025125e-01	7.297412e+12	9.433399e+13	6.929948e+13	4.286594e+03	2.052845e+03	1.337108e+03	0	2.210144e-04
9.300000e+08	2.072303e+11	0.000000e+00	5.025125e-01	7.264327e+12	9.371023e+13	6.898380e+13	4.284511e+03	2.051303e+03	1.336104e+03	0	2.206386e-04
9.400000e+08	2.061814e+11	0.000000e+00	5.025125e-01	7.231605e+12	9.309764e+13	6.867026e+13	4.282437e+03	2.049785e+03	1.335115e+03	0	2.202658e-04
9.500000e+08	2.051440e+11	0.000000e+00	5.025125e-01	7.199238e+12	9.249585e+13	6.835887e+13	4.280372e+03	2.048289e+03	1.334141e+03	0	2.198957e-04
9.600000e+08	2.041178e+11	0.000000e+00	5.025125e-01	7.167219e+12	9.190452e+13	6.804960e+13	4.278316e+03	2.046816e+03	1.333181e+03	0	2.195284e-04
9.700000e+08	2.031026e+11	0.000000e+00	5.025125e-01	7.135539e+12	9.132331e+13	6.774244e+13	4.276270e+03	2.045364e+03	1.332236e+03	0	2.191639e-04
9.800000e+08	2.020982e+11	0.000000e+00	5.025125e-01	7.104192e+12	9.075190e+13	6.743737e+13	4.274233e+03	2.043934e+03	1.331304e+03	0	2.188020e-04
9.900000e+08	2.011042e+11	0.000000e+00	5.025125e-01	7.073169e+12	9.018998e+13	6.713437e+13	4.272204e+03	2.042523e+03	1.330385e+03	0	2.184427e-04
1.000000e+09	2.001205e+11	0.000000e+00	5.025125e-01	7.042465e+12	8.963725e+13	6.683343e+13	4.270185e+03	2.041133e+03	1.329479e+03	0	2.180859e-04
1.010000e+09	1.991468e+11	0.000000e+00	5.025125e-01	7.012072e+12	8.909344e+13	6.653453e+13	4.268174e+03	2.039761e+03	1.328586e+03	0	2.177317e-04
1.020000e+09	1.981830e+11	0.000000e+00	5.025125e-01	6.981984e+12	8.855827e+13	6.623765e+13	4.266172e+03	2.038408e+03	1.327705e+03	0	2.173798e-04
1.030000e+09	1.972288e+11	0.000000e+00	5.025125e-01	6.952194e+12	8.803148e+13	6.594278e+13	4.264178e+03	2.037073e+03	1.326835e+03	0	2.170304e-04
1.040000e+09	1.962841e+11	0.000000e+00	5.025125e-01	6.922698e+12	8.751283e+13	6.564991e+13	4.262193e+03	2.035755e+03	1.325977e+03	0	2.166834e-04
1.050000e+09	1.953487e+11	0.000000e+00	5.025125e-01	6.893488e+12	8.700207e+13	6.535901e+13	4.260217e+03	2.034454e+03	1.325130e+03	0	2.163386e-04
1.060000e+09	1.944223e+11	0.000000e+00	5.025125e-01	6.864559e+12	8.649898e+13	6.507008e+13	4.258248e+03	2.033170e+03	1.324293e+03	0	2.159961e-04
1.070000e+09	1.935048e+11	0.000000e+00	5.025125e-01	6.835906e+12	8.600334e+13	6.478309e+13	4.256288e+03	2.031902e+03	1.323467e+03	0	2.156558e-04
1.080000e+09	1.925961e+11	0.000000e+00	5.025125e-01	6.807524e+12	8.551494e+13	6.449803e+13	4.254336e+03	2.030649e+03	1.322651e+03	0	2.153176e-04
1.090000e+09	1.916959e+11	0.000000e+00	5.025125e-01	6.779406e+12	8.503357e+13	6.421489e+13	4.252393e+03	2.029411e+03	1.321845e+03	0	2.149817e-04
1.100000e+09	1.908041e+11	0.000000e+00	5.025125e-01	6.751549e+12	8.455904e+13	6.393365e+13	4.250457e+03	2.028188e+03	1.321048e+03	0	2.146478e-04
1.110000e+09	1.899205e+11	0.000000e+00	5.025125e-01	6.723947e+12	8.409116e+13	6.365430e+13	4.248529e+03	2.026980e+03	1.320261e+03	0	2.143159e-04
1.120000e+09	1.890451e+11	0.000000e+00	5.025125e-01	6.696596e+12	8.362975e+13	6.337682e+13	4.246609e+03	2.025785e+03	1.319483e+03	0	2.139861e-04
1.130000e+09	1.881775e+11	0.000000e+00	5.025125e-01	6.669491e+12	8.317465e+13	6.310120e+13	4.244697e+03	2.024604e+03	1.318714e+03	0	2.136583e-04
1.140000e+09	1.873178e+11	0.000000e+00	5.025125e-01	6.642628e+12	8.272567e+13	6.282741e+13	4.242793e+03	2.023436e+03	1.317953e+03	0	2.133324e-04
1.150000e+09	1.864658e+11	0.000000e+00	5.025125e-01	6.616002e+12	8.228267e+13	6.255546e+13	4.240896e+03	2.022281e+03	1.317201e+03	0	2.130085e-04
1.160000e+09	1.856212e+11	0.000000e+00	5.025125e-01	6.589610e+12	8.184549e+13	6.228532e+13	4.239007e+03	2.021138e+03	1.316456e+03	0	2.126864e-04
1.170000e+09	1.847841e+11	0.000000e+00	5.025125e-01	6.563446e+12	8.141397e+13	6.201698e+13	4.237125e+03	2.020008e+03	1.315720e+03	0	2.123662e-04
1.180000e+09	1.839542e+11	0.000000e+00	5.025125e-01	6.537508e+12	8.098798e+13	6.175042e+13	4.235251e+03	2.018889e+03	1.314991e+03	0	2.120478e-04
1.190000e+09	1.831314e+11	0.000000e+00	5.025125e-01	6.511791e+12	8.056739e+13	6.148564e+13	4.233384e+03	2.017782e+03	1.314270e+03	0	2.117312e-04
1.200000e+09	1.823157e+11	0.000000e+00	5.025125e-01	6.486293e+12	8.015204e+13	6.122261e+13	4.231525e+03	2.016686e+03	1.313556e+03	0	2.114163e-04
1.210000e+09	1.815069e+11	0.000000e+00	5.025125e-01	6.461008e+12	7.974182e+13	6.096133e+13	4.229672e+03	2.015601e+03	1.312850e+03	0	2.111032e-04
1.220000e+09	1.807049e+11	0.000000e+00	5.025125e-01	6.435934e+12	7.933661e+13	6.070178e+13	4.227827e+03	2.014527e+03	1.312150e+03	0	2.107918e-04
1.230000e+09	1.799096e+11	0.000000e+00	5.025125e-01	6.411067e+12	7.893628e+13	6.044395e+13	4.225990e+03	2.013463e+03	1.311457e+03	0	2.104821e-04
1.240000e+09	1.791208e+11	0.000000e+00	5.025125e-01	6.386404e+12	7.854072e+13	6.018782e+13	4.224159e+03	2.012410e+03	1.310771e+03	0	2.101741e-04
1.250000e+09	1.783385e+11	0.000000e+00	5.025125e-01	6.361942e+12	7.814982e+13	5.993338e+13	4.222335e+03	2.011366e+03	1.310091e+03	0	2.098677e-04
1.260000e+09	1.775626e+11	0.000000e+00	5.025125e-01	6.337677e+12	7.776347e+13	5.968062e+13	4.220519e+03	2.010332e+03	1.309418e+03	0	2.095629e-04
1.270000e+09	1.767930e+11	0.000000e+00	5.025125e-01	6.313606e+12	7.738156e+13	5.942953e+13	4.218709e+03	2.009308e+03	1.308751e+03	0	2.092596e-04
1.280000e+09	1.760295e+11	0.000000e+00	5.025125e-01	6.289728e+12	7.700400e+13	5.918009e+13	4.216906e+03	2.008293e+03	1.308089e+03	0	2.089580e-04
1.290000e+09	1.752721e+11	0.000000e+00	5.025125e-01	6.266037e+12	7.663069e+13	5.893228e+13	4.215110e+03	2.007287e+03	1.307434e+03	0	2.086579e-04
1.300000e+09	1.745207e+11	0.000000e+00	5.025125e-01	6.242533e+12	7.626154e+13	5.868610e+13	4.213320e+03	2.006289e+03	1.306784e+03	0	2.083593e-04
1.310000e+09	1.737752e+11	0.000000e+00	5.025125e-01	6.219211e+12	7.589645e+13	5.844154e+13	4.211538e+03	2.005301e+03	1.306140e+03	0	2.080621e-04
1.320000e+09	1.730355e+11	0.000000e+00	5.025125e-01	6.196070e+12	7.553534e+13	5.819858e+13	4.209762e+03	2.004320e+03	1.305502e+03	0	2.077665e-04
1.330000e+09	1.723015e+11	0.000000e+00	5.025125e-01	6.173106e+12	7.517812e+13	5.795720e+13	4.207992e+03	2.003348e+03	1.304869e+03	0	2.074723e-04
1.340000e+09	1.715732e+11	0.000000e+00	5.025125e-01	6.150317e+12	7.482472e+13	5.771741e+13	4.206229e+03	2.002384e+03	1.304241e+03	0	2.071796e-04
1.350000e+09	1.708504e+11	0.000000e+00	5.025125e-01	6.127701e+12	7.447505e+13	5.747918e+13	4.204473e+03	2.001428e+03	1.303618e+03	0	2.068882e-04
1.360000e+09	1.701331e+11	0.000000e+00	5.025125e-01	6.105255e+12	7.412903e+13	5.724250e+13	4.202723e+03	2.000480e+03	1.303000e+03	0	2.065983e-04
