#t		Qconv[W]	Ri[Rp]		R*[Rp]		Qc[W]		Qm[W]		Qr[W]		Tcmb[K]		Tl[K]		Tup[K]		RiFlag		Bs[T]
0.000000e+00	7.070301e+11	0.000000e+00	5.025126e-01	2.132795e+13	1.493113e+15	1.240299e+14	4.839865e+03	3.310043e+03	2.095808e+03	0	3.295594e-04
1.000000e+07	7.009901e+11	0.000000e+00	5.025126e-01	2.115520e+13	1.289063e+15	1.233427e+14	4.834555e+03	3.211801e+03	2.033605e+03	0	3.286183e-04
2.000000e+07	6.908758e+11	0.000000e+00	5.025126e-01	2.086689e+13	1.128869e+15	1.226606e+14	4.829286e+03	3.127790e+03	1.980412e+03	0	3.270301e-04
3.000000e+07	6.786320e+11	0.000000e+00	5.025126e-01	2.051817e+13	1.000645e+15	1.219836e+14	4.824089e+03	3.055042e+03	1.934350e+03	0	3.250867e-04
4.000000e+07	6.653945e+11	0.000000e+00	5.025126e-01	2.014129e+13	8.962689e+14	1.213117e+14	4.818979e+03	2.991369e+03	1.894034e+03	0	3.229591e-04
5.000000e+07	6.518331e+11	0.000000e+00	5.025126e-01	1.975525e+13	8.100512e+14	1.206448e+14	4.813961e+03	2.935121e+03	1.858420e+03	0	3.207499e-04
6.000000e+07	6.383423e+11	0.000000e+00	5.025126e-01	1.937123e+13	7.379099e+14	1.199828e+14	4.809040e+03	2.885034e+03	1.826707e+03	0	3.185217e-04
7.000000e+07	6.251516e+11	0.000000e+00	5.025126e-01	1.899575e+13	6.768569e+14	1.193258e+14	4.804214e+03	2.840117e+03	1.798267e+03	0	3.163124e-04
8.000000e+07	6.123895e+11	0.000000e+00	5.025126e-01	1.863246e+13	6.246638e+14	1.186737e+14	4.799481e+03	2.799588e+03	1.772605e+03	0	3.141451e-04
9.000000e+07	6.001228e+11	0.000000e+00	5.025126e-01	1.828324e+13	5.796410e+14	1.180264e+14	4.794838e+03	2.762815e+03	1.749322e+03	0	3.120334e-04
1.000000e+08	5.883796e+11	0.000000e+00	5.025126e-01	1.794890e+13	5.404879e+14	1.173839e+14	4.790282e+03	2.729288e+03	1.728094e+03	0	3.099847e-04
1.100000e+08	5.771649e+11	0.000000e+00	5.025126e-01	1.762957e+13	5.061900e+14	1.167462e+14	4.785809e+03	2.698585e+03	1.708654e+03	0	3.080026e-04
1.200000e+08	5.664690e+11	0.000000e+00	5.025126e-01	1.732498e+13	4.759458e+14	1.161133e+14	4.781415e+03	2.670356e+03	1.690780e+03	0	3.060881e-04
1.300000e+08	5.562742e+11	0.000000e+00	5.025126e-01	1.703463e+13	4.491152e+14	1.154850e+14	4.777097e+03	2.644307e+03	1.674287e+03	0	3.042408e-04
1.400000e+08	5.465578e+11	0.000000e+00	5.025126e-01	1.675787e+13	4.251818e+14	1.148613e+14	4.772852e+03	2.620193e+03	1.659018e+03	0	3.024590e-04
1.500000e+08	5.372950e+11	0.000000e+00	5.025126e-01	1.649399e+13	4.037248e+14	1.142423e+14	4.768675e+03	2.597800e+03	1.644840e+03	0	3.007406e-04
1.600000e+08	5.284602e+11	0.000000e+00	5.025126e-01	1.624228e+13	3.843986e+14	1.136278e+14	4.764563e+03	2.576950e+03	1.631639e+03	0	2.990831e-04
1.700000e+08	5.200279e+11	0.000000e+00	5.025126e-01	1.600199e+13	3.669168e+14	1.130179e+14	4.760515e+03	2.557487e+03	1.619315e+03	0	2.974838e-04
1.800000e+08	5.119735e+11	0.000000e+00	5.025126e-01	1.577245e+13	3.510406e+14	1.124125e+14	4.756526e+03	2.539275e+03	1.607784e+03	0	2.959399e-04
1.900000e+08	5.042733e+11	0.000000e+00	5.025126e-01	1.555297e+13	3.365695e+14	1.118115e+14	4.752594e+03	2.522196e+03	1.596970e+03	0	2.944488e-04
2.000000e+08	4.969051e+11	0.000000e+00	5.025126e-01	1.534292e+13	3.233337e+14	1.112150e+14	4.748716e+03	2.506149e+03	1.586810e+03	0	2.930076e-04
2.100000e+08	4.898480e+11	0.000000e+00	5.025126e-01	1.514171e+13	3.111890e+14	1.106228e+14	4.744891e+03	2.491041e+03	1.577244e+03	0	2.916139e-04
2.200000e+08	4.830823e+11	0.000000e+00	5.025126e-01	1.494878e+13	3.000122e+14	1.100350e+14	4.741116e+03	2.476793e+03	1.568222e+03	0	2.902651e-04
2.300000e+08	4.765898e+11	0.000000e+00	5.025126e-01	1.476362e+13	2.896971e+14	1.094515e+14	4.737389e+03	2.463333e+03	1.559700e+03	0	2.889589e-04
2.400000e+08	4.703536e+11	0.000000e+00	5.025126e-01	1.458573e+13	2.801522e+14	1.088723e+14	4.733708e+03	2.450597e+03	1.551636e+03	0	2.876930e-04
2.500000e+08	4.643578e+11	0.000000e+00	5.025126e-01	1.441468e+13	2.712981e+14	1.082973e+14	4.730071e+03	2.438530e+03	1.543995e+03	0	2.864653e-04
2.600000e+08	4.585880e+11	0.000000e+00	5.025126e-01	1.425005e+13	2.630656e+14	1.077265e+14	4.726477e+03	2.427079e+03	1.536745e+03	0	2.852739e-04
2.700000e+08	4.530304e+11	0.000000e+00	5.025126e-01	1.409146e+13	2.553940e+14	1.071599e+14	4.722924e+03	2.416199e+03	1.529856e+03	0	2.841168e-04
2.800000e+08	4.476727e+11	0.000000e+00	5.025126e-01	1.393854e+13	2.482301e+14	1.065975e+14	4.719410e+03	2.405848e+03	1.523303e+03	0	2.829923e-04
2.900000e+08	4.425030e+11	0.000000e+00	5.025126e-01	1.379097e+13	2.415271e+14	1.060391e+14	4.715934e+03	2.395990e+03	1.517061e+03	0	2.818988e-04
3.000000e+08	4.375107e+11	0.000000e+00	5.025126e-01	1.364844e+13	2.352434e+14	1.054849e+14	4.712495e+03	2.386589e+03	1.511108e+03	0	2.808346e-04
3.100000e+08	4.326857e+11	0.000000e+00	5.025126e-01	1.351066e+13	2.293424e+14	1.049346e+14	4.709092e+03	2.377616e+03	1.505427e+03	0	2.797984e-04
3.200000e+08	4.280186e+11	0.000000e+00	5.025126e-01	1.337737e+13	2.237911e+14	1.043884e+14	4.705723e+03	2.369040e+03	1.499997e+03	0	2.787888e-04
3.300000e+08	4.235008e+11	0.000000e+00	5.025126e-01	1.324833e+13	2.185604e+14	1.038461e+14	4.702387e+03	2.360838e+03	1.494804e+03	0	2.778044e-04
3.400000e+08	4.191243e+11	0.000000e+00	5.025126e-01	1.312330e+13	2.136241e+14	1.033078e+14	4.699083e+03	2.352985e+03	1.489831e+03	0	2.768442e-04
3.500000e+08	4.148814e+11	0.000000e+00	5.025126e-01	1.300208e+13	2.089587e+14	1.027733e+14	4.695810e+03	2.345459e+03	1.485066e+03	0	2.759068e-04
3.600000e+08	4.107654e+11	0.000000e+00	5.025126e-01	1.288446e+13	2.045430e+14	1.022428e+14	4.692567e+03	2.338241e+03	1.480496e+03	0	2.749914e-04
3.700000e+08	4.067695e+11	0.000000e+00	5.025126e-01	1.277026e+13	2.003580e+14	1.017161e+14	4.689354e+03	2.331312e+03	1.476109e+03	0	2.740968e-04
3.800000e+08	4.028878e+11	0.000000e+00	5.025126e-01	1.265930e+13	1.963864e+14	1.011932e+14	4.686169e+03	2.324655e+03	1.471894e+03	0	2.732221e-04
3.900000e+08	3.991145e+11	0.000000e+00	5.025126e-01	1.255142e+13	1.926126e+14	1.006741e+14	4.683012e+03	2.318254e+03	1.467841e+03	0	2.723665e-04
4.000000e+08	3.954444e+11	0.000000e+00	5.025126e-01	1.244648e+13	1.890225e+14	1.001587e+14	4.679881e+03	2.312095e+03	1.463941e+03	0	2.715290e-04
4.100000e+08	3.918724e+11	0.000000e+00	5.025126e-01	1.234433e+13	1.856031e+14	9.964705e+13	4.676777e+03	2.306164e+03	1.460186e+03	0	2.707090e-04
4.200000e+08	3.883940e+11	0.000000e+00	5.025126e-01	1.224484e+13	1.823426e+14	9.913909e+13	4.673698e+03	2.300449e+03	1.456568e+03	0	2.699056e-04
4.300000e+08	3.850046e+11	0.000000e+00	5.025126e-01	1.214789e+13	1.792303e+14	9.863478e+13	4.670644e+03	2.294939e+03	1.453078e+03	0	2.691182e-04
4.400000e+08	3.817003e+11	0.000000e+00	5.025126e-01	1.205335e+13	1.762565e+14	9.813411e+13	4.667614e+03	2.289621e+03	1.449711e+03	0	2.683461e-04
4.500000e+08	3.784771e+11	0.000000e+00	5.025126e-01	1.196112e+13	1.734120e+14	9.763703e+13	4.664607e+03	2.284487e+03	1.446461e+03	0	2.675886e-04
4.600000e+08	3.753315e+11	0.000000e+00	5.025126e-01	1.187110e+13	1.706886e+14	9.714352e+13	4.661624e+03	2.279526e+03	1.443320e+03	0	2.668452e-04
4.700000e+08	3.722600e+11	0.000000e+00	5.025126e-01	1.178319e+13	1.680787e+14	9.665354e+13	4.658663e+03	2.274731e+03	1.440283e+03	0	2.661153e-04
4.800000e+08	3.692595e+11	0.000000e+00	5.025126e-01	1.169729e+13	1.655753e+14	9.616708e+13	4.655724e+03	2.270092e+03	1.437346e+03	0	2.653984e-04
4.900000e+08	3.663268e+11	0.000000e+00	5.025126e-01	1.161333e+13	1.631720e+14	9.568411e+13	4.652806e+03	2.265602e+03	1.434503e+03	0	2.646939e-04
5.000000e+08	3.634593e+11	0.000000e+00	5.025126e-01	1.153122e+13	1.608627e+14	9.520458e+13	4.649909e+03	2.261254e+03	1.431750e+03	0	2.640015e-04
5.100000e+08	3.606541e+11	0.000000e+00	5.025126e-01	1.145089e+13	1.586420e+14	9.472848e+13	4.647032e+03	2.257040e+03	1.429082e+03	0	2.633205e-04
5.200000e+08	3.579088e+11	0.000000e+00	5.025126e-01	1.137225e+13	1.565048e+14	9.425578e+13	4.644176e+03	2.252955e+03	1.426496e+03	0	2.626507e-04
5.300000e+08	3.552209e+11	0.000000e+00	5.025126e-01	1.129525e+13	1.544462e+14	9.378645e+13	4.641339e+03	2.248993e+03	1.423987e+03	0	2.619915e-04
5.400000e+08	3.525882e+11	0.000000e+00	5.025126e-01	1.121983e+13	1.524620e+14	9.332047e+13	4.638521e+03	2.245147e+03	1.421552e+03	0	2.613427e-04
5.500000e+08	3.500085e+11	0.000000e+00	5.025126e-01	1.114591e+13	1.505481e+14	9.285780e+13	4.635723e+03	2.241413e+03	1.419188e+03	0	2.607038e-04
5.600000e+08	3.474798e+11	0.000000e+00	5.025126e-01	1.107344e+13	1.487006e+14	9.239841e+13	4.632942e+03	2.237785e+03	1.416891e+03	0	2.600744e-04
5.700000e+08	3.450001e+11	0.000000e+00	5.025126e-01	1.100237e+13	1.469160e+14	9.194229e+13	4.630180e+03	2.234259e+03	1.414658e+03	0	2.594543e-04
5.800000e+08	3.425677e+11	0.000000e+00	5.025126e-01	1.093264e+13	1.451909e+14	9.148941e+13	4.627435e+03	2.230831e+03	1.412487e+03	0	2.588431e-04
5.900000e+08	3.401808e+11	0.000000e+00	5.025126e-01	1.086421e+13	1.435224e+14	9.103974e+13	4.624708e+03	2.227495e+03	1.410375e+03	0	2.582405e-04
6.000000e+08	3.378378e+11	0.000000e+00	5.025126e-01	1.079703e+13	1.419076e+14	9.059325e+13	4.621997e+03	2.224248e+03	1.408320e+03	0	2.576463e-04
6.100000e+08	3.355370e+11	0.000000e+00	5.025126e-01	1.073105e+13	1.403437e+14	9.014992e+13	4.619304e+03	2.221087e+03	1.406318e+03	0	2.570600e-04
6.200000e+08	3.332771e+11	0.000000e+00	5.025126e-01	1.066624e+13	1.388281e+14	8.970972e+13	4.616627e+03	2.218007e+03	1.404368e+03	0	2.564816e-04
6.300000e+08	3.310565e+11	0.000000e+00	5.025126e-01	1.060255e+13	1.373587e+14	8.927263e+13	4.613966e+03	2.215006e+03	1.402467e+03	0	2.559107e-04
6.400000e+08	3.288740e+11	0.000000e+00	5.025126e-01	1.053993e+13	1.359331e+14	8.883862e+13	4.611320e+03	2.212079e+03	1.400614e+03	0	2.553471e-04
6.500000e+08	3.267283e+11	0.000000e+00	5.025126e-01	1.047837e+13	1.345492e+14	8.840767e+13	4.608691e+03	2.209224e+03	1.398807e+03	0	2.547906e-04
6.600000e+08	3.246181e+11	0.000000e+00	5.025126e-01	1.041782e+13	1.332052e+14	8.797975e+13	4.606077e+03	2.206439e+03	1.397043e+03	0	2.542409e-04
6.700000e+08	3.225423e+11	0.000000e+00	5.025126e-01	1.035825e+13	1.318991e+14	8.755484e+13	4.603478e+03	2.203720e+03	1.395321e+03	0	2.536978e-04
6.800000e+08	3.204997e+11	0.000000e+00	5.025126e-01	1.029963e+13	1.306292e+14	8.713291e+13	4.600893e+03	2.201064e+03	1.393640e+03	0	2.531611e-04
6.900000e+08	3.184894e+11	0.000000e+00	5.025126e-01	1.024192e+13	1.293939e+14	8.671394e+13	4.598324e+03	2.198470e+03	1.391997e+03	0	2.526307e-04
7.000000e+08	3.165103e+11	0.000000e+00	5.025126e-01	1.018510e+13	1.281917e+14	8.629792e+13	4.595768e+03	2.195934e+03	1.390392e+03	0	2.521063e-04
7.100000e+08	3.145614e+11	0.000000e+00	5.025126e-01	1.012915e+13	1.270211e+14	8.588480e+13	4.593227e+03	2.193455e+03	1.388822e+03	0	2.515878e-04
7.200000e+08	3.126418e+11	0.000000e+00	5.025126e-01	1.007403e+13	1.258808e+14	8.547457e+13	4.590700e+03	2.191031e+03	1.387287e+03	0	2.510750e-04
7.300000e+08	3.107506e+11	0.000000e+00	5.025126e-01	1.001971e+13	1.247694e+14	8.506721e+13	4.588187e+03	2.188659e+03	1.385785e+03	0	2.505677e-04
7.400000e+08	3.088870e+11	0.000000e+00	5.025126e-01	9.966190e+12	1.236857e+14	8.466269e+13	4.585687e+03	2.186337e+03	1.384315e+03	0	2.500658e-04
7.500000e+08	3.070502e+11	0.000000e+00	5.025126e-01	9.913428e+12	1.226286e+14	8.426099e+13	4.583200e+03	2.184064e+03	1.382876e+03	0	2.495691e-04
7.600000e+08	3.052394e+11	0.000000e+00	5.025126e-01	9.861407e+12	1.215970e+14	8.386210e+13	4.580726e+03	2.181837e+03	1.381466e+03	0	2.490776e-04
7.700000e+08	3.034538e+11	0.000000e+00	5.025126e-01	9.810106e+12	1.205899e+14	8.346597e+13	4.578266e+03	2.179656e+03	1.380085e+03	0	2.485909e-04
7.800000e+08	3.016927e+11	0.000000e+00	5.025126e-01	9.759504e+12	1.196062e+14	8.307260e+13	4.575818e+03	2.177518e+03	1.378732e+03	0	2.481091e-04
7.900000e+08	2.999556e+11	0.000000e+00	5.025126e-01	9.709583e+12	1.186451e+14	8.268196e+13	4.573383e+03	2.175422e+03	1.377404e+03	0	2.476320e-04
8.000000e+08	2.982416e+11	0.000000e+00	5.025126e-01	9.660323e+12	1.177056e+14	8.229403e+13	4.570960e+03	2.173367e+03	1.376103e+03	0	2.471594e-04
8.100000e+08	2.965502e+11	0.000000e+00	5.025126e-01	9.611707e+12	1.167870e+14	8.190879e+13	4.568550e+03	2.171350e+03	1.374826e+03	0	2.466913e-04
8.200000e+08	2.948808e+11	0.000000e+00	5.025126e-01	9.563717e+12	1.158884e+14	8.152622e+13	4.566152e+03	2.169371e+03	1.373573e+03	0	2.462275e-04
8.300000e+08	2.932328e+11	0.000000e+00	5.025126e-01	9.516338e+12	1.150090e+14	8.114629e+13	4.563765e+03	2.167429e+03	1.372343e+03	0	2.457680e-04
8.400000e+08	2.916056e+11	0.000000e+00	5.025126e-01	9.469553e+12	1.141482e+14	8.076898e+13	4.561391e+03	2.165521e+03	1.371136e+03	0	2.453125e-04
8.500000e+08	2.899987e+11	0.000000e+00	5.025126e-01	9.423347e+12	1.133053e+14	8.039428e+13	4.559028e+03	2.163648e+03	1.369950e+03	0	2.448611e-04
8.600000e+08	2.884116e+11	0.000000e+00	5.025126e-01	9.377705e+12	1.124796e+14	8.002216e+13	4.556677e+03	2.161808e+03	1.368784e+03	0	2.444136e-04
8.700000e+08	2.868439e+11	0.000000e+00	5.025126e-01	9.332614e+12	1.116704e+14	7.965260e+13	4.554337e+03	2.159999e+03	1.367639e+03	0	2.439699e-04
8.800000e+08	2.852949e+11	0.000000e+00	5.025126e-01	9.288059e+12	1.108773e+14	7.928558e+13	4.552008e+03	2.158221e+03	1.366513e+03	0	2.435300e-04
8.900000e+08	2.837643e+11	0.000000e+00	5.025126e-01	9.244029e+12	1.100997e+14	7.892109e+13	4.549690e+03	2.156472e+03	1.365406e+03	0	2.430937e-04
9.000000e+08	2.822516e+11	0.000000e+00	5.025126e-01	9.200509e+12	1.093369e+14	7.855910e+13	4.547384e+03	2.154752e+03	1.364317e+03	0	2.426610e-04
9.100000e+08	2.807564e+11	0.000000e+00	5.025126e-01	9.157489e+12	1.085885e+14	7.819959e+13	4.545088e+03	2.153060e+03	1.363246e+03	0	2.422317e-04
9.200000e+08	2.792783e+11	0.000000e+00	5.025126e-01	9.114956e+12	1.078541e+14	7.784254e+13	4.542803e+03	2.151395e+03	1.362191e+03	0	2.418059e-04
9.300000e+08	2.778168e+11	0.000000e+00	5.025126e-01	9.072900e+12	1.071331e+14	7.748793e+13	4.540528e+03	2.149756e+03	1.361154e+03	0	2.413833e-04
9.400000e+08	2.763717e+11	0.000000e+00	5.025126e-01	9.031308e+12	1.064250e+14	7.713575e+13	4.538264e+03	2.148142e+03	1.360132e+03	0	2.409641e-04
9.500000e+08	2.749425e+11	0.000000e+00	5.025126e-01	8.990172e+12	1.057296e+14	7.678597e+13	4.536011e+03	2.146553e+03	1.359126e+03	0	2.405480e-04
9.600000e+08	2.735289e+11	0.000000e+00	5.025126e-01	8.949480e+12	1.050463e+14	7.643857e+13	4.533767e+03	2.144987e+03	1.358134e+03	0	2.401350e-04
9.700000e+08	2.721306e+11	0.000000e+00	5.025126e-01	8.909224e+12	1.043748e+14	7.609354e+13	4.531534e+03	2.143445e+03	1.357157e+03	0	2.397251e-04
9.800000e+08	2.707471e+11	0.000000e+00	5.025126e-01	8.869393e+12	1.037146e+14	7.575086e+13	4.529311e+03	2.141925e+03	1.356195e+03	0	2.393182e-04
9.900000e+08	2.693782e+11	0.000000e+00	5.025126e-01	8.829978e+12	1.030655e+14	7.541051e+13	4.527097e+03	2.140426e+03	1.355246e+03	0	2.389142e-04
1.000000e+09	2.680236e+11	0.000000e+00	5.025126e-01	8.790971e+12	1.024272e+14	7.507247e+13	4.524894e+03	2.138948e+03	1.354310e+03	0	2.385130e-04
1.010000e+09	2.666830e+11	0.000000e+00	5.025126e-01	8.752363e+12	1.017992e+14	7.473672e+13	4.522700e+03	2.137491e+03	1.353388e+03	0	2.381147e-04
1.020000e+09	2.653561e+11	0.000000e+00	5.025126e-01	8.714146e+12	1.011812e+14	7.440325e+13	4.520516e+03	2.136053e+03	1.352477e+03	0	2.377191e-04
1.030000e+09	2.640426e+11	0.000000e+00	5.025126e-01	8.676312e+12	1.005730e+14	7.407203e+13	4.518341e+03	2.134635e+03	1.351579e+03	0	2.373262e-04
1.040000e+09	2.627422e+11	0.000000e+00	5.025126e-01	8.638853e+12	9.997427e+13	7.374305e+13	4.516176e+03	2.133235e+03	1.350693e+03	0	2.369360e-04
1.050000e+09	2.614548e+11	0.000000e+00	5.025126e-01	8.601762e+12	9.938474e+13	7.341630e+13	4.514020e+03	2.131853e+03	1.349818e+03	0	2.365484e-04
1.060000e+09	2.601799e+11	0.000000e+00	5.025126e-01	8.565032e+12	9.880412e+13	7.309174e+13	4.511874e+03	2.130489e+03	1.348954e+03	0	2.361633e-04
1.070000e+09	2.589174e+11	0.000000e+00	5.025126e-01	8.528655e+12	9.823218e+13	7.276938e+13	4.509736e+03	2.129142e+03	1.348101e+03	0	2.357807e-04
1.080000e+09	2.576670e+11	0.000000e+00	5.025126e-01	8.492625e+12	9.766867e+13	7.244918e+13	4.507608e+03	2.127812e+03	1.347259e+03	0	2.354005e-04
1.090000e+09	2.564286e+11	0.000000e+00	5.025126e-01	8.456935e+12	9.711334e+13	7.213113e+13	4.505488e+03	2.126497e+03	1.346427e+03	0	2.350228e-04
1.100000e+09	2.552018e+11	0.000000e+00	5.025126e-01	8.421579e+12	9.656598e+13	7.181522e+13	4.503378e+03	2.125199e+03	1.345605e+03	0	2.346474e-04
1.110000e+09	2.539865e+11	0.000000e+00	5.025126e-01	8.386550e+12	9.602637e+13	7.150143e+13	4.501276e+03	2.123916e+03	1.344792e+03	0	2.342743e-04
1.120000e+09	2.527825e+11	0.000000e+00	5.025126e-01	8.351843e+12	9.549429e+13	7.118974e+13	4.499183e+03	2.122647e+03	1.343989e+03	0	2.339035e-04
1.130000e+09	2.515895e+11	0.000000e+00	5.025126e-01	8.317452e+12	9.496954e+13	7.088014e+13	4.497099e+03	2.121394e+03	1.343195e+03	0	2.335350e-04
1.140000e+09	2.504074e+11	0.000000e+00	5.025126e-01	8.283371e+12	9.445194e+13	7.057261e+13	4.495023e+03	2.120154e+03	1.342410e+03	0	2.331686e-04
1.150000e+09	2.492359e+11	0.000000e+00	5.025126e-01	8.249595e+12	9.394129e+13	7.026713e+13	4.492956e+03	2.118928e+03	1.341634e+03	0	2.328045e-04
1.160000e+09	2.480749e+11	0.000000e+00	5.025126e-01	8.216117e+12	9.343742e+13	6.996368e+13	4.490897e+03	2.117715e+03	1.340866e+03	0	2.324424e-04
1.170000e+09	2.469242e+11	0.000000e+00	5.025126e-01	8.182934e+12	9.294015e+13	6.966226e+13	4.488847e+03	2.116516e+03	1.340107e+03	0	2.320825e-04
1.180000e+09	2.457836e+11	0.000000e+00	5.025126e-01	8.150041e+12	9.244932e+13	6.936285e+13	4.486804e+03	2.115329e+03	1.339355e+03	0	2.317246e-04
1.190000e+09	2.446529e+11	0.000000e+00	5.025126e-01	8.117431e+12	9.196476e+13	6.906542e+13	4.484770e+03	2.114154e+03	1.338612e+03	0	2.313687e-04
1.200000e+09	2.435321e+11	0.000000e+00	5.025126e-01	8.085101e+12	9.148631e+13	6.876997e+13	4.482745e+03	2.112992e+03	1.337876e+03	0	2.310148e-04
1.210000e+09	2.424208e+11	0.000000e+00	5.025126e-01	8.053045e+12	9.101384e+13	6.847648e+13	4.480727e+03	2.111841e+03	1.337147e+03	0	2.306629e-04
1.220000e+09	2.413190e+11	0.000000e+00	5.025126e-01	8.021260e+12	9.054720e+13	6.818493e+13	4.478717e+03	2.110702e+03	1.336426e+03	0	2.303129e-04
1.230000e+09	2.402265e+11	0.000000e+00	5.025126e-01	7.989741e+12	9.008624e+13	6.789532e+13	4.476715e+03	2.109574e+03	1.335711e+03	0	2.299648e-04
1.240000e+09	2.391431e+11	0.000000e+00	5.025126e-01	7.958484e+12	8.963084e+13	6.760761e+13	4.474721e+03	2.108457e+03	1.335004e+03	0	2.296186e-04
1.250000e+09	2.380688e+11	0.000000e+00	5.025126e-01	7.927484e+12	8.918086e+13	6.732181e+13	4.472735e+03	2.107350e+03	1.334304e+03	0	2.292742e-04
1.260000e+09	2.370033e+11	0.000000e+00	5.025126e-01	7.896737e+12	8.873617e+13	6.703789e+13	4.470756e+03	2.106254e+03	1.333610e+03	0	2.289317e-04
1.270000e+09	2.359465e+11	0.000000e+00	5.025126e-01	7.866241e+12	8.829667e+13	6.675584e+13	4.468785e+03	2.105168e+03	1.332922e+03	0	2.285909e-04
1.280000e+09	2.348983e+11	0.000000e+00	5.025126e-01	7.835989e+12	8.786222e+13	6.647565e+13	4.466822e+03	2.104092e+03	1.332241e+03	0	2.282519e-04
1.290000e+09	2.338586e+11	0.000000e+00	5.025126e-01	7.805980e+12	8.743272e+13	6.619729e+13	4.464866e+03	2.103026e+03	1.331566e+03	0	2.279146e-04
1.300000e+09	2.328272e+11	0.000000e+00	5.025126e-01	7.776209e+12	8.700805e+13	6.592077e+13	4.462918e+03	2.101969e+03	1.330896e+03	0	2.275791e-04
1.310000e+09	2.318041e+11	0.000000e+00	5.025126e-01	7.746673e+12	8.658812e+13	6.564605e+13	4.460977e+03	2.100921e+03	1.330233e+03	0	2.272452e-04
1.320000e+09	2.307890e+11	0.000000e+00	5.025126e-01	7.717369e+12	8.617282e+13	6.537314e+13	4.459044e+03	2.099883e+03	1.329576e+03	0	2.269130e-04
1.330000e+09	2.297819e+11	0.000000e+00	5.025126e-01	7.688292e+12	8.576205e+13	6.510201e+13	4.457118e+03	2.098853e+03	1.328924e+03	0	2.265825e-04
1.340000e+09	2.287826e+11	0.000000e+00	5.025126e-01	7.659440e+12	8.535571e+13	6.483265e+13	4.455199e+03	2.097832e+03	1.328277e+03	0	2.262536e-04
1.350000e+09	2.277911e+11	0.000000e+00	5.025126e-01	7.630809e+12	8.495372e+13	6.456505e+13	4.453287e+03	2.096820e+03	1.327636e+03	0	2.259262e-04
1.360000e+09	2.268072e+11	0.000000e+00	5.025126e-01	7.602397e+12	8.455598e+13	6.429920e+13	4.451382e+03	2.095815e+03	1.327000e+03	0	2.256005e-04
