#t		Qconv[W]	Ri[Rp]		R*[Rp]		Qc[W]		Qm[W]		Qr[W]		Tcmb[K]		Tl[K]		Tup[K]		RiFlag		Bs[T]
0.000000e+00	7.356237e+12	0.000000e+00	4.874371e-01	1.304312e+14	3.184641e+15	3.177113e+14	8.542056e+03	5.087164e+03	2.385053e+03	0	6.957340e-04
1.000000e+07	7.203569e+12	0.000000e+00	4.874371e-01	1.280160e+14	2.893895e+15	3.159510e+14	8.530352e+03	4.995728e+03	2.342185e+03	0	6.908873e-04
2.000000e+07	7.052310e+12	0.000000e+00	4.874371e-01	1.256233e+14	2.647564e+15	3.142038e+14	8.518864e+03	4.913602e+03	2.303681e+03	0	6.860174e-04
3.000000e+07	6.904335e+12	0.000000e+00	4.874371e-01	1.232825e+14	2.436818e+15	3.124697e+14	8.507590e+03	4.839382e+03	2.268884e+03	0	6.811853e-04
4.000000e+07	6.760734e+12	0.000000e+00	4.874371e-01	1.210106e+14	2.254928e+15	3.107485e+14	8.496524e+03	4.771938e+03	2.237263e+03	0	6.764296e-04
5.000000e+07	6.622095e+12	0.000000e+00	4.874371e-01	1.188170e+14	2.096696e+15	3.090401e+14	8.485662e+03	4.710349e+03	2.208388e+03	0	6.717739e-04
6.000000e+07	6.488686e+12	0.000000e+00	4.874371e-01	1.167057e+14	1.958054e+15	3.073445e+14	8.474997e+03	4.653857e+03	2.181903e+03	0	6.672321e-04
7.000000e+07	6.360568e+12	0.000000e+00	4.874371e-01	1.146777e+14	1.835782e+15	3.056615e+14	8.464520e+03	4.601833e+03	2.157512e+03	0	6.628114e-04
8.000000e+07	6.237676e+12	0.000000e+00	4.874371e-01	1.127320e+14	1.727305e+15	3.039911e+14	8.454224e+03	4.553748e+03	2.134968e+03	0	6.585149e-04
9.000000e+07	6.119864e+12	0.000000e+00	4.874371e-01	1.108663e+14	1.630541e+15	3.023330e+14	8.444103e+03	4.509156e+03	2.114061e+03	0	6.543427e-04
1.000000e+08	6.006939e+12	0.000000e+00	4.874371e-01	1.090776e+14	1.543791e+15	3.006873e+14	8.434148e+03	4.467678e+03	2.094615e+03	0	6.502930e-04
1.100000e+08	5.898683e+12	0.000000e+00	4.874371e-01	1.073624e+14	1.465661e+15	2.990538e+14	8.424354e+03	4.428989e+03	2.076476e+03	0	6.463628e-04
1.200000e+08	5.794866e+12	0.000000e+00	4.874371e-01	1.057170e+14	1.394992e+15	2.974323e+14	8.414713e+03	4.392807e+03	2.059513e+03	0	6.425483e-04
1.300000e+08	5.695257e+12	0.000000e+00	4.874371e-01	1.041379e+14	1.330821e+15	2.958229e+14	8.405219e+03	4.358890e+03	2.043611e+03	0	6.388454e-04
1.400000e+08	5.599626e+12	0.000000e+00	4.874371e-01	1.026215e+14	1.272334e+15	2.942254e+14	8.395867e+03	4.327026e+03	2.028672e+03	0	6.352495e-04
1.500000e+08	5.507754e+12	0.000000e+00	4.874371e-01	1.011643e+14	1.218846e+15	2.926397e+14	8.386651e+03	4.297028e+03	2.014608e+03	0	6.317562e-04
1.600000e+08	5.419428e+12	0.000000e+00	4.874371e-01	9.976290e+13	1.169773e+15	2.910658e+14	8.377565e+03	4.268734e+03	2.001342e+03	0	6.283609e-04
1.700000e+08	5.334449e+12	0.000000e+00	4.874371e-01	9.841422e+13	1.124617e+15	2.895034e+14	8.368604e+03	4.241997e+03	1.988807e+03	0	6.250592e-04
1.800000e+08	5.252626e+12	0.000000e+00	4.874371e-01	9.711527e+13	1.082948e+15	2.879525e+14	8.359765e+03	4.216691e+03	1.976943e+03	0	6.218469e-04
1.900000e+08	5.173782e+12	0.000000e+00	4.874371e-01	9.586325e+13	1.044395e+15	2.864131e+14	8.351042e+03	4.192701e+03	1.965695e+03	0	6.187198e-04
2.000000e+08	5.097749e+12	0.000000e+00	4.874371e-01	9.465552e+13	1.008637e+15	2.848850e+14	8.342430e+03	4.169924e+03	1.955017e+03	0	6.156740e-04
2.100000e+08	5.024372e+12	0.000000e+00	4.874371e-01	9.348964e+13	9.753942e+14	2.833682e+14	8.333928e+03	4.148269e+03	1.944864e+03	0	6.127057e-04
2.200000e+08	4.953504e+12	0.000000e+00	4.874371e-01	9.236329e+13	9.444209e+14	2.818625e+14	8.325529e+03	4.127653e+03	1.935198e+03	0	6.098113e-04
2.300000e+08	4.885009e+12	0.000000e+00	4.874371e-01	9.127434e+13	9.155021e+14	2.803678e+14	8.317232e+03	4.108001e+03	1.925985e+03	0	6.069875e-04
2.400000e+08	4.818759e+12	0.000000e+00	4.874371e-01	9.022078e+13	8.884481e+14	2.788841e+14	8.309032e+03	4.089247e+03	1.917192e+03	0	6.042311e-04
2.500000e+08	4.754636e+12	0.000000e+00	4.874371e-01	8.920073e+13	8.630911e+14	2.774112e+14	8.300926e+03	4.071329e+03	1.908791e+03	0	6.015389e-04
2.600000e+08	4.692528e+12	0.000000e+00	4.874371e-01	8.821246e+13	8.392822e+14	2.759492e+14	8.292912e+03	4.054190e+03	1.900756e+03	0	5.989082e-04
2.700000e+08	4.632331e+12	0.000000e+00	4.874371e-01	8.725432e+13	8.168890e+14	2.744978e+14	8.284987e+03	4.037782e+03	1.893063e+03	0	5.963362e-04
2.800000e+08	4.573949e+12	0.000000e+00	4.874371e-01	8.632480e+13	7.957932e+14	2.730570e+14	8.277147e+03	4.022056e+03	1.885690e+03	0	5.938204e-04
2.900000e+08	4.517291e+12	0.000000e+00	4.874371e-01	8.542246e+13	7.758891e+14	2.716268e+14	8.269391e+03	4.006970e+03	1.878618e+03	0	5.913583e-04
3.000000e+08	4.462272e+12	0.000000e+00	4.874371e-01	8.454598e+13	7.570815e+14	2.702069e+14	8.261715e+03	3.992486e+03	1.871827e+03	0	5.889476e-04
3.100000e+08	4.408813e+12	0.000000e+00	4.874371e-01	8.369410e+13	7.392851e+14	2.687974e+14	8.254119e+03	3.978567e+03	1.865301e+03	0	5.865863e-04
3.200000e+08	4.356839e+12	0.000000e+00	4.874371e-01	8.286565e+13	7.224229e+14	2.673982e+14	8.246598e+03	3.965181e+03	1.859025e+03	0	5.842721e-04
3.300000e+08	4.306281e+12	0.000000e+00	4.874371e-01	8.205954e+13	7.064251e+14	2.660091e+14	8.239152e+03	3.952296e+03	1.852984e+03	0	5.820033e-04
3.400000e+08	4.257074e+12	0.000000e+00	4.874371e-01	8.127474e+13	6.912287e+14	2.646302e+14	8.231778e+03	3.939884e+03	1.847165e+03	0	5.797780e-04
3.500000e+08	4.209155e+12	0.000000e+00	4.874371e-01	8.051028e+13	6.767763e+14	2.632612e+14	8.224474e+03	3.927920e+03	1.841556e+03	0	5.775944e-04
3.600000e+08	4.162468e+12	0.000000e+00	4.874371e-01	7.976525e+13	6.630158e+14	2.619022e+14	8.217239e+03	3.916379e+03	1.836145e+03	0	5.754509e-04
3.700000e+08	4.116958e+12	0.000000e+00	4.874371e-01	7.903880e+13	6.498997e+14	2.605530e+14	8.210071e+03	3.905238e+03	1.830922e+03	0	5.733460e-04
3.800000e+08	4.072574e+12	0.000000e+00	4.874371e-01	7.833013e+13	6.373847e+14	2.592135e+14	8.202968e+03	3.894477e+03	1.825877e+03	0	5.712782e-04
3.900000e+08	4.029268e+12	0.000000e+00	4.874371e-01	7.763848e+13	6.254310e+14	2.578838e+14	8.195929e+03	3.884075e+03	1.821000e+03	0	5.692460e-04
4.000000e+08	3.986994e+12	0.000000e+00	4.874371e-01	7.696313e+13	6.140023e+14	2.565636e+14	8.188951e+03	3.874015e+03	1.816283e+03	0	5.672483e-04
4.100000e+08	3.945711e+12	0.000000e+00	4.874371e-01	7.630342e+13	6.030651e+14	2.552530e+14	8.182034e+03	3.864280e+03	1.811719e+03	0	5.652836e-04
4.200000e+08	3.905377e+12	0.000000e+00	4.874371e-01	7.565871e+13	5.925888e+14	2.539518e+14	8.175176e+03	3.854853e+03	1.807300e+03	0	5.633509e-04
4.300000e+08	3.865954e+12	0.000000e+00	4.874371e-01	7.502840e+13	5.825451e+14	2.526600e+14	8.168376e+03	3.845720e+03	1.803018e+03	0	5.614489e-04
4.400000e+08	3.827408e+12	0.000000e+00	4.874371e-01	7.441192e+13	5.729079e+14	2.513775e+14	8.161633e+03	3.836867e+03	1.798867e+03	0	5.595766e-04
4.500000e+08	3.789702e+12	0.000000e+00	4.874371e-01	7.380873e+13	5.636532e+14	2.501042e+14	8.154945e+03	3.828281e+03	1.794842e+03	0	5.577330e-04
4.600000e+08	3.752806e+12	0.000000e+00	4.874371e-01	7.321833e+13	5.547586e+14	2.488400e+14	8.148311e+03	3.819949e+03	1.790935e+03	0	5.559171e-04
4.700000e+08	3.716688e+12	0.000000e+00	4.874371e-01	7.264024e+13	5.462036e+14	2.475849e+14	8.141730e+03	3.811860e+03	1.787143e+03	0	5.541279e-04
4.800000e+08	3.681320e+12	0.000000e+00	4.874371e-01	7.207399e+13	5.379690e+14	2.463388e+14	8.135201e+03	3.804002e+03	1.783459e+03	0	5.523646e-04
4.900000e+08	3.646674e+12	0.000000e+00	4.874371e-01	7.151916e+13	5.300371e+14	2.451016e+14	8.128722e+03	3.796367e+03	1.779879e+03	0	5.506263e-04
5.000000e+08	3.612723e+12	0.000000e+00	4.874371e-01	7.097533e+13	5.223914e+14	2.438733e+14	8.122294e+03	3.788943e+03	1.776398e+03	0	5.489122e-04
5.100000e+08	3.579444e+12	0.000000e+00	4.874371e-01	7.044211e+13	5.150165e+14	2.426537e+14	8.115914e+03	3.781722e+03	1.773013e+03	0	5.472215e-04
5.200000e+08	3.546813e+12	0.000000e+00	4.874371e-01	6.991913e+13	5.078981e+14	2.414429e+14	8.109582e+03	3.774695e+03	1.769718e+03	0	5.455536e-04
5.300000e+08	3.514806e+12	0.000000e+00	4.874371e-01	6.940605e+13	5.010228e+14	2.402406e+14	8.103297e+03	3.767854e+03	1.766511e+03	0	5.439076e-04
5.400000e+08	3.483403e+12	0.000000e+00	4.874371e-01	6.890251e+13	4.943783e+14	2.390470e+14	8.097058e+03	3.761191e+03	1.763387e+03	0	5.422829e-04
5.500000e+08	3.452584e+12	0.000000e+00	4.874371e-01	6.840820e+13	4.879528e+14	2.378618e+14	8.090864e+03	3.754700e+03	1.760344e+03	0	5.406789e-04
5.600000e+08	3.422329e+12	0.000000e+00	4.874371e-01	6.792282e+13	4.817354e+14	2.366851e+14	8.084714e+03	3.748372e+03	1.757377e+03	0	5.390949e-04
5.700000e+08	3.392619e+12	0.000000e+00	4.874371e-01	6.744607e+13	4.757161e+14	2.355167e+14	8.078608e+03	3.742202e+03	1.754485e+03	0	5.375304e-04
5.800000e+08	3.363438e+12	0.000000e+00	4.874371e-01	6.697768e+13	4.698851e+14	2.343566e+14	8.072545e+03	3.736183e+03	1.751663e+03	0	5.359848e-04
5.900000e+08	3.334767e+12	0.000000e+00	4.874371e-01	6.651738e+13	4.642335e+14	2.332047e+14	8.066524e+03	3.730310e+03	1.748909e+03	0	5.344575e-04
6.000000e+08	3.306591e+12	0.000000e+00	4.874371e-01	6.606491e+13	4.587529e+14	2.320610e+14	8.060544e+03	3.724577e+03	1.746221e+03	0	5.329480e-04
6.100000e+08	3.278895e+12	0.000000e+00	4.874371e-01	6.562004e+13	4.534354e+14	2.309254e+14	8.054605e+03	3.718977e+03	1.743596e+03	0	5.314558e-04
6.200000e+08	3.251664e+12	0.000000e+00	4.874371e-01	6.518254e+13	4.482735e+14	2.297978e+14	8.048705e+03	3.713508e+03	1.741032e+03	0	5.299805e-04
6.300000e+08	3.224884e+12	0.000000e+00	4.874371e-01	6.475217e+13	4.432602e+14	2.286782e+14	8.042845e+03	3.708162e+03	1.738526e+03	0	5.285216e-04
6.400000e+08	3.198542e+12	0.000000e+00	4.874371e-01	6.432874e+13	4.383889e+14	2.275664e+14	8.037024e+03	3.702937e+03	1.736076e+03	0	5.270785e-04
6.500000e+08	3.172624e+12	0.000000e+00	4.874371e-01	6.391203e+13	4.336534e+14	2.264625e+14	8.031240e+03	3.697827e+03	1.733680e+03	0	5.256510e-04
6.600000e+08	3.147118e+12	0.000000e+00	4.874371e-01	6.350185e+13	4.290477e+14	2.253664e+14	8.025494e+03	3.692829e+03	1.731337e+03	0	5.242386e-04
6.700000e+08	3.122012e+12	0.000000e+00	4.874371e-01	6.309801e+13	4.245664e+14	2.242779e+14	8.019785e+03	3.687938e+03	1.729044e+03	0	5.228409e-04
6.800000e+08	3.097296e+12	0.000000e+00	4.874371e-01	6.270035e+13	4.202041e+14	2.231971e+14	8.014112e+03	3.683151e+03	1.726799e+03	0	5.214575e-04
6.900000e+08	3.072957e+12	0.000000e+00	4.874371e-01	6.230867e+13	4.159560e+14	2.221239e+14	8.008475e+03	3.678463e+03	1.724601e+03	0	5.200880e-04
7.000000e+08	3.048987e+12	0.000000e+00	4.874371e-01	6.192283e+13	4.118172e+14	2.210582e+14	8.002873e+03	3.673872e+03	1.722449e+03	0	5.187322e-04
7.100000e+08	3.025374e+12	0.000000e+00	4.874371e-01	6.154265e+13	4.077835e+14	2.200000e+14	7.997305e+03	3.669375e+03	1.720340e+03	0	5.173896e-04
7.200000e+08	3.002109e+12	0.000000e+00	4.874371e-01	6.116800e+13	4.038505e+14	2.189492e+14	7.991772e+03	3.664967e+03	1.718274e+03	0	5.160599e-04
7.300000e+08	2.979183e+12	0.000000e+00	4.874371e-01	6.079871e+13	4.000142e+14	2.179057e+14	7.986272e+03	3.660646e+03	1.716248e+03	0	5.147429e-04
7.400000e+08	2.956586e+12	0.000000e+00	4.874371e-01	6.043466e+13	3.962710e+14	2.168695e+14	7.980805e+03	3.656409e+03	1.714262e+03	0	5.134382e-04
7.500000e+08	2.934311e+12	0.000000e+00	4.874371e-01	6.007570e+13	3.926171e+14	2.158405e+14	7.975371e+03	3.652254e+03	1.712314e+03	0	5.121455e-04
7.600000e+08	2.912349e+12	0.000000e+00	4.874371e-01	5.972171e+13	3.890491e+14	2.148187e+14	7.969970e+03	3.648177e+03	1.710402e+03	0	5.108646e-04
7.700000e+08	2.890691e+12	0.000000e+00	4.874371e-01	5.937256e+13	3.855639e+14	2.138040e+14	7.964600e+03	3.644177e+03	1.708527e+03	0	5.095951e-04
7.800000e+08	2.869332e+12	0.000000e+00	4.874371e-01	5.902813e+13	3.821582e+14	2.127964e+14	7.959261e+03	3.640250e+03	1.706685e+03	0	5.083368e-04
7.900000e+08	2.848262e+12	0.000000e+00	4.874371e-01	5.868830e+13	3.788293e+14	2.117957e+14	7.953953e+03	3.636394e+03	1.704878e+03	0	5.070895e-04
8.000000e+08	2.827475e+12	0.000000e+00	4.874371e-01	5.835297e+13	3.755742e+14	2.108020e+14	7.948676e+03	3.632607e+03	1.703102e+03	0	5.058529e-04
8.100000e+08	2.806964e+12	0.000000e+00	4.874371e-01	5.802201e+13	3.723903e+14	2.098152e+14	7.943429e+03	3.628887e+03	1.701358e+03	0	5.046267e-04
8.200000e+08	2.786722e+12	0.000000e+00	4.874371e-01	5.769533e+13	3.692752e+14	2.088352e+14	7.938212e+03	3.625232e+03	1.699645e+03	0	5.034108e-04
8.300000e+08	2.766744e+12	0.000000e+00	4.874371e-01	5.737284e+13	3.662262e+14	2.078620e+14	7.933024e+03	3.621640e+03	1.697961e+03	0	5.022049e-04
8.400000e+08	2.747022e+12	0.000000e+00	4.874371e-01	5.705442e+13	3.632412e+14	2.068955e+14	7.927865e+03	3.618109e+03	1.696305e+03	0	5.010088e-04
8.500000e+08	2.727552e+12	0.000000e+00	4.874371e-01	5.673998e+13	3.603180e+14	2.059356e+14	7.922734e+03	3.614637e+03	1.694677e+03	0	4.998223e-04
8.600000e+08	2.708326e+12	0.000000e+00	4.874371e-01	5.642945e+13	3.574543e+14	2.049824e+14	7.917632e+03	3.611222e+03	1.693076e+03	0	4.986452e-04
8.700000e+08	2.689340e+12	0.000000e+00	4.874371e-01	5.612272e+13	3.546483e+14	2.040358e+14	7.912557e+03	3.607862e+03	1.691501e+03	0	4.974773e-04
8.800000e+08	2.670589e+12	0.000000e+00	4.874371e-01	5.581971e+13	3.518980e+14	2.030956e+14	7.907511e+03	3.604557e+03	1.689951e+03	0	4.963184e-04
8.900000e+08	2.652066e+12	0.000000e+00	4.874371e-01	5.552035e+13	3.492016e+14	2.021620e+14	7.902491e+03	3.601304e+03	1.688426e+03	0	4.951682e-04
9.000000e+08	2.633768e+12	0.000000e+00	4.874371e-01	5.522454e+13	3.465572e+14	2.012347e+14	7.897498e+03	3.598102e+03	1.686925e+03	0	4.940268e-04
9.100000e+08	2.615689e+12	0.000000e+00	4.874371e-01	5.493222e+13	3.439633e+14	2.003138e+14	7.892532e+03	3.594949e+03	1.685447e+03	0	4.928938e-04
9.200000e+08	2.597824e+12	0.000000e+00	4.874371e-01	5.464331e+13	3.414182e+14	1.993992e+14	7.887592e+03	3.591844e+03	1.683991e+03	0	4.917691e-04
9.300000e+08	2.580169e+12	0.000000e+00	4.874371e-01	5.435774e+13	3.389203e+14	1.984908e+14	7.882678e+03	3.588786e+03	1.682558e+03	0	4.906525e-04
9.400000e+08	2.562720e+12	0.000000e+00	4.874371e-01	5.407544e+13	3.364683e+14	1.975887e+14	7.877789e+03	3.585774e+03	1.681145e+03	0	4.895440e-04
9.500000e+08	2.545472e+12	0.000000e+00	4.874371e-01	5.379634e+13	3.340606e+14	1.966927e+14	7.872926e+03	3.582805e+03	1.679753e+03	0	4.884432e-04
9.600000e+08	2.528421e+12	0.000000e+00	4.874371e-01	5.352038e+13	3.316959e+14	1.958028e+14	7.868088e+03	3.579879e+03	1.678382e+03	0	4.873501e-04
9.700000e+08	2.511563e+12	0.000000e+00	4.874371e-01	5.324748e+13	3.293730e+14	1.949190e+14	7.863275e+03	3.576995e+03	1.677030e+03	0	4.862646e-04
9.800000e+08	2.494894e+12	0.000000e+00	4.874371e-01	5.297760e+13	3.270905e+14	1.940412e+14	7.858487e+03	3.574152e+03	1.675696e+03	0	4.851865e-04
9.900000e+08	2.478411e+12	0.000000e+00	4.874371e-01	5.271067e+13	3.248472e+14	1.931694e+14	7.853722e+03	3.571348e+03	1.674382e+03	0	4.841156e-04
1.000000e+09	2.462110e+12	0.000000e+00	4.874371e-01	5.244663e+13	3.226421e+14	1.923035e+14	7.848982e+03	3.568583e+03	1.673085e+03	0	4.830519e-04
1.010000e+09	2.445986e+12	0.000000e+00	4.874371e-01	5.218543e+13	3.204740e+14	1.914434e+14	7.844265e+03	3.565855e+03	1.671806e+03	0	4.819951e-04
1.020000e+09	2.430038e+12	0.000000e+00	4.874371e-01	5.192701e+13	3.183418e+14	1.905892e+14	7.839571e+03	3.563163e+03	1.670544e+03	0	4.809453e-04
1.030000e+09	2.414261e+12	0.000000e+00	4.874371e-01	5.167133e+13	3.162445e+14	1.897408e+14	7.834901e+03	3.560507e+03	1.669299e+03	0	4.799022e-04
1.040000e+09	2.398652e+12	0.000000e+00	4.874371e-01	5.141831e+13	3.141812e+14	1.888981e+14	7.830254e+03	3.557885e+03	1.668070e+03	0	4.788657e-04
1.050000e+09	2.383208e+12	0.000000e+00	4.874371e-01	5.116793e+13	3.121508e+14	1.880610e+14	7.825630e+03	3.555297e+03	1.666857e+03	0	4.778357e-04
1.060000e+09	2.367926e+12	0.000000e+00	4.874371e-01	5.092013e+13	3.101525e+14	1.872297e+14	7.821028e+03	3.552742e+03	1.665659e+03	0	4.768122e-04
1.070000e+09	2.352803e+12	0.000000e+00	4.874371e-01	5.067486e+13	3.081854e+14	1.864039e+14	7.816448e+03	3.550219e+03	1.664476e+03	0	4.757949e-04
1.080000e+09	2.337836e+12	0.000000e+00	4.874371e-01	5.043207e+13	3.062487e+14	1.855837e+14	7.811890e+03	3.547728e+03	1.663308e+03	0	4.747839e-04
1.090000e+09	2.323022e+12	0.000000e+00	4.874371e-01	5.019173e+13	3.043415e+14	1.847690e+14	7.807354e+03	3.545266e+03	1.662154e+03	0	4.737789e-04
1.100000e+09	2.308358e+12	0.000000e+00	4.874371e-01	4.995378e+13	3.024630e+14	1.839598e+14	7.802840e+03	3.542835e+03	1.661014e+03	0	4.727800e-04
1.110000e+09	2.293843e+12	0.000000e+00	4.874371e-01	4.971819e+13	3.006125e+14	1.831560e+14	7.798347e+03	3.540432e+03	1.659887e+03	0	4.717869e-04
1.120000e+09	2.279472e+12	0.000000e+00	4.874371e-01	4.948491e+13	2.987893e+14	1.823576e+14	7.793876e+03	3.538057e+03	1.658774e+03	0	4.707996e-04
1.130000e+09	2.265245e+12	0.000000e+00	4.874371e-01	4.925391e+13	2.969927e+14	1.815645e+14	7.789425e+03	3.535711e+03	1.657674e+03	0	4.698180e-04
1.140000e+09	2.251157e+12	0.000000e+00	4.874371e-01	4.902515e+13	2.952220e+14	1.807767e+14	7.784995e+03	3.533391e+03	1.656586e+03	0	4.688421e-04
1.150000e+09	2.237207e+12	0.000000e+00	4.874371e-01	4.879858e+13	2.934765e+14	1.799942e+14	7.780585e+03	3.531097e+03	1.655511e+03	0	4.678716e-04
1.160000e+09	2.223393e+12	0.000000e+00	4.874371e-01	4.857417e+13	2.917555e+14	1.792169e+14	7.776196e+03	3.528829e+03	1.654447e+03	0	4.669066e-04
1.170000e+09	2.209712e+12	0.000000e+00	4.874371e-01	4.835188e+13	2.900586e+14	1.784448e+14	7.771827e+03	3.526586e+03	1.653396e+03	0	4.659470e-04
1.180000e+09	2.196161e+12	0.000000e+00	4.874371e-01	4.813169e+13	2.883851e+14	1.776779e+14	7.767478e+03	3.524368e+03	1.652356e+03	0	4.649926e-04
1.190000e+09	2.182740e+12	0.000000e+00	4.874371e-01	4.791355e+13	2.867344e+14	1.769160e+14	7.763149e+03	3.522173e+03	1.651327e+03	0	4.640435e-04
1.200000e+09	2.169445e+12	0.000000e+00	4.874371e-01	4.769743e+13	2.851060e+14	1.761592e+14	7.758839e+03	3.520002e+03	1.650309e+03	0	4.630994e-04
1.210000e+09	2.156275e+12	0.000000e+00	4.874371e-01	4.748330e+13	2.834994e+14	1.754074e+14	7.754549e+03	3.517854e+03	1.649302e+03	0	4.621604e-04
1.220000e+09	2.143227e+12	0.000000e+00	4.874371e-01	4.727113e+13	2.819140e+14	1.746605e+14	7.750278e+03	3.515728e+03	1.648305e+03	0	4.612263e-04
1.230000e+09	2.130301e+12	0.000000e+00	4.874371e-01	4.706088e+13	2.803493e+14	1.739187e+14	7.746026e+03	3.513624e+03	1.647318e+03	0	4.602971e-04
1.240000e+09	2.117492e+12	0.000000e+00	4.874371e-01	4.685253e+13	2.788050e+14	1.731817e+14	7.741793e+03	3.511541e+03	1.646342e+03	0	4.593728e-04
1.250000e+09	2.104801e+12	0.000000e+00	4.874371e-01	4.664604e+13	2.772804e+14	1.724496e+14	7.737578e+03	3.509479e+03	1.645375e+03	0	4.584532e-04
1.260000e+09	2.092225e+12	0.000000e+00	4.874371e-01	4.644139e+13	2.757751e+14	1.717223e+14	7.733382e+03	3.507438e+03	1.644418e+03	0	4.575383e-04
1.270000e+09	2.079762e+12	0.000000e+00	4.874371e-01	4.623855e+13	2.742888e+14	1.709998e+14	7.729205e+03	3.505416e+03	1.643471e+03	0	4.566280e-04
1.280000e+09	2.067410e+12	0.000000e+00	4.874371e-01	4.603750e+13	2.728209e+14	1.702821e+14	7.725046e+03	3.503414e+03	1.642532e+03	0	4.557222e-04
1.290000e+09	2.055169e+12	0.000000e+00	4.874371e-01	4.583819e+13	2.713712e+14	1.695691e+14	7.720905e+03	3.501432e+03	1.641602e+03	0	4.548210e-04
1.300000e+09	2.043035e+12	0.000000e+00	4.874371e-01	4.564062e+13	2.699391e+14	1.688607e+14	7.716781e+03	3.499468e+03	1.640682e+03	0	4.539241e-04
1.310000e+09	2.031009e+12	0.000000e+00	4.874371e-01	4.544475e+13	2.685243e+14	1.681570e+14	7.712676e+03	3.497522e+03	1.639770e+03	0	4.530317e-04
1.320000e+09	2.019087e+12	0.000000e+00	4.874371e-01	4.525055e+13	2.671264e+14	1.674579e+14	7.708588e+03	3.495595e+03	1.638866e+03	0	4.521435e-04
1.330000e+09	2.007268e+12	0.000000e+00	4.874371e-01	4.505801e+13	2.657451e+14	1.667634e+14	7.704517e+03	3.493685e+03	1.637970e+03	0	4.512596e-04
1.340000e+09	1.995552e+12	0.000000e+00	4.874371e-01	4.486710e+13	2.643801e+14	1.660734e+14	7.700464e+03	3.491792e+03	1.637083e+03	0	4.503799e-04
1.350000e+09	1.983936e+12	0.000000e+00	4.874371e-01	4.467779e+13	2.630309e+14	1.653880e+14	7.696428e+03	3.489916e+03	1.636204e+03	0	4.495043e-04
1.360000e+09	1.972419e+12	0.000000e+00	4.874371e-01	4.449007e+13	2.616973e+14	1.647070e+14	7.692409e+03	3.488057e+03	1.635332e+03	0	4.486328e-04
