#t		Qconv[W]	Ri[Rp]		R*[Rp]		Qc[W]		Qm[W]		Qr[W]		Tcmb[K]		Tl[K]		Tup[K]		RiFlag		Bs[T]
0.000000e+00	2.303242e+13	0.000000e+00	4.824121e-01	3.270460e+14	4.049328e+15	5.239166e+14	1.211452e+04	6.841775e+03	2.595282e+03	0	1.003169e-03
1.000000e+07	2.262308e+13	0.000000e+00	4.824121e-01	3.222568e+14	3.812089e+15	5.210137e+14	1.209856e+04	6.769939e+03	2.568032e+03	0	9.971902e-04
2.000000e+07	2.222463e+13	0.000000e+00	4.824121e-01	3.175940e+14	3.599774e+15	5.181325e+14	1.208282e+04	6.703161e+03	2.542701e+03	0	9.913011e-04
3.000000e+07	2.183754e+13	0.000000e+00	4.824121e-01	3.130630e+14	3.408873e+15	5.152729e+14	1.206732e+04	6.640905e+03	2.519086e+03	0	9.855121e-04
4.000000e+07	2.146198e+13	0.000000e+00	4.824121e-01	3.086657e+14	3.236485e+15	5.124346e+14	1.205203e+04	6.582711e+03	2.497011e+03	0	9.798298e-04
5.000000e+07	2.109793e+13	0.000000e+00	4.824121e-01	3.044019e+14	3.080188e+15	5.096174e+14	1.203696e+04	6.528178e+03	2.476325e+03	0	9.742580e-04
6.000000e+07	2.074522e+13	0.000000e+00	4.824121e-01	3.002696e+14	2.937951e+15	5.068213e+14	1.202209e+04	6.476959e+03	2.456897e+03	0	9.687984e-04
7.000000e+07	2.040360e+13	0.000000e+00	4.824121e-01	2.962658e+14	2.808057e+15	5.040460e+14	1.200743e+04	6.428751e+03	2.438610e+03	0	9.634510e-04
8.000000e+07	2.007274e+13	0.000000e+00	4.824121e-01	2.923868e+14	2.689049e+15	5.012914e+14	1.199296e+04	6.383287e+03	2.421364e+03	0	9.582151e-04
9.000000e+07	1.975230e+13	0.000000e+00	4.824121e-01	2.886286e+14	2.579683e+15	4.985572e+14	1.197868e+04	6.340330e+03	2.405069e+03	0	9.530887e-04
1.000000e+08	1.944189e+13	0.000000e+00	4.824121e-01	2.849866e+14	2.478891e+15	4.958433e+14	1.196458e+04	6.299672e+03	2.389646e+03	0	9.480697e-04
1.100000e+08	1.914113e+13	0.000000e+00	4.824121e-01	2.814565e+14	2.385750e+15	4.931496e+14	1.195066e+04	6.261126e+03	2.375025e+03	0	9.431554e-04
1.200000e+08	1.884962e+13	0.000000e+00	4.824121e-01	2.780336e+14	2.299462e+15	4.904758e+14	1.193691e+04	6.224528e+03	2.361142e+03	0	9.383429e-04
1.300000e+08	1.856697e+13	0.000000e+00	4.824121e-01	2.747135e+14	2.219333e+15	4.878218e+14	1.192333e+04	6.189728e+03	2.347942e+03	0	9.336292e-04
1.400000e+08	1.829281e+13	0.000000e+00	4.824121e-01	2.714919e+14	2.144756e+15	4.851875e+14	1.190991e+04	6.156592e+03	2.335372e+03	0	9.290110e-04
1.500000e+08	1.802677e+13	0.000000e+00	4.824121e-01	2.683645e+14	2.075197e+15	4.825726e+14	1.189665e+04	6.125001e+03	2.323389e+03	0	9.244854e-04
1.600000e+08	1.776850e+13	0.000000e+00	4.824121e-01	2.653272e+14	2.010189e+15	4.799771e+14	1.188354e+04	6.094845e+03	2.311950e+03	0	9.200491e-04
1.700000e+08	1.751766e+13	0.000000e+00	4.824121e-01	2.623761e+14	1.949318e+15	4.774007e+14	1.187058e+04	6.066025e+03	2.301018e+03	0	9.156991e-04
1.800000e+08	1.727393e+13	0.000000e+00	4.824121e-01	2.595075e+14	1.892216e+15	4.748433e+14	1.185776e+04	6.038452e+03	2.290558e+03	0	9.114324e-04
1.900000e+08	1.703699e+13	0.000000e+00	4.824121e-01	2.567177e+14	1.838558e+15	4.723047e+14	1.184508e+04	6.012045e+03	2.280541e+03	0	9.072459e-04
2.000000e+08	1.680655e+13	0.000000e+00	4.824121e-01	2.540033e+14	1.788053e+15	4.697849e+14	1.183254e+04	5.986728e+03	2.270938e+03	0	9.031369e-04
2.100000e+08	1.658233e+13	0.000000e+00	4.824121e-01	2.513612e+14	1.740442e+15	4.672835e+14	1.182013e+04	5.962433e+03	2.261722e+03	0	8.991027e-04
2.200000e+08	1.636407e+13	0.000000e+00	4.824121e-01	2.487882e+14	1.695490e+15	4.648005e+14	1.180785e+04	5.939097e+03	2.252870e+03	0	8.951405e-04
2.300000e+08	1.615151e+13	0.000000e+00	4.824121e-01	2.462815e+14	1.652990e+15	4.623358e+14	1.179569e+04	5.916664e+03	2.244361e+03	0	8.912478e-04
2.400000e+08	1.594441e+13	0.000000e+00	4.824121e-01	2.438381e+14	1.612752e+15	4.598891e+14	1.178365e+04	5.895080e+03	2.236173e+03	0	8.874221e-04
2.500000e+08	1.574255e+13	0.000000e+00	4.824121e-01	2.414556e+14	1.574606e+15	4.574603e+14	1.177174e+04	5.874295e+03	2.228289e+03	0	8.836611e-04
2.600000e+08	1.554571e+13	0.000000e+00	4.824121e-01	2.391314e+14	1.538398e+15	4.550493e+14	1.175994e+04	5.854266e+03	2.220691e+03	0	8.799626e-04
2.700000e+08	1.535368e+13	0.000000e+00	4.824121e-01	2.368632e+14	1.503987e+15	4.526560e+14	1.174826e+04	5.834950e+03	2.213364e+03	0	8.763243e-04
2.800000e+08	1.516627e+13	0.000000e+00	4.824121e-01	2.346487e+14	1.471248e+15	4.502801e+14	1.173668e+04	5.816309e+03	2.206293e+03	0	8.727443e-04
2.900000e+08	1.498330e+13	0.000000e+00	4.824121e-01	2.324857e+14	1.440064e+15	4.479215e+14	1.172521e+04	5.798306e+03	2.199464e+03	0	8.692204e-04
3.000000e+08	1.480460e+13	0.000000e+00	4.824121e-01	2.303724e+14	1.410329e+15	4.455802e+14	1.171385e+04	5.780908e+03	2.192864e+03	0	8.657508e-04
3.100000e+08	1.462999e+13	0.000000e+00	4.824121e-01	2.283067e+14	1.381948e+15	4.432559e+14	1.170259e+04	5.764084e+03	2.186483e+03	0	8.623338e-04
3.200000e+08	1.445932e+13	0.000000e+00	4.824121e-01	2.262868e+14	1.354831e+15	4.409485e+14	1.169144e+04	5.747805e+03	2.180308e+03	0	8.589675e-04
3.300000e+08	1.429245e+13	0.000000e+00	4.824121e-01	2.243110e+14	1.328898e+15	4.386579e+14	1.168038e+04	5.732044e+03	2.174329e+03	0	8.556503e-04
3.400000e+08	1.412923e+13	0.000000e+00	4.824121e-01	2.223778e+14	1.304074e+15	4.363839e+14	1.166941e+04	5.716776e+03	2.168537e+03	0	8.523806e-04
3.500000e+08	1.396952e+13	0.000000e+00	4.824121e-01	2.204854e+14	1.280290e+15	4.341265e+14	1.165854e+04	5.701976e+03	2.162923e+03	0	8.491568e-04
3.600000e+08	1.381320e+13	0.000000e+00	4.824121e-01	2.186325e+14	1.257484e+15	4.318854e+14	1.164777e+04	5.687624e+03	2.157479e+03	0	8.459776e-04
3.700000e+08	1.366015e+13	0.000000e+00	4.824121e-01	2.168176e+14	1.235597e+15	4.296605e+14	1.163708e+04	5.673697e+03	2.152196e+03	0	8.428415e-04
3.800000e+08	1.351025e+13	0.000000e+00	4.824121e-01	2.150394e+14	1.214576e+15	4.274517e+14	1.162648e+04	5.660176e+03	2.147067e+03	0	8.397472e-04
3.900000e+08	1.336339e+13	0.000000e+00	4.824121e-01	2.132966e+14	1.194369e+15	4.252589e+14	1.161597e+04	5.647043e+03	2.142086e+03	0	8.366933e-04
4.000000e+08	1.321947e+13	0.000000e+00	4.824121e-01	2.115881e+14	1.174932e+15	4.230819e+14	1.160555e+04	5.634281e+03	2.137245e+03	0	8.336788e-04
4.100000e+08	1.307838e+13	0.000000e+00	4.824121e-01	2.099125e+14	1.156221e+15	4.209206e+14	1.159520e+04	5.621873e+03	2.132538e+03	0	8.307023e-04
4.200000e+08	1.294003e+13	0.000000e+00	4.824121e-01	2.082689e+14	1.138197e+15	4.187749e+14	1.158494e+04	5.609805e+03	2.127960e+03	0	8.277627e-04
4.300000e+08	1.280433e+13	0.000000e+00	4.824121e-01	2.066562e+14	1.120822e+15	4.166447e+14	1.157476e+04	5.598061e+03	2.123505e+03	0	8.248591e-04
4.400000e+08	1.267120e+13	0.000000e+00	4.824121e-01	2.050733e+14	1.104062e+15	4.145298e+14	1.156466e+04	5.586628e+03	2.119168e+03	0	8.219902e-04
4.500000e+08	1.254054e+13	0.000000e+00	4.824121e-01	2.035194e+14	1.087885e+15	4.124301e+14	1.155464e+04	5.575493e+03	2.114944e+03	0	8.191552e-04
4.600000e+08	1.241229e+13	0.000000e+00	4.824121e-01	2.019934e+14	1.072261e+15	4.103454e+14	1.154469e+04	5.564643e+03	2.110829e+03	0	8.163531e-04
4.700000e+08	1.228636e+13	0.000000e+00	4.824121e-01	2.004946e+14	1.057161e+15	4.082757e+14	1.153481e+04	5.554068e+03	2.106818e+03	0	8.135829e-04
4.800000e+08	1.216268e+13	0.000000e+00	4.824121e-01	1.990220e+14	1.042560e+15	4.062209e+14	1.152501e+04	5.543757e+03	2.102906e+03	0	8.108437e-04
4.900000e+08	1.204118e+13	0.000000e+00	4.824121e-01	1.975749e+14	1.028432e+15	4.041807e+14	1.151528e+04	5.533698e+03	2.099090e+03	0	8.081348e-04
5.000000e+08	1.192180e+13	0.000000e+00	4.824121e-01	1.961525e+14	1.014756e+15	4.021551e+14	1.150562e+04	5.523882e+03	2.095367e+03	0	8.054552e-04
5.100000e+08	1.180448e+13	0.000000e+00	4.824121e-01	1.947541e+14	1.001509e+15	4.001440e+14	1.149603e+04	5.514300e+03	2.091732e+03	0	8.028043e-04
5.200000e+08	1.168915e+13	0.000000e+00	4.824121e-01	1.933789e+14	9.886716e+14	3.981473e+14	1.148651e+04	5.504943e+03	2.088183e+03	0	8.001812e-04
5.300000e+08	1.157575e+13	0.000000e+00	4.824121e-01	1.920263e+14	9.762240e+14	3.961648e+14	1.147706e+04	5.495802e+03	2.084715e+03	0	7.975852e-04
5.400000e+08	1.146422e+13	0.000000e+00	4.824121e-01	1.906957e+14	9.641486e+14	3.941964e+14	1.146767e+04	5.486869e+03	2.081327e+03	0	7.950155e-04
5.500000e+08	1.135453e+13	0.000000e+00	4.824121e-01	1.893863e+14	9.524287e+14	3.922420e+14	1.145835e+04	5.478138e+03	2.078015e+03	0	7.924717e-04
5.600000e+08	1.124660e+13	0.000000e+00	4.824121e-01	1.880977e+14	9.410482e+14	3.903016e+14	1.144909e+04	5.469599e+03	2.074776e+03	0	7.899528e-04
5.700000e+08	1.114040e+13	0.000000e+00	4.824121e-01	1.868292e+14	9.299924e+14	3.883749e+14	1.143989e+04	5.461247e+03	2.071608e+03	0	7.874585e-04
5.800000e+08	1.103587e+13	0.000000e+00	4.824121e-01	1.855803e+14	9.192470e+14	3.864618e+14	1.143076e+04	5.453075e+03	2.068508e+03	0	7.849879e-04
5.900000e+08	1.093298e+13	0.000000e+00	4.824121e-01	1.843505e+14	9.087988e+14	3.845624e+14	1.142168e+04	5.445077e+03	2.065474e+03	0	7.825406e-04
6.000000e+08	1.083167e+13	0.000000e+00	4.824121e-01	1.831392e+14	8.986352e+14	3.826763e+14	1.141267e+04	5.437246e+03	2.062503e+03	0	7.801160e-04
6.100000e+08	1.073190e+13	0.000000e+00	4.824121e-01	1.819460e+14	8.887443e+14	3.808037e+14	1.140371e+04	5.429577e+03	2.059594e+03	0	7.777135e-04
6.200000e+08	1.063364e+13	0.000000e+00	4.824121e-01	1.807703e+14	8.791149e+14	3.789442e+14	1.139482e+04	5.422064e+03	2.056744e+03	0	7.753326e-04
6.300000e+08	1.053684e+13	0.000000e+00	4.824121e-01	1.796118e+14	8.697362e+14	3.770979e+14	1.138598e+04	5.414702e+03	2.053952e+03	0	7.729729e-04
6.400000e+08	1.044147e+13	0.000000e+00	4.824121e-01	1.784700e+14	8.605983e+14	3.752646e+14	1.137720e+04	5.407486e+03	2.051215e+03	0	7.706337e-04
6.500000e+08	1.034749e+13	0.000000e+00	4.824121e-01	1.773445e+14	8.516915e+14	3.734442e+14	1.136847e+04	5.400411e+03	2.048531e+03	0	7.683146e-04
6.600000e+08	1.025486e+13	0.000000e+00	4.824121e-01	1.762348e+14	8.430067e+14	3.716366e+14	1.135980e+04	5.393473e+03	2.045899e+03	0	7.660152e-04
6.700000e+08	1.016356e+13	0.000000e+00	4.824121e-01	1.751406e+14	8.345354e+14	3.698417e+14	1.135118e+04	5.386667e+03	2.043318e+03	0	7.637350e-04
6.800000e+08	1.007354e+13	0.000000e+00	4.824121e-01	1.740615e+14	8.262694e+14	3.680595e+14	1.134262e+04	5.379989e+03	2.040784e+03	0	7.614736e-04
6.900000e+08	9.984787e+12	0.000000e+00	4.824121e-01	1.729971e+14	8.182008e+14	3.662897e+14	1.133411e+04	5.373435e+03	2.038298e+03	0	7.592305e-04
7.000000e+08	9.897256e+12	0.000000e+00	4.824121e-01	1.719471e+14	8.103224e+14	3.645323e+14	1.132565e+04	5.367001e+03	2.035858e+03	0	7.570055e-04
7.100000e+08	9.810924e+12	0.000000e+00	4.824121e-01	1.709112e+14	8.026270e+14	3.627873e+14	1.131724e+04	5.360683e+03	2.033461e+03	0	7.547980e-04
7.200000e+08	9.725762e+12	0.000000e+00	4.824121e-01	1.698889e+14	7.951080e+14	3.610544e+14	1.130888e+04	5.354478e+03	2.031107e+03	0	7.526076e-04
7.300000e+08	9.641743e+12	0.000000e+00	4.824121e-01	1.688801e+14	7.877589e+14	3.593337e+14	1.130057e+04	5.348382e+03	2.028795e+03	0	7.504341e-04
7.400000e+08	9.558839e+12	0.000000e+00	4.824121e-01	1.678844e+14	7.805738e+14	3.576250e+14	1.129231e+04	5.342392e+03	2.026523e+03	0	7.482771e-04
7.500000e+08	9.477027e+12	0.000000e+00	4.824121e-01	1.669014e+14	7.735468e+14	3.559282e+14	1.128410e+04	5.336505e+03	2.024290e+03	0	7.461362e-04
7.600000e+08	9.396281e+12	0.000000e+00	4.824121e-01	1.659310e+14	7.666724e+14	3.542432e+14	1.127594e+04	5.330718e+03	2.022094e+03	0	7.440111e-04
7.700000e+08	9.316577e+12	0.000000e+00	4.824121e-01	1.649727e+14	7.599454e+14	3.525699e+14	1.126783e+04	5.325027e+03	2.019936e+03	0	7.419014e-04
7.800000e+08	9.237892e+12	0.000000e+00	4.824121e-01	1.640265e+14	7.533606e+14	3.509083e+14	1.125976e+04	5.319431e+03	2.017813e+03	0	7.398069e-04
7.900000e+08	9.160204e+12	0.000000e+00	4.824121e-01	1.630919e+14	7.469133e+14	3.492581e+14	1.125174e+04	5.313926e+03	2.015725e+03	0	7.377272e-04
8.000000e+08	9.083491e+12	0.000000e+00	4.824121e-01	1.621688e+14	7.405988e+14	3.476195e+14	1.124376e+04	5.308509e+03	2.013670e+03	0	7.356620e-04
8.100000e+08	9.007733e+12	0.000000e+00	4.824121e-01	1.612569e+14	7.344129e+14	3.459922e+14	1.123583e+04	5.303179e+03	2.011648e+03	0	7.336111e-04
8.200000e+08	8.932909e+12	0.000000e+00	4.824121e-01	1.603560e+14	7.283512e+14	3.443761e+14	1.122794e+04	5.297932e+03	2.009658e+03	0	7.315742e-04
8.300000e+08	8.858999e+12	0.000000e+00	4.824121e-01	1.594658e+14	7.224098e+14	3.427713e+14	1.122010e+04	5.292767e+03	2.007698e+03	0	7.295510e-04
8.400000e+08	8.785985e+12	0.000000e+00	4.824121e-01	1.585861e+14	7.165848e+14	3.411775e+14	1.121230e+04	5.287681e+03	2.005769e+03	0	7.275411e-04
8.500000e+08	8.713847e+12	0.000000e+00	4.824121e-01	1.577168e+14	7.108724e+14	3.395947e+14	1.120455e+04	5.282671e+03	2.003869e+03	0	7.255445e-04
8.600000e+08	8.642568e+12	0.000000e+00	4.824121e-01	1.568575e+14	7.052693e+14	3.380228e+14	1.119683e+04	5.277737e+03	2.001997e+03	0	7.235608e-04
8.700000e+08	8.572131e+12	0.000000e+00	4.824121e-01	1.560081e+14	6.997719e+14	3.364618e+14	1.118916e+04	5.272876e+03	2.000153e+03	0	7.215897e-04
8.800000e+08	8.502518e+12	0.000000e+00	4.824121e-01	1.551684e+14	6.943771e+14	3.349115e+14	1.118153e+04	5.268085e+03	1.998336e+03	0	7.196311e-04
8.900000e+08	8.433714e+12	0.000000e+00	4.824121e-01	1.543382e+14	6.890817e+14	3.333718e+14	1.117394e+04	5.263364e+03	1.996545e+03	0	7.176847e-04
9.000000e+08	8.365701e+12	0.000000e+00	4.824121e-01	1.535174e+14	6.838827e+14	3.318427e+14	1.116639e+04	5.258710e+03	1.994780e+03	0	7.157503e-04
9.100000e+08	8.298466e+12	0.000000e+00	4.824121e-01	1.527056e+14	6.787773e+14	3.303241e+14	1.115889e+04	5.254121e+03	1.993039e+03	0	7.138276e-04
9.200000e+08	8.231992e+12	0.000000e+00	4.824121e-01	1.519029e+14	6.737626e+14	3.288159e+14	1.115142e+04	5.249596e+03	1.991323e+03	0	7.119165e-04
9.300000e+08	8.166266e+12	0.000000e+00	4.824121e-01	1.511089e+14	6.688361e+14	3.273180e+14	1.114399e+04	5.245133e+03	1.989630e+03	0	7.100167e-04
9.400000e+08	8.101272e+12	0.000000e+00	4.824121e-01	1.503236e+14	6.639951e+14	3.258303e+14	1.113660e+04	5.240731e+03	1.987960e+03	0	7.081281e-04
9.500000e+08	8.036998e+12	0.000000e+00	4.824121e-01	1.495467e+14	6.592373e+14	3.243528e+14	1.112924e+04	5.236388e+03	1.986312e+03	0	7.062504e-04
9.600000e+08	7.973430e+12	0.000000e+00	4.824121e-01	1.487782e+14	6.545603e+14	3.228853e+14	1.112193e+04	5.232102e+03	1.984687e+03	0	7.043834e-04
9.700000e+08	7.910554e+12	0.000000e+00	4.824121e-01	1.480178e+14	6.499618e+14	3.214279e+14	1.111465e+04	5.227873e+03	1.983082e+03	0	7.025270e-04
9.800000e+08	7.848358e+12	0.000000e+00	4.824121e-01	1.472654e+14	6.454396e+14	3.199804e+14	1.110741e+04	5.223698e+03	1.981499e+03	0	7.006810e-04
9.900000e+08	7.786831e+12	0.000000e+00	4.824121e-01	1.465208e+14	6.409916e+14	3.185427e+14	1.110021e+04	5.219577e+03	1.979935e+03	0	6.988452e-04
1.000000e+09	7.725958e+12	0.000000e+00	4.824121e-01	1.457841e+14	6.366158e+14	3.171148e+14	1.109304e+04	5.215508e+03	1.978392e+03	0	6.970194e-04
1.010000e+09	7.665730e+12	0.000000e+00	4.824121e-01	1.450549e+14	6.323103e+14	3.156965e+14	1.108591e+04	5.211490e+03	1.976868e+03	0	6.952035e-04
1.020000e+09	7.606135e+12	0.000000e+00	4.824121e-01	1.443331e+14	6.280731e+14	3.142879e+14	1.107882e+04	5.207521e+03	1.975362e+03	0	6.933972e-04
1.030000e+09	7.547160e+12	0.000000e+00	4.824121e-01	1.436187e+14	6.239025e+14	3.128888e+14	1.107176e+04	5.203601e+03	1.973875e+03	0	6.916005e-04
1.040000e+09	7.488797e+12	0.000000e+00	4.824121e-01	1.429115e+14	6.197967e+14	3.114992e+14	1.106473e+04	5.199728e+03	1.972406e+03	0	6.898131e-04
1.050000e+09	7.431034e+12	0.000000e+00	4.824121e-01	1.422113e+14	6.157540e+14	3.101189e+14	1.105774e+04	5.195901e+03	1.970955e+03	0	6.880349e-04
1.060000e+09	7.373860e+12	0.000000e+00	4.824121e-01	1.415181e+14	6.117729e+14	3.087480e+14	1.105078e+04	5.192120e+03	1.969520e+03	0	6.862658e-04
1.070000e+09	7.317266e+12	0.000000e+00	4.824121e-01	1.408318e+14	6.078516e+14	3.073862e+14	1.104386e+04	5.188383e+03	1.968103e+03	0	6.845056e-04
1.080000e+09	7.261243e+12	0.000000e+00	4.824121e-01	1.401522e+14	6.039888e+14	3.060337e+14	1.103697e+04	5.184688e+03	1.966701e+03	0	6.827542e-04
1.090000e+09	7.205779e+12	0.000000e+00	4.824121e-01	1.394792e+14	6.001829e+14	3.046902e+14	1.103012e+04	5.181036e+03	1.965316e+03	0	6.810114e-04
1.100000e+09	7.150868e+12	0.000000e+00	4.824121e-01	1.388127e+14	5.964326e+14	3.033558e+14	1.102329e+04	5.177425e+03	1.963946e+03	0	6.792771e-04
1.110000e+09	7.096498e+12	0.000000e+00	4.824121e-01	1.381526e+14	5.927364e+14	3.020303e+14	1.101650e+04	5.173855e+03	1.962592e+03	0	6.775512e-04
1.120000e+09	7.042661e+12	0.000000e+00	4.824121e-01	1.374988e+14	5.890931e+14	3.007137e+14	1.100975e+04	5.170324e+03	1.961252e+03	0	6.758334e-04
1.130000e+09	6.989350e+12	0.000000e+00	4.824121e-01	1.368512e+14	5.855014e+14	2.994059e+14	1.100302e+04	5.166831e+03	1.959927e+03	0	6.741238e-04
1.140000e+09	6.936554e+12	0.000000e+00	4.824121e-01	1.362098e+14	5.819600e+14	2.981068e+14	1.099632e+04	5.163376e+03	1.958617e+03	0	6.724221e-04
1.150000e+09	6.884266e+12	0.000000e+00	4.824121e-01	1.355743e+14	5.784677e+14	2.968164e+14	1.098966e+04	5.159958e+03	1.957320e+03	0	6.707283e-04
1.160000e+09	6.832479e+12	0.000000e+00	4.824121e-01	1.349447e+14	5.750235e+14	2.955347e+14	1.098303e+04	5.156576e+03	1.956037e+03	0	6.690422e-04
1.170000e+09	6.781184e+12	0.000000e+00	4.824121e-01	1.343209e+14	5.716261e+14	2.942614e+14	1.097643e+04	5.153229e+03	1.954768e+03	0	6.673637e-04
1.180000e+09	6.730373e+12	0.000000e+00	4.824121e-01	1.337029e+14	5.682745e+14	2.929967e+14	1.096986e+04	5.149917e+03	1.953511e+03	0	6.656927e-04
1.190000e+09	6.680039e+12	0.000000e+00	4.824121e-01	1.330905e+14	5.649676e+14	2.917403e+14	1.096332e+04	5.146639e+03	1.952268e+03	0	6.640290e-04
1.200000e+09	6.630174e+12	0.000000e+00	4.824121e-01	1.324837e+14	5.617045e+14	2.904923e+14	1.095681e+04	5.143393e+03	1.951037e+03	0	6.623727e-04
1.210000e+09	6.580773e+12	0.000000e+00	4.824121e-01	1.318823e+14	5.584841e+14	2.892526e+14	1.095032e+04	5.140181e+03	1.949818e+03	0	6.607234e-04
1.220000e+09	6.531826e+12	0.000000e+00	4.824121e-01	1.312863e+14	5.553055e+14	2.880210e+14	1.094387e+04	5.137000e+03	1.948611e+03	0	6.590812e-04
1.230000e+09	6.483329e+12	0.000000e+00	4.824121e-01	1.306956e+14	5.521678e+14	2.867977e+14	1.093745e+04	5.133850e+03	1.947417e+03	0	6.574460e-04
1.240000e+09	6.435273e+12	0.000000e+00	4.824121e-01	1.301102e+14	5.490701e+14	2.855824e+14	1.093106e+04	5.130730e+03	1.946233e+03	0	6.558176e-04
1.250000e+09	6.387653e+12	0.000000e+00	4.824121e-01	1.295299e+14	5.460114e+14	2.843751e+14	1.092469e+04	5.127641e+03	1.945061e+03	0	6.541959e-04
1.260000e+09	6.340462e+12	0.000000e+00	4.824121e-01	1.289547e+14	5.429911e+14	2.831758e+14	1.091835e+04	5.124581e+03	1.943901e+03	0	6.525809e-04
1.270000e+09	6.293693e+12	0.000000e+00	4.824121e-01	1.283845e+14	5.400082e+14	2.819844e+14	1.091205e+04	5.121549e+03	1.942751e+03	0	6.509724e-04
1.280000e+09	6.247341e+12	0.000000e+00	4.824121e-01	1.278192e+14	5.370619e+14	2.808008e+14	1.090576e+04	5.118546e+03	1.941611e+03	0	6.493704e-04
1.290000e+09	6.201400e+12	0.000000e+00	4.824121e-01	1.272588e+14	5.341515e+14	2.796250e+14	1.089951e+04	5.115570e+03	1.940483e+03	0	6.477747e-04
1.300000e+09	6.155864e+12	0.000000e+00	4.824121e-01	1.267032e+14	5.312763e+14	2.784569e+14	1.089328e+04	5.112622e+03	1.939364e+03	0	6.461853e-04
1.310000e+09	6.110726e+12	0.000000e+00	4.824121e-01	1.261523e+14	5.284355e+14	2.772965e+14	1.088709e+04	5.109700e+03	1.938256e+03	0	6.446020e-04
1.320000e+09	6.065982e+12	0.000000e+00	4.824121e-01	1.256061e+14	5.256283e+14	2.761437e+14	1.088091e+04	5.106803e+03	1.937157e+03	0	6.430249e-04
1.330000e+09	6.021626e+12	0.000000e+00	4.824121e-01	1.250645e+14	5.228543e+14	2.749984e+14	1.087477e+04	5.103933e+03	1.936068e+03	0	6.414537e-04
1.340000e+09	5.977652e+12	0.000000e+00	4.824121e-01	1.245274e+14	5.201125e+14	2.738606e+14	1.086865e+04	5.101088e+03	1.934989e+03	0	6.398885e-04
1.350000e+09	5.934055e+12	0.000000e+00	4.824121e-01	1.239948e+14	5.174025e+14	2.727302e+14	1.086256e+04	5.098267e+03	1.933919e+03	0	6.383290e-04
1.360000e+09	5.890831e+12	0.000000e+00	4.824121e-01	1.234666e+14	5.147236e+14	2.716072e+14	1.085649e+04	5.095470e+03	1.932858e+03	0	6.367754e-04
