#t		Qconv[W]	Ri[Rp]		R*[Rp]		Qc[W]		Qm[W]		Qr[W]		Tcmb[K]		Tl[K]		Tup[K]		RiFlag		Bs[T]
0.000000e+00	2.572230e+13	0.000000e+00	4.824120e-01	3.589076e+14	4.107028e+15	5.509900e+14	1.257036e+04	7.068385e+03	2.618830e+03	0	1.038912e-03
1.000000e+07	2.527702e+13	0.000000e+00	4.824120e-01	3.538523e+14	3.880559e+15	5.479371e+14	1.255400e+04	6.999366e+03	2.593258e+03	0	1.032882e-03
2.000000e+07	2.484357e+13	0.000000e+00	4.824120e-01	3.489303e+14	3.676705e+15	5.449070e+14	1.253786e+04	6.934976e+03	2.569401e+03	0	1.026944e-03
3.000000e+07	2.442229e+13	0.000000e+00	4.824120e-01	3.441449e+14	3.492428e+15	5.418996e+14	1.252195e+04	6.874747e+03	2.547087e+03	0	1.021106e-03
4.000000e+07	2.401325e+13	0.000000e+00	4.824120e-01	3.394972e+14	3.325194e+15	5.389147e+14	1.250626e+04	6.818274e+03	2.526163e+03	0	1.015373e-03
5.000000e+07	2.361635e+13	0.000000e+00	4.824120e-01	3.349862e+14	3.172869e+15	5.359520e+14	1.249078e+04	6.765204e+03	2.506501e+03	0	1.009748e-03
6.000000e+07	2.323141e+13	0.000000e+00	4.824120e-01	3.306094e+14	3.033651e+15	5.330114e+14	1.247550e+04	6.715226e+03	2.487984e+03	0	1.004232e-03
7.000000e+07	2.285813e+13	0.000000e+00	4.824120e-01	3.263637e+14	2.906004e+15	5.300927e+14	1.246042e+04	6.668070e+03	2.470513e+03	0	9.988240e-04
8.000000e+07	2.249616e+13	0.000000e+00	4.824120e-01	3.222452e+14	2.788617e+15	5.271956e+14	1.244554e+04	6.623495e+03	2.453998e+03	0	9.935237e-04
9.000000e+07	2.214514e+13	0.000000e+00	4.824120e-01	3.182497e+14	2.680361e+15	5.243202e+14	1.243084e+04	6.581286e+03	2.438360e+03	0	9.883291e-04
1.000000e+08	2.180468e+13	0.000000e+00	4.824120e-01	3.143729e+14	2.580262e+15	5.214661e+14	1.241632e+04	6.541254e+03	2.423528e+03	0	9.832380e-04
1.100000e+08	2.147437e+13	0.000000e+00	4.824120e-01	3.106103e+14	2.487475e+15	5.186331e+14	1.240198e+04	6.503229e+03	2.409440e+03	0	9.782479e-04
1.200000e+08	2.115383e+13	0.000000e+00	4.824120e-01	3.069574e+14	2.401264e+15	5.158212e+14	1.238781e+04	6.467059e+03	2.396039e+03	0	9.733561e-04
1.300000e+08	2.084264e+13	0.000000e+00	4.824120e-01	3.034097e+14	2.320985e+15	5.130301e+14	1.237381e+04	6.432607e+03	2.383274e+03	0	9.685597e-04
1.400000e+08	2.054044e+13	0.000000e+00	4.824120e-01	2.999631e+14	2.246074e+15	5.102596e+14	1.235997e+04	6.399749e+03	2.371100e+03	0	9.638557e-04
1.500000e+08	2.024684e+13	0.000000e+00	4.824120e-01	2.966132e+14	2.176032e+15	5.075096e+14	1.234628e+04	6.368374e+03	2.359476e+03	0	9.592413e-04
1.600000e+08	1.996149e+13	0.000000e+00	4.824120e-01	2.933560e+14	2.110419e+15	5.047800e+14	1.233275e+04	6.338380e+03	2.348363e+03	0	9.547135e-04
1.700000e+08	1.968403e+13	0.000000e+00	4.824120e-01	2.901877e+14	2.048844e+15	5.020704e+14	1.231937e+04	6.309675e+03	2.337728e+03	0	9.502695e-04
1.800000e+08	1.941414e+13	0.000000e+00	4.824120e-01	2.871046e+14	1.990962e+15	4.993809e+14	1.230613e+04	6.282176e+03	2.327540e+03	0	9.459064e-04
1.900000e+08	1.915150e+13	0.000000e+00	4.824120e-01	2.841030e+14	1.936461e+15	4.967111e+14	1.229303e+04	6.255804e+03	2.317769e+03	0	9.416215e-04
2.000000e+08	1.889580e+13	0.000000e+00	4.824120e-01	2.811795e+14	1.885064e+15	4.940610e+14	1.228007e+04	6.230491e+03	2.308390e+03	0	9.374121e-04
2.100000e+08	1.864676e+13	0.000000e+00	4.824120e-01	2.783310e+14	1.836524e+15	4.914304e+14	1.226724e+04	6.206171e+03	2.299380e+03	0	9.332756e-04
2.200000e+08	1.840410e+13	0.000000e+00	4.824120e-01	2.755543e+14	1.790616e+15	4.888192e+14	1.225454e+04	6.182785e+03	2.290715e+03	0	9.292095e-04
2.300000e+08	1.816756e+13	0.000000e+00	4.824120e-01	2.728465e+14	1.747139e+15	4.862270e+14	1.224196e+04	6.160279e+03	2.282377e+03	0	9.252114e-04
2.400000e+08	1.793690e+13	0.000000e+00	4.824120e-01	2.702049e+14	1.705910e+15	4.836539e+14	1.222951e+04	6.138602e+03	2.274346e+03	0	9.212791e-04
2.500000e+08	1.771186e+13	0.000000e+00	4.824120e-01	2.676268e+14	1.666766e+15	4.810996e+14	1.221718e+04	6.117708e+03	2.266605e+03	0	9.174101e-04
2.600000e+08	1.749224e+13	0.000000e+00	4.824120e-01	2.651096e+14	1.629556e+15	4.785641e+14	1.220497e+04	6.097554e+03	2.259137e+03	0	9.136025e-04
2.700000e+08	1.727782e+13	0.000000e+00	4.824120e-01	2.626510e+14	1.594145e+15	4.760470e+14	1.219287e+04	6.078099e+03	2.251929e+03	0	9.098542e-04
2.800000e+08	1.706840e+13	0.000000e+00	4.824120e-01	2.602487e+14	1.560407e+15	4.735484e+14	1.218088e+04	6.059306e+03	2.244967e+03	0	9.061631e-04
2.900000e+08	1.686378e+13	0.000000e+00	4.824120e-01	2.579006e+14	1.528231e+15	4.710679e+14	1.216901e+04	6.041142e+03	2.238237e+03	0	9.025275e-04
3.000000e+08	1.666378e+13	0.000000e+00	4.824120e-01	2.556046e+14	1.497512e+15	4.686056e+14	1.215724e+04	6.023573e+03	2.231728e+03	0	8.989454e-04
3.100000e+08	1.646823e+13	0.000000e+00	4.824120e-01	2.533588e+14	1.468156e+15	4.661612e+14	1.214557e+04	6.006570e+03	2.225428e+03	0	8.954152e-04
3.200000e+08	1.627697e+13	0.000000e+00	4.824120e-01	2.511612e+14	1.440076e+15	4.637346e+14	1.213401e+04	5.990105e+03	2.219328e+03	0	8.919352e-04
3.300000e+08	1.608983e+13	0.000000e+00	4.824120e-01	2.490103e+14	1.413192e+15	4.613256e+14	1.212254e+04	5.974152e+03	2.213417e+03	0	8.885037e-04
3.400000e+08	1.590667e+13	0.000000e+00	4.824120e-01	2.469042e+14	1.387430e+15	4.589341e+14	1.211118e+04	5.958685e+03	2.207687e+03	0	8.851194e-04
3.500000e+08	1.572734e+13	0.000000e+00	4.824120e-01	2.448413e+14	1.362723e+15	4.565600e+14	1.209991e+04	5.943683e+03	2.202129e+03	0	8.817806e-04
3.600000e+08	1.555171e+13	0.000000e+00	4.824120e-01	2.428203e+14	1.339008e+15	4.542031e+14	1.208873e+04	5.929124e+03	2.196734e+03	0	8.784860e-04
3.700000e+08	1.537966e+13	0.000000e+00	4.824120e-01	2.408395e+14	1.316226e+15	4.518632e+14	1.207765e+04	5.914987e+03	2.191497e+03	0	8.752343e-04
3.800000e+08	1.521105e+13	0.000000e+00	4.824120e-01	2.388977e+14	1.294325e+15	4.495403e+14	1.206666e+04	5.901253e+03	2.186408e+03	0	8.720241e-04
3.900000e+08	1.504577e+13	0.000000e+00	4.824120e-01	2.369935e+14	1.273254e+15	4.472342e+14	1.205575e+04	5.887905e+03	2.181463e+03	0	8.688542e-04
4.000000e+08	1.488371e+13	0.000000e+00	4.824120e-01	2.351257e+14	1.252968e+15	4.449447e+14	1.204493e+04	5.874926e+03	2.176654e+03	0	8.657234e-04
4.100000e+08	1.472476e+13	0.000000e+00	4.824120e-01	2.332930e+14	1.233424e+15	4.426718e+14	1.203420e+04	5.862300e+03	2.171976e+03	0	8.626306e-04
4.200000e+08	1.456883e+13	0.000000e+00	4.824120e-01	2.314944e+14	1.214581e+15	4.404152e+14	1.202355e+04	5.850011e+03	2.167423e+03	0	8.595747e-04
4.300000e+08	1.441580e+13	0.000000e+00	4.824120e-01	2.297286e+14	1.196403e+15	4.381749e+14	1.201298e+04	5.838046e+03	2.162990e+03	0	8.565546e-04
4.400000e+08	1.426560e+13	0.000000e+00	4.824120e-01	2.279948e+14	1.178855e+15	4.359507e+14	1.200250e+04	5.826391e+03	2.158672e+03	0	8.535693e-04
4.500000e+08	1.411813e+13	0.000000e+00	4.824120e-01	2.262919e+14	1.161905e+15	4.337424e+14	1.199209e+04	5.815033e+03	2.154464e+03	0	8.506178e-04
4.600000e+08	1.397330e+13	0.000000e+00	4.824120e-01	2.246188e+14	1.145522e+15	4.315501e+14	1.198176e+04	5.803962e+03	2.150362e+03	0	8.476992e-04
4.700000e+08	1.383104e+13	0.000000e+00	4.824120e-01	2.229748e+14	1.129679e+15	4.293734e+14	1.197150e+04	5.793164e+03	2.146361e+03	0	8.448126e-04
4.800000e+08	1.369127e+13	0.000000e+00	4.824120e-01	2.213590e+14	1.114348e+15	4.272124e+14	1.196132e+04	5.782630e+03	2.142458e+03	0	8.419572e-04
4.900000e+08	1.355391e+13	0.000000e+00	4.824120e-01	2.197704e+14	1.099505e+15	4.250668e+14	1.195122e+04	5.772349e+03	2.138649e+03	0	8.391320e-04
5.000000e+08	1.341889e+13	0.000000e+00	4.824120e-01	2.182084e+14	1.085127e+15	4.229365e+14	1.194119e+04	5.762312e+03	2.134931e+03	0	8.363363e-04
5.100000e+08	1.328614e+13	0.000000e+00	4.824120e-01	2.166721e+14	1.071191e+15	4.208215e+14	1.193122e+04	5.752509e+03	2.131299e+03	0	8.335694e-04
5.200000e+08	1.315560e+13	0.000000e+00	4.824120e-01	2.151607e+14	1.057678e+15	4.187216e+14	1.192133e+04	5.742931e+03	2.127750e+03	0	8.308304e-04
5.300000e+08	1.302721e+13	0.000000e+00	4.824120e-01	2.136737e+14	1.044569e+15	4.166367e+14	1.191151e+04	5.733571e+03	2.124282e+03	0	8.281186e-04
5.400000e+08	1.290090e+13	0.000000e+00	4.824120e-01	2.122102e+14	1.031844e+15	4.145666e+14	1.190175e+04	5.724420e+03	2.120892e+03	0	8.254334e-04
5.500000e+08	1.277661e+13	0.000000e+00	4.824120e-01	2.107697e+14	1.019486e+15	4.125112e+14	1.189206e+04	5.715471e+03	2.117576e+03	0	8.227741e-04
5.600000e+08	1.265429e+13	0.000000e+00	4.824120e-01	2.093516e+14	1.007481e+15	4.104704e+14	1.188244e+04	5.706717e+03	2.114333e+03	0	8.201401e-04
5.700000e+08	1.253389e+13	0.000000e+00	4.824120e-01	2.079551e+14	9.958113e+14	4.084442e+14	1.187288e+04	5.698149e+03	2.111158e+03	0	8.175306e-04
5.800000e+08	1.241535e+13	0.000000e+00	4.824120e-01	2.065798e+14	9.844640e+14	4.064323e+14	1.186339e+04	5.689764e+03	2.108051e+03	0	8.149452e-04
5.900000e+08	1.229863e+13	0.000000e+00	4.824120e-01	2.052250e+14	9.734252e+14	4.044347e+14	1.185395e+04	5.681552e+03	2.105009e+03	0	8.123833e-04
6.000000e+08	1.218367e+13	0.000000e+00	4.824120e-01	2.038903e+14	9.626819e+14	4.024512e+14	1.184458e+04	5.673510e+03	2.102030e+03	0	8.098442e-04
6.100000e+08	1.207043e+13	0.000000e+00	4.824120e-01	2.025751e+14	9.522220e+14	4.004817e+14	1.183527e+04	5.665631e+03	2.099110e+03	0	8.073275e-04
6.200000e+08	1.195887e+13	0.000000e+00	4.824120e-01	2.012789e+14	9.420340e+14	3.985262e+14	1.182602e+04	5.657909e+03	2.096250e+03	0	8.048325e-04
6.300000e+08	1.184895e+13	0.000000e+00	4.824120e-01	2.000013e+14	9.321071e+14	3.965844e+14	1.181683e+04	5.650340e+03	2.093445e+03	0	8.023589e-04
6.400000e+08	1.174061e+13	0.000000e+00	4.824120e-01	1.987417e+14	9.224307e+14	3.946564e+14	1.180770e+04	5.642919e+03	2.090696e+03	0	7.999061e-04
6.500000e+08	1.163383e+13	0.000000e+00	4.824120e-01	1.974998e+14	9.129952e+14	3.927420e+14	1.179863e+04	5.635640e+03	2.087999e+03	0	7.974737e-04
6.600000e+08	1.152857e+13	0.000000e+00	4.824120e-01	1.962751e+14	9.037912e+14	3.908410e+14	1.178961e+04	5.628499e+03	2.085353e+03	0	7.950612e-04
6.700000e+08	1.142478e+13	0.000000e+00	4.824120e-01	1.950672e+14	8.948099e+14	3.889533e+14	1.178064e+04	5.621492e+03	2.082757e+03	0	7.926681e-04
6.800000e+08	1.132243e+13	0.000000e+00	4.824120e-01	1.938756e+14	8.860429e+14	3.870790e+14	1.177174e+04	5.614614e+03	2.080209e+03	0	7.902940e-04
6.900000e+08	1.122149e+13	0.000000e+00	4.824120e-01	1.927001e+14	8.774821e+14	3.852178e+14	1.176288e+04	5.607862e+03	2.077707e+03	0	7.879385e-04
7.000000e+08	1.112193e+13	0.000000e+00	4.824120e-01	1.915402e+14	8.691200e+14	3.833696e+14	1.175408e+04	5.601231e+03	2.075250e+03	0	7.856012e-04
7.100000e+08	1.102371e+13	0.000000e+00	4.824120e-01	1.903955e+14	8.609493e+14	3.815344e+14	1.174534e+04	5.594718e+03	2.072837e+03	0	7.832817e-04
7.200000e+08	1.092680e+13	0.000000e+00	4.824120e-01	1.892657e+14	8.529631e+14	3.797120e+14	1.173664e+04	5.588319e+03	2.070466e+03	0	7.809797e-04
7.300000e+08	1.083117e+13	0.000000e+00	4.824120e-01	1.881506e+14	8.451548e+14	3.779023e+14	1.172800e+04	5.582031e+03	2.068137e+03	0	7.786947e-04
7.400000e+08	1.073679e+13	0.000000e+00	4.824120e-01	1.870496e+14	8.375182e+14	3.761053e+14	1.171941e+04	5.575850e+03	2.065847e+03	0	7.764264e-04
7.500000e+08	1.064364e+13	0.000000e+00	4.824120e-01	1.859626e+14	8.300473e+14	3.743208e+14	1.171086e+04	5.569774e+03	2.063596e+03	0	7.741745e-04
7.600000e+08	1.055169e+13	0.000000e+00	4.824120e-01	1.848892e+14	8.227363e+14	3.725487e+14	1.170237e+04	5.563799e+03	2.061382e+03	0	7.719385e-04
7.700000e+08	1.046090e+13	0.000000e+00	4.824120e-01	1.838292e+14	8.155798e+14	3.707890e+14	1.169393e+04	5.557923e+03	2.059205e+03	0	7.697183e-04
7.800000e+08	1.037127e+13	0.000000e+00	4.824120e-01	1.827822e+14	8.085727e+14	3.690415e+14	1.168553e+04	5.552142e+03	2.057063e+03	0	7.675135e-04
7.900000e+08	1.028275e+13	0.000000e+00	4.824120e-01	1.817479e+14	8.017099e+14	3.673061e+14	1.167718e+04	5.546453e+03	2.054955e+03	0	7.653237e-04
8.000000e+08	1.019533e+13	0.000000e+00	4.824120e-01	1.807262e+14	7.949866e+14	3.655828e+14	1.166888e+04	5.540855e+03	2.052881e+03	0	7.631487e-04
8.100000e+08	1.010898e+13	0.000000e+00	4.824120e-01	1.797167e+14	7.883984e+14	3.638714e+14	1.166063e+04	5.535345e+03	2.050840e+03	0	7.609882e-04
8.200000e+08	1.002369e+13	0.000000e+00	4.824120e-01	1.787191e+14	7.819408e+14	3.621718e+14	1.165242e+04	5.529920e+03	2.048829e+03	0	7.588419e-04
8.300000e+08	9.939423e+12	0.000000e+00	4.824120e-01	1.777333e+14	7.756096e+14	3.604840e+14	1.164426e+04	5.524577e+03	2.046850e+03	0	7.567095e-04
8.400000e+08	9.856167e+12	0.000000e+00	4.824120e-01	1.767590e+14	7.694010e+14	3.588079e+14	1.163614e+04	5.519315e+03	2.044901e+03	0	7.545907e-04
8.500000e+08	9.773899e+12	0.000000e+00	4.824120e-01	1.757960e+14	7.633109e+14	3.571433e+14	1.162807e+04	5.514132e+03	2.042980e+03	0	7.524854e-04
8.600000e+08	9.692600e+12	0.000000e+00	4.824120e-01	1.748440e+14	7.573359e+14	3.554902e+14	1.162004e+04	5.509025e+03	2.041088e+03	0	7.503932e-04
8.700000e+08	9.612249e+12	0.000000e+00	4.824120e-01	1.739028e+14	7.514722e+14	3.538485e+14	1.161206e+04	5.503992e+03	2.039223e+03	0	7.483138e-04
8.800000e+08	9.532829e+12	0.000000e+00	4.824120e-01	1.729723e+14	7.457167e+14	3.522180e+14	1.160411e+04	5.499032e+03	2.037386e+03	0	7.462472e-04
8.900000e+08	9.454321e+12	0.000000e+00	4.824120e-01	1.720521e+14	7.400659e+14	3.505988e+14	1.159621e+04	5.494142e+03	2.035574e+03	0	7.441929e-04
9.000000e+08	9.376707e+12	0.000000e+00	4.824120e-01	1.711421e+14	7.345168e+14	3.489907e+14	1.158835e+04	5.489320e+03	2.033788e+03	0	7.421509e-04
9.100000e+08	9.299970e+12	0.000000e+00	4.824120e-01	1.702422e+14	7.290664e+14	3.473936e+14	1.158054e+04	5.484566e+03	2.032026e+03	0	7.401208e-04
9.200000e+08	9.224094e+12	0.000000e+00	4.824120e-01	1.693521e+14	7.237119e+14	3.458075e+14	1.157276e+04	5.479876e+03	2.030289e+03	0	7.381025e-04
9.300000e+08	9.149062e+12	0.000000e+00	4.824120e-01	1.684716e+14	7.184504e+14	3.442321e+14	1.156503e+04	5.475251e+03	2.028575e+03	0	7.360957e-04
9.400000e+08	9.074859e+12	0.000000e+00	4.824120e-01	1.676006e+14	7.132793e+14	3.426676e+14	1.155733e+04	5.470687e+03	2.026884e+03	0	7.341003e-04
9.500000e+08	9.001469e+12	0.000000e+00	4.824120e-01	1.667389e+14	7.081960e+14	3.411137e+14	1.154968e+04	5.466183e+03	2.025215e+03	0	7.321160e-04
9.600000e+08	8.928877e+12	0.000000e+00	4.824120e-01	1.658863e+14	7.031982e+14	3.395705e+14	1.154206e+04	5.461738e+03	2.023568e+03	0	7.301427e-04
9.700000e+08	8.857069e+12	0.000000e+00	4.824120e-01	1.650426e+14	6.982833e+14	3.380377e+14	1.153448e+04	5.457351e+03	2.021943e+03	0	7.281801e-04
9.800000e+08	8.786031e+12	0.000000e+00	4.824120e-01	1.642078e+14	6.934492e+14	3.365154e+14	1.152694e+04	5.453019e+03	2.020338e+03	0	7.262280e-04
9.900000e+08	8.715748e+12	0.000000e+00	4.824120e-01	1.633816e+14	6.886936e+14	3.350034e+14	1.151944e+04	5.448743e+03	2.018754e+03	0	7.242864e-04
1.000000e+09	8.646207e+12	0.000000e+00	4.824120e-01	1.625638e+14	6.840144e+14	3.335017e+14	1.151198e+04	5.444519e+03	2.017189e+03	0	7.223550e-04
1.010000e+09	8.577396e+12	0.000000e+00	4.824120e-01	1.617544e+14	6.794095e+14	3.320102e+14	1.150455e+04	5.440348e+03	2.015643e+03	0	7.204336e-04
1.020000e+09	8.509302e+12	0.000000e+00	4.824120e-01	1.609533e+14	6.748771e+14	3.305288e+14	1.149717e+04	5.436228e+03	2.014117e+03	0	7.185220e-04
1.030000e+09	8.441912e+12	0.000000e+00	4.824120e-01	1.601601e+14	6.704152e+14	3.290574e+14	1.148981e+04	5.432157e+03	2.012609e+03	0	7.166202e-04
1.040000e+09	8.375213e+12	0.000000e+00	4.824120e-01	1.593749e+14	6.660220e+14	3.275959e+14	1.148250e+04	5.428135e+03	2.011118e+03	0	7.147279e-04
1.050000e+09	8.309195e+12	0.000000e+00	4.824120e-01	1.585975e+14	6.616957e+14	3.261443e+14	1.147522e+04	5.424160e+03	2.009646e+03	0	7.128450e-04
1.060000e+09	8.243846e+12	0.000000e+00	4.824120e-01	1.578277e+14	6.574346e+14	3.247025e+14	1.146797e+04	5.420231e+03	2.008190e+03	0	7.109713e-04
1.070000e+09	8.179155e+12	0.000000e+00	4.824120e-01	1.570655e+14	6.532371e+14	3.232705e+14	1.146076e+04	5.416348e+03	2.006751e+03	0	7.091067e-04
1.080000e+09	8.115110e+12	0.000000e+00	4.824120e-01	1.563106e+14	6.491015e+14	3.218480e+14	1.145359e+04	5.412509e+03	2.005329e+03	0	7.072510e-04
1.090000e+09	8.051701e+12	0.000000e+00	4.824120e-01	1.555631e+14	6.450264e+14	3.204351e+14	1.144645e+04	5.408713e+03	2.003923e+03	0	7.054041e-04
1.100000e+09	7.988918e+12	0.000000e+00	4.824120e-01	1.548227e+14	6.410102e+14	3.190317e+14	1.143934e+04	5.404960e+03	2.002532e+03	0	7.035659e-04
1.110000e+09	7.926750e+12	0.000000e+00	4.824120e-01	1.540893e+14	6.370516e+14	3.176377e+14	1.143227e+04	5.401248e+03	2.001157e+03	0	7.017361e-04
1.120000e+09	7.865187e+12	0.000000e+00	4.824120e-01	1.533629e+14	6.331491e+14	3.162531e+14	1.142523e+04	5.397576e+03	1.999796e+03	0	6.999147e-04
1.130000e+09	7.804221e+12	0.000000e+00	4.824120e-01	1.526434e+14	6.293014e+14	3.148777e+14	1.141822e+04	5.393944e+03	1.998451e+03	0	6.981016e-04
1.140000e+09	7.743841e+12	0.000000e+00	4.824120e-01	1.519305e+14	6.255071e+14	3.135115e+14	1.141125e+04	5.390351e+03	1.997119e+03	0	6.962966e-04
1.150000e+09	7.684038e+12	0.000000e+00	4.824120e-01	1.512243e+14	6.217651e+14	3.121545e+14	1.140431e+04	5.386796e+03	1.995802e+03	0	6.944995e-04
1.160000e+09	7.624803e+12	0.000000e+00	4.824120e-01	1.505246e+14	6.180742e+14	3.108065e+14	1.139740e+04	5.383277e+03	1.994499e+03	0	6.927103e-04
1.170000e+09	7.566128e+12	0.000000e+00	4.824120e-01	1.498313e+14	6.144331e+14	3.094674e+14	1.139052e+04	5.379795e+03	1.993209e+03	0	6.909288e-04
1.180000e+09	7.508003e+12	0.000000e+00	4.824120e-01	1.491443e+14	6.108407e+14	3.081373e+14	1.138368e+04	5.376349e+03	1.991932e+03	0	6.891550e-04
1.190000e+09	7.450420e+12	0.000000e+00	4.824120e-01	1.484635e+14	6.072958e+14	3.068160e+14	1.137687e+04	5.372937e+03	1.990668e+03	0	6.873887e-04
1.200000e+09	7.393372e+12	0.000000e+00	4.824120e-01	1.477889e+14	6.037976e+14	3.055035e+14	1.137008e+04	5.369560e+03	1.989416e+03	0	6.856297e-04
1.210000e+09	7.336849e+12	0.000000e+00	4.824120e-01	1.471203e+14	6.003448e+14	3.041997e+14	1.136333e+04	5.366216e+03	1.988177e+03	0	6.838780e-04
1.220000e+09	7.280845e+12	0.000000e+00	4.824120e-01	1.464577e+14	5.969365e+14	3.029045e+14	1.135661e+04	5.362904e+03	1.986950e+03	0	6.821335e-04
1.230000e+09	7.225351e+12	0.000000e+00	4.824120e-01	1.458009e+14	5.935718e+14	3.016180e+14	1.134992e+04	5.359625e+03	1.985735e+03	0	6.803960e-04
1.240000e+09	7.170360e+12	0.000000e+00	4.824120e-01	1.451499e+14	5.902496e+14	3.003399e+14	1.134326e+04	5.356377e+03	1.984532e+03	0	6.786655e-04
1.250000e+09	7.115865e+12	0.000000e+00	4.824120e-01	1.445045e+14	5.869691e+14	2.990702e+14	1.133663e+04	5.353160e+03	1.983340e+03	0	6.769418e-04
1.260000e+09	7.061858e+12	0.000000e+00	4.824120e-01	1.438648e+14	5.837293e+14	2.978089e+14	1.133003e+04	5.349973e+03	1.982159e+03	0	6.752249e-04
1.270000e+09	7.008332e+12	0.000000e+00	4.824120e-01	1.432307e+14	5.805295e+14	2.965559e+14	1.132345e+04	5.346816e+03	1.980990e+03	0	6.735146e-04
1.280000e+09	6.955280e+12	0.000000e+00	4.824120e-01	1.426019e+14	5.773687e+14	2.953112e+14	1.131691e+04	5.343687e+03	1.979831e+03	0	6.718108e-04
1.290000e+09	6.902696e+12	0.000000e+00	4.824120e-01	1.419786e+14	5.742462e+14	2.940747e+14	1.131039e+04	5.340588e+03	1.978682e+03	0	6.701135e-04
1.300000e+09	6.850574e+12	0.000000e+00	4.824120e-01	1.413605e+14	5.711612e+14	2.928462e+14	1.130391e+04	5.337516e+03	1.977544e+03	0	6.684225e-04
1.310000e+09	6.798905e+12	0.000000e+00	4.824120e-01	1.407477e+14	5.681129e+14	2.916258e+14	1.129745e+04	5.334471e+03	1.976416e+03	0	6.667378e-04
1.320000e+09	6.747685e+12	0.000000e+00	4.824120e-01	1.401400e+14	5.651006e+14	2.904134e+14	1.129102e+04	5.331454e+03	1.975298e+03	0	6.650593e-04
1.330000e+09	6.696907e+12	0.000000e+00	4.824120e-01	1.395375e+14	5.621235e+14	2.892090e+14	1.128462e+04	5.328463e+03	1.974190e+03	0	6.633868e-04
1.340000e+09	6.646564e+12	0.000000e+00	4.824120e-01	1.389399e+14	5.591809e+14	2.880124e+14	1.127824e+04	5.325497e+03	1.973091e+03	0	6.617204e-04
1.350000e+09	6.596652e+12	0.000000e+00	4.824120e-01	1.383473e+14	5.562722e+14	2.868236e+14	1.127189e+04	5.322557e+03	1.972002e+03	0	6.600598e-04
1.360000e+09	6.547163e+12	0.000000e+00	4.824120e-01	1.377595e+14	5.533967e+14	2.856426e+14	1.126557e+04	5.319643e+03	1.970922e+03	0	6.584051e-04
