#t		Qconv[W]	Ri[Rp]		R*[Rp]		Qc[W]		Qm[W]		Qr[W]		Tcmb[K]		Tl[K]		Tup[K]		RiFlag		Bs[T]
0.000000e+00	2.995514e+13	0.000000e+00	4.824120e-01	4.089338e+14	4.175028e+15	5.916802e+14	1.324650e+04	7.405633e+03	2.652636e+03	0	1.090312e-03
1.000000e+07	2.945657e+13	0.000000e+00	4.824120e-01	4.035037e+14	3.965027e+15	5.884019e+14	1.322959e+04	7.340837e+03	2.629427e+03	0	1.084229e-03
2.000000e+07	2.897106e+13	0.000000e+00	4.824120e-01	3.982145e+14	3.774447e+15	5.851481e+14	1.321291e+04	7.280082e+03	2.607664e+03	0	1.078240e-03
3.000000e+07	2.849877e+13	0.000000e+00	4.824120e-01	3.930675e+14	3.600860e+15	5.819186e+14	1.319644e+04	7.222986e+03	2.587213e+03	0	1.072348e-03
4.000000e+07	2.803963e+13	0.000000e+00	4.824120e-01	3.880624e+14	3.442211e+15	5.787132e+14	1.318018e+04	7.169218e+03	2.567954e+03	0	1.066558e-03
5.000000e+07	2.759349e+13	0.000000e+00	4.824120e-01	3.831972e+14	3.296753e+15	5.755317e+14	1.316413e+04	7.118484e+03	2.549782e+03	0	1.060871e-03
6.000000e+07	2.716008e+13	0.000000e+00	4.824120e-01	3.784690e+14	3.162991e+15	5.723739e+14	1.314828e+04	7.070526e+03	2.532603e+03	0	1.055288e-03
7.000000e+07	2.673907e+13	0.000000e+00	4.824120e-01	3.738744e+14	3.039638e+15	5.692396e+14	1.313262e+04	7.025114e+03	2.516337e+03	0	1.049806e-03
8.000000e+07	2.633010e+13	0.000000e+00	4.824120e-01	3.694095e+14	2.925586e+15	5.661287e+14	1.311716e+04	6.982043e+03	2.500909e+03	0	1.044427e-03
9.000000e+07	2.593278e+13	0.000000e+00	4.824120e-01	3.650700e+14	2.819869e+15	5.630409e+14	1.310188e+04	6.941131e+03	2.486255e+03	0	1.039147e-03
1.000000e+08	2.554671e+13	0.000000e+00	4.824120e-01	3.608516e+14	2.721650e+15	5.599760e+14	1.308677e+04	6.902213e+03	2.472315e+03	0	1.033964e-03
1.100000e+08	2.517147e+13	0.000000e+00	4.824120e-01	3.567499e+14	2.630194e+15	5.569338e+14	1.307185e+04	6.865143e+03	2.459037e+03	0	1.028877e-03
1.200000e+08	2.480666e+13	0.000000e+00	4.824120e-01	3.527605e+14	2.544857e+15	5.539142e+14	1.305709e+04	6.829788e+03	2.446373e+03	0	1.023882e-03
1.300000e+08	2.445188e+13	0.000000e+00	4.824120e-01	3.488793e+14	2.465071e+15	5.509170e+14	1.304249e+04	6.796027e+03	2.434280e+03	0	1.018977e-03
1.400000e+08	2.410674e+13	0.000000e+00	4.824120e-01	3.451018e+14	2.390334e+15	5.479419e+14	1.302806e+04	6.763752e+03	2.422719e+03	0	1.014160e-03
1.500000e+08	2.377086e+13	0.000000e+00	4.824120e-01	3.414242e+14	2.320202e+15	5.449889e+14	1.301378e+04	6.732863e+03	2.411655e+03	0	1.009428e-03
1.600000e+08	2.344387e+13	0.000000e+00	4.824120e-01	3.378423e+14	2.254278e+15	5.420576e+14	1.299965e+04	6.703269e+03	2.401055e+03	0	1.004778e-03
1.700000e+08	2.312542e+13	0.000000e+00	4.824120e-01	3.343525e+14	2.192208e+15	5.391480e+14	1.298567e+04	6.674889e+03	2.390889e+03	0	1.000208e-03
1.800000e+08	2.281517e+13	0.000000e+00	4.824120e-01	3.309511e+14	2.133678e+15	5.362598e+14	1.297184e+04	6.647646e+03	2.381131e+03	0	9.957150e-04
1.900000e+08	2.251279e+13	0.000000e+00	4.824120e-01	3.276346e+14	2.078403e+15	5.333929e+14	1.295814e+04	6.621472e+03	2.371756e+03	0	9.912965e-04
2.000000e+08	2.221797e+13	0.000000e+00	4.824120e-01	3.243996e+14	2.026128e+15	5.305471e+14	1.294458e+04	6.596302e+03	2.362740e+03	0	9.869502e-04
2.100000e+08	2.193041e+13	0.000000e+00	4.824120e-01	3.212429e+14	1.976625e+15	5.277223e+14	1.293116e+04	6.572078e+03	2.354063e+03	0	9.826738e-04
2.200000e+08	2.164983e+13	0.000000e+00	4.824120e-01	3.181615e+14	1.929684e+15	5.249181e+14	1.291787e+04	6.548745e+03	2.345706e+03	0	9.784651e-04
2.300000e+08	2.137597e+13	0.000000e+00	4.824120e-01	3.151526e+14	1.885119e+15	5.221346e+14	1.290470e+04	6.526254e+03	2.337650e+03	0	9.743217e-04
2.400000e+08	2.110855e+13	0.000000e+00	4.824120e-01	3.122132e+14	1.842758e+15	5.193714e+14	1.289166e+04	6.504558e+03	2.329878e+03	0	9.702417e-04
2.500000e+08	2.084734e+13	0.000000e+00	4.824120e-01	3.093408e+14	1.802446e+15	5.166285e+14	1.287873e+04	6.483614e+03	2.322376e+03	0	9.662229e-04
2.600000e+08	2.059210e+13	0.000000e+00	4.824120e-01	3.065329e+14	1.764043e+15	5.139057e+14	1.286593e+04	6.463383e+03	2.315130e+03	0	9.622634e-04
2.700000e+08	2.034260e+13	0.000000e+00	4.824120e-01	3.037871e+14	1.727418e+15	5.112028e+14	1.285325e+04	6.443827e+03	2.308125e+03	0	9.583614e-04
2.800000e+08	2.009864e+13	0.000000e+00	4.824120e-01	3.011010e+14	1.692454e+15	5.085196e+14	1.284067e+04	6.424911e+03	2.301349e+03	0	9.545149e-04
2.900000e+08	1.986002e+13	0.000000e+00	4.824120e-01	2.984726e+14	1.659044e+15	5.058560e+14	1.282821e+04	6.406604e+03	2.294792e+03	0	9.507223e-04
3.000000e+08	1.962653e+13	0.000000e+00	4.824120e-01	2.958996e+14	1.627087e+15	5.032118e+14	1.281586e+04	6.388875e+03	2.288441e+03	0	9.469819e-04
3.100000e+08	1.939801e+13	0.000000e+00	4.824120e-01	2.933803e+14	1.596492e+15	5.005869e+14	1.280361e+04	6.371696e+03	2.282288e+03	0	9.432920e-04
3.200000e+08	1.917426e+13	0.000000e+00	4.824120e-01	2.909126e+14	1.567177e+15	4.979811e+14	1.279146e+04	6.355040e+03	2.276322e+03	0	9.396512e-04
3.300000e+08	1.895513e+13	0.000000e+00	4.824120e-01	2.884948e+14	1.539063e+15	4.953942e+14	1.277942e+04	6.338884e+03	2.270535e+03	0	9.360579e-04
3.400000e+08	1.874045e+13	0.000000e+00	4.824120e-01	2.861252e+14	1.512079e+15	4.928261e+14	1.276748e+04	6.323204e+03	2.264919e+03	0	9.325106e-04
3.500000e+08	1.853007e+13	0.000000e+00	4.824120e-01	2.838021e+14	1.486159e+15	4.902766e+14	1.275564e+04	6.307978e+03	2.259465e+03	0	9.290081e-04
3.600000e+08	1.832385e+13	0.000000e+00	4.824120e-01	2.815240e+14	1.461241e+15	4.877457e+14	1.274389e+04	6.293186e+03	2.254167e+03	0	9.255490e-04
3.700000e+08	1.812166e+13	0.000000e+00	4.824120e-01	2.792894e+14	1.437271e+15	4.852330e+14	1.273223e+04	6.278809e+03	2.249017e+03	0	9.221320e-04
3.800000e+08	1.792335e+13	0.000000e+00	4.824120e-01	2.770969e+14	1.414193e+15	4.827386e+14	1.272067e+04	6.264828e+03	2.244009e+03	0	9.187560e-04
3.900000e+08	1.772880e+13	0.000000e+00	4.824120e-01	2.749451e+14	1.391961e+15	4.802621e+14	1.270920e+04	6.251226e+03	2.239137e+03	0	9.154196e-04
4.000000e+08	1.753789e+13	0.000000e+00	4.824120e-01	2.728327e+14	1.370528e+15	4.778036e+14	1.269782e+04	6.237987e+03	2.234395e+03	0	9.121219e-04
4.100000e+08	1.735050e+13	0.000000e+00	4.824120e-01	2.707584e+14	1.349853e+15	4.753628e+14	1.268652e+04	6.225097e+03	2.229778e+03	0	9.088617e-04
4.200000e+08	1.716653e+13	0.000000e+00	4.824120e-01	2.687212e+14	1.329895e+15	4.729396e+14	1.267531e+04	6.212540e+03	2.225280e+03	0	9.056380e-04
4.300000e+08	1.698587e+13	0.000000e+00	4.824120e-01	2.667198e+14	1.310617e+15	4.705338e+14	1.266419e+04	6.200303e+03	2.220897e+03	0	9.024498e-04
4.400000e+08	1.680842e+13	0.000000e+00	4.824120e-01	2.647531e+14	1.291987e+15	4.681453e+14	1.265315e+04	6.188374e+03	2.216624e+03	0	8.992961e-04
4.500000e+08	1.663407e+13	0.000000e+00	4.824120e-01	2.628202e+14	1.273970e+15	4.657740e+14	1.264219e+04	6.176739e+03	2.212456e+03	0	8.961760e-04
4.600000e+08	1.646275e+13	0.000000e+00	4.824120e-01	2.609199e+14	1.256537e+15	4.634197e+14	1.263131e+04	6.165388e+03	2.208390e+03	0	8.930886e-04
4.700000e+08	1.629435e+13	0.000000e+00	4.824120e-01	2.590514e+14	1.239661e+15	4.610824e+14	1.262050e+04	6.154309e+03	2.204422e+03	0	8.900330e-04
4.800000e+08	1.612879e+13	0.000000e+00	4.824120e-01	2.572138e+14	1.223313e+15	4.587617e+14	1.260978e+04	6.143493e+03	2.200548e+03	0	8.870084e-04
4.900000e+08	1.596600e+13	0.000000e+00	4.824120e-01	2.554061e+14	1.207470e+15	4.564577e+14	1.259913e+04	6.132928e+03	2.196764e+03	0	8.840140e-04
5.000000e+08	1.580589e+13	0.000000e+00	4.824120e-01	2.536275e+14	1.192108e+15	4.541701e+14	1.258855e+04	6.122606e+03	2.193066e+03	0	8.810490e-04
5.100000e+08	1.564838e+13	0.000000e+00	4.824120e-01	2.518772e+14	1.177205e+15	4.518989e+14	1.257805e+04	6.112518e+03	2.189453e+03	0	8.781127e-04
5.200000e+08	1.549341e+13	0.000000e+00	4.824120e-01	2.501544e+14	1.162741e+15	4.496439e+14	1.256762e+04	6.102655e+03	2.185920e+03	0	8.752044e-04
5.300000e+08	1.534090e+13	0.000000e+00	4.824120e-01	2.484584e+14	1.148695e+15	4.474050e+14	1.255726e+04	6.093009e+03	2.182465e+03	0	8.723233e-04
5.400000e+08	1.519080e+13	0.000000e+00	4.824120e-01	2.467884e+14	1.135050e+15	4.451820e+14	1.254698e+04	6.083572e+03	2.179085e+03	0	8.694688e-04
5.500000e+08	1.504302e+13	0.000000e+00	4.824120e-01	2.451437e+14	1.121788e+15	4.429749e+14	1.253676e+04	6.074337e+03	2.175777e+03	0	8.666402e-04
5.600000e+08	1.489752e+13	0.000000e+00	4.824120e-01	2.435238e+14	1.108892e+15	4.407834e+14	1.252661e+04	6.065297e+03	2.172539e+03	0	8.638369e-04
5.700000e+08	1.475422e+13	0.000000e+00	4.824120e-01	2.419278e+14	1.096348e+15	4.386075e+14	1.251652e+04	6.056445e+03	2.169368e+03	0	8.610584e-04
5.800000e+08	1.461308e+13	0.000000e+00	4.824120e-01	2.403553e+14	1.084141e+15	4.364470e+14	1.250650e+04	6.047775e+03	2.166263e+03	0	8.583039e-04
5.900000e+08	1.447404e+13	0.000000e+00	4.824120e-01	2.388055e+14	1.072256e+15	4.343019e+14	1.249655e+04	6.039281e+03	2.163220e+03	0	8.555730e-04
6.000000e+08	1.433705e+13	0.000000e+00	4.824120e-01	2.372780e+14	1.060681e+15	4.321719e+14	1.248666e+04	6.030956e+03	2.160238e+03	0	8.528652e-04
6.100000e+08	1.420205e+13	0.000000e+00	4.824120e-01	2.357722e+14	1.049403e+15	4.300570e+14	1.247684e+04	6.022796e+03	2.157315e+03	0	8.501798e-04
6.200000e+08	1.406899e+13	0.000000e+00	4.824120e-01	2.342876e+14	1.038410e+15	4.279571e+14	1.246707e+04	6.014794e+03	2.154449e+03	0	8.475164e-04
6.300000e+08	1.393783e+13	0.000000e+00	4.824120e-01	2.328236e+14	1.027692e+15	4.258720e+14	1.245737e+04	6.006946e+03	2.151638e+03	0	8.448744e-04
6.400000e+08	1.380852e+13	0.000000e+00	4.824120e-01	2.313797e+14	1.017238e+15	4.238015e+14	1.244773e+04	5.999246e+03	2.148880e+03	0	8.422534e-04
6.500000e+08	1.368101e+13	0.000000e+00	4.824120e-01	2.299554e+14	1.007037e+15	4.217457e+14	1.243815e+04	5.991691e+03	2.146174e+03	0	8.396530e-04
6.600000e+08	1.355527e+13	0.000000e+00	4.824120e-01	2.285504e+14	9.970798e+14	4.197043e+14	1.242862e+04	5.984275e+03	2.143517e+03	0	8.370727e-04
6.700000e+08	1.343124e+13	0.000000e+00	4.824120e-01	2.271641e+14	9.873578e+14	4.176773e+14	1.241916e+04	5.976994e+03	2.140909e+03	0	8.345119e-04
6.800000e+08	1.330890e+13	0.000000e+00	4.824120e-01	2.257961e+14	9.778620e+14	4.156645e+14	1.240975e+04	5.969843e+03	2.138348e+03	0	8.319704e-04
6.900000e+08	1.318820e+13	0.000000e+00	4.824120e-01	2.244460e+14	9.685842e+14	4.136658e+14	1.240040e+04	5.962820e+03	2.135832e+03	0	8.294477e-04
7.000000e+08	1.306911e+13	0.000000e+00	4.824120e-01	2.231134e+14	9.595165e+14	4.116812e+14	1.239111e+04	5.955920e+03	2.133361e+03	0	8.269434e-04
7.100000e+08	1.295158e+13	0.000000e+00	4.824120e-01	2.217978e+14	9.506515e+14	4.097104e+14	1.238186e+04	5.949139e+03	2.130932e+03	0	8.244571e-04
7.200000e+08	1.283559e+13	0.000000e+00	4.824120e-01	2.204990e+14	9.419819e+14	4.077535e+14	1.237268e+04	5.942474e+03	2.128544e+03	0	8.219884e-04
7.300000e+08	1.272109e+13	0.000000e+00	4.824120e-01	2.192165e+14	9.335010e+14	4.058102e+14	1.236355e+04	5.935921e+03	2.126197e+03	0	8.195371e-04
7.400000e+08	1.260806e+13	0.000000e+00	4.824120e-01	2.179501e+14	9.252023e+14	4.038804e+14	1.235447e+04	5.929478e+03	2.123889e+03	0	8.171026e-04
7.500000e+08	1.249647e+13	0.000000e+00	4.824120e-01	2.166992e+14	9.170795e+14	4.019641e+14	1.234544e+04	5.923140e+03	2.121619e+03	0	8.146847e-04
7.600000e+08	1.238628e+13	0.000000e+00	4.824120e-01	2.154637e+14	9.091268e+14	4.000612e+14	1.233647e+04	5.916906e+03	2.119386e+03	0	8.122831e-04
7.700000e+08	1.227746e+13	0.000000e+00	4.824120e-01	2.142432e+14	9.013384e+14	3.981715e+14	1.232754e+04	5.910771e+03	2.117189e+03	0	8.098974e-04
7.800000e+08	1.216999e+13	0.000000e+00	4.824120e-01	2.130373e+14	8.937089e+14	3.962949e+14	1.231867e+04	5.904734e+03	2.115026e+03	0	8.075272e-04
7.900000e+08	1.206383e+13	0.000000e+00	4.824120e-01	2.118458e+14	8.862331e+14	3.944314e+14	1.230984e+04	5.898791e+03	2.112898e+03	0	8.051724e-04
8.000000e+08	1.195896e+13	0.000000e+00	4.824120e-01	2.106684e+14	8.789062e+14	3.925808e+14	1.230107e+04	5.892940e+03	2.110802e+03	0	8.028325e-04
8.100000e+08	1.185536e+13	0.000000e+00	4.824120e-01	2.095048e+14	8.717232e+14	3.907430e+14	1.229234e+04	5.887178e+03	2.108738e+03	0	8.005074e-04
8.200000e+08	1.175299e+13	0.000000e+00	4.824120e-01	2.083547e+14	8.646797e+14	3.889180e+14	1.228367e+04	5.881503e+03	2.106705e+03	0	7.981967e-04
8.300000e+08	1.165183e+13	0.000000e+00	4.824120e-01	2.072178e+14	8.577713e+14	3.871055e+14	1.227504e+04	5.875913e+03	2.104703e+03	0	7.959001e-04
8.400000e+08	1.155187e+13	0.000000e+00	4.824120e-01	2.060939e+14	8.509938e+14	3.853056e+14	1.226645e+04	5.870405e+03	2.102730e+03	0	7.936174e-04
8.500000e+08	1.145306e+13	0.000000e+00	4.824120e-01	2.049828e+14	8.443432e+14	3.835181e+14	1.225792e+04	5.864977e+03	2.100786e+03	0	7.913483e-04
8.600000e+08	1.135540e+13	0.000000e+00	4.824120e-01	2.038841e+14	8.378156e+14	3.817429e+14	1.224943e+04	5.859628e+03	2.098870e+03	0	7.890926e-04
8.700000e+08	1.125886e+13	0.000000e+00	4.824120e-01	2.027977e+14	8.314074e+14	3.799800e+14	1.224098e+04	5.854354e+03	2.096981e+03	0	7.868500e-04
8.800000e+08	1.116342e+13	0.000000e+00	4.824120e-01	2.017233e+14	8.251150e+14	3.782291e+14	1.223258e+04	5.849154e+03	2.095118e+03	0	7.846202e-04
8.900000e+08	1.106905e+13	0.000000e+00	4.824120e-01	2.006607e+14	8.189349e+14	3.764903e+14	1.222423e+04	5.844026e+03	2.093281e+03	0	7.824031e-04
9.000000e+08	1.097574e+13	0.000000e+00	4.824120e-01	1.996096e+14	8.128640e+14	3.747634e+14	1.221591e+04	5.838969e+03	2.091470e+03	0	7.801984e-04
9.100000e+08	1.088346e+13	0.000000e+00	4.824120e-01	1.985699e+14	8.068990e+14	3.730484e+14	1.220765e+04	5.833980e+03	2.089683e+03	0	7.780059e-04
9.200000e+08	1.079221e+13	0.000000e+00	4.824120e-01	1.975414e+14	8.010370e+14	3.713451e+14	1.219942e+04	5.829058e+03	2.087920e+03	0	7.758253e-04
9.300000e+08	1.070195e+13	0.000000e+00	4.824120e-01	1.965237e+14	7.952749e+14	3.696535e+14	1.219124e+04	5.824201e+03	2.086180e+03	0	7.736564e-04
9.400000e+08	1.061268e+13	0.000000e+00	4.824120e-01	1.955168e+14	7.896101e+14	3.679734e+14	1.218310e+04	5.819408e+03	2.084463e+03	0	7.714992e-04
9.500000e+08	1.052436e+13	0.000000e+00	4.824120e-01	1.945205e+14	7.840398e+14	3.663048e+14	1.217500e+04	5.814676e+03	2.082768e+03	0	7.693532e-04
9.600000e+08	1.043700e+13	0.000000e+00	4.824120e-01	1.935345e+14	7.785614e+14	3.646475e+14	1.216694e+04	5.810005e+03	2.081095e+03	0	7.672184e-04
9.700000e+08	1.035056e+13	0.000000e+00	4.824120e-01	1.925587e+14	7.731724e+14	3.630016e+14	1.215892e+04	5.805393e+03	2.079443e+03	0	7.650945e-04
9.800000e+08	1.026503e+13	0.000000e+00	4.824120e-01	1.915930e+14	7.678704e+14	3.613669e+14	1.215095e+04	5.800839e+03	2.077812e+03	0	7.629814e-04
9.900000e+08	1.018041e+13	0.000000e+00	4.824120e-01	1.906370e+14	7.626531e+14	3.597432e+14	1.214301e+04	5.796341e+03	2.076201e+03	0	7.608788e-04
1.000000e+09	1.009666e+13	0.000000e+00	4.824120e-01	1.896907e+14	7.575182e+14	3.581306e+14	1.213511e+04	5.791897e+03	2.074609e+03	0	7.587867e-04
1.010000e+09	1.001378e+13	0.000000e+00	4.824120e-01	1.887539e+14	7.524636e+14	3.565289e+14	1.212725e+04	5.787508e+03	2.073037e+03	0	7.567047e-04
1.020000e+09	9.931745e+12	0.000000e+00	4.824120e-01	1.878264e+14	7.474872e+14	3.549381e+14	1.211943e+04	5.783171e+03	2.071483e+03	0	7.546328e-04
1.030000e+09	9.850551e+12	0.000000e+00	4.824120e-01	1.869081e+14	7.425870e+14	3.533580e+14	1.211165e+04	5.778885e+03	2.069948e+03	0	7.525707e-04
1.040000e+09	9.770180e+12	0.000000e+00	4.824120e-01	1.859989e+14	7.377610e+14	3.517887e+14	1.210391e+04	5.774649e+03	2.068431e+03	0	7.505184e-04
1.050000e+09	9.690617e+12	0.000000e+00	4.824120e-01	1.850985e+14	7.330073e+14	3.502299e+14	1.209620e+04	5.770462e+03	2.066931e+03	0	7.484756e-04
1.060000e+09	9.611851e+12	0.000000e+00	4.824120e-01	1.842068e+14	7.283242e+14	3.486816e+14	1.208854e+04	5.766322e+03	2.065448e+03	0	7.464421e-04
1.070000e+09	9.533866e+12	0.000000e+00	4.824120e-01	1.833238e+14	7.237099e+14	3.471438e+14	1.208091e+04	5.762230e+03	2.063983e+03	0	7.444179e-04
1.080000e+09	9.456652e+12	0.000000e+00	4.824120e-01	1.824492e+14	7.191627e+14	3.456163e+14	1.207331e+04	5.758183e+03	2.062533e+03	0	7.424028e-04
1.090000e+09	9.380194e+12	0.000000e+00	4.824120e-01	1.815829e+14	7.146810e+14	3.440990e+14	1.206575e+04	5.754181e+03	2.061099e+03	0	7.403966e-04
1.100000e+09	9.304482e+12	0.000000e+00	4.824120e-01	1.807248e+14	7.102632e+14	3.425920e+14	1.205823e+04	5.750222e+03	2.059682e+03	0	7.383992e-04
1.110000e+09	9.229503e+12	0.000000e+00	4.824120e-01	1.798748e+14	7.059077e+14	3.410951e+14	1.205074e+04	5.746307e+03	2.058279e+03	0	7.364104e-04
1.120000e+09	9.155246e+12	0.000000e+00	4.824120e-01	1.790327e+14	7.016132e+14	3.396082e+14	1.204329e+04	5.742433e+03	2.056891e+03	0	7.344301e-04
1.130000e+09	9.081700e+12	0.000000e+00	4.824120e-01	1.781984e+14	6.973780e+14	3.381312e+14	1.203587e+04	5.738600e+03	2.055519e+03	0	7.324582e-04
1.140000e+09	9.008853e+12	0.000000e+00	4.824120e-01	1.773718e+14	6.932010e+14	3.366642e+14	1.202849e+04	5.734807e+03	2.054160e+03	0	7.304945e-04
1.150000e+09	8.936694e+12	0.000000e+00	4.824120e-01	1.765527e+14	6.890807e+14	3.352069e+14	1.202114e+04	5.731054e+03	2.052816e+03	0	7.285389e-04
1.160000e+09	8.865214e+12	0.000000e+00	4.824120e-01	1.757412e+14	6.850158e+14	3.337593e+14	1.201383e+04	5.727339e+03	2.051485e+03	0	7.265913e-04
1.170000e+09	8.794401e+12	0.000000e+00	4.824120e-01	1.749369e+14	6.810051e+14	3.323214e+14	1.200655e+04	5.723661e+03	2.050168e+03	0	7.246515e-04
1.180000e+09	8.724246e+12	0.000000e+00	4.824120e-01	1.741400e+14	6.770474e+14	3.308930e+14	1.199930e+04	5.720021e+03	2.048864e+03	0	7.227195e-04
1.190000e+09	8.654738e+12	0.000000e+00	4.824120e-01	1.733501e+14	6.731414e+14	3.294742e+14	1.199208e+04	5.716416e+03	2.047573e+03	0	7.207950e-04
1.200000e+09	8.585869e+12	0.000000e+00	4.824120e-01	1.725673e+14	6.692861e+14	3.280648e+14	1.198490e+04	5.712847e+03	2.046294e+03	0	7.188780e-04
1.210000e+09	8.517628e+12	0.000000e+00	4.824120e-01	1.717913e+14	6.654802e+14	3.266647e+14	1.197775e+04	5.709313e+03	2.045028e+03	0	7.169684e-04
1.220000e+09	8.450007e+12	0.000000e+00	4.824120e-01	1.710223e+14	6.617229e+14	3.252739e+14	1.197063e+04	5.705813e+03	2.043774e+03	0	7.150660e-04
1.230000e+09	8.382996e+12	0.000000e+00	4.824120e-01	1.702599e+14	6.580129e+14	3.238922e+14	1.196355e+04	5.702346e+03	2.042533e+03	0	7.131708e-04
1.240000e+09	8.316586e+12	0.000000e+00	4.824120e-01	1.695041e+14	6.543493e+14	3.225198e+14	1.195649e+04	5.698911e+03	2.041302e+03	0	7.112826e-04
1.250000e+09	8.250769e+12	0.000000e+00	4.824120e-01	1.687549e+14	6.507312e+14	3.211563e+14	1.194947e+04	5.695509e+03	2.040084e+03	0	7.094013e-04
1.260000e+09	8.185537e+12	0.000000e+00	4.824120e-01	1.680122e+14	6.471575e+14	3.198019e+14	1.194248e+04	5.692138e+03	2.038876e+03	0	7.075268e-04
1.270000e+09	8.120881e+12	0.000000e+00	4.824120e-01	1.672757e+14	6.436273e+14	3.184564e+14	1.193552e+04	5.688798e+03	2.037680e+03	0	7.056589e-04
1.280000e+09	8.056793e+12	0.000000e+00	4.824120e-01	1.665456e+14	6.401398e+14	3.171197e+14	1.192859e+04	5.685488e+03	2.036494e+03	0	7.037977e-04
1.290000e+09	7.993265e+12	0.000000e+00	4.824120e-01	1.658216e+14	6.366940e+14	3.157919e+14	1.192168e+04	5.682208e+03	2.035319e+03	0	7.019430e-04
1.300000e+09	7.930288e+12	0.000000e+00	4.824120e-01	1.651037e+14	6.332891e+14	3.144727e+14	1.191481e+04	5.678956e+03	2.034155e+03	0	7.000947e-04
1.310000e+09	7.867857e+12	0.000000e+00	4.824120e-01	1.643918e+14	6.299243e+14	3.131622e+14	1.190797e+04	5.675734e+03	2.033000e+03	0	6.982527e-04
1.320000e+09	7.805963e+12	0.000000e+00	4.824120e-01	1.636858e+14	6.265988e+14	3.118603e+14	1.190116e+04	5.672539e+03	2.031856e+03	0	6.964169e-04
1.330000e+09	7.744598e+12	0.000000e+00	4.824120e-01	1.629857e+14	6.233118e+14	3.105669e+14	1.189438e+04	5.669372e+03	2.030722e+03	0	6.945872e-04
1.340000e+09	7.683756e+12	0.000000e+00	4.824120e-01	1.622914e+14	6.200626e+14	3.092819e+14	1.188763e+04	5.666232e+03	2.029597e+03	0	6.927635e-04
1.350000e+09	7.623429e+12	0.000000e+00	4.824120e-01	1.616027e+14	6.168503e+14	3.080053e+14	1.188090e+04	5.663118e+03	2.028481e+03	0	6.909457e-04
1.360000e+09	7.563611e+12	0.000000e+00	4.824120e-01	1.609197e+14	6.136744e+14	3.067371e+14	1.187420e+04	5.660030e+03	2.027375e+03	0	6.891338e-04
