#t		Qconv[W]	Ri[Rp]		R*[Rp]		Qc[W]		Qm[W]		Qr[W]		Tcmb[K]		Tl[K]		Tup[K]		RiFlag		Bs[T]
0.000000e+00	3.786102e+13	0.000000e+00	4.773868e-01	5.058397e+14	4.242662e+15	6.630393e+14	1.450681e+04	8.030114e+03	2.709803e+03	0	1.182934e-03
1.000000e+07	3.726228e+13	0.000000e+00	4.773868e-01	4.996279e+14	4.062085e+15	6.593656e+14	1.448817e+04	7.972604e+03	2.690396e+03	0	1.176665e-03
2.000000e+07	3.667882e+13	0.000000e+00	4.773868e-01	4.935724e+14	3.896041e+15	6.557194e+14	1.446975e+04	7.918242e+03	2.672051e+03	0	1.170492e-03
3.000000e+07	3.611047e+13	0.000000e+00	4.773868e-01	4.876717e+14	3.742932e+15	6.521004e+14	1.445156e+04	7.866767e+03	2.654681e+03	0	1.164414e-03
4.000000e+07	3.555698e+13	0.000000e+00	4.773868e-01	4.819230e+14	3.601378e+15	6.485084e+14	1.443358e+04	7.817945e+03	2.638206e+03	0	1.158434e-03
5.000000e+07	3.501801e+13	0.000000e+00	4.773868e-01	4.763230e+14	3.470183e+15	6.449432e+14	1.441582e+04	7.771571e+03	2.622556e+03	0	1.152552e-03
6.000000e+07	3.449320e+13	0.000000e+00	4.773868e-01	4.708678e+14	3.348303e+15	6.414046e+14	1.439826e+04	7.727457e+03	2.607670e+03	0	1.146765e-03
7.000000e+07	3.398214e+13	0.000000e+00	4.773868e-01	4.655534e+14	3.234825e+15	6.378923e+14	1.438090e+04	7.685438e+03	2.593490e+03	0	1.141073e-03
8.000000e+07	3.348441e+13	0.000000e+00	4.773868e-01	4.603753e+14	3.128950e+15	6.344062e+14	1.436374e+04	7.645361e+03	2.579966e+03	0	1.135475e-03
9.000000e+07	3.299957e+13	0.000000e+00	4.773868e-01	4.553293e+14	3.029971e+15	6.309459e+14	1.434677e+04	7.607090e+03	2.567051e+03	0	1.129968e-03
1.000000e+08	3.252720e+13	0.000000e+00	4.773868e-01	4.504109e+14	2.937264e+15	6.275114e+14	1.432998e+04	7.570502e+03	2.554705e+03	0	1.124550e-03
1.100000e+08	3.206686e+13	0.000000e+00	4.773868e-01	4.456156e+14	2.850276e+15	6.241024e+14	1.431338e+04	7.535484e+03	2.542888e+03	0	1.119220e-03
1.200000e+08	3.161812e+13	0.000000e+00	4.773868e-01	4.409392e+14	2.768515e+15	6.207186e+14	1.429695e+04	7.501934e+03	2.531566e+03	0	1.113974e-03
1.300000e+08	3.118057e+13	0.000000e+00	4.773868e-01	4.363774e+14	2.691542e+15	6.173599e+14	1.428069e+04	7.469757e+03	2.520708e+03	0	1.108812e-03
1.400000e+08	3.075381e+13	0.000000e+00	4.773868e-01	4.319260e+14	2.618963e+15	6.140260e+14	1.426460e+04	7.438869e+03	2.510284e+03	0	1.103730e-03
1.500000e+08	3.033745e+13	0.000000e+00	4.773868e-01	4.275812e+14	2.550427e+15	6.107168e+14	1.424867e+04	7.409190e+03	2.500269e+03	0	1.098726e-03
1.600000e+08	2.993110e+13	0.000000e+00	4.773868e-01	4.233390e+14	2.485616e+15	6.074320e+14	1.423291e+04	7.380649e+03	2.490638e+03	0	1.093799e-03
1.700000e+08	2.953440e+13	0.000000e+00	4.773868e-01	4.191956e+14	2.424246e+15	6.041715e+14	1.421729e+04	7.353178e+03	2.481367e+03	0	1.088945e-03
1.800000e+08	2.914700e+13	0.000000e+00	4.773868e-01	4.151476e+14	2.366058e+15	6.009350e+14	1.420184e+04	7.326717e+03	2.472438e+03	0	1.084163e-03
1.900000e+08	2.876857e+13	0.000000e+00	4.773868e-01	4.111915e+14	2.310817e+15	5.977223e+14	1.418653e+04	7.301208e+03	2.463830e+03	0	1.079450e-03
2.000000e+08	2.839877e+13	0.000000e+00	4.773868e-01	4.073239e+14	2.258314e+15	5.945333e+14	1.417136e+04	7.276598e+03	2.455525e+03	0	1.074805e-03
2.100000e+08	2.803730e+13	0.000000e+00	4.773868e-01	4.035417e+14	2.208354e+15	5.913677e+14	1.415634e+04	7.252841e+03	2.447508e+03	0	1.070225e-03
2.200000e+08	2.768386e+13	0.000000e+00	4.773868e-01	3.998420e+14	2.160762e+15	5.882254e+14	1.414146e+04	7.229889e+03	2.439763e+03	0	1.065709e-03
2.300000e+08	2.733816e+13	0.000000e+00	4.773868e-01	3.962217e+14	2.115378e+15	5.851062e+14	1.412671e+04	7.207701e+03	2.432276e+03	0	1.061255e-03
2.400000e+08	2.699994e+13	0.000000e+00	4.773868e-01	3.926781e+14	2.072055e+15	5.820098e+14	1.411210e+04	7.186239e+03	2.425033e+03	0	1.056860e-03
2.500000e+08	2.666894e+13	0.000000e+00	4.773868e-01	3.892085e+14	2.030659e+15	5.789361e+14	1.409762e+04	7.165464e+03	2.418022e+03	0	1.052523e-03
2.600000e+08	2.634490e+13	0.000000e+00	4.773868e-01	3.858105e+14	1.991067e+15	5.758849e+14	1.408326e+04	7.145344e+03	2.411233e+03	0	1.048243e-03
2.700000e+08	2.602759e+13	0.000000e+00	4.773868e-01	3.824815e+14	1.953165e+15	5.728559e+14	1.406903e+04	7.125847e+03	2.404653e+03	0	1.044018e-03
2.800000e+08	2.571678e+13	0.000000e+00	4.773868e-01	3.792193e+14	1.916850e+15	5.698492e+14	1.405492e+04	7.106942e+03	2.398274e+03	0	1.039845e-03
2.900000e+08	2.541225e+13	0.000000e+00	4.773868e-01	3.760217e+14	1.882026e+15	5.668643e+14	1.404094e+04	7.088601e+03	2.392085e+03	0	1.035724e-03
3.000000e+08	2.511379e+13	0.000000e+00	4.773868e-01	3.728864e+14	1.848603e+15	5.639012e+14	1.402707e+04	7.070800e+03	2.386077e+03	0	1.031654e-03
3.100000e+08	2.482121e+13	0.000000e+00	4.773868e-01	3.698115e+14	1.816500e+15	5.609597e+14	1.401331e+04	7.053512e+03	2.380244e+03	0	1.027632e-03
3.200000e+08	2.453432e+13	0.000000e+00	4.773868e-01	3.667951e+14	1.785641e+15	5.580396e+14	1.399967e+04	7.036715e+03	2.374575e+03	0	1.023657e-03
3.300000e+08	2.425292e+13	0.000000e+00	4.773868e-01	3.638352e+14	1.755956e+15	5.551408e+14	1.398614e+04	7.020387e+03	2.369065e+03	0	1.019728e-03
3.400000e+08	2.397685e+13	0.000000e+00	4.773868e-01	3.609301e+14	1.727380e+15	5.522630e+14	1.397272e+04	7.004508e+03	2.363707e+03	0	1.015845e-03
3.500000e+08	2.370595e+13	0.000000e+00	4.773868e-01	3.580781e+14	1.699851e+15	5.494060e+14	1.395941e+04	6.989058e+03	2.358493e+03	0	1.012004e-03
3.600000e+08	2.344004e+13	0.000000e+00	4.773868e-01	3.552775e+14	1.673314e+15	5.465698e+14	1.394620e+04	6.974019e+03	2.353418e+03	0	1.008206e-03
3.700000e+08	2.317898e+13	0.000000e+00	4.773868e-01	3.525269e+14	1.647716e+15	5.437541e+14	1.393309e+04	6.959374e+03	2.348476e+03	0	1.004449e-03
3.800000e+08	2.292262e+13	0.000000e+00	4.773868e-01	3.498245e+14	1.623008e+15	5.409588e+14	1.392009e+04	6.945106e+03	2.343661e+03	0	1.000732e-03
3.900000e+08	2.267081e+13	0.000000e+00	4.773868e-01	3.471691e+14	1.599144e+15	5.381837e+14	1.390718e+04	6.931201e+03	2.338969e+03	0	9.970545e-04
4.000000e+08	2.242343e+13	0.000000e+00	4.773868e-01	3.445593e+14	1.576082e+15	5.354287e+14	1.389437e+04	6.917643e+03	2.334394e+03	0	9.934146e-04
4.100000e+08	2.218034e+13	0.000000e+00	4.773868e-01	3.419937e+14	1.553781e+15	5.326935e+14	1.388166e+04	6.904419e+03	2.329931e+03	0	9.898118e-04
4.200000e+08	2.194142e+13	0.000000e+00	4.773868e-01	3.394710e+14	1.532205e+15	5.299780e+14	1.386904e+04	6.891516e+03	2.325577e+03	0	9.862449e-04
4.300000e+08	2.170655e+13	0.000000e+00	4.773868e-01	3.369900e+14	1.511318e+15	5.272821e+14	1.385652e+04	6.878921e+03	2.321327e+03	0	9.827132e-04
4.400000e+08	2.147561e+13	0.000000e+00	4.773868e-01	3.345496e+14	1.491087e+15	5.246056e+14	1.384408e+04	6.866622e+03	2.317177e+03	0	9.792157e-04
4.500000e+08	2.124850e+13	0.000000e+00	4.773868e-01	3.321486e+14	1.471482e+15	5.219483e+14	1.383174e+04	6.854609e+03	2.313123e+03	0	9.757516e-04
4.600000e+08	2.102510e+13	0.000000e+00	4.773868e-01	3.297860e+14	1.452473e+15	5.193101e+14	1.381949e+04	6.842871e+03	2.309162e+03	0	9.723201e-04
4.700000e+08	2.080532e+13	0.000000e+00	4.773868e-01	3.274606e+14	1.434033e+15	5.166908e+14	1.380732e+04	6.831397e+03	2.305290e+03	0	9.689202e-04
4.800000e+08	2.058906e+13	0.000000e+00	4.773868e-01	3.251716e+14	1.416137e+15	5.140903e+14	1.379524e+04	6.820179e+03	2.301504e+03	0	9.655513e-04
4.900000e+08	2.037622e+13	0.000000e+00	4.773868e-01	3.229178e+14	1.398760e+15	5.115084e+14	1.378324e+04	6.809206e+03	2.297801e+03	0	9.622126e-04
5.000000e+08	2.016671e+13	0.000000e+00	4.773868e-01	3.206985e+14	1.381880e+15	5.089449e+14	1.377132e+04	6.798470e+03	2.294178e+03	0	9.589034e-04
5.100000e+08	1.996045e+13	0.000000e+00	4.773868e-01	3.185126e+14	1.365474e+15	5.063998e+14	1.375949e+04	6.787963e+03	2.290633e+03	0	9.556230e-04
5.200000e+08	1.975734e+13	0.000000e+00	4.773868e-01	3.163594e+14	1.349524e+15	5.038728e+14	1.374774e+04	6.777676e+03	2.287161e+03	0	9.523707e-04
5.300000e+08	1.955732e+13	0.000000e+00	4.773868e-01	3.142380e+14	1.334009e+15	5.013639e+14	1.373606e+04	6.767603e+03	2.283762e+03	0	9.491458e-04
5.400000e+08	1.936029e+13	0.000000e+00	4.773868e-01	3.121475e+14	1.318911e+15	4.988728e+14	1.372447e+04	6.757735e+03	2.280432e+03	0	9.459478e-04
5.500000e+08	1.916619e+13	0.000000e+00	4.773868e-01	3.100873e+14	1.304213e+15	4.963995e+14	1.371295e+04	6.748067e+03	2.277170e+03	0	9.427759e-04
5.600000e+08	1.897494e+13	0.000000e+00	4.773868e-01	3.080566e+14	1.289900e+15	4.939437e+14	1.370151e+04	6.738590e+03	2.273972e+03	0	9.396296e-04
5.700000e+08	1.878648e+13	0.000000e+00	4.773868e-01	3.060547e+14	1.275955e+15	4.915054e+14	1.369014e+04	6.729300e+03	2.270837e+03	0	9.365083e-04
5.800000e+08	1.860073e+13	0.000000e+00	4.773868e-01	3.040808e+14	1.262364e+15	4.890844e+14	1.367885e+04	6.720190e+03	2.267762e+03	0	9.334115e-04
5.900000e+08	1.841762e+13	0.000000e+00	4.773868e-01	3.021343e+14	1.249113e+15	4.866805e+14	1.366762e+04	6.711253e+03	2.264747e+03	0	9.303386e-04
6.000000e+08	1.823711e+13	0.000000e+00	4.773868e-01	3.002146e+14	1.236189e+15	4.842937e+14	1.365648e+04	6.702485e+03	2.261788e+03	0	9.272891e-04
6.100000e+08	1.805911e+13	0.000000e+00	4.773868e-01	2.983210e+14	1.223579e+15	4.819237e+14	1.364540e+04	6.693881e+03	2.258884e+03	0	9.242625e-04
6.200000e+08	1.788358e+13	0.000000e+00	4.773868e-01	2.964529e+14	1.211272e+15	4.795705e+14	1.363439e+04	6.685434e+03	2.256034e+03	0	9.212582e-04
6.300000e+08	1.771046e+13	0.000000e+00	4.773868e-01	2.946097e+14	1.199257e+15	4.772339e+14	1.362345e+04	6.677141e+03	2.253235e+03	0	9.182759e-04
6.400000e+08	1.753970e+13	0.000000e+00	4.773868e-01	2.927909e+14	1.187521e+15	4.749137e+14	1.361257e+04	6.668995e+03	2.250487e+03	0	9.153149e-04
6.500000e+08	1.737123e+13	0.000000e+00	4.773868e-01	2.909959e+14	1.176056e+15	4.726100e+14	1.360177e+04	6.660994e+03	2.247787e+03	0	9.123750e-04
6.600000e+08	1.720501e+13	0.000000e+00	4.773868e-01	2.892242e+14	1.164852e+15	4.703224e+14	1.359103e+04	6.653133e+03	2.245134e+03	0	9.094556e-04
6.700000e+08	1.704099e+13	0.000000e+00	4.773868e-01	2.874753e+14	1.153899e+15	4.680509e+14	1.358036e+04	6.645407e+03	2.242526e+03	0	9.065563e-04
6.800000e+08	1.687911e+13	0.000000e+00	4.773868e-01	2.857486e+14	1.143188e+15	4.657954e+14	1.356975e+04	6.637812e+03	2.239963e+03	0	9.036767e-04
6.900000e+08	1.671934e+13	0.000000e+00	4.773868e-01	2.840438e+14	1.132712e+15	4.635557e+14	1.355920e+04	6.630345e+03	2.237444e+03	0	9.008164e-04
7.000000e+08	1.656163e+13	0.000000e+00	4.773868e-01	2.823603e+14	1.122461e+15	4.613316e+14	1.354872e+04	6.623001e+03	2.234966e+03	0	8.979749e-04
7.100000e+08	1.640593e+13	0.000000e+00	4.773868e-01	2.806976e+14	1.112428e+15	4.591232e+14	1.353830e+04	6.615778e+03	2.232528e+03	0	8.951520e-04
7.200000e+08	1.625220e+13	0.000000e+00	4.773868e-01	2.790554e+14	1.102606e+15	4.569302e+14	1.352794e+04	6.608672e+03	2.230130e+03	0	8.923473e-04
7.300000e+08	1.610040e+13	0.000000e+00	4.773868e-01	2.774332e+14	1.092988e+15	4.547525e+14	1.351764e+04	6.601679e+03	2.227770e+03	0	8.895603e-04
7.400000e+08	1.595048e+13	0.000000e+00	4.773868e-01	2.758306e+14	1.083568e+15	4.525901e+14	1.350740e+04	6.594796e+03	2.225448e+03	0	8.867907e-04
7.500000e+08	1.580242e+13	0.000000e+00	4.773868e-01	2.742473e+14	1.074337e+15	4.504427e+14	1.349722e+04	6.588021e+03	2.223161e+03	0	8.840382e-04
7.600000e+08	1.565617e+13	0.000000e+00	4.773868e-01	2.726827e+14	1.065292e+15	4.483102e+14	1.348709e+04	6.581351e+03	2.220910e+03	0	8.813025e-04
7.700000e+08	1.551169e+13	0.000000e+00	4.773868e-01	2.711365e+14	1.056425e+15	4.461926e+14	1.347703e+04	6.574781e+03	2.218693e+03	0	8.785832e-04
7.800000e+08	1.536895e+13	0.000000e+00	4.773868e-01	2.696085e+14	1.047731e+15	4.440898e+14	1.346702e+04	6.568311e+03	2.216510e+03	0	8.758800e-04
7.900000e+08	1.522792e+13	0.000000e+00	4.773868e-01	2.680981e+14	1.039204e+15	4.420015e+14	1.345707e+04	6.561936e+03	2.214359e+03	0	8.731926e-04
8.000000e+08	1.508856e+13	0.000000e+00	4.773868e-01	2.666051e+14	1.030840e+15	4.399277e+14	1.344717e+04	6.555655e+03	2.212239e+03	0	8.705207e-04
8.100000e+08	1.495084e+13	0.000000e+00	4.773868e-01	2.651292e+14	1.022633e+15	4.378683e+14	1.343733e+04	6.549465e+03	2.210150e+03	0	8.678640e-04
8.200000e+08	1.481472e+13	0.000000e+00	4.773868e-01	2.636700e+14	1.014579e+15	4.358231e+14	1.342755e+04	6.543364e+03	2.208092e+03	0	8.652222e-04
8.300000e+08	1.468018e+13	0.000000e+00	4.773868e-01	2.622271e+14	1.006673e+15	4.337921e+14	1.341781e+04	6.537349e+03	2.206062e+03	0	8.625951e-04
8.400000e+08	1.454719e+13	0.000000e+00	4.773868e-01	2.608003e+14	9.989106e+14	4.317751e+14	1.340813e+04	6.531418e+03	2.204060e+03	0	8.599823e-04
8.500000e+08	1.441571e+13	0.000000e+00	4.773868e-01	2.593894e+14	9.912875e+14	4.297720e+14	1.339851e+04	6.525570e+03	2.202087e+03	0	8.573836e-04
8.600000e+08	1.428572e+13	0.000000e+00	4.773868e-01	2.579939e+14	9.837998e+14	4.277827e+14	1.338893e+04	6.519801e+03	2.200140e+03	0	8.547988e-04
8.700000e+08	1.415719e+13	0.000000e+00	4.773868e-01	2.566136e+14	9.764435e+14	4.258071e+14	1.337941e+04	6.514110e+03	2.198220e+03	0	8.522276e-04
8.800000e+08	1.403010e+13	0.000000e+00	4.773868e-01	2.552482e+14	9.692149e+14	4.238451e+14	1.336994e+04	6.508495e+03	2.196325e+03	0	8.496696e-04
8.900000e+08	1.390441e+13	0.000000e+00	4.773868e-01	2.538975e+14	9.621104e+14	4.218966e+14	1.336052e+04	6.502954e+03	2.194455e+03	0	8.471248e-04
9.000000e+08	1.378011e+13	0.000000e+00	4.773868e-01	2.525612e+14	9.551264e+14	4.199615e+14	1.335114e+04	6.497486e+03	2.192610e+03	0	8.445929e-04
9.100000e+08	1.365716e+13	0.000000e+00	4.773868e-01	2.512391e+14	9.482597e+14	4.180396e+14	1.334182e+04	6.492088e+03	2.190788e+03	0	8.420735e-04
9.200000e+08	1.353555e+13	0.000000e+00	4.773868e-01	2.499308e+14	9.415070e+14	4.161309e+14	1.333255e+04	6.486759e+03	2.188990e+03	0	8.395666e-04
9.300000e+08	1.341525e+13	0.000000e+00	4.773868e-01	2.486362e+14	9.348653e+14	4.142352e+14	1.332332e+04	6.481497e+03	2.187214e+03	0	8.370719e-04
9.400000e+08	1.329623e+13	0.000000e+00	4.773868e-01	2.473550e+14	9.283315e+14	4.123525e+14	1.331414e+04	6.476300e+03	2.185461e+03	0	8.345891e-04
9.500000e+08	1.317848e+13	0.000000e+00	4.773868e-01	2.460870e+14	9.219027e+14	4.104826e+14	1.330501e+04	6.471168e+03	2.183729e+03	0	8.321180e-04
9.600000e+08	1.306197e+13	0.000000e+00	4.773868e-01	2.448319e+14	9.155762e+14	4.086255e+14	1.329592e+04	6.466098e+03	2.182018e+03	0	8.296586e-04
9.700000e+08	1.294668e+13	0.000000e+00	4.773868e-01	2.435896e+14	9.093493e+14	4.067811e+14	1.328689e+04	6.461090e+03	2.180328e+03	0	8.272104e-04
9.800000e+08	1.283259e+13	0.000000e+00	4.773868e-01	2.423598e+14	9.032193e+14	4.049492e+14	1.327789e+04	6.456141e+03	2.178658e+03	0	8.247734e-04
9.900000e+08	1.271969e+13	0.000000e+00	4.773868e-01	2.411424e+14	8.971839e+14	4.031297e+14	1.326895e+04	6.451250e+03	2.177007e+03	0	8.223474e-04
1.000000e+09	1.260794e+13	0.000000e+00	4.773868e-01	2.399370e+14	8.912406e+14	4.013226e+14	1.326004e+04	6.446417e+03	2.175376e+03	0	8.199321e-04
1.010000e+09	1.249733e+13	0.000000e+00	4.773868e-01	2.387436e+14	8.853871e+14	3.995278e+14	1.325119e+04	6.441639e+03	2.173764e+03	0	8.175274e-04
1.020000e+09	1.238785e+13	0.000000e+00	4.773868e-01	2.375619e+14	8.796211e+14	3.977451e+14	1.324237e+04	6.436915e+03	2.172170e+03	0	8.151331e-04
1.030000e+09	1.227947e+13	0.000000e+00	4.773868e-01	2.363917e+14	8.739404e+14	3.959745e+14	1.323360e+04	6.432245e+03	2.170594e+03	0	8.127490e-04
1.040000e+09	1.217218e+13	0.000000e+00	4.773868e-01	2.352329e+14	8.683430e+14	3.942158e+14	1.322487e+04	6.427627e+03	2.169036e+03	0	8.103750e-04
1.050000e+09	1.206596e+13	0.000000e+00	4.773868e-01	2.340853e+14	8.628268e+14	3.924690e+14	1.321619e+04	6.423060e+03	2.167494e+03	0	8.080108e-04
1.060000e+09	1.196079e+13	0.000000e+00	4.773868e-01	2.329486e+14	8.573899e+14	3.907340e+14	1.320755e+04	6.418543e+03	2.165970e+03	0	8.056563e-04
1.070000e+09	1.185665e+13	0.000000e+00	4.773868e-01	2.318228e+14	8.520304e+14	3.890107e+14	1.319895e+04	6.414075e+03	2.164462e+03	0	8.033114e-04
1.080000e+09	1.175354e+13	0.000000e+00	4.773868e-01	2.307076e+14	8.467464e+14	3.872990e+14	1.319039e+04	6.409654e+03	2.162970e+03	0	8.009758e-04
1.090000e+09	1.165142e+13	0.000000e+00	4.773868e-01	2.296029e+14	8.415362e+14	3.855988e+14	1.318187e+04	6.405280e+03	2.161494e+03	0	7.986494e-04
1.100000e+09	1.155030e+13	0.000000e+00	4.773868e-01	2.285085e+14	8.363980e+14	3.839100e+14	1.317339e+04	6.400952e+03	2.160034e+03	0	7.963321e-04
1.110000e+09	1.145014e+13	0.000000e+00	4.773868e-01	2.274243e+14	8.313302e+14	3.822326e+14	1.316496e+04	6.396669e+03	2.158589e+03	0	7.940238e-04
1.120000e+09	1.135095e+13	0.000000e+00	4.773868e-01	2.263502e+14	8.263312e+14	3.805663e+14	1.315656e+04	6.392429e+03	2.157158e+03	0	7.917241e-04
1.130000e+09	1.125269e+13	0.000000e+00	4.773868e-01	2.252859e+14	8.213993e+14	3.789113e+14	1.314820e+04	6.388233e+03	2.155742e+03	0	7.894331e-04
1.140000e+09	1.115536e+13	0.000000e+00	4.773868e-01	2.242313e+14	8.165332e+14	3.772672e+14	1.313989e+04	6.384079e+03	2.154340e+03	0	7.871505e-04
1.150000e+09	1.105895e+13	0.000000e+00	4.773868e-01	2.231863e+14	8.117313e+14	3.756342e+14	1.313161e+04	6.379966e+03	2.152952e+03	0	7.848763e-04
1.160000e+09	1.096344e+13	0.000000e+00	4.773868e-01	2.221507e+14	8.069923e+14	3.740121e+14	1.312337e+04	6.375893e+03	2.151578e+03	0	7.826102e-04
1.170000e+09	1.086882e+13	0.000000e+00	4.773868e-01	2.211244e+14	8.023146e+14	3.724007e+14	1.311516e+04	6.371860e+03	2.150217e+03	0	7.803521e-04
1.180000e+09	1.077507e+13	0.000000e+00	4.773868e-01	2.201073e+14	7.976971e+14	3.708001e+14	1.310700e+04	6.367866e+03	2.148869e+03	0	7.781020e-04
1.190000e+09	1.068218e+13	0.000000e+00	4.773868e-01	2.190992e+14	7.931383e+14	3.692101e+14	1.309887e+04	6.363910e+03	2.147534e+03	0	7.758597e-04
1.200000e+09	1.059014e+13	0.000000e+00	4.773868e-01	2.181000e+14	7.886372e+14	3.676307e+14	1.309078e+04	6.359991e+03	2.146211e+03	0	7.736249e-04
1.210000e+09	1.049894e+13	0.000000e+00	4.773868e-01	2.171096e+14	7.841923e+14	3.660618e+14	1.308273e+04	6.356109e+03	2.144901e+03	0	7.713977e-04
1.220000e+09	1.040857e+13	0.000000e+00	4.773868e-01	2.161278e+14	7.798026e+14	3.645032e+14	1.307471e+04	6.352262e+03	2.143603e+03	0	7.691779e-04
1.230000e+09	1.031900e+13	0.000000e+00	4.773868e-01	2.151546e+14	7.754669e+14	3.629550e+14	1.306673e+04	6.348451e+03	2.142317e+03	0	7.669654e-04
1.240000e+09	1.023024e+13	0.000000e+00	4.773868e-01	2.141897e+14	7.711840e+14	3.614170e+14	1.305879e+04	6.344675e+03	2.141043e+03	0	7.647600e-04
1.250000e+09	1.014227e+13	0.000000e+00	4.773868e-01	2.132332e+14	7.669530e+14	3.598891e+14	1.305088e+04	6.340932e+03	2.139780e+03	0	7.625615e-04
1.260000e+09	1.005508e+13	0.000000e+00	4.773868e-01	2.122848e+14	7.627727e+14	3.583713e+14	1.304301e+04	6.337223e+03	2.138528e+03	0	7.603700e-04
1.270000e+09	9.968654e+12	0.000000e+00	4.773868e-01	2.113446e+14	7.586421e+14	3.568636e+14	1.303517e+04	6.333546e+03	2.137288e+03	0	7.581853e-04
1.280000e+09	9.882989e+12	0.000000e+00	4.773868e-01	2.104122e+14	7.545602e+14	3.553657e+14	1.302736e+04	6.329902e+03	2.136058e+03	0	7.560073e-04
1.290000e+09	9.798072e+12	0.000000e+00	4.773868e-01	2.094878e+14	7.505261e+14	3.538777e+14	1.301960e+04	6.326289e+03	2.134838e+03	0	7.538357e-04
1.300000e+09	9.713891e+12	0.000000e+00	4.773868e-01	2.085710e+14	7.465388e+14	3.523994e+14	1.301186e+04	6.322706e+03	2.133629e+03	0	7.516707e-04
1.310000e+09	9.630439e+12	0.000000e+00	4.773868e-01	2.076619e+14	7.425974e+14	3.509309e+14	1.300416e+04	6.319154e+03	2.132431e+03	0	7.495119e-04
1.320000e+09	9.547704e+12	0.000000e+00	4.773868e-01	2.067604e+14	7.387010e+14	3.494719e+14	1.299649e+04	6.315632e+03	2.131242e+03	0	7.473594e-04
1.330000e+09	9.465677e+12	0.000000e+00	4.773868e-01	2.058663e+14	7.348488e+14	3.480225e+14	1.298886e+04	6.312139e+03	2.130064e+03	0	7.452130e-04
1.340000e+09	9.384348e+12	0.000000e+00	4.773868e-01	2.049795e+14	7.310399e+14	3.465826e+14	1.298125e+04	6.308675e+03	2.128895e+03	0	7.430726e-04
1.350000e+09	9.303709e+12	0.000000e+00	4.773868e-01	2.041000e+14	7.272734e+14	3.451521e+14	1.297368e+04	6.305239e+03	2.127735e+03	0	7.409381e-04
1.360000e+09	9.223750e+12	0.000000e+00	4.773868e-01	2.032276e+14	7.235487e+14	3.437308e+14	1.296615e+04	6.301831e+03	2.126585e+03	0	7.388093e-04
