#t		Qconv[W]	Ri[Rp]		R*[Rp]		Qc[W]		Qm[W]		Qr[W]		Tcmb[K]		Tl[K]		Tup[K]		RiFlag		Bs[T]
0.000000e+00	4.103849e+13	0.000000e+00	4.773871e-01	5.443058e+14	4.252676e+15	6.902273e+14	1.495839e+04	8.256948e+03	2.730065e+03	0	1.213669e-03
1.000000e+07	4.040524e+13	0.000000e+00	4.773871e-01	5.378782e+14	4.083110e+15	6.864029e+14	1.493943e+04	8.202224e+03	2.711972e+03	0	1.207394e-03
2.000000e+07	3.978775e+13	0.000000e+00	4.773871e-01	5.316081e+14	3.926472e+15	6.826071e+14	1.492070e+04	8.150350e+03	2.694820e+03	0	1.201212e-03
3.000000e+07	3.918577e+13	0.000000e+00	4.773871e-01	5.254932e+14	3.781413e+15	6.788398e+14	1.490219e+04	8.101099e+03	2.678536e+03	0	1.195123e-03
4.000000e+07	3.859900e+13	0.000000e+00	4.773871e-01	5.195305e+14	3.646754e+15	6.751005e+14	1.488389e+04	8.054271e+03	2.663053e+03	0	1.189128e-03
5.000000e+07	3.802710e+13	0.000000e+00	4.773871e-01	5.137164e+14	3.521470e+15	6.713891e+14	1.486580e+04	8.009686e+03	2.648311e+03	0	1.183226e-03
6.000000e+07	3.746965e+13	0.000000e+00	4.773871e-01	5.080469e+14	3.404658e+15	6.677054e+14	1.484791e+04	7.967179e+03	2.634257e+03	0	1.177416e-03
7.000000e+07	3.692625e+13	0.000000e+00	4.773871e-01	5.025180e+14	3.295526e+15	6.640491e+14	1.483021e+04	7.926604e+03	2.620841e+03	0	1.171696e-03
8.000000e+07	3.639647e+13	0.000000e+00	4.773871e-01	4.971252e+14	3.193373e+15	6.604200e+14	1.481271e+04	7.887828e+03	2.608020e+03	0	1.166066e-03
9.000000e+07	3.587988e+13	0.000000e+00	4.773871e-01	4.918644e+14	3.097578e+15	6.568179e+14	1.479539e+04	7.850728e+03	2.595754e+03	0	1.160522e-03
1.000000e+08	3.537603e+13	0.000000e+00	4.773871e-01	4.867311e+14	3.007590e+15	6.532425e+14	1.477826e+04	7.815196e+03	2.584005e+03	0	1.155064e-03
1.100000e+08	3.488450e+13	0.000000e+00	4.773871e-01	4.817211e+14	2.922917e+15	6.496937e+14	1.476131e+04	7.781129e+03	2.572741e+03	0	1.149690e-03
1.200000e+08	3.440487e+13	0.000000e+00	4.773871e-01	4.768302e+14	2.843120e+15	6.461712e+14	1.474453e+04	7.748436e+03	2.561932e+03	0	1.144397e-03
1.300000e+08	3.393673e+13	0.000000e+00	4.773871e-01	4.720542e+14	2.767805e+15	6.426747e+14	1.472792e+04	7.717033e+03	2.551549e+03	0	1.139182e-03
1.400000e+08	3.347967e+13	0.000000e+00	4.773871e-01	4.673892e+14	2.696617e+15	6.392042e+14	1.471147e+04	7.686841e+03	2.541566e+03	0	1.134045e-03
1.500000e+08	3.303331e+13	0.000000e+00	4.773871e-01	4.628313e+14	2.629239e+15	6.357593e+14	1.469519e+04	7.657790e+03	2.531961e+03	0	1.128983e-03
1.600000e+08	3.259727e+13	0.000000e+00	4.773871e-01	4.583767e+14	2.565382e+15	6.323398e+14	1.467907e+04	7.629813e+03	2.522710e+03	0	1.123993e-03
1.700000e+08	3.217118e+13	0.000000e+00	4.773871e-01	4.540219e+14	2.504787e+15	6.289456e+14	1.466310e+04	7.602849e+03	2.513795e+03	0	1.119074e-03
1.800000e+08	3.175471e+13	0.000000e+00	4.773871e-01	4.497633e+14	2.447216e+15	6.255763e+14	1.464728e+04	7.576843e+03	2.505196e+03	0	1.114224e-03
1.900000e+08	3.134750e+13	0.000000e+00	4.773871e-01	4.455977e+14	2.392456e+15	6.222320e+14	1.463161e+04	7.551742e+03	2.496897e+03	0	1.109441e-03
2.000000e+08	3.094924e+13	0.000000e+00	4.773871e-01	4.415217e+14	2.340311e+15	6.189122e+14	1.461609e+04	7.527497e+03	2.488881e+03	0	1.104723e-03
2.100000e+08	3.055962e+13	0.000000e+00	4.773871e-01	4.375323e+14	2.290603e+15	6.156168e+14	1.460070e+04	7.504065e+03	2.481133e+03	0	1.100067e-03
2.200000e+08	3.017835e+13	0.000000e+00	4.773871e-01	4.336266e+14	2.243169e+15	6.123456e+14	1.458546e+04	7.481403e+03	2.473640e+03	0	1.095473e-03
2.300000e+08	2.980513e+13	0.000000e+00	4.773871e-01	4.298017e+14	2.197860e+15	6.090985e+14	1.457035e+04	7.459471e+03	2.466389e+03	0	1.090938e-03
2.400000e+08	2.943970e+13	0.000000e+00	4.773871e-01	4.260549e+14	2.154540e+15	6.058751e+14	1.455537e+04	7.438234e+03	2.459367e+03	0	1.086461e-03
2.500000e+08	2.908179e+13	0.000000e+00	4.773871e-01	4.223836e+14	2.113082e+15	6.026754e+14	1.454053e+04	7.417658e+03	2.452564e+03	0	1.082041e-03
2.600000e+08	2.873116e+13	0.000000e+00	4.773871e-01	4.187852e+14	2.073373e+15	5.994990e+14	1.452581e+04	7.397711e+03	2.445968e+03	0	1.077674e-03
2.700000e+08	2.838756e+13	0.000000e+00	4.773871e-01	4.152575e+14	2.035304e+15	5.963459e+14	1.451122e+04	7.378363e+03	2.439571e+03	0	1.073361e-03
2.800000e+08	2.805076e+13	0.000000e+00	4.773871e-01	4.117980e+14	1.998778e+15	5.932158e+14	1.449675e+04	7.359585e+03	2.433363e+03	0	1.069099e-03
2.900000e+08	2.772055e+13	0.000000e+00	4.773871e-01	4.084047e+14	1.963704e+15	5.901086e+14	1.448240e+04	7.341353e+03	2.427334e+03	0	1.064888e-03
3.000000e+08	2.739671e+13	0.000000e+00	4.773871e-01	4.050754e+14	1.929998e+15	5.870240e+14	1.446816e+04	7.323640e+03	2.421478e+03	0	1.060725e-03
3.100000e+08	2.707904e+13	0.000000e+00	4.773871e-01	4.018081e+14	1.897583e+15	5.839619e+14	1.445405e+04	7.306425e+03	2.415786e+03	0	1.056609e-03
3.200000e+08	2.676735e+13	0.000000e+00	4.773871e-01	3.986009e+14	1.866386e+15	5.809221e+14	1.444004e+04	7.289685e+03	2.410251e+03	0	1.052539e-03
3.300000e+08	2.646145e+13	0.000000e+00	4.773871e-01	3.954519e+14	1.836340e+15	5.779043e+14	1.442615e+04	7.273400e+03	2.404866e+03	0	1.048514e-03
3.400000e+08	2.616117e+13	0.000000e+00	4.773871e-01	3.923593e+14	1.807384e+15	5.749085e+14	1.441237e+04	7.257550e+03	2.399626e+03	0	1.044533e-03
3.500000e+08	2.586633e+13	0.000000e+00	4.773871e-01	3.893215e+14	1.779459e+15	5.719345e+14	1.439870e+04	7.242117e+03	2.394523e+03	0	1.040594e-03
3.600000e+08	2.557677e+13	0.000000e+00	4.773871e-01	3.863368e+14	1.752510e+15	5.689819e+14	1.438513e+04	7.227084e+03	2.389552e+03	0	1.036697e-03
3.700000e+08	2.529234e+13	0.000000e+00	4.773871e-01	3.834036e+14	1.726489e+15	5.660508e+14	1.437166e+04	7.212434e+03	2.384709e+03	0	1.032840e-03
3.800000e+08	2.501288e+13	0.000000e+00	4.773871e-01	3.805205e+14	1.701346e+15	5.631409e+14	1.435830e+04	7.198151e+03	2.379986e+03	0	1.029021e-03
3.900000e+08	2.473825e+13	0.000000e+00	4.773871e-01	3.776860e+14	1.677039e+15	5.602520e+14	1.434504e+04	7.184222e+03	2.375381e+03	0	1.025242e-03
4.000000e+08	2.446831e+13	0.000000e+00	4.773871e-01	3.748987e+14	1.653527e+15	5.573840e+14	1.433187e+04	7.170633e+03	2.370888e+03	0	1.021499e-03
4.100000e+08	2.420292e+13	0.000000e+00	4.773871e-01	3.721572e+14	1.630770e+15	5.545366e+14	1.431881e+04	7.157369e+03	2.366502e+03	0	1.017792e-03
4.200000e+08	2.394196e+13	0.000000e+00	4.773871e-01	3.694604e+14	1.608732e+15	5.517098e+14	1.430583e+04	7.144419e+03	2.362220e+03	0	1.014121e-03
4.300000e+08	2.368531e+13	0.000000e+00	4.773871e-01	3.668070e+14	1.587380e+15	5.489033e+14	1.429296e+04	7.131771e+03	2.358038e+03	0	1.010484e-03
4.400000e+08	2.343284e+13	0.000000e+00	4.773871e-01	3.641957e+14	1.566681e+15	5.461171e+14	1.428017e+04	7.119413e+03	2.353952e+03	0	1.006881e-03
4.500000e+08	2.318445e+13	0.000000e+00	4.773871e-01	3.616255e+14	1.546605e+15	5.433508e+14	1.426748e+04	7.107335e+03	2.349959e+03	0	1.003311e-03
4.600000e+08	2.294002e+13	0.000000e+00	4.773871e-01	3.590952e+14	1.527125e+15	5.406044e+14	1.425487e+04	7.095526e+03	2.346055e+03	0	9.997723e-04
4.700000e+08	2.269944e+13	0.000000e+00	4.773871e-01	3.566038e+14	1.508213e+15	5.378777e+14	1.424235e+04	7.083977e+03	2.342236e+03	0	9.962651e-04
4.800000e+08	2.246262e+13	0.000000e+00	4.773871e-01	3.541504e+14	1.489845e+15	5.351706e+14	1.422992e+04	7.072679e+03	2.338500e+03	0	9.927884e-04
4.900000e+08	2.222946e+13	0.000000e+00	4.773871e-01	3.517338e+14	1.471997e+15	5.324828e+14	1.421758e+04	7.061622e+03	2.334844e+03	0	9.893414e-04
5.000000e+08	2.199986e+13	0.000000e+00	4.773871e-01	3.493531e+14	1.454646e+15	5.298142e+14	1.420532e+04	7.050798e+03	2.331266e+03	0	9.859235e-04
5.100000e+08	2.177374e+13	0.000000e+00	4.773871e-01	3.470075e+14	1.437771e+15	5.271647e+14	1.419314e+04	7.040199e+03	2.327761e+03	0	9.825339e-04
5.200000e+08	2.155099e+13	0.000000e+00	4.773871e-01	3.446961e+14	1.421354e+15	5.245342e+14	1.418104e+04	7.029818e+03	2.324329e+03	0	9.791720e-04
5.300000e+08	2.133155e+13	0.000000e+00	4.773871e-01	3.424180e+14	1.405373e+15	5.219223e+14	1.416902e+04	7.019647e+03	2.320966e+03	0	9.758372e-04
5.400000e+08	2.111533e+13	0.000000e+00	4.773871e-01	3.401724e+14	1.389813e+15	5.193291e+14	1.415709e+04	7.009679e+03	2.317670e+03	0	9.725288e-04
5.500000e+08	2.090224e+13	0.000000e+00	4.773871e-01	3.379585e+14	1.374655e+15	5.167544e+14	1.414523e+04	6.999907e+03	2.314439e+03	0	9.692463e-04
5.600000e+08	2.069222e+13	0.000000e+00	4.773871e-01	3.357756e+14	1.359885e+15	5.141979e+14	1.413345e+04	6.990325e+03	2.311271e+03	0	9.659891e-04
5.700000e+08	2.048518e+13	0.000000e+00	4.773871e-01	3.336228e+14	1.345485e+15	5.116596e+14	1.412174e+04	6.980927e+03	2.308164e+03	0	9.627566e-04
5.800000e+08	2.028107e+13	0.000000e+00	4.773871e-01	3.314996e+14	1.331444e+15	5.091393e+14	1.411011e+04	6.971707e+03	2.305115e+03	0	9.595482e-04
5.900000e+08	2.007980e+13	0.000000e+00	4.773871e-01	3.294052e+14	1.317745e+15	5.066368e+14	1.409855e+04	6.962659e+03	2.302123e+03	0	9.563636e-04
6.000000e+08	1.988132e+13	0.000000e+00	4.773871e-01	3.273390e+14	1.304377e+15	5.041521e+14	1.408707e+04	6.953777e+03	2.299187e+03	0	9.532020e-04
6.100000e+08	1.968556e+13	0.000000e+00	4.773871e-01	3.253003e+14	1.291327e+15	5.016850e+14	1.407565e+04	6.945058e+03	2.296304e+03	0	9.500631e-04
6.200000e+08	1.949245e+13	0.000000e+00	4.773871e-01	3.232885e+14	1.278584e+15	4.992353e+14	1.406431e+04	6.936495e+03	2.293473e+03	0	9.469463e-04
6.300000e+08	1.930195e+13	0.000000e+00	4.773871e-01	3.213029e+14	1.266136e+15	4.968029e+14	1.405304e+04	6.928083e+03	2.290692e+03	0	9.438513e-04
6.400000e+08	1.911398e+13	0.000000e+00	4.773871e-01	3.193431e+14	1.253972e+15	4.943876e+14	1.404184e+04	6.919820e+03	2.287959e+03	0	9.407774e-04
6.500000e+08	1.892849e+13	0.000000e+00	4.773871e-01	3.174084e+14	1.242082e+15	4.919893e+14	1.403070e+04	6.911698e+03	2.285274e+03	0	9.377244e-04
6.600000e+08	1.874543e+13	0.000000e+00	4.773871e-01	3.154984e+14	1.230457e+15	4.896080e+14	1.401964e+04	6.903716e+03	2.282635e+03	0	9.346917e-04
6.700000e+08	1.856475e+13	0.000000e+00	4.773871e-01	3.136123e+14	1.219087e+15	4.872433e+14	1.400864e+04	6.895868e+03	2.280040e+03	0	9.316789e-04
6.800000e+08	1.838639e+13	0.000000e+00	4.773871e-01	3.117499e+14	1.207964e+15	4.848953e+14	1.399770e+04	6.888151e+03	2.277488e+03	0	9.286856e-04
6.900000e+08	1.821031e+13	0.000000e+00	4.773871e-01	3.099105e+14	1.197078e+15	4.825638e+14	1.398683e+04	6.880560e+03	2.274978e+03	0	9.257115e-04
7.000000e+08	1.803646e+13	0.000000e+00	4.773871e-01	3.080937e+14	1.186423e+15	4.802486e+14	1.397603e+04	6.873093e+03	2.272509e+03	0	9.227561e-04
7.100000e+08	1.786478e+13	0.000000e+00	4.773871e-01	3.062990e+14	1.175990e+15	4.779496e+14	1.396528e+04	6.865745e+03	2.270080e+03	0	9.198191e-04
7.200000e+08	1.769524e+13	0.000000e+00	4.773871e-01	3.045259e+14	1.165772e+15	4.756666e+14	1.395460e+04	6.858514e+03	2.267689e+03	0	9.169001e-04
7.300000e+08	1.752779e+13	0.000000e+00	4.773871e-01	3.027741e+14	1.155762e+15	4.733997e+14	1.394398e+04	6.851396e+03	2.265336e+03	0	9.139988e-04
7.400000e+08	1.736239e+13	0.000000e+00	4.773871e-01	3.010431e+14	1.145953e+15	4.711485e+14	1.393343e+04	6.844387e+03	2.263018e+03	0	9.111147e-04
7.500000e+08	1.719900e+13	0.000000e+00	4.773871e-01	2.993324e+14	1.136338e+15	4.689131e+14	1.392293e+04	6.837486e+03	2.260737e+03	0	9.082476e-04
7.600000e+08	1.703757e+13	0.000000e+00	4.773871e-01	2.976417e+14	1.126912e+15	4.666932e+14	1.391249e+04	6.830689e+03	2.258489e+03	0	9.053971e-04
7.700000e+08	1.687807e+13	0.000000e+00	4.773871e-01	2.959706e+14	1.117669e+15	4.644888e+14	1.390211e+04	6.823993e+03	2.256275e+03	0	9.025629e-04
7.800000e+08	1.672046e+13	0.000000e+00	4.773871e-01	2.943187e+14	1.108603e+15	4.622997e+14	1.389179e+04	6.817396e+03	2.254094e+03	0	8.997447e-04
7.900000e+08	1.656471e+13	0.000000e+00	4.773871e-01	2.926856e+14	1.099708e+15	4.601258e+14	1.388153e+04	6.810895e+03	2.251944e+03	0	8.969422e-04
8.000000e+08	1.641077e+13	0.000000e+00	4.773871e-01	2.910710e+14	1.090980e+15	4.579669e+14	1.387132e+04	6.804487e+03	2.249826e+03	0	8.941551e-04
8.100000e+08	1.625862e+13	0.000000e+00	4.773871e-01	2.894745e+14	1.082412e+15	4.558231e+14	1.386117e+04	6.798170e+03	2.247737e+03	0	8.913831e-04
8.200000e+08	1.610821e+13	0.000000e+00	4.773871e-01	2.878958e+14	1.074002e+15	4.536940e+14	1.385108e+04	6.791942e+03	2.245678e+03	0	8.886259e-04
8.300000e+08	1.595952e+13	0.000000e+00	4.773871e-01	2.863346e+14	1.065743e+15	4.515797e+14	1.384104e+04	6.785801e+03	2.243647e+03	0	8.858833e-04
8.400000e+08	1.581252e+13	0.000000e+00	4.773871e-01	2.847905e+14	1.057631e+15	4.494800e+14	1.383105e+04	6.779743e+03	2.241645e+03	0	8.831549e-04
8.500000e+08	1.566716e+13	0.000000e+00	4.773871e-01	2.832632e+14	1.049663e+15	4.473948e+14	1.382112e+04	6.773768e+03	2.239669e+03	0	8.804405e-04
8.600000e+08	1.552343e+13	0.000000e+00	4.773871e-01	2.817524e+14	1.041833e+15	4.453239e+14	1.381124e+04	6.767873e+03	2.237720e+03	0	8.777398e-04
8.700000e+08	1.538130e+13	0.000000e+00	4.773871e-01	2.802578e+14	1.034139e+15	4.432673e+14	1.380142e+04	6.762056e+03	2.235796e+03	0	8.750527e-04
8.800000e+08	1.524072e+13	0.000000e+00	4.773871e-01	2.787791e+14	1.026576e+15	4.412249e+14	1.379164e+04	6.756315e+03	2.233898e+03	0	8.723787e-04
8.900000e+08	1.510169e+13	0.000000e+00	4.773871e-01	2.773161e+14	1.019141e+15	4.391965e+14	1.378192e+04	6.750648e+03	2.232025e+03	0	8.697178e-04
9.000000e+08	1.496416e+13	0.000000e+00	4.773871e-01	2.758685e+14	1.011829e+15	4.371820e+14	1.377225e+04	6.745054e+03	2.230175e+03	0	8.670696e-04
9.100000e+08	1.482811e+13	0.000000e+00	4.773871e-01	2.744360e+14	1.004639e+15	4.351813e+14	1.376263e+04	6.739531e+03	2.228349e+03	0	8.644340e-04
9.200000e+08	1.469353e+13	0.000000e+00	4.773871e-01	2.730183e+14	9.975657e+14	4.331943e+14	1.375306e+04	6.734076e+03	2.226545e+03	0	8.618107e-04
9.300000e+08	1.456037e+13	0.000000e+00	4.773871e-01	2.716152e+14	9.906069e+14	4.312209e+14	1.374354e+04	6.728690e+03	2.224764e+03	0	8.591994e-04
9.400000e+08	1.442862e+13	0.000000e+00	4.773871e-01	2.702264e+14	9.837594e+14	4.292610e+14	1.373406e+04	6.723369e+03	2.223005e+03	0	8.566001e-04
9.500000e+08	1.429825e+13	0.000000e+00	4.773871e-01	2.688518e+14	9.770202e+14	4.273145e+14	1.372464e+04	6.718112e+03	2.221267e+03	0	8.540124e-04
9.600000e+08	1.416924e+13	0.000000e+00	4.773871e-01	2.674910e+14	9.703865e+14	4.253812e+14	1.371526e+04	6.712918e+03	2.219550e+03	0	8.514361e-04
9.700000e+08	1.404157e+13	0.000000e+00	4.773871e-01	2.661438e+14	9.638557e+14	4.234612e+14	1.370593e+04	6.707786e+03	2.217853e+03	0	8.488711e-04
9.800000e+08	1.391521e+13	0.000000e+00	4.773871e-01	2.648100e+14	9.574250e+14	4.215541e+14	1.369665e+04	6.702714e+03	2.216176e+03	0	8.463171e-04
9.900000e+08	1.379014e+13	0.000000e+00	4.773871e-01	2.634895e+14	9.510920e+14	4.196601e+14	1.368742e+04	6.697701e+03	2.214518e+03	0	8.437740e-04
1.000000e+09	1.366635e+13	0.000000e+00	4.773871e-01	2.621819e+14	9.448541e+14	4.177789e+14	1.367823e+04	6.692745e+03	2.212879e+03	0	8.412415e-04
1.010000e+09	1.354380e+13	0.000000e+00	4.773871e-01	2.608871e+14	9.387091e+14	4.159104e+14	1.366908e+04	6.687845e+03	2.211259e+03	0	8.387195e-04
1.020000e+09	1.342249e+13	0.000000e+00	4.773871e-01	2.596048e+14	9.326546e+14	4.140547e+14	1.365998e+04	6.682999e+03	2.209657e+03	0	8.362078e-04
1.030000e+09	1.330238e+13	0.000000e+00	4.773871e-01	2.583349e+14	9.266884e+14	4.122114e+14	1.365093e+04	6.678208e+03	2.208073e+03	0	8.337062e-04
1.040000e+09	1.318347e+13	0.000000e+00	4.773871e-01	2.570772e+14	9.208084e+14	4.103807e+14	1.364192e+04	6.673469e+03	2.206506e+03	0	8.312145e-04
1.050000e+09	1.306573e+13	0.000000e+00	4.773871e-01	2.558314e+14	9.150125e+14	4.085623e+14	1.363295e+04	6.668782e+03	2.204956e+03	0	8.287326e-04
1.060000e+09	1.294914e+13	0.000000e+00	4.773871e-01	2.545974e+14	9.092987e+14	4.067561e+14	1.362403e+04	6.664144e+03	2.203423e+03	0	8.262602e-04
1.070000e+09	1.283369e+13	0.000000e+00	4.773871e-01	2.533751e+14	9.036651e+14	4.049621e+14	1.361515e+04	6.659556e+03	2.201906e+03	0	8.237973e-04
1.080000e+09	1.271935e+13	0.000000e+00	4.773871e-01	2.521642e+14	8.981098e+14	4.031802e+14	1.360631e+04	6.655017e+03	2.200405e+03	0	8.213436e-04
1.090000e+09	1.260612e+13	0.000000e+00	4.773871e-01	2.509645e+14	8.926310e+14	4.014103e+14	1.359751e+04	6.650524e+03	2.198920e+03	0	8.188990e-04
1.100000e+09	1.249397e+13	0.000000e+00	4.773871e-01	2.497760e+14	8.872269e+14	3.996523e+14	1.358876e+04	6.646078e+03	2.197450e+03	0	8.164633e-04
1.110000e+09	1.238289e+13	0.000000e+00	4.773871e-01	2.485983e+14	8.818958e+14	3.979060e+14	1.358005e+04	6.641676e+03	2.195994e+03	0	8.140365e-04
1.120000e+09	1.227286e+13	0.000000e+00	4.773871e-01	2.474314e+14	8.766362e+14	3.961715e+14	1.357138e+04	6.637320e+03	2.194554e+03	0	8.116182e-04
1.130000e+09	1.216386e+13	0.000000e+00	4.773871e-01	2.462752e+14	8.714463e+14	3.944485e+14	1.356275e+04	6.633006e+03	2.193128e+03	0	8.092084e-04
1.140000e+09	1.205589e+13	0.000000e+00	4.773871e-01	2.451293e+14	8.663246e+14	3.927371e+14	1.355416e+04	6.628735e+03	2.191716e+03	0	8.068069e-04
1.150000e+09	1.194892e+13	0.000000e+00	4.773871e-01	2.439938e+14	8.612697e+14	3.910371e+14	1.354560e+04	6.624506e+03	2.190317e+03	0	8.044136e-04
1.160000e+09	1.184294e+13	0.000000e+00	4.773871e-01	2.428684e+14	8.562801e+14	3.893484e+14	1.353709e+04	6.620318e+03	2.188932e+03	0	8.020284e-04
1.170000e+09	1.173794e+13	0.000000e+00	4.773871e-01	2.417530e+14	8.513543e+14	3.876710e+14	1.352862e+04	6.616170e+03	2.187561e+03	0	7.996510e-04
1.180000e+09	1.163390e+13	0.000000e+00	4.773871e-01	2.406475e+14	8.464911e+14	3.860048e+14	1.352019e+04	6.612061e+03	2.186202e+03	0	7.972814e-04
1.190000e+09	1.153080e+13	0.000000e+00	4.773871e-01	2.395516e+14	8.416890e+14	3.843496e+14	1.351179e+04	6.607991e+03	2.184857e+03	0	7.949193e-04
1.200000e+09	1.142865e+13	0.000000e+00	4.773871e-01	2.384654e+14	8.369468e+14	3.827054e+14	1.350344e+04	6.603958e+03	2.183523e+03	0	7.925648e-04
1.210000e+09	1.132741e+13	0.000000e+00	4.773871e-01	2.373886e+14	8.322632e+14	3.810722e+14	1.349512e+04	6.599963e+03	2.182202e+03	0	7.902176e-04
1.220000e+09	1.122708e+13	0.000000e+00	4.773871e-01	2.363211e+14	8.276370e+14	3.794497e+14	1.348684e+04	6.596004e+03	2.180893e+03	0	7.878777e-04
1.230000e+09	1.112764e+13	0.000000e+00	4.773871e-01	2.352628e+14	8.230671e+14	3.778380e+14	1.347860e+04	6.592081e+03	2.179596e+03	0	7.855448e-04
1.240000e+09	1.102909e+13	0.000000e+00	4.773871e-01	2.342136e+14	8.185522e+14	3.762369e+14	1.347039e+04	6.588192e+03	2.178310e+03	0	7.832189e-04
1.250000e+09	1.093141e+13	0.000000e+00	4.773871e-01	2.331733e+14	8.140914e+14	3.746464e+14	1.346222e+04	6.584338e+03	2.177036e+03	0	7.808998e-04
1.260000e+09	1.083459e+13	0.000000e+00	4.773871e-01	2.321418e+14	8.096834e+14	3.730664e+14	1.345408e+04	6.580518e+03	2.175773e+03	0	7.785874e-04
1.270000e+09	1.073861e+13	0.000000e+00	4.773871e-01	2.311190e+14	8.053272e+14	3.714968e+14	1.344599e+04	6.576731e+03	2.174521e+03	0	7.762816e-04
1.280000e+09	1.064348e+13	0.000000e+00	4.773871e-01	2.301048e+14	8.010219e+14	3.699375e+14	1.343792e+04	6.572976e+03	2.173279e+03	0	7.739823e-04
1.290000e+09	1.054916e+13	0.000000e+00	4.773871e-01	2.290990e+14	7.967663e+14	3.683884e+14	1.342990e+04	6.569254e+03	2.172049e+03	0	7.716893e-04
1.300000e+09	1.045566e+13	0.000000e+00	4.773871e-01	2.281016e+14	7.925597e+14	3.668496e+14	1.342190e+04	6.565562e+03	2.170828e+03	0	7.694026e-04
1.310000e+09	1.036296e+13	0.000000e+00	4.773871e-01	2.271124e+14	7.884009e+14	3.653208e+14	1.341395e+04	6.561902e+03	2.169618e+03	0	7.671220e-04
1.320000e+09	1.027105e+13	0.000000e+00	4.773871e-01	2.261314e+14	7.842891e+14	3.638020e+14	1.340602e+04	6.558271e+03	2.168417e+03	0	7.648473e-04
1.330000e+09	1.017992e+13	0.000000e+00	4.773871e-01	2.251584e+14	7.802234e+14	3.622932e+14	1.339814e+04	6.554671e+03	2.167227e+03	0	7.625786e-04
1.340000e+09	1.008956e+13	0.000000e+00	4.773871e-01	2.241933e+14	7.762030e+14	3.607942e+14	1.339028e+04	6.551100e+03	2.166046e+03	0	7.603157e-04
1.350000e+09	9.999962e+12	0.000000e+00	4.773871e-01	2.232361e+14	7.722269e+14	3.593050e+14	1.338246e+04	6.547557e+03	2.164875e+03	0	7.580584e-04
1.360000e+09	9.911116e+12	0.000000e+00	4.773871e-01	2.222865e+14	7.682944e+14	3.578255e+14	1.337467e+04	6.544043e+03	2.163713e+03	0	7.558067e-04
