#t		Qconv[W]	Ri[Rp]		R*[Rp]		Qc[W]		Qm[W]		Qr[W]		Tcmb[K]		Tl[K]		Tup[K]		RiFlag		Bs[T]
0.000000e+00	4.910115e+13	0.000000e+00	4.773869e-01	6.449030e+14	4.247116e+15	7.583019e+14	1.607775e+04	8.821228e+03	2.778250e+03	0	1.284955e-03
1.000000e+07	4.838638e+13	0.000000e+00	4.773869e-01	6.379950e+14	4.103956e+15	7.541004e+14	1.605813e+04	8.773316e+03	2.763160e+03	0	1.278689e-03
2.000000e+07	4.768814e+13	0.000000e+00	4.773869e-01	6.312439e+14	3.970301e+15	7.499302e+14	1.603871e+04	8.727603e+03	2.748763e+03	0	1.272509e-03
3.000000e+07	4.700605e+13	0.000000e+00	4.773869e-01	6.246463e+14	3.845277e+15	7.457913e+14	1.601950e+04	8.683934e+03	2.735009e+03	0	1.266413e-03
4.000000e+07	4.633975e+13	0.000000e+00	4.773869e-01	6.181985e+14	3.728111e+15	7.416832e+14	1.600049e+04	8.642171e+03	2.721856e+03	0	1.260400e-03
5.000000e+07	4.568882e+13	0.000000e+00	4.773869e-01	6.118966e+14	3.618115e+15	7.376058e+14	1.598168e+04	8.602187e+03	2.709263e+03	0	1.254471e-03
6.000000e+07	4.505284e+13	0.000000e+00	4.773869e-01	6.057366e+14	3.514677e+15	7.335588e+14	1.596305e+04	8.563866e+03	2.697194e+03	0	1.248623e-03
7.000000e+07	4.443137e+13	0.000000e+00	4.773869e-01	5.997146e+14	3.417251e+15	7.295419e+14	1.594461e+04	8.527104e+03	2.685616e+03	0	1.242855e-03
8.000000e+07	4.382399e+13	0.000000e+00	4.773869e-01	5.938262e+14	3.325347e+15	7.255549e+14	1.592636e+04	8.491803e+03	2.674498e+03	0	1.237166e-03
9.000000e+07	4.323027e+13	0.000000e+00	4.773869e-01	5.880677e+14	3.238526e+15	7.215975e+14	1.590829e+04	8.457875e+03	2.663812e+03	0	1.231554e-03
1.000000e+08	4.264978e+13	0.000000e+00	4.773869e-01	5.824348e+14	3.156392e+15	7.176695e+14	1.589039e+04	8.425239e+03	2.653533e+03	0	1.226016e-03
1.100000e+08	4.208211e+13	0.000000e+00	4.773869e-01	5.769237e+14	3.078589e+15	7.137707e+14	1.587266e+04	8.393818e+03	2.643637e+03	0	1.220552e-03
1.200000e+08	4.152684e+13	0.000000e+00	4.773869e-01	5.715305e+14	3.004794e+15	7.099007e+14	1.585509e+04	8.363544e+03	2.634102e+03	0	1.215160e-03
1.300000e+08	4.098359e+13	0.000000e+00	4.773869e-01	5.662514e+14	2.934714e+15	7.060594e+14	1.583770e+04	8.334353e+03	2.624908e+03	0	1.209838e-03
1.400000e+08	4.045196e+13	0.000000e+00	4.773869e-01	5.610829e+14	2.868085e+15	7.022466e+14	1.582046e+04	8.306184e+03	2.616037e+03	0	1.204584e-03
1.500000e+08	3.993159e+13	0.000000e+00	4.773869e-01	5.560214e+14	2.804664e+15	6.984619e+14	1.580338e+04	8.278984e+03	2.607470e+03	0	1.199397e-03
1.600000e+08	3.942210e+13	0.000000e+00	4.773869e-01	5.510635e+14	2.744232e+15	6.947052e+14	1.578645e+04	8.252700e+03	2.599192e+03	0	1.194274e-03
1.700000e+08	3.892316e+13	0.000000e+00	4.773869e-01	5.462058e+14	2.686588e+15	6.909762e+14	1.576967e+04	8.227286e+03	2.591188e+03	0	1.189214e-03
1.800000e+08	3.843442e+13	0.000000e+00	4.773869e-01	5.414452e+14	2.631547e+15	6.872747e+14	1.575304e+04	8.202697e+03	2.583443e+03	0	1.184215e-03
1.900000e+08	3.795555e+13	0.000000e+00	4.773869e-01	5.367785e+14	2.578941e+15	6.836005e+14	1.573656e+04	8.178891e+03	2.575946e+03	0	1.179277e-03
2.000000e+08	3.748625e+13	0.000000e+00	4.773869e-01	5.322030e+14	2.528615e+15	6.799533e+14	1.572022e+04	8.155831e+03	2.568683e+03	0	1.174396e-03
2.100000e+08	3.702622e+13	0.000000e+00	4.773869e-01	5.277156e+14	2.480426e+15	6.763329e+14	1.570401e+04	8.133479e+03	2.561643e+03	0	1.169572e-03
2.200000e+08	3.657516e+13	0.000000e+00	4.773869e-01	5.233137e+14	2.434245e+15	6.727391e+14	1.568794e+04	8.111802e+03	2.554816e+03	0	1.164804e-03
2.300000e+08	3.613279e+13	0.000000e+00	4.773869e-01	5.189946e+14	2.389950e+15	6.691717e+14	1.567201e+04	8.090769e+03	2.548191e+03	0	1.160089e-03
2.400000e+08	3.569885e+13	0.000000e+00	4.773869e-01	5.147557e+14	2.347429e+15	6.656304e+14	1.565621e+04	8.070349e+03	2.541760e+03	0	1.155426e-03
2.500000e+08	3.527307e+13	0.000000e+00	4.773869e-01	5.105947e+14	2.306580e+15	6.621151e+14	1.564053e+04	8.050515e+03	2.535514e+03	0	1.150814e-03
2.600000e+08	3.485522e+13	0.000000e+00	4.773869e-01	5.065092e+14	2.267306e+15	6.586255e+14	1.562499e+04	8.031240e+03	2.529443e+03	0	1.146251e-03
2.700000e+08	3.444505e+13	0.000000e+00	4.773869e-01	5.024969e+14	2.229519e+15	6.551614e+14	1.560956e+04	8.012501e+03	2.523541e+03	0	1.141737e-03
2.800000e+08	3.404233e+13	0.000000e+00	4.773869e-01	4.985557e+14	2.193137e+15	6.517226e+14	1.559426e+04	7.994273e+03	2.517800e+03	0	1.137270e-03
2.900000e+08	3.364684e+13	0.000000e+00	4.773869e-01	4.946835e+14	2.158083e+15	6.483089e+14	1.557908e+04	7.976534e+03	2.512213e+03	0	1.132849e-03
3.000000e+08	3.325838e+13	0.000000e+00	4.773869e-01	4.908783e+14	2.124286e+15	6.449201e+14	1.556401e+04	7.959264e+03	2.506774e+03	0	1.128472e-03
3.100000e+08	3.287673e+13	0.000000e+00	4.773869e-01	4.871381e+14	2.091680e+15	6.415560e+14	1.554906e+04	7.942444e+03	2.501477e+03	0	1.124139e-03
3.200000e+08	3.250170e+13	0.000000e+00	4.773869e-01	4.834611e+14	2.060204e+15	6.382163e+14	1.553423e+04	7.926055e+03	2.496315e+03	0	1.119849e-03
3.300000e+08	3.213310e+13	0.000000e+00	4.773869e-01	4.798455e+14	2.029798e+15	6.349010e+14	1.551951e+04	7.910079e+03	2.491283e+03	0	1.115599e-03
3.400000e+08	3.177076e+13	0.000000e+00	4.773869e-01	4.762897e+14	2.000410e+15	6.316097e+14	1.550489e+04	7.894500e+03	2.486377e+03	0	1.111390e-03
3.500000e+08	3.141449e+13	0.000000e+00	4.773869e-01	4.727919e+14	1.971989e+15	6.283423e+14	1.549039e+04	7.879302e+03	2.481590e+03	0	1.107220e-03
3.600000e+08	3.106414e+13	0.000000e+00	4.773869e-01	4.693506e+14	1.944487e+15	6.250986e+14	1.547599e+04	7.864470e+03	2.476919e+03	0	1.103089e-03
3.700000e+08	3.071953e+13	0.000000e+00	4.773869e-01	4.659642e+14	1.917861e+15	6.218784e+14	1.546169e+04	7.849990e+03	2.472358e+03	0	1.098994e-03
3.800000e+08	3.038052e+13	0.000000e+00	4.773869e-01	4.626313e+14	1.892068e+15	6.186814e+14	1.544750e+04	7.835850e+03	2.467905e+03	0	1.094937e-03
3.900000e+08	3.004694e+13	0.000000e+00	4.773869e-01	4.593504e+14	1.867071e+15	6.155076e+14	1.543341e+04	7.822035e+03	2.463554e+03	0	1.090915e-03
4.000000e+08	2.971867e+13	0.000000e+00	4.773869e-01	4.561202e+14	1.842831e+15	6.123567e+14	1.541942e+04	7.808534e+03	2.459302e+03	0	1.086927e-03
4.100000e+08	2.939556e+13	0.000000e+00	4.773869e-01	4.529394e+14	1.819314e+15	6.092286e+14	1.540553e+04	7.795335e+03	2.455145e+03	0	1.082974e-03
4.200000e+08	2.907747e+13	0.000000e+00	4.773869e-01	4.498066e+14	1.796489e+15	6.061229e+14	1.539173e+04	7.782428e+03	2.451080e+03	0	1.079053e-03
4.300000e+08	2.876427e+13	0.000000e+00	4.773869e-01	4.467207e+14	1.774323e+15	6.030397e+14	1.537803e+04	7.769802e+03	2.447103e+03	0	1.075165e-03
4.400000e+08	2.845585e+13	0.000000e+00	4.773869e-01	4.436805e+14	1.752790e+15	5.999786e+14	1.536443e+04	7.757447e+03	2.443212e+03	0	1.071308e-03
4.500000e+08	2.815208e+13	0.000000e+00	4.773869e-01	4.406849e+14	1.731860e+15	5.969395e+14	1.535091e+04	7.745353e+03	2.439403e+03	0	1.067483e-03
4.600000e+08	2.785285e+13	0.000000e+00	4.773869e-01	4.377327e+14	1.711509e+15	5.939223e+14	1.533749e+04	7.733512e+03	2.435673e+03	0	1.063687e-03
4.700000e+08	2.755804e+13	0.000000e+00	4.773869e-01	4.348229e+14	1.691712e+15	5.909267e+14	1.532416e+04	7.721914e+03	2.432021e+03	0	1.059921e-03
4.800000e+08	2.726754e+13	0.000000e+00	4.773869e-01	4.319544e+14	1.672446e+15	5.879525e+14	1.531091e+04	7.710552e+03	2.428442e+03	0	1.056183e-03
4.900000e+08	2.698126e+13	0.000000e+00	4.773869e-01	4.291263e+14	1.653690e+15	5.849997e+14	1.529775e+04	7.699418e+03	2.424935e+03	0	1.052474e-03
5.000000e+08	2.669908e+13	0.000000e+00	4.773869e-01	4.263376e+14	1.635422e+15	5.820679e+14	1.528468e+04	7.688504e+03	2.421498e+03	0	1.048792e-03
5.100000e+08	2.642091e+13	0.000000e+00	4.773869e-01	4.235874e+14	1.617623e+15	5.791571e+14	1.527169e+04	7.677802e+03	2.418128e+03	0	1.045137e-03
5.200000e+08	2.614667e+13	0.000000e+00	4.773869e-01	4.208747e+14	1.600276e+15	5.762671e+14	1.525879e+04	7.667307e+03	2.414822e+03	0	1.041508e-03
5.300000e+08	2.587625e+13	0.000000e+00	4.773869e-01	4.181988e+14	1.583361e+15	5.733977e+14	1.524597e+04	7.657010e+03	2.411579e+03	0	1.037905e-03
5.400000e+08	2.560957e+13	0.000000e+00	4.773869e-01	4.155588e+14	1.566863e+15	5.705487e+14	1.523323e+04	7.646907e+03	2.408397e+03	0	1.034327e-03
5.500000e+08	2.534654e+13	0.000000e+00	4.773869e-01	4.129538e+14	1.550765e+15	5.677200e+14	1.522057e+04	7.636991e+03	2.405274e+03	0	1.030774e-03
5.600000e+08	2.508708e+13	0.000000e+00	4.773869e-01	4.103832e+14	1.535053e+15	5.649114e+14	1.520799e+04	7.627255e+03	2.402208e+03	0	1.027245e-03
5.700000e+08	2.483111e+13	0.000000e+00	4.773869e-01	4.078460e+14	1.519712e+15	5.621227e+14	1.519549e+04	7.617695e+03	2.399197e+03	0	1.023739e-03
5.800000e+08	2.457855e+13	0.000000e+00	4.773869e-01	4.053417e+14	1.504728e+15	5.593539e+14	1.518306e+04	7.608305e+03	2.396239e+03	0	1.020257e-03
5.900000e+08	2.432933e+13	0.000000e+00	4.773869e-01	4.028694e+14	1.490089e+15	5.566046e+14	1.517071e+04	7.599080e+03	2.393334e+03	0	1.016796e-03
6.000000e+08	2.408338e+13	0.000000e+00	4.773869e-01	4.004285e+14	1.475782e+15	5.538748e+14	1.515844e+04	7.590015e+03	2.390479e+03	0	1.013359e-03
6.100000e+08	2.384062e+13	0.000000e+00	4.773869e-01	3.980184e+14	1.461796e+15	5.511644e+14	1.514624e+04	7.581105e+03	2.387673e+03	0	1.009942e-03
6.200000e+08	2.360099e+13	0.000000e+00	4.773869e-01	3.956383e+14	1.448119e+15	5.484731e+14	1.513412e+04	7.572346e+03	2.384914e+03	0	1.006547e-03
6.300000e+08	2.336442e+13	0.000000e+00	4.773869e-01	3.932876e+14	1.434740e+15	5.458007e+14	1.512206e+04	7.563733e+03	2.382201e+03	0	1.003173e-03
6.400000e+08	2.313084e+13	0.000000e+00	4.773869e-01	3.909658e+14	1.421649e+15	5.431473e+14	1.511008e+04	7.555262e+03	2.379533e+03	0	9.998184e-04
6.500000e+08	2.290020e+13	0.000000e+00	4.773869e-01	3.886722e+14	1.408836e+15	5.405125e+14	1.509817e+04	7.546928e+03	2.376909e+03	0	9.964842e-04
6.600000e+08	2.267243e+13	0.000000e+00	4.773869e-01	3.864063e+14	1.396293e+15	5.378963e+14	1.508633e+04	7.538729e+03	2.374326e+03	0	9.931694e-04
6.700000e+08	2.244748e+13	0.000000e+00	4.773869e-01	3.841675e+14	1.384009e+15	5.352984e+14	1.507455e+04	7.530660e+03	2.371785e+03	0	9.898738e-04
6.800000e+08	2.222528e+13	0.000000e+00	4.773869e-01	3.819552e+14	1.371977e+15	5.327188e+14	1.506285e+04	7.522718e+03	2.369284e+03	0	9.865968e-04
6.900000e+08	2.200579e+13	0.000000e+00	4.773869e-01	3.797690e+14	1.360189e+15	5.301573e+14	1.505121e+04	7.514899e+03	2.366821e+03	0	9.833382e-04
7.000000e+08	2.178894e+13	0.000000e+00	4.773869e-01	3.776083e+14	1.348636e+15	5.276138e+14	1.503964e+04	7.507199e+03	2.364396e+03	0	9.800976e-04
7.100000e+08	2.157469e+13	0.000000e+00	4.773869e-01	3.754726e+14	1.337310e+15	5.250880e+14	1.502814e+04	7.499616e+03	2.362008e+03	0	9.768746e-04
7.200000e+08	2.136299e+13	0.000000e+00	4.773869e-01	3.733615e+14	1.326206e+15	5.225799e+14	1.501669e+04	7.492147e+03	2.359655e+03	0	9.736689e-04
7.300000e+08	2.115378e+13	0.000000e+00	4.773869e-01	3.712744e+14	1.315316e+15	5.200894e+14	1.500532e+04	7.484787e+03	2.357337e+03	0	9.704801e-04
7.400000e+08	2.094702e+13	0.000000e+00	4.773869e-01	3.692110e+14	1.304633e+15	5.176162e+14	1.499401e+04	7.477535e+03	2.355053e+03	0	9.673078e-04
7.500000e+08	2.074266e+13	0.000000e+00	4.773869e-01	3.671708e+14	1.294151e+15	5.151603e+14	1.498276e+04	7.470388e+03	2.352802e+03	0	9.641519e-04
7.600000e+08	2.054066e+13	0.000000e+00	4.773869e-01	3.651532e+14	1.283863e+15	5.127215e+14	1.497157e+04	7.463342e+03	2.350583e+03	0	9.610119e-04
7.700000e+08	2.034097e+13	0.000000e+00	4.773869e-01	3.631581e+14	1.273765e+15	5.102996e+14	1.496044e+04	7.456396e+03	2.348396e+03	0	9.578875e-04
7.800000e+08	2.014355e+13	0.000000e+00	4.773869e-01	3.611848e+14	1.263851e+15	5.078946e+14	1.494938e+04	7.449546e+03	2.346238e+03	0	9.547785e-04
7.900000e+08	1.994836e+13	0.000000e+00	4.773869e-01	3.592330e+14	1.254114e+15	5.055063e+14	1.493837e+04	7.442791e+03	2.344111e+03	0	9.516845e-04
8.000000e+08	1.975535e+13	0.000000e+00	4.773869e-01	3.573024e+14	1.244550e+15	5.031346e+14	1.492742e+04	7.436127e+03	2.342012e+03	0	9.486053e-04
8.100000e+08	1.956449e+13	0.000000e+00	4.773869e-01	3.553925e+14	1.235155e+15	5.007792e+14	1.491654e+04	7.429553e+03	2.339941e+03	0	9.455405e-04
8.200000e+08	1.937574e+13	0.000000e+00	4.773869e-01	3.535030e+14	1.225922e+15	4.984402e+14	1.490571e+04	7.423067e+03	2.337898e+03	0	9.424900e-04
8.300000e+08	1.918906e+13	0.000000e+00	4.773869e-01	3.516335e+14	1.216848e+15	4.961174e+14	1.489493e+04	7.416665e+03	2.335882e+03	0	9.394533e-04
8.400000e+08	1.900442e+13	0.000000e+00	4.773869e-01	3.497837e+14	1.207928e+15	4.938106e+14	1.488422e+04	7.410347e+03	2.333892e+03	0	9.364303e-04
8.500000e+08	1.882177e+13	0.000000e+00	4.773869e-01	3.479532e+14	1.199158e+15	4.915197e+14	1.487356e+04	7.404110e+03	2.331928e+03	0	9.334207e-04
8.600000e+08	1.864108e+13	0.000000e+00	4.773869e-01	3.461417e+14	1.190534e+15	4.892446e+14	1.486296e+04	7.397952e+03	2.329988e+03	0	9.304243e-04
8.700000e+08	1.846233e+13	0.000000e+00	4.773869e-01	3.443489e+14	1.182052e+15	4.869852e+14	1.485241e+04	7.391871e+03	2.328073e+03	0	9.274407e-04
8.800000e+08	1.828547e+13	0.000000e+00	4.773869e-01	3.425744e+14	1.173707e+15	4.847413e+14	1.484192e+04	7.385866e+03	2.326182e+03	0	9.244697e-04
8.900000e+08	1.811048e+13	0.000000e+00	4.773869e-01	3.408180e+14	1.165497e+15	4.825128e+14	1.483148e+04	7.379934e+03	2.324314e+03	0	9.215112e-04
9.000000e+08	1.793732e+13	0.000000e+00	4.773869e-01	3.390794e+14	1.157418e+15	4.802997e+14	1.482109e+04	7.374075e+03	2.322468e+03	0	9.185648e-04
9.100000e+08	1.776596e+13	0.000000e+00	4.773869e-01	3.373582e+14	1.149466e+15	4.781017e+14	1.481076e+04	7.368285e+03	2.320645e+03	0	9.156304e-04
9.200000e+08	1.759638e+13	0.000000e+00	4.773869e-01	3.356541e+14	1.141638e+15	4.759187e+14	1.480048e+04	7.362565e+03	2.318843e+03	0	9.127077e-04
9.300000e+08	1.742853e+13	0.000000e+00	4.773869e-01	3.339670e+14	1.133931e+15	4.737507e+14	1.479025e+04	7.356911e+03	2.317063e+03	0	9.097965e-04
9.400000e+08	1.726241e+13	0.000000e+00	4.773869e-01	3.322965e+14	1.126341e+15	4.715975e+14	1.478007e+04	7.351324e+03	2.315303e+03	0	9.068965e-04
9.500000e+08	1.709796e+13	0.000000e+00	4.773869e-01	3.306423e+14	1.118867e+15	4.694590e+14	1.476994e+04	7.345800e+03	2.313563e+03	0	9.040076e-04
9.600000e+08	1.693518e+13	0.000000e+00	4.773869e-01	3.290042e+14	1.111504e+15	4.673351e+14	1.475987e+04	7.340339e+03	2.311843e+03	0	9.011296e-04
9.700000e+08	1.677403e+13	0.000000e+00	4.773869e-01	3.273820e+14	1.104251e+15	4.652256e+14	1.474984e+04	7.334940e+03	2.310143e+03	0	8.982622e-04
9.800000e+08	1.661449e+13	0.000000e+00	4.773869e-01	3.257753e+14	1.097104e+15	4.631305e+14	1.473986e+04	7.329600e+03	2.308461e+03	0	8.954052e-04
9.900000e+08	1.645652e+13	0.000000e+00	4.773869e-01	3.241840e+14	1.090061e+15	4.610497e+14	1.472993e+04	7.324320e+03	2.306798e+03	0	8.925584e-04
1.000000e+09	1.630012e+13	0.000000e+00	4.773869e-01	3.226078e+14	1.083120e+15	4.589829e+14	1.472005e+04	7.319096e+03	2.305153e+03	0	8.897217e-04
1.010000e+09	1.614524e+13	0.000000e+00	4.773869e-01	3.210464e+14	1.076278e+15	4.569302e+14	1.471022e+04	7.313929e+03	2.303526e+03	0	8.868949e-04
1.020000e+09	1.599187e+13	0.000000e+00	4.773869e-01	3.194998e+14	1.069532e+15	4.548914e+14	1.470044e+04	7.308817e+03	2.301916e+03	0	8.840777e-04
1.030000e+09	1.583999e+13	0.000000e+00	4.773869e-01	3.179675e+14	1.062881e+15	4.528664e+14	1.469070e+04	7.303759e+03	2.300323e+03	0	8.812700e-04
1.040000e+09	1.568957e+13	0.000000e+00	4.773869e-01	3.164494e+14	1.056321e+15	4.508550e+14	1.468101e+04	7.298754e+03	2.298746e+03	0	8.784715e-04
1.050000e+09	1.554060e+13	0.000000e+00	4.773869e-01	3.149454e+14	1.049852e+15	4.488573e+14	1.467136e+04	7.293801e+03	2.297186e+03	0	8.756822e-04
1.060000e+09	1.539304e+13	0.000000e+00	4.773869e-01	3.134551e+14	1.043471e+15	4.468730e+14	1.466176e+04	7.288898e+03	2.295642e+03	0	8.729018e-04
1.070000e+09	1.524687e+13	0.000000e+00	4.773869e-01	3.119784e+14	1.037176e+15	4.449021e+14	1.465221e+04	7.284044e+03	2.294113e+03	0	8.701302e-04
1.080000e+09	1.510209e+13	0.000000e+00	4.773869e-01	3.105151e+14	1.030966e+15	4.429444e+14	1.464270e+04	7.279239e+03	2.292600e+03	0	8.673671e-04
1.090000e+09	1.495866e+13	0.000000e+00	4.773869e-01	3.090650e+14	1.024837e+15	4.410000e+14	1.463324e+04	7.274482e+03	2.291102e+03	0	8.646124e-04
1.100000e+09	1.481656e+13	0.000000e+00	4.773869e-01	3.076279e+14	1.018789e+15	4.390685e+14	1.462382e+04	7.269772e+03	2.289618e+03	0	8.618660e-04
1.110000e+09	1.467578e+13	0.000000e+00	4.773869e-01	3.062036e+14	1.012819e+15	4.371501e+14	1.461444e+04	7.265107e+03	2.288149e+03	0	8.591277e-04
1.120000e+09	1.453630e+13	0.000000e+00	4.773869e-01	3.047919e+14	1.006926e+15	4.352444e+14	1.460511e+04	7.260487e+03	2.286694e+03	0	8.563973e-04
1.130000e+09	1.439810e+13	0.000000e+00	4.773869e-01	3.033927e+14	1.001109e+15	4.333516e+14	1.459582e+04	7.255910e+03	2.285253e+03	0	8.536747e-04
1.140000e+09	1.426116e+13	0.000000e+00	4.773869e-01	3.020058e+14	9.953655e+14	4.314713e+14	1.458657e+04	7.251377e+03	2.283825e+03	0	8.509596e-04
1.150000e+09	1.412546e+13	0.000000e+00	4.773869e-01	3.006310e+14	9.896939e+14	4.296037e+14	1.457737e+04	7.246887e+03	2.282410e+03	0	8.482520e-04
1.160000e+09	1.399099e+13	0.000000e+00	4.773869e-01	2.992681e+14	9.840930e+14	4.277485e+14	1.456820e+04	7.242437e+03	2.281009e+03	0	8.455516e-04
1.170000e+09	1.385773e+13	0.000000e+00	4.773869e-01	2.979169e+14	9.785613e+14	4.259056e+14	1.455908e+04	7.238029e+03	2.279621e+03	0	8.428584e-04
1.180000e+09	1.372566e+13	0.000000e+00	4.773869e-01	2.965774e+14	9.730972e+14	4.240750e+14	1.455000e+04	7.233660e+03	2.278245e+03	0	8.401722e-04
1.190000e+09	1.359476e+13	0.000000e+00	4.773869e-01	2.952493e+14	9.676995e+14	4.222566e+14	1.454096e+04	7.229331e+03	2.276881e+03	0	8.374929e-04
1.200000e+09	1.346502e+13	0.000000e+00	4.773869e-01	2.939326e+14	9.623668e+14	4.204503e+14	1.453196e+04	7.225039e+03	2.275530e+03	0	8.348202e-04
1.210000e+09	1.333642e+13	0.000000e+00	4.773869e-01	2.926269e+14	9.570977e+14	4.186559e+14	1.452300e+04	7.220786e+03	2.274190e+03	0	8.321540e-04
1.220000e+09	1.320895e+13	0.000000e+00	4.773869e-01	2.913323e+14	9.518911e+14	4.168734e+14	1.451408e+04	7.216570e+03	2.272862e+03	0	8.294942e-04
1.230000e+09	1.308259e+13	0.000000e+00	4.773869e-01	2.900485e+14	9.467456e+14	4.151028e+14	1.450520e+04	7.212390e+03	2.271546e+03	0	8.268407e-04
1.240000e+09	1.295733e+13	0.000000e+00	4.773869e-01	2.887754e+14	9.416601e+14	4.133438e+14	1.449636e+04	7.208245e+03	2.270240e+03	0	8.241934e-04
1.250000e+09	1.283315e+13	0.000000e+00	4.773869e-01	2.875129e+14	9.366333e+14	4.115964e+14	1.448756e+04	7.204136e+03	2.268946e+03	0	8.215519e-04
1.260000e+09	1.271003e+13	0.000000e+00	4.773869e-01	2.862608e+14	9.316643e+14	4.098606e+14	1.447879e+04	7.200061e+03	2.267663e+03	0	8.189164e-04
1.270000e+09	1.258798e+13	0.000000e+00	4.773869e-01	2.850190e+14	9.267517e+14	4.081362e+14	1.447007e+04	7.196020e+03	2.266390e+03	0	8.162865e-04
1.280000e+09	1.246696e+13	0.000000e+00	4.773869e-01	2.837874e+14	9.218947e+14	4.064231e+14	1.446138e+04	7.192013e+03	2.265128e+03	0	8.136622e-04
1.290000e+09	1.234696e+13	0.000000e+00	4.773869e-01	2.825657e+14	9.170921e+14	4.047213e+14	1.445273e+04	7.188038e+03	2.263876e+03	0	8.110433e-04
1.300000e+09	1.222798e+13	0.000000e+00	4.773869e-01	2.813540e+14	9.123429e+14	4.030306e+14	1.444412e+04	7.184095e+03	2.262634e+03	0	8.084297e-04
1.310000e+09	1.211000e+13	0.000000e+00	4.773869e-01	2.801520e+14	9.076461e+14	4.013511e+14	1.443554e+04	7.180183e+03	2.261402e+03	0	8.058213e-04
1.320000e+09	1.199301e+13	0.000000e+00	4.773869e-01	2.789597e+14	9.030007e+14	3.996825e+14	1.442700e+04	7.176303e+03	2.260180e+03	0	8.032179e-04
1.330000e+09	1.187699e+13	0.000000e+00	4.773869e-01	2.777769e+14	8.984058e+14	3.980249e+14	1.441850e+04	7.172453e+03	2.258968e+03	0	8.006194e-04
1.340000e+09	1.176193e+13	0.000000e+00	4.773869e-01	2.766035e+14	8.938606e+14	3.963781e+14	1.441003e+04	7.168633e+03	2.257764e+03	0	7.980257e-04
1.350000e+09	1.164782e+13	0.000000e+00	4.773869e-01	2.754394e+14	8.893640e+14	3.947420e+14	1.440160e+04	7.164842e+03	2.256571e+03	0	7.954366e-04
1.360000e+09	1.153465e+13	0.000000e+00	4.773869e-01	2.742845e+14	8.849152e+14	3.931166e+14	1.439320e+04	7.161081e+03	2.255386e+03	0	7.928520e-04
