#t		Qconv[W]	Ri[Rp]		R*[Rp]		Qc[W]		Qm[W]		Qr[W]		Tcmb[K]		Tl[K]		Tup[K]		RiFlag		Bs[T]
0.000000e+00	5.710682e+13	0.000000e+00	4.773870e-01	7.521676e+14	4.199812e+15	8.260602e+14	1.720002e+04	9.388919e+03	2.823655e+03	0	1.348363e-03
1.000000e+07	5.631806e+13	0.000000e+00	4.773870e-01	7.448549e+14	4.081296e+15	8.214832e+14	1.717983e+04	9.347597e+03	2.811228e+03	0	1.342126e-03
2.000000e+07	5.554604e+13	0.000000e+00	4.773870e-01	7.376941e+14	3.969582e+15	8.169404e+14	1.715984e+04	9.307938e+03	2.799301e+03	0	1.335965e-03
3.000000e+07	5.479035e+13	0.000000e+00	4.773870e-01	7.306816e+14	3.864124e+15	8.124316e+14	1.714004e+04	9.269840e+03	2.787843e+03	0	1.329879e-03
4.000000e+07	5.405058e+13	0.000000e+00	4.773870e-01	7.238134e+14	3.764429e+15	8.079565e+14	1.712043e+04	9.233209e+03	2.776827e+03	0	1.323867e-03
5.000000e+07	5.332628e+13	0.000000e+00	4.773870e-01	7.170858e+14	3.670055e+15	8.035147e+14	1.710101e+04	9.197959e+03	2.766225e+03	0	1.317927e-03
6.000000e+07	5.261705e+13	0.000000e+00	4.773870e-01	7.104948e+14	3.580600e+15	7.991061e+14	1.708176e+04	9.164010e+03	2.756015e+03	0	1.312058e-03
7.000000e+07	5.192244e+13	0.000000e+00	4.773870e-01	7.040367e+14	3.495702e+15	7.947303e+14	1.706269e+04	9.131289e+03	2.746175e+03	0	1.306259e-03
8.000000e+07	5.124205e+13	0.000000e+00	4.773870e-01	6.977077e+14	3.415032e+15	7.903870e+14	1.704380e+04	9.099727e+03	2.736683e+03	0	1.300528e-03
9.000000e+07	5.057547e+13	0.000000e+00	4.773870e-01	6.915041e+14	3.338291e+15	7.860760e+14	1.702507e+04	9.069261e+03	2.727520e+03	0	1.294864e-03
1.000000e+08	4.992228e+13	0.000000e+00	4.773870e-01	6.854222e+14	3.265208e+15	7.817970e+14	1.700651e+04	9.039833e+03	2.718670e+03	0	1.289265e-03
1.100000e+08	4.928210e+13	0.000000e+00	4.773870e-01	6.794585e+14	3.195532e+15	7.775498e+14	1.698811e+04	9.011388e+03	2.710115e+03	0	1.283731e-03
1.200000e+08	4.865455e+13	0.000000e+00	4.773870e-01	6.736096e+14	3.129038e+15	7.733341e+14	1.696987e+04	8.983876e+03	2.701841e+03	0	1.278258e-03
1.300000e+08	4.803924e+13	0.000000e+00	4.773870e-01	6.678719e+14	3.065517e+15	7.691495e+14	1.695179e+04	8.957249e+03	2.693833e+03	0	1.272847e-03
1.400000e+08	4.743583e+13	0.000000e+00	4.773870e-01	6.622424e+14	3.004779e+15	7.649960e+14	1.693386e+04	8.931464e+03	2.686079e+03	0	1.267495e-03
1.500000e+08	4.684395e+13	0.000000e+00	4.773870e-01	6.567178e+14	2.946648e+15	7.608731e+14	1.691608e+04	8.906479e+03	2.678565e+03	0	1.262201e-03
1.600000e+08	4.626327e+13	0.000000e+00	4.773870e-01	6.512951e+14	2.890963e+15	7.567807e+14	1.689845e+04	8.882256e+03	2.671280e+03	0	1.256964e-03
1.700000e+08	4.569347e+13	0.000000e+00	4.773870e-01	6.459712e+14	2.837575e+15	7.527185e+14	1.688097e+04	8.858758e+03	2.664213e+03	0	1.251782e-03
1.800000e+08	4.513421e+13	0.000000e+00	4.773870e-01	6.407434e+14	2.786347e+15	7.486863e+14	1.686363e+04	8.835952e+03	2.657354e+03	0	1.246655e-03
1.900000e+08	4.458521e+13	0.000000e+00	4.773870e-01	6.356089e+14	2.737153e+15	7.446837e+14	1.684642e+04	8.813807e+03	2.650694e+03	0	1.241579e-03
2.000000e+08	4.404615e+13	0.000000e+00	4.773870e-01	6.305650e+14	2.689875e+15	7.407106e+14	1.682936e+04	8.792291e+03	2.644223e+03	0	1.236555e-03
2.100000e+08	4.351676e+13	0.000000e+00	4.773870e-01	6.256091e+14	2.644405e+15	7.367667e+14	1.681243e+04	8.771377e+03	2.637934e+03	0	1.231581e-03
2.200000e+08	4.299676e+13	0.000000e+00	4.773870e-01	6.207387e+14	2.600641e+15	7.328518e+14	1.679563e+04	8.751040e+03	2.631817e+03	0	1.226656e-03
2.300000e+08	4.248589e+13	0.000000e+00	4.773870e-01	6.159515e+14	2.558490e+15	7.289656e+14	1.677897e+04	8.731253e+03	2.625866e+03	0	1.221778e-03
2.400000e+08	4.198388e+13	0.000000e+00	4.773870e-01	6.112451e+14	2.517865e+15	7.251079e+14	1.676243e+04	8.711993e+03	2.620074e+03	0	1.216947e-03
2.500000e+08	4.149050e+13	0.000000e+00	4.773870e-01	6.066173e+14	2.478684e+15	7.212785e+14	1.674602e+04	8.693239e+03	2.614434e+03	0	1.212161e-03
2.600000e+08	4.100549e+13	0.000000e+00	4.773870e-01	6.020659e+14	2.440873e+15	7.174771e+14	1.672973e+04	8.674968e+03	2.608939e+03	0	1.207419e-03
2.700000e+08	4.052864e+13	0.000000e+00	4.773870e-01	5.975889e+14	2.404360e+15	7.137035e+14	1.671356e+04	8.657163e+03	2.603584e+03	0	1.202721e-03
2.800000e+08	4.005973e+13	0.000000e+00	4.773870e-01	5.931842e+14	2.369080e+15	7.099574e+14	1.669752e+04	8.639802e+03	2.598363e+03	0	1.198064e-03
2.900000e+08	3.959853e+13	0.000000e+00	4.773870e-01	5.888500e+14	2.334971e+15	7.062387e+14	1.668159e+04	8.622870e+03	2.593271e+03	0	1.193449e-03
3.000000e+08	3.914484e+13	0.000000e+00	4.773870e-01	5.845844e+14	2.301975e+15	7.025471e+14	1.666578e+04	8.606349e+03	2.588303e+03	0	1.188874e-03
3.100000e+08	3.869847e+13	0.000000e+00	4.773870e-01	5.803855e+14	2.270038e+15	6.988824e+14	1.665008e+04	8.590223e+03	2.583453e+03	0	1.184337e-03
3.200000e+08	3.825922e+13	0.000000e+00	4.773870e-01	5.762516e+14	2.239110e+15	6.952443e+14	1.663450e+04	8.574477e+03	2.578717e+03	0	1.179839e-03
3.300000e+08	3.782690e+13	0.000000e+00	4.773870e-01	5.721812e+14	2.209142e+15	6.916327e+14	1.661902e+04	8.559097e+03	2.574092e+03	0	1.175379e-03
3.400000e+08	3.740134e+13	0.000000e+00	4.773870e-01	5.681724e+14	2.180091e+15	6.880473e+14	1.660366e+04	8.544068e+03	2.569572e+03	0	1.170954e-03
3.500000e+08	3.698237e+13	0.000000e+00	4.773870e-01	5.642239e+14	2.151914e+15	6.844880e+14	1.658840e+04	8.529378e+03	2.565154e+03	0	1.166565e-03
3.600000e+08	3.656982e+13	0.000000e+00	4.773870e-01	5.603340e+14	2.124572e+15	6.809544e+14	1.657325e+04	8.515015e+03	2.560834e+03	0	1.162211e-03
3.700000e+08	3.616352e+13	0.000000e+00	4.773870e-01	5.565014e+14	2.098027e+15	6.774464e+14	1.655820e+04	8.500967e+03	2.556610e+03	0	1.157891e-03
3.800000e+08	3.576333e+13	0.000000e+00	4.773870e-01	5.527246e+14	2.072245e+15	6.739639e+14	1.654325e+04	8.487222e+03	2.552476e+03	0	1.153604e-03
3.900000e+08	3.536909e+13	0.000000e+00	4.773870e-01	5.490022e+14	2.047192e+15	6.705064e+14	1.652841e+04	8.473770e+03	2.548430e+03	0	1.149350e-03
4.000000e+08	3.498065e+13	0.000000e+00	4.773870e-01	5.453331e+14	2.022836e+15	6.670740e+14	1.651367e+04	8.460600e+03	2.544470e+03	0	1.145127e-03
4.100000e+08	3.459789e+13	0.000000e+00	4.773870e-01	5.417158e+14	1.999149e+15	6.636663e+14	1.649902e+04	8.447704e+03	2.540591e+03	0	1.140934e-03
4.200000e+08	3.422066e+13	0.000000e+00	4.773870e-01	5.381491e+14	1.976103e+15	6.602832e+14	1.648447e+04	8.435070e+03	2.536792e+03	0	1.136773e-03
4.300000e+08	3.384883e+13	0.000000e+00	4.773870e-01	5.346320e+14	1.953670e+15	6.569244e+14	1.647002e+04	8.422692e+03	2.533069e+03	0	1.132640e-03
4.400000e+08	3.348227e+13	0.000000e+00	4.773870e-01	5.311631e+14	1.931827e+15	6.535898e+14	1.645566e+04	8.410559e+03	2.529420e+03	0	1.128537e-03
4.500000e+08	3.312087e+13	0.000000e+00	4.773870e-01	5.277415e+14	1.910548e+15	6.502792e+14	1.644139e+04	8.398665e+03	2.525843e+03	0	1.124462e-03
4.600000e+08	3.276450e+13	0.000000e+00	4.773870e-01	5.243660e+14	1.889813e+15	6.469923e+14	1.642722e+04	8.387001e+03	2.522335e+03	0	1.120414e-03
4.700000e+08	3.241305e+13	0.000000e+00	4.773870e-01	5.210357e+14	1.869599e+15	6.437291e+14	1.641314e+04	8.375559e+03	2.518894e+03	0	1.116394e-03
4.800000e+08	3.206641e+13	0.000000e+00	4.773870e-01	5.177494e+14	1.849887e+15	6.404891e+14	1.639914e+04	8.364333e+03	2.515518e+03	0	1.112400e-03
4.900000e+08	3.172447e+13	0.000000e+00	4.773870e-01	5.145063e+14	1.830656e+15	6.372724e+14	1.638523e+04	8.353316e+03	2.512205e+03	0	1.108432e-03
5.000000e+08	3.138712e+13	0.000000e+00	4.773870e-01	5.113053e+14	1.811890e+15	6.340787e+14	1.637142e+04	8.342501e+03	2.508952e+03	0	1.104489e-03
5.100000e+08	3.105427e+13	0.000000e+00	4.773870e-01	5.081456e+14	1.793570e+15	6.309078e+14	1.635768e+04	8.331883e+03	2.505759e+03	0	1.100571e-03
5.200000e+08	3.072582e+13	0.000000e+00	4.773870e-01	5.050263e+14	1.775679e+15	6.277596e+14	1.634403e+04	8.321454e+03	2.502622e+03	0	1.096677e-03
5.300000e+08	3.040167e+13	0.000000e+00	4.773870e-01	5.019464e+14	1.758204e+15	6.246337e+14	1.633047e+04	8.311209e+03	2.499541e+03	0	1.092807e-03
5.400000e+08	3.008173e+13	0.000000e+00	4.773870e-01	4.989053e+14	1.741127e+15	6.215302e+14	1.631698e+04	8.301142e+03	2.496514e+03	0	1.088960e-03
5.500000e+08	2.976591e+13	0.000000e+00	4.773870e-01	4.959020e+14	1.724436e+15	6.184487e+14	1.630358e+04	8.291249e+03	2.493538e+03	0	1.085135e-03
5.600000e+08	2.945413e+13	0.000000e+00	4.773870e-01	4.929359e+14	1.708116e+15	6.153892e+14	1.629026e+04	8.281524e+03	2.490614e+03	0	1.081333e-03
5.700000e+08	2.914630e+13	0.000000e+00	4.773870e-01	4.900060e+14	1.692155e+15	6.123513e+14	1.627702e+04	8.271962e+03	2.487738e+03	0	1.077553e-03
5.800000e+08	2.884233e+13	0.000000e+00	4.773870e-01	4.871117e+14	1.676539e+15	6.093351e+14	1.626386e+04	8.262559e+03	2.484910e+03	0	1.073794e-03
5.900000e+08	2.854216e+13	0.000000e+00	4.773870e-01	4.842523e+14	1.661258e+15	6.063402e+14	1.625077e+04	8.253310e+03	2.482128e+03	0	1.070056e-03
6.000000e+08	2.824570e+13	0.000000e+00	4.773870e-01	4.814270e+14	1.646300e+15	6.033665e+14	1.623777e+04	8.244209e+03	2.479391e+03	0	1.066338e-03
6.100000e+08	2.795288e+13	0.000000e+00	4.773870e-01	4.786353e+14	1.631654e+15	6.004138e+14	1.622483e+04	8.235255e+03	2.476698e+03	0	1.062640e-03
6.200000e+08	2.766362e+13	0.000000e+00	4.773870e-01	4.758764e+14	1.617310e+15	5.974820e+14	1.621198e+04	8.226441e+03	2.474048e+03	0	1.058962e-03
6.300000e+08	2.737786e+13	0.000000e+00	4.773870e-01	4.731496e+14	1.603258e+15	5.945709e+14	1.619919e+04	8.217765e+03	2.471438e+03	0	1.055303e-03
6.400000e+08	2.709552e+13	0.000000e+00	4.773870e-01	4.704544e+14	1.589489e+15	5.916803e+14	1.618648e+04	8.209222e+03	2.468869e+03	0	1.051663e-03
6.500000e+08	2.681655e+13	0.000000e+00	4.773870e-01	4.677902e+14	1.575993e+15	5.888101e+14	1.617384e+04	8.200809e+03	2.466339e+03	0	1.048042e-03
6.600000e+08	2.654088e+13	0.000000e+00	4.773870e-01	4.651564e+14	1.562762e+15	5.859601e+14	1.616128e+04	8.192522e+03	2.463847e+03	0	1.044438e-03
6.700000e+08	2.626843e+13	0.000000e+00	4.773870e-01	4.625523e+14	1.549788e+15	5.831301e+14	1.614878e+04	8.184358e+03	2.461392e+03	0	1.040852e-03
6.800000e+08	2.599916e+13	0.000000e+00	4.773870e-01	4.599775e+14	1.537062e+15	5.803200e+14	1.613635e+04	8.176314e+03	2.458972e+03	0	1.037283e-03
6.900000e+08	2.573300e+13	0.000000e+00	4.773870e-01	4.574314e+14	1.524577e+15	5.775296e+14	1.612400e+04	8.168386e+03	2.456588e+03	0	1.033731e-03
7.000000e+08	2.546989e+13	0.000000e+00	4.773870e-01	4.549135e+14	1.512326e+15	5.747588e+14	1.611171e+04	8.160572e+03	2.454238e+03	0	1.030196e-03
7.100000e+08	2.520978e+13	0.000000e+00	4.773870e-01	4.524233e+14	1.500301e+15	5.720074e+14	1.609949e+04	8.152868e+03	2.451921e+03	0	1.026677e-03
7.200000e+08	2.495262e+13	0.000000e+00	4.773870e-01	4.499602e+14	1.488497e+15	5.692752e+14	1.608733e+04	8.145272e+03	2.449637e+03	0	1.023174e-03
7.300000e+08	2.469834e+13	0.000000e+00	4.773870e-01	4.475237e+14	1.476905e+15	5.665621e+14	1.607524e+04	8.137781e+03	2.447384e+03	0	1.019687e-03
7.400000e+08	2.444690e+13	0.000000e+00	4.773870e-01	4.451135e+14	1.465521e+15	5.638679e+14	1.606322e+04	8.130393e+03	2.445162e+03	0	1.016215e-03
7.500000e+08	2.419825e+13	0.000000e+00	4.773870e-01	4.427290e+14	1.454338e+15	5.611926e+14	1.605126e+04	8.123104e+03	2.442970e+03	0	1.012758e-03
7.600000e+08	2.395233e+13	0.000000e+00	4.773870e-01	4.403698e+14	1.443351e+15	5.585358e+14	1.603937e+04	8.115912e+03	2.440807e+03	0	1.009315e-03
7.700000e+08	2.370910e+13	0.000000e+00	4.773870e-01	4.380355e+14	1.432553e+15	5.558976e+14	1.602753e+04	8.108815e+03	2.438672e+03	0	1.005887e-03
7.800000e+08	2.346851e+13	0.000000e+00	4.773870e-01	4.357256e+14	1.421940e+15	5.532777e+14	1.601576e+04	8.101811e+03	2.436566e+03	0	1.002473e-03
7.900000e+08	2.323052e+13	0.000000e+00	4.773870e-01	4.334396e+14	1.411506e+15	5.506759e+14	1.600406e+04	8.094897e+03	2.434487e+03	0	9.990729e-04
8.000000e+08	2.299508e+13	0.000000e+00	4.773870e-01	4.311773e+14	1.401247e+15	5.480923e+14	1.599241e+04	8.088071e+03	2.432434e+03	0	9.956862e-04
8.100000e+08	2.276215e+13	0.000000e+00	4.773870e-01	4.289382e+14	1.391157e+15	5.455265e+14	1.598083e+04	8.081331e+03	2.430407e+03	0	9.923128e-04
8.200000e+08	2.253168e+13	0.000000e+00	4.773870e-01	4.267218e+14	1.381233e+15	5.429785e+14	1.596930e+04	8.074675e+03	2.428405e+03	0	9.889524e-04
8.300000e+08	2.230364e+13	0.000000e+00	4.773870e-01	4.245279e+14	1.371469e+15	5.404481e+14	1.595784e+04	8.068101e+03	2.426428e+03	0	9.856046e-04
8.400000e+08	2.207798e+13	0.000000e+00	4.773870e-01	4.223561e+14	1.361862e+15	5.379352e+14	1.594643e+04	8.061607e+03	2.424475e+03	0	9.822693e-04
8.500000e+08	2.185466e+13	0.000000e+00	4.773870e-01	4.202060e+14	1.352407e+15	5.354396e+14	1.593508e+04	8.055191e+03	2.422545e+03	0	9.789462e-04
8.600000e+08	2.163364e+13	0.000000e+00	4.773870e-01	4.180772e+14	1.343101e+15	5.329612e+14	1.592379e+04	8.048852e+03	2.420639e+03	0	9.756351e-04
8.700000e+08	2.141490e+13	0.000000e+00	4.773870e-01	4.159694e+14	1.333939e+15	5.304999e+14	1.591256e+04	8.042588e+03	2.418755e+03	0	9.723356e-04
8.800000e+08	2.119838e+13	0.000000e+00	4.773870e-01	4.138823e+14	1.324918e+15	5.280555e+14	1.590138e+04	8.036396e+03	2.416893e+03	0	9.690475e-04
8.900000e+08	2.098406e+13	0.000000e+00	4.773870e-01	4.118155e+14	1.316035e+15	5.256279e+14	1.589026e+04	8.030276e+03	2.415052e+03	0	9.657707e-04
9.000000e+08	2.077190e+13	0.000000e+00	4.773870e-01	4.097688e+14	1.307285e+15	5.232170e+14	1.587919e+04	8.024226e+03	2.413233e+03	0	9.625048e-04
9.100000e+08	2.056186e+13	0.000000e+00	4.773870e-01	4.077417e+14	1.298666e+15	5.208226e+14	1.586818e+04	8.018244e+03	2.411434e+03	0	9.592496e-04
9.200000e+08	2.035391e+13	0.000000e+00	4.773870e-01	4.057341e+14	1.290174e+15	5.184445e+14	1.585723e+04	8.012328e+03	2.409655e+03	0	9.560049e-04
9.300000e+08	2.014802e+13	0.000000e+00	4.773870e-01	4.037455e+14	1.281806e+15	5.160828e+14	1.584633e+04	8.006478e+03	2.407895e+03	0	9.527705e-04
9.400000e+08	1.994416e+13	0.000000e+00	4.773870e-01	4.017758e+14	1.273560e+15	5.137372e+14	1.583548e+04	8.000692e+03	2.406155e+03	0	9.495462e-04
9.500000e+08	1.974230e+13	0.000000e+00	4.773870e-01	3.998246e+14	1.265432e+15	5.114076e+14	1.582468e+04	7.994969e+03	2.404434e+03	0	9.463317e-04
9.600000e+08	1.954239e+13	0.000000e+00	4.773870e-01	3.978917e+14	1.257419e+15	5.090939e+14	1.581394e+04	7.989306e+03	2.402731e+03	0	9.431268e-04
9.700000e+08	1.934443e+13	0.000000e+00	4.773870e-01	3.959767e+14	1.249519e+15	5.067960e+14	1.580324e+04	7.983704e+03	2.401046e+03	0	9.399313e-04
9.800000e+08	1.914837e+13	0.000000e+00	4.773870e-01	3.940794e+14	1.241730e+15	5.045136e+14	1.579260e+04	7.978160e+03	2.399379e+03	0	9.367451e-04
9.900000e+08	1.895418e+13	0.000000e+00	4.773870e-01	3.921995e+14	1.234048e+15	5.022468e+14	1.578201e+04	7.972674e+03	2.397729e+03	0	9.335678e-04
1.000000e+09	1.876184e+13	0.000000e+00	4.773870e-01	3.903368e+14	1.226471e+15	4.999954e+14	1.577147e+04	7.967244e+03	2.396096e+03	0	9.303992e-04
1.010000e+09	1.857133e+13	0.000000e+00	4.773870e-01	3.884911e+14	1.218997e+15	4.977593e+14	1.576099e+04	7.961869e+03	2.394479e+03	0	9.272393e-04
1.020000e+09	1.838261e+13	0.000000e+00	4.773870e-01	3.866621e+14	1.211623e+15	4.955383e+14	1.575055e+04	7.956548e+03	2.392879e+03	0	9.240877e-04
1.030000e+09	1.819565e+13	0.000000e+00	4.773870e-01	3.848494e+14	1.204348e+15	4.933323e+14	1.574015e+04	7.951279e+03	2.391295e+03	0	9.209444e-04
1.040000e+09	1.801044e+13	0.000000e+00	4.773870e-01	3.830531e+14	1.197168e+15	4.911413e+14	1.572981e+04	7.946063e+03	2.389726e+03	0	9.178090e-04
1.050000e+09	1.782695e+13	0.000000e+00	4.773870e-01	3.812726e+14	1.190083e+15	4.889650e+14	1.571952e+04	7.940898e+03	2.388172e+03	0	9.146814e-04
1.060000e+09	1.764515e+13	0.000000e+00	4.773870e-01	3.795080e+14	1.183089e+15	4.868034e+14	1.570927e+04	7.935782e+03	2.386634e+03	0	9.115614e-04
1.070000e+09	1.746501e+13	0.000000e+00	4.773870e-01	3.777588e+14	1.176185e+15	4.846564e+14	1.569907e+04	7.930715e+03	2.385110e+03	0	9.084489e-04
1.080000e+09	1.728652e+13	0.000000e+00	4.773870e-01	3.760250e+14	1.169370e+15	4.825239e+14	1.568892e+04	7.925696e+03	2.383601e+03	0	9.053435e-04
1.090000e+09	1.710966e+13	0.000000e+00	4.773870e-01	3.743063e+14	1.162640e+15	4.804056e+14	1.567882e+04	7.920724e+03	2.382105e+03	0	9.022452e-04
1.100000e+09	1.693439e+13	0.000000e+00	4.773870e-01	3.726025e+14	1.155995e+15	4.783016e+14	1.566876e+04	7.915798e+03	2.380624e+03	0	8.991538e-04
1.110000e+09	1.676069e+13	0.000000e+00	4.773870e-01	3.709133e+14	1.149432e+15	4.762117e+14	1.565874e+04	7.910917e+03	2.379156e+03	0	8.960691e-04
1.120000e+09	1.658855e+13	0.000000e+00	4.773870e-01	3.692387e+14	1.142950e+15	4.741358e+14	1.564878e+04	7.906081e+03	2.377702e+03	0	8.929909e-04
1.130000e+09	1.641795e+13	0.000000e+00	4.773870e-01	3.675783e+14	1.136547e+15	4.720738e+14	1.563885e+04	7.901288e+03	2.376260e+03	0	8.899190e-04
1.140000e+09	1.624885e+13	0.000000e+00	4.773870e-01	3.659321e+14	1.130221e+15	4.700256e+14	1.562897e+04	7.896538e+03	2.374831e+03	0	8.868532e-04
1.150000e+09	1.608125e+13	0.000000e+00	4.773870e-01	3.642997e+14	1.123972e+15	4.679910e+14	1.561914e+04	7.891829e+03	2.373415e+03	0	8.837934e-04
1.160000e+09	1.591512e+13	0.000000e+00	4.773870e-01	3.626811e+14	1.117797e+15	4.659700e+14	1.560935e+04	7.887162e+03	2.372012e+03	0	8.807395e-04
1.170000e+09	1.575044e+13	0.000000e+00	4.773870e-01	3.610760e+14	1.111695e+15	4.639625e+14	1.559960e+04	7.882535e+03	2.370620e+03	0	8.776911e-04
1.180000e+09	1.558719e+13	0.000000e+00	4.773870e-01	3.594843e+14	1.105664e+15	4.619684e+14	1.558990e+04	7.877948e+03	2.369241e+03	0	8.746482e-04
1.190000e+09	1.542535e+13	0.000000e+00	4.773870e-01	3.579058e+14	1.099704e+15	4.599875e+14	1.558024e+04	7.873400e+03	2.367873e+03	0	8.716107e-04
1.200000e+09	1.526491e+13	0.000000e+00	4.773870e-01	3.563403e+14	1.093812e+15	4.580197e+14	1.557062e+04	7.868890e+03	2.366517e+03	0	8.685782e-04
1.210000e+09	1.510584e+13	0.000000e+00	4.773870e-01	3.547876e+14	1.087988e+15	4.560650e+14	1.556104e+04	7.864418e+03	2.365172e+03	0	8.655507e-04
1.220000e+09	1.494813e+13	0.000000e+00	4.773870e-01	3.532477e+14	1.082230e+15	4.541233e+14	1.555150e+04	7.859982e+03	2.363838e+03	0	8.625279e-04
1.230000e+09	1.479177e+13	0.000000e+00	4.773870e-01	3.517202e+14	1.076537e+15	4.521944e+14	1.554201e+04	7.855583e+03	2.362515e+03	0	8.595098e-04
1.240000e+09	1.463672e+13	0.000000e+00	4.773870e-01	3.502052e+14	1.070907e+15	4.502782e+14	1.553256e+04	7.851219e+03	2.361202e+03	0	8.564962e-04
1.250000e+09	1.448298e+13	0.000000e+00	4.773870e-01	3.487023e+14	1.065340e+15	4.483747e+14	1.552315e+04	7.846891e+03	2.359900e+03	0	8.534868e-04
1.260000e+09	1.433053e+13	0.000000e+00	4.773870e-01	3.472115e+14	1.059835e+15	4.464838e+14	1.551377e+04	7.842596e+03	2.358609e+03	0	8.504816e-04
1.270000e+09	1.417935e+13	0.000000e+00	4.773870e-01	3.457326e+14	1.054389e+15	4.446053e+14	1.550444e+04	7.838336e+03	2.357328e+03	0	8.474803e-04
1.280000e+09	1.402943e+13	0.000000e+00	4.773870e-01	3.442654e+14	1.049003e+15	4.427391e+14	1.549515e+04	7.834109e+03	2.356056e+03	0	8.444828e-04
1.290000e+09	1.388075e+13	0.000000e+00	4.773870e-01	3.428099e+14	1.043675e+15	4.408852e+14	1.548590e+04	7.829915e+03	2.354795e+03	0	8.414890e-04
1.300000e+09	1.373329e+13	0.000000e+00	4.773870e-01	3.413658e+14	1.038403e+15	4.390435e+14	1.547668e+04	7.825753e+03	2.353543e+03	0	8.384987e-04
1.310000e+09	1.358705e+13	0.000000e+00	4.773870e-01	3.399331e+14	1.033188e+15	4.372139e+14	1.546751e+04	7.821622e+03	2.352301e+03	0	8.355116e-04
1.320000e+09	1.344199e+13	0.000000e+00	4.773870e-01	3.385115e+14	1.028027e+15	4.353962e+14	1.545837e+04	7.817523e+03	2.351068e+03	0	8.325278e-04
1.330000e+09	1.329812e+13	0.000000e+00	4.773870e-01	3.371010e+14	1.022921e+15	4.335905e+14	1.544927e+04	7.813454e+03	2.349845e+03	0	8.295469e-04
1.340000e+09	1.315542e+13	0.000000e+00	4.773870e-01	3.357014e+14	1.017868e+15	4.317965e+14	1.544021e+04	7.809416e+03	2.348630e+03	0	8.265689e-04
1.350000e+09	1.301386e+13	0.000000e+00	4.773870e-01	3.343126e+14	1.012867e+15	4.300142e+14	1.543119e+04	7.805407e+03	2.347424e+03	0	8.235935e-04
1.360000e+09	1.287345e+13	0.000000e+00	4.773870e-01	3.329345e+14	1.007917e+15	4.282436e+14	1.542220e+04	7.801427e+03	2.346228e+03	0	8.206206e-04
