#t		Qconv[W]	Ri[Rp]		R*[Rp]		Qc[W]		Qm[W]		Qr[W]		Tcmb[K]		Tl[K]		Tup[K]		RiFlag		Bs[T]
0.000000e+00	6.418194e+13	0.000000e+00	4.773870e-01	8.545886e+14	4.177309e+15	8.953482e+14	1.815397e+04	9.876915e+03	2.861375e+03	0	1.396327e-03
1.000000e+07	6.332812e+13	0.000000e+00	4.773870e-01	8.469823e+14	4.077421e+15	8.903873e+14	1.813352e+04	9.841176e+03	2.851021e+03	0	1.390108e-03
2.000000e+07	6.249091e+13	0.000000e+00	4.773870e-01	8.395204e+14	3.982535e+15	8.854635e+14	1.811326e+04	9.806711e+03	2.841036e+03	0	1.383955e-03
3.000000e+07	6.166990e+13	0.000000e+00	4.773870e-01	8.321993e+14	3.892295e+15	8.805766e+14	1.809317e+04	9.773450e+03	2.831400e+03	0	1.377867e-03
4.000000e+07	6.086468e+13	0.000000e+00	4.773870e-01	8.250152e+14	3.806379e+15	8.757260e+14	1.807326e+04	9.741328e+03	2.822095e+03	0	1.371844e-03
5.000000e+07	6.007481e+13	0.000000e+00	4.773870e-01	8.179647e+14	3.724492e+15	8.709117e+14	1.805352e+04	9.710286e+03	2.813102e+03	0	1.365884e-03
6.000000e+07	5.929990e+13	0.000000e+00	4.773870e-01	8.110441e+14	3.646362e+15	8.661333e+14	1.803395e+04	9.680267e+03	2.804405e+03	0	1.359985e-03
7.000000e+07	5.853954e+13	0.000000e+00	4.773870e-01	8.042500e+14	3.571745e+15	8.613904e+14	1.801454e+04	9.651220e+03	2.795990e+03	0	1.354148e-03
8.000000e+07	5.779333e+13	0.000000e+00	4.773870e-01	7.975790e+14	3.500412e+15	8.566829e+14	1.799529e+04	9.623095e+03	2.787842e+03	0	1.348369e-03
9.000000e+07	5.706088e+13	0.000000e+00	4.773870e-01	7.910277e+14	3.432158e+15	8.520103e+14	1.797621e+04	9.595847e+03	2.779948e+03	0	1.342649e-03
1.000000e+08	5.634183e+13	0.000000e+00	4.773870e-01	7.845930e+14	3.366789e+15	8.473724e+14	1.795728e+04	9.569435e+03	2.772297e+03	0	1.336985e-03
1.100000e+08	5.563581e+13	0.000000e+00	4.773870e-01	7.782716e+14	3.304131e+15	8.427689e+14	1.793850e+04	9.543818e+03	2.764875e+03	0	1.331377e-03
1.200000e+08	5.494245e+13	0.000000e+00	4.773870e-01	7.720604e+14	3.244021e+15	8.381996e+14	1.791988e+04	9.518958e+03	2.757673e+03	0	1.325823e-03
1.300000e+08	5.426141e+13	0.000000e+00	4.773870e-01	7.659565e+14	3.186308e+15	8.336641e+14	1.790140e+04	9.494822e+03	2.750681e+03	0	1.320322e-03
1.400000e+08	5.359236e+13	0.000000e+00	4.773870e-01	7.599570e+14	3.130854e+15	8.291621e+14	1.788307e+04	9.471376e+03	2.743889e+03	0	1.314873e-03
1.500000e+08	5.293497e+13	0.000000e+00	4.773870e-01	7.540590e+14	3.077530e+15	8.246935e+14	1.786489e+04	9.448589e+03	2.737287e+03	0	1.309475e-03
1.600000e+08	5.228893e+13	0.000000e+00	4.773870e-01	7.482599e+14	3.026216e+15	8.202578e+14	1.784684e+04	9.426432e+03	2.730868e+03	0	1.304126e-03
1.700000e+08	5.165392e+13	0.000000e+00	4.773870e-01	7.425570e+14	2.976803e+15	8.158549e+14	1.782893e+04	9.404878e+03	2.724624e+03	0	1.298825e-03
1.800000e+08	5.102966e+13	0.000000e+00	4.773870e-01	7.369477e+14	2.929186e+15	8.114844e+14	1.781116e+04	9.383901e+03	2.718547e+03	0	1.293572e-03
1.900000e+08	5.041585e+13	0.000000e+00	4.773870e-01	7.314296e+14	2.883271e+15	8.071461e+14	1.779352e+04	9.363477e+03	2.712630e+03	0	1.288364e-03
2.000000e+08	4.981223e+13	0.000000e+00	4.773870e-01	7.260003e+14	2.838966e+15	8.028398e+14	1.777601e+04	9.343582e+03	2.706866e+03	0	1.283202e-03
2.100000e+08	4.921852e+13	0.000000e+00	4.773870e-01	7.206575e+14	2.796191e+15	7.985651e+14	1.775864e+04	9.324195e+03	2.701250e+03	0	1.278083e-03
2.200000e+08	4.863446e+13	0.000000e+00	4.773870e-01	7.153989e+14	2.754865e+15	7.943218e+14	1.774139e+04	9.305295e+03	2.695775e+03	0	1.273007e-03
2.300000e+08	4.805981e+13	0.000000e+00	4.773870e-01	7.102224e+14	2.714917e+15	7.901096e+14	1.772427e+04	9.286863e+03	2.690435e+03	0	1.267974e-03
2.400000e+08	4.749432e+13	0.000000e+00	4.773870e-01	7.051259e+14	2.676278e+15	7.859284e+14	1.770727e+04	9.268881e+03	2.685225e+03	0	1.262981e-03
2.500000e+08	4.693775e+13	0.000000e+00	4.773870e-01	7.001073e+14	2.638885e+15	7.817777e+14	1.769039e+04	9.251330e+03	2.680141e+03	0	1.258028e-03
2.600000e+08	4.638989e+13	0.000000e+00	4.773870e-01	6.951648e+14	2.602677e+15	7.776574e+14	1.767363e+04	9.234194e+03	2.675176e+03	0	1.253114e-03
2.700000e+08	4.585051e+13	0.000000e+00	4.773870e-01	6.902963e+14	2.567600e+15	7.735673e+14	1.765699e+04	9.217458e+03	2.670328e+03	0	1.248239e-03
2.800000e+08	4.531941e+13	0.000000e+00	4.773870e-01	6.855002e+14	2.533599e+15	7.695070e+14	1.764047e+04	9.201106e+03	2.665591e+03	0	1.243400e-03
2.900000e+08	4.479637e+13	0.000000e+00	4.773870e-01	6.807746e+14	2.500625e+15	7.654764e+14	1.762406e+04	9.185125e+03	2.660961e+03	0	1.238598e-03
3.000000e+08	4.428120e+13	0.000000e+00	4.773870e-01	6.761178e+14	2.468632e+15	7.614751e+14	1.760776e+04	9.169499e+03	2.656434e+03	0	1.233832e-03
3.100000e+08	4.377370e+13	0.000000e+00	4.773870e-01	6.715282e+14	2.437575e+15	7.575030e+14	1.759158e+04	9.154218e+03	2.652007e+03	0	1.229100e-03
3.200000e+08	4.327370e+13	0.000000e+00	4.773870e-01	6.670042e+14	2.407414e+15	7.535598e+14	1.757550e+04	9.139267e+03	2.647676e+03	0	1.224403e-03
3.300000e+08	4.278102e+13	0.000000e+00	4.773870e-01	6.625441e+14	2.378110e+15	7.496453e+14	1.755953e+04	9.124636e+03	2.643437e+03	0	1.219738e-03
3.400000e+08	4.229548e+13	0.000000e+00	4.773870e-01	6.581466e+14	2.349624e+15	7.457592e+14	1.754367e+04	9.110314e+03	2.639288e+03	0	1.215106e-03
3.500000e+08	4.181691e+13	0.000000e+00	4.773870e-01	6.538102e+14	2.321924e+15	7.419013e+14	1.752792e+04	9.096289e+03	2.635225e+03	0	1.210506e-03
3.600000e+08	4.134515e+13	0.000000e+00	4.773870e-01	6.495334e+14	2.294975e+15	7.380713e+14	1.751226e+04	9.082552e+03	2.631245e+03	0	1.205936e-03
3.700000e+08	4.088004e+13	0.000000e+00	4.773870e-01	6.453149e+14	2.268746e+15	7.342691e+14	1.749671e+04	9.069092e+03	2.627346e+03	0	1.201397e-03
3.800000e+08	4.042144e+13	0.000000e+00	4.773870e-01	6.411534e+14	2.243209e+15	7.304944e+14	1.748126e+04	9.055901e+03	2.623524e+03	0	1.196888e-03
3.900000e+08	3.996919e+13	0.000000e+00	4.773870e-01	6.370477e+14	2.218335e+15	7.267470e+14	1.746591e+04	9.042970e+03	2.619778e+03	0	1.192407e-03
4.000000e+08	3.952315e+13	0.000000e+00	4.773870e-01	6.329964e+14	2.194098e+15	7.230267e+14	1.745066e+04	9.030289e+03	2.616104e+03	0	1.187955e-03
4.100000e+08	3.908319e+13	0.000000e+00	4.773870e-01	6.289983e+14	2.170473e+15	7.193332e+14	1.743551e+04	9.017852e+03	2.612501e+03	0	1.183531e-03
4.200000e+08	3.864916e+13	0.000000e+00	4.773870e-01	6.250524e+14	2.147436e+15	7.156663e+14	1.742045e+04	9.005649e+03	2.608966e+03	0	1.179133e-03
4.300000e+08	3.822095e+13	0.000000e+00	4.773870e-01	6.211575e+14	2.124964e+15	7.120258e+14	1.740548e+04	8.993674e+03	2.605497e+03	0	1.174762e-03
4.400000e+08	3.779842e+13	0.000000e+00	4.773870e-01	6.173125e+14	2.103036e+15	7.084115e+14	1.739061e+04	8.981920e+03	2.602092e+03	0	1.170417e-03
4.500000e+08	3.738145e+13	0.000000e+00	4.773870e-01	6.135163e+14	2.081631e+15	7.048232e+14	1.737583e+04	8.970379e+03	2.598748e+03	0	1.166098e-03
4.600000e+08	3.696992e+13	0.000000e+00	4.773870e-01	6.097679e+14	2.060731e+15	7.012606e+14	1.736114e+04	8.959045e+03	2.595465e+03	0	1.161803e-03
4.700000e+08	3.656372e+13	0.000000e+00	4.773870e-01	6.060663e+14	2.040316e+15	6.977236e+14	1.734654e+04	8.947911e+03	2.592239e+03	0	1.157532e-03
4.800000e+08	3.616273e+13	0.000000e+00	4.773870e-01	6.024106e+14	2.020370e+15	6.942119e+14	1.733203e+04	8.936972e+03	2.589070e+03	0	1.153285e-03
4.900000e+08	3.576685e+13	0.000000e+00	4.773870e-01	5.987998e+14	2.000874e+15	6.907254e+14	1.731761e+04	8.926222e+03	2.585956e+03	0	1.149061e-03
5.000000e+08	3.537598e+13	0.000000e+00	4.773870e-01	5.952329e+14	1.981814e+15	6.872638e+14	1.730327e+04	8.915655e+03	2.582895e+03	0	1.144860e-03
5.100000e+08	3.499000e+13	0.000000e+00	4.773870e-01	5.917092e+14	1.963174e+15	6.838269e+14	1.728902e+04	8.905266e+03	2.579885e+03	0	1.140681e-03
5.200000e+08	3.460883e+13	0.000000e+00	4.773870e-01	5.882278e+14	1.944939e+15	6.804146e+14	1.727485e+04	8.895049e+03	2.576925e+03	0	1.136524e-03
5.300000e+08	3.423236e+13	0.000000e+00	4.773870e-01	5.847877e+14	1.927096e+15	6.770266e+14	1.726076e+04	8.885000e+03	2.574014e+03	0	1.132388e-03
5.400000e+08	3.386050e+13	0.000000e+00	4.773870e-01	5.813882e+14	1.909631e+15	6.736627e+14	1.724676e+04	8.875114e+03	2.571149e+03	0	1.128273e-03
5.500000e+08	3.349316e+13	0.000000e+00	4.773870e-01	5.780286e+14	1.892532e+15	6.703228e+14	1.723284e+04	8.865385e+03	2.568331e+03	0	1.124178e-03
5.600000e+08	3.313025e+13	0.000000e+00	4.773870e-01	5.747079e+14	1.875786e+15	6.670066e+14	1.721900e+04	8.855811e+03	2.565557e+03	0	1.120103e-03
5.700000e+08	3.277169e+13	0.000000e+00	4.773870e-01	5.714256e+14	1.859383e+15	6.637140e+14	1.720523e+04	8.846386e+03	2.562827e+03	0	1.116047e-03
5.800000e+08	3.241739e+13	0.000000e+00	4.773870e-01	5.681808e+14	1.843310e+15	6.604447e+14	1.719155e+04	8.837106e+03	2.560138e+03	0	1.112011e-03
5.900000e+08	3.206727e+13	0.000000e+00	4.773870e-01	5.649729e+14	1.827558e+15	6.571986e+14	1.717794e+04	8.827967e+03	2.557491e+03	0	1.107993e-03
6.000000e+08	3.172125e+13	0.000000e+00	4.773870e-01	5.618012e+14	1.812115e+15	6.539755e+14	1.716442e+04	8.818966e+03	2.554883e+03	0	1.103993e-03
6.100000e+08	3.137925e+13	0.000000e+00	4.773870e-01	5.586649e+14	1.796973e+15	6.507751e+14	1.715096e+04	8.810099e+03	2.552314e+03	0	1.100011e-03
6.200000e+08	3.104121e+13	0.000000e+00	4.773870e-01	5.555635e+14	1.782122e+15	6.475974e+14	1.713758e+04	8.801362e+03	2.549783e+03	0	1.096047e-03
6.300000e+08	3.070704e+13	0.000000e+00	4.773870e-01	5.524963e+14	1.767553e+15	6.444422e+14	1.712428e+04	8.792752e+03	2.547289e+03	0	1.092100e-03
6.400000e+08	3.037667e+13	0.000000e+00	4.773870e-01	5.494627e+14	1.753258e+15	6.413091e+14	1.711105e+04	8.784265e+03	2.544830e+03	0	1.088169e-03
6.500000e+08	3.005004e+13	0.000000e+00	4.773870e-01	5.464621e+14	1.739228e+15	6.381982e+14	1.709789e+04	8.775898e+03	2.542406e+03	0	1.084255e-03
6.600000e+08	2.972708e+13	0.000000e+00	4.773870e-01	5.434939e+14	1.725455e+15	6.351091e+14	1.708480e+04	8.767649e+03	2.540017e+03	0	1.080356e-03
6.700000e+08	2.940772e+13	0.000000e+00	4.773870e-01	5.405575e+14	1.711931e+15	6.320418e+14	1.707179e+04	8.759514e+03	2.537660e+03	0	1.076474e-03
6.800000e+08	2.909190e+13	0.000000e+00	4.773870e-01	5.376524e+14	1.698650e+15	6.289959e+14	1.705884e+04	8.751490e+03	2.535335e+03	0	1.072606e-03
6.900000e+08	2.877955e+13	0.000000e+00	4.773870e-01	5.347781e+14	1.685605e+15	6.259715e+14	1.704596e+04	8.743575e+03	2.533042e+03	0	1.068754e-03
7.000000e+08	2.847062e+13	0.000000e+00	4.773870e-01	5.319339e+14	1.672788e+15	6.229683e+14	1.703316e+04	8.735765e+03	2.530780e+03	0	1.064916e-03
7.100000e+08	2.816505e+13	0.000000e+00	4.773870e-01	5.291194e+14	1.660193e+15	6.199861e+14	1.702042e+04	8.728058e+03	2.528547e+03	0	1.061092e-03
7.200000e+08	2.786277e+13	0.000000e+00	4.773870e-01	5.263341e+14	1.647814e+15	6.170247e+14	1.700775e+04	8.720453e+03	2.526344e+03	0	1.057282e-03
7.300000e+08	2.756374e+13	0.000000e+00	4.773870e-01	5.235775e+14	1.635645e+15	6.140840e+14	1.699514e+04	8.712945e+03	2.524169e+03	0	1.053486e-03
7.400000e+08	2.726789e+13	0.000000e+00	4.773870e-01	5.208491e+14	1.623680e+15	6.111639e+14	1.698260e+04	8.705533e+03	2.522021e+03	0	1.049704e-03
7.500000e+08	2.697517e+13	0.000000e+00	4.773870e-01	5.181484e+14	1.611913e+15	6.082641e+14	1.697013e+04	8.698215e+03	2.519901e+03	0	1.045934e-03
7.600000e+08	2.668553e+13	0.000000e+00	4.773870e-01	5.154750e+14	1.600340e+15	6.053846e+14	1.695772e+04	8.690988e+03	2.517808e+03	0	1.042177e-03
7.700000e+08	2.639893e+13	0.000000e+00	4.773870e-01	5.128285e+14	1.588954e+15	6.025250e+14	1.694537e+04	8.683850e+03	2.515740e+03	0	1.038433e-03
7.800000e+08	2.611530e+13	0.000000e+00	4.773870e-01	5.102083e+14	1.577752e+15	5.996853e+14	1.693309e+04	8.676799e+03	2.513697e+03	0	1.034700e-03
7.900000e+08	2.583460e+13	0.000000e+00	4.773870e-01	5.076141e+14	1.566727e+15	5.968654e+14	1.692087e+04	8.669834e+03	2.511679e+03	0	1.030980e-03
8.000000e+08	2.555678e+13	0.000000e+00	4.773870e-01	5.050455e+14	1.555876e+15	5.940650e+14	1.690871e+04	8.662951e+03	2.509685e+03	0	1.027271e-03
8.100000e+08	2.528180e+13	0.000000e+00	4.773870e-01	5.025021e+14	1.545195e+15	5.912840e+14	1.689661e+04	8.656150e+03	2.507715e+03	0	1.023573e-03
8.200000e+08	2.500961e+13	0.000000e+00	4.773870e-01	4.999833e+14	1.534677e+15	5.885223e+14	1.688458e+04	8.649428e+03	2.505768e+03	0	1.019887e-03
8.300000e+08	2.474017e+13	0.000000e+00	4.773870e-01	4.974890e+14	1.524321e+15	5.857796e+14	1.687260e+04	8.642783e+03	2.503843e+03	0	1.016211e-03
8.400000e+08	2.447343e+13	0.000000e+00	4.773870e-01	4.950187e+14	1.514121e+15	5.830559e+14	1.686069e+04	8.636215e+03	2.501940e+03	0	1.012545e-03
8.500000e+08	2.420935e+13	0.000000e+00	4.773870e-01	4.925719e+14	1.504073e+15	5.803510e+14	1.684883e+04	8.629721e+03	2.500058e+03	0	1.008890e-03
8.600000e+08	2.394789e+13	0.000000e+00	4.773870e-01	4.901484e+14	1.494175e+15	5.776648e+14	1.683703e+04	8.623299e+03	2.498198e+03	0	1.005245e-03
8.700000e+08	2.368900e+13	0.000000e+00	4.773870e-01	4.877479e+14	1.484421e+15	5.749970e+14	1.682529e+04	8.616948e+03	2.496358e+03	0	1.001610e-03
8.800000e+08	2.343266e+13	0.000000e+00	4.773870e-01	4.853699e+14	1.474809e+15	5.723476e+14	1.681361e+04	8.610667e+03	2.494538e+03	0	9.979836e-04
8.900000e+08	2.317881e+13	0.000000e+00	4.773870e-01	4.830141e+14	1.465336e+15	5.697164e+14	1.680198e+04	8.604453e+03	2.492738e+03	0	9.943668e-04
9.000000e+08	2.292742e+13	0.000000e+00	4.773870e-01	4.806801e+14	1.455997e+15	5.671032e+14	1.679041e+04	8.598306e+03	2.490958e+03	0	9.907589e-04
9.100000e+08	2.267846e+13	0.000000e+00	4.773870e-01	4.783678e+14	1.446791e+15	5.645080e+14	1.677890e+04	8.592225e+03	2.489196e+03	0	9.871598e-04
9.200000e+08	2.243189e+13	0.000000e+00	4.773870e-01	4.760767e+14	1.437713e+15	5.619305e+14	1.676744e+04	8.586207e+03	2.487452e+03	0	9.835691e-04
9.300000e+08	2.218767e+13	0.000000e+00	4.773870e-01	4.738065e+14	1.428761e+15	5.593707e+14	1.675604e+04	8.580251e+03	2.485727e+03	0	9.799866e-04
9.400000e+08	2.194577e+13	0.000000e+00	4.773870e-01	4.715569e+14	1.419931e+15	5.568283e+14	1.674469e+04	8.574356e+03	2.484019e+03	0	9.764121e-04
9.500000e+08	2.170615e+13	0.000000e+00	4.773870e-01	4.693277e+14	1.411222e+15	5.543033e+14	1.673339e+04	8.568522e+03	2.482329e+03	0	9.728454e-04
9.600000e+08	2.146878e+13	0.000000e+00	4.773870e-01	4.671185e+14	1.402630e+15	5.517956e+14	1.672215e+04	8.562746e+03	2.480655e+03	0	9.692862e-04
9.700000e+08	2.123363e+13	0.000000e+00	4.773870e-01	4.649290e+14	1.394153e+15	5.493049e+14	1.671096e+04	8.557027e+03	2.478999e+03	0	9.657342e-04
9.800000e+08	2.100066e+13	0.000000e+00	4.773870e-01	4.627590e+14	1.385788e+15	5.468311e+14	1.669982e+04	8.551365e+03	2.477358e+03	0	9.621894e-04
9.900000e+08	2.076985e+13	0.000000e+00	4.773870e-01	4.606083e+14	1.377533e+15	5.443742e+14	1.668874e+04	8.545758e+03	2.475734e+03	0	9.586513e-04
1.000000e+09	2.054116e+13	0.000000e+00	4.773870e-01	4.584764e+14	1.369385e+15	5.419339e+14	1.667770e+04	8.540205e+03	2.474125e+03	0	9.551199e-04
1.010000e+09	2.031456e+13	0.000000e+00	4.773870e-01	4.563632e+14	1.361342e+15	5.395102e+14	1.666672e+04	8.534705e+03	2.472532e+03	0	9.515948e-04
1.020000e+09	2.009003e+13	0.000000e+00	4.773870e-01	4.542684e+14	1.353401e+15	5.371029e+14	1.665579e+04	8.529258e+03	2.470954e+03	0	9.480759e-04
1.030000e+09	1.986754e+13	0.000000e+00	4.773870e-01	4.521918e+14	1.345562e+15	5.347119e+14	1.664491e+04	8.523861e+03	2.469390e+03	0	9.445630e-04
1.040000e+09	1.964705e+13	0.000000e+00	4.773870e-01	4.501331e+14	1.337820e+15	5.323371e+14	1.663407e+04	8.518514e+03	2.467841e+03	0	9.410557e-04
1.050000e+09	1.942854e+13	0.000000e+00	4.773870e-01	4.480920e+14	1.330176e+15	5.299783e+14	1.662329e+04	8.513216e+03	2.466307e+03	0	9.375540e-04
1.060000e+09	1.921198e+13	0.000000e+00	4.773870e-01	4.460683e+14	1.322625e+15	5.276354e+14	1.661256e+04	8.507967e+03	2.464786e+03	0	9.340575e-04
1.070000e+09	1.899734e+13	0.000000e+00	4.773870e-01	4.440619e+14	1.315167e+15	5.253083e+14	1.660187e+04	8.502764e+03	2.463279e+03	0	9.305661e-04
1.080000e+09	1.878461e+13	0.000000e+00	4.773870e-01	4.420724e+14	1.307800e+15	5.229969e+14	1.659123e+04	8.497609e+03	2.461785e+03	0	9.270795e-04
1.090000e+09	1.857375e+13	0.000000e+00	4.773870e-01	4.400996e+14	1.300521e+15	5.207010e+14	1.658064e+04	8.492498e+03	2.460305e+03	0	9.235975e-04
1.100000e+09	1.836474e+13	0.000000e+00	4.773870e-01	4.381434e+14	1.293329e+15	5.184205e+14	1.657010e+04	8.487432e+03	2.458837e+03	0	9.201200e-04
1.110000e+09	1.815755e+13	0.000000e+00	4.773870e-01	4.362034e+14	1.286223e+15	5.161553e+14	1.655960e+04	8.482411e+03	2.457382e+03	0	9.166467e-04
1.120000e+09	1.795216e+13	0.000000e+00	4.773870e-01	4.342796e+14	1.279199e+15	5.139052e+14	1.654915e+04	8.477432e+03	2.455940e+03	0	9.131773e-04
1.130000e+09	1.774854e+13	0.000000e+00	4.773870e-01	4.323716e+14	1.272258e+15	5.116703e+14	1.653875e+04	8.472495e+03	2.454510e+03	0	9.097117e-04
1.140000e+09	1.754668e+13	0.000000e+00	4.773870e-01	4.304793e+14	1.265397e+15	5.094503e+14	1.652839e+04	8.467600e+03	2.453092e+03	0	9.062497e-04
1.150000e+09	1.734654e+13	0.000000e+00	4.773870e-01	4.286024e+14	1.258615e+15	5.072451e+14	1.651808e+04	8.462746e+03	2.451685e+03	0	9.027910e-04
1.160000e+09	1.714812e+13	0.000000e+00	4.773870e-01	4.267408e+14	1.251910e+15	5.050546e+14	1.650781e+04	8.457932e+03	2.450291e+03	0	8.993355e-04
1.170000e+09	1.695138e+13	0.000000e+00	4.773870e-01	4.248943e+14	1.245281e+15	5.028787e+14	1.649758e+04	8.453157e+03	2.448907e+03	0	8.958828e-04
1.180000e+09	1.675630e+13	0.000000e+00	4.773870e-01	4.230627e+14	1.238726e+15	5.007172e+14	1.648740e+04	8.448421e+03	2.447535e+03	0	8.924329e-04
1.190000e+09	1.656286e+13	0.000000e+00	4.773870e-01	4.212458e+14	1.232244e+15	4.985702e+14	1.647727e+04	8.443724e+03	2.446174e+03	0	8.889855e-04
1.200000e+09	1.637104e+13	0.000000e+00	4.773870e-01	4.194435e+14	1.225834e+15	4.964374e+14	1.646718e+04	8.439063e+03	2.444824e+03	0	8.855404e-04
1.210000e+09	1.618083e+13	0.000000e+00	4.773870e-01	4.176554e+14	1.219494e+15	4.943187e+14	1.645713e+04	8.434439e+03	2.443485e+03	0	8.820973e-04
1.220000e+09	1.599219e+13	0.000000e+00	4.773870e-01	4.158815e+14	1.213223e+15	4.922141e+14	1.644712e+04	8.429852e+03	2.442156e+03	0	8.786561e-04
1.230000e+09	1.580512e+13	0.000000e+00	4.773870e-01	4.141216e+14	1.207020e+15	4.901234e+14	1.643716e+04	8.425300e+03	2.440837e+03	0	8.752165e-04
1.240000e+09	1.561958e+13	0.000000e+00	4.773870e-01	4.123756e+14	1.200883e+15	4.880465e+14	1.642723e+04	8.420782e+03	2.439528e+03	0	8.717783e-04
1.250000e+09	1.543557e+13	0.000000e+00	4.773870e-01	4.106432e+14	1.194812e+15	4.859834e+14	1.641735e+04	8.416300e+03	2.438230e+03	0	8.683414e-04
1.260000e+09	1.525306e+13	0.000000e+00	4.773870e-01	4.089242e+14	1.188804e+15	4.839338e+14	1.640752e+04	8.411851e+03	2.436941e+03	0	8.649054e-04
1.270000e+09	1.507204e+13	0.000000e+00	4.773870e-01	4.072186e+14	1.182860e+15	4.818977e+14	1.639772e+04	8.407435e+03	2.435661e+03	0	8.614702e-04
1.280000e+09	1.489249e+13	0.000000e+00	4.773870e-01	4.055262e+14	1.176978e+15	4.798751e+14	1.638796e+04	8.403052e+03	2.434392e+03	0	8.580356e-04
1.290000e+09	1.471438e+13	0.000000e+00	4.773870e-01	4.038467e+14	1.171157e+15	4.778657e+14	1.637825e+04	8.398701e+03	2.433131e+03	0	8.546013e-04
1.300000e+09	1.453770e+13	0.000000e+00	4.773870e-01	4.021801e+14	1.165395e+15	4.758695e+14	1.636857e+04	8.394382e+03	2.431880e+03	0	8.511671e-04
1.310000e+09	1.436244e+13	0.000000e+00	4.773870e-01	4.005262e+14	1.159692e+15	4.738864e+14	1.635893e+04	8.390094e+03	2.430638e+03	0	8.477328e-04
1.320000e+09	1.418858e+13	0.000000e+00	4.773870e-01	3.988849e+14	1.154047e+15	4.719163e+14	1.634934e+04	8.385837e+03	2.429404e+03	0	8.442982e-04
1.330000e+09	1.401609e+13	0.000000e+00	4.773870e-01	3.972560e+14	1.148459e+15	4.699591e+14	1.633978e+04	8.381610e+03	2.428180e+03	0	8.408630e-04
1.340000e+09	1.384497e+13	0.000000e+00	4.773870e-01	3.956393e+14	1.142927e+15	4.680146e+14	1.633026e+04	8.377413e+03	2.426964e+03	0	8.374270e-04
1.350000e+09	1.367520e+13	0.000000e+00	4.773870e-01	3.940348e+14	1.137450e+15	4.660829e+14	1.632078e+04	8.373245e+03	2.425756e+03	0	8.339900e-04
1.360000e+09	1.350677e+13	0.000000e+00	4.773870e-01	3.924422e+14	1.132027e+15	4.641637e+14	1.631134e+04	8.369106e+03	2.424557e+03	0	8.305518e-04
