#t		Qconv[W]	Ri[Rp]		R*[Rp]		Qc[W]		Qm[W]		Qr[W]		Tcmb[K]		Tl[K]		Tup[K]		RiFlag		Bs[T]
0.000000e+00	6.833833e+13	0.000000e+00	4.773869e-01	9.246374e+14	4.114845e+15	9.356279e+14	1.882921e+04	1.022000e+04	2.886109e+03	0	1.424627e-03
1.000000e+07	6.744991e+13	0.000000e+00	4.773869e-01	9.168653e+14	4.027534e+15	9.304438e+14	1.880854e+04	1.018791e+04	2.877047e+03	0	1.418426e-03
2.000000e+07	6.657777e+13	0.000000e+00	4.773869e-01	9.092318e+14	3.944186e+15	9.252985e+14	1.878803e+04	1.015687e+04	2.868282e+03	0	1.412286e-03
3.000000e+07	6.572149e+13	0.000000e+00	4.773869e-01	9.017334e+14	3.864544e+15	9.201917e+14	1.876770e+04	1.012683e+04	2.859798e+03	0	1.406205e-03
4.000000e+07	6.488068e+13	0.000000e+00	4.773869e-01	8.943665e+14	3.788371e+15	9.151230e+14	1.874754e+04	1.009773e+04	2.851581e+03	0	1.400183e-03
5.000000e+07	6.405492e+13	0.000000e+00	4.773869e-01	8.871279e+14	3.715450e+15	9.100921e+14	1.872754e+04	1.006953e+04	2.843619e+03	0	1.394217e-03
6.000000e+07	6.324384e+13	0.000000e+00	4.773869e-01	8.800141e+14	3.645580e+15	9.050987e+14	1.870770e+04	1.004220e+04	2.835899e+03	0	1.388308e-03
7.000000e+07	6.244704e+13	0.000000e+00	4.773869e-01	8.730221e+14	3.578578e+15	9.001424e+14	1.868802e+04	1.001567e+04	2.828409e+03	0	1.382453e-03
8.000000e+07	6.166415e+13	0.000000e+00	4.773869e-01	8.661486e+14	3.514272e+15	8.952231e+14	1.866850e+04	9.989932e+03	2.821140e+03	0	1.376651e-03
9.000000e+07	6.089481e+13	0.000000e+00	4.773869e-01	8.593905e+14	3.452505e+15	8.903403e+14	1.864913e+04	9.964932e+03	2.814080e+03	0	1.370902e-03
1.000000e+08	6.013867e+13	0.000000e+00	4.773869e-01	8.527449e+14	3.393131e+15	8.854938e+14	1.862991e+04	9.940642e+03	2.807220e+03	0	1.365204e-03
1.100000e+08	5.939537e+13	0.000000e+00	4.773869e-01	8.462089e+14	3.336016e+15	8.806832e+14	1.861084e+04	9.917030e+03	2.800552e+03	0	1.359556e-03
1.200000e+08	5.866459e+13	0.000000e+00	4.773869e-01	8.397796e+14	3.281033e+15	8.759083e+14	1.859191e+04	9.894066e+03	2.794067e+03	0	1.353957e-03
1.300000e+08	5.794601e+13	0.000000e+00	4.773869e-01	8.334542e+14	3.228066e+15	8.711687e+14	1.857313e+04	9.871722e+03	2.787757e+03	0	1.348406e-03
1.400000e+08	5.723929e+13	0.000000e+00	4.773869e-01	8.272302e+14	3.177007e+15	8.664642e+14	1.855449e+04	9.849972e+03	2.781615e+03	0	1.342902e-03
1.500000e+08	5.654415e+13	0.000000e+00	4.773869e-01	8.211050e+14	3.127754e+15	8.617945e+14	1.853599e+04	9.828790e+03	2.775633e+03	0	1.337444e-03
1.600000e+08	5.586028e+13	0.000000e+00	4.773869e-01	8.150760e+14	3.080214e+15	8.571593e+14	1.851763e+04	9.808155e+03	2.769806e+03	0	1.332030e-03
1.700000e+08	5.518740e+13	0.000000e+00	4.773869e-01	8.091408e+14	3.034298e+15	8.525583e+14	1.849940e+04	9.788042e+03	2.764126e+03	0	1.326660e-03
1.800000e+08	5.452523e+13	0.000000e+00	4.773869e-01	8.032971e+14	2.989924e+15	8.479912e+14	1.848130e+04	9.768431e+03	2.758588e+03	0	1.321333e-03
1.900000e+08	5.387350e+13	0.000000e+00	4.773869e-01	7.975426e+14	2.947016e+15	8.434578e+14	1.846333e+04	9.749302e+03	2.753186e+03	0	1.316047e-03
2.000000e+08	5.323195e+13	0.000000e+00	4.773869e-01	7.918750e+14	2.905501e+15	8.389577e+14	1.844549e+04	9.730635e+03	2.747915e+03	0	1.310802e-03
2.100000e+08	5.260033e+13	0.000000e+00	4.773869e-01	7.862924e+14	2.865313e+15	8.344907e+14	1.842778e+04	9.712414e+03	2.742769e+03	0	1.305597e-03
2.200000e+08	5.197839e+13	0.000000e+00	4.773869e-01	7.807926e+14	2.826387e+15	8.300565e+14	1.841019e+04	9.694621e+03	2.737744e+03	0	1.300431e-03
2.300000e+08	5.136590e+13	0.000000e+00	4.773869e-01	7.753735e+14	2.788665e+15	8.256549e+14	1.839273e+04	9.677240e+03	2.732836e+03	0	1.295303e-03
2.400000e+08	5.076262e+13	0.000000e+00	4.773869e-01	7.700334e+14	2.752090e+15	8.212855e+14	1.837538e+04	9.660255e+03	2.728039e+03	0	1.290212e-03
2.500000e+08	5.016834e+13	0.000000e+00	4.773869e-01	7.647702e+14	2.716611e+15	8.169481e+14	1.835816e+04	9.643652e+03	2.723351e+03	0	1.285157e-03
2.600000e+08	4.958285e+13	0.000000e+00	4.773869e-01	7.595822e+14	2.682177e+15	8.126425e+14	1.834105e+04	9.627416e+03	2.718766e+03	0	1.280138e-03
2.700000e+08	4.900592e+13	0.000000e+00	4.773869e-01	7.544676e+14	2.648743e+15	8.083683e+14	1.832406e+04	9.611535e+03	2.714281e+03	0	1.275154e-03
2.800000e+08	4.843737e+13	0.000000e+00	4.773869e-01	7.494247e+14	2.616264e+15	8.041254e+14	1.830718e+04	9.595996e+03	2.709893e+03	0	1.270203e-03
2.900000e+08	4.787700e+13	0.000000e+00	4.773869e-01	7.444519e+14	2.584700e+15	7.999134e+14	1.829041e+04	9.580787e+03	2.705598e+03	0	1.265286e-03
3.000000e+08	4.732461e+13	0.000000e+00	4.773869e-01	7.395475e+14	2.554010e+15	7.957322e+14	1.827376e+04	9.565896e+03	2.701393e+03	0	1.260401e-03
3.100000e+08	4.678003e+13	0.000000e+00	4.773869e-01	7.347100e+14	2.524159e+15	7.915814e+14	1.825722e+04	9.551313e+03	2.697274e+03	0	1.255547e-03
3.200000e+08	4.624308e+13	0.000000e+00	4.773869e-01	7.299380e+14	2.495110e+15	7.874608e+14	1.824078e+04	9.537026e+03	2.693240e+03	0	1.250725e-03
3.300000e+08	4.571358e+13	0.000000e+00	4.773869e-01	7.252299e+14	2.466832e+15	7.833701e+14	1.822445e+04	9.523026e+03	2.689286e+03	0	1.245933e-03
3.400000e+08	4.519137e+13	0.000000e+00	4.773869e-01	7.205843e+14	2.439292e+15	7.793092e+14	1.820822e+04	9.509303e+03	2.685411e+03	0	1.241171e-03
3.500000e+08	4.467629e+13	0.000000e+00	4.773869e-01	7.160000e+14	2.412462e+15	7.752777e+14	1.819210e+04	9.495848e+03	2.681611e+03	0	1.236437e-03
3.600000e+08	4.416818e+13	0.000000e+00	4.773869e-01	7.114754e+14	2.386313e+15	7.712755e+14	1.817608e+04	9.482653e+03	2.677885e+03	0	1.231732e-03
3.700000e+08	4.366689e+13	0.000000e+00	4.773869e-01	7.070095e+14	2.360819e+15	7.673022e+14	1.816017e+04	9.469709e+03	2.674229e+03	0	1.227054e-03
3.800000e+08	4.317226e+13	0.000000e+00	4.773869e-01	7.026008e+14	2.335954e+15	7.633577e+14	1.814435e+04	9.457007e+03	2.670642e+03	0	1.222403e-03
3.900000e+08	4.268417e+13	0.000000e+00	4.773869e-01	6.982483e+14	2.311693e+15	7.594417e+14	1.812863e+04	9.444541e+03	2.667122e+03	0	1.217779e-03
4.000000e+08	4.220247e+13	0.000000e+00	4.773869e-01	6.939506e+14	2.288016e+15	7.555540e+14	1.811301e+04	9.432302e+03	2.663666e+03	0	1.213181e-03
4.100000e+08	4.172702e+13	0.000000e+00	4.773869e-01	6.897068e+14	2.264899e+15	7.516943e+14	1.809748e+04	9.420285e+03	2.660272e+03	0	1.208608e-03
4.200000e+08	4.125770e+13	0.000000e+00	4.773869e-01	6.855156e+14	2.242321e+15	7.478625e+14	1.808205e+04	9.408481e+03	2.656939e+03	0	1.204060e-03
4.300000e+08	4.079438e+13	0.000000e+00	4.773869e-01	6.813760e+14	2.220264e+15	7.440582e+14	1.806671e+04	9.396884e+03	2.653664e+03	0	1.199535e-03
4.400000e+08	4.033693e+13	0.000000e+00	4.773869e-01	6.772869e+14	2.198709e+15	7.402813e+14	1.805146e+04	9.385489e+03	2.650446e+03	0	1.195035e-03
4.500000e+08	3.988523e+13	0.000000e+00	4.773869e-01	6.732474e+14	2.177637e+15	7.365316e+14	1.803631e+04	9.374289e+03	2.647283e+03	0	1.190557e-03
4.600000e+08	3.943917e+13	0.000000e+00	4.773869e-01	6.692565e+14	2.157032e+15	7.328087e+14	1.802124e+04	9.363278e+03	2.644174e+03	0	1.186103e-03
4.700000e+08	3.899864e+13	0.000000e+00	4.773869e-01	6.653131e+14	2.136878e+15	7.291126e+14	1.800627e+04	9.352451e+03	2.641116e+03	0	1.181670e-03
4.800000e+08	3.856353e+13	0.000000e+00	4.773869e-01	6.614164e+14	2.117158e+15	7.254430e+14	1.799138e+04	9.341803e+03	2.638109e+03	0	1.177259e-03
4.900000e+08	3.813372e+13	0.000000e+00	4.773869e-01	6.575655e+14	2.097858e+15	7.217996e+14	1.797658e+04	9.331328e+03	2.635151e+03	0	1.172869e-03
5.000000e+08	3.770912e+13	0.000000e+00	4.773869e-01	6.537594e+14	2.078965e+15	7.181823e+14	1.796187e+04	9.321021e+03	2.632240e+03	0	1.168499e-03
5.100000e+08	3.728962e+13	0.000000e+00	4.773869e-01	6.499973e+14	2.060464e+15	7.145908e+14	1.794724e+04	9.310878e+03	2.629376e+03	0	1.164150e-03
5.200000e+08	3.687513e+13	0.000000e+00	4.773869e-01	6.462784e+14	2.042342e+15	7.110249e+14	1.793270e+04	9.300894e+03	2.626556e+03	0	1.159821e-03
5.300000e+08	3.646554e+13	0.000000e+00	4.773869e-01	6.426019e+14	2.024588e+15	7.074845e+14	1.791823e+04	9.291064e+03	2.623780e+03	0	1.155510e-03
5.400000e+08	3.606078e+13	0.000000e+00	4.773869e-01	6.389669e+14	2.007188e+15	7.039693e+14	1.790385e+04	9.281385e+03	2.621047e+03	0	1.151219e-03
5.500000e+08	3.566074e+13	0.000000e+00	4.773869e-01	6.353727e+14	1.990133e+15	7.004791e+14	1.788956e+04	9.271852e+03	2.618355e+03	0	1.146946e-03
5.600000e+08	3.526534e+13	0.000000e+00	4.773869e-01	6.318186e+14	1.973411e+15	6.970137e+14	1.787534e+04	9.262462e+03	2.615703e+03	0	1.142692e-03
5.700000e+08	3.487450e+13	0.000000e+00	4.773869e-01	6.283039e+14	1.957012e+15	6.935730e+14	1.786120e+04	9.253210e+03	2.613090e+03	0	1.138454e-03
5.800000e+08	3.448812e+13	0.000000e+00	4.773869e-01	6.248277e+14	1.940925e+15	6.901566e+14	1.784714e+04	9.244093e+03	2.610516e+03	0	1.134234e-03
5.900000e+08	3.410614e+13	0.000000e+00	4.773869e-01	6.213895e+14	1.925141e+15	6.867645e+14	1.783316e+04	9.235107e+03	2.607978e+03	0	1.130031e-03
6.000000e+08	3.372846e+13	0.000000e+00	4.773869e-01	6.179885e+14	1.909652e+15	6.833963e+14	1.781925e+04	9.226249e+03	2.605477e+03	0	1.125845e-03
6.100000e+08	3.335501e+13	0.000000e+00	4.773869e-01	6.146241e+14	1.894447e+15	6.800520e+14	1.780542e+04	9.217516e+03	2.603010e+03	0	1.121674e-03
6.200000e+08	3.298572e+13	0.000000e+00	4.773869e-01	6.112957e+14	1.879520e+15	6.767314e+14	1.779166e+04	9.208903e+03	2.600578e+03	0	1.117519e-03
6.300000e+08	3.262051e+13	0.000000e+00	4.773869e-01	6.080026e+14	1.864861e+15	6.734342e+14	1.777798e+04	9.200410e+03	2.598180e+03	0	1.113379e-03
6.400000e+08	3.225932e+13	0.000000e+00	4.773869e-01	6.047442e+14	1.850462e+15	6.701602e+14	1.776438e+04	9.192031e+03	2.595814e+03	0	1.109255e-03
6.500000e+08	3.190206e+13	0.000000e+00	4.773869e-01	6.015200e+14	1.836317e+15	6.669093e+14	1.775084e+04	9.183765e+03	2.593479e+03	0	1.105145e-03
6.600000e+08	3.154869e+13	0.000000e+00	4.773869e-01	5.983293e+14	1.822418e+15	6.636812e+14	1.773738e+04	9.175608e+03	2.591176e+03	0	1.101049e-03
6.700000e+08	3.119911e+13	0.000000e+00	4.773869e-01	5.951715e+14	1.808758e+15	6.604759e+14	1.772399e+04	9.167558e+03	2.588903e+03	0	1.096967e-03
6.800000e+08	3.085328e+13	0.000000e+00	4.773869e-01	5.920462e+14	1.795330e+15	6.572931e+14	1.771067e+04	9.159613e+03	2.586659e+03	0	1.092899e-03
6.900000e+08	3.051114e+13	0.000000e+00	4.773869e-01	5.889528e+14	1.782129e+15	6.541326e+14	1.769742e+04	9.151769e+03	2.584444e+03	0	1.088844e-03
7.000000e+08	3.017260e+13	0.000000e+00	4.773869e-01	5.858908e+14	1.769147e+15	6.509942e+14	1.768424e+04	9.144024e+03	2.582257e+03	0	1.084802e-03
7.100000e+08	2.983763e+13	0.000000e+00	4.773869e-01	5.828596e+14	1.756378e+15	6.478778e+14	1.767113e+04	9.136377e+03	2.580097e+03	0	1.080773e-03
7.200000e+08	2.950616e+13	0.000000e+00	4.773869e-01	5.798587e+14	1.743818e+15	6.447833e+14	1.765808e+04	9.128824e+03	2.577964e+03	0	1.076756e-03
7.300000e+08	2.917812e+13	0.000000e+00	4.773869e-01	5.768878e+14	1.731461e+15	6.417103e+14	1.764510e+04	9.121364e+03	2.575857e+03	0	1.072751e-03
7.400000e+08	2.885348e+13	0.000000e+00	4.773869e-01	5.739462e+14	1.719300e+15	6.386588e+14	1.763219e+04	9.113993e+03	2.573776e+03	0	1.068757e-03
7.500000e+08	2.853216e+13	0.000000e+00	4.773869e-01	5.710335e+14	1.707332e+15	6.356286e+14	1.761935e+04	9.106711e+03	2.571720e+03	0	1.064775e-03
7.600000e+08	2.821412e+13	0.000000e+00	4.773869e-01	5.681492e+14	1.695550e+15	6.326194e+14	1.760656e+04	9.099515e+03	2.569687e+03	0	1.060804e-03
7.700000e+08	2.789931e+13	0.000000e+00	4.773869e-01	5.652930e+14	1.683951e+15	6.296312e+14	1.759385e+04	9.092404e+03	2.567679e+03	0	1.056844e-03
7.800000e+08	2.758767e+13	0.000000e+00	4.773869e-01	5.624644e+14	1.672529e+15	6.266638e+14	1.758120e+04	9.085374e+03	2.565694e+03	0	1.052894e-03
7.900000e+08	2.727915e+13	0.000000e+00	4.773869e-01	5.596629e+14	1.661281e+15	6.237170e+14	1.756861e+04	9.078426e+03	2.563732e+03	0	1.048954e-03
8.000000e+08	2.697371e+13	0.000000e+00	4.773869e-01	5.568882e+14	1.650201e+15	6.207906e+14	1.755608e+04	9.071555e+03	2.561792e+03	0	1.045025e-03
8.100000e+08	2.667130e+13	0.000000e+00	4.773869e-01	5.541397e+14	1.639286e+15	6.178846e+14	1.754361e+04	9.064762e+03	2.559873e+03	0	1.041105e-03
8.200000e+08	2.637187e+13	0.000000e+00	4.773869e-01	5.514173e+14	1.628531e+15	6.149986e+14	1.753121e+04	9.058044e+03	2.557976e+03	0	1.037194e-03
8.300000e+08	2.607537e+13	0.000000e+00	4.773869e-01	5.487203e+14	1.617933e+15	6.121325e+14	1.751887e+04	9.051400e+03	2.556100e+03	0	1.033292e-03
8.400000e+08	2.578177e+13	0.000000e+00	4.773869e-01	5.460485e+14	1.607488e+15	6.092863e+14	1.750659e+04	9.044827e+03	2.554244e+03	0	1.029399e-03
8.500000e+08	2.549101e+13	0.000000e+00	4.773869e-01	5.434015e+14	1.597192e+15	6.064597e+14	1.749436e+04	9.038325e+03	2.552407e+03	0	1.025515e-03
8.600000e+08	2.520306e+13	0.000000e+00	4.773869e-01	5.407789e+14	1.587042e+15	6.036526e+14	1.748220e+04	9.031893e+03	2.550591e+03	0	1.021639e-03
8.700000e+08	2.491787e+13	0.000000e+00	4.773869e-01	5.381803e+14	1.577035e+15	6.008648e+14	1.747010e+04	9.025527e+03	2.548793e+03	0	1.017771e-03
8.800000e+08	2.463540e+13	0.000000e+00	4.773869e-01	5.356055e+14	1.567166e+15	5.980962e+14	1.745805e+04	9.019228e+03	2.547014e+03	0	1.013910e-03
8.900000e+08	2.435561e+13	0.000000e+00	4.773869e-01	5.330540e+14	1.557433e+15	5.953466e+14	1.744606e+04	9.012994e+03	2.545254e+03	0	1.010057e-03
9.000000e+08	2.407846e+13	0.000000e+00	4.773869e-01	5.305255e+14	1.547832e+15	5.926159e+14	1.743413e+04	9.006823e+03	2.543511e+03	0	1.006211e-03
9.100000e+08	2.380392e+13	0.000000e+00	4.773869e-01	5.280198e+14	1.538362e+15	5.899039e+14	1.742225e+04	9.000714e+03	2.541786e+03	0	1.002372e-03
9.200000e+08	2.353194e+13	0.000000e+00	4.773869e-01	5.255364e+14	1.529018e+15	5.872105e+14	1.741043e+04	8.994666e+03	2.540078e+03	0	9.985401e-04
9.300000e+08	2.326249e+13	0.000000e+00	4.773869e-01	5.230751e+14	1.519798e+15	5.845355e+14	1.739867e+04	8.988678e+03	2.538387e+03	0	9.947143e-04
9.400000e+08	2.299554e+13	0.000000e+00	4.773869e-01	5.206356e+14	1.510699e+15	5.818788e+14	1.738696e+04	8.982748e+03	2.536712e+03	0	9.908946e-04
9.500000e+08	2.273104e+13	0.000000e+00	4.773869e-01	5.182175e+14	1.501719e+15	5.792402e+14	1.737531e+04	8.976875e+03	2.535054e+03	0	9.870808e-04
9.600000e+08	2.246897e+13	0.000000e+00	4.773869e-01	5.158205e+14	1.492855e+15	5.766196e+14	1.736370e+04	8.971059e+03	2.533412e+03	0	9.832727e-04
9.700000e+08	2.220928e+13	0.000000e+00	4.773869e-01	5.134444e+14	1.484104e+15	5.740168e+14	1.735216e+04	8.965298e+03	2.531785e+03	0	9.794700e-04
9.800000e+08	2.195195e+13	0.000000e+00	4.773869e-01	5.110889e+14	1.475465e+15	5.714318e+14	1.734066e+04	8.959590e+03	2.530173e+03	0	9.756724e-04
9.900000e+08	2.169695e+13	0.000000e+00	4.773869e-01	5.087537e+14	1.466934e+15	5.688643e+14	1.732922e+04	8.953936e+03	2.528576e+03	0	9.718796e-04
1.000000e+09	2.144423e+13	0.000000e+00	4.773869e-01	5.064385e+14	1.458510e+15	5.663143e+14	1.731783e+04	8.948334e+03	2.526994e+03	0	9.680916e-04
1.010000e+09	2.119378e+13	0.000000e+00	4.773869e-01	5.041430e+14	1.450190e+15	5.637816e+14	1.730650e+04	8.942783e+03	2.525426e+03	0	9.643079e-04
1.020000e+09	2.094555e+13	0.000000e+00	4.773869e-01	5.018671e+14	1.441972e+15	5.612660e+14	1.729521e+04	8.937281e+03	2.523873e+03	0	9.605284e-04
1.030000e+09	2.069952e+13	0.000000e+00	4.773869e-01	4.996104e+14	1.433854e+15	5.587674e+14	1.728398e+04	8.931829e+03	2.522333e+03	0	9.567528e-04
1.040000e+09	2.045566e+13	0.000000e+00	4.773869e-01	4.973726e+14	1.425833e+15	5.562857e+14	1.727279e+04	8.926425e+03	2.520807e+03	0	9.529808e-04
1.050000e+09	2.021394e+13	0.000000e+00	4.773869e-01	4.951536e+14	1.417909e+15	5.538208e+14	1.726166e+04	8.921068e+03	2.519294e+03	0	9.492122e-04
1.060000e+09	1.997434e+13	0.000000e+00	4.773869e-01	4.929530e+14	1.410079e+15	5.513725e+14	1.725057e+04	8.915758e+03	2.517795e+03	0	9.454468e-04
1.070000e+09	1.973682e+13	0.000000e+00	4.773869e-01	4.907707e+14	1.402342e+15	5.489407e+14	1.723954e+04	8.910493e+03	2.516308e+03	0	9.416843e-04
1.080000e+09	1.950135e+13	0.000000e+00	4.773869e-01	4.886064e+14	1.394694e+15	5.465253e+14	1.722855e+04	8.905273e+03	2.514834e+03	0	9.379244e-04
1.090000e+09	1.926791e+13	0.000000e+00	4.773869e-01	4.864599e+14	1.387135e+15	5.441261e+14	1.721761e+04	8.900097e+03	2.513372e+03	0	9.341670e-04
1.100000e+09	1.903648e+13	0.000000e+00	4.773869e-01	4.843310e+14	1.379664e+15	5.417430e+14	1.720672e+04	8.894964e+03	2.511923e+03	0	9.304117e-04
1.110000e+09	1.880702e+13	0.000000e+00	4.773869e-01	4.822193e+14	1.372277e+15	5.393759e+14	1.719588e+04	8.889874e+03	2.510485e+03	0	9.266583e-04
1.120000e+09	1.857951e+13	0.000000e+00	4.773869e-01	4.801248e+14	1.364974e+15	5.370247e+14	1.718508e+04	8.884825e+03	2.509059e+03	0	9.229066e-04
1.130000e+09	1.835393e+13	0.000000e+00	4.773869e-01	4.780471e+14	1.357753e+15	5.346892e+14	1.717433e+04	8.879817e+03	2.507645e+03	0	9.191563e-04
1.140000e+09	1.813026e+13	0.000000e+00	4.773869e-01	4.759862e+14	1.350613e+15	5.323693e+14	1.716363e+04	8.874850e+03	2.506242e+03	0	9.154071e-04
1.150000e+09	1.790846e+13	0.000000e+00	4.773869e-01	4.739417e+14	1.343552e+15	5.300649e+14	1.715297e+04	8.869922e+03	2.504851e+03	0	9.116589e-04
1.160000e+09	1.768851e+13	0.000000e+00	4.773869e-01	4.719134e+14	1.336568e+15	5.277758e+14	1.714236e+04	8.865033e+03	2.503470e+03	0	9.079113e-04
1.170000e+09	1.747040e+13	0.000000e+00	4.773869e-01	4.699013e+14	1.329660e+15	5.255020e+14	1.713180e+04	8.860182e+03	2.502100e+03	0	9.041640e-04
1.180000e+09	1.725409e+13	0.000000e+00	4.773869e-01	4.679050e+14	1.322827e+15	5.232434e+14	1.712128e+04	8.855368e+03	2.500741e+03	0	9.004170e-04
1.190000e+09	1.703957e+13	0.000000e+00	4.773869e-01	4.659244e+14	1.316068e+15	5.209997e+14	1.711080e+04	8.850592e+03	2.499392e+03	0	8.966698e-04
1.200000e+09	1.682682e+13	0.000000e+00	4.773869e-01	4.639593e+14	1.309380e+15	5.187710e+14	1.710037e+04	8.845852e+03	2.498053e+03	0	8.929222e-04
1.210000e+09	1.661580e+13	0.000000e+00	4.773869e-01	4.620095e+14	1.302764e+15	5.165570e+14	1.708998e+04	8.841148e+03	2.496725e+03	0	8.891739e-04
1.220000e+09	1.640651e+13	0.000000e+00	4.773869e-01	4.600748e+14	1.296217e+15	5.143577e+14	1.707964e+04	8.836479e+03	2.495406e+03	0	8.854248e-04
1.230000e+09	1.619891e+13	0.000000e+00	4.773869e-01	4.581550e+14	1.289738e+15	5.121730e+14	1.706934e+04	8.831844e+03	2.494098e+03	0	8.816744e-04
1.240000e+09	1.599300e+13	0.000000e+00	4.773869e-01	4.562500e+14	1.283327e+15	5.100026e+14	1.705908e+04	8.827244e+03	2.492798e+03	0	8.779226e-04
1.250000e+09	1.578874e+13	0.000000e+00	4.773869e-01	4.543596e+14	1.276982e+15	5.078467e+14	1.704886e+04	8.822677e+03	2.491509e+03	0	8.741691e-04
1.260000e+09	1.558612e+13	0.000000e+00	4.773869e-01	4.524836e+14	1.270701e+15	5.057049e+14	1.703869e+04	8.818143e+03	2.490228e+03	0	8.704136e-04
1.270000e+09	1.538513e+13	0.000000e+00	4.773869e-01	4.506219e+14	1.264484e+15	5.035772e+14	1.702856e+04	8.813642e+03	2.488957e+03	0	8.666558e-04
1.280000e+09	1.518573e+13	0.000000e+00	4.773869e-01	4.487742e+14	1.258330e+15	5.014636e+14	1.701847e+04	8.809172e+03	2.487695e+03	0	8.628954e-04
1.290000e+09	1.498791e+13	0.000000e+00	4.773869e-01	4.469405e+14	1.252238e+15	4.993638e+14	1.700842e+04	8.804734e+03	2.486442e+03	0	8.591322e-04
1.300000e+09	1.479166e+13	0.000000e+00	4.773869e-01	4.451205e+14	1.246206e+15	4.972778e+14	1.699842e+04	8.800327e+03	2.485197e+03	0	8.553658e-04
1.310000e+09	1.459695e+13	0.000000e+00	4.773869e-01	4.433141e+14	1.240234e+15	4.952055e+14	1.698845e+04	8.795950e+03	2.483961e+03	0	8.515961e-04
1.320000e+09	1.440377e+13	0.000000e+00	4.773869e-01	4.415212e+14	1.234320e+15	4.931467e+14	1.697852e+04	8.791604e+03	2.482734e+03	0	8.478226e-04
1.330000e+09	1.421209e+13	0.000000e+00	4.773869e-01	4.397416e+14	1.228465e+15	4.911015e+14	1.696864e+04	8.787286e+03	2.481514e+03	0	8.440450e-04
1.340000e+09	1.402191e+13	0.000000e+00	4.773869e-01	4.379751e+14	1.222666e+15	4.890695e+14	1.695879e+04	8.782999e+03	2.480304e+03	0	8.402632e-04
1.350000e+09	1.383320e+13	0.000000e+00	4.773869e-01	4.362216e+14	1.216922e+15	4.870509e+14	1.694898e+04	8.778739e+03	2.479101e+03	0	8.364767e-04
1.360000e+09	1.364595e+13	0.000000e+00	4.773869e-01	4.344809e+14	1.211234e+15	4.850454e+14	1.693922e+04	8.774509e+03	2.477906e+03	0	8.326852e-04
