#t		Qconv[W]	Ri[Rp]		R*[Rp]		Qc[W]		Qm[W]		Qr[W]		Tcmb[K]		Tl[K]		Tup[K]		RiFlag		Bs[T]
0.000000e+00	7.143978e+13	0.000000e+00	4.773869e-01	9.798397e+14	4.024868e+15	9.617815e+14	1.940414e+04	1.051027e+04	2.905895e+03	0	1.447425e-03
1.000000e+07	7.052439e+13	0.000000e+00	4.773869e-01	9.719329e+14	3.947881e+15	9.564526e+14	1.938311e+04	1.048112e+04	2.897836e+03	0	1.441216e-03
2.000000e+07	6.962499e+13	0.000000e+00	4.773869e-01	9.641601e+14	3.874102e+15	9.511634e+14	1.936225e+04	1.045285e+04	2.890022e+03	0	1.435063e-03
3.000000e+07	6.874116e+13	0.000000e+00	4.773869e-01	9.565180e+14	3.803338e+15	9.459138e+14	1.934156e+04	1.042543e+04	2.882440e+03	0	1.428965e-03
4.000000e+07	6.787253e+13	0.000000e+00	4.773869e-01	9.490032e+14	3.735411e+15	9.407034e+14	1.932103e+04	1.039882e+04	2.875081e+03	0	1.422921e-03
5.000000e+07	6.701869e+13	0.000000e+00	4.773869e-01	9.416127e+14	3.670156e+15	9.355319e+14	1.930067e+04	1.037297e+04	2.867934e+03	0	1.416929e-03
6.000000e+07	6.617929e+13	0.000000e+00	4.773869e-01	9.343432e+14	3.607418e+15	9.303989e+14	1.928046e+04	1.034785e+04	2.860989e+03	0	1.410988e-03
7.000000e+07	6.535394e+13	0.000000e+00	4.773869e-01	9.271918e+14	3.547057e+15	9.253041e+14	1.926040e+04	1.032343e+04	2.854238e+03	0	1.405098e-03
8.000000e+07	6.454230e+13	0.000000e+00	4.773869e-01	9.201555e+14	3.488941e+15	9.202473e+14	1.924050e+04	1.029968e+04	2.847672e+03	0	1.399257e-03
9.000000e+07	6.374402e+13	0.000000e+00	4.773869e-01	9.132313e+14	3.432947e+15	9.152280e+14	1.922075e+04	1.027657e+04	2.841283e+03	0	1.393464e-03
1.000000e+08	6.295875e+13	0.000000e+00	4.773869e-01	9.064166e+14	3.378961e+15	9.102460e+14	1.920115e+04	1.025408e+04	2.835064e+03	0	1.387719e-03
1.100000e+08	6.218619e+13	0.000000e+00	4.773869e-01	8.997085e+14	3.326878e+15	9.053010e+14	1.918170e+04	1.023217e+04	2.829006e+03	0	1.382019e-03
1.200000e+08	6.142600e+13	0.000000e+00	4.773869e-01	8.931045e+14	3.276598e+15	9.003926e+14	1.916238e+04	1.021082e+04	2.823105e+03	0	1.376365e-03
1.300000e+08	6.067788e+13	0.000000e+00	4.773869e-01	8.866019e+14	3.228029e+15	8.955205e+14	1.914321e+04	1.019002e+04	2.817353e+03	0	1.370754e-03
1.400000e+08	5.994153e+13	0.000000e+00	4.773869e-01	8.801983e+14	3.181085e+15	8.906845e+14	1.912418e+04	1.016973e+04	2.811744e+03	0	1.365187e-03
1.500000e+08	5.921666e+13	0.000000e+00	4.773869e-01	8.738913e+14	3.135684e+15	8.858843e+14	1.910529e+04	1.014994e+04	2.806272e+03	0	1.359661e-03
1.600000e+08	5.850299e+13	0.000000e+00	4.773869e-01	8.676786e+14	3.091752e+15	8.811195e+14	1.908653e+04	1.013063e+04	2.800933e+03	0	1.354177e-03
1.700000e+08	5.780026e+13	0.000000e+00	4.773869e-01	8.615579e+14	3.049218e+15	8.763899e+14	1.906790e+04	1.011178e+04	2.795721e+03	0	1.348733e-03
1.800000e+08	5.710818e+13	0.000000e+00	4.773869e-01	8.555269e+14	3.008014e+15	8.716952e+14	1.904941e+04	1.009337e+04	2.790631e+03	0	1.343328e-03
1.900000e+08	5.642652e+13	0.000000e+00	4.773869e-01	8.495836e+14	2.968079e+15	8.670350e+14	1.903104e+04	1.007538e+04	2.785658e+03	0	1.337962e-03
2.000000e+08	5.575501e+13	0.000000e+00	4.773869e-01	8.437260e+14	2.929353e+15	8.624091e+14	1.901280e+04	1.005781e+04	2.780799e+03	0	1.332633e-03
2.100000e+08	5.509343e+13	0.000000e+00	4.773869e-01	8.379519e+14	2.891783e+15	8.578173e+14	1.899469e+04	1.004063e+04	2.776048e+03	0	1.327342e-03
2.200000e+08	5.444154e+13	0.000000e+00	4.773869e-01	8.322595e+14	2.855315e+15	8.532591e+14	1.897670e+04	1.002382e+04	2.771403e+03	0	1.322085e-03
2.300000e+08	5.379910e+13	0.000000e+00	4.773869e-01	8.266468e+14	2.819901e+15	8.487344e+14	1.895884e+04	1.000739e+04	2.766859e+03	0	1.316864e-03
2.400000e+08	5.316592e+13	0.000000e+00	4.773869e-01	8.211122e+14	2.785494e+15	8.442429e+14	1.894109e+04	9.991305e+03	2.762412e+03	0	1.311678e-03
2.500000e+08	5.254176e+13	0.000000e+00	4.773869e-01	8.156537e+14	2.752052e+15	8.397843e+14	1.892346e+04	9.975562e+03	2.758059e+03	0	1.306525e-03
2.600000e+08	5.192643e+13	0.000000e+00	4.773869e-01	8.102698e+14	2.719532e+15	8.353583e+14	1.890595e+04	9.960148e+03	2.753797e+03	0	1.301404e-03
2.700000e+08	5.131973e+13	0.000000e+00	4.773869e-01	8.049586e+14	2.687897e+15	8.309647e+14	1.888855e+04	9.945051e+03	2.749623e+03	0	1.296316e-03
2.800000e+08	5.072147e+13	0.000000e+00	4.773869e-01	7.997187e+14	2.657109e+15	8.266032e+14	1.887127e+04	9.930260e+03	2.745534e+03	0	1.291259e-03
2.900000e+08	5.013145e+13	0.000000e+00	4.773869e-01	7.945485e+14	2.627133e+15	8.222734e+14	1.885410e+04	9.915766e+03	2.741527e+03	0	1.286233e-03
3.000000e+08	4.954950e+13	0.000000e+00	4.773869e-01	7.894464e+14	2.597938e+15	8.179753e+14	1.883704e+04	9.901557e+03	2.737598e+03	0	1.281236e-03
3.100000e+08	4.897543e+13	0.000000e+00	4.773869e-01	7.844109e+14	2.569490e+15	8.137085e+14	1.882009e+04	9.887626e+03	2.733746e+03	0	1.276269e-03
3.200000e+08	4.840909e+13	0.000000e+00	4.773869e-01	7.794408e+14	2.541762e+15	8.094727e+14	1.880325e+04	9.873962e+03	2.729969e+03	0	1.271330e-03
3.300000e+08	4.785030e+13	0.000000e+00	4.773869e-01	7.745345e+14	2.514725e+15	8.052677e+14	1.878651e+04	9.860557e+03	2.726262e+03	0	1.266420e-03
3.400000e+08	4.729889e+13	0.000000e+00	4.773869e-01	7.696907e+14	2.488352e+15	8.010932e+14	1.876988e+04	9.847402e+03	2.722625e+03	0	1.261536e-03
3.500000e+08	4.675473e+13	0.000000e+00	4.773869e-01	7.649081e+14	2.462617e+15	7.969491e+14	1.875336e+04	9.834491e+03	2.719056e+03	0	1.256680e-03
3.600000e+08	4.621765e+13	0.000000e+00	4.773869e-01	7.601855e+14	2.437498e+15	7.928350e+14	1.873693e+04	9.821814e+03	2.715551e+03	0	1.251849e-03
3.700000e+08	4.568750e+13	0.000000e+00	4.773869e-01	7.555216e+14	2.412970e+15	7.887506e+14	1.872061e+04	9.809366e+03	2.712109e+03	0	1.247044e-03
3.800000e+08	4.516415e+13	0.000000e+00	4.773869e-01	7.509153e+14	2.389013e+15	7.846959e+14	1.870439e+04	9.797138e+03	2.708728e+03	0	1.242264e-03
3.900000e+08	4.464745e+13	0.000000e+00	4.773869e-01	7.463653e+14	2.365605e+15	7.806704e+14	1.868826e+04	9.785124e+03	2.705407e+03	0	1.237509e-03
4.000000e+08	4.413727e+13	0.000000e+00	4.773869e-01	7.418706e+14	2.342727e+15	7.766740e+14	1.867223e+04	9.773318e+03	2.702143e+03	0	1.232777e-03
4.100000e+08	4.363348e+13	0.000000e+00	4.773869e-01	7.374300e+14	2.320360e+15	7.727065e+14	1.865630e+04	9.761714e+03	2.698934e+03	0	1.228069e-03
4.200000e+08	4.313595e+13	0.000000e+00	4.773869e-01	7.330425e+14	2.298486e+15	7.687675e+14	1.864047e+04	9.750304e+03	2.695780e+03	0	1.223383e-03
4.300000e+08	4.264455e+13	0.000000e+00	4.773869e-01	7.287070e+14	2.277088e+15	7.648569e+14	1.862473e+04	9.739085e+03	2.692678e+03	0	1.218720e-03
4.400000e+08	4.215917e+13	0.000000e+00	4.773869e-01	7.244226e+14	2.256149e+15	7.609744e+14	1.860908e+04	9.728049e+03	2.689627e+03	0	1.214078e-03
4.500000e+08	4.167969e+13	0.000000e+00	4.773869e-01	7.201882e+14	2.235654e+15	7.571199e+14	1.859352e+04	9.717193e+03	2.686625e+03	0	1.209458e-03
4.600000e+08	4.120599e+13	0.000000e+00	4.773869e-01	7.160030e+14	2.215588e+15	7.532930e+14	1.857806e+04	9.706510e+03	2.683671e+03	0	1.204859e-03
4.700000e+08	4.073797e+13	0.000000e+00	4.773869e-01	7.118659e+14	2.195937e+15	7.494935e+14	1.856268e+04	9.695996e+03	2.680764e+03	0	1.200280e-03
4.800000e+08	4.027551e+13	0.000000e+00	4.773869e-01	7.077761e+14	2.176687e+15	7.457213e+14	1.854739e+04	9.685646e+03	2.677903e+03	0	1.195721e-03
4.900000e+08	3.981851e+13	0.000000e+00	4.773869e-01	7.037326e+14	2.157825e+15	7.419761e+14	1.853219e+04	9.675456e+03	2.675086e+03	0	1.191181e-03
5.000000e+08	3.936687e+13	0.000000e+00	4.773869e-01	6.997347e+14	2.139339e+15	7.382576e+14	1.851708e+04	9.665421e+03	2.672311e+03	0	1.186660e-03
5.100000e+08	3.892049e+13	0.000000e+00	4.773869e-01	6.957815e+14	2.121216e+15	7.345658e+14	1.850205e+04	9.655537e+03	2.669578e+03	0	1.182158e-03
5.200000e+08	3.847927e+13	0.000000e+00	4.773869e-01	6.918722e+14	2.103446e+15	7.309002e+14	1.848711e+04	9.645800e+03	2.666886e+03	0	1.177674e-03
5.300000e+08	3.804311e+13	0.000000e+00	4.773869e-01	6.880060e+14	2.086016e+15	7.272608e+14	1.847225e+04	9.636206e+03	2.664233e+03	0	1.173207e-03
5.400000e+08	3.761193e+13	0.000000e+00	4.773869e-01	6.841822e+14	2.068918e+15	7.236474e+14	1.845748e+04	9.626750e+03	2.661619e+03	0	1.168758e-03
5.500000e+08	3.718564e+13	0.000000e+00	4.773869e-01	6.803999e+14	2.052140e+15	7.200596e+14	1.844278e+04	9.617431e+03	2.659043e+03	0	1.164326e-03
5.600000e+08	3.676414e+13	0.000000e+00	4.773869e-01	6.766584e+14	2.035673e+15	7.164974e+14	1.842817e+04	9.608243e+03	2.656502e+03	0	1.159910e-03
5.700000e+08	3.634736e+13	0.000000e+00	4.773869e-01	6.729571e+14	2.019507e+15	7.129604e+14	1.841364e+04	9.599184e+03	2.653998e+03	0	1.155510e-03
5.800000e+08	3.593520e+13	0.000000e+00	4.773869e-01	6.692952e+14	2.003635e+15	7.094486e+14	1.839918e+04	9.590250e+03	2.651527e+03	0	1.151126e-03
5.900000e+08	3.552760e+13	0.000000e+00	4.773869e-01	6.656721e+14	1.988046e+15	7.059616e+14	1.838481e+04	9.581437e+03	2.649091e+03	0	1.146757e-03
6.000000e+08	3.512446e+13	0.000000e+00	4.773869e-01	6.620871e+14	1.972734e+15	7.024993e+14	1.837051e+04	9.572744e+03	2.646688e+03	0	1.142403e-03
6.100000e+08	3.472572e+13	0.000000e+00	4.773869e-01	6.585395e+14	1.957689e+15	6.990616e+14	1.835629e+04	9.564167e+03	2.644316e+03	0	1.138063e-03
6.200000e+08	3.433129e+13	0.000000e+00	4.773869e-01	6.550288e+14	1.942904e+15	6.956481e+14	1.834215e+04	9.555703e+03	2.641976e+03	0	1.133738e-03
6.300000e+08	3.394111e+13	0.000000e+00	4.773869e-01	6.515542e+14	1.928373e+15	6.922587e+14	1.832808e+04	9.547349e+03	2.639666e+03	0	1.129427e-03
6.400000e+08	3.355509e+13	0.000000e+00	4.773869e-01	6.481153e+14	1.914088e+15	6.888932e+14	1.831408e+04	9.539103e+03	2.637386e+03	0	1.125129e-03
6.500000e+08	3.317319e+13	0.000000e+00	4.773869e-01	6.447113e+14	1.900041e+15	6.855514e+14	1.830016e+04	9.530962e+03	2.635135e+03	0	1.120844e-03
6.600000e+08	3.279531e+13	0.000000e+00	4.773869e-01	6.413418e+14	1.886228e+15	6.822331e+14	1.828631e+04	9.522923e+03	2.632913e+03	0	1.116572e-03
6.700000e+08	3.242141e+13	0.000000e+00	4.773869e-01	6.380062e+14	1.872640e+15	6.789382e+14	1.827254e+04	9.514984e+03	2.630718e+03	0	1.112312e-03
6.800000e+08	3.205140e+13	0.000000e+00	4.773869e-01	6.347040e+14	1.859273e+15	6.756664e+14	1.825884e+04	9.507143e+03	2.628550e+03	0	1.108065e-03
6.900000e+08	3.168524e+13	0.000000e+00	4.773869e-01	6.314345e+14	1.846121e+15	6.724175e+14	1.824520e+04	9.499397e+03	2.626408e+03	0	1.103829e-03
7.000000e+08	3.132285e+13	0.000000e+00	4.773869e-01	6.281974e+14	1.833177e+15	6.691915e+14	1.823164e+04	9.491745e+03	2.624293e+03	0	1.099604e-03
7.100000e+08	3.096418e+13	0.000000e+00	4.773869e-01	6.249920e+14	1.820436e+15	6.659880e+14	1.821815e+04	9.484183e+03	2.622202e+03	0	1.095391e-03
7.200000e+08	3.060917e+13	0.000000e+00	4.773869e-01	6.218179e+14	1.807894e+15	6.628069e+14	1.820472e+04	9.476710e+03	2.620136e+03	0	1.091189e-03
7.300000e+08	3.025775e+13	0.000000e+00	4.773869e-01	6.186745e+14	1.795544e+15	6.596480e+14	1.819136e+04	9.469325e+03	2.618094e+03	0	1.086997e-03
7.400000e+08	2.990988e+13	0.000000e+00	4.773869e-01	6.155615e+14	1.783383e+15	6.565112e+14	1.817807e+04	9.462024e+03	2.616075e+03	0	1.082815e-03
7.500000e+08	2.956550e+13	0.000000e+00	4.773869e-01	6.124784e+14	1.771405e+15	6.533963e+14	1.816485e+04	9.454806e+03	2.614080e+03	0	1.078643e-03
7.600000e+08	2.922455e+13	0.000000e+00	4.773869e-01	6.094246e+14	1.759605e+15	6.503031e+14	1.815170e+04	9.447669e+03	2.612107e+03	0	1.074481e-03
7.700000e+08	2.888698e+13	0.000000e+00	4.773869e-01	6.063998e+14	1.747980e+15	6.472313e+14	1.813860e+04	9.440612e+03	2.610155e+03	0	1.070328e-03
7.800000e+08	2.855273e+13	0.000000e+00	4.773869e-01	6.034035e+14	1.736526e+15	6.441810e+14	1.812558e+04	9.433632e+03	2.608226e+03	0	1.066184e-03
7.900000e+08	2.822177e+13	0.000000e+00	4.773869e-01	6.004353e+14	1.725237e+15	6.411518e+14	1.811262e+04	9.426729e+03	2.606317e+03	0	1.062048e-03
8.000000e+08	2.789403e+13	0.000000e+00	4.773869e-01	5.974948e+14	1.714110e+15	6.381436e+14	1.809972e+04	9.419899e+03	2.604429e+03	0	1.057921e-03
8.100000e+08	2.756948e+13	0.000000e+00	4.773869e-01	5.945815e+14	1.703142e+15	6.351563e+14	1.808688e+04	9.413143e+03	2.602561e+03	0	1.053802e-03
8.200000e+08	2.724806e+13	0.000000e+00	4.773869e-01	5.916951e+14	1.692328e+15	6.321896e+14	1.807411e+04	9.406457e+03	2.600712e+03	0	1.049690e-03
8.300000e+08	2.692972e+13	0.000000e+00	4.773869e-01	5.888351e+14	1.681665e+15	6.292435e+14	1.806140e+04	9.399842e+03	2.598883e+03	0	1.045587e-03
8.400000e+08	2.661442e+13	0.000000e+00	4.773869e-01	5.860013e+14	1.671149e+15	6.263177e+14	1.804875e+04	9.393294e+03	2.597073e+03	0	1.041490e-03
8.500000e+08	2.630212e+13	0.000000e+00	4.773869e-01	5.831931e+14	1.660777e+15	6.234121e+14	1.803616e+04	9.386814e+03	2.595281e+03	0	1.037400e-03
8.600000e+08	2.599277e+13	0.000000e+00	4.773869e-01	5.804103e+14	1.650546e+15	6.205265e+14	1.802363e+04	9.380399e+03	2.593508e+03	0	1.033317e-03
8.700000e+08	2.568633e+13	0.000000e+00	4.773869e-01	5.776525e+14	1.640452e+15	6.176608e+14	1.801116e+04	9.374048e+03	2.591752e+03	0	1.029240e-03
8.800000e+08	2.538276e+13	0.000000e+00	4.773869e-01	5.749194e+14	1.630493e+15	6.148148e+14	1.799876e+04	9.367760e+03	2.590013e+03	0	1.025170e-03
8.900000e+08	2.508201e+13	0.000000e+00	4.773869e-01	5.722105e+14	1.620665e+15	6.119884e+14	1.798640e+04	9.361533e+03	2.588292e+03	0	1.021105e-03
9.000000e+08	2.478405e+13	0.000000e+00	4.773869e-01	5.695255e+14	1.610966e+15	6.091813e+14	1.797411e+04	9.355367e+03	2.586587e+03	0	1.017045e-03
9.100000e+08	2.448884e+13	0.000000e+00	4.773869e-01	5.668642e+14	1.601393e+15	6.063935e+14	1.796188e+04	9.349260e+03	2.584898e+03	0	1.012991e-03
9.200000e+08	2.419634e+13	0.000000e+00	4.773869e-01	5.642262e+14	1.591943e+15	6.036248e+14	1.794970e+04	9.343211e+03	2.583226e+03	0	1.008941e-03
9.300000e+08	2.390651e+13	0.000000e+00	4.773869e-01	5.616111e+14	1.582613e+15	6.008750e+14	1.793758e+04	9.337219e+03	2.581569e+03	0	1.004897e-03
9.400000e+08	2.361931e+13	0.000000e+00	4.773869e-01	5.590187e+14	1.573401e+15	5.981440e+14	1.792551e+04	9.331283e+03	2.579928e+03	0	1.000857e-03
9.500000e+08	2.333471e+13	0.000000e+00	4.773869e-01	5.564487e+14	1.564304e+15	5.954317e+14	1.791350e+04	9.325401e+03	2.578302e+03	0	9.968203e-04
9.600000e+08	2.305267e+13	0.000000e+00	4.773869e-01	5.539007e+14	1.555320e+15	5.927379e+14	1.790155e+04	9.319573e+03	2.576690e+03	0	9.927879e-04
9.700000e+08	2.277316e+13	0.000000e+00	4.773869e-01	5.513745e+14	1.546447e+15	5.900624e+14	1.788965e+04	9.313798e+03	2.575094e+03	0	9.887591e-04
9.800000e+08	2.249614e+13	0.000000e+00	4.773869e-01	5.488697e+14	1.537683e+15	5.874051e+14	1.787780e+04	9.308074e+03	2.573511e+03	0	9.847336e-04
9.900000e+08	2.222158e+13	0.000000e+00	4.773869e-01	5.463861e+14	1.529024e+15	5.847658e+14	1.786601e+04	9.302401e+03	2.571943e+03	0	9.807110e-04
1.000000e+09	2.194945e+13	0.000000e+00	4.773869e-01	5.439234e+14	1.520469e+15	5.821445e+14	1.785427e+04	9.296778e+03	2.570388e+03	0	9.766912e-04
1.010000e+09	2.167971e+13	0.000000e+00	4.773869e-01	5.414814e+14	1.512017e+15	5.795410e+14	1.784258e+04	9.291203e+03	2.568847e+03	0	9.726738e-04
1.020000e+09	2.141233e+13	0.000000e+00	4.773869e-01	5.390597e+14	1.503664e+15	5.769551e+14	1.783095e+04	9.285676e+03	2.567319e+03	0	9.686585e-04
1.030000e+09	2.114728e+13	0.000000e+00	4.773869e-01	5.366581e+14	1.495409e+15	5.743867e+14	1.781937e+04	9.280197e+03	2.565804e+03	0	9.646451e-04
1.040000e+09	2.088453e+13	0.000000e+00	4.773869e-01	5.342764e+14	1.487250e+15	5.718356e+14	1.780784e+04	9.274764e+03	2.564301e+03	0	9.606333e-04
1.050000e+09	2.062405e+13	0.000000e+00	4.773869e-01	5.319142e+14	1.479186e+15	5.693018e+14	1.779636e+04	9.269376e+03	2.562812e+03	0	9.566229e-04
1.060000e+09	2.036582e+13	0.000000e+00	4.773869e-01	5.295714e+14	1.471213e+15	5.667851e+14	1.778493e+04	9.264032e+03	2.561334e+03	0	9.526134e-04
1.070000e+09	2.010979e+13	0.000000e+00	4.773869e-01	5.272477e+14	1.463331e+15	5.642853e+14	1.777355e+04	9.258733e+03	2.559869e+03	0	9.486047e-04
1.080000e+09	1.985595e+13	0.000000e+00	4.773869e-01	5.249428e+14	1.455538e+15	5.618023e+14	1.776222e+04	9.253476e+03	2.558416e+03	0	9.445965e-04
1.090000e+09	1.960427e+13	0.000000e+00	4.773869e-01	5.226566e+14	1.447833e+15	5.593361e+14	1.775094e+04	9.248262e+03	2.556974e+03	0	9.405884e-04
1.100000e+09	1.935471e+13	0.000000e+00	4.773869e-01	5.203887e+14	1.440212e+15	5.568864e+14	1.773971e+04	9.243090e+03	2.555544e+03	0	9.365802e-04
1.110000e+09	1.910725e+13	0.000000e+00	4.773869e-01	5.181390e+14	1.432676e+15	5.544531e+14	1.772853e+04	9.237958e+03	2.554125e+03	0	9.325716e-04
1.120000e+09	1.886187e+13	0.000000e+00	4.773869e-01	5.159072e+14	1.425222e+15	5.520361e+14	1.771740e+04	9.232866e+03	2.552718e+03	0	9.285622e-04
1.130000e+09	1.861854e+13	0.000000e+00	4.773869e-01	5.136932e+14	1.417849e+15	5.496353e+14	1.770632e+04	9.227814e+03	2.551321e+03	0	9.245519e-04
1.140000e+09	1.837723e+13	0.000000e+00	4.773869e-01	5.114966e+14	1.410556e+15	5.472506e+14	1.769528e+04	9.222801e+03	2.549935e+03	0	9.205402e-04
1.150000e+09	1.813792e+13	0.000000e+00	4.773869e-01	5.093174e+14	1.403340e+15	5.448818e+14	1.768429e+04	9.217826e+03	2.548559e+03	0	9.165270e-04
1.160000e+09	1.790059e+13	0.000000e+00	4.773869e-01	5.071552e+14	1.396201e+15	5.425288e+14	1.767334e+04	9.212888e+03	2.547194e+03	0	9.125118e-04
1.170000e+09	1.766520e+13	0.000000e+00	4.773869e-01	5.050099e+14	1.389138e+15	5.401914e+14	1.766245e+04	9.207988e+03	2.545839e+03	0	9.084944e-04
1.180000e+09	1.743174e+13	0.000000e+00	4.773869e-01	5.028812e+14	1.382148e+15	5.378696e+14	1.765160e+04	9.203124e+03	2.544494e+03	0	9.044744e-04
1.190000e+09	1.720018e+13	0.000000e+00	4.773869e-01	5.007690e+14	1.375231e+15	5.355632e+14	1.764079e+04	9.198295e+03	2.543159e+03	0	9.004516e-04
1.200000e+09	1.697050e+13	0.000000e+00	4.773869e-01	4.986731e+14	1.368386e+15	5.332722e+14	1.763003e+04	9.193502e+03	2.541834e+03	0	8.964256e-04
1.210000e+09	1.674268e+13	0.000000e+00	4.773869e-01	4.965933e+14	1.361611e+15	5.309963e+14	1.761931e+04	9.188743e+03	2.540518e+03	0	8.923962e-04
1.220000e+09	1.651669e+13	0.000000e+00	4.773869e-01	4.945294e+14	1.354904e+15	5.287356e+14	1.760864e+04	9.184019e+03	2.539212e+03	0	8.883629e-04
1.230000e+09	1.629251e+13	0.000000e+00	4.773869e-01	4.924812e+14	1.348266e+15	5.264897e+14	1.759802e+04	9.179328e+03	2.537915e+03	0	8.843254e-04
1.240000e+09	1.607013e+13	0.000000e+00	4.773869e-01	4.904485e+14	1.341694e+15	5.242588e+14	1.758744e+04	9.174670e+03	2.536627e+03	0	8.802834e-04
1.250000e+09	1.584951e+13	0.000000e+00	4.773869e-01	4.884312e+14	1.335188e+15	5.220425e+14	1.757690e+04	9.170044e+03	2.535348e+03	0	8.762366e-04
1.260000e+09	1.563065e+13	0.000000e+00	4.773869e-01	4.864291e+14	1.328746e+15	5.198409e+14	1.756640e+04	9.165451e+03	2.534078e+03	0	8.721846e-04
1.270000e+09	1.541351e+13	0.000000e+00	4.773869e-01	4.844419e+14	1.322368e+15	5.176537e+14	1.755595e+04	9.160889e+03	2.532817e+03	0	8.681271e-04
1.280000e+09	1.519809e+13	0.000000e+00	4.773869e-01	4.824696e+14	1.316052e+15	5.154810e+14	1.754554e+04	9.156358e+03	2.531564e+03	0	8.640636e-04
1.290000e+09	1.498435e+13	0.000000e+00	4.773869e-01	4.805120e+14	1.309798e+15	5.133225e+14	1.753517e+04	9.151857e+03	2.530320e+03	0	8.599939e-04
1.300000e+09	1.477228e+13	0.000000e+00	4.773869e-01	4.785688e+14	1.303604e+15	5.111782e+14	1.752485e+04	9.147387e+03	2.529084e+03	0	8.559176e-04
1.310000e+09	1.456186e+13	0.000000e+00	4.773869e-01	4.766400e+14	1.297469e+15	5.090480e+14	1.751456e+04	9.142947e+03	2.527856e+03	0	8.518342e-04
1.320000e+09	1.435308e+13	0.000000e+00	4.773869e-01	4.747253e+14	1.291393e+15	5.069317e+14	1.750432e+04	9.138535e+03	2.526637e+03	0	8.477434e-04
1.330000e+09	1.414590e+13	0.000000e+00	4.773869e-01	4.728247e+14	1.285374e+15	5.048292e+14	1.749412e+04	9.134153e+03	2.525425e+03	0	8.436448e-04
1.340000e+09	1.394033e+13	0.000000e+00	4.773869e-01	4.709379e+14	1.279413e+15	5.027405e+14	1.748396e+04	9.129799e+03	2.524221e+03	0	8.395381e-04
1.350000e+09	1.373632e+13	0.000000e+00	4.773869e-01	4.690648e+14	1.273507e+15	5.006654e+14	1.747384e+04	9.125473e+03	2.523025e+03	0	8.354227e-04
1.360000e+09	1.353388e+13	0.000000e+00	4.773869e-01	4.672053e+14	1.267656e+15	4.986039e+14	1.746376e+04	9.121174e+03	2.521837e+03	0	8.312983e-04
