#t		Qconv[W]	Ri[Rp]		R*[Rp]		Qc[W]		Qm[W]		Qr[W]		Tcmb[K]		Tl[K]		Tup[K]		RiFlag		Bs[T]
0.000000e+00	7.854167e+13	0.000000e+00	4.723619e-01	1.115322e+15	3.880145e+15	1.035907e+15	2.074265e+04	1.118399e+04	2.949057e+03	0	1.502511e-03
1.000000e+07	7.756264e+13	0.000000e+00	4.723619e-01	1.106958e+15	3.822338e+15	1.030168e+15	2.072041e+04	1.116110e+04	2.943020e+03	0	1.496241e-03
2.000000e+07	7.659896e+13	0.000000e+00	4.723619e-01	1.098720e+15	3.766474e+15	1.024471e+15	2.069833e+04	1.113878e+04	2.937136e+03	0	1.490019e-03
3.000000e+07	7.565026e+13	0.000000e+00	4.723619e-01	1.090607e+15	3.712455e+15	1.018817e+15	2.067643e+04	1.111701e+04	2.931397e+03	0	1.483842e-03
4.000000e+07	7.471619e+13	0.000000e+00	4.723619e-01	1.082614e+15	3.660190e+15	1.013205e+15	2.065468e+04	1.109578e+04	2.925797e+03	0	1.477710e-03
5.000000e+07	7.379640e+13	0.000000e+00	4.723619e-01	1.074740e+15	3.609595e+15	1.007635e+15	2.063309e+04	1.107505e+04	2.920331e+03	0	1.471621e-03
6.000000e+07	7.289055e+13	0.000000e+00	4.723619e-01	1.066980e+15	3.560588e+15	1.002106e+15	2.061166e+04	1.105481e+04	2.914995e+03	0	1.465575e-03
7.000000e+07	7.199833e+13	0.000000e+00	4.723619e-01	1.059334e+15	3.513095e+15	9.966187e+14	2.059038e+04	1.103505e+04	2.909782e+03	0	1.459570e-03
8.000000e+07	7.111940e+13	0.000000e+00	4.723619e-01	1.051798e+15	3.467046e+15	9.911721e+14	2.056925e+04	1.101573e+04	2.904689e+03	0	1.453607e-03
9.000000e+07	7.025348e+13	0.000000e+00	4.723619e-01	1.044369e+15	3.422374e+15	9.857660e+14	2.054828e+04	1.099685e+04	2.899711e+03	0	1.447683e-03
1.000000e+08	6.940025e+13	0.000000e+00	4.723619e-01	1.037046e+15	3.379016e+15	9.804000e+14	2.052745e+04	1.097839e+04	2.894843e+03	0	1.441798e-03
1.100000e+08	6.855943e+13	0.000000e+00	4.723619e-01	1.029825e+15	3.336914e+15	9.750738e+14	2.050677e+04	1.096033e+04	2.890081e+03	0	1.435952e-03
1.200000e+08	6.773074e+13	0.000000e+00	4.723619e-01	1.022705e+15	3.296013e+15	9.697871e+14	2.048623e+04	1.094266e+04	2.885423e+03	0	1.430143e-03
1.300000e+08	6.691391e+13	0.000000e+00	4.723619e-01	1.015684e+15	3.256261e+15	9.645396e+14	2.046584e+04	1.092537e+04	2.880863e+03	0	1.424370e-03
1.400000e+08	6.610867e+13	0.000000e+00	4.723619e-01	1.008758e+15	3.217607e+15	9.593309e+14	2.044558e+04	1.090844e+04	2.876399e+03	0	1.418634e-03
1.500000e+08	6.531476e+13	0.000000e+00	4.723619e-01	1.001926e+15	3.180006e+15	9.541607e+14	2.042546e+04	1.089186e+04	2.872027e+03	0	1.412932e-03
1.600000e+08	6.453195e+13	0.000000e+00	4.723619e-01	9.951869e+14	3.143414e+15	9.490287e+14	2.040548e+04	1.087562e+04	2.867744e+03	0	1.407265e-03
1.700000e+08	6.375997e+13	0.000000e+00	4.723619e-01	9.885374e+14	3.107788e+15	9.439346e+14	2.038563e+04	1.085970e+04	2.863547e+03	0	1.401630e-03
1.800000e+08	6.299861e+13	0.000000e+00	4.723619e-01	9.819759e+14	3.073090e+15	9.388780e+14	2.036591e+04	1.084410e+04	2.859433e+03	0	1.396029e-03
1.900000e+08	6.224763e+13	0.000000e+00	4.723619e-01	9.755007e+14	3.039282e+15	9.338587e+14	2.034633e+04	1.082880e+04	2.855400e+03	0	1.390460e-03
2.000000e+08	6.150681e+13	0.000000e+00	4.723619e-01	9.691100e+14	3.006330e+15	9.288763e+14	2.032687e+04	1.081380e+04	2.851444e+03	0	1.384922e-03
2.100000e+08	6.077593e+13	0.000000e+00	4.723619e-01	9.628019e+14	2.974198e+15	9.239305e+14	2.030754e+04	1.079908e+04	2.847563e+03	0	1.379414e-03
2.200000e+08	6.005479e+13	0.000000e+00	4.723619e-01	9.565747e+14	2.942856e+15	9.190211e+14	2.028833e+04	1.078464e+04	2.843755e+03	0	1.373937e-03
2.300000e+08	5.934319e+13	0.000000e+00	4.723619e-01	9.504268e+14	2.912273e+15	9.141476e+14	2.026925e+04	1.077047e+04	2.840017e+03	0	1.368488e-03
2.400000e+08	5.864092e+13	0.000000e+00	4.723619e-01	9.443566e+14	2.882421e+15	9.093100e+14	2.025030e+04	1.075655e+04	2.836347e+03	0	1.363069e-03
2.500000e+08	5.794780e+13	0.000000e+00	4.723619e-01	9.383625e+14	2.853272e+15	9.045077e+14	2.023146e+04	1.074288e+04	2.832743e+03	0	1.357677e-03
2.600000e+08	5.726363e+13	0.000000e+00	4.723619e-01	9.324429e+14	2.824801e+15	8.997406e+14	2.021274e+04	1.072946e+04	2.829204e+03	0	1.352313e-03
2.700000e+08	5.658825e+13	0.000000e+00	4.723619e-01	9.265964e+14	2.796982e+15	8.950084e+14	2.019414e+04	1.071627e+04	2.825726e+03	0	1.346975e-03
2.800000e+08	5.592146e+13	0.000000e+00	4.723619e-01	9.208216e+14	2.769792e+15	8.903107e+14	2.017566e+04	1.070331e+04	2.822308e+03	0	1.341664e-03
2.900000e+08	5.526311e+13	0.000000e+00	4.723619e-01	9.151169e+14	2.743208e+15	8.856473e+14	2.015729e+04	1.069057e+04	2.818948e+03	0	1.336378e-03
3.000000e+08	5.461302e+13	0.000000e+00	4.723619e-01	9.094812e+14	2.717210e+15	8.810179e+14	2.013903e+04	1.067804e+04	2.815645e+03	0	1.331117e-03
3.100000e+08	5.397103e+13	0.000000e+00	4.723619e-01	9.039130e+14	2.691777e+15	8.764222e+14	2.012089e+04	1.066572e+04	2.812397e+03	0	1.325881e-03
3.200000e+08	5.333699e+13	0.000000e+00	4.723619e-01	8.984110e+14	2.666889e+15	8.718599e+14	2.010286e+04	1.065360e+04	2.809202e+03	0	1.320668e-03
3.300000e+08	5.271074e+13	0.000000e+00	4.723619e-01	8.929740e+14	2.642528e+15	8.673309e+14	2.008494e+04	1.064168e+04	2.806058e+03	0	1.315479e-03
3.400000e+08	5.209213e+13	0.000000e+00	4.723619e-01	8.876008e+14	2.618675e+15	8.628347e+14	2.006712e+04	1.062995e+04	2.802965e+03	0	1.310312e-03
3.500000e+08	5.148102e+13	0.000000e+00	4.723619e-01	8.822902e+14	2.595315e+15	8.583711e+14	2.004941e+04	1.061841e+04	2.799920e+03	0	1.305168e-03
3.600000e+08	5.087726e+13	0.000000e+00	4.723619e-01	8.770409e+14	2.572431e+15	8.539399e+14	2.003181e+04	1.060704e+04	2.796923e+03	0	1.300046e-03
3.700000e+08	5.028072e+13	0.000000e+00	4.723619e-01	8.718519e+14	2.550007e+15	8.495408e+14	2.001432e+04	1.059585e+04	2.793972e+03	0	1.294945e-03
3.800000e+08	4.969126e+13	0.000000e+00	4.723619e-01	8.667221e+14	2.528029e+15	8.451735e+14	1.999692e+04	1.058483e+04	2.791066e+03	0	1.289865e-03
3.900000e+08	4.910876e+13	0.000000e+00	4.723619e-01	8.616504e+14	2.506482e+15	8.408378e+14	1.997963e+04	1.057397e+04	2.788203e+03	0	1.284805e-03
4.000000e+08	4.853308e+13	0.000000e+00	4.723619e-01	8.566357e+14	2.485352e+15	8.365334e+14	1.996244e+04	1.056327e+04	2.785383e+03	0	1.279765e-03
4.100000e+08	4.796411e+13	0.000000e+00	4.723619e-01	8.516771e+14	2.464627e+15	8.322601e+14	1.994535e+04	1.055273e+04	2.782603e+03	0	1.274744e-03
4.200000e+08	4.740171e+13	0.000000e+00	4.723619e-01	8.467734e+14	2.444295e+15	8.280175e+14	1.992836e+04	1.054234e+04	2.779864e+03	0	1.269742e-03
4.300000e+08	4.684578e+13	0.000000e+00	4.723619e-01	8.419239e+14	2.424342e+15	8.238055e+14	1.991146e+04	1.053210e+04	2.777164e+03	0	1.264759e-03
4.400000e+08	4.629619e+13	0.000000e+00	4.723619e-01	8.371274e+14	2.404759e+15	8.196238e+14	1.989467e+04	1.052201e+04	2.774502e+03	0	1.259793e-03
4.500000e+08	4.575284e+13	0.000000e+00	4.723619e-01	8.323832e+14	2.385532e+15	8.154722e+14	1.987796e+04	1.051205e+04	2.771877e+03	0	1.254845e-03
4.600000e+08	4.521562e+13	0.000000e+00	4.723619e-01	8.276902e+14	2.366653e+15	8.113504e+14	1.986136e+04	1.050224e+04	2.769288e+03	0	1.249915e-03
4.700000e+08	4.468442e+13	0.000000e+00	4.723619e-01	8.230477e+14	2.348111e+15	8.072581e+14	1.984484e+04	1.049255e+04	2.766734e+03	0	1.245000e-03
4.800000e+08	4.415913e+13	0.000000e+00	4.723619e-01	8.184547e+14	2.329895e+15	8.031951e+14	1.982842e+04	1.048299e+04	2.764215e+03	0	1.240103e-03
4.900000e+08	4.363965e+13	0.000000e+00	4.723619e-01	8.139104e+14	2.311998e+15	7.991612e+14	1.981209e+04	1.047357e+04	2.761728e+03	0	1.235221e-03
5.000000e+08	4.312589e+13	0.000000e+00	4.723619e-01	8.094140e+14	2.294409e+15	7.951562e+14	1.979585e+04	1.046426e+04	2.759275e+03	0	1.230354e-03
5.100000e+08	4.261775e+13	0.000000e+00	4.723619e-01	8.049648e+14	2.277120e+15	7.911798e+14	1.977970e+04	1.045507e+04	2.756853e+03	0	1.225503e-03
5.200000e+08	4.211514e+13	0.000000e+00	4.723619e-01	8.005619e+14	2.260122e+15	7.872318e+14	1.976364e+04	1.044601e+04	2.754461e+03	0	1.220666e-03
5.300000e+08	4.161795e+13	0.000000e+00	4.723619e-01	7.962045e+14	2.243408e+15	7.833119e+14	1.974766e+04	1.043705e+04	2.752101e+03	0	1.215844e-03
5.400000e+08	4.112611e+13	0.000000e+00	4.723619e-01	7.918920e+14	2.226970e+15	7.794199e+14	1.973178e+04	1.042821e+04	2.749769e+03	0	1.211035e-03
5.500000e+08	4.063952e+13	0.000000e+00	4.723619e-01	7.876235e+14	2.210800e+15	7.755557e+14	1.971597e+04	1.041948e+04	2.747467e+03	0	1.206240e-03
5.600000e+08	4.015809e+13	0.000000e+00	4.723619e-01	7.833985e+14	2.194891e+15	7.717189e+14	1.970026e+04	1.041085e+04	2.745192e+03	0	1.201458e-03
5.700000e+08	3.968176e+13	0.000000e+00	4.723619e-01	7.792162e+14	2.179236e+15	7.679093e+14	1.968463e+04	1.040233e+04	2.742945e+03	0	1.196689e-03
5.800000e+08	3.921042e+13	0.000000e+00	4.723619e-01	7.750758e+14	2.163829e+15	7.641268e+14	1.966908e+04	1.039391e+04	2.740725e+03	0	1.191932e-03
5.900000e+08	3.874400e+13	0.000000e+00	4.723619e-01	7.709769e+14	2.148663e+15	7.603711e+14	1.965361e+04	1.038559e+04	2.738530e+03	0	1.187187e-03
6.000000e+08	3.828243e+13	0.000000e+00	4.723619e-01	7.669186e+14	2.133731e+15	7.566420e+14	1.963823e+04	1.037737e+04	2.736362e+03	0	1.182453e-03
6.100000e+08	3.782563e+13	0.000000e+00	4.723619e-01	7.629005e+14	2.119029e+15	7.529393e+14	1.962292e+04	1.036924e+04	2.734218e+03	0	1.177731e-03
6.200000e+08	3.737351e+13	0.000000e+00	4.723619e-01	7.589218e+14	2.104549e+15	7.492627e+14	1.960770e+04	1.036120e+04	2.732099e+03	0	1.173020e-03
6.300000e+08	3.692602e+13	0.000000e+00	4.723619e-01	7.549819e+14	2.090287e+15	7.456121e+14	1.959255e+04	1.035325e+04	2.730003e+03	0	1.168320e-03
6.400000e+08	3.648307e+13	0.000000e+00	4.723619e-01	7.510803e+14	2.076237e+15	7.419872e+14	1.957749e+04	1.034539e+04	2.727931e+03	0	1.163629e-03
6.500000e+08	3.604460e+13	0.000000e+00	4.723619e-01	7.472164e+14	2.062393e+15	7.383879e+14	1.956250e+04	1.033762e+04	2.725882e+03	0	1.158949e-03
6.600000e+08	3.561053e+13	0.000000e+00	4.723619e-01	7.433896e+14	2.048752e+15	7.348138e+14	1.954759e+04	1.032994e+04	2.723855e+03	0	1.154278e-03
6.700000e+08	3.518081e+13	0.000000e+00	4.723619e-01	7.395994e+14	2.035307e+15	7.312650e+14	1.953275e+04	1.032233e+04	2.721850e+03	0	1.149616e-03
6.800000e+08	3.475536e+13	0.000000e+00	4.723619e-01	7.358452e+14	2.022055e+15	7.277410e+14	1.951799e+04	1.031481e+04	2.719866e+03	0	1.144963e-03
6.900000e+08	3.433412e+13	0.000000e+00	4.723619e-01	7.321265e+14	2.008990e+15	7.242418e+14	1.950331e+04	1.030736e+04	2.717903e+03	0	1.140318e-03
7.000000e+08	3.391703e+13	0.000000e+00	4.723619e-01	7.284427e+14	1.996108e+15	7.207670e+14	1.948870e+04	1.030000e+04	2.715961e+03	0	1.135682e-03
7.100000e+08	3.350403e+13	0.000000e+00	4.723619e-01	7.247934e+14	1.983405e+15	7.173167e+14	1.947416e+04	1.029271e+04	2.714038e+03	0	1.131054e-03
7.200000e+08	3.309505e+13	0.000000e+00	4.723619e-01	7.211781e+14	1.970877e+15	7.138904e+14	1.945970e+04	1.028549e+04	2.712135e+03	0	1.126433e-03
7.300000e+08	3.269004e+13	0.000000e+00	4.723619e-01	7.175962e+14	1.958520e+15	7.104881e+14	1.944530e+04	1.027835e+04	2.710252e+03	0	1.121819e-03
7.400000e+08	3.228894e+13	0.000000e+00	4.723619e-01	7.140473e+14	1.946329e+15	7.071095e+14	1.943098e+04	1.027127e+04	2.708387e+03	0	1.117212e-03
7.500000e+08	3.189169e+13	0.000000e+00	4.723619e-01	7.105309e+14	1.934302e+15	7.037545e+14	1.941673e+04	1.026427e+04	2.706541e+03	0	1.112611e-03
7.600000e+08	3.149823e+13	0.000000e+00	4.723619e-01	7.070466e+14	1.922434e+15	7.004229e+14	1.940255e+04	1.025734e+04	2.704712e+03	0	1.108016e-03
7.700000e+08	3.110852e+13	0.000000e+00	4.723619e-01	7.035939e+14	1.910722e+15	6.971144e+14	1.938844e+04	1.025047e+04	2.702901e+03	0	1.103428e-03
7.800000e+08	3.072250e+13	0.000000e+00	4.723619e-01	7.001723e+14	1.899163e+15	6.938290e+14	1.937440e+04	1.024367e+04	2.701108e+03	0	1.098845e-03
7.900000e+08	3.034011e+13	0.000000e+00	4.723619e-01	6.967815e+14	1.887753e+15	6.905663e+14	1.936042e+04	1.023693e+04	2.699332e+03	0	1.094267e-03
8.000000e+08	2.996131e+13	0.000000e+00	4.723619e-01	6.934209e+14	1.876489e+15	6.873263e+14	1.934652e+04	1.023026e+04	2.697572e+03	0	1.089694e-03
8.100000e+08	2.958604e+13	0.000000e+00	4.723619e-01	6.900903e+14	1.865369e+15	6.841087e+14	1.933268e+04	1.022365e+04	2.695828e+03	0	1.085125e-03
8.200000e+08	2.921426e+13	0.000000e+00	4.723619e-01	6.867891e+14	1.854388e+15	6.809134e+14	1.931890e+04	1.021710e+04	2.694101e+03	0	1.080561e-03
8.300000e+08	2.884591e+13	0.000000e+00	4.723619e-01	6.835171e+14	1.843543e+15	6.777402e+14	1.930520e+04	1.021060e+04	2.692389e+03	0	1.076000e-03
8.400000e+08	2.848096e+13	0.000000e+00	4.723619e-01	6.802737e+14	1.832833e+15	6.745889e+14	1.929155e+04	1.020417e+04	2.690693e+03	0	1.071443e-03
8.500000e+08	2.811935e+13	0.000000e+00	4.723619e-01	6.770586e+14	1.822255e+15	6.714594e+14	1.927798e+04	1.019779e+04	2.689011e+03	0	1.066889e-03
8.600000e+08	2.776103e+13	0.000000e+00	4.723619e-01	6.738714e+14	1.811805e+15	6.683514e+14	1.926446e+04	1.019147e+04	2.687345e+03	0	1.062338e-03
8.700000e+08	2.740597e+13	0.000000e+00	4.723619e-01	6.707118e+14	1.801481e+15	6.652648e+14	1.925101e+04	1.018521e+04	2.685693e+03	0	1.057789e-03
8.800000e+08	2.705412e+13	0.000000e+00	4.723619e-01	6.675793e+14	1.791281e+15	6.621995e+14	1.923763e+04	1.017900e+04	2.684055e+03	0	1.053243e-03
8.900000e+08	2.670544e+13	0.000000e+00	4.723619e-01	6.644737e+14	1.781201e+15	6.591552e+14	1.922430e+04	1.017284e+04	2.682432e+03	0	1.048699e-03
9.000000e+08	2.635988e+13	0.000000e+00	4.723619e-01	6.613945e+14	1.771241e+15	6.561318e+14	1.921104e+04	1.016674e+04	2.680822e+03	0	1.044156e-03
9.100000e+08	2.601740e+13	0.000000e+00	4.723619e-01	6.583415e+14	1.761396e+15	6.531292e+14	1.919784e+04	1.016068e+04	2.679226e+03	0	1.039614e-03
9.200000e+08	2.567796e+13	0.000000e+00	4.723619e-01	6.553143e+14	1.751666e+15	6.501470e+14	1.918470e+04	1.015468e+04	2.677643e+03	0	1.035073e-03
9.300000e+08	2.534152e+13	0.000000e+00	4.723619e-01	6.523126e+14	1.742048e+15	6.471853e+14	1.917162e+04	1.014873e+04	2.676072e+03	0	1.030533e-03
9.400000e+08	2.500805e+13	0.000000e+00	4.723619e-01	6.493359e+14	1.732539e+15	6.442439e+14	1.915860e+04	1.014282e+04	2.674515e+03	0	1.025992e-03
9.500000e+08	2.467750e+13	0.000000e+00	4.723619e-01	6.463841e+14	1.723138e+15	6.413225e+14	1.914564e+04	1.013696e+04	2.672971e+03	0	1.021452e-03
9.600000e+08	2.434984e+13	0.000000e+00	4.723619e-01	6.434568e+14	1.713842e+15	6.384210e+14	1.913273e+04	1.013115e+04	2.671438e+03	0	1.016911e-03
9.700000e+08	2.402502e+13	0.000000e+00	4.723619e-01	6.405537e+14	1.704650e+15	6.355393e+14	1.911989e+04	1.012539e+04	2.669918e+03	0	1.012369e-03
9.800000e+08	2.370302e+13	0.000000e+00	4.723619e-01	6.376745e+14	1.695560e+15	6.326772e+14	1.910710e+04	1.011967e+04	2.668410e+03	0	1.007826e-03
9.900000e+08	2.338380e+13	0.000000e+00	4.723619e-01	6.348188e+14	1.686570e+15	6.298346e+14	1.909437e+04	1.011399e+04	2.666913e+03	0	1.003281e-03
1.000000e+09	2.306732e+13	0.000000e+00	4.723619e-01	6.319865e+14	1.677678e+15	6.270112e+14	1.908170e+04	1.010836e+04	2.665428e+03	0	9.987340e-04
1.010000e+09	2.275354e+13	0.000000e+00	4.723619e-01	6.291771e+14	1.668882e+15	6.242070e+14	1.906909e+04	1.010277e+04	2.663955e+03	0	9.941849e-04
1.020000e+09	2.244244e+13	0.000000e+00	4.723619e-01	6.263905e+14	1.660180e+15	6.214218e+14	1.905653e+04	1.009722e+04	2.662492e+03	0	9.896330e-04
1.030000e+09	2.213397e+13	0.000000e+00	4.723619e-01	6.236264e+14	1.651571e+15	6.186555e+14	1.904402e+04	1.009172e+04	2.661041e+03	0	9.850780e-04
1.040000e+09	2.182811e+13	0.000000e+00	4.723619e-01	6.208844e+14	1.643053e+15	6.159078e+14	1.903158e+04	1.008626e+04	2.659600e+03	0	9.805195e-04
1.050000e+09	2.152483e+13	0.000000e+00	4.723619e-01	6.181643e+14	1.634625e+15	6.131787e+14	1.901918e+04	1.008083e+04	2.658170e+03	0	9.759571e-04
1.060000e+09	2.122409e+13	0.000000e+00	4.723619e-01	6.154658e+14	1.626285e+15	6.104680e+14	1.900684e+04	1.007545e+04	2.656750e+03	0	9.713905e-04
1.070000e+09	2.092586e+13	0.000000e+00	4.723619e-01	6.127888e+14	1.618032e+15	6.077756e+14	1.899456e+04	1.007010e+04	2.655341e+03	0	9.668192e-04
1.080000e+09	2.063011e+13	0.000000e+00	4.723619e-01	6.101328e+14	1.609863e+15	6.051013e+14	1.898232e+04	1.006480e+04	2.653942e+03	0	9.622429e-04
1.090000e+09	2.033682e+13	0.000000e+00	4.723619e-01	6.074977e+14	1.601778e+15	6.024449e+14	1.897014e+04	1.005953e+04	2.652552e+03	0	9.576610e-04
1.100000e+09	2.004594e+13	0.000000e+00	4.723619e-01	6.048833e+14	1.593775e+15	5.998064e+14	1.895802e+04	1.005430e+04	2.651173e+03	0	9.530733e-04
1.110000e+09	1.975746e+13	0.000000e+00	4.723619e-01	6.022892e+14	1.585853e+15	5.971856e+14	1.894594e+04	1.004910e+04	2.649803e+03	0	9.484792e-04
1.120000e+09	1.947133e+13	0.000000e+00	4.723619e-01	5.997153e+14	1.578010e+15	5.945824e+14	1.893392e+04	1.004394e+04	2.648442e+03	0	9.438784e-04
1.130000e+09	1.918755e+13	0.000000e+00	4.723619e-01	5.971613e+14	1.570246e+15	5.919966e+14	1.892195e+04	1.003882e+04	2.647091e+03	0	9.392704e-04
1.140000e+09	1.890607e+13	0.000000e+00	4.723619e-01	5.946270e+14	1.562558e+15	5.894280e+14	1.891003e+04	1.003373e+04	2.645750e+03	0	9.346548e-04
1.150000e+09	1.862687e+13	0.000000e+00	4.723619e-01	5.921121e+14	1.554946e+15	5.868766e+14	1.889816e+04	1.002867e+04	2.644417e+03	0	9.300311e-04
1.160000e+09	1.834993e+13	0.000000e+00	4.723619e-01	5.896165e+14	1.547408e+15	5.843422e+14	1.888633e+04	1.002365e+04	2.643093e+03	0	9.253988e-04
1.170000e+09	1.807521e+13	0.000000e+00	4.723619e-01	5.871398e+14	1.539943e+15	5.818248e+14	1.887456e+04	1.001867e+04	2.641778e+03	0	9.207575e-04
1.180000e+09	1.780269e+13	0.000000e+00	4.723619e-01	5.846820e+14	1.532550e+15	5.793240e+14	1.886284e+04	1.001371e+04	2.640471e+03	0	9.161067e-04
1.190000e+09	1.753235e+13	0.000000e+00	4.723619e-01	5.822427e+14	1.525228e+15	5.768399e+14	1.885117e+04	1.000879e+04	2.639173e+03	0	9.114458e-04
1.200000e+09	1.726416e+13	0.000000e+00	4.723619e-01	5.798218e+14	1.517976e+15	5.743723e+14	1.883955e+04	1.000390e+04	2.637884e+03	0	9.067745e-04
1.210000e+09	1.699809e+13	0.000000e+00	4.723619e-01	5.774190e+14	1.510792e+15	5.719210e+14	1.882797e+04	9.999040e+03	2.636603e+03	0	9.020921e-04
1.220000e+09	1.673413e+13	0.000000e+00	4.723619e-01	5.750342e+14	1.503676e+15	5.694860e+14	1.881644e+04	9.994212e+03	2.635330e+03	0	8.973982e-04
1.230000e+09	1.647224e+13	0.000000e+00	4.723619e-01	5.726671e+14	1.496626e+15	5.670671e+14	1.880496e+04	9.989415e+03	2.634065e+03	0	8.926921e-04
1.240000e+09	1.621240e+13	0.000000e+00	4.723619e-01	5.703177e+14	1.489642e+15	5.646642e+14	1.879353e+04	9.984648e+03	2.632808e+03	0	8.879734e-04
1.250000e+09	1.595460e+13	0.000000e+00	4.723619e-01	5.679855e+14	1.482722e+15	5.622771e+14	1.878214e+04	9.979911e+03	2.631559e+03	0	8.832415e-04
1.260000e+09	1.569880e+13	0.000000e+00	4.723619e-01	5.656706e+14	1.475866e+15	5.599058e+14	1.877081e+04	9.975203e+03	2.630317e+03	0	8.784958e-04
1.270000e+09	1.544499e+13	0.000000e+00	4.723619e-01	5.633726e+14	1.469073e+15	5.575501e+14	1.875951e+04	9.970523e+03	2.629083e+03	0	8.737357e-04
1.280000e+09	1.519314e+13	0.000000e+00	4.723619e-01	5.610914e+14	1.462341e+15	5.552099e+14	1.874826e+04	9.965872e+03	2.627857e+03	0	8.689605e-04
1.290000e+09	1.494324e+13	0.000000e+00	4.723619e-01	5.588269e+14	1.455670e+15	5.528850e+14	1.873706e+04	9.961250e+03	2.626638e+03	0	8.641697e-04
1.300000e+09	1.469525e+13	0.000000e+00	4.723619e-01	5.565787e+14	1.449058e+15	5.505755e+14	1.872591e+04	9.956655e+03	2.625426e+03	0	8.593626e-04
1.310000e+09	1.444916e+13	0.000000e+00	4.723619e-01	5.543469e+14	1.442506e+15	5.482811e+14	1.871479e+04	9.952087e+03	2.624222e+03	0	8.545386e-04
1.320000e+09	1.420494e+13	0.000000e+00	4.723619e-01	5.521311e+14	1.436012e+15	5.460017e+14	1.870373e+04	9.947546e+03	2.623024e+03	0	8.496968e-04
1.330000e+09	1.396259e+13	0.000000e+00	4.723619e-01	5.499312e+14	1.429575e+15	5.437372e+14	1.869270e+04	9.943032e+03	2.621834e+03	0	8.448367e-04
1.340000e+09	1.372207e+13	0.000000e+00	4.723619e-01	5.477470e+14	1.423195e+15	5.414875e+14	1.868172e+04	9.938544e+03	2.620651e+03	0	8.399575e-04
1.350000e+09	1.348336e+13	0.000000e+00	4.723619e-01	5.455785e+14	1.416870e+15	5.392525e+14	1.867079e+04	9.934082e+03	2.619474e+03	0	8.350585e-04
1.360000e+09	1.324646e+13	0.000000e+00	4.723619e-01	5.434253e+14	1.410600e+15	5.370320e+14	1.865989e+04	9.929645e+03	2.618304e+03	0	8.301388e-04
