#t		Qconv[W]	Ri[Rp]		R*[Rp]		Qc[W]		Qm[W]		Qr[W]		Tcmb[K]		Tl[K]		Tup[K]		RiFlag		Bs[T]
0.000000e+00	8.416450e+13	0.000000e+00	4.723617e-01	1.356655e+15	3.629351e+15	1.172663e+15	2.283124e+04	1.225641e+04	3.015854e+03	0	1.531830e-03
1.000000e+07	8.313041e+13	0.000000e+00	4.723617e-01	1.348155e+15	3.597076e+15	1.166165e+15	2.280898e+04	1.224323e+04	3.012611e+03	0	1.525530e-03
2.000000e+07	8.210897e+13	0.000000e+00	4.723617e-01	1.339754e+15	3.565454e+15	1.159716e+15	2.278686e+04	1.223026e+04	3.009419e+03	0	1.519256e-03
3.000000e+07	8.109994e+13	0.000000e+00	4.723617e-01	1.331450e+15	3.534465e+15	1.153316e+15	2.276488e+04	1.221748e+04	3.006276e+03	0	1.513007e-03
4.000000e+07	8.010309e+13	0.000000e+00	4.723617e-01	1.323244e+15	3.504087e+15	1.146963e+15	2.274303e+04	1.220491e+04	3.003181e+03	0	1.506783e-03
5.000000e+07	7.911820e+13	0.000000e+00	4.723617e-01	1.315131e+15	3.474301e+15	1.140657e+15	2.272132e+04	1.219251e+04	3.000132e+03	0	1.500582e-03
6.000000e+07	7.814505e+13	0.000000e+00	4.723617e-01	1.307111e+15	3.445088e+15	1.134399e+15	2.269974e+04	1.218031e+04	2.997128e+03	0	1.494404e-03
7.000000e+07	7.718343e+13	0.000000e+00	4.723617e-01	1.299182e+15	3.416429e+15	1.128187e+15	2.267829e+04	1.216828e+04	2.994168e+03	0	1.488249e-03
8.000000e+07	7.623313e+13	0.000000e+00	4.723617e-01	1.291343e+15	3.388308e+15	1.122022e+15	2.265697e+04	1.215642e+04	2.991250e+03	0	1.482116e-03
9.000000e+07	7.529396e+13	0.000000e+00	4.723617e-01	1.283592e+15	3.360708e+15	1.115902e+15	2.263578e+04	1.214473e+04	2.988374e+03	0	1.476004e-03
1.000000e+08	7.436570e+13	0.000000e+00	4.723617e-01	1.275927e+15	3.333612e+15	1.109827e+15	2.261472e+04	1.213321e+04	2.985538e+03	0	1.469913e-03
1.100000e+08	7.344818e+13	0.000000e+00	4.723617e-01	1.268347e+15	3.307006e+15	1.103798e+15	2.259378e+04	1.212184e+04	2.982742e+03	0	1.463843e-03
1.200000e+08	7.254120e+13	0.000000e+00	4.723617e-01	1.260850e+15	3.280875e+15	1.097813e+15	2.257297e+04	1.211063e+04	2.979983e+03	0	1.457793e-03
1.300000e+08	7.164458e+13	0.000000e+00	4.723617e-01	1.253435e+15	3.255204e+15	1.091873e+15	2.255228e+04	1.209957e+04	2.977262e+03	0	1.451762e-03
1.400000e+08	7.075815e+13	0.000000e+00	4.723617e-01	1.246101e+15	3.229981e+15	1.085977e+15	2.253171e+04	1.208866e+04	2.974577e+03	0	1.445749e-03
1.500000e+08	6.988172e+13	0.000000e+00	4.723617e-01	1.238847e+15	3.205191e+15	1.080124e+15	2.251126e+04	1.207789e+04	2.971927e+03	0	1.439755e-03
1.600000e+08	6.901514e+13	0.000000e+00	4.723617e-01	1.231670e+15	3.180824e+15	1.074315e+15	2.249093e+04	1.206726e+04	2.969311e+03	0	1.433779e-03
1.700000e+08	6.815823e+13	0.000000e+00	4.723617e-01	1.224570e+15	3.156866e+15	1.068548e+15	2.247071e+04	1.205676e+04	2.966728e+03	0	1.427820e-03
1.800000e+08	6.731082e+13	0.000000e+00	4.723617e-01	1.217545e+15	3.133307e+15	1.062824e+15	2.245062e+04	1.204640e+04	2.964178e+03	0	1.421878e-03
1.900000e+08	6.647277e+13	0.000000e+00	4.723617e-01	1.210594e+15	3.110135e+15	1.057142e+15	2.243063e+04	1.203617e+04	2.961660e+03	0	1.415953e-03
2.000000e+08	6.564392e+13	0.000000e+00	4.723617e-01	1.203717e+15	3.087339e+15	1.051502e+15	2.241077e+04	1.202606e+04	2.959173e+03	0	1.410043e-03
2.100000e+08	6.482412e+13	0.000000e+00	4.723617e-01	1.196911e+15	3.064910e+15	1.045903e+15	2.239101e+04	1.201607e+04	2.956716e+03	0	1.404149e-03
2.200000e+08	6.401322e+13	0.000000e+00	4.723617e-01	1.190175e+15	3.042837e+15	1.040345e+15	2.237137e+04	1.200621e+04	2.954288e+03	0	1.398269e-03
2.300000e+08	6.321107e+13	0.000000e+00	4.723617e-01	1.183510e+15	3.021111e+15	1.034829e+15	2.235183e+04	1.199646e+04	2.951890e+03	0	1.392404e-03
2.400000e+08	6.241753e+13	0.000000e+00	4.723617e-01	1.176912e+15	2.999723e+15	1.029352e+15	2.233241e+04	1.198682e+04	2.949519e+03	0	1.386553e-03
2.500000e+08	6.163247e+13	0.000000e+00	4.723617e-01	1.170382e+15	2.978664e+15	1.023916e+15	2.231309e+04	1.197730e+04	2.947175e+03	0	1.380715e-03
2.600000e+08	6.085575e+13	0.000000e+00	4.723617e-01	1.163918e+15	2.957925e+15	1.018520e+15	2.229388e+04	1.196788e+04	2.944858e+03	0	1.374890e-03
2.700000e+08	6.008724e+13	0.000000e+00	4.723617e-01	1.157520e+15	2.937498e+15	1.013163e+15	2.227478e+04	1.195858e+04	2.942568e+03	0	1.369078e-03
2.800000e+08	5.932681e+13	0.000000e+00	4.723617e-01	1.151185e+15	2.917375e+15	1.007845e+15	2.225578e+04	1.194937e+04	2.940302e+03	0	1.363278e-03
2.900000e+08	5.857433e+13	0.000000e+00	4.723617e-01	1.144914e+15	2.897550e+15	1.002566e+15	2.223689e+04	1.194026e+04	2.938062e+03	0	1.357490e-03
3.000000e+08	5.782968e+13	0.000000e+00	4.723617e-01	1.138706e+15	2.878013e+15	9.973253e+14	2.221809e+04	1.193126e+04	2.935846e+03	0	1.351713e-03
3.100000e+08	5.709275e+13	0.000000e+00	4.723617e-01	1.132558e+15	2.858759e+15	9.921229e+14	2.219940e+04	1.192235e+04	2.933654e+03	0	1.345947e-03
3.200000e+08	5.636340e+13	0.000000e+00	4.723617e-01	1.126471e+15	2.839779e+15	9.869584e+14	2.218081e+04	1.191353e+04	2.931485e+03	0	1.340191e-03
3.300000e+08	5.564153e+13	0.000000e+00	4.723617e-01	1.120444e+15	2.821069e+15	9.818314e+14	2.216232e+04	1.190481e+04	2.929338e+03	0	1.334445e-03
3.400000e+08	5.492702e+13	0.000000e+00	4.723617e-01	1.114475e+15	2.802620e+15	9.767417e+14	2.214393e+04	1.189618e+04	2.927214e+03	0	1.328708e-03
3.500000e+08	5.421976e+13	0.000000e+00	4.723617e-01	1.108564e+15	2.784428e+15	9.716889e+14	2.212564e+04	1.188763e+04	2.925112e+03	0	1.322980e-03
3.600000e+08	5.351964e+13	0.000000e+00	4.723617e-01	1.102710e+15	2.766486e+15	9.666727e+14	2.210744e+04	1.187918e+04	2.923031e+03	0	1.317261e-03
3.700000e+08	5.282656e+13	0.000000e+00	4.723617e-01	1.096911e+15	2.748787e+15	9.616928e+14	2.208934e+04	1.187080e+04	2.920970e+03	0	1.311550e-03
3.800000e+08	5.214042e+13	0.000000e+00	4.723617e-01	1.091169e+15	2.731327e+15	9.567490e+14	2.207134e+04	1.186251e+04	2.918930e+03	0	1.305847e-03
3.900000e+08	5.146110e+13	0.000000e+00	4.723617e-01	1.085480e+15	2.714101e+15	9.518409e+14	2.205343e+04	1.185430e+04	2.916910e+03	0	1.300151e-03
4.000000e+08	5.078851e+13	0.000000e+00	4.723617e-01	1.079846e+15	2.697102e+15	9.469683e+14	2.203561e+04	1.184617e+04	2.914909e+03	0	1.294462e-03
4.100000e+08	5.012255e+13	0.000000e+00	4.723617e-01	1.074264e+15	2.680326e+15	9.421308e+14	2.201788e+04	1.183812e+04	2.912928e+03	0	1.288779e-03
4.200000e+08	4.946313e+13	0.000000e+00	4.723617e-01	1.068734e+15	2.663768e+15	9.373281e+14	2.200025e+04	1.183014e+04	2.910965e+03	0	1.283103e-03
4.300000e+08	4.881015e+13	0.000000e+00	4.723617e-01	1.063256e+15	2.647422e+15	9.325601e+14	2.198270e+04	1.182224e+04	2.909020e+03	0	1.277431e-03
4.400000e+08	4.816352e+13	0.000000e+00	4.723617e-01	1.057829e+15	2.631286e+15	9.278263e+14	2.196525e+04	1.181441e+04	2.907094e+03	0	1.271765e-03
4.500000e+08	4.752315e+13	0.000000e+00	4.723617e-01	1.052451e+15	2.615353e+15	9.231266e+14	2.194789e+04	1.180665e+04	2.905185e+03	0	1.266104e-03
4.600000e+08	4.688895e+13	0.000000e+00	4.723617e-01	1.047123e+15	2.599619e+15	9.184606e+14	2.193061e+04	1.179896e+04	2.903293e+03	0	1.260446e-03
4.700000e+08	4.626083e+13	0.000000e+00	4.723617e-01	1.041844e+15	2.584081e+15	9.138281e+14	2.191342e+04	1.179134e+04	2.901418e+03	0	1.254793e-03
4.800000e+08	4.563871e+13	0.000000e+00	4.723617e-01	1.036612e+15	2.568734e+15	9.092288e+14	2.189632e+04	1.178379e+04	2.899559e+03	0	1.249142e-03
4.900000e+08	4.502250e+13	0.000000e+00	4.723617e-01	1.031428e+15	2.553575e+15	9.046624e+14	2.187930e+04	1.177630e+04	2.897717e+03	0	1.243495e-03
5.000000e+08	4.441213e+13	0.000000e+00	4.723617e-01	1.026290e+15	2.538598e+15	9.001286e+14	2.186237e+04	1.176888e+04	2.895891e+03	0	1.237850e-03
5.100000e+08	4.380751e+13	0.000000e+00	4.723617e-01	1.021199e+15	2.523802e+15	8.956273e+14	2.184552e+04	1.176152e+04	2.894080e+03	0	1.232207e-03
5.200000e+08	4.320856e+13	0.000000e+00	4.723617e-01	1.016153e+15	2.509181e+15	8.911581e+14	2.182875e+04	1.175423e+04	2.892285e+03	0	1.226566e-03
5.300000e+08	4.261521e+13	0.000000e+00	4.723617e-01	1.011151e+15	2.494733e+15	8.867207e+14	2.181207e+04	1.174699e+04	2.890505e+03	0	1.220925e-03
5.400000e+08	4.202738e+13	0.000000e+00	4.723617e-01	1.006194e+15	2.480454e+15	8.823149e+14	2.179547e+04	1.173982e+04	2.888739e+03	0	1.215285e-03
5.500000e+08	4.144500e+13	0.000000e+00	4.723617e-01	1.001281e+15	2.466341e+15	8.779405e+14	2.177895e+04	1.173270e+04	2.886988e+03	0	1.209646e-03
5.600000e+08	4.086798e+13	0.000000e+00	4.723617e-01	9.964102e+14	2.452390e+15	8.735972e+14	2.176251e+04	1.172564e+04	2.885251e+03	0	1.204006e-03
5.700000e+08	4.029627e+13	0.000000e+00	4.723617e-01	9.915823e+14	2.438598e+15	8.692848e+14	2.174615e+04	1.171864e+04	2.883528e+03	0	1.198365e-03
5.800000e+08	3.972978e+13	0.000000e+00	4.723617e-01	9.867963e+14	2.424963e+15	8.650029e+14	2.172988e+04	1.171169e+04	2.881819e+03	0	1.192723e-03
5.900000e+08	3.916846e+13	0.000000e+00	4.723617e-01	9.820517e+14	2.411481e+15	8.607514e+14	2.171367e+04	1.170480e+04	2.880123e+03	0	1.187079e-03
6.000000e+08	3.861223e+13	0.000000e+00	4.723617e-01	9.773479e+14	2.398149e+15	8.565300e+14	2.169755e+04	1.169796e+04	2.878440e+03	0	1.181433e-03
6.100000e+08	3.806102e+13	0.000000e+00	4.723617e-01	9.726845e+14	2.384965e+15	8.523384e+14	2.168150e+04	1.169118e+04	2.876771e+03	0	1.175784e-03
6.200000e+08	3.751478e+13	0.000000e+00	4.723617e-01	9.680609e+14	2.371926e+15	8.481765e+14	2.166554e+04	1.168444e+04	2.875114e+03	0	1.170132e-03
6.300000e+08	3.697343e+13	0.000000e+00	4.723617e-01	9.634765e+14	2.359029e+15	8.440439e+14	2.164964e+04	1.167776e+04	2.873469e+03	0	1.164477e-03
6.400000e+08	3.643691e+13	0.000000e+00	4.723617e-01	9.589311e+14	2.346272e+15	8.399405e+14	2.163382e+04	1.167113e+04	2.871837e+03	0	1.158817e-03
6.500000e+08	3.590517e+13	0.000000e+00	4.723617e-01	9.544239e+14	2.333652e+15	8.358660e+14	2.161808e+04	1.166454e+04	2.870217e+03	0	1.153152e-03
6.600000e+08	3.537813e+13	0.000000e+00	4.723617e-01	9.499546e+14	2.321166e+15	8.318202e+14	2.160241e+04	1.165801e+04	2.868609e+03	0	1.147482e-03
6.700000e+08	3.485574e+13	0.000000e+00	4.723617e-01	9.455226e+14	2.308813e+15	8.278028e+14	2.158681e+04	1.165152e+04	2.867013e+03	0	1.141806e-03
6.800000e+08	3.433794e+13	0.000000e+00	4.723617e-01	9.411275e+14	2.296589e+15	8.238136e+14	2.157129e+04	1.164508e+04	2.865428e+03	0	1.136124e-03
6.900000e+08	3.382468e+13	0.000000e+00	4.723617e-01	9.367689e+14	2.284493e+15	8.198524e+14	2.155583e+04	1.163868e+04	2.863854e+03	0	1.130434e-03
7.000000e+08	3.331588e+13	0.000000e+00	4.723617e-01	9.324463e+14	2.272522e+15	8.159190e+14	2.154045e+04	1.163233e+04	2.862292e+03	0	1.124738e-03
7.100000e+08	3.281151e+13	0.000000e+00	4.723617e-01	9.281593e+14	2.260675e+15	8.120131e+14	2.152514e+04	1.162603e+04	2.860740e+03	0	1.119033e-03
7.200000e+08	3.231151e+13	0.000000e+00	4.723617e-01	9.239074e+14	2.248949e+15	8.081345e+14	2.150990e+04	1.161977e+04	2.859199e+03	0	1.113320e-03
7.300000e+08	3.181581e+13	0.000000e+00	4.723617e-01	9.196902e+14	2.237341e+15	8.042831e+14	2.149473e+04	1.161355e+04	2.857669e+03	0	1.107597e-03
7.400000e+08	3.132437e+13	0.000000e+00	4.723617e-01	9.155073e+14	2.225851e+15	8.004585e+14	2.147963e+04	1.160737e+04	2.856149e+03	0	1.101865e-03
7.500000e+08	3.083714e+13	0.000000e+00	4.723617e-01	9.113582e+14	2.214476e+15	7.966606e+14	2.146460e+04	1.160124e+04	2.854640e+03	0	1.096122e-03
7.600000e+08	3.035405e+13	0.000000e+00	4.723617e-01	9.072426e+14	2.203214e+15	7.928891e+14	2.144964e+04	1.159514e+04	2.853141e+03	0	1.090368e-03
7.700000e+08	2.987508e+13	0.000000e+00	4.723617e-01	9.031601e+14	2.192064e+15	7.891439e+14	2.143474e+04	1.158909e+04	2.851651e+03	0	1.084602e-03
7.800000e+08	2.940015e+13	0.000000e+00	4.723617e-01	8.991103e+14	2.181022e+15	7.854247e+14	2.141991e+04	1.158308e+04	2.850171e+03	0	1.078824e-03
7.900000e+08	2.892923e+13	0.000000e+00	4.723617e-01	8.950927e+14	2.170089e+15	7.817313e+14	2.140515e+04	1.157710e+04	2.848701e+03	0	1.073033e-03
8.000000e+08	2.846226e+13	0.000000e+00	4.723617e-01	8.911071e+14	2.159262e+15	7.780636e+14	2.139045e+04	1.157117e+04	2.847241e+03	0	1.067228e-03
8.100000e+08	2.799920e+13	0.000000e+00	4.723617e-01	8.871530e+14	2.148539e+15	7.744212e+14	2.137582e+04	1.156527e+04	2.845790e+03	0	1.061409e-03
8.200000e+08	2.754001e+13	0.000000e+00	4.723617e-01	8.832301e+14	2.137918e+15	7.708041e+14	2.136125e+04	1.155941e+04	2.844348e+03	0	1.055574e-03
8.300000e+08	2.708463e+13	0.000000e+00	4.723617e-01	8.793379e+14	2.127399e+15	7.672120e+14	2.134675e+04	1.155359e+04	2.842915e+03	0	1.049724e-03
8.400000e+08	2.663302e+13	0.000000e+00	4.723617e-01	8.754762e+14	2.116979e+15	7.636447e+14	2.133231e+04	1.154780e+04	2.841491e+03	0	1.043857e-03
8.500000e+08	2.618514e+13	0.000000e+00	4.723617e-01	8.716447e+14	2.106657e+15	7.601020e+14	2.131793e+04	1.154205e+04	2.840076e+03	0	1.037972e-03
8.600000e+08	2.574094e+13	0.000000e+00	4.723617e-01	8.678428e+14	2.096432e+15	7.565837e+14	2.130362e+04	1.153633e+04	2.838669e+03	0	1.032070e-03
8.700000e+08	2.530038e+13	0.000000e+00	4.723617e-01	8.640704e+14	2.086301e+15	7.530897e+14	2.128937e+04	1.153065e+04	2.837272e+03	0	1.026148e-03
8.800000e+08	2.486342e+13	0.000000e+00	4.723617e-01	8.603271e+14	2.076264e+15	7.496197e+14	2.127518e+04	1.152501e+04	2.835882e+03	0	1.020206e-03
8.900000e+08	2.443002e+13	0.000000e+00	4.723617e-01	8.566125e+14	2.066319e+15	7.461735e+14	2.126105e+04	1.151939e+04	2.834501e+03	0	1.014243e-03
9.000000e+08	2.400013e+13	0.000000e+00	4.723617e-01	8.529264e+14	2.056465e+15	7.427510e+14	2.124698e+04	1.151381e+04	2.833128e+03	0	1.008259e-03
9.100000e+08	2.357371e+13	0.000000e+00	4.723617e-01	8.492684e+14	2.046700e+15	7.393519e+14	2.123298e+04	1.150827e+04	2.831763e+03	0	1.002252e-03
9.200000e+08	2.315073e+13	0.000000e+00	4.723617e-01	8.456381e+14	2.037023e+15	7.359761e+14	2.121903e+04	1.150275e+04	2.830407e+03	0	9.962211e-04
9.300000e+08	2.273115e+13	0.000000e+00	4.723617e-01	8.420354e+14	2.027433e+15	7.326234e+14	2.120514e+04	1.149727e+04	2.829058e+03	0	9.901659e-04
9.400000e+08	2.231492e+13	0.000000e+00	4.723617e-01	8.384598e+14	2.017929e+15	7.292936e+14	2.119132e+04	1.149182e+04	2.827717e+03	0	9.840850e-04
9.500000e+08	2.190201e+13	0.000000e+00	4.723617e-01	8.349111e+14	2.008509e+15	7.259866e+14	2.117755e+04	1.148640e+04	2.826383e+03	0	9.779775e-04
9.600000e+08	2.149238e+13	0.000000e+00	4.723617e-01	8.313890e+14	1.999172e+15	7.227021e+14	2.116384e+04	1.148101e+04	2.825057e+03	0	9.718421e-04
9.700000e+08	2.108600e+13	0.000000e+00	4.723617e-01	8.278932e+14	1.989917e+15	7.194399e+14	2.115018e+04	1.147565e+04	2.823739e+03	0	9.656778e-04
9.800000e+08	2.068283e+13	0.000000e+00	4.723617e-01	8.244234e+14	1.980742e+15	7.162000e+14	2.113659e+04	1.147033e+04	2.822428e+03	0	9.594835e-04
9.900000e+08	2.028283e+13	0.000000e+00	4.723617e-01	8.209793e+14	1.971648e+15	7.129821e+14	2.112305e+04	1.146503e+04	2.821124e+03	0	9.532578e-04
1.000000e+09	1.988597e+13	0.000000e+00	4.723617e-01	8.175606e+14	1.962631e+15	7.097860e+14	2.110957e+04	1.145976e+04	2.819827e+03	0	9.469995e-04
1.010000e+09	1.949221e+13	0.000000e+00	4.723617e-01	8.141672e+14	1.953693e+15	7.066116e+14	2.109614e+04	1.145452e+04	2.818537e+03	0	9.407074e-04
1.020000e+09	1.910152e+13	0.000000e+00	4.723617e-01	8.107986e+14	1.944830e+15	7.034587e+14	2.108277e+04	1.144930e+04	2.817255e+03	0	9.343799e-04
1.030000e+09	1.871387e+13	0.000000e+00	4.723617e-01	8.074547e+14	1.936043e+15	7.003272e+14	2.106945e+04	1.144412e+04	2.815979e+03	0	9.280158e-04
1.040000e+09	1.832921e+13	0.000000e+00	4.723617e-01	8.041351e+14	1.927330e+15	6.972168e+14	2.105619e+04	1.143896e+04	2.814710e+03	0	9.216134e-04
1.050000e+09	1.794753e+13	0.000000e+00	4.723617e-01	8.008396e+14	1.918691e+15	6.941274e+14	2.104299e+04	1.143383e+04	2.813448e+03	0	9.151714e-04
1.060000e+09	1.756879e+13	0.000000e+00	4.723617e-01	7.975680e+14	1.910123e+15	6.910589e+14	2.102983e+04	1.142873e+04	2.812193e+03	0	9.086879e-04
1.070000e+09	1.719295e+13	0.000000e+00	4.723617e-01	7.943200e+14	1.901627e+15	6.880110e+14	2.101674e+04	1.142366e+04	2.810944e+03	0	9.021615e-04
1.080000e+09	1.681998e+13	0.000000e+00	4.723617e-01	7.910954e+14	1.893202e+15	6.849836e+14	2.100369e+04	1.141861e+04	2.809701e+03	0	8.955902e-04
1.090000e+09	1.644986e+13	0.000000e+00	4.723617e-01	7.878939e+14	1.884846e+15	6.819766e+14	2.099070e+04	1.141358e+04	2.808465e+03	0	8.889723e-04
1.100000e+09	1.608255e+13	0.000000e+00	4.723617e-01	7.847152e+14	1.876558e+15	6.789898e+14	2.097776e+04	1.140859e+04	2.807236e+03	0	8.823059e-04
1.110000e+09	1.571803e+13	0.000000e+00	4.723617e-01	7.815592e+14	1.868339e+15	6.760230e+14	2.096487e+04	1.140362e+04	2.806012e+03	0	8.755888e-04
1.120000e+09	1.535625e+13	0.000000e+00	4.723617e-01	7.784256e+14	1.860186e+15	6.730761e+14	2.095203e+04	1.139867e+04	2.804795e+03	0	8.688189e-04
1.130000e+09	1.499721e+13	0.000000e+00	4.723617e-01	7.753141e+14	1.852099e+15	6.701489e+14	2.093925e+04	1.139375e+04	2.803584e+03	0	8.619941e-04
1.140000e+09	1.464086e+13	0.000000e+00	4.723617e-01	7.722246e+14	1.844077e+15	6.672413e+14	2.092652e+04	1.138885e+04	2.802379e+03	0	8.551120e-04
1.150000e+09	1.428717e+13	0.000000e+00	4.723617e-01	7.691568e+14	1.836119e+15	6.643530e+14	2.091383e+04	1.138398e+04	2.801180e+03	0	8.481701e-04
1.160000e+09	1.393613e+13	0.000000e+00	4.723617e-01	7.661105e+14	1.828225e+15	6.614841e+14	2.090120e+04	1.137913e+04	2.799987e+03	0	8.411657e-04
1.170000e+09	1.358770e+13	0.000000e+00	4.723617e-01	7.630855e+14	1.820393e+15	6.586343e+14	2.088862e+04	1.137430e+04	2.798799e+03	0	8.340961e-04
1.180000e+09	1.324185e+13	0.000000e+00	4.723617e-01	7.600815e+14	1.812624e+15	6.558034e+14	2.087609e+04	1.136950e+04	2.797618e+03	0	8.269585e-04
1.190000e+09	1.289856e+13	0.000000e+00	4.723617e-01	7.570983e+14	1.804915e+15	6.529913e+14	2.086360e+04	1.136472e+04	2.796442e+03	0	8.197497e-04
1.200000e+09	1.255780e+13	0.000000e+00	4.723617e-01	7.541359e+14	1.797267e+15	6.501979e+14	2.085117e+04	1.135997e+04	2.795272e+03	0	8.124664e-04
1.210000e+09	1.221955e+13	0.000000e+00	4.723617e-01	7.511938e+14	1.789679e+15	6.474231e+14	2.083878e+04	1.135523e+04	2.794107e+03	0	8.051051e-04
1.220000e+09	1.188378e+13	0.000000e+00	4.723617e-01	7.482719e+14	1.782150e+15	6.446666e+14	2.082644e+04	1.135052e+04	2.792948e+03	0	7.976622e-04
1.230000e+09	1.155046e+13	0.000000e+00	4.723617e-01	7.453701e+14	1.774678e+15	6.419283e+14	2.081415e+04	1.134583e+04	2.791795e+03	0	7.901338e-04
1.240000e+09	1.121957e+13	0.000000e+00	4.723617e-01	7.424881e+14	1.767264e+15	6.392082e+14	2.080191e+04	1.134117e+04	2.790646e+03	0	7.825155e-04
1.250000e+09	1.089109e+13	0.000000e+00	4.723617e-01	7.396258e+14	1.759908e+15	6.365060e+14	2.078972e+04	1.133652e+04	2.789503e+03	0	7.748030e-04
1.260000e+09	1.056499e+13	0.000000e+00	4.723617e-01	7.367828e+14	1.752607e+15	6.338216e+14	2.077757e+04	1.133190e+04	2.788366e+03	0	7.669915e-04
1.270000e+09	1.024124e+13	0.000000e+00	4.723617e-01	7.339592e+14	1.745361e+15	6.311550e+14	2.076547e+04	1.132730e+04	2.787234e+03	0	7.590757e-04
1.280000e+09	9.919832e+12	0.000000e+00	4.723617e-01	7.311545e+14	1.738171e+15	6.285058e+14	2.075341e+04	1.132272e+04	2.786106e+03	0	7.510502e-04
1.290000e+09	9.600730e+12	0.000000e+00	4.723617e-01	7.283688e+14	1.731035e+15	6.258741e+14	2.074140e+04	1.131816e+04	2.784984e+03	0	7.429090e-04
1.300000e+09	9.283914e+12	0.000000e+00	4.723617e-01	7.256017e+14	1.723952e+15	6.232596e+14	2.072944e+04	1.131362e+04	2.783867e+03	0	7.346456e-04
1.310000e+09	8.969362e+12	0.000000e+00	4.723617e-01	7.228531e+14	1.716922e+15	6.206623e+14	2.071752e+04	1.130910e+04	2.782755e+03	0	7.262532e-04
1.320000e+09	8.657052e+12	0.000000e+00	4.723617e-01	7.201229e+14	1.709945e+15	6.180820e+14	2.070565e+04	1.130460e+04	2.781649e+03	0	7.177241e-04
1.330000e+09	8.346960e+12	0.000000e+00	4.723617e-01	7.174108e+14	1.703019e+15	6.155185e+14	2.069382e+04	1.130012e+04	2.780546e+03	0	7.090502e-04
1.340000e+09	8.039066e+12	0.000000e+00	4.723617e-01	7.147167e+14	1.696144e+15	6.129719e+14	2.068203e+04	1.129566e+04	2.779449e+03	0	7.002225e-04
1.350000e+09	7.733348e+12	0.000000e+00	4.723617e-01	7.120403e+14	1.689320e+15	6.104418e+14	2.067030e+04	1.129122e+04	2.778357e+03	0	6.912313e-04
1.360000e+09	7.429784e+12	0.000000e+00	4.723617e-01	7.093817e+14	1.682546e+15	6.079282e+14	2.065860e+04	1.128680e+04	2.777269e+03	0	6.820658e-04
