#t		Qconv[W]	Ri[Rp]		R*[Rp]		Qc[W]		Qm[W]		Qr[W]		Tcmb[K]		Tl[K]		Tup[K]		RiFlag		Bs[T]
0.000000e+00	8.341216e+13	0.000000e+00	4.723618e-01	1.488519e+15	3.459373e+15	1.239920e+15	2.398239e+04	1.284637e+04	3.049492e+03	0	1.526394e-03
1.000000e+07	8.236861e+13	0.000000e+00	4.723618e-01	1.480031e+15	3.438065e+15	1.233050e+15	2.396014e+04	1.283797e+04	3.047498e+03	0	1.520001e-03
2.000000e+07	8.133600e+13	0.000000e+00	4.723618e-01	1.471627e+15	3.417011e+15	1.226231e+15	2.393802e+04	1.282964e+04	3.045521e+03	0	1.513623e-03
3.000000e+07	8.031415e+13	0.000000e+00	4.723618e-01	1.463307e+15	3.396206e+15	1.219463e+15	2.391601e+04	1.282138e+04	3.043560e+03	0	1.507257e-03
4.000000e+07	7.930292e+13	0.000000e+00	4.723618e-01	1.455069e+15	3.375643e+15	1.212746e+15	2.389414e+04	1.281318e+04	3.041614e+03	0	1.500905e-03
5.000000e+07	7.830214e+13	0.000000e+00	4.723618e-01	1.446913e+15	3.355320e+15	1.206079e+15	2.387239e+04	1.280505e+04	3.039683e+03	0	1.494564e-03
6.000000e+07	7.731165e+13	0.000000e+00	4.723618e-01	1.438838e+15	3.335230e+15	1.199462e+15	2.385075e+04	1.279698e+04	3.037767e+03	0	1.488236e-03
7.000000e+07	7.633132e+13	0.000000e+00	4.723618e-01	1.430841e+15	3.315369e+15	1.192894e+15	2.382924e+04	1.278897e+04	3.035866e+03	0	1.481919e-03
8.000000e+07	7.536099e+13	0.000000e+00	4.723618e-01	1.422922e+15	3.295734e+15	1.186374e+15	2.380785e+04	1.278102e+04	3.033979e+03	0	1.475612e-03
9.000000e+07	7.440051e+13	0.000000e+00	4.723618e-01	1.415080e+15	3.276319e+15	1.179903e+15	2.378658e+04	1.277313e+04	3.032106e+03	0	1.469317e-03
1.000000e+08	7.344975e+13	0.000000e+00	4.723618e-01	1.407314e+15	3.257120e+15	1.173481e+15	2.376542e+04	1.276530e+04	3.030247e+03	0	1.463031e-03
1.100000e+08	7.250857e+13	0.000000e+00	4.723618e-01	1.399622e+15	3.238134e+15	1.167106e+15	2.374438e+04	1.275753e+04	3.028401e+03	0	1.456755e-03
1.200000e+08	7.157682e+13	0.000000e+00	4.723618e-01	1.392004e+15	3.219356e+15	1.160778e+15	2.372345e+04	1.274981e+04	3.026569e+03	0	1.450488e-03
1.300000e+08	7.065438e+13	0.000000e+00	4.723618e-01	1.384459e+15	3.200783e+15	1.154497e+15	2.370264e+04	1.274215e+04	3.024750e+03	0	1.444230e-03
1.400000e+08	6.974111e+13	0.000000e+00	4.723618e-01	1.376985e+15	3.182411e+15	1.148262e+15	2.368194e+04	1.273454e+04	3.022944e+03	0	1.437981e-03
1.500000e+08	6.883689e+13	0.000000e+00	4.723618e-01	1.369582e+15	3.164236e+15	1.142074e+15	2.366135e+04	1.272698e+04	3.021151e+03	0	1.431739e-03
1.600000e+08	6.794159e+13	0.000000e+00	4.723618e-01	1.362249e+15	3.146255e+15	1.135931e+15	2.364088e+04	1.271948e+04	3.019370e+03	0	1.425505e-03
1.700000e+08	6.705508e+13	0.000000e+00	4.723618e-01	1.354984e+15	3.128464e+15	1.129834e+15	2.362051e+04	1.271203e+04	3.017601e+03	0	1.419277e-03
1.800000e+08	6.617724e+13	0.000000e+00	4.723618e-01	1.347787e+15	3.110860e+15	1.123781e+15	2.360025e+04	1.270463e+04	3.015844e+03	0	1.413057e-03
1.900000e+08	6.530795e+13	0.000000e+00	4.723618e-01	1.340657e+15	3.093440e+15	1.117773e+15	2.358010e+04	1.269728e+04	3.014099e+03	0	1.406842e-03
2.000000e+08	6.444710e+13	0.000000e+00	4.723618e-01	1.333592e+15	3.076200e+15	1.111810e+15	2.356005e+04	1.268997e+04	3.012366e+03	0	1.400634e-03
2.100000e+08	6.359457e+13	0.000000e+00	4.723618e-01	1.326593e+15	3.059138e+15	1.105890e+15	2.354011e+04	1.268272e+04	3.010644e+03	0	1.394430e-03
2.200000e+08	6.275025e+13	0.000000e+00	4.723618e-01	1.319658e+15	3.042250e+15	1.100014e+15	2.352027e+04	1.267551e+04	3.008933e+03	0	1.388232e-03
2.300000e+08	6.191402e+13	0.000000e+00	4.723618e-01	1.312786e+15	3.025534e+15	1.094181e+15	2.350054e+04	1.266835e+04	3.007234e+03	0	1.382037e-03
2.400000e+08	6.108578e+13	0.000000e+00	4.723618e-01	1.305977e+15	3.008986e+15	1.088390e+15	2.348091e+04	1.266124e+04	3.005545e+03	0	1.375847e-03
2.500000e+08	6.026542e+13	0.000000e+00	4.723618e-01	1.299230e+15	2.992605e+15	1.082642e+15	2.346138e+04	1.265417e+04	3.003867e+03	0	1.369660e-03
2.600000e+08	5.945283e+13	0.000000e+00	4.723618e-01	1.292543e+15	2.976386e+15	1.076936e+15	2.344195e+04	1.264715e+04	3.002200e+03	0	1.363476e-03
2.700000e+08	5.864791e+13	0.000000e+00	4.723618e-01	1.285916e+15	2.960328e+15	1.071272e+15	2.342263e+04	1.264017e+04	3.000542e+03	0	1.357295e-03
2.800000e+08	5.785057e+13	0.000000e+00	4.723618e-01	1.279349e+15	2.944428e+15	1.065649e+15	2.340340e+04	1.263323e+04	2.998896e+03	0	1.351116e-03
2.900000e+08	5.706069e+13	0.000000e+00	4.723618e-01	1.272840e+15	2.928683e+15	1.060067e+15	2.338427e+04	1.262633e+04	2.997259e+03	0	1.344938e-03
3.000000e+08	5.627818e+13	0.000000e+00	4.723618e-01	1.266389e+15	2.913091e+15	1.054526e+15	2.336523e+04	1.261948e+04	2.995632e+03	0	1.338762e-03
3.100000e+08	5.550295e+13	0.000000e+00	4.723618e-01	1.259995e+15	2.897649e+15	1.049025e+15	2.334630e+04	1.261267e+04	2.994015e+03	0	1.332587e-03
3.200000e+08	5.473489e+13	0.000000e+00	4.723618e-01	1.253658e+15	2.882356e+15	1.043565e+15	2.332745e+04	1.260590e+04	2.992407e+03	0	1.326411e-03
3.300000e+08	5.397393e+13	0.000000e+00	4.723618e-01	1.247376e+15	2.867209e+15	1.038144e+15	2.330871e+04	1.259916e+04	2.990809e+03	0	1.320236e-03
3.400000e+08	5.321996e+13	0.000000e+00	4.723618e-01	1.241148e+15	2.852205e+15	1.032762e+15	2.329005e+04	1.259247e+04	2.989221e+03	0	1.314059e-03
3.500000e+08	5.247289e+13	0.000000e+00	4.723618e-01	1.234975e+15	2.837343e+15	1.027419e+15	2.327149e+04	1.258582e+04	2.987641e+03	0	1.307882e-03
3.600000e+08	5.173265e+13	0.000000e+00	4.723618e-01	1.228856e+15	2.822620e+15	1.022115e+15	2.325302e+04	1.257920e+04	2.986071e+03	0	1.301702e-03
3.700000e+08	5.099913e+13	0.000000e+00	4.723618e-01	1.222789e+15	2.808034e+15	1.016850e+15	2.323465e+04	1.257263e+04	2.984510e+03	0	1.295521e-03
3.800000e+08	5.027226e+13	0.000000e+00	4.723618e-01	1.216775e+15	2.793583e+15	1.011623e+15	2.321636e+04	1.256609e+04	2.982957e+03	0	1.289336e-03
3.900000e+08	4.955195e+13	0.000000e+00	4.723618e-01	1.210812e+15	2.779266e+15	1.006433e+15	2.319816e+04	1.255958e+04	2.981413e+03	0	1.283149e-03
4.000000e+08	4.883811e+13	0.000000e+00	4.723618e-01	1.204900e+15	2.765080e+15	1.001281e+15	2.318006e+04	1.255311e+04	2.979878e+03	0	1.276957e-03
4.100000e+08	4.813068e+13	0.000000e+00	4.723618e-01	1.199038e+15	2.751023e+15	9.961660e+14	2.316204e+04	1.254668e+04	2.978351e+03	0	1.270762e-03
4.200000e+08	4.742956e+13	0.000000e+00	4.723618e-01	1.193226e+15	2.737094e+15	9.910879e+14	2.314410e+04	1.254029e+04	2.976833e+03	0	1.264561e-03
4.300000e+08	4.673468e+13	0.000000e+00	4.723618e-01	1.187463e+15	2.723290e+15	9.860464e+14	2.312626e+04	1.253393e+04	2.975323e+03	0	1.258355e-03
4.400000e+08	4.604596e+13	0.000000e+00	4.723618e-01	1.181749e+15	2.709610e+15	9.810411e+14	2.310850e+04	1.252760e+04	2.973821e+03	0	1.252143e-03
4.500000e+08	4.536333e+13	0.000000e+00	4.723618e-01	1.176082e+15	2.696052e+15	9.760719e+14	2.309083e+04	1.252130e+04	2.972327e+03	0	1.245924e-03
4.600000e+08	4.468671e+13	0.000000e+00	4.723618e-01	1.170463e+15	2.682615e+15	9.711383e+14	2.307324e+04	1.251504e+04	2.970841e+03	0	1.239699e-03
4.700000e+08	4.401602e+13	0.000000e+00	4.723618e-01	1.164890e+15	2.669296e+15	9.662401e+14	2.305573e+04	1.250882e+04	2.969363e+03	0	1.233466e-03
4.800000e+08	4.335120e+13	0.000000e+00	4.723618e-01	1.159364e+15	2.656094e+15	9.613769e+14	2.303831e+04	1.250262e+04	2.967892e+03	0	1.227224e-03
4.900000e+08	4.269218e+13	0.000000e+00	4.723618e-01	1.153883e+15	2.643008e+15	9.565486e+14	2.302097e+04	1.249646e+04	2.966430e+03	0	1.220973e-03
5.000000e+08	4.203887e+13	0.000000e+00	4.723618e-01	1.148447e+15	2.630035e+15	9.517549e+14	2.300371e+04	1.249033e+04	2.964974e+03	0	1.214713e-03
5.100000e+08	4.139122e+13	0.000000e+00	4.723618e-01	1.143056e+15	2.617175e+15	9.469953e+14	2.298654e+04	1.248423e+04	2.963527e+03	0	1.208443e-03
5.200000e+08	4.074916e+13	0.000000e+00	4.723618e-01	1.137709e+15	2.604426e+15	9.422698e+14	2.296944e+04	1.247816e+04	2.962086e+03	0	1.202162e-03
5.300000e+08	4.011262e+13	0.000000e+00	4.723618e-01	1.132405e+15	2.591786e+15	9.375779e+14	2.295242e+04	1.247213e+04	2.960653e+03	0	1.195869e-03
5.400000e+08	3.948153e+13	0.000000e+00	4.723618e-01	1.127145e+15	2.579254e+15	9.329195e+14	2.293549e+04	1.246612e+04	2.959227e+03	0	1.189565e-03
5.500000e+08	3.885582e+13	0.000000e+00	4.723618e-01	1.121927e+15	2.566828e+15	9.282942e+14	2.291863e+04	1.246014e+04	2.957808e+03	0	1.183247e-03
5.600000e+08	3.823545e+13	0.000000e+00	4.723618e-01	1.116750e+15	2.554507e+15	9.237018e+14	2.290185e+04	1.245420e+04	2.956397e+03	0	1.176916e-03
5.700000e+08	3.762033e+13	0.000000e+00	4.723618e-01	1.111616e+15	2.542291e+15	9.191420e+14	2.288514e+04	1.244828e+04	2.954992e+03	0	1.170571e-03
5.800000e+08	3.701042e+13	0.000000e+00	4.723618e-01	1.106522e+15	2.530176e+15	9.146145e+14	2.286852e+04	1.244239e+04	2.953594e+03	0	1.164210e-03
5.900000e+08	3.640565e+13	0.000000e+00	4.723618e-01	1.101470e+15	2.518162e+15	9.101192e+14	2.285197e+04	1.243653e+04	2.952203e+03	0	1.157834e-03
6.000000e+08	3.580595e+13	0.000000e+00	4.723618e-01	1.096457e+15	2.506249e+15	9.056556e+14	2.283549e+04	1.243070e+04	2.950818e+03	0	1.151441e-03
6.100000e+08	3.521128e+13	0.000000e+00	4.723618e-01	1.091484e+15	2.494433e+15	9.012237e+14	2.281909e+04	1.242489e+04	2.949440e+03	0	1.145031e-03
6.200000e+08	3.462157e+13	0.000000e+00	4.723618e-01	1.086550e+15	2.482715e+15	8.968230e+14	2.280277e+04	1.241911e+04	2.948069e+03	0	1.138603e-03
6.300000e+08	3.403676e+13	0.000000e+00	4.723618e-01	1.081655e+15	2.471093e+15	8.924534e+14	2.278651e+04	1.241336e+04	2.946704e+03	0	1.132156e-03
6.400000e+08	3.345680e+13	0.000000e+00	4.723618e-01	1.076798e+15	2.459566e+15	8.881147e+14	2.277033e+04	1.240764e+04	2.945345e+03	0	1.125688e-03
6.500000e+08	3.288164e+13	0.000000e+00	4.723618e-01	1.071979e+15	2.448132e+15	8.838065e+14	2.275423e+04	1.240195e+04	2.943993e+03	0	1.119201e-03
6.600000e+08	3.231122e+13	0.000000e+00	4.723618e-01	1.067198e+15	2.436791e+15	8.795286e+14	2.273819e+04	1.239628e+04	2.942647e+03	0	1.112691e-03
6.700000e+08	3.174548e+13	0.000000e+00	4.723618e-01	1.062453e+15	2.425541e+15	8.752808e+14	2.272223e+04	1.239063e+04	2.941308e+03	0	1.106158e-03
6.800000e+08	3.118437e+13	0.000000e+00	4.723618e-01	1.057746e+15	2.414382e+15	8.710628e+14	2.270634e+04	1.238502e+04	2.939974e+03	0	1.099603e-03
6.900000e+08	3.062784e+13	0.000000e+00	4.723618e-01	1.053074e+15	2.403311e+15	8.668744e+14	2.269052e+04	1.237942e+04	2.938647e+03	0	1.093022e-03
7.000000e+08	3.007584e+13	0.000000e+00	4.723618e-01	1.048439e+15	2.392329e+15	8.627154e+14	2.267476e+04	1.237386e+04	2.937326e+03	0	1.086416e-03
7.100000e+08	2.952832e+13	0.000000e+00	4.723618e-01	1.043839e+15	2.381433e+15	8.585855e+14	2.265908e+04	1.236832e+04	2.936010e+03	0	1.079783e-03
7.200000e+08	2.898522e+13	0.000000e+00	4.723618e-01	1.039274e+15	2.370624e+15	8.544845e+14	2.264347e+04	1.236280e+04	2.934701e+03	0	1.073122e-03
7.300000e+08	2.844650e+13	0.000000e+00	4.723618e-01	1.034743e+15	2.359900e+15	8.504121e+14	2.262792e+04	1.235731e+04	2.933397e+03	0	1.066432e-03
7.400000e+08	2.791211e+13	0.000000e+00	4.723618e-01	1.030248e+15	2.349259e+15	8.463682e+14	2.261244e+04	1.235184e+04	2.932099e+03	0	1.059712e-03
7.500000e+08	2.738201e+13	0.000000e+00	4.723618e-01	1.025785e+15	2.338702e+15	8.423524e+14	2.259703e+04	1.234640e+04	2.930807e+03	0	1.052960e-03
7.600000e+08	2.685613e+13	0.000000e+00	4.723618e-01	1.021357e+15	2.328226e+15	8.383647e+14	2.258169e+04	1.234098e+04	2.929520e+03	0	1.046176e-03
7.700000e+08	2.633445e+13	0.000000e+00	4.723618e-01	1.016962e+15	2.317832e+15	8.344046e+14	2.256641e+04	1.233558e+04	2.928239e+03	0	1.039357e-03
7.800000e+08	2.581690e+13	0.000000e+00	4.723618e-01	1.012599e+15	2.307518e+15	8.304721e+14	2.255119e+04	1.233021e+04	2.926964e+03	0	1.032503e-03
7.900000e+08	2.530345e+13	0.000000e+00	4.723618e-01	1.008270e+15	2.297283e+15	8.265669e+14	2.253605e+04	1.232486e+04	2.925694e+03	0	1.025613e-03
8.000000e+08	2.479406e+13	0.000000e+00	4.723618e-01	1.003972e+15	2.287126e+15	8.226888e+14	2.252096e+04	1.231953e+04	2.924429e+03	0	1.018684e-03
8.100000e+08	2.428867e+13	0.000000e+00	4.723618e-01	9.997060e+14	2.277047e+15	8.188376e+14	2.250594e+04	1.231423e+04	2.923170e+03	0	1.011715e-03
8.200000e+08	2.378725e+13	0.000000e+00	4.723618e-01	9.954716e+14	2.267044e+15	8.150130e+14	2.249099e+04	1.230894e+04	2.921916e+03	0	1.004704e-03
8.300000e+08	2.328975e+13	0.000000e+00	4.723618e-01	9.912684e+14	2.257117e+15	8.112149e+14	2.247610e+04	1.230368e+04	2.920668e+03	0	9.976503e-04
8.400000e+08	2.279612e+13	0.000000e+00	4.723618e-01	9.870960e+14	2.247265e+15	8.074430e+14	2.246127e+04	1.229845e+04	2.919425e+03	0	9.905515e-04
8.500000e+08	2.230634e+13	0.000000e+00	4.723618e-01	9.829542e+14	2.237486e+15	8.036971e+14	2.244650e+04	1.229323e+04	2.918187e+03	0	9.834060e-04
8.600000e+08	2.182036e+13	0.000000e+00	4.723618e-01	9.788425e+14	2.227782e+15	7.999770e+14	2.243180e+04	1.228804e+04	2.916954e+03	0	9.762117e-04
8.700000e+08	2.133813e+13	0.000000e+00	4.723618e-01	9.747607e+14	2.218149e+15	7.962826e+14	2.241715e+04	1.228287e+04	2.915726e+03	0	9.689667e-04
8.800000e+08	2.085962e+13	0.000000e+00	4.723618e-01	9.707085e+14	2.208588e+15	7.926135e+14	2.240257e+04	1.227772e+04	2.914503e+03	0	9.616688e-04
8.900000e+08	2.038478e+13	0.000000e+00	4.723618e-01	9.666855e+14	2.199098e+15	7.889697e+14	2.238805e+04	1.227259e+04	2.913286e+03	0	9.543158e-04
9.000000e+08	1.991359e+13	0.000000e+00	4.723618e-01	9.626915e+14	2.189678e+15	7.853509e+14	2.237359e+04	1.226748e+04	2.912073e+03	0	9.469054e-04
9.100000e+08	1.944599e+13	0.000000e+00	4.723618e-01	9.587262e+14	2.180327e+15	7.817569e+14	2.235919e+04	1.226239e+04	2.910865e+03	0	9.394351e-04
9.200000e+08	1.898196e+13	0.000000e+00	4.723618e-01	9.547892e+14	2.171045e+15	7.781875e+14	2.234484e+04	1.225732e+04	2.909662e+03	0	9.319024e-04
9.300000e+08	1.852146e+13	0.000000e+00	4.723618e-01	9.508804e+14	2.161830e+15	7.746425e+14	2.233056e+04	1.225227e+04	2.908464e+03	0	9.243046e-04
9.400000e+08	1.806444e+13	0.000000e+00	4.723618e-01	9.469993e+14	2.152683e+15	7.711217e+14	2.231633e+04	1.224725e+04	2.907271e+03	0	9.166389e-04
9.500000e+08	1.761088e+13	0.000000e+00	4.723618e-01	9.431457e+14	2.143602e+15	7.676250e+14	2.230216e+04	1.224224e+04	2.906082e+03	0	9.089021e-04
9.600000e+08	1.716074e+13	0.000000e+00	4.723618e-01	9.393194e+14	2.134587e+15	7.641521e+14	2.228805e+04	1.223725e+04	2.904898e+03	0	9.010911e-04
9.700000e+08	1.671397e+13	0.000000e+00	4.723618e-01	9.355201e+14	2.125636e+15	7.607029e+14	2.227400e+04	1.223229e+04	2.903719e+03	0	8.932026e-04
9.800000e+08	1.627056e+13	0.000000e+00	4.723618e-01	9.317474e+14	2.116750e+15	7.572771e+14	2.226001e+04	1.222734e+04	2.902544e+03	0	8.852329e-04
9.900000e+08	1.583046e+13	0.000000e+00	4.723618e-01	9.280012e+14	2.107928e+15	7.538747e+14	2.224607e+04	1.222241e+04	2.901375e+03	0	8.771783e-04
1.000000e+09	1.539364e+13	0.000000e+00	4.723618e-01	9.242812e+14	2.099169e+15	7.504953e+14	2.223218e+04	1.221750e+04	2.900209e+03	0	8.690347e-04
1.010000e+09	1.496006e+13	0.000000e+00	4.723618e-01	9.205870e+14	2.090472e+15	7.471388e+14	2.221835e+04	1.221261e+04	2.899048e+03	0	8.607979e-04
1.020000e+09	1.452970e+13	0.000000e+00	4.723618e-01	9.169185e+14	2.081836e+15	7.438051e+14	2.220458e+04	1.220774e+04	2.897892e+03	0	8.524631e-04
1.030000e+09	1.410251e+13	0.000000e+00	4.723618e-01	9.132754e+14	2.073262e+15	7.404939e+14	2.219086e+04	1.220288e+04	2.896740e+03	0	8.440255e-04
1.040000e+09	1.367848e+13	0.000000e+00	4.723618e-01	9.096575e+14	2.064749e+15	7.372052e+14	2.217720e+04	1.219805e+04	2.895592e+03	0	8.354799e-04
1.050000e+09	1.325756e+13	0.000000e+00	4.723618e-01	9.060645e+14	2.056295e+15	7.339386e+14	2.216359e+04	1.219323e+04	2.894449e+03	0	8.268206e-04
1.060000e+09	1.283973e+13	0.000000e+00	4.723618e-01	9.024961e+14	2.047900e+15	7.306940e+14	2.215003e+04	1.218844e+04	2.893310e+03	0	8.180415e-04
1.070000e+09	1.242495e+13	0.000000e+00	4.723618e-01	8.989521e+14	2.039564e+15	7.274714e+14	2.213653e+04	1.218366e+04	2.892176e+03	0	8.091362e-04
1.080000e+09	1.201320e+13	0.000000e+00	4.723618e-01	8.954323e+14	2.031286e+15	7.242704e+14	2.212308e+04	1.217890e+04	2.891046e+03	0	8.000975e-04
1.090000e+09	1.160444e+13	0.000000e+00	4.723618e-01	8.919364e+14	2.023065e+15	7.210909e+14	2.210968e+04	1.217415e+04	2.889920e+03	0	7.909179e-04
1.100000e+09	1.119864e+13	0.000000e+00	4.723618e-01	8.884643e+14	2.014902e+15	7.179327e+14	2.209634e+04	1.216943e+04	2.888798e+03	0	7.815891e-04
1.110000e+09	1.079578e+13	0.000000e+00	4.723618e-01	8.850157e+14	2.006795e+15	7.147958e+14	2.208304e+04	1.216472e+04	2.887680e+03	0	7.721021e-04
1.120000e+09	1.039582e+13	0.000000e+00	4.723618e-01	8.815903e+14	1.998743e+15	7.116799e+14	2.206980e+04	1.216003e+04	2.886567e+03	0	7.624471e-04
1.130000e+09	9.998747e+12	0.000000e+00	4.723618e-01	8.781879e+14	1.990747e+15	7.085848e+14	2.205661e+04	1.215536e+04	2.885458e+03	0	7.526134e-04
1.140000e+09	9.604520e+12	0.000000e+00	4.723618e-01	8.748084e+14	1.982805e+15	7.055104e+14	2.204347e+04	1.215070e+04	2.884352e+03	0	7.425892e-04
1.150000e+09	9.213113e+12	0.000000e+00	4.723618e-01	8.714514e+14	1.974918e+15	7.024565e+14	2.203038e+04	1.214606e+04	2.883251e+03	0	7.323616e-04
1.160000e+09	8.824501e+12	0.000000e+00	4.723618e-01	8.681169e+14	1.967084e+15	6.994230e+14	2.201734e+04	1.214144e+04	2.882154e+03	0	7.219162e-04
1.170000e+09	8.438656e+12	0.000000e+00	4.723618e-01	8.648045e+14	1.959304e+15	6.964097e+14	2.200435e+04	1.213683e+04	2.881061e+03	0	7.112373e-04
1.180000e+09	8.055550e+12	0.000000e+00	4.723618e-01	8.615140e+14	1.951576e+15	6.934165e+14	2.199141e+04	1.213225e+04	2.879972e+03	0	7.003070e-04
1.190000e+09	7.675158e+12	0.000000e+00	4.723618e-01	8.582454e+14	1.943900e+15	6.904432e+14	2.197852e+04	1.212767e+04	2.878886e+03	0	6.891057e-04
1.200000e+09	7.297454e+12	0.000000e+00	4.723618e-01	8.549983e+14	1.936275e+15	6.874896e+14	2.196568e+04	1.212312e+04	2.877805e+03	0	6.776111e-04
1.210000e+09	6.922411e+12	0.000000e+00	4.723618e-01	8.517725e+14	1.928702e+15	6.845555e+14	2.195289e+04	1.211858e+04	2.876728e+03	0	6.657981e-04
1.220000e+09	6.550004e+12	0.000000e+00	4.723618e-01	8.485679e+14	1.921180e+15	6.816410e+14	2.194014e+04	1.211406e+04	2.875654e+03	0	6.536379e-04
1.230000e+09	6.180208e+12	0.000000e+00	4.723618e-01	8.453842e+14	1.913707e+15	6.787457e+14	2.192745e+04	1.210955e+04	2.874584e+03	0	6.410980e-04
1.240000e+09	5.812998e+12	0.000000e+00	4.723618e-01	8.422213e+14	1.906285e+15	6.758695e+14	2.191480e+04	1.210506e+04	2.873518e+03	0	6.281405e-04
1.250000e+09	5.448349e+12	0.000000e+00	4.723618e-01	8.390790e+14	1.898911e+15	6.730124e+14	2.190220e+04	1.210059e+04	2.872456e+03	0	6.147215e-04
1.260000e+09	5.086237e+12	0.000000e+00	4.723618e-01	8.359570e+14	1.891586e+15	6.701740e+14	2.188964e+04	1.209613e+04	2.871397e+03	0	6.007894e-04
1.270000e+09	4.726639e+12	0.000000e+00	4.723618e-01	8.328553e+14	1.884310e+15	6.673544e+14	2.187713e+04	1.209168e+04	2.870343e+03	0	5.862833e-04
1.280000e+09	4.369530e+12	0.000000e+00	4.723618e-01	8.297735e+14	1.877081e+15	6.645533e+14	2.186467e+04	1.208725e+04	2.869292e+03	0	5.711300e-04
1.290000e+09	4.014887e+12	0.000000e+00	4.723618e-01	8.267116e+14	1.869900e+15	6.617706e+14	2.185225e+04	1.208284e+04	2.868244e+03	0	5.552406e-04
1.300000e+09	3.662687e+12	0.000000e+00	4.723618e-01	8.236693e+14	1.862766e+15	6.590062e+14	2.183988e+04	1.207845e+04	2.867200e+03	0	5.385053e-04
1.310000e+09	3.312907e+12	0.000000e+00	4.723618e-01	8.206464e+14	1.855678e+15	6.562599e+14	2.182756e+04	1.207406e+04	2.866160e+03	0	5.207866e-04
1.320000e+09	2.965525e+12	0.000000e+00	4.723618e-01	8.176429e+14	1.848637e+15	6.535316e+14	2.181528e+04	1.206970e+04	2.865124e+03	0	5.019078e-04
1.330000e+09	2.620517e+12	0.000000e+00	4.723618e-01	8.146585e+14	1.841641e+15	6.508212e+14	2.180304e+04	1.206535e+04	2.864091e+03	0	4.816362e-04
1.340000e+09	2.277864e+12	0.000000e+00	4.723618e-01	8.116930e+14	1.834690e+15	6.481284e+14	2.179085e+04	1.206101e+04	2.863061e+03	0	4.596557e-04
1.350000e+09	1.937541e+12	0.000000e+00	4.723618e-01	8.087462e+14	1.827785e+15	6.454532e+14	2.177871e+04	1.205669e+04	2.862035e+03	0	4.355189e-04
1.360000e+09	1.599529e+12	0.000000e+00	4.723618e-01	8.058181e+14	1.820923e+15	6.427955e+14	2.176660e+04	1.205238e+04	2.861013e+03	0	4.085583e-04
