#t		Qconv[W]	Ri[Rp]		R*[Rp]		Qc[W]		Qm[W]		Qr[W]		Tcmb[K]		Tl[K]		Tup[K]		RiFlag		Bs[T]
0.000000e+00	7.948212e+13	0.000000e+00	4.723618e-01	1.623345e+15	3.284468e+15	1.307081e+15	2.513927e+04	1.344035e+04	3.081709e+03	0	1.501397e-03
1.000000e+07	7.844049e+13	0.000000e+00	4.723618e-01	1.614921e+15	3.272222e+15	1.299839e+15	2.511709e+04	1.343643e+04	3.080811e+03	0	1.494810e-03
2.000000e+07	7.740800e+13	0.000000e+00	4.723618e-01	1.606568e+15	3.259972e+15	1.292651e+15	2.509503e+04	1.343247e+04	3.079903e+03	0	1.488222e-03
3.000000e+07	7.638454e+13	0.000000e+00	4.723618e-01	1.598284e+15	3.247721e+15	1.285516e+15	2.507308e+04	1.342848e+04	3.078988e+03	0	1.481634e-03
4.000000e+07	7.537003e+13	0.000000e+00	4.723618e-01	1.590070e+15	3.235472e+15	1.278435e+15	2.505124e+04	1.342445e+04	3.078064e+03	0	1.475046e-03
5.000000e+07	7.436436e+13	0.000000e+00	4.723618e-01	1.581924e+15	3.223227e+15	1.271407e+15	2.502951e+04	1.342039e+04	3.077133e+03	0	1.468456e-03
6.000000e+07	7.336745e+13	0.000000e+00	4.723618e-01	1.573845e+15	3.210989e+15	1.264431e+15	2.500790e+04	1.341629e+04	3.076194e+03	0	1.461864e-03
7.000000e+07	7.237921e+13	0.000000e+00	4.723618e-01	1.565834e+15	3.198758e+15	1.257507e+15	2.498639e+04	1.341217e+04	3.075249e+03	0	1.455271e-03
8.000000e+07	7.139953e+13	0.000000e+00	4.723618e-01	1.557889e+15	3.186538e+15	1.250635e+15	2.496499e+04	1.340802e+04	3.074296e+03	0	1.448675e-03
9.000000e+07	7.042834e+13	0.000000e+00	4.723618e-01	1.550009e+15	3.174331e+15	1.243814e+15	2.494371e+04	1.340383e+04	3.073337e+03	0	1.442077e-03
1.000000e+08	6.946554e+13	0.000000e+00	4.723618e-01	1.542194e+15	3.162138e+15	1.237043e+15	2.492253e+04	1.339962e+04	3.072372e+03	0	1.435475e-03
1.100000e+08	6.851105e+13	0.000000e+00	4.723618e-01	1.534444e+15	3.149961e+15	1.230323e+15	2.490145e+04	1.339539e+04	3.071400e+03	0	1.428870e-03
1.200000e+08	6.756477e+13	0.000000e+00	4.723618e-01	1.526757e+15	3.137802e+15	1.223652e+15	2.488048e+04	1.339113e+04	3.070423e+03	0	1.422261e-03
1.300000e+08	6.662662e+13	0.000000e+00	4.723618e-01	1.519132e+15	3.125662e+15	1.217031e+15	2.485962e+04	1.338684e+04	3.069441e+03	0	1.415648e-03
1.400000e+08	6.569651e+13	0.000000e+00	4.723618e-01	1.511571e+15	3.113544e+15	1.210459e+15	2.483886e+04	1.338253e+04	3.068453e+03	0	1.409029e-03
1.500000e+08	6.477437e+13	0.000000e+00	4.723618e-01	1.504070e+15	3.101449e+15	1.203935e+15	2.481821e+04	1.337820e+04	3.067460e+03	0	1.402405e-03
1.600000e+08	6.386009e+13	0.000000e+00	4.723618e-01	1.496631e+15	3.089377e+15	1.197460e+15	2.479765e+04	1.337385e+04	3.066462e+03	0	1.395776e-03
1.700000e+08	6.295361e+13	0.000000e+00	4.723618e-01	1.489252e+15	3.077332e+15	1.191032e+15	2.477720e+04	1.336948e+04	3.065459e+03	0	1.389140e-03
1.800000e+08	6.205483e+13	0.000000e+00	4.723618e-01	1.481933e+15	3.065314e+15	1.184652e+15	2.475685e+04	1.336509e+04	3.064453e+03	0	1.382498e-03
1.900000e+08	6.116369e+13	0.000000e+00	4.723618e-01	1.474672e+15	3.053323e+15	1.178318e+15	2.473660e+04	1.336068e+04	3.063441e+03	0	1.375848e-03
2.000000e+08	6.028009e+13	0.000000e+00	4.723618e-01	1.467470e+15	3.041363e+15	1.172032e+15	2.471644e+04	1.335625e+04	3.062426e+03	0	1.369190e-03
2.100000e+08	5.940395e+13	0.000000e+00	4.723618e-01	1.460327e+15	3.029433e+15	1.165791e+15	2.469639e+04	1.335180e+04	3.061407e+03	0	1.362525e-03
2.200000e+08	5.853521e+13	0.000000e+00	4.723618e-01	1.453240e+15	3.017536e+15	1.159597e+15	2.467643e+04	1.334734e+04	3.060384e+03	0	1.355850e-03
2.300000e+08	5.767377e+13	0.000000e+00	4.723618e-01	1.446210e+15	3.005671e+15	1.153447e+15	2.465657e+04	1.334287e+04	3.059358e+03	0	1.349166e-03
2.400000e+08	5.681957e+13	0.000000e+00	4.723618e-01	1.439236e+15	2.993840e+15	1.147343e+15	2.463681e+04	1.333838e+04	3.058329e+03	0	1.342472e-03
2.500000e+08	5.597253e+13	0.000000e+00	4.723618e-01	1.432317e+15	2.982044e+15	1.141284e+15	2.461714e+04	1.333387e+04	3.057296e+03	0	1.335767e-03
2.600000e+08	5.513256e+13	0.000000e+00	4.723618e-01	1.425454e+15	2.970285e+15	1.135269e+15	2.459757e+04	1.332936e+04	3.056261e+03	0	1.329052e-03
2.700000e+08	5.429961e+13	0.000000e+00	4.723618e-01	1.418644e+15	2.958562e+15	1.129298e+15	2.457808e+04	1.332483e+04	3.055222e+03	0	1.322325e-03
2.800000e+08	5.347359e+13	0.000000e+00	4.723618e-01	1.411889e+15	2.946877e+15	1.123371e+15	2.455870e+04	1.332029e+04	3.054181e+03	0	1.315585e-03
2.900000e+08	5.265443e+13	0.000000e+00	4.723618e-01	1.405187e+15	2.935231e+15	1.117486e+15	2.453940e+04	1.331574e+04	3.053138e+03	0	1.308833e-03
3.000000e+08	5.184205e+13	0.000000e+00	4.723618e-01	1.398537e+15	2.923624e+15	1.111645e+15	2.452020e+04	1.331118e+04	3.052092e+03	0	1.302067e-03
3.100000e+08	5.103640e+13	0.000000e+00	4.723618e-01	1.391940e+15	2.912057e+15	1.105847e+15	2.450108e+04	1.330660e+04	3.051043e+03	0	1.295287e-03
3.200000e+08	5.023739e+13	0.000000e+00	4.723618e-01	1.385394e+15	2.900531e+15	1.100090e+15	2.448206e+04	1.330202e+04	3.049993e+03	0	1.288492e-03
3.300000e+08	4.944496e+13	0.000000e+00	4.723618e-01	1.378899e+15	2.889046e+15	1.094375e+15	2.446312e+04	1.329743e+04	3.048941e+03	0	1.281681e-03
3.400000e+08	4.865904e+13	0.000000e+00	4.723618e-01	1.372455e+15	2.877603e+15	1.088702e+15	2.444428e+04	1.329284e+04	3.047887e+03	0	1.274854e-03
3.500000e+08	4.787956e+13	0.000000e+00	4.723618e-01	1.366061e+15	2.866203e+15	1.083070e+15	2.442552e+04	1.328823e+04	3.046831e+03	0	1.268010e-03
3.600000e+08	4.710646e+13	0.000000e+00	4.723618e-01	1.359716e+15	2.854847e+15	1.077479e+15	2.440685e+04	1.328362e+04	3.045774e+03	0	1.261148e-03
3.700000e+08	4.633966e+13	0.000000e+00	4.723618e-01	1.353420e+15	2.843534e+15	1.071928e+15	2.438826e+04	1.327900e+04	3.044715e+03	0	1.254267e-03
3.800000e+08	4.557911e+13	0.000000e+00	4.723618e-01	1.347173e+15	2.832265e+15	1.066418e+15	2.436977e+04	1.327438e+04	3.043655e+03	0	1.247368e-03
3.900000e+08	4.482473e+13	0.000000e+00	4.723618e-01	1.340974e+15	2.821041e+15	1.060947e+15	2.435135e+04	1.326975e+04	3.042594e+03	0	1.240448e-03
4.000000e+08	4.407646e+13	0.000000e+00	4.723618e-01	1.334823e+15	2.809863e+15	1.055516e+15	2.433302e+04	1.326512e+04	3.041531e+03	0	1.233507e-03
4.100000e+08	4.333425e+13	0.000000e+00	4.723618e-01	1.328718e+15	2.798730e+15	1.050124e+15	2.431478e+04	1.326048e+04	3.040468e+03	0	1.226543e-03
4.200000e+08	4.259802e+13	0.000000e+00	4.723618e-01	1.322660e+15	2.787643e+15	1.044771e+15	2.429662e+04	1.325584e+04	3.039403e+03	0	1.219558e-03
4.300000e+08	4.186771e+13	0.000000e+00	4.723618e-01	1.316648e+15	2.776602e+15	1.039456e+15	2.427854e+04	1.325119e+04	3.038338e+03	0	1.212548e-03
4.400000e+08	4.114327e+13	0.000000e+00	4.723618e-01	1.310682e+15	2.765608e+15	1.034180e+15	2.426054e+04	1.324654e+04	3.037272e+03	0	1.205514e-03
4.500000e+08	4.042464e+13	0.000000e+00	4.723618e-01	1.304761e+15	2.754661e+15	1.028941e+15	2.424263e+04	1.324189e+04	3.036206e+03	0	1.198454e-03
4.600000e+08	3.971174e+13	0.000000e+00	4.723618e-01	1.298885e+15	2.743761e+15	1.023741e+15	2.422480e+04	1.323724e+04	3.035139e+03	0	1.191367e-03
4.700000e+08	3.900454e+13	0.000000e+00	4.723618e-01	1.293053e+15	2.732909e+15	1.018577e+15	2.420704e+04	1.323258e+04	3.034071e+03	0	1.184252e-03
4.800000e+08	3.830296e+13	0.000000e+00	4.723618e-01	1.287264e+15	2.722105e+15	1.013451e+15	2.418937e+04	1.322793e+04	3.033003e+03	0	1.177109e-03
4.900000e+08	3.760694e+13	0.000000e+00	4.723618e-01	1.281520e+15	2.711349e+15	1.008361e+15	2.417177e+04	1.322327e+04	3.031935e+03	0	1.169935e-03
5.000000e+08	3.691644e+13	0.000000e+00	4.723618e-01	1.275818e+15	2.700641e+15	1.003307e+15	2.415425e+04	1.321861e+04	3.030867e+03	0	1.162731e-03
5.100000e+08	3.623140e+13	0.000000e+00	4.723618e-01	1.270158e+15	2.689982e+15	9.982899e+14	2.413682e+04	1.321395e+04	3.029798e+03	0	1.155494e-03
5.200000e+08	3.555175e+13	0.000000e+00	4.723618e-01	1.264541e+15	2.679371e+15	9.933084e+14	2.411945e+04	1.320929e+04	3.028730e+03	0	1.148223e-03
5.300000e+08	3.487745e+13	0.000000e+00	4.723618e-01	1.258965e+15	2.668810e+15	9.883624e+14	2.410217e+04	1.320463e+04	3.027661e+03	0	1.140917e-03
5.400000e+08	3.420844e+13	0.000000e+00	4.723618e-01	1.253431e+15	2.658297e+15	9.834516e+14	2.408496e+04	1.319997e+04	3.026593e+03	0	1.133575e-03
5.500000e+08	3.354467e+13	0.000000e+00	4.723618e-01	1.247937e+15	2.647833e+15	9.785758e+14	2.406783e+04	1.319531e+04	3.025525e+03	0	1.126195e-03
5.600000e+08	3.288608e+13	0.000000e+00	4.723618e-01	1.242484e+15	2.637418e+15	9.737346e+14	2.405077e+04	1.319065e+04	3.024457e+03	0	1.118776e-03
5.700000e+08	3.223263e+13	0.000000e+00	4.723618e-01	1.237071e+15	2.627053e+15	9.689279e+14	2.403378e+04	1.318600e+04	3.023389e+03	0	1.111317e-03
5.800000e+08	3.158425e+13	0.000000e+00	4.723618e-01	1.231698e+15	2.616737e+15	9.641552e+14	2.401687e+04	1.318134e+04	3.022322e+03	0	1.103814e-03
5.900000e+08	3.094090e+13	0.000000e+00	4.723618e-01	1.226364e+15	2.606471e+15	9.594163e+14	2.400004e+04	1.317669e+04	3.021255e+03	0	1.096268e-03
6.000000e+08	3.030253e+13	0.000000e+00	4.723618e-01	1.221069e+15	2.596254e+15	9.547110e+14	2.398327e+04	1.317204e+04	3.020189e+03	0	1.088676e-03
6.100000e+08	2.966909e+13	0.000000e+00	4.723618e-01	1.215812e+15	2.586086e+15	9.500390e+14	2.396658e+04	1.316739e+04	3.019123e+03	0	1.081037e-03
6.200000e+08	2.904052e+13	0.000000e+00	4.723618e-01	1.210593e+15	2.575969e+15	9.454000e+14	2.394996e+04	1.316274e+04	3.018058e+03	0	1.073348e-03
6.300000e+08	2.841679e+13	0.000000e+00	4.723618e-01	1.205412e+15	2.565900e+15	9.407937e+14	2.393341e+04	1.315810e+04	3.016993e+03	0	1.065608e-03
6.400000e+08	2.779783e+13	0.000000e+00	4.723618e-01	1.200269e+15	2.555882e+15	9.362200e+14	2.391693e+04	1.315346e+04	3.015929e+03	0	1.057815e-03
6.500000e+08	2.718361e+13	0.000000e+00	4.723618e-01	1.195162e+15	2.545912e+15	9.316784e+14	2.390052e+04	1.314882e+04	3.014866e+03	0	1.049965e-03
6.600000e+08	2.657408e+13	0.000000e+00	4.723618e-01	1.190092e+15	2.535993e+15	9.271688e+14	2.388419e+04	1.314419e+04	3.013804e+03	0	1.042058e-03
6.700000e+08	2.596919e+13	0.000000e+00	4.723618e-01	1.185058e+15	2.526123e+15	9.226909e+14	2.386792e+04	1.313956e+04	3.012743e+03	0	1.034091e-03
6.800000e+08	2.536889e+13	0.000000e+00	4.723618e-01	1.180061e+15	2.516302e+15	9.182445e+14	2.385172e+04	1.313494e+04	3.011682e+03	0	1.026061e-03
6.900000e+08	2.477314e+13	0.000000e+00	4.723618e-01	1.175099e+15	2.506531e+15	9.138292e+14	2.383558e+04	1.313032e+04	3.010623e+03	0	1.017965e-03
7.000000e+08	2.418189e+13	0.000000e+00	4.723618e-01	1.170172e+15	2.496809e+15	9.094449e+14	2.381952e+04	1.312570e+04	3.009564e+03	0	1.009801e-03
7.100000e+08	2.359510e+13	0.000000e+00	4.723618e-01	1.165280e+15	2.487137e+15	9.050913e+14	2.380352e+04	1.312109e+04	3.008506e+03	0	1.001567e-03
7.200000e+08	2.301273e+13	0.000000e+00	4.723618e-01	1.160422e+15	2.477513e+15	9.007682e+14	2.378759e+04	1.311648e+04	3.007450e+03	0	9.932577e-04
7.300000e+08	2.243473e+13	0.000000e+00	4.723618e-01	1.155599e+15	2.467939e+15	8.964752e+14	2.377173e+04	1.311188e+04	3.006395e+03	0	9.848713e-04
7.400000e+08	2.186106e+13	0.000000e+00	4.723618e-01	1.150810e+15	2.458414e+15	8.922122e+14	2.375593e+04	1.310728e+04	3.005341e+03	0	9.764041e-04
7.500000e+08	2.129167e+13	0.000000e+00	4.723618e-01	1.146054e+15	2.448938e+15	8.879790e+14	2.374020e+04	1.310269e+04	3.004288e+03	0	9.678524e-04
7.600000e+08	2.072653e+13	0.000000e+00	4.723618e-01	1.141332e+15	2.439511e+15	8.837752e+14	2.372453e+04	1.309810e+04	3.003236e+03	0	9.592124e-04
7.700000e+08	2.016560e+13	0.000000e+00	4.723618e-01	1.136643e+15	2.430133e+15	8.796007e+14	2.370893e+04	1.309352e+04	3.002185e+03	0	9.504798e-04
7.800000e+08	1.960882e+13	0.000000e+00	4.723618e-01	1.131986e+15	2.420803e+15	8.754552e+14	2.369339e+04	1.308894e+04	3.001136e+03	0	9.416505e-04
7.900000e+08	1.905617e+13	0.000000e+00	4.723618e-01	1.127361e+15	2.411522e+15	8.713384e+14	2.367791e+04	1.308437e+04	3.000088e+03	0	9.327196e-04
8.000000e+08	1.850760e+13	0.000000e+00	4.723618e-01	1.122769e+15	2.402289e+15	8.672503e+14	2.366250e+04	1.307981e+04	2.999042e+03	0	9.236823e-04
8.100000e+08	1.796308e+13	0.000000e+00	4.723618e-01	1.118208e+15	2.393104e+15	8.631904e+14	2.364715e+04	1.307525e+04	2.997997e+03	0	9.145331e-04
8.200000e+08	1.742255e+13	0.000000e+00	4.723618e-01	1.113679e+15	2.383968e+15	8.591587e+14	2.363186e+04	1.307070e+04	2.996953e+03	0	9.052666e-04
8.300000e+08	1.688600e+13	0.000000e+00	4.723618e-01	1.109180e+15	2.374880e+15	8.551548e+14	2.361663e+04	1.306615e+04	2.995911e+03	0	8.958764e-04
8.400000e+08	1.635336e+13	0.000000e+00	4.723618e-01	1.104713e+15	2.365839e+15	8.511786e+14	2.360147e+04	1.306161e+04	2.994870e+03	0	8.863561e-04
8.500000e+08	1.582462e+13	0.000000e+00	4.723618e-01	1.100276e+15	2.356846e+15	8.472298e+14	2.358637e+04	1.305708e+04	2.993831e+03	0	8.766986e-04
8.600000e+08	1.529973e+13	0.000000e+00	4.723618e-01	1.095870e+15	2.347901e+15	8.433083e+14	2.357132e+04	1.305256e+04	2.992793e+03	0	8.668963e-04
8.700000e+08	1.477866e+13	0.000000e+00	4.723618e-01	1.091493e+15	2.339002e+15	8.394137e+14	2.355634e+04	1.304804e+04	2.991757e+03	0	8.569409e-04
8.800000e+08	1.426136e+13	0.000000e+00	4.723618e-01	1.087146e+15	2.330152e+15	8.355459e+14	2.354142e+04	1.304353e+04	2.990723e+03	0	8.468235e-04
8.900000e+08	1.374781e+13	0.000000e+00	4.723618e-01	1.082829e+15	2.321348e+15	8.317047e+14	2.352655e+04	1.303902e+04	2.989690e+03	0	8.365342e-04
9.000000e+08	1.323797e+13	0.000000e+00	4.723618e-01	1.078540e+15	2.312591e+15	8.278899e+14	2.351175e+04	1.303452e+04	2.988658e+03	0	8.260626e-04
9.100000e+08	1.273179e+13	0.000000e+00	4.723618e-01	1.074281e+15	2.303880e+15	8.241012e+14	2.349700e+04	1.303003e+04	2.987629e+03	0	8.153969e-04
9.200000e+08	1.222926e+13	0.000000e+00	4.723618e-01	1.070050e+15	2.295216e+15	8.203385e+14	2.348231e+04	1.302555e+04	2.986601e+03	0	8.045244e-04
9.300000e+08	1.173032e+13	0.000000e+00	4.723618e-01	1.065847e+15	2.286599e+15	8.166015e+14	2.346768e+04	1.302107e+04	2.985575e+03	0	7.934311e-04
9.400000e+08	1.123496e+13	0.000000e+00	4.723618e-01	1.061673e+15	2.278027e+15	8.128900e+14	2.345311e+04	1.301660e+04	2.984550e+03	0	7.821014e-04
9.500000e+08	1.074313e+13	0.000000e+00	4.723618e-01	1.057526e+15	2.269502e+15	8.092039e+14	2.343859e+04	1.301214e+04	2.983527e+03	0	7.705181e-04
9.600000e+08	1.025481e+13	0.000000e+00	4.723618e-01	1.053407e+15	2.261022e+15	8.055429e+14	2.342414e+04	1.300769e+04	2.982506e+03	0	7.586621e-04
9.700000e+08	9.769950e+12	0.000000e+00	4.723618e-01	1.049315e+15	2.252588e+15	8.019068e+14	2.340973e+04	1.300324e+04	2.981487e+03	0	7.465118e-04
9.800000e+08	9.288531e+12	0.000000e+00	4.723618e-01	1.045251e+15	2.244199e+15	7.982955e+14	2.339539e+04	1.299881e+04	2.980469e+03	0	7.340431e-04
9.900000e+08	8.810517e+12	0.000000e+00	4.723618e-01	1.041213e+15	2.235855e+15	7.947087e+14	2.338109e+04	1.299438e+04	2.979454e+03	0	7.212287e-04
1.000000e+09	8.335877e+12	0.000000e+00	4.723618e-01	1.037202e+15	2.227556e+15	7.911463e+14	2.336686e+04	1.298995e+04	2.978440e+03	0	7.080376e-04
1.010000e+09	7.864579e+12	0.000000e+00	4.723618e-01	1.033217e+15	2.219302e+15	7.876081e+14	2.335268e+04	1.298554e+04	2.977428e+03	0	6.944341e-04
1.020000e+09	7.396591e+12	0.000000e+00	4.723618e-01	1.029258e+15	2.211093e+15	7.840938e+14	2.333855e+04	1.298113e+04	2.976417e+03	0	6.803772e-04
1.030000e+09	6.931884e+12	0.000000e+00	4.723618e-01	1.025325e+15	2.202928e+15	7.806033e+14	2.332447e+04	1.297674e+04	2.975409e+03	0	6.658192e-04
1.040000e+09	6.470428e+12	0.000000e+00	4.723618e-01	1.021418e+15	2.194807e+15	7.771363e+14	2.331045e+04	1.297235e+04	2.974402e+03	0	6.507041e-04
1.050000e+09	6.012191e+12	0.000000e+00	4.723618e-01	1.017536e+15	2.186729e+15	7.736928e+14	2.329649e+04	1.296797e+04	2.973398e+03	0	6.349655e-04
1.060000e+09	5.557145e+12	0.000000e+00	4.723618e-01	1.013679e+15	2.178696e+15	7.702725e+14	2.328258e+04	1.296359e+04	2.972395e+03	0	6.185239e-04
1.070000e+09	5.105261e+12	0.000000e+00	4.723618e-01	1.009848e+15	2.170706e+15	7.668753e+14	2.326871e+04	1.295923e+04	2.971394e+03	0	6.012824e-04
1.080000e+09	4.656509e+12	0.000000e+00	4.723618e-01	1.006041e+15	2.162759e+15	7.635009e+14	2.325491e+04	1.295487e+04	2.970395e+03	0	5.831219e-04
1.090000e+09	4.210860e+12	0.000000e+00	4.723618e-01	1.002258e+15	2.154855e+15	7.601492e+14	2.324115e+04	1.295052e+04	2.969398e+03	0	5.638923e-04
1.100000e+09	3.768287e+12	0.000000e+00	4.723618e-01	9.984999e+14	2.146995e+15	7.568200e+14	2.322745e+04	1.294618e+04	2.968403e+03	0	5.434011e-04
1.110000e+09	3.328762e+12	0.000000e+00	4.723618e-01	9.947657e+14	2.139176e+15	7.535132e+14	2.321379e+04	1.294185e+04	2.967410e+03	0	5.213949e-04
1.120000e+09	2.892257e+12	0.000000e+00	4.723618e-01	9.910555e+14	2.131401e+15	7.502284e+14	2.320019e+04	1.293753e+04	2.966419e+03	0	4.975287e-04
1.130000e+09	2.458744e+12	0.000000e+00	4.723618e-01	9.873689e+14	2.123667e+15	7.469657e+14	2.318664e+04	1.293322e+04	2.965430e+03	0	4.713139e-04
1.140000e+09	2.028196e+12	0.000000e+00	4.723618e-01	9.837057e+14	2.115975e+15	7.437248e+14	2.317314e+04	1.292891e+04	2.964443e+03	0	4.420206e-04
1.150000e+09	1.600587e+12	0.000000e+00	4.723618e-01	9.800658e+14	2.108325e+15	7.405055e+14	2.315969e+04	1.292462e+04	2.963458e+03	0	4.084752e-04
1.160000e+09	1.175891e+12	0.000000e+00	4.723618e-01	9.764489e+14	2.100717e+15	7.373077e+14	2.314628e+04	1.292033e+04	2.962475e+03	0	3.685769e-04
1.170000e+09	7.540799e+11	0.000000e+00	4.723618e-01	9.728548e+14	2.093150e+15	7.341312e+14	2.313293e+04	1.291605e+04	2.961494e+03	0	3.178423e-04
1.180000e+09	3.351294e+11	0.000000e+00	4.723618e-01	9.692834e+14	2.085624e+15	7.309758e+14	2.311963e+04	1.291178e+04	2.960515e+03	0	2.425549e-04
1.190000e+09	-8.098650e+10	0.000000e+00	4.723618e-01	9.657344e+14	2.078139e+15	7.278414e+14	2.310638e+04	1.290752e+04	2.959537e+03	0	-nan
