#t		Qconv[W]	Ri[Rp]		R*[Rp]		Qc[W]		Qm[W]		Qr[W]		Tcmb[K]		Tl[K]		Tup[K]		RiFlag		Bs[T]
0.000000e+00	7.365919e+13	0.000000e+00	6.000000e-01	9.808097e+14	8.063376e+13	2.522542e+14	1.180821e+04	4.639436e+03	2.542391e+03	0	1.339724e-03
1.000000e+07	7.244440e+13	0.000000e+00	6.000000e-01	9.660935e+14	8.637253e+13	2.508565e+14	1.175483e+04	4.686365e+03	2.568108e+03	0	1.332319e-03
2.000000e+07	7.124214e+13	0.000000e+00	6.000000e-01	9.515317e+14	9.229975e+13	2.494693e+14	1.170225e+04	4.732398e+03	2.593334e+03	0	1.324907e-03
3.000000e+07	7.005267e+13	0.000000e+00	6.000000e-01	9.371271e+14	9.840785e+13	2.480924e+14	1.165046e+04	4.777534e+03	2.618068e+03	0	1.317492e-03
4.000000e+07	6.887623e+13	0.000000e+00	6.000000e-01	9.228825e+14	1.046886e+14	2.467258e+14	1.159944e+04	4.821772e+03	2.642311e+03	0	1.310075e-03
5.000000e+07	6.771305e+13	0.000000e+00	6.000000e-01	9.088004e+14	1.111332e+14	2.453695e+14	1.154920e+04	4.865113e+03	2.666061e+03	0	1.302659e-03
6.000000e+07	6.656334e+13	0.000000e+00	6.000000e-01	8.948833e+14	1.177323e+14	2.440232e+14	1.149972e+04	4.907557e+03	2.689321e+03	0	1.295244e-03
7.000000e+07	6.542733e+13	0.000000e+00	6.000000e-01	8.811337e+14	1.244760e+14	2.426869e+14	1.145099e+04	4.949106e+03	2.712089e+03	0	1.287833e-03
8.000000e+07	6.430520e+13	0.000000e+00	6.000000e-01	8.675537e+14	1.313541e+14	2.413606e+14	1.140300e+04	4.989760e+03	2.734367e+03	0	1.280428e-03
9.000000e+07	6.319715e+13	0.000000e+00	6.000000e-01	8.541454e+14	1.383557e+14	2.400442e+14	1.135575e+04	5.029522e+03	2.756157e+03	0	1.273031e-03
1.000000e+08	6.210335e+13	0.000000e+00	6.000000e-01	8.409107e+14	1.454701e+14	2.387375e+14	1.130922e+04	5.068394e+03	2.777458e+03	0	1.265644e-03
1.100000e+08	6.102395e+13	0.000000e+00	6.000000e-01	8.278514e+14	1.526858e+14	2.374405e+14	1.126342e+04	5.106380e+03	2.798274e+03	0	1.258268e-03
1.200000e+08	5.995912e+13	0.000000e+00	6.000000e-01	8.149692e+14	1.599914e+14	2.361532e+14	1.121832e+04	5.143483e+03	2.818607e+03	0	1.250907e-03
1.300000e+08	5.890897e+13	0.000000e+00	6.000000e-01	8.022655e+14	1.673751e+14	2.348754e+14	1.117391e+04	5.179707e+03	2.838457e+03	0	1.243561e-03
1.400000e+08	5.787364e+13	0.000000e+00	6.000000e-01	7.897417e+14	1.748253e+14	2.336070e+14	1.113020e+04	5.215057e+03	2.857829e+03	0	1.236232e-03
1.500000e+08	5.685322e+13	0.000000e+00	6.000000e-01	7.773987e+14	1.823302e+14	2.323480e+14	1.108716e+04	5.249539e+03	2.876725e+03	0	1.228923e-03
1.600000e+08	5.584781e+13	0.000000e+00	6.000000e-01	7.652377e+14	1.898779e+14	2.310983e+14	1.104479e+04	5.283158e+03	2.895148e+03	0	1.221636e-03
1.700000e+08	5.485748e+13	0.000000e+00	6.000000e-01	7.532593e+14	1.974567e+14	2.298578e+14	1.100309e+04	5.315920e+03	2.913102e+03	0	1.214372e-03
1.800000e+08	5.388230e+13	0.000000e+00	6.000000e-01	7.414643e+14	2.050550e+14	2.286265e+14	1.096203e+04	5.347833e+03	2.930590e+03	0	1.207133e-03
1.900000e+08	5.292231e+13	0.000000e+00	6.000000e-01	7.298530e+14	2.126612e+14	2.274042e+14	1.092161e+04	5.378903e+03	2.947616e+03	0	1.199921e-03
2.000000e+08	5.197755e+13	0.000000e+00	6.000000e-01	7.184258e+14	2.202641e+14	2.261910e+14	1.088182e+04	5.409138e+03	2.964185e+03	0	1.192738e-03
2.100000e+08	5.104804e+13	0.000000e+00	6.000000e-01	7.071827e+14	2.278526e+14	2.249866e+14	1.084265e+04	5.438547e+03	2.980301e+03	0	1.185585e-03
2.200000e+08	5.013377e+13	0.000000e+00	6.000000e-01	6.961237e+14	2.354159e+14	2.237911e+14	1.080409e+04	5.467138e+03	2.995968e+03	0	1.178465e-03
2.300000e+08	4.923473e+13	0.000000e+00	6.000000e-01	6.852486e+14	2.429435e+14	2.226044e+14	1.076613e+04	5.494920e+03	3.011193e+03	0	1.171378e-03
2.400000e+08	4.835092e+13	0.000000e+00	6.000000e-01	6.745570e+14	2.504253e+14	2.214264e+14	1.072876e+04	5.521904e+03	3.025980e+03	0	1.164326e-03
2.500000e+08	4.748227e+13	0.000000e+00	6.000000e-01	6.640483e+14	2.578513e+14	2.202570e+14	1.069197e+04	5.548098e+03	3.040334e+03	0	1.157312e-03
2.600000e+08	4.662875e+13	0.000000e+00	6.000000e-01	6.537218e+14	2.652125e+14	2.190961e+14	1.065575e+04	5.573513e+03	3.054262e+03	0	1.150335e-03
2.700000e+08	4.579029e+13	0.000000e+00	6.000000e-01	6.435768e+14	2.724995e+14	2.179438e+14	1.062009e+04	5.598160e+03	3.067768e+03	0	1.143399e-03
2.800000e+08	4.496682e+13	0.000000e+00	6.000000e-01	6.336122e+14	2.797041e+14	2.167998e+14	1.058498e+04	5.622050e+03	3.080860e+03	0	1.136503e-03
2.900000e+08	4.415824e+13	0.000000e+00	6.000000e-01	6.238268e+14	2.868179e+14	2.156643e+14	1.055041e+04	5.645194e+03	3.093542e+03	0	1.129650e-03
3.000000e+08	4.336445e+13	0.000000e+00	6.000000e-01	6.142194e+14	2.938333e+14	2.145369e+14	1.051638e+04	5.667603e+03	3.105822e+03	0	1.122840e-03
3.100000e+08	4.258535e+13	0.000000e+00	6.000000e-01	6.047887e+14	3.007433e+14	2.134178e+14	1.048286e+04	5.689289e+03	3.117706e+03	0	1.116075e-03
3.200000e+08	4.182082e+13	0.000000e+00	6.000000e-01	5.955331e+14	3.075410e+14	2.123069e+14	1.044986e+04	5.710265e+03	3.129201e+03	0	1.109355e-03
3.300000e+08	4.107071e+13	0.000000e+00	6.000000e-01	5.864509e+14	3.142201e+14	2.112040e+14	1.041736e+04	5.730542e+03	3.140313e+03	0	1.102683e-03
3.400000e+08	4.033490e+13	0.000000e+00	6.000000e-01	5.775405e+14	3.207749e+14	2.101092e+14	1.038536e+04	5.750133e+03	3.151048e+03	0	1.096058e-03
3.500000e+08	3.961323e+13	0.000000e+00	6.000000e-01	5.688000e+14	3.272001e+14	2.090222e+14	1.035383e+04	5.769050e+03	3.161415e+03	0	1.089482e-03
3.600000e+08	3.890554e+13	0.000000e+00	6.000000e-01	5.602274e+14	3.334908e+14	2.079432e+14	1.032279e+04	5.787306e+03	3.171419e+03	0	1.082955e-03
3.700000e+08	3.821168e+13	0.000000e+00	6.000000e-01	5.518209e+14	3.396427e+14	2.068720e+14	1.029221e+04	5.804914e+03	3.181068e+03	0	1.076478e-03
3.800000e+08	3.753146e+13	0.000000e+00	6.000000e-01	5.435782e+14	3.456518e+14	2.058085e+14	1.026208e+04	5.821887e+03	3.190369e+03	0	1.070052e-03
3.900000e+08	3.686471e+13	0.000000e+00	6.000000e-01	5.354972e+14	3.515147e+14	2.047527e+14	1.023241e+04	5.838237e+03	3.199329e+03	0	1.063678e-03
4.000000e+08	3.621125e+13	0.000000e+00	6.000000e-01	5.275756e+14	3.572283e+14	2.037045e+14	1.020317e+04	5.853978e+03	3.207955e+03	0	1.057355e-03
4.100000e+08	3.557089e+13	0.000000e+00	6.000000e-01	5.198112e+14	3.627900e+14	2.026639e+14	1.017436e+04	5.869122e+03	3.216254e+03	0	1.051086e-03
4.200000e+08	3.494343e+13	0.000000e+00	6.000000e-01	5.122017e+14	3.681974e+14	2.016308e+14	1.014598e+04	5.883683e+03	3.224233e+03	0	1.044869e-03
4.300000e+08	3.432868e+13	0.000000e+00	6.000000e-01	5.047445e+14	3.734489e+14	2.006052e+14	1.011801e+04	5.897673e+03	3.231900e+03	0	1.038705e-03
4.400000e+08	3.372643e+13	0.000000e+00	6.000000e-01	4.974374e+14	3.785431e+14	1.995869e+14	1.009044e+04	5.911105e+03	3.239261e+03	0	1.032595e-03
4.500000e+08	3.313648e+13	0.000000e+00	6.000000e-01	4.902778e+14	3.834788e+14	1.985759e+14	1.006328e+04	5.923993e+03	3.246323e+03	0	1.026539e-03
4.600000e+08	3.255862e+13	0.000000e+00	6.000000e-01	4.832632e+14	3.882552e+14	1.975722e+14	1.003650e+04	5.936348e+03	3.253094e+03	0	1.020536e-03
4.700000e+08	3.199265e+13	0.000000e+00	6.000000e-01	4.763911e+14	3.928719e+14	1.965757e+14	1.001010e+04	5.948185e+03	3.259580e+03	0	1.014588e-03
4.800000e+08	3.143834e+13	0.000000e+00	6.000000e-01	4.696590e+14	3.973290e+14	1.955863e+14	9.984080e+03	5.959514e+03	3.265789e+03	0	1.008695e-03
4.900000e+08	3.089550e+13	0.000000e+00	6.000000e-01	4.630642e+14	4.016265e+14	1.946040e+14	9.958424e+03	5.970350e+03	3.271727e+03	0	1.002855e-03
5.000000e+08	3.036390e+13	0.000000e+00	6.000000e-01	4.566043e+14	4.057650e+14	1.936287e+14	9.933127e+03	5.980704e+03	3.277401e+03	0	9.970701e-04
5.100000e+08	2.984334e+13	0.000000e+00	6.000000e-01	4.502767e+14	4.097451e+14	1.926605e+14	9.908181e+03	5.990589e+03	3.282817e+03	0	9.913392e-04
5.200000e+08	2.933359e+13	0.000000e+00	6.000000e-01	4.440788e+14	4.135679e+14	1.916991e+14	9.883579e+03	6.000016e+03	3.287984e+03	0	9.856625e-04
5.300000e+08	2.883446e+13	0.000000e+00	6.000000e-01	4.380081e+14	4.172345e+14	1.907445e+14	9.859315e+03	6.008998e+03	3.292906e+03	0	9.800398e-04
5.400000e+08	2.834571e+13	0.000000e+00	6.000000e-01	4.320620e+14	4.207465e+14	1.897968e+14	9.835381e+03	6.017547e+03	3.297590e+03	0	9.744710e-04
5.500000e+08	2.786715e+13	0.000000e+00	6.000000e-01	4.262379e+14	4.241053e+14	1.888558e+14	9.811771e+03	6.025674e+03	3.302044e+03	0	9.689558e-04
5.600000e+08	2.739856e+13	0.000000e+00	6.000000e-01	4.205334e+14	4.273127e+14	1.879215e+14	9.788478e+03	6.033391e+03	3.306273e+03	0	9.634941e-04
5.700000e+08	2.693973e+13	0.000000e+00	6.000000e-01	4.149460e+14	4.303709e+14	1.869939e+14	9.765495e+03	6.040708e+03	3.310283e+03	0	9.580854e-04
5.800000e+08	2.649046e+13	0.000000e+00	6.000000e-01	4.094731e+14	4.332818e+14	1.860728e+14	9.742817e+03	6.047638e+03	3.314080e+03	0	9.527295e-04
5.900000e+08	2.605053e+13	0.000000e+00	6.000000e-01	4.041122e+14	4.360476e+14	1.851582e+14	9.720436e+03	6.054191e+03	3.317671e+03	0	9.474261e-04
6.000000e+08	2.561976e+13	0.000000e+00	6.000000e-01	3.988611e+14	4.386707e+14	1.842501e+14	9.698348e+03	6.060377e+03	3.321061e+03	0	9.421748e-04
6.100000e+08	2.519792e+13	0.000000e+00	6.000000e-01	3.937172e+14	4.411536e+14	1.833485e+14	9.676546e+03	6.066208e+03	3.324256e+03	0	9.369751e-04
6.200000e+08	2.478484e+13	0.000000e+00	6.000000e-01	3.886783e+14	4.434990e+14	1.824532e+14	9.655023e+03	6.071693e+03	3.327262e+03	0	9.318268e-04
6.300000e+08	2.438031e+13	0.000000e+00	6.000000e-01	3.837418e+14	4.457092e+14	1.815642e+14	9.633775e+03	6.076843e+03	3.330085e+03	0	9.267293e-04
6.400000e+08	2.398413e+13	0.000000e+00	6.000000e-01	3.789056e+14	4.477872e+14	1.806815e+14	9.612796e+03	6.081668e+03	3.332728e+03	0	9.216821e-04
6.500000e+08	2.359613e+13	0.000000e+00	6.000000e-01	3.741674e+14	4.497356e+14	1.798051e+14	9.592081e+03	6.086177e+03	3.335199e+03	0	9.166849e-04
6.600000e+08	2.321610e+13	0.000000e+00	6.000000e-01	3.695249e+14	4.515574e+14	1.789348e+14	9.571623e+03	6.090380e+03	3.337502e+03	0	9.117370e-04
6.700000e+08	2.284387e+13	0.000000e+00	6.000000e-01	3.649759e+14	4.532552e+14	1.780706e+14	9.551418e+03	6.094285e+03	3.339643e+03	0	9.068380e-04
6.800000e+08	2.247926e+13	0.000000e+00	6.000000e-01	3.605183e+14	4.548321e+14	1.772124e+14	9.531462e+03	6.097903e+03	3.341625e+03	0	9.019874e-04
6.900000e+08	2.212209e+13	0.000000e+00	6.000000e-01	3.561499e+14	4.562910e+14	1.763603e+14	9.511748e+03	6.101242e+03	3.343455e+03	0	8.971846e-04
7.000000e+08	2.177217e+13	0.000000e+00	6.000000e-01	3.518687e+14	4.576347e+14	1.755142e+14	9.492272e+03	6.104311e+03	3.345136e+03	0	8.924291e-04
7.100000e+08	2.142935e+13	0.000000e+00	6.000000e-01	3.476725e+14	4.588664e+14	1.746740e+14	9.473029e+03	6.107117e+03	3.346674e+03	0	8.877203e-04
7.200000e+08	2.109346e+13	0.000000e+00	6.000000e-01	3.435595e+14	4.599889e+14	1.738397e+14	9.454016e+03	6.109670e+03	3.348073e+03	0	8.830577e-04
7.300000e+08	2.076432e+13	0.000000e+00	6.000000e-01	3.395276e+14	4.610050e+14	1.730112e+14	9.435226e+03	6.111977e+03	3.349338e+03	0	8.784406e-04
7.400000e+08	2.044179e+13	0.000000e+00	6.000000e-01	3.355750e+14	4.619177e+14	1.721885e+14	9.416656e+03	6.114047e+03	3.350472e+03	0	8.738685e-04
7.500000e+08	2.012569e+13	0.000000e+00	6.000000e-01	3.316996e+14	4.627302e+14	1.713715e+14	9.398301e+03	6.115886e+03	3.351480e+03	0	8.693408e-04
7.600000e+08	1.981588e+13	0.000000e+00	6.000000e-01	3.278998e+14	4.634452e+14	1.705602e+14	9.380158e+03	6.117503e+03	3.352366e+03	0	8.648570e-04
7.700000e+08	1.951221e+13	0.000000e+00	6.000000e-01	3.241736e+14	4.640654e+14	1.697546e+14	9.362222e+03	6.118904e+03	3.353133e+03	0	8.604163e-04
7.800000e+08	1.921452e+13	0.000000e+00	6.000000e-01	3.205194e+14	4.645939e+14	1.689545e+14	9.344489e+03	6.120096e+03	3.353787e+03	0	8.560182e-04
7.900000e+08	1.892268e+13	0.000000e+00	6.000000e-01	3.169353e+14	4.650333e+14	1.681600e+14	9.326955e+03	6.121087e+03	3.354330e+03	0	8.516622e-04
8.000000e+08	1.863654e+13	0.000000e+00	6.000000e-01	3.134198e+14	4.653865e+14	1.673710e+14	9.309617e+03	6.121884e+03	3.354766e+03	0	8.473476e-04
8.100000e+08	1.835597e+13	0.000000e+00	6.000000e-01	3.099711e+14	4.656563e+14	1.665875e+14	9.292470e+03	6.122491e+03	3.355099e+03	0	8.430738e-04
8.200000e+08	1.808082e+13	0.000000e+00	6.000000e-01	3.065877e+14	4.658453e+14	1.658094e+14	9.275511e+03	6.122917e+03	3.355332e+03	0	8.388402e-04
8.300000e+08	1.781098e+13	0.000000e+00	6.000000e-01	3.032680e+14	4.659561e+14	1.650367e+14	9.258737e+03	6.123166e+03	3.355469e+03	0	8.346462e-04
8.400000e+08	1.754630e+13	0.000000e+00	6.000000e-01	3.000104e+14	4.659914e+14	1.642694e+14	9.242144e+03	6.123246e+03	3.355513e+03	0	8.304912e-04
8.500000e+08	1.728667e+13	0.000000e+00	6.000000e-01	2.968135e+14	4.659538e+14	1.635073e+14	9.225728e+03	6.123161e+03	3.355466e+03	0	8.263746e-04
8.600000e+08	1.703197e+13	0.000000e+00	6.000000e-01	2.936758e+14	4.658457e+14	1.627505e+14	9.209487e+03	6.122917e+03	3.355333e+03	0	8.222958e-04
8.700000e+08	1.678207e+13	0.000000e+00	6.000000e-01	2.905960e+14	4.656695e+14	1.619989e+14	9.193417e+03	6.122521e+03	3.355116e+03	0	8.182543e-04
8.800000e+08	1.653686e+13	0.000000e+00	6.000000e-01	2.875725e+14	4.654278e+14	1.612524e+14	9.177515e+03	6.121976e+03	3.354817e+03	0	8.142495e-04
8.900000e+08	1.629622e+13	0.000000e+00	6.000000e-01	2.846041e+14	4.651229e+14	1.605111e+14	9.161778e+03	6.121289e+03	3.354441e+03	0	8.102807e-04
9.000000e+08	1.606005e+13	0.000000e+00	6.000000e-01	2.816894e+14	4.647571e+14	1.597749e+14	9.146203e+03	6.120464e+03	3.353989e+03	0	8.063473e-04
9.100000e+08	1.582824e+13	0.000000e+00	6.000000e-01	2.788272e+14	4.643325e+14	1.590437e+14	9.130787e+03	6.119507e+03	3.353464e+03	0	8.024489e-04
9.200000e+08	1.560069e+13	0.000000e+00	6.000000e-01	2.760163e+14	4.638514e+14	1.583175e+14	9.115527e+03	6.118421e+03	3.352869e+03	0	7.985848e-04
9.300000e+08	1.537728e+13	0.000000e+00	6.000000e-01	2.732553e+14	4.633161e+14	1.575963e+14	9.100420e+03	6.117211e+03	3.352206e+03	0	7.947546e-04
9.400000e+08	1.515793e+13	0.000000e+00	6.000000e-01	2.705431e+14	4.627286e+14	1.568800e+14	9.085464e+03	6.115882e+03	3.351478e+03	0	7.909575e-04
9.500000e+08	1.494254e+13	0.000000e+00	6.000000e-01	2.678786e+14	4.620908e+14	1.561686e+14	9.070656e+03	6.114439e+03	3.350687e+03	0	7.871931e-04
9.600000e+08	1.473101e+13	0.000000e+00	6.000000e-01	2.652607e+14	4.614048e+14	1.554621e+14	9.055993e+03	6.112884e+03	3.349835e+03	0	7.834608e-04
9.700000e+08	1.452324e+13	0.000000e+00	6.000000e-01	2.626882e+14	4.606726e+14	1.547604e+14	9.041473e+03	6.111223e+03	3.348924e+03	0	7.797601e-04
9.800000e+08	1.431916e+13	0.000000e+00	6.000000e-01	2.601600e+14	4.598960e+14	1.540634e+14	9.027093e+03	6.109459e+03	3.347958e+03	0	7.760905e-04
9.900000e+08	1.411868e+13	0.000000e+00	6.000000e-01	2.576752e+14	4.590768e+14	1.533712e+14	9.012852e+03	6.107596e+03	3.346937e+03	0	7.724514e-04
1.000000e+09	1.392170e+13	0.000000e+00	6.000000e-01	2.552327e+14	4.582168e+14	1.526837e+14	8.998746e+03	6.105638e+03	3.345864e+03	0	7.688423e-04
1.010000e+09	1.372815e+13	0.000000e+00	6.000000e-01	2.528316e+14	4.573179e+14	1.520009e+14	8.984773e+03	6.103588e+03	3.344740e+03	0	7.652626e-04
1.020000e+09	1.353795e+13	0.000000e+00	6.000000e-01	2.504709e+14	4.563814e+14	1.513226e+14	8.970932e+03	6.101449e+03	3.343568e+03	0	7.617120e-04
1.030000e+09	1.335102e+13	0.000000e+00	6.000000e-01	2.481496e+14	4.554093e+14	1.506490e+14	8.957219e+03	6.099225e+03	3.342350e+03	0	7.581898e-04
1.040000e+09	1.316728e+13	0.000000e+00	6.000000e-01	2.458668e+14	4.544029e+14	1.499799e+14	8.943633e+03	6.096920e+03	3.341086e+03	0	7.546957e-04
1.050000e+09	1.298666e+13	0.000000e+00	6.000000e-01	2.436217e+14	4.533640e+14	1.493153e+14	8.930171e+03	6.094535e+03	3.339780e+03	0	7.512290e-04
1.060000e+09	1.280909e+13	0.000000e+00	6.000000e-01	2.414135e+14	4.522940e+14	1.486553e+14	8.916833e+03	6.092076e+03	3.338432e+03	0	7.477894e-04
1.070000e+09	1.263450e+13	0.000000e+00	6.000000e-01	2.392412e+14	4.511942e+14	1.479996e+14	8.903614e+03	6.089543e+03	3.337044e+03	0	7.443763e-04
1.080000e+09	1.246282e+13	0.000000e+00	6.000000e-01	2.371040e+14	4.500661e+14	1.473484e+14	8.890514e+03	6.086940e+03	3.335618e+03	0	7.409892e-04
1.090000e+09	1.229398e+13	0.000000e+00	6.000000e-01	2.350012e+14	4.489110e+14	1.467016e+14	8.877531e+03	6.084271e+03	3.334155e+03	0	7.376278e-04
1.100000e+09	1.212792e+13	0.000000e+00	6.000000e-01	2.329320e+14	4.477304e+14	1.460591e+14	8.864663e+03	6.081536e+03	3.332656e+03	0	7.342916e-04
1.110000e+09	1.196457e+13	0.000000e+00	6.000000e-01	2.308956e+14	4.465252e+14	1.454209e+14	8.851908e+03	6.078740e+03	3.331124e+03	0	7.309801e-04
1.120000e+09	1.180389e+13	0.000000e+00	6.000000e-01	2.288914e+14	4.452969e+14	1.447869e+14	8.839263e+03	6.075884e+03	3.329559e+03	0	7.276929e-04
1.130000e+09	1.164579e+13	0.000000e+00	6.000000e-01	2.269185e+14	4.440468e+14	1.441573e+14	8.826729e+03	6.072972e+03	3.327963e+03	0	7.244295e-04
1.140000e+09	1.149024e+13	0.000000e+00	6.000000e-01	2.249764e+14	4.427756e+14	1.435318e+14	8.814302e+03	6.070004e+03	3.326337e+03	0	7.211896e-04
1.150000e+09	1.133716e+13	0.000000e+00	6.000000e-01	2.230642e+14	4.414849e+14	1.429105e+14	8.801981e+03	6.066984e+03	3.324682e+03	0	7.179727e-04
1.160000e+09	1.118651e+13	0.000000e+00	6.000000e-01	2.211815e+14	4.401755e+14	1.422934e+14	8.789764e+03	6.063914e+03	3.322999e+03	0	7.147784e-04
1.170000e+09	1.103824e+13	0.000000e+00	6.000000e-01	2.193274e+14	4.388485e+14	1.416803e+14	8.777651e+03	6.060796e+03	3.321290e+03	0	7.116062e-04
1.180000e+09	1.089228e+13	0.000000e+00	6.000000e-01	2.175015e+14	4.375048e+14	1.410714e+14	8.765638e+03	6.057631e+03	3.319556e+03	0	7.084559e-04
1.190000e+09	1.074860e+13	0.000000e+00	6.000000e-01	2.157031e+14	4.361455e+14	1.404665e+14	8.753725e+03	6.054422e+03	3.317798e+03	0	7.053269e-04
1.200000e+09	1.060714e+13	0.000000e+00	6.000000e-01	2.139316e+14	4.347714e+14	1.398656e+14	8.741911e+03	6.051171e+03	3.316016e+03	0	7.022190e-04
1.210000e+09	1.046785e+13	0.000000e+00	6.000000e-01	2.121864e+14	4.333835e+14	1.392687e+14	8.730193e+03	6.047880e+03	3.314213e+03	0	6.991317e-04
1.220000e+09	1.033069e+13	0.000000e+00	6.000000e-01	2.104671e+14	4.319827e+14	1.386757e+14	8.718571e+03	6.044550e+03	3.312388e+03	0	6.960646e-04
1.230000e+09	1.019561e+13	0.000000e+00	6.000000e-01	2.087729e+14	4.305697e+14	1.380867e+14	8.707042e+03	6.041183e+03	3.310543e+03	0	6.930174e-04
1.240000e+09	1.006256e+13	0.000000e+00	6.000000e-01	2.071035e+14	4.291455e+14	1.375015e+14	8.695606e+03	6.037781e+03	3.308678e+03	0	6.899898e-04
1.250000e+09	9.931510e+12	0.000000e+00	6.000000e-01	2.054582e+14	4.277105e+14	1.369203e+14	8.684261e+03	6.034345e+03	3.306795e+03	0	6.869813e-04
1.260000e+09	9.802411e+12	0.000000e+00	6.000000e-01	2.038367e+14	4.262659e+14	1.363428e+14	8.673006e+03	6.030877e+03	3.304895e+03	0	6.839916e-04
1.270000e+09	9.675222e+12	0.000000e+00	6.000000e-01	2.022383e+14	4.248122e+14	1.357692e+14	8.661840e+03	6.027379e+03	3.302978e+03	0	6.810204e-04
1.280000e+09	9.549904e+12	0.000000e+00	6.000000e-01	2.006627e+14	4.233501e+14	1.351993e+14	8.650761e+03	6.023851e+03	3.301045e+03	0	6.780673e-04
1.290000e+09	9.426419e+12	0.000000e+00	6.000000e-01	1.991093e+14	4.218803e+14	1.346332e+14	8.639768e+03	6.020296e+03	3.299097e+03	0	6.751320e-04
1.300000e+09	9.304727e+12	0.000000e+00	6.000000e-01	1.975777e+14	4.204034e+14	1.340708e+14	8.628860e+03	6.016714e+03	3.297134e+03	0	6.722142e-04
1.310000e+09	9.184794e+12	0.000000e+00	6.000000e-01	1.960674e+14	4.189200e+14	1.335121e+14	8.618035e+03	6.013108e+03	3.295158e+03	0	6.693135e-04
1.320000e+09	9.066581e+12	0.000000e+00	6.000000e-01	1.945781e+14	4.174308e+14	1.329570e+14	8.607293e+03	6.009478e+03	3.293168e+03	0	6.664297e-04
1.330000e+09	8.950055e+12	0.000000e+00	6.000000e-01	1.931093e+14	4.159364e+14	1.324056e+14	8.596633e+03	6.005825e+03	3.291167e+03	0	6.635623e-04
1.340000e+09	8.835182e+12	0.000000e+00	6.000000e-01	1.916606e+14	4.144372e+14	1.318578e+14	8.586052e+03	6.002151e+03	3.289153e+03	0	6.607112e-04
1.350000e+09	8.721928e+12	0.000000e+00	6.000000e-01	1.902316e+14	4.129338e+14	1.313135e+14	8.575551e+03	5.998457e+03	3.287129e+03	0	6.578759e-04
1.360000e+09	8.610260e+12	0.000000e+00	6.000000e-01	1.888218e+14	4.114266e+14	1.307728e+14	8.565128e+03	5.994744e+03	3.285094e+03	0	6.550562e-04
