#t		Qconv[W]	Ri[Rp]		R*[Rp]		Qc[W]		Qm[W]		Qr[W]		Tcmb[K]		Tl[K]		Tup[K]		RiFlag		Bs[T]
0.000000e+00	9.250401e+13	0.000000e+00	6.000002e-01	1.170603e+15	7.799196e+13	2.957655e+14	1.299140e+04	4.936057e+03	2.619424e+03	0	1.436915e-03
1.000000e+07	9.120998e+13	0.000000e+00	6.000002e-01	1.156144e+15	8.354578e+13	2.941267e+14	1.293960e+04	4.984969e+03	2.645380e+03	0	1.430184e-03
2.000000e+07	8.992237e+13	0.000000e+00	6.000002e-01	1.141762e+15	8.930397e+13	2.925002e+14	1.288843e+04	5.033112e+03	2.670929e+03	0	1.423422e-03
3.000000e+07	8.864162e+13	0.000000e+00	6.000002e-01	1.127462e+15	9.526204e+13	2.908859e+14	1.283790e+04	5.080484e+03	2.696067e+03	0	1.416632e-03
4.000000e+07	8.736814e+13	0.000000e+00	6.000002e-01	1.113249e+15	1.014148e+14	2.892836e+14	1.278799e+04	5.127079e+03	2.720794e+03	0	1.409815e-03
5.000000e+07	8.610235e+13	0.000000e+00	6.000002e-01	1.099126e+15	1.077564e+14	2.876932e+14	1.273872e+04	5.172896e+03	2.745108e+03	0	1.402973e-03
6.000000e+07	8.484466e+13	0.000000e+00	6.000002e-01	1.085098e+15	1.142806e+14	2.861148e+14	1.269006e+04	5.217930e+03	2.769006e+03	0	1.396109e-03
7.000000e+07	8.359546e+13	0.000000e+00	6.000002e-01	1.071168e+15	1.209803e+14	2.845480e+14	1.264202e+04	5.262180e+03	2.792488e+03	0	1.389223e-03
8.000000e+07	8.235513e+13	0.000000e+00	6.000002e-01	1.057342e+15	1.278481e+14	2.829929e+14	1.259460e+04	5.305643e+03	2.815553e+03	0	1.382318e-03
9.000000e+07	8.112404e+13	0.000000e+00	6.000002e-01	1.043623e+15	1.348760e+14	2.814494e+14	1.254778e+04	5.348318e+03	2.838199e+03	0	1.375395e-03
1.000000e+08	7.990256e+13	0.000000e+00	6.000002e-01	1.030014e+15	1.420556e+14	2.799174e+14	1.250157e+04	5.390203e+03	2.860426e+03	0	1.368457e-03
1.100000e+08	7.869105e+13	0.000000e+00	6.000002e-01	1.016519e+15	1.493780e+14	2.783967e+14	1.245595e+04	5.431297e+03	2.882234e+03	0	1.361506e-03
1.200000e+08	7.748983e+13	0.000000e+00	6.000002e-01	1.003143e+15	1.568340e+14	2.768873e+14	1.241094e+04	5.471600e+03	2.903622e+03	0	1.354542e-03
1.300000e+08	7.629923e+13	0.000000e+00	6.000002e-01	9.898869e+14	1.644139e+14	2.753890e+14	1.236651e+04	5.511112e+03	2.924589e+03	0	1.347569e-03
1.400000e+08	7.511957e+13	0.000000e+00	6.000002e-01	9.767556e+14	1.721080e+14	2.739019e+14	1.232266e+04	5.549833e+03	2.945138e+03	0	1.340588e-03
1.500000e+08	7.395115e+13	0.000000e+00	6.000002e-01	9.637518e+14	1.799060e+14	2.724257e+14	1.227939e+04	5.587765e+03	2.965267e+03	0	1.333601e-03
1.600000e+08	7.279425e+13	0.000000e+00	6.000002e-01	9.508783e+14	1.877977e+14	2.709604e+14	1.223670e+04	5.624908e+03	2.984978e+03	0	1.326610e-03
1.700000e+08	7.164913e+13	0.000000e+00	6.000002e-01	9.381379e+14	1.957725e+14	2.695060e+14	1.219458e+04	5.661265e+03	3.004271e+03	0	1.319617e-03
1.800000e+08	7.051607e+13	0.000000e+00	6.000002e-01	9.255333e+14	2.038198e+14	2.680623e+14	1.215301e+04	5.696837e+03	3.023148e+03	0	1.312624e-03
1.900000e+08	6.939529e+13	0.000000e+00	6.000002e-01	9.130670e+14	2.119288e+14	2.666292e+14	1.211200e+04	5.731628e+03	3.041611e+03	0	1.305633e-03
2.000000e+08	6.828702e+13	0.000000e+00	6.000002e-01	9.007412e+14	2.200890e+14	2.652066e+14	1.207154e+04	5.765641e+03	3.059661e+03	0	1.298645e-03
2.100000e+08	6.719147e+13	0.000000e+00	6.000002e-01	8.885580e+14	2.282894e+14	2.637946e+14	1.203163e+04	5.798880e+03	3.077299e+03	0	1.291663e-03
2.200000e+08	6.610883e+13	0.000000e+00	6.000002e-01	8.765194e+14	2.365193e+14	2.623929e+14	1.199225e+04	5.831348e+03	3.094530e+03	0	1.284688e-03
2.300000e+08	6.503929e+13	0.000000e+00	6.000002e-01	8.646272e+14	2.447681e+14	2.610014e+14	1.195340e+04	5.863051e+03	3.111353e+03	0	1.277722e-03
2.400000e+08	6.398300e+13	0.000000e+00	6.000002e-01	8.528830e+14	2.530254e+14	2.596202e+14	1.191508e+04	5.893994e+03	3.127774e+03	0	1.270767e-03
2.500000e+08	6.294011e+13	0.000000e+00	6.000002e-01	8.412882e+14	2.612807e+14	2.582491e+14	1.187728e+04	5.924181e+03	3.143793e+03	0	1.263825e-03
2.600000e+08	6.191075e+13	0.000000e+00	6.000002e-01	8.298442e+14	2.695237e+14	2.568880e+14	1.183998e+04	5.953619e+03	3.159415e+03	0	1.256897e-03
2.700000e+08	6.089503e+13	0.000000e+00	6.000002e-01	8.185520e+14	2.777446e+14	2.555369e+14	1.180320e+04	5.982314e+03	3.174643e+03	0	1.249985e-03
2.800000e+08	5.989305e+13	0.000000e+00	6.000002e-01	8.074125e+14	2.859336e+14	2.541957e+14	1.176691e+04	6.010273e+03	3.189480e+03	0	1.243092e-03
2.900000e+08	5.890490e+13	0.000000e+00	6.000002e-01	7.964267e+14	2.940812e+14	2.528642e+14	1.173111e+04	6.037503e+03	3.203930e+03	0	1.236217e-03
3.000000e+08	5.793064e+13	0.000000e+00	6.000002e-01	7.855950e+14	3.021782e+14	2.515424e+14	1.169580e+04	6.064011e+03	3.217997e+03	0	1.229364e-03
3.100000e+08	5.697032e+13	0.000000e+00	6.000002e-01	7.749179e+14	3.102157e+14	2.502303e+14	1.166096e+04	6.089805e+03	3.231685e+03	0	1.222533e-03
3.200000e+08	5.602398e+13	0.000000e+00	6.000002e-01	7.643958e+14	3.181852e+14	2.489277e+14	1.162660e+04	6.114893e+03	3.244999e+03	0	1.215726e-03
3.300000e+08	5.509165e+13	0.000000e+00	6.000002e-01	7.540287e+14	3.260786e+14	2.476346e+14	1.159270e+04	6.139284e+03	3.257942e+03	0	1.208944e-03
3.400000e+08	5.417334e+13	0.000000e+00	6.000002e-01	7.438167e+14	3.338878e+14	2.463509e+14	1.155926e+04	6.162985e+03	3.270520e+03	0	1.202189e-03
3.500000e+08	5.326903e+13	0.000000e+00	6.000002e-01	7.337597e+14	3.416055e+14	2.450765e+14	1.152627e+04	6.186006e+03	3.282736e+03	0	1.195463e-03
3.600000e+08	5.237873e+13	0.000000e+00	6.000002e-01	7.238573e+14	3.492246e+14	2.438113e+14	1.149373e+04	6.208357e+03	3.294597e+03	0	1.188765e-03
3.700000e+08	5.150238e+13	0.000000e+00	6.000002e-01	7.141092e+14	3.567384e+14	2.425553e+14	1.146162e+04	6.230045e+03	3.306107e+03	0	1.182098e-03
3.800000e+08	5.063996e+13	0.000000e+00	6.000002e-01	7.045147e+14	3.641406e+14	2.413084e+14	1.142994e+04	6.251082e+03	3.317270e+03	0	1.175463e-03
3.900000e+08	4.979141e+13	0.000000e+00	6.000002e-01	6.950733e+14	3.714252e+14	2.400705e+14	1.139869e+04	6.271477e+03	3.328093e+03	0	1.168860e-03
4.000000e+08	4.895666e+13	0.000000e+00	6.000002e-01	6.857841e+14	3.785868e+14	2.388415e+14	1.136785e+04	6.291239e+03	3.338581e+03	0	1.162291e-03
4.100000e+08	4.813564e+13	0.000000e+00	6.000002e-01	6.766463e+14	3.856202e+14	2.376214e+14	1.133743e+04	6.310380e+03	3.348738e+03	0	1.155757e-03
4.200000e+08	4.732826e+13	0.000000e+00	6.000002e-01	6.676589e+14	3.925208e+14	2.364101e+14	1.130740e+04	6.328908e+03	3.358570e+03	0	1.149259e-03
4.300000e+08	4.653444e+13	0.000000e+00	6.000002e-01	6.588207e+14	3.992841e+14	2.352075e+14	1.127778e+04	6.346836e+03	3.368084e+03	0	1.142797e-03
4.400000e+08	4.575405e+13	0.000000e+00	6.000002e-01	6.501305e+14	4.059065e+14	2.340136e+14	1.124854e+04	6.364172e+03	3.377284e+03	0	1.136373e-03
4.500000e+08	4.498700e+13	0.000000e+00	6.000002e-01	6.415871e+14	4.123842e+14	2.328283e+14	1.121969e+04	6.380928e+03	3.386176e+03	0	1.129987e-03
4.600000e+08	4.423317e+13	0.000000e+00	6.000002e-01	6.331891e+14	4.187143e+14	2.316514e+14	1.119122e+04	6.397115e+03	3.394765e+03	0	1.123640e-03
4.700000e+08	4.349241e+13	0.000000e+00	6.000002e-01	6.249350e+14	4.248936e+14	2.304830e+14	1.116312e+04	6.412742e+03	3.403059e+03	0	1.117332e-03
4.800000e+08	4.276460e+13	0.000000e+00	6.000002e-01	6.168234e+14	4.309200e+14	2.293230e+14	1.113539e+04	6.427821e+03	3.411061e+03	0	1.111064e-03
4.900000e+08	4.204961e+13	0.000000e+00	6.000002e-01	6.088526e+14	4.367914e+14	2.281713e+14	1.110801e+04	6.442363e+03	3.418778e+03	0	1.104837e-03
5.000000e+08	4.134727e+13	0.000000e+00	6.000002e-01	6.010210e+14	4.425060e+14	2.270278e+14	1.108098e+04	6.456378e+03	3.426215e+03	0	1.098652e-03
5.100000e+08	4.065744e+13	0.000000e+00	6.000002e-01	5.933269e+14	4.480623e+14	2.258925e+14	1.105430e+04	6.469877e+03	3.433379e+03	0	1.092507e-03
5.200000e+08	3.997996e+13	0.000000e+00	6.000002e-01	5.857685e+14	4.534593e+14	2.247652e+14	1.102797e+04	6.482871e+03	3.440274e+03	0	1.086405e-03
5.300000e+08	3.931468e+13	0.000000e+00	6.000002e-01	5.783441e+14	4.586961e+14	2.236461e+14	1.100196e+04	6.495371e+03	3.446907e+03	0	1.080345e-03
5.400000e+08	3.866142e+13	0.000000e+00	6.000002e-01	5.710517e+14	4.637723e+14	2.225349e+14	1.097629e+04	6.507387e+03	3.453284e+03	0	1.074328e-03
5.500000e+08	3.802001e+13	0.000000e+00	6.000002e-01	5.638896e+14	4.686877e+14	2.214316e+14	1.095093e+04	6.518929e+03	3.459409e+03	0	1.068354e-03
5.600000e+08	3.739029e+13	0.000000e+00	6.000002e-01	5.568559e+14	4.734420e+14	2.203361e+14	1.092590e+04	6.530009e+03	3.465289e+03	0	1.062423e-03
5.700000e+08	3.677208e+13	0.000000e+00	6.000002e-01	5.499486e+14	4.780359e+14	2.192484e+14	1.090117e+04	6.540637e+03	3.470929e+03	0	1.056535e-03
5.800000e+08	3.616521e+13	0.000000e+00	6.000002e-01	5.431657e+14	4.824697e+14	2.181685e+14	1.087675e+04	6.550824e+03	3.476335e+03	0	1.050690e-03
5.900000e+08	3.556949e+13	0.000000e+00	6.000002e-01	5.365053e+14	4.867441e+14	2.170962e+14	1.085263e+04	6.560579e+03	3.481511e+03	0	1.044889e-03
6.000000e+08	3.498474e+13	0.000000e+00	6.000002e-01	5.299654e+14	4.908601e+14	2.160315e+14	1.082881e+04	6.569913e+03	3.486464e+03	0	1.039132e-03
6.100000e+08	3.441079e+13	0.000000e+00	6.000002e-01	5.235440e+14	4.948188e+14	2.149743e+14	1.080527e+04	6.578835e+03	3.491199e+03	0	1.033418e-03
6.200000e+08	3.384745e+13	0.000000e+00	6.000002e-01	5.172391e+14	4.986215e+14	2.139246e+14	1.078202e+04	6.587357e+03	3.495722e+03	0	1.027747e-03
6.300000e+08	3.329454e+13	0.000000e+00	6.000002e-01	5.110487e+14	5.022696e+14	2.128823e+14	1.075905e+04	6.595487e+03	3.500036e+03	0	1.022120e-03
6.400000e+08	3.275189e+13	0.000000e+00	6.000002e-01	5.049708e+14	5.057649e+14	2.118473e+14	1.073635e+04	6.603236e+03	3.504148e+03	0	1.016537e-03
6.500000e+08	3.221929e+13	0.000000e+00	6.000002e-01	4.990035e+14	5.091091e+14	2.108196e+14	1.071393e+04	6.610613e+03	3.508063e+03	0	1.010997e-03
6.600000e+08	3.169658e+13	0.000000e+00	6.000002e-01	4.931446e+14	5.123042e+14	2.097992e+14	1.069176e+04	6.617628e+03	3.511786e+03	0	1.005499e-03
6.700000e+08	3.118358e+13	0.000000e+00	6.000002e-01	4.873922e+14	5.153520e+14	2.087860e+14	1.066986e+04	6.624290e+03	3.515321e+03	0	1.000045e-03
6.800000e+08	3.068009e+13	0.000000e+00	6.000002e-01	4.817444e+14	5.182549e+14	2.077798e+14	1.064820e+04	6.630607e+03	3.518673e+03	0	9.946339e-04
6.900000e+08	3.018595e+13	0.000000e+00	6.000002e-01	4.761991e+14	5.210150e+14	2.067807e+14	1.062680e+04	6.636590e+03	3.521848e+03	0	9.892650e-04
7.000000e+08	2.970097e+13	0.000000e+00	6.000002e-01	4.707545e+14	5.236344e+14	2.057887e+14	1.060565e+04	6.642247e+03	3.524850e+03	0	9.839384e-04
7.100000e+08	2.922498e+13	0.000000e+00	6.000002e-01	4.654085e+14	5.261160e+14	2.048035e+14	1.058474e+04	6.647586e+03	3.527684e+03	0	9.786539e-04
7.200000e+08	2.875781e+13	0.000000e+00	6.000002e-01	4.601593e+14	5.284619e+14	2.038253e+14	1.056406e+04	6.652617e+03	3.530353e+03	0	9.734111e-04
7.300000e+08	2.829927e+13	0.000000e+00	6.000002e-01	4.550049e+14	5.306750e+14	2.028539e+14	1.054361e+04	6.657347e+03	3.532863e+03	0	9.682097e-04
7.400000e+08	2.784919e+13	0.000000e+00	6.000002e-01	4.499434e+14	5.327574e+14	2.018893e+14	1.052340e+04	6.661785e+03	3.535219e+03	0	9.630494e-04
7.500000e+08	2.740742e+13	0.000000e+00	6.000002e-01	4.449731e+14	5.347121e+14	2.009314e+14	1.050340e+04	6.665939e+03	3.537423e+03	0	9.579299e-04
7.600000e+08	2.697377e+13	0.000000e+00	6.000002e-01	4.400921e+14	5.365416e+14	1.999801e+14	1.048363e+04	6.669818e+03	3.539481e+03	0	9.528508e-04
7.700000e+08	2.654808e+13	0.000000e+00	6.000002e-01	4.352985e+14	5.382486e+14	1.990355e+14	1.046408e+04	6.673427e+03	3.541397e+03	0	9.478117e-04
7.800000e+08	2.613019e+13	0.000000e+00	6.000002e-01	4.305906e+14	5.398360e+14	1.980975e+14	1.044473e+04	6.676776e+03	3.543174e+03	0	9.428123e-04
7.900000e+08	2.571994e+13	0.000000e+00	6.000002e-01	4.259666e+14	5.413064e+14	1.971660e+14	1.042560e+04	6.679872e+03	3.544817e+03	0	9.378521e-04
8.000000e+08	2.531717e+13	0.000000e+00	6.000002e-01	4.214248e+14	5.426625e+14	1.962409e+14	1.040667e+04	6.682722e+03	3.546329e+03	0	9.329308e-04
8.100000e+08	2.492173e+13	0.000000e+00	6.000002e-01	4.169634e+14	5.439071e+14	1.953222e+14	1.038794e+04	6.685333e+03	3.547715e+03	0	9.280479e-04
8.200000e+08	2.453345e+13	0.000000e+00	6.000002e-01	4.125809e+14	5.450430e+14	1.944099e+14	1.036941e+04	6.687711e+03	3.548977e+03	0	9.232030e-04
8.300000e+08	2.415219e+13	0.000000e+00	6.000002e-01	4.082754e+14	5.460728e+14	1.935039e+14	1.035107e+04	6.689865e+03	3.550120e+03	0	9.183957e-04
8.400000e+08	2.377780e+13	0.000000e+00	6.000002e-01	4.040455e+14	5.469995e+14	1.926042e+14	1.033292e+04	6.691800e+03	3.551147e+03	0	9.136256e-04
8.500000e+08	2.341013e+13	0.000000e+00	6.000002e-01	3.998895e+14	5.478255e+14	1.917107e+14	1.031496e+04	6.693524e+03	3.552061e+03	0	9.088921e-04
8.600000e+08	2.304904e+13	0.000000e+00	6.000002e-01	3.958059e+14	5.485538e+14	1.908233e+14	1.029719e+04	6.695041e+03	3.552867e+03	0	9.041948e-04
8.700000e+08	2.269439e+13	0.000000e+00	6.000002e-01	3.917930e+14	5.491868e+14	1.899420e+14	1.027959e+04	6.696359e+03	3.553566e+03	0	8.995333e-04
8.800000e+08	2.234605e+13	0.000000e+00	6.000002e-01	3.878495e+14	5.497274e+14	1.890668e+14	1.026218e+04	6.697484e+03	3.554163e+03	0	8.949070e-04
8.900000e+08	2.200386e+13	0.000000e+00	6.000002e-01	3.839738e+14	5.501780e+14	1.881977e+14	1.024494e+04	6.698421e+03	3.554660e+03	0	8.903156e-04
9.000000e+08	2.166771e+13	0.000000e+00	6.000002e-01	3.801645e+14	5.505415e+14	1.873344e+14	1.022787e+04	6.699176e+03	3.555061e+03	0	8.857586e-04
9.100000e+08	2.133746e+13	0.000000e+00	6.000002e-01	3.764201e+14	5.508202e+14	1.864771e+14	1.021097e+04	6.699754e+03	3.555368e+03	0	8.812354e-04
9.200000e+08	2.101299e+13	0.000000e+00	6.000002e-01	3.727393e+14	5.510166e+14	1.856257e+14	1.019423e+04	6.700162e+03	3.555584e+03	0	8.767457e-04
9.300000e+08	2.069416e+13	0.000000e+00	6.000002e-01	3.691207e+14	5.511335e+14	1.847801e+14	1.017766e+04	6.700405e+03	3.555713e+03	0	8.722889e-04
9.400000e+08	2.038087e+13	0.000000e+00	6.000002e-01	3.655629e+14	5.511730e+14	1.839403e+14	1.016125e+04	6.700487e+03	3.555757e+03	0	8.678645e-04
9.500000e+08	2.007298e+13	0.000000e+00	6.000002e-01	3.620647e+14	5.511377e+14	1.831062e+14	1.014499e+04	6.700414e+03	3.555718e+03	0	8.634720e-04
9.600000e+08	1.977038e+13	0.000000e+00	6.000002e-01	3.586247e+14	5.510301e+14	1.822778e+14	1.012890e+04	6.700190e+03	3.555599e+03	0	8.591111e-04
9.700000e+08	1.947295e+13	0.000000e+00	6.000002e-01	3.552418e+14	5.508523e+14	1.814550e+14	1.011295e+04	6.699821e+03	3.555403e+03	0	8.547812e-04
9.800000e+08	1.918059e+13	0.000000e+00	6.000002e-01	3.519147e+14	5.506067e+14	1.806378e+14	1.009715e+04	6.699311e+03	3.555133e+03	0	8.504818e-04
9.900000e+08	1.889318e+13	0.000000e+00	6.000002e-01	3.486422e+14	5.502954e+14	1.798262e+14	1.008151e+04	6.698665e+03	3.554789e+03	0	8.462124e-04
1.000000e+09	1.861062e+13	0.000000e+00	6.000002e-01	3.454231e+14	5.499209e+14	1.790201e+14	1.006600e+04	6.697886e+03	3.554376e+03	0	8.419726e-04
1.010000e+09	1.833280e+13	0.000000e+00	6.000002e-01	3.422563e+14	5.494850e+14	1.782195e+14	1.005064e+04	6.696980e+03	3.553895e+03	0	8.377619e-04
1.020000e+09	1.805961e+13	0.000000e+00	6.000002e-01	3.391406e+14	5.489900e+14	1.774243e+14	1.003542e+04	6.695950e+03	3.553349e+03	0	8.335798e-04
1.030000e+09	1.779097e+13	0.000000e+00	6.000002e-01	3.360751e+14	5.484382e+14	1.766345e+14	1.002034e+04	6.694800e+03	3.552739e+03	0	8.294258e-04
1.040000e+09	1.752676e+13	0.000000e+00	6.000002e-01	3.330585e+14	5.478311e+14	1.758500e+14	1.000539e+04	6.693535e+03	3.552067e+03	0	8.252995e-04
1.050000e+09	1.726690e+13	0.000000e+00	6.000002e-01	3.300898e+14	5.471709e+14	1.750708e+14	9.990581e+03	6.692158e+03	3.551337e+03	0	8.212005e-04
1.060000e+09	1.701130e+13	0.000000e+00	6.000002e-01	3.271682e+14	5.464596e+14	1.742968e+14	9.975900e+03	6.690673e+03	3.550549e+03	0	8.171281e-04
1.070000e+09	1.675985e+13	0.000000e+00	6.000002e-01	3.242924e+14	5.456991e+14	1.735281e+14	9.961349e+03	6.689084e+03	3.549705e+03	0	8.130821e-04
1.080000e+09	1.651247e+13	0.000000e+00	6.000002e-01	3.214616e+14	5.448911e+14	1.727645e+14	9.946926e+03	6.687394e+03	3.548808e+03	0	8.090618e-04
1.090000e+09	1.626908e+13	0.000000e+00	6.000002e-01	3.186748e+14	5.440374e+14	1.720061e+14	9.932627e+03	6.685606e+03	3.547860e+03	0	8.050670e-04
1.100000e+09	1.602958e+13	0.000000e+00	6.000002e-01	3.159311e+14	5.431398e+14	1.712528e+14	9.918453e+03	6.683724e+03	3.546861e+03	0	8.010970e-04
1.110000e+09	1.579391e+13	0.000000e+00	6.000002e-01	3.132296e+14	5.422001e+14	1.705045e+14	9.904400e+03	6.681751e+03	3.545814e+03	0	7.971515e-04
1.120000e+09	1.556196e+13	0.000000e+00	6.000002e-01	3.105694e+14	5.412198e+14	1.697613e+14	9.890467e+03	6.679690e+03	3.544720e+03	0	7.932300e-04
1.130000e+09	1.533367e+13	0.000000e+00	6.000002e-01	3.079496e+14	5.402004e+14	1.690230e+14	9.876652e+03	6.677544e+03	3.543581e+03	0	7.893321e-04
1.140000e+09	1.510896e+13	0.000000e+00	6.000002e-01	3.053694e+14	5.391437e+14	1.682896e+14	9.862954e+03	6.675317e+03	3.542399e+03	0	7.854573e-04
1.150000e+09	1.488776e+13	0.000000e+00	6.000002e-01	3.028280e+14	5.380512e+14	1.675612e+14	9.849369e+03	6.673010e+03	3.541175e+03	0	7.816052e-04
1.160000e+09	1.466998e+13	0.000000e+00	6.000002e-01	3.003245e+14	5.369243e+14	1.668376e+14	9.835898e+03	6.670628e+03	3.539911e+03	0	7.777754e-04
1.170000e+09	1.445556e+13	0.000000e+00	6.000002e-01	2.978582e+14	5.357644e+14	1.661188e+14	9.822537e+03	6.668171e+03	3.538608e+03	0	7.739674e-04
1.180000e+09	1.424443e+13	0.000000e+00	6.000002e-01	2.954283e+14	5.345730e+14	1.654048e+14	9.809286e+03	6.665644e+03	3.537266e+03	0	7.701809e-04
1.190000e+09	1.403652e+13	0.000000e+00	6.000002e-01	2.930341e+14	5.333513e+14	1.646955e+14	9.796143e+03	6.663049e+03	3.535889e+03	0	7.664153e-04
1.200000e+09	1.383176e+13	0.000000e+00	6.000002e-01	2.906748e+14	5.321008e+14	1.639910e+14	9.783106e+03	6.660387e+03	3.534477e+03	0	7.626703e-04
1.210000e+09	1.363009e+13	0.000000e+00	6.000002e-01	2.883497e+14	5.308228e+14	1.632911e+14	9.770174e+03	6.657663e+03	3.533031e+03	0	7.589455e-04
1.220000e+09	1.343144e+13	0.000000e+00	6.000002e-01	2.860581e+14	5.295184e+14	1.625959e+14	9.757345e+03	6.654877e+03	3.531552e+03	0	7.552404e-04
1.230000e+09	1.323576e+13	0.000000e+00	6.000002e-01	2.837994e+14	5.281888e+14	1.619053e+14	9.744617e+03	6.652032e+03	3.530043e+03	0	7.515547e-04
1.240000e+09	1.304297e+13	0.000000e+00	6.000002e-01	2.815729e+14	5.268353e+14	1.612192e+14	9.731990e+03	6.649130e+03	3.528503e+03	0	7.478879e-04
1.250000e+09	1.285303e+13	0.000000e+00	6.000002e-01	2.793779e+14	5.254590e+14	1.605377e+14	9.719461e+03	6.646174e+03	3.526934e+03	0	7.442397e-04
1.260000e+09	1.266587e+13	0.000000e+00	6.000002e-01	2.772138e+14	5.240608e+14	1.598606e+14	9.707030e+03	6.643165e+03	3.525338e+03	0	7.406097e-04
1.270000e+09	1.248144e+13	0.000000e+00	6.000002e-01	2.750800e+14	5.226421e+14	1.591880e+14	9.694695e+03	6.640106e+03	3.523714e+03	0	7.369974e-04
1.280000e+09	1.229969e+13	0.000000e+00	6.000002e-01	2.729759e+14	5.212037e+14	1.585199e+14	9.682455e+03	6.636999e+03	3.522065e+03	0	7.334025e-04
1.290000e+09	1.212055e+13	0.000000e+00	6.000002e-01	2.709009e+14	5.197468e+14	1.578561e+14	9.670308e+03	6.633844e+03	3.520391e+03	0	7.298245e-04
1.300000e+09	1.194398e+13	0.000000e+00	6.000002e-01	2.688545e+14	5.182721e+14	1.571967e+14	9.658253e+03	6.630645e+03	3.518693e+03	0	7.262632e-04
1.310000e+09	1.176993e+13	0.000000e+00	6.000002e-01	2.668360e+14	5.167807e+14	1.565416e+14	9.646289e+03	6.627402e+03	3.516973e+03	0	7.227182e-04
1.320000e+09	1.159835e+13	0.000000e+00	6.000002e-01	2.648449e+14	5.152736e+14	1.558908e+14	9.634415e+03	6.624118e+03	3.515230e+03	0	7.191890e-04
1.330000e+09	1.142918e+13	0.000000e+00	6.000002e-01	2.628808e+14	5.137514e+14	1.552443e+14	9.622629e+03	6.620795e+03	3.513466e+03	0	7.156753e-04
1.340000e+09	1.126238e+13	0.000000e+00	6.000002e-01	2.609430e+14	5.122152e+14	1.546019e+14	9.610930e+03	6.617433e+03	3.511682e+03	0	7.121767e-04
1.350000e+09	1.109791e+13	0.000000e+00	6.000002e-01	2.590310e+14	5.106657e+14	1.539638e+14	9.599317e+03	6.614035e+03	3.509879e+03	0	7.086929e-04
1.360000e+09	1.093572e+13	0.000000e+00	6.000002e-01	2.571445e+14	5.091038e+14	1.533299e+14	9.587789e+03	6.610601e+03	3.508057e+03	0	7.052235e-04
