#t		Qconv[W]	Ri[Rp]		R*[Rp]		Qc[W]		Qm[W]		Qr[W]		Tcmb[K]		Tl[K]		Tup[K]		RiFlag		Bs[T]
0.000000e+00	4.730222e+14	0.000000e+00	5.935486e-01	5.070496e+15	7.165282e+13	3.441012e+14	1.881396e+04	6.037524e+03	2.692645e+03	0	2.483982e-03
1.000000e+07	4.583798e+14	0.000000e+00	5.935486e-01	4.921369e+15	8.774872e+13	3.421946e+14	1.862533e+04	6.212669e+03	2.770757e+03	0	2.458083e-03
2.000000e+07	4.440225e+14	0.000000e+00	5.935486e-01	4.775183e+15	1.058582e+14	3.403023e+14	1.844218e+04	6.382294e+03	2.846407e+03	0	2.432146e-03
3.000000e+07	4.299615e+14	0.000000e+00	5.935486e-01	4.632044e+15	1.259828e+14	3.384241e+14	1.826439e+04	6.546429e+03	2.919609e+03	0	2.406197e-03
4.000000e+07	4.162066e+14	0.000000e+00	5.935486e-01	4.492050e+15	1.480961e+14	3.365600e+14	1.809188e+04	6.705110e+03	2.990378e+03	0	2.380260e-03
5.000000e+07	4.027663e+14	0.000000e+00	5.935486e-01	4.355281e+15	1.721456e+14	3.347097e+14	1.792451e+04	6.858375e+03	3.058732e+03	0	2.354357e-03
6.000000e+07	3.896479e+14	0.000000e+00	5.935486e-01	4.221809e+15	1.980541e+14	3.328733e+14	1.776219e+04	7.006268e+03	3.124691e+03	0	2.328514e-03
7.000000e+07	3.768575e+14	0.000000e+00	5.935486e-01	4.091690e+15	2.257225e+14	3.310505e+14	1.760478e+04	7.148840e+03	3.188275e+03	0	2.302751e-03
8.000000e+07	3.644000e+14	0.000000e+00	5.935486e-01	3.964972e+15	2.550316e+14	3.292413e+14	1.745218e+04	7.286143e+03	3.249511e+03	0	2.277093e-03
9.000000e+07	3.522792e+14	0.000000e+00	5.935486e-01	3.841691e+15	2.858454e+14	3.274455e+14	1.730425e+04	7.418240e+03	3.308424e+03	0	2.251561e-03
1.000000e+08	3.404978e+14	0.000000e+00	5.935486e-01	3.721870e+15	3.180142e+14	3.256630e+14	1.716087e+04	7.545195e+03	3.365044e+03	0	2.226176e-03
1.100000e+08	3.290575e+14	0.000000e+00	5.935486e-01	3.605523e+15	3.513767e+14	3.238938e+14	1.702192e+04	7.667082e+03	3.419403e+03	0	2.200959e-03
1.200000e+08	3.179590e+14	0.000000e+00	5.935486e-01	3.492655e+15	3.857639e+14	3.221377e+14	1.688728e+04	7.783978e+03	3.471537e+03	0	2.175931e-03
1.300000e+08	3.072017e+14	0.000000e+00	5.935486e-01	3.383259e+15	4.210017e+14	3.203946e+14	1.675681e+04	7.895967e+03	3.521483e+03	0	2.151110e-03
1.400000e+08	2.967846e+14	0.000000e+00	5.935486e-01	3.277319e+15	4.569128e+14	3.186645e+14	1.663039e+04	8.003139e+03	3.569280e+03	0	2.126515e-03
1.500000e+08	2.867052e+14	0.000000e+00	5.935486e-01	3.174811e+15	4.933205e+14	3.169470e+14	1.650789e+04	8.105587e+03	3.614970e+03	0	2.102164e-03
1.600000e+08	2.769606e+14	0.000000e+00	5.935486e-01	3.075703e+15	5.300502e+14	3.152423e+14	1.638919e+04	8.203413e+03	3.658599e+03	0	2.078072e-03
1.700000e+08	2.675470e+14	0.000000e+00	5.935486e-01	2.979954e+15	5.669316e+14	3.135502e+14	1.627417e+04	8.296720e+03	3.700213e+03	0	2.054257e-03
1.800000e+08	2.584598e+14	0.000000e+00	5.935486e-01	2.887515e+15	6.038005e+14	3.118705e+14	1.616269e+04	8.385617e+03	3.739859e+03	0	2.030731e-03
1.900000e+08	2.496937e+14	0.000000e+00	5.935486e-01	2.798334e+15	6.405007e+14	3.102032e+14	1.605465e+04	8.470215e+03	3.777589e+03	0	2.007508e-03
2.000000e+08	2.412429e+14	0.000000e+00	5.935486e-01	2.712348e+15	6.768845e+14	3.085482e+14	1.594992e+04	8.550630e+03	3.813453e+03	0	1.984599e-03
2.100000e+08	2.331011e+14	0.000000e+00	5.935486e-01	2.629494e+15	7.128146e+14	3.069054e+14	1.584838e+04	8.626980e+03	3.847504e+03	0	1.962017e-03
2.200000e+08	2.252613e+14	0.000000e+00	5.935486e-01	2.549699e+15	7.481642e+14	3.052746e+14	1.574993e+04	8.699385e+03	3.879795e+03	0	1.939770e-03
2.300000e+08	2.177163e+14	0.000000e+00	5.935486e-01	2.472891e+15	7.828179e+14	3.036558e+14	1.565443e+04	8.767968e+03	3.910382e+03	0	1.917866e-03
2.400000e+08	2.104584e+14	0.000000e+00	5.935486e-01	2.398990e+15	8.166716e+14	3.020488e+14	1.556180e+04	8.832850e+03	3.939319e+03	0	1.896313e-03
2.500000e+08	2.034798e+14	0.000000e+00	5.935486e-01	2.327916e+15	8.496324e+14	3.004536e+14	1.547191e+04	8.894156e+03	3.966660e+03	0	1.875117e-03
2.600000e+08	1.967724e+14	0.000000e+00	5.935486e-01	2.259587e+15	8.816201e+14	2.988701e+14	1.538467e+04	8.952010e+03	3.992462e+03	0	1.854283e-03
2.700000e+08	1.903277e+14	0.000000e+00	5.935486e-01	2.193918e+15	9.125643e+14	2.972982e+14	1.529997e+04	9.006535e+03	4.016780e+03	0	1.833814e-03
2.800000e+08	1.841375e+14	0.000000e+00	5.935486e-01	2.130823e+15	9.424070e+14	2.957377e+14	1.521771e+04	9.057854e+03	4.039667e+03	0	1.813714e-03
2.900000e+08	1.781931e+14	0.000000e+00	5.935486e-01	2.070216e+15	9.710995e+14	2.941887e+14	1.513781e+04	9.106090e+03	4.061179e+03	0	1.793983e-03
3.000000e+08	1.724861e+14	0.000000e+00	5.935486e-01	2.012010e+15	9.986042e+14	2.926509e+14	1.506016e+04	9.151362e+03	4.081370e+03	0	1.774623e-03
3.100000e+08	1.670079e+14	0.000000e+00	5.935486e-01	1.956120e+15	1.024892e+15	2.911244e+14	1.498468e+04	9.193789e+03	4.100292e+03	0	1.755633e-03
3.200000e+08	1.617502e+14	0.000000e+00	5.935486e-01	1.902460e+15	1.049942e+15	2.896089e+14	1.491129e+04	9.233488e+03	4.117997e+03	0	1.737012e-03
3.300000e+08	1.567045e+14	0.000000e+00	5.935486e-01	1.850945e+15	1.073743e+15	2.881045e+14	1.483990e+04	9.270573e+03	4.134537e+03	0	1.718760e-03
3.400000e+08	1.518626e+14	0.000000e+00	5.935486e-01	1.801491e+15	1.096289e+15	2.866109e+14	1.477042e+04	9.305157e+03	4.149961e+03	0	1.700872e-03
3.500000e+08	1.472164e+14	0.000000e+00	5.935486e-01	1.754017e+15	1.117584e+15	2.851283e+14	1.470280e+04	9.337348e+03	4.164317e+03	0	1.683346e-03
3.600000e+08	1.427580e+14	0.000000e+00	5.935486e-01	1.708443e+15	1.137634e+15	2.836563e+14	1.463694e+04	9.367254e+03	4.177655e+03	0	1.666178e-03
3.700000e+08	1.384797e+14	0.000000e+00	5.935486e-01	1.664690e+15	1.156453e+15	2.821951e+14	1.457279e+04	9.394976e+03	4.190018e+03	0	1.649365e-03
3.800000e+08	1.343738e+14	0.000000e+00	5.935486e-01	1.622681e+15	1.174059e+15	2.807444e+14	1.451027e+04	9.420616e+03	4.201454e+03	0	1.632900e-03
3.900000e+08	1.304330e+14	0.000000e+00	5.935486e-01	1.582344e+15	1.190473e+15	2.793042e+14	1.444932e+04	9.444271e+03	4.212003e+03	0	1.616778e-03
4.000000e+08	1.266503e+14	0.000000e+00	5.935486e-01	1.543605e+15	1.205721e+15	2.778744e+14	1.438987e+04	9.466034e+03	4.221709e+03	0	1.600995e-03
4.100000e+08	1.230187e+14	0.000000e+00	5.935486e-01	1.506396e+15	1.219831e+15	2.764549e+14	1.433187e+04	9.485997e+03	4.230612e+03	0	1.585544e-03
4.200000e+08	1.195315e+14	0.000000e+00	5.935486e-01	1.470649e+15	1.232836e+15	2.750456e+14	1.427527e+04	9.504246e+03	4.238751e+03	0	1.570419e-03
4.300000e+08	1.161825e+14	0.000000e+00	5.935486e-01	1.436299e+15	1.244766e+15	2.736465e+14	1.422000e+04	9.520866e+03	4.246164e+03	0	1.555613e-03
4.400000e+08	1.129653e+14	0.000000e+00	5.935486e-01	1.403284e+15	1.255657e+15	2.722574e+14	1.416601e+04	9.535938e+03	4.252885e+03	0	1.541120e-03
4.500000e+08	1.098741e+14	0.000000e+00	5.935486e-01	1.371545e+15	1.265544e+15	2.708784e+14	1.411325e+04	9.549539e+03	4.258951e+03	0	1.526932e-03
4.600000e+08	1.069032e+14	0.000000e+00	5.935486e-01	1.341023e+15	1.274465e+15	2.695092e+14	1.406169e+04	9.561744e+03	4.264395e+03	0	1.513044e-03
4.700000e+08	1.040471e+14	0.000000e+00	5.935486e-01	1.311663e+15	1.282456e+15	2.681499e+14	1.401126e+04	9.572625e+03	4.269247e+03	0	1.499448e-03
4.800000e+08	1.013005e+14	0.000000e+00	5.935486e-01	1.283413e+15	1.289554e+15	2.668003e+14	1.396194e+04	9.582249e+03	4.273540e+03	0	1.486136e-03
4.900000e+08	9.865850e+13	0.000000e+00	5.935486e-01	1.256222e+15	1.295797e+15	2.654603e+14	1.391367e+04	9.590683e+03	4.277301e+03	0	1.473102e-03
5.000000e+08	9.611625e+13	0.000000e+00	5.935486e-01	1.230042e+15	1.301223e+15	2.641299e+14	1.386641e+04	9.597989e+03	4.280559e+03	0	1.460339e-03
5.100000e+08	9.366919e+13	0.000000e+00	5.935486e-01	1.204827e+15	1.305869e+15	2.628091e+14	1.382014e+04	9.604226e+03	4.283341e+03	0	1.447839e-03
5.200000e+08	9.131295e+13	0.000000e+00	5.935486e-01	1.180532e+15	1.309770e+15	2.614977e+14	1.377481e+04	9.609451e+03	4.285671e+03	0	1.435596e-03
5.300000e+08	8.904337e+13	0.000000e+00	5.935486e-01	1.157115e+15	1.312963e+15	2.601956e+14	1.373039e+04	9.613720e+03	4.287575e+03	0	1.423602e-03
5.400000e+08	8.685647e+13	0.000000e+00	5.935486e-01	1.134537e+15	1.315483e+15	2.589028e+14	1.368685e+04	9.617083e+03	4.289075e+03	0	1.411851e-03
5.500000e+08	8.474847e+13	0.000000e+00	5.935486e-01	1.112759e+15	1.317364e+15	2.576192e+14	1.364415e+04	9.619591e+03	4.290193e+03	0	1.400335e-03
5.600000e+08	8.271578e+13	0.000000e+00	5.935486e-01	1.091744e+15	1.318639e+15	2.563447e+14	1.360227e+04	9.621289e+03	4.290951e+03	0	1.389049e-03
5.700000e+08	8.075495e+13	0.000000e+00	5.935486e-01	1.071459e+15	1.319342e+15	2.550793e+14	1.356117e+04	9.622224e+03	4.291368e+03	0	1.377985e-03
5.800000e+08	7.886272e+13	0.000000e+00	5.935486e-01	1.051870e+15	1.319502e+15	2.538228e+14	1.352084e+04	9.622437e+03	4.291463e+03	0	1.367137e-03
5.900000e+08	7.703599e+13	0.000000e+00	5.935486e-01	1.032946e+15	1.319149e+15	2.525753e+14	1.348123e+04	9.621969e+03	4.291254e+03	0	1.356498e-03
6.000000e+08	7.527181e+13	0.000000e+00	5.935486e-01	1.014657e+15	1.318315e+15	2.513365e+14	1.344234e+04	9.620858e+03	4.290758e+03	0	1.346063e-03
6.100000e+08	7.356736e+13	0.000000e+00	5.935486e-01	9.969752e+14	1.317027e+15	2.501066e+14	1.340413e+04	9.619141e+03	4.289993e+03	0	1.335826e-03
6.200000e+08	7.191999e+13	0.000000e+00	5.935486e-01	9.798728e+14	1.315310e+15	2.488853e+14	1.336659e+04	9.616852e+03	4.288972e+03	0	1.325779e-03
6.300000e+08	7.032714e+13	0.000000e+00	5.935486e-01	9.633246e+14	1.313192e+15	2.476727e+14	1.332969e+04	9.614025e+03	4.287711e+03	0	1.315918e-03
6.400000e+08	6.878642e+13	0.000000e+00	5.935486e-01	9.473061e+14	1.310697e+15	2.464686e+14	1.329340e+04	9.610691e+03	4.286224e+03	0	1.306238e-03
6.500000e+08	6.729552e+13	0.000000e+00	5.935486e-01	9.317943e+14	1.307849e+15	2.452730e+14	1.325772e+04	9.606879e+03	4.284524e+03	0	1.296731e-03
6.600000e+08	6.585227e+13	0.000000e+00	5.935486e-01	9.167671e+14	1.304670e+15	2.440858e+14	1.322262e+04	9.602618e+03	4.282624e+03	0	1.287394e-03
6.700000e+08	6.445460e+13	0.000000e+00	5.935486e-01	9.022037e+14	1.301182e+15	2.429069e+14	1.318808e+04	9.597934e+03	4.280534e+03	0	1.278221e-03
6.800000e+08	6.310055e+13	0.000000e+00	5.935486e-01	8.880841e+14	1.297407e+15	2.417364e+14	1.315409e+04	9.592852e+03	4.278268e+03	0	1.269207e-03
6.900000e+08	6.178824e+13	0.000000e+00	5.935486e-01	8.743896e+14	1.293362e+15	2.405740e+14	1.312063e+04	9.587397e+03	4.275835e+03	0	1.260346e-03
7.000000e+08	6.051590e+13	0.000000e+00	5.935486e-01	8.611021e+14	1.289067e+15	2.394198e+14	1.308768e+04	9.581591e+03	4.273246e+03	0	1.251635e-03
7.100000e+08	5.928184e+13	0.000000e+00	5.935486e-01	8.482045e+14	1.284540e+15	2.382737e+14	1.305523e+04	9.575456e+03	4.270510e+03	0	1.243069e-03
7.200000e+08	5.808446e+13	0.000000e+00	5.935486e-01	8.356808e+14	1.279798e+15	2.371356e+14	1.302326e+04	9.569012e+03	4.267636e+03	0	1.234643e-03
7.300000e+08	5.692223e+13	0.000000e+00	5.935486e-01	8.235153e+14	1.274856e+15	2.360054e+14	1.299176e+04	9.562279e+03	4.264633e+03	0	1.226352e-03
7.400000e+08	5.579370e+13	0.000000e+00	5.935486e-01	8.116936e+14	1.269730e+15	2.348832e+14	1.296072e+04	9.555274e+03	4.261509e+03	0	1.218194e-03
7.500000e+08	5.469749e+13	0.000000e+00	5.935486e-01	8.002015e+14	1.264434e+15	2.337687e+14	1.293013e+04	9.548016e+03	4.258272e+03	0	1.210163e-03
7.600000e+08	5.363229e+13	0.000000e+00	5.935486e-01	7.890259e+14	1.258982e+15	2.326620e+14	1.289996e+04	9.540521e+03	4.254929e+03	0	1.202256e-03
7.700000e+08	5.259685e+13	0.000000e+00	5.935486e-01	7.781541e+14	1.253386e+15	2.315630e+14	1.287022e+04	9.532803e+03	4.251487e+03	0	1.194468e-03
7.800000e+08	5.158999e+13	0.000000e+00	5.935486e-01	7.675741e+14	1.247658e+15	2.304717e+14	1.284088e+04	9.524879e+03	4.247953e+03	0	1.186797e-03
7.900000e+08	5.061057e+13	0.000000e+00	5.935486e-01	7.572745e+14	1.241811e+15	2.293879e+14	1.281194e+04	9.516762e+03	4.244333e+03	0	1.179239e-03
8.000000e+08	4.965751e+13	0.000000e+00	5.935486e-01	7.472444e+14	1.235855e+15	2.283117e+14	1.278338e+04	9.508464e+03	4.240632e+03	0	1.171790e-03
8.100000e+08	4.872980e+13	0.000000e+00	5.935486e-01	7.374733e+14	1.229800e+15	2.272429e+14	1.275521e+04	9.500000e+03	4.236857e+03	0	1.164447e-03
8.200000e+08	4.782646e+13	0.000000e+00	5.935486e-01	7.279515e+14	1.223657e+15	2.261815e+14	1.272739e+04	9.491379e+03	4.233013e+03	0	1.157206e-03
8.300000e+08	4.694655e+13	0.000000e+00	5.935486e-01	7.186695e+14	1.217433e+15	2.251274e+14	1.269994e+04	9.482615e+03	4.229104e+03	0	1.150065e-03
8.400000e+08	4.608920e+13	0.000000e+00	5.935486e-01	7.096184e+14	1.211137e+15	2.240807e+14	1.267284e+04	9.473717e+03	4.225136e+03	0	1.143021e-03
8.500000e+08	4.525355e+13	0.000000e+00	5.935486e-01	7.007895e+14	1.204778e+15	2.230411e+14	1.264607e+04	9.464695e+03	4.221112e+03	0	1.136071e-03
8.600000e+08	4.443881e+13	0.000000e+00	5.935486e-01	6.921748e+14	1.198364e+15	2.220087e+14	1.261964e+04	9.455559e+03	4.217037e+03	0	1.129212e-03
8.700000e+08	4.364421e+13	0.000000e+00	5.935486e-01	6.837664e+14	1.191901e+15	2.209835e+14	1.259353e+04	9.446318e+03	4.212916e+03	0	1.122441e-03
8.800000e+08	4.286901e+13	0.000000e+00	5.935486e-01	6.755570e+14	1.185395e+15	2.199652e+14	1.256773e+04	9.436980e+03	4.208751e+03	0	1.115756e-03
8.900000e+08	4.211251e+13	0.000000e+00	5.935486e-01	6.675394e+14	1.178855e+15	2.189540e+14	1.254225e+04	9.427553e+03	4.204547e+03	0	1.109154e-03
9.000000e+08	4.137406e+13	0.000000e+00	5.935486e-01	6.597068e+14	1.172284e+15	2.179497e+14	1.251706e+04	9.418045e+03	4.200307e+03	0	1.102632e-03
9.100000e+08	4.065300e+13	0.000000e+00	5.935486e-01	6.520529e+14	1.165689e+15	2.169523e+14	1.249217e+04	9.408463e+03	4.196034e+03	0	1.096189e-03
9.200000e+08	3.994874e+13	0.000000e+00	5.935486e-01	6.445715e+14	1.159076e+15	2.159617e+14	1.246757e+04	9.398814e+03	4.191730e+03	0	1.089822e-03
9.300000e+08	3.926068e+13	0.000000e+00	5.935486e-01	6.372565e+14	1.152448e+15	2.149779e+14	1.244325e+04	9.389105e+03	4.187400e+03	0	1.083529e-03
9.400000e+08	3.858829e+13	0.000000e+00	5.935486e-01	6.301025e+14	1.145812e+15	2.140008e+14	1.241920e+04	9.379341e+03	4.183045e+03	0	1.077308e-03
9.500000e+08	3.793102e+13	0.000000e+00	5.935486e-01	6.231040e+14	1.139170e+15	2.130304e+14	1.239542e+04	9.369528e+03	4.178669e+03	0	1.071156e-03
9.600000e+08	3.728836e+13	0.000000e+00	5.935486e-01	6.162559e+14	1.132526e+15	2.120666e+14	1.237191e+04	9.359671e+03	4.174273e+03	0	1.065072e-03
9.700000e+08	3.665984e+13	0.000000e+00	5.935486e-01	6.095531e+14	1.125885e+15	2.111094e+14	1.234865e+04	9.349777e+03	4.169860e+03	0	1.059054e-03
9.800000e+08	3.604498e+13	0.000000e+00	5.935486e-01	6.029911e+14	1.119250e+15	2.101587e+14	1.232565e+04	9.339849e+03	4.165432e+03	0	1.053100e-03
9.900000e+08	3.544334e+13	0.000000e+00	5.935486e-01	5.965652e+14	1.112625e+15	2.092145e+14	1.230289e+04	9.329892e+03	4.160992e+03	0	1.047208e-03
1.000000e+09	3.485450e+13	0.000000e+00	5.935486e-01	5.902711e+14	1.106011e+15	2.082766e+14	1.228037e+04	9.319910e+03	4.156540e+03	0	1.041376e-03
1.010000e+09	3.427804e+13	0.000000e+00	5.935486e-01	5.841047e+14	1.099413e+15	2.073451e+14	1.225809e+04	9.309908e+03	4.152079e+03	0	1.035603e-03
1.020000e+09	3.371358e+13	0.000000e+00	5.935486e-01	5.780620e+14	1.092833e+15	2.064200e+14	1.223604e+04	9.299889e+03	4.147611e+03	0	1.029887e-03
1.030000e+09	3.316073e+13	0.000000e+00	5.935486e-01	5.721391e+14	1.086273e+15	2.055011e+14	1.221422e+04	9.289858e+03	4.143137e+03	0	1.024227e-03
1.040000e+09	3.261914e+13	0.000000e+00	5.935486e-01	5.663325e+14	1.079735e+15	2.045884e+14	1.219262e+04	9.279817e+03	4.138659e+03	0	1.018620e-03
1.050000e+09	3.208847e+13	0.000000e+00	5.935486e-01	5.606386e+14	1.073222e+15	2.036818e+14	1.217124e+04	9.269769e+03	4.134178e+03	0	1.013066e-03
1.060000e+09	3.156837e+13	0.000000e+00	5.935486e-01	5.550539e+14	1.066736e+15	2.027814e+14	1.215007e+04	9.259719e+03	4.129696e+03	0	1.007563e-03
1.070000e+09	3.105854e+13	0.000000e+00	5.935486e-01	5.495754e+14	1.060278e+15	2.018870e+14	1.212911e+04	9.249668e+03	4.125213e+03	0	1.002109e-03
1.080000e+09	3.055867e+13	0.000000e+00	5.935486e-01	5.441998e+14	1.053850e+15	2.009987e+14	1.210836e+04	9.239619e+03	4.120732e+03	0	9.967039e-04
1.090000e+09	3.006846e+13	0.000000e+00	5.935486e-01	5.389242e+14	1.047453e+15	2.001163e+14	1.208782e+04	9.229576e+03	4.116252e+03	0	9.913456e-04
1.100000e+09	2.958764e+13	0.000000e+00	5.935486e-01	5.337457e+14	1.041090e+15	1.992399e+14	1.206747e+04	9.219539e+03	4.111776e+03	0	9.860330e-04
1.110000e+09	2.911593e+13	0.000000e+00	5.935486e-01	5.286615e+14	1.034761e+15	1.983693e+14	1.204731e+04	9.209513e+03	4.107305e+03	0	9.807648e-04
1.120000e+09	2.865307e+13	0.000000e+00	5.935486e-01	5.236691e+14	1.028467e+15	1.975046e+14	1.202735e+04	9.199498e+03	4.102838e+03	0	9.755399e-04
1.130000e+09	2.819881e+13	0.000000e+00	5.935486e-01	5.187657e+14	1.022210e+15	1.966457e+14	1.200757e+04	9.189497e+03	4.098378e+03	0	9.703571e-04
1.140000e+09	2.775291e+13	0.000000e+00	5.935486e-01	5.139490e+14	1.015990e+15	1.957925e+14	1.198798e+04	9.179512e+03	4.093925e+03	0	9.652153e-04
1.150000e+09	2.731514e+13	0.000000e+00	5.935486e-01	5.092167e+14	1.009809e+15	1.949449e+14	1.196857e+04	9.169544e+03	4.089479e+03	0	9.601133e-04
1.160000e+09	2.688527e+13	0.000000e+00	5.935486e-01	5.045663e+14	1.003667e+15	1.941031e+14	1.194934e+04	9.159596e+03	4.085042e+03	0	9.550501e-04
1.170000e+09	2.646309e+13	0.000000e+00	5.935486e-01	4.999958e+14	9.975651e+14	1.932669e+14	1.193028e+04	9.149668e+03	4.080615e+03	0	9.500246e-04
1.180000e+09	2.604840e+13	0.000000e+00	5.935486e-01	4.955029e+14	9.915039e+14	1.924362e+14	1.191139e+04	9.139763e+03	4.076197e+03	0	9.450360e-04
1.190000e+09	2.564098e+13	0.000000e+00	5.935486e-01	4.910857e+14	9.854838e+14	1.916110e+14	1.189268e+04	9.129881e+03	4.071790e+03	0	9.400831e-04
1.200000e+09	2.524066e+13	0.000000e+00	5.935486e-01	4.867423e+14	9.795054e+14	1.907913e+14	1.187413e+04	9.120024e+03	4.067394e+03	0	9.351650e-04
1.210000e+09	2.484724e+13	0.000000e+00	5.935486e-01	4.824706e+14	9.735696e+14	1.899771e+14	1.185574e+04	9.110193e+03	4.063010e+03	0	9.302807e-04
1.220000e+09	2.446054e+13	0.000000e+00	5.935486e-01	4.782688e+14	9.676760e+14	1.891682e+14	1.183751e+04	9.100390e+03	4.058637e+03	0	9.254295e-04
1.230000e+09	2.408039e+13	0.000000e+00	5.935486e-01	4.741353e+14	9.618258e+14	1.883647e+14	1.181944e+04	9.090615e+03	4.054278e+03	0	9.206104e-04
1.240000e+09	2.370663e+13	0.000000e+00	5.935486e-01	4.700682e+14	9.560187e+14	1.875666e+14	1.180153e+04	9.080869e+03	4.049931e+03	0	9.158225e-04
1.250000e+09	2.333910e+13	0.000000e+00	5.935486e-01	4.660660e+14	9.502553e+14	1.867736e+14	1.178377e+04	9.071154e+03	4.045598e+03	0	9.110650e-04
1.260000e+09	2.297763e+13	0.000000e+00	5.935486e-01	4.621270e+14	9.445357e+14	1.859859e+14	1.176616e+04	9.061469e+03	4.041279e+03	0	9.063370e-04
1.270000e+09	2.262208e+13	0.000000e+00	5.935486e-01	4.582497e+14	9.388596e+14	1.852034e+14	1.174870e+04	9.051817e+03	4.036975e+03	0	9.016379e-04
1.280000e+09	2.227230e+13	0.000000e+00	5.935486e-01	4.544326e+14	9.332279e+14	1.844261e+14	1.173139e+04	9.042198e+03	4.032684e+03	0	8.969667e-04
1.290000e+09	2.192815e+13	0.000000e+00	5.935486e-01	4.506743e+14	9.276402e+14	1.836538e+14	1.171422e+04	9.032611e+03	4.028409e+03	0	8.923228e-04
1.300000e+09	2.158950e+13	0.000000e+00	5.935486e-01	4.469734e+14	9.220968e+14	1.828867e+14	1.169719e+04	9.023059e+03	4.024149e+03	0	8.877054e-04
1.310000e+09	2.125621e+13	0.000000e+00	5.935486e-01	4.433285e+14	9.165973e+14	1.821245e+14	1.168030e+04	9.013542e+03	4.019904e+03	0	8.831137e-04
1.320000e+09	2.092816e+13	0.000000e+00	5.935486e-01	4.397384e+14	9.111423e+14	1.813674e+14	1.166355e+04	9.004060e+03	4.015676e+03	0	8.785471e-04
1.330000e+09	2.060523e+13	0.000000e+00	5.935486e-01	4.362017e+14	9.057315e+14	1.806152e+14	1.164693e+04	8.994613e+03	4.011463e+03	0	8.740048e-04
1.340000e+09	2.028729e+13	0.000000e+00	5.935486e-01	4.327173e+14	9.003646e+14	1.798679e+14	1.163044e+04	8.985203e+03	4.007266e+03	0	8.694862e-04
1.350000e+09	1.997424e+13	0.000000e+00	5.935486e-01	4.292839e+14	8.950419e+14	1.791255e+14	1.161409e+04	8.975829e+03	4.003085e+03	0	8.649906e-04
1.360000e+09	1.966595e+13	0.000000e+00	5.935486e-01	4.259005e+14	8.897629e+14	1.783879e+14	1.159787e+04	8.966493e+03	3.998921e+03	0	8.605173e-04
