#t		Qconv[W]	Ri[Rp]		R*[Rp]		Qc[W]		Qm[W]		Qr[W]		Tcmb[K]		Tl[K]		Tup[K]		RiFlag		Bs[T]
0.000000e+00	2.836655e+13	0.000000e+00	5.974028e-01	7.249451e+14	6.337563e+13	4.277688e+14	1.416798e+04	5.305495e+03	2.821412e+03	0	9.640118e-04
1.000000e+07	2.823267e+13	0.000000e+00	5.974028e-01	7.231113e+14	6.577845e+13	4.253987e+14	1.414812e+04	5.332091e+03	2.835556e+03	0	9.624928e-04
2.000000e+07	2.809447e+13	0.000000e+00	5.974028e-01	7.212417e+14	6.823637e+13	4.230463e+14	1.412831e+04	5.358525e+03	2.849613e+03	0	9.609197e-04
3.000000e+07	2.795201e+13	0.000000e+00	5.974028e-01	7.193369e+14	7.074931e+13	4.207114e+14	1.410855e+04	5.384795e+03	2.863584e+03	0	9.592928e-04
4.000000e+07	2.780537e+13	0.000000e+00	5.974028e-01	7.173974e+14	7.331715e+13	4.183940e+14	1.408884e+04	5.410900e+03	2.877466e+03	0	9.576123e-04
5.000000e+07	2.765461e+13	0.000000e+00	5.974028e-01	7.154239e+14	7.593970e+13	4.160939e+14	1.406918e+04	5.436837e+03	2.891259e+03	0	9.558784e-04
6.000000e+07	2.749979e+13	0.000000e+00	5.974028e-01	7.134171e+14	7.861676e+13	4.138109e+14	1.404958e+04	5.462605e+03	2.904962e+03	0	9.540914e-04
7.000000e+07	2.734099e+13	0.000000e+00	5.974028e-01	7.113775e+14	8.134804e+13	4.115449e+14	1.403003e+04	5.488202e+03	2.918574e+03	0	9.522513e-04
8.000000e+07	2.717828e+13	0.000000e+00	5.974028e-01	7.093059e+14	8.413322e+13	4.092958e+14	1.401054e+04	5.513627e+03	2.932095e+03	0	9.503586e-04
9.000000e+07	2.701173e+13	0.000000e+00	5.974028e-01	7.072027e+14	8.697192e+13	4.070634e+14	1.399111e+04	5.538877e+03	2.945522e+03	0	9.484133e-04
1.000000e+08	2.684141e+13	0.000000e+00	5.974028e-01	7.050688e+14	8.986374e+13	4.048475e+14	1.397173e+04	5.563951e+03	2.958857e+03	0	9.464157e-04
1.100000e+08	2.666739e+13	0.000000e+00	5.974028e-01	7.029047e+14	9.280819e+13	4.026481e+14	1.395241e+04	5.588847e+03	2.972096e+03	0	9.443660e-04
1.200000e+08	2.648974e+13	0.000000e+00	5.974028e-01	7.007112e+14	9.580476e+13	4.004650e+14	1.393315e+04	5.613564e+03	2.985241e+03	0	9.422643e-04
1.300000e+08	2.630855e+13	0.000000e+00	5.974028e-01	6.984888e+14	9.885287e+13	3.982981e+14	1.391395e+04	5.638101e+03	2.998289e+03	0	9.401110e-04
1.400000e+08	2.612387e+13	0.000000e+00	5.974028e-01	6.962382e+14	1.019519e+14	3.961472e+14	1.389481e+04	5.662455e+03	3.011240e+03	0	9.379061e-04
1.500000e+08	2.593579e+13	0.000000e+00	5.974028e-01	6.939602e+14	1.051012e+14	3.940122e+14	1.387574e+04	5.686625e+03	3.024094e+03	0	9.356498e-04
1.600000e+08	2.574438e+13	0.000000e+00	5.974028e-01	6.916553e+14	1.083001e+14	3.918930e+14	1.385672e+04	5.710609e+03	3.036848e+03	0	9.333424e-04
1.700000e+08	2.554972e+13	0.000000e+00	5.974028e-01	6.893243e+14	1.115478e+14	3.897894e+14	1.383777e+04	5.734407e+03	3.049504e+03	0	9.309840e-04
1.800000e+08	2.535189e+13	0.000000e+00	5.974028e-01	6.869679e+14	1.148435e+14	3.877014e+14	1.381888e+04	5.758016e+03	3.062059e+03	0	9.285749e-04
1.900000e+08	2.515095e+13	0.000000e+00	5.974028e-01	6.845867e+14	1.181863e+14	3.856287e+14	1.380006e+04	5.781436e+03	3.074513e+03	0	9.261151e-04
2.000000e+08	2.494698e+13	0.000000e+00	5.974028e-01	6.821815e+14	1.215754e+14	3.835713e+14	1.378130e+04	5.804664e+03	3.086866e+03	0	9.236048e-04
2.100000e+08	2.474007e+13	0.000000e+00	5.974028e-01	6.797528e+14	1.250097e+14	3.815289e+14	1.376261e+04	5.827700e+03	3.099116e+03	0	9.210442e-04
2.200000e+08	2.453029e+13	0.000000e+00	5.974028e-01	6.773015e+14	1.284885e+14	3.795016e+14	1.374398e+04	5.850542e+03	3.111263e+03	0	9.184335e-04
2.300000e+08	2.431771e+13	0.000000e+00	5.974028e-01	6.748281e+14	1.320105e+14	3.774892e+14	1.372542e+04	5.873189e+03	3.123306e+03	0	9.157728e-04
2.400000e+08	2.410242e+13	0.000000e+00	5.974028e-01	6.723335e+14	1.355747e+14	3.754915e+14	1.370693e+04	5.895639e+03	3.135246e+03	0	9.130622e-04
2.500000e+08	2.388449e+13	0.000000e+00	5.974028e-01	6.698182e+14	1.391801e+14	3.735085e+14	1.368850e+04	5.917893e+03	3.147080e+03	0	9.103020e-04
2.600000e+08	2.366400e+13	0.000000e+00	5.974028e-01	6.672831e+14	1.428255e+14	3.715399e+14	1.367015e+04	5.939947e+03	3.158808e+03	0	9.074921e-04
2.700000e+08	2.344103e+13	0.000000e+00	5.974028e-01	6.647287e+14	1.465097e+14	3.695858e+14	1.365186e+04	5.961802e+03	3.170430e+03	0	9.046329e-04
2.800000e+08	2.321565e+13	0.000000e+00	5.974028e-01	6.621558e+14	1.502315e+14	3.676459e+14	1.363365e+04	5.983456e+03	3.181946e+03	0	9.017243e-04
2.900000e+08	2.298794e+13	0.000000e+00	5.974028e-01	6.595650e+14	1.539897e+14	3.657202e+14	1.361550e+04	6.004909e+03	3.193354e+03	0	8.987665e-04
3.000000e+08	2.275799e+13	0.000000e+00	5.974028e-01	6.569572e+14	1.577829e+14	3.638085e+14	1.359743e+04	6.026158e+03	3.204654e+03	0	8.957596e-04
3.100000e+08	2.252587e+13	0.000000e+00	5.974028e-01	6.543328e+14	1.616099e+14	3.619108e+14	1.357943e+04	6.047205e+03	3.215846e+03	0	8.927038e-04
3.200000e+08	2.229166e+13	0.000000e+00	5.974028e-01	6.516928e+14	1.654693e+14	3.600269e+14	1.356149e+04	6.068046e+03	3.226930e+03	0	8.895990e-04
3.300000e+08	2.205542e+13	0.000000e+00	5.974028e-01	6.490376e+14	1.693598e+14	3.581566e+14	1.354363e+04	6.088682e+03	3.237904e+03	0	8.864454e-04
3.400000e+08	2.181726e+13	0.000000e+00	5.974028e-01	6.463681e+14	1.732799e+14	3.563000e+14	1.352585e+04	6.109112e+03	3.248768e+03	0	8.832430e-04
3.500000e+08	2.157723e+13	0.000000e+00	5.974028e-01	6.436849e+14	1.772282e+14	3.544568e+14	1.350813e+04	6.129335e+03	3.259523e+03	0	8.799920e-04
3.600000e+08	2.133541e+13	0.000000e+00	5.974028e-01	6.409886e+14	1.812033e+14	3.526270e+14	1.349049e+04	6.149351e+03	3.270167e+03	0	8.766923e-04
3.700000e+08	2.109189e+13	0.000000e+00	5.974028e-01	6.382800e+14	1.852038e+14	3.508104e+14	1.347293e+04	6.169159e+03	3.280701e+03	0	8.733440e-04
3.800000e+08	2.084674e+13	0.000000e+00	5.974028e-01	6.355597e+14	1.892281e+14	3.490070e+14	1.345544e+04	6.188757e+03	3.291123e+03	0	8.699471e-04
3.900000e+08	2.060003e+13	0.000000e+00	5.974028e-01	6.328285e+14	1.932746e+14	3.472166e+14	1.343802e+04	6.208147e+03	3.301434e+03	0	8.665017e-04
4.000000e+08	2.035183e+13	0.000000e+00	5.974028e-01	6.300869e+14	1.973420e+14	3.454391e+14	1.342067e+04	6.227327e+03	3.311634e+03	0	8.630077e-04
4.100000e+08	2.010224e+13	0.000000e+00	5.974028e-01	6.273356e+14	2.014287e+14	3.436745e+14	1.340341e+04	6.246296e+03	3.321722e+03	0	8.594652e-04
4.200000e+08	1.985131e+13	0.000000e+00	5.974028e-01	6.245752e+14	2.055331e+14	3.419225e+14	1.338621e+04	6.265055e+03	3.331697e+03	0	8.558741e-04
4.300000e+08	1.959912e+13	0.000000e+00	5.974028e-01	6.218065e+14	2.096537e+14	3.401832e+14	1.336910e+04	6.283603e+03	3.341561e+03	0	8.522343e-04
4.400000e+08	1.934574e+13	0.000000e+00	5.974028e-01	6.190301e+14	2.137888e+14	3.384564e+14	1.335205e+04	6.301940e+03	3.351313e+03	0	8.485458e-04
4.500000e+08	1.909125e+13	0.000000e+00	5.974028e-01	6.162465e+14	2.179370e+14	3.367420e+14	1.333509e+04	6.320066e+03	3.360952e+03	0	8.448085e-04
4.600000e+08	1.883572e+13	0.000000e+00	5.974028e-01	6.134564e+14	2.220966e+14	3.350400e+14	1.331820e+04	6.337980e+03	3.370478e+03	0	8.410224e-04
4.700000e+08	1.857922e+13	0.000000e+00	5.974028e-01	6.106605e+14	2.262661e+14	3.333501e+14	1.330138e+04	6.355682e+03	3.379892e+03	0	8.371873e-04
4.800000e+08	1.832181e+13	0.000000e+00	5.974028e-01	6.078594e+14	2.304439e+14	3.316723e+14	1.328465e+04	6.373173e+03	3.389193e+03	0	8.333030e-04
4.900000e+08	1.806357e+13	0.000000e+00	5.974028e-01	6.050536e+14	2.346284e+14	3.300066e+14	1.326799e+04	6.390452e+03	3.398382e+03	0	8.293695e-04
5.000000e+08	1.780457e+13	0.000000e+00	5.974028e-01	6.022437e+14	2.388180e+14	3.283527e+14	1.325140e+04	6.407519e+03	3.407458e+03	0	8.253865e-04
5.100000e+08	1.754488e+13	0.000000e+00	5.974028e-01	5.994304e+14	2.430111e+14	3.267107e+14	1.323490e+04	6.424374e+03	3.416422e+03	0	8.213538e-04
5.200000e+08	1.728455e+13	0.000000e+00	5.974028e-01	5.966143e+14	2.472063e+14	3.250804e+14	1.321847e+04	6.441018e+03	3.425273e+03	0	8.172712e-04
5.300000e+08	1.702366e+13	0.000000e+00	5.974028e-01	5.937958e+14	2.514017e+14	3.234617e+14	1.320211e+04	6.457451e+03	3.434012e+03	0	8.131384e-04
5.400000e+08	1.676227e+13	0.000000e+00	5.974028e-01	5.909756e+14	2.555961e+14	3.218546e+14	1.318584e+04	6.473673e+03	3.442638e+03	0	8.089552e-04
5.500000e+08	1.650045e+13	0.000000e+00	5.974028e-01	5.881543e+14	2.597877e+14	3.202589e+14	1.316964e+04	6.489684e+03	3.451153e+03	0	8.047211e-04
5.600000e+08	1.623825e+13	0.000000e+00	5.974028e-01	5.853323e+14	2.639751e+14	3.186745e+14	1.315352e+04	6.505484e+03	3.459555e+03	0	8.004359e-04
5.700000e+08	1.597575e+13	0.000000e+00	5.974028e-01	5.825102e+14	2.681568e+14	3.171014e+14	1.313747e+04	6.521074e+03	3.467846e+03	0	7.960992e-04
5.800000e+08	1.571299e+13	0.000000e+00	5.974028e-01	5.796886e+14	2.723312e+14	3.155394e+14	1.312151e+04	6.536455e+03	3.476025e+03	0	7.917106e-04
5.900000e+08	1.545005e+13	0.000000e+00	5.974028e-01	5.768680e+14	2.764967e+14	3.139885e+14	1.310562e+04	6.551626e+03	3.484093e+03	0	7.872695e-04
6.000000e+08	1.518697e+13	0.000000e+00	5.974028e-01	5.740488e+14	2.806521e+14	3.124486e+14	1.308981e+04	6.566589e+03	3.492050e+03	0	7.827755e-04
6.100000e+08	1.492383e+13	0.000000e+00	5.974028e-01	5.712316e+14	2.847957e+14	3.109196e+14	1.307407e+04	6.581344e+03	3.499897e+03	0	7.782281e-04
6.200000e+08	1.466066e+13	0.000000e+00	5.974028e-01	5.684168e+14	2.889262e+14	3.094014e+14	1.305841e+04	6.595891e+03	3.507633e+03	0	7.736266e-04
6.300000e+08	1.439754e+13	0.000000e+00	5.974028e-01	5.656050e+14	2.930423e+14	3.078939e+14	1.304283e+04	6.610232e+03	3.515259e+03	0	7.689704e-04
6.400000e+08	1.413451e+13	0.000000e+00	5.974028e-01	5.627967e+14	2.971423e+14	3.063971e+14	1.302733e+04	6.624366e+03	3.522776e+03	0	7.642588e-04
6.500000e+08	1.387163e+13	0.000000e+00	5.974028e-01	5.599922e+14	3.012250e+14	3.049107e+14	1.301190e+04	6.638296e+03	3.530183e+03	0	7.594910e-04
6.600000e+08	1.360894e+13	0.000000e+00	5.974028e-01	5.571920e+14	3.052891e+14	3.034349e+14	1.299655e+04	6.652020e+03	3.537482e+03	0	7.546663e-04
6.700000e+08	1.334651e+13	0.000000e+00	5.974028e-01	5.543965e+14	3.093332e+14	3.019694e+14	1.298127e+04	6.665541e+03	3.544672e+03	0	7.497839e-04
6.800000e+08	1.308438e+13	0.000000e+00	5.974028e-01	5.516063e+14	3.133561e+14	3.005142e+14	1.296608e+04	6.678859e+03	3.551755e+03	0	7.448426e-04
6.900000e+08	1.282259e+13	0.000000e+00	5.974028e-01	5.488217e+14	3.173564e+14	2.990692e+14	1.295096e+04	6.691976e+03	3.558730e+03	0	7.398417e-04
7.000000e+08	1.256120e+13	0.000000e+00	5.974028e-01	5.460430e+14	3.213329e+14	2.976344e+14	1.293591e+04	6.704891e+03	3.565598e+03	0	7.347799e-04
7.100000e+08	1.230026e+13	0.000000e+00	5.974028e-01	5.432708e+14	3.252845e+14	2.962096e+14	1.292094e+04	6.717606e+03	3.572360e+03	0	7.296561e-04
7.200000e+08	1.203980e+13	0.000000e+00	5.974028e-01	5.405054e+14	3.292099e+14	2.947947e+14	1.290605e+04	6.730122e+03	3.579016e+03	0	7.244691e-04
7.300000e+08	1.177987e+13	0.000000e+00	5.974028e-01	5.377472e+14	3.331080e+14	2.933898e+14	1.289123e+04	6.742441e+03	3.585567e+03	0	7.192176e-04
7.400000e+08	1.152051e+13	0.000000e+00	5.974028e-01	5.349964e+14	3.369777e+14	2.919946e+14	1.287649e+04	6.754562e+03	3.592013e+03	0	7.139001e-04
7.500000e+08	1.126177e+13	0.000000e+00	5.974028e-01	5.322536e+14	3.408178e+14	2.906092e+14	1.286182e+04	6.766488e+03	3.598355e+03	0	7.085151e-04
7.600000e+08	1.100369e+13	0.000000e+00	5.974028e-01	5.295190e+14	3.446275e+14	2.892334e+14	1.284723e+04	6.778220e+03	3.604594e+03	0	7.030609e-04
7.700000e+08	1.074630e+13	0.000000e+00	5.974028e-01	5.267930e+14	3.484056e+14	2.878672e+14	1.283271e+04	6.789758e+03	3.610729e+03	0	6.975358e-04
7.800000e+08	1.048965e+13	0.000000e+00	5.974028e-01	5.240758e+14	3.521510e+14	2.865105e+14	1.281827e+04	6.801104e+03	3.616763e+03	0	6.919379e-04
7.900000e+08	1.023376e+13	0.000000e+00	5.974028e-01	5.213679e+14	3.558630e+14	2.851633e+14	1.280390e+04	6.812260e+03	3.622696e+03	0	6.862651e-04
8.000000e+08	9.978678e+12	0.000000e+00	5.974028e-01	5.186694e+14	3.595405e+14	2.838253e+14	1.278961e+04	6.823225e+03	3.628527e+03	0	6.805152e-04
8.100000e+08	9.724437e+12	0.000000e+00	5.974028e-01	5.159807e+14	3.631827e+14	2.824967e+14	1.277539e+04	6.834003e+03	3.634259e+03	0	6.746859e-04
8.200000e+08	9.471068e+12	0.000000e+00	5.974028e-01	5.133021e+14	3.667887e+14	2.811772e+14	1.276124e+04	6.844594e+03	3.639891e+03	0	6.687747e-04
8.300000e+08	9.218605e+12	0.000000e+00	5.974028e-01	5.106339e+14	3.703577e+14	2.798668e+14	1.274717e+04	6.854999e+03	3.645424e+03	0	6.627787e-04
8.400000e+08	8.967079e+12	0.000000e+00	5.974028e-01	5.079762e+14	3.738890e+14	2.785655e+14	1.273317e+04	6.865220e+03	3.650860e+03	0	6.566952e-04
8.500000e+08	8.716519e+12	0.000000e+00	5.974028e-01	5.053294e+14	3.773816e+14	2.772732e+14	1.271924e+04	6.875259e+03	3.656198e+03	0	6.505208e-04
8.600000e+08	8.466954e+12	0.000000e+00	5.974028e-01	5.026937e+14	3.808350e+14	2.759898e+14	1.270539e+04	6.885116e+03	3.661440e+03	0	6.442522e-04
8.700000e+08	8.218412e+12	0.000000e+00	5.974028e-01	5.000693e+14	3.842484e+14	2.747152e+14	1.269160e+04	6.894793e+03	3.666586e+03	0	6.378856e-04
8.800000e+08	7.970920e+12	0.000000e+00	5.974028e-01	4.974565e+14	3.876213e+14	2.734494e+14	1.267789e+04	6.904292e+03	3.671638e+03	0	6.314171e-04
8.900000e+08	7.724503e+12	0.000000e+00	5.974028e-01	4.948554e+14	3.909530e+14	2.721923e+14	1.266425e+04	6.913615e+03	3.676595e+03	0	6.248422e-04
9.000000e+08	7.479186e+12	0.000000e+00	5.974028e-01	4.922662e+14	3.942428e+14	2.709438e+14	1.265068e+04	6.922762e+03	3.681459e+03	0	6.181563e-04
9.100000e+08	7.234993e+12	0.000000e+00	5.974028e-01	4.896892e+14	3.974903e+14	2.697039e+14	1.263719e+04	6.931735e+03	3.686231e+03	0	6.113542e-04
9.200000e+08	6.991946e+12	0.000000e+00	5.974028e-01	4.871246e+14	4.006950e+14	2.684725e+14	1.262376e+04	6.940536e+03	3.690912e+03	0	6.044302e-04
9.300000e+08	6.750066e+12	0.000000e+00	5.974028e-01	4.845725e+14	4.038563e+14	2.672495e+14	1.261040e+04	6.949166e+03	3.695501e+03	0	5.973784e-04
9.400000e+08	6.509374e+12	0.000000e+00	5.974028e-01	4.820330e+14	4.069737e+14	2.660348e+14	1.259712e+04	6.957627e+03	3.700001e+03	0	5.901919e-04
9.500000e+08	6.269890e+12	0.000000e+00	5.974028e-01	4.795064e+14	4.100469e+14	2.648285e+14	1.258390e+04	6.965921e+03	3.704411e+03	0	5.828634e-04
9.600000e+08	6.031632e+12	0.000000e+00	5.974028e-01	4.769928e+14	4.130756e+14	2.636303e+14	1.257075e+04	6.974049e+03	3.708733e+03	0	5.753849e-04
9.700000e+08	5.794618e+12	0.000000e+00	5.974028e-01	4.744923e+14	4.160593e+14	2.624404e+14	1.255767e+04	6.982012e+03	3.712968e+03	0	5.677473e-04
9.800000e+08	5.558864e+12	0.000000e+00	5.974028e-01	4.720050e+14	4.189976e+14	2.612585e+14	1.254466e+04	6.989813e+03	3.717117e+03	0	5.599409e-04
9.900000e+08	5.324387e+12	0.000000e+00	5.974028e-01	4.695312e+14	4.218903e+14	2.600846e+14	1.253172e+04	6.997453e+03	3.721180e+03	0	5.519546e-04
1.000000e+09	5.091201e+12	0.000000e+00	5.974028e-01	4.670708e+14	4.247373e+14	2.589188e+14	1.251884e+04	7.004933e+03	3.725158e+03	0	5.437763e-04
1.010000e+09	4.859320e+12	0.000000e+00	5.974028e-01	4.646241e+14	4.275380e+14	2.577608e+14	1.250604e+04	7.012256e+03	3.729052e+03	0	5.353922e-04
1.020000e+09	4.628758e+12	0.000000e+00	5.974028e-01	4.621911e+14	4.302925e+14	2.566107e+14	1.249329e+04	7.019423e+03	3.732863e+03	0	5.267869e-04
1.030000e+09	4.399527e+12	0.000000e+00	5.974028e-01	4.597718e+14	4.330004e+14	2.554683e+14	1.248062e+04	7.026435e+03	3.736592e+03	0	5.179432e-04
1.040000e+09	4.171638e+12	0.000000e+00	5.974028e-01	4.573665e+14	4.356618e+14	2.543337e+14	1.246801e+04	7.033295e+03	3.740240e+03	0	5.088413e-04
1.050000e+09	3.945103e+12	0.000000e+00	5.974028e-01	4.549752e+14	4.382764e+14	2.532067e+14	1.245547e+04	7.040003e+03	3.743807e+03	0	4.994587e-04
1.060000e+09	3.719931e+12	0.000000e+00	5.974028e-01	4.525979e+14	4.408440e+14	2.520874e+14	1.244299e+04	7.046562e+03	3.747295e+03	0	4.897696e-04
1.070000e+09	3.496131e+12	0.000000e+00	5.974028e-01	4.502347e+14	4.433647e+14	2.509756e+14	1.243058e+04	7.052973e+03	3.750705e+03	0	4.797438e-04
1.080000e+09	3.273713e+12	0.000000e+00	5.974028e-01	4.478858e+14	4.458385e+14	2.498712e+14	1.241824e+04	7.059239e+03	3.754037e+03	0	4.693466e-04
1.090000e+09	3.052683e+12	0.000000e+00	5.974028e-01	4.455510e+14	4.482651e+14	2.487743e+14	1.240595e+04	7.065360e+03	3.757292e+03	0	4.585367e-04
1.100000e+09	2.833049e+12	0.000000e+00	5.974028e-01	4.432305e+14	4.506447e+14	2.476848e+14	1.239373e+04	7.071338e+03	3.760471e+03	0	4.472649e-04
1.110000e+09	2.614817e+12	0.000000e+00	5.974028e-01	4.409244e+14	4.529774e+14	2.466025e+14	1.238158e+04	7.077175e+03	3.763575e+03	0	4.354724e-04
1.120000e+09	2.397994e+12	0.000000e+00	5.974028e-01	4.386326e+14	4.552631e+14	2.455275e+14	1.236949e+04	7.082873e+03	3.766605e+03	0	4.230868e-04
1.130000e+09	2.182583e+12	0.000000e+00	5.974028e-01	4.363552e+14	4.575018e+14	2.444597e+14	1.235746e+04	7.088433e+03	3.769562e+03	0	4.100188e-04
1.140000e+09	1.968591e+12	0.000000e+00	5.974028e-01	4.340923e+14	4.596936e+14	2.433991e+14	1.234549e+04	7.093858e+03	3.772447e+03	0	3.961551e-04
1.150000e+09	1.756019e+12	0.000000e+00	5.974028e-01	4.318438e+14	4.618389e+14	2.423455e+14	1.233359e+04	7.099148e+03	3.775260e+03	0	3.813496e-04
1.160000e+09	1.544872e+12	0.000000e+00	5.974028e-01	4.296097e+14	4.639375e+14	2.412990e+14	1.232174e+04	7.104305e+03	3.778003e+03	0	3.654077e-04
1.170000e+09	1.335153e+12	0.000000e+00	5.974028e-01	4.273901e+14	4.659898e+14	2.402594e+14	1.230996e+04	7.109331e+03	3.780676e+03	0	3.480625e-04
1.180000e+09	1.126864e+12	0.000000e+00	5.974028e-01	4.251850e+14	4.679957e+14	2.392267e+14	1.229824e+04	7.114229e+03	3.783280e+03	0	3.289303e-04
1.190000e+09	9.200050e+11	0.000000e+00	5.974028e-01	4.229943e+14	4.699555e+14	2.382009e+14	1.228658e+04	7.118998e+03	3.785816e+03	0	3.074281e-04
1.200000e+09	7.145787e+11	0.000000e+00	5.974028e-01	4.208181e+14	4.718694e+14	2.371820e+14	1.227498e+04	7.123641e+03	3.788285e+03	0	2.825944e-04
1.210000e+09	5.105853e+11	0.000000e+00	5.974028e-01	4.186564e+14	4.737377e+14	2.361697e+14	1.226344e+04	7.128161e+03	3.790689e+03	0	2.526405e-04
1.220000e+09	3.080248e+11	0.000000e+00	5.974028e-01	4.165091e+14	4.755605e+14	2.351642e+14	1.225195e+04	7.132557e+03	3.793027e+03	0	2.134726e-04
1.230000e+09	1.068968e+11	0.000000e+00	5.974028e-01	4.143762e+14	4.773382e+14	2.341653e+14	1.224053e+04	7.136832e+03	3.795300e+03	0	1.500151e-04
1.240000e+09	-9.279934e+10	0.000000e+00	5.974028e-01	4.122577e+14	4.790709e+14	2.331731e+14	1.222916e+04	7.140988e+03	3.797510e+03	0	nan
