#t		Qconv[W]	Ri[Rp]		R*[Rp]		Qc[W]		Qm[W]		Qr[W]		Tcmb[K]		Tl[K]		Tup[K]		RiFlag		Bs[T]
0.000000e+00	2.306307e+13	0.000000e+00	5.909092e-01	9.057999e+14	5.548226e+13	4.965354e+14	1.587003e+04	5.688431e+03	2.899971e+03	0	9.036109e-04
1.000000e+07	2.295397e+13	0.000000e+00	5.909092e-01	9.039516e+14	5.767623e+13	4.937842e+14	1.584890e+04	5.717333e+03	2.914705e+03	0	9.021838e-04
2.000000e+07	2.283938e+13	0.000000e+00	5.909092e-01	9.020603e+14	5.992599e+13	4.910536e+14	1.582781e+04	5.746089e+03	2.929364e+03	0	9.006800e-04
3.000000e+07	2.271936e+13	0.000000e+00	5.909092e-01	9.001265e+14	6.223183e+13	4.883435e+14	1.580676e+04	5.774696e+03	2.943949e+03	0	8.990996e-04
4.000000e+07	2.259399e+13	0.000000e+00	5.909092e-01	8.981509e+14	6.459392e+13	4.856535e+14	1.578576e+04	5.803153e+03	2.958456e+03	0	8.974428e-04
5.000000e+07	2.246333e+13	0.000000e+00	5.909092e-01	8.961341e+14	6.701243e+13	4.829836e+14	1.576480e+04	5.831459e+03	2.972887e+03	0	8.957095e-04
6.000000e+07	2.232745e+13	0.000000e+00	5.909092e-01	8.940766e+14	6.948751e+13	4.803336e+14	1.574389e+04	5.859612e+03	2.987239e+03	0	8.938997e-04
7.000000e+07	2.218641e+13	0.000000e+00	5.909092e-01	8.919791e+14	7.201925e+13	4.777034e+14	1.572303e+04	5.887610e+03	3.001512e+03	0	8.920136e-04
8.000000e+07	2.204029e+13	0.000000e+00	5.909092e-01	8.898421e+14	7.460766e+13	4.750927e+14	1.570221e+04	5.915452e+03	3.015706e+03	0	8.900510e-04
9.000000e+07	2.188915e+13	0.000000e+00	5.909092e-01	8.876663e+14	7.725277e+13	4.725014e+14	1.568145e+04	5.943136e+03	3.029819e+03	0	8.880118e-04
1.000000e+08	2.173307e+13	0.000000e+00	5.909092e-01	8.854523e+14	7.995452e+13	4.699293e+14	1.566074e+04	5.970659e+03	3.043851e+03	0	8.858961e-04
1.100000e+08	2.157212e+13	0.000000e+00	5.909092e-01	8.832007e+14	8.271285e+13	4.673764e+14	1.564008e+04	5.998022e+03	3.057800e+03	0	8.837037e-04
1.200000e+08	2.140636e+13	0.000000e+00	5.909092e-01	8.809122e+14	8.552763e+13	4.648423e+14	1.561947e+04	6.025221e+03	3.071667e+03	0	8.814345e-04
1.300000e+08	2.123588e+13	0.000000e+00	5.909092e-01	8.785873e+14	8.839867e+13	4.623271e+14	1.559891e+04	6.052256e+03	3.085449e+03	0	8.790883e-04
1.400000e+08	2.106074e+13	0.000000e+00	5.909092e-01	8.762268e+14	9.132576e+13	4.598304e+14	1.557841e+04	6.079124e+03	3.099147e+03	0	8.766650e-04
1.500000e+08	2.088103e+13	0.000000e+00	5.909092e-01	8.738313e+14	9.430865e+13	4.573522e+14	1.555796e+04	6.105825e+03	3.112759e+03	0	8.741643e-04
1.600000e+08	2.069681e+13	0.000000e+00	5.909092e-01	8.714014e+14	9.734702e+13	4.548923e+14	1.553757e+04	6.132357e+03	3.126285e+03	0	8.715860e-04
1.700000e+08	2.050817e+13	0.000000e+00	5.909092e-01	8.689379e+14	1.004405e+14	4.524506e+14	1.551724e+04	6.158718e+03	3.139723e+03	0	8.689299e-04
1.800000e+08	2.031518e+13	0.000000e+00	5.909092e-01	8.664413e+14	1.035888e+14	4.500269e+14	1.549696e+04	6.184906e+03	3.153074e+03	0	8.661956e-04
1.900000e+08	2.011792e+13	0.000000e+00	5.909092e-01	8.639123e+14	1.067914e+14	4.476210e+14	1.547674e+04	6.210920e+03	3.166336e+03	0	8.633829e-04
2.000000e+08	1.991646e+13	0.000000e+00	5.909092e-01	8.613517e+14	1.100478e+14	4.452328e+14	1.545658e+04	6.236760e+03	3.179509e+03	0	8.604913e-04
2.100000e+08	1.971089e+13	0.000000e+00	5.909092e-01	8.587600e+14	1.133575e+14	4.428622e+14	1.543648e+04	6.262422e+03	3.192592e+03	0	8.575205e-04
2.200000e+08	1.950128e+13	0.000000e+00	5.909092e-01	8.561380e+14	1.167199e+14	4.405089e+14	1.541644e+04	6.287906e+03	3.205584e+03	0	8.544700e-04
2.300000e+08	1.928772e+13	0.000000e+00	5.909092e-01	8.534864e+14	1.201344e+14	4.381730e+14	1.539647e+04	6.313211e+03	3.218484e+03	0	8.513394e-04
2.400000e+08	1.907028e+13	0.000000e+00	5.909092e-01	8.508059e+14	1.236004e+14	4.358542e+14	1.537655e+04	6.338334e+03	3.231292e+03	0	8.481281e-04
2.500000e+08	1.884905e+13	0.000000e+00	5.909092e-01	8.480971e+14	1.271171e+14	4.335523e+14	1.535669e+04	6.363276e+03	3.244007e+03	0	8.448357e-04
2.600000e+08	1.862411e+13	0.000000e+00	5.909092e-01	8.453607e+14	1.306839e+14	4.312674e+14	1.533690e+04	6.388033e+03	3.256629e+03	0	8.414615e-04
2.700000e+08	1.839553e+13	0.000000e+00	5.909092e-01	8.425975e+14	1.342998e+14	4.289991e+14	1.531718e+04	6.412606e+03	3.269156e+03	0	8.380049e-04
2.800000e+08	1.816341e+13	0.000000e+00	5.909092e-01	8.398081e+14	1.379642e+14	4.267474e+14	1.529751e+04	6.436992e+03	3.281588e+03	0	8.344651e-04
2.900000e+08	1.792782e+13	0.000000e+00	5.909092e-01	8.369932e+14	1.416761e+14	4.245121e+14	1.527791e+04	6.461191e+03	3.293925e+03	0	8.308416e-04
3.000000e+08	1.768884e+13	0.000000e+00	5.909092e-01	8.341536e+14	1.454346e+14	4.222931e+14	1.525838e+04	6.485201e+03	3.306165e+03	0	8.271334e-04
3.100000e+08	1.744656e+13	0.000000e+00	5.909092e-01	8.312900e+14	1.492388e+14	4.200903e+14	1.523891e+04	6.509021e+03	3.318309e+03	0	8.233397e-04
3.200000e+08	1.720107e+13	0.000000e+00	5.909092e-01	8.284030e+14	1.530877e+14	4.179035e+14	1.521951e+04	6.532651e+03	3.330355e+03	0	8.194597e-04
3.300000e+08	1.695244e+13	0.000000e+00	5.909092e-01	8.254933e+14	1.569803e+14	4.157326e+14	1.520018e+04	6.556088e+03	3.342303e+03	0	8.154923e-04
3.400000e+08	1.670076e+13	0.000000e+00	5.909092e-01	8.225618e+14	1.609155e+14	4.135775e+14	1.518092e+04	6.579332e+03	3.354153e+03	0	8.114365e-04
3.500000e+08	1.644612e+13	0.000000e+00	5.909092e-01	8.196090e+14	1.648923e+14	4.114380e+14	1.516172e+04	6.602381e+03	3.365904e+03	0	8.072912e-04
3.600000e+08	1.618859e+13	0.000000e+00	5.909092e-01	8.166357e+14	1.689094e+14	4.093140e+14	1.514259e+04	6.625236e+03	3.377555e+03	0	8.030553e-04
3.700000e+08	1.592826e+13	0.000000e+00	5.909092e-01	8.136427e+14	1.729659e+14	4.072054e+14	1.512353e+04	6.647894e+03	3.389106e+03	0	7.987273e-04
3.800000e+08	1.566522e+13	0.000000e+00	5.909092e-01	8.106305e+14	1.770603e+14	4.051120e+14	1.510455e+04	6.670355e+03	3.400557e+03	0	7.943061e-04
3.900000e+08	1.539954e+13	0.000000e+00	5.909092e-01	8.075999e+14	1.811917e+14	4.030338e+14	1.508563e+04	6.692618e+03	3.411907e+03	0	7.897901e-04
4.000000e+08	1.513131e+13	0.000000e+00	5.909092e-01	8.045517e+14	1.853587e+14	4.009706e+14	1.506678e+04	6.714682e+03	3.423155e+03	0	7.851777e-04
4.100000e+08	1.486062e+13	0.000000e+00	5.909092e-01	8.014865e+14	1.895600e+14	3.989223e+14	1.504800e+04	6.736547e+03	3.434302e+03	0	7.804674e-04
4.200000e+08	1.458755e+13	0.000000e+00	5.909092e-01	7.984050e+14	1.937943e+14	3.968888e+14	1.502930e+04	6.758211e+03	3.445346e+03	0	7.756573e-04
4.300000e+08	1.431218e+13	0.000000e+00	5.909092e-01	7.953079e+14	1.980603e+14	3.948698e+14	1.501066e+04	6.779674e+03	3.456288e+03	0	7.707456e-04
4.400000e+08	1.403459e+13	0.000000e+00	5.909092e-01	7.921959e+14	2.023567e+14	3.928655e+14	1.499210e+04	6.800935e+03	3.467127e+03	0	7.657301e-04
4.500000e+08	1.375488e+13	0.000000e+00	5.909092e-01	7.890698e+14	2.066820e+14	3.908755e+14	1.497361e+04	6.821994e+03	3.477862e+03	0	7.606088e-04
4.600000e+08	1.347311e+13	0.000000e+00	5.909092e-01	7.859301e+14	2.110349e+14	3.888998e+14	1.495519e+04	6.842849e+03	3.488495e+03	0	7.553792e-04
4.700000e+08	1.318937e+13	0.000000e+00	5.909092e-01	7.827776e+14	2.154140e+14	3.869382e+14	1.493685e+04	6.863501e+03	3.499023e+03	0	7.500389e-04
4.800000e+08	1.290374e+13	0.000000e+00	5.909092e-01	7.796130e+14	2.198179e+14	3.849908e+14	1.491858e+04	6.883948e+03	3.509447e+03	0	7.445851e-04
4.900000e+08	1.261631e+13	0.000000e+00	5.909092e-01	7.764369e+14	2.242450e+14	3.830572e+14	1.490038e+04	6.904191e+03	3.519767e+03	0	7.390150e-04
5.000000e+08	1.232716e+13	0.000000e+00	5.909092e-01	7.732500e+14	2.286940e+14	3.811375e+14	1.488226e+04	6.924229e+03	3.529982e+03	0	7.333254e-04
5.100000e+08	1.203635e+13	0.000000e+00	5.909092e-01	7.700530e+14	2.331634e+14	3.792316e+14	1.486421e+04	6.944061e+03	3.540093e+03	0	7.275130e-04
5.200000e+08	1.174399e+13	0.000000e+00	5.909092e-01	7.668466e+14	2.376516e+14	3.773392e+14	1.484624e+04	6.963688e+03	3.550098e+03	0	7.215741e-04
5.300000e+08	1.145013e+13	0.000000e+00	5.909092e-01	7.636313e+14	2.421572e+14	3.754603e+14	1.482834e+04	6.983108e+03	3.559999e+03	0	7.155048e-04
5.400000e+08	1.115487e+13	0.000000e+00	5.909092e-01	7.604079e+14	2.466787e+14	3.735948e+14	1.481052e+04	7.002322e+03	3.569794e+03	0	7.093010e-04
5.500000e+08	1.085827e+13	0.000000e+00	5.909092e-01	7.571770e+14	2.512145e+14	3.717425e+14	1.479277e+04	7.021329e+03	3.579484e+03	0	7.029580e-04
5.600000e+08	1.056043e+13	0.000000e+00	5.909092e-01	7.539392e+14	2.557632e+14	3.699035e+14	1.477510e+04	7.040129e+03	3.589068e+03	0	6.964708e-04
5.700000e+08	1.026140e+13	0.000000e+00	5.909092e-01	7.506952e+14	2.603232e+14	3.680775e+14	1.475750e+04	7.058723e+03	3.598547e+03	0	6.898341e-04
5.800000e+08	9.961276e+12	0.000000e+00	5.909092e-01	7.474455e+14	2.648930e+14	3.662644e+14	1.473998e+04	7.077110e+03	3.607921e+03	0	6.830420e-04
5.900000e+08	9.660123e+12	0.000000e+00	5.909092e-01	7.441909e+14	2.694710e+14	3.644642e+14	1.472253e+04	7.095289e+03	3.617189e+03	0	6.760881e-04
6.000000e+08	9.358017e+12	0.000000e+00	5.909092e-01	7.409319e+14	2.740558e+14	3.626767e+14	1.470516e+04	7.113262e+03	3.626351e+03	0	6.689655e-04
6.100000e+08	9.055031e+12	0.000000e+00	5.909092e-01	7.376692e+14	2.786459e+14	3.609019e+14	1.468786e+04	7.131027e+03	3.635408e+03	0	6.616664e-04
6.200000e+08	8.751237e+12	0.000000e+00	5.909092e-01	7.344032e+14	2.832396e+14	3.591397e+14	1.467064e+04	7.148586e+03	3.644360e+03	0	6.541825e-04
6.300000e+08	8.446707e+12	0.000000e+00	5.909092e-01	7.311347e+14	2.878356e+14	3.573898e+14	1.465350e+04	7.165938e+03	3.653206e+03	0	6.465045e-04
6.400000e+08	8.141511e+12	0.000000e+00	5.909092e-01	7.278641e+14	2.924321e+14	3.556523e+14	1.463643e+04	7.183083e+03	3.661946e+03	0	6.386223e-04
6.500000e+08	7.835719e+12	0.000000e+00	5.909092e-01	7.245921e+14	2.970279e+14	3.539271e+14	1.461944e+04	7.200022e+03	3.670582e+03	0	6.305246e-04
6.600000e+08	7.529399e+12	0.000000e+00	5.909092e-01	7.213192e+14	3.016213e+14	3.522140e+14	1.460253e+04	7.216755e+03	3.679112e+03	0	6.221988e-04
6.700000e+08	7.222619e+12	0.000000e+00	5.909092e-01	7.180460e+14	3.062110e+14	3.505129e+14	1.458569e+04	7.233282e+03	3.687538e+03	0	6.136311e-04
6.800000e+08	6.915445e+12	0.000000e+00	5.909092e-01	7.147730e+14	3.107953e+14	3.488238e+14	1.456893e+04	7.249603e+03	3.695859e+03	0	6.048056e-04
6.900000e+08	6.607943e+12	0.000000e+00	5.909092e-01	7.115008e+14	3.153729e+14	3.471465e+14	1.455224e+04	7.265720e+03	3.704075e+03	0	5.957049e-04
7.000000e+08	6.300177e+12	0.000000e+00	5.909092e-01	7.082299e+14	3.199424e+14	3.454810e+14	1.453563e+04	7.281632e+03	3.712187e+03	0	5.863092e-04
7.100000e+08	5.992210e+12	0.000000e+00	5.909092e-01	7.049607e+14	3.245022e+14	3.438272e+14	1.451910e+04	7.297340e+03	3.720195e+03	0	5.765958e-04
7.200000e+08	5.684106e+12	0.000000e+00	5.909092e-01	7.016939e+14	3.290510e+14	3.421849e+14	1.450265e+04	7.312844e+03	3.728099e+03	0	5.665390e-04
7.300000e+08	5.375924e+12	0.000000e+00	5.909092e-01	6.984299e+14	3.335874e+14	3.405541e+14	1.448626e+04	7.328146e+03	3.735899e+03	0	5.561093e-04
7.400000e+08	5.067725e+12	0.000000e+00	5.909092e-01	6.951691e+14	3.381099e+14	3.389346e+14	1.446996e+04	7.343244e+03	3.743597e+03	0	5.452723e-04
7.500000e+08	4.759569e+12	0.000000e+00	5.909092e-01	6.919122e+14	3.426174e+14	3.373265e+14	1.445373e+04	7.358141e+03	3.751191e+03	0	5.339882e-04
7.600000e+08	4.451512e+12	0.000000e+00	5.909092e-01	6.886595e+14	3.471083e+14	3.357296e+14	1.443758e+04	7.372837e+03	3.758683e+03	0	5.222097e-04
7.700000e+08	4.143612e+12	0.000000e+00	5.909092e-01	6.854115e+14	3.515815e+14	3.341437e+14	1.442150e+04	7.387332e+03	3.766073e+03	0	5.098810e-04
7.800000e+08	3.835924e+12	0.000000e+00	5.909092e-01	6.821686e+14	3.560355e+14	3.325689e+14	1.440550e+04	7.401627e+03	3.773361e+03	0	4.969344e-04
7.900000e+08	3.528502e+12	0.000000e+00	5.909092e-01	6.789314e+14	3.604691e+14	3.310051e+14	1.438957e+04	7.415724e+03	3.780547e+03	0	4.832879e-04
8.000000e+08	3.221400e+12	0.000000e+00	5.909092e-01	6.757002e+14	3.648811e+14	3.294521e+14	1.437372e+04	7.429622e+03	3.787632e+03	0	4.688392e-04
8.100000e+08	2.914669e+12	0.000000e+00	5.909092e-01	6.724754e+14	3.692704e+14	3.279098e+14	1.435795e+04	7.443323e+03	3.794617e+03	0	4.534598e-04
8.200000e+08	2.608360e+12	0.000000e+00	5.909092e-01	6.692575e+14	3.736355e+14	3.263782e+14	1.434225e+04	7.456827e+03	3.801502e+03	0	4.369834e-04
8.300000e+08	2.302523e+12	0.000000e+00	5.909092e-01	6.660468e+14	3.779754e+14	3.248572e+14	1.432662e+04	7.470136e+03	3.808287e+03	0	4.191895e-04
8.400000e+08	1.997206e+12	0.000000e+00	5.909092e-01	6.628438e+14	3.822889e+14	3.233467e+14	1.431107e+04	7.483250e+03	3.814972e+03	0	3.997760e-04
8.500000e+08	1.692457e+12	0.000000e+00	5.909092e-01	6.596487e+14	3.865750e+14	3.218467e+14	1.429560e+04	7.496171e+03	3.821559e+03	0	3.783104e-04
8.600000e+08	1.388321e+12	0.000000e+00	5.909092e-01	6.564621e+14	3.908325e+14	3.203569e+14	1.428020e+04	7.508899e+03	3.828048e+03	0	3.541379e-04
8.700000e+08	1.084843e+12	0.000000e+00	5.909092e-01	6.532842e+14	3.950604e+14	3.188775e+14	1.426487e+04	7.521435e+03	3.834439e+03	0	3.261856e-04
8.800000e+08	7.820677e+11	0.000000e+00	5.909092e-01	6.501155e+14	3.992576e+14	3.174082e+14	1.424962e+04	7.533781e+03	3.840733e+03	0	2.924762e-04
8.900000e+08	4.800366e+11	0.000000e+00	5.909092e-01	6.469561e+14	4.034232e+14	3.159490e+14	1.423444e+04	7.545937e+03	3.846930e+03	0	2.485615e-04
9.000000e+08	1.787911e+11	0.000000e+00	5.909092e-01	6.438065e+14	4.075561e+14	3.144998e+14	1.421934e+04	7.557905e+03	3.853031e+03	0	1.788372e-04
9.100000e+08	-1.216285e+11	0.000000e+00	5.909092e-01	6.406670e+14	4.116554e+14	3.130605e+14	1.420430e+04	7.569686e+03	3.859037e+03	0	nan
