#t		Qconv[W]	Ri[Rp]		R*[Rp]		Qc[W]		Qm[W]		Qr[W]		Tcmb[K]		Tl[K]		Tup[K]		RiFlag		Bs[T]
0.000000e+00	2.816801e+14	0.000000e+00	5.947712e-01	3.346744e+15	5.350956e+13	5.378717e+14	2.056058e+04	6.444715e+03	2.925883e+03	0	2.057674e-03
1.000000e+07	2.792550e+14	0.000000e+00	5.947712e-01	3.324149e+15	5.879957e+13	5.348915e+14	2.049399e+04	6.524018e+03	2.961886e+03	0	2.051752e-03
2.000000e+07	2.767888e+14	0.000000e+00	5.947712e-01	3.301261e+15	6.444370e+13	5.319336e+14	2.042784e+04	6.602677e+03	2.997597e+03	0	2.045694e-03
3.000000e+07	2.742830e+14	0.000000e+00	5.947712e-01	3.278090e+15	7.045138e+13	5.289978e+14	2.036215e+04	6.680680e+03	3.033010e+03	0	2.039502e-03
4.000000e+07	2.717392e+14	0.000000e+00	5.947712e-01	3.254650e+15	7.683134e+13	5.260839e+14	2.029691e+04	6.758014e+03	3.068120e+03	0	2.033178e-03
5.000000e+07	2.691588e+14	0.000000e+00	5.947712e-01	3.230951e+15	8.359159e+13	5.231917e+14	2.023214e+04	6.834666e+03	3.102919e+03	0	2.026721e-03
6.000000e+07	2.665433e+14	0.000000e+00	5.947712e-01	3.207007e+15	9.073931e+13	5.203211e+14	2.016784e+04	6.910623e+03	3.137404e+03	0	2.020136e-03
7.000000e+07	2.638945e+14	0.000000e+00	5.947712e-01	3.182830e+15	9.828082e+13	5.174719e+14	2.010401e+04	6.985873e+03	3.171567e+03	0	2.013421e-03
8.000000e+07	2.612137e+14	0.000000e+00	5.947712e-01	3.158432e+15	1.062216e+14	5.146439e+14	2.004067e+04	7.060402e+03	3.205403e+03	0	2.006580e-03
9.000000e+07	2.585026e+14	0.000000e+00	5.947712e-01	3.133826e+15	1.145661e+14	5.118369e+14	1.997780e+04	7.134199e+03	3.238906e+03	0	1.999614e-03
1.000000e+08	2.557629e+14	0.000000e+00	5.947712e-01	3.109024e+15	1.233180e+14	5.090507e+14	1.991542e+04	7.207251e+03	3.272072e+03	0	1.992525e-03
1.100000e+08	2.529961e+14	0.000000e+00	5.947712e-01	3.084040e+15	1.324798e+14	5.062852e+14	1.985354e+04	7.279545e+03	3.304893e+03	0	1.985314e-03
1.200000e+08	2.502039e+14	0.000000e+00	5.947712e-01	3.058886e+15	1.420531e+14	5.035402e+14	1.979215e+04	7.351071e+03	3.337366e+03	0	1.977983e-03
1.300000e+08	2.473878e+14	0.000000e+00	5.947712e-01	3.033575e+15	1.520385e+14	5.008156e+14	1.973125e+04	7.421816e+03	3.369484e+03	0	1.970534e-03
1.400000e+08	2.445496e+14	0.000000e+00	5.947712e-01	3.008119e+15	1.624354e+14	4.981111e+14	1.967086e+04	7.491770e+03	3.401243e+03	0	1.962969e-03
1.500000e+08	2.416908e+14	0.000000e+00	5.947712e-01	2.982533e+15	1.732423e+14	4.954266e+14	1.961098e+04	7.560920e+03	3.432637e+03	0	1.955290e-03
1.600000e+08	2.388132e+14	0.000000e+00	5.947712e-01	2.956829e+15	1.844566e+14	4.927619e+14	1.955160e+04	7.629257e+03	3.463661e+03	0	1.947499e-03
1.700000e+08	2.359183e+14	0.000000e+00	5.947712e-01	2.931019e+15	1.960746e+14	4.901169e+14	1.949273e+04	7.696769e+03	3.494312e+03	0	1.939598e-03
1.800000e+08	2.330078e+14	0.000000e+00	5.947712e-01	2.905117e+15	2.080915e+14	4.874913e+14	1.943437e+04	7.763447e+03	3.524583e+03	0	1.931589e-03
1.900000e+08	2.300834e+14	0.000000e+00	5.947712e-01	2.879136e+15	2.205017e+14	4.848852e+14	1.937652e+04	7.829281e+03	3.554472e+03	0	1.923474e-03
2.000000e+08	2.271467e+14	0.000000e+00	5.947712e-01	2.853088e+15	2.332983e+14	4.822982e+14	1.931919e+04	7.894262e+03	3.583973e+03	0	1.915256e-03
2.100000e+08	2.241994e+14	0.000000e+00	5.947712e-01	2.826987e+15	2.464736e+14	4.797302e+14	1.926238e+04	7.958380e+03	3.613082e+03	0	1.906936e-03
2.200000e+08	2.212430e+14	0.000000e+00	5.947712e-01	2.800844e+15	2.600186e+14	4.771811e+14	1.920609e+04	8.021628e+03	3.641797e+03	0	1.898517e-03
2.300000e+08	2.182791e+14	0.000000e+00	5.947712e-01	2.774673e+15	2.739237e+14	4.746507e+14	1.915031e+04	8.083997e+03	3.670112e+03	0	1.890001e-03
2.400000e+08	2.153095e+14	0.000000e+00	5.947712e-01	2.748486e+15	2.881782e+14	4.721388e+14	1.909505e+04	8.145479e+03	3.698025e+03	0	1.881391e-03
2.500000e+08	2.123356e+14	0.000000e+00	5.947712e-01	2.722295e+15	3.027705e+14	4.696453e+14	1.904031e+04	8.206068e+03	3.725532e+03	0	1.872688e-03
2.600000e+08	2.093590e+14	0.000000e+00	5.947712e-01	2.696112e+15	3.176883e+14	4.671701e+14	1.898610e+04	8.265758e+03	3.752631e+03	0	1.863896e-03
2.700000e+08	2.063813e+14	0.000000e+00	5.947712e-01	2.669951e+15	3.329183e+14	4.647130e+14	1.893240e+04	8.324541e+03	3.779318e+03	0	1.855018e-03
2.800000e+08	2.034040e+14	0.000000e+00	5.947712e-01	2.643821e+15	3.484465e+14	4.622739e+14	1.887922e+04	8.382412e+03	3.805592e+03	0	1.846054e-03
2.900000e+08	2.004286e+14	0.000000e+00	5.947712e-01	2.617735e+15	3.642583e+14	4.598525e+14	1.882656e+04	8.439368e+03	3.831449e+03	0	1.837008e-03
3.000000e+08	1.974565e+14	0.000000e+00	5.947712e-01	2.591705e+15	3.803382e+14	4.574488e+14	1.877441e+04	8.495402e+03	3.856889e+03	0	1.827883e-03
3.100000e+08	1.944893e+14	0.000000e+00	5.947712e-01	2.565741e+15	3.966705e+14	4.550626e+14	1.872278e+04	8.550511e+03	3.881908e+03	0	1.818681e-03
3.200000e+08	1.915283e+14	0.000000e+00	5.947712e-01	2.539854e+15	4.132387e+14	4.526937e+14	1.867167e+04	8.604692e+03	3.906506e+03	0	1.809404e-03
3.300000e+08	1.885749e+14	0.000000e+00	5.947712e-01	2.514056e+15	4.300257e+14	4.503421e+14	1.862107e+04	8.657942e+03	3.930682e+03	0	1.800055e-03
3.400000e+08	1.856305e+14	0.000000e+00	5.947712e-01	2.488356e+15	4.470141e+14	4.480076e+14	1.857099e+04	8.710259e+03	3.954433e+03	0	1.790637e-03
3.500000e+08	1.826963e+14	0.000000e+00	5.947712e-01	2.462765e+15	4.641863e+14	4.456900e+14	1.852141e+04	8.761642e+03	3.977761e+03	0	1.781153e-03
3.600000e+08	1.797737e+14	0.000000e+00	5.947712e-01	2.437292e+15	4.815241e+14	4.433892e+14	1.847234e+04	8.812088e+03	4.000664e+03	0	1.771604e-03
3.700000e+08	1.768639e+14	0.000000e+00	5.947712e-01	2.411946e+15	4.990093e+14	4.411050e+14	1.842378e+04	8.861599e+03	4.023141e+03	0	1.761993e-03
3.800000e+08	1.739680e+14	0.000000e+00	5.947712e-01	2.386738e+15	5.166233e+14	4.388374e+14	1.837572e+04	8.910173e+03	4.045194e+03	0	1.752324e-03
3.900000e+08	1.710873e+14	0.000000e+00	5.947712e-01	2.361676e+15	5.343475e+14	4.365862e+14	1.832816e+04	8.957812e+03	4.066822e+03	0	1.742598e-03
4.000000e+08	1.682229e+14	0.000000e+00	5.947712e-01	2.336768e+15	5.521632e+14	4.343512e+14	1.828110e+04	9.004517e+03	4.088026e+03	0	1.732818e-03
4.100000e+08	1.653757e+14	0.000000e+00	5.947712e-01	2.312022e+15	5.700518e+14	4.321324e+14	1.823454e+04	9.050290e+03	4.108806e+03	0	1.722986e-03
4.200000e+08	1.625470e+14	0.000000e+00	5.947712e-01	2.287447e+15	5.879947e+14	4.299295e+14	1.818846e+04	9.095133e+03	4.129165e+03	0	1.713106e-03
4.300000e+08	1.597375e+14	0.000000e+00	5.947712e-01	2.263049e+15	6.059731e+14	4.277425e+14	1.814288e+04	9.139049e+03	4.149103e+03	0	1.703179e-03
4.400000e+08	1.569484e+14	0.000000e+00	5.947712e-01	2.238837e+15	6.239686e+14	4.255713e+14	1.809777e+04	9.182041e+03	4.168621e+03	0	1.693207e-03
4.500000e+08	1.541804e+14	0.000000e+00	5.947712e-01	2.214816e+15	6.419633e+14	4.234156e+14	1.805315e+04	9.224114e+03	4.187722e+03	0	1.683194e-03
4.600000e+08	1.514344e+14	0.000000e+00	5.947712e-01	2.190992e+15	6.599390e+14	4.212755e+14	1.800901e+04	9.265272e+03	4.206408e+03	0	1.673142e-03
4.700000e+08	1.487112e+14	0.000000e+00	5.947712e-01	2.167373e+15	6.778782e+14	4.191506e+14	1.796534e+04	9.305520e+03	4.224680e+03	0	1.663052e-03
4.800000e+08	1.460117e+14	0.000000e+00	5.947712e-01	2.143963e+15	6.957635e+14	4.170411e+14	1.792214e+04	9.344864e+03	4.242542e+03	0	1.652927e-03
4.900000e+08	1.433363e+14	0.000000e+00	5.947712e-01	2.120769e+15	7.135778e+14	4.149466e+14	1.787940e+04	9.383309e+03	4.259996e+03	0	1.642770e-03
5.000000e+08	1.406860e+14	0.000000e+00	5.947712e-01	2.097794e+15	7.313050e+14	4.128670e+14	1.783713e+04	9.420862e+03	4.277045e+03	0	1.632581e-03
5.100000e+08	1.380612e+14	0.000000e+00	5.947712e-01	2.075043e+15	7.489287e+14	4.108024e+14	1.779531e+04	9.457529e+03	4.293692e+03	0	1.622364e-03
5.200000e+08	1.354625e+14	0.000000e+00	5.947712e-01	2.052520e+15	7.664335e+14	4.087524e+14	1.775394e+04	9.493319e+03	4.309940e+03	0	1.612121e-03
5.300000e+08	1.328904e+14	0.000000e+00	5.947712e-01	2.030231e+15	7.838042e+14	4.067171e+14	1.771302e+04	9.528238e+03	4.325794e+03	0	1.601852e-03
5.400000e+08	1.303456e+14	0.000000e+00	5.947712e-01	2.008177e+15	8.010263e+14	4.046963e+14	1.767255e+04	9.562295e+03	4.341255e+03	0	1.591561e-03
5.500000e+08	1.278283e+14	0.000000e+00	5.947712e-01	1.986362e+15	8.180858e+14	4.026899e+14	1.763251e+04	9.595498e+03	4.356329e+03	0	1.581249e-03
5.600000e+08	1.253390e+14	0.000000e+00	5.947712e-01	1.964789e+15	8.349695e+14	4.006977e+14	1.759290e+04	9.627855e+03	4.371020e+03	0	1.570917e-03
5.700000e+08	1.228780e+14	0.000000e+00	5.947712e-01	1.943460e+15	8.516644e+14	3.987197e+14	1.755373e+04	9.659377e+03	4.385330e+03	0	1.560568e-03
5.800000e+08	1.204458e+14	0.000000e+00	5.947712e-01	1.922378e+15	8.681581e+14	3.967557e+14	1.751498e+04	9.690072e+03	4.399266e+03	0	1.550202e-03
5.900000e+08	1.180424e+14	0.000000e+00	5.947712e-01	1.901545e+15	8.844397e+14	3.948057e+14	1.747665e+04	9.719950e+03	4.412830e+03	0	1.539822e-03
6.000000e+08	1.156683e+14	0.000000e+00	5.947712e-01	1.880961e+15	9.004974e+14	3.928694e+14	1.743873e+04	9.749020e+03	4.426028e+03	0	1.529429e-03
6.100000e+08	1.133235e+14	0.000000e+00	5.947712e-01	1.860629e+15	9.163215e+14	3.909468e+14	1.740122e+04	9.777294e+03	4.438864e+03	0	1.519024e-03
6.200000e+08	1.110083e+14	0.000000e+00	5.947712e-01	1.840550e+15	9.319021e+14	3.890378e+14	1.736411e+04	9.804782e+03	4.451344e+03	0	1.508608e-03
6.300000e+08	1.087228e+14	0.000000e+00	5.947712e-01	1.820724e+15	9.472301e+14	3.871423e+14	1.732741e+04	9.831494e+03	4.463471e+03	0	1.498183e-03
6.400000e+08	1.064671e+14	0.000000e+00	5.947712e-01	1.801151e+15	9.622973e+14	3.852602e+14	1.729110e+04	9.857441e+03	4.475251e+03	0	1.487749e-03
6.500000e+08	1.042412e+14	0.000000e+00	5.947712e-01	1.781832e+15	9.770957e+14	3.833913e+14	1.725518e+04	9.882634e+03	4.486688e+03	0	1.477308e-03
6.600000e+08	1.020453e+14	0.000000e+00	5.947712e-01	1.762768e+15	9.916182e+14	3.815356e+14	1.721964e+04	9.907084e+03	4.497789e+03	0	1.466861e-03
6.700000e+08	9.987921e+13	0.000000e+00	5.947712e-01	1.743956e+15	1.005858e+15	3.796929e+14	1.718448e+04	9.930803e+03	4.508557e+03	0	1.456408e-03
6.800000e+08	9.774303e+13	0.000000e+00	5.947712e-01	1.725399e+15	1.019810e+15	3.778632e+14	1.714969e+04	9.953802e+03	4.518998e+03	0	1.445950e-03
6.900000e+08	9.563669e+13	0.000000e+00	5.947712e-01	1.707094e+15	1.033468e+15	3.760463e+14	1.711528e+04	9.976093e+03	4.529118e+03	0	1.435487e-03
7.000000e+08	9.356010e+13	0.000000e+00	5.947712e-01	1.689040e+15	1.046827e+15	3.742421e+14	1.708123e+04	9.997686e+03	4.538922e+03	0	1.425022e-03
7.100000e+08	9.151318e+13	0.000000e+00	5.947712e-01	1.671237e+15	1.059884e+15	3.724506e+14	1.704754e+04	1.001860e+04	4.548414e+03	0	1.414553e-03
7.200000e+08	8.949580e+13	0.000000e+00	5.947712e-01	1.653684e+15	1.072634e+15	3.706716e+14	1.701420e+04	1.003883e+04	4.557601e+03	0	1.404081e-03
7.300000e+08	8.750782e+13	0.000000e+00	5.947712e-01	1.636379e+15	1.085075e+15	3.689050e+14	1.698121e+04	1.005840e+04	4.566488e+03	0	1.393607e-03
7.400000e+08	8.554907e+13	0.000000e+00	5.947712e-01	1.619321e+15	1.097205e+15	3.671508e+14	1.694856e+04	1.007733e+04	4.575079e+03	0	1.383130e-03
7.500000e+08	8.361938e+13	0.000000e+00	5.947712e-01	1.602507e+15	1.109020e+15	3.654087e+14	1.691626e+04	1.009562e+04	4.583381e+03	0	1.372651e-03
7.600000e+08	8.171854e+13	0.000000e+00	5.947712e-01	1.585936e+15	1.120519e+15	3.636789e+14	1.688429e+04	1.011328e+04	4.591399e+03	0	1.362170e-03
7.700000e+08	7.984633e+13	0.000000e+00	5.947712e-01	1.569607e+15	1.131702e+15	3.619610e+14	1.685265e+04	1.013032e+04	4.599138e+03	0	1.351687e-03
7.800000e+08	7.800253e+13	0.000000e+00	5.947712e-01	1.553516e+15	1.142568e+15	3.602551e+14	1.682133e+04	1.014677e+04	4.606604e+03	0	1.341202e-03
7.900000e+08	7.618688e+13	0.000000e+00	5.947712e-01	1.537662e+15	1.153116e+15	3.585611e+14	1.679033e+04	1.016262e+04	4.613801e+03	0	1.330714e-03
8.000000e+08	7.439912e+13	0.000000e+00	5.947712e-01	1.522043e+15	1.163346e+15	3.568788e+14	1.675965e+04	1.017790e+04	4.620736e+03	0	1.320223e-03
8.100000e+08	7.263899e+13	0.000000e+00	5.947712e-01	1.506656e+15	1.173260e+15	3.552081e+14	1.672928e+04	1.019260e+04	4.627413e+03	0	1.309728e-03
8.200000e+08	7.090619e+13	0.000000e+00	5.947712e-01	1.491498e+15	1.182858e+15	3.535490e+14	1.669922e+04	1.020676e+04	4.633838e+03	0	1.299230e-03
8.300000e+08	6.920043e+13	0.000000e+00	5.947712e-01	1.476568e+15	1.192142e+15	3.519014e+14	1.666946e+04	1.022036e+04	4.640017e+03	0	1.288727e-03
8.400000e+08	6.752140e+13	0.000000e+00	5.947712e-01	1.461862e+15	1.201112e+15	3.502652e+14	1.663999e+04	1.023344e+04	4.645953e+03	0	1.278218e-03
8.500000e+08	6.586880e+13	0.000000e+00	5.947712e-01	1.447378e+15	1.209772e+15	3.486402e+14	1.661082e+04	1.024599e+04	4.651653e+03	0	1.267704e-03
8.600000e+08	6.424230e+13	0.000000e+00	5.947712e-01	1.433112e+15	1.218123e+15	3.470265e+14	1.658194e+04	1.025804e+04	4.657121e+03	0	1.257182e-03
8.700000e+08	6.264158e+13	0.000000e+00	5.947712e-01	1.419064e+15	1.226168e+15	3.454238e+14	1.655334e+04	1.026958e+04	4.662363e+03	0	1.246653e-03
8.800000e+08	6.106630e+13	0.000000e+00	5.947712e-01	1.405228e+15	1.233910e+15	3.438322e+14	1.652502e+04	1.028064e+04	4.667383e+03	0	1.236114e-03
8.900000e+08	5.951612e+13	0.000000e+00	5.947712e-01	1.391603e+15	1.241352e+15	3.422516e+14	1.649697e+04	1.029122e+04	4.672187e+03	0	1.225564e-03
9.000000e+08	5.799070e+13	0.000000e+00	5.947712e-01	1.378186e+15	1.248496e+15	3.406817e+14	1.646920e+04	1.030134e+04	4.676779e+03	0	1.215003e-03
9.100000e+08	5.648970e+13	0.000000e+00	5.947712e-01	1.364974e+15	1.255347e+15	3.391227e+14	1.644169e+04	1.031100e+04	4.681164e+03	0	1.204428e-03
9.200000e+08	5.501276e+13	0.000000e+00	5.947712e-01	1.351963e+15	1.261909e+15	3.375743e+14	1.641445e+04	1.032021e+04	4.685348e+03	0	1.193839e-03
9.300000e+08	5.355954e+13	0.000000e+00	5.947712e-01	1.339152e+15	1.268184e+15	3.360365e+14	1.638746e+04	1.032899e+04	4.689334e+03	0	1.183233e-03
9.400000e+08	5.212968e+13	0.000000e+00	5.947712e-01	1.326536e+15	1.274178e+15	3.345092e+14	1.636073e+04	1.033735e+04	4.693127e+03	0	1.172608e-03
9.500000e+08	5.072283e+13	0.000000e+00	5.947712e-01	1.314113e+15	1.279893e+15	3.329923e+14	1.633426e+04	1.034529e+04	4.696733e+03	0	1.161963e-03
9.600000e+08	4.933862e+13	0.000000e+00	5.947712e-01	1.301880e+15	1.285334e+15	3.314858e+14	1.630802e+04	1.035283e+04	4.700155e+03	0	1.151296e-03
9.700000e+08	4.797671e+13	0.000000e+00	5.947712e-01	1.289834e+15	1.290507e+15	3.299895e+14	1.628204e+04	1.035997e+04	4.703397e+03	0	1.140604e-03
9.800000e+08	4.663674e+13	0.000000e+00	5.947712e-01	1.277972e+15	1.295415e+15	3.285035e+14	1.625629e+04	1.036673e+04	4.706465e+03	0	1.129884e-03
9.900000e+08	4.531835e+13	0.000000e+00	5.947712e-01	1.266291e+15	1.300063e+15	3.270275e+14	1.623078e+04	1.037311e+04	4.709363e+03	0	1.119135e-03
1.000000e+09	4.402119e+13	0.000000e+00	5.947712e-01	1.254788e+15	1.304455e+15	3.255615e+14	1.620550e+04	1.037913e+04	4.712094e+03	0	1.108354e-03
1.010000e+09	4.274491e+13	0.000000e+00	5.947712e-01	1.243460e+15	1.308597e+15	3.241055e+14	1.618045e+04	1.038478e+04	4.714663e+03	0	1.097537e-03
1.020000e+09	4.148915e+13	0.000000e+00	5.947712e-01	1.232304e+15	1.312492e+15	3.226594e+14	1.615562e+04	1.039009e+04	4.717074e+03	0	1.086683e-03
1.030000e+09	4.025358e+13	0.000000e+00	5.947712e-01	1.221318e+15	1.316147e+15	3.212230e+14	1.613102e+04	1.039507e+04	4.719331e+03	0	1.075786e-03
1.040000e+09	3.903784e+13	0.000000e+00	5.947712e-01	1.210498e+15	1.319565e+15	3.197963e+14	1.610664e+04	1.039971e+04	4.721438e+03	0	1.064845e-03
1.050000e+09	3.784158e+13	0.000000e+00	5.947712e-01	1.199841e+15	1.322752e+15	3.183793e+14	1.608247e+04	1.040403e+04	4.723399e+03	0	1.053855e-03
1.060000e+09	3.666448e+13	0.000000e+00	5.947712e-01	1.189346e+15	1.325712e+15	3.169718e+14	1.605852e+04	1.040803e+04	4.725217e+03	0	1.042813e-03
1.070000e+09	3.550619e+13	0.000000e+00	5.947712e-01	1.179008e+15	1.328451e+15	3.155738e+14	1.603477e+04	1.041173e+04	4.726897e+03	0	1.031714e-03
1.080000e+09	3.436637e+13	0.000000e+00	5.947712e-01	1.168826e+15	1.330973e+15	3.141853e+14	1.601123e+04	1.041513e+04	4.728441e+03	0	1.020554e-03
1.090000e+09	3.324471e+13	0.000000e+00	5.947712e-01	1.158796e+15	1.333283e+15	3.128060e+14	1.598789e+04	1.041824e+04	4.729854e+03	0	1.009327e-03
1.100000e+09	3.214086e+13	0.000000e+00	5.947712e-01	1.148915e+15	1.335387e+15	3.114360e+14	1.596475e+04	1.042107e+04	4.731139e+03	0	9.980303e-04
1.110000e+09	3.105452e+13	0.000000e+00	5.947712e-01	1.139182e+15	1.337289e+15	3.100752e+14	1.594181e+04	1.042363e+04	4.732299e+03	0	9.866569e-04
1.120000e+09	2.998535e+13	0.000000e+00	5.947712e-01	1.129593e+15	1.338993e+15	3.087236e+14	1.591906e+04	1.042592e+04	4.733338e+03	0	9.752013e-04
1.130000e+09	2.893305e+13	0.000000e+00	5.947712e-01	1.120146e+15	1.340505e+15	3.073809e+14	1.589651e+04	1.042795e+04	4.734259e+03	0	9.636574e-04
1.140000e+09	2.789731e+13	0.000000e+00	5.947712e-01	1.110838e+15	1.341830e+15	3.060473e+14	1.587414e+04	1.042972e+04	4.735065e+03	0	9.520184e-04
1.150000e+09	2.687781e+13	0.000000e+00	5.947712e-01	1.101667e+15	1.342972e+15	3.047225e+14	1.585196e+04	1.043125e+04	4.735760e+03	0	9.402771e-04
1.160000e+09	2.587427e+13	0.000000e+00	5.947712e-01	1.092630e+15	1.343936e+15	3.034066e+14	1.582996e+04	1.043254e+04	4.736346e+03	0	9.284259e-04
1.170000e+09	2.488637e+13	0.000000e+00	5.947712e-01	1.083725e+15	1.344726e+15	3.020995e+14	1.580814e+04	1.043360e+04	4.736826e+03	0	9.164563e-04
1.180000e+09	2.391384e+13	0.000000e+00	5.947712e-01	1.074949e+15	1.345348e+15	3.008010e+14	1.578649e+04	1.043443e+04	4.737203e+03	0	9.043593e-04
1.190000e+09	2.295638e+13	0.000000e+00	5.947712e-01	1.066300e+15	1.345806e+15	2.995112e+14	1.576503e+04	1.043504e+04	4.737481e+03	0	8.921250e-04
1.200000e+09	2.201370e+13	0.000000e+00	5.947712e-01	1.057776e+15	1.346104e+15	2.982299e+14	1.574373e+04	1.043544e+04	4.737662e+03	0	8.797426e-04
1.210000e+09	2.108554e+13	0.000000e+00	5.947712e-01	1.049374e+15	1.346246e+15	2.969572e+14	1.572260e+04	1.043563e+04	4.737748e+03	0	8.672004e-04
1.220000e+09	2.017162e+13	0.000000e+00	5.947712e-01	1.041092e+15	1.346238e+15	2.956928e+14	1.570165e+04	1.043562e+04	4.737743e+03	0	8.544857e-04
1.230000e+09	1.927166e+13	0.000000e+00	5.947712e-01	1.032928e+15	1.346083e+15	2.944369e+14	1.568085e+04	1.043541e+04	4.737649e+03	0	8.415842e-04
1.240000e+09	1.838540e+13	0.000000e+00	5.947712e-01	1.024880e+15	1.345785e+15	2.931892e+14	1.566022e+04	1.043502e+04	4.737468e+03	0	8.284805e-04
1.250000e+09	1.751259e+13	0.000000e+00	5.947712e-01	1.016945e+15	1.345350e+15	2.919498e+14	1.563975e+04	1.043443e+04	4.737204e+03	0	8.151572e-04
1.260000e+09	1.665297e+13	0.000000e+00	5.947712e-01	1.009122e+15	1.344780e+15	2.907185e+14	1.561944e+04	1.043367e+04	4.736858e+03	0	8.015952e-04
1.270000e+09	1.580629e+13	0.000000e+00	5.947712e-01	1.001407e+15	1.344079e+15	2.894954e+14	1.559928e+04	1.043273e+04	4.736433e+03	0	7.877732e-04
1.280000e+09	1.497229e+13	0.000000e+00	5.947712e-01	9.938005e+14	1.343253e+15	2.882803e+14	1.557928e+04	1.043163e+04	4.735931e+03	0	7.736669e-04
1.290000e+09	1.415075e+13	0.000000e+00	5.947712e-01	9.862989e+14	1.342305e+15	2.870732e+14	1.555943e+04	1.043036e+04	4.735354e+03	0	7.592494e-04
1.300000e+09	1.334143e+13	0.000000e+00	5.947712e-01	9.789006e+14	1.341238e+15	2.858740e+14	1.553973e+04	1.042893e+04	4.734705e+03	0	7.444897e-04
1.310000e+09	1.254409e+13	0.000000e+00	5.947712e-01	9.716038e+14	1.340056e+15	2.846826e+14	1.552017e+04	1.042734e+04	4.733985e+03	0	7.293527e-04
1.320000e+09	1.175850e+13	0.000000e+00	5.947712e-01	9.644064e+14	1.338763e+15	2.834991e+14	1.550077e+04	1.042561e+04	4.733198e+03	0	7.137978e-04
1.330000e+09	1.098445e+13	0.000000e+00	5.947712e-01	9.573068e+14	1.337362e+15	2.823233e+14	1.548150e+04	1.042373e+04	4.732344e+03	0	6.977780e-04
1.340000e+09	1.022170e+13	0.000000e+00	5.947712e-01	9.503030e+14	1.335858e+15	2.811552e+14	1.546238e+04	1.042171e+04	4.731426e+03	0	6.812382e-04
1.350000e+09	9.470060e+12	0.000000e+00	5.947712e-01	9.433933e+14	1.334253e+15	2.799947e+14	1.544339e+04	1.041955e+04	4.730446e+03	0	6.641133e-04
1.360000e+09	8.729305e+12	0.000000e+00	5.947712e-01	9.365760e+14	1.332550e+15	2.788418e+14	1.542455e+04	1.041726e+04	4.729406e+03	0	6.463253e-04
