#t		Qconv[W]	Ri[Rp]		R*[Rp]		Qc[W]		Qm[W]		Qr[W]		Tcmb[K]		Tl[K]		Tup[K]		RiFlag		Bs[T]
0.000000e+00	1.370666e+13	0.000000e+00	5.947713e-01	1.226657e+15	5.014655e+13	5.645559e+14	1.765388e+04	6.006181e+03	2.961488e+03	0	7.523786e-04
1.000000e+07	1.366372e+13	0.000000e+00	5.947713e-01	1.224881e+15	5.236016e+13	5.614278e+14	1.763109e+04	6.039401e+03	2.977868e+03	0	7.515921e-04
2.000000e+07	1.361226e+13	0.000000e+00	5.947713e-01	1.223042e+15	5.464047e+13	5.583232e+14	1.760834e+04	6.072484e+03	2.994181e+03	0	7.506473e-04
3.000000e+07	1.355234e+13	0.000000e+00	5.947713e-01	1.221141e+15	5.698822e+13	5.552417e+14	1.758562e+04	6.105429e+03	3.010425e+03	0	7.495442e-04
4.000000e+07	1.348403e+13	0.000000e+00	5.947713e-01	1.219179e+15	5.940408e+13	5.521832e+14	1.756293e+04	6.138234e+03	3.026600e+03	0	7.482828e-04
5.000000e+07	1.340740e+13	0.000000e+00	5.947713e-01	1.217155e+15	6.188869e+13	5.491476e+14	1.754028e+04	6.170896e+03	3.042705e+03	0	7.468626e-04
6.000000e+07	1.332253e+13	0.000000e+00	5.947713e-01	1.215071e+15	6.444266e+13	5.461346e+14	1.751767e+04	6.203414e+03	3.058739e+03	0	7.452833e-04
7.000000e+07	1.322948e+13	0.000000e+00	5.947713e-01	1.212927e+15	6.706655e+13	5.431440e+14	1.749509e+04	6.235785e+03	3.074700e+03	0	7.435442e-04
8.000000e+07	1.312833e+13	0.000000e+00	5.947713e-01	1.210724e+15	6.976086e+13	5.401757e+14	1.747256e+04	6.268007e+03	3.090588e+03	0	7.416443e-04
9.000000e+07	1.301916e+13	0.000000e+00	5.947713e-01	1.208462e+15	7.252607e+13	5.372294e+14	1.745006e+04	6.300078e+03	3.106401e+03	0	7.395828e-04
1.000000e+08	1.290204e+13	0.000000e+00	5.947713e-01	1.206142e+15	7.536261e+13	5.343050e+14	1.742761e+04	6.331996e+03	3.122139e+03	0	7.373585e-04
1.100000e+08	1.277706e+13	0.000000e+00	5.947713e-01	1.203766e+15	7.827083e+13	5.314023e+14	1.740520e+04	6.363760e+03	3.137801e+03	0	7.349698e-04
1.200000e+08	1.264429e+13	0.000000e+00	5.947713e-01	1.201332e+15	8.125107e+13	5.285212e+14	1.738284e+04	6.395367e+03	3.153386e+03	0	7.324153e-04
1.300000e+08	1.250383e+13	0.000000e+00	5.947713e-01	1.198843e+15	8.430359e+13	5.256613e+14	1.736052e+04	6.426814e+03	3.168892e+03	0	7.296930e-04
1.400000e+08	1.235574e+13	0.000000e+00	5.947713e-01	1.196299e+15	8.742862e+13	5.228227e+14	1.733825e+04	6.458101e+03	3.184318e+03	0	7.268009e-04
1.500000e+08	1.220013e+13	0.000000e+00	5.947713e-01	1.193701e+15	9.062634e+13	5.200050e+14	1.731602e+04	6.489225e+03	3.199664e+03	0	7.237368e-04
1.600000e+08	1.203707e+13	0.000000e+00	5.947713e-01	1.191048e+15	9.389684e+13	5.172081e+14	1.729384e+04	6.520183e+03	3.214929e+03	0	7.204981e-04
1.700000e+08	1.186666e+13	0.000000e+00	5.947713e-01	1.188343e+15	9.724021e+13	5.144319e+14	1.727171e+04	6.550974e+03	3.230112e+03	0	7.170818e-04
1.800000e+08	1.168899e+13	0.000000e+00	5.947713e-01	1.185586e+15	1.006564e+14	5.116761e+14	1.724964e+04	6.581597e+03	3.245211e+03	0	7.134850e-04
1.900000e+08	1.150415e+13	0.000000e+00	5.947713e-01	1.182777e+15	1.041455e+14	5.089406e+14	1.722761e+04	6.612048e+03	3.260225e+03	0	7.097042e-04
2.000000e+08	1.131223e+13	0.000000e+00	5.947713e-01	1.179918e+15	1.077072e+14	5.062253e+14	1.720563e+04	6.642326e+03	3.275155e+03	0	7.057354e-04
2.100000e+08	1.111333e+13	0.000000e+00	5.947713e-01	1.177009e+15	1.113416e+14	5.035299e+14	1.718371e+04	6.672428e+03	3.289997e+03	0	7.015747e-04
2.200000e+08	1.090754e+13	0.000000e+00	5.947713e-01	1.174051e+15	1.150482e+14	5.008543e+14	1.716184e+04	6.702354e+03	3.304753e+03	0	6.972174e-04
2.300000e+08	1.069497e+13	0.000000e+00	5.947713e-01	1.171045e+15	1.188269e+14	4.981984e+14	1.714003e+04	6.732101e+03	3.319420e+03	0	6.926584e-04
2.400000e+08	1.047572e+13	0.000000e+00	5.947713e-01	1.167991e+15	1.226773e+14	4.955619e+14	1.711827e+04	6.761667e+03	3.333999e+03	0	6.878923e-04
2.500000e+08	1.024987e+13	0.000000e+00	5.947713e-01	1.164890e+15	1.265991e+14	4.929447e+14	1.709657e+04	6.791050e+03	3.348487e+03	0	6.829130e-04
2.600000e+08	1.001755e+13	0.000000e+00	5.947713e-01	1.161744e+15	1.305917e+14	4.903467e+14	1.707493e+04	6.820248e+03	3.362883e+03	0	6.777138e-04
2.700000e+08	9.778841e+12	0.000000e+00	5.947713e-01	1.158553e+15	1.346547e+14	4.877677e+14	1.705334e+04	6.849260e+03	3.377188e+03	0	6.722875e-04
2.800000e+08	9.533859e+12	0.000000e+00	5.947713e-01	1.155318e+15	1.387875e+14	4.852075e+14	1.703181e+04	6.878084e+03	3.391401e+03	0	6.666258e-04
2.900000e+08	9.282706e+12	0.000000e+00	5.947713e-01	1.152040e+15	1.429895e+14	4.826661e+14	1.701035e+04	6.906717e+03	3.405519e+03	0	6.607199e-04
3.000000e+08	9.025491e+12	0.000000e+00	5.947713e-01	1.148720e+15	1.472601e+14	4.801431e+14	1.698894e+04	6.935158e+03	3.419542e+03	0	6.545600e-04
3.100000e+08	8.762320e+12	0.000000e+00	5.947713e-01	1.145358e+15	1.515984e+14	4.776385e+14	1.696760e+04	6.963405e+03	3.433471e+03	0	6.481352e-04
3.200000e+08	8.493304e+12	0.000000e+00	5.947713e-01	1.141955e+15	1.560036e+14	4.751521e+14	1.694632e+04	6.991457e+03	3.447302e+03	0	6.414332e-04
3.300000e+08	8.218552e+12	0.000000e+00	5.947713e-01	1.138513e+15	1.604750e+14	4.726839e+14	1.692510e+04	7.019312e+03	3.461037e+03	0	6.344406e-04
3.400000e+08	7.938175e+12	0.000000e+00	5.947713e-01	1.135032e+15	1.650116e+14	4.702335e+14	1.690394e+04	7.046968e+03	3.474673e+03	0	6.271423e-04
3.500000e+08	7.652285e+12	0.000000e+00	5.947713e-01	1.131513e+15	1.696125e+14	4.678009e+14	1.688285e+04	7.074424e+03	3.488211e+03	0	6.195213e-04
3.600000e+08	7.360995e+12	0.000000e+00	5.947713e-01	1.127957e+15	1.742766e+14	4.653860e+14	1.686183e+04	7.101677e+03	3.501649e+03	0	6.115586e-04
3.700000e+08	7.064418e+12	0.000000e+00	5.947713e-01	1.124365e+15	1.790029e+14	4.629885e+14	1.684087e+04	7.128727e+03	3.514986e+03	0	6.032324e-04
3.800000e+08	6.762669e+12	0.000000e+00	5.947713e-01	1.120737e+15	1.837902e+14	4.606084e+14	1.681998e+04	7.155572e+03	3.528222e+03	0	5.945183e-04
3.900000e+08	6.455863e+12	0.000000e+00	5.947713e-01	1.117076e+15	1.886374e+14	4.582455e+14	1.679915e+04	7.182209e+03	3.541357e+03	0	5.853882e-04
4.000000e+08	6.144114e+12	0.000000e+00	5.947713e-01	1.113381e+15	1.935432e+14	4.558997e+14	1.677840e+04	7.208639e+03	3.554389e+03	0	5.758097e-04
4.100000e+08	5.827541e+12	0.000000e+00	5.947713e-01	1.109654e+15	1.985064e+14	4.535707e+14	1.675771e+04	7.234859e+03	3.567317e+03	0	5.657453e-04
4.200000e+08	5.506258e+12	0.000000e+00	5.947713e-01	1.105895e+15	2.035257e+14	4.512586e+14	1.673709e+04	7.260868e+03	3.580142e+03	0	5.551513e-04
4.300000e+08	5.180384e+12	0.000000e+00	5.947713e-01	1.102106e+15	2.085996e+14	4.489631e+14	1.671654e+04	7.286665e+03	3.592861e+03	0	5.439761e-04
4.400000e+08	4.850035e+12	0.000000e+00	5.947713e-01	1.098287e+15	2.137268e+14	4.466842e+14	1.669606e+04	7.312249e+03	3.605476e+03	0	5.321583e-04
4.500000e+08	4.515330e+12	0.000000e+00	5.947713e-01	1.094439e+15	2.189058e+14	4.444216e+14	1.667565e+04	7.337617e+03	3.617984e+03	0	5.196238e-04
4.600000e+08	4.176387e+12	0.000000e+00	5.947713e-01	1.090564e+15	2.241351e+14	4.421752e+14	1.665532e+04	7.362770e+03	3.630386e+03	0	5.062823e-04
4.700000e+08	3.833323e+12	0.000000e+00	5.947713e-01	1.086662e+15	2.294132e+14	4.399450e+14	1.663505e+04	7.387705e+03	3.642681e+03	0	4.920218e-04
4.800000e+08	3.486258e+12	0.000000e+00	5.947713e-01	1.082733e+15	2.347384e+14	4.377307e+14	1.661486e+04	7.412422e+03	3.654868e+03	0	4.767006e-04
4.900000e+08	3.135310e+12	0.000000e+00	5.947713e-01	1.078780e+15	2.401092e+14	4.355323e+14	1.659474e+04	7.436919e+03	3.666947e+03	0	4.601358e-04
5.000000e+08	2.780597e+12	0.000000e+00	5.947713e-01	1.074803e+15	2.455239e+14	4.333496e+14	1.657469e+04	7.461196e+03	3.678918e+03	0	4.420844e-04
5.100000e+08	2.422238e+12	0.000000e+00	5.947713e-01	1.070803e+15	2.509807e+14	4.311825e+14	1.655472e+04	7.485251e+03	3.690779e+03	0	4.222129e-04
5.200000e+08	2.060352e+12	0.000000e+00	5.947713e-01	1.066781e+15	2.564781e+14	4.290309e+14	1.653482e+04	7.509085e+03	3.702530e+03	0	4.000427e-04
5.300000e+08	1.695056e+12	0.000000e+00	5.947713e-01	1.062737e+15	2.620141e+14	4.268946e+14	1.651500e+04	7.532694e+03	3.714172e+03	0	3.748469e-04
5.400000e+08	1.326469e+12	0.000000e+00	5.947713e-01	1.058673e+15	2.675871e+14	4.247736e+14	1.649525e+04	7.556080e+03	3.725703e+03	0	3.454286e-04
5.500000e+08	9.547078e+11	0.000000e+00	5.947713e-01	1.054590e+15	2.731952e+14	4.226676e+14	1.647557e+04	7.579241e+03	3.737123e+03	0	3.095632e-04
5.600000e+08	5.798901e+11	0.000000e+00	5.947713e-01	1.050489e+15	2.788365e+14	4.205766e+14	1.645598e+04	7.602176e+03	3.748432e+03	0	2.621648e-04
5.700000e+08	2.021329e+11	0.000000e+00	5.947713e-01	1.046369e+15	2.845093e+14	4.185004e+14	1.643645e+04	7.624885e+03	3.759629e+03	0	1.845036e-04
5.800000e+08	-1.784476e+11	0.000000e+00	5.947713e-01	1.042233e+15	2.902117e+14	4.164390e+14	1.641701e+04	7.647367e+03	3.770714e+03	0	nan
