#t		Qconv[W]	Ri[Rp]		R*[Rp]		Qc[W]		Qm[W]		Qr[W]		Tcmb[K]		Tl[K]		Tup[K]		RiFlag		Bs[T]
0.000000e+00	2.871466e+14	0.000000e+00	5.947710e-01	3.955720e+15	4.402164e+13	6.261757e+14	2.289085e+04	6.908304e+03	3.014712e+03	0	2.065357e-03
1.000000e+07	2.854050e+14	0.000000e+00	5.947710e-01	3.937989e+15	4.836818e+13	6.227062e+14	2.282864e+04	6.990275e+03	3.050483e+03	0	2.061173e-03
2.000000e+07	2.836021e+14	0.000000e+00	5.947710e-01	3.919834e+15	5.301976e+13	6.192627e+14	2.276671e+04	7.071781e+03	3.086051e+03	0	2.056823e-03
3.000000e+07	2.817388e+14	0.000000e+00	5.947710e-01	3.901265e+15	5.798721e+13	6.158449e+14	2.270506e+04	7.152810e+03	3.121412e+03	0	2.052309e-03
4.000000e+07	2.798165e+14	0.000000e+00	5.947710e-01	3.882291e+15	6.328104e+13	6.124526e+14	2.264371e+04	7.233349e+03	3.156558e+03	0	2.047631e-03
5.000000e+07	2.778363e+14	0.000000e+00	5.947710e-01	3.862920e+15	6.891137e+13	6.090856e+14	2.258265e+04	7.313385e+03	3.191485e+03	0	2.042789e-03
6.000000e+07	2.757994e+14	0.000000e+00	5.947710e-01	3.843163e+15	7.488792e+13	6.057437e+14	2.252189e+04	7.392905e+03	3.226187e+03	0	2.037785e-03
7.000000e+07	2.737072e+14	0.000000e+00	5.947710e-01	3.823029e+15	8.121994e+13	6.024268e+14	2.246144e+04	7.471897e+03	3.260658e+03	0	2.032619e-03
8.000000e+07	2.715608e+14	0.000000e+00	5.947710e-01	3.802528e+15	8.791613e+13	5.991344e+14	2.240131e+04	7.550347e+03	3.294893e+03	0	2.027292e-03
9.000000e+07	2.693618e+14	0.000000e+00	5.947710e-01	3.781670e+15	9.498469e+13	5.958666e+14	2.234150e+04	7.628243e+03	3.328886e+03	0	2.021805e-03
1.000000e+08	2.671113e+14	0.000000e+00	5.947710e-01	3.760465e+15	1.024332e+14	5.926230e+14	2.228202e+04	7.705572e+03	3.362631e+03	0	2.016158e-03
1.100000e+08	2.648108e+14	0.000000e+00	5.947710e-01	3.738925e+15	1.102686e+14	5.894035e+14	2.222287e+04	7.782320e+03	3.396123e+03	0	2.010354e-03
1.200000e+08	2.624618e+14	0.000000e+00	5.947710e-01	3.717059e+15	1.184972e+14	5.862079e+14	2.216406e+04	7.858476e+03	3.429357e+03	0	2.004392e-03
1.300000e+08	2.600657e+14	0.000000e+00	5.947710e-01	3.694879e+15	1.271246e+14	5.830359e+14	2.210558e+04	7.934027e+03	3.462327e+03	0	1.998273e-03
1.400000e+08	2.576239e+14	0.000000e+00	5.947710e-01	3.672396e+15	1.361556e+14	5.798874e+14	2.204746e+04	8.008960e+03	3.495027e+03	0	1.992000e-03
1.500000e+08	2.551380e+14	0.000000e+00	5.947710e-01	3.649622e+15	1.455942e+14	5.767622e+14	2.198969e+04	8.083263e+03	3.527452e+03	0	1.985572e-03
1.600000e+08	2.526096e+14	0.000000e+00	5.947710e-01	3.626567e+15	1.554438e+14	5.736600e+14	2.193228e+04	8.156924e+03	3.559597e+03	0	1.978991e-03
1.700000e+08	2.500400e+14	0.000000e+00	5.947710e-01	3.603244e+15	1.657068e+14	5.705808e+14	2.187522e+04	8.229930e+03	3.591456e+03	0	1.972258e-03
1.800000e+08	2.474310e+14	0.000000e+00	5.947710e-01	3.579664e+15	1.763849e+14	5.675242e+14	2.181853e+04	8.302270e+03	3.623024e+03	0	1.965374e-03
1.900000e+08	2.447842e+14	0.000000e+00	5.947710e-01	3.555839e+15	1.874787e+14	5.644902e+14	2.176222e+04	8.373932e+03	3.654296e+03	0	1.958341e-03
2.000000e+08	2.421011e+14	0.000000e+00	5.947710e-01	3.531782e+15	1.989882e+14	5.614784e+14	2.170627e+04	8.444903e+03	3.685268e+03	0	1.951159e-03
2.100000e+08	2.393833e+14	0.000000e+00	5.947710e-01	3.507504e+15	2.109124e+14	5.584889e+14	2.165071e+04	8.515174e+03	3.715933e+03	0	1.943831e-03
2.200000e+08	2.366326e+14	0.000000e+00	5.947710e-01	3.483017e+15	2.232494e+14	5.555213e+14	2.159552e+04	8.584733e+03	3.746288e+03	0	1.936357e-03
2.300000e+08	2.338506e+14	0.000000e+00	5.947710e-01	3.458334e+15	2.359965e+14	5.525754e+14	2.154072e+04	8.653569e+03	3.776327e+03	0	1.928738e-03
2.400000e+08	2.310389e+14	0.000000e+00	5.947710e-01	3.433468e+15	2.491499e+14	5.496512e+14	2.148630e+04	8.721671e+03	3.806046e+03	0	1.920977e-03
2.500000e+08	2.281993e+14	0.000000e+00	5.947710e-01	3.408430e+15	2.627051e+14	5.467484e+14	2.143228e+04	8.789030e+03	3.835441e+03	0	1.913075e-03
2.600000e+08	2.253333e+14	0.000000e+00	5.947710e-01	3.383234e+15	2.766567e+14	5.438668e+14	2.137864e+04	8.855635e+03	3.864507e+03	0	1.905032e-03
2.700000e+08	2.224428e+14	0.000000e+00	5.947710e-01	3.357891e+15	2.909983e+14	5.410063e+14	2.132540e+04	8.921477e+03	3.893240e+03	0	1.896851e-03
2.800000e+08	2.195294e+14	0.000000e+00	5.947710e-01	3.332414e+15	3.057228e+14	5.381667e+14	2.127256e+04	8.986547e+03	3.921635e+03	0	1.888534e-03
2.900000e+08	2.165948e+14	0.000000e+00	5.947710e-01	3.306816e+15	3.208220e+14	5.353478e+14	2.122012e+04	9.050835e+03	3.949690e+03	0	1.880081e-03
3.000000e+08	2.136407e+14	0.000000e+00	5.947710e-01	3.281110e+15	3.362871e+14	5.325494e+14	2.116808e+04	9.114333e+03	3.977400e+03	0	1.871494e-03
3.100000e+08	2.106688e+14	0.000000e+00	5.947710e-01	3.255307e+15	3.521086e+14	5.297715e+14	2.111645e+04	9.177034e+03	4.004762e+03	0	1.862776e-03
3.200000e+08	2.076808e+14	0.000000e+00	5.947710e-01	3.229420e+15	3.682758e+14	5.270137e+14	2.106522e+04	9.238928e+03	4.031772e+03	0	1.853927e-03
3.300000e+08	2.046783e+14	0.000000e+00	5.947710e-01	3.203461e+15	3.847779e+14	5.242761e+14	2.101439e+04	9.300010e+03	4.058427e+03	0	1.844950e-03
3.400000e+08	2.016631e+14	0.000000e+00	5.947710e-01	3.177443e+15	4.016026e+14	5.215582e+14	2.096397e+04	9.360271e+03	4.084725e+03	0	1.835845e-03
3.500000e+08	1.986367e+14	0.000000e+00	5.947710e-01	3.151377e+15	4.187375e+14	5.188602e+14	2.091396e+04	9.419707e+03	4.110662e+03	0	1.826615e-03
3.600000e+08	1.956009e+14	0.000000e+00	5.947710e-01	3.125276e+15	4.361694e+14	5.161816e+14	2.086436e+04	9.478310e+03	4.136236e+03	0	1.817262e-03
3.700000e+08	1.925572e+14	0.000000e+00	5.947710e-01	3.099151e+15	4.538843e+14	5.135225e+14	2.081517e+04	9.536075e+03	4.161444e+03	0	1.807786e-03
3.800000e+08	1.895072e+14	0.000000e+00	5.947710e-01	3.073014e+15	4.718680e+14	5.108826e+14	2.076639e+04	9.592997e+03	4.186284e+03	0	1.798191e-03
3.900000e+08	1.864525e+14	0.000000e+00	5.947710e-01	3.046877e+15	4.901055e+14	5.082618e+14	2.071802e+04	9.649072e+03	4.210754e+03	0	1.788477e-03
4.000000e+08	1.833948e+14	0.000000e+00	5.947710e-01	3.020751e+15	5.085815e+14	5.056599e+14	2.067006e+04	9.704295e+03	4.234853e+03	0	1.778646e-03
4.100000e+08	1.803354e+14	0.000000e+00	5.947710e-01	2.994646e+15	5.272799e+14	5.030768e+14	2.062251e+04	9.758663e+03	4.258579e+03	0	1.768700e-03
4.200000e+08	1.772760e+14	0.000000e+00	5.947710e-01	2.968575e+15	5.461850e+14	5.005123e+14	2.057536e+04	9.812172e+03	4.281930e+03	0	1.758641e-03
4.300000e+08	1.742179e+14	0.000000e+00	5.947710e-01	2.942547e+15	5.652798e+14	4.979663e+14	2.052863e+04	9.864821e+03	4.304905e+03	0	1.748470e-03
4.400000e+08	1.711627e+14	0.000000e+00	5.947710e-01	2.916573e+15	5.845476e+14	4.954386e+14	2.048231e+04	9.916606e+03	4.327503e+03	0	1.738189e-03
4.500000e+08	1.681118e+14	0.000000e+00	5.947710e-01	2.890663e+15	6.039714e+14	4.929290e+14	2.043639e+04	9.967526e+03	4.349724e+03	0	1.727799e-03
4.600000e+08	1.650665e+14	0.000000e+00	5.947710e-01	2.864827e+15	6.235338e+14	4.904375e+14	2.039088e+04	1.001758e+04	4.371567e+03	0	1.717303e-03
4.700000e+08	1.620282e+14	0.000000e+00	5.947710e-01	2.839076e+15	6.432176e+14	4.879638e+14	2.034578e+04	1.006677e+04	4.393032e+03	0	1.706701e-03
4.800000e+08	1.589981e+14	0.000000e+00	5.947710e-01	2.813417e+15	6.630051e+14	4.855079e+14	2.030108e+04	1.011509e+04	4.414119e+03	0	1.695995e-03
4.900000e+08	1.559776e+14	0.000000e+00	5.947710e-01	2.787861e+15	6.828786e+14	4.830695e+14	2.025678e+04	1.016254e+04	4.434827e+03	0	1.685186e-03
5.000000e+08	1.529679e+14	0.000000e+00	5.947710e-01	2.762416e+15	7.028209e+14	4.806486e+14	2.021289e+04	1.020913e+04	4.455158e+03	0	1.674277e-03
5.100000e+08	1.499702e+14	0.000000e+00	5.947710e-01	2.737090e+15	7.228142e+14	4.782450e+14	2.016939e+04	1.025485e+04	4.475111e+03	0	1.663268e-03
5.200000e+08	1.469856e+14	0.000000e+00	5.947710e-01	2.711893e+15	7.428411e+14	4.758585e+14	2.012629e+04	1.029971e+04	4.494687e+03	0	1.652160e-03
5.300000e+08	1.440153e+14	0.000000e+00	5.947710e-01	2.686831e+15	7.628845e+14	4.734891e+14	2.008359e+04	1.034371e+04	4.513888e+03	0	1.640955e-03
5.400000e+08	1.410602e+14	0.000000e+00	5.947710e-01	2.661912e+15	7.829268e+14	4.711365e+14	2.004128e+04	1.038685e+04	4.532715e+03	0	1.629654e-03
5.500000e+08	1.381215e+14	0.000000e+00	5.947710e-01	2.637144e+15	8.029513e+14	4.688007e+14	1.999936e+04	1.042914e+04	4.551168e+03	0	1.618257e-03
5.600000e+08	1.352001e+14	0.000000e+00	5.947710e-01	2.612534e+15	8.229412e+14	4.664814e+14	1.995783e+04	1.047057e+04	4.569250e+03	0	1.606767e-03
5.700000e+08	1.322969e+14	0.000000e+00	5.947710e-01	2.588087e+15	8.428802e+14	4.641787e+14	1.991669e+04	1.051116e+04	4.586961e+03	0	1.595183e-03
5.800000e+08	1.294129e+14	0.000000e+00	5.947710e-01	2.563811e+15	8.627519e+14	4.618922e+14	1.987593e+04	1.055091e+04	4.604305e+03	0	1.583506e-03
5.900000e+08	1.265489e+14	0.000000e+00	5.947710e-01	2.539712e+15	8.825409e+14	4.596220e+14	1.983556e+04	1.058981e+04	4.621283e+03	0	1.571737e-03
6.000000e+08	1.237056e+14	0.000000e+00	5.947710e-01	2.515794e+15	9.022316e+14	4.573679e+14	1.979556e+04	1.062788e+04	4.637897e+03	0	1.559877e-03
6.100000e+08	1.208840e+14	0.000000e+00	5.947710e-01	2.492063e+15	9.218089e+14	4.551297e+14	1.975594e+04	1.066513e+04	4.654149e+03	0	1.547926e-03
6.200000e+08	1.180846e+14	0.000000e+00	5.947710e-01	2.468525e+15	9.412583e+14	4.529073e+14	1.971669e+04	1.070155e+04	4.670043e+03	0	1.535883e-03
6.300000e+08	1.153081e+14	0.000000e+00	5.947710e-01	2.445184e+15	9.605656e+14	4.507006e+14	1.967781e+04	1.073715e+04	4.685581e+03	0	1.523750e-03
6.400000e+08	1.125553e+14	0.000000e+00	5.947710e-01	2.422044e+15	9.797173e+14	4.485095e+14	1.963929e+04	1.077195e+04	4.700766e+03	0	1.511527e-03
6.500000e+08	1.098267e+14	0.000000e+00	5.947710e-01	2.399110e+15	9.987000e+14	4.463338e+14	1.960114e+04	1.080594e+04	4.715600e+03	0	1.499212e-03
6.600000e+08	1.071228e+14	0.000000e+00	5.947710e-01	2.376385e+15	1.017501e+15	4.441734e+14	1.956335e+04	1.083914e+04	4.730087e+03	0	1.486806e-03
6.700000e+08	1.044441e+14	0.000000e+00	5.947710e-01	2.353872e+15	1.036108e+15	4.420282e+14	1.952592e+04	1.087155e+04	4.744231e+03	0	1.474309e-03
6.800000e+08	1.017912e+14	0.000000e+00	5.947710e-01	2.331575e+15	1.054510e+15	4.398981e+14	1.948884e+04	1.090318e+04	4.758034e+03	0	1.461719e-03
6.900000e+08	9.916441e+13	0.000000e+00	5.947710e-01	2.309496e+15	1.072696e+15	4.377829e+14	1.945211e+04	1.093404e+04	4.771500e+03	0	1.449036e-03
7.000000e+08	9.656419e+13	0.000000e+00	5.947710e-01	2.287639e+15	1.090654e+15	4.356825e+14	1.941573e+04	1.096413e+04	4.784632e+03	0	1.436258e-03
7.100000e+08	9.399087e+13	0.000000e+00	5.947710e-01	2.266005e+15	1.108375e+15	4.335969e+14	1.937969e+04	1.099347e+04	4.797435e+03	0	1.423385e-03
7.200000e+08	9.144479e+13	0.000000e+00	5.947710e-01	2.244597e+15	1.125850e+15	4.315258e+14	1.934399e+04	1.102206e+04	4.809912e+03	0	1.410415e-03
7.300000e+08	8.892621e+13	0.000000e+00	5.947710e-01	2.223416e+15	1.143069e+15	4.294692e+14	1.930863e+04	1.104991e+04	4.822067e+03	0	1.397345e-03
7.400000e+08	8.643539e+13	0.000000e+00	5.947710e-01	2.202464e+15	1.160025e+15	4.274270e+14	1.927360e+04	1.107704e+04	4.833904e+03	0	1.384175e-03
7.500000e+08	8.397255e+13	0.000000e+00	5.947710e-01	2.181742e+15	1.176708e+15	4.253990e+14	1.923890e+04	1.110344e+04	4.845426e+03	0	1.370902e-03
7.600000e+08	8.153787e+13	0.000000e+00	5.947710e-01	2.161251e+15	1.193113e+15	4.233851e+14	1.920453e+04	1.112914e+04	4.856639e+03	0	1.357522e-03
7.700000e+08	7.913150e+13	0.000000e+00	5.947710e-01	2.140992e+15	1.209232e+15	4.213852e+14	1.917048e+04	1.115413e+04	4.867546e+03	0	1.344034e-03
7.800000e+08	7.675357e+13	0.000000e+00	5.947710e-01	2.120965e+15	1.225060e+15	4.193992e+14	1.913674e+04	1.117843e+04	4.878152e+03	0	1.330434e-03
7.900000e+08	7.440417e+13	0.000000e+00	5.947710e-01	2.101172e+15	1.240590e+15	4.174271e+14	1.910332e+04	1.120205e+04	4.888460e+03	0	1.316719e-03
8.000000e+08	7.208336e+13	0.000000e+00	5.947710e-01	2.081611e+15	1.255818e+15	4.154686e+14	1.907021e+04	1.122500e+04	4.898475e+03	0	1.302883e-03
8.100000e+08	6.979118e+13	0.000000e+00	5.947710e-01	2.062284e+15	1.270739e+15	4.135236e+14	1.903741e+04	1.124729e+04	4.908201e+03	0	1.288924e-03
8.200000e+08	6.752765e+13	0.000000e+00	5.947710e-01	2.043189e+15	1.285349e+15	4.115922e+14	1.900492e+04	1.126893e+04	4.917643e+03	0	1.274836e-03
8.300000e+08	6.529275e+13	0.000000e+00	5.947710e-01	2.024327e+15	1.299644e+15	4.096741e+14	1.897272e+04	1.128992e+04	4.926805e+03	0	1.260614e-03
8.400000e+08	6.308646e+13	0.000000e+00	5.947710e-01	2.005697e+15	1.313621e+15	4.077692e+14	1.894082e+04	1.131029e+04	4.935692e+03	0	1.246252e-03
8.500000e+08	6.090870e+13	0.000000e+00	5.947710e-01	1.987298e+15	1.327277e+15	4.058775e+14	1.890921e+04	1.133003e+04	4.944308e+03	0	1.231744e-03
8.600000e+08	5.875941e+13	0.000000e+00	5.947710e-01	1.969130e+15	1.340612e+15	4.039988e+14	1.887790e+04	1.134917e+04	4.952657e+03	0	1.217082e-03
8.700000e+08	5.663848e+13	0.000000e+00	5.947710e-01	1.951191e+15	1.353621e+15	4.021331e+14	1.884686e+04	1.136770e+04	4.960745e+03	0	1.202258e-03
8.800000e+08	5.454581e+13	0.000000e+00	5.947710e-01	1.933480e+15	1.366305e+15	4.002802e+14	1.881611e+04	1.138564e+04	4.968575e+03	0	1.187265e-03
8.900000e+08	5.248124e+13	0.000000e+00	5.947710e-01	1.915996e+15	1.378663e+15	3.984400e+14	1.878564e+04	1.140300e+04	4.976151e+03	0	1.172093e-03
9.000000e+08	5.044464e+13	0.000000e+00	5.947710e-01	1.898737e+15	1.390692e+15	3.966124e+14	1.875545e+04	1.141979e+04	4.983479e+03	0	1.156731e-03
9.100000e+08	4.843583e+13	0.000000e+00	5.947710e-01	1.881703e+15	1.402395e+15	3.947974e+14	1.872552e+04	1.143603e+04	4.990563e+03	0	1.141168e-03
9.200000e+08	4.645463e+13	0.000000e+00	5.947710e-01	1.864891e+15	1.413770e+15	3.929948e+14	1.869586e+04	1.145171e+04	4.997407e+03	0	1.125391e-03
9.300000e+08	4.450084e+13	0.000000e+00	5.947710e-01	1.848299e+15	1.424819e+15	3.912045e+14	1.866647e+04	1.146686e+04	5.004016e+03	0	1.109387e-03
9.400000e+08	4.257426e+13	0.000000e+00	5.947710e-01	1.831927e+15	1.435542e+15	3.894265e+14	1.863734e+04	1.148147e+04	5.010395e+03	0	1.093141e-03
9.500000e+08	4.067466e+13	0.000000e+00	5.947710e-01	1.815771e+15	1.445941e+15	3.876606e+14	1.860846e+04	1.149557e+04	5.016546e+03	0	1.076635e-03
9.600000e+08	3.880180e+13	0.000000e+00	5.947710e-01	1.799831e+15	1.456016e+15	3.859068e+14	1.857984e+04	1.150916e+04	5.022476e+03	0	1.059850e-03
9.700000e+08	3.695546e+13	0.000000e+00	5.947710e-01	1.784103e+15	1.465771e+15	3.841649e+14	1.855147e+04	1.152224e+04	5.028187e+03	0	1.042766e-03
9.800000e+08	3.513536e+13	0.000000e+00	5.947710e-01	1.768587e+15	1.475206e+15	3.824348e+14	1.852335e+04	1.153484e+04	5.033686e+03	0	1.025358e-03
9.900000e+08	3.334126e+13	0.000000e+00	5.947710e-01	1.753279e+15	1.484324e+15	3.807165e+14	1.849547e+04	1.154696e+04	5.038975e+03	0	1.007599e-03
1.000000e+09	3.157288e+13	0.000000e+00	5.947710e-01	1.738177e+15	1.493128e+15	3.790099e+14	1.846783e+04	1.155861e+04	5.044059e+03	0	9.894608e-04
1.010000e+09	2.982995e+13	0.000000e+00	5.947710e-01	1.723280e+15	1.501621e+15	3.773148e+14	1.844043e+04	1.156980e+04	5.048942e+03	0	9.709079e-04
1.020000e+09	2.811218e+13	0.000000e+00	5.947710e-01	1.708585e+15	1.509804e+15	3.756313e+14	1.841327e+04	1.158054e+04	5.053629e+03	0	9.519016e-04
1.030000e+09	2.641929e+13	0.000000e+00	5.947710e-01	1.694089e+15	1.517683e+15	3.739591e+14	1.838633e+04	1.159084e+04	5.058123e+03	0	9.323971e-04
1.040000e+09	2.475098e+13	0.000000e+00	5.947710e-01	1.679791e+15	1.525259e+15	3.722982e+14	1.835962e+04	1.160071e+04	5.062428e+03	0	9.123426e-04
1.050000e+09	2.310695e+13	0.000000e+00	5.947710e-01	1.665687e+15	1.532537e+15	3.706485e+14	1.833314e+04	1.161015e+04	5.066550e+03	0	8.916780e-04
1.060000e+09	2.148690e+13	0.000000e+00	5.947710e-01	1.651775e+15	1.539520e+15	3.690100e+14	1.830688e+04	1.161918e+04	5.070490e+03	0	8.703323e-04
1.070000e+09	1.989053e+13	0.000000e+00	5.947710e-01	1.638054e+15	1.546212e+15	3.673825e+14	1.828084e+04	1.162781e+04	5.074254e+03	0	8.482215e-04
1.080000e+09	1.831752e+13	0.000000e+00	5.947710e-01	1.624519e+15	1.552617e+15	3.657660e+14	1.825502e+04	1.163604e+04	5.077846e+03	0	8.252447e-04
1.090000e+09	1.676757e+13	0.000000e+00	5.947710e-01	1.611170e+15	1.558738e+15	3.641603e+14	1.822940e+04	1.164388e+04	5.081268e+03	0	8.012793e-04
1.100000e+09	1.524037e+13	0.000000e+00	5.947710e-01	1.598002e+15	1.564581e+15	3.625654e+14	1.820400e+04	1.165134e+04	5.084525e+03	0	7.761739e-04
1.110000e+09	1.373559e+13	0.000000e+00	5.947710e-01	1.585015e+15	1.570149e+15	3.609812e+14	1.817880e+04	1.165844e+04	5.087621e+03	0	7.497383e-04
1.120000e+09	1.225294e+13	0.000000e+00	5.947710e-01	1.572205e+15	1.575447e+15	3.594076e+14	1.815381e+04	1.166517e+04	5.090559e+03	0	7.217286e-04
1.130000e+09	1.079208e+13	0.000000e+00	5.947710e-01	1.559570e+15	1.580479e+15	3.578445e+14	1.812902e+04	1.167155e+04	5.093343e+03	0	6.918239e-04
1.140000e+09	9.352703e+12	0.000000e+00	5.947710e-01	1.547107e+15	1.585249e+15	3.562919e+14	1.810443e+04	1.167759e+04	5.095976e+03	0	6.595883e-04
1.150000e+09	7.934499e+12	0.000000e+00	5.947710e-01	1.534814e+15	1.589763e+15	3.547497e+14	1.808004e+04	1.168328e+04	5.098463e+03	0	6.244060e-04
1.160000e+09	6.537150e+12	0.000000e+00	5.947710e-01	1.522688e+15	1.594024e+15	3.532177e+14	1.805584e+04	1.168865e+04	5.100805e+03	0	5.853604e-04
1.170000e+09	5.160343e+12	0.000000e+00	5.947710e-01	1.510727e+15	1.598038e+15	3.516960e+14	1.803183e+04	1.169370e+04	5.103007e+03	0	5.409868e-04
1.180000e+09	3.803763e+12	0.000000e+00	5.947710e-01	1.498928e+15	1.601808e+15	3.501844e+14	1.800800e+04	1.169843e+04	5.105072e+03	0	4.886880e-04
1.190000e+09	2.467101e+12	0.000000e+00	5.947710e-01	1.487289e+15	1.605341e+15	3.486828e+14	1.798437e+04	1.170285e+04	5.107003e+03	0	4.230154e-04
1.200000e+09	1.150045e+12	0.000000e+00	5.947710e-01	1.475807e+15	1.608639e+15	3.471912e+14	1.796091e+04	1.170698e+04	5.108804e+03	0	3.279937e-04
1.210000e+09	-1.477101e+11	0.000000e+00	5.947710e-01	1.464480e+15	1.611709e+15	3.457095e+14	1.793764e+04	1.171081e+04	5.110477e+03	0	nan
