#t		Qconv[W]	Ri[Rp]		R*[Rp]		Qc[W]		Qm[W]		Qr[W]		Tcmb[K]		Tl[K]		Tup[K]		RiFlag		Bs[T]
0.000000e+00	1.718912e+12	0.000000e+00	4.942528e-01	5.384837e+13	1.295801e+15	1.265445e+14	5.339813e+03	3.226948e+03	2.172012e+03	0	4.488128e-04
1.000000e+07	1.672145e+12	0.000000e+00	4.942528e-01	5.250219e+13	1.139533e+15	1.258433e+14	5.325028e+03	3.149296e+03	2.119746e+03	0	4.447050e-04
2.000000e+07	1.625240e+12	0.000000e+00	4.942528e-01	5.115240e+13	1.014128e+15	1.251474e+14	5.310608e+03	3.082000e+03	2.074449e+03	0	4.405074e-04
3.000000e+07	1.579339e+12	0.000000e+00	4.942528e-01	4.983155e+13	9.117901e+14	1.244567e+14	5.296556e+03	3.023054e+03	2.034774e+03	0	4.363207e-04
4.000000e+07	1.535034e+12	0.000000e+00	4.942528e-01	4.855651e+13	8.270481e+14	1.237712e+14	5.282865e+03	2.970951e+03	1.999704e+03	0	4.322019e-04
5.000000e+07	1.492607e+12	0.000000e+00	4.942528e-01	4.733529e+13	7.559734e+14	1.230907e+14	5.269520e+03	2.924527e+03	1.968457e+03	0	4.281828e-04
6.000000e+07	1.452160e+12	0.000000e+00	4.942528e-01	4.617081e+13	6.956854e+14	1.224154e+14	5.256510e+03	2.882876e+03	1.940422e+03	0	4.242796e-04
7.000000e+07	1.413693e+12	0.000000e+00	4.942528e-01	4.506308e+13	6.440324e+14	1.217450e+14	5.243817e+03	2.845278e+03	1.915115e+03	0	4.204998e-04
8.000000e+07	1.377153e+12	0.000000e+00	4.942528e-01	4.401048e+13	5.993802e+14	1.210797e+14	5.231427e+03	2.811152e+03	1.892146e+03	0	4.168451e-04
9.000000e+07	1.342451e+12	0.000000e+00	4.942528e-01	4.301056e+13	5.604692e+14	1.204193e+14	5.219324e+03	2.780027e+03	1.871196e+03	0	4.133141e-04
1.000000e+08	1.309488e+12	0.000000e+00	4.942528e-01	4.206044e+13	5.263149e+14	1.197638e+14	5.207495e+03	2.751515e+03	1.852005e+03	0	4.099031e-04
1.100000e+08	1.278158e+12	0.000000e+00	4.942528e-01	4.115709e+13	4.961388e+14	1.191132e+14	5.195926e+03	2.725292e+03	1.834355e+03	0	4.066077e-04
1.200000e+08	1.248356e+12	0.000000e+00	4.942528e-01	4.029750e+13	4.693181e+14	1.184673e+14	5.184603e+03	2.701089e+03	1.818064e+03	0	4.034226e-04
1.300000e+08	1.219981e+12	0.000000e+00	4.942528e-01	3.947878e+13	4.453494e+14	1.178263e+14	5.173516e+03	2.678677e+03	1.802979e+03	0	4.003425e-04
1.400000e+08	1.192935e+12	0.000000e+00	4.942528e-01	3.869816e+13	4.238222e+14	1.171900e+14	5.162654e+03	2.657860e+03	1.788967e+03	0	3.973620e-04
1.500000e+08	1.167129e+12	0.000000e+00	4.942528e-01	3.795306e+13	4.043986e+14	1.165584e+14	5.152004e+03	2.638472e+03	1.775917e+03	0	3.944757e-04
1.600000e+08	1.142479e+12	0.000000e+00	4.942528e-01	3.724108e+13	3.867986e+14	1.159315e+14	5.141559e+03	2.620369e+03	1.763732e+03	0	3.916788e-04
1.700000e+08	1.118906e+12	0.000000e+00	4.942528e-01	3.655999e+13	3.707881e+14	1.153092e+14	5.131309e+03	2.603425e+03	1.752328e+03	0	3.889662e-04
1.800000e+08	1.096340e+12	0.000000e+00	4.942528e-01	3.590775e+13	3.561703e+14	1.146915e+14	5.121245e+03	2.587532e+03	1.741630e+03	0	3.863335e-04
1.900000e+08	1.074714e+12	0.000000e+00	4.942528e-01	3.528246e+13	3.427787e+14	1.140784e+14	5.111360e+03	2.572594e+03	1.731576e+03	0	3.837764e-04
2.000000e+08	1.053967e+12	0.000000e+00	4.942528e-01	3.468238e+13	3.304713e+14	1.134697e+14	5.101647e+03	2.558526e+03	1.722107e+03	0	3.812908e-04
2.100000e+08	1.034043e+12	0.000000e+00	4.942528e-01	3.410592e+13	3.191268e+14	1.128656e+14	5.092098e+03	2.545255e+03	1.713174e+03	0	3.788729e-04
2.200000e+08	1.014891e+12	0.000000e+00	4.942528e-01	3.355159e+13	3.086407e+14	1.122659e+14	5.082707e+03	2.532714e+03	1.704733e+03	0	3.765193e-04
2.300000e+08	9.964639e+11	0.000000e+00	4.942528e-01	3.301805e+13	2.989226e+14	1.116705e+14	5.073467e+03	2.520844e+03	1.696744e+03	0	3.742265e-04
2.400000e+08	9.787175e+11	0.000000e+00	4.942528e-01	3.250405e+13	2.898940e+14	1.110796e+14	5.064375e+03	2.509593e+03	1.689171e+03	0	3.719916e-04
2.500000e+08	9.616117e+11	0.000000e+00	4.942528e-01	3.200843e+13	2.814865e+14	1.104929e+14	5.055423e+03	2.498913e+03	1.681982e+03	0	3.698117e-04
2.600000e+08	9.451093e+11	0.000000e+00	4.942528e-01	3.153013e+13	2.736401e+14	1.099106e+14	5.046607e+03	2.488761e+03	1.675149e+03	0	3.676840e-04
2.700000e+08	9.291761e+11	0.000000e+00	4.942528e-01	3.106816e+13	2.663021e+14	1.093325e+14	5.037922e+03	2.479099e+03	1.668645e+03	0	3.656060e-04
2.800000e+08	9.137803e+11	0.000000e+00	4.942528e-01	3.062163e+13	2.594260e+14	1.087586e+14	5.029364e+03	2.469892e+03	1.662448e+03	0	3.635755e-04
2.900000e+08	8.988925e+11	0.000000e+00	4.942528e-01	3.018969e+13	2.529706e+14	1.081890e+14	5.020928e+03	2.461108e+03	1.656536e+03	0	3.615902e-04
3.000000e+08	8.844856e+11	0.000000e+00	4.942528e-01	2.977155e+13	2.468994e+14	1.076235e+14	5.012611e+03	2.452720e+03	1.650890e+03	0	3.596480e-04
3.100000e+08	8.705341e+11	0.000000e+00	4.942528e-01	2.936651e+13	2.411798e+14	1.070621e+14	5.004409e+03	2.444700e+03	1.645492e+03	0	3.577470e-04
3.200000e+08	8.570146e+11	0.000000e+00	4.942528e-01	2.897387e+13	2.357826e+14	1.065047e+14	4.996318e+03	2.437024e+03	1.640325e+03	0	3.558853e-04
3.300000e+08	8.439053e+11	0.000000e+00	4.942528e-01	2.859302e+13	2.306819e+14	1.059515e+14	4.988335e+03	2.429671e+03	1.635376e+03	0	3.540614e-04
3.400000e+08	8.311857e+11	0.000000e+00	4.942528e-01	2.822337e+13	2.258541e+14	1.054022e+14	4.980456e+03	2.422620e+03	1.630631e+03	0	3.522736e-04
3.500000e+08	8.188368e+11	0.000000e+00	4.942528e-01	2.786438e+13	2.212782e+14	1.048570e+14	4.972678e+03	2.415853e+03	1.626076e+03	0	3.505203e-04
3.600000e+08	8.068409e+11	0.000000e+00	4.942528e-01	2.751553e+13	2.169352e+14	1.043157e+14	4.965000e+03	2.409353e+03	1.621701e+03	0	3.488002e-04
3.700000e+08	7.951815e+11	0.000000e+00	4.942528e-01	2.717637e+13	2.128078e+14	1.037783e+14	4.957417e+03	2.403104e+03	1.617495e+03	0	3.471119e-04
3.800000e+08	7.838429e+11	0.000000e+00	4.942528e-01	2.684643e+13	2.088804e+14	1.032448e+14	4.949927e+03	2.397092e+03	1.613448e+03	0	3.454541e-04
3.900000e+08	7.728107e+11	0.000000e+00	4.942528e-01	2.652530e+13	2.051387e+14	1.027151e+14	4.942528e+03	2.391302e+03	1.609551e+03	0	3.438258e-04
4.000000e+08	7.620712e+11	0.000000e+00	4.942528e-01	2.621259e+13	2.015700e+14	1.021893e+14	4.935217e+03	2.385723e+03	1.605796e+03	0	3.422256e-04
4.100000e+08	7.516115e+11	0.000000e+00	4.942528e-01	2.590794e+13	1.981624e+14	1.016673e+14	4.927991e+03	2.380343e+03	1.602174e+03	0	3.406527e-04
4.200000e+08	7.414198e+11	0.000000e+00	4.942528e-01	2.561100e+13	1.949051e+14	1.011490e+14	4.920850e+03	2.375151e+03	1.598680e+03	0	3.391060e-04
4.300000e+08	7.314845e+11	0.000000e+00	4.942528e-01	2.532144e+13	1.917883e+14	1.006345e+14	4.913790e+03	2.370137e+03	1.595305e+03	0	3.375844e-04
4.400000e+08	7.217952e+11	0.000000e+00	4.942528e-01	2.503897e+13	1.888029e+14	1.001237e+14	4.906810e+03	2.365291e+03	1.592043e+03	0	3.360872e-04
4.500000e+08	7.123416e+11	0.000000e+00	4.942528e-01	2.476328e+13	1.859406e+14	9.961652e+13	4.899907e+03	2.360606e+03	1.588890e+03	0	3.346135e-04
4.600000e+08	7.031144e+11	0.000000e+00	4.942528e-01	2.449411e+13	1.831938e+14	9.911301e+13	4.893080e+03	2.356072e+03	1.585838e+03	0	3.331624e-04
4.700000e+08	6.941046e+11	0.000000e+00	4.942528e-01	2.423120e+13	1.805554e+14	9.861310e+13	4.886327e+03	2.351683e+03	1.582883e+03	0	3.317332e-04
4.800000e+08	6.853037e+11	0.000000e+00	4.942528e-01	2.397432e+13	1.780189e+14	9.811678e+13	4.879646e+03	2.347430e+03	1.580021e+03	0	3.303252e-04
4.900000e+08	6.767037e+11	0.000000e+00	4.942528e-01	2.372322e+13	1.755784e+14	9.762401e+13	4.873036e+03	2.343308e+03	1.577246e+03	0	3.289376e-04
5.000000e+08	6.682971e+11	0.000000e+00	4.942528e-01	2.347770e+13	1.732283e+14	9.713476e+13	4.866495e+03	2.339309e+03	1.574555e+03	0	3.275698e-04
5.100000e+08	6.600767e+11	0.000000e+00	4.942528e-01	2.323754e+13	1.709634e+14	9.664901e+13	4.860021e+03	2.335429e+03	1.571943e+03	0	3.262212e-04
5.200000e+08	6.520356e+11	0.000000e+00	4.942528e-01	2.300256e+13	1.687789e+14	9.616673e+13	4.853613e+03	2.331661e+03	1.569407e+03	0	3.248911e-04
5.300000e+08	6.441674e+11	0.000000e+00	4.942528e-01	2.277256e+13	1.666705e+14	9.568788e+13	4.847270e+03	2.328001e+03	1.566944e+03	0	3.235790e-04
5.400000e+08	6.364660e+11	0.000000e+00	4.942528e-01	2.254737e+13	1.646340e+14	9.521245e+13	4.840990e+03	2.324443e+03	1.564549e+03	0	3.222843e-04
5.500000e+08	6.289256e+11	0.000000e+00	4.942528e-01	2.232683e+13	1.626656e+14	9.474040e+13	4.834772e+03	2.320983e+03	1.562220e+03	0	3.210065e-04
5.600000e+08	6.215406e+11	0.000000e+00	4.942528e-01	2.211077e+13	1.607616e+14	9.427170e+13	4.828615e+03	2.317616e+03	1.559954e+03	0	3.197451e-04
5.700000e+08	6.143057e+11	0.000000e+00	4.942528e-01	2.189904e+13	1.589188e+14	9.380634e+13	4.822517e+03	2.314338e+03	1.557748e+03	0	3.184996e-04
5.800000e+08	6.072159e+11	0.000000e+00	4.942528e-01	2.169150e+13	1.571340e+14	9.334427e+13	4.816477e+03	2.311146e+03	1.555599e+03	0	3.172696e-04
5.900000e+08	6.002664e+11	0.000000e+00	4.942528e-01	2.148801e+13	1.554044e+14	9.288548e+13	4.810495e+03	2.308036e+03	1.553505e+03	0	3.160546e-04
6.000000e+08	5.934527e+11	0.000000e+00	4.942528e-01	2.128844e+13	1.537271e+14	9.242994e+13	4.804568e+03	2.305004e+03	1.551464e+03	0	3.148541e-04
6.100000e+08	5.867705e+11	0.000000e+00	4.942528e-01	2.109266e+13	1.520997e+14	9.197762e+13	4.798696e+03	2.302046e+03	1.549474e+03	0	3.136679e-04
6.200000e+08	5.802154e+11	0.000000e+00	4.942528e-01	2.090056e+13	1.505197e+14	9.152850e+13	4.792878e+03	2.299161e+03	1.547532e+03	0	3.124955e-04
6.300000e+08	5.737837e+11	0.000000e+00	4.942528e-01	2.071203e+13	1.489849e+14	9.108254e+13	4.787113e+03	2.296344e+03	1.545636e+03	0	3.113365e-04
6.400000e+08	5.674714e+11	0.000000e+00	4.942528e-01	2.052694e+13	1.474932e+14	9.063973e+13	4.781400e+03	2.293593e+03	1.543784e+03	0	3.101906e-04
6.500000e+08	5.612750e+11	0.000000e+00	4.942528e-01	2.034520e+13	1.460426e+14	9.020005e+13	4.775737e+03	2.290906e+03	1.541976e+03	0	3.090575e-04
6.600000e+08	5.551910e+11	0.000000e+00	4.942528e-01	2.016671e+13	1.446313e+14	8.976345e+13	4.770125e+03	2.288280e+03	1.540208e+03	0	3.079367e-04
6.700000e+08	5.492160e+11	0.000000e+00	4.942528e-01	1.999137e+13	1.432574e+14	8.932993e+13	4.764562e+03	2.285712e+03	1.538479e+03	0	3.068281e-04
6.800000e+08	5.433469e+11	0.000000e+00	4.942528e-01	1.981910e+13	1.419194e+14	8.889945e+13	4.759047e+03	2.283200e+03	1.536789e+03	0	3.057312e-04
6.900000e+08	5.375805e+11	0.000000e+00	4.942528e-01	1.964979e+13	1.406156e+14	8.847199e+13	4.753579e+03	2.280742e+03	1.535134e+03	0	3.046458e-04
7.000000e+08	5.319141e+11	0.000000e+00	4.942528e-01	1.948338e+13	1.393447e+14	8.804752e+13	4.748158e+03	2.278336e+03	1.533515e+03	0	3.035716e-04
7.100000e+08	5.263447e+11	0.000000e+00	4.942528e-01	1.931977e+13	1.381051e+14	8.762603e+13	4.742783e+03	2.275980e+03	1.531929e+03	0	3.025084e-04
7.200000e+08	5.208697e+11	0.000000e+00	4.942528e-01	1.915889e+13	1.368956e+14	8.720748e+13	4.737453e+03	2.273672e+03	1.530376e+03	0	3.014559e-04
7.300000e+08	5.154865e+11	0.000000e+00	4.942528e-01	1.900067e+13	1.357150e+14	8.679186e+13	4.732167e+03	2.271411e+03	1.528854e+03	0	3.004137e-04
7.400000e+08	5.101925e+11	0.000000e+00	4.942528e-01	1.884503e+13	1.345621e+14	8.637915e+13	4.726924e+03	2.269193e+03	1.527361e+03	0	2.993818e-04
7.500000e+08	5.049855e+11	0.000000e+00	4.942528e-01	1.869191e+13	1.334357e+14	8.596930e+13	4.721724e+03	2.267019e+03	1.525898e+03	0	2.983598e-04
7.600000e+08	4.998630e+11	0.000000e+00	4.942528e-01	1.854123e+13	1.323349e+14	8.556232e+13	4.716567e+03	2.264887e+03	1.524462e+03	0	2.973475e-04
7.700000e+08	4.948229e+11	0.000000e+00	4.942528e-01	1.839294e+13	1.312585e+14	8.515816e+13	4.711451e+03	2.262794e+03	1.523054e+03	0	2.963448e-04
7.800000e+08	4.898630e+11	0.000000e+00	4.942528e-01	1.824698e+13	1.302057e+14	8.475682e+13	4.706376e+03	2.260740e+03	1.521671e+03	0	2.953513e-04
7.900000e+08	4.849813e+11	0.000000e+00	4.942528e-01	1.810328e+13	1.291756e+14	8.435826e+13	4.701341e+03	2.258723e+03	1.520314e+03	0	2.943669e-04
8.000000e+08	4.801757e+11	0.000000e+00	4.942528e-01	1.796178e+13	1.281673e+14	8.396246e+13	4.696345e+03	2.256742e+03	1.518980e+03	0	2.933914e-04
8.100000e+08	4.754445e+11	0.000000e+00	4.942528e-01	1.782244e+13	1.271799e+14	8.356941e+13	4.691389e+03	2.254795e+03	1.517670e+03	0	2.924246e-04
8.200000e+08	4.707857e+11	0.000000e+00	4.942528e-01	1.768520e+13	1.262128e+14	8.317908e+13	4.686470e+03	2.252882e+03	1.516382e+03	0	2.914664e-04
8.300000e+08	4.661976e+11	0.000000e+00	4.942528e-01	1.755001e+13	1.252652e+14	8.279145e+13	4.681590e+03	2.251001e+03	1.515116e+03	0	2.905164e-04
8.400000e+08	4.616785e+11	0.000000e+00	4.942528e-01	1.741681e+13	1.243364e+14	8.240649e+13	4.676747e+03	2.249152e+03	1.513872e+03	0	2.895747e-04
8.500000e+08	4.572266e+11	0.000000e+00	4.942528e-01	1.728557e+13	1.234257e+14	8.202419e+13	4.671940e+03	2.247333e+03	1.512647e+03	0	2.886409e-04
8.600000e+08	4.528405e+11	0.000000e+00	4.942528e-01	1.715623e+13	1.225326e+14	8.164453e+13	4.667170e+03	2.245543e+03	1.511442e+03	0	2.877150e-04
8.700000e+08	4.485185e+11	0.000000e+00	4.942528e-01	1.702875e+13	1.216563e+14	8.126748e+13	4.662435e+03	2.243781e+03	1.510257e+03	0	2.867967e-04
8.800000e+08	4.442592e+11	0.000000e+00	4.942528e-01	1.690309e+13	1.207963e+14	8.089302e+13	4.657735e+03	2.242047e+03	1.509089e+03	0	2.858860e-04
8.900000e+08	4.400611e+11	0.000000e+00	4.942528e-01	1.677921e+13	1.199520e+14	8.052114e+13	4.653070e+03	2.240339e+03	1.507940e+03	0	2.849826e-04
9.000000e+08	4.359228e+11	0.000000e+00	4.942528e-01	1.665706e+13	1.191231e+14	8.015181e+13	4.648439e+03	2.238657e+03	1.506807e+03	0	2.840865e-04
9.100000e+08	4.318431e+11	0.000000e+00	4.942528e-01	1.653661e+13	1.183088e+14	7.978501e+13	4.643842e+03	2.237000e+03	1.505692e+03	0	2.831974e-04
9.200000e+08	4.278205e+11	0.000000e+00	4.942528e-01	1.641782e+13	1.175088e+14	7.942072e+13	4.639277e+03	2.235366e+03	1.504593e+03	0	2.823154e-04
9.300000e+08	4.238538e+11	0.000000e+00	4.942528e-01	1.630065e+13	1.167227e+14	7.905892e+13	4.634746e+03	2.233757e+03	1.503509e+03	0	2.814401e-04
9.400000e+08	4.199418e+11	0.000000e+00	4.942528e-01	1.618508e+13	1.159498e+14	7.869960e+13	4.630247e+03	2.232169e+03	1.502441e+03	0	2.805716e-04
9.500000e+08	4.160833e+11	0.000000e+00	4.942528e-01	1.607105e+13	1.151900e+14	7.834273e+13	4.625779e+03	2.230604e+03	1.501387e+03	0	2.797096e-04
9.600000e+08	4.122771e+11	0.000000e+00	4.942528e-01	1.595854e+13	1.144427e+14	7.798829e+13	4.621343e+03	2.229060e+03	1.500348e+03	0	2.788541e-04
9.700000e+08	4.085222e+11	0.000000e+00	4.942528e-01	1.584753e+13	1.137075e+14	7.763627e+13	4.616938e+03	2.227537e+03	1.499323e+03	0	2.780050e-04
9.800000e+08	4.048174e+11	0.000000e+00	4.942528e-01	1.573797e+13	1.129841e+14	7.728664e+13	4.612564e+03	2.226034e+03	1.498311e+03	0	2.771620e-04
9.900000e+08	4.011617e+11	0.000000e+00	4.942528e-01	1.562983e+13	1.122722e+14	7.693939e+13	4.608219e+03	2.224550e+03	1.497312e+03	0	2.763252e-04
1.000000e+09	3.975542e+11	0.000000e+00	4.942528e-01	1.552310e+13	1.115714e+14	7.659449e+13	4.603905e+03	2.223085e+03	1.496326e+03	0	2.754944e-04
1.010000e+09	3.939937e+11	0.000000e+00	4.942528e-01	1.541773e+13	1.108814e+14	7.625194e+13	4.599620e+03	2.221639e+03	1.495353e+03	0	2.746695e-04
1.020000e+09	3.904794e+11	0.000000e+00	4.942528e-01	1.531371e+13	1.102018e+14	7.591170e+13	4.595364e+03	2.220210e+03	1.494391e+03	0	2.738504e-04
1.030000e+09	3.870102e+11	0.000000e+00	4.942528e-01	1.521099e+13	1.095324e+14	7.557377e+13	4.591136e+03	2.218799e+03	1.493441e+03	0	2.730370e-04
1.040000e+09	3.835854e+11	0.000000e+00	4.942528e-01	1.510957e+13	1.088729e+14	7.523812e+13	4.586937e+03	2.217405e+03	1.492503e+03	0	2.722292e-04
1.050000e+09	3.802040e+11	0.000000e+00	4.942528e-01	1.500941e+13	1.082231e+14	7.490474e+13	4.582766e+03	2.216027e+03	1.491575e+03	0	2.714269e-04
1.060000e+09	3.768652e+11	0.000000e+00	4.942528e-01	1.491049e+13	1.075825e+14	7.457361e+13	4.578622e+03	2.214665e+03	1.490659e+03	0	2.706301e-04
1.070000e+09	3.735682e+11	0.000000e+00	4.942528e-01	1.481278e+13	1.069511e+14	7.424470e+13	4.574506e+03	2.213318e+03	1.489753e+03	0	2.698385e-04
1.080000e+09	3.703120e+11	0.000000e+00	4.942528e-01	1.471627e+13	1.063285e+14	7.391801e+13	4.570416e+03	2.211987e+03	1.488856e+03	0	2.690523e-04
1.090000e+09	3.670961e+11	0.000000e+00	4.942528e-01	1.462092e+13	1.057146e+14	7.359352e+13	4.566353e+03	2.210670e+03	1.487970e+03	0	2.682711e-04
1.100000e+09	3.639195e+11	0.000000e+00	4.942528e-01	1.452672e+13	1.051090e+14	7.327121e+13	4.562317e+03	2.209368e+03	1.487094e+03	0	2.674951e-04
1.110000e+09	3.607816e+11	0.000000e+00	4.942528e-01	1.443365e+13	1.045116e+14	7.295105e+13	4.558306e+03	2.208080e+03	1.486227e+03	0	2.667240e-04
1.120000e+09	3.576815e+11	0.000000e+00	4.942528e-01	1.434167e+13	1.039222e+14	7.263305e+13	4.554321e+03	2.206805e+03	1.485369e+03	0	2.659579e-04
1.130000e+09	3.546188e+11	0.000000e+00	4.942528e-01	1.425079e+13	1.033405e+14	7.231717e+13	4.550361e+03	2.205544e+03	1.484520e+03	0	2.651966e-04
1.140000e+09	3.515925e+11	0.000000e+00	4.942528e-01	1.416096e+13	1.027664e+14	7.200340e+13	4.546427e+03	2.204295e+03	1.483679e+03	0	2.644400e-04
1.150000e+09	3.486021e+11	0.000000e+00	4.942528e-01	1.407218e+13	1.021997e+14	7.169172e+13	4.542517e+03	2.203059e+03	1.482847e+03	0	2.636882e-04
1.160000e+09	3.456470e+11	0.000000e+00	4.942528e-01	1.398443e+13	1.016402e+14	7.138213e+13	4.538631e+03	2.201836e+03	1.482024e+03	0	2.629410e-04
1.170000e+09	3.427264e+11	0.000000e+00	4.942528e-01	1.389768e+13	1.010878e+14	7.107460e+13	4.534770e+03	2.200624e+03	1.481208e+03	0	2.621983e-04
1.180000e+09	3.398398e+11	0.000000e+00	4.942528e-01	1.381193e+13	1.005421e+14	7.076911e+13	4.530933e+03	2.199424e+03	1.480401e+03	0	2.614601e-04
1.190000e+09	3.369865e+11	0.000000e+00	4.942528e-01	1.372714e+13	1.000032e+14	7.046566e+13	4.527119e+03	2.198236e+03	1.479601e+03	0	2.607263e-04
1.200000e+09	3.341660e+11	0.000000e+00	4.942528e-01	1.364332e+13	9.947088e+13	7.016422e+13	4.523329e+03	2.197058e+03	1.478808e+03	0	2.599969e-04
1.210000e+09	3.313778e+11	0.000000e+00	4.942528e-01	1.356043e+13	9.894490e+13	6.986478e+13	4.519561e+03	2.195892e+03	1.478023e+03	0	2.592717e-04
1.220000e+09	3.286211e+11	0.000000e+00	4.942528e-01	1.347846e+13	9.842518e+13	6.956732e+13	4.515817e+03	2.194736e+03	1.477245e+03	0	2.585508e-04
1.230000e+09	3.258956e+11	0.000000e+00	4.942528e-01	1.339740e+13	9.791156e+13	6.927183e+13	4.512095e+03	2.193590e+03	1.476474e+03	0	2.578340e-04
1.240000e+09	3.232007e+11	0.000000e+00	4.942528e-01	1.331723e+13	9.740392e+13	6.897829e+13	4.508396e+03	2.192455e+03	1.475709e+03	0	2.571213e-04
1.250000e+09	3.205358e+11	0.000000e+00	4.942528e-01	1.323794e+13	9.690211e+13	6.868669e+13	4.504718e+03	2.191329e+03	1.474952e+03	0	2.564127e-04
1.260000e+09	3.179004e+11	0.000000e+00	4.942528e-01	1.315951e+13	9.640602e+13	6.839702e+13	4.501063e+03	2.190213e+03	1.474201e+03	0	2.557080e-04
1.270000e+09	3.152941e+11	0.000000e+00	4.942528e-01	1.308193e+13	9.591551e+13	6.810925e+13	4.497429e+03	2.189107e+03	1.473456e+03	0	2.550073e-04
1.280000e+09	3.127164e+11	0.000000e+00	4.942528e-01	1.300518e+13	9.543048e+13	6.782338e+13	4.493816e+03	2.188010e+03	1.472718e+03	0	2.543105e-04
1.290000e+09	3.101668e+11	0.000000e+00	4.942528e-01	1.292925e+13	9.495080e+13	6.753938e+13	4.490225e+03	2.186922e+03	1.471985e+03	0	2.536174e-04
1.300000e+09	3.076448e+11	0.000000e+00	4.942528e-01	1.285413e+13	9.447637e+13	6.725725e+13	4.486654e+03	2.185843e+03	1.471259e+03	0	2.529282e-04
1.310000e+09	3.051500e+11	0.000000e+00	4.942528e-01	1.277980e+13	9.400707e+13	6.697696e+13	4.483104e+03	2.184772e+03	1.470538e+03	0	2.522426e-04
1.320000e+09	3.026819e+11	0.000000e+00	4.942528e-01	1.270625e+13	9.354280e+13	6.669852e+13	4.479575e+03	2.183710e+03	1.469824e+03	0	2.515607e-04
1.330000e+09	3.002401e+11	0.000000e+00	4.942528e-01	1.263347e+13	9.308346e+13	6.642189e+13	4.476066e+03	2.182656e+03	1.469114e+03	0	2.508824e-04
1.340000e+09	2.978243e+11	0.000000e+00	4.942528e-01	1.256145e+13	9.262896e+13	6.614707e+13	4.472577e+03	2.181611e+03	1.468411e+03	0	2.502077e-04
1.350000e+09	2.954339e+11	0.000000e+00	4.942528e-01	1.249017e+13	9.217919e+13	6.587405e+13	4.469108e+03	2.180573e+03	1.467712e+03	0	2.495365e-04
1.360000e+09	2.930687e+11	0.000000e+00	4.942528e-01	1.241962e+13	9.173406e+13	6.560280e+13	4.465659e+03	2.179543e+03	1.467019e+03	0	2.488688e-04
