#t		Qconv[W]	Ri[Rp]		R*[Rp]		Qc[W]		Qm[W]		Qr[W]		Tcmb[K]		Tl[K]		Tup[K]		RiFlag		Bs[T]
0.000000e+00	4.434968e+12	0.000000e+00	4.914286e-01	1.095037e+14	1.805432e+15	1.911382e+14	6.695105e+03	3.755433e+03	2.292249e+03	0	6.025190e-04
1.000000e+07	4.298389e+12	0.000000e+00	4.914286e-01	1.065283e+14	1.619902e+15	1.900791e+14	6.676006e+03	3.681986e+03	2.247419e+03	0	5.962694e-04
2.000000e+07	4.167610e+12	0.000000e+00	4.914286e-01	1.036786e+14	1.466580e+15	1.890280e+14	6.657421e+03	3.617123e+03	2.207827e+03	0	5.901598e-04
3.000000e+07	4.043111e+12	0.000000e+00	4.914286e-01	1.009649e+14	1.338210e+15	1.879847e+14	6.639330e+03	3.559370e+03	2.172576e+03	0	5.842237e-04
4.000000e+07	3.924956e+12	0.000000e+00	4.914286e-01	9.838851e+13	1.229487e+15	1.869493e+14	6.621709e+03	3.507581e+03	2.140965e+03	0	5.784763e-04
5.000000e+07	3.812984e+12	0.000000e+00	4.914286e-01	9.594594e+13	1.136459e+15	1.859215e+14	6.604535e+03	3.460847e+03	2.112439e+03	0	5.729221e-04
6.000000e+07	3.706913e+12	0.000000e+00	4.914286e-01	9.363110e+13	1.056133e+15	1.849014e+14	6.587785e+03	3.418438e+03	2.086554e+03	0	5.675595e-04
7.000000e+07	3.606410e+12	0.000000e+00	4.914286e-01	9.143674e+13	9.862065e+14	1.838889e+14	6.571436e+03	3.379763e+03	2.062947e+03	0	5.623831e-04
8.000000e+07	3.511119e+12	0.000000e+00	4.914286e-01	8.935521e+13	9.248831e+14	1.828839e+14	6.555468e+03	3.344334e+03	2.041322e+03	0	5.573857e-04
9.000000e+07	3.420690e+12	0.000000e+00	4.914286e-01	8.737890e+13	8.707452e+14	1.818864e+14	6.539862e+03	3.311748e+03	2.021432e+03	0	5.525588e-04
1.000000e+08	3.334783e+12	0.000000e+00	4.914286e-01	8.550050e+13	8.226605e+14	1.808963e+14	6.524599e+03	3.281666e+03	2.003070e+03	0	5.478939e-04
1.100000e+08	3.253078e+12	0.000000e+00	4.914286e-01	8.371310e+13	7.797153e+14	1.799136e+14	6.509662e+03	3.253803e+03	1.986063e+03	0	5.433823e-04
1.200000e+08	3.175278e+12	0.000000e+00	4.914286e-01	8.201024e+13	7.411654e+14	1.789381e+14	6.495035e+03	3.227916e+03	1.970263e+03	0	5.390154e-04
1.300000e+08	3.101106e+12	0.000000e+00	4.914286e-01	8.038598e+13	7.063993e+14	1.779699e+14	6.480705e+03	3.203798e+03	1.955542e+03	0	5.347853e-04
1.400000e+08	3.030307e+12	0.000000e+00	4.914286e-01	7.883482e+13	6.749105e+14	1.770088e+14	6.466657e+03	3.181269e+03	1.941790e+03	0	5.306842e-04
1.500000e+08	2.962649e+12	0.000000e+00	4.914286e-01	7.735172e+13	6.462762e+14	1.760549e+14	6.452879e+03	3.160175e+03	1.928914e+03	0	5.267049e-04
1.600000e+08	2.897918e+12	0.000000e+00	4.914286e-01	7.593205e+13	6.201414e+14	1.751079e+14	6.439359e+03	3.140378e+03	1.916831e+03	0	5.228406e-04
1.700000e+08	2.835917e+12	0.000000e+00	4.914286e-01	7.457158e+13	5.962057e+14	1.741680e+14	6.426086e+03	3.121762e+03	1.905468e+03	0	5.190850e-04
1.800000e+08	2.776467e+12	0.000000e+00	4.914286e-01	7.326643e+13	5.742136e+14	1.732350e+14	6.413049e+03	3.104221e+03	1.894761e+03	0	5.154321e-04
1.900000e+08	2.719403e+12	0.000000e+00	4.914286e-01	7.201303e+13	5.539466e+14	1.723089e+14	6.400239e+03	3.087664e+03	1.884655e+03	0	5.118764e-04
2.000000e+08	2.664575e+12	0.000000e+00	4.914286e-01	7.080814e+13	5.352169e+14	1.713896e+14	6.387648e+03	3.072009e+03	1.875099e+03	0	5.084129e-04
2.100000e+08	2.611843e+12	0.000000e+00	4.914286e-01	6.964874e+13	5.178619e+14	1.704770e+14	6.375266e+03	3.057182e+03	1.866049e+03	0	5.050367e-04
2.200000e+08	2.561081e+12	0.000000e+00	4.914286e-01	6.853208e+13	5.017408e+14	1.695711e+14	6.363087e+03	3.043119e+03	1.857466e+03	0	5.017434e-04
2.300000e+08	2.512170e+12	0.000000e+00	4.914286e-01	6.745564e+13	4.867308e+14	1.686719e+14	6.351101e+03	3.029761e+03	1.849312e+03	0	4.985288e-04
2.400000e+08	2.465003e+12	0.000000e+00	4.914286e-01	6.641706e+13	4.727242e+14	1.677793e+14	6.339303e+03	3.017055e+03	1.841557e+03	0	4.953891e-04
2.500000e+08	2.419481e+12	0.000000e+00	4.914286e-01	6.541421e+13	4.596266e+14	1.668932e+14	6.327686e+03	3.004955e+03	1.834171e+03	0	4.923206e-04
2.600000e+08	2.375511e+12	0.000000e+00	4.914286e-01	6.444508e+13	4.473546e+14	1.660137e+14	6.316244e+03	2.993417e+03	1.827128e+03	0	4.893200e-04
2.700000e+08	2.333008e+12	0.000000e+00	4.914286e-01	6.350784e+13	4.358346e+14	1.651405e+14	6.304970e+03	2.982402e+03	1.820405e+03	0	4.863841e-04
2.800000e+08	2.291894e+12	0.000000e+00	4.914286e-01	6.260078e+13	4.250010e+14	1.642737e+14	6.293860e+03	2.971875e+03	1.813979e+03	0	4.835100e-04
2.900000e+08	2.252094e+12	0.000000e+00	4.914286e-01	6.172230e+13	4.147955e+14	1.634133e+14	6.282908e+03	2.961803e+03	1.807832e+03	0	4.806948e-04
3.000000e+08	2.213542e+12	0.000000e+00	4.914286e-01	6.087096e+13	4.051662e+14	1.625591e+14	6.272109e+03	2.952157e+03	1.801944e+03	0	4.779361e-04
3.100000e+08	2.176173e+12	0.000000e+00	4.914286e-01	6.004537e+13	3.960663e+14	1.617111e+14	6.261458e+03	2.942910e+03	1.796300e+03	0	4.752314e-04
3.200000e+08	2.139930e+12	0.000000e+00	4.914286e-01	5.924426e+13	3.874540e+14	1.608693e+14	6.250951e+03	2.934037e+03	1.790884e+03	0	4.725783e-04
3.300000e+08	2.104757e+12	0.000000e+00	4.914286e-01	5.846644e+13	3.792916e+14	1.600336e+14	6.240584e+03	2.925515e+03	1.785683e+03	0	4.699748e-04
3.400000e+08	2.070603e+12	0.000000e+00	4.914286e-01	5.771081e+13	3.715450e+14	1.592040e+14	6.230352e+03	2.917324e+03	1.780683e+03	0	4.674188e-04
3.500000e+08	2.037419e+12	0.000000e+00	4.914286e-01	5.697633e+13	3.641836e+14	1.583805e+14	6.220253e+03	2.909443e+03	1.775873e+03	0	4.649084e-04
3.600000e+08	2.005163e+12	0.000000e+00	4.914286e-01	5.626202e+13	3.571795e+14	1.575628e+14	6.210281e+03	2.901856e+03	1.771241e+03	0	4.624419e-04
3.700000e+08	1.973790e+12	0.000000e+00	4.914286e-01	5.556698e+13	3.505072e+14	1.567512e+14	6.200433e+03	2.894545e+03	1.766779e+03	0	4.600174e-04
3.800000e+08	1.943263e+12	0.000000e+00	4.914286e-01	5.489036e+13	3.441438e+14	1.559453e+14	6.190707e+03	2.887495e+03	1.762475e+03	0	4.576335e-04
3.900000e+08	1.913544e+12	0.000000e+00	4.914286e-01	5.423135e+13	3.380681e+14	1.551453e+14	6.181099e+03	2.880691e+03	1.758323e+03	0	4.552885e-04
4.000000e+08	1.884598e+12	0.000000e+00	4.914286e-01	5.358920e+13	3.322611e+14	1.543511e+14	6.171606e+03	2.874121e+03	1.754313e+03	0	4.529812e-04
4.100000e+08	1.856392e+12	0.000000e+00	4.914286e-01	5.296321e+13	3.267050e+14	1.535626e+14	6.162225e+03	2.867773e+03	1.750437e+03	0	4.507100e-04
4.200000e+08	1.828897e+12	0.000000e+00	4.914286e-01	5.235270e+13	3.213838e+14	1.527798e+14	6.152953e+03	2.861634e+03	1.746690e+03	0	4.484737e-04
4.300000e+08	1.802082e+12	0.000000e+00	4.914286e-01	5.175705e+13	3.162827e+14	1.520027e+14	6.143788e+03	2.855693e+03	1.743065e+03	0	4.462712e-04
4.400000e+08	1.775921e+12	0.000000e+00	4.914286e-01	5.117567e+13	3.113880e+14	1.512311e+14	6.134726e+03	2.849942e+03	1.739554e+03	0	4.441011e-04
4.500000e+08	1.750388e+12	0.000000e+00	4.914286e-01	5.060799e+13	3.066871e+14	1.504651e+14	6.125766e+03	2.844370e+03	1.736153e+03	0	4.419625e-04
4.600000e+08	1.725458e+12	0.000000e+00	4.914286e-01	5.005348e+13	3.021686e+14	1.497045e+14	6.116906e+03	2.838969e+03	1.732856e+03	0	4.398542e-04
4.700000e+08	1.701109e+12	0.000000e+00	4.914286e-01	4.951165e+13	2.978216e+14	1.489494e+14	6.108141e+03	2.833731e+03	1.729659e+03	0	4.377753e-04
4.800000e+08	1.677317e+12	0.000000e+00	4.914286e-01	4.898201e+13	2.936363e+14	1.481998e+14	6.099472e+03	2.828647e+03	1.726556e+03	0	4.357249e-04
4.900000e+08	1.654064e+12	0.000000e+00	4.914286e-01	4.846413e+13	2.896035e+14	1.474555e+14	6.090894e+03	2.823710e+03	1.723543e+03	0	4.337019e-04
5.000000e+08	1.631328e+12	0.000000e+00	4.914286e-01	4.795756e+13	2.857147e+14	1.467165e+14	6.082408e+03	2.818914e+03	1.720615e+03	0	4.317056e-04
5.100000e+08	1.609091e+12	0.000000e+00	4.914286e-01	4.746192e+13	2.819621e+14	1.459828e+14	6.074009e+03	2.814253e+03	1.717770e+03	0	4.297351e-04
5.200000e+08	1.587336e+12	0.000000e+00	4.914286e-01	4.697680e+13	2.783381e+14	1.452543e+14	6.065697e+03	2.809719e+03	1.715003e+03	0	4.277896e-04
5.300000e+08	1.566046e+12	0.000000e+00	4.914286e-01	4.650185e+13	2.748361e+14	1.445311e+14	6.057470e+03	2.805308e+03	1.712310e+03	0	4.258684e-04
5.400000e+08	1.545205e+12	0.000000e+00	4.914286e-01	4.603672e+13	2.714495e+14	1.438130e+14	6.049326e+03	2.801014e+03	1.709689e+03	0	4.239708e-04
5.500000e+08	1.524796e+12	0.000000e+00	4.914286e-01	4.558107e+13	2.681726e+14	1.430999e+14	6.041263e+03	2.796832e+03	1.707137e+03	0	4.220960e-04
5.600000e+08	1.504807e+12	0.000000e+00	4.914286e-01	4.513460e+13	2.649997e+14	1.423920e+14	6.033279e+03	2.792758e+03	1.704650e+03	0	4.202434e-04
5.700000e+08	1.485223e+12	0.000000e+00	4.914286e-01	4.469699e+13	2.619255e+14	1.416891e+14	6.025374e+03	2.788785e+03	1.702225e+03	0	4.184124e-04
5.800000e+08	1.466031e+12	0.000000e+00	4.914286e-01	4.426797e+13	2.589454e+14	1.409912e+14	6.017545e+03	2.784912e+03	1.699861e+03	0	4.166023e-04
5.900000e+08	1.447218e+12	0.000000e+00	4.914286e-01	4.384725e+13	2.560546e+14	1.402982e+14	6.009791e+03	2.781132e+03	1.697554e+03	0	4.148126e-04
6.000000e+08	1.428772e+12	0.000000e+00	4.914286e-01	4.343458e+13	2.532490e+14	1.396101e+14	6.002110e+03	2.777443e+03	1.695302e+03	0	4.130427e-04
6.100000e+08	1.410682e+12	0.000000e+00	4.914286e-01	4.302971e+13	2.505245e+14	1.389269e+14	5.994501e+03	2.773841e+03	1.693103e+03	0	4.112921e-04
6.200000e+08	1.392937e+12	0.000000e+00	4.914286e-01	4.263240e+13	2.478774e+14	1.382486e+14	5.986963e+03	2.770322e+03	1.690955e+03	0	4.095602e-04
6.300000e+08	1.375526e+12	0.000000e+00	4.914286e-01	4.224242e+13	2.453041e+14	1.375750e+14	5.979495e+03	2.766883e+03	1.688856e+03	0	4.078466e-04
6.400000e+08	1.358439e+12	0.000000e+00	4.914286e-01	4.185954e+13	2.428012e+14	1.369061e+14	5.972094e+03	2.763521e+03	1.686804e+03	0	4.061508e-04
6.500000e+08	1.341666e+12	0.000000e+00	4.914286e-01	4.148357e+13	2.403658e+14	1.362420e+14	5.964761e+03	2.760233e+03	1.684797e+03	0	4.044723e-04
6.600000e+08	1.325199e+12	0.000000e+00	4.914286e-01	4.111429e+13	2.379947e+14	1.355826e+14	5.957493e+03	2.757016e+03	1.682833e+03	0	4.028107e-04
6.700000e+08	1.309028e+12	0.000000e+00	4.914286e-01	4.075152e+13	2.356852e+14	1.349277e+14	5.950290e+03	2.753867e+03	1.680911e+03	0	4.011655e-04
6.800000e+08	1.293145e+12	0.000000e+00	4.914286e-01	4.039507e+13	2.334347e+14	1.342775e+14	5.943150e+03	2.750784e+03	1.679030e+03	0	3.995364e-04
6.900000e+08	1.277542e+12	0.000000e+00	4.914286e-01	4.004477e+13	2.312407e+14	1.336319e+14	5.936072e+03	2.747765e+03	1.677187e+03	0	3.979229e-04
7.000000e+08	1.262210e+12	0.000000e+00	4.914286e-01	3.970043e+13	2.291009e+14	1.329907e+14	5.929056e+03	2.744807e+03	1.675381e+03	0	3.963247e-04
7.100000e+08	1.247143e+12	0.000000e+00	4.914286e-01	3.936191e+13	2.270130e+14	1.323541e+14	5.922099e+03	2.741907e+03	1.673611e+03	0	3.947414e-04
7.200000e+08	1.232333e+12	0.000000e+00	4.914286e-01	3.902903e+13	2.249749e+14	1.317219e+14	5.915202e+03	2.739064e+03	1.671876e+03	0	3.931727e-04
7.300000e+08	1.217774e+12	0.000000e+00	4.914286e-01	3.870166e+13	2.229846e+14	1.310941e+14	5.908363e+03	2.736276e+03	1.670175e+03	0	3.916181e-04
7.400000e+08	1.203458e+12	0.000000e+00	4.914286e-01	3.837963e+13	2.210403e+14	1.304708e+14	5.901581e+03	2.733541e+03	1.668505e+03	0	3.900775e-04
7.500000e+08	1.189378e+12	0.000000e+00	4.914286e-01	3.806283e+13	2.191402e+14	1.298517e+14	5.894856e+03	2.730857e+03	1.666867e+03	0	3.885503e-04
7.600000e+08	1.175530e+12	0.000000e+00	4.914286e-01	3.775110e+13	2.172825e+14	1.292370e+14	5.888186e+03	2.728222e+03	1.665258e+03	0	3.870365e-04
7.700000e+08	1.161907e+12	0.000000e+00	4.914286e-01	3.744432e+13	2.154657e+14	1.286265e+14	5.881570e+03	2.725635e+03	1.663679e+03	0	3.855355e-04
7.800000e+08	1.148503e+12	0.000000e+00	4.914286e-01	3.714236e+13	2.136882e+14	1.280203e+14	5.875008e+03	2.723093e+03	1.662128e+03	0	3.840472e-04
7.900000e+08	1.135312e+12	0.000000e+00	4.914286e-01	3.684510e+13	2.119485e+14	1.274183e+14	5.868499e+03	2.720596e+03	1.660604e+03	0	3.825713e-04
8.000000e+08	1.122330e+12	0.000000e+00	4.914286e-01	3.655243e+13	2.102453e+14	1.268205e+14	5.862041e+03	2.718142e+03	1.659106e+03	0	3.811074e-04
8.100000e+08	1.109550e+12	0.000000e+00	4.914286e-01	3.626423e+13	2.085774e+14	1.262268e+14	5.855635e+03	2.715730e+03	1.657633e+03	0	3.796554e-04
8.200000e+08	1.096969e+12	0.000000e+00	4.914286e-01	3.598039e+13	2.069433e+14	1.256372e+14	5.849279e+03	2.713357e+03	1.656185e+03	0	3.782150e-04
8.300000e+08	1.084581e+12	0.000000e+00	4.914286e-01	3.570082e+13	2.053419e+14	1.250517e+14	5.842973e+03	2.711023e+03	1.654760e+03	0	3.767859e-04
8.400000e+08	1.072382e+12	0.000000e+00	4.914286e-01	3.542540e+13	2.037721e+14	1.244703e+14	5.836716e+03	2.708727e+03	1.653359e+03	0	3.753679e-04
8.500000e+08	1.060367e+12	0.000000e+00	4.914286e-01	3.515404e+13	2.022328e+14	1.238929e+14	5.830507e+03	2.706468e+03	1.651980e+03	0	3.739607e-04
8.600000e+08	1.048531e+12	0.000000e+00	4.914286e-01	3.488664e+13	2.007230e+14	1.233194e+14	5.824345e+03	2.704243e+03	1.650622e+03	0	3.725642e-04
8.700000e+08	1.036872e+12	0.000000e+00	4.914286e-01	3.462312e+13	1.992416e+14	1.227499e+14	5.818230e+03	2.702053e+03	1.649285e+03	0	3.711780e-04
8.800000e+08	1.025384e+12	0.000000e+00	4.914286e-01	3.436338e+13	1.977878e+14	1.221843e+14	5.812161e+03	2.699896e+03	1.647969e+03	0	3.698021e-04
8.900000e+08	1.014063e+12	0.000000e+00	4.914286e-01	3.410734e+13	1.963606e+14	1.216226e+14	5.806138e+03	2.697772e+03	1.646672e+03	0	3.684362e-04
9.000000e+08	1.002906e+12	0.000000e+00	4.914286e-01	3.385492e+13	1.949592e+14	1.210647e+14	5.800159e+03	2.695678e+03	1.645394e+03	0	3.670800e-04
9.100000e+08	9.919100e+11	0.000000e+00	4.914286e-01	3.360603e+13	1.935827e+14	1.205107e+14	5.794225e+03	2.693615e+03	1.644134e+03	0	3.657335e-04
9.200000e+08	9.810702e+11	0.000000e+00	4.914286e-01	3.336060e+13	1.922304e+14	1.199604e+14	5.788334e+03	2.691580e+03	1.642893e+03	0	3.643963e-04
9.300000e+08	9.703835e+11	0.000000e+00	4.914286e-01	3.311856e+13	1.909014e+14	1.194140e+14	5.782486e+03	2.689575e+03	1.641669e+03	0	3.630684e-04
9.400000e+08	9.598467e+11	0.000000e+00	4.914286e-01	3.287982e+13	1.895952e+14	1.188712e+14	5.776680e+03	2.687597e+03	1.640461e+03	0	3.617495e-04
9.500000e+08	9.494564e+11	0.000000e+00	4.914286e-01	3.264432e+13	1.883109e+14	1.183322e+14	5.770916e+03	2.685646e+03	1.639270e+03	0	3.604394e-04
9.600000e+08	9.392095e+11	0.000000e+00	4.914286e-01	3.241199e+13	1.870480e+14	1.177968e+14	5.765193e+03	2.683721e+03	1.638095e+03	0	3.591381e-04
9.700000e+08	9.291030e+11	0.000000e+00	4.914286e-01	3.218276e+13	1.858057e+14	1.172651e+14	5.759511e+03	2.681821e+03	1.636936e+03	0	3.578452e-04
9.800000e+08	9.191340e+11	0.000000e+00	4.914286e-01	3.195657e+13	1.845835e+14	1.167370e+14	5.753869e+03	2.679946e+03	1.635791e+03	0	3.565608e-04
9.900000e+08	9.092995e+11	0.000000e+00	4.914286e-01	3.173335e+13	1.833808e+14	1.162125e+14	5.748266e+03	2.678095e+03	1.634662e+03	0	3.552845e-04
1.000000e+09	8.995968e+11	0.000000e+00	4.914286e-01	3.151305e+13	1.821971e+14	1.156916e+14	5.742703e+03	2.676267e+03	1.633546e+03	0	3.540163e-04
1.010000e+09	8.900231e+11	0.000000e+00	4.914286e-01	3.129561e+13	1.810317e+14	1.151742e+14	5.737178e+03	2.674462e+03	1.632444e+03	0	3.527560e-04
1.020000e+09	8.805759e+11	0.000000e+00	4.914286e-01	3.108096e+13	1.798843e+14	1.146603e+14	5.731691e+03	2.672679e+03	1.631356e+03	0	3.515034e-04
1.030000e+09	8.712525e+11	0.000000e+00	4.914286e-01	3.086906e+13	1.787542e+14	1.141499e+14	5.726241e+03	2.670917e+03	1.630280e+03	0	3.502585e-04
1.040000e+09	8.620506e+11	0.000000e+00	4.914286e-01	3.065984e+13	1.776410e+14	1.136429e+14	5.720829e+03	2.669177e+03	1.629218e+03	0	3.490210e-04
1.050000e+09	8.529677e+11	0.000000e+00	4.914286e-01	3.045325e+13	1.765442e+14	1.131393e+14	5.715453e+03	2.667456e+03	1.628168e+03	0	3.477908e-04
1.060000e+09	8.440014e+11	0.000000e+00	4.914286e-01	3.024925e+13	1.754635e+14	1.126392e+14	5.710114e+03	2.665756e+03	1.627130e+03	0	3.465679e-04
1.070000e+09	8.351495e+11	0.000000e+00	4.914286e-01	3.004779e+13	1.743983e+14	1.121424e+14	5.704810e+03	2.664074e+03	1.626104e+03	0	3.453520e-04
1.080000e+09	8.264097e+11	0.000000e+00	4.914286e-01	2.984881e+13	1.733483e+14	1.116489e+14	5.699541e+03	2.662412e+03	1.625089e+03	0	3.441431e-04
1.090000e+09	8.177799e+11	0.000000e+00	4.914286e-01	2.965226e+13	1.723130e+14	1.111588e+14	5.694307e+03	2.660768e+03	1.624085e+03	0	3.429410e-04
1.100000e+09	8.092580e+11	0.000000e+00	4.914286e-01	2.945811e+13	1.712922e+14	1.106720e+14	5.689108e+03	2.659141e+03	1.623093e+03	0	3.417456e-04
1.110000e+09	8.008420e+11	0.000000e+00	4.914286e-01	2.926630e+13	1.702854e+14	1.101884e+14	5.683943e+03	2.657532e+03	1.622110e+03	0	3.405568e-04
1.120000e+09	7.925299e+11	0.000000e+00	4.914286e-01	2.907680e+13	1.692922e+14	1.097081e+14	5.678811e+03	2.655940e+03	1.621139e+03	0	3.393745e-04
1.130000e+09	7.843196e+11	0.000000e+00	4.914286e-01	2.888956e+13	1.683124e+14	1.092309e+14	5.673712e+03	2.654365e+03	1.620177e+03	0	3.381985e-04
1.140000e+09	7.762094e+11	0.000000e+00	4.914286e-01	2.870453e+13	1.673456e+14	1.087570e+14	5.668646e+03	2.652806e+03	1.619226e+03	0	3.370287e-04
1.150000e+09	7.681974e+11	0.000000e+00	4.914286e-01	2.852169e+13	1.663915e+14	1.082862e+14	5.663612e+03	2.651262e+03	1.618283e+03	0	3.358651e-04
1.160000e+09	7.602819e+11	0.000000e+00	4.914286e-01	2.834098e+13	1.654497e+14	1.078186e+14	5.658611e+03	2.649735e+03	1.617351e+03	0	3.347075e-04
1.170000e+09	7.524610e+11	0.000000e+00	4.914286e-01	2.816238e+13	1.645201e+14	1.073541e+14	5.653641e+03	2.648222e+03	1.616427e+03	0	3.335559e-04
1.180000e+09	7.447330e+11	0.000000e+00	4.914286e-01	2.798584e+13	1.636023e+14	1.068927e+14	5.648702e+03	2.646723e+03	1.615513e+03	0	3.324100e-04
1.190000e+09	7.370964e+11	0.000000e+00	4.914286e-01	2.781133e+13	1.626959e+14	1.064343e+14	5.643794e+03	2.645239e+03	1.614607e+03	0	3.312699e-04
1.200000e+09	7.295494e+11	0.000000e+00	4.914286e-01	2.763881e+13	1.618009e+14	1.059790e+14	5.638917e+03	2.643770e+03	1.613710e+03	0	3.301355e-04
1.210000e+09	7.220906e+11	0.000000e+00	4.914286e-01	2.746825e+13	1.609169e+14	1.055267e+14	5.634070e+03	2.642313e+03	1.612821e+03	0	3.290065e-04
1.220000e+09	7.147183e+11	0.000000e+00	4.914286e-01	2.729961e+13	1.600436e+14	1.050775e+14	5.629252e+03	2.640871e+03	1.611941e+03	0	3.278830e-04
1.230000e+09	7.074311e+11	0.000000e+00	4.914286e-01	2.713286e+13	1.591808e+14	1.046311e+14	5.624465e+03	2.639441e+03	1.611068e+03	0	3.267648e-04
1.240000e+09	7.002275e+11	0.000000e+00	4.914286e-01	2.696797e+13	1.583283e+14	1.041878e+14	5.619706e+03	2.638024e+03	1.610203e+03	0	3.256519e-04
1.250000e+09	6.931060e+11	0.000000e+00	4.914286e-01	2.680491e+13	1.574859e+14	1.037473e+14	5.614976e+03	2.636620e+03	1.609346e+03	0	3.245442e-04
1.260000e+09	6.860654e+11	0.000000e+00	4.914286e-01	2.664364e+13	1.566534e+14	1.033098e+14	5.610275e+03	2.635228e+03	1.608496e+03	0	3.234415e-04
1.270000e+09	6.791041e+11	0.000000e+00	4.914286e-01	2.648414e+13	1.558304e+14	1.028751e+14	5.605602e+03	2.633848e+03	1.607654e+03	0	3.223438e-04
1.280000e+09	6.722209e+11	0.000000e+00	4.914286e-01	2.632637e+13	1.550169e+14	1.024433e+14	5.600957e+03	2.632480e+03	1.606819e+03	0	3.212511e-04
1.290000e+09	6.654145e+11	0.000000e+00	4.914286e-01	2.617032e+13	1.542127e+14	1.020144e+14	5.596340e+03	2.631123e+03	1.605991e+03	0	3.201632e-04
1.300000e+09	6.586836e+11	0.000000e+00	4.914286e-01	2.601594e+13	1.534175e+14	1.015882e+14	5.591750e+03	2.629777e+03	1.605169e+03	0	3.190800e-04
1.310000e+09	6.520269e+11	0.000000e+00	4.914286e-01	2.586322e+13	1.526311e+14	1.011649e+14	5.587186e+03	2.628443e+03	1.604355e+03	0	3.180015e-04
1.320000e+09	6.454433e+11	0.000000e+00	4.914286e-01	2.571213e+13	1.518534e+14	1.007443e+14	5.582650e+03	2.627119e+03	1.603547e+03	0	3.169275e-04
1.330000e+09	6.389316e+11	0.000000e+00	4.914286e-01	2.556263e+13	1.510842e+14	1.003265e+14	5.578140e+03	2.625806e+03	1.602745e+03	0	3.158581e-04
1.340000e+09	6.324905e+11	0.000000e+00	4.914286e-01	2.541471e+13	1.503234e+14	9.991137e+13	5.573657e+03	2.624503e+03	1.601950e+03	0	3.147932e-04
1.350000e+09	6.261191e+11	0.000000e+00	4.914286e-01	2.526834e+13	1.495707e+14	9.949898e+13	5.569199e+03	2.623211e+03	1.601161e+03	0	3.137326e-04
1.360000e+09	6.198160e+11	0.000000e+00	4.914286e-01	2.512349e+13	1.488260e+14	9.908928e+13	5.564766e+03	2.621928e+03	1.600378e+03	0	3.126762e-04
