#t		Qconv[W]	Ri[Rp]		R*[Rp]		Qc[W]		Qm[W]		Qr[W]		Tcmb[K]		Tl[K]		Tup[K]		RiFlag		Bs[T]
0.000000e+00	1.938048e+13	0.000000e+00	4.827588e-01	3.594393e+14	2.636734e+15	3.802283e+14	1.051777e+04	5.077746e+03	2.566905e+03	0	9.633634e-04
1.000000e+07	1.879497e+13	0.000000e+00	4.827588e-01	3.510773e+14	2.475386e+15	3.781216e+14	1.048851e+04	5.025996e+03	2.540745e+03	0	9.535625e-04
2.000000e+07	1.823952e+13	0.000000e+00	4.827588e-01	3.431375e+14	2.332487e+15	3.760306e+14	1.045993e+04	4.978278e+03	2.516622e+03	0	9.440748e-04
3.000000e+07	1.771189e+13	0.000000e+00	4.827588e-01	3.355885e+14	2.205188e+15	3.739552e+14	1.043200e+04	4.934121e+03	2.494300e+03	0	9.348823e-04
4.000000e+07	1.721002e+13	0.000000e+00	4.827588e-01	3.284015e+14	2.091177e+15	3.718954e+14	1.040467e+04	4.893124e+03	2.473575e+03	0	9.259674e-04
5.000000e+07	1.673201e+13	0.000000e+00	4.827588e-01	3.215501e+14	1.988567e+15	3.698509e+14	1.037793e+04	4.854949e+03	2.454277e+03	0	9.173140e-04
6.000000e+07	1.627616e+13	0.000000e+00	4.827588e-01	3.150103e+14	1.895799e+15	3.678216e+14	1.035174e+04	4.819301e+03	2.436256e+03	0	9.089066e-04
7.000000e+07	1.584088e+13	0.000000e+00	4.827588e-01	3.087600e+14	1.811579e+15	3.658075e+14	1.032609e+04	4.785930e+03	2.419386e+03	0	9.007309e-04
8.000000e+07	1.542475e+13	0.000000e+00	4.827588e-01	3.027793e+14	1.734824e+15	3.638083e+14	1.030093e+04	4.754615e+03	2.403556e+03	0	8.927736e-04
9.000000e+07	1.502646e+13	0.000000e+00	4.827588e-01	2.970499e+14	1.664620e+15	3.618240e+14	1.027627e+04	4.725166e+03	2.388669e+03	0	8.850223e-04
1.000000e+08	1.464483e+13	0.000000e+00	4.827588e-01	2.915552e+14	1.600194e+15	3.598544e+14	1.025206e+04	4.697414e+03	2.374640e+03	0	8.774655e-04
1.100000e+08	1.427876e+13	0.000000e+00	4.827588e-01	2.862798e+14	1.540885e+15	3.578994e+14	1.022831e+04	4.671211e+03	2.361394e+03	0	8.700926e-04
1.200000e+08	1.392727e+13	0.000000e+00	4.827588e-01	2.812101e+14	1.486128e+15	3.559590e+14	1.020498e+04	4.646427e+03	2.348865e+03	0	8.628937e-04
1.300000e+08	1.358944e+13	0.000000e+00	4.827588e-01	2.763331e+14	1.435433e+15	3.540329e+14	1.018206e+04	4.622945e+03	2.336994e+03	0	8.558595e-04
1.400000e+08	1.326444e+13	0.000000e+00	4.827588e-01	2.716371e+14	1.388380e+15	3.521210e+14	1.015954e+04	4.600661e+03	2.325729e+03	0	8.489815e-04
1.500000e+08	1.295150e+13	0.000000e+00	4.827588e-01	2.671116e+14	1.344600e+15	3.502233e+14	1.013740e+04	4.579482e+03	2.315023e+03	0	8.422518e-04
1.600000e+08	1.264992e+13	0.000000e+00	4.827588e-01	2.627465e+14	1.303774e+15	3.483396e+14	1.011562e+04	4.559326e+03	2.304833e+03	0	8.356630e-04
1.700000e+08	1.235904e+13	0.000000e+00	4.827588e-01	2.585328e+14	1.265618e+15	3.464698e+14	1.009420e+04	4.540116e+03	2.295123e+03	0	8.292082e-04
1.800000e+08	1.207828e+13	0.000000e+00	4.827588e-01	2.544620e+14	1.229886e+15	3.446138e+14	1.007312e+04	4.521786e+03	2.285856e+03	0	8.228808e-04
1.900000e+08	1.180706e+13	0.000000e+00	4.827588e-01	2.505264e+14	1.196359e+15	3.427715e+14	1.005237e+04	4.504273e+03	2.277003e+03	0	8.166750e-04
2.000000e+08	1.154489e+13	0.000000e+00	4.827588e-01	2.467187e+14	1.164844e+15	3.409427e+14	1.003195e+04	4.487521e+03	2.268535e+03	0	8.105851e-04
2.100000e+08	1.129129e+13	0.000000e+00	4.827588e-01	2.430324e+14	1.135166e+15	3.391274e+14	1.001183e+04	4.471481e+03	2.260426e+03	0	8.046057e-04
2.200000e+08	1.104581e+13	0.000000e+00	4.827588e-01	2.394611e+14	1.107174e+15	3.373254e+14	9.992007e+03	4.456106e+03	2.252653e+03	0	7.987320e-04
2.300000e+08	1.080804e+13	0.000000e+00	4.827588e-01	2.359992e+14	1.080730e+15	3.355366e+14	9.972477e+03	4.441353e+03	2.245195e+03	0	7.929593e-04
2.400000e+08	1.057760e+13	0.000000e+00	4.827588e-01	2.326413e+14	1.055709e+15	3.337609e+14	9.953228e+03	4.427183e+03	2.238032e+03	0	7.872832e-04
2.500000e+08	1.035414e+13	0.000000e+00	4.827588e-01	2.293823e+14	1.032003e+15	3.319982e+14	9.934252e+03	4.413561e+03	2.231146e+03	0	7.816997e-04
2.600000e+08	1.013732e+13	0.000000e+00	4.827588e-01	2.262175e+14	1.009509e+15	3.302485e+14	9.915541e+03	4.400454e+03	2.224520e+03	0	7.762047e-04
2.700000e+08	9.926826e+12	0.000000e+00	4.827588e-01	2.231427e+14	9.881388e+14	3.285115e+14	9.897087e+03	4.387832e+03	2.218140e+03	0	7.707948e-04
2.800000e+08	9.722377e+12	0.000000e+00	4.827588e-01	2.201537e+14	9.678100e+14	3.267872e+14	9.878883e+03	4.375667e+03	2.211990e+03	0	7.654664e-04
2.900000e+08	9.523695e+12	0.000000e+00	4.827588e-01	2.172467e+14	9.484484e+14	3.250756e+14	9.860921e+03	4.363933e+03	2.206058e+03	0	7.602162e-04
3.000000e+08	9.330526e+12	0.000000e+00	4.827588e-01	2.144181e+14	9.299867e+14	3.233763e+14	9.843196e+03	4.352606e+03	2.200332e+03	0	7.550412e-04
3.100000e+08	9.142628e+12	0.000000e+00	4.827588e-01	2.116644e+14	9.123632e+14	3.216895e+14	9.825701e+03	4.341664e+03	2.194801e+03	0	7.499385e-04
3.200000e+08	8.959776e+12	0.000000e+00	4.827588e-01	2.089826e+14	8.955219e+14	3.200149e+14	9.808430e+03	4.331087e+03	2.189454e+03	0	7.449052e-04
3.300000e+08	8.781757e+12	0.000000e+00	4.827588e-01	2.063696e+14	8.794115e+14	3.183525e+14	9.791376e+03	4.320855e+03	2.184281e+03	0	7.399388e-04
3.400000e+08	8.608372e+12	0.000000e+00	4.827588e-01	2.038226e+14	8.639848e+14	3.167022e+14	9.774535e+03	4.310950e+03	2.179274e+03	0	7.350366e-04
3.500000e+08	8.439432e+12	0.000000e+00	4.827588e-01	2.013390e+14	8.491988e+14	3.150639e+14	9.757901e+03	4.301356e+03	2.174424e+03	0	7.301964e-04
3.600000e+08	8.274757e+12	0.000000e+00	4.827588e-01	1.989162e+14	8.350136e+14	3.134374e+14	9.741469e+03	4.292058e+03	2.169724e+03	0	7.254159e-04
3.700000e+08	8.114181e+12	0.000000e+00	4.827588e-01	1.965518e+14	8.213929e+14	3.118227e+14	9.725234e+03	4.283040e+03	2.165165e+03	0	7.206928e-04
3.800000e+08	7.957544e+12	0.000000e+00	4.827588e-01	1.942437e+14	8.083028e+14	3.102197e+14	9.709192e+03	4.274290e+03	2.160742e+03	0	7.160252e-04
3.900000e+08	7.804695e+12	0.000000e+00	4.827588e-01	1.919896e+14	7.957123e+14	3.086283e+14	9.693337e+03	4.265794e+03	2.156447e+03	0	7.114111e-04
4.000000e+08	7.655491e+12	0.000000e+00	4.827588e-01	1.897876e+14	7.835926e+14	3.070484e+14	9.677665e+03	4.257540e+03	2.152275e+03	0	7.068485e-04
4.100000e+08	7.509798e+12	0.000000e+00	4.827588e-01	1.876358e+14	7.719169e+14	3.054799e+14	9.662172e+03	4.249518e+03	2.148219e+03	0	7.023356e-04
4.200000e+08	7.367486e+12	0.000000e+00	4.827588e-01	1.855324e+14	7.606607e+14	3.039226e+14	9.646855e+03	4.241717e+03	2.144275e+03	0	6.978709e-04
4.300000e+08	7.228434e+12	0.000000e+00	4.827588e-01	1.834755e+14	7.498008e+14	3.023766e+14	9.631708e+03	4.234126e+03	2.140438e+03	0	6.934525e-04
4.400000e+08	7.092527e+12	0.000000e+00	4.827588e-01	1.814637e+14	7.393161e+14	3.008417e+14	9.616729e+03	4.226737e+03	2.136703e+03	0	6.890789e-04
4.500000e+08	6.959653e+12	0.000000e+00	4.827588e-01	1.794953e+14	7.291866e+14	2.993179e+14	9.601914e+03	4.219540e+03	2.133065e+03	0	6.847486e-04
4.600000e+08	6.829708e+12	0.000000e+00	4.827588e-01	1.775688e+14	7.193939e+14	2.978050e+14	9.587259e+03	4.212528e+03	2.129520e+03	0	6.804601e-04
4.700000e+08	6.702592e+12	0.000000e+00	4.827588e-01	1.756829e+14	7.099206e+14	2.963029e+14	9.572760e+03	4.205693e+03	2.126064e+03	0	6.762120e-04
4.800000e+08	6.578210e+12	0.000000e+00	4.827588e-01	1.738361e+14	7.007507e+14	2.948116e+14	9.558415e+03	4.199026e+03	2.122694e+03	0	6.720030e-04
4.900000e+08	6.456471e+12	0.000000e+00	4.827588e-01	1.720273e+14	6.918691e+14	2.933310e+14	9.544221e+03	4.192522e+03	2.119406e+03	0	6.678317e-04
5.000000e+08	6.337289e+12	0.000000e+00	4.827588e-01	1.702551e+14	6.832617e+14	2.918609e+14	9.530173e+03	4.186173e+03	2.116197e+03	0	6.636969e-04
5.100000e+08	6.220580e+12	0.000000e+00	4.827588e-01	1.685185e+14	6.749152e+14	2.904014e+14	9.516270e+03	4.179974e+03	2.113063e+03	0	6.595974e-04
5.200000e+08	6.106267e+12	0.000000e+00	4.827588e-01	1.668163e+14	6.668174e+14	2.889523e+14	9.502508e+03	4.173917e+03	2.110001e+03	0	6.555320e-04
5.300000e+08	5.994273e+12	0.000000e+00	4.827588e-01	1.651473e+14	6.589565e+14	2.875135e+14	9.488885e+03	4.167999e+03	2.107009e+03	0	6.514996e-04
5.400000e+08	5.884526e+12	0.000000e+00	4.827588e-01	1.635107e+14	6.513217e+14	2.860850e+14	9.475398e+03	4.162212e+03	2.104084e+03	0	6.474990e-04
5.500000e+08	5.776957e+12	0.000000e+00	4.827588e-01	1.619054e+14	6.439028e+14	2.846666e+14	9.462043e+03	4.156553e+03	2.101223e+03	0	6.435293e-04
5.600000e+08	5.671500e+12	0.000000e+00	4.827588e-01	1.603304e+14	6.366899e+14	2.832583e+14	9.448820e+03	4.151016e+03	2.098424e+03	0	6.395894e-04
5.700000e+08	5.568091e+12	0.000000e+00	4.827588e-01	1.587850e+14	6.296741e+14	2.818600e+14	9.435725e+03	4.145597e+03	2.095685e+03	0	6.356783e-04
5.800000e+08	5.466670e+12	0.000000e+00	4.827588e-01	1.572681e+14	6.228468e+14	2.804716e+14	9.422755e+03	4.140292e+03	2.093003e+03	0	6.317951e-04
5.900000e+08	5.367178e+12	0.000000e+00	4.827588e-01	1.557791e+14	6.162000e+14	2.790931e+14	9.409910e+03	4.135096e+03	2.090376e+03	0	6.279388e-04
6.000000e+08	5.269559e+12	0.000000e+00	4.827588e-01	1.543170e+14	6.097258e+14	2.777244e+14	9.397185e+03	4.130005e+03	2.087803e+03	0	6.241084e-04
6.100000e+08	5.173760e+12	0.000000e+00	4.827588e-01	1.528812e+14	6.034173e+14	2.763653e+14	9.384579e+03	4.125015e+03	2.085280e+03	0	6.203032e-04
6.200000e+08	5.079728e+12	0.000000e+00	4.827588e-01	1.514708e+14	5.972675e+14	2.750158e+14	9.372091e+03	4.120124e+03	2.082808e+03	0	6.165223e-04
6.300000e+08	4.987415e+12	0.000000e+00	4.827588e-01	1.500853e+14	5.912700e+14	2.736758e+14	9.359717e+03	4.115327e+03	2.080383e+03	0	6.127648e-04
6.400000e+08	4.896773e+12	0.000000e+00	4.827588e-01	1.487238e+14	5.854187e+14	2.723453e+14	9.347456e+03	4.110621e+03	2.078004e+03	0	6.090299e-04
6.500000e+08	4.807756e+12	0.000000e+00	4.827588e-01	1.473859e+14	5.797078e+14	2.710242e+14	9.335306e+03	4.106003e+03	2.075670e+03	0	6.053168e-04
6.600000e+08	4.720319e+12	0.000000e+00	4.827588e-01	1.460707e+14	5.741319e+14	2.697124e+14	9.323265e+03	4.101471e+03	2.073378e+03	0	6.016248e-04
6.700000e+08	4.634420e+12	0.000000e+00	4.827588e-01	1.447778e+14	5.686857e+14	2.684097e+14	9.311331e+03	4.097021e+03	2.071129e+03	0	5.979530e-04
6.800000e+08	4.550018e+12	0.000000e+00	4.827588e-01	1.435065e+14	5.633643e+14	2.671163e+14	9.299503e+03	4.092650e+03	2.068919e+03	0	5.943008e-04
6.900000e+08	4.467075e+12	0.000000e+00	4.827588e-01	1.422564e+14	5.581630e+14	2.658319e+14	9.287778e+03	4.088356e+03	2.066749e+03	0	5.906674e-04
7.000000e+08	4.385551e+12	0.000000e+00	4.827588e-01	1.410267e+14	5.530774e+14	2.645565e+14	9.276155e+03	4.084137e+03	2.064616e+03	0	5.870521e-04
7.100000e+08	4.305410e+12	0.000000e+00	4.827588e-01	1.398171e+14	5.481033e+14	2.632900e+14	9.264632e+03	4.079990e+03	2.062519e+03	0	5.834542e-04
7.200000e+08	4.226617e+12	0.000000e+00	4.827588e-01	1.386270e+14	5.432365e+14	2.620324e+14	9.253207e+03	4.075912e+03	2.060458e+03	0	5.798731e-04
7.300000e+08	4.149138e+12	0.000000e+00	4.827588e-01	1.374560e+14	5.384734e+14	2.607836e+14	9.241880e+03	4.071902e+03	2.058431e+03	0	5.763079e-04
7.400000e+08	4.072940e+12	0.000000e+00	4.827588e-01	1.363035e+14	5.338101e+14	2.595435e+14	9.230648e+03	4.067958e+03	2.056437e+03	0	5.727582e-04
7.500000e+08	3.997991e+12	0.000000e+00	4.827588e-01	1.351691e+14	5.292433e+14	2.583121e+14	9.219510e+03	4.064077e+03	2.054475e+03	0	5.692231e-04
7.600000e+08	3.924260e+12	0.000000e+00	4.827588e-01	1.340524e+14	5.247697e+14	2.570892e+14	9.208464e+03	4.060257e+03	2.052544e+03	0	5.657022e-04
7.700000e+08	3.851718e+12	0.000000e+00	4.827588e-01	1.329529e+14	5.203859e+14	2.558748e+14	9.197510e+03	4.056497e+03	2.050643e+03	0	5.621947e-04
7.800000e+08	3.780336e+12	0.000000e+00	4.827588e-01	1.318703e+14	5.160892e+14	2.546689e+14	9.186645e+03	4.052795e+03	2.048771e+03	0	5.587001e-04
7.900000e+08	3.710086e+12	0.000000e+00	4.827588e-01	1.308041e+14	5.118764e+14	2.534714e+14	9.175868e+03	4.049149e+03	2.046928e+03	0	5.552177e-04
8.000000e+08	3.640942e+12	0.000000e+00	4.827588e-01	1.297540e+14	5.077450e+14	2.522821e+14	9.165178e+03	4.045557e+03	2.045113e+03	0	5.517469e-04
8.100000e+08	3.572877e+12	0.000000e+00	4.827588e-01	1.287196e+14	5.036922e+14	2.511011e+14	9.154574e+03	4.042018e+03	2.043324e+03	0	5.482870e-04
8.200000e+08	3.505866e+12	0.000000e+00	4.827588e-01	1.277005e+14	4.997155e+14	2.499283e+14	9.144054e+03	4.038531e+03	2.041561e+03	0	5.448376e-04
8.300000e+08	3.439886e+12	0.000000e+00	4.827588e-01	1.266964e+14	4.958126e+14	2.487636e+14	9.133617e+03	4.035094e+03	2.039823e+03	0	5.413980e-04
8.400000e+08	3.374912e+12	0.000000e+00	4.827588e-01	1.257070e+14	4.919811e+14	2.476069e+14	9.123262e+03	4.031705e+03	2.038110e+03	0	5.379676e-04
8.500000e+08	3.310922e+12	0.000000e+00	4.827588e-01	1.247318e+14	4.882188e+14	2.464582e+14	9.112987e+03	4.028363e+03	2.036421e+03	0	5.345458e-04
8.600000e+08	3.247894e+12	0.000000e+00	4.827588e-01	1.237707e+14	4.845236e+14	2.453174e+14	9.102793e+03	4.025067e+03	2.034754e+03	0	5.311321e-04
8.700000e+08	3.185806e+12	0.000000e+00	4.827588e-01	1.228233e+14	4.808934e+14	2.441845e+14	9.092676e+03	4.021815e+03	2.033111e+03	0	5.277259e-04
8.800000e+08	3.124637e+12	0.000000e+00	4.827588e-01	1.218892e+14	4.773264e+14	2.430594e+14	9.082637e+03	4.018607e+03	2.031489e+03	0	5.243265e-04
8.900000e+08	3.064367e+12	0.000000e+00	4.827588e-01	1.209683e+14	4.738206e+14	2.419420e+14	9.072674e+03	4.015441e+03	2.029889e+03	0	5.209334e-04
9.000000e+08	3.004977e+12	0.000000e+00	4.827588e-01	1.200602e+14	4.703743e+14	2.408322e+14	9.062786e+03	4.012317e+03	2.028309e+03	0	5.175461e-04
9.100000e+08	2.946448e+12	0.000000e+00	4.827588e-01	1.191647e+14	4.669857e+14	2.397301e+14	9.052972e+03	4.009232e+03	2.026749e+03	0	5.141639e-04
9.200000e+08	2.888761e+12	0.000000e+00	4.827588e-01	1.182815e+14	4.636531e+14	2.386355e+14	9.043231e+03	4.006186e+03	2.025210e+03	0	5.107862e-04
9.300000e+08	2.831899e+12	0.000000e+00	4.827588e-01	1.174103e+14	4.603751e+14	2.375484e+14	9.033562e+03	4.003178e+03	2.023689e+03	0	5.074126e-04
9.400000e+08	2.775844e+12	0.000000e+00	4.827588e-01	1.165509e+14	4.571501e+14	2.364688e+14	9.023964e+03	4.000207e+03	2.022187e+03	0	5.040423e-04
9.500000e+08	2.720579e+12	0.000000e+00	4.827588e-01	1.157031e+14	4.539765e+14	2.353965e+14	9.014436e+03	3.997272e+03	2.020703e+03	0	5.006748e-04
9.600000e+08	2.666087e+12	0.000000e+00	4.827588e-01	1.148666e+14	4.508531e+14	2.343315e+14	9.004977e+03	3.994372e+03	2.019237e+03	0	4.973095e-04
9.700000e+08	2.612354e+12	0.000000e+00	4.827588e-01	1.140411e+14	4.477784e+14	2.332738e+14	8.995587e+03	3.991506e+03	2.017789e+03	0	4.939458e-04
9.800000e+08	2.559363e+12	0.000000e+00	4.827588e-01	1.132266e+14	4.447511e+14	2.322233e+14	8.986264e+03	3.988674e+03	2.016357e+03	0	4.905831e-04
9.900000e+08	2.507100e+12	0.000000e+00	4.827588e-01	1.124226e+14	4.417700e+14	2.311799e+14	8.977007e+03	3.985874e+03	2.014941e+03	0	4.872208e-04
1.000000e+09	2.455549e+12	0.000000e+00	4.827588e-01	1.116292e+14	4.388338e+14	2.301436e+14	8.967816e+03	3.983106e+03	2.013542e+03	0	4.838583e-04
1.010000e+09	2.404697e+12	0.000000e+00	4.827588e-01	1.108459e+14	4.359414e+14	2.291143e+14	8.958689e+03	3.980369e+03	2.012159e+03	0	4.804949e-04
1.020000e+09	2.354529e+12	0.000000e+00	4.827588e-01	1.100727e+14	4.330918e+14	2.280920e+14	8.949627e+03	3.977662e+03	2.010790e+03	0	4.771299e-04
1.030000e+09	2.305033e+12	0.000000e+00	4.827588e-01	1.093093e+14	4.302837e+14	2.270766e+14	8.940627e+03	3.974984e+03	2.009437e+03	0	4.737629e-04
1.040000e+09	2.256195e+12	0.000000e+00	4.827588e-01	1.085556e+14	4.275161e+14	2.260681e+14	8.931690e+03	3.972336e+03	2.008098e+03	0	4.703930e-04
1.050000e+09	2.208002e+12	0.000000e+00	4.827588e-01	1.078114e+14	4.247880e+14	2.250664e+14	8.922814e+03	3.969716e+03	2.006773e+03	0	4.670196e-04
1.060000e+09	2.160443e+12	0.000000e+00	4.827588e-01	1.070764e+14	4.220986e+14	2.240714e+14	8.913999e+03	3.967123e+03	2.005463e+03	0	4.636421e-04
1.070000e+09	2.113504e+12	0.000000e+00	4.827588e-01	1.063506e+14	4.194467e+14	2.230832e+14	8.905244e+03	3.964557e+03	2.004165e+03	0	4.602597e-04
1.080000e+09	2.067174e+12	0.000000e+00	4.827588e-01	1.056337e+14	4.168315e+14	2.221016e+14	8.896548e+03	3.962017e+03	2.002882e+03	0	4.568717e-04
1.090000e+09	2.021441e+12	0.000000e+00	4.827588e-01	1.049256e+14	4.142522e+14	2.211265e+14	8.887911e+03	3.959504e+03	2.001611e+03	0	4.534774e-04
1.100000e+09	1.976295e+12	0.000000e+00	4.827588e-01	1.042261e+14	4.117078e+14	2.201581e+14	8.879331e+03	3.957015e+03	2.000353e+03	0	4.500760e-04
1.110000e+09	1.931724e+12	0.000000e+00	4.827588e-01	1.035350e+14	4.091976e+14	2.191961e+14	8.870809e+03	3.954551e+03	1.999107e+03	0	4.466668e-04
1.120000e+09	1.887718e+12	0.000000e+00	4.827588e-01	1.028523e+14	4.067208e+14	2.182406e+14	8.862343e+03	3.952110e+03	1.997873e+03	0	4.432489e-04
1.130000e+09	1.844267e+12	0.000000e+00	4.827588e-01	1.021777e+14	4.042765e+14	2.172915e+14	8.853932e+03	3.949694e+03	1.996652e+03	0	4.398216e-04
1.140000e+09	1.801360e+12	0.000000e+00	4.827588e-01	1.015112e+14	4.018642e+14	2.163487e+14	8.845577e+03	3.947300e+03	1.995442e+03	0	4.363840e-04
1.150000e+09	1.758987e+12	0.000000e+00	4.827588e-01	1.008525e+14	3.994829e+14	2.154122e+14	8.837276e+03	3.944929e+03	1.994243e+03	0	4.329352e-04
1.160000e+09	1.717139e+12	0.000000e+00	4.827588e-01	1.002016e+14	3.971321e+14	2.144820e+14	8.829029e+03	3.942580e+03	1.993056e+03	0	4.294743e-04
1.170000e+09	1.675807e+12	0.000000e+00	4.827588e-01	9.955825e+13	3.948111e+14	2.135579e+14	8.820835e+03	3.940253e+03	1.991879e+03	0	4.260003e-04
1.180000e+09	1.634981e+12	0.000000e+00	4.827588e-01	9.892238e+13	3.925192e+14	2.126400e+14	8.812693e+03	3.937946e+03	1.990713e+03	0	4.225124e-04
1.190000e+09	1.594652e+12	0.000000e+00	4.827588e-01	9.829384e+13	3.902558e+14	2.117282e+14	8.804603e+03	3.935661e+03	1.989558e+03	0	4.190095e-04
1.200000e+09	1.554811e+12	0.000000e+00	4.827588e-01	9.767251e+13	3.880203e+14	2.108225e+14	8.796565e+03	3.933395e+03	1.988413e+03	0	4.154906e-04
1.210000e+09	1.515451e+12	0.000000e+00	4.827588e-01	9.705827e+13	3.858121e+14	2.099228e+14	8.788577e+03	3.931150e+03	1.987277e+03	0	4.119545e-04
1.220000e+09	1.476563e+12	0.000000e+00	4.827588e-01	9.645100e+13	3.836306e+14	2.090290e+14	8.780639e+03	3.928924e+03	1.986152e+03	0	4.084002e-04
1.230000e+09	1.438138e+12	0.000000e+00	4.827588e-01	9.585057e+13	3.814752e+14	2.081412e+14	8.772751e+03	3.926717e+03	1.985036e+03	0	4.048264e-04
1.240000e+09	1.400169e+12	0.000000e+00	4.827588e-01	9.525688e+13	3.793455e+14	2.072592e+14	8.764912e+03	3.924529e+03	1.983930e+03	0	4.012319e-04
1.250000e+09	1.362648e+12	0.000000e+00	4.827588e-01	9.466982e+13	3.772409e+14	2.063830e+14	8.757121e+03	3.922359e+03	1.982833e+03	0	3.976154e-04
1.260000e+09	1.325567e+12	0.000000e+00	4.827588e-01	9.408926e+13	3.751608e+14	2.055126e+14	8.749379e+03	3.920207e+03	1.981746e+03	0	3.939754e-04
1.270000e+09	1.288919e+12	0.000000e+00	4.827588e-01	9.351511e+13	3.731048e+14	2.046479e+14	8.741683e+03	3.918073e+03	1.980667e+03	0	3.903107e-04
1.280000e+09	1.252696e+12	0.000000e+00	4.827588e-01	9.294727e+13	3.710725e+14	2.037890e+14	8.734035e+03	3.915956e+03	1.979597e+03	0	3.866196e-04
1.290000e+09	1.216893e+12	0.000000e+00	4.827588e-01	9.238562e+13	3.690633e+14	2.029357e+14	8.726433e+03	3.913856e+03	1.978535e+03	0	3.829006e-04
1.300000e+09	1.181501e+12	0.000000e+00	4.827588e-01	9.183007e+13	3.670768e+14	2.020879e+14	8.718876e+03	3.911773e+03	1.977482e+03	0	3.791519e-04
1.310000e+09	1.146514e+12	0.000000e+00	4.827588e-01	9.128052e+13	3.651125e+14	2.012458e+14	8.711366e+03	3.909707e+03	1.976437e+03	0	3.753718e-04
1.320000e+09	1.111925e+12	0.000000e+00	4.827588e-01	9.073687e+13	3.631701e+14	2.004091e+14	8.703899e+03	3.907656e+03	1.975401e+03	0	3.715584e-04
1.330000e+09	1.077728e+12	0.000000e+00	4.827588e-01	9.019904e+13	3.612491e+14	1.995779e+14	8.696478e+03	3.905621e+03	1.974372e+03	0	3.677096e-04
1.340000e+09	1.043916e+12	0.000000e+00	4.827588e-01	8.966692e+13	3.593490e+14	1.987522e+14	8.689100e+03	3.903602e+03	1.973351e+03	0	3.638233e-04
1.350000e+09	1.010484e+12	0.000000e+00	4.827588e-01	8.914043e+13	3.574696e+14	1.979318e+14	8.681766e+03	3.901597e+03	1.972338e+03	0	3.598972e-04
1.360000e+09	9.774253e+11	0.000000e+00	4.827588e-01	8.861949e+13	3.556105e+14	1.971168e+14	8.674474e+03	3.899608e+03	1.971332e+03	0	3.559288e-04
