#t		Qconv[W]	Ri[Rp]		R*[Rp]		Qc[W]		Qm[W]		Qr[W]		Tcmb[K]		Tl[K]		Tup[K]		RiFlag		Bs[T]
0.000000e+00	2.332396e+13	0.000000e+00	4.827587e-01	4.230931e+14	2.723543e+15	4.178897e+14	1.124537e+04	5.320904e+03	2.609800e+03	0	1.020809e-03
1.000000e+07	2.263225e+13	0.000000e+00	4.827587e-01	4.137757e+14	2.574016e+15	4.155743e+14	1.121480e+04	5.273422e+03	2.586511e+03	0	1.010616e-03
2.000000e+07	2.197426e+13	0.000000e+00	4.827587e-01	4.049037e+14	2.440164e+15	4.132762e+14	1.118489e+04	5.229353e+03	2.564896e+03	0	1.000726e-03
3.000000e+07	2.134751e+13	0.000000e+00	4.827587e-01	3.964446e+14	2.319750e+15	4.109953e+14	1.115563e+04	5.188328e+03	2.544774e+03	0	9.911195e-04
4.000000e+07	2.074976e+13	0.000000e+00	4.827587e-01	3.883690e+14	2.210928e+15	4.087314e+14	1.112697e+04	5.150029e+03	2.525989e+03	0	9.817811e-04
5.000000e+07	2.017896e+13	0.000000e+00	4.827587e-01	3.806498e+14	2.112169e+15	4.064844e+14	1.109890e+04	5.114183e+03	2.508407e+03	0	9.726946e-04
6.000000e+07	1.963323e+13	0.000000e+00	4.827587e-01	3.732624e+14	2.022192e+15	4.042541e+14	1.107138e+04	5.080552e+03	2.491912e+03	0	9.638456e-04
7.000000e+07	1.911086e+13	0.000000e+00	4.827587e-01	3.661845e+14	1.939918e+15	4.020405e+14	1.104439e+04	5.048930e+03	2.476402e+03	0	9.552206e-04
8.000000e+07	1.861032e+13	0.000000e+00	4.827587e-01	3.593956e+14	1.864435e+15	3.998433e+14	1.101791e+04	5.019135e+03	2.461788e+03	0	9.468071e-04
9.000000e+07	1.813016e+13	0.000000e+00	4.827587e-01	3.528770e+14	1.794964e+15	3.976624e+14	1.099191e+04	4.991007e+03	2.447992e+03	0	9.385934e-04
1.000000e+08	1.766910e+13	0.000000e+00	4.827587e-01	3.466116e+14	1.730837e+15	3.954978e+14	1.096639e+04	4.964403e+03	2.434943e+03	0	9.305687e-04
1.100000e+08	1.722595e+13	0.000000e+00	4.827587e-01	3.405837e+14	1.671480e+15	3.933492e+14	1.094132e+04	4.939200e+03	2.422582e+03	0	9.227230e-04
1.200000e+08	1.679961e+13	0.000000e+00	4.827587e-01	3.347791e+14	1.616395e+15	3.912165e+14	1.091668e+04	4.915284e+03	2.410851e+03	0	9.150469e-04
1.300000e+08	1.638908e+13	0.000000e+00	4.827587e-01	3.291844e+14	1.565150e+15	3.890996e+14	1.089246e+04	4.892556e+03	2.399703e+03	0	9.075317e-04
1.400000e+08	1.599345e+13	0.000000e+00	4.827587e-01	3.237876e+14	1.517369e+15	3.869984e+14	1.086864e+04	4.870925e+03	2.389094e+03	0	9.001695e-04
1.500000e+08	1.561185e+13	0.000000e+00	4.827587e-01	3.185775e+14	1.472719e+15	3.849127e+14	1.084521e+04	4.850310e+03	2.378983e+03	0	8.929525e-04
1.600000e+08	1.524351e+13	0.000000e+00	4.827587e-01	3.135436e+14	1.430909e+15	3.828425e+14	1.082216e+04	4.830639e+03	2.369335e+03	0	8.858738e-04
1.700000e+08	1.488769e+13	0.000000e+00	4.827587e-01	3.086765e+14	1.391684e+15	3.807875e+14	1.079947e+04	4.811846e+03	2.360117e+03	0	8.789269e-04
1.800000e+08	1.454374e+13	0.000000e+00	4.827587e-01	3.039673e+14	1.354814e+15	3.787476e+14	1.077713e+04	4.793869e+03	2.351300e+03	0	8.721054e-04
1.900000e+08	1.421103e+13	0.000000e+00	4.827587e-01	2.994078e+14	1.320099e+15	3.767228e+14	1.075513e+04	4.776656e+03	2.342857e+03	0	8.654037e-04
2.000000e+08	1.388897e+13	0.000000e+00	4.827587e-01	2.949904e+14	1.287356e+15	3.747129e+14	1.073346e+04	4.760155e+03	2.334763e+03	0	8.588163e-04
2.100000e+08	1.357704e+13	0.000000e+00	4.827587e-01	2.907079e+14	1.256426e+15	3.727177e+14	1.071210e+04	4.744321e+03	2.326997e+03	0	8.523382e-04
2.200000e+08	1.327473e+13	0.000000e+00	4.827587e-01	2.865538e+14	1.227163e+15	3.707372e+14	1.069106e+04	4.729113e+03	2.319538e+03	0	8.459645e-04
2.300000e+08	1.298157e+13	0.000000e+00	4.827587e-01	2.825219e+14	1.199437e+15	3.687713e+14	1.067031e+04	4.714492e+03	2.312366e+03	0	8.396907e-04
2.400000e+08	1.269714e+13	0.000000e+00	4.827587e-01	2.786064e+14	1.173131e+15	3.668197e+14	1.064986e+04	4.700422e+03	2.305466e+03	0	8.335126e-04
2.500000e+08	1.242101e+13	0.000000e+00	4.827587e-01	2.748020e+14	1.148140e+15	3.648825e+14	1.062969e+04	4.686873e+03	2.298820e+03	0	8.274262e-04
2.600000e+08	1.215282e+13	0.000000e+00	4.827587e-01	2.711037e+14	1.124367e+15	3.629594e+14	1.060979e+04	4.673812e+03	2.292414e+03	0	8.214276e-04
2.700000e+08	1.189220e+13	0.000000e+00	4.827587e-01	2.675066e+14	1.101726e+15	3.610504e+14	1.059016e+04	4.661214e+03	2.286235e+03	0	8.155132e-04
2.800000e+08	1.163882e+13	0.000000e+00	4.827587e-01	2.640064e+14	1.080137e+15	3.591553e+14	1.057078e+04	4.649052e+03	2.280269e+03	0	8.096798e-04
2.900000e+08	1.139237e+13	0.000000e+00	4.827587e-01	2.605989e+14	1.059529e+15	3.572741e+14	1.055166e+04	4.637302e+03	2.274506e+03	0	8.039239e-04
3.000000e+08	1.115254e+13	0.000000e+00	4.827587e-01	2.572802e+14	1.039836e+15	3.554066e+14	1.053279e+04	4.625942e+03	2.268935e+03	0	7.982426e-04
3.100000e+08	1.091907e+13	0.000000e+00	4.827587e-01	2.540466e+14	1.020998e+15	3.535527e+14	1.051416e+04	4.614953e+03	2.263545e+03	0	7.926330e-04
3.200000e+08	1.069168e+13	0.000000e+00	4.827587e-01	2.508946e+14	1.002959e+15	3.517122e+14	1.049576e+04	4.604314e+03	2.258326e+03	0	7.870922e-04
3.300000e+08	1.047014e+13	0.000000e+00	4.827587e-01	2.478210e+14	9.856700e+14	3.498852e+14	1.047758e+04	4.594007e+03	2.253271e+03	0	7.816177e-04
3.400000e+08	1.025420e+13	0.000000e+00	4.827587e-01	2.448226e+14	9.690833e+14	3.480714e+14	1.045963e+04	4.584017e+03	2.248371e+03	0	7.762069e-04
3.500000e+08	1.004364e+13	0.000000e+00	4.827587e-01	2.418965e+14	9.531565e+14	3.462708e+14	1.044190e+04	4.574328e+03	2.243619e+03	0	7.708574e-04
3.600000e+08	9.838268e+12	0.000000e+00	4.827587e-01	2.390400e+14	9.378502e+14	3.444832e+14	1.042437e+04	4.564924e+03	2.239007e+03	0	7.655669e-04
3.700000e+08	9.637871e+12	0.000000e+00	4.827587e-01	2.362504e+14	9.231280e+14	3.427086e+14	1.040705e+04	4.555793e+03	2.234528e+03	0	7.603332e-04
3.800000e+08	9.442267e+12	0.000000e+00	4.827587e-01	2.335253e+14	9.089563e+14	3.409468e+14	1.038994e+04	4.546922e+03	2.230177e+03	0	7.551543e-04
3.900000e+08	9.251278e+12	0.000000e+00	4.827587e-01	2.308622e+14	8.953038e+14	3.391978e+14	1.037302e+04	4.538298e+03	2.225947e+03	0	7.500281e-04
4.000000e+08	9.064736e+12	0.000000e+00	4.827587e-01	2.282590e+14	8.821417e+14	3.374614e+14	1.035629e+04	4.529910e+03	2.221833e+03	0	7.449526e-04
4.100000e+08	8.882480e+12	0.000000e+00	4.827587e-01	2.257135e+14	8.694430e+14	3.357375e+14	1.033975e+04	4.521748e+03	2.217829e+03	0	7.399261e-04
4.200000e+08	8.704358e+12	0.000000e+00	4.827587e-01	2.232237e+14	8.571830e+14	3.340260e+14	1.032339e+04	4.513802e+03	2.213932e+03	0	7.349467e-04
4.300000e+08	8.530225e+12	0.000000e+00	4.827587e-01	2.207877e+14	8.453383e+14	3.323269e+14	1.030722e+04	4.506062e+03	2.210136e+03	0	7.300127e-04
4.400000e+08	8.359945e+12	0.000000e+00	4.827587e-01	2.184037e+14	8.338873e+14	3.306399e+14	1.029122e+04	4.498519e+03	2.206436e+03	0	7.251225e-04
4.500000e+08	8.193386e+12	0.000000e+00	4.827587e-01	2.160698e+14	8.228098e+14	3.289652e+14	1.027539e+04	4.491166e+03	2.202829e+03	0	7.202745e-04
4.600000e+08	8.030422e+12	0.000000e+00	4.827587e-01	2.137845e+14	8.120871e+14	3.273024e+14	1.025973e+04	4.483993e+03	2.199311e+03	0	7.154672e-04
4.700000e+08	7.870935e+12	0.000000e+00	4.827587e-01	2.115461e+14	8.017014e+14	3.256515e+14	1.024424e+04	4.476994e+03	2.195878e+03	0	7.106990e-04
4.800000e+08	7.714812e+12	0.000000e+00	4.827587e-01	2.093532e+14	7.916363e+14	3.240125e+14	1.022890e+04	4.470161e+03	2.192527e+03	0	7.059686e-04
4.900000e+08	7.561942e+12	0.000000e+00	4.827587e-01	2.072043e+14	7.818765e+14	3.223852e+14	1.021373e+04	4.463489e+03	2.189254e+03	0	7.012745e-04
5.000000e+08	7.412223e+12	0.000000e+00	4.827587e-01	2.050980e+14	7.724073e+14	3.207696e+14	1.019871e+04	4.456969e+03	2.186057e+03	0	6.966154e-04
5.100000e+08	7.265555e+12	0.000000e+00	4.827587e-01	2.030329e+14	7.632152e+14	3.191655e+14	1.018384e+04	4.450598e+03	2.182932e+03	0	6.919901e-04
5.200000e+08	7.121843e+12	0.000000e+00	4.827587e-01	2.010079e+14	7.542876e+14	3.175728e+14	1.016913e+04	4.444367e+03	2.179876e+03	0	6.873972e-04
5.300000e+08	6.980997e+12	0.000000e+00	4.827587e-01	1.990217e+14	7.456123e+14	3.159916e+14	1.015456e+04	4.438273e+03	2.176887e+03	0	6.828355e-04
5.400000e+08	6.842929e+12	0.000000e+00	4.827587e-01	1.970731e+14	7.371781e+14	3.144215e+14	1.014013e+04	4.432310e+03	2.173962e+03	0	6.783038e-04
5.500000e+08	6.707557e+12	0.000000e+00	4.827587e-01	1.951611e+14	7.289743e+14	3.128627e+14	1.012584e+04	4.426473e+03	2.171099e+03	0	6.738011e-04
5.600000e+08	6.574799e+12	0.000000e+00	4.827587e-01	1.932845e+14	7.209911e+14	3.113149e+14	1.011169e+04	4.420758e+03	2.168296e+03	0	6.693261e-04
5.700000e+08	6.444579e+12	0.000000e+00	4.827587e-01	1.914424e+14	7.132188e+14	3.097781e+14	1.009768e+04	4.415160e+03	2.165550e+03	0	6.648777e-04
5.800000e+08	6.316825e+12	0.000000e+00	4.827587e-01	1.896337e+14	7.056487e+14	3.082522e+14	1.008380e+04	4.409675e+03	2.162860e+03	0	6.604550e-04
5.900000e+08	6.191464e+12	0.000000e+00	4.827587e-01	1.878576e+14	6.982722e+14	3.067371e+14	1.007005e+04	4.404298e+03	2.160222e+03	0	6.560567e-04
6.000000e+08	6.068430e+12	0.000000e+00	4.827587e-01	1.861130e+14	6.910815e+14	3.052328e+14	1.005643e+04	4.399026e+03	2.157637e+03	0	6.516820e-04
6.100000e+08	5.947656e+12	0.000000e+00	4.827587e-01	1.843992e+14	6.840689e+14	3.037391e+14	1.004294e+04	4.393856e+03	2.155101e+03	0	6.473297e-04
6.200000e+08	5.829081e+12	0.000000e+00	4.827587e-01	1.827153e+14	6.772274e+14	3.022559e+14	1.002957e+04	4.388783e+03	2.152613e+03	0	6.429990e-04
6.300000e+08	5.712643e+12	0.000000e+00	4.827587e-01	1.810605e+14	6.705502e+14	3.007833e+14	1.001632e+04	4.383805e+03	2.150171e+03	0	6.386888e-04
6.400000e+08	5.598285e+12	0.000000e+00	4.827587e-01	1.794340e+14	6.640309e+14	2.993210e+14	1.000319e+04	4.378918e+03	2.147774e+03	0	6.343982e-04
6.500000e+08	5.485952e+12	0.000000e+00	4.827587e-01	1.778350e+14	6.576634e+14	2.978690e+14	9.990176e+03	4.374119e+03	2.145421e+03	0	6.301263e-04
6.600000e+08	5.375588e+12	0.000000e+00	4.827587e-01	1.762629e+14	6.514420e+14	2.964272e+14	9.977280e+03	4.369406e+03	2.143109e+03	0	6.258721e-04
6.700000e+08	5.267142e+12	0.000000e+00	4.827587e-01	1.747169e+14	6.453612e+14	2.949956e+14	9.964497e+03	4.364775e+03	2.140837e+03	0	6.216347e-04
6.800000e+08	5.160565e+12	0.000000e+00	4.827587e-01	1.731964e+14	6.394157e+14	2.935740e+14	9.951827e+03	4.360224e+03	2.138605e+03	0	6.174133e-04
6.900000e+08	5.055807e+12	0.000000e+00	4.827587e-01	1.717008e+14	6.336007e+14	2.921624e+14	9.939266e+03	4.355750e+03	2.136411e+03	0	6.132070e-04
7.000000e+08	4.952823e+12	0.000000e+00	4.827587e-01	1.702293e+14	6.279115e+14	2.907607e+14	9.926814e+03	4.351351e+03	2.134253e+03	0	6.090148e-04
7.100000e+08	4.851567e+12	0.000000e+00	4.827587e-01	1.687815e+14	6.223434e+14	2.893688e+14	9.914468e+03	4.347025e+03	2.132131e+03	0	6.048360e-04
7.200000e+08	4.751996e+12	0.000000e+00	4.827587e-01	1.673566e+14	6.168924e+14	2.879866e+14	9.902226e+03	4.342768e+03	2.130043e+03	0	6.006696e-04
7.300000e+08	4.654069e+12	0.000000e+00	4.827587e-01	1.659543e+14	6.115543e+14	2.866141e+14	9.890088e+03	4.338580e+03	2.127989e+03	0	5.965148e-04
7.400000e+08	4.557745e+12	0.000000e+00	4.827587e-01	1.645738e+14	6.063252e+14	2.852512e+14	9.878051e+03	4.334458e+03	2.125967e+03	0	5.923707e-04
7.500000e+08	4.462984e+12	0.000000e+00	4.827587e-01	1.632147e+14	6.012015e+14	2.838977e+14	9.866114e+03	4.330399e+03	2.123977e+03	0	5.882366e-04
7.600000e+08	4.369750e+12	0.000000e+00	4.827587e-01	1.618766e+14	5.961795e+14	2.825537e+14	9.854276e+03	4.326403e+03	2.122017e+03	0	5.841115e-04
7.700000e+08	4.278005e+12	0.000000e+00	4.827587e-01	1.605588e+14	5.912560e+14	2.812191e+14	9.842534e+03	4.322467e+03	2.120086e+03	0	5.799947e-04
7.800000e+08	4.187714e+12	0.000000e+00	4.827587e-01	1.592609e+14	5.864277e+14	2.798937e+14	9.830887e+03	4.318590e+03	2.118184e+03	0	5.758852e-04
7.900000e+08	4.098843e+12	0.000000e+00	4.827587e-01	1.579825e+14	5.816915e+14	2.785776e+14	9.819334e+03	4.314769e+03	2.116310e+03	0	5.717823e-04
8.000000e+08	4.011360e+12	0.000000e+00	4.827587e-01	1.567231e+14	5.770446e+14	2.772705e+14	9.807874e+03	4.311004e+03	2.114464e+03	0	5.676851e-04
8.100000e+08	3.925231e+12	0.000000e+00	4.827587e-01	1.554823e+14	5.724839e+14	2.759725e+14	9.796505e+03	4.307292e+03	2.112643e+03	0	5.635927e-04
8.200000e+08	3.840426e+12	0.000000e+00	4.827587e-01	1.542597e+14	5.680070e+14	2.746835e+14	9.785226e+03	4.303632e+03	2.110848e+03	0	5.595042e-04
8.300000e+08	3.756915e+12	0.000000e+00	4.827587e-01	1.530548e+14	5.636111e+14	2.734035e+14	9.774035e+03	4.300023e+03	2.109078e+03	0	5.554190e-04
8.400000e+08	3.674668e+12	0.000000e+00	4.827587e-01	1.518673e+14	5.592938e+14	2.721322e+14	9.762932e+03	4.296463e+03	2.107332e+03	0	5.513359e-04
8.500000e+08	3.593658e+12	0.000000e+00	4.827587e-01	1.506968e+14	5.550527e+14	2.708697e+14	9.751914e+03	4.292951e+03	2.105609e+03	0	5.472543e-04
8.600000e+08	3.513857e+12	0.000000e+00	4.827587e-01	1.495429e+14	5.508856e+14	2.696160e+14	9.740981e+03	4.289486e+03	2.103909e+03	0	5.431731e-04
8.700000e+08	3.435239e+12	0.000000e+00	4.827587e-01	1.484052e+14	5.467903e+14	2.683708e+14	9.730131e+03	4.286066e+03	2.102232e+03	0	5.390916e-04
8.800000e+08	3.357777e+12	0.000000e+00	4.827587e-01	1.472835e+14	5.427647e+14	2.671343e+14	9.719364e+03	4.282690e+03	2.100576e+03	0	5.350087e-04
8.900000e+08	3.281447e+12	0.000000e+00	4.827587e-01	1.461774e+14	5.388067e+14	2.659062e+14	9.708678e+03	4.279358e+03	2.098942e+03	0	5.309236e-04
9.000000e+08	3.206224e+12	0.000000e+00	4.827587e-01	1.450865e+14	5.349144e+14	2.646865e+14	9.698072e+03	4.276067e+03	2.097328e+03	0	5.268353e-04
9.100000e+08	3.132086e+12	0.000000e+00	4.827587e-01	1.440105e+14	5.310860e+14	2.634752e+14	9.687545e+03	4.272817e+03	2.095733e+03	0	5.227429e-04
9.200000e+08	3.059008e+12	0.000000e+00	4.827587e-01	1.429492e+14	5.273197e+14	2.622722e+14	9.677096e+03	4.269606e+03	2.094159e+03	0	5.186453e-04
9.300000e+08	2.986970e+12	0.000000e+00	4.827587e-01	1.419021e+14	5.236138e+14	2.610775e+14	9.666724e+03	4.266435e+03	2.092603e+03	0	5.145417e-04
9.400000e+08	2.915948e+12	0.000000e+00	4.827587e-01	1.408691e+14	5.199666e+14	2.598909e+14	9.656427e+03	4.263301e+03	2.091066e+03	0	5.104308e-04
9.500000e+08	2.845923e+12	0.000000e+00	4.827587e-01	1.398499e+14	5.163766e+14	2.587124e+14	9.646206e+03	4.260204e+03	2.089547e+03	0	5.063117e-04
9.600000e+08	2.776874e+12	0.000000e+00	4.827587e-01	1.388441e+14	5.128421e+14	2.575419e+14	9.636058e+03	4.257143e+03	2.088046e+03	0	5.021834e-04
9.700000e+08	2.708781e+12	0.000000e+00	4.827587e-01	1.378516e+14	5.093618e+14	2.563794e+14	9.625983e+03	4.254117e+03	2.086562e+03	0	4.980446e-04
9.800000e+08	2.641625e+12	0.000000e+00	4.827587e-01	1.368719e+14	5.059342e+14	2.552248e+14	9.615979e+03	4.251125e+03	2.085094e+03	0	4.938942e-04
9.900000e+08	2.575386e+12	0.000000e+00	4.827587e-01	1.359050e+14	5.025580e+14	2.540781e+14	9.606047e+03	4.248167e+03	2.083643e+03	0	4.897311e-04
1.000000e+09	2.510048e+12	0.000000e+00	4.827587e-01	1.349505e+14	4.992318e+14	2.529392e+14	9.596185e+03	4.245241e+03	2.082208e+03	0	4.855540e-04
1.010000e+09	2.445591e+12	0.000000e+00	4.827587e-01	1.340082e+14	4.959544e+14	2.518079e+14	9.586391e+03	4.242347e+03	2.080789e+03	0	4.813617e-04
1.020000e+09	2.381999e+12	0.000000e+00	4.827587e-01	1.330779e+14	4.927245e+14	2.506844e+14	9.576666e+03	4.239484e+03	2.079384e+03	0	4.771528e-04
1.030000e+09	2.319255e+12	0.000000e+00	4.827587e-01	1.321593e+14	4.895409e+14	2.495684e+14	9.567009e+03	4.236652e+03	2.077995e+03	0	4.729259e-04
1.040000e+09	2.257343e+12	0.000000e+00	4.827587e-01	1.312523e+14	4.864026e+14	2.484600e+14	9.557418e+03	4.233849e+03	2.076620e+03	0	4.686796e-04
1.050000e+09	2.196246e+12	0.000000e+00	4.827587e-01	1.303565e+14	4.833084e+14	2.473591e+14	9.547892e+03	4.231075e+03	2.075260e+03	0	4.644125e-04
1.060000e+09	2.135949e+12	0.000000e+00	4.827587e-01	1.294718e+14	4.802572e+14	2.462656e+14	9.538431e+03	4.228329e+03	2.073913e+03	0	4.601229e-04
1.070000e+09	2.076437e+12	0.000000e+00	4.827587e-01	1.285981e+14	4.772480e+14	2.451794e+14	9.529035e+03	4.225612e+03	2.072580e+03	0	4.558093e-04
1.080000e+09	2.017695e+12	0.000000e+00	4.827587e-01	1.277350e+14	4.742799e+14	2.441006e+14	9.519702e+03	4.222921e+03	2.071261e+03	0	4.514699e-04
1.090000e+09	1.959709e+12	0.000000e+00	4.827587e-01	1.268824e+14	4.713519e+14	2.430290e+14	9.510431e+03	4.220257e+03	2.069954e+03	0	4.471028e-04
1.100000e+09	1.902464e+12	0.000000e+00	4.827587e-01	1.260400e+14	4.684630e+14	2.419646e+14	9.501222e+03	4.217619e+03	2.068660e+03	0	4.427064e-04
1.110000e+09	1.845948e+12	0.000000e+00	4.827587e-01	1.252079e+14	4.656123e+14	2.409074e+14	9.492074e+03	4.215006e+03	2.067378e+03	0	4.382784e-04
1.120000e+09	1.790146e+12	0.000000e+00	4.827587e-01	1.243856e+14	4.627990e+14	2.398572e+14	9.482986e+03	4.212418e+03	2.066109e+03	0	4.338168e-04
1.130000e+09	1.735046e+12	0.000000e+00	4.827587e-01	1.235731e+14	4.600222e+14	2.388141e+14	9.473958e+03	4.209854e+03	2.064852e+03	0	4.293195e-04
1.140000e+09	1.680635e+12	0.000000e+00	4.827587e-01	1.227702e+14	4.572812e+14	2.377779e+14	9.464988e+03	4.207314e+03	2.063606e+03	0	4.247839e-04
1.150000e+09	1.626901e+12	0.000000e+00	4.827587e-01	1.219767e+14	4.545751e+14	2.367487e+14	9.456077e+03	4.204798e+03	2.062372e+03	0	4.202076e-04
1.160000e+09	1.573831e+12	0.000000e+00	4.827587e-01	1.211924e+14	4.519031e+14	2.357263e+14	9.447223e+03	4.202304e+03	2.061149e+03	0	4.155880e-04
1.170000e+09	1.521414e+12	0.000000e+00	4.827587e-01	1.204172e+14	4.492646e+14	2.347107e+14	9.438426e+03	4.199833e+03	2.059936e+03	0	4.109220e-04
1.180000e+09	1.469638e+12	0.000000e+00	4.827587e-01	1.196510e+14	4.466588e+14	2.337019e+14	9.429685e+03	4.197384e+03	2.058735e+03	0	4.062067e-04
1.190000e+09	1.418493e+12	0.000000e+00	4.827587e-01	1.188936e+14	4.440850e+14	2.326998e+14	9.421000e+03	4.194956e+03	2.057544e+03	0	4.014387e-04
1.200000e+09	1.367966e+12	0.000000e+00	4.827587e-01	1.181448e+14	4.415425e+14	2.317044e+14	9.412370e+03	4.192549e+03	2.056364e+03	0	3.966146e-04
1.210000e+09	1.318048e+12	0.000000e+00	4.827587e-01	1.174044e+14	4.390308e+14	2.307155e+14	9.403793e+03	4.190163e+03	2.055193e+03	0	3.917304e-04
1.220000e+09	1.268728e+12	0.000000e+00	4.827587e-01	1.166724e+14	4.365491e+14	2.297332e+14	9.395271e+03	4.187797e+03	2.054033e+03	0	3.867821e-04
1.230000e+09	1.219995e+12	0.000000e+00	4.827587e-01	1.159487e+14	4.340968e+14	2.287574e+14	9.386801e+03	4.185451e+03	2.052882e+03	0	3.817651e-04
1.240000e+09	1.171840e+12	0.000000e+00	4.827587e-01	1.152329e+14	4.316734e+14	2.277881e+14	9.378384e+03	4.183124e+03	2.051741e+03	0	3.766746e-04
1.250000e+09	1.124253e+12	0.000000e+00	4.827587e-01	1.145252e+14	4.292782e+14	2.268251e+14	9.370019e+03	4.180816e+03	2.050609e+03	0	3.715052e-04
1.260000e+09	1.077224e+12	0.000000e+00	4.827587e-01	1.138252e+14	4.269107e+14	2.258685e+14	9.361705e+03	4.178528e+03	2.049487e+03	0	3.662511e-04
1.270000e+09	1.030745e+12	0.000000e+00	4.827587e-01	1.131329e+14	4.245704e+14	2.249182e+14	9.353442e+03	4.176257e+03	2.048373e+03	0	3.609059e-04
1.280000e+09	9.848049e+11	0.000000e+00	4.827587e-01	1.124482e+14	4.222567e+14	2.239742e+14	9.345228e+03	4.174005e+03	2.047268e+03	0	3.554624e-04
1.290000e+09	9.393962e+11	0.000000e+00	4.827587e-01	1.117709e+14	4.199692e+14	2.230363e+14	9.337065e+03	4.171770e+03	2.046172e+03	0	3.499128e-04
1.300000e+09	8.945098e+11	0.000000e+00	4.827587e-01	1.111009e+14	4.177072e+14	2.221046e+14	9.328950e+03	4.169553e+03	2.045085e+03	0	3.442484e-04
1.310000e+09	8.501372e+11	0.000000e+00	4.827587e-01	1.104381e+14	4.154704e+14	2.211790e+14	9.320884e+03	4.167353e+03	2.044006e+03	0	3.384594e-04
1.320000e+09	8.062700e+11	0.000000e+00	4.827587e-01	1.097823e+14	4.132582e+14	2.202595e+14	9.312867e+03	4.165170e+03	2.042935e+03	0	3.325348e-04
1.330000e+09	7.629001e+11	0.000000e+00	4.827587e-01	1.091336e+14	4.110701e+14	2.193460e+14	9.304896e+03	4.163003e+03	2.041872e+03	0	3.264621e-04
1.340000e+09	7.200194e+11	0.000000e+00	4.827587e-01	1.084917e+14	4.089059e+14	2.184385e+14	9.296973e+03	4.160852e+03	2.040817e+03	0	3.202273e-04
1.350000e+09	6.776202e+11	0.000000e+00	4.827587e-01	1.078566e+14	4.067649e+14	2.175369e+14	9.289096e+03	4.158717e+03	2.039770e+03	0	3.138140e-04
1.360000e+09	6.356948e+11	0.000000e+00	4.827587e-01	1.072281e+14	4.046468e+14	2.166411e+14	9.281265e+03	4.156598e+03	2.038731e+03	0	3.072037e-04
