#t		Qconv[W]	Ri[Rp]		R*[Rp]		Qc[W]		Qm[W]		Qr[W]		Tcmb[K]		Tl[K]		Tup[K]		RiFlag		Bs[T]
0.000000e+00	3.387738e+13	0.000000e+00	4.797688e-01	6.016983e+14	2.823312e+15	5.042366e+14	1.303108e+04	5.851133e+03	2.705112e+03	0	1.152992e-03
1.000000e+07	3.290588e+13	0.000000e+00	4.797688e-01	5.898108e+14	2.706022e+15	5.014428e+14	1.299621e+04	5.814114e+03	2.687997e+03	0	1.141863e-03
2.000000e+07	3.197579e+13	0.000000e+00	4.797688e-01	5.784173e+14	2.598586e+15	4.986699e+14	1.296203e+04	5.779274e+03	2.671890e+03	0	1.131002e-03
3.000000e+07	3.108437e+13	0.000000e+00	4.797688e-01	5.674855e+14	2.499852e+15	4.959176e+14	1.292851e+04	5.746417e+03	2.656699e+03	0	1.120393e-03
4.000000e+07	3.022912e+13	0.000000e+00	4.797688e-01	5.569856e+14	2.408834e+15	4.931860e+14	1.289561e+04	5.715370e+03	2.642346e+03	0	1.110022e-03
5.000000e+07	2.940775e+13	0.000000e+00	4.797688e-01	5.468906e+14	2.324688e+15	4.904747e+14	1.286332e+04	5.685982e+03	2.628759e+03	0	1.099875e-03
6.000000e+07	2.861817e+13	0.000000e+00	4.797688e-01	5.371757e+14	2.246685e+15	4.877836e+14	1.283162e+04	5.658115e+03	2.615875e+03	0	1.089942e-03
7.000000e+07	2.785846e+13	0.000000e+00	4.797688e-01	5.278182e+14	2.174193e+15	4.851125e+14	1.280047e+04	5.631651e+03	2.603640e+03	0	1.080211e-03
8.000000e+07	2.712685e+13	0.000000e+00	4.797688e-01	5.187971e+14	2.106661e+15	4.824613e+14	1.276986e+04	5.606480e+03	2.592003e+03	0	1.070671e-03
9.000000e+07	2.642172e+13	0.000000e+00	4.797688e-01	5.100933e+14	2.043608e+15	4.798299e+14	1.273978e+04	5.582504e+03	2.580919e+03	0	1.061312e-03
1.000000e+08	2.574158e+13	0.000000e+00	4.797688e-01	5.016889e+14	1.984611e+15	4.772179e+14	1.271019e+04	5.559637e+03	2.570347e+03	0	1.052126e-03
1.100000e+08	2.508504e+13	0.000000e+00	4.797688e-01	4.935677e+14	1.929298e+15	4.746254e+14	1.268110e+04	5.537799e+03	2.560250e+03	0	1.043104e-03
1.200000e+08	2.445083e+13	0.000000e+00	4.797688e-01	4.857144e+14	1.877341e+15	4.720520e+14	1.265247e+04	5.516918e+03	2.550597e+03	0	1.034239e-03
1.300000e+08	2.383777e+13	0.000000e+00	4.797688e-01	4.781150e+14	1.828446e+15	4.694977e+14	1.262429e+04	5.496930e+03	2.541356e+03	0	1.025521e-03
1.400000e+08	2.324475e+13	0.000000e+00	4.797688e-01	4.707565e+14	1.782354e+15	4.669624e+14	1.259655e+04	5.477774e+03	2.532500e+03	0	1.016946e-03
1.500000e+08	2.267076e+13	0.000000e+00	4.797688e-01	4.636267e+14	1.738834e+15	4.644457e+14	1.256924e+04	5.459397e+03	2.524004e+03	0	1.008505e-03
1.600000e+08	2.211485e+13	0.000000e+00	4.797688e-01	4.567144e+14	1.697677e+15	4.619477e+14	1.254234e+04	5.441750e+03	2.515845e+03	0	1.000194e-03
1.700000e+08	2.157614e+13	0.000000e+00	4.797688e-01	4.500090e+14	1.658697e+15	4.594681e+14	1.251584e+04	5.424786e+03	2.508002e+03	0	9.920055e-04
1.800000e+08	2.105379e+13	0.000000e+00	4.797688e-01	4.435007e+14	1.621726e+15	4.570067e+14	1.248973e+04	5.408464e+03	2.500456e+03	0	9.839348e-04
1.900000e+08	2.054705e+13	0.000000e+00	4.797688e-01	4.371805e+14	1.586614e+15	4.545635e+14	1.246399e+04	5.392746e+03	2.493189e+03	0	9.759764e-04
2.000000e+08	2.005518e+13	0.000000e+00	4.797688e-01	4.310396e+14	1.553223e+15	4.521383e+14	1.243862e+04	5.377597e+03	2.486186e+03	0	9.681256e-04
2.100000e+08	1.957751e+13	0.000000e+00	4.797688e-01	4.250700e+14	1.521430e+15	4.497309e+14	1.241360e+04	5.362984e+03	2.479430e+03	0	9.603776e-04
2.200000e+08	1.911342e+13	0.000000e+00	4.797688e-01	4.192642e+14	1.491122e+15	4.473412e+14	1.238893e+04	5.348877e+03	2.472907e+03	0	9.527281e-04
2.300000e+08	1.866230e+13	0.000000e+00	4.797688e-01	4.136152e+14	1.462196e+15	4.449690e+14	1.236459e+04	5.335247e+03	2.466606e+03	0	9.451729e-04
2.400000e+08	1.822359e+13	0.000000e+00	4.797688e-01	4.081162e+14	1.434559e+15	4.426143e+14	1.234058e+04	5.322070e+03	2.460514e+03	0	9.377078e-04
2.500000e+08	1.779678e+13	0.000000e+00	4.797688e-01	4.027609e+14	1.408126e+15	4.402767e+14	1.231689e+04	5.309320e+03	2.454619e+03	0	9.303293e-04
2.600000e+08	1.738136e+13	0.000000e+00	4.797688e-01	3.975435e+14	1.382819e+15	4.379563e+14	1.229351e+04	5.296976e+03	2.448913e+03	0	9.230335e-04
2.700000e+08	1.697687e+13	0.000000e+00	4.797688e-01	3.924584e+14	1.358565e+15	4.356528e+14	1.227042e+04	5.285017e+03	2.443383e+03	0	9.158171e-04
2.800000e+08	1.658287e+13	0.000000e+00	4.797688e-01	3.875003e+14	1.335300e+15	4.333662e+14	1.224764e+04	5.273423e+03	2.438023e+03	0	9.086768e-04
2.900000e+08	1.619894e+13	0.000000e+00	4.797688e-01	3.826643e+14	1.312963e+15	4.310962e+14	1.222514e+04	5.262176e+03	2.432824e+03	0	9.016093e-04
3.000000e+08	1.582468e+13	0.000000e+00	4.797688e-01	3.779456e+14	1.291497e+15	4.288428e+14	1.220292e+04	5.251259e+03	2.427776e+03	0	8.946117e-04
3.100000e+08	1.545974e+13	0.000000e+00	4.797688e-01	3.733398e+14	1.270852e+15	4.266058e+14	1.218097e+04	5.240656e+03	2.422875e+03	0	8.876809e-04
3.200000e+08	1.510374e+13	0.000000e+00	4.797688e-01	3.688427e+14	1.250980e+15	4.243851e+14	1.215929e+04	5.230353e+03	2.418111e+03	0	8.808143e-04
3.300000e+08	1.475636e+13	0.000000e+00	4.797688e-01	3.644503e+14	1.231837e+15	4.221806e+14	1.213787e+04	5.220335e+03	2.413480e+03	0	8.740091e-04
3.400000e+08	1.441728e+13	0.000000e+00	4.797688e-01	3.601587e+14	1.213382e+15	4.199920e+14	1.211670e+04	5.210589e+03	2.408974e+03	0	8.672627e-04
3.500000e+08	1.408620e+13	0.000000e+00	4.797688e-01	3.559644e+14	1.195578e+15	4.178193e+14	1.209578e+04	5.201104e+03	2.404589e+03	0	8.605726e-04
3.600000e+08	1.376283e+13	0.000000e+00	4.797688e-01	3.518639e+14	1.178388e+15	4.156624e+14	1.207511e+04	5.191866e+03	2.400318e+03	0	8.539363e-04
3.700000e+08	1.344691e+13	0.000000e+00	4.797688e-01	3.478540e+14	1.161782e+15	4.135211e+14	1.205467e+04	5.182867e+03	2.396157e+03	0	8.473516e-04
3.800000e+08	1.313816e+13	0.000000e+00	4.797688e-01	3.439315e+14	1.145728e+15	4.113953e+14	1.203446e+04	5.174094e+03	2.392101e+03	0	8.408162e-04
3.900000e+08	1.283635e+13	0.000000e+00	4.797688e-01	3.400936e+14	1.130197e+15	4.092849e+14	1.201448e+04	5.165539e+03	2.388146e+03	0	8.343278e-04
4.000000e+08	1.254124e+13	0.000000e+00	4.797688e-01	3.363373e+14	1.115164e+15	4.071897e+14	1.199473e+04	5.157192e+03	2.384287e+03	0	8.278843e-04
4.100000e+08	1.225260e+13	0.000000e+00	4.797688e-01	3.326600e+14	1.100603e+15	4.051096e+14	1.197519e+04	5.149045e+03	2.380520e+03	0	8.214836e-04
4.200000e+08	1.197022e+13	0.000000e+00	4.797688e-01	3.290592e+14	1.086492e+15	4.030445e+14	1.195586e+04	5.141089e+03	2.376842e+03	0	8.151238e-04
4.300000e+08	1.169390e+13	0.000000e+00	4.797688e-01	3.255323e+14	1.072809e+15	4.009943e+14	1.193674e+04	5.133317e+03	2.373249e+03	0	8.088028e-04
4.400000e+08	1.142344e+13	0.000000e+00	4.797688e-01	3.220770e+14	1.059533e+15	3.989588e+14	1.191783e+04	5.125721e+03	2.369737e+03	0	8.025187e-04
4.500000e+08	1.115865e+13	0.000000e+00	4.797688e-01	3.186911e+14	1.046645e+15	3.969379e+14	1.189912e+04	5.118295e+03	2.366304e+03	0	7.962696e-04
4.600000e+08	1.089936e+13	0.000000e+00	4.797688e-01	3.153725e+14	1.034128e+15	3.949316e+14	1.188060e+04	5.111031e+03	2.362946e+03	0	7.900537e-04
4.700000e+08	1.064540e+13	0.000000e+00	4.797688e-01	3.121190e+14	1.021965e+15	3.929396e+14	1.186227e+04	5.103925e+03	2.359660e+03	0	7.838691e-04
4.800000e+08	1.039660e+13	0.000000e+00	4.797688e-01	3.089287e+14	1.010139e+15	3.909620e+14	1.184413e+04	5.096969e+03	2.356445e+03	0	7.777140e-04
4.900000e+08	1.015280e+13	0.000000e+00	4.797688e-01	3.057998e+14	9.986371e+14	3.889984e+14	1.182618e+04	5.090158e+03	2.353296e+03	0	7.715868e-04
5.000000e+08	9.913856e+12	0.000000e+00	4.797688e-01	3.027303e+14	9.874438e+14	3.870490e+14	1.180841e+04	5.083486e+03	2.350211e+03	0	7.654857e-04
5.100000e+08	9.679623e+12	0.000000e+00	4.797688e-01	2.997187e+14	9.765462e+14	3.851134e+14	1.179082e+04	5.076949e+03	2.347189e+03	0	7.594089e-04
5.200000e+08	9.449962e+12	0.000000e+00	4.797688e-01	2.967631e+14	9.659320e+14	3.831917e+14	1.177340e+04	5.070542e+03	2.344227e+03	0	7.533548e-04
5.300000e+08	9.224741e+12	0.000000e+00	4.797688e-01	2.938621e+14	9.555892e+14	3.812836e+14	1.175615e+04	5.064260e+03	2.341323e+03	0	7.473217e-04
5.400000e+08	9.003832e+12	0.000000e+00	4.797688e-01	2.910140e+14	9.455068e+14	3.793892e+14	1.173907e+04	5.058099e+03	2.338474e+03	0	7.413080e-04
5.500000e+08	8.787112e+12	0.000000e+00	4.797688e-01	2.882175e+14	9.356743e+14	3.775082e+14	1.172216e+04	5.052054e+03	2.335679e+03	0	7.353119e-04
5.600000e+08	8.574464e+12	0.000000e+00	4.797688e-01	2.854710e+14	9.260816e+14	3.756406e+14	1.170540e+04	5.046121e+03	2.332937e+03	0	7.293319e-04
5.700000e+08	8.365774e+12	0.000000e+00	4.797688e-01	2.827732e+14	9.167193e+14	3.737863e+14	1.168881e+04	5.040297e+03	2.330244e+03	0	7.233663e-04
5.800000e+08	8.160934e+12	0.000000e+00	4.797688e-01	2.801228e+14	9.075784e+14	3.719451e+14	1.167237e+04	5.034578e+03	2.327600e+03	0	7.174134e-04
5.900000e+08	7.959838e+12	0.000000e+00	4.797688e-01	2.775185e+14	8.986505e+14	3.701170e+14	1.165609e+04	5.028961e+03	2.325003e+03	0	7.114717e-04
6.000000e+08	7.762386e+12	0.000000e+00	4.797688e-01	2.749591e+14	8.899275e+14	3.683018e+14	1.163996e+04	5.023441e+03	2.322451e+03	0	7.055394e-04
6.100000e+08	7.568480e+12	0.000000e+00	4.797688e-01	2.724435e+14	8.814017e+14	3.664995e+14	1.162397e+04	5.018017e+03	2.319943e+03	0	6.996150e-04
6.200000e+08	7.378026e+12	0.000000e+00	4.797688e-01	2.699704e+14	8.730658e+14	3.647099e+14	1.160814e+04	5.012684e+03	2.317478e+03	0	6.936966e-04
6.300000e+08	7.190934e+12	0.000000e+00	4.797688e-01	2.675389e+14	8.649131e+14	3.629329e+14	1.159244e+04	5.007440e+03	2.315054e+03	0	6.877828e-04
6.400000e+08	7.007117e+12	0.000000e+00	4.797688e-01	2.651477e+14	8.569367e+14	3.611685e+14	1.157689e+04	5.002283e+03	2.312669e+03	0	6.818717e-04
6.500000e+08	6.826490e+12	0.000000e+00	4.797688e-01	2.627960e+14	8.491306e+14	3.594165e+14	1.156147e+04	4.997209e+03	2.310323e+03	0	6.759616e-04
6.600000e+08	6.648972e+12	0.000000e+00	4.797688e-01	2.604828e+14	8.414887e+14	3.576768e+14	1.154619e+04	4.992216e+03	2.308015e+03	0	6.700508e-04
6.700000e+08	6.474486e+12	0.000000e+00	4.797688e-01	2.582070e+14	8.340054e+14	3.559493e+14	1.153105e+04	4.987301e+03	2.305743e+03	0	6.641374e-04
6.800000e+08	6.302954e+12	0.000000e+00	4.797688e-01	2.559678e+14	8.266752e+14	3.542340e+14	1.151603e+04	4.982462e+03	2.303506e+03	0	6.582198e-04
6.900000e+08	6.134304e+12	0.000000e+00	4.797688e-01	2.537643e+14	8.194929e+14	3.525307e+14	1.150115e+04	4.977697e+03	2.301303e+03	0	6.522959e-04
7.000000e+08	5.968465e+12	0.000000e+00	4.797688e-01	2.515956e+14	8.124536e+14	3.508394e+14	1.148639e+04	4.973004e+03	2.299133e+03	0	6.463639e-04
7.100000e+08	5.805370e+12	0.000000e+00	4.797688e-01	2.494608e+14	8.055527e+14	3.491599e+14	1.147176e+04	4.968380e+03	2.296995e+03	0	6.404219e-04
7.200000e+08	5.644950e+12	0.000000e+00	4.797688e-01	2.473593e+14	7.987855e+14	3.474921e+14	1.145726e+04	4.963823e+03	2.294888e+03	0	6.344678e-04
7.300000e+08	5.487143e+12	0.000000e+00	4.797688e-01	2.452902e+14	7.921478e+14	3.458360e+14	1.144287e+04	4.959332e+03	2.292812e+03	0	6.284996e-04
7.400000e+08	5.331887e+12	0.000000e+00	4.797688e-01	2.432528e+14	7.856355e+14	3.441915e+14	1.142861e+04	4.954905e+03	2.290765e+03	0	6.225151e-04
7.500000e+08	5.179122e+12	0.000000e+00	4.797688e-01	2.412463e+14	7.792446e+14	3.425584e+14	1.141446e+04	4.950540e+03	2.288747e+03	0	6.165121e-04
7.600000e+08	5.028789e+12	0.000000e+00	4.797688e-01	2.392700e+14	7.729713e+14	3.409367e+14	1.140043e+04	4.946235e+03	2.286757e+03	0	6.104883e-04
7.700000e+08	4.880833e+12	0.000000e+00	4.797688e-01	2.373232e+14	7.668121e+14	3.393263e+14	1.138652e+04	4.941988e+03	2.284794e+03	0	6.044414e-04
7.800000e+08	4.735199e+12	0.000000e+00	4.797688e-01	2.354054e+14	7.607634e+14	3.377271e+14	1.137272e+04	4.937799e+03	2.282857e+03	0	5.983688e-04
7.900000e+08	4.591834e+12	0.000000e+00	4.797688e-01	2.335158e+14	7.548220e+14	3.361389e+14	1.135903e+04	4.933664e+03	2.280945e+03	0	5.922680e-04
8.000000e+08	4.450687e+12	0.000000e+00	4.797688e-01	2.316538e+14	7.489847e+14	3.345618e+14	1.134545e+04	4.929584e+03	2.279059e+03	0	5.861362e-04
8.100000e+08	4.311708e+12	0.000000e+00	4.797688e-01	2.298188e+14	7.432483e+14	3.329957e+14	1.133197e+04	4.925556e+03	2.277197e+03	0	5.799706e-04
8.200000e+08	4.174850e+12	0.000000e+00	4.797688e-01	2.280102e+14	7.376101e+14	3.314403e+14	1.131861e+04	4.921579e+03	2.275358e+03	0	5.737682e-04
8.300000e+08	4.040065e+12	0.000000e+00	4.797688e-01	2.262275e+14	7.320671e+14	3.298957e+14	1.130534e+04	4.917652e+03	2.273543e+03	0	5.675259e-04
8.400000e+08	3.907309e+12	0.000000e+00	4.797688e-01	2.244701e+14	7.266167e+14	3.283618e+14	1.129219e+04	4.913774e+03	2.271749e+03	0	5.612402e-04
8.500000e+08	3.776536e+12	0.000000e+00	4.797688e-01	2.227374e+14	7.212562e+14	3.268385e+14	1.127913e+04	4.909943e+03	2.269978e+03	0	5.549077e-04
8.600000e+08	3.647705e+12	0.000000e+00	4.797688e-01	2.210290e+14	7.159832e+14	3.253257e+14	1.126617e+04	4.906158e+03	2.268228e+03	0	5.485246e-04
8.700000e+08	3.520775e+12	0.000000e+00	4.797688e-01	2.193444e+14	7.107953e+14	3.238232e+14	1.125332e+04	4.902417e+03	2.266499e+03	0	5.420869e-04
8.800000e+08	3.395704e+12	0.000000e+00	4.797688e-01	2.176830e+14	7.056901e+14	3.223312e+14	1.124056e+04	4.898721e+03	2.264790e+03	0	5.355904e-04
8.900000e+08	3.272454e+12	0.000000e+00	4.797688e-01	2.160443e+14	7.006654e+14	3.208493e+14	1.122789e+04	4.895067e+03	2.263101e+03	0	5.290305e-04
9.000000e+08	3.150986e+12	0.000000e+00	4.797688e-01	2.144280e+14	6.957191e+14	3.193777e+14	1.121533e+04	4.891456e+03	2.261431e+03	0	5.224022e-04
9.100000e+08	3.031264e+12	0.000000e+00	4.797688e-01	2.128335e+14	6.908491e+14	3.179161e+14	1.120285e+04	4.887884e+03	2.259780e+03	0	5.157004e-04
9.200000e+08	2.913252e+12	0.000000e+00	4.797688e-01	2.112604e+14	6.860535e+14	3.164645e+14	1.119047e+04	4.884353e+03	2.258147e+03	0	5.089193e-04
9.300000e+08	2.796915e+12	0.000000e+00	4.797688e-01	2.097084e+14	6.813303e+14	3.150229e+14	1.117818e+04	4.880860e+03	2.256533e+03	0	5.020527e-04
9.400000e+08	2.682218e+12	0.000000e+00	4.797688e-01	2.081769e+14	6.766776e+14	3.135911e+14	1.116598e+04	4.877405e+03	2.254935e+03	0	4.950939e-04
9.500000e+08	2.569129e+12	0.000000e+00	4.797688e-01	2.066655e+14	6.720937e+14	3.121691e+14	1.115387e+04	4.873988e+03	2.253355e+03	0	4.880356e-04
9.600000e+08	2.457616e+12	0.000000e+00	4.797688e-01	2.051739e+14	6.675769e+14	3.107568e+14	1.114185e+04	4.870606e+03	2.251792e+03	0	4.808698e-04
9.700000e+08	2.347646e+12	0.000000e+00	4.797688e-01	2.037018e+14	6.631255e+14	3.093541e+14	1.112991e+04	4.867260e+03	2.250245e+03	0	4.735877e-04
9.800000e+08	2.239191e+12	0.000000e+00	4.797688e-01	2.022486e+14	6.587379e+14	3.079609e+14	1.111806e+04	4.863948e+03	2.248714e+03	0	4.661796e-04
9.900000e+08	2.132219e+12	0.000000e+00	4.797688e-01	2.008141e+14	6.544126e+14	3.065773e+14	1.110629e+04	4.860671e+03	2.247199e+03	0	4.586346e-04
1.000000e+09	2.026703e+12	0.000000e+00	4.797688e-01	1.993979e+14	6.501481e+14	3.052030e+14	1.109461e+04	4.857426e+03	2.245698e+03	0	4.509408e-04
1.010000e+09	1.922614e+12	0.000000e+00	4.797688e-01	1.979996e+14	6.459429e+14	3.038380e+14	1.108301e+04	4.854213e+03	2.244213e+03	0	4.430848e-04
1.020000e+09	1.819924e+12	0.000000e+00	4.797688e-01	1.966189e+14	6.417956e+14	3.024823e+14	1.107149e+04	4.851032e+03	2.242743e+03	0	4.350514e-04
1.030000e+09	1.718607e+12	0.000000e+00	4.797688e-01	1.952556e+14	6.377049e+14	3.011357e+14	1.106005e+04	4.847882e+03	2.241286e+03	0	4.268235e-04
1.040000e+09	1.618636e+12	0.000000e+00	4.797688e-01	1.939092e+14	6.336694e+14	2.997983e+14	1.104868e+04	4.844763e+03	2.239844e+03	0	4.183817e-04
1.050000e+09	1.519988e+12	0.000000e+00	4.797688e-01	1.925794e+14	6.296880e+14	2.984699e+14	1.103740e+04	4.841673e+03	2.238415e+03	0	4.097034e-04
1.060000e+09	1.422635e+12	0.000000e+00	4.797688e-01	1.912660e+14	6.257594e+14	2.971504e+14	1.102620e+04	4.838612e+03	2.237000e+03	0	4.007628e-04
1.070000e+09	1.326555e+12	0.000000e+00	4.797688e-01	1.899687e+14	6.218824e+14	2.958399e+14	1.101507e+04	4.835579e+03	2.235598e+03	0	3.915297e-04
1.080000e+09	1.231724e+12	0.000000e+00	4.797688e-01	1.886871e+14	6.180558e+14	2.945381e+14	1.100401e+04	4.832575e+03	2.234209e+03	0	3.819684e-04
1.090000e+09	1.138119e+12	0.000000e+00	4.797688e-01	1.874210e+14	6.142786e+14	2.932451e+14	1.099303e+04	4.829597e+03	2.232833e+03	0	3.720364e-04
1.100000e+09	1.045718e+12	0.000000e+00	4.797688e-01	1.861702e+14	6.105498e+14	2.919608e+14	1.098213e+04	4.826647e+03	2.231469e+03	0	3.616827e-04
1.110000e+09	9.544985e+11	0.000000e+00	4.797688e-01	1.849342e+14	6.068681e+14	2.906851e+14	1.097129e+04	4.823722e+03	2.230116e+03	0	3.508445e-04
1.120000e+09	8.644392e+11	0.000000e+00	4.797688e-01	1.837130e+14	6.032327e+14	2.894180e+14	1.096053e+04	4.820823e+03	2.228776e+03	0	3.394437e-04
1.130000e+09	7.755196e+11	0.000000e+00	4.797688e-01	1.825061e+14	5.996425e+14	2.881593e+14	1.094984e+04	4.817950e+03	2.227448e+03	0	3.273812e-04
1.140000e+09	6.877192e+11	0.000000e+00	4.797688e-01	1.813134e+14	5.960967e+14	2.869090e+14	1.093922e+04	4.815101e+03	2.226131e+03	0	3.145284e-04
1.150000e+09	6.010182e+11	0.000000e+00	4.797688e-01	1.801347e+14	5.925942e+14	2.856671e+14	1.092867e+04	4.812276e+03	2.224825e+03	0	3.007129e-04
1.160000e+09	5.153972e+11	0.000000e+00	4.797688e-01	1.789696e+14	5.891342e+14	2.844335e+14	1.091818e+04	4.809475e+03	2.223530e+03	0	2.856956e-04
1.170000e+09	4.308374e+11	0.000000e+00	4.797688e-01	1.778180e+14	5.857159e+14	2.832081e+14	1.090777e+04	4.806697e+03	2.222246e+03	0	2.691291e-04
1.180000e+09	3.473202e+11	0.000000e+00	4.797688e-01	1.766796e+14	5.823383e+14	2.819908e+14	1.089742e+04	4.803943e+03	2.220972e+03	0	2.504761e-04
1.190000e+09	2.648276e+11	0.000000e+00	4.797688e-01	1.755542e+14	5.790008e+14	2.807817e+14	1.088714e+04	4.801210e+03	2.219709e+03	0	2.288288e-04
1.200000e+09	1.833420e+11	0.000000e+00	4.797688e-01	1.744416e+14	5.757023e+14	2.795805e+14	1.087692e+04	4.798500e+03	2.218456e+03	0	2.024309e-04
1.210000e+09	1.028460e+11	0.000000e+00	4.797688e-01	1.733416e+14	5.724423e+14	2.783873e+14	1.086677e+04	4.795811e+03	2.217213e+03	0	1.669496e-04
1.220000e+09	2.332290e+10	0.000000e+00	4.797688e-01	1.722539e+14	5.692200e+14	2.772021e+14	1.085668e+04	4.793144e+03	2.215979e+03	0	1.018084e-04
1.230000e+09	-5.524383e+10	0.000000e+00	4.797688e-01	1.711784e+14	5.660346e+14	2.760247e+14	1.084665e+04	4.790497e+03	2.214756e+03	0	nan
