#t		Qconv[W]	Ri[Rp]		R*[Rp]		Qc[W]		Qm[W]		Qr[W]		Tcmb[K]		Tl[K]		Tup[K]		RiFlag		Bs[T]
0.000000e+00	7.773077e+13	0.000000e+00	4.797687e-01	1.124923e+15	3.225931e+15	5.207229e+14	1.449688e+04	6.246670e+03	2.703139e+03	0	1.513333e-03
1.000000e+07	7.529075e+13	0.000000e+00	4.797687e-01	1.096184e+15	3.102987e+15	5.178377e+14	1.443417e+04	6.212908e+03	2.688529e+03	0	1.497330e-03
2.000000e+07	7.296647e+13	0.000000e+00	4.797687e-01	1.068785e+15	2.989801e+15	5.149741e+14	1.437305e+04	6.181067e+03	2.674751e+03	0	1.481760e-03
3.000000e+07	7.074989e+13	0.000000e+00	4.797687e-01	1.042633e+15	2.885264e+15	5.121319e+14	1.431345e+04	6.150972e+03	2.661728e+03	0	1.466602e-03
4.000000e+07	6.863373e+13	0.000000e+00	4.797687e-01	1.017646e+15	2.788426e+15	5.093109e+14	1.425530e+04	6.122470e+03	2.649394e+03	0	1.451831e-03
5.000000e+07	6.661135e+13	0.000000e+00	4.797687e-01	9.937451e+14	2.698468e+15	5.065110e+14	1.419853e+04	6.095426e+03	2.637691e+03	0	1.437429e-03
6.000000e+07	6.467669e+13	0.000000e+00	4.797687e-01	9.708623e+14	2.614683e+15	5.037319e+14	1.414308e+04	6.069718e+03	2.626566e+03	0	1.423376e-03
7.000000e+07	6.282420e+13	0.000000e+00	4.797687e-01	9.489331e+14	2.536454e+15	5.009735e+14	1.408890e+04	6.045240e+03	2.615974e+03	0	1.409654e-03
8.000000e+07	6.104882e+13	0.000000e+00	4.797687e-01	9.278993e+14	2.463245e+15	4.982357e+14	1.403594e+04	6.021896e+03	2.605872e+03	0	1.396248e-03
9.000000e+07	5.934587e+13	0.000000e+00	4.797687e-01	9.077070e+14	2.394585e+15	4.955181e+14	1.398414e+04	5.999599e+03	2.596223e+03	0	1.383143e-03
1.000000e+08	5.771107e+13	0.000000e+00	4.797687e-01	8.883067e+14	2.330059e+15	4.928208e+14	1.393346e+04	5.978274e+03	2.586995e+03	0	1.370324e-03
1.100000e+08	5.614046e+13	0.000000e+00	4.797687e-01	8.696529e+14	2.269300e+15	4.901435e+14	1.388386e+04	5.957849e+03	2.578157e+03	0	1.357778e-03
1.200000e+08	5.463039e+13	0.000000e+00	4.797687e-01	8.517034e+14	2.211985e+15	4.874860e+14	1.383529e+04	5.938263e+03	2.569681e+03	0	1.345494e-03
1.300000e+08	5.317749e+13	0.000000e+00	4.797687e-01	8.344192e+14	2.157823e+15	4.848482e+14	1.378772e+04	5.919457e+03	2.561543e+03	0	1.333459e-03
1.400000e+08	5.177861e+13	0.000000e+00	4.797687e-01	8.177643e+14	2.106558e+15	4.822299e+14	1.374110e+04	5.901380e+03	2.553721e+03	0	1.321662e-03
1.500000e+08	5.043087e+13	0.000000e+00	4.797687e-01	8.017051e+14	2.057959e+15	4.796310e+14	1.369542e+04	5.883984e+03	2.546193e+03	0	1.310094e-03
1.600000e+08	4.913157e+13	0.000000e+00	4.797687e-01	7.862105e+14	2.011818e+15	4.770513e+14	1.365062e+04	5.867226e+03	2.538941e+03	0	1.298745e-03
1.700000e+08	4.787819e+13	0.000000e+00	4.797687e-01	7.712514e+14	1.967951e+15	4.744906e+14	1.360668e+04	5.851067e+03	2.531949e+03	0	1.287605e-03
1.800000e+08	4.666839e+13	0.000000e+00	4.797687e-01	7.568009e+14	1.926188e+15	4.719488e+14	1.356358e+04	5.835470e+03	2.525199e+03	0	1.276668e-03
1.900000e+08	4.550001e+13	0.000000e+00	4.797687e-01	7.428337e+14	1.886378e+15	4.694257e+14	1.352128e+04	5.820402e+03	2.518679e+03	0	1.265923e-03
2.000000e+08	4.437100e+13	0.000000e+00	4.797687e-01	7.293263e+14	1.848383e+15	4.669212e+14	1.347975e+04	5.805832e+03	2.512374e+03	0	1.255365e-03
2.100000e+08	4.327945e+13	0.000000e+00	4.797687e-01	7.162567e+14	1.812078e+15	4.644351e+14	1.343897e+04	5.791732e+03	2.506272e+03	0	1.244985e-03
2.200000e+08	4.222359e+13	0.000000e+00	4.797687e-01	7.036040e+14	1.777350e+15	4.619673e+14	1.339892e+04	5.778075e+03	2.500363e+03	0	1.234777e-03
2.300000e+08	4.120173e+13	0.000000e+00	4.797687e-01	6.913492e+14	1.744094e+15	4.595175e+14	1.335958e+04	5.764838e+03	2.494634e+03	0	1.224735e-03
2.400000e+08	4.021231e+13	0.000000e+00	4.797687e-01	6.794738e+14	1.712215e+15	4.570858e+14	1.332091e+04	5.751998e+03	2.489078e+03	0	1.214852e-03
2.500000e+08	3.925386e+13	0.000000e+00	4.797687e-01	6.679609e+14	1.681626e+15	4.546718e+14	1.328291e+04	5.739534e+03	2.483685e+03	0	1.205122e-03
2.600000e+08	3.832499e+13	0.000000e+00	4.797687e-01	6.567944e+14	1.652248e+15	4.522755e+14	1.324555e+04	5.727427e+03	2.478446e+03	0	1.195540e-03
2.700000e+08	3.742440e+13	0.000000e+00	4.797687e-01	6.459592e+14	1.624007e+15	4.498967e+14	1.320881e+04	5.715659e+03	2.473353e+03	0	1.186101e-03
2.800000e+08	3.655085e+13	0.000000e+00	4.797687e-01	6.354409e+14	1.596836e+15	4.475353e+14	1.317267e+04	5.704214e+03	2.468400e+03	0	1.176800e-03
2.900000e+08	3.570318e+13	0.000000e+00	4.797687e-01	6.252263e+14	1.570672e+15	4.451912e+14	1.313711e+04	5.693074e+03	2.463580e+03	0	1.167632e-03
3.000000e+08	3.488031e+13	0.000000e+00	4.797687e-01	6.153025e+14	1.545458e+15	4.428641e+14	1.310213e+04	5.682227e+03	2.458886e+03	0	1.158592e-03
3.100000e+08	3.408120e+13	0.000000e+00	4.797687e-01	6.056576e+14	1.521140e+15	4.405539e+14	1.306769e+04	5.671658e+03	2.454312e+03	0	1.149675e-03
3.200000e+08	3.330488e+13	0.000000e+00	4.797687e-01	5.962802e+14	1.497670e+15	4.382606e+14	1.303380e+04	5.661354e+03	2.449854e+03	0	1.140879e-03
3.300000e+08	3.255041e+13	0.000000e+00	4.797687e-01	5.871596e+14	1.475001e+15	4.359840e+14	1.300042e+04	5.651304e+03	2.445505e+03	0	1.132198e-03
3.400000e+08	3.181692e+13	0.000000e+00	4.797687e-01	5.782856e+14	1.453091e+15	4.337239e+14	1.296756e+04	5.641496e+03	2.441260e+03	0	1.123629e-03
3.500000e+08	3.110359e+13	0.000000e+00	4.797687e-01	5.696486e+14	1.431901e+15	4.314802e+14	1.293519e+04	5.631919e+03	2.437116e+03	0	1.115168e-03
3.600000e+08	3.040963e+13	0.000000e+00	4.797687e-01	5.612394e+14	1.411394e+15	4.292527e+14	1.290330e+04	5.622565e+03	2.433068e+03	0	1.106812e-03
3.700000e+08	2.973428e+13	0.000000e+00	4.797687e-01	5.530494e+14	1.391536e+15	4.270414e+14	1.287187e+04	5.613422e+03	2.429112e+03	0	1.098557e-03
3.800000e+08	2.907685e+13	0.000000e+00	4.797687e-01	5.450703e+14	1.372294e+15	4.248461e+14	1.284091e+04	5.604483e+03	2.425243e+03	0	1.090400e-03
3.900000e+08	2.843666e+13	0.000000e+00	4.797687e-01	5.372942e+14	1.353638e+15	4.226666e+14	1.281039e+04	5.595739e+03	2.421460e+03	0	1.082338e-03
4.000000e+08	2.781306e+13	0.000000e+00	4.797687e-01	5.297138e+14	1.335541e+15	4.205029e+14	1.278030e+04	5.587182e+03	2.417757e+03	0	1.074368e-03
4.100000e+08	2.720545e+13	0.000000e+00	4.797687e-01	5.223218e+14	1.317976e+15	4.183548e+14	1.275063e+04	5.578805e+03	2.414132e+03	0	1.066487e-03
4.200000e+08	2.661325e+13	0.000000e+00	4.797687e-01	5.151117e+14	1.300920e+15	4.162222e+14	1.272138e+04	5.570601e+03	2.410582e+03	0	1.058692e-03
4.300000e+08	2.603591e+13	0.000000e+00	4.797687e-01	5.080768e+14	1.284348e+15	4.141050e+14	1.269253e+04	5.562562e+03	2.407103e+03	0	1.050980e-03
4.400000e+08	2.547289e+13	0.000000e+00	4.797687e-01	5.012111e+14	1.268239e+15	4.120029e+14	1.266407e+04	5.554684e+03	2.403694e+03	0	1.043349e-03
4.500000e+08	2.492370e+13	0.000000e+00	4.797687e-01	4.945087e+14	1.252572e+15	4.099160e+14	1.263599e+04	5.546960e+03	2.400351e+03	0	1.035796e-03
4.600000e+08	2.438786e+13	0.000000e+00	4.797687e-01	4.879640e+14	1.237329e+15	4.078441e+14	1.260829e+04	5.539384e+03	2.397073e+03	0	1.028320e-03
4.700000e+08	2.386490e+13	0.000000e+00	4.797687e-01	4.815717e+14	1.222491e+15	4.057870e+14	1.258096e+04	5.531951e+03	2.393856e+03	0	1.020916e-03
4.800000e+08	2.335440e+13	0.000000e+00	4.797687e-01	4.753266e+14	1.208042e+15	4.037447e+14	1.255397e+04	5.524655e+03	2.390699e+03	0	1.013584e-03
4.900000e+08	2.285593e+13	0.000000e+00	4.797687e-01	4.692240e+14	1.193965e+15	4.017169e+14	1.252734e+04	5.517492e+03	2.387600e+03	0	1.006321e-03
5.000000e+08	2.236909e+13	0.000000e+00	4.797687e-01	4.632590e+14	1.180245e+15	3.997037e+14	1.250105e+04	5.510458e+03	2.384556e+03	0	9.991247e-04
5.100000e+08	2.189351e+13	0.000000e+00	4.797687e-01	4.574273e+14	1.166868e+15	3.977049e+14	1.247509e+04	5.503548e+03	2.381566e+03	0	9.919932e-04
5.200000e+08	2.142880e+13	0.000000e+00	4.797687e-01	4.517246e+14	1.153820e+15	3.957203e+14	1.244946e+04	5.496757e+03	2.378627e+03	0	9.849244e-04
5.300000e+08	2.097463e+13	0.000000e+00	4.797687e-01	4.461467e+14	1.141088e+15	3.937499e+14	1.242414e+04	5.490082e+03	2.375739e+03	0	9.779163e-04
5.400000e+08	2.053066e+13	0.000000e+00	4.797687e-01	4.406897e+14	1.128660e+15	3.917935e+14	1.239914e+04	5.483519e+03	2.372899e+03	0	9.709672e-04
5.500000e+08	2.009657e+13	0.000000e+00	4.797687e-01	4.353499e+14	1.116524e+15	3.898511e+14	1.237444e+04	5.477064e+03	2.370105e+03	0	9.640751e-04
5.600000e+08	1.967204e+13	0.000000e+00	4.797687e-01	4.301237e+14	1.104670e+15	3.879224e+14	1.235004e+04	5.470714e+03	2.367358e+03	0	9.572382e-04
5.700000e+08	1.925678e+13	0.000000e+00	4.797687e-01	4.250076e+14	1.093087e+15	3.860075e+14	1.232593e+04	5.464466e+03	2.364654e+03	0	9.504548e-04
5.800000e+08	1.885051e+13	0.000000e+00	4.797687e-01	4.199982e+14	1.081765e+15	3.841061e+14	1.230210e+04	5.458316e+03	2.361992e+03	0	9.437231e-04
5.900000e+08	1.845295e+13	0.000000e+00	4.797687e-01	4.150924e+14	1.070696e+15	3.822182e+14	1.227856e+04	5.452261e+03	2.359372e+03	0	9.370415e-04
6.000000e+08	1.806384e+13	0.000000e+00	4.797687e-01	4.102870e+14	1.059869e+15	3.803437e+14	1.225529e+04	5.446299e+03	2.356792e+03	0	9.304083e-04
6.100000e+08	1.768293e+13	0.000000e+00	4.797687e-01	4.055792e+14	1.049276e+15	3.784824e+14	1.223229e+04	5.440426e+03	2.354251e+03	0	9.238220e-04
6.200000e+08	1.730997e+13	0.000000e+00	4.797687e-01	4.009661e+14	1.038910e+15	3.766343e+14	1.220955e+04	5.434641e+03	2.351747e+03	0	9.172809e-04
6.300000e+08	1.694474e+13	0.000000e+00	4.797687e-01	3.964450e+14	1.028762e+15	3.747992e+14	1.218707e+04	5.428940e+03	2.349280e+03	0	9.107837e-04
6.400000e+08	1.658701e+13	0.000000e+00	4.797687e-01	3.920132e+14	1.018825e+15	3.729771e+14	1.216484e+04	5.423320e+03	2.346849e+03	0	9.043287e-04
6.500000e+08	1.623657e+13	0.000000e+00	4.797687e-01	3.876681e+14	1.009092e+15	3.711678e+14	1.214286e+04	5.417781e+03	2.344451e+03	0	8.979145e-04
6.600000e+08	1.589319e+13	0.000000e+00	4.797687e-01	3.834075e+14	9.995568e+14	3.693712e+14	1.212112e+04	5.412319e+03	2.342088e+03	0	8.915396e-04
6.700000e+08	1.555670e+13	0.000000e+00	4.797687e-01	3.792288e+14	9.902125e+14	3.675873e+14	1.209962e+04	5.406932e+03	2.339757e+03	0	8.852027e-04
6.800000e+08	1.522689e+13	0.000000e+00	4.797687e-01	3.751299e+14	9.810529e+14	3.658159e+14	1.207835e+04	5.401618e+03	2.337457e+03	0	8.789023e-04
6.900000e+08	1.490357e+13	0.000000e+00	4.797687e-01	3.711086e+14	9.720724e+14	3.640569e+14	1.205731e+04	5.396376e+03	2.335189e+03	0	8.726372e-04
7.000000e+08	1.458658e+13	0.000000e+00	4.797687e-01	3.671628e+14	9.632651e+14	3.623103e+14	1.203650e+04	5.391203e+03	2.332950e+03	0	8.664059e-04
7.100000e+08	1.427573e+13	0.000000e+00	4.797687e-01	3.632904e+14	9.546259e+14	3.605759e+14	1.201590e+04	5.386097e+03	2.330741e+03	0	8.602071e-04
7.200000e+08	1.397086e+13	0.000000e+00	4.797687e-01	3.594894e+14	9.461495e+14	3.588536e+14	1.199553e+04	5.381057e+03	2.328560e+03	0	8.540395e-04
7.300000e+08	1.367181e+13	0.000000e+00	4.797687e-01	3.557581e+14	9.378309e+14	3.571433e+14	1.197536e+04	5.376081e+03	2.326407e+03	0	8.479018e-04
7.400000e+08	1.337842e+13	0.000000e+00	4.797687e-01	3.520945e+14	9.296656e+14	3.554450e+14	1.195541e+04	5.371167e+03	2.324280e+03	0	8.417928e-04
7.500000e+08	1.309055e+13	0.000000e+00	4.797687e-01	3.484969e+14	9.216489e+14	3.537585e+14	1.193566e+04	5.366314e+03	2.322180e+03	0	8.357111e-04
7.600000e+08	1.280805e+13	0.000000e+00	4.797687e-01	3.449637e+14	9.137765e+14	3.520838e+14	1.191611e+04	5.361520e+03	2.320106e+03	0	8.296556e-04
7.700000e+08	1.253077e+13	0.000000e+00	4.797687e-01	3.414931e+14	9.060442e+14	3.504207e+14	1.189676e+04	5.356784e+03	2.318056e+03	0	8.236250e-04
7.800000e+08	1.225859e+13	0.000000e+00	4.797687e-01	3.380835e+14	8.984481e+14	3.487692e+14	1.187760e+04	5.352105e+03	2.316031e+03	0	8.176181e-04
7.900000e+08	1.199138e+13	0.000000e+00	4.797687e-01	3.347335e+14	8.909842e+14	3.471292e+14	1.185863e+04	5.347480e+03	2.314030e+03	0	8.116335e-04
8.000000e+08	1.172901e+13	0.000000e+00	4.797687e-01	3.314415e+14	8.836488e+14	3.455005e+14	1.183985e+04	5.342909e+03	2.312052e+03	0	8.056702e-04
8.100000e+08	1.147135e+13	0.000000e+00	4.797687e-01	3.282061e+14	8.764385e+14	3.438831e+14	1.182126e+04	5.338390e+03	2.310096e+03	0	7.997269e-04
8.200000e+08	1.121829e+13	0.000000e+00	4.797687e-01	3.250260e+14	8.693497e+14	3.422769e+14	1.180284e+04	5.333922e+03	2.308163e+03	0	7.938024e-04
8.300000e+08	1.096971e+13	0.000000e+00	4.797687e-01	3.218997e+14	8.623792e+14	3.406819e+14	1.178460e+04	5.329505e+03	2.306251e+03	0	7.878955e-04
8.400000e+08	1.072551e+13	0.000000e+00	4.797687e-01	3.188259e+14	8.555238e+14	3.390978e+14	1.176654e+04	5.325136e+03	2.304361e+03	0	7.820050e-04
8.500000e+08	1.048557e+13	0.000000e+00	4.797687e-01	3.158035e+14	8.487805e+14	3.375246e+14	1.174865e+04	5.320814e+03	2.302491e+03	0	7.761296e-04
8.600000e+08	1.024980e+13	0.000000e+00	4.797687e-01	3.128311e+14	8.421463e+14	3.359624e+14	1.173093e+04	5.316540e+03	2.300641e+03	0	7.702682e-04
8.700000e+08	1.001808e+13	0.000000e+00	4.797687e-01	3.099076e+14	8.356183e+14	3.344108e+14	1.171337e+04	5.312310e+03	2.298811e+03	0	7.644196e-04
8.800000e+08	9.790337e+12	0.000000e+00	4.797687e-01	3.070319e+14	8.291939e+14	3.328699e+14	1.169598e+04	5.308126e+03	2.297000e+03	0	7.585825e-04
8.900000e+08	9.566462e+12	0.000000e+00	4.797687e-01	3.042027e+14	8.228704e+14	3.313397e+14	1.167875e+04	5.303985e+03	2.295208e+03	0	7.527556e-04
9.000000e+08	9.346366e+12	0.000000e+00	4.797687e-01	3.014192e+14	8.166452e+14	3.298199e+14	1.166168e+04	5.299886e+03	2.293435e+03	0	7.469379e-04
9.100000e+08	9.129961e+12	0.000000e+00	4.797687e-01	2.986801e+14	8.105160e+14	3.283105e+14	1.164476e+04	5.295830e+03	2.291679e+03	0	7.411280e-04
9.200000e+08	8.917161e+12	0.000000e+00	4.797687e-01	2.959844e+14	8.044802e+14	3.268115e+14	1.162800e+04	5.291814e+03	2.289941e+03	0	7.353246e-04
9.300000e+08	8.707883e+12	0.000000e+00	4.797687e-01	2.933313e+14	7.985357e+14	3.253227e+14	1.161139e+04	5.287838e+03	2.288221e+03	0	7.295265e-04
9.400000e+08	8.502045e+12	0.000000e+00	4.797687e-01	2.907197e+14	7.926802e+14	3.238441e+14	1.159492e+04	5.283901e+03	2.286517e+03	0	7.237325e-04
9.500000e+08	8.299571e+12	0.000000e+00	4.797687e-01	2.881487e+14	7.869116e+14	3.223756e+14	1.157860e+04	5.280003e+03	2.284830e+03	0	7.179410e-04
9.600000e+08	8.100382e+12	0.000000e+00	4.797687e-01	2.856174e+14	7.812278e+14	3.209171e+14	1.156243e+04	5.276142e+03	2.283160e+03	0	7.121510e-04
9.700000e+08	7.904406e+12	0.000000e+00	4.797687e-01	2.831249e+14	7.756269e+14	3.194686e+14	1.154640e+04	5.272318e+03	2.281505e+03	0	7.063609e-04
9.800000e+08	7.711571e+12	0.000000e+00	4.797687e-01	2.806705e+14	7.701068e+14	3.180299e+14	1.153050e+04	5.268530e+03	2.279866e+03	0	7.005695e-04
9.900000e+08	7.521807e+12	0.000000e+00	4.797687e-01	2.782531e+14	7.646657e+14	3.166010e+14	1.151475e+04	5.264778e+03	2.278242e+03	0	6.947752e-04
1.000000e+09	7.335046e+12	0.000000e+00	4.797687e-01	2.758721e+14	7.593018e+14	3.151818e+14	1.149913e+04	5.261060e+03	2.276633e+03	0	6.889767e-04
1.010000e+09	7.151222e+12	0.000000e+00	4.797687e-01	2.735267e+14	7.540134e+14	3.137722e+14	1.148364e+04	5.257376e+03	2.275039e+03	0	6.831724e-04
1.020000e+09	6.970272e+12	0.000000e+00	4.797687e-01	2.712161e+14	7.487987e+14	3.123721e+14	1.146829e+04	5.253725e+03	2.273459e+03	0	6.773609e-04
1.030000e+09	6.792134e+12	0.000000e+00	4.797687e-01	2.689395e+14	7.436561e+14	3.109815e+14	1.145306e+04	5.250107e+03	2.271893e+03	0	6.715407e-04
1.040000e+09	6.616746e+12	0.000000e+00	4.797687e-01	2.666964e+14	7.385840e+14	3.096004e+14	1.143796e+04	5.246521e+03	2.270342e+03	0	6.657100e-04
1.050000e+09	6.444051e+12	0.000000e+00	4.797687e-01	2.644858e+14	7.335809e+14	3.082285e+14	1.142299e+04	5.242967e+03	2.268804e+03	0	6.598672e-04
1.060000e+09	6.273991e+12	0.000000e+00	4.797687e-01	2.623073e+14	7.286453e+14	3.068659e+14	1.140814e+04	5.239443e+03	2.267279e+03	0	6.540107e-04
1.070000e+09	6.106511e+12	0.000000e+00	4.797687e-01	2.601600e+14	7.237757e+14	3.055125e+14	1.139341e+04	5.235950e+03	2.265767e+03	0	6.481387e-04
1.080000e+09	5.941557e+12	0.000000e+00	4.797687e-01	2.580434e+14	7.189706e+14	3.041682e+14	1.137880e+04	5.232486e+03	2.264268e+03	0	6.422493e-04
1.090000e+09	5.779075e+12	0.000000e+00	4.797687e-01	2.559569e+14	7.142289e+14	3.028329e+14	1.136431e+04	5.229052e+03	2.262782e+03	0	6.363407e-04
1.100000e+09	5.619016e+12	0.000000e+00	4.797687e-01	2.538998e+14	7.095490e+14	3.015066e+14	1.134994e+04	5.225647e+03	2.261309e+03	0	6.304108e-04
1.110000e+09	5.461328e+12	0.000000e+00	4.797687e-01	2.518716e+14	7.049298e+14	3.001892e+14	1.133568e+04	5.222269e+03	2.259847e+03	0	6.244577e-04
1.120000e+09	5.305965e+12	0.000000e+00	4.797687e-01	2.498717e+14	7.003699e+14	2.988806e+14	1.132154e+04	5.218920e+03	2.258398e+03	0	6.184791e-04
1.130000e+09	5.152877e+12	0.000000e+00	4.797687e-01	2.478994e+14	6.958682e+14	2.975808e+14	1.130751e+04	5.215597e+03	2.256960e+03	0	6.124728e-04
1.140000e+09	5.002020e+12	0.000000e+00	4.797687e-01	2.459543e+14	6.914234e+14	2.962897e+14	1.129359e+04	5.212302e+03	2.255534e+03	0	6.064366e-04
1.150000e+09	4.853349e+12	0.000000e+00	4.797687e-01	2.440358e+14	6.870346e+14	2.950072e+14	1.127978e+04	5.209032e+03	2.254119e+03	0	6.003678e-04
1.160000e+09	4.706819e+12	0.000000e+00	4.797687e-01	2.421435e+14	6.827004e+14	2.937332e+14	1.126607e+04	5.205789e+03	2.252716e+03	0	5.942640e-04
1.170000e+09	4.562389e+12	0.000000e+00	4.797687e-01	2.402767e+14	6.784198e+14	2.924677e+14	1.125247e+04	5.202571e+03	2.251323e+03	0	5.881224e-04
1.180000e+09	4.420018e+12	0.000000e+00	4.797687e-01	2.384351e+14	6.741919e+14	2.912107e+14	1.123898e+04	5.199378e+03	2.249941e+03	0	5.819400e-04
1.190000e+09	4.279664e+12	0.000000e+00	4.797687e-01	2.366180e+14	6.700155e+14	2.899620e+14	1.122559e+04	5.196209e+03	2.248570e+03	0	5.757140e-04
1.200000e+09	4.141288e+12	0.000000e+00	4.797687e-01	2.348252e+14	6.658897e+14	2.887216e+14	1.121230e+04	5.193065e+03	2.247210e+03	0	5.694410e-04
1.210000e+09	4.004852e+12	0.000000e+00	4.797687e-01	2.330560e+14	6.618134e+14	2.874894e+14	1.119911e+04	5.189944e+03	2.245859e+03	0	5.631176e-04
1.220000e+09	3.870319e+12	0.000000e+00	4.797687e-01	2.313101e+14	6.577858e+14	2.862653e+14	1.118602e+04	5.186847e+03	2.244519e+03	0	5.567401e-04
1.230000e+09	3.737652e+12	0.000000e+00	4.797687e-01	2.295870e+14	6.538060e+14	2.850494e+14	1.117303e+04	5.183773e+03	2.243189e+03	0	5.503047e-04
1.240000e+09	3.606816e+12	0.000000e+00	4.797687e-01	2.278862e+14	6.498730e+14	2.838415e+14	1.116013e+04	5.180722e+03	2.241868e+03	0	5.438071e-04
1.250000e+09	3.477775e+12	0.000000e+00	4.797687e-01	2.262075e+14	6.459859e+14	2.826416e+14	1.114733e+04	5.177693e+03	2.240557e+03	0	5.372430e-04
1.260000e+09	3.350497e+12	0.000000e+00	4.797687e-01	2.245503e+14	6.421440e+14	2.814496e+14	1.113463e+04	5.174685e+03	2.239256e+03	0	5.306074e-04
1.270000e+09	3.224947e+12	0.000000e+00	4.797687e-01	2.229143e+14	6.383464e+14	2.802655e+14	1.112202e+04	5.171700e+03	2.237964e+03	0	5.238952e-04
1.280000e+09	3.101094e+12	0.000000e+00	4.797687e-01	2.212991e+14	6.345922e+14	2.790891e+14	1.110949e+04	5.168736e+03	2.236681e+03	0	5.171008e-04
1.290000e+09	2.978907e+12	0.000000e+00	4.797687e-01	2.197043e+14	6.308808e+14	2.779205e+14	1.109706e+04	5.165792e+03	2.235408e+03	0	5.102181e-04
1.300000e+09	2.858354e+12	0.000000e+00	4.797687e-01	2.181296e+14	6.272113e+14	2.767595e+14	1.108472e+04	5.162870e+03	2.234143e+03	0	5.032405e-04
1.310000e+09	2.739405e+12	0.000000e+00	4.797687e-01	2.165745e+14	6.235830e+14	2.756062e+14	1.107247e+04	5.159967e+03	2.232887e+03	0	4.961607e-04
1.320000e+09	2.622032e+12	0.000000e+00	4.797687e-01	2.150388e+14	6.199952e+14	2.744604e+14	1.106030e+04	5.157085e+03	2.231640e+03	0	4.889708e-04
1.330000e+09	2.506205e+12	0.000000e+00	4.797687e-01	2.135220e+14	6.164471e+14	2.733221e+14	1.104822e+04	5.154223e+03	2.230401e+03	0	4.816621e-04
1.340000e+09	2.391898e+12	0.000000e+00	4.797687e-01	2.120240e+14	6.129381e+14	2.721912e+14	1.103623e+04	5.151380e+03	2.229171e+03	0	4.742250e-04
1.350000e+09	2.279081e+12	0.000000e+00	4.797687e-01	2.105442e+14	6.094675e+14	2.710678e+14	1.102432e+04	5.148556e+03	2.227949e+03	0	4.666488e-04
1.360000e+09	2.167730e+12	0.000000e+00	4.797687e-01	2.090825e+14	6.060347e+14	2.699516e+14	1.101249e+04	5.145751e+03	2.226735e+03	0	4.589217e-04
