#t		Qconv[W]	Ri[Rp]		R*[Rp]		Qc[W]		Qm[W]		Qr[W]		Tcmb[K]		Tl[K]		Tup[K]		RiFlag		Bs[T]
0.000000e+00	8.424481e+13	0.000000e+00	4.797689e-01	1.206490e+15	3.234867e+15	5.456816e+14	1.499020e+04	6.399613e+03	2.727083e+03	0	1.552094e-03
1.000000e+07	8.165625e+13	0.000000e+00	4.797689e-01	1.176813e+15	3.123424e+15	5.426582e+14	1.492692e+04	6.369145e+03	2.714099e+03	0	1.536031e-03
2.000000e+07	7.918498e+13	0.000000e+00	4.797689e-01	1.148456e+15	3.020080e+15	5.396573e+14	1.486519e+04	6.340270e+03	2.701794e+03	0	1.520377e-03
3.000000e+07	7.682327e+13	0.000000e+00	4.797689e-01	1.121333e+15	2.923983e+15	5.366789e+14	1.480493e+04	6.312854e+03	2.690112e+03	0	1.505109e-03
4.000000e+07	7.456406e+13	0.000000e+00	4.797689e-01	1.095365e+15	2.834394e+15	5.337226e+14	1.474608e+04	6.286777e+03	2.678999e+03	0	1.490208e-03
5.000000e+07	7.240089e+13	0.000000e+00	4.797689e-01	1.070480e+15	2.750670e+15	5.307885e+14	1.468859e+04	6.261932e+03	2.668412e+03	0	1.475655e-03
6.000000e+07	7.032785e+13	0.000000e+00	4.797689e-01	1.046610e+15	2.672250e+15	5.278762e+14	1.463239e+04	6.238223e+03	2.658309e+03	0	1.461434e-03
7.000000e+07	6.833949e+13	0.000000e+00	4.797689e-01	1.023697e+15	2.598639e+15	5.249856e+14	1.457744e+04	6.215566e+03	2.648654e+03	0	1.447530e-03
8.000000e+07	6.643080e+13	0.000000e+00	4.797689e-01	1.001683e+15	2.529404e+15	5.221165e+14	1.452369e+04	6.193882e+03	2.639414e+03	0	1.433926e-03
9.000000e+07	6.459719e+13	0.000000e+00	4.797689e-01	9.805160e+14	2.464160e+15	5.192688e+14	1.447108e+04	6.173102e+03	2.630559e+03	0	1.420610e-03
1.000000e+08	6.283437e+13	0.000000e+00	4.797689e-01	9.601496e+14	2.402566e+15	5.164421e+14	1.441957e+04	6.153164e+03	2.622063e+03	0	1.407568e-03
1.100000e+08	6.113841e+13	0.000000e+00	4.797689e-01	9.405391e+14	2.344320e+15	5.136365e+14	1.436913e+04	6.134009e+03	2.613900e+03	0	1.394788e-03
1.200000e+08	5.950566e+13	0.000000e+00	4.797689e-01	9.216435e+14	2.289150e+15	5.108516e+14	1.431972e+04	6.115586e+03	2.606050e+03	0	1.382260e-03
1.300000e+08	5.793273e+13	0.000000e+00	4.797689e-01	9.034248e+14	2.236813e+15	5.080874e+14	1.427128e+04	6.097848e+03	2.598491e+03	0	1.369972e-03
1.400000e+08	5.641646e+13	0.000000e+00	4.797689e-01	8.858477e+14	2.187092e+15	5.053437e+14	1.422381e+04	6.080752e+03	2.591205e+03	0	1.357914e-03
1.500000e+08	5.495393e+13	0.000000e+00	4.797689e-01	8.688793e+14	2.139790e+15	5.026202e+14	1.417724e+04	6.064257e+03	2.584176e+03	0	1.346077e-03
1.600000e+08	5.354240e+13	0.000000e+00	4.797689e-01	8.524889e+14	2.094730e+15	4.999168e+14	1.413157e+04	6.048328e+03	2.577388e+03	0	1.334452e-03
1.700000e+08	5.217932e+13	0.000000e+00	4.797689e-01	8.366478e+14	2.051752e+15	4.972334e+14	1.408675e+04	6.032930e+03	2.570827e+03	0	1.323030e-03
1.800000e+08	5.086231e+13	0.000000e+00	4.797689e-01	8.213293e+14	2.010710e+15	4.945697e+14	1.404276e+04	6.018035e+03	2.564480e+03	0	1.311804e-03
1.900000e+08	4.958914e+13	0.000000e+00	4.797689e-01	8.065085e+14	1.971473e+15	4.919257e+14	1.399957e+04	6.003612e+03	2.558334e+03	0	1.300766e-03
2.000000e+08	4.835773e+13	0.000000e+00	4.797689e-01	7.921617e+14	1.933919e+15	4.893012e+14	1.395715e+04	5.989636e+03	2.552378e+03	0	1.289908e-03
2.100000e+08	4.716611e+13	0.000000e+00	4.797689e-01	7.782671e+14	1.897938e+15	4.866959e+14	1.391549e+04	5.976083e+03	2.546603e+03	0	1.279225e-03
2.200000e+08	4.601246e+13	0.000000e+00	4.797689e-01	7.648039e+14	1.863431e+15	4.841098e+14	1.387455e+04	5.962930e+03	2.540998e+03	0	1.268709e-03
2.300000e+08	4.489504e+13	0.000000e+00	4.797689e-01	7.517529e+14	1.830305e+15	4.815426e+14	1.383431e+04	5.950156e+03	2.535554e+03	0	1.258355e-03
2.400000e+08	4.381224e+13	0.000000e+00	4.797689e-01	7.390956e+14	1.798475e+15	4.789943e+14	1.379476e+04	5.937743e+03	2.530265e+03	0	1.248156e-03
2.500000e+08	4.276253e+13	0.000000e+00	4.797689e-01	7.268149e+14	1.767863e+15	4.764646e+14	1.375587e+04	5.925671e+03	2.525121e+03	0	1.238107e-03
2.600000e+08	4.174446e+13	0.000000e+00	4.797689e-01	7.148946e+14	1.738398e+15	4.739535e+14	1.371763e+04	5.913925e+03	2.520115e+03	0	1.228202e-03
2.700000e+08	4.075669e+13	0.000000e+00	4.797689e-01	7.033195e+14	1.710014e+15	4.714607e+14	1.368000e+04	5.902488e+03	2.515241e+03	0	1.218437e-03
2.800000e+08	3.979793e+13	0.000000e+00	4.797689e-01	6.920750e+14	1.682649e+15	4.689861e+14	1.364299e+04	5.891345e+03	2.510493e+03	0	1.208807e-03
2.900000e+08	3.886697e+13	0.000000e+00	4.797689e-01	6.811475e+14	1.656247e+15	4.665296e+14	1.360656e+04	5.880484e+03	2.505865e+03	0	1.199307e-03
3.000000e+08	3.796267e+13	0.000000e+00	4.797689e-01	6.705242e+14	1.630755e+15	4.640909e+14	1.357070e+04	5.869892e+03	2.501351e+03	0	1.189933e-03
3.100000e+08	3.708394e+13	0.000000e+00	4.797689e-01	6.601928e+14	1.606125e+15	4.616701e+14	1.353540e+04	5.859555e+03	2.496946e+03	0	1.180680e-03
3.200000e+08	3.622976e+13	0.000000e+00	4.797689e-01	6.501418e+14	1.582312e+15	4.592669e+14	1.350065e+04	5.849464e+03	2.492646e+03	0	1.171544e-03
3.300000e+08	3.539916e+13	0.000000e+00	4.797689e-01	6.403601e+14	1.559273e+15	4.568811e+14	1.346641e+04	5.839606e+03	2.488446e+03	0	1.162522e-03
3.400000e+08	3.459122e+13	0.000000e+00	4.797689e-01	6.308375e+14	1.536969e+15	4.545126e+14	1.343270e+04	5.829973e+03	2.484341e+03	0	1.153610e-03
3.500000e+08	3.380505e+13	0.000000e+00	4.797689e-01	6.215639e+14	1.515364e+15	4.521614e+14	1.339947e+04	5.820556e+03	2.480327e+03	0	1.144803e-03
3.600000e+08	3.303984e+13	0.000000e+00	4.797689e-01	6.125300e+14	1.494423e+15	4.498272e+14	1.336674e+04	5.811344e+03	2.476402e+03	0	1.136099e-03
3.700000e+08	3.229480e+13	0.000000e+00	4.797689e-01	6.037270e+14	1.474115e+15	4.475099e+14	1.333448e+04	5.802329e+03	2.472561e+03	0	1.127494e-03
3.800000e+08	3.156916e+13	0.000000e+00	4.797689e-01	5.951462e+14	1.454409e+15	4.452093e+14	1.330268e+04	5.793505e+03	2.468800e+03	0	1.118986e-03
3.900000e+08	3.086223e+13	0.000000e+00	4.797689e-01	5.867797e+14	1.435278e+15	4.429254e+14	1.327133e+04	5.784863e+03	2.465118e+03	0	1.110570e-03
4.000000e+08	3.017331e+13	0.000000e+00	4.797689e-01	5.786197e+14	1.416695e+15	4.406580e+14	1.324042e+04	5.776396e+03	2.461510e+03	0	1.102244e-03
4.100000e+08	2.950176e+13	0.000000e+00	4.797689e-01	5.706590e+14	1.398635e+15	4.384070e+14	1.320994e+04	5.768098e+03	2.457974e+03	0	1.094006e-03
4.200000e+08	2.884697e+13	0.000000e+00	4.797689e-01	5.628904e+14	1.381076e+15	4.361721e+14	1.317987e+04	5.759962e+03	2.454507e+03	0	1.085851e-03
4.300000e+08	2.820835e+13	0.000000e+00	4.797689e-01	5.553074e+14	1.363995e+15	4.339534e+14	1.315021e+04	5.751983e+03	2.451106e+03	0	1.077778e-03
4.400000e+08	2.758532e+13	0.000000e+00	4.797689e-01	5.479036e+14	1.347373e+15	4.317506e+14	1.312095e+04	5.744154e+03	2.447770e+03	0	1.069784e-03
4.500000e+08	2.697737e+13	0.000000e+00	4.797689e-01	5.406729e+14	1.331189e+15	4.295637e+14	1.309208e+04	5.736470e+03	2.444496e+03	0	1.061867e-03
4.600000e+08	2.638396e+13	0.000000e+00	4.797689e-01	5.336096e+14	1.315425e+15	4.273924e+14	1.306359e+04	5.728926e+03	2.441281e+03	0	1.054023e-03
4.700000e+08	2.580462e+13	0.000000e+00	4.797689e-01	5.267079e+14	1.300065e+15	4.252367e+14	1.303547e+04	5.721518e+03	2.438124e+03	0	1.046251e-03
4.800000e+08	2.523888e+13	0.000000e+00	4.797689e-01	5.199627e+14	1.285091e+15	4.230965e+14	1.300771e+04	5.714240e+03	2.435023e+03	0	1.038549e-03
4.900000e+08	2.468629e+13	0.000000e+00	4.797689e-01	5.133688e+14	1.270488e+15	4.209716e+14	1.298030e+04	5.707088e+03	2.431975e+03	0	1.030913e-03
5.000000e+08	2.414641e+13	0.000000e+00	4.797689e-01	5.069213e+14	1.256242e+15	4.188619e+14	1.295324e+04	5.700058e+03	2.428979e+03	0	1.023343e-03
5.100000e+08	2.361884e+13	0.000000e+00	4.797689e-01	5.006157e+14	1.242339e+15	4.167672e+14	1.292652e+04	5.693146e+03	2.426034e+03	0	1.015835e-03
5.200000e+08	2.310319e+13	0.000000e+00	4.797689e-01	4.944474e+14	1.228766e+15	4.146875e+14	1.290013e+04	5.686348e+03	2.423137e+03	0	1.008388e-03
5.300000e+08	2.259907e+13	0.000000e+00	4.797689e-01	4.884122e+14	1.215510e+15	4.126227e+14	1.287406e+04	5.679660e+03	2.420287e+03	0	1.000999e-03
5.400000e+08	2.210613e+13	0.000000e+00	4.797689e-01	4.825059e+14	1.202560e+15	4.105725e+14	1.284831e+04	5.673079e+03	2.417483e+03	0	9.936677e-04
5.500000e+08	2.162402e+13	0.000000e+00	4.797689e-01	4.767246e+14	1.189904e+15	4.085370e+14	1.282288e+04	5.666602e+03	2.414723e+03	0	9.863908e-04
5.600000e+08	2.115240e+13	0.000000e+00	4.797689e-01	4.710644e+14	1.177532e+15	4.065159e+14	1.279774e+04	5.660225e+03	2.412005e+03	0	9.791670e-04
5.700000e+08	2.069095e+13	0.000000e+00	4.797689e-01	4.655218e+14	1.165434e+15	4.045091e+14	1.277290e+04	5.653945e+03	2.409329e+03	0	9.719944e-04
5.800000e+08	2.023938e+13	0.000000e+00	4.797689e-01	4.600933e+14	1.153600e+15	4.025166e+14	1.274835e+04	5.647760e+03	2.406694e+03	0	9.648711e-04
5.900000e+08	1.979738e+13	0.000000e+00	4.797689e-01	4.547755e+14	1.142020e+15	4.005382e+14	1.272409e+04	5.641666e+03	2.404097e+03	0	9.577955e-04
6.000000e+08	1.936466e+13	0.000000e+00	4.797689e-01	4.495652e+14	1.130686e+15	3.985739e+14	1.270011e+04	5.635662e+03	2.401538e+03	0	9.507658e-04
6.100000e+08	1.894097e+13	0.000000e+00	4.797689e-01	4.444592e+14	1.119590e+15	3.966234e+14	1.267640e+04	5.629743e+03	2.399016e+03	0	9.437804e-04
6.200000e+08	1.852602e+13	0.000000e+00	4.797689e-01	4.394546e+14	1.108724e+15	3.946867e+14	1.265296e+04	5.623909e+03	2.396530e+03	0	9.368376e-04
6.300000e+08	1.811958e+13	0.000000e+00	4.797689e-01	4.345484e+14	1.098080e+15	3.927637e+14	1.262978e+04	5.618156e+03	2.394078e+03	0	9.299358e-04
6.400000e+08	1.772140e+13	0.000000e+00	4.797689e-01	4.297380e+14	1.087651e+15	3.908542e+14	1.260686e+04	5.612482e+03	2.391661e+03	0	9.230734e-04
6.500000e+08	1.733124e+13	0.000000e+00	4.797689e-01	4.250206e+14	1.077430e+15	3.889582e+14	1.258419e+04	5.606885e+03	2.389276e+03	0	9.162488e-04
6.600000e+08	1.694887e+13	0.000000e+00	4.797689e-01	4.203937e+14	1.067410e+15	3.870755e+14	1.256177e+04	5.601364e+03	2.386923e+03	0	9.094605e-04
6.700000e+08	1.657409e+13	0.000000e+00	4.797689e-01	4.158548e+14	1.057585e+15	3.852061e+14	1.253960e+04	5.595915e+03	2.384601e+03	0	9.027070e-04
6.800000e+08	1.620668e+13	0.000000e+00	4.797689e-01	4.114015e+14	1.047949e+15	3.833498e+14	1.251766e+04	5.590537e+03	2.382309e+03	0	8.959868e-04
6.900000e+08	1.584644e+13	0.000000e+00	4.797689e-01	4.070315e+14	1.038496e+15	3.815065e+14	1.249595e+04	5.585228e+03	2.380047e+03	0	8.892984e-04
7.000000e+08	1.549318e+13	0.000000e+00	4.797689e-01	4.027425e+14	1.029221e+15	3.796761e+14	1.247448e+04	5.579987e+03	2.377813e+03	0	8.826403e-04
7.100000e+08	1.514670e+13	0.000000e+00	4.797689e-01	3.985324e+14	1.020118e+15	3.778586e+14	1.245323e+04	5.574811e+03	2.375608e+03	0	8.760110e-04
7.200000e+08	1.480682e+13	0.000000e+00	4.797689e-01	3.943992e+14	1.011182e+15	3.760537e+14	1.243220e+04	5.569699e+03	2.373429e+03	0	8.694091e-04
7.300000e+08	1.447338e+13	0.000000e+00	4.797689e-01	3.903408e+14	1.002409e+15	3.742615e+14	1.241139e+04	5.564650e+03	2.371278e+03	0	8.628332e-04
7.400000e+08	1.414619e+13	0.000000e+00	4.797689e-01	3.863553e+14	9.937925e+14	3.724818e+14	1.239080e+04	5.559661e+03	2.369152e+03	0	8.562819e-04
7.500000e+08	1.382511e+13	0.000000e+00	4.797689e-01	3.824409e+14	9.853293e+14	3.707145e+14	1.237041e+04	5.554732e+03	2.367051e+03	0	8.497537e-04
7.600000e+08	1.350996e+13	0.000000e+00	4.797689e-01	3.785956e+14	9.770147e+14	3.689595e+14	1.235023e+04	5.549860e+03	2.364975e+03	0	8.432472e-04
7.700000e+08	1.320060e+13	0.000000e+00	4.797689e-01	3.748178e+14	9.688445e+14	3.672167e+14	1.233025e+04	5.545045e+03	2.362924e+03	0	8.367610e-04
7.800000e+08	1.289687e+13	0.000000e+00	4.797689e-01	3.711058e+14	9.608147e+14	3.654860e+14	1.231047e+04	5.540285e+03	2.360895e+03	0	8.302936e-04
7.900000e+08	1.259865e+13	0.000000e+00	4.797689e-01	3.674580e+14	9.529216e+14	3.637674e+14	1.229089e+04	5.535579e+03	2.358890e+03	0	8.238438e-04
8.000000e+08	1.230578e+13	0.000000e+00	4.797689e-01	3.638727e+14	9.451612e+14	3.620607e+14	1.227149e+04	5.530926e+03	2.356907e+03	0	8.174099e-04
8.100000e+08	1.201813e+13	0.000000e+00	4.797689e-01	3.603484e+14	9.375302e+14	3.603657e+14	1.225229e+04	5.526324e+03	2.354946e+03	0	8.109907e-04
8.200000e+08	1.173558e+13	0.000000e+00	4.797689e-01	3.568837e+14	9.300250e+14	3.586826e+14	1.223327e+04	5.521772e+03	2.353006e+03	0	8.045847e-04
8.300000e+08	1.145800e+13	0.000000e+00	4.797689e-01	3.534771e+14	9.226422e+14	3.570110e+14	1.221443e+04	5.517269e+03	2.351087e+03	0	7.981905e-04
8.400000e+08	1.118527e+13	0.000000e+00	4.797689e-01	3.501272e+14	9.153788e+14	3.553510e+14	1.219577e+04	5.512815e+03	2.349189e+03	0	7.918066e-04
8.500000e+08	1.091727e+13	0.000000e+00	4.797689e-01	3.468327e+14	9.082316e+14	3.537025e+14	1.217729e+04	5.508407e+03	2.347311e+03	0	7.854315e-04
8.600000e+08	1.065389e+13	0.000000e+00	4.797689e-01	3.435922e+14	9.011977e+14	3.520653e+14	1.215898e+04	5.504045e+03	2.345452e+03	0	7.790637e-04
8.700000e+08	1.039502e+13	0.000000e+00	4.797689e-01	3.404045e+14	8.942742e+14	3.504394e+14	1.214085e+04	5.499728e+03	2.343612e+03	0	7.727019e-04
8.800000e+08	1.014054e+13	0.000000e+00	4.797689e-01	3.372685e+14	8.874583e+14	3.488247e+14	1.212288e+04	5.495455e+03	2.341792e+03	0	7.663444e-04
8.900000e+08	9.890365e+12	0.000000e+00	4.797689e-01	3.341827e+14	8.807473e+14	3.472211e+14	1.210507e+04	5.491225e+03	2.339989e+03	0	7.599897e-04
9.000000e+08	9.644385e+12	0.000000e+00	4.797689e-01	3.311463e+14	8.741387e+14	3.456284e+14	1.208743e+04	5.487037e+03	2.338205e+03	0	7.536362e-04
9.100000e+08	9.402503e+12	0.000000e+00	4.797689e-01	3.281579e+14	8.676299e+14	3.440467e+14	1.206995e+04	5.482891e+03	2.336438e+03	0	7.472824e-04
9.200000e+08	9.164627e+12	0.000000e+00	4.797689e-01	3.252165e+14	8.612186e+14	3.424759e+14	1.205262e+04	5.478785e+03	2.334688e+03	0	7.409266e-04
9.300000e+08	8.930663e+12	0.000000e+00	4.797689e-01	3.223211e+14	8.549025e+14	3.409157e+14	1.203545e+04	5.474718e+03	2.332955e+03	0	7.345671e-04
9.400000e+08	8.700524e+12	0.000000e+00	4.797689e-01	3.194706e+14	8.486792e+14	3.393663e+14	1.201843e+04	5.470690e+03	2.331238e+03	0	7.282023e-04
9.500000e+08	8.474122e+12	0.000000e+00	4.797689e-01	3.166641e+14	8.425467e+14	3.378274e+14	1.200157e+04	5.466701e+03	2.329538e+03	0	7.218304e-04
9.600000e+08	8.251374e+12	0.000000e+00	4.797689e-01	3.139006e+14	8.365027e+14	3.362990e+14	1.198485e+04	5.462748e+03	2.327854e+03	0	7.154495e-04
9.700000e+08	8.032199e+12	0.000000e+00	4.797689e-01	3.111790e+14	8.305453e+14	3.347810e+14	1.196827e+04	5.458832e+03	2.326185e+03	0	7.090579e-04
9.800000e+08	7.816517e+12	0.000000e+00	4.797689e-01	3.084987e+14	8.246725e+14	3.332733e+14	1.195184e+04	5.454952e+03	2.324532e+03	0	7.026537e-04
9.900000e+08	7.604251e+12	0.000000e+00	4.797689e-01	3.058585e+14	8.188823e+14	3.317759e+14	1.193555e+04	5.451107e+03	2.322893e+03	0	6.962348e-04
1.000000e+09	7.395327e+12	0.000000e+00	4.797689e-01	3.032578e+14	8.131730e+14	3.302887e+14	1.191940e+04	5.447297e+03	2.321270e+03	0	6.897992e-04
1.010000e+09	7.189672e+12	0.000000e+00	4.797689e-01	3.006955e+14	8.075427e+14	3.288115e+14	1.190338e+04	5.443520e+03	2.319660e+03	0	6.833449e-04
1.020000e+09	6.987217e+12	0.000000e+00	4.797689e-01	2.981710e+14	8.019897e+14	3.273444e+14	1.188750e+04	5.439777e+03	2.318065e+03	0	6.768696e-04
1.030000e+09	6.787891e+12	0.000000e+00	4.797689e-01	2.956835e+14	7.965122e+14	3.258872e+14	1.187176e+04	5.436066e+03	2.316484e+03	0	6.703710e-04
1.040000e+09	6.591628e+12	0.000000e+00	4.797689e-01	2.932321e+14	7.911088e+14	3.244398e+14	1.185614e+04	5.432387e+03	2.314916e+03	0	6.638467e-04
1.050000e+09	6.398365e+12	0.000000e+00	4.797689e-01	2.908161e+14	7.857777e+14	3.230022e+14	1.184065e+04	5.428739e+03	2.313362e+03	0	6.572944e-04
1.060000e+09	6.208037e+12	0.000000e+00	4.797689e-01	2.884348e+14	7.805175e+14	3.215743e+14	1.182530e+04	5.425123e+03	2.311821e+03	0	6.507113e-04
1.070000e+09	6.020582e+12	0.000000e+00	4.797689e-01	2.860875e+14	7.753266e+14	3.201560e+14	1.181006e+04	5.421536e+03	2.310292e+03	0	6.440947e-04
1.080000e+09	5.835943e+12	0.000000e+00	4.797689e-01	2.837735e+14	7.702036e+14	3.187473e+14	1.179495e+04	5.417980e+03	2.308777e+03	0	6.374419e-04
1.090000e+09	5.654059e+12	0.000000e+00	4.797689e-01	2.814921e+14	7.651471e+14	3.173480e+14	1.177996e+04	5.414452e+03	2.307274e+03	0	6.307497e-04
1.100000e+09	5.474875e+12	0.000000e+00	4.797689e-01	2.792426e+14	7.601557e+14	3.159581e+14	1.176510e+04	5.410954e+03	2.305783e+03	0	6.240149e-04
1.110000e+09	5.298336e+12	0.000000e+00	4.797689e-01	2.770245e+14	7.552281e+14	3.145775e+14	1.175035e+04	5.407483e+03	2.304304e+03	0	6.172343e-04
1.120000e+09	5.124388e+12	0.000000e+00	4.797689e-01	2.748370e+14	7.503630e+14	3.132062e+14	1.173571e+04	5.404041e+03	2.302837e+03	0	6.104043e-04
1.130000e+09	4.952978e+12	0.000000e+00	4.797689e-01	2.726797e+14	7.455592e+14	3.118441e+14	1.172120e+04	5.400626e+03	2.301382e+03	0	6.035210e-04
1.140000e+09	4.784056e+12	0.000000e+00	4.797689e-01	2.705519e+14	7.408154e+14	3.104911e+14	1.170679e+04	5.397237e+03	2.299938e+03	0	5.965804e-04
1.150000e+09	4.617572e+12	0.000000e+00	4.797689e-01	2.684530e+14	7.361305e+14	3.091471e+14	1.169250e+04	5.393875e+03	2.298505e+03	0	5.895783e-04
1.160000e+09	4.453478e+12	0.000000e+00	4.797689e-01	2.663824e+14	7.315033e+14	3.078121e+14	1.167832e+04	5.390539e+03	2.297083e+03	0	5.825099e-04
1.170000e+09	4.291726e+12	0.000000e+00	4.797689e-01	2.643397e+14	7.269326e+14	3.064859e+14	1.166425e+04	5.387228e+03	2.295673e+03	0	5.753705e-04
1.180000e+09	4.132272e+12	0.000000e+00	4.797689e-01	2.623243e+14	7.224175e+14	3.051686e+14	1.165028e+04	5.383943e+03	2.294272e+03	0	5.681546e-04
1.190000e+09	3.975069e+12	0.000000e+00	4.797689e-01	2.603356e+14	7.179567e+14	3.038601e+14	1.163642e+04	5.380682e+03	2.292883e+03	0	5.608566e-04
1.200000e+09	3.820075e+12	0.000000e+00	4.797689e-01	2.583732e+14	7.135494e+14	3.025602e+14	1.162267e+04	5.377445e+03	2.291504e+03	0	5.534702e-04
1.210000e+09	3.667247e+12	0.000000e+00	4.797689e-01	2.564366e+14	7.091944e+14	3.012690e+14	1.160902e+04	5.374233e+03	2.290135e+03	0	5.459887e-04
1.220000e+09	3.516544e+12	0.000000e+00	4.797689e-01	2.545253e+14	7.048909e+14	2.999863e+14	1.159547e+04	5.371044e+03	2.288776e+03	0	5.384048e-04
1.230000e+09	3.367924e+12	0.000000e+00	4.797689e-01	2.526388e+14	7.006378e+14	2.987121e+14	1.158202e+04	5.367878e+03	2.287427e+03	0	5.307105e-04
1.240000e+09	3.221349e+12	0.000000e+00	4.797689e-01	2.507766e+14	6.964343e+14	2.974463e+14	1.156868e+04	5.364735e+03	2.286088e+03	0	5.228970e-04
1.250000e+09	3.076780e+12	0.000000e+00	4.797689e-01	2.489384e+14	6.922793e+14	2.961889e+14	1.155543e+04	5.361615e+03	2.284758e+03	0	5.149547e-04
1.260000e+09	2.934179e+12	0.000000e+00	4.797689e-01	2.471236e+14	6.881722e+14	2.949398e+14	1.154227e+04	5.358516e+03	2.283438e+03	0	5.068730e-04
1.270000e+09	2.793510e+12	0.000000e+00	4.797689e-01	2.453319e+14	6.841119e+14	2.936989e+14	1.152922e+04	5.355440e+03	2.282127e+03	0	4.986399e-04
1.280000e+09	2.654737e+12	0.000000e+00	4.797689e-01	2.435628e+14	6.800976e+14	2.924661e+14	1.151625e+04	5.352385e+03	2.280825e+03	0	4.902423e-04
1.290000e+09	2.517825e+12	0.000000e+00	4.797689e-01	2.418159e+14	6.761286e+14	2.912415e+14	1.150338e+04	5.349351e+03	2.279532e+03	0	4.816654e-04
1.300000e+09	2.382740e+12	0.000000e+00	4.797689e-01	2.400909e+14	6.722040e+14	2.900249e+14	1.149061e+04	5.346338e+03	2.278248e+03	0	4.728925e-04
1.310000e+09	2.249448e+12	0.000000e+00	4.797689e-01	2.383873e+14	6.683231e+14	2.888162e+14	1.147792e+04	5.343346e+03	2.276973e+03	0	4.639048e-04
1.320000e+09	2.117917e+12	0.000000e+00	4.797689e-01	2.367047e+14	6.644850e+14	2.876155e+14	1.146532e+04	5.340374e+03	2.275706e+03	0	4.546807e-04
1.330000e+09	1.988115e+12	0.000000e+00	4.797689e-01	2.350429e+14	6.606891e+14	2.864227e+14	1.145281e+04	5.337421e+03	2.274448e+03	0	4.451955e-04
1.340000e+09	1.860012e+12	0.000000e+00	4.797689e-01	2.334014e+14	6.569347e+14	2.852376e+14	1.144039e+04	5.334489e+03	2.273199e+03	0	4.354204e-04
1.350000e+09	1.733576e+12	0.000000e+00	4.797689e-01	2.317798e+14	6.532210e+14	2.840603e+14	1.142806e+04	5.331576e+03	2.271957e+03	0	4.253220e-04
1.360000e+09	1.608779e+12	0.000000e+00	4.797689e-01	2.301779e+14	6.495473e+14	2.828906e+14	1.141581e+04	5.328682e+03	2.270724e+03	0	4.148607e-04
