#t		Qconv[W]	Ri[Rp]		R*[Rp]		Qc[W]		Qm[W]		Qr[W]		Tcmb[K]		Tl[K]		Tup[K]		RiFlag		Bs[T]
0.000000e+00	9.068477e+13	0.000000e+00	4.797687e-01	1.288886e+15	3.235383e+15	5.706225e+14	1.547984e+04	6.550458e+03	2.750295e+03	0	1.588440e-03
1.000000e+07	8.795521e+13	0.000000e+00	4.797687e-01	1.258370e+15	3.135218e+15	5.674609e+14	1.541609e+04	6.523214e+03	2.738856e+03	0	1.572341e-03
2.000000e+07	8.534366e+13	0.000000e+00	4.797687e-01	1.229149e+15	3.041663e+15	5.643229e+14	1.535383e+04	6.497267e+03	2.727961e+03	0	1.556622e-03
3.000000e+07	8.284276e+13	0.000000e+00	4.797687e-01	1.201140e+15	2.954079e+15	5.612083e+14	1.529301e+04	6.472515e+03	2.717569e+03	0	1.541266e-03
4.000000e+07	8.044573e+13	0.000000e+00	4.797687e-01	1.174271e+15	2.871904e+15	5.581170e+14	1.523356e+04	6.448868e+03	2.707641e+03	0	1.526255e-03
5.000000e+07	7.814635e+13	0.000000e+00	4.797687e-01	1.148474e+15	2.794646e+15	5.550487e+14	1.517544e+04	6.426243e+03	2.698141e+03	0	1.511573e-03
6.000000e+07	7.593889e+13	0.000000e+00	4.797687e-01	1.123686e+15	2.721869e+15	5.520033e+14	1.511858e+04	6.404566e+03	2.689040e+03	0	1.497204e-03
7.000000e+07	7.381807e+13	0.000000e+00	4.797687e-01	1.099851e+15	2.653187e+15	5.489806e+14	1.506294e+04	6.383770e+03	2.680308e+03	0	1.483134e-03
8.000000e+07	7.177900e+13	0.000000e+00	4.797687e-01	1.076914e+15	2.588258e+15	5.459804e+14	1.500848e+04	6.363795e+03	2.671922e+03	0	1.469350e-03
9.000000e+07	6.981715e+13	0.000000e+00	4.797687e-01	1.054827e+15	2.526775e+15	5.430024e+14	1.495514e+04	6.344585e+03	2.663856e+03	0	1.455840e-03
1.000000e+08	6.792834e+13	0.000000e+00	4.797687e-01	1.033543e+15	2.468464e+15	5.400466e+14	1.490289e+04	6.326091e+03	2.656091e+03	0	1.442591e-03
1.100000e+08	6.610866e+13	0.000000e+00	4.797687e-01	1.013021e+15	2.413080e+15	5.371128e+14	1.485169e+04	6.308267e+03	2.648608e+03	0	1.429593e-03
1.200000e+08	6.435449e+13	0.000000e+00	4.797687e-01	9.932203e+14	2.360401e+15	5.342006e+14	1.480149e+04	6.291072e+03	2.641388e+03	0	1.416834e-03
1.300000e+08	6.266247e+13	0.000000e+00	4.797687e-01	9.741046e+14	2.310230e+15	5.313101e+14	1.475228e+04	6.274466e+03	2.634416e+03	0	1.404307e-03
1.400000e+08	6.102944e+13	0.000000e+00	4.797687e-01	9.556394e+14	2.262384e+15	5.284409e+14	1.470400e+04	6.258415e+03	2.627676e+03	0	1.392000e-03
1.500000e+08	5.945247e+13	0.000000e+00	4.797687e-01	9.377927e+14	2.216702e+15	5.255929e+14	1.465663e+04	6.242886e+03	2.621156e+03	0	1.379906e-03
1.600000e+08	5.792882e+13	0.000000e+00	4.797687e-01	9.205346e+14	2.173034e+15	5.227660e+14	1.461015e+04	6.227850e+03	2.614844e+03	0	1.368016e-03
1.700000e+08	5.645592e+13	0.000000e+00	4.797687e-01	9.038369e+14	2.131245e+15	5.199599e+14	1.456451e+04	6.213280e+03	2.608726e+03	0	1.356322e-03
1.800000e+08	5.503136e+13	0.000000e+00	4.797687e-01	8.876733e+14	2.091213e+15	5.171745e+14	1.451969e+04	6.199149e+03	2.602793e+03	0	1.344816e-03
1.900000e+08	5.365288e+13	0.000000e+00	4.797687e-01	8.720192e+14	2.052823e+15	5.144097e+14	1.447568e+04	6.185435e+03	2.597035e+03	0	1.333492e-03
2.000000e+08	5.231837e+13	0.000000e+00	4.797687e-01	8.568513e+14	2.015974e+15	5.116651e+14	1.443243e+04	6.172115e+03	2.591442e+03	0	1.322343e-03
2.100000e+08	5.102583e+13	0.000000e+00	4.797687e-01	8.421479e+14	1.980571e+15	5.089408e+14	1.438993e+04	6.159170e+03	2.586007e+03	0	1.311363e-03
2.200000e+08	4.977339e+13	0.000000e+00	4.797687e-01	8.278884e+14	1.946525e+15	5.062365e+14	1.434816e+04	6.146580e+03	2.580721e+03	0	1.300545e-03
2.300000e+08	4.855929e+13	0.000000e+00	4.797687e-01	8.140536e+14	1.913758e+15	5.035520e+14	1.430709e+04	6.134327e+03	2.575577e+03	0	1.289883e-03
2.400000e+08	4.738186e+13	0.000000e+00	4.797687e-01	8.006252e+14	1.882196e+15	5.008872e+14	1.426671e+04	6.122397e+03	2.570568e+03	0	1.279372e-03
2.500000e+08	4.623954e+13	0.000000e+00	4.797687e-01	7.875860e+14	1.851769e+15	4.982419e+14	1.422698e+04	6.110773e+03	2.565687e+03	0	1.269007e-03
2.600000e+08	4.513084e+13	0.000000e+00	4.797687e-01	7.749198e+14	1.822415e+15	4.956160e+14	1.418790e+04	6.099440e+03	2.560929e+03	0	1.258782e-03
2.700000e+08	4.405436e+13	0.000000e+00	4.797687e-01	7.626112e+14	1.794075e+15	4.930092e+14	1.414945e+04	6.088386e+03	2.556288e+03	0	1.248693e-03
2.800000e+08	4.300878e+13	0.000000e+00	4.797687e-01	7.506457e+14	1.766695e+15	4.904215e+14	1.411160e+04	6.077599e+03	2.551758e+03	0	1.238735e-03
2.900000e+08	4.199285e+13	0.000000e+00	4.797687e-01	7.390095e+14	1.740224e+15	4.878527e+14	1.407434e+04	6.067065e+03	2.547336e+03	0	1.228904e-03
3.000000e+08	4.100538e+13	0.000000e+00	4.797687e-01	7.276896e+14	1.714616e+15	4.853027e+14	1.403766e+04	6.056775e+03	2.543015e+03	0	1.219195e-03
3.100000e+08	4.004524e+13	0.000000e+00	4.797687e-01	7.166737e+14	1.689827e+15	4.827712e+14	1.400154e+04	6.046718e+03	2.538793e+03	0	1.209604e-03
3.200000e+08	3.911137e+13	0.000000e+00	4.797687e-01	7.059501e+14	1.665815e+15	4.802581e+14	1.396596e+04	6.036884e+03	2.534664e+03	0	1.200127e-03
3.300000e+08	3.820276e+13	0.000000e+00	4.797687e-01	6.955075e+14	1.642544e+15	4.777633e+14	1.393091e+04	6.027263e+03	2.530624e+03	0	1.190760e-03
3.400000e+08	3.731844e+13	0.000000e+00	4.797687e-01	6.853355e+14	1.619976e+15	4.752866e+14	1.389638e+04	6.017848e+03	2.526671e+03	0	1.181501e-03
3.500000e+08	3.645749e+13	0.000000e+00	4.797687e-01	6.754239e+14	1.598079e+15	4.728279e+14	1.386235e+04	6.008630e+03	2.522801e+03	0	1.172344e-03
3.600000e+08	3.561906e+13	0.000000e+00	4.797687e-01	6.657633e+14	1.576823e+15	4.703870e+14	1.382880e+04	5.999601e+03	2.519010e+03	0	1.163287e-03
3.700000e+08	3.480231e+13	0.000000e+00	4.797687e-01	6.563444e+14	1.556176e+15	4.679638e+14	1.379574e+04	5.990754e+03	2.515296e+03	0	1.154327e-03
3.800000e+08	3.400645e+13	0.000000e+00	4.797687e-01	6.471587e+14	1.536112e+15	4.655581e+14	1.376314e+04	5.982082e+03	2.511655e+03	0	1.145460e-03
3.900000e+08	3.323074e+13	0.000000e+00	4.797687e-01	6.381978e+14	1.516606e+15	4.631698e+14	1.373100e+04	5.973579e+03	2.508084e+03	0	1.136683e-03
4.000000e+08	3.247445e+13	0.000000e+00	4.797687e-01	6.294538e+14	1.497632e+15	4.607987e+14	1.369930e+04	5.965237e+03	2.504582e+03	0	1.127994e-03
4.100000e+08	3.173691e+13	0.000000e+00	4.797687e-01	6.209194e+14	1.479168e+15	4.584448e+14	1.366803e+04	5.957052e+03	2.501145e+03	0	1.119389e-03
4.200000e+08	3.101746e+13	0.000000e+00	4.797687e-01	6.125871e+14	1.461192e+15	4.561078e+14	1.363718e+04	5.949018e+03	2.497772e+03	0	1.110866e-03
4.300000e+08	3.031548e+13	0.000000e+00	4.797687e-01	6.044503e+14	1.443684e+15	4.537876e+14	1.360675e+04	5.941129e+03	2.494460e+03	0	1.102421e-03
4.400000e+08	2.963037e+13	0.000000e+00	4.797687e-01	5.965023e+14	1.426625e+15	4.514842e+14	1.357672e+04	5.933381e+03	2.491207e+03	0	1.094053e-03
4.500000e+08	2.896157e+13	0.000000e+00	4.797687e-01	5.887368e+14	1.409996e+15	4.491973e+14	1.354708e+04	5.925768e+03	2.488010e+03	0	1.085759e-03
4.600000e+08	2.830854e+13	0.000000e+00	4.797687e-01	5.811479e+14	1.393781e+15	4.469268e+14	1.351783e+04	5.918286e+03	2.484869e+03	0	1.077536e-03
4.700000e+08	2.767074e+13	0.000000e+00	4.797687e-01	5.737299e+14	1.377962e+15	4.446726e+14	1.348895e+04	5.910930e+03	2.481781e+03	0	1.069383e-03
4.800000e+08	2.704770e+13	0.000000e+00	4.797687e-01	5.664771e+14	1.362526e+15	4.424345e+14	1.346044e+04	5.903698e+03	2.478744e+03	0	1.061295e-03
4.900000e+08	2.643892e+13	0.000000e+00	4.797687e-01	5.593844e+14	1.347457e+15	4.402125e+14	1.343228e+04	5.896583e+03	2.475757e+03	0	1.053272e-03
5.000000e+08	2.584396e+13	0.000000e+00	4.797687e-01	5.524467e+14	1.332741e+15	4.380064e+14	1.340448e+04	5.889583e+03	2.472818e+03	0	1.045312e-03
5.100000e+08	2.526237e+13	0.000000e+00	4.797687e-01	5.456591e+14	1.318365e+15	4.358160e+14	1.337702e+04	5.882695e+03	2.469925e+03	0	1.037411e-03
5.200000e+08	2.469373e+13	0.000000e+00	4.797687e-01	5.390171e+14	1.304318e+15	4.336412e+14	1.334990e+04	5.875913e+03	2.467078e+03	0	1.029568e-03
5.300000e+08	2.413765e+13	0.000000e+00	4.797687e-01	5.325161e+14	1.290586e+15	4.314820e+14	1.332311e+04	5.869237e+03	2.464275e+03	0	1.021781e-03
5.400000e+08	2.359373e+13	0.000000e+00	4.797687e-01	5.261519e+14	1.277158e+15	4.293381e+14	1.329663e+04	5.862661e+03	2.461514e+03	0	1.014048e-03
5.500000e+08	2.306160e+13	0.000000e+00	4.797687e-01	5.199203e+14	1.264025e+15	4.272095e+14	1.327048e+04	5.856184e+03	2.458794e+03	0	1.006366e-03
5.600000e+08	2.254091e+13	0.000000e+00	4.797687e-01	5.138175e+14	1.251175e+15	4.250961e+14	1.324463e+04	5.849801e+03	2.456115e+03	0	9.987343e-04
5.700000e+08	2.203131e+13	0.000000e+00	4.797687e-01	5.078395e+14	1.238599e+15	4.229976e+14	1.321908e+04	5.843512e+03	2.453474e+03	0	9.911505e-04
5.800000e+08	2.153248e+13	0.000000e+00	4.797687e-01	5.019829e+14	1.226288e+15	4.209140e+14	1.319383e+04	5.837312e+03	2.450871e+03	0	9.836128e-04
5.900000e+08	2.104410e+13	0.000000e+00	4.797687e-01	4.962439e+14	1.214233e+15	4.188452e+14	1.316887e+04	5.831199e+03	2.448304e+03	0	9.761194e-04
6.000000e+08	2.056586e+13	0.000000e+00	4.797687e-01	4.906194e+14	1.202425e+15	4.167911e+14	1.314420e+04	5.825171e+03	2.445773e+03	0	9.686683e-04
6.100000e+08	2.009747e+13	0.000000e+00	4.797687e-01	4.851060e+14	1.190857e+15	4.147514e+14	1.311980e+04	5.819226e+03	2.443277e+03	0	9.612579e-04
6.200000e+08	1.963864e+13	0.000000e+00	4.797687e-01	4.797005e+14	1.179520e+15	4.127262e+14	1.309568e+04	5.813361e+03	2.440815e+03	0	9.538864e-04
6.300000e+08	1.918912e+13	0.000000e+00	4.797687e-01	4.744000e+14	1.168407e+15	4.107153e+14	1.307182e+04	5.807573e+03	2.438385e+03	0	9.465520e-04
6.400000e+08	1.874862e+13	0.000000e+00	4.797687e-01	4.692016e+14	1.157512e+15	4.087186e+14	1.304823e+04	5.801862e+03	2.435987e+03	0	9.392531e-04
6.500000e+08	1.831691e+13	0.000000e+00	4.797687e-01	4.641024e+14	1.146826e+15	4.067359e+14	1.302489e+04	5.796225e+03	2.433620e+03	0	9.319878e-04
6.600000e+08	1.789374e+13	0.000000e+00	4.797687e-01	4.590998e+14	1.136345e+15	4.047672e+14	1.300181e+04	5.790660e+03	2.431283e+03	0	9.247546e-04
6.700000e+08	1.747887e+13	0.000000e+00	4.797687e-01	4.541911e+14	1.126062e+15	4.028123e+14	1.297897e+04	5.785164e+03	2.428976e+03	0	9.175518e-04
6.800000e+08	1.707208e+13	0.000000e+00	4.797687e-01	4.493739e+14	1.115970e+15	4.008711e+14	1.295638e+04	5.779738e+03	2.426698e+03	0	9.103777e-04
6.900000e+08	1.667314e+13	0.000000e+00	4.797687e-01	4.446456e+14	1.106064e+15	3.989436e+14	1.293403e+04	5.774378e+03	2.424447e+03	0	9.032306e-04
7.000000e+08	1.628186e+13	0.000000e+00	4.797687e-01	4.400040e+14	1.096339e+15	3.970296e+14	1.291191e+04	5.769082e+03	2.422224e+03	0	8.961089e-04
7.100000e+08	1.589802e+13	0.000000e+00	4.797687e-01	4.354468e+14	1.086790e+15	3.951290e+14	1.289002e+04	5.763851e+03	2.420027e+03	0	8.890110e-04
7.200000e+08	1.552142e+13	0.000000e+00	4.797687e-01	4.309718e+14	1.077411e+15	3.932416e+14	1.286836e+04	5.758681e+03	2.417857e+03	0	8.819352e-04
7.300000e+08	1.515189e+13	0.000000e+00	4.797687e-01	4.265768e+14	1.068197e+15	3.913675e+14	1.284692e+04	5.753571e+03	2.415711e+03	0	8.748799e-04
7.400000e+08	1.478923e+13	0.000000e+00	4.797687e-01	4.222599e+14	1.059144e+15	3.895064e+14	1.282569e+04	5.748521e+03	2.413591e+03	0	8.678434e-04
7.500000e+08	1.443327e+13	0.000000e+00	4.797687e-01	4.180191e+14	1.050248e+15	3.876584e+14	1.280468e+04	5.743528e+03	2.411494e+03	0	8.608241e-04
7.600000e+08	1.408384e+13	0.000000e+00	4.797687e-01	4.138524e+14	1.041504e+15	3.858232e+14	1.278389e+04	5.738591e+03	2.409422e+03	0	8.538203e-04
7.700000e+08	1.374077e+13	0.000000e+00	4.797687e-01	4.097581e+14	1.032907e+15	3.840007e+14	1.276329e+04	5.733709e+03	2.407372e+03	0	8.468304e-04
7.800000e+08	1.340389e+13	0.000000e+00	4.797687e-01	4.057342e+14	1.024455e+15	3.821909e+14	1.274290e+04	5.728880e+03	2.405345e+03	0	8.398527e-04
7.900000e+08	1.307307e+13	0.000000e+00	4.797687e-01	4.017792e+14	1.016143e+15	3.803937e+14	1.272271e+04	5.724104e+03	2.403339e+03	0	8.328855e-04
8.000000e+08	1.274814e+13	0.000000e+00	4.797687e-01	3.978912e+14	1.007967e+15	3.786090e+14	1.270272e+04	5.719380e+03	2.401356e+03	0	8.259271e-04
8.100000e+08	1.242896e+13	0.000000e+00	4.797687e-01	3.940688e+14	9.999239e+14	3.768366e+14	1.268292e+04	5.714705e+03	2.399393e+03	0	8.189757e-04
8.200000e+08	1.211539e+13	0.000000e+00	4.797687e-01	3.903103e+14	9.920105e+14	3.750765e+14	1.266331e+04	5.710080e+03	2.397451e+03	0	8.120297e-04
8.300000e+08	1.180729e+13	0.000000e+00	4.797687e-01	3.866141e+14	9.842232e+14	3.733286e+14	1.264389e+04	5.705502e+03	2.395529e+03	0	8.050871e-04
8.400000e+08	1.150453e+13	0.000000e+00	4.797687e-01	3.829789e+14	9.765588e+14	3.715927e+14	1.262464e+04	5.700972e+03	2.393627e+03	0	7.981463e-04
8.500000e+08	1.120699e+13	0.000000e+00	4.797687e-01	3.794032e+14	9.690143e+14	3.698688e+14	1.260558e+04	5.696487e+03	2.391744e+03	0	7.912052e-04
8.600000e+08	1.091454e+13	0.000000e+00	4.797687e-01	3.758856e+14	9.615866e+14	3.681568e+14	1.258670e+04	5.692047e+03	2.389880e+03	0	7.842622e-04
8.700000e+08	1.062705e+13	0.000000e+00	4.797687e-01	3.724247e+14	9.542730e+14	3.664566e+14	1.256799e+04	5.687652e+03	2.388034e+03	0	7.773151e-04
8.800000e+08	1.034442e+13	0.000000e+00	4.797687e-01	3.690193e+14	9.470706e+14	3.647681e+14	1.254945e+04	5.683299e+03	2.386207e+03	0	7.703621e-04
8.900000e+08	1.006653e+13	0.000000e+00	4.797687e-01	3.656681e+14	9.399767e+14	3.630911e+14	1.253109e+04	5.678989e+03	2.384397e+03	0	7.634011e-04
9.000000e+08	9.793271e+12	0.000000e+00	4.797687e-01	3.623698e+14	9.329887e+14	3.614257e+14	1.251288e+04	5.674720e+03	2.382605e+03	0	7.564300e-04
9.100000e+08	9.524535e+12	0.000000e+00	4.797687e-01	3.591234e+14	9.261042e+14	3.597717e+14	1.249485e+04	5.670492e+03	2.380829e+03	0	7.494467e-04
9.200000e+08	9.260218e+12	0.000000e+00	4.797687e-01	3.559275e+14	9.193207e+14	3.581291e+14	1.247697e+04	5.666304e+03	2.379071e+03	0	7.424489e-04
9.300000e+08	9.000223e+12	0.000000e+00	4.797687e-01	3.527811e+14	9.126358e+14	3.564976e+14	1.245925e+04	5.662154e+03	2.377329e+03	0	7.354343e-04
9.400000e+08	8.744450e+12	0.000000e+00	4.797687e-01	3.496831e+14	9.060474e+14	3.548773e+14	1.244169e+04	5.658043e+03	2.375603e+03	0	7.284006e-04
9.500000e+08	8.492806e+12	0.000000e+00	4.797687e-01	3.466325e+14	8.995531e+14	3.532681e+14	1.242428e+04	5.653969e+03	2.373892e+03	0	7.213453e-04
9.600000e+08	8.245199e+12	0.000000e+00	4.797687e-01	3.436281e+14	8.931508e+14	3.516699e+14	1.240702e+04	5.649933e+03	2.372197e+03	0	7.142658e-04
9.700000e+08	8.001540e+12	0.000000e+00	4.797687e-01	3.406691e+14	8.868386e+14	3.500825e+14	1.238991e+04	5.645932e+03	2.370518e+03	0	7.071595e-04
9.800000e+08	7.761743e+12	0.000000e+00	4.797687e-01	3.377544e+14	8.806143e+14	3.485059e+14	1.237295e+04	5.641967e+03	2.368853e+03	0	7.000234e-04
9.900000e+08	7.525722e+12	0.000000e+00	4.797687e-01	3.348831e+14	8.744761e+14	3.469401e+14	1.235614e+04	5.638036e+03	2.367202e+03	0	6.928548e-04
1.000000e+09	7.293397e+12	0.000000e+00	4.797687e-01	3.320542e+14	8.684220e+14	3.453849e+14	1.233946e+04	5.634140e+03	2.365566e+03	0	6.856504e-04
1.010000e+09	7.064687e+12	0.000000e+00	4.797687e-01	3.292669e+14	8.624503e+14	3.438402e+14	1.232293e+04	5.630277e+03	2.363945e+03	0	6.784072e-04
1.020000e+09	6.839516e+12	0.000000e+00	4.797687e-01	3.265204e+14	8.565591e+14	3.423060e+14	1.230653e+04	5.626447e+03	2.362337e+03	0	6.711217e-04
1.030000e+09	6.617808e+12	0.000000e+00	4.797687e-01	3.238137e+14	8.507468e+14	3.407821e+14	1.229027e+04	5.622649e+03	2.360742e+03	0	6.637903e-04
1.040000e+09	6.399491e+12	0.000000e+00	4.797687e-01	3.211460e+14	8.450118e+14	3.392686e+14	1.227415e+04	5.618883e+03	2.359161e+03	0	6.564091e-04
1.050000e+09	6.184492e+12	0.000000e+00	4.797687e-01	3.185166e+14	8.393522e+14	3.377653e+14	1.225816e+04	5.615149e+03	2.357593e+03	0	6.489743e-04
1.060000e+09	5.972743e+12	0.000000e+00	4.797687e-01	3.159246e+14	8.337667e+14	3.362721e+14	1.224230e+04	5.611445e+03	2.356038e+03	0	6.414814e-04
1.070000e+09	5.764176e+12	0.000000e+00	4.797687e-01	3.133693e+14	8.282537e+14	3.347890e+14	1.222656e+04	5.607771e+03	2.354495e+03	0	6.339260e-04
1.080000e+09	5.558726e+12	0.000000e+00	4.797687e-01	3.108500e+14	8.228117e+14	3.333159e+14	1.221096e+04	5.604127e+03	2.352965e+03	0	6.263031e-04
1.090000e+09	5.356329e+12	0.000000e+00	4.797687e-01	3.083659e+14	8.174393e+14	3.318527e+14	1.219548e+04	5.600512e+03	2.351447e+03	0	6.186076e-04
1.100000e+09	5.156922e+12	0.000000e+00	4.797687e-01	3.059164e+14	8.121350e+14	3.303993e+14	1.218012e+04	5.596925e+03	2.349941e+03	0	6.108337e-04
1.110000e+09	4.960446e+12	0.000000e+00	4.797687e-01	3.035007e+14	8.068975e+14	3.289556e+14	1.216489e+04	5.593367e+03	2.348447e+03	0	6.029756e-04
1.120000e+09	4.766840e+12	0.000000e+00	4.797687e-01	3.011182e+14	8.017255e+14	3.275216e+14	1.214977e+04	5.589836e+03	2.346965e+03	0	5.950266e-04
1.130000e+09	4.576049e+12	0.000000e+00	4.797687e-01	2.987682e+14	7.966177e+14	3.260973e+14	1.213477e+04	5.586333e+03	2.345494e+03	0	5.869796e-04
1.140000e+09	4.388015e+12	0.000000e+00	4.797687e-01	2.964502e+14	7.915729e+14	3.246824e+14	1.211989e+04	5.582856e+03	2.344034e+03	0	5.788271e-04
1.150000e+09	4.202684e+12	0.000000e+00	4.797687e-01	2.941634e+14	7.865898e+14	3.232770e+14	1.210513e+04	5.579406e+03	2.342586e+03	0	5.705605e-04
1.160000e+09	4.020003e+12	0.000000e+00	4.797687e-01	2.919073e+14	7.816673e+14	3.218809e+14	1.209048e+04	5.575981e+03	2.341148e+03	0	5.621708e-04
1.170000e+09	3.839920e+12	0.000000e+00	4.797687e-01	2.896813e+14	7.768041e+14	3.204942e+14	1.207594e+04	5.572583e+03	2.339721e+03	0	5.536478e-04
1.180000e+09	3.662385e+12	0.000000e+00	4.797687e-01	2.874849e+14	7.719993e+14	3.191167e+14	1.206151e+04	5.569209e+03	2.338304e+03	0	5.449803e-04
1.190000e+09	3.487347e+12	0.000000e+00	4.797687e-01	2.853174e+14	7.672516e+14	3.177483e+14	1.204719e+04	5.565860e+03	2.336898e+03	0	5.361561e-04
1.200000e+09	3.314761e+12	0.000000e+00	4.797687e-01	2.831784e+14	7.625601e+14	3.163890e+14	1.203297e+04	5.562536e+03	2.335502e+03	0	5.271613e-04
1.210000e+09	3.144577e+12	0.000000e+00	4.797687e-01	2.810672e+14	7.579236e+14	3.150388e+14	1.201887e+04	5.559235e+03	2.334117e+03	0	5.179807e-04
1.220000e+09	2.976751e+12	0.000000e+00	4.797687e-01	2.789835e+14	7.533412e+14	3.136975e+14	1.200487e+04	5.555958e+03	2.332741e+03	0	5.085969e-04
1.230000e+09	2.811239e+12	0.000000e+00	4.797687e-01	2.769266e+14	7.488119e+14	3.123650e+14	1.199097e+04	5.552704e+03	2.331375e+03	0	4.989902e-04
1.240000e+09	2.647995e+12	0.000000e+00	4.797687e-01	2.748961e+14	7.443348e+14	3.110414e+14	1.197717e+04	5.549474e+03	2.330018e+03	0	4.891385e-04
1.250000e+09	2.486979e+12	0.000000e+00	4.797687e-01	2.728915e+14	7.399088e+14	3.097265e+14	1.196348e+04	5.546266e+03	2.328671e+03	0	4.790162e-04
1.260000e+09	2.328149e+12	0.000000e+00	4.797687e-01	2.709124e+14	7.355332e+14	3.084203e+14	1.194989e+04	5.543080e+03	2.327334e+03	0	4.685936e-04
1.270000e+09	2.171463e+12	0.000000e+00	4.797687e-01	2.689582e+14	7.312069e+14	3.071226e+14	1.193639e+04	5.539916e+03	2.326005e+03	0	4.578364e-04
1.280000e+09	2.016883e+12	0.000000e+00	4.797687e-01	2.670285e+14	7.269292e+14	3.058336e+14	1.192299e+04	5.536774e+03	2.324686e+03	0	4.467039e-04
1.290000e+09	1.864370e+12	0.000000e+00	4.797687e-01	2.651230e+14	7.226992e+14	3.045529e+14	1.190969e+04	5.533653e+03	2.323376e+03	0	4.351479e-04
1.300000e+09	1.713887e+12	0.000000e+00	4.797687e-01	2.632411e+14	7.185160e+14	3.032807e+14	1.189648e+04	5.530553e+03	2.322074e+03	0	4.231103e-04
1.310000e+09	1.565396e+12	0.000000e+00	4.797687e-01	2.613824e+14	7.143789e+14	3.020169e+14	1.188336e+04	5.527473e+03	2.320781e+03	0	4.105199e-04
1.320000e+09	1.418862e+12	0.000000e+00	4.797687e-01	2.595466e+14	7.102871e+14	3.007613e+14	1.187034e+04	5.524414e+03	2.319497e+03	0	3.972887e-04
1.330000e+09	1.274250e+12	0.000000e+00	4.797687e-01	2.577332e+14	7.062398e+14	2.995139e+14	1.185741e+04	5.521376e+03	2.318221e+03	0	3.833049e-04
1.340000e+09	1.131524e+12	0.000000e+00	4.797687e-01	2.559418e+14	7.022362e+14	2.982747e+14	1.184457e+04	5.518357e+03	2.316953e+03	0	3.684236e-04
1.350000e+09	9.906528e+11	0.000000e+00	4.797687e-01	2.541722e+14	6.982757e+14	2.970435e+14	1.183181e+04	5.515357e+03	2.315694e+03	0	3.524520e-04
1.360000e+09	8.516023e+11	0.000000e+00	4.797687e-01	2.524238e+14	6.943574e+14	2.958204e+14	1.181915e+04	5.512377e+03	2.314443e+03	0	3.351237e-04
