#t		Qconv[W]	Ri[Rp]		R*[Rp]		Qc[W]		Qm[W]		Qr[W]		Tcmb[K]		Tl[K]		Tup[K]		RiFlag		Bs[T]
0.000000e+00	1.423202e+14	0.000000e+00	4.797686e-01	2.040805e+15	3.116038e+15	7.594643e+14	1.925160e+04	7.673242e+03	2.901840e+03	0	1.831231e-03
1.000000e+07	1.384747e+14	0.000000e+00	4.797686e-01	2.003589e+15	3.087657e+15	7.552563e+14	1.918315e+04	7.668284e+03	2.899965e+03	0	1.814587e-03
2.000000e+07	1.347451e+14	0.000000e+00	4.797686e-01	1.967461e+15	3.059180e+15	7.510798e+14	1.911594e+04	7.663121e+03	2.898012e+03	0	1.798147e-03
3.000000e+07	1.311268e+14	0.000000e+00	4.797686e-01	1.932380e+15	3.030657e+15	7.469345e+14	1.904993e+04	7.657773e+03	2.895990e+03	0	1.781906e-03
4.000000e+07	1.276155e+14	0.000000e+00	4.797686e-01	1.898305e+15	3.002134e+15	7.428201e+14	1.898510e+04	7.652257e+03	2.893904e+03	0	1.765856e-03
5.000000e+07	1.242072e+14	0.000000e+00	4.797686e-01	1.865200e+15	2.973650e+15	7.387365e+14	1.892140e+04	7.646588e+03	2.891760e+03	0	1.749994e-03
6.000000e+07	1.208979e+14	0.000000e+00	4.797686e-01	1.833027e+15	2.945242e+15	7.346832e+14	1.885880e+04	7.640783e+03	2.889565e+03	0	1.734312e-03
7.000000e+07	1.176841e+14	0.000000e+00	4.797686e-01	1.801752e+15	2.916942e+15	7.306602e+14	1.879728e+04	7.634855e+03	2.887323e+03	0	1.718806e-03
8.000000e+07	1.145620e+14	0.000000e+00	4.797686e-01	1.771343e+15	2.888779e+15	7.266670e+14	1.873680e+04	7.628816e+03	2.885039e+03	0	1.703470e-03
9.000000e+07	1.115284e+14	0.000000e+00	4.797686e-01	1.741767e+15	2.860779e+15	7.227036e+14	1.867734e+04	7.622679e+03	2.882718e+03	0	1.688299e-03
1.000000e+08	1.085800e+14	0.000000e+00	4.797686e-01	1.712994e+15	2.832964e+15	7.187696e+14	1.861886e+04	7.616454e+03	2.880364e+03	0	1.673289e-03
1.100000e+08	1.057136e+14	0.000000e+00	4.797686e-01	1.684996e+15	2.805355e+15	7.148648e+14	1.856135e+04	7.610152e+03	2.877981e+03	0	1.658433e-03
1.200000e+08	1.029263e+14	0.000000e+00	4.797686e-01	1.657744e+15	2.777969e+15	7.109889e+14	1.850477e+04	7.603782e+03	2.875572e+03	0	1.643727e-03
1.300000e+08	1.002152e+14	0.000000e+00	4.797686e-01	1.631212e+15	2.750822e+15	7.071417e+14	1.844910e+04	7.597353e+03	2.873140e+03	0	1.629167e-03
1.400000e+08	9.757769e+13	0.000000e+00	4.797686e-01	1.605375e+15	2.723927e+15	7.033230e+14	1.839431e+04	7.590872e+03	2.870689e+03	0	1.614747e-03
1.500000e+08	9.501107e+13	0.000000e+00	4.797686e-01	1.580209e+15	2.697295e+15	6.995326e+14	1.834039e+04	7.584347e+03	2.868222e+03	0	1.600463e-03
1.600000e+08	9.251288e+13	0.000000e+00	4.797686e-01	1.555690e+15	2.670937e+15	6.957701e+14	1.828731e+04	7.577784e+03	2.865740e+03	0	1.586311e-03
1.700000e+08	9.008071e+13	0.000000e+00	4.797686e-01	1.531796e+15	2.644861e+15	6.920354e+14	1.823505e+04	7.571191e+03	2.863246e+03	0	1.572286e-03
1.800000e+08	8.771228e+13	0.000000e+00	4.797686e-01	1.508505e+15	2.619074e+15	6.883282e+14	1.818359e+04	7.564572e+03	2.860744e+03	0	1.558384e-03
1.900000e+08	8.540540e+13	0.000000e+00	4.797686e-01	1.485797e+15	2.593582e+15	6.846483e+14	1.813290e+04	7.557934e+03	2.858233e+03	0	1.544600e-03
2.000000e+08	8.315797e+13	0.000000e+00	4.797686e-01	1.463653e+15	2.568390e+15	6.809955e+14	1.808298e+04	7.551281e+03	2.855717e+03	0	1.530931e-03
2.100000e+08	8.096797e+13	0.000000e+00	4.797686e-01	1.442054e+15	2.543501e+15	6.773696e+14	1.803379e+04	7.544618e+03	2.853197e+03	0	1.517372e-03
2.200000e+08	7.883347e+13	0.000000e+00	4.797686e-01	1.420981e+15	2.518918e+15	6.737703e+14	1.798533e+04	7.537948e+03	2.850675e+03	0	1.503919e-03
2.300000e+08	7.675261e+13	0.000000e+00	4.797686e-01	1.400417e+15	2.494644e+15	6.701974e+14	1.793757e+04	7.531276e+03	2.848152e+03	0	1.490569e-03
2.400000e+08	7.472362e+13	0.000000e+00	4.797686e-01	1.380346e+15	2.470680e+15	6.666507e+14	1.789050e+04	7.524606e+03	2.845629e+03	0	1.477317e-03
2.500000e+08	7.274479e+13	0.000000e+00	4.797686e-01	1.360751e+15	2.447026e+15	6.631300e+14	1.784410e+04	7.517940e+03	2.843108e+03	0	1.464159e-03
2.600000e+08	7.081447e+13	0.000000e+00	4.797686e-01	1.341618e+15	2.423683e+15	6.596351e+14	1.779836e+04	7.511282e+03	2.840590e+03	0	1.451092e-03
2.700000e+08	6.893111e+13	0.000000e+00	4.797686e-01	1.322932e+15	2.400649e+15	6.561657e+14	1.775326e+04	7.504635e+03	2.838077e+03	0	1.438112e-03
2.800000e+08	6.709318e+13	0.000000e+00	4.797686e-01	1.304678e+15	2.377925e+15	6.527216e+14	1.770878e+04	7.498000e+03	2.835568e+03	0	1.425215e-03
2.900000e+08	6.529924e+13	0.000000e+00	4.797686e-01	1.286842e+15	2.355508e+15	6.493027e+14	1.766491e+04	7.491381e+03	2.833064e+03	0	1.412398e-03
3.000000e+08	6.354789e+13	0.000000e+00	4.797686e-01	1.269413e+15	2.333398e+15	6.459087e+14	1.762164e+04	7.484780e+03	2.830568e+03	0	1.399656e-03
3.100000e+08	6.183779e+13	0.000000e+00	4.797686e-01	1.252377e+15	2.311591e+15	6.425394e+14	1.757895e+04	7.478198e+03	2.828079e+03	0	1.386987e-03
3.200000e+08	6.016766e+13	0.000000e+00	4.797686e-01	1.235722e+15	2.290086e+15	6.391946e+14	1.753684e+04	7.471637e+03	2.825598e+03	0	1.374386e-03
3.300000e+08	5.853624e+13	0.000000e+00	4.797686e-01	1.219436e+15	2.268880e+15	6.358742e+14	1.749528e+04	7.465099e+03	2.823125e+03	0	1.361850e-03
3.400000e+08	5.694236e+13	0.000000e+00	4.797686e-01	1.203509e+15	2.247970e+15	6.325779e+14	1.745426e+04	7.458586e+03	2.820662e+03	0	1.349375e-03
3.500000e+08	5.538486e+13	0.000000e+00	4.797686e-01	1.187929e+15	2.227353e+15	6.293055e+14	1.741378e+04	7.452098e+03	2.818208e+03	0	1.336959e-03
3.600000e+08	5.386264e+13	0.000000e+00	4.797686e-01	1.172687e+15	2.207026e+15	6.260568e+14	1.737382e+04	7.445638e+03	2.815765e+03	0	1.324596e-03
3.700000e+08	5.237464e+13	0.000000e+00	4.797686e-01	1.157772e+15	2.186986e+15	6.228316e+14	1.733437e+04	7.439206e+03	2.813333e+03	0	1.312284e-03
3.800000e+08	5.091983e+13	0.000000e+00	4.797686e-01	1.143174e+15	2.167229e+15	6.196298e+14	1.729542e+04	7.432803e+03	2.810911e+03	0	1.300020e-03
3.900000e+08	4.949723e+13	0.000000e+00	4.797686e-01	1.128885e+15	2.147751e+15	6.164511e+14	1.725696e+04	7.426430e+03	2.808501e+03	0	1.287798e-03
4.000000e+08	4.810588e+13	0.000000e+00	4.797686e-01	1.114895e+15	2.128549e+15	6.132954e+14	1.721898e+04	7.420088e+03	2.806103e+03	0	1.275617e-03
4.100000e+08	4.674489e+13	0.000000e+00	4.797686e-01	1.101197e+15	2.109620e+15	6.101624e+14	1.718147e+04	7.413778e+03	2.803717e+03	0	1.263472e-03
4.200000e+08	4.541335e+13	0.000000e+00	4.797686e-01	1.087780e+15	2.090959e+15	6.070521e+14	1.714442e+04	7.407501e+03	2.801343e+03	0	1.251360e-03
4.300000e+08	4.411043e+13	0.000000e+00	4.797686e-01	1.074638e+15	2.072562e+15	6.039641e+14	1.710781e+04	7.401256e+03	2.798981e+03	0	1.239276e-03
4.400000e+08	4.283530e+13	0.000000e+00	4.797686e-01	1.061763e+15	2.054426e+15	6.008983e+14	1.707165e+04	7.395045e+03	2.796632e+03	0	1.227218e-03
4.500000e+08	4.158718e+13	0.000000e+00	4.797686e-01	1.049148e+15	2.036547e+15	5.978546e+14	1.703592e+04	7.388868e+03	2.794296e+03	0	1.215180e-03
4.600000e+08	4.036529e+13	0.000000e+00	4.797686e-01	1.036784e+15	2.018921e+15	5.948327e+14	1.700061e+04	7.382725e+03	2.791973e+03	0	1.203161e-03
4.700000e+08	3.916891e+13	0.000000e+00	4.797686e-01	1.024666e+15	2.001544e+15	5.918325e+14	1.696571e+04	7.376617e+03	2.789663e+03	0	1.191155e-03
4.800000e+08	3.799733e+13	0.000000e+00	4.797686e-01	1.012787e+15	1.984412e+15	5.888538e+14	1.693122e+04	7.370544e+03	2.787367e+03	0	1.179158e-03
4.900000e+08	3.684985e+13	0.000000e+00	4.797686e-01	1.001139e+15	1.967521e+15	5.858964e+14	1.689713e+04	7.364506e+03	2.785083e+03	0	1.167167e-03
5.000000e+08	3.572581e+13	0.000000e+00	4.797686e-01	9.897176e+14	1.950868e+15	5.829601e+14	1.686343e+04	7.358504e+03	2.782813e+03	0	1.155176e-03
5.100000e+08	3.462458e+13	0.000000e+00	4.797686e-01	9.785157e+14	1.934448e+15	5.800449e+14	1.683012e+04	7.352537e+03	2.780557e+03	0	1.143183e-03
5.200000e+08	3.354554e+13	0.000000e+00	4.797686e-01	9.675278e+14	1.918258e+15	5.771504e+14	1.679718e+04	7.346607e+03	2.778314e+03	0	1.131182e-03
5.300000e+08	3.248809e+13	0.000000e+00	4.797686e-01	9.567483e+14	1.902294e+15	5.742766e+14	1.676460e+04	7.340712e+03	2.776085e+03	0	1.119169e-03
5.400000e+08	3.145166e+13	0.000000e+00	4.797686e-01	9.461716e+14	1.886552e+15	5.714233e+14	1.673239e+04	7.334853e+03	2.773869e+03	0	1.107139e-03
5.500000e+08	3.043568e+13	0.000000e+00	4.797686e-01	9.357925e+14	1.871028e+15	5.685902e+14	1.670054e+04	7.329030e+03	2.771667e+03	0	1.095087e-03
5.600000e+08	2.943961e+13	0.000000e+00	4.797686e-01	9.256059e+14	1.855719e+15	5.657773e+14	1.666903e+04	7.323242e+03	2.769478e+03	0	1.083008e-03
5.700000e+08	2.846294e+13	0.000000e+00	4.797686e-01	9.156068e+14	1.840621e+15	5.629844e+14	1.663786e+04	7.317491e+03	2.767303e+03	0	1.070897e-03
5.800000e+08	2.750516e+13	0.000000e+00	4.797686e-01	9.057906e+14	1.825731e+15	5.602113e+14	1.660703e+04	7.311776e+03	2.765142e+03	0	1.058747e-03
5.900000e+08	2.656578e+13	0.000000e+00	4.797686e-01	8.961525e+14	1.811045e+15	5.574578e+14	1.657653e+04	7.306097e+03	2.762994e+03	0	1.046554e-03
6.000000e+08	2.564433e+13	0.000000e+00	4.797686e-01	8.866880e+14	1.796559e+15	5.547239e+14	1.654635e+04	7.300453e+03	2.760860e+03	0	1.034312e-03
6.100000e+08	2.474035e+13	0.000000e+00	4.797686e-01	8.773929e+14	1.782270e+15	5.520092e+14	1.651649e+04	7.294845e+03	2.758739e+03	0	1.022013e-03
6.200000e+08	2.385340e+13	0.000000e+00	4.797686e-01	8.682630e+14	1.768175e+15	5.493138e+14	1.648694e+04	7.289272e+03	2.756631e+03	0	1.009650e-03
6.300000e+08	2.298305e+13	0.000000e+00	4.797686e-01	8.592941e+14	1.754270e+15	5.466374e+14	1.645770e+04	7.283735e+03	2.754537e+03	0	9.972181e-04
6.400000e+08	2.212888e+13	0.000000e+00	4.797686e-01	8.504824e+14	1.740552e+15	5.439798e+14	1.642876e+04	7.278233e+03	2.752457e+03	0	9.847079e-04
6.500000e+08	2.129049e+13	0.000000e+00	4.797686e-01	8.418240e+14	1.727018e+15	5.413410e+14	1.640011e+04	7.272766e+03	2.750389e+03	0	9.721117e-04
6.600000e+08	2.046749e+13	0.000000e+00	4.797686e-01	8.333152e+14	1.713665e+15	5.387208e+14	1.637176e+04	7.267334e+03	2.748335e+03	0	9.594209e-04
6.700000e+08	1.965951e+13	0.000000e+00	4.797686e-01	8.249525e+14	1.700489e+15	5.361190e+14	1.634369e+04	7.261937e+03	2.746294e+03	0	9.466262e-04
6.800000e+08	1.886618e+13	0.000000e+00	4.797686e-01	8.167323e+14	1.687487e+15	5.335354e+14	1.631590e+04	7.256575e+03	2.744266e+03	0	9.337177e-04
6.900000e+08	1.808713e+13	0.000000e+00	4.797686e-01	8.086512e+14	1.674657e+15	5.309700e+14	1.628838e+04	7.251246e+03	2.742251e+03	0	9.206846e-04
7.000000e+08	1.732204e+13	0.000000e+00	4.797686e-01	8.007061e+14	1.661995e+15	5.284225e+14	1.626114e+04	7.245952e+03	2.740249e+03	0	9.075153e-04
7.100000e+08	1.657056e+13	0.000000e+00	4.797686e-01	7.928937e+14	1.649499e+15	5.258929e+14	1.623417e+04	7.240691e+03	2.738259e+03	0	8.941972e-04
7.200000e+08	1.583236e+13	0.000000e+00	4.797686e-01	7.852109e+14	1.637165e+15	5.233810e+14	1.620745e+04	7.235465e+03	2.736283e+03	0	8.807167e-04
7.300000e+08	1.510715e+13	0.000000e+00	4.797686e-01	7.776548e+14	1.624991e+15	5.208866e+14	1.618100e+04	7.230271e+03	2.734319e+03	0	8.670586e-04
7.400000e+08	1.439460e+13	0.000000e+00	4.797686e-01	7.702224e+14	1.612974e+15	5.184097e+14	1.615480e+04	7.225111e+03	2.732367e+03	0	8.532066e-04
7.500000e+08	1.369443e+13	0.000000e+00	4.797686e-01	7.629110e+14	1.601112e+15	5.159500e+14	1.612885e+04	7.219984e+03	2.730428e+03	0	8.391423e-04
7.600000e+08	1.300635e+13	0.000000e+00	4.797686e-01	7.557177e+14	1.589401e+15	5.135074e+14	1.610314e+04	7.214890e+03	2.728502e+03	0	8.248458e-04
7.700000e+08	1.233007e+13	0.000000e+00	4.797686e-01	7.486400e+14	1.577839e+15	5.110819e+14	1.607768e+04	7.209827e+03	2.726587e+03	0	8.102944e-04
7.800000e+08	1.166533e+13	0.000000e+00	4.797686e-01	7.416751e+14	1.566423e+15	5.086732e+14	1.605245e+04	7.204798e+03	2.724685e+03	0	7.954630e-04
7.900000e+08	1.101187e+13	0.000000e+00	4.797686e-01	7.348208e+14	1.555152e+15	5.062812e+14	1.602746e+04	7.199800e+03	2.722795e+03	0	7.803234e-04
8.000000e+08	1.036942e+13	0.000000e+00	4.797686e-01	7.280744e+14	1.544022e+15	5.039058e+14	1.600270e+04	7.194833e+03	2.720917e+03	0	7.648433e-04
8.100000e+08	9.737748e+12	0.000000e+00	4.797686e-01	7.214336e+14	1.533031e+15	5.015469e+14	1.597816e+04	7.189899e+03	2.719051e+03	0	7.489862e-04
8.200000e+08	9.116601e+12	0.000000e+00	4.797686e-01	7.148962e+14	1.522177e+15	4.992043e+14	1.595385e+04	7.184995e+03	2.717196e+03	0	7.327097e-04
8.300000e+08	8.505749e+12	0.000000e+00	4.797686e-01	7.084598e+14	1.511457e+15	4.968779e+14	1.592976e+04	7.180122e+03	2.715354e+03	0	7.159650e-04
8.400000e+08	7.904962e+12	0.000000e+00	4.797686e-01	7.021223e+14	1.500870e+15	4.945675e+14	1.590588e+04	7.175280e+03	2.713522e+03	0	6.986949e-04
8.500000e+08	7.314021e+12	0.000000e+00	4.797686e-01	6.958816e+14	1.490412e+15	4.922732e+14	1.588222e+04	7.170468e+03	2.711703e+03	0	6.808316e-04
8.600000e+08	6.732709e+12	0.000000e+00	4.797686e-01	6.897356e+14	1.480082e+15	4.899946e+14	1.585876e+04	7.165687e+03	2.709894e+03	0	6.622941e-04
8.700000e+08	6.160816e+12	0.000000e+00	4.797686e-01	6.836823e+14	1.469878e+15	4.877317e+14	1.583552e+04	7.160935e+03	2.708097e+03	0	6.429843e-04
8.800000e+08	5.598139e+12	0.000000e+00	4.797686e-01	6.777197e+14	1.459797e+15	4.854844e+14	1.581247e+04	7.156213e+03	2.706312e+03	0	6.227812e-04
8.900000e+08	5.044479e+12	0.000000e+00	4.797686e-01	6.718460e+14	1.449837e+15	4.832525e+14	1.578963e+04	7.151520e+03	2.704537e+03	0	6.015334e-04
9.000000e+08	4.499644e+12	0.000000e+00	4.797686e-01	6.660593e+14	1.439997e+15	4.810359e+14	1.576698e+04	7.146856e+03	2.702773e+03	0	5.790468e-04
9.100000e+08	3.963445e+12	0.000000e+00	4.797686e-01	6.603578e+14	1.430274e+15	4.788345e+14	1.574453e+04	7.142221e+03	2.701020e+03	0	5.550668e-04
9.200000e+08	3.435700e+12	0.000000e+00	4.797686e-01	6.547398e+14	1.420667e+15	4.766482e+14	1.572227e+04	7.137615e+03	2.699278e+03	0	5.292482e-04
9.300000e+08	2.916230e+12	0.000000e+00	4.797686e-01	6.492035e+14	1.411173e+15	4.744769e+14	1.570020e+04	7.133036e+03	2.697547e+03	0	5.011044e-04
9.400000e+08	2.404864e+12	0.000000e+00	4.797686e-01	6.437472e+14	1.401791e+15	4.723204e+14	1.567831e+04	7.128486e+03	2.695826e+03	0	4.699134e-04
9.500000e+08	1.901431e+12	0.000000e+00	4.797686e-01	6.383695e+14	1.392518e+15	4.701786e+14	1.565661e+04	7.123964e+03	2.694116e+03	0	4.345247e-04
9.600000e+08	1.405769e+12	0.000000e+00	4.797686e-01	6.330686e+14	1.383354e+15	4.680514e+14	1.563509e+04	7.119469e+03	2.692416e+03	0	3.929092e-04
9.700000e+08	9.177157e+11	0.000000e+00	4.797686e-01	6.278430e+14	1.374296e+15	4.659388e+14	1.561375e+04	7.115001e+03	2.690726e+03	0	3.408451e-04
9.800000e+08	4.371168e+11	0.000000e+00	4.797686e-01	6.226913e+14	1.365343e+15	4.638404e+14	1.559258e+04	7.110560e+03	2.689047e+03	0	2.661870e-04
9.900000e+08	-3.617997e+10	0.000000e+00	4.797686e-01	6.176120e+14	1.356492e+15	4.617564e+14	1.557159e+04	7.106146e+03	2.687377e+03	0	nan
