#t		Qconv[W]	Ri[Rp]		R*[Rp]		Qc[W]		Qm[W]		Qr[W]		Tcmb[K]		Tl[K]		Tup[K]		RiFlag		Bs[T]
0.000000e+00	1.478733e+14	0.000000e+00	4.797686e-01	2.175775e+15	3.045385e+15	7.968443e+14	1.996307e+04	7.881356e+03	2.929299e+03	0	1.852820e-03
1.000000e+07	1.439347e+14	0.000000e+00	4.797686e-01	2.138397e+15	3.028238e+15	7.924292e+14	1.989484e+04	7.880241e+03	2.928884e+03	0	1.836222e-03
2.000000e+07	1.401051e+14	0.000000e+00	4.797686e-01	2.102021e+15	3.010415e+15	7.880471e+14	1.982777e+04	7.878756e+03	2.928332e+03	0	1.819791e-03
3.000000e+07	1.363809e+14	0.000000e+00	4.797686e-01	2.066614e+15	2.991990e+15	7.836978e+14	1.976184e+04	7.876926e+03	2.927652e+03	0	1.803521e-03
4.000000e+07	1.327583e+14	0.000000e+00	4.797686e-01	2.032142e+15	2.973031e+15	7.793809e+14	1.969701e+04	7.874775e+03	2.926853e+03	0	1.787409e-03
5.000000e+07	1.292341e+14	0.000000e+00	4.797686e-01	1.998576e+15	2.953602e+15	7.750963e+14	1.963325e+04	7.872327e+03	2.925943e+03	0	1.771451e-03
6.000000e+07	1.258048e+14	0.000000e+00	4.797686e-01	1.965885e+15	2.933762e+15	7.708435e+14	1.957055e+04	7.869601e+03	2.924930e+03	0	1.755641e-03
7.000000e+07	1.224673e+14	0.000000e+00	4.797686e-01	1.934039e+15	2.913564e+15	7.666225e+14	1.950886e+04	7.866619e+03	2.923821e+03	0	1.739977e-03
8.000000e+07	1.192186e+14	0.000000e+00	4.797686e-01	1.903011e+15	2.893059e+15	7.624328e+14	1.944816e+04	7.863397e+03	2.922624e+03	0	1.724453e-03
9.000000e+07	1.160556e+14	0.000000e+00	4.797686e-01	1.872775e+15	2.872293e+15	7.582743e+14	1.938844e+04	7.859955e+03	2.921345e+03	0	1.709066e-03
1.000000e+08	1.129756e+14	0.000000e+00	4.797686e-01	1.843304e+15	2.851309e+15	7.541467e+14	1.932966e+04	7.856307e+03	2.919989e+03	0	1.693811e-03
1.100000e+08	1.099757e+14	0.000000e+00	4.797686e-01	1.814573e+15	2.830147e+15	7.500496e+14	1.927180e+04	7.852469e+03	2.918562e+03	0	1.678684e-03
1.200000e+08	1.070535e+14	0.000000e+00	4.797686e-01	1.786558e+15	2.808843e+15	7.459830e+14	1.921483e+04	7.848455e+03	2.917070e+03	0	1.663682e-03
1.300000e+08	1.042062e+14	0.000000e+00	4.797686e-01	1.759236e+15	2.787431e+15	7.419465e+14	1.915874e+04	7.844279e+03	2.915518e+03	0	1.648800e-03
1.400000e+08	1.014316e+14	0.000000e+00	4.797686e-01	1.732586e+15	2.765941e+15	7.379398e+14	1.910351e+04	7.839953e+03	2.913911e+03	0	1.634034e-03
1.500000e+08	9.872718e+13	0.000000e+00	4.797686e-01	1.706585e+15	2.744400e+15	7.339628e+14	1.904910e+04	7.835489e+03	2.912251e+03	0	1.619381e-03
1.600000e+08	9.609074e+13	0.000000e+00	4.797686e-01	1.681213e+15	2.722836e+15	7.300151e+14	1.899551e+04	7.830897e+03	2.910545e+03	0	1.604836e-03
1.700000e+08	9.352010e+13	0.000000e+00	4.797686e-01	1.656449e+15	2.701272e+15	7.260966e+14	1.894271e+04	7.826189e+03	2.908795e+03	0	1.590395e-03
1.800000e+08	9.101315e+13	0.000000e+00	4.797686e-01	1.632276e+15	2.679729e+15	7.222070e+14	1.889069e+04	7.821373e+03	2.907005e+03	0	1.576055e-03
1.900000e+08	8.856787e+13	0.000000e+00	4.797686e-01	1.608674e+15	2.658226e+15	7.183460e+14	1.883942e+04	7.816458e+03	2.905178e+03	0	1.561812e-03
2.000000e+08	8.618232e+13	0.000000e+00	4.797686e-01	1.585626e+15	2.636783e+15	7.145134e+14	1.878888e+04	7.811453e+03	2.903318e+03	0	1.547662e-03
2.100000e+08	8.385463e+13	0.000000e+00	4.797686e-01	1.563114e+15	2.615414e+15	7.107090e+14	1.873907e+04	7.806366e+03	2.901427e+03	0	1.533601e-03
2.200000e+08	8.158298e+13	0.000000e+00	4.797686e-01	1.541122e+15	2.594135e+15	7.069325e+14	1.868996e+04	7.801204e+03	2.899508e+03	0	1.519626e-03
2.300000e+08	7.936564e+13	0.000000e+00	4.797686e-01	1.519635e+15	2.572959e+15	7.031838e+14	1.864154e+04	7.795974e+03	2.897564e+03	0	1.505732e-03
2.400000e+08	7.720094e+13	0.000000e+00	4.797686e-01	1.498636e+15	2.551899e+15	6.994625e+14	1.859379e+04	7.790682e+03	2.895598e+03	0	1.491916e-03
2.500000e+08	7.508725e+13	0.000000e+00	4.797686e-01	1.478111e+15	2.530965e+15	6.957685e+14	1.854670e+04	7.785335e+03	2.893610e+03	0	1.478174e-03
2.600000e+08	7.302303e+13	0.000000e+00	4.797686e-01	1.458047e+15	2.510166e+15	6.921016e+14	1.850025e+04	7.779937e+03	2.891604e+03	0	1.464502e-03
2.700000e+08	7.100677e+13	0.000000e+00	4.797686e-01	1.438428e+15	2.489512e+15	6.884614e+14	1.845443e+04	7.774495e+03	2.889581e+03	0	1.450897e-03
2.800000e+08	6.903703e+13	0.000000e+00	4.797686e-01	1.419243e+15	2.469011e+15	6.848478e+14	1.840922e+04	7.769014e+03	2.887544e+03	0	1.437355e-03
2.900000e+08	6.711241e+13	0.000000e+00	4.797686e-01	1.400477e+15	2.448669e+15	6.812606e+14	1.836461e+04	7.763497e+03	2.885494e+03	0	1.423872e-03
3.000000e+08	6.523157e+13	0.000000e+00	4.797686e-01	1.382120e+15	2.428492e+15	6.776996e+14	1.832059e+04	7.757949e+03	2.883432e+03	0	1.410444e-03
3.100000e+08	6.339321e+13	0.000000e+00	4.797686e-01	1.364158e+15	2.408487e+15	6.741645e+14	1.827714e+04	7.752375e+03	2.881360e+03	0	1.397068e-03
3.200000e+08	6.159608e+13	0.000000e+00	4.797686e-01	1.346581e+15	2.388657e+15	6.706551e+14	1.823426e+04	7.746778e+03	2.879280e+03	0	1.383740e-03
3.300000e+08	5.983898e+13	0.000000e+00	4.797686e-01	1.329378e+15	2.369007e+15	6.671712e+14	1.819192e+04	7.741161e+03	2.877192e+03	0	1.370455e-03
3.400000e+08	5.812075e+13	0.000000e+00	4.797686e-01	1.312537e+15	2.349540e+15	6.637127e+14	1.815013e+04	7.735529e+03	2.875099e+03	0	1.357210e-03
3.500000e+08	5.644025e+13	0.000000e+00	4.797686e-01	1.296049e+15	2.330260e+15	6.602792e+14	1.810886e+04	7.729883e+03	2.873000e+03	0	1.344001e-03
3.600000e+08	5.479642e+13	0.000000e+00	4.797686e-01	1.279904e+15	2.311168e+15	6.568706e+14	1.806810e+04	7.724227e+03	2.870898e+03	0	1.330824e-03
3.700000e+08	5.318819e+13	0.000000e+00	4.797686e-01	1.264091e+15	2.292268e+15	6.534867e+14	1.802786e+04	7.718564e+03	2.868793e+03	0	1.317675e-03
3.800000e+08	5.161456e+13	0.000000e+00	4.797686e-01	1.248602e+15	2.273559e+15	6.501273e+14	1.798811e+04	7.712896e+03	2.866686e+03	0	1.304550e-03
3.900000e+08	5.007456e+13	0.000000e+00	4.797686e-01	1.233428e+15	2.255045e+15	6.467922e+14	1.794884e+04	7.707225e+03	2.864579e+03	0	1.291445e-03
4.000000e+08	4.856724e+13	0.000000e+00	4.797686e-01	1.218561e+15	2.236726e+15	6.434811e+14	1.791005e+04	7.701554e+03	2.862471e+03	0	1.278354e-03
4.100000e+08	4.709169e+13	0.000000e+00	4.797686e-01	1.203991e+15	2.218602e+15	6.401940e+14	1.787172e+04	7.695884e+03	2.860364e+03	0	1.265275e-03
4.200000e+08	4.564703e+13	0.000000e+00	4.797686e-01	1.189710e+15	2.200673e+15	6.369305e+14	1.783385e+04	7.690218e+03	2.858258e+03	0	1.252202e-03
4.300000e+08	4.423242e+13	0.000000e+00	4.797686e-01	1.175712e+15	2.182941e+15	6.336905e+14	1.779643e+04	7.684558e+03	2.856154e+03	0	1.239130e-03
4.400000e+08	4.284702e+13	0.000000e+00	4.797686e-01	1.161987e+15	2.165404e+15	6.304739e+14	1.775944e+04	7.678904e+03	2.854053e+03	0	1.226056e-03
4.500000e+08	4.149006e+13	0.000000e+00	4.797686e-01	1.148530e+15	2.148062e+15	6.272803e+14	1.772289e+04	7.673259e+03	2.851955e+03	0	1.212974e-03
4.600000e+08	4.016075e+13	0.000000e+00	4.797686e-01	1.135333e+15	2.130915e+15	6.241097e+14	1.768676e+04	7.667624e+03	2.849860e+03	0	1.199879e-03
4.700000e+08	3.885836e+13	0.000000e+00	4.797686e-01	1.122389e+15	2.113963e+15	6.209618e+14	1.765104e+04	7.662001e+03	2.847770e+03	0	1.186765e-03
4.800000e+08	3.758218e+13	0.000000e+00	4.797686e-01	1.109691e+15	2.097203e+15	6.178365e+14	1.761572e+04	7.656390e+03	2.845685e+03	0	1.173629e-03
4.900000e+08	3.633149e+13	0.000000e+00	4.797686e-01	1.097234e+15	2.080635e+15	6.147336e+14	1.758081e+04	7.650793e+03	2.843604e+03	0	1.160463e-03
5.000000e+08	3.510564e+13	0.000000e+00	4.797686e-01	1.085010e+15	2.064258e+15	6.116528e+14	1.754628e+04	7.645210e+03	2.841530e+03	0	1.147261e-03
5.100000e+08	3.390397e+13	0.000000e+00	4.797686e-01	1.073015e+15	2.048070e+15	6.085941e+14	1.751214e+04	7.639644e+03	2.839461e+03	0	1.134019e-03
5.200000e+08	3.272586e+13	0.000000e+00	4.797686e-01	1.061241e+15	2.032071e+15	6.055571e+14	1.747838e+04	7.634094e+03	2.837398e+03	0	1.120728e-03
5.300000e+08	3.157069e+13	0.000000e+00	4.797686e-01	1.049684e+15	2.016258e+15	6.025419e+14	1.744498e+04	7.628561e+03	2.835342e+03	0	1.107384e-03
5.400000e+08	3.043787e+13	0.000000e+00	4.797686e-01	1.038338e+15	2.000630e+15	5.995481e+14	1.741195e+04	7.623048e+03	2.833292e+03	0	1.093977e-03
5.500000e+08	2.932683e+13	0.000000e+00	4.797686e-01	1.027198e+15	1.985185e+15	5.965756e+14	1.737927e+04	7.617553e+03	2.831250e+03	0	1.080501e-03
5.600000e+08	2.823702e+13	0.000000e+00	4.797686e-01	1.016258e+15	1.969922e+15	5.936243e+14	1.734694e+04	7.612078e+03	2.829215e+03	0	1.066947e-03
5.700000e+08	2.716791e+13	0.000000e+00	4.797686e-01	1.005514e+15	1.954839e+15	5.906939e+14	1.731495e+04	7.606623e+03	2.827188e+03	0	1.053308e-03
5.800000e+08	2.611897e+13	0.000000e+00	4.797686e-01	9.949610e+14	1.939934e+15	5.877843e+14	1.728330e+04	7.601189e+03	2.825168e+03	0	1.039574e-03
5.900000e+08	2.508970e+13	0.000000e+00	4.797686e-01	9.845942e+14	1.925205e+15	5.848953e+14	1.725199e+04	7.595777e+03	2.823156e+03	0	1.025735e-03
6.000000e+08	2.407961e+13	0.000000e+00	4.797686e-01	9.744091e+14	1.910649e+15	5.820268e+14	1.722099e+04	7.590386e+03	2.821153e+03	0	1.011781e-03
6.100000e+08	2.308823e+13	0.000000e+00	4.797686e-01	9.644014e+14	1.896266e+15	5.791785e+14	1.719032e+04	7.585018e+03	2.819158e+03	0	9.977007e-04
6.200000e+08	2.211510e+13	0.000000e+00	4.797686e-01	9.545668e+14	1.882054e+15	5.763504e+14	1.715996e+04	7.579673e+03	2.817171e+03	0	9.834818e-04
6.300000e+08	2.115977e+13	0.000000e+00	4.797686e-01	9.449011e+14	1.868009e+15	5.735423e+14	1.712991e+04	7.574351e+03	2.815193e+03	0	9.691115e-04
6.400000e+08	2.022182e+13	0.000000e+00	4.797686e-01	9.354005e+14	1.854130e+15	5.707539e+14	1.710016e+04	7.569052e+03	2.813224e+03	0	9.545752e-04
6.500000e+08	1.930083e+13	0.000000e+00	4.797686e-01	9.260609e+14	1.840416e+15	5.679852e+14	1.707071e+04	7.563777e+03	2.811263e+03	0	9.398576e-04
6.600000e+08	1.839639e+13	0.000000e+00	4.797686e-01	9.168787e+14	1.826864e+15	5.652360e+14	1.704156e+04	7.558526e+03	2.809311e+03	0	9.249414e-04
6.700000e+08	1.750810e+13	0.000000e+00	4.797686e-01	9.078502e+14	1.813472e+15	5.625061e+14	1.701269e+04	7.553299e+03	2.807369e+03	0	9.098080e-04
6.800000e+08	1.663559e+13	0.000000e+00	4.797686e-01	8.989719e+14	1.800237e+15	5.597954e+14	1.698410e+04	7.548097e+03	2.805435e+03	0	8.944363e-04
6.900000e+08	1.577848e+13	0.000000e+00	4.797686e-01	8.902402e+14	1.787159e+15	5.571037e+14	1.695579e+04	7.542919e+03	2.803511e+03	0	8.788035e-04
7.000000e+08	1.493641e+13	0.000000e+00	4.797686e-01	8.816519e+14	1.774235e+15	5.544309e+14	1.692776e+04	7.537766e+03	2.801595e+03	0	8.628835e-04
7.100000e+08	1.410904e+13	0.000000e+00	4.797686e-01	8.732037e+14	1.761462e+15	5.517768e+14	1.690000e+04	7.532638e+03	2.799689e+03	0	8.466473e-04
7.200000e+08	1.329602e+13	0.000000e+00	4.797686e-01	8.648925e+14	1.748840e+15	5.491412e+14	1.687250e+04	7.527535e+03	2.797793e+03	0	8.300621e-04
7.300000e+08	1.249702e+13	0.000000e+00	4.797686e-01	8.567152e+14	1.736365e+15	5.465241e+14	1.684526e+04	7.522457e+03	2.795905e+03	0	8.130905e-04
7.400000e+08	1.171172e+13	0.000000e+00	4.797686e-01	8.486687e+14	1.724036e+15	5.439252e+14	1.681828e+04	7.517404e+03	2.794027e+03	0	7.956896e-04
7.500000e+08	1.093982e+13	0.000000e+00	4.797686e-01	8.407503e+14	1.711850e+15	5.413445e+14	1.679156e+04	7.512376e+03	2.792158e+03	0	7.778099e-04
7.600000e+08	1.018100e+13	0.000000e+00	4.797686e-01	8.329570e+14	1.699807e+15	5.387817e+14	1.676508e+04	7.507373e+03	2.790299e+03	0	7.593936e-04
7.700000e+08	9.434985e+12	0.000000e+00	4.797686e-01	8.252862e+14	1.687903e+15	5.362368e+14	1.673884e+04	7.502396e+03	2.788449e+03	0	7.403728e-04
7.800000e+08	8.701473e+12	0.000000e+00	4.797686e-01	8.177351e+14	1.676138e+15	5.337095e+14	1.671285e+04	7.497444e+03	2.786609e+03	0	7.206665e-04
7.900000e+08	7.980191e+12	0.000000e+00	4.797686e-01	8.103013e+14	1.664508e+15	5.311998e+14	1.668709e+04	7.492518e+03	2.784778e+03	0	7.001770e-04
8.000000e+08	7.270870e+12	0.000000e+00	4.797686e-01	8.029821e+14	1.653012e+15	5.287075e+14	1.666157e+04	7.487616e+03	2.782956e+03	0	6.787849e-04
8.100000e+08	6.573246e+12	0.000000e+00	4.797686e-01	7.957752e+14	1.641649e+15	5.262325e+14	1.663628e+04	7.482740e+03	2.781144e+03	0	6.563418e-04
8.200000e+08	5.887064e+12	0.000000e+00	4.797686e-01	7.886780e+14	1.630416e+15	5.237746e+14	1.661121e+04	7.477889e+03	2.779341e+03	0	6.326589e-04
8.300000e+08	5.212075e+12	0.000000e+00	4.797686e-01	7.816884e+14	1.619311e+15	5.213337e+14	1.658636e+04	7.473064e+03	2.777547e+03	0	6.074916e-04
8.400000e+08	4.548036e+12	0.000000e+00	4.797686e-01	7.748040e+14	1.608333e+15	5.189096e+14	1.656174e+04	7.468263e+03	2.775763e+03	0	5.805122e-04
8.500000e+08	3.894714e+12	0.000000e+00	4.797686e-01	7.680227e+14	1.597480e+15	5.165023e+14	1.653733e+04	7.463488e+03	2.773988e+03	0	5.512669e-04
8.600000e+08	3.251877e+12	0.000000e+00	4.797686e-01	7.613423e+14	1.586749e+15	5.141116e+14	1.651314e+04	7.458737e+03	2.772222e+03	0	5.190965e-04
8.700000e+08	2.619304e+12	0.000000e+00	4.797686e-01	7.547608e+14	1.576140e+15	5.117373e+14	1.648915e+04	7.454012e+03	2.770466e+03	0	4.829832e-04
8.800000e+08	1.996777e+12	0.000000e+00	4.797686e-01	7.482760e+14	1.565651e+15	5.093794e+14	1.646537e+04	7.449311e+03	2.768719e+03	0	4.412112e-04
8.900000e+08	1.384084e+12	0.000000e+00	4.797686e-01	7.418860e+14	1.555279e+15	5.070376e+14	1.644180e+04	7.444635e+03	2.766981e+03	0	3.904729e-04
9.000000e+08	7.810204e+11	0.000000e+00	4.797686e-01	7.355889e+14	1.545024e+15	5.047120e+14	1.641842e+04	7.439983e+03	2.765252e+03	0	3.226692e-04
9.100000e+08	1.873851e+11	0.000000e+00	4.797686e-01	7.293828e+14	1.534882e+15	5.024022e+14	1.639525e+04	7.435357e+03	2.763532e+03	0	2.005003e-04
9.200000e+08	-3.970171e+11	0.000000e+00	4.797686e-01	7.232659e+14	1.524854e+15	5.001083e+14	1.637226e+04	7.430754e+03	2.761822e+03	0	nan
