#t		Qconv[W]	Ri[Rp]		R*[Rp]		Qc[W]		Qm[W]		Qr[W]		Tcmb[K]		Tl[K]		Tup[K]		RiFlag		Bs[T]
0.000000e+00	1.574336e+14	0.000000e+00	7.087379e-01	4.267602e+15	3.403737e+13	3.538401e+13	1.566920e+04	3.150643e+03	2.194774e+03	0	1.753501e-03
1.000000e+07	1.295194e+14	0.000000e+00	7.087379e-01	3.511673e+15	1.935545e+14	3.518796e+13	1.463765e+04	4.238397e+03	2.952516e+03	0	1.643054e-03
2.000000e+07	1.055616e+14	0.000000e+00	7.087379e-01	2.862897e+15	4.899941e+14	3.499337e+13	1.377933e+04	5.071091e+03	3.532580e+03	0	1.534766e-03
3.000000e+07	8.640089e+13	0.000000e+00	7.087379e-01	2.344018e+15	8.280888e+14	3.480024e+13	1.307305e+04	5.651802e+03	3.937110e+03	0	1.435642e-03
4.000000e+07	7.178403e+13	0.000000e+00	7.087379e-01	1.948169e+15	1.108461e+15	3.460854e+13	1.249032e+04	6.016684e+03	4.191291e+03	0	1.349634e-03
5.000000e+07	6.083850e+13	0.000000e+00	7.087379e-01	1.651723e+15	1.289188e+15	3.441828e+13	1.200293e+04	6.218960e+03	4.332199e+03	0	1.277222e-03
6.000000e+07	5.259446e+13	0.000000e+00	7.087379e-01	1.428423e+15	1.376697e+15	3.422944e+13	1.158755e+04	6.309918e+03	4.395561e+03	0	1.216709e-03
7.000000e+07	4.625590e+13	0.000000e+00	7.087379e-01	1.256718e+15	1.396075e+15	3.404200e+13	1.122676e+04	6.329520e+03	4.409216e+03	0	1.165724e-03
8.000000e+07	4.125217e+13	0.000000e+00	7.087379e-01	1.121157e+15	1.372315e+15	3.385596e+13	1.090816e+04	6.305461e+03	4.392456e+03	0	1.122076e-03
9.000000e+07	3.719723e+13	0.000000e+00	7.087379e-01	1.011290e+15	1.324101e+15	3.367130e+13	1.062300e+04	6.255744e+03	4.357823e+03	0	1.084036e-03
1.000000e+08	3.383404e+13	0.000000e+00	7.087379e-01	9.201555e+14	1.263707e+15	3.348801e+13	1.036506e+04	6.191678e+03	4.313194e+03	0	1.050328e-03
1.100000e+08	3.099005e+13	0.000000e+00	7.087379e-01	8.430831e+14	1.198633e+15	3.330608e+13	1.012976e+04	6.120240e+03	4.263429e+03	0	1.020033e-03
1.200000e+08	2.854699e+13	0.000000e+00	7.087379e-01	7.768699e+14	1.133226e+15	3.312550e+13	9.913674e+03	6.045688e+03	4.211495e+03	0	9.924919e-04
1.300000e+08	2.642157e+13	0.000000e+00	7.087379e-01	7.192606e+14	1.069878e+15	3.294626e+13	9.714143e+03	5.970591e+03	4.159182e+03	0	9.672225e-04
1.400000e+08	2.455340e+13	0.000000e+00	7.087379e-01	6.686199e+14	1.009805e+15	3.276835e+13	9.529053e+03	5.896480e+03	4.107555e+03	0	9.438668e-04
1.500000e+08	2.289747e+13	0.000000e+00	7.087379e-01	6.237290e+14	9.535390e+14	3.259174e+13	9.356690e+03	5.824240e+03	4.057232e+03	0	9.221524e-04
1.600000e+08	2.141937e+13	0.000000e+00	7.087379e-01	5.836554e+14	9.012149e+14	3.241645e+13	9.195636e+03	5.754357e+03	4.008551e+03	0	9.018668e-04
1.700000e+08	2.009214e+13	0.000000e+00	7.087379e-01	5.476698e+14	8.527523e+14	3.224245e+13	9.044700e+03	5.687071e+03	3.961679e+03	0	8.828405e-04
1.800000e+08	1.889430e+13	0.000000e+00	7.087379e-01	5.151898e+14	8.079574e+14	3.206972e+13	8.902869e+03	5.622468e+03	3.916676e+03	0	8.649356e-04
1.900000e+08	1.780840e+13	0.000000e+00	7.087379e-01	4.857430e+14	7.665824e+14	3.189828e+13	8.769274e+03	5.560542e+03	3.873537e+03	0	8.480377e-04
2.000000e+08	1.682009e+13	0.000000e+00	7.087379e-01	4.589406e+14	7.283614e+14	3.172809e+13	8.643157e+03	5.501229e+03	3.832219e+03	0	8.320503e-04
2.100000e+08	1.591740e+13	0.000000e+00	7.087379e-01	4.344586e+14	6.930301e+14	3.155916e+13	8.523862e+03	5.444435e+03	3.792655e+03	0	8.168912e-04
2.200000e+08	1.509027e+13	0.000000e+00	7.087379e-01	4.120241e+14	6.603362e+14	3.139146e+13	8.410806e+03	5.390047e+03	3.754768e+03	0	8.024892e-04
2.300000e+08	1.433015e+13	0.000000e+00	7.087379e-01	3.914056e+14	6.300440e+14	3.122500e+13	8.303478e+03	5.337945e+03	3.718474e+03	0	7.887822e-04
2.400000e+08	1.362971e+13	0.000000e+00	7.087379e-01	3.724048e+14	6.019374e+14	3.105975e+13	8.201421e+03	5.288009e+03	3.683687e+03	0	7.757154e-04
2.500000e+08	1.298266e+13	0.000000e+00	7.087379e-01	3.548508e+14	5.758198e+14	3.089572e+13	8.104230e+03	5.240118e+03	3.650326e+03	0	7.632405e-04
2.600000e+08	1.238352e+13	0.000000e+00	7.087379e-01	3.385956e+14	5.515130e+14	3.073289e+13	8.011540e+03	5.194156e+03	3.618308e+03	0	7.513141e-04
2.700000e+08	1.182754e+13	0.000000e+00	7.087379e-01	3.235102e+14	5.288562e+14	3.057125e+13	7.923022e+03	5.150013e+03	3.587558e+03	0	7.398977e-04
2.800000e+08	1.131055e+13	0.000000e+00	7.087379e-01	3.094818e+14	5.077049e+14	3.041079e+13	7.838383e+03	5.107586e+03	3.558003e+03	0	7.289562e-04
2.900000e+08	1.082889e+13	0.000000e+00	7.087379e-01	2.964110e+14	4.879289e+14	3.025150e+13	7.757353e+03	5.066775e+03	3.529573e+03	0	7.184582e-04
3.000000e+08	1.037932e+13	0.000000e+00	7.087379e-01	2.842102e+14	4.694112e+14	3.009337e+13	7.679691e+03	5.027489e+03	3.502207e+03	0	7.083748e-04
3.100000e+08	9.958975e+12	0.000000e+00	7.087379e-01	2.728017e+14	4.520463e+14	2.993639e+13	7.605176e+03	4.989643e+03	3.475842e+03	0	6.986801e-04
3.200000e+08	9.565314e+12	0.000000e+00	7.087379e-01	2.621167e+14	4.357395e+14	2.978056e+13	7.533606e+03	4.953155e+03	3.450425e+03	0	6.893502e-04
3.300000e+08	9.196065e+12	0.000000e+00	7.087379e-01	2.520936e+14	4.204054e+14	2.962585e+13	7.464797e+03	4.917952e+03	3.425902e+03	0	6.803633e-04
3.400000e+08	8.849201e+12	0.000000e+00	7.087379e-01	2.426775e+14	4.059664e+14	2.947228e+13	7.398581e+03	4.883963e+03	3.402225e+03	0	6.716993e-04
3.500000e+08	8.522900e+12	0.000000e+00	7.087379e-01	2.338189e+14	3.923530e+14	2.931981e+13	7.334802e+03	4.851124e+03	3.379349e+03	0	6.633397e-04
3.600000e+08	8.215527e+12	0.000000e+00	7.087379e-01	2.254736e+14	3.795020e+14	2.916845e+13	7.273319e+03	4.819374e+03	3.357231e+03	0	6.552676e-04
3.700000e+08	7.925609e+12	0.000000e+00	7.087379e-01	2.176016e+14	3.673561e+14	2.901819e+13	7.214000e+03	4.788657e+03	3.335833e+03	0	6.474672e-04
3.800000e+08	7.651815e+12	0.000000e+00	7.087379e-01	2.101669e+14	3.558632e+14	2.886901e+13	7.156724e+03	4.758920e+03	3.315118e+03	0	6.399239e-04
3.900000e+08	7.392940e+12	0.000000e+00	7.087379e-01	2.031367e+14	3.449759e+14	2.872092e+13	7.101379e+03	4.730114e+03	3.295051e+03	0	6.326244e-04
4.000000e+08	7.147891e+12	0.000000e+00	7.087379e-01	1.964816e+14	3.346513e+14	2.857389e+13	7.047861e+03	4.702192e+03	3.275601e+03	0	6.255560e-04
4.100000e+08	6.915676e+12	0.000000e+00	7.087379e-01	1.901746e+14	3.248499e+14	2.842792e+13	6.996074e+03	4.675113e+03	3.256737e+03	0	6.187070e-04
4.200000e+08	6.695388e+12	0.000000e+00	7.087379e-01	1.841910e+14	3.155358e+14	2.828301e+13	6.945929e+03	4.648835e+03	3.238432e+03	0	6.120667e-04
4.300000e+08	6.486205e+12	0.000000e+00	7.087379e-01	1.785087e+14	3.066763e+14	2.813914e+13	6.897341e+03	4.623321e+03	3.220658e+03	0	6.056249e-04
4.400000e+08	6.287371e+12	0.000000e+00	7.087379e-01	1.731071e+14	2.982410e+14	2.799630e+13	6.850235e+03	4.598536e+03	3.203392e+03	0	5.993721e-04
4.500000e+08	6.098196e+12	0.000000e+00	7.087379e-01	1.679676e+14	2.902024e+14	2.785449e+13	6.804537e+03	4.574446e+03	3.186611e+03	0	5.932995e-04
4.600000e+08	5.918048e+12	0.000000e+00	7.087379e-01	1.630729e+14	2.825351e+14	2.771370e+13	6.760180e+03	4.551020e+03	3.170292e+03	0	5.873988e-04
4.700000e+08	5.746346e+12	0.000000e+00	7.087379e-01	1.584073e+14	2.752156e+14	2.757392e+13	6.717101e+03	4.528229e+03	3.154416e+03	0	5.816621e-04
4.800000e+08	5.582554e+12	0.000000e+00	7.087379e-01	1.539564e+14	2.682224e+14	2.743514e+13	6.675240e+03	4.506045e+03	3.138963e+03	0	5.760822e-04
4.900000e+08	5.426180e+12	0.000000e+00	7.087379e-01	1.497067e+14	2.615356e+14	2.729735e+13	6.634542e+03	4.484443e+03	3.123915e+03	0	5.706523e-04
5.000000e+08	5.276771e+12	0.000000e+00	7.087379e-01	1.456460e+14	2.551367e+14	2.716055e+13	6.594956e+03	4.463398e+03	3.109254e+03	0	5.653659e-04
5.100000e+08	5.133906e+12	0.000000e+00	7.087379e-01	1.417629e+14	2.490090e+14	2.702472e+13	6.556432e+03	4.442887e+03	3.094966e+03	0	5.602169e-04
5.200000e+08	4.997199e+12	0.000000e+00	7.087379e-01	1.380469e+14	2.431365e+14	2.688987e+13	6.518924e+03	4.422887e+03	3.081034e+03	0	5.551995e-04
5.300000e+08	4.866290e+12	0.000000e+00	7.087379e-01	1.344882e+14	2.375045e+14	2.675598e+13	6.482389e+03	4.403379e+03	3.067444e+03	0	5.503084e-04
5.400000e+08	4.740845e+12	0.000000e+00	7.087379e-01	1.310778e+14	2.320998e+14	2.662304e+13	6.446786e+03	4.384342e+03	3.054183e+03	0	5.455385e-04
5.500000e+08	4.620556e+12	0.000000e+00	7.087379e-01	1.278073e+14	2.269095e+14	2.649104e+13	6.412076e+03	4.365759e+03	3.041238e+03	0	5.408850e-04
5.600000e+08	4.505135e+12	0.000000e+00	7.087379e-01	1.246690e+14	2.219219e+14	2.635999e+13	6.378225e+03	4.347612e+03	3.028596e+03	0	5.363432e-04
5.700000e+08	4.394316e+12	0.000000e+00	7.087379e-01	1.216555e+14	2.171262e+14	2.622986e+13	6.345196e+03	4.329884e+03	3.016247e+03	0	5.319089e-04
5.800000e+08	4.287849e+12	0.000000e+00	7.087379e-01	1.187602e+14	2.125121e+14	2.610066e+13	6.312958e+03	4.312560e+03	3.004179e+03	0	5.275780e-04
5.900000e+08	4.185503e+12	0.000000e+00	7.087379e-01	1.159767e+14	2.080702e+14	2.597238e+13	6.281479e+03	4.295624e+03	2.992381e+03	0	5.233466e-04
6.000000e+08	4.087061e+12	0.000000e+00	7.087379e-01	1.132992e+14	2.037915e+14	2.584500e+13	6.250732e+03	4.279063e+03	2.980844e+03	0	5.192110e-04
6.100000e+08	3.992320e+12	0.000000e+00	7.087379e-01	1.107222e+14	1.996678e+14	2.571852e+13	6.220688e+03	4.262863e+03	2.969559e+03	0	5.151677e-04
6.200000e+08	3.901091e+12	0.000000e+00	7.087379e-01	1.082405e+14	1.956913e+14	2.559294e+13	6.191321e+03	4.247011e+03	2.958516e+03	0	5.112134e-04
6.300000e+08	3.813198e+12	0.000000e+00	7.087379e-01	1.058494e+14	1.918546e+14	2.546824e+13	6.162606e+03	4.231495e+03	2.947708e+03	0	5.073449e-04
6.400000e+08	3.728474e+12	0.000000e+00	7.087379e-01	1.035443e+14	1.881511e+14	2.534443e+13	6.134521e+03	4.216303e+03	2.937125e+03	0	5.035592e-04
6.500000e+08	3.646764e+12	0.000000e+00	7.087379e-01	1.013210e+14	1.845741e+14	2.522148e+13	6.107041e+03	4.201424e+03	2.926760e+03	0	4.998535e-04
6.600000e+08	3.567923e+12	0.000000e+00	7.087379e-01	9.917567e+13	1.811179e+14	2.509940e+13	6.080146e+03	4.186848e+03	2.916606e+03	0	4.962250e-04
6.700000e+08	3.491812e+12	0.000000e+00	7.087379e-01	9.710445e+13	1.777766e+14	2.497818e+13	6.053816e+03	4.172564e+03	2.906656e+03	0	4.926712e-04
6.800000e+08	3.418303e+12	0.000000e+00	7.087379e-01	9.510390e+13	1.745449e+14	2.485781e+13	6.028031e+03	4.158564e+03	2.896903e+03	0	4.891894e-04
6.900000e+08	3.347275e+12	0.000000e+00	7.087379e-01	9.317071e+13	1.714179e+14	2.473829e+13	6.002773e+03	4.144837e+03	2.887341e+03	0	4.857774e-04
7.000000e+08	3.278614e+12	0.000000e+00	7.087379e-01	9.130180e+13	1.683908e+14	2.461960e+13	5.978024e+03	4.131375e+03	2.877963e+03	0	4.824330e-04
7.100000e+08	3.212212e+12	0.000000e+00	7.087379e-01	8.949424e+13	1.654591e+14	2.450174e+13	5.953767e+03	4.118169e+03	2.868764e+03	0	4.791538e-04
7.200000e+08	3.147968e+12	0.000000e+00	7.087379e-01	8.774529e+13	1.626187e+14	2.438471e+13	5.929987e+03	4.105212e+03	2.859737e+03	0	4.759379e-04
7.300000e+08	3.085786e+12	0.000000e+00	7.087379e-01	8.605235e+13	1.598656e+14	2.426850e+13	5.906668e+03	4.092495e+03	2.850879e+03	0	4.727833e-04
7.400000e+08	3.025576e+12	0.000000e+00	7.087379e-01	8.441296e+13	1.571960e+14	2.415309e+13	5.883795e+03	4.080012e+03	2.842183e+03	0	4.696881e-04
7.500000e+08	2.967252e+12	0.000000e+00	7.087379e-01	8.282481e+13	1.546064e+14	2.403849e+13	5.861355e+03	4.067755e+03	2.833645e+03	0	4.666504e-04
7.600000e+08	2.910734e+12	0.000000e+00	7.087379e-01	8.128572e+13	1.520934e+14	2.392469e+13	5.839334e+03	4.055718e+03	2.825260e+03	0	4.636686e-04
7.700000e+08	2.855945e+12	0.000000e+00	7.087379e-01	7.979360e+13	1.496539e+14	2.381169e+13	5.817718e+03	4.043894e+03	2.817023e+03	0	4.607410e-04
7.800000e+08	2.802813e+12	0.000000e+00	7.087379e-01	7.834649e+13	1.472848e+14	2.369946e+13	5.796497e+03	4.032276e+03	2.808929e+03	0	4.578658e-04
7.900000e+08	2.751270e+12	0.000000e+00	7.087379e-01	7.694254e+13	1.449833e+14	2.358802e+13	5.775657e+03	4.020859e+03	2.800976e+03	0	4.550418e-04
8.000000e+08	2.701250e+12	0.000000e+00	7.087379e-01	7.557998e+13	1.427467e+14	2.347735e+13	5.755189e+03	4.009637e+03	2.793159e+03	0	4.522672e-04
8.100000e+08	2.652692e+12	0.000000e+00	7.087379e-01	7.425714e+13	1.405723e+14	2.336744e+13	5.735080e+03	3.998604e+03	2.785473e+03	0	4.495408e-04
8.200000e+08	2.605538e+12	0.000000e+00	7.087379e-01	7.297244e+13	1.384578e+14	2.325830e+13	5.715320e+03	3.987756e+03	2.777916e+03	0	4.468612e-04
8.300000e+08	2.559731e+12	0.000000e+00	7.087379e-01	7.172437e+13	1.364009e+14	2.314991e+13	5.695900e+03	3.977086e+03	2.770484e+03	0	4.442270e-04
8.400000e+08	2.515220e+12	0.000000e+00	7.087379e-01	7.051149e+13	1.343993e+14	2.304227e+13	5.676810e+03	3.966591e+03	2.763172e+03	0	4.416371e-04
8.500000e+08	2.471954e+12	0.000000e+00	7.087379e-01	6.933244e+13	1.324509e+14	2.293537e+13	5.658041e+03	3.956264e+03	2.755979e+03	0	4.390901e-04
8.600000e+08	2.429885e+12	0.000000e+00	7.087379e-01	6.818594e+13	1.305538e+14	2.282921e+13	5.639583e+03	3.946103e+03	2.748901e+03	0	4.365849e-04
8.700000e+08	2.388968e+12	0.000000e+00	7.087379e-01	6.707074e+13	1.287060e+14	2.272378e+13	5.621428e+03	3.936102e+03	2.741934e+03	0	4.341205e-04
8.800000e+08	2.349159e+12	0.000000e+00	7.087379e-01	6.598568e+13	1.269058e+14	2.261908e+13	5.603568e+03	3.926257e+03	2.735076e+03	0	4.316957e-04
8.900000e+08	2.310419e+12	0.000000e+00	7.087379e-01	6.492963e+13	1.251513e+14	2.251509e+13	5.585995e+03	3.916564e+03	2.728323e+03	0	4.293094e-04
9.000000e+08	2.272706e+12	0.000000e+00	7.087379e-01	6.390153e+13	1.234410e+14	2.241182e+13	5.568702e+03	3.907019e+03	2.721674e+03	0	4.269608e-04
9.100000e+08	2.235985e+12	0.000000e+00	7.087379e-01	6.290037e+13	1.217733e+14	2.230926e+13	5.551681e+03	3.897619e+03	2.715126e+03	0	4.246487e-04
9.200000e+08	2.200218e+12	0.000000e+00	7.087379e-01	6.192517e+13	1.201467e+14	2.220740e+13	5.534924e+03	3.888359e+03	2.708675e+03	0	4.223723e-04
9.300000e+08	2.165373e+12	0.000000e+00	7.087379e-01	6.097501e+13	1.185596e+14	2.210623e+13	5.518426e+03	3.879236e+03	2.702320e+03	0	4.201307e-04
9.400000e+08	2.131416e+12	0.000000e+00	7.087379e-01	6.004900e+13	1.170109e+14	2.200576e+13	5.502180e+03	3.870246e+03	2.696058e+03	0	4.179230e-04
9.500000e+08	2.098317e+12	0.000000e+00	7.087379e-01	5.914631e+13	1.154991e+14	2.190597e+13	5.486178e+03	3.861388e+03	2.689887e+03	0	4.157483e-04
9.600000e+08	2.066045e+12	0.000000e+00	7.087379e-01	5.826612e+13	1.140231e+14	2.180687e+13	5.470416e+03	3.852656e+03	2.683804e+03	0	4.136059e-04
9.700000e+08	2.034572e+12	0.000000e+00	7.087379e-01	5.740766e+13	1.125815e+14	2.170843e+13	5.454886e+03	3.844048e+03	2.677808e+03	0	4.114950e-04
9.800000e+08	2.003872e+12	0.000000e+00	7.087379e-01	5.657019e+13	1.111733e+14	2.161067e+13	5.439584e+03	3.835562e+03	2.671896e+03	0	4.094148e-04
9.900000e+08	1.973918e+12	0.000000e+00	7.087379e-01	5.575301e+13	1.097974e+14	2.151357e+13	5.424504e+03	3.827193e+03	2.666067e+03	0	4.073645e-04
1.000000e+09	1.944684e+12	0.000000e+00	7.087379e-01	5.495544e+13	1.084527e+14	2.141714e+13	5.409641e+03	3.818941e+03	2.660318e+03	0	4.053435e-04
1.010000e+09	1.916148e+12	0.000000e+00	7.087379e-01	5.417683e+13	1.071383e+14	2.132135e+13	5.394989e+03	3.810800e+03	2.654647e+03	0	4.033511e-04
1.020000e+09	1.888287e+12	0.000000e+00	7.087379e-01	5.341657e+13	1.058530e+14	2.122622e+13	5.380543e+03	3.802770e+03	2.649053e+03	0	4.013866e-04
1.030000e+09	1.861078e+12	0.000000e+00	7.087379e-01	5.267405e+13	1.045961e+14	2.113172e+13	5.366299e+03	3.794848e+03	2.643534e+03	0	3.994493e-04
1.040000e+09	1.834500e+12	0.000000e+00	7.087379e-01	5.194870e+13	1.033666e+14	2.103787e+13	5.352252e+03	3.787031e+03	2.638089e+03	0	3.975387e-04
1.050000e+09	1.808534e+12	0.000000e+00	7.087379e-01	5.123999e+13	1.021637e+14	2.094465e+13	5.338397e+03	3.779316e+03	2.632715e+03	0	3.956542e-04
1.060000e+09	1.783159e+12	0.000000e+00	7.087379e-01	5.054737e+13	1.009865e+14	2.085206e+13	5.324730e+03	3.771702e+03	2.627411e+03	0	3.937950e-04
1.070000e+09	1.758358e+12	0.000000e+00	7.087379e-01	4.987035e+13	9.983427e+13	2.076009e+13	5.311246e+03	3.764186e+03	2.622175e+03	0	3.919608e-04
1.080000e+09	1.734113e+12	0.000000e+00	7.087379e-01	4.920845e+13	9.870626e+13	2.066875e+13	5.297943e+03	3.756766e+03	2.617006e+03	0	3.901509e-04
1.090000e+09	1.710406e+12	0.000000e+00	7.087379e-01	4.856119e+13	9.760172e+13	2.057801e+13	5.284814e+03	3.749440e+03	2.611903e+03	0	3.883649e-04
1.100000e+09	1.687221e+12	0.000000e+00	7.087379e-01	4.792813e+13	9.651998e+13	2.048789e+13	5.271858e+03	3.742206e+03	2.606864e+03	0	3.866021e-04
1.110000e+09	1.664542e+12	0.000000e+00	7.087379e-01	4.730885e+13	9.546035e+13	2.039837e+13	5.259070e+03	3.735062e+03	2.601887e+03	0	3.848621e-04
1.120000e+09	1.642354e+12	0.000000e+00	7.087379e-01	4.670292e+13	9.442217e+13	2.030945e+13	5.246446e+03	3.728006e+03	2.596972e+03	0	3.831444e-04
1.130000e+09	1.620643e+12	0.000000e+00	7.087379e-01	4.610995e+13	9.340483e+13	2.022112e+13	5.233982e+03	3.721036e+03	2.592116e+03	0	3.814485e-04
1.140000e+09	1.599393e+12	0.000000e+00	7.087379e-01	4.552956e+13	9.240774e+13	2.013339e+13	5.221677e+03	3.714151e+03	2.587320e+03	0	3.797740e-04
1.150000e+09	1.578593e+12	0.000000e+00	7.087379e-01	4.496137e+13	9.143030e+13	2.004624e+13	5.209525e+03	3.707348e+03	2.582581e+03	0	3.781205e-04
1.160000e+09	1.558227e+12	0.000000e+00	7.087379e-01	4.440504e+13	9.047197e+13	1.995967e+13	5.197524e+03	3.700626e+03	2.577898e+03	0	3.764874e-04
1.170000e+09	1.538285e+12	0.000000e+00	7.087379e-01	4.386023e+13	8.953220e+13	1.987368e+13	5.185671e+03	3.693983e+03	2.573271e+03	0	3.748744e-04
1.180000e+09	1.518754e+12	0.000000e+00	7.087379e-01	4.332659e+13	8.861050e+13	1.978826e+13	5.173963e+03	3.687418e+03	2.568698e+03	0	3.732811e-04
1.190000e+09	1.499622e+12	0.000000e+00	7.087379e-01	4.280382e+13	8.770633e+13	1.970341e+13	5.162396e+03	3.680929e+03	2.564177e+03	0	3.717070e-04
1.200000e+09	1.480877e+12	0.000000e+00	7.087379e-01	4.229161e+13	8.681926e+13	1.961912e+13	5.150968e+03	3.674515e+03	2.559709e+03	0	3.701518e-04
1.210000e+09	1.462510e+12	0.000000e+00	7.087379e-01	4.178966e+13	8.594877e+13	1.953539e+13	5.139676e+03	3.668173e+03	2.555292e+03	0	3.686151e-04
1.220000e+09	1.444510e+12	0.000000e+00	7.087379e-01	4.129770e+13	8.509447e+13	1.945222e+13	5.128518e+03	3.661904e+03	2.550924e+03	0	3.670966e-04
1.230000e+09	1.426866e+12	0.000000e+00	7.087379e-01	4.081543e+13	8.425590e+13	1.936959e+13	5.117490e+03	3.655704e+03	2.546605e+03	0	3.655959e-04
1.240000e+09	1.409569e+12	0.000000e+00	7.087379e-01	4.034262e+13	8.343262e+13	1.928752e+13	5.106591e+03	3.649574e+03	2.542335e+03	0	3.641125e-04
1.250000e+09	1.392609e+12	0.000000e+00	7.087379e-01	3.987898e+13	8.262427e+13	1.920598e+13	5.095817e+03	3.643511e+03	2.538111e+03	0	3.626463e-04
1.260000e+09	1.375978e+12	0.000000e+00	7.087379e-01	3.942428e+13	8.183043e+13	1.912498e+13	5.085166e+03	3.637514e+03	2.533934e+03	0	3.611969e-04
1.270000e+09	1.359666e+12	0.000000e+00	7.087379e-01	3.897829e+13	8.105075e+13	1.904452e+13	5.074636e+03	3.631582e+03	2.529802e+03	0	3.597639e-04
1.280000e+09	1.343665e+12	0.000000e+00	7.087379e-01	3.854076e+13	8.028485e+13	1.896458e+13	5.064225e+03	3.625714e+03	2.525714e+03	0	3.583471e-04
1.290000e+09	1.327967e+12	0.000000e+00	7.087379e-01	3.811148e+13	7.953237e+13	1.888517e+13	5.053930e+03	3.619909e+03	2.521670e+03	0	3.569461e-04
1.300000e+09	1.312564e+12	0.000000e+00	7.087379e-01	3.769023e+13	7.879298e+13	1.880628e+13	5.043749e+03	3.614165e+03	2.517669e+03	0	3.555607e-04
1.310000e+09	1.297448e+12	0.000000e+00	7.087379e-01	3.727680e+13	7.806635e+13	1.872791e+13	5.033680e+03	3.608481e+03	2.513709e+03	0	3.541905e-04
1.320000e+09	1.282612e+12	0.000000e+00	7.087379e-01	3.687100e+13	7.735217e+13	1.865005e+13	5.023722e+03	3.602857e+03	2.509791e+03	0	3.528353e-04
1.330000e+09	1.268049e+12	0.000000e+00	7.087379e-01	3.647262e+13	7.665011e+13	1.857270e+13	5.013871e+03	3.597290e+03	2.505914e+03	0	3.514948e-04
1.340000e+09	1.253752e+12	0.000000e+00	7.087379e-01	3.608148e+13	7.595991e+13	1.849586e+13	5.004126e+03	3.591781e+03	2.502076e+03	0	3.501687e-04
1.350000e+09	1.239713e+12	0.000000e+00	7.087379e-01	3.569740e+13	7.528125e+13	1.841952e+13	4.994485e+03	3.586328e+03	2.498277e+03	0	3.488569e-04
1.360000e+09	1.225928e+12	0.000000e+00	7.087379e-01	3.532020e+13	7.461385e+13	1.834367e+13	4.984946e+03	3.580929e+03	2.494516e+03	0	3.475590e-04
