#t		Qconv[W]	Ri[Rp]		R*[Rp]		Qc[W]		Qm[W]		Qr[W]		Tcmb[K]		Tl[K]		Tup[K]		RiFlag		Bs[T]
0.000000e+00	3.205816e+14	0.000000e+00	7.087379e-01	6.640749e+15	4.015985e+13	5.263912e+13	1.834365e+04	3.419430e+03	2.328067e+03	0	2.169257e-03
1.000000e+07	2.733489e+14	0.000000e+00	7.087379e-01	5.663970e+15	2.310851e+14	5.234746e+13	1.730082e+04	4.575645e+03	3.115257e+03	0	2.057014e-03
2.000000e+07	2.304791e+14	0.000000e+00	7.087379e-01	4.777466e+15	6.176220e+14	5.205799e+13	1.640397e+04	5.509475e+03	3.751042e+03	0	1.943309e-03
3.000000e+07	1.940239e+14	0.000000e+00	7.087379e-01	4.023609e+15	1.111630e+15	5.177067e+13	1.564203e+04	6.208558e+03	4.227001e+03	0	1.834917e-03
4.000000e+07	1.645491e+14	0.000000e+00	7.087379e-01	3.414073e+15	1.579190e+15	5.148550e+13	1.499638e+04	6.688954e+03	4.554071e+03	0	1.736854e-03
5.000000e+07	1.414035e+14	0.000000e+00	7.087379e-01	2.935379e+15	1.932026e+15	5.120246e+13	1.444570e+04	6.989184e+03	4.758479e+03	0	1.651270e-03
6.000000e+07	1.233650e+14	0.000000e+00	7.087379e-01	2.562266e+15	2.148515e+15	5.092153e+13	1.397015e+04	7.155021e+03	4.871386e+03	0	1.577837e-03
7.000000e+07	1.091851e+14	0.000000e+00	7.087379e-01	2.268921e+15	2.248304e+15	5.064269e+13	1.355349e+04	7.227605e+03	4.920804e+03	0	1.514907e-03
8.000000e+07	9.783942e+13	0.000000e+00	7.087379e-01	2.034173e+15	2.263817e+15	5.036592e+13	1.318336e+04	7.238688e+03	4.928350e+03	0	1.460504e-03
9.000000e+07	8.857044e+13	0.000000e+00	7.087379e-01	1.842363e+15	2.224814e+15	5.009121e+13	1.285058e+04	7.210721e+03	4.909309e+03	0	1.412845e-03
1.000000e+08	8.084286e+13	0.000000e+00	7.087379e-01	1.682427e+15	2.153632e+15	4.981854e+13	1.254844e+04	7.158799e+03	4.873958e+03	0	1.370499e-03
1.100000e+08	7.428345e+13	0.000000e+00	7.087379e-01	1.546648e+15	2.065416e+15	4.954789e+13	1.227191e+04	7.092788e+03	4.829016e+03	0	1.332382e-03
1.200000e+08	6.863041e+13	0.000000e+00	7.087379e-01	1.429614e+15	1.969837e+15	4.927925e+13	1.201718e+04	7.019040e+03	4.778806e+03	0	1.297688e-03
1.300000e+08	6.369707e+13	0.000000e+00	7.087379e-01	1.327467e+15	1.872799e+15	4.901260e+13	1.178129e+04	6.941598e+03	4.726081e+03	0	1.265818e-03
1.400000e+08	5.934736e+13	0.000000e+00	7.087379e-01	1.237393e+15	1.777760e+15	4.874792e+13	1.156188e+04	6.863020e+03	4.672582e+03	0	1.236323e-03
1.500000e+08	5.547967e+13	0.000000e+00	7.087379e-01	1.157292e+15	1.686630e+15	4.848520e+13	1.135705e+04	6.784900e+03	4.619395e+03	0	1.208860e-03
1.600000e+08	5.201636e+13	0.000000e+00	7.087379e-01	1.085557e+15	1.600371e+15	4.822442e+13	1.116519e+04	6.708219e+03	4.567188e+03	0	1.183163e-03
1.700000e+08	4.889676e+13	0.000000e+00	7.087379e-01	1.020933e+15	1.519366e+15	4.796557e+13	1.098498e+04	6.633556e+03	4.516355e+03	0	1.159021e-03
1.800000e+08	4.607251e+13	0.000000e+00	7.087379e-01	9.624220e+14	1.443658e+15	4.770862e+13	1.081528e+04	6.561237e+03	4.467118e+03	0	1.136263e-03
1.900000e+08	4.350444e+13	0.000000e+00	7.087379e-01	9.092121e+14	1.373092e+15	4.745357e+13	1.065512e+04	6.491421e+03	4.419584e+03	0	1.114746e-03
2.000000e+08	4.116027e+13	0.000000e+00	7.087379e-01	8.606363e+14	1.307411e+15	4.720039e+13	1.050364e+04	6.424160e+03	4.373790e+03	0	1.094353e-03
2.100000e+08	3.901313e+13	0.000000e+00	7.087379e-01	8.161387e+14	1.246307e+15	4.694907e+13	1.036011e+04	6.359439e+03	4.329727e+03	0	1.074983e-03
2.200000e+08	3.704037e+13	0.000000e+00	7.087379e-01	7.752506e+14	1.189452e+15	4.669960e+13	1.022386e+04	6.297204e+03	4.287354e+03	0	1.056550e-03
2.300000e+08	3.522272e+13	0.000000e+00	7.087379e-01	7.375733e+14	1.136523e+15	4.645196e+13	1.009432e+04	6.237370e+03	4.246618e+03	0	1.038976e-03
2.400000e+08	3.354364e+13	0.000000e+00	7.087379e-01	7.027649e+14	1.087206e+15	4.620613e+13	9.970965e+03	6.179844e+03	4.207452e+03	0	1.022198e-03
2.500000e+08	3.198888e+13	0.000000e+00	7.087379e-01	6.705304e+14	1.041207e+15	4.596211e+13	9.853333e+03	6.124521e+03	4.169786e+03	0	1.006154e-03
2.600000e+08	3.054604e+13	0.000000e+00	7.087379e-01	6.406130e+14	9.982559e+14	4.571987e+13	9.741007e+03	6.071296e+03	4.133549e+03	0	9.907933e-04
2.700000e+08	2.920428e+13	0.000000e+00	7.087379e-01	6.127888e+14	9.581006e+14	4.547941e+13	9.633612e+03	6.020064e+03	4.098668e+03	0	9.760685e-04
2.800000e+08	2.795410e+13	0.000000e+00	7.087379e-01	5.868610e+14	9.205114e+14	4.524070e+13	9.530807e+03	5.970724e+03	4.065076e+03	0	9.619370e-04
2.900000e+08	2.678712e+13	0.000000e+00	7.087379e-01	5.626560e+14	8.852795e+14	4.500373e+13	9.432286e+03	5.923177e+03	4.032704e+03	0	9.483604e-04
3.000000e+08	2.569591e+13	0.000000e+00	7.087379e-01	5.400204e+14	8.522147e+14	4.476849e+13	9.337766e+03	5.877330e+03	4.001490e+03	0	9.353039e-04
3.100000e+08	2.467388e+13	0.000000e+00	7.087379e-01	5.188177e+14	8.211440e+14	4.453496e+13	9.246993e+03	5.833094e+03	3.971372e+03	0	9.227356e-04
3.200000e+08	2.371517e+13	0.000000e+00	7.087379e-01	4.989264e+14	7.919109e+14	4.430313e+13	9.159732e+03	5.790384e+03	3.942294e+03	0	9.106263e-04
3.300000e+08	2.281451e+13	0.000000e+00	7.087379e-01	4.802376e+14	7.643725e+14	4.407299e+13	9.075769e+03	5.749122e+03	3.914201e+03	0	8.989492e-04
3.400000e+08	2.196720e+13	0.000000e+00	7.087379e-01	4.626541e+14	7.383992e+14	4.384452e+13	8.994908e+03	5.709233e+03	3.887044e+03	0	8.876798e-04
3.500000e+08	2.116901e+13	0.000000e+00	7.087379e-01	4.460880e+14	7.138733e+14	4.361770e+13	8.916967e+03	5.670648e+03	3.860774e+03	0	8.767954e-04
3.600000e+08	2.041612e+13	0.000000e+00	7.087379e-01	4.304605e+14	6.906881e+14	4.339253e+13	8.841779e+03	5.633301e+03	3.835347e+03	0	8.662751e-04
3.700000e+08	1.970508e+13	0.000000e+00	7.087379e-01	4.157002e+14	6.687454e+14	4.316900e+13	8.769191e+03	5.597131e+03	3.810721e+03	0	8.560993e-04
3.800000e+08	1.903278e+13	0.000000e+00	7.087379e-01	4.017425e+14	6.479568e+14	4.294707e+13	8.699060e+03	5.562080e+03	3.786857e+03	0	8.462503e-04
3.900000e+08	1.839638e+13	0.000000e+00	7.087379e-01	3.885289e+14	6.282407e+14	4.272676e+13	8.631254e+03	5.528094e+03	3.763718e+03	0	8.367111e-04
4.000000e+08	1.779331e+13	0.000000e+00	7.087379e-01	3.760059e+14	6.095228e+14	4.250803e+13	8.565651e+03	5.495122e+03	3.741269e+03	0	8.274664e-04
4.100000e+08	1.722123e+13	0.000000e+00	7.087379e-01	3.641252e+14	5.917353e+14	4.229088e+13	8.502136e+03	5.463116e+03	3.719479e+03	0	8.185016e-04
4.200000e+08	1.667800e+13	0.000000e+00	7.087379e-01	3.528424e+14	5.748158e+14	4.207530e+13	8.440605e+03	5.432033e+03	3.698316e+03	0	8.098031e-04
4.300000e+08	1.616166e+13	0.000000e+00	7.087379e-01	3.421170e+14	5.587071e+14	4.186127e+13	8.380957e+03	5.401830e+03	3.677753e+03	0	8.013584e-04
4.400000e+08	1.567043e+13	0.000000e+00	7.087379e-01	3.319120e+14	5.433568e+14	4.164878e+13	8.323102e+03	5.372467e+03	3.657762e+03	0	7.931556e-04
4.500000e+08	1.520266e+13	0.000000e+00	7.087379e-01	3.221933e+14	5.287166e+14	4.143782e+13	8.266953e+03	5.343908e+03	3.638317e+03	0	7.851837e-04
4.600000e+08	1.475684e+13	0.000000e+00	7.087379e-01	3.129298e+14	5.147418e+14	4.122837e+13	8.212430e+03	5.316116e+03	3.619396e+03	0	7.774322e-04
4.700000e+08	1.433158e+13	0.000000e+00	7.087379e-01	3.040926e+14	5.013912e+14	4.102042e+13	8.159457e+03	5.289061e+03	3.600976e+03	0	7.698915e-04
4.800000e+08	1.392562e+13	0.000000e+00	7.087379e-01	2.956554e+14	4.886272e+14	4.081396e+13	8.107964e+03	5.262709e+03	3.583035e+03	0	7.625522e-04
4.900000e+08	1.353776e+13	0.000000e+00	7.087379e-01	2.875936e+14	4.764145e+14	4.060898e+13	8.057884e+03	5.237032e+03	3.565553e+03	0	7.554059e-04
5.000000e+08	1.316692e+13	0.000000e+00	7.087379e-01	2.798847e+14	4.647207e+14	4.040547e+13	8.009156e+03	5.212003e+03	3.548512e+03	0	7.484443e-04
5.100000e+08	1.281209e+13	0.000000e+00	7.087379e-01	2.725078e+14	4.535158e+14	4.020341e+13	7.961721e+03	5.187594e+03	3.531894e+03	0	7.416599e-04
5.200000e+08	1.247234e+13	0.000000e+00	7.087379e-01	2.654437e+14	4.427718e+14	4.000279e+13	7.915523e+03	5.163782e+03	3.515681e+03	0	7.350453e-04
5.300000e+08	1.214680e+13	0.000000e+00	7.087379e-01	2.586743e+14	4.324628e+14	3.980361e+13	7.870511e+03	5.140542e+03	3.499859e+03	0	7.285937e-04
5.400000e+08	1.183467e+13	0.000000e+00	7.087379e-01	2.521831e+14	4.225646e+14	3.960584e+13	7.826635e+03	5.117853e+03	3.484411e+03	0	7.222987e-04
5.500000e+08	1.153521e+13	0.000000e+00	7.087379e-01	2.459545e+14	4.130549e+14	3.940948e+13	7.783850e+03	5.095693e+03	3.469324e+03	0	7.161542e-04
5.600000e+08	1.124771e+13	0.000000e+00	7.087379e-01	2.399742e+14	4.039128e+14	3.921451e+13	7.742111e+03	5.074042e+03	3.454584e+03	0	7.101544e-04
5.700000e+08	1.097153e+13	0.000000e+00	7.087379e-01	2.342287e+14	3.951188e+14	3.902093e+13	7.701378e+03	5.052882e+03	3.440177e+03	0	7.042937e-04
5.800000e+08	1.070607e+13	0.000000e+00	7.087379e-01	2.287056e+14	3.866544e+14	3.882873e+13	7.661611e+03	5.032195e+03	3.426093e+03	0	6.985671e-04
5.900000e+08	1.045076e+13	0.000000e+00	7.087379e-01	2.233931e+14	3.785031e+14	3.863788e+13	7.622773e+03	5.011963e+03	3.412318e+03	0	6.929694e-04
6.000000e+08	1.020508e+13	0.000000e+00	7.087379e-01	2.182804e+14	3.706486e+14	3.844839e+13	7.584829e+03	4.992170e+03	3.398842e+03	0	6.874961e-04
6.100000e+08	9.968534e+12	0.000000e+00	7.087379e-01	2.133573e+14	3.630761e+14	3.826024e+13	7.547746e+03	4.972800e+03	3.385655e+03	0	6.821427e-04
6.200000e+08	9.740664e+12	0.000000e+00	7.087379e-01	2.086142e+14	3.557715e+14	3.807341e+13	7.511492e+03	4.953840e+03	3.372746e+03	0	6.769049e-04
6.300000e+08	9.521037e+12	0.000000e+00	7.087379e-01	2.040422e+14	3.487221e+14	3.788791e+13	7.476037e+03	4.935274e+03	3.360105e+03	0	6.717786e-04
6.400000e+08	9.309249e+12	0.000000e+00	7.087379e-01	1.996329e+14	3.419153e+14	3.770371e+13	7.441352e+03	4.917089e+03	3.347724e+03	0	6.667602e-04
6.500000e+08	9.104919e+12	0.000000e+00	7.087379e-01	1.953784e+14	3.353395e+14	3.752081e+13	7.407410e+03	4.899273e+03	3.335595e+03	0	6.618458e-04
6.600000e+08	8.907691e+12	0.000000e+00	7.087379e-01	1.912713e+14	3.289842e+14	3.733920e+13	7.374186e+03	4.881813e+03	3.323707e+03	0	6.570320e-04
6.700000e+08	8.717230e+12	0.000000e+00	7.087379e-01	1.873047e+14	3.228389e+14	3.715887e+13	7.341655e+03	4.864698e+03	3.312055e+03	0	6.523154e-04
6.800000e+08	8.533220e+12	0.000000e+00	7.087379e-01	1.834720e+14	3.168939e+14	3.697980e+13	7.309792e+03	4.847916e+03	3.300629e+03	0	6.476928e-04
6.900000e+08	8.355364e+12	0.000000e+00	7.087379e-01	1.797671e+14	3.111404e+14	3.680199e+13	7.278577e+03	4.831457e+03	3.289424e+03	0	6.431613e-04
7.000000e+08	8.183382e+12	0.000000e+00	7.087379e-01	1.761841e+14	3.055698e+14	3.662542e+13	7.247987e+03	4.815311e+03	3.278431e+03	0	6.387178e-04
7.100000e+08	8.017010e+12	0.000000e+00	7.087379e-01	1.727176e+14	3.001738e+14	3.645009e+13	7.218001e+03	4.799468e+03	3.267644e+03	0	6.343597e-04
7.200000e+08	7.855999e+12	0.000000e+00	7.087379e-01	1.693625e+14	2.949451e+14	3.627599e+13	7.188602e+03	4.783918e+03	3.257057e+03	0	6.300842e-04
7.300000e+08	7.700113e+12	0.000000e+00	7.087379e-01	1.661138e+14	2.898763e+14	3.610310e+13	7.159768e+03	4.768653e+03	3.246664e+03	0	6.258888e-04
7.400000e+08	7.549132e+12	0.000000e+00	7.087379e-01	1.629669e+14	2.849606e+14	3.593142e+13	7.131484e+03	4.753664e+03	3.236459e+03	0	6.217710e-04
7.500000e+08	7.402843e+12	0.000000e+00	7.087379e-01	1.599175e+14	2.801917e+14	3.576094e+13	7.103732e+03	4.738943e+03	3.226436e+03	0	6.177285e-04
7.600000e+08	7.261050e+12	0.000000e+00	7.087379e-01	1.569615e+14	2.755634e+14	3.559164e+13	7.076495e+03	4.724481e+03	3.216591e+03	0	6.137591e-04
7.700000e+08	7.123562e+12	0.000000e+00	7.087379e-01	1.540949e+14	2.710699e+14	3.542352e+13	7.049758e+03	4.710272e+03	3.206916e+03	0	6.098605e-04
7.800000e+08	6.990203e+12	0.000000e+00	7.087379e-01	1.513141e+14	2.667058e+14	3.525657e+13	7.023506e+03	4.696308e+03	3.197409e+03	0	6.060308e-04
7.900000e+08	6.860802e+12	0.000000e+00	7.087379e-01	1.486156e+14	2.624657e+14	3.509078e+13	6.997724e+03	4.682582e+03	3.188064e+03	0	6.022679e-04
8.000000e+08	6.735200e+12	0.000000e+00	7.087379e-01	1.459959e+14	2.583450e+14	3.492614e+13	6.972399e+03	4.669087e+03	3.178876e+03	0	5.985700e-04
8.100000e+08	6.613245e+12	0.000000e+00	7.087379e-01	1.434520e+14	2.543388e+14	3.476265e+13	6.947517e+03	4.655817e+03	3.169842e+03	0	5.949352e-04
8.200000e+08	6.494791e+12	0.000000e+00	7.087379e-01	1.409809e+14	2.504426e+14	3.460028e+13	6.923065e+03	4.642766e+03	3.160956e+03	0	5.913617e-04
8.300000e+08	6.379702e+12	0.000000e+00	7.087379e-01	1.385797e+14	2.466523e+14	3.443903e+13	6.899032e+03	4.629927e+03	3.152215e+03	0	5.878478e-04
8.400000e+08	6.267847e+12	0.000000e+00	7.087379e-01	1.362457e+14	2.429639e+14	3.427890e+13	6.875406e+03	4.617295e+03	3.143615e+03	0	5.843920e-04
8.500000e+08	6.159101e+12	0.000000e+00	7.087379e-01	1.339764e+14	2.393734e+14	3.411988e+13	6.852174e+03	4.604865e+03	3.135152e+03	0	5.809925e-04
8.600000e+08	6.053348e+12	0.000000e+00	7.087379e-01	1.317692e+14	2.358773e+14	3.396195e+13	6.829328e+03	4.592631e+03	3.126822e+03	0	5.776481e-04
8.700000e+08	5.950473e+12	0.000000e+00	7.087379e-01	1.296219e+14	2.324721e+14	3.380510e+13	6.806855e+03	4.580587e+03	3.118622e+03	0	5.743570e-04
8.800000e+08	5.850370e+12	0.000000e+00	7.087379e-01	1.275322e+14	2.291544e+14	3.364934e+13	6.784746e+03	4.568729e+03	3.110549e+03	0	5.711181e-04
8.900000e+08	5.752938e+12	0.000000e+00	7.087379e-01	1.254980e+14	2.259211e+14	3.349465e+13	6.762991e+03	4.557052e+03	3.102599e+03	0	5.679298e-04
9.000000e+08	5.658077e+12	0.000000e+00	7.087379e-01	1.235173e+14	2.227693e+14	3.334101e+13	6.741581e+03	4.545552e+03	3.094769e+03	0	5.647910e-04
9.100000e+08	5.565696e+12	0.000000e+00	7.087379e-01	1.215881e+14	2.196958e+14	3.318843e+13	6.720506e+03	4.534224e+03	3.087057e+03	0	5.617002e-04
9.200000e+08	5.475706e+12	0.000000e+00	7.087379e-01	1.197086e+14	2.166982e+14	3.303690e+13	6.699759e+03	4.523063e+03	3.079458e+03	0	5.586565e-04
9.300000e+08	5.388022e+12	0.000000e+00	7.087379e-01	1.178771e+14	2.137737e+14	3.288640e+13	6.679331e+03	4.512066e+03	3.071971e+03	0	5.556584e-04
9.400000e+08	5.302563e+12	0.000000e+00	7.087379e-01	1.160919e+14	2.109198e+14	3.273693e+13	6.659213e+03	4.501229e+03	3.064592e+03	0	5.527050e-04
9.500000e+08	5.219252e+12	0.000000e+00	7.087379e-01	1.143513e+14	2.081341e+14	3.258848e+13	6.639398e+03	4.490547e+03	3.057320e+03	0	5.497951e-04
9.600000e+08	5.138014e+12	0.000000e+00	7.087379e-01	1.126539e+14	2.054142e+14	3.244105e+13	6.619878e+03	4.480017e+03	3.050151e+03	0	5.469277e-04
9.700000e+08	5.058780e+12	0.000000e+00	7.087379e-01	1.109981e+14	2.027582e+14	3.229462e+13	6.600647e+03	4.469635e+03	3.043082e+03	0	5.441017e-04
9.800000e+08	4.981481e+12	0.000000e+00	7.087379e-01	1.093826e+14	2.001637e+14	3.214918e+13	6.581696e+03	4.459398e+03	3.036112e+03	0	5.413161e-04
9.900000e+08	4.906053e+12	0.000000e+00	7.087379e-01	1.078060e+14	1.976288e+14	3.200473e+13	6.563020e+03	4.449302e+03	3.029239e+03	0	5.385700e-04
1.000000e+09	4.832433e+12	0.000000e+00	7.087379e-01	1.062670e+14	1.951516e+14	3.186127e+13	6.544611e+03	4.439344e+03	3.022459e+03	0	5.358625e-04
1.010000e+09	4.760562e+12	0.000000e+00	7.087379e-01	1.047644e+14	1.927301e+14	3.171877e+13	6.526464e+03	4.429521e+03	3.015772e+03	0	5.331927e-04
1.020000e+09	4.690384e+12	0.000000e+00	7.087379e-01	1.032971e+14	1.903627e+14	3.157724e+13	6.508571e+03	4.419830e+03	3.009173e+03	0	5.305597e-04
1.030000e+09	4.621842e+12	0.000000e+00	7.087379e-01	1.018638e+14	1.880476e+14	3.143667e+13	6.490928e+03	4.410268e+03	3.002663e+03	0	5.279626e-04
1.040000e+09	4.554886e+12	0.000000e+00	7.087379e-01	1.004634e+14	1.857832e+14	3.129705e+13	6.473529e+03	4.400831e+03	2.996238e+03	0	5.254007e-04
1.050000e+09	4.489464e+12	0.000000e+00	7.087379e-01	9.909505e+13	1.835679e+14	3.115837e+13	6.456367e+03	4.391518e+03	2.989898e+03	0	5.228731e-04
1.060000e+09	4.425529e+12	0.000000e+00	7.087379e-01	9.775760e+13	1.814002e+14	3.102063e+13	6.439438e+03	4.382325e+03	2.983639e+03	0	5.203791e-04
1.070000e+09	4.363033e+12	0.000000e+00	7.087379e-01	9.645012e+13	1.792787e+14	3.088382e+13	6.422736e+03	4.373250e+03	2.977460e+03	0	5.179179e-04
1.080000e+09	4.301934e+12	0.000000e+00	7.087379e-01	9.517168e+13	1.772019e+14	3.074792e+13	6.406256e+03	4.364289e+03	2.971359e+03	0	5.154889e-04
1.090000e+09	4.242186e+12	0.000000e+00	7.087379e-01	9.392140e+13	1.751686e+14	3.061294e+13	6.389993e+03	4.355442e+03	2.965336e+03	0	5.130913e-04
1.100000e+09	4.183751e+12	0.000000e+00	7.087379e-01	9.269843e+13	1.731773e+14	3.047887e+13	6.373943e+03	4.346705e+03	2.959387e+03	0	5.107245e-04
1.110000e+09	4.126587e+12	0.000000e+00	7.087379e-01	9.150194e+13	1.712270e+14	3.034569e+13	6.358101e+03	4.338075e+03	2.953512e+03	0	5.083878e-04
1.120000e+09	4.070657e+12	0.000000e+00	7.087379e-01	9.033113e+13	1.693164e+14	3.021341e+13	6.342463e+03	4.329552e+03	2.947709e+03	0	5.060805e-04
1.130000e+09	4.015925e+12	0.000000e+00	7.087379e-01	8.918526e+13	1.674443e+14	3.008201e+13	6.327023e+03	4.321132e+03	2.941976e+03	0	5.038021e-04
1.140000e+09	3.962354e+12	0.000000e+00	7.087379e-01	8.806359e+13	1.656096e+14	2.995149e+13	6.311778e+03	4.312813e+03	2.936313e+03	0	5.015519e-04
1.150000e+09	3.909912e+12	0.000000e+00	7.087379e-01	8.696540e+13	1.638114e+14	2.982184e+13	6.296724e+03	4.304593e+03	2.930716e+03	0	4.993293e-04
1.160000e+09	3.858565e+12	0.000000e+00	7.087379e-01	8.589004e+13	1.620485e+14	2.969306e+13	6.281857e+03	4.296471e+03	2.925186e+03	0	4.971339e-04
1.170000e+09	3.808282e+12	0.000000e+00	7.087379e-01	8.483683e+13	1.603199e+14	2.956514e+13	6.267173e+03	4.288444e+03	2.919721e+03	0	4.949650e-04
1.180000e+09	3.759032e+12	0.000000e+00	7.087379e-01	8.380515e+13	1.586248e+14	2.943806e+13	6.252668e+03	4.280510e+03	2.914320e+03	0	4.928221e-04
1.190000e+09	3.710788e+12	0.000000e+00	7.087379e-01	8.279439e+13	1.569622e+14	2.931183e+13	6.238338e+03	4.272668e+03	2.908980e+03	0	4.907046e-04
1.200000e+09	3.663519e+12	0.000000e+00	7.087379e-01	8.180397e+13	1.553311e+14	2.918644e+13	6.224181e+03	4.264915e+03	2.903702e+03	0	4.886121e-04
1.210000e+09	3.617199e+12	0.000000e+00	7.087379e-01	8.083333e+13	1.537308e+14	2.906188e+13	6.210192e+03	4.257251e+03	2.898484e+03	0	4.865441e-04
1.220000e+09	3.571802e+12	0.000000e+00	7.087379e-01	7.988190e+13	1.521604e+14	2.893815e+13	6.196368e+03	4.249672e+03	2.893324e+03	0	4.845002e-04
1.230000e+09	3.527303e+12	0.000000e+00	7.087379e-01	7.894918e+13	1.506192e+14	2.881523e+13	6.182706e+03	4.242178e+03	2.888222e+03	0	4.824797e-04
1.240000e+09	3.483677e+12	0.000000e+00	7.087379e-01	7.803465e+13	1.491063e+14	2.869313e+13	6.169203e+03	4.234768e+03	2.883176e+03	0	4.804823e-04
1.250000e+09	3.440900e+12	0.000000e+00	7.087379e-01	7.713782e+13	1.476210e+14	2.857183e+13	6.155855e+03	4.227438e+03	2.878186e+03	0	4.785075e-04
1.260000e+09	3.398950e+12	0.000000e+00	7.087379e-01	7.625822e+13	1.461625e+14	2.845133e+13	6.142661e+03	4.220188e+03	2.873250e+03	0	4.765550e-04
1.270000e+09	3.357804e+12	0.000000e+00	7.087379e-01	7.539539e+13	1.447303e+14	2.833163e+13	6.129616e+03	4.213017e+03	2.868368e+03	0	4.746242e-04
1.280000e+09	3.317442e+12	0.000000e+00	7.087379e-01	7.454889e+13	1.433236e+14	2.821271e+13	6.116718e+03	4.205922e+03	2.863538e+03	0	4.727148e-04
1.290000e+09	3.277843e+12	0.000000e+00	7.087379e-01	7.371828e+13	1.419417e+14	2.809458e+13	6.103964e+03	4.198903e+03	2.858759e+03	0	4.708264e-04
1.300000e+09	3.238987e+12	0.000000e+00	7.087379e-01	7.290317e+13	1.405841e+14	2.797722e+13	6.091351e+03	4.191958e+03	2.854030e+03	0	4.689586e-04
1.310000e+09	3.200854e+12	0.000000e+00	7.087379e-01	7.210315e+13	1.392501e+14	2.786063e+13	6.078878e+03	4.185085e+03	2.849351e+03	0	4.671110e-04
1.320000e+09	3.163427e+12	0.000000e+00	7.087379e-01	7.131782e+13	1.379392e+14	2.774480e+13	6.066540e+03	4.178285e+03	2.844721e+03	0	4.652832e-04
1.330000e+09	3.126686e+12	0.000000e+00	7.087379e-01	7.054683e+13	1.366507e+14	2.762973e+13	6.054337e+03	4.171554e+03	2.840138e+03	0	4.634749e-04
1.340000e+09	3.090616e+12	0.000000e+00	7.087379e-01	6.978980e+13	1.353841e+14	2.751542e+13	6.042265e+03	4.164892e+03	2.835603e+03	0	4.616857e-04
1.350000e+09	3.055199e+12	0.000000e+00	7.087379e-01	6.904638e+13	1.341390e+14	2.740185e+13	6.030322e+03	4.158297e+03	2.831113e+03	0	4.599154e-04
1.360000e+09	3.020418e+12	0.000000e+00	7.087379e-01	6.831624e+13	1.329147e+14	2.728902e+13	6.018505e+03	4.151769e+03	2.826669e+03	0	4.581635e-04
