#t		Qconv[W]	Ri[Rp]		R*[Rp]		Qc[W]		Qm[W]		Qr[W]		Tcmb[K]		Tl[K]		Tup[K]		RiFlag		Bs[T]
0.000000e+00	4.082061e+14	0.000000e+00	7.087379e-01	7.772936e+15	4.167024e+13	5.970453e+13	1.946082e+04	3.519268e+03	2.373889e+03	0	2.334346e-03
1.000000e+07	3.513478e+14	0.000000e+00	7.087379e-01	6.692372e+15	2.465859e+14	5.937372e+13	1.839963e+04	4.719376e+03	3.183411e+03	0	2.220502e-03
2.000000e+07	2.988881e+14	0.000000e+00	7.087379e-01	5.695475e+15	6.754164e+14	5.904539e+13	1.747898e+04	5.702213e+03	3.846374e+03	0	2.103980e-03
3.000000e+07	2.535154e+14	0.000000e+00	7.087379e-01	4.833263e+15	1.242360e+15	5.871951e+13	1.669023e+04	6.450988e+03	4.351454e+03	0	1.991622e-03
4.000000e+07	2.162468e+14	0.000000e+00	7.087379e-01	4.125021e+15	1.798070e+15	5.839607e+13	1.601705e+04	6.976498e+03	4.705932e+03	0	1.888812e-03
5.000000e+07	1.865968e+14	0.000000e+00	7.087379e-01	3.561507e+15	2.233508e+15	5.807503e+13	1.543970e+04	7.313608e+03	4.933326e+03	0	1.798209e-03
6.000000e+07	1.632654e+14	0.000000e+00	7.087379e-01	3.118021e+15	2.513589e+15	5.775639e+13	1.493915e+04	7.507022e+03	5.063792e+03	0	1.719901e-03
7.000000e+07	1.448040e+14	0.000000e+00	7.087379e-01	2.767049e+15	2.654474e+15	5.744012e+13	1.449937e+04	7.598743e+03	5.125661e+03	0	1.652465e-03
8.000000e+07	1.299696e+14	0.000000e+00	7.087379e-01	2.484981e+15	2.691356e+15	5.712621e+13	1.410790e+04	7.622200e+03	5.141484e+03	0	1.593992e-03
9.000000e+07	1.178165e+14	0.000000e+00	7.087379e-01	2.253858e+15	2.658906e+15	5.681463e+13	1.375539e+04	7.601573e+03	5.127570e+03	0	1.542674e-03
1.000000e+08	1.076647e+14	0.000000e+00	7.087379e-01	2.060760e+15	2.584181e+15	5.650536e+13	1.343490e+04	7.553409e+03	5.095081e+03	0	1.497028e-03
1.100000e+08	9.903442e+13	0.000000e+00	7.087379e-01	1.896575e+15	2.486035e+15	5.619838e+13	1.314125e+04	7.488673e+03	5.051414e+03	0	1.455909e-03
1.200000e+08	9.158679e+13	0.000000e+00	7.087379e-01	1.754867e+15	2.376780e+15	5.589369e+13	1.287047e+04	7.414508e+03	5.001387e+03	0	1.418458e-03
1.300000e+08	8.507930e+13	0.000000e+00	7.087379e-01	1.631029e+15	2.264095e+15	5.559124e+13	1.261947e+04	7.335515e+03	4.948103e+03	0	1.384034e-03
1.400000e+08	7.933481e+13	0.000000e+00	7.087379e-01	1.521696e+15	2.152589e+15	5.529104e+13	1.238581e+04	7.254635e+03	4.893546e+03	0	1.352156e-03
1.500000e+08	7.422098e+13	0.000000e+00	7.087379e-01	1.424353e+15	2.044896e+15	5.499306e+13	1.216748e+04	7.173728e+03	4.838971e+03	0	1.322455e-03
1.600000e+08	6.963662e+13	0.000000e+00	7.087379e-01	1.337077e+15	1.942413e+15	5.469727e+13	1.196283e+04	7.093954e+03	4.785160e+03	0	1.294647e-03
1.700000e+08	6.550267e+13	0.000000e+00	7.087379e-01	1.258365e+15	1.845778e+15	5.440367e+13	1.177046e+04	7.016019e+03	4.732590e+03	0	1.268504e-03
1.800000e+08	6.175615e+13	0.000000e+00	7.087379e-01	1.187022e+15	1.755169e+15	5.411224e+13	1.158920e+04	6.940334e+03	4.681538e+03	0	1.243843e-03
1.900000e+08	5.834597e+13	0.000000e+00	7.087379e-01	1.122075e+15	1.670493e+15	5.382295e+13	1.141802e+04	6.867116e+03	4.632149e+03	0	1.220513e-03
2.000000e+08	5.523010e+13	0.000000e+00	7.087379e-01	1.062726e+15	1.591509e+15	5.353579e+13	1.125603e+04	6.796459e+03	4.584488e+03	0	1.198388e-03
2.100000e+08	5.237348e+13	0.000000e+00	7.087379e-01	1.008309e+15	1.517893e+15	5.325074e+13	1.110245e+04	6.728376e+03	4.538563e+03	0	1.177360e-03
2.200000e+08	4.974654e+13	0.000000e+00	7.087379e-01	9.582614e+14	1.449291e+15	5.296778e+13	1.095660e+04	6.662828e+03	4.494349e+03	0	1.157337e-03
2.300000e+08	4.732413e+13	0.000000e+00	7.087379e-01	9.121047e+14	1.385337e+15	5.268690e+13	1.081786e+04	6.599747e+03	4.451798e+03	0	1.138238e-03
2.400000e+08	4.508464e+13	0.000000e+00	7.087379e-01	8.694285e+14	1.325678e+15	5.240808e+13	1.068568e+04	6.539043e+03	4.410850e+03	0	1.119992e-03
2.500000e+08	4.300941e+13	0.000000e+00	7.087379e-01	8.298779e+14	1.269976e+15	5.213131e+13	1.055959e+04	6.480619e+03	4.371441e+03	0	1.102537e-03
2.600000e+08	4.108221e+13	0.000000e+00	7.087379e-01	7.931441e+14	1.217914e+15	5.185655e+13	1.043915e+04	6.424370e+03	4.333499e+03	0	1.085817e-03
2.700000e+08	3.928884e+13	0.000000e+00	7.087379e-01	7.589571e+14	1.169199e+15	5.158381e+13	1.032395e+04	6.370195e+03	4.296955e+03	0	1.069782e-03
2.800000e+08	3.761682e+13	0.000000e+00	7.087379e-01	7.270798e+14	1.123563e+15	5.131306e+13	1.021364e+04	6.317989e+03	4.261741e+03	0	1.054386e-03
2.900000e+08	3.605513e+13	0.000000e+00	7.087379e-01	6.973026e+14	1.080759e+15	5.104428e+13	1.010789e+04	6.267655e+03	4.227788e+03	0	1.039588e-03
3.000000e+08	3.459404e+13	0.000000e+00	7.087379e-01	6.694400e+14	1.040562e+15	5.077747e+13	1.000641e+04	6.219096e+03	4.195033e+03	0	1.025351e-03
3.100000e+08	3.322485e+13	0.000000e+00	7.087379e-01	6.433271e+14	1.002767e+15	5.051260e+13	9.908920e+03	6.172222e+03	4.163415e+03	0	1.011641e-03
3.200000e+08	3.193983e+13	0.000000e+00	7.087379e-01	6.188166e+14	9.671872e+14	5.024965e+13	9.815182e+03	6.126948e+03	4.132875e+03	0	9.984270e-04
3.300000e+08	3.073206e+13	0.000000e+00	7.087379e-01	5.957767e+14	9.336531e+14	4.998862e+13	9.724966e+03	6.083191e+03	4.103359e+03	0	9.856802e-04
3.400000e+08	2.959531e+13	0.000000e+00	7.087379e-01	5.740892e+14	9.020106e+14	4.972948e+13	9.638063e+03	6.040874e+03	4.074815e+03	0	9.733741e-04
3.500000e+08	2.852401e+13	0.000000e+00	7.087379e-01	5.536478e+14	8.721183e+14	4.947222e+13	9.554281e+03	5.999927e+03	4.047195e+03	0	9.614845e-04
3.600000e+08	2.751309e+13	0.000000e+00	7.087379e-01	5.343564e+14	8.438483e+14	4.921683e+13	9.473443e+03	5.960281e+03	4.020452e+03	0	9.499890e-04
3.700000e+08	2.655801e+13	0.000000e+00	7.087379e-01	5.161283e+14	8.170835e+14	4.896329e+13	9.395386e+03	5.921872e+03	3.994544e+03	0	9.388668e-04
3.800000e+08	2.565463e+13	0.000000e+00	7.087379e-01	4.988850e+14	7.917170e+14	4.871158e+13	9.319957e+03	5.884641e+03	3.969429e+03	0	9.280984e-04
3.900000e+08	2.479920e+13	0.000000e+00	7.087379e-01	4.825549e+14	7.676512e+14	4.846169e+13	9.247017e+03	5.848530e+03	3.945072e+03	0	9.176661e-04
4.000000e+08	2.398831e+13	0.000000e+00	7.087379e-01	4.670732e+14	7.447967e+14	4.821361e+13	9.176436e+03	5.813489e+03	3.921434e+03	0	9.075530e-04
4.100000e+08	2.321884e+13	0.000000e+00	7.087379e-01	4.523807e+14	7.230719e+14	4.796731e+13	9.108092e+03	5.779466e+03	3.898485e+03	0	8.977436e-04
4.200000e+08	2.248796e+13	0.000000e+00	7.087379e-01	4.384233e+14	7.024014e+14	4.772279e+13	9.041872e+03	5.746415e+03	3.876190e+03	0	8.882233e-04
4.300000e+08	2.179307e+13	0.000000e+00	7.087379e-01	4.251515e+14	6.827164e+14	4.748004e+13	8.977672e+03	5.714292e+03	3.854523e+03	0	8.789785e-04
4.400000e+08	2.113178e+13	0.000000e+00	7.087379e-01	4.125201e+14	6.639537e+14	4.723902e+13	8.915393e+03	5.683057e+03	3.833453e+03	0	8.699965e-04
4.500000e+08	2.050192e+13	0.000000e+00	7.087379e-01	4.004874e+14	6.460544e+14	4.699974e+13	8.854944e+03	5.652669e+03	3.812955e+03	0	8.612653e-04
4.600000e+08	1.990147e+13	0.000000e+00	7.087379e-01	3.890153e+14	6.289651e+14	4.676218e+13	8.796239e+03	5.623094e+03	3.793005e+03	0	8.527737e-04
4.700000e+08	1.932858e+13	0.000000e+00	7.087379e-01	3.780685e+14	6.126359e+14	4.652632e+13	8.739197e+03	5.594295e+03	3.773579e+03	0	8.445113e-04
4.800000e+08	1.878156e+13	0.000000e+00	7.087379e-01	3.676147e+14	5.970209e+14	4.629215e+13	8.683743e+03	5.566240e+03	3.754655e+03	0	8.364680e-04
4.900000e+08	1.825883e+13	0.000000e+00	7.087379e-01	3.576238e+14	5.820778e+14	4.605966e+13	8.629807e+03	5.538899e+03	3.736213e+03	0	8.286347e-04
5.000000e+08	1.775893e+13	0.000000e+00	7.087379e-01	3.480682e+14	5.677673e+14	4.582883e+13	8.577321e+03	5.512242e+03	3.718232e+03	0	8.210024e-04
5.100000e+08	1.728053e+13	0.000000e+00	7.087379e-01	3.389223e+14	5.540526e+14	4.559965e+13	8.526224e+03	5.486243e+03	3.700694e+03	0	8.135629e-04
5.200000e+08	1.682237e+13	0.000000e+00	7.087379e-01	3.301624e+14	5.409002e+14	4.537211e+13	8.476455e+03	5.460874e+03	3.683581e+03	0	8.063085e-04
5.300000e+08	1.638330e+13	0.000000e+00	7.087379e-01	3.217665e+14	5.282785e+14	4.514618e+13	8.427961e+03	5.436111e+03	3.666878e+03	0	7.992316e-04
5.400000e+08	1.596225e+13	0.000000e+00	7.087379e-01	3.137140e+14	5.161581e+14	4.492187e+13	8.380687e+03	5.411932e+03	3.650568e+03	0	7.923252e-04
5.500000e+08	1.555821e+13	0.000000e+00	7.087379e-01	3.059861e+14	5.045119e+14	4.469915e+13	8.334586e+03	5.388313e+03	3.634636e+03	0	7.855829e-04
5.600000e+08	1.517026e+13	0.000000e+00	7.087379e-01	2.985649e+14	4.933146e+14	4.447802e+13	8.289609e+03	5.365234e+03	3.619068e+03	0	7.789983e-04
5.700000e+08	1.479753e+13	0.000000e+00	7.087379e-01	2.914341e+14	4.825422e+14	4.425846e+13	8.245713e+03	5.342674e+03	3.603851e+03	0	7.725654e-04
5.800000e+08	1.443922e+13	0.000000e+00	7.087379e-01	2.845781e+14	4.721729e+14	4.404045e+13	8.202856e+03	5.320616e+03	3.588972e+03	0	7.662786e-04
5.900000e+08	1.409456e+13	0.000000e+00	7.087379e-01	2.779827e+14	4.621857e+14	4.382399e+13	8.160998e+03	5.299040e+03	3.574418e+03	0	7.601326e-04
6.000000e+08	1.376286e+13	0.000000e+00	7.087379e-01	2.716344e+14	4.525615e+14	4.360906e+13	8.120101e+03	5.277930e+03	3.560178e+03	0	7.541222e-04
6.100000e+08	1.344346e+13	0.000000e+00	7.087379e-01	2.655207e+14	4.432820e+14	4.339566e+13	8.080131e+03	5.257269e+03	3.546241e+03	0	7.482426e-04
6.200000e+08	1.313573e+13	0.000000e+00	7.087379e-01	2.596297e+14	4.343303e+14	4.318376e+13	8.041052e+03	5.237041e+03	3.532597e+03	0	7.424893e-04
6.300000e+08	1.283910e+13	0.000000e+00	7.087379e-01	2.539505e+14	4.256904e+14	4.297335e+13	8.002832e+03	5.217233e+03	3.519236e+03	0	7.368577e-04
6.400000e+08	1.255303e+13	0.000000e+00	7.087379e-01	2.484728e+14	4.173473e+14	4.276443e+13	7.965442e+03	5.197829e+03	3.506147e+03	0	7.313439e-04
6.500000e+08	1.227700e+13	0.000000e+00	7.087379e-01	2.431867e+14	4.092868e+14	4.255699e+13	7.928851e+03	5.178817e+03	3.493323e+03	0	7.259436e-04
6.600000e+08	1.201054e+13	0.000000e+00	7.087379e-01	2.380833e+14	4.014961e+14	4.235100e+13	7.893033e+03	5.160183e+03	3.480753e+03	0	7.206532e-04
6.700000e+08	1.175320e+13	0.000000e+00	7.087379e-01	2.331539e+14	3.939624e+14	4.214646e+13	7.857960e+03	5.141915e+03	3.468430e+03	0	7.154691e-04
6.800000e+08	1.150455e+13	0.000000e+00	7.087379e-01	2.283904e+14	3.866740e+14	4.194335e+13	7.823607e+03	5.124001e+03	3.456347e+03	0	7.103876e-04
6.900000e+08	1.126420e+13	0.000000e+00	7.087379e-01	2.237852e+14	3.796199e+14	4.174168e+13	7.789951e+03	5.106430e+03	3.444495e+03	0	7.054057e-04
7.000000e+08	1.103177e+13	0.000000e+00	7.087379e-01	2.193312e+14	3.727896e+14	4.154141e+13	7.756968e+03	5.089191e+03	3.432866e+03	0	7.005200e-04
7.100000e+08	1.080690e+13	0.000000e+00	7.087379e-01	2.150217e+14	3.661734e+14	4.134255e+13	7.724637e+03	5.072275e+03	3.421455e+03	0	6.957275e-04
7.200000e+08	1.058926e+13	0.000000e+00	7.087379e-01	2.108501e+14	3.597620e+14	4.114508e+13	7.692936e+03	5.055670e+03	3.410255e+03	0	6.910254e-04
7.300000e+08	1.037854e+13	0.000000e+00	7.087379e-01	2.068106e+14	3.535464e+14	4.094898e+13	7.661845e+03	5.039368e+03	3.399258e+03	0	6.864109e-04
7.400000e+08	1.017443e+13	0.000000e+00	7.087379e-01	2.028973e+14	3.475185e+14	4.075426e+13	7.631345e+03	5.023359e+03	3.388460e+03	0	6.818813e-04
7.500000e+08	9.976647e+12	0.000000e+00	7.087379e-01	1.991050e+14	3.416704e+14	4.056089e+13	7.601419e+03	5.007635e+03	3.377853e+03	0	6.774340e-04
7.600000e+08	9.784933e+12	0.000000e+00	7.087379e-01	1.954285e+14	3.359944e+14	4.036888e+13	7.572047e+03	4.992188e+03	3.367434e+03	0	6.730667e-04
7.700000e+08	9.599029e+12	0.000000e+00	7.087379e-01	1.918630e+14	3.304838e+14	4.017819e+13	7.543214e+03	4.977008e+03	3.357195e+03	0	6.687769e-04
7.800000e+08	9.418697e+12	0.000000e+00	7.087379e-01	1.884039e+14	3.251317e+14	3.998883e+13	7.514904e+03	4.962090e+03	3.347132e+03	0	6.645624e-04
7.900000e+08	9.243709e+12	0.000000e+00	7.087379e-01	1.850469e+14	3.199318e+14	3.980079e+13	7.487100e+03	4.947425e+03	3.337239e+03	0	6.604210e-04
8.000000e+08	9.073848e+12	0.000000e+00	7.087379e-01	1.817878e+14	3.148781e+14	3.961405e+13	7.459788e+03	4.933006e+03	3.327513e+03	0	6.563507e-04
8.100000e+08	8.908910e+12	0.000000e+00	7.087379e-01	1.786228e+14	3.099648e+14	3.942861e+13	7.432954e+03	4.918826e+03	3.317948e+03	0	6.523495e-04
8.200000e+08	8.748701e+12	0.000000e+00	7.087379e-01	1.755481e+14	3.051864e+14	3.924445e+13	7.406584e+03	4.904879e+03	3.308541e+03	0	6.484154e-04
8.300000e+08	8.593035e+12	0.000000e+00	7.087379e-01	1.725603e+14	3.005379e+14	3.906156e+13	7.380665e+03	4.891159e+03	3.299286e+03	0	6.445466e-04
8.400000e+08	8.441736e+12	0.000000e+00	7.087379e-01	1.696559e+14	2.960142e+14	3.887994e+13	7.355184e+03	4.877659e+03	3.290179e+03	0	6.407413e-04
8.500000e+08	8.294638e+12	0.000000e+00	7.087379e-01	1.668318e+14	2.916108e+14	3.869956e+13	7.330129e+03	4.864373e+03	3.281217e+03	0	6.369978e-04
8.600000e+08	8.151581e+12	0.000000e+00	7.087379e-01	1.640849e+14	2.873230e+14	3.852044e+13	7.305488e+03	4.851296e+03	3.272396e+03	0	6.333145e-04
8.700000e+08	8.012413e+12	0.000000e+00	7.087379e-01	1.614123e+14	2.831467e+14	3.834254e+13	7.281251e+03	4.838422e+03	3.263712e+03	0	6.296897e-04
8.800000e+08	7.876990e+12	0.000000e+00	7.087379e-01	1.588114e+14	2.790779e+14	3.816587e+13	7.257405e+03	4.825746e+03	3.255162e+03	0	6.261219e-04
8.900000e+08	7.745174e+12	0.000000e+00	7.087379e-01	1.562793e+14	2.751125e+14	3.799041e+13	7.233942e+03	4.813263e+03	3.246742e+03	0	6.226097e-04
9.000000e+08	7.616834e+12	0.000000e+00	7.087379e-01	1.538138e+14	2.712470e+14	3.781616e+13	7.210850e+03	4.800968e+03	3.238448e+03	0	6.191516e-04
9.100000e+08	7.491845e+12	0.000000e+00	7.087379e-01	1.514123e+14	2.674779e+14	3.764310e+13	7.188120e+03	4.788857e+03	3.230279e+03	0	6.157462e-04
9.200000e+08	7.370087e+12	0.000000e+00	7.087379e-01	1.490726e+14	2.638017e+14	3.747123e+13	7.165743e+03	4.776924e+03	3.222230e+03	0	6.123922e-04
9.300000e+08	7.251446e+12	0.000000e+00	7.087379e-01	1.467924e+14	2.602152e+14	3.730053e+13	7.143710e+03	4.765166e+03	3.214298e+03	0	6.090884e-04
9.400000e+08	7.135812e+12	0.000000e+00	7.087379e-01	1.445698e+14	2.567154e+14	3.713100e+13	7.122012e+03	4.753577e+03	3.206481e+03	0	6.058335e-04
9.500000e+08	7.023081e+12	0.000000e+00	7.087379e-01	1.424027e+14	2.532992e+14	3.696262e+13	7.100640e+03	4.742155e+03	3.198776e+03	0	6.026262e-04
9.600000e+08	6.913154e+12	0.000000e+00	7.087379e-01	1.402893e+14	2.499640e+14	3.679540e+13	7.079587e+03	4.730894e+03	3.191180e+03	0	5.994655e-04
9.700000e+08	6.805935e+12	0.000000e+00	7.087379e-01	1.382276e+14	2.467070e+14	3.662931e+13	7.058844e+03	4.719791e+03	3.183691e+03	0	5.963502e-04
9.800000e+08	6.701332e+12	0.000000e+00	7.087379e-01	1.362160e+14	2.435256e+14	3.646435e+13	7.038405e+03	4.708843e+03	3.176306e+03	0	5.932793e-04
9.900000e+08	6.599259e+12	0.000000e+00	7.087379e-01	1.342528e+14	2.404174e+14	3.630052e+13	7.018261e+03	4.698046e+03	3.169023e+03	0	5.902516e-04
1.000000e+09	6.499631e+12	0.000000e+00	7.087379e-01	1.323363e+14	2.373799e+14	3.613780e+13	6.998406e+03	4.687396e+03	3.161839e+03	0	5.872662e-04
1.010000e+09	6.402368e+12	0.000000e+00	7.087379e-01	1.304651e+14	2.344109e+14	3.597618e+13	6.978833e+03	4.676889e+03	3.154752e+03	0	5.843221e-04
1.020000e+09	6.307393e+12	0.000000e+00	7.087379e-01	1.286377e+14	2.315083e+14	3.581565e+13	6.959534e+03	4.666524e+03	3.147760e+03	0	5.814184e-04
1.030000e+09	6.214633e+12	0.000000e+00	7.087379e-01	1.268527e+14	2.286699e+14	3.565621e+13	6.940505e+03	4.656296e+03	3.140861e+03	0	5.785541e-04
1.040000e+09	6.124017e+12	0.000000e+00	7.087379e-01	1.251087e+14	2.258937e+14	3.549785e+13	6.921739e+03	4.646202e+03	3.134052e+03	0	5.757283e-04
1.050000e+09	6.035476e+12	0.000000e+00	7.087379e-01	1.234044e+14	2.231778e+14	3.534056e+13	6.903229e+03	4.636239e+03	3.127332e+03	0	5.729402e-04
1.060000e+09	5.948946e+12	0.000000e+00	7.087379e-01	1.217386e+14	2.205204e+14	3.518433e+13	6.884969e+03	4.626405e+03	3.120698e+03	0	5.701889e-04
1.070000e+09	5.864363e+12	0.000000e+00	7.087379e-01	1.201101e+14	2.179196e+14	3.502915e+13	6.866955e+03	4.616697e+03	3.114150e+03	0	5.674737e-04
1.080000e+09	5.781668e+12	0.000000e+00	7.087379e-01	1.185177e+14	2.153738e+14	3.487501e+13	6.849181e+03	4.607111e+03	3.107684e+03	0	5.647937e-04
1.090000e+09	5.700803e+12	0.000000e+00	7.087379e-01	1.169604e+14	2.128813e+14	3.472192e+13	6.831641e+03	4.597646e+03	3.101299e+03	0	5.621482e-04
1.100000e+09	5.621713e+12	0.000000e+00	7.087379e-01	1.154370e+14	2.104406e+14	3.456985e+13	6.814330e+03	4.588299e+03	3.094994e+03	0	5.595364e-04
1.110000e+09	5.544343e+12	0.000000e+00	7.087379e-01	1.139466e+14	2.080501e+14	3.441880e+13	6.797244e+03	4.579066e+03	3.088767e+03	0	5.569576e-04
1.120000e+09	5.468642e+12	0.000000e+00	7.087379e-01	1.124881e+14	2.057083e+14	3.426876e+13	6.780377e+03	4.569947e+03	3.082615e+03	0	5.544112e-04
1.130000e+09	5.394562e+12	0.000000e+00	7.087379e-01	1.110607e+14	2.034139e+14	3.411972e+13	6.763725e+03	4.560938e+03	3.076538e+03	0	5.518964e-04
1.140000e+09	5.322054e+12	0.000000e+00	7.087379e-01	1.096634e+14	2.011654e+14	3.397169e+13	6.747283e+03	4.552038e+03	3.070535e+03	0	5.494125e-04
1.150000e+09	5.251072e+12	0.000000e+00	7.087379e-01	1.082953e+14	1.989617e+14	3.382464e+13	6.731047e+03	4.543243e+03	3.064602e+03	0	5.469590e-04
1.160000e+09	5.181573e+12	0.000000e+00	7.087379e-01	1.069556e+14	1.968013e+14	3.367857e+13	6.715012e+03	4.534553e+03	3.058740e+03	0	5.445353e-04
1.170000e+09	5.113514e+12	0.000000e+00	7.087379e-01	1.056435e+14	1.946832e+14	3.353347e+13	6.699175e+03	4.525964e+03	3.052947e+03	0	5.421406e-04
1.180000e+09	5.046853e+12	0.000000e+00	7.087379e-01	1.043582e+14	1.926061e+14	3.338934e+13	6.683531e+03	4.517474e+03	3.047220e+03	0	5.397745e-04
1.190000e+09	4.981552e+12	0.000000e+00	7.087379e-01	1.030989e+14	1.905689e+14	3.324617e+13	6.668077e+03	4.509083e+03	3.041560e+03	0	5.374363e-04
1.200000e+09	4.917572e+12	0.000000e+00	7.087379e-01	1.018650e+14	1.885705e+14	3.310395e+13	6.652808e+03	4.500787e+03	3.035964e+03	0	5.351256e-04
1.210000e+09	4.854876e+12	0.000000e+00	7.087379e-01	1.006556e+14	1.866098e+14	3.296267e+13	6.637721e+03	4.492586e+03	3.030432e+03	0	5.328417e-04
1.220000e+09	4.793429e+12	0.000000e+00	7.087379e-01	9.947023e+13	1.846859e+14	3.282233e+13	6.622813e+03	4.484476e+03	3.024962e+03	0	5.305841e-04
1.230000e+09	4.733197e+12	0.000000e+00	7.087379e-01	9.830810e+13	1.827978e+14	3.268291e+13	6.608079e+03	4.476457e+03	3.019552e+03	0	5.283524e-04
1.240000e+09	4.674147e+12	0.000000e+00	7.087379e-01	9.716863e+13	1.809445e+14	3.254442e+13	6.593516e+03	4.468527e+03	3.014203e+03	0	5.261460e-04
1.250000e+09	4.616246e+12	0.000000e+00	7.087379e-01	9.605119e+13	1.791251e+14	3.240684e+13	6.579122e+03	4.460683e+03	3.008912e+03	0	5.239644e-04
1.260000e+09	4.559465e+12	0.000000e+00	7.087379e-01	9.495521e+13	1.773388e+14	3.227017e+13	6.564892e+03	4.452925e+03	3.003679e+03	0	5.218072e-04
1.270000e+09	4.503772e+12	0.000000e+00	7.087379e-01	9.388010e+13	1.755846e+14	3.213440e+13	6.550824e+03	4.445251e+03	2.998502e+03	0	5.196739e-04
1.280000e+09	4.449141e+12	0.000000e+00	7.087379e-01	9.282533e+13	1.738617e+14	3.199952e+13	6.536914e+03	4.437659e+03	2.993381e+03	0	5.175641e-04
1.290000e+09	4.395541e+12	0.000000e+00	7.087379e-01	9.179036e+13	1.721694e+14	3.186553e+13	6.523160e+03	4.430147e+03	2.988314e+03	0	5.154773e-04
1.300000e+09	4.342948e+12	0.000000e+00	7.087379e-01	9.077467e+13	1.705068e+14	3.173242e+13	6.509559e+03	4.422715e+03	2.983301e+03	0	5.134132e-04
1.310000e+09	4.291334e+12	0.000000e+00	7.087379e-01	8.977777e+13	1.688733e+14	3.160018e+13	6.496107e+03	4.415360e+03	2.978340e+03	0	5.113712e-04
1.320000e+09	4.240675e+12	0.000000e+00	7.087379e-01	8.879918e+13	1.672681e+14	3.146881e+13	6.482803e+03	4.408082e+03	2.973431e+03	0	5.093510e-04
1.330000e+09	4.190946e+12	0.000000e+00	7.087379e-01	8.783843e+13	1.656904e+14	3.133829e+13	6.469643e+03	4.400879e+03	2.968572e+03	0	5.073521e-04
1.340000e+09	4.142125e+12	0.000000e+00	7.087379e-01	8.689508e+13	1.641397e+14	3.120863e+13	6.456625e+03	4.393749e+03	2.963763e+03	0	5.053743e-04
1.350000e+09	4.094187e+12	0.000000e+00	7.087379e-01	8.596868e+13	1.626153e+14	3.107982e+13	6.443746e+03	4.386692e+03	2.959002e+03	0	5.034171e-04
1.360000e+09	4.047111e+12	0.000000e+00	7.087379e-01	8.505882e+13	1.611165e+14	3.095184e+13	6.431003e+03	4.379706e+03	2.954290e+03	0	5.014802e-04
