#t		Qconv[W]	Ri[Rp]		R*[Rp]		Qc[W]		Qm[W]		Qr[W]		Tcmb[K]		Tl[K]		Tup[K]		RiFlag		Bs[T]
0.000000e+00	4.251727e+13	0.000000e+00	7.100000e-01	5.876039e+14	3.925710e+13	1.170282e+14	1.229442e+04	3.457882e+03	2.703535e+03	0	1.070096e-03
1.000000e+07	4.229467e+13	0.000000e+00	7.100000e-01	5.846639e+14	4.346646e+13	1.163798e+14	1.225494e+04	3.507553e+03	2.742370e+03	0	1.068226e-03
2.000000e+07	4.206273e+13	0.000000e+00	7.100000e-01	5.816108e+14	4.795924e+13	1.157362e+14	1.221565e+04	3.556629e+03	2.780740e+03	0	1.066269e-03
3.000000e+07	4.182163e+13	0.000000e+00	7.100000e-01	5.784465e+14	5.273751e+13	1.150974e+14	1.217657e+04	3.605082e+03	2.818623e+03	0	1.064228e-03
4.000000e+07	4.157152e+13	0.000000e+00	7.100000e-01	5.751732e+14	5.780172e+13	1.144634e+14	1.213770e+04	3.652881e+03	2.855994e+03	0	1.062102e-03
5.000000e+07	4.131262e+13	0.000000e+00	7.100000e-01	5.717936e+14	6.315066e+13	1.138342e+14	1.209905e+04	3.699997e+03	2.892832e+03	0	1.059893e-03
6.000000e+07	4.104514e+13	0.000000e+00	7.100000e-01	5.683102e+14	6.878137e+13	1.132096e+14	1.206063e+04	3.746401e+03	2.929113e+03	0	1.057601e-03
7.000000e+07	4.076932e+13	0.000000e+00	7.100000e-01	5.647260e+14	7.468916e+13	1.125897e+14	1.202243e+04	3.792066e+03	2.964816e+03	0	1.055226e-03
8.000000e+07	4.048541e+13	0.000000e+00	7.100000e-01	5.610441e+14	8.086752e+13	1.119744e+14	1.198448e+04	3.836963e+03	2.999919e+03	0	1.052771e-03
9.000000e+07	4.019369e+13	0.000000e+00	7.100000e-01	5.572681e+14	8.730818e+13	1.113636e+14	1.194677e+04	3.881066e+03	3.034400e+03	0	1.050236e-03
1.000000e+08	3.989445e+13	0.000000e+00	7.100000e-01	5.534014e+14	9.400114e+13	1.107574e+14	1.190932e+04	3.924348e+03	3.068240e+03	0	1.047624e-03
1.100000e+08	3.958800e+13	0.000000e+00	7.100000e-01	5.494480e+14	1.009347e+14	1.101557e+14	1.187213e+04	3.966785e+03	3.101419e+03	0	1.044934e-03
1.200000e+08	3.927468e+13	0.000000e+00	7.100000e-01	5.454118e+14	1.080954e+14	1.095585e+14	1.183519e+04	4.008353e+03	3.133919e+03	0	1.042170e-03
1.300000e+08	3.895481e+13	0.000000e+00	7.100000e-01	5.412970e+14	1.154685e+14	1.089657e+14	1.179853e+04	4.049029e+03	3.165721e+03	0	1.039333e-03
1.400000e+08	3.862876e+13	0.000000e+00	7.100000e-01	5.371082e+14	1.230376e+14	1.083772e+14	1.176215e+04	4.088792e+03	3.196810e+03	0	1.036425e-03
1.500000e+08	3.829690e+13	0.000000e+00	7.100000e-01	5.328497e+14	1.307850e+14	1.077931e+14	1.172604e+04	4.127624e+03	3.227171e+03	0	1.033449e-03
1.600000e+08	3.795960e+13	0.000000e+00	7.100000e-01	5.285263e+14	1.386920e+14	1.072134e+14	1.169022e+04	4.165507e+03	3.256790e+03	0	1.030406e-03
1.700000e+08	3.761725e+13	0.000000e+00	7.100000e-01	5.241426e+14	1.467386e+14	1.066379e+14	1.165469e+04	4.202425e+03	3.285654e+03	0	1.027299e-03
1.800000e+08	3.727025e+13	0.000000e+00	7.100000e-01	5.197037e+14	1.549043e+14	1.060666e+14	1.161945e+04	4.238364e+03	3.313753e+03	0	1.024130e-03
1.900000e+08	3.691899e+13	0.000000e+00	7.100000e-01	5.152143e+14	1.631676e+14	1.054996e+14	1.158451e+04	4.273313e+03	3.341077e+03	0	1.020903e-03
2.000000e+08	3.656389e+13	0.000000e+00	7.100000e-01	5.106795e+14	1.715067e+14	1.049367e+14	1.154987e+04	4.307260e+03	3.367619e+03	0	1.017619e-03
2.100000e+08	3.620534e+13	0.000000e+00	7.100000e-01	5.061042e+14	1.798993e+14	1.043780e+14	1.151553e+04	4.340199e+03	3.393372e+03	0	1.014282e-03
2.200000e+08	3.584376e+13	0.000000e+00	7.100000e-01	5.014935e+14	1.883231e+14	1.038233e+14	1.148150e+04	4.372123e+03	3.418332e+03	0	1.010894e-03
2.300000e+08	3.547954e+13	0.000000e+00	7.100000e-01	4.968522e+14	1.967559e+14	1.032728e+14	1.144778e+04	4.403029e+03	3.442496e+03	0	1.007458e-03
2.400000e+08	3.511308e+13	0.000000e+00	7.100000e-01	4.921852e+14	2.051755e+14	1.027263e+14	1.141437e+04	4.432915e+03	3.465862e+03	0	1.003978e-03
2.500000e+08	3.474478e+13	0.000000e+00	7.100000e-01	4.874974e+14	2.135601e+14	1.021838e+14	1.138127e+04	4.461781e+03	3.488430e+03	0	1.000455e-03
2.600000e+08	3.437503e+13	0.000000e+00	7.100000e-01	4.827935e+14	2.218887e+14	1.016452e+14	1.134849e+04	4.489628e+03	3.510203e+03	0	9.968936e-04
2.700000e+08	3.400420e+13	0.000000e+00	7.100000e-01	4.780782e+14	2.301407e+14	1.011106e+14	1.131602e+04	4.516462e+03	3.531183e+03	0	9.932958e-04
2.800000e+08	3.363266e+13	0.000000e+00	7.100000e-01	4.733558e+14	2.382963e+14	1.005799e+14	1.128386e+04	4.542288e+03	3.551375e+03	0	9.896649e-04
2.900000e+08	3.326077e+13	0.000000e+00	7.100000e-01	4.686310e+14	2.463369e+14	1.000531e+14	1.125203e+04	4.567114e+03	3.570785e+03	0	9.860036e-04
3.000000e+08	3.288886e+13	0.000000e+00	7.100000e-01	4.639077e+14	2.542446e+14	9.953006e+13	1.122050e+04	4.590949e+03	3.589420e+03	0	9.823149e-04
3.100000e+08	3.251728e+13	0.000000e+00	7.100000e-01	4.591901e+14	2.620027e+14	9.901088e+13	1.118930e+04	4.613804e+03	3.607289e+03	0	9.786014e-04
3.200000e+08	3.214634e+13	0.000000e+00	7.100000e-01	4.544820e+14	2.695959e+14	9.849548e+13	1.115841e+04	4.635691e+03	3.624402e+03	0	9.748660e-04
3.300000e+08	3.177634e+13	0.000000e+00	7.100000e-01	4.497872e+14	2.770098e+14	9.798382e+13	1.112784e+04	4.656625e+03	3.640769e+03	0	9.711114e-04
3.400000e+08	3.140757e+13	0.000000e+00	7.100000e-01	4.451092e+14	2.842315e+14	9.747588e+13	1.109758e+04	4.676621e+03	3.656403e+03	0	9.673401e-04
3.500000e+08	3.104029e+13	0.000000e+00	7.100000e-01	4.404512e+14	2.912494e+14	9.697162e+13	1.106763e+04	4.695695e+03	3.671316e+03	0	9.635547e-04
3.600000e+08	3.067478e+13	0.000000e+00	7.100000e-01	4.358164e+14	2.980530e+14	9.647102e+13	1.103800e+04	4.713865e+03	3.685522e+03	0	9.597576e-04
3.700000e+08	3.031126e+13	0.000000e+00	7.100000e-01	4.312078e+14	3.046333e+14	9.597405e+13	1.100867e+04	4.731148e+03	3.699035e+03	0	9.559512e-04
3.800000e+08	2.994996e+13	0.000000e+00	7.100000e-01	4.266279e+14	3.109824e+14	9.548067e+13	1.097966e+04	4.747565e+03	3.711870e+03	0	9.521378e-04
3.900000e+08	2.959108e+13	0.000000e+00	7.100000e-01	4.220795e+14	3.170940e+14	9.499086e+13	1.095095e+04	4.763135e+03	3.724043e+03	0	9.483196e-04
4.000000e+08	2.923483e+13	0.000000e+00	7.100000e-01	4.175649e+14	3.229626e+14	9.450458e+13	1.092255e+04	4.777879e+03	3.735571e+03	0	9.444985e-04
4.100000e+08	2.888138e+13	0.000000e+00	7.100000e-01	4.130861e+14	3.285842e+14	9.402182e+13	1.089445e+04	4.791818e+03	3.746469e+03	0	9.406767e-04
4.200000e+08	2.853089e+13	0.000000e+00	7.100000e-01	4.086452e+14	3.339558e+14	9.354253e+13	1.086665e+04	4.804973e+03	3.756754e+03	0	9.368560e-04
4.300000e+08	2.818351e+13	0.000000e+00	7.100000e-01	4.042440e+14	3.390755e+14	9.306669e+13	1.083915e+04	4.817367e+03	3.766445e+03	0	9.330382e-04
4.400000e+08	2.783937e+13	0.000000e+00	7.100000e-01	3.998841e+14	3.439423e+14	9.259428e+13	1.081194e+04	4.829022e+03	3.775557e+03	0	9.292250e-04
4.500000e+08	2.749859e+13	0.000000e+00	7.100000e-01	3.955670e+14	3.485564e+14	9.212526e+13	1.078502e+04	4.839959e+03	3.784108e+03	0	9.254180e-04
4.600000e+08	2.716129e+13	0.000000e+00	7.100000e-01	3.912939e+14	3.529186e+14	9.165961e+13	1.075840e+04	4.850202e+03	3.792116e+03	0	9.216186e-04
4.700000e+08	2.682756e+13	0.000000e+00	7.100000e-01	3.870661e+14	3.570309e+14	9.119730e+13	1.073206e+04	4.859772e+03	3.799599e+03	0	9.178284e-04
4.800000e+08	2.649748e+13	0.000000e+00	7.100000e-01	3.828844e+14	3.608954e+14	9.073830e+13	1.070600e+04	4.868692e+03	3.806573e+03	0	9.140485e-04
4.900000e+08	2.617112e+13	0.000000e+00	7.100000e-01	3.787499e+14	3.645153e+14	9.028258e+13	1.068023e+04	4.876985e+03	3.813056e+03	0	9.102804e-04
5.000000e+08	2.584854e+13	0.000000e+00	7.100000e-01	3.746632e+14	3.678946e+14	8.983013e+13	1.065473e+04	4.884671e+03	3.819066e+03	0	9.065250e-04
5.100000e+08	2.552980e+13	0.000000e+00	7.100000e-01	3.706250e+14	3.710375e+14	8.938091e+13	1.062951e+04	4.891773e+03	3.824619e+03	0	9.027835e-04
5.200000e+08	2.521495e+13	0.000000e+00	7.100000e-01	3.666357e+14	3.739488e+14	8.893489e+13	1.060455e+04	4.898313e+03	3.829732e+03	0	8.990568e-04
5.300000e+08	2.490400e+13	0.000000e+00	7.100000e-01	3.626958e+14	3.766336e+14	8.849206e+13	1.057987e+04	4.904310e+03	3.834421e+03	0	8.953459e-04
5.400000e+08	2.459700e+13	0.000000e+00	7.100000e-01	3.588055e+14	3.790974e+14	8.805238e+13	1.055545e+04	4.909787e+03	3.838702e+03	0	8.916515e-04
5.500000e+08	2.429396e+13	0.000000e+00	7.100000e-01	3.549651e+14	3.813463e+14	8.761582e+13	1.053129e+04	4.914762e+03	3.842593e+03	0	8.879745e-04
5.600000e+08	2.399488e+13	0.000000e+00	7.100000e-01	3.511747e+14	3.833862e+14	8.718238e+13	1.050738e+04	4.919257e+03	3.846107e+03	0	8.843156e-04
5.700000e+08	2.369978e+13	0.000000e+00	7.100000e-01	3.474343e+14	3.852235e+14	8.675201e+13	1.048374e+04	4.923290e+03	3.849260e+03	0	8.806754e-04
5.800000e+08	2.340864e+13	0.000000e+00	7.100000e-01	3.437439e+14	3.868644e+14	8.632469e+13	1.046034e+04	4.926880e+03	3.852067e+03	0	8.770544e-04
5.900000e+08	2.312148e+13	0.000000e+00	7.100000e-01	3.401033e+14	3.883159e+14	8.590040e+13	1.043719e+04	4.930047e+03	3.854543e+03	0	8.734532e-04
6.000000e+08	2.283827e+13	0.000000e+00	7.100000e-01	3.365124e+14	3.895843e+14	8.547912e+13	1.041428e+04	4.932807e+03	3.856701e+03	0	8.698723e-04
6.100000e+08	2.255899e+13	0.000000e+00	7.100000e-01	3.329711e+14	3.906764e+14	8.506081e+13	1.039162e+04	4.935178e+03	3.858554e+03	0	8.663120e-04
6.200000e+08	2.228363e+13	0.000000e+00	7.100000e-01	3.294790e+14	3.915990e+14	8.464546e+13	1.036919e+04	4.937177e+03	3.860117e+03	0	8.627728e-04
6.300000e+08	2.201217e+13	0.000000e+00	7.100000e-01	3.260357e+14	3.923587e+14	8.423304e+13	1.034700e+04	4.938820e+03	3.861402e+03	0	8.592549e-04
6.400000e+08	2.174457e+13	0.000000e+00	7.100000e-01	3.226411e+14	3.929621e+14	8.382354e+13	1.032504e+04	4.940124e+03	3.862422e+03	0	8.557587e-04
6.500000e+08	2.148080e+13	0.000000e+00	7.100000e-01	3.192945e+14	3.934157e+14	8.341691e+13	1.030330e+04	4.941103e+03	3.863187e+03	0	8.522844e-04
6.600000e+08	2.122083e+13	0.000000e+00	7.100000e-01	3.159957e+14	3.937260e+14	8.301315e+13	1.028180e+04	4.941773e+03	3.863711e+03	0	8.488322e-04
6.700000e+08	2.096462e+13	0.000000e+00	7.100000e-01	3.127442e+14	3.938995e+14	8.261223e+13	1.026051e+04	4.942147e+03	3.864003e+03	0	8.454023e-04
6.800000e+08	2.071214e+13	0.000000e+00	7.100000e-01	3.095394e+14	3.939424e+14	8.221412e+13	1.023944e+04	4.942239e+03	3.864076e+03	0	8.419948e-04
6.900000e+08	2.046334e+13	0.000000e+00	7.100000e-01	3.063809e+14	3.938609e+14	8.181880e+13	1.021858e+04	4.942064e+03	3.863938e+03	0	8.386098e-04
7.000000e+08	2.021819e+13	0.000000e+00	7.100000e-01	3.032681e+14	3.936609e+14	8.142626e+13	1.019794e+04	4.941632e+03	3.863601e+03	0	8.352475e-04
7.100000e+08	1.997663e+13	0.000000e+00	7.100000e-01	3.002005e+14	3.933481e+14	8.103646e+13	1.017751e+04	4.940957e+03	3.863073e+03	0	8.319078e-04
7.200000e+08	1.973863e+13	0.000000e+00	7.100000e-01	2.971775e+14	3.929283e+14	8.064939e+13	1.015728e+04	4.940051e+03	3.862365e+03	0	8.285908e-04
7.300000e+08	1.950414e+13	0.000000e+00	7.100000e-01	2.941986e+14	3.924071e+14	8.026503e+13	1.013726e+04	4.938925e+03	3.861484e+03	0	8.252966e-04
7.400000e+08	1.927311e+13	0.000000e+00	7.100000e-01	2.912632e+14	3.917897e+14	7.988335e+13	1.011743e+04	4.937590e+03	3.860440e+03	0	8.220250e-04
7.500000e+08	1.904550e+13	0.000000e+00	7.100000e-01	2.883706e+14	3.910812e+14	7.950433e+13	1.009781e+04	4.936055e+03	3.859241e+03	0	8.187762e-04
7.600000e+08	1.882125e+13	0.000000e+00	7.100000e-01	2.855202e+14	3.902868e+14	7.912795e+13	1.007838e+04	4.934332e+03	3.857893e+03	0	8.155500e-04
7.700000e+08	1.860032e+13	0.000000e+00	7.100000e-01	2.827116e+14	3.894112e+14	7.875418e+13	1.005913e+04	4.932430e+03	3.856406e+03	0	8.123464e-04
7.800000e+08	1.838267e+13	0.000000e+00	7.100000e-01	2.799439e+14	3.884590e+14	7.838302e+13	1.004008e+04	4.930359e+03	3.854787e+03	0	8.091653e-04
7.900000e+08	1.816823e+13	0.000000e+00	7.100000e-01	2.772168e+14	3.874348e+14	7.801443e+13	1.002121e+04	4.928126e+03	3.853041e+03	0	8.060067e-04
8.000000e+08	1.795697e+13	0.000000e+00	7.100000e-01	2.745294e+14	3.863428e+14	7.764840e+13	1.000253e+04	4.925740e+03	3.851176e+03	0	8.028704e-04
8.100000e+08	1.774883e+13	0.000000e+00	7.100000e-01	2.718813e+14	3.851871e+14	7.728491e+13	9.984029e+03	4.923210e+03	3.849198e+03	0	7.997563e-04
8.200000e+08	1.754376e+13	0.000000e+00	7.100000e-01	2.692717e+14	3.839717e+14	7.692393e+13	9.965704e+03	4.920544e+03	3.847113e+03	0	7.966643e-04
8.300000e+08	1.734173e+13	0.000000e+00	7.100000e-01	2.667001e+14	3.827006e+14	7.656545e+13	9.947554e+03	4.917748e+03	3.844927e+03	0	7.935943e-04
8.400000e+08	1.714267e+13	0.000000e+00	7.100000e-01	2.641660e+14	3.813770e+14	7.620944e+13	9.929577e+03	4.914830e+03	3.842646e+03	0	7.905461e-04
8.500000e+08	1.694653e+13	0.000000e+00	7.100000e-01	2.616686e+14	3.800047e+14	7.585589e+13	9.911770e+03	4.911796e+03	3.840274e+03	0	7.875196e-04
8.600000e+08	1.675329e+13	0.000000e+00	7.100000e-01	2.592073e+14	3.785869e+14	7.550478e+13	9.894132e+03	4.908654e+03	3.837817e+03	0	7.845147e-04
8.700000e+08	1.656287e+13	0.000000e+00	7.100000e-01	2.567817e+14	3.771268e+14	7.515608e+13	9.876658e+03	4.905409e+03	3.835279e+03	0	7.815312e-04
8.800000e+08	1.637524e+13	0.000000e+00	7.100000e-01	2.543911e+14	3.756275e+14	7.480979e+13	9.859348e+03	4.902066e+03	3.832666e+03	0	7.785688e-04
8.900000e+08	1.619036e+13	0.000000e+00	7.100000e-01	2.520348e+14	3.740918e+14	7.446587e+13	9.842198e+03	4.898633e+03	3.829982e+03	0	7.756275e-04
9.000000e+08	1.600816e+13	0.000000e+00	7.100000e-01	2.497125e+14	3.725225e+14	7.412431e+13	9.825206e+03	4.895114e+03	3.827230e+03	0	7.727071e-04
9.100000e+08	1.582862e+13	0.000000e+00	7.100000e-01	2.474233e+14	3.709222e+14	7.378509e+13	9.808371e+03	4.891513e+03	3.824416e+03	0	7.698074e-04
9.200000e+08	1.565168e+13	0.000000e+00	7.100000e-01	2.451669e+14	3.692935e+14	7.344820e+13	9.791689e+03	4.887838e+03	3.821542e+03	0	7.669283e-04
9.300000e+08	1.547730e+13	0.000000e+00	7.100000e-01	2.429426e+14	3.676385e+14	7.311361e+13	9.775160e+03	4.884090e+03	3.818612e+03	0	7.640694e-04
9.400000e+08	1.530543e+13	0.000000e+00	7.100000e-01	2.407500e+14	3.659598e+14	7.278131e+13	9.758779e+03	4.880276e+03	3.815630e+03	0	7.612307e-04
9.500000e+08	1.513604e+13	0.000000e+00	7.100000e-01	2.385884e+14	3.642592e+14	7.245128e+13	9.742546e+03	4.876400e+03	3.812599e+03	0	7.584120e-04
9.600000e+08	1.496908e+13	0.000000e+00	7.100000e-01	2.364573e+14	3.625390e+14	7.212349e+13	9.726459e+03	4.872465e+03	3.809523e+03	0	7.556130e-04
9.700000e+08	1.480450e+13	0.000000e+00	7.100000e-01	2.343562e+14	3.608011e+14	7.179794e+13	9.710514e+03	4.868476e+03	3.806404e+03	0	7.528337e-04
9.800000e+08	1.464227e+13	0.000000e+00	7.100000e-01	2.322846e+14	3.590473e+14	7.147461e+13	9.694711e+03	4.864435e+03	3.803245e+03	0	7.500737e-04
9.900000e+08	1.448235e+13	0.000000e+00	7.100000e-01	2.302420e+14	3.572793e+14	7.115347e+13	9.679047e+03	4.860348e+03	3.800049e+03	0	7.473329e-04
1.000000e+09	1.432469e+13	0.000000e+00	7.100000e-01	2.282278e+14	3.554987e+14	7.083451e+13	9.663521e+03	4.856216e+03	3.796818e+03	0	7.446112e-04
1.010000e+09	1.416926e+13	0.000000e+00	7.100000e-01	2.262417e+14	3.537072e+14	7.051772e+13	9.648130e+03	4.852043e+03	3.793556e+03	0	7.419082e-04
1.020000e+09	1.401602e+13	0.000000e+00	7.100000e-01	2.242830e+14	3.519061e+14	7.020307e+13	9.632872e+03	4.847832e+03	3.790264e+03	0	7.392239e-04
1.030000e+09	1.386493e+13	0.000000e+00	7.100000e-01	2.223514e+14	3.500969e+14	6.989055e+13	9.617746e+03	4.843587e+03	3.786944e+03	0	7.365580e-04
1.040000e+09	1.371594e+13	0.000000e+00	7.100000e-01	2.204463e+14	3.482809e+14	6.958014e+13	9.602750e+03	4.839309e+03	3.783600e+03	0	7.339103e-04
1.050000e+09	1.356904e+13	0.000000e+00	7.100000e-01	2.185673e+14	3.464594e+14	6.927183e+13	9.587882e+03	4.835001e+03	3.780232e+03	0	7.312807e-04
1.060000e+09	1.342417e+13	0.000000e+00	7.100000e-01	2.167139e+14	3.446335e+14	6.896560e+13	9.573141e+03	4.830667e+03	3.776843e+03	0	7.286689e-04
1.070000e+09	1.328130e+13	0.000000e+00	7.100000e-01	2.148857e+14	3.428043e+14	6.866143e+13	9.558524e+03	4.826307e+03	3.773434e+03	0	7.260748e-04
1.080000e+09	1.314041e+13	0.000000e+00	7.100000e-01	2.130823e+14	3.409729e+14	6.835931e+13	9.544030e+03	4.821925e+03	3.770008e+03	0	7.234981e-04
1.090000e+09	1.300145e+13	0.000000e+00	7.100000e-01	2.113033e+14	3.391402e+14	6.805921e+13	9.529658e+03	4.817523e+03	3.766566e+03	0	7.209387e-04
1.100000e+09	1.286438e+13	0.000000e+00	7.100000e-01	2.095481e+14	3.373072e+14	6.776114e+13	9.515405e+03	4.813102e+03	3.763110e+03	0	7.183963e-04
1.110000e+09	1.272919e+13	0.000000e+00	7.100000e-01	2.078164e+14	3.354747e+14	6.746506e+13	9.501270e+03	4.808665e+03	3.759641e+03	0	7.158709e-04
1.120000e+09	1.259583e+13	0.000000e+00	7.100000e-01	2.061079e+14	3.336436e+14	6.717097e+13	9.487251e+03	4.804213e+03	3.756160e+03	0	7.133622e-04
1.130000e+09	1.246428e+13	0.000000e+00	7.100000e-01	2.044220e+14	3.318146e+14	6.687884e+13	9.473348e+03	4.799748e+03	3.752669e+03	0	7.108699e-04
1.140000e+09	1.233450e+13	0.000000e+00	7.100000e-01	2.027584e+14	3.299884e+14	6.658867e+13	9.459558e+03	4.795272e+03	3.749170e+03	0	7.083940e-04
1.150000e+09	1.220646e+13	0.000000e+00	7.100000e-01	2.011168e+14	3.281659e+14	6.630043e+13	9.445880e+03	4.790787e+03	3.745663e+03	0	7.059343e-04
1.160000e+09	1.208013e+13	0.000000e+00	7.100000e-01	1.994967e+14	3.263474e+14	6.601412e+13	9.432312e+03	4.786293e+03	3.742149e+03	0	7.034905e-04
1.170000e+09	1.195548e+13	0.000000e+00	7.100000e-01	1.978978e+14	3.245337e+14	6.572972e+13	9.418854e+03	4.781793e+03	3.738631e+03	0	7.010626e-04
1.180000e+09	1.183249e+13	0.000000e+00	7.100000e-01	1.963197e+14	3.227254e+14	6.544720e+13	9.405502e+03	4.777287e+03	3.735108e+03	0	6.986502e-04
1.190000e+09	1.171112e+13	0.000000e+00	7.100000e-01	1.947621e+14	3.209229e+14	6.516657e+13	9.392258e+03	4.772777e+03	3.731582e+03	0	6.962532e-04
1.200000e+09	1.159135e+13	0.000000e+00	7.100000e-01	1.932246e+14	3.191266e+14	6.488780e+13	9.379117e+03	4.768264e+03	3.728054e+03	0	6.938715e-04
1.210000e+09	1.147315e+13	0.000000e+00	7.100000e-01	1.917069e+14	3.173371e+14	6.461087e+13	9.366081e+03	4.763750e+03	3.724524e+03	0	6.915049e-04
1.220000e+09	1.135649e+13	0.000000e+00	7.100000e-01	1.902086e+14	3.155549e+14	6.433579e+13	9.353146e+03	4.759235e+03	3.720994e+03	0	6.891532e-04
1.230000e+09	1.124135e+13	0.000000e+00	7.100000e-01	1.887294e+14	3.137802e+14	6.406252e+13	9.340313e+03	4.754721e+03	3.717465e+03	0	6.868163e-04
1.240000e+09	1.112770e+13	0.000000e+00	7.100000e-01	1.872691e+14	3.120135e+14	6.379106e+13	9.327578e+03	4.750208e+03	3.713936e+03	0	6.844939e-04
1.250000e+09	1.101552e+13	0.000000e+00	7.100000e-01	1.858272e+14	3.102551e+14	6.352139e+13	9.314942e+03	4.745697e+03	3.710410e+03	0	6.821859e-04
1.260000e+09	1.090477e+13	0.000000e+00	7.100000e-01	1.844035e+14	3.085052e+14	6.325349e+13	9.302404e+03	4.741190e+03	3.706885e+03	0	6.798921e-04
1.270000e+09	1.079545e+13	0.000000e+00	7.100000e-01	1.829976e+14	3.067642e+14	6.298737e+13	9.289961e+03	4.736686e+03	3.703365e+03	0	6.776124e-04
1.280000e+09	1.068752e+13	0.000000e+00	7.100000e-01	1.816093e+14	3.050324e+14	6.272299e+13	9.277612e+03	4.732188e+03	3.699847e+03	0	6.753466e-04
1.290000e+09	1.058096e+13	0.000000e+00	7.100000e-01	1.802383e+14	3.033100e+14	6.246035e+13	9.265357e+03	4.727695e+03	3.696335e+03	0	6.730946e-04
1.300000e+09	1.047574e+13	0.000000e+00	7.100000e-01	1.788843e+14	3.015972e+14	6.219943e+13	9.253195e+03	4.723209e+03	3.692827e+03	0	6.708561e-04
1.310000e+09	1.037186e+13	0.000000e+00	7.100000e-01	1.775470e+14	2.998942e+14	6.194023e+13	9.241123e+03	4.718729e+03	3.689325e+03	0	6.686311e-04
1.320000e+09	1.026927e+13	0.000000e+00	7.100000e-01	1.762261e+14	2.982012e+14	6.168272e+13	9.229141e+03	4.714258e+03	3.685829e+03	0	6.664194e-04
1.330000e+09	1.016797e+13	0.000000e+00	7.100000e-01	1.749214e+14	2.965186e+14	6.142690e+13	9.217249e+03	4.709794e+03	3.682339e+03	0	6.642208e-04
1.340000e+09	1.006792e+13	0.000000e+00	7.100000e-01	1.736326e+14	2.948461e+14	6.117275e+13	9.205444e+03	4.705339e+03	3.678856e+03	0	6.620351e-04
1.350000e+09	9.969118e+12	0.000000e+00	7.100000e-01	1.723594e+14	2.931843e+14	6.092025e+13	9.193726e+03	4.700894e+03	3.675381e+03	0	6.598623e-04
1.360000e+09	9.871533e+12	0.000000e+00	7.100000e-01	1.711016e+14	2.915329e+14	6.066941e+13	9.182094e+03	4.696459e+03	3.671913e+03	0	6.577022e-04
