#t		Qconv[W]	Ri[Rp]		R*[Rp]		Qc[W]		Qm[W]		Qr[W]		Tcmb[K]		Tl[K]		Tup[K]		RiFlag		Bs[T]
0.000000e+00	2.914900e+15	0.000000e+00	7.029703e-01	3.388350e+16	3.999244e+13	1.325301e+14	3.463247e+04	4.387955e+03	2.712089e+03	0	4.350955e-03
1.000000e+07	2.537799e+15	0.000000e+00	7.029703e-01	2.951718e+16	6.682073e+14	1.317958e+14	3.274509e+04	6.851815e+03	4.234941e+03	0	4.154599e-03
2.000000e+07	2.169314e+15	0.000000e+00	7.029703e-01	2.525187e+16	2.623805e+15	1.310670e+14	3.108907e+04	8.906026e+03	5.504600e+03	0	3.942916e-03
3.000000e+07	1.842320e+15	0.000000e+00	7.029703e-01	2.146711e+16	5.622695e+15	1.303436e+14	2.966347e+04	1.046463e+04	6.467933e+03	0	3.733920e-03
4.000000e+07	1.573822e+15	0.000000e+00	7.029703e-01	1.835910e+16	8.649472e+15	1.296257e+14	2.844511e+04	1.152158e+04	7.121209e+03	0	3.542924e-03
5.000000e+07	1.363232e+15	0.000000e+00	7.029703e-01	1.592081e+16	1.091585e+16	1.289130e+14	2.739853e+04	1.215550e+04	7.513018e+03	0	3.377276e-03
6.000000e+07	1.199963e+15	0.000000e+00	7.029703e-01	1.402976e+16	1.222172e+16	1.282057e+14	2.648760e+04	1.248076e+04	7.714058e+03	0	3.236677e-03
7.000000e+07	1.071731e+15	0.000000e+00	7.029703e-01	1.254391e+16	1.273603e+16	1.275037e+14	2.568239e+04	1.260240e+04	7.789237e+03	0	3.117013e-03
8.000000e+07	9.685241e+14	0.000000e+00	7.029703e-01	1.134756e+16	1.271858e+16	1.268069e+14	2.496053e+04	1.259832e+04	7.786719e+03	0	3.013562e-03
9.000000e+07	8.832531e+14	0.000000e+00	7.029703e-01	1.035873e+16	1.238711e+16	1.261152e+14	2.430599e+04	1.252025e+04	7.738463e+03	0	2.922391e-03
1.000000e+08	8.111519e+14	0.000000e+00	7.029703e-01	9.522314e+15	1.189024e+16	1.254287e+14	2.370724e+04	1.240052e+04	7.664461e+03	0	2.840604e-03
1.100000e+08	7.490386e+14	0.000000e+00	7.029703e-01	8.801531e+15	1.131971e+16	1.247473e+14	2.315580e+04	1.225878e+04	7.576857e+03	0	2.766165e-03
1.200000e+08	6.947496e+14	0.000000e+00	7.029703e-01	8.171354e+15	1.072885e+16	1.240710e+14	2.264522e+04	1.210679e+04	7.482912e+03	0	2.697653e-03
1.300000e+08	6.467682e+14	0.000000e+00	7.029703e-01	7.614238e+15	1.014714e+16	1.233996e+14	2.217043e+04	1.195149e+04	7.386925e+03	0	2.634063e-03
1.400000e+08	6.039932e+14	0.000000e+00	7.029703e-01	7.117444e+15	9.590006e+15	1.227332e+14	2.172736e+04	1.179696e+04	7.291414e+03	0	2.574665e-03
1.500000e+08	5.655973e+14	0.000000e+00	7.029703e-01	6.671396e+15	9.064640e+15	1.220718e+14	2.131263e+04	1.164553e+04	7.197822e+03	0	2.518909e-03
1.600000e+08	5.309396e+14	0.000000e+00	7.029703e-01	6.268675e+15	8.573643e+15	1.214152e+14	2.092337e+04	1.149850e+04	7.106947e+03	0	2.466371e-03
1.700000e+08	4.995102e+14	0.000000e+00	7.029703e-01	5.903380e+15	8.117067e+15	1.207635e+14	2.055718e+04	1.135653e+04	7.019195e+03	0	2.416711e-03
1.800000e+08	4.708946e+14	0.000000e+00	7.029703e-01	5.570711e+15	7.693605e+15	1.201166e+14	2.021192e+04	1.121988e+04	6.934735e+03	0	2.369652e-03
1.900000e+08	4.447502e+14	0.000000e+00	7.029703e-01	5.266699e+15	7.301276e+15	1.194744e+14	1.988577e+04	1.108860e+04	6.853597e+03	0	2.324959e-03
2.000000e+08	4.207893e+14	0.000000e+00	7.029703e-01	4.988013e+15	6.937844e+15	1.188370e+14	1.957710e+04	1.096261e+04	6.775722e+03	0	2.282434e-03
2.100000e+08	3.987680e+14	0.000000e+00	7.029703e-01	4.731826e+15	6.601016e+15	1.182042e+14	1.928449e+04	1.084172e+04	6.701007e+03	0	2.241903e-03
2.200000e+08	3.784773e+14	0.000000e+00	7.029703e-01	4.495719e+15	6.288570e+15	1.175761e+14	1.900665e+04	1.072574e+04	6.629321e+03	0	2.203214e-03
2.300000e+08	3.597369e+14	0.000000e+00	7.029703e-01	4.277600e+15	5.998419e+15	1.169526e+14	1.874244e+04	1.061442e+04	6.560520e+03	0	2.166232e-03
2.400000e+08	3.423900e+14	0.000000e+00	7.029703e-01	4.075655e+15	5.728623e+15	1.163337e+14	1.849085e+04	1.050754e+04	6.494457e+03	0	2.130838e-03
2.500000e+08	3.263000e+14	0.000000e+00	7.029703e-01	3.888297e+15	5.477407e+15	1.157193e+14	1.825094e+04	1.040485e+04	6.430987e+03	0	2.096922e-03
2.600000e+08	3.113465e+14	0.000000e+00	7.029703e-01	3.714134e+15	5.243168e+15	1.151095e+14	1.802189e+04	1.030613e+04	6.369969e+03	0	2.064388e-03
2.700000e+08	2.974239e+14	0.000000e+00	7.029703e-01	3.551939e+15	5.024439e+15	1.145040e+14	1.780295e+04	1.021115e+04	6.311267e+03	0	2.033146e-03
2.800000e+08	2.844385e+14	0.000000e+00	7.029703e-01	3.400627e+15	4.819909e+15	1.139030e+14	1.759343e+04	1.011972e+04	6.254752e+03	0	2.003116e-03
2.900000e+08	2.723070e+14	0.000000e+00	7.029703e-01	3.259233e+15	4.628380e+15	1.133064e+14	1.739270e+04	1.003163e+04	6.200306e+03	0	1.974223e-03
3.000000e+08	2.609556e+14	0.000000e+00	7.029703e-01	3.126899e+15	4.448784e+15	1.127141e+14	1.720020e+04	9.946696e+03	6.147813e+03	0	1.946400e-03
3.100000e+08	2.503180e+14	0.000000e+00	7.029703e-01	3.002858e+15	4.280146e+15	1.121262e+14	1.701541e+04	9.864756e+03	6.097168e+03	0	1.919585e-03
3.200000e+08	2.403350e+14	0.000000e+00	7.029703e-01	2.886422e+15	4.121593e+15	1.115425e+14	1.683785e+04	9.785645e+03	6.048271e+03	0	1.893720e-03
3.300000e+08	2.309534e+14	0.000000e+00	7.029703e-01	2.776975e+15	3.972332e+15	1.109631e+14	1.666708e+04	9.709212e+03	6.001030e+03	0	1.868751e-03
3.400000e+08	2.221254e+14	0.000000e+00	7.029703e-01	2.673962e+15	3.831643e+15	1.103879e+14	1.650270e+04	9.635319e+03	5.955358e+03	0	1.844631e-03
3.500000e+08	2.138078e+14	0.000000e+00	7.029703e-01	2.576881e+15	3.698877e+15	1.098168e+14	1.634434e+04	9.563833e+03	5.911174e+03	0	1.821313e-03
3.600000e+08	2.059615e+14	0.000000e+00	7.029703e-01	2.485280e+15	3.573443e+15	1.092499e+14	1.619166e+04	9.494632e+03	5.868403e+03	0	1.798755e-03
3.700000e+08	1.985512e+14	0.000000e+00	7.029703e-01	2.398748e+15	3.454802e+15	1.086871e+14	1.604433e+04	9.427603e+03	5.826974e+03	0	1.776919e-03
3.800000e+08	1.915449e+14	0.000000e+00	7.029703e-01	2.316913e+15	3.342467e+15	1.081284e+14	1.590208e+04	9.362638e+03	5.786821e+03	0	1.755767e-03
3.900000e+08	1.849133e+14	0.000000e+00	7.029703e-01	2.239437e+15	3.235989e+15	1.075737e+14	1.576462e+04	9.299638e+03	5.747882e+03	0	1.735266e-03
4.000000e+08	1.786298e+14	0.000000e+00	7.029703e-01	2.166010e+15	3.134963e+15	1.070230e+14	1.563170e+04	9.238508e+03	5.710099e+03	0	1.715384e-03
4.100000e+08	1.726702e+14	0.000000e+00	7.029703e-01	2.096351e+15	3.039014e+15	1.064763e+14	1.550309e+04	9.179161e+03	5.673418e+03	0	1.696091e-03
4.200000e+08	1.670123e+14	0.000000e+00	7.029703e-01	2.030202e+15	2.947802e+15	1.059335e+14	1.537856e+04	9.121514e+03	5.637788e+03	0	1.677359e-03
4.300000e+08	1.616358e+14	0.000000e+00	7.029703e-01	1.967328e+15	2.861013e+15	1.053946e+14	1.525793e+04	9.065491e+03	5.603161e+03	0	1.659164e-03
4.400000e+08	1.565221e+14	0.000000e+00	7.029703e-01	1.907513e+15	2.778361e+15	1.048596e+14	1.514099e+04	9.011018e+03	5.569493e+03	0	1.641479e-03
4.500000e+08	1.516541e+14	0.000000e+00	7.029703e-01	1.850557e+15	2.699579e+15	1.043285e+14	1.502756e+04	8.958028e+03	5.536741e+03	0	1.624282e-03
4.600000e+08	1.470161e+14	0.000000e+00	7.029703e-01	1.796279e+15	2.624425e+15	1.038011e+14	1.491749e+04	8.906455e+03	5.504865e+03	0	1.607552e-03
4.700000e+08	1.425935e+14	0.000000e+00	7.029703e-01	1.744510e+15	2.552674e+15	1.032776e+14	1.481061e+04	8.856241e+03	5.473829e+03	0	1.591268e-03
4.800000e+08	1.383731e+14	0.000000e+00	7.029703e-01	1.695095e+15	2.484119e+15	1.027578e+14	1.470678e+04	8.807326e+03	5.443596e+03	0	1.575411e-03
4.900000e+08	1.343425e+14	0.000000e+00	7.029703e-01	1.647891e+15	2.418568e+15	1.022417e+14	1.460586e+04	8.759658e+03	5.414133e+03	0	1.559964e-03
5.000000e+08	1.304904e+14	0.000000e+00	7.029703e-01	1.602765e+15	2.355842e+15	1.017293e+14	1.450772e+04	8.713186e+03	5.385410e+03	0	1.544909e-03
5.100000e+08	1.268061e+14	0.000000e+00	7.029703e-01	1.559596e+15	2.295778e+15	1.012206e+14	1.441224e+04	8.667861e+03	5.357396e+03	0	1.530230e-03
5.200000e+08	1.232799e+14	0.000000e+00	7.029703e-01	1.518268e+15	2.238223e+15	1.007155e+14	1.431931e+04	8.623638e+03	5.330062e+03	0	1.515912e-03
5.300000e+08	1.199027e+14	0.000000e+00	7.029703e-01	1.478677e+15	2.183035e+15	1.002140e+14	1.422882e+04	8.580474e+03	5.303384e+03	0	1.501941e-03
5.400000e+08	1.166661e+14	0.000000e+00	7.029703e-01	1.440724e+15	2.130083e+15	9.971608e+13	1.414067e+04	8.538328e+03	5.277335e+03	0	1.488304e-03
5.500000e+08	1.135623e+14	0.000000e+00	7.029703e-01	1.404319e+15	2.079244e+15	9.922170e+13	1.405475e+04	8.497162e+03	5.251891e+03	0	1.474986e-03
5.600000e+08	1.105839e+14	0.000000e+00	7.029703e-01	1.369377e+15	2.030404e+15	9.873084e+13	1.397099e+04	8.456939e+03	5.227030e+03	0	1.461977e-03
5.700000e+08	1.077242e+14	0.000000e+00	7.029703e-01	1.335819e+15	1.983456e+15	9.824346e+13	1.388930e+04	8.417623e+03	5.202730e+03	0	1.449265e-03
5.800000e+08	1.049768e+14	0.000000e+00	7.029703e-01	1.303571e+15	1.938299e+15	9.775954e+13	1.380958e+04	8.379182e+03	5.178970e+03	0	1.436838e-03
5.900000e+08	1.023359e+14	0.000000e+00	7.029703e-01	1.272564e+15	1.894844e+15	9.727905e+13	1.373178e+04	8.341585e+03	5.155733e+03	0	1.424686e-03
6.000000e+08	9.979580e+13	0.000000e+00	7.029703e-01	1.242734e+15	1.853000e+15	9.680196e+13	1.365581e+04	8.304801e+03	5.132997e+03	0	1.412800e-03
6.100000e+08	9.735143e+13	0.000000e+00	7.029703e-01	1.214020e+15	1.812687e+15	9.632824e+13	1.358161e+04	8.268803e+03	5.110747e+03	0	1.401170e-03
6.200000e+08	9.499792e+13	0.000000e+00	7.029703e-01	1.186367e+15	1.773831e+15	9.585788e+13	1.350910e+04	8.233562e+03	5.088966e+03	0	1.389786e-03
6.300000e+08	9.273074e+13	0.000000e+00	7.029703e-01	1.159722e+15	1.736356e+15	9.539083e+13	1.343824e+04	8.199052e+03	5.067636e+03	0	1.378641e-03
6.400000e+08	9.054563e+13	0.000000e+00	7.029703e-01	1.134034e+15	1.700199e+15	9.492708e+13	1.336895e+04	8.165251e+03	5.046744e+03	0	1.367726e-03
6.500000e+08	8.843859e+13	0.000000e+00	7.029703e-01	1.109258e+15	1.665295e+15	9.446659e+13	1.330118e+04	8.132133e+03	5.026275e+03	0	1.357034e-03
6.600000e+08	8.640588e+13	0.000000e+00	7.029703e-01	1.085350e+15	1.631584e+15	9.400934e+13	1.323489e+04	8.099676e+03	5.006214e+03	0	1.346556e-03
6.700000e+08	8.444396e+13	0.000000e+00	7.029703e-01	1.062269e+15	1.599013e+15	9.355531e+13	1.317001e+04	8.067859e+03	4.986549e+03	0	1.336286e-03
6.800000e+08	8.254951e+13	0.000000e+00	7.029703e-01	1.039975e+15	1.567526e+15	9.310447e+13	1.310650e+04	8.036661e+03	4.967266e+03	0	1.326218e-03
6.900000e+08	8.071940e+13	0.000000e+00	7.029703e-01	1.018434e+15	1.537076e+15	9.265679e+13	1.304431e+04	8.006063e+03	4.948354e+03	0	1.316344e-03
7.000000e+08	7.895071e+13	0.000000e+00	7.029703e-01	9.976092e+14	1.507615e+15	9.221225e+13	1.298340e+04	7.976045e+03	4.929801e+03	0	1.306658e-03
7.100000e+08	7.724063e+13	0.000000e+00	7.029703e-01	9.774700e+14	1.479100e+15	9.177082e+13	1.292373e+04	7.946590e+03	4.911596e+03	0	1.297155e-03
7.200000e+08	7.558657e+13	0.000000e+00	7.029703e-01	9.579853e+14	1.451490e+15	9.133248e+13	1.286525e+04	7.917681e+03	4.893728e+03	0	1.287829e-03
7.300000e+08	7.398603e+13	0.000000e+00	7.029703e-01	9.391263e+14	1.424744e+15	9.089720e+13	1.280793e+04	7.889301e+03	4.876187e+03	0	1.278674e-03
7.400000e+08	7.243669e+13	0.000000e+00	7.029703e-01	9.208658e+14	1.398825e+15	9.046496e+13	1.275173e+04	7.861434e+03	4.858963e+03	0	1.269686e-03
7.500000e+08	7.093634e+13	0.000000e+00	7.029703e-01	9.031781e+14	1.373699e+15	9.003573e+13	1.269661e+04	7.834066e+03	4.842047e+03	0	1.260858e-03
7.600000e+08	6.948288e+13	0.000000e+00	7.029703e-01	8.860387e+14	1.349332e+15	8.960949e+13	1.264255e+04	7.807180e+03	4.825430e+03	0	1.252187e-03
7.700000e+08	6.807433e+13	0.000000e+00	7.029703e-01	8.694247e+14	1.325694e+15	8.918622e+13	1.258950e+04	7.780764e+03	4.809103e+03	0	1.243668e-03
7.800000e+08	6.670882e+13	0.000000e+00	7.029703e-01	8.533141e+14	1.302753e+15	8.876589e+13	1.253744e+04	7.754804e+03	4.793058e+03	0	1.235296e-03
7.900000e+08	6.538457e+13	0.000000e+00	7.029703e-01	8.376862e+14	1.280481e+15	8.834848e+13	1.248634e+04	7.729288e+03	4.777286e+03	0	1.227067e-03
8.000000e+08	6.409990e+13	0.000000e+00	7.029703e-01	8.225215e+14	1.258852e+15	8.793396e+13	1.243617e+04	7.704202e+03	4.761781e+03	0	1.218978e-03
8.100000e+08	6.285321e+13	0.000000e+00	7.029703e-01	8.078011e+14	1.237840e+15	8.752232e+13	1.238690e+04	7.679534e+03	4.746535e+03	0	1.211023e-03
8.200000e+08	6.164298e+13	0.000000e+00	7.029703e-01	7.935076e+14	1.217422e+15	8.711353e+13	1.233851e+04	7.655274e+03	4.731540e+03	0	1.203200e-03
8.300000e+08	6.046776e+13	0.000000e+00	7.029703e-01	7.796239e+14	1.197573e+15	8.670756e+13	1.229097e+04	7.631410e+03	4.716790e+03	0	1.195505e-03
8.400000e+08	5.932619e+13	0.000000e+00	7.029703e-01	7.661342e+14	1.178272e+15	8.630439e+13	1.224425e+04	7.607932e+03	4.702279e+03	0	1.187934e-03
8.500000e+08	5.821695e+13	0.000000e+00	7.029703e-01	7.530232e+14	1.159499e+15	8.590401e+13	1.219834e+04	7.584828e+03	4.687999e+03	0	1.180483e-03
8.600000e+08	5.713882e+13	0.000000e+00	7.029703e-01	7.402764e+14	1.141232e+15	8.550639e+13	1.215321e+04	7.562090e+03	4.673946e+03	0	1.173151e-03
8.700000e+08	5.609061e+13	0.000000e+00	7.029703e-01	7.278801e+14	1.123454e+15	8.511151e+13	1.210884e+04	7.539708e+03	4.660112e+03	0	1.165932e-03
8.800000e+08	5.507120e+13	0.000000e+00	7.029703e-01	7.158212e+14	1.106146e+15	8.471934e+13	1.206520e+04	7.517673e+03	4.646492e+03	0	1.158826e-03
8.900000e+08	5.407951e+13	0.000000e+00	7.029703e-01	7.040871e+14	1.089292e+15	8.432986e+13	1.202229e+04	7.495975e+03	4.633081e+03	0	1.151828e-03
9.000000e+08	5.311452e+13	0.000000e+00	7.029703e-01	6.926659e+14	1.072874e+15	8.394306e+13	1.198007e+04	7.474607e+03	4.619874e+03	0	1.144936e-03
9.100000e+08	5.217525e+13	0.000000e+00	7.029703e-01	6.815463e+14	1.056878e+15	8.355891e+13	1.193853e+04	7.453559e+03	4.606865e+03	0	1.138147e-03
9.200000e+08	5.126079e+13	0.000000e+00	7.029703e-01	6.707173e+14	1.041287e+15	8.317739e+13	1.189766e+04	7.432825e+03	4.594050e+03	0	1.131458e-03
9.300000e+08	5.037023e+13	0.000000e+00	7.029703e-01	6.601687e+14	1.026088e+15	8.279848e+13	1.185743e+04	7.412396e+03	4.581423e+03	0	1.124867e-03
9.400000e+08	4.950273e+13	0.000000e+00	7.029703e-01	6.498905e+14	1.011268e+15	8.242216e+13	1.181784e+04	7.392264e+03	4.568980e+03	0	1.118372e-03
9.500000e+08	4.865749e+13	0.000000e+00	7.029703e-01	6.398733e+14	9.968133e+14	8.204841e+13	1.177885e+04	7.372423e+03	4.556717e+03	0	1.111970e-03
9.600000e+08	4.783372e+13	0.000000e+00	7.029703e-01	6.301079e+14	9.827110e+14	8.167721e+13	1.174046e+04	7.352866e+03	4.544629e+03	0	1.105659e-03
9.700000e+08	4.703068e+13	0.000000e+00	7.029703e-01	6.205858e+14	9.689495e+14	8.130853e+13	1.170266e+04	7.333586e+03	4.532712e+03	0	1.099437e-03
9.800000e+08	4.624767e+13	0.000000e+00	7.029703e-01	6.112988e+14	9.555175e+14	8.094237e+13	1.166542e+04	7.314576e+03	4.520963e+03	0	1.093302e-03
9.900000e+08	4.548402e+13	0.000000e+00	7.029703e-01	6.022387e+14	9.424041e+14	8.057869e+13	1.162873e+04	7.295830e+03	4.509377e+03	0	1.087250e-03
1.000000e+09	4.473906e+13	0.000000e+00	7.029703e-01	5.933982e+14	9.295984e+14	8.021748e+13	1.159259e+04	7.277342e+03	4.497950e+03	0	1.081282e-03
1.010000e+09	4.401217e+13	0.000000e+00	7.029703e-01	5.847698e+14	9.170909e+14	7.985872e+13	1.155698e+04	7.259107e+03	4.486679e+03	0	1.075394e-03
1.020000e+09	4.330277e+13	0.000000e+00	7.029703e-01	5.763467e+14	9.048719e+14	7.950240e+13	1.152188e+04	7.241117e+03	4.475560e+03	0	1.069585e-03
1.030000e+09	4.261028e+13	0.000000e+00	7.029703e-01	5.681222e+14	8.929317e+14	7.914848e+13	1.148728e+04	7.223369e+03	4.464590e+03	0	1.063853e-03
1.040000e+09	4.193415e+13	0.000000e+00	7.029703e-01	5.600898e+14	8.812620e+14	7.879695e+13	1.145317e+04	7.205856e+03	4.453766e+03	0	1.058196e-03
1.050000e+09	4.127386e+13	0.000000e+00	7.029703e-01	5.522435e+14	8.698538e+14	7.844780e+13	1.141954e+04	7.188573e+03	4.443084e+03	0	1.052612e-03
1.060000e+09	4.062890e+13	0.000000e+00	7.029703e-01	5.445773e+14	8.586995e+14	7.810101e+13	1.138639e+04	7.171515e+03	4.432541e+03	0	1.047100e-03
1.070000e+09	3.999878e+13	0.000000e+00	7.029703e-01	5.370855e+14	8.477905e+14	7.775655e+13	1.135369e+04	7.154678e+03	4.422134e+03	0	1.041659e-03
1.080000e+09	3.938305e+13	0.000000e+00	7.029703e-01	5.297627e+14	8.371200e+14	7.741440e+13	1.132143e+04	7.138056e+03	4.411860e+03	0	1.036286e-03
1.090000e+09	3.878126e+13	0.000000e+00	7.029703e-01	5.226038e+14	8.266804e+14	7.707456e+13	1.128962e+04	7.121645e+03	4.401717e+03	0	1.030981e-03
1.100000e+09	3.819297e+13	0.000000e+00	7.029703e-01	5.156036e+14	8.164650e+14	7.673700e+13	1.125823e+04	7.105441e+03	4.391702e+03	0	1.025741e-03
1.110000e+09	3.761778e+13	0.000000e+00	7.029703e-01	5.087574e+14	8.064669e+14	7.640170e+13	1.122726e+04	7.089439e+03	4.381811e+03	0	1.020566e-03
1.120000e+09	3.705528e+13	0.000000e+00	7.029703e-01	5.020605e+14	7.966793e+14	7.606865e+13	1.119670e+04	7.073634e+03	4.372043e+03	0	1.015454e-03
1.130000e+09	3.650510e+13	0.000000e+00	7.029703e-01	4.955085e+14	7.870966e+14	7.573783e+13	1.116654e+04	7.058023e+03	4.362394e+03	0	1.010403e-03
1.140000e+09	3.596687e+13	0.000000e+00	7.029703e-01	4.890970e+14	7.777129e+14	7.540922e+13	1.113677e+04	7.042602e+03	4.352863e+03	0	1.005412e-03
1.150000e+09	3.544024e+13	0.000000e+00	7.029703e-01	4.828219e+14	7.685215e+14	7.508281e+13	1.110739e+04	7.027367e+03	4.343446e+03	0	1.000481e-03
1.160000e+09	3.492486e+13	0.000000e+00	7.029703e-01	4.766793e+14	7.595179e+14	7.475857e+13	1.107838e+04	7.012315e+03	4.334142e+03	0	9.956077e-04
1.170000e+09	3.442041e+13	0.000000e+00	7.029703e-01	4.706652e+14	7.506962e+14	7.443649e+13	1.104974e+04	6.997440e+03	4.324949e+03	0	9.907909e-04
1.180000e+09	3.392657e+13	0.000000e+00	7.029703e-01	4.647761e+14	7.420519e+14	7.411656e+13	1.102145e+04	6.982741e+03	4.315864e+03	0	9.860297e-04
1.190000e+09	3.344304e+13	0.000000e+00	7.029703e-01	4.590083e+14	7.335792e+14	7.379875e+13	1.099352e+04	6.968213e+03	4.306884e+03	0	9.813229e-04
1.200000e+09	3.296952e+13	0.000000e+00	7.029703e-01	4.533585e+14	7.252738e+14	7.348305e+13	1.096594e+04	6.953853e+03	4.298009e+03	0	9.766694e-04
1.210000e+09	3.250574e+13	0.000000e+00	7.029703e-01	4.478232e+14	7.171309e+14	7.316944e+13	1.093869e+04	6.939658e+03	4.289235e+03	0	9.720681e-04
1.220000e+09	3.205141e+13	0.000000e+00	7.029703e-01	4.423993e+14	7.091461e+14	7.285792e+13	1.091177e+04	6.925625e+03	4.280562e+03	0	9.675180e-04
1.230000e+09	3.160629e+13	0.000000e+00	7.029703e-01	4.370838e+14	7.013152e+14	7.254845e+13	1.088518e+04	6.911751e+03	4.271986e+03	0	9.630182e-04
1.240000e+09	3.117010e+13	0.000000e+00	7.029703e-01	4.318736e+14	6.936342e+14	7.224103e+13	1.085891e+04	6.898031e+03	4.263507e+03	0	9.585676e-04
1.250000e+09	3.074261e+13	0.000000e+00	7.029703e-01	4.267659e+14	6.860987e+14	7.193564e+13	1.083294e+04	6.884465e+03	4.255122e+03	0	9.541652e-04
1.260000e+09	3.032358e+13	0.000000e+00	7.029703e-01	4.217579e+14	6.787050e+14	7.163226e+13	1.080729e+04	6.871048e+03	4.246829e+03	0	9.498102e-04
1.270000e+09	2.991279e+13	0.000000e+00	7.029703e-01	4.168470e+14	6.714494e+14	7.133088e+13	1.078193e+04	6.857778e+03	4.238627e+03	0	9.455017e-04
1.280000e+09	2.951001e+13	0.000000e+00	7.029703e-01	4.120305e+14	6.643283e+14	7.103148e+13	1.075687e+04	6.844653e+03	4.230515e+03	0	9.412387e-04
1.290000e+09	2.911502e+13	0.000000e+00	7.029703e-01	4.073060e+14	6.573382e+14	7.073405e+13	1.073209e+04	6.831669e+03	4.222490e+03	0	9.370204e-04
1.300000e+09	2.872763e+13	0.000000e+00	7.029703e-01	4.026710e+14	6.504758e+14	7.043858e+13	1.070760e+04	6.818824e+03	4.214550e+03	0	9.328460e-04
1.310000e+09	2.834763e+13	0.000000e+00	7.029703e-01	3.981232e+14	6.437377e+14	7.014504e+13	1.068339e+04	6.806115e+03	4.206696e+03	0	9.287146e-04
1.320000e+09	2.797484e+13	0.000000e+00	7.029703e-01	3.936603e+14	6.371207e+14	6.985342e+13	1.065945e+04	6.793541e+03	4.198924e+03	0	9.246255e-04
1.330000e+09	2.760905e+13	0.000000e+00	7.029703e-01	3.892802e+14	6.306218e+14	6.956371e+13	1.063577e+04	6.781098e+03	4.191233e+03	0	9.205778e-04
1.340000e+09	2.725011e+13	0.000000e+00	7.029703e-01	3.849808e+14	6.242381e+14	6.927589e+13	1.061236e+04	6.768785e+03	4.183623e+03	0	9.165709e-04
1.350000e+09	2.689782e+13	0.000000e+00	7.029703e-01	3.807599e+14	6.179667e+14	6.898995e+13	1.058920e+04	6.756598e+03	4.176090e+03	0	9.126040e-04
1.360000e+09	2.655203e+13	0.000000e+00	7.029703e-01	3.766157e+14	6.118050e+14	6.870587e+13	1.056630e+04	6.744537e+03	4.168635e+03	0	9.086763e-04
