#t		Qconv[W]	Ri[Rp]		R*[Rp]		Qc[W]		Qm[W]		Qr[W]		Tcmb[K]		Tl[K]		Tup[K]		RiFlag		Bs[T]
0.000000e+00	3.257574e+15	0.000000e+00	7.029701e-01	3.619979e+16	3.823162e+13	1.426623e+14	3.593171e+04	4.476851e+03	2.752694e+03	0	4.504057e-03
1.000000e+07	2.866188e+15	0.000000e+00	7.029701e-01	3.186972e+16	6.289497e+14	1.418718e+14	3.408238e+04	6.930236e+03	4.261213e+03	0	4.315926e-03
2.000000e+07	2.476806e+15	0.000000e+00	7.029701e-01	2.756339e+16	2.519369e+15	1.410873e+14	3.244373e+04	9.008442e+03	5.539045e+03	0	4.110895e-03
3.000000e+07	2.123556e+15	0.000000e+00	7.029701e-01	2.365713e+16	5.546010e+15	1.403086e+14	3.101843e+04	1.062433e+04	6.532608e+03	0	3.905353e-03
4.000000e+07	1.826752e+15	0.000000e+00	7.029701e-01	2.037481e+16	8.766019e+15	1.395357e+14	2.978914e+04	1.175742e+04	7.229319e+03	0	3.714203e-03
5.000000e+07	1.589386e+15	0.000000e+00	7.029701e-01	1.774919e+16	1.133014e+16	1.387686e+14	2.872605e+04	1.246762e+04	7.666002e+03	0	3.545811e-03
6.000000e+07	1.402886e+15	0.000000e+00	7.029701e-01	1.568548e+16	1.293232e+16	1.380073e+14	2.779674e+04	1.285708e+04	7.905468e+03	0	3.401313e-03
7.000000e+07	1.255314e+15	0.000000e+00	7.029701e-01	1.405185e+16	1.367754e+16	1.372515e+14	2.697308e+04	1.302711e+04	8.010013e+03	0	3.277605e-03
8.000000e+07	1.136147e+15	0.000000e+00	7.029701e-01	1.273207e+16	1.381176e+16	1.365015e+14	2.623334e+04	1.305706e+04	8.028429e+03	0	3.170423e-03
9.000000e+07	1.037572e+15	0.000000e+00	7.029701e-01	1.163989e+16	1.356470e+16	1.357569e+14	2.556159e+04	1.300177e+04	7.994434e+03	0	3.075945e-03
1.000000e+08	9.541882e+14	0.000000e+00	7.029701e-01	1.071566e+16	1.310336e+16	1.350179e+14	2.494625e+04	1.289668e+04	7.929816e+03	0	2.991235e-03
1.100000e+08	8.823300e+14	0.000000e+00	7.029701e-01	9.918886e+15	1.253575e+16	1.342844e+14	2.437875e+04	1.276388e+04	7.848160e+03	0	2.914178e-03
1.200000e+08	8.194872e+14	0.000000e+00	7.029701e-01	9.221844e+15	1.192726e+16	1.335564e+14	2.385259e+04	1.261690e+04	7.757786e+03	0	2.843281e-03
1.300000e+08	7.638974e+14	0.000000e+00	7.029701e-01	8.605062e+15	1.131564e+16	1.328337e+14	2.336266e+04	1.246393e+04	7.663733e+03	0	2.777479e-03
1.400000e+08	7.142844e+14	0.000000e+00	7.029701e-01	8.054434e+15	1.072169e+16	1.321164e+14	2.290485e+04	1.230991e+04	7.569027e+03	0	2.715998e-03
1.500000e+08	6.696929e+14	0.000000e+00	7.029701e-01	7.559399e+15	1.015610e+16	1.314044e+14	2.247578e+04	1.215774e+04	7.475461e+03	0	2.658261e-03
1.600000e+08	6.293860e+14	0.000000e+00	7.029701e-01	7.111811e+15	9.623634e+15	1.306976e+14	2.207258e+04	1.200910e+04	7.384071e+03	0	2.603823e-03
1.700000e+08	5.927799e+14	0.000000e+00	7.029701e-01	6.705212e+15	9.125697e+15	1.299960e+14	2.169281e+04	1.186494e+04	7.295427e+03	0	2.552331e-03
1.800000e+08	5.594014e+14	0.000000e+00	7.029701e-01	6.334369e+15	8.661774e+15	1.292997e+14	2.133436e+04	1.172570e+04	7.209813e+03	0	2.503496e-03
1.900000e+08	5.288600e+14	0.000000e+00	7.029701e-01	5.994962e+15	8.230387e+15	1.286084e+14	2.099538e+04	1.159157e+04	7.127337e+03	0	2.457080e-03
2.000000e+08	5.008286e+14	0.000000e+00	7.029701e-01	5.683370e+15	7.829531e+15	1.279222e+14	2.067426e+04	1.146254e+04	7.048000e+03	0	2.412879e-03
2.100000e+08	4.750296e+14	0.000000e+00	7.029701e-01	5.396522e+15	7.457031e+15	1.272411e+14	2.036955e+04	1.133851e+04	6.971738e+03	0	2.370715e-03
2.200000e+08	4.512255e+14	0.000000e+00	7.029701e-01	5.131788e+15	7.110706e+15	1.265650e+14	2.007996e+04	1.121931e+04	6.898449e+03	0	2.330435e-03
2.300000e+08	4.292110e+14	0.000000e+00	7.029701e-01	4.886896e+15	6.788433e+15	1.258939e+14	1.980435e+04	1.110476e+04	6.828011e+03	0	2.291902e-03
2.400000e+08	4.088076e+14	0.000000e+00	7.029701e-01	4.659871e+15	6.488225e+15	1.252276e+14	1.954168e+04	1.099462e+04	6.760294e+03	0	2.254994e-03
2.500000e+08	3.898594e+14	0.000000e+00	7.029701e-01	4.448985e+15	6.208240e+15	1.245663e+14	1.929103e+04	1.088870e+04	6.695164e+03	0	2.219602e-03
2.600000e+08	3.722292e+14	0.000000e+00	7.029701e-01	4.252720e+15	5.946781e+15	1.239098e+14	1.905155e+04	1.078676e+04	6.632487e+03	0	2.185626e-03
2.700000e+08	3.557962e+14	0.000000e+00	7.029701e-01	4.069735e+15	5.702305e+15	1.232581e+14	1.882248e+04	1.068861e+04	6.572135e+03	0	2.152978e-03
2.800000e+08	3.404529e+14	0.000000e+00	7.029701e-01	3.898843e+15	5.473411e+15	1.226111e+14	1.860312e+04	1.059404e+04	6.513986e+03	0	2.121574e-03
2.900000e+08	3.261042e+14	0.000000e+00	7.029701e-01	3.738988e+15	5.258815e+15	1.219689e+14	1.839284e+04	1.050286e+04	6.457921e+03	0	2.091340e-03
3.000000e+08	3.126651e+14	0.000000e+00	7.029701e-01	3.589229e+15	5.057368e+15	1.213313e+14	1.819107e+04	1.041489e+04	6.403830e+03	0	2.062207e-03
3.100000e+08	3.000594e+14	0.000000e+00	7.029701e-01	3.448722e+15	4.868020e+15	1.206984e+14	1.799726e+04	1.032996e+04	6.351609e+03	0	2.034112e-03
3.200000e+08	2.882189e+14	0.000000e+00	7.029701e-01	3.316711e+15	4.689826e+15	1.200701e+14	1.781094e+04	1.024791e+04	6.301159e+03	0	2.006996e-03
3.300000e+08	2.770824e+14	0.000000e+00	7.029701e-01	3.192518e+15	4.521922e+15	1.194464e+14	1.763166e+04	1.016859e+04	6.252390e+03	0	1.980807e-03
3.400000e+08	2.665946e+14	0.000000e+00	7.029701e-01	3.075528e+15	4.363528e+15	1.188272e+14	1.745901e+04	1.009187e+04	6.205215e+03	0	1.955493e-03
3.500000e+08	2.567055e+14	0.000000e+00	7.029701e-01	2.965190e+15	4.213931e+15	1.182125e+14	1.729260e+04	1.001761e+04	6.159553e+03	0	1.931008e-03
3.600000e+08	2.473699e+14	0.000000e+00	7.029701e-01	2.861000e+15	4.072489e+15	1.176022e+14	1.713209e+04	9.945684e+03	6.115330e+03	0	1.907311e-03
3.700000e+08	2.385469e+14	0.000000e+00	7.029701e-01	2.762506e+15	3.938609e+15	1.169964e+14	1.697715e+04	9.875985e+03	6.072474e+03	0	1.884359e-03
3.800000e+08	2.301992e+14	0.000000e+00	7.029701e-01	2.669293e+15	3.811757e+15	1.163949e+14	1.682748e+04	9.808402e+03	6.030919e+03	0	1.862117e-03
3.900000e+08	2.222928e+14	0.000000e+00	7.029701e-01	2.580986e+15	3.691441e+15	1.157978e+14	1.668280e+04	9.742835e+03	5.990604e+03	0	1.840550e-03
4.000000e+08	2.147968e+14	0.000000e+00	7.029701e-01	2.497241e+15	3.577211e+15	1.152050e+14	1.654285e+04	9.679190e+03	5.951470e+03	0	1.819624e-03
4.100000e+08	2.076830e+14	0.000000e+00	7.029701e-01	2.417746e+15	3.468661e+15	1.146165e+14	1.640739e+04	9.617376e+03	5.913462e+03	0	1.799310e-03
4.200000e+08	2.009254e+14	0.000000e+00	7.029701e-01	2.342211e+15	3.365409e+15	1.140323e+14	1.627619e+04	9.557311e+03	5.876530e+03	0	1.779580e-03
4.300000e+08	1.945005e+14	0.000000e+00	7.029701e-01	2.270376e+15	3.267110e+15	1.134522e+14	1.614905e+04	9.498917e+03	5.840625e+03	0	1.760405e-03
4.400000e+08	1.883863e+14	0.000000e+00	7.029701e-01	2.201998e+15	3.173446e+15	1.128763e+14	1.602577e+04	9.442120e+03	5.805702e+03	0	1.741762e-03
4.500000e+08	1.825630e+14	0.000000e+00	7.029701e-01	2.136856e+15	3.084125e+15	1.123046e+14	1.590616e+04	9.386849e+03	5.771718e+03	0	1.723627e-03
4.600000e+08	1.770121e+14	0.000000e+00	7.029701e-01	2.074744e+15	2.998877e+15	1.117369e+14	1.579005e+04	9.333041e+03	5.738633e+03	0	1.705978e-03
4.700000e+08	1.717167e+14	0.000000e+00	7.029701e-01	2.015475e+15	2.917451e+15	1.111733e+14	1.567728e+04	9.280633e+03	5.706408e+03	0	1.688794e-03
4.800000e+08	1.666610e+14	0.000000e+00	7.029701e-01	1.958875e+15	2.839617e+15	1.106138e+14	1.556770e+04	9.229567e+03	5.675009e+03	0	1.672055e-03
4.900000e+08	1.618306e+14	0.000000e+00	7.029701e-01	1.904783e+15	2.765160e+15	1.100583e+14	1.546116e+04	9.179789e+03	5.644402e+03	0	1.655742e-03
5.000000e+08	1.572121e+14	0.000000e+00	7.029701e-01	1.853050e+15	2.693886e+15	1.095067e+14	1.535754e+04	9.131245e+03	5.614554e+03	0	1.639839e-03
5.100000e+08	1.527932e+14	0.000000e+00	7.029701e-01	1.803539e+15	2.625610e+15	1.089591e+14	1.525671e+04	9.083888e+03	5.585435e+03	0	1.624328e-03
5.200000e+08	1.485622e+14	0.000000e+00	7.029701e-01	1.756121e+15	2.560160e+15	1.084154e+14	1.515854e+04	9.037670e+03	5.557017e+03	0	1.609194e-03
5.300000e+08	1.445085e+14	0.000000e+00	7.029701e-01	1.710679e+15	2.497380e+15	1.078755e+14	1.506293e+04	8.992548e+03	5.529272e+03	0	1.594423e-03
5.400000e+08	1.406222e+14	0.000000e+00	7.029701e-01	1.667100e+15	2.437122e+15	1.073395e+14	1.496977e+04	8.948479e+03	5.502176e+03	0	1.580000e-03
5.500000e+08	1.368940e+14	0.000000e+00	7.029701e-01	1.625284e+15	2.379249e+15	1.068074e+14	1.487896e+04	8.905425e+03	5.475703e+03	0	1.565912e-03
5.600000e+08	1.333153e+14	0.000000e+00	7.029701e-01	1.585134e+15	2.323634e+15	1.062790e+14	1.479041e+04	8.863347e+03	5.449831e+03	0	1.552145e-03
5.700000e+08	1.298781e+14	0.000000e+00	7.029701e-01	1.546561e+15	2.270156e+15	1.057543e+14	1.470403e+04	8.822210e+03	5.424537e+03	0	1.538690e-03
5.800000e+08	1.265749e+14	0.000000e+00	7.029701e-01	1.509481e+15	2.218705e+15	1.052334e+14	1.461973e+04	8.781980e+03	5.399800e+03	0	1.525533e-03
5.900000e+08	1.233986e+14	0.000000e+00	7.029701e-01	1.473818e+15	2.169175e+15	1.047162e+14	1.453744e+04	8.742625e+03	5.375602e+03	0	1.512664e-03
6.000000e+08	1.203429e+14	0.000000e+00	7.029701e-01	1.439497e+15	2.121470e+15	1.042026e+14	1.445707e+04	8.704114e+03	5.351922e+03	0	1.500074e-03
6.100000e+08	1.174014e+14	0.000000e+00	7.029701e-01	1.406452e+15	2.075499e+15	1.036927e+14	1.437856e+04	8.666417e+03	5.328743e+03	0	1.487751e-03
6.200000e+08	1.145685e+14	0.000000e+00	7.029701e-01	1.374618e+15	2.031176e+15	1.031864e+14	1.430184e+04	8.629506e+03	5.306048e+03	0	1.475687e-03
6.300000e+08	1.118389e+14	0.000000e+00	7.029701e-01	1.343935e+15	1.988419e+15	1.026836e+14	1.422684e+04	8.593356e+03	5.283820e+03	0	1.463873e-03
6.400000e+08	1.092073e+14	0.000000e+00	7.029701e-01	1.314347e+15	1.947155e+15	1.021844e+14	1.415349e+04	8.557941e+03	5.262044e+03	0	1.452300e-03
6.500000e+08	1.066692e+14	0.000000e+00	7.029701e-01	1.285801e+15	1.907312e+15	1.016887e+14	1.408176e+04	8.523235e+03	5.240705e+03	0	1.440961e-03
6.600000e+08	1.042200e+14	0.000000e+00	7.029701e-01	1.258249e+15	1.868823e+15	1.011965e+14	1.401156e+04	8.489218e+03	5.219788e+03	0	1.429847e-03
6.700000e+08	1.018556e+14	0.000000e+00	7.029701e-01	1.231642e+15	1.831625e+15	1.007078e+14	1.394286e+04	8.455865e+03	5.199281e+03	0	1.418951e-03
6.800000e+08	9.957197e+13	0.000000e+00	7.029701e-01	1.205938e+15	1.795660e+15	1.002225e+14	1.387560e+04	8.423156e+03	5.179169e+03	0	1.408266e-03
6.900000e+08	9.736545e+13	0.000000e+00	7.029701e-01	1.181095e+15	1.760871e+15	9.974055e+13	1.380973e+04	8.391071e+03	5.159441e+03	0	1.397786e-03
7.000000e+08	9.523252e+13	0.000000e+00	7.029701e-01	1.157074e+15	1.727206e+15	9.926202e+13	1.374521e+04	8.359590e+03	5.140084e+03	0	1.387504e-03
7.100000e+08	9.316988e+13	0.000000e+00	7.029701e-01	1.133838e+15	1.694615e+15	9.878685e+13	1.368200e+04	8.328695e+03	5.121088e+03	0	1.377413e-03
7.200000e+08	9.117440e+13	0.000000e+00	7.029701e-01	1.111352e+15	1.663053e+15	9.831499e+13	1.362004e+04	8.298368e+03	5.102440e+03	0	1.367509e-03
7.300000e+08	8.924314e+13	0.000000e+00	7.029701e-01	1.089584e+15	1.632473e+15	9.784644e+13	1.355930e+04	8.268592e+03	5.084132e+03	0	1.357784e-03
7.400000e+08	8.737332e+13	0.000000e+00	7.029701e-01	1.068503e+15	1.602834e+15	9.738115e+13	1.349974e+04	8.239350e+03	5.066152e+03	0	1.348234e-03
7.500000e+08	8.556228e+13	0.000000e+00	7.029701e-01	1.048078e+15	1.574097e+15	9.691911e+13	1.344133e+04	8.210628e+03	5.048491e+03	0	1.338854e-03
7.600000e+08	8.380756e+13	0.000000e+00	7.029701e-01	1.028284e+15	1.546223e+15	9.646028e+13	1.338403e+04	8.182409e+03	5.031140e+03	0	1.329638e-03
7.700000e+08	8.210677e+13	0.000000e+00	7.029701e-01	1.009092e+15	1.519178e+15	9.600465e+13	1.332780e+04	8.154679e+03	5.014090e+03	0	1.320582e-03
7.800000e+08	8.045769e+13	0.000000e+00	7.029701e-01	9.904787e+14	1.492928e+15	9.555219e+13	1.327261e+04	8.127425e+03	4.997332e+03	0	1.311681e-03
7.900000e+08	7.885818e+13	0.000000e+00	7.029701e-01	9.724199e+14	1.467439e+15	9.510286e+13	1.321844e+04	8.100632e+03	4.980858e+03	0	1.302931e-03
8.000000e+08	7.730625e+13	0.000000e+00	7.029701e-01	9.548932e+14	1.442683e+15	9.465666e+13	1.316524e+04	8.074289e+03	4.964660e+03	0	1.294327e-03
8.100000e+08	7.579997e+13	0.000000e+00	7.029701e-01	9.378774e+14	1.418630e+15	9.421354e+13	1.311300e+04	8.048383e+03	4.948731e+03	0	1.285865e-03
8.200000e+08	7.433753e+13	0.000000e+00	7.029701e-01	9.213522e+14	1.395253e+15	9.377350e+13	1.306168e+04	8.022902e+03	4.933064e+03	0	1.277542e-03
8.300000e+08	7.291721e+13	0.000000e+00	7.029701e-01	9.052984e+14	1.372525e+15	9.333649e+13	1.301126e+04	7.997834e+03	4.917650e+03	0	1.269353e-03
8.400000e+08	7.153736e+13	0.000000e+00	7.029701e-01	8.896977e+14	1.350422e+15	9.290250e+13	1.296172e+04	7.973168e+03	4.902484e+03	0	1.261295e-03
8.500000e+08	7.019643e+13	0.000000e+00	7.029701e-01	8.745327e+14	1.328920e+15	9.247151e+13	1.291302e+04	7.948894e+03	4.887559e+03	0	1.253365e-03
8.600000e+08	6.889294e+13	0.000000e+00	7.029701e-01	8.597869e+14	1.307997e+15	9.204349e+13	1.286514e+04	7.925002e+03	4.872868e+03	0	1.245558e-03
8.700000e+08	6.762546e+13	0.000000e+00	7.029701e-01	8.454445e+14	1.287631e+15	9.161842e+13	1.281807e+04	7.901482e+03	4.858406e+03	0	1.237872e-03
8.800000e+08	6.639265e+13	0.000000e+00	7.029701e-01	8.314905e+14	1.267801e+15	9.119627e+13	1.277178e+04	7.878323e+03	4.844166e+03	0	1.230304e-03
8.900000e+08	6.519324e+13	0.000000e+00	7.029701e-01	8.179106e+14	1.248488e+15	9.077702e+13	1.272625e+04	7.855517e+03	4.830143e+03	0	1.222850e-03
9.000000e+08	6.402598e+13	0.000000e+00	7.029701e-01	8.046911e+14	1.229675e+15	9.036064e+13	1.268146e+04	7.833056e+03	4.816332e+03	0	1.215508e-03
9.100000e+08	6.288972e+13	0.000000e+00	7.029701e-01	7.918189e+14	1.211341e+15	8.994712e+13	1.263739e+04	7.810929e+03	4.802727e+03	0	1.208275e-03
9.200000e+08	6.178334e+13	0.000000e+00	7.029701e-01	7.792816e+14	1.193472e+15	8.953644e+13	1.259402e+04	7.789130e+03	4.789324e+03	0	1.201147e-03
9.300000e+08	6.070577e+13	0.000000e+00	7.029701e-01	7.670675e+14	1.176050e+15	8.912856e+13	1.255133e+04	7.767650e+03	4.776116e+03	0	1.194123e-03
9.400000e+08	5.965600e+13	0.000000e+00	7.029701e-01	7.551650e+14	1.159061e+15	8.872347e+13	1.250930e+04	7.746481e+03	4.763100e+03	0	1.187200e-03
9.500000e+08	5.863306e+13	0.000000e+00	7.029701e-01	7.435633e+14	1.142488e+15	8.832114e+13	1.246793e+04	7.725617e+03	4.750271e+03	0	1.180375e-03
9.600000e+08	5.763602e+13	0.000000e+00	7.029701e-01	7.322522e+14	1.126319e+15	8.792156e+13	1.242718e+04	7.705049e+03	4.737624e+03	0	1.173646e-03
9.700000e+08	5.666398e+13	0.000000e+00	7.029701e-01	7.212215e+14	1.110539e+15	8.752470e+13	1.238706e+04	7.684770e+03	4.725156e+03	0	1.167011e-03
9.800000e+08	5.571610e+13	0.000000e+00	7.029701e-01	7.104620e+14	1.095136e+15	8.713054e+13	1.234753e+04	7.664775e+03	4.712861e+03	0	1.160467e-03
9.900000e+08	5.479157e+13	0.000000e+00	7.029701e-01	6.999644e+14	1.080097e+15	8.673906e+13	1.230859e+04	7.645056e+03	4.700736e+03	0	1.154012e-03
1.000000e+09	5.388959e+13	0.000000e+00	7.029701e-01	6.897200e+14	1.065410e+15	8.635024e+13	1.227022e+04	7.625606e+03	4.688778e+03	0	1.147645e-03
1.010000e+09	5.300943e+13	0.000000e+00	7.029701e-01	6.797205e+14	1.051063e+15	8.596405e+13	1.223241e+04	7.606421e+03	4.676981e+03	0	1.141362e-03
1.020000e+09	5.215037e+13	0.000000e+00	7.029701e-01	6.699579e+14	1.037047e+15	8.558048e+13	1.219515e+04	7.587494e+03	4.665343e+03	0	1.135163e-03
1.030000e+09	5.131172e+13	0.000000e+00	7.029701e-01	6.604246e+14	1.023350e+15	8.519951e+13	1.215842e+04	7.568819e+03	4.653860e+03	0	1.129045e-03
1.040000e+09	5.049283e+13	0.000000e+00	7.029701e-01	6.511131e+14	1.009962e+15	8.482111e+13	1.212221e+04	7.550390e+03	4.642529e+03	0	1.123007e-03
1.050000e+09	4.969306e+13	0.000000e+00	7.029701e-01	6.420164e+14	9.968733e+14	8.444526e+13	1.208650e+04	7.532202e+03	4.631346e+03	0	1.117046e-03
1.060000e+09	4.891180e+13	0.000000e+00	7.029701e-01	6.331277e+14	9.840750e+14	8.407195e+13	1.205129e+04	7.514250e+03	4.620308e+03	0	1.111161e-03
1.070000e+09	4.814847e+13	0.000000e+00	7.029701e-01	6.244405e+14	9.715578e+14	8.370116e+13	1.201657e+04	7.496529e+03	4.609412e+03	0	1.105350e-03
1.080000e+09	4.740252e+13	0.000000e+00	7.029701e-01	6.159486e+14	9.593132e+14	8.333286e+13	1.198232e+04	7.479034e+03	4.598654e+03	0	1.099612e-03
1.090000e+09	4.667341e+13	0.000000e+00	7.029701e-01	6.076460e+14	9.473331e+14	8.296704e+13	1.194854e+04	7.461760e+03	4.588033e+03	0	1.093945e-03
1.100000e+09	4.596061e+13	0.000000e+00	7.029701e-01	5.995268e+14	9.356096e+14	8.260367e+13	1.191520e+04	7.444702e+03	4.577544e+03	0	1.088348e-03
1.110000e+09	4.526364e+13	0.000000e+00	7.029701e-01	5.915856e+14	9.241346e+14	8.224274e+13	1.188231e+04	7.427856e+03	4.567186e+03	0	1.082818e-03
1.120000e+09	4.458201e+13	0.000000e+00	7.029701e-01	5.838169e+14	9.129011e+14	8.188423e+13	1.184986e+04	7.411217e+03	4.556955e+03	0	1.077355e-03
1.130000e+09	4.391527e+13	0.000000e+00	7.029701e-01	5.762157e+14	9.019021e+14	8.152811e+13	1.181783e+04	7.394782e+03	4.546850e+03	0	1.071958e-03
1.140000e+09	4.326298e+13	0.000000e+00	7.029701e-01	5.687770e+14	8.911308e+14	8.117438e+13	1.178621e+04	7.378545e+03	4.536866e+03	0	1.066624e-03
1.150000e+09	4.262470e+13	0.000000e+00	7.029701e-01	5.614960e+14	8.805806e+14	8.082301e+13	1.175500e+04	7.362503e+03	4.527003e+03	0	1.061352e-03
1.160000e+09	4.200003e+13	0.000000e+00	7.029701e-01	5.543681e+14	8.702449e+14	8.047398e+13	1.172419e+04	7.346653e+03	4.517256e+03	0	1.056142e-03
1.170000e+09	4.138857e+13	0.000000e+00	7.029701e-01	5.473890e+14	8.601179e+14	8.012728e+13	1.169376e+04	7.330989e+03	4.507625e+03	0	1.050992e-03
1.180000e+09	4.078995e+13	0.000000e+00	7.029701e-01	5.405544e+14	8.501936e+14	7.978289e+13	1.166372e+04	7.315509e+03	4.498107e+03	0	1.045900e-03
1.190000e+09	4.020379e+13	0.000000e+00	7.029701e-01	5.338602e+14	8.404663e+14	7.944078e+13	1.163405e+04	7.300209e+03	4.488700e+03	0	1.040866e-03
1.200000e+09	3.962975e+13	0.000000e+00	7.029701e-01	5.273023e+14	8.309307e+14	7.910095e+13	1.160475e+04	7.285085e+03	4.479400e+03	0	1.035888e-03
1.210000e+09	3.906748e+13	0.000000e+00	7.029701e-01	5.208771e+14	8.215814e+14	7.876336e+13	1.157580e+04	7.270135e+03	4.470208e+03	0	1.030966e-03
1.220000e+09	3.851665e+13	0.000000e+00	7.029701e-01	5.145807e+14	8.124136e+14	7.842802e+13	1.154721e+04	7.255353e+03	4.461119e+03	0	1.026097e-03
1.230000e+09	3.797695e+13	0.000000e+00	7.029701e-01	5.084098e+14	8.034218e+14	7.809489e+13	1.151896e+04	7.240739e+03	4.452133e+03	0	1.021282e-03
1.240000e+09	3.744807e+13	0.000000e+00	7.029701e-01	5.023607e+14	7.946018e+14	7.776397e+13	1.149105e+04	7.226287e+03	4.443247e+03	0	1.016519e-03
1.250000e+09	3.692971e+13	0.000000e+00	7.029701e-01	4.964303e+14	7.859488e+14	7.743523e+13	1.146347e+04	7.211996e+03	4.434460e+03	0	1.011807e-03
1.260000e+09	3.642159e+13	0.000000e+00	7.029701e-01	4.906154e+14	7.774585e+14	7.710866e+13	1.143621e+04	7.197862e+03	4.425769e+03	0	1.007145e-03
1.270000e+09	3.592344e+13	0.000000e+00	7.029701e-01	4.849127e+14	7.691265e+14	7.678424e+13	1.140927e+04	7.183882e+03	4.417173e+03	0	1.002532e-03
1.280000e+09	3.543499e+13	0.000000e+00	7.029701e-01	4.793195e+14	7.609488e+14	7.646195e+13	1.138264e+04	7.170053e+03	4.408670e+03	0	9.979678e-04
1.290000e+09	3.495597e+13	0.000000e+00	7.029701e-01	4.738327e+14	7.529213e+14	7.614179e+13	1.135632e+04	7.156373e+03	4.400259e+03	0	9.934505e-04
1.300000e+09	3.448615e+13	0.000000e+00	7.029701e-01	4.684496e+14	7.450400e+14	7.582372e+13	1.133030e+04	7.142839e+03	4.391937e+03	0	9.889797e-04
1.310000e+09	3.402528e+13	0.000000e+00	7.029701e-01	4.631675e+14	7.373016e+14	7.550774e+13	1.130457e+04	7.129449e+03	4.383704e+03	0	9.845543e-04
1.320000e+09	3.357313e+13	0.000000e+00	7.029701e-01	4.579838e+14	7.297019e+14	7.519382e+13	1.127913e+04	7.116199e+03	4.375557e+03	0	9.801737e-04
1.330000e+09	3.312947e+13	0.000000e+00	7.029701e-01	4.528959e+14	7.222379e+14	7.488196e+13	1.125397e+04	7.103087e+03	4.367495e+03	0	9.758370e-04
1.340000e+09	3.269409e+13	0.000000e+00	7.029701e-01	4.479015e+14	7.149059e+14	7.457214e+13	1.122910e+04	7.090112e+03	4.359516e+03	0	9.715434e-04
1.350000e+09	3.226678e+13	0.000000e+00	7.029701e-01	4.429982e+14	7.077030e+14	7.426434e+13	1.120449e+04	7.077270e+03	4.351620e+03	0	9.672921e-04
1.360000e+09	3.184732e+13	0.000000e+00	7.029701e-01	4.381836e+14	7.006256e+14	7.395855e+13	1.118016e+04	7.064558e+03	4.343804e+03	0	9.630823e-04
