#t		Qconv[W]	Ri[Rp]		R*[Rp]		Qc[W]		Qm[W]		Qr[W]		Tcmb[K]		Tl[K]		Tup[K]		RiFlag		Bs[T]
0.000000e+00	3.522394e+15	0.000000e+00	7.029701e-01	3.805795e+16	3.709021e+13	1.494811e+14	3.687265e+04	4.535800e+03	2.777906e+03	0	4.615662e-03
1.000000e+07	3.116514e+15	0.000000e+00	7.029701e-01	3.369337e+16	6.140233e+14	1.486529e+14	3.503407e+04	7.003038e+03	4.288942e+03	0	4.431095e-03
2.000000e+07	2.708516e+15	0.000000e+00	7.029701e-01	2.930782e+16	2.496106e+15	1.478308e+14	3.339642e+04	9.110275e+03	5.579499e+03	0	4.228618e-03
3.000000e+07	2.333960e+15	0.000000e+00	7.029701e-01	2.528236e+16	5.582270e+15	1.470149e+14	3.196426e+04	1.076900e+04	6.595369e+03	0	4.023949e-03
4.000000e+07	2.015427e+15	0.000000e+00	7.029701e-01	2.185879e+16	8.956574e+15	1.462051e+14	3.072304e+04	1.195145e+04	7.319546e+03	0	3.831867e-03
5.000000e+07	1.758049e+15	0.000000e+00	7.029701e-01	1.909186e+16	1.172726e+16	1.454014e+14	2.964566e+04	1.270839e+04	7.783129e+03	0	3.661269e-03
6.000000e+07	1.554355e+15	0.000000e+00	7.029701e-01	1.690128e+16	1.352559e+16	1.446036e+14	2.870150e+04	1.313617e+04	8.045117e+03	0	3.514024e-03
7.000000e+07	1.392495e+15	0.000000e+00	7.029701e-01	1.515983e+16	1.441987e+16	1.438118e+14	2.786331e+04	1.333460e+04	8.166647e+03	0	3.387551e-03
8.000000e+07	1.261516e+15	0.000000e+00	7.029701e-01	1.374998e+16	1.464940e+16	1.430258e+14	2.710965e+04	1.338418e+04	8.197011e+03	0	3.277824e-03
9.000000e+07	1.153071e+15	0.000000e+00	7.029701e-01	1.258216e+16	1.445271e+16	1.422457e+14	2.642461e+04	1.334173e+04	8.171011e+03	0	3.181071e-03
1.000000e+08	1.061296e+15	0.000000e+00	7.029701e-01	1.159344e+16	1.400933e+16	1.414714e+14	2.579655e+04	1.324457e+04	8.111509e+03	0	3.094332e-03
1.100000e+08	9.821765e+14	0.000000e+00	7.029701e-01	1.074073e+16	1.343820e+16	1.407028e+14	2.521684e+04	1.311630e+04	8.032951e+03	0	3.015443e-03
1.200000e+08	9.129497e+14	0.000000e+00	7.029701e-01	9.994375e+15	1.281279e+16	1.399400e+14	2.467891e+04	1.297153e+04	7.944284e+03	0	2.942865e-03
1.300000e+08	8.516754e+14	0.000000e+00	7.029701e-01	9.333540e+15	1.217640e+16	1.391828e+14	2.417763e+04	1.281919e+04	7.850989e+03	0	2.875496e-03
1.400000e+08	7.969491e+14	0.000000e+00	7.029701e-01	8.743144e+15	1.155344e+16	1.384311e+14	2.370885e+04	1.266473e+04	7.756392e+03	0	2.812537e-03
1.500000e+08	7.477220e+14	0.000000e+00	7.029701e-01	8.211918e+15	1.095688e+16	1.376851e+14	2.326916e+04	1.251141e+04	7.662492e+03	0	2.753392e-03
1.600000e+08	7.031864e+14	0.000000e+00	7.029701e-01	7.731185e+15	1.039294e+16	1.369445e+14	2.285569e+04	1.236115e+04	7.570465e+03	0	2.697604e-03
1.700000e+08	6.627040e+14	0.000000e+00	7.029701e-01	7.294083e+15	9.863890e+15	1.362095e+14	2.246599e+04	1.221503e+04	7.480977e+03	0	2.644810e-03
1.800000e+08	6.257581e+14	0.000000e+00	7.029701e-01	6.895060e+15	9.369725e+15	1.354798e+14	2.209793e+04	1.207363e+04	7.394380e+03	0	2.594718e-03
1.900000e+08	5.919228e+14	0.000000e+00	7.029701e-01	6.529535e+15	8.909263e+15	1.347555e+14	2.174966e+04	1.193721e+04	7.310826e+03	0	2.547083e-03
2.000000e+08	5.608415e+14	0.000000e+00	7.029701e-01	6.193674e+15	8.480641e+15	1.340365e+14	2.141953e+04	1.180581e+04	7.230350e+03	0	2.501697e-03
2.100000e+08	5.322116e+14	0.000000e+00	7.029701e-01	5.884222e+15	8.081755e+15	1.333229e+14	2.110610e+04	1.167936e+04	7.152911e+03	0	2.458383e-03
2.200000e+08	5.057742e+14	0.000000e+00	7.029701e-01	5.598393e+15	7.710417e+15	1.326144e+14	2.080808e+04	1.155774e+04	7.078423e+03	0	2.416983e-03
2.300000e+08	4.813054e+14	0.000000e+00	7.029701e-01	5.333780e+15	7.364473e+15	1.319112e+14	2.052431e+04	1.144075e+04	7.006778e+03	0	2.377360e-03
2.400000e+08	4.586106e+14	0.000000e+00	7.029701e-01	5.088289e+15	7.041890e+15	1.312131e+14	2.025374e+04	1.132821e+04	6.937851e+03	0	2.339390e-03
2.500000e+08	4.375195e+14	0.000000e+00	7.029701e-01	4.860085e+15	6.740755e+15	1.305202e+14	1.999543e+04	1.121990e+04	6.871517e+03	0	2.302964e-03
2.600000e+08	4.178822e+14	0.000000e+00	7.029701e-01	4.647556e+15	6.459313e+15	1.298323e+14	1.974853e+04	1.111561e+04	6.807646e+03	0	2.267980e-03
2.700000e+08	3.995664e+14	0.000000e+00	7.029701e-01	4.449279e+15	6.195946e+15	1.291494e+14	1.951228e+04	1.101514e+04	6.746114e+03	0	2.234349e-03
2.800000e+08	3.824549e+14	0.000000e+00	7.029701e-01	4.263989e+15	5.949185e+15	1.284715e+14	1.928596e+04	1.091829e+04	6.686798e+03	0	2.201987e-03
2.900000e+08	3.664431e+14	0.000000e+00	7.029701e-01	4.090562e+15	5.717690e+15	1.277986e+14	1.906893e+04	1.082487e+04	6.629585e+03	0	2.170819e-03
3.000000e+08	3.514378e+14	0.000000e+00	7.029701e-01	3.927995e+15	5.500244e+15	1.271306e+14	1.886061e+04	1.073470e+04	6.574364e+03	0	2.140774e-03
3.100000e+08	3.373557e+14	0.000000e+00	7.029701e-01	3.775389e+15	5.295742e+15	1.264674e+14	1.866045e+04	1.064762e+04	6.521032e+03	0	2.111790e-03
3.200000e+08	3.241216e+14	0.000000e+00	7.029701e-01	3.631936e+15	5.103177e+15	1.258091e+14	1.846797e+04	1.056347e+04	6.469491e+03	0	2.083806e-03
3.300000e+08	3.116683e+14	0.000000e+00	7.029701e-01	3.496910e+15	4.921638e+15	1.251556e+14	1.828271e+04	1.048208e+04	6.419650e+03	0	2.056769e-03
3.400000e+08	2.999350e+14	0.000000e+00	7.029701e-01	3.369657e+15	4.750300e+15	1.245068e+14	1.810425e+04	1.040334e+04	6.371423e+03	0	2.030628e-03
3.500000e+08	2.888665e+14	0.000000e+00	7.029701e-01	3.249582e+15	4.588405e+15	1.238627e+14	1.793220e+04	1.032710e+04	6.324730e+03	0	2.005336e-03
3.600000e+08	2.784132e+14	0.000000e+00	7.029701e-01	3.136151e+15	4.435266e+15	1.232233e+14	1.776620e+04	1.025324e+04	6.279495e+03	0	1.980849e-03
3.700000e+08	2.685297e+14	0.000000e+00	7.029701e-01	3.028875e+15	4.290256e+15	1.225885e+14	1.760593e+04	1.018164e+04	6.235646e+03	0	1.957126e-03
3.800000e+08	2.591750e+14	0.000000e+00	7.029701e-01	2.927311e+15	4.152803e+15	1.219583e+14	1.745108e+04	1.011220e+04	6.193119e+03	0	1.934130e-03
3.900000e+08	2.503117e+14	0.000000e+00	7.029701e-01	2.831055e+15	4.022385e+15	1.213326e+14	1.730136e+04	1.004482e+04	6.151849e+03	0	1.911826e-03
4.000000e+08	2.419054e+14	0.000000e+00	7.029701e-01	2.739739e+15	3.898522e+15	1.207115e+14	1.715651e+04	9.979390e+03	6.111780e+03	0	1.890180e-03
4.100000e+08	2.339249e+14	0.000000e+00	7.029701e-01	2.653025e+15	3.780774e+15	1.200949e+14	1.701627e+04	9.915833e+03	6.072855e+03	0	1.869162e-03
4.200000e+08	2.263417e+14	0.000000e+00	7.029701e-01	2.570605e+15	3.668737e+15	1.194827e+14	1.688043e+04	9.854061e+03	6.035023e+03	0	1.848742e-03
4.300000e+08	2.191295e+14	0.000000e+00	7.029701e-01	2.492195e+15	3.562044e+15	1.188749e+14	1.674876e+04	9.793995e+03	5.998236e+03	0	1.828893e-03
4.400000e+08	2.122641e+14	0.000000e+00	7.029701e-01	2.417537e+15	3.460349e+15	1.182715e+14	1.662106e+04	9.735559e+03	5.962448e+03	0	1.809590e-03
4.500000e+08	2.057233e+14	0.000000e+00	7.029701e-01	2.346389e+15	3.363343e+15	1.176724e+14	1.649715e+04	9.678684e+03	5.927615e+03	0	1.790809e-03
4.600000e+08	1.994869e+14	0.000000e+00	7.029701e-01	2.278532e+15	3.270734e+15	1.170776e+14	1.637684e+04	9.623303e+03	5.893698e+03	0	1.772527e-03
4.700000e+08	1.935358e+14	0.000000e+00	7.029701e-01	2.213763e+15	3.182255e+15	1.164871e+14	1.625998e+04	9.569354e+03	5.860658e+03	0	1.754722e-03
4.800000e+08	1.878527e+14	0.000000e+00	7.029701e-01	2.151894e+15	3.097655e+15	1.159008e+14	1.614641e+04	9.516778e+03	5.828458e+03	0	1.737376e-03
4.900000e+08	1.824216e+14	0.000000e+00	7.029701e-01	2.092751e+15	3.016712e+15	1.153187e+14	1.603598e+04	9.465519e+03	5.797064e+03	0	1.720469e-03
5.000000e+08	1.772275e+14	0.000000e+00	7.029701e-01	2.036173e+15	2.939207e+15	1.147408e+14	1.592856e+04	9.415523e+03	5.766445e+03	0	1.703982e-03
5.100000e+08	1.722566e+14	0.000000e+00	7.029701e-01	1.982013e+15	2.864944e+15	1.141670e+14	1.582401e+04	9.366742e+03	5.736569e+03	0	1.687900e-03
5.200000e+08	1.674962e+14	0.000000e+00	7.029701e-01	1.930130e+15	2.793743e+15	1.135973e+14	1.572222e+04	9.319127e+03	5.707408e+03	0	1.672205e-03
5.300000e+08	1.629342e+14	0.000000e+00	7.029701e-01	1.880398e+15	2.725431e+15	1.130317e+14	1.562307e+04	9.272635e+03	5.678934e+03	0	1.656884e-03
5.400000e+08	1.585598e+14	0.000000e+00	7.029701e-01	1.832695e+15	2.659851e+15	1.124700e+14	1.552645e+04	9.227222e+03	5.651122e+03	0	1.641921e-03
5.500000e+08	1.543625e+14	0.000000e+00	7.029701e-01	1.786912e+15	2.596855e+15	1.119124e+14	1.543225e+04	9.182848e+03	5.623945e+03	0	1.627304e-03
5.600000e+08	1.503328e+14	0.000000e+00	7.029701e-01	1.742945e+15	2.536304e+15	1.113588e+14	1.534039e+04	9.139475e+03	5.597382e+03	0	1.613018e-03
5.700000e+08	1.464617e+14	0.000000e+00	7.029701e-01	1.700696e+15	2.478071e+15	1.108091e+14	1.525077e+04	9.097067e+03	5.571409e+03	0	1.599052e-03
5.800000e+08	1.427408e+14	0.000000e+00	7.029701e-01	1.660075e+15	2.422035e+15	1.102633e+14	1.516330e+04	9.055588e+03	5.546006e+03	0	1.585395e-03
5.900000e+08	1.391624e+14	0.000000e+00	7.029701e-01	1.620999e+15	2.368084e+15	1.097213e+14	1.507791e+04	9.015007e+03	5.521153e+03	0	1.572034e-03
6.000000e+08	1.357191e+14	0.000000e+00	7.029701e-01	1.583388e+15	2.316112e+15	1.091832e+14	1.499451e+04	8.975291e+03	5.496829e+03	0	1.558960e-03
6.100000e+08	1.324041e+14	0.000000e+00	7.029701e-01	1.547167e+15	2.266020e+15	1.086489e+14	1.491302e+04	8.936410e+03	5.473017e+03	0	1.546163e-03
6.200000e+08	1.292110e+14	0.000000e+00	7.029701e-01	1.512269e+15	2.217718e+15	1.081184e+14	1.483339e+04	8.898338e+03	5.449700e+03	0	1.533632e-03
6.300000e+08	1.261338e+14	0.000000e+00	7.029701e-01	1.478627e+15	2.171117e+15	1.075916e+14	1.475553e+04	8.861045e+03	5.426860e+03	0	1.521359e-03
6.400000e+08	1.231668e+14	0.000000e+00	7.029701e-01	1.446182e+15	2.126136e+15	1.070685e+14	1.467940e+04	8.824506e+03	5.404482e+03	0	1.509336e-03
6.500000e+08	1.203047e+14	0.000000e+00	7.029701e-01	1.414874e+15	2.082698e+15	1.065491e+14	1.460492e+04	8.788697e+03	5.382551e+03	0	1.497553e-03
6.600000e+08	1.175426e+14	0.000000e+00	7.029701e-01	1.384652e+15	2.040731e+15	1.060334e+14	1.453204e+04	8.753594e+03	5.361053e+03	0	1.486003e-03
6.700000e+08	1.148757e+14	0.000000e+00	7.029701e-01	1.355463e+15	2.000167e+15	1.055213e+14	1.446071e+04	8.719173e+03	5.339972e+03	0	1.474679e-03
6.800000e+08	1.122996e+14	0.000000e+00	7.029701e-01	1.327260e+15	1.960942e+15	1.050128e+14	1.439086e+04	8.685415e+03	5.319297e+03	0	1.463572e-03
6.900000e+08	1.098102e+14	0.000000e+00	7.029701e-01	1.299998e+15	1.922997e+15	1.045079e+14	1.432246e+04	8.652297e+03	5.299014e+03	0	1.452677e-03
7.000000e+08	1.074036e+14	0.000000e+00	7.029701e-01	1.273635e+15	1.886274e+15	1.040065e+14	1.425546e+04	8.619800e+03	5.279112e+03	0	1.441986e-03
7.100000e+08	1.050760e+14	0.000000e+00	7.029701e-01	1.248130e+15	1.850718e+15	1.035086e+14	1.418980e+04	8.587905e+03	5.259578e+03	0	1.431493e-03
7.200000e+08	1.028239e+14	0.000000e+00	7.029701e-01	1.223446e+15	1.816279e+15	1.030142e+14	1.412545e+04	8.556594e+03	5.240402e+03	0	1.421192e-03
7.300000e+08	1.006441e+14	0.000000e+00	7.029701e-01	1.199547e+15	1.782911e+15	1.025232e+14	1.406236e+04	8.525849e+03	5.221573e+03	0	1.411077e-03
7.400000e+08	9.853342e+13	0.000000e+00	7.029701e-01	1.176400e+15	1.750566e+15	1.020357e+14	1.400050e+04	8.495654e+03	5.203080e+03	0	1.401143e-03
7.500000e+08	9.648891e+13	0.000000e+00	7.029701e-01	1.153971e+15	1.719202e+15	1.015516e+14	1.393982e+04	8.465992e+03	5.184914e+03	0	1.391384e-03
7.600000e+08	9.450777e+13	0.000000e+00	7.029701e-01	1.132231e+15	1.688779e+15	1.010708e+14	1.388029e+04	8.436849e+03	5.167066e+03	0	1.381796e-03
7.700000e+08	9.258736e+13	0.000000e+00	7.029701e-01	1.111152e+15	1.659256e+15	1.005934e+14	1.382187e+04	8.408209e+03	5.149525e+03	0	1.372372e-03
7.800000e+08	9.072517e+13	0.000000e+00	7.029701e-01	1.090705e+15	1.630599e+15	1.001193e+14	1.376454e+04	8.380058e+03	5.132285e+03	0	1.363109e-03
7.900000e+08	8.891881e+13	0.000000e+00	7.029701e-01	1.070866e+15	1.602772e+15	9.964850e+13	1.370825e+04	8.352382e+03	5.115335e+03	0	1.354002e-03
8.000000e+08	8.716602e+13	0.000000e+00	7.029701e-01	1.051610e+15	1.575742e+15	9.918096e+13	1.365298e+04	8.325169e+03	5.098668e+03	0	1.345046e-03
8.100000e+08	8.546466e+13	0.000000e+00	7.029701e-01	1.032913e+15	1.549477e+15	9.871667e+13	1.359869e+04	8.298405e+03	5.082277e+03	0	1.336237e-03
8.200000e+08	8.381269e+13	0.000000e+00	7.029701e-01	1.014754e+15	1.523949e+15	9.825559e+13	1.354537e+04	8.272078e+03	5.066153e+03	0	1.327572e-03
8.300000e+08	8.220817e+13	0.000000e+00	7.029701e-01	9.971107e+14	1.499128e+15	9.779770e+13	1.349297e+04	8.246177e+03	5.050291e+03	0	1.319045e-03
8.400000e+08	8.064927e+13	0.000000e+00	7.029701e-01	9.799643e+14	1.474988e+15	9.734297e+13	1.344149e+04	8.220691e+03	5.034682e+03	0	1.310654e-03
8.500000e+08	7.913423e+13	0.000000e+00	7.029701e-01	9.632954e+14	1.451503e+15	9.689138e+13	1.339088e+04	8.195607e+03	5.019319e+03	0	1.302395e-03
8.600000e+08	7.766138e+13	0.000000e+00	7.029701e-01	9.470859e+14	1.428649e+15	9.644290e+13	1.334112e+04	8.170917e+03	5.004198e+03	0	1.294265e-03
8.700000e+08	7.622913e+13	0.000000e+00	7.029701e-01	9.313186e+14	1.406401e+15	9.599750e+13	1.329220e+04	8.146609e+03	4.989311e+03	0	1.286259e-03
8.800000e+08	7.483597e+13	0.000000e+00	7.029701e-01	9.159771e+14	1.384738e+15	9.555518e+13	1.324409e+04	8.122674e+03	4.974652e+03	0	1.278375e-03
8.900000e+08	7.348045e+13	0.000000e+00	7.029701e-01	9.010457e+14	1.363640e+15	9.511589e+13	1.319677e+04	8.099102e+03	4.960216e+03	0	1.270609e-03
9.000000e+08	7.216121e+13	0.000000e+00	7.029701e-01	8.865096e+14	1.343084e+15	9.467961e+13	1.315021e+04	8.075885e+03	4.945997e+03	0	1.262959e-03
9.100000e+08	7.087692e+13	0.000000e+00	7.029701e-01	8.723544e+14	1.323053e+15	9.424633e+13	1.310440e+04	8.053014e+03	4.931989e+03	0	1.255422e-03
9.200000e+08	6.962633e+13	0.000000e+00	7.029701e-01	8.585666e+14	1.303528e+15	9.381601e+13	1.305931e+04	8.030479e+03	4.918188e+03	0	1.247994e-03
9.300000e+08	6.840825e+13	0.000000e+00	7.029701e-01	8.451331e+14	1.284491e+15	9.338864e+13	1.301494e+04	8.008273e+03	4.904589e+03	0	1.240673e-03
9.400000e+08	6.722152e+13	0.000000e+00	7.029701e-01	8.320416e+14	1.265925e+15	9.296419e+13	1.297125e+04	7.986389e+03	4.891186e+03	0	1.233457e-03
9.500000e+08	6.606506e+13	0.000000e+00	7.029701e-01	8.192802e+14	1.247814e+15	9.254263e+13	1.292824e+04	7.964817e+03	4.877974e+03	0	1.226343e-03
9.600000e+08	6.493783e+13	0.000000e+00	7.029701e-01	8.068375e+14	1.230144e+15	9.212395e+13	1.288588e+04	7.943551e+03	4.864950e+03	0	1.219328e-03
9.700000e+08	6.383881e+13	0.000000e+00	7.029701e-01	7.947027e+14	1.212898e+15	9.170812e+13	1.284417e+04	7.922584e+03	4.852109e+03	0	1.212410e-03
9.800000e+08	6.276706e+13	0.000000e+00	7.029701e-01	7.828653e+14	1.196063e+15	9.129512e+13	1.280307e+04	7.901909e+03	4.839447e+03	0	1.205587e-03
9.900000e+08	6.172165e+13	0.000000e+00	7.029701e-01	7.713155e+14	1.179625e+15	9.088493e+13	1.276259e+04	7.881518e+03	4.826959e+03	0	1.198856e-03
1.000000e+09	6.070170e+13	0.000000e+00	7.029701e-01	7.600436e+14	1.163571e+15	9.047752e+13	1.272270e+04	7.861406e+03	4.814641e+03	0	1.192216e-03
1.010000e+09	5.970639e+13	0.000000e+00	7.029701e-01	7.490407e+14	1.147889e+15	9.007288e+13	1.268339e+04	7.841566e+03	4.802490e+03	0	1.185664e-03
1.020000e+09	5.873489e+13	0.000000e+00	7.029701e-01	7.382977e+14	1.132568e+15	8.967097e+13	1.264465e+04	7.821991e+03	4.790502e+03	0	1.179198e-03
1.030000e+09	5.778644e+13	0.000000e+00	7.029701e-01	7.278065e+14	1.117594e+15	8.927179e+13	1.260645e+04	7.802677e+03	4.778673e+03	0	1.172816e-03
1.040000e+09	5.686029e+13	0.000000e+00	7.029701e-01	7.175589e+14	1.102959e+15	8.887530e+13	1.256880e+04	7.783617e+03	4.767000e+03	0	1.166517e-03
1.050000e+09	5.595574e+13	0.000000e+00	7.029701e-01	7.075472e+14	1.088650e+15	8.848150e+13	1.253168e+04	7.764806e+03	4.755480e+03	0	1.160298e-03
1.060000e+09	5.507209e+13	0.000000e+00	7.029701e-01	6.977640e+14	1.074658e+15	8.809034e+13	1.249507e+04	7.746238e+03	4.744108e+03	0	1.154158e-03
1.070000e+09	5.420870e+13	0.000000e+00	7.029701e-01	6.882021e+14	1.060973e+15	8.770182e+13	1.245896e+04	7.727908e+03	4.732882e+03	0	1.148095e-03
1.080000e+09	5.336493e+13	0.000000e+00	7.029701e-01	6.788547e+14	1.047585e+15	8.731592e+13	1.242335e+04	7.709811e+03	4.721798e+03	0	1.142107e-03
1.090000e+09	5.254018e+13	0.000000e+00	7.029701e-01	6.697152e+14	1.034487e+15	8.693261e+13	1.238822e+04	7.691942e+03	4.710855e+03	0	1.136192e-03
1.100000e+09	5.173386e+13	0.000000e+00	7.029701e-01	6.607772e+14	1.021669e+15	8.655188e+13	1.235356e+04	7.674297e+03	4.700048e+03	0	1.130350e-03
1.110000e+09	5.094541e+13	0.000000e+00	7.029701e-01	6.520348e+14	1.009122e+15	8.617370e+13	1.231936e+04	7.656869e+03	4.689375e+03	0	1.124578e-03
1.120000e+09	5.017430e+13	0.000000e+00	7.029701e-01	6.434819e+14	9.968388e+14	8.579805e+13	1.228560e+04	7.639656e+03	4.678833e+03	0	1.118876e-03
1.130000e+09	4.942001e+13	0.000000e+00	7.029701e-01	6.351131e+14	9.848118e+14	8.542491e+13	1.225229e+04	7.622653e+03	4.668419e+03	0	1.113240e-03
1.140000e+09	4.868204e+13	0.000000e+00	7.029701e-01	6.269228e+14	9.730336e+14	8.505427e+13	1.221942e+04	7.605854e+03	4.658131e+03	0	1.107671e-03
1.150000e+09	4.795991e+13	0.000000e+00	7.029701e-01	6.189059e+14	9.614964e+14	8.468611e+13	1.218696e+04	7.589257e+03	4.647966e+03	0	1.102167e-03
1.160000e+09	4.725316e+13	0.000000e+00	7.029701e-01	6.110573e+14	9.501941e+14	8.432040e+13	1.215491e+04	7.572858e+03	4.637923e+03	0	1.096726e-03
1.170000e+09	4.656134e+13	0.000000e+00	7.029701e-01	6.033722e+14	9.391198e+14	8.395713e+13	1.212327e+04	7.556651e+03	4.627997e+03	0	1.091348e-03
1.180000e+09	4.588403e+13	0.000000e+00	7.029701e-01	5.958459e+14	9.282667e+14	8.359627e+13	1.209203e+04	7.540634e+03	4.618188e+03	0	1.086030e-03
1.190000e+09	4.522080e+13	0.000000e+00	7.029701e-01	5.884739e+14	9.176293e+14	8.323781e+13	1.206117e+04	7.524803e+03	4.608492e+03	0	1.080772e-03
1.200000e+09	4.457126e+13	0.000000e+00	7.029701e-01	5.812518e+14	9.072011e+14	8.288174e+13	1.203070e+04	7.509153e+03	4.598907e+03	0	1.075572e-03
1.210000e+09	4.393503e+13	0.000000e+00	7.029701e-01	5.741756e+14	8.969763e+14	8.252802e+13	1.200060e+04	7.493682e+03	4.589432e+03	0	1.070430e-03
1.220000e+09	4.331174e+13	0.000000e+00	7.029701e-01	5.672411e+14	8.869497e+14	8.217665e+13	1.197086e+04	7.478387e+03	4.580065e+03	0	1.065344e-03
1.230000e+09	4.270102e+13	0.000000e+00	7.029701e-01	5.604444e+14	8.771161e+14	8.182760e+13	1.194148e+04	7.463263e+03	4.570802e+03	0	1.060313e-03
1.240000e+09	4.210254e+13	0.000000e+00	7.029701e-01	5.537818e+14	8.674697e+14	8.148086e+13	1.191244e+04	7.448308e+03	4.561643e+03	0	1.055336e-03
1.250000e+09	4.151596e+13	0.000000e+00	7.029701e-01	5.472497e+14	8.580062e+14	8.113641e+13	1.188376e+04	7.433518e+03	4.552585e+03	0	1.050412e-03
1.260000e+09	4.094095e+13	0.000000e+00	7.029701e-01	5.408445e+14	8.487204e+14	8.079422e+13	1.185541e+04	7.418891e+03	4.543627e+03	0	1.045540e-03
1.270000e+09	4.037721e+13	0.000000e+00	7.029701e-01	5.345629e+14	8.396075e+14	8.045430e+13	1.182739e+04	7.404422e+03	4.534766e+03	0	1.040719e-03
1.280000e+09	3.982443e+13	0.000000e+00	7.029701e-01	5.284015e+14	8.306634e+14	8.011661e+13	1.179969e+04	7.390111e+03	4.526001e+03	0	1.035948e-03
1.290000e+09	3.928233e+13	0.000000e+00	7.029701e-01	5.223573e+14	8.218833e+14	7.978114e+13	1.177231e+04	7.375953e+03	4.517330e+03	0	1.031226e-03
1.300000e+09	3.875062e+13	0.000000e+00	7.029701e-01	5.164271e+14	8.132632e+14	7.944787e+13	1.174525e+04	7.361945e+03	4.508751e+03	0	1.026552e-03
1.310000e+09	3.822904e+13	0.000000e+00	7.029701e-01	5.106080e+14	8.047992e+14	7.911678e+13	1.171849e+04	7.348086e+03	4.500263e+03	0	1.021925e-03
1.320000e+09	3.771732e+13	0.000000e+00	7.029701e-01	5.048971e+14	7.964870e+14	7.878787e+13	1.169203e+04	7.334372e+03	4.491864e+03	0	1.017345e-03
1.330000e+09	3.721520e+13	0.000000e+00	7.029701e-01	4.992917e+14	7.883233e+14	7.846110e+13	1.166586e+04	7.320801e+03	4.483553e+03	0	1.012810e-03
1.340000e+09	3.672244e+13	0.000000e+00	7.029701e-01	4.937891e+14	7.803038e+14	7.813647e+13	1.163999e+04	7.307370e+03	4.475328e+03	0	1.008320e-03
1.350000e+09	3.623881e+13	0.000000e+00	7.029701e-01	4.883867e+14	7.724251e+14	7.781396e+13	1.161439e+04	7.294078e+03	4.467187e+03	0	1.003874e-03
1.360000e+09	3.576406e+13	0.000000e+00	7.029701e-01	4.830819e+14	7.646841e+14	7.749355e+13	1.158908e+04	7.280920e+03	4.459128e+03	0	9.994712e-04
