#t		Qconv[W]	Ri[Rp]		R*[Rp]		Qc[W]		Qm[W]		Qr[W]		Tcmb[K]		Tl[K]		Tup[K]		RiFlag		Bs[T]
0.000000e+00	4.345383e+15	0.000000e+00	7.029704e-01	4.541550e+16	3.724789e+13	1.584555e+14	3.915159e+04	4.619636e+03	2.792767e+03	0	4.933478e-03
1.000000e+07	3.820693e+15	0.000000e+00	7.029704e-01	3.995827e+16	7.762405e+14	1.575776e+14	3.712407e+04	7.411614e+03	4.480637e+03	0	4.726336e-03
2.000000e+07	3.293785e+15	0.000000e+00	7.029704e-01	3.448033e+16	3.298486e+15	1.567062e+14	3.532855e+04	9.771186e+03	5.907099e+03	0	4.498236e-03
3.000000e+07	2.816595e+15	0.000000e+00	7.029704e-01	2.951995e+16	7.367570e+15	1.558413e+14	3.377036e+04	1.158636e+04	7.004448e+03	0	4.269582e-03
4.000000e+07	2.419374e+15	0.000000e+00	7.029704e-01	2.539041e+16	1.161364e+16	1.549829e+14	3.242985e+04	1.283285e+04	7.758006e+03	0	4.058618e-03
5.000000e+07	2.105338e+15	0.000000e+00	7.029704e-01	2.212471e+16	1.487201e+16	1.541309e+14	3.127219e+04	1.358956e+04	8.215469e+03	0	3.874816e-03
6.000000e+07	1.860797e+15	0.000000e+00	7.029704e-01	1.958062e+16	1.679673e+16	1.532852e+14	3.026002e+04	1.398463e+04	8.454307e+03	0	3.718578e-03
7.000000e+07	1.668144e+15	0.000000e+00	7.029704e-01	1.757534e+16	1.759669e+16	1.524458e+14	2.936169e+04	1.413983e+04	8.548131e+03	0	3.585544e-03
8.000000e+07	1.512609e+15	0.000000e+00	7.029704e-01	1.595561e+16	1.763275e+16	1.516127e+14	2.855339e+04	1.414672e+04	8.552293e+03	0	3.470452e-03
9.000000e+07	1.383645e+15	0.000000e+00	7.029704e-01	1.461194e+16	1.721435e+16	1.507857e+14	2.781802e+04	1.406627e+04	8.503658e+03	0	3.368879e-03
1.000000e+08	1.274168e+15	0.000000e+00	7.029704e-01	1.347081e+16	1.655422e+16	1.499649e+14	2.714328e+04	1.393661e+04	8.425273e+03	0	3.277576e-03
1.100000e+08	1.179470e+15	0.000000e+00	7.029704e-01	1.248334e+16	1.578397e+16	1.491502e+14	2.652016e+04	1.378082e+04	8.331091e+03	0	3.194279e-03
1.200000e+08	1.096366e+15	0.000000e+00	7.029704e-01	1.161646e+16	1.498014e+16	1.483416e+14	2.594179e+04	1.361265e+04	8.229426e+03	0	3.117423e-03
1.300000e+08	1.022633e+15	0.000000e+00	7.029704e-01	1.084708e+16	1.418523e+16	1.475389e+14	2.540278e+04	1.344021e+04	8.125182e+03	0	3.045910e-03
1.400000e+08	9.566632e+14	0.000000e+00	7.029704e-01	1.015848e+16	1.342150e+16	1.467422e+14	2.489878e+04	1.326825e+04	8.021225e+03	0	2.978952e-03
1.500000e+08	8.972484e+14	0.000000e+00	7.029704e-01	9.538128e+15	1.269957e+16	1.459513e+14	2.442617e+04	1.309948e+04	7.919195e+03	0	2.915959e-03
1.600000e+08	8.434524e+14	0.000000e+00	7.029704e-01	8.976280e+15	1.202351e+16	1.451663e+14	2.398187e+04	1.293540e+04	7.820003e+03	0	2.856477e-03
1.700000e+08	7.945288e+14	0.000000e+00	7.029704e-01	8.465176e+15	1.139368e+16	1.443871e+14	2.356327e+04	1.277679e+04	7.724116e+03	0	2.800144e-03
1.800000e+08	7.498690e+14	0.000000e+00	7.029704e-01	7.998487e+15	1.080854e+16	1.436136e+14	2.316809e+04	1.262398e+04	7.631735e+03	0	2.746665e-03
1.900000e+08	7.089676e+14	0.000000e+00	7.029704e-01	7.570958e+15	1.026555e+16	1.428458e+14	2.279430e+04	1.247704e+04	7.542904e+03	0	2.695789e-03
2.000000e+08	6.713992e+14	0.000000e+00	7.029704e-01	7.178160e+15	9.761803e+15	1.420837e+14	2.244016e+04	1.233589e+04	7.457570e+03	0	2.647306e-03
2.100000e+08	6.368010e+14	0.000000e+00	7.029704e-01	6.816320e+15	9.294258e+15	1.413272e+14	2.210408e+04	1.220034e+04	7.375629e+03	0	2.601028e-03
2.200000e+08	6.048613e+14	0.000000e+00	7.029704e-01	6.482193e+15	8.859961e+15	1.405762e+14	2.178467e+04	1.207019e+04	7.296943e+03	0	2.556794e-03
2.300000e+08	5.753098e+14	0.000000e+00	7.029704e-01	6.172967e+15	8.456111e+15	1.398308e+14	2.148067e+04	1.194517e+04	7.221363e+03	0	2.514458e-03
2.400000e+08	5.479111e+14	0.000000e+00	7.029704e-01	5.886189e+15	8.080129e+15	1.390908e+14	2.119094e+04	1.182503e+04	7.148735e+03	0	2.473891e-03
2.500000e+08	5.224586e+14	0.000000e+00	7.029704e-01	5.619711e+15	7.729619e+15	1.383562e+14	2.091446e+04	1.170952e+04	7.078905e+03	0	2.434975e-03
2.600000e+08	4.987705e+14	0.000000e+00	7.029704e-01	5.371637e+15	7.402415e+15	1.376270e+14	2.065031e+04	1.159839e+04	7.011722e+03	0	2.397604e-03
2.700000e+08	4.766860e+14	0.000000e+00	7.029704e-01	5.140295e+15	7.096556e+15	1.369032e+14	2.039766e+04	1.149141e+04	6.947045e+03	0	2.361681e-03
2.800000e+08	4.560624e+14	0.000000e+00	7.029704e-01	4.924197e+15	6.810245e+15	1.361846e+14	2.015572e+04	1.138834e+04	6.884736e+03	0	2.327119e-03
2.900000e+08	4.367726e+14	0.000000e+00	7.029704e-01	4.722021e+15	6.541878e+15	1.354713e+14	1.992382e+04	1.128897e+04	6.824667e+03	0	2.293836e-03
3.000000e+08	4.187034e+14	0.000000e+00	7.029704e-01	4.532585e+15	6.289993e+15	1.347632e+14	1.970130e+04	1.119312e+04	6.766717e+03	0	2.261757e-03
3.100000e+08	4.017531e+14	0.000000e+00	7.029704e-01	4.354830e+15	6.053270e+15	1.340602e+14	1.948759e+04	1.110058e+04	6.710774e+03	0	2.230815e-03
3.200000e+08	3.858305e+14	0.000000e+00	7.029704e-01	4.187807e+15	5.830513e+15	1.333623e+14	1.928215e+04	1.101118e+04	6.656730e+03	0	2.200946e-03
3.300000e+08	3.708536e+14	0.000000e+00	7.029704e-01	4.030661e+15	5.620644e+15	1.326696e+14	1.908449e+04	1.092477e+04	6.604488e+03	0	2.172091e-03
3.400000e+08	3.567484e+14	0.000000e+00	7.029704e-01	3.882619e+15	5.422681e+15	1.319818e+14	1.889415e+04	1.084118e+04	6.553954e+03	0	2.144196e-03
3.500000e+08	3.434480e+14	0.000000e+00	7.029704e-01	3.742986e+15	5.235731e+15	1.312990e+14	1.871071e+04	1.076027e+04	6.505042e+03	0	2.117211e-03
3.600000e+08	3.308918e+14	0.000000e+00	7.029704e-01	3.611129e+15	5.058983e+15	1.306212e+14	1.853379e+04	1.068191e+04	6.457670e+03	0	2.091089e-03
3.700000e+08	3.190248e+14	0.000000e+00	7.029704e-01	3.486474e+15	4.891701e+15	1.299483e+14	1.836302e+04	1.060597e+04	6.411763e+03	0	2.065786e-03
3.800000e+08	3.077971e+14	0.000000e+00	7.029704e-01	3.368502e+15	4.733217e+15	1.292803e+14	1.819808e+04	1.053234e+04	6.367250e+03	0	2.041262e-03
3.900000e+08	2.971631e+14	0.000000e+00	7.029704e-01	3.256737e+15	4.582908e+15	1.286171e+14	1.803865e+04	1.046091e+04	6.324064e+03	0	2.017478e-03
4.000000e+08	2.870813e+14	0.000000e+00	7.029704e-01	3.150745e+15	4.440213e+15	1.279587e+14	1.788446e+04	1.039156e+04	6.282143e+03	0	1.994400e-03
4.100000e+08	2.775138e+14	0.000000e+00	7.029704e-01	3.050130e+15	4.304623e+15	1.273050e+14	1.773522e+04	1.032422e+04	6.241429e+03	0	1.971993e-03
4.200000e+08	2.684257e+14	0.000000e+00	7.029704e-01	2.954531e+15	4.175664e+15	1.266561e+14	1.759070e+04	1.025877e+04	6.201866e+03	0	1.950227e-03
4.300000e+08	2.597852e+14	0.000000e+00	7.029704e-01	2.863615e+15	4.052901e+15	1.260118e+14	1.745065e+04	1.019515e+04	6.163403e+03	0	1.929073e-03
4.400000e+08	2.515631e+14	0.000000e+00	7.029704e-01	2.777076e+15	3.935934e+15	1.253721e+14	1.731487e+04	1.013327e+04	6.125991e+03	0	1.908503e-03
4.500000e+08	2.437325e+14	0.000000e+00	7.029704e-01	2.694633e+15	3.824404e+15	1.247371e+14	1.718315e+04	1.007305e+04	6.089585e+03	0	1.888491e-03
4.600000e+08	2.362686e+14	0.000000e+00	7.029704e-01	2.616029e+15	3.717965e+15	1.241066e+14	1.705530e+04	1.001442e+04	6.054142e+03	0	1.869014e-03
4.700000e+08	2.291485e+14	0.000000e+00	7.029704e-01	2.541025e+15	3.616308e+15	1.234806e+14	1.693114e+04	9.957315e+03	6.019621e+03	0	1.850047e-03
4.800000e+08	2.223513e+14	0.000000e+00	7.029704e-01	2.469400e+15	3.519143e+15	1.228592e+14	1.681051e+04	9.901674e+03	5.985984e+03	0	1.831571e-03
4.900000e+08	2.158574e+14	0.000000e+00	7.029704e-01	2.400952e+15	3.426206e+15	1.222421e+14	1.669324e+04	9.847436e+03	5.953195e+03	0	1.813564e-03
5.000000e+08	2.096489e+14	0.000000e+00	7.029704e-01	2.335493e+15	3.337248e+15	1.216295e+14	1.657919e+04	9.794543e+03	5.921219e+03	0	1.796007e-03
5.100000e+08	2.037089e+14	0.000000e+00	7.029704e-01	2.272847e+15	3.252038e+15	1.210213e+14	1.646822e+04	9.742942e+03	5.890024e+03	0	1.778882e-03
5.200000e+08	1.980220e+14	0.000000e+00	7.029704e-01	2.212853e+15	3.170366e+15	1.204174e+14	1.636019e+04	9.692583e+03	5.859580e+03	0	1.762172e-03
5.300000e+08	1.925739e+14	0.000000e+00	7.029704e-01	2.155361e+15	3.092031e+15	1.198178e+14	1.625499e+04	9.643418e+03	5.829858e+03	0	1.745861e-03
5.400000e+08	1.873512e+14	0.000000e+00	7.029704e-01	2.100231e+15	3.016851e+15	1.192224e+14	1.615250e+04	9.595401e+03	5.800829e+03	0	1.729933e-03
5.500000e+08	1.823413e+14	0.000000e+00	7.029704e-01	2.047333e+15	2.944653e+15	1.186313e+14	1.605261e+04	9.548490e+03	5.772469e+03	0	1.714374e-03
5.600000e+08	1.775328e+14	0.000000e+00	7.029704e-01	1.996545e+15	2.875279e+15	1.180445e+14	1.595521e+04	9.502642e+03	5.744752e+03	0	1.699169e-03
5.700000e+08	1.729147e+14	0.000000e+00	7.029704e-01	1.947755e+15	2.808578e+15	1.174617e+14	1.586020e+04	9.457820e+03	5.717655e+03	0	1.684307e-03
5.800000e+08	1.684771e+14	0.000000e+00	7.029704e-01	1.900857e+15	2.744410e+15	1.168832e+14	1.576750e+04	9.413986e+03	5.691156e+03	0	1.669773e-03
5.900000e+08	1.642104e+14	0.000000e+00	7.029704e-01	1.855753e+15	2.682647e+15	1.163087e+14	1.567701e+04	9.371105e+03	5.665233e+03	0	1.655557e-03
6.000000e+08	1.601059e+14	0.000000e+00	7.029704e-01	1.812350e+15	2.623166e+15	1.157382e+14	1.558864e+04	9.329144e+03	5.639865e+03	0	1.641646e-03
6.100000e+08	1.561553e+14	0.000000e+00	7.029704e-01	1.770563e+15	2.565851e+15	1.151719e+14	1.550233e+04	9.288071e+03	5.615035e+03	0	1.628031e-03
6.200000e+08	1.523509e+14	0.000000e+00	7.029704e-01	1.730309e+15	2.510595e+15	1.146095e+14	1.541799e+04	9.247855e+03	5.590723e+03	0	1.614701e-03
6.300000e+08	1.486854e+14	0.000000e+00	7.029704e-01	1.691514e+15	2.457301e+15	1.140511e+14	1.533555e+04	9.208468e+03	5.566912e+03	0	1.601646e-03
6.400000e+08	1.451521e+14	0.000000e+00	7.029704e-01	1.654106e+15	2.405871e+15	1.134966e+14	1.525495e+04	9.169882e+03	5.543584e+03	0	1.588857e-03
6.500000e+08	1.417444e+14	0.000000e+00	7.029704e-01	1.618019e+15	2.356217e+15	1.129460e+14	1.517611e+04	9.132070e+03	5.520725e+03	0	1.576325e-03
6.600000e+08	1.384566e+14	0.000000e+00	7.029704e-01	1.583189e+15	2.308256e+15	1.123993e+14	1.509898e+04	9.095007e+03	5.498319e+03	0	1.564042e-03
6.700000e+08	1.352828e+14	0.000000e+00	7.029704e-01	1.549557e+15	2.261910e+15	1.118565e+14	1.502350e+04	9.058669e+03	5.476352e+03	0	1.551999e-03
6.800000e+08	1.322177e+14	0.000000e+00	7.029704e-01	1.517068e+15	2.217103e+15	1.113175e+14	1.494961e+04	9.023033e+03	5.454808e+03	0	1.540188e-03
6.900000e+08	1.292565e+14	0.000000e+00	7.029704e-01	1.485670e+15	2.173767e+15	1.107822e+14	1.487725e+04	8.988078e+03	5.433676e+03	0	1.528603e-03
7.000000e+08	1.263942e+14	0.000000e+00	7.029704e-01	1.455313e+15	2.131836e+15	1.102507e+14	1.480639e+04	8.953781e+03	5.412942e+03	0	1.517235e-03
7.100000e+08	1.236266e+14	0.000000e+00	7.029704e-01	1.425950e+15	2.091247e+15	1.097229e+14	1.473696e+04	8.920122e+03	5.392594e+03	0	1.506079e-03
7.200000e+08	1.209494e+14	0.000000e+00	7.029704e-01	1.397537e+15	2.051942e+15	1.091988e+14	1.466892e+04	8.887083e+03	5.372621e+03	0	1.495128e-03
7.300000e+08	1.183585e+14	0.000000e+00	7.029704e-01	1.370033e+15	2.013866e+15	1.086784e+14	1.460222e+04	8.854645e+03	5.353011e+03	0	1.484375e-03
7.400000e+08	1.158503e+14	0.000000e+00	7.029704e-01	1.343398e+15	1.976966e+15	1.081616e+14	1.453683e+04	8.822790e+03	5.333753e+03	0	1.473815e-03
7.500000e+08	1.134213e+14	0.000000e+00	7.029704e-01	1.317596e+15	1.941192e+15	1.076484e+14	1.447270e+04	8.791500e+03	5.314837e+03	0	1.463441e-03
7.600000e+08	1.110680e+14	0.000000e+00	7.029704e-01	1.292591e+15	1.906497e+15	1.071388e+14	1.440980e+04	8.760760e+03	5.296253e+03	0	1.453249e-03
7.700000e+08	1.087872e+14	0.000000e+00	7.029704e-01	1.268349e+15	1.872838e+15	1.066327e+14	1.434808e+04	8.730553e+03	5.277991e+03	0	1.443233e-03
7.800000e+08	1.065760e+14	0.000000e+00	7.029704e-01	1.244839e+15	1.840169e+15	1.061302e+14	1.428750e+04	8.700864e+03	5.260043e+03	0	1.433388e-03
7.900000e+08	1.044315e+14	0.000000e+00	7.029704e-01	1.222032e+15	1.808454e+15	1.056311e+14	1.422805e+04	8.671680e+03	5.242400e+03	0	1.423708e-03
8.000000e+08	1.023510e+14	0.000000e+00	7.029704e-01	1.199898e+15	1.777653e+15	1.051355e+14	1.416967e+04	8.642985e+03	5.225053e+03	0	1.414190e-03
8.100000e+08	1.003319e+14	0.000000e+00	7.029704e-01	1.178411e+15	1.747730e+15	1.046433e+14	1.411235e+04	8.614766e+03	5.207993e+03	0	1.404829e-03
8.200000e+08	9.837175e+13	0.000000e+00	7.029704e-01	1.157545e+15	1.718651e+15	1.041546e+14	1.405605e+04	8.587011e+03	5.191214e+03	0	1.395620e-03
8.300000e+08	9.646825e+13	0.000000e+00	7.029704e-01	1.137276e+15	1.690383e+15	1.036692e+14	1.400073e+04	8.559707e+03	5.174708e+03	0	1.386560e-03
8.400000e+08	9.461917e+13	0.000000e+00	7.029704e-01	1.117580e+15	1.662896e+15	1.031872e+14	1.394638e+04	8.532841e+03	5.158466e+03	0	1.377644e-03
8.500000e+08	9.282243e+13	0.000000e+00	7.029704e-01	1.098435e+15	1.636158e+15	1.027085e+14	1.389297e+04	8.506403e+03	5.142483e+03	0	1.368868e-03
8.600000e+08	9.107602e+13	0.000000e+00	7.029704e-01	1.079821e+15	1.610144e+15	1.022331e+14	1.384046e+04	8.480381e+03	5.126752e+03	0	1.360228e-03
8.700000e+08	8.937803e+13	0.000000e+00	7.029704e-01	1.061718e+15	1.584823e+15	1.017609e+14	1.378884e+04	8.454764e+03	5.111265e+03	0	1.351722e-03
8.800000e+08	8.772665e+13	0.000000e+00	7.029704e-01	1.044106e+15	1.560173e+15	1.012920e+14	1.373808e+04	8.429542e+03	5.096018e+03	0	1.343345e-03
8.900000e+08	8.612016e+13	0.000000e+00	7.029704e-01	1.026968e+15	1.536170e+15	1.008264e+14	1.368815e+04	8.404705e+03	5.081002e+03	0	1.335095e-03
9.000000e+08	8.455690e+13	0.000000e+00	7.029704e-01	1.010285e+15	1.512787e+15	1.003639e+14	1.363904e+04	8.380243e+03	5.066214e+03	0	1.326967e-03
9.100000e+08	8.303530e+13	0.000000e+00	7.029704e-01	9.940421e+14	1.490006e+15	9.990461e+13	1.359072e+04	8.356147e+03	5.051647e+03	0	1.318959e-03
9.200000e+08	8.155387e+13	0.000000e+00	7.029704e-01	9.782229e+14	1.467802e+15	9.944846e+13	1.354318e+04	8.332407e+03	5.037295e+03	0	1.311068e-03
9.300000e+08	8.011115e+13	0.000000e+00	7.029704e-01	9.628124e+14	1.446158e+15	9.899543e+13	1.349638e+04	8.309016e+03	5.023154e+03	0	1.303291e-03
9.400000e+08	7.870580e+13	0.000000e+00	7.029704e-01	9.477962e+14	1.425053e+15	9.854549e+13	1.345032e+04	8.285964e+03	5.009219e+03	0	1.295625e-03
9.500000e+08	7.733649e+13	0.000000e+00	7.029704e-01	9.331606e+14	1.404468e+15	9.809863e+13	1.340498e+04	8.263244e+03	4.995483e+03	0	1.288068e-03
9.600000e+08	7.600198e+13	0.000000e+00	7.029704e-01	9.188924e+14	1.384386e+15	9.765481e+13	1.336033e+04	8.240847e+03	4.981943e+03	0	1.280616e-03
9.700000e+08	7.470107e+13	0.000000e+00	7.029704e-01	9.049791e+14	1.364790e+15	9.721402e+13	1.331636e+04	8.218766e+03	4.968595e+03	0	1.273267e-03
9.800000e+08	7.343261e+13	0.000000e+00	7.029704e-01	8.914086e+14	1.345663e+15	9.677622e+13	1.327305e+04	8.196994e+03	4.955433e+03	0	1.266019e-03
9.900000e+08	7.219551e+13	0.000000e+00	7.029704e-01	8.781694e+14	1.326991e+15	9.634140e+13	1.323038e+04	8.175523e+03	4.942453e+03	0	1.258869e-03
1.000000e+09	7.098871e+13	0.000000e+00	7.029704e-01	8.652504e+14	1.308758e+15	9.590954e+13	1.318835e+04	8.154347e+03	4.929651e+03	0	1.251815e-03
1.010000e+09	6.981122e+13	0.000000e+00	7.029704e-01	8.526412e+14	1.290950e+15	9.548060e+13	1.314693e+04	8.133459e+03	4.917023e+03	0	1.244855e-03
1.020000e+09	6.866207e+13	0.000000e+00	7.029704e-01	8.403315e+14	1.273553e+15	9.505456e+13	1.310611e+04	8.112852e+03	4.904565e+03	0	1.237987e-03
1.030000e+09	6.754033e+13	0.000000e+00	7.029704e-01	8.283117e+14	1.256554e+15	9.463141e+13	1.306588e+04	8.092519e+03	4.892273e+03	0	1.231208e-03
1.040000e+09	6.644511e+13	0.000000e+00	7.029704e-01	8.165724e+14	1.239941e+15	9.421112e+13	1.302622e+04	8.072456e+03	4.880144e+03	0	1.224517e-03
1.050000e+09	6.537558e+13	0.000000e+00	7.029704e-01	8.051046e+14	1.223701e+15	9.379367e+13	1.298712e+04	8.052656e+03	4.868174e+03	0	1.217911e-03
1.060000e+09	6.433090e+13	0.000000e+00	7.029704e-01	7.938999e+14	1.207823e+15	9.337904e+13	1.294857e+04	8.033113e+03	4.856359e+03	0	1.211389e-03
1.070000e+09	6.331030e+13	0.000000e+00	7.029704e-01	7.829499e+14	1.192296e+15	9.296719e+13	1.291055e+04	8.013822e+03	4.844697e+03	0	1.204949e-03
1.080000e+09	6.231303e+13	0.000000e+00	7.029704e-01	7.722467e+14	1.177108e+15	9.255812e+13	1.287305e+04	7.994776e+03	4.833183e+03	0	1.198589e-03
1.090000e+09	6.133835e+13	0.000000e+00	7.029704e-01	7.617828e+14	1.162249e+15	9.215180e+13	1.283606e+04	7.975972e+03	4.821815e+03	0	1.192306e-03
1.100000e+09	6.038558e+13	0.000000e+00	7.029704e-01	7.515508e+14	1.147711e+15	9.174821e+13	1.279957e+04	7.957404e+03	4.810590e+03	0	1.186101e-03
1.110000e+09	5.945405e+13	0.000000e+00	7.029704e-01	7.415436e+14	1.133482e+15	9.134732e+13	1.276357e+04	7.939067e+03	4.799505e+03	0	1.179970e-03
1.120000e+09	5.854312e+13	0.000000e+00	7.029704e-01	7.317546e+14	1.119555e+15	9.094912e+13	1.272804e+04	7.920957e+03	4.788556e+03	0	1.173913e-03
1.130000e+09	5.765216e+13	0.000000e+00	7.029704e-01	7.221772e+14	1.105919e+15	9.055358e+13	1.269298e+04	7.903067e+03	4.777741e+03	0	1.167927e-03
1.140000e+09	5.678059e+13	0.000000e+00	7.029704e-01	7.128051e+14	1.092567e+15	9.016069e+13	1.265838e+04	7.885395e+03	4.767058e+03	0	1.162012e-03
1.150000e+09	5.592782e+13	0.000000e+00	7.029704e-01	7.036324e+14	1.079490e+15	8.977042e+13	1.262422e+04	7.867936e+03	4.756503e+03	0	1.156165e-03
1.160000e+09	5.509332e+13	0.000000e+00	7.029704e-01	6.946531e+14	1.066681e+15	8.938276e+13	1.259051e+04	7.850684e+03	4.746074e+03	0	1.150386e-03
1.170000e+09	5.427654e+13	0.000000e+00	7.029704e-01	6.858618e+14	1.054132e+15	8.899767e+13	1.255722e+04	7.833637e+03	4.735768e+03	0	1.144672e-03
1.180000e+09	5.347698e+13	0.000000e+00	7.029704e-01	6.772530e+14	1.041835e+15	8.861515e+13	1.252435e+04	7.816791e+03	4.725583e+03	0	1.139024e-03
1.190000e+09	5.269414e+13	0.000000e+00	7.029704e-01	6.688216e+14	1.029784e+15	8.823517e+13	1.249189e+04	7.800140e+03	4.715517e+03	0	1.133438e-03
1.200000e+09	5.192755e+13	0.000000e+00	7.029704e-01	6.605624e+14	1.017971e+15	8.785772e+13	1.245983e+04	7.783682e+03	4.705567e+03	0	1.127915e-03
1.210000e+09	5.117675e+13	0.000000e+00	7.029704e-01	6.524708e+14	1.006390e+15	8.748277e+13	1.242817e+04	7.767412e+03	4.695732e+03	0	1.122453e-03
1.220000e+09	5.044130e+13	0.000000e+00	7.029704e-01	6.445420e+14	9.950349e+14	8.711030e+13	1.239689e+04	7.751327e+03	4.686008e+03	0	1.117050e-03
1.230000e+09	4.972077e+13	0.000000e+00	7.029704e-01	6.367716e+14	9.838995e+14	8.674029e+13	1.236599e+04	7.735424e+03	4.676394e+03	0	1.111706e-03
1.240000e+09	4.901475e+13	0.000000e+00	7.029704e-01	6.291552e+14	9.729776e+14	8.637274e+13	1.233546e+04	7.719699e+03	4.666887e+03	0	1.106418e-03
1.250000e+09	4.832284e+13	0.000000e+00	7.029704e-01	6.216886e+14	9.622638e+14	8.600760e+13	1.230530e+04	7.704149e+03	4.657487e+03	0	1.101188e-03
1.260000e+09	4.764466e+13	0.000000e+00	7.029704e-01	6.143677e+14	9.517522e+14	8.564488e+13	1.227549e+04	7.688770e+03	4.648189e+03	0	1.096012e-03
1.270000e+09	4.697984e+13	0.000000e+00	7.029704e-01	6.071888e+14	9.414381e+14	8.528455e+13	1.224603e+04	7.673560e+03	4.638994e+03	0	1.090890e-03
1.280000e+09	4.632802e+13	0.000000e+00	7.029704e-01	6.001479e+14	9.313154e+14	8.492658e+13	1.221691e+04	7.658514e+03	4.629898e+03	0	1.085821e-03
1.290000e+09	4.568885e+13	0.000000e+00	7.029704e-01	5.932415e+14	9.213800e+14	8.457097e+13	1.218813e+04	7.643631e+03	4.620901e+03	0	1.080805e-03
1.300000e+09	4.506201e+13	0.000000e+00	7.029704e-01	5.864660e+14	9.116266e+14	8.421769e+13	1.215968e+04	7.628907e+03	4.611999e+03	0	1.075839e-03
1.310000e+09	4.444716e+13	0.000000e+00	7.029704e-01	5.798180e+14	9.020507e+14	8.386673e+13	1.213156e+04	7.614339e+03	4.603193e+03	0	1.070924e-03
1.320000e+09	4.384400e+13	0.000000e+00	7.029704e-01	5.732942e+14	8.926479e+14	8.351806e+13	1.210375e+04	7.599925e+03	4.594479e+03	0	1.066057e-03
1.330000e+09	4.325222e+13	0.000000e+00	7.029704e-01	5.668915e+14	8.834137e+14	8.317168e+13	1.207625e+04	7.585661e+03	4.585856e+03	0	1.061239e-03
1.340000e+09	4.267154e+13	0.000000e+00	7.029704e-01	5.606067e+14	8.743436e+14	8.282756e+13	1.204906e+04	7.571546e+03	4.577323e+03	0	1.056469e-03
1.350000e+09	4.210166e+13	0.000000e+00	7.029704e-01	5.544368e+14	8.654339e+14	8.248569e+13	1.202217e+04	7.557577e+03	4.568877e+03	0	1.051744e-03
1.360000e+09	4.154231e+13	0.000000e+00	7.029704e-01	5.483790e+14	8.566808e+14	8.214604e+13	1.199557e+04	7.543750e+03	4.560519e+03	0	1.047066e-03
