#t		Qconv[W]	Ri[Rp]		R*[Rp]		Qc[W]		Qm[W]		Qr[W]		Tcmb[K]		Tl[K]		Tup[K]		RiFlag		Bs[T]
0.000000e+00	9.619962e+15	0.000000e+00	7.000003e-01	8.813561e+16	2.943386e+13	2.024488e+14	5.188786e+04	5.070481e+03	2.930312e+03	0	6.406648e-03
1.000000e+07	8.328574e+15	0.000000e+00	7.000003e-01	7.637074e+16	1.588565e+15	2.013271e+14	4.896109e+04	9.399951e+03	5.432382e+03	0	6.106092e-03
2.000000e+07	7.036136e+15	0.000000e+00	7.000003e-01	6.460247e+16	7.961591e+15	2.002138e+14	4.640577e+04	1.296498e+04	7.492671e+03	0	5.772330e-03
3.000000e+07	5.912096e+15	0.000000e+00	7.000003e-01	5.436831e+16	1.792332e+16	1.991088e+14	4.423041e+04	1.553565e+04	8.978301e+03	0	5.446952e-03
4.000000e+07	5.031261e+15	0.000000e+00	7.000003e-01	4.634627e+16	2.705205e+16	1.980120e+14	4.239019e+04	1.711628e+04	9.891770e+03	0	5.161771e-03
5.000000e+07	4.372100e+15	0.000000e+00	7.000003e-01	4.033980e+16	3.278802e+16	1.969234e+14	4.081502e+04	1.793032e+04	1.036222e+04	0	4.925721e-03
6.000000e+07	3.875383e+15	0.000000e+00	7.000003e-01	3.581048e+16	3.523526e+16	1.958430e+14	3.943945e+04	1.824851e+04	1.054611e+04	0	4.731636e-03
7.000000e+07	3.487892e+15	0.000000e+00	7.000003e-01	3.227464e+16	3.548365e+16	1.947706e+14	3.821500e+04	1.827997e+04	1.056428e+04	0	4.568365e-03
8.000000e+07	3.173466e+15	0.000000e+00	7.000003e-01	2.940365e+16	3.451776e+16	1.937061e+14	3.710886e+04	1.815680e+04	1.049310e+04	0	4.426744e-03
9.000000e+07	2.909767e+15	0.000000e+00	7.000003e-01	2.699451e+16	3.297306e+16	1.926496e+14	3.609904e+04	1.795492e+04	1.037644e+04	0	4.300568e-03
1.000000e+08	2.683159e+15	0.000000e+00	7.000003e-01	2.492322e+16	3.120688e+16	1.916009e+14	3.517023e+04	1.771617e+04	1.023846e+04	0	4.185897e-03
1.100000e+08	2.485054e+15	0.000000e+00	7.000003e-01	2.311168e+16	2.940582e+16	1.905600e+14	3.431123e+04	1.746316e+04	1.009224e+04	0	4.080234e-03
1.200000e+08	2.309761e+15	0.000000e+00	7.000003e-01	2.150812e+16	2.766159e+16	1.895268e+14	3.351340e+04	1.720799e+04	9.944775e+03	0	3.981947e-03
1.300000e+08	2.153294e+15	0.000000e+00	7.000003e-01	2.007626e+16	2.601549e+16	1.885013e+14	3.276982e+04	1.695705e+04	9.799748e+03	0	3.889922e-03
1.400000e+08	2.012709e+15	0.000000e+00	7.000003e-01	1.878930e+16	2.448273e+16	1.874834e+14	3.207479e+04	1.671356e+04	9.659031e+03	0	3.803354e-03
1.500000e+08	1.885738e+15	0.000000e+00	7.000003e-01	1.762658e+16	2.306532e+16	1.864729e+14	3.142347e+04	1.647904e+04	9.523502e+03	0	3.721633e-03
1.600000e+08	1.770576e+15	0.000000e+00	7.000003e-01	1.657165e+16	2.175878e+16	1.854700e+14	3.081170e+04	1.625408e+04	9.393493e+03	0	3.644276e-03
1.700000e+08	1.665744e+15	0.000000e+00	7.000003e-01	1.561103e+16	2.055586e+16	1.844744e+14	3.023588e+04	1.603872e+04	9.269031e+03	0	3.570885e-03
1.800000e+08	1.570011e+15	0.000000e+00	7.000003e-01	1.473351e+16	1.944824e+16	1.834862e+14	2.969284e+04	1.583273e+04	9.149985e+03	0	3.501123e-03
1.900000e+08	1.482338e+15	0.000000e+00	7.000003e-01	1.392961e+16	1.842760e+16	1.825053e+14	2.917980e+04	1.563573e+04	9.036138e+03	0	3.434700e-03
2.000000e+08	1.401836e+15	0.000000e+00	7.000003e-01	1.319123e+16	1.748594e+16	1.815316e+14	2.869428e+04	1.544729e+04	8.927235e+03	0	3.371363e-03
2.100000e+08	1.327739e+15	0.000000e+00	7.000003e-01	1.251138e+16	1.661588e+16	1.805650e+14	2.823407e+04	1.526694e+04	8.823008e+03	0	3.310885e-03
2.200000e+08	1.259385e+15	0.000000e+00	7.000003e-01	1.188401e+16	1.581074e+16	1.796055e+14	2.779719e+04	1.509421e+04	8.723187e+03	0	3.253064e-03
2.300000e+08	1.196193e+15	0.000000e+00	7.000003e-01	1.130384e+16	1.506442e+16	1.786531e+14	2.738186e+04	1.492866e+04	8.627514e+03	0	3.197719e-03
2.400000e+08	1.137658e+15	0.000000e+00	7.000003e-01	1.076625e+16	1.437148e+16	1.777077e+14	2.698649e+04	1.476986e+04	8.535740e+03	0	3.144684e-03
2.500000e+08	1.083334e+15	0.000000e+00	7.000003e-01	1.026715e+16	1.372704e+16	1.767692e+14	2.660964e+04	1.461741e+04	8.447634e+03	0	3.093811e-03
2.600000e+08	1.032825e+15	0.000000e+00	7.000003e-01	9.802974e+15	1.312675e+16	1.758375e+14	2.625000e+04	1.447092e+04	8.362978e+03	0	3.044963e-03
2.700000e+08	9.857843e+14	0.000000e+00	7.000003e-01	9.370518e+15	1.256668e+16	1.749127e+14	2.590638e+04	1.433006e+04	8.281568e+03	0	2.998015e-03
2.800000e+08	9.419011e+14	0.000000e+00	7.000003e-01	8.966956e+15	1.204334e+16	1.739946e+14	2.557770e+04	1.419448e+04	8.203217e+03	0	2.952851e-03
2.900000e+08	9.008992e+14	0.000000e+00	7.000003e-01	8.589767e+15	1.155360e+16	1.730833e+14	2.526297e+04	1.406389e+04	8.127748e+03	0	2.909367e-03
3.000000e+08	8.625320e+14	0.000000e+00	7.000003e-01	8.236697e+15	1.109463e+16	1.721785e+14	2.496130e+04	1.393801e+04	8.055000e+03	0	2.867465e-03
3.100000e+08	8.265784e+14	0.000000e+00	7.000003e-01	7.905727e+15	1.066391e+16	1.712804e+14	2.467186e+04	1.381658e+04	7.984821e+03	0	2.827056e-03
3.200000e+08	7.928401e+14	0.000000e+00	7.000003e-01	7.595045e+15	1.025915e+16	1.703888e+14	2.439390e+04	1.369934e+04	7.917070e+03	0	2.788057e-03
3.300000e+08	7.611385e+14	0.000000e+00	7.000003e-01	7.303019e+15	9.878308e+15	1.695037e+14	2.412671e+04	1.358609e+04	7.851617e+03	0	2.750390e-03
3.400000e+08	7.313127e+14	0.000000e+00	7.000003e-01	7.028179e+15	9.519512e+15	1.686250e+14	2.386967e+04	1.347660e+04	7.788342e+03	0	2.713985e-03
3.500000e+08	7.032172e+14	0.000000e+00	7.000003e-01	6.769196e+15	9.181077e+15	1.677526e+14	2.362218e+04	1.337068e+04	7.727130e+03	0	2.678775e-03
3.600000e+08	6.767205e+14	0.000000e+00	7.000003e-01	6.524866e+15	8.861480e+15	1.668866e+14	2.338369e+04	1.326815e+04	7.667877e+03	0	2.644699e-03
3.700000e+08	6.517031e+14	0.000000e+00	7.000003e-01	6.294097e+15	8.559341e+15	1.660269e+14	2.315371e+04	1.316884e+04	7.610485e+03	0	2.611698e-03
3.800000e+08	6.280564e+14	0.000000e+00	7.000003e-01	6.075899e+15	8.273390e+15	1.651734e+14	2.293176e+04	1.307259e+04	7.554861e+03	0	2.579720e-03
3.900000e+08	6.056818e+14	0.000000e+00	7.000003e-01	5.869366e+15	8.002475e+15	1.643261e+14	2.271742e+04	1.297926e+04	7.500921e+03	0	2.548715e-03
4.000000e+08	5.844893e+14	0.000000e+00	7.000003e-01	5.673677e+15	7.745553e+15	1.634849e+14	2.251028e+04	1.288870e+04	7.448583e+03	0	2.518635e-03
4.100000e+08	5.643965e+14	0.000000e+00	7.000003e-01	5.488078e+15	7.501661e+15	1.626497e+14	2.230996e+04	1.280078e+04	7.397773e+03	0	2.489437e-03
4.200000e+08	5.453283e+14	0.000000e+00	7.000003e-01	5.311882e+15	7.269922e+15	1.618206e+14	2.211613e+04	1.271538e+04	7.348421e+03	0	2.461080e-03
4.300000e+08	5.272157e+14	0.000000e+00	7.000003e-01	5.144458e+15	7.049526e+15	1.609974e+14	2.192845e+04	1.263239e+04	7.300460e+03	0	2.433525e-03
4.400000e+08	5.099955e+14	0.000000e+00	7.000003e-01	4.985227e+15	6.839740e+15	1.601802e+14	2.174662e+04	1.255170e+04	7.253827e+03	0	2.406737e-03
4.500000e+08	4.936098e+14	0.000000e+00	7.000003e-01	4.833657e+15	6.639873e+15	1.593688e+14	2.157036e+04	1.247321e+04	7.208466e+03	0	2.380680e-03
4.600000e+08	4.780049e+14	0.000000e+00	7.000003e-01	4.689260e+15	6.449306e+15	1.585633e+14	2.139940e+04	1.239682e+04	7.164320e+03	0	2.355323e-03
4.700000e+08	4.631317e+14	0.000000e+00	7.000003e-01	4.551585e+15	6.267462e+15	1.577636e+14	2.123349e+04	1.232245e+04	7.121339e+03	0	2.330637e-03
4.800000e+08	4.489448e+14	0.000000e+00	7.000003e-01	4.420216e+15	6.093803e+15	1.569695e+14	2.107241e+04	1.225000e+04	7.079472e+03	0	2.306592e-03
4.900000e+08	4.354023e+14	0.000000e+00	7.000003e-01	4.294769e+15	5.927833e+15	1.561812e+14	2.091593e+04	1.217941e+04	7.038675e+03	0	2.283162e-03
5.000000e+08	4.224653e+14	0.000000e+00	7.000003e-01	4.174889e+15	5.769103e+15	1.553985e+14	2.076384e+04	1.211059e+04	6.998903e+03	0	2.260321e-03
5.100000e+08	4.100980e+14	0.000000e+00	7.000003e-01	4.060246e+15	5.617184e+15	1.546214e+14	2.061596e+04	1.204347e+04	6.960115e+03	0	2.238046e-03
5.200000e+08	3.982670e+14	0.000000e+00	7.000003e-01	3.950536e+15	5.471690e+15	1.538498e+14	2.047210e+04	1.197799e+04	6.922273e+03	0	2.216314e-03
5.300000e+08	3.869416e+14	0.000000e+00	7.000003e-01	3.845475e+15	5.332253e+15	1.530837e+14	2.033210e+04	1.191408e+04	6.885340e+03	0	2.195103e-03
5.400000e+08	3.760929e+14	0.000000e+00	7.000003e-01	3.744802e+15	5.198531e+15	1.523231e+14	2.019577e+04	1.185169e+04	6.849280e+03	0	2.174394e-03
5.500000e+08	3.656944e+14	0.000000e+00	7.000003e-01	3.648270e+15	5.070213e+15	1.515679e+14	2.006299e+04	1.179075e+04	6.814061e+03	0	2.154166e-03
5.600000e+08	3.557212e+14	0.000000e+00	7.000003e-01	3.555653e+15	4.947006e+15	1.508181e+14	1.993360e+04	1.173121e+04	6.779652e+03	0	2.134403e-03
5.700000e+08	3.461501e+14	0.000000e+00	7.000003e-01	3.466739e+15	4.828633e+15	1.500736e+14	1.980746e+04	1.167301e+04	6.746021e+03	0	2.115085e-03
5.800000e+08	3.369596e+14	0.000000e+00	7.000003e-01	3.381328e+15	4.714839e+15	1.493344e+14	1.968445e+04	1.161612e+04	6.713142e+03	0	2.096198e-03
5.900000e+08	3.281295e+14	0.000000e+00	7.000003e-01	3.299237e+15	4.605387e+15	1.486004e+14	1.956444e+04	1.156048e+04	6.680986e+03	0	2.077726e-03
6.000000e+08	3.196410e+14	0.000000e+00	7.000003e-01	3.220293e+15	4.500051e+15	1.478716e+14	1.944732e+04	1.150605e+04	6.649529e+03	0	2.059652e-03
6.100000e+08	3.114764e+14	0.000000e+00	7.000003e-01	3.144334e+15	4.398624e+15	1.471480e+14	1.933298e+04	1.145278e+04	6.618746e+03	0	2.041964e-03
6.200000e+08	3.036193e+14	0.000000e+00	7.000003e-01	3.071209e+15	4.300911e+15	1.464294e+14	1.922132e+04	1.140064e+04	6.588614e+03	0	2.024648e-03
6.300000e+08	2.960543e+14	0.000000e+00	7.000003e-01	3.000775e+15	4.206726e+15	1.457160e+14	1.911223e+04	1.134959e+04	6.559111e+03	0	2.007691e-03
6.400000e+08	2.887668e+14	0.000000e+00	7.000003e-01	2.932901e+15	4.115897e+15	1.450076e+14	1.900562e+04	1.129959e+04	6.530214e+03	0	1.991081e-03
6.500000e+08	2.817432e+14	0.000000e+00	7.000003e-01	2.867461e+15	4.028259e+15	1.443041e+14	1.890140e+04	1.125061e+04	6.501905e+03	0	1.974805e-03
6.600000e+08	2.749709e+14	0.000000e+00	7.000003e-01	2.804338e+15	3.943669e+15	1.436057e+14	1.879949e+04	1.120260e+04	6.474164e+03	0	1.958854e-03
6.700000e+08	2.684377e+14	0.000000e+00	7.000003e-01	2.743421e+15	3.861975e+15	1.429121e+14	1.869980e+04	1.115555e+04	6.446972e+03	0	1.943215e-03
6.800000e+08	2.621323e+14	0.000000e+00	7.000003e-01	2.684607e+15	3.783049e+15	1.422234e+14	1.860227e+04	1.110942e+04	6.420312e+03	0	1.927880e-03
6.900000e+08	2.560443e+14	0.000000e+00	7.000003e-01	2.627799e+15	3.706757e+15	1.415396e+14	1.850681e+04	1.106418e+04	6.394167e+03	0	1.912838e-03
7.000000e+08	2.501634e+14	0.000000e+00	7.000003e-01	2.572903e+15	3.632986e+15	1.408605e+14	1.841335e+04	1.101980e+04	6.368521e+03	0	1.898079e-03
7.100000e+08	2.444804e+14	0.000000e+00	7.000003e-01	2.519835e+15	3.561619e+15	1.401862e+14	1.832183e+04	1.097626e+04	6.343358e+03	0	1.883596e-03
7.200000e+08	2.389862e+14	0.000000e+00	7.000003e-01	2.468511e+15	3.492551e+15	1.395166e+14	1.823218e+04	1.093353e+04	6.318664e+03	0	1.869379e-03
7.300000e+08	2.336726e+14	0.000000e+00	7.000003e-01	2.418854e+15	3.425681e+15	1.388517e+14	1.814435e+04	1.089159e+04	6.294424e+03	0	1.855420e-03
7.400000e+08	2.285314e+14	0.000000e+00	7.000003e-01	2.370791e+15	3.360914e+15	1.381914e+14	1.805827e+04	1.085041e+04	6.270626e+03	0	1.841712e-03
7.500000e+08	2.235553e+14	0.000000e+00	7.000003e-01	2.324254e+15	3.298161e+15	1.375357e+14	1.797389e+04	1.080997e+04	6.247255e+03	0	1.828247e-03
7.600000e+08	2.187371e+14	0.000000e+00	7.000003e-01	2.279177e+15	3.237334e+15	1.368846e+14	1.789115e+04	1.077025e+04	6.224299e+03	0	1.815017e-03
7.700000e+08	2.140702e+14	0.000000e+00	7.000003e-01	2.235497e+15	3.178356e+15	1.362380e+14	1.781001e+04	1.073123e+04	6.201747e+03	0	1.802015e-03
7.800000e+08	2.095480e+14	0.000000e+00	7.000003e-01	2.193158e+15	3.121148e+15	1.355959e+14	1.773041e+04	1.069288e+04	6.179586e+03	0	1.789236e-03
7.900000e+08	2.051647e+14	0.000000e+00	7.000003e-01	2.152102e+15	3.065639e+15	1.349583e+14	1.765231e+04	1.065519e+04	6.157806e+03	0	1.776672e-03
8.000000e+08	2.009145e+14	0.000000e+00	7.000003e-01	2.112278e+15	3.011759e+15	1.343251e+14	1.757566e+04	1.061815e+04	6.136396e+03	0	1.764318e-03
8.100000e+08	1.967919e+14	0.000000e+00	7.000003e-01	2.073635e+15	2.959443e+15	1.336963e+14	1.750042e+04	1.058172e+04	6.115346e+03	0	1.752167e-03
8.200000e+08	1.927918e+14	0.000000e+00	7.000003e-01	2.036127e+15	2.908630e+15	1.330718e+14	1.742654e+04	1.054590e+04	6.094646e+03	0	1.740214e-03
8.300000e+08	1.889094e+14	0.000000e+00	7.000003e-01	1.999707e+15	2.859260e+15	1.324517e+14	1.735400e+04	1.051067e+04	6.074285e+03	0	1.728453e-03
8.400000e+08	1.851400e+14	0.000000e+00	7.000003e-01	1.964334e+15	2.811278e+15	1.318358e+14	1.728274e+04	1.047602e+04	6.054256e+03	0	1.716879e-03
8.500000e+08	1.814791e+14	0.000000e+00	7.000003e-01	1.929966e+15	2.764629e+15	1.312242e+14	1.721273e+04	1.044192e+04	6.034550e+03	0	1.705488e-03
8.600000e+08	1.779225e+14	0.000000e+00	7.000003e-01	1.896565e+15	2.719264e+15	1.306168e+14	1.714395e+04	1.040836e+04	6.015157e+03	0	1.694273e-03
8.700000e+08	1.744663e+14	0.000000e+00	7.000003e-01	1.864094e+15	2.675133e+15	1.300136e+14	1.707634e+04	1.037533e+04	5.996070e+03	0	1.683231e-03
8.800000e+08	1.711067e+14	0.000000e+00	7.000003e-01	1.832518e+15	2.632193e+15	1.294146e+14	1.700989e+04	1.034282e+04	5.977281e+03	0	1.672356e-03
8.900000e+08	1.678399e+14	0.000000e+00	7.000003e-01	1.801803e+15	2.590397e+15	1.288196e+14	1.694455e+04	1.031081e+04	5.958782e+03	0	1.661645e-03
9.000000e+08	1.646627e+14	0.000000e+00	7.000003e-01	1.771918e+15	2.549704e+15	1.282287e+14	1.688030e+04	1.027929e+04	5.940565e+03	0	1.651093e-03
9.100000e+08	1.615716e+14	0.000000e+00	7.000003e-01	1.742833e+15	2.510075e+15	1.276419e+14	1.681711e+04	1.024824e+04	5.922624e+03	0	1.640696e-03
9.200000e+08	1.585635e+14	0.000000e+00	7.000003e-01	1.714517e+15	2.471471e+15	1.270591e+14	1.675496e+04	1.021767e+04	5.904953e+03	0	1.630450e-03
9.300000e+08	1.556354e+14	0.000000e+00	7.000003e-01	1.686944e+15	2.433856e+15	1.264803e+14	1.669380e+04	1.018754e+04	5.887543e+03	0	1.620352e-03
9.400000e+08	1.527845e+14	0.000000e+00	7.000003e-01	1.660087e+15	2.397196e+15	1.259055e+14	1.663363e+04	1.015786e+04	5.870389e+03	0	1.610397e-03
9.500000e+08	1.500080e+14	0.000000e+00	7.000003e-01	1.633920e+15	2.361457e+15	1.253345e+14	1.657440e+04	1.012861e+04	5.853485e+03	0	1.600582e-03
9.600000e+08	1.473033e+14	0.000000e+00	7.000003e-01	1.608421e+15	2.326605e+15	1.247675e+14	1.651611e+04	1.009978e+04	5.836824e+03	0	1.590904e-03
9.700000e+08	1.446678e+14	0.000000e+00	7.000003e-01	1.583565e+15	2.292614e+15	1.242043e+14	1.645871e+04	1.007136e+04	5.820401e+03	0	1.581359e-03
9.800000e+08	1.420993e+14	0.000000e+00	7.000003e-01	1.559330e+15	2.259451e+15	1.236450e+14	1.640220e+04	1.004335e+04	5.804211e+03	0	1.571944e-03
9.900000e+08	1.395954e+14	0.000000e+00	7.000003e-01	1.535696e+15	2.227092e+15	1.230894e+14	1.634656e+04	1.001572e+04	5.788247e+03	0	1.562656e-03
1.000000e+09	1.371539e+14	0.000000e+00	7.000003e-01	1.512642e+15	2.195506e+15	1.225377e+14	1.629174e+04	9.988485e+03	5.772505e+03	0	1.553492e-03
1.010000e+09	1.347727e+14	0.000000e+00	7.000003e-01	1.490148e+15	2.164671e+15	1.219896e+14	1.623775e+04	9.961620e+03	5.756979e+03	0	1.544449e-03
1.020000e+09	1.324498e+14	0.000000e+00	7.000003e-01	1.468197e+15	2.134562e+15	1.214453e+14	1.618456e+04	9.935121e+03	5.741665e+03	0	1.535525e-03
1.030000e+09	1.301833e+14	0.000000e+00	7.000003e-01	1.446771e+15	2.105154e+15	1.209047e+14	1.613214e+04	9.908980e+03	5.726558e+03	0	1.526716e-03
1.040000e+09	1.279713e+14	0.000000e+00	7.000003e-01	1.425851e+15	2.076425e+15	1.203677e+14	1.608049e+04	9.883189e+03	5.711653e+03	0	1.518019e-03
1.050000e+09	1.258121e+14	0.000000e+00	7.000003e-01	1.405423e+15	2.048353e+15	1.198344e+14	1.602958e+04	9.857740e+03	5.696946e+03	0	1.509433e-03
1.060000e+09	1.237040e+14	0.000000e+00	7.000003e-01	1.385469e+15	2.020918e+15	1.193046e+14	1.597939e+04	9.832626e+03	5.682432e+03	0	1.500955e-03
1.070000e+09	1.216453e+14	0.000000e+00	7.000003e-01	1.365976e+15	1.994101e+15	1.187784e+14	1.592992e+04	9.807839e+03	5.668107e+03	0	1.492582e-03
1.080000e+09	1.196345e+14	0.000000e+00	7.000003e-01	1.346929e+15	1.967881e+15	1.182558e+14	1.588113e+04	9.783372e+03	5.653967e+03	0	1.484312e-03
1.090000e+09	1.176701e+14	0.000000e+00	7.000003e-01	1.328314e+15	1.942241e+15	1.177366e+14	1.583302e+04	9.759219e+03	5.640009e+03	0	1.476143e-03
1.100000e+09	1.157505e+14	0.000000e+00	7.000003e-01	1.310117e+15	1.917162e+15	1.172210e+14	1.578558e+04	9.735372e+03	5.626227e+03	0	1.468072e-03
1.110000e+09	1.138745e+14	0.000000e+00	7.000003e-01	1.292325e+15	1.892628e+15	1.167088e+14	1.573878e+04	9.711826e+03	5.612619e+03	0	1.460098e-03
1.120000e+09	1.120407e+14	0.000000e+00	7.000003e-01	1.274927e+15	1.868623e+15	1.162000e+14	1.569261e+04	9.688573e+03	5.599181e+03	0	1.452218e-03
1.130000e+09	1.102479e+14	0.000000e+00	7.000003e-01	1.257911e+15	1.845131e+15	1.156947e+14	1.564706e+04	9.665609e+03	5.585910e+03	0	1.444430e-03
1.140000e+09	1.084947e+14	0.000000e+00	7.000003e-01	1.241264e+15	1.822136e+15	1.151927e+14	1.560212e+04	9.642926e+03	5.572801e+03	0	1.436732e-03
1.150000e+09	1.067800e+14	0.000000e+00	7.000003e-01	1.224976e+15	1.799624e+15	1.146941e+14	1.555777e+04	9.620520e+03	5.559852e+03	0	1.429123e-03
1.160000e+09	1.051027e+14	0.000000e+00	7.000003e-01	1.209037e+15	1.777580e+15	1.141988e+14	1.551399e+04	9.598384e+03	5.547060e+03	0	1.421601e-03
1.170000e+09	1.034616e+14	0.000000e+00	7.000003e-01	1.193437e+15	1.755993e+15	1.137068e+14	1.547079e+04	9.576514e+03	5.534420e+03	0	1.414163e-03
1.180000e+09	1.018557e+14	0.000000e+00	7.000003e-01	1.178164e+15	1.734848e+15	1.132181e+14	1.542814e+04	9.554903e+03	5.521931e+03	0	1.406808e-03
1.190000e+09	1.002840e+14	0.000000e+00	7.000003e-01	1.163211e+15	1.714132e+15	1.127326e+14	1.538603e+04	9.533547e+03	5.509589e+03	0	1.399535e-03
1.200000e+09	9.874546e+13	0.000000e+00	7.000003e-01	1.148567e+15	1.693835e+15	1.122504e+14	1.534445e+04	9.512441e+03	5.497391e+03	0	1.392341e-03
1.210000e+09	9.723919e+13	0.000000e+00	7.000003e-01	1.134225e+15	1.673944e+15	1.117713e+14	1.530340e+04	9.491579e+03	5.485335e+03	0	1.385225e-03
1.220000e+09	9.576424e+13	0.000000e+00	7.000003e-01	1.120175e+15	1.654447e+15	1.112954e+14	1.526285e+04	9.470958e+03	5.473418e+03	0	1.378185e-03
1.230000e+09	9.431974e+13	0.000000e+00	7.000003e-01	1.106410e+15	1.635336e+15	1.108227e+14	1.522281e+04	9.450572e+03	5.461637e+03	0	1.371221e-03
1.240000e+09	9.290484e+13	0.000000e+00	7.000003e-01	1.092922e+15	1.616597e+15	1.103531e+14	1.518325e+04	9.430417e+03	5.449989e+03	0	1.364329e-03
1.250000e+09	9.151872e+13	0.000000e+00	7.000003e-01	1.079702e+15	1.598222e+15	1.098866e+14	1.514418e+04	9.410489e+03	5.438472e+03	0	1.357510e-03
1.260000e+09	9.016058e+13	0.000000e+00	7.000003e-01	1.066744e+15	1.580200e+15	1.094232e+14	1.510557e+04	9.390783e+03	5.427084e+03	0	1.350761e-03
1.270000e+09	8.882966e+13	0.000000e+00	7.000003e-01	1.054041e+15	1.562523e+15	1.089628e+14	1.506743e+04	9.371296e+03	5.415822e+03	0	1.344082e-03
1.280000e+09	8.752522e+13	0.000000e+00	7.000003e-01	1.041585e+15	1.545181e+15	1.085054e+14	1.502974e+04	9.352023e+03	5.404683e+03	0	1.337470e-03
1.290000e+09	8.624656e+13	0.000000e+00	7.000003e-01	1.029370e+15	1.528165e+15	1.080511e+14	1.499249e+04	9.332960e+03	5.393666e+03	0	1.330925e-03
1.300000e+09	8.499297e+13	0.000000e+00	7.000003e-01	1.017390e+15	1.511467e+15	1.075997e+14	1.495568e+04	9.314103e+03	5.382769e+03	0	1.324446e-03
1.310000e+09	8.376379e+13	0.000000e+00	7.000003e-01	1.005639e+15	1.495078e+15	1.071513e+14	1.491929e+04	9.295449e+03	5.371988e+03	0	1.318030e-03
1.320000e+09	8.255839e+13	0.000000e+00	7.000003e-01	9.941103e+14	1.478991e+15	1.067059e+14	1.488332e+04	9.276994e+03	5.361323e+03	0	1.311677e-03
1.330000e+09	8.137613e+13	0.000000e+00	7.000003e-01	9.827983e+14	1.463198e+15	1.062633e+14	1.484776e+04	9.258735e+03	5.350771e+03	0	1.305385e-03
1.340000e+09	8.021641e+13	0.000000e+00	7.000003e-01	9.716974e+14	1.447691e+15	1.058236e+14	1.481261e+04	9.240667e+03	5.340329e+03	0	1.299155e-03
1.350000e+09	7.907866e+13	0.000000e+00	7.000003e-01	9.608024e+14	1.432464e+15	1.053868e+14	1.477785e+04	9.222788e+03	5.329997e+03	0	1.292983e-03
1.360000e+09	7.796231e+13	0.000000e+00	7.000003e-01	9.501079e+14	1.417508e+15	1.049529e+14	1.474348e+04	9.205095e+03	5.319771e+03	0	1.286870e-03
