#t		Qconv[W]	Ri[Rp]		R*[Rp]		Qc[W]		Qm[W]		Qr[W]		Tcmb[K]		Tl[K]		Tup[K]		RiFlag		Bs[T]
0.000000e+00	1.845310e+14	0.000000e+00	6.969694e-01	2.007971e+15	2.748111e+13	2.090258e+14	1.927909e+04	4.064332e+03	2.969402e+03	0	1.727555e-03
1.000000e+07	1.839141e+14	0.000000e+00	6.969694e-01	2.001145e+15	3.288579e+13	2.078677e+14	1.920804e+04	4.158839e+03	3.038450e+03	0	1.725628e-03
2.000000e+07	1.832437e+14	0.000000e+00	6.969694e-01	1.993837e+15	3.905152e+13	2.067182e+14	1.913722e+04	4.252752e+03	3.107062e+03	0	1.723529e-03
3.000000e+07	1.825198e+14	0.000000e+00	6.969694e-01	1.986047e+15	4.603696e+13	2.055773e+14	1.906666e+04	4.346016e+03	3.175201e+03	0	1.721256e-03
4.000000e+07	1.817425e+14	0.000000e+00	6.969694e-01	1.977777e+15	5.389903e+13	2.044449e+14	1.899638e+04	4.438572e+03	3.242823e+03	0	1.718809e-03
5.000000e+07	1.809121e+14	0.000000e+00	6.969694e-01	1.969027e+15	6.269205e+13	2.033209e+14	1.892638e+04	4.530363e+03	3.309885e+03	0	1.716187e-03
6.000000e+07	1.800286e+14	0.000000e+00	6.969694e-01	1.959802e+15	7.246696e+13	2.022054e+14	1.885669e+04	4.621326e+03	3.376343e+03	0	1.713389e-03
7.000000e+07	1.790926e+14	0.000000e+00	6.969694e-01	1.950104e+15	8.327034e+13	2.010981e+14	1.878733e+04	4.711398e+03	3.442149e+03	0	1.710415e-03
8.000000e+07	1.781044e+14	0.000000e+00	6.969694e-01	1.939939e+15	9.514363e+13	1.999991e+14	1.871830e+04	4.800513e+03	3.507256e+03	0	1.707263e-03
9.000000e+07	1.770647e+14	0.000000e+00	6.969694e-01	1.929310e+15	1.081222e+14	1.989083e+14	1.864964e+04	4.888604e+03	3.571616e+03	0	1.703934e-03
1.000000e+08	1.759740e+14	0.000000e+00	6.969694e-01	1.918226e+15	1.222347e+14	1.978255e+14	1.858135e+04	4.975603e+03	3.635177e+03	0	1.700429e-03
1.100000e+08	1.748333e+14	0.000000e+00	6.969694e-01	1.906692e+15	1.375021e+14	1.967508e+14	1.851345e+04	5.061441e+03	3.697891e+03	0	1.696746e-03
1.200000e+08	1.736434e+14	0.000000e+00	6.969694e-01	1.894720e+15	1.539372e+14	1.956840e+14	1.844595e+04	5.146050e+03	3.759706e+03	0	1.692888e-03
1.300000e+08	1.724055e+14	0.000000e+00	6.969694e-01	1.882318e+15	1.715440e+14	1.946252e+14	1.837887e+04	5.229359e+03	3.820572e+03	0	1.688856e-03
1.400000e+08	1.711208e+14	0.000000e+00	6.969694e-01	1.869497e+15	1.903173e+14	1.935742e+14	1.831224e+04	5.311301e+03	3.880438e+03	0	1.684650e-03
1.500000e+08	1.697906e+14	0.000000e+00	6.969694e-01	1.856271e+15	2.102423e+14	1.925309e+14	1.824605e+04	5.391806e+03	3.939256e+03	0	1.680274e-03
1.600000e+08	1.684165e+14	0.000000e+00	6.969694e-01	1.842654e+15	2.312944e+14	1.914954e+14	1.818033e+04	5.470809e+03	3.996975e+03	0	1.675729e-03
1.700000e+08	1.670000e+14	0.000000e+00	6.969694e-01	1.828660e+15	2.534393e+14	1.904675e+14	1.811508e+04	5.548245e+03	4.053550e+03	0	1.671018e-03
1.800000e+08	1.655430e+14	0.000000e+00	6.969694e-01	1.814306e+15	2.766327e+14	1.894472e+14	1.805033e+04	5.624052e+03	4.108935e+03	0	1.666144e-03
1.900000e+08	1.640473e+14	0.000000e+00	6.969694e-01	1.799610e+15	3.008213e+14	1.884344e+14	1.798609e+04	5.698170e+03	4.163085e+03	0	1.661111e-03
2.000000e+08	1.625150e+14	0.000000e+00	6.969694e-01	1.784589e+15	3.259424e+14	1.874290e+14	1.792236e+04	5.770544e+03	4.215961e+03	0	1.655923e-03
2.100000e+08	1.609482e+14	0.000000e+00	6.969694e-01	1.769264e+15	3.519251e+14	1.864311e+14	1.785916e+04	5.841120e+03	4.267524e+03	0	1.650584e-03
2.200000e+08	1.593492e+14	0.000000e+00	6.969694e-01	1.753655e+15	3.786905e+14	1.854404e+14	1.779651e+04	5.909850e+03	4.317739e+03	0	1.645099e-03
2.300000e+08	1.577201e+14	0.000000e+00	6.969694e-01	1.737783e+15	4.061530e+14	1.844571e+14	1.773440e+04	5.976691e+03	4.366572e+03	0	1.639474e-03
2.400000e+08	1.560636e+14	0.000000e+00	6.969694e-01	1.721671e+15	4.342210e+14	1.834809e+14	1.767285e+04	6.041602e+03	4.413997e+03	0	1.633714e-03
2.500000e+08	1.543818e+14	0.000000e+00	6.969694e-01	1.705339e+15	4.627974e+14	1.825119e+14	1.761187e+04	6.104551e+03	4.459987e+03	0	1.627825e-03
2.600000e+08	1.526775e+14	0.000000e+00	6.969694e-01	1.688811e+15	4.917823e+14	1.815500e+14	1.755146e+04	6.165507e+03	4.504522e+03	0	1.621812e-03
2.700000e+08	1.509529e+14	0.000000e+00	6.969694e-01	1.672111e+15	5.210719e+14	1.805952e+14	1.749164e+04	6.224448e+03	4.547584e+03	0	1.615683e-03
2.800000e+08	1.492108e+14	0.000000e+00	6.969694e-01	1.655260e+15	5.505612e+14	1.796472e+14	1.743241e+04	6.281355e+03	4.589160e+03	0	1.609443e-03
2.900000e+08	1.474535e+14	0.000000e+00	6.969694e-01	1.638281e+15	5.801450e+14	1.787063e+14	1.737377e+04	6.336215e+03	4.629241e+03	0	1.603100e-03
3.000000e+08	1.456835e+14	0.000000e+00	6.969694e-01	1.621198e+15	6.097185e+14	1.777721e+14	1.731573e+04	6.389023e+03	4.667822e+03	0	1.596660e-03
3.100000e+08	1.439034e+14	0.000000e+00	6.969694e-01	1.604033e+15	6.391784e+14	1.768448e+14	1.725829e+04	6.439775e+03	4.704902e+03	0	1.590130e-03
3.200000e+08	1.421154e+14	0.000000e+00	6.969694e-01	1.586807e+15	6.684246e+14	1.759243e+14	1.720145e+04	6.488476e+03	4.740483e+03	0	1.583516e-03
3.300000e+08	1.403220e+14	0.000000e+00	6.969694e-01	1.569541e+15	6.973603e+14	1.750104e+14	1.714523e+04	6.535135e+03	4.774572e+03	0	1.576827e-03
3.400000e+08	1.385254e+14	0.000000e+00	6.969694e-01	1.552257e+15	7.258929e+14	1.741031e+14	1.708961e+04	6.579766e+03	4.807180e+03	0	1.570069e-03
3.500000e+08	1.367277e+14	0.000000e+00	6.969694e-01	1.534975e+15	7.539354e+14	1.732025e+14	1.703460e+04	6.622388e+03	4.838319e+03	0	1.563247e-03
3.600000e+08	1.349312e+14	0.000000e+00	6.969694e-01	1.517712e+15	7.814064e+14	1.723083e+14	1.698020e+04	6.663024e+03	4.868008e+03	0	1.556370e-03
3.700000e+08	1.331377e+14	0.000000e+00	6.969694e-01	1.500488e+15	8.082311e+14	1.714207e+14	1.692641e+04	6.701701e+03	4.896265e+03	0	1.549444e-03
3.800000e+08	1.313492e+14	0.000000e+00	6.969694e-01	1.483320e+15	8.343405e+14	1.705395e+14	1.687323e+04	6.738451e+03	4.923115e+03	0	1.542474e-03
3.900000e+08	1.295674e+14	0.000000e+00	6.969694e-01	1.466223e+15	8.596733e+14	1.696646e+14	1.682066e+04	6.773309e+03	4.948582e+03	0	1.535468e-03
4.000000e+08	1.277940e+14	0.000000e+00	6.969694e-01	1.449213e+15	8.841749e+14	1.687961e+14	1.676868e+04	6.806313e+03	4.972695e+03	0	1.528431e-03
4.100000e+08	1.260306e+14	0.000000e+00	6.969694e-01	1.432304e+15	9.077975e+14	1.679338e+14	1.671731e+04	6.837505e+03	4.995483e+03	0	1.521368e-03
4.200000e+08	1.242786e+14	0.000000e+00	6.969694e-01	1.415509e+15	9.305012e+14	1.670777e+14	1.666654e+04	6.866926e+03	5.016979e+03	0	1.514285e-03
4.300000e+08	1.225394e+14	0.000000e+00	6.969694e-01	1.398840e+15	9.522522e+14	1.662278e+14	1.661635e+04	6.894624e+03	5.037215e+03	0	1.507188e-03
4.400000e+08	1.208142e+14	0.000000e+00	6.969694e-01	1.382308e+15	9.730239e+14	1.653840e+14	1.656676e+04	6.920646e+03	5.056227e+03	0	1.500081e-03
4.500000e+08	1.191040e+14	0.000000e+00	6.969694e-01	1.365923e+15	9.927964e+14	1.645463e+14	1.651775e+04	6.945040e+03	5.074049e+03	0	1.492970e-03
4.600000e+08	1.174099e+14	0.000000e+00	6.969694e-01	1.349695e+15	1.011554e+15	1.637146e+14	1.646932e+04	6.967857e+03	5.090719e+03	0	1.485857e-03
4.700000e+08	1.157329e+14	0.000000e+00	6.969694e-01	1.333630e+15	1.029291e+15	1.628889e+14	1.642146e+04	6.989148e+03	5.106274e+03	0	1.478749e-03
4.800000e+08	1.140736e+14	0.000000e+00	6.969694e-01	1.317738e+15	1.046002e+15	1.620690e+14	1.637416e+04	7.008965e+03	5.120752e+03	0	1.471648e-03
4.900000e+08	1.124328e+14	0.000000e+00	6.969694e-01	1.302023e+15	1.061690e+15	1.612551e+14	1.632743e+04	7.027359e+03	5.134191e+03	0	1.464558e-03
5.000000e+08	1.108112e+14	0.000000e+00	6.969694e-01	1.286492e+15	1.076362e+15	1.604469e+14	1.628126e+04	7.044382e+03	5.146628e+03	0	1.457483e-03
5.100000e+08	1.092093e+14	0.000000e+00	6.969694e-01	1.271148e+15	1.090028e+15	1.596446e+14	1.623563e+04	7.060087e+03	5.158102e+03	0	1.450425e-03
5.200000e+08	1.076275e+14	0.000000e+00	6.969694e-01	1.255998e+15	1.102702e+15	1.588479e+14	1.619054e+04	7.074525e+03	5.168650e+03	0	1.443388e-03
5.300000e+08	1.060662e+14	0.000000e+00	6.969694e-01	1.241043e+15	1.114404e+15	1.580570e+14	1.614599e+04	7.087746e+03	5.178310e+03	0	1.436375e-03
5.400000e+08	1.045257e+14	0.000000e+00	6.969694e-01	1.226286e+15	1.125152e+15	1.572717e+14	1.610197e+04	7.099802e+03	5.187118e+03	0	1.429387e-03
5.500000e+08	1.030063e+14	0.000000e+00	6.969694e-01	1.211729e+15	1.134971e+15	1.564919e+14	1.605847e+04	7.110742e+03	5.195111e+03	0	1.422427e-03
5.600000e+08	1.015082e+14	0.000000e+00	6.969694e-01	1.197375e+15	1.143884e+15	1.557178e+14	1.601548e+04	7.120614e+03	5.202324e+03	0	1.415498e-03
5.700000e+08	1.000314e+14	0.000000e+00	6.969694e-01	1.183224e+15	1.151920e+15	1.549491e+14	1.597300e+04	7.129467e+03	5.208791e+03	0	1.408600e-03
5.800000e+08	9.857619e+13	0.000000e+00	6.969694e-01	1.169277e+15	1.159107e+15	1.541858e+14	1.593102e+04	7.137345e+03	5.214547e+03	0	1.401736e-03
5.900000e+08	9.714246e+13	0.000000e+00	6.969694e-01	1.155534e+15	1.165474e+15	1.534280e+14	1.588954e+04	7.144295e+03	5.219624e+03	0	1.394907e-03
6.000000e+08	9.573025e+13	0.000000e+00	6.969694e-01	1.141995e+15	1.171050e+15	1.526755e+14	1.584854e+04	7.150360e+03	5.224055e+03	0	1.388114e-03
6.100000e+08	9.433950e+13	0.000000e+00	6.969694e-01	1.128659e+15	1.175868e+15	1.519284e+14	1.580801e+04	7.155582e+03	5.227871e+03	0	1.381360e-03
6.200000e+08	9.297015e+13	0.000000e+00	6.969694e-01	1.115526e+15	1.179958e+15	1.511865e+14	1.576796e+04	7.160004e+03	5.231102e+03	0	1.374643e-03
6.300000e+08	9.162207e+13	0.000000e+00	6.969694e-01	1.102594e+15	1.183352e+15	1.504499e+14	1.572838e+04	7.163664e+03	5.233776e+03	0	1.367967e-03
6.400000e+08	9.029515e+13	0.000000e+00	6.969694e-01	1.089862e+15	1.186081e+15	1.497185e+14	1.568925e+04	7.166601e+03	5.235922e+03	0	1.361331e-03
6.500000e+08	8.898920e+13	0.000000e+00	6.969694e-01	1.077328e+15	1.188175e+15	1.489922e+14	1.565057e+04	7.168853e+03	5.237566e+03	0	1.354736e-03
6.600000e+08	8.770406e+13	0.000000e+00	6.969694e-01	1.064991e+15	1.189666e+15	1.482710e+14	1.561233e+04	7.170453e+03	5.238736e+03	0	1.348183e-03
6.700000e+08	8.643951e+13	0.000000e+00	6.969694e-01	1.052849e+15	1.190584e+15	1.475549e+14	1.557453e+04	7.171438e+03	5.239455e+03	0	1.341672e-03
6.800000e+08	8.519533e+13	0.000000e+00	6.969694e-01	1.040899e+15	1.190957e+15	1.468439e+14	1.553716e+04	7.171839e+03	5.239748e+03	0	1.335204e-03
6.900000e+08	8.397130e+13	0.000000e+00	6.969694e-01	1.029140e+15	1.190816e+15	1.461378e+14	1.550021e+04	7.171687e+03	5.239638e+03	0	1.328778e-03
7.000000e+08	8.276716e+13	0.000000e+00	6.969694e-01	1.017569e+15	1.190189e+15	1.454367e+14	1.546368e+04	7.171014e+03	5.239146e+03	0	1.322396e-03
7.100000e+08	8.158266e+13	0.000000e+00	6.969694e-01	1.006183e+15	1.189102e+15	1.447404e+14	1.542755e+04	7.169848e+03	5.238293e+03	0	1.316057e-03
7.200000e+08	8.041752e+13	0.000000e+00	6.969694e-01	9.949801e+14	1.187582e+15	1.440491e+14	1.539183e+04	7.168215e+03	5.237101e+03	0	1.309762e-03
7.300000e+08	7.927148e+13	0.000000e+00	6.969694e-01	9.839575e+14	1.185655e+15	1.433626e+14	1.535651e+04	7.166143e+03	5.235587e+03	0	1.303510e-03
7.400000e+08	7.814424e+13	0.000000e+00	6.969694e-01	9.731126e+14	1.183346e+15	1.426808e+14	1.532157e+04	7.163657e+03	5.233771e+03	0	1.297302e-03
7.500000e+08	7.703553e+13	0.000000e+00	6.969694e-01	9.624426e+14	1.180678e+15	1.420039e+14	1.528702e+04	7.160780e+03	5.231669e+03	0	1.291138e-03
7.600000e+08	7.594505e+13	0.000000e+00	6.969694e-01	9.519448e+14	1.177674e+15	1.413316e+14	1.525285e+04	7.157536e+03	5.229298e+03	0	1.285017e-03
7.700000e+08	7.487252e+13	0.000000e+00	6.969694e-01	9.416164e+14	1.174357e+15	1.406640e+14	1.521904e+04	7.153945e+03	5.226675e+03	0	1.278939e-03
7.800000e+08	7.381763e+13	0.000000e+00	6.969694e-01	9.314547e+14	1.170746e+15	1.400011e+14	1.518561e+04	7.150029e+03	5.223814e+03	0	1.272904e-03
7.900000e+08	7.278008e+13	0.000000e+00	6.969694e-01	9.214569e+14	1.166863e+15	1.393428e+14	1.515253e+04	7.145807e+03	5.220730e+03	0	1.266912e-03
8.000000e+08	7.175959e+13	0.000000e+00	6.969694e-01	9.116201e+14	1.162726e+15	1.386890e+14	1.511981e+04	7.141298e+03	5.217435e+03	0	1.260963e-03
8.100000e+08	7.075586e+13	0.000000e+00	6.969694e-01	9.019416e+14	1.158353e+15	1.380397e+14	1.508743e+04	7.136520e+03	5.213944e+03	0	1.255056e-03
8.200000e+08	6.976859e+13	0.000000e+00	6.969694e-01	8.924186e+14	1.153762e+15	1.373950e+14	1.505540e+04	7.131489e+03	5.210268e+03	0	1.249191e-03
8.300000e+08	6.879749e+13	0.000000e+00	6.969694e-01	8.830484e+14	1.148970e+15	1.367547e+14	1.502370e+04	7.126221e+03	5.206420e+03	0	1.243368e-03
8.400000e+08	6.784226e+13	0.000000e+00	6.969694e-01	8.738281e+14	1.143991e+15	1.361188e+14	1.499234e+04	7.120732e+03	5.202410e+03	0	1.237587e-03
8.500000e+08	6.690263e+13	0.000000e+00	6.969694e-01	8.647551e+14	1.138841e+15	1.354873e+14	1.496130e+04	7.115036e+03	5.198248e+03	0	1.231847e-03
8.600000e+08	6.597829e+13	0.000000e+00	6.969694e-01	8.558268e+14	1.133535e+15	1.348602e+14	1.493058e+04	7.109147e+03	5.193945e+03	0	1.226147e-03
8.700000e+08	6.506897e+13	0.000000e+00	6.969694e-01	8.470403e+14	1.128084e+15	1.342374e+14	1.490018e+04	7.103077e+03	5.189511e+03	0	1.220488e-03
8.800000e+08	6.417439e+13	0.000000e+00	6.969694e-01	8.383931e+14	1.122503e+15	1.336189e+14	1.487009e+04	7.096839e+03	5.184953e+03	0	1.214869e-03
8.900000e+08	6.329427e+13	0.000000e+00	6.969694e-01	8.298826e+14	1.116802e+15	1.330046e+14	1.484031e+04	7.090444e+03	5.180281e+03	0	1.209290e-03
9.000000e+08	6.242834e+13	0.000000e+00	6.969694e-01	8.215063e+14	1.110994e+15	1.323945e+14	1.481083e+04	7.083904e+03	5.175503e+03	0	1.203750e-03
9.100000e+08	6.157633e+13	0.000000e+00	6.969694e-01	8.132615e+14	1.105088e+15	1.317887e+14	1.478164e+04	7.077229e+03	5.170626e+03	0	1.198248e-03
9.200000e+08	6.073798e+13	0.000000e+00	6.969694e-01	8.051459e+14	1.099095e+15	1.311869e+14	1.475275e+04	7.070428e+03	5.165657e+03	0	1.192785e-03
9.300000e+08	5.991302e+13	0.000000e+00	6.969694e-01	7.971570e+14	1.093024e+15	1.305893e+14	1.472414e+04	7.063511e+03	5.160604e+03	0	1.187361e-03
9.400000e+08	5.910120e+13	0.000000e+00	6.969694e-01	7.892923e+14	1.086884e+15	1.299958e+14	1.469582e+04	7.056488e+03	5.155473e+03	0	1.181973e-03
9.500000e+08	5.830226e+13	0.000000e+00	6.969694e-01	7.815495e+14	1.080684e+15	1.294063e+14	1.466777e+04	7.049365e+03	5.150269e+03	0	1.176623e-03
9.600000e+08	5.751596e+13	0.000000e+00	6.969694e-01	7.739263e+14	1.074431e+15	1.288209e+14	1.464000e+04	7.042151e+03	5.144999e+03	0	1.171309e-03
9.700000e+08	5.674205e+13	0.000000e+00	6.969694e-01	7.664203e+14	1.068132e+15	1.282394e+14	1.461250e+04	7.034855e+03	5.139667e+03	0	1.166032e-03
9.800000e+08	5.598030e+13	0.000000e+00	6.969694e-01	7.590294e+14	1.061795e+15	1.276619e+14	1.458527e+04	7.027481e+03	5.134280e+03	0	1.160791e-03
9.900000e+08	5.523047e+13	0.000000e+00	6.969694e-01	7.517514e+14	1.055425e+15	1.270883e+14	1.455830e+04	7.020038e+03	5.128842e+03	0	1.155585e-03
1.000000e+09	5.449233e+13	0.000000e+00	6.969694e-01	7.445840e+14	1.049031e+15	1.265186e+14	1.453158e+04	7.012531e+03	5.123358e+03	0	1.150414e-03
1.010000e+09	5.376565e+13	0.000000e+00	6.969694e-01	7.375252e+14	1.042615e+15	1.259528e+14	1.450512e+04	7.004967e+03	5.117832e+03	0	1.145277e-03
1.020000e+09	5.305022e+13	0.000000e+00	6.969694e-01	7.305728e+14	1.036184e+15	1.253908e+14	1.447891e+04	6.997351e+03	5.112268e+03	0	1.140174e-03
1.030000e+09	5.234581e+13	0.000000e+00	6.969694e-01	7.237249e+14	1.029744e+15	1.248326e+14	1.445294e+04	6.989689e+03	5.106669e+03	0	1.135105e-03
1.040000e+09	5.165222e+13	0.000000e+00	6.969694e-01	7.169795e+14	1.023298e+15	1.242781e+14	1.442722e+04	6.981985e+03	5.101041e+03	0	1.130070e-03
1.050000e+09	5.096923e+13	0.000000e+00	6.969694e-01	7.103345e+14	1.016851e+15	1.237275e+14	1.440174e+04	6.974244e+03	5.095385e+03	0	1.125067e-03
1.060000e+09	5.029664e+13	0.000000e+00	6.969694e-01	7.037881e+14	1.010407e+15	1.231805e+14	1.437649e+04	6.966471e+03	5.089706e+03	0	1.120096e-03
1.070000e+09	4.963425e+13	0.000000e+00	6.969694e-01	6.973384e+14	1.003970e+15	1.226372e+14	1.435147e+04	6.958670e+03	5.084007e+03	0	1.115157e-03
1.080000e+09	4.898187e+13	0.000000e+00	6.969694e-01	6.909835e+14	9.975435e+14	1.220976e+14	1.432669e+04	6.950844e+03	5.078289e+03	0	1.110250e-03
1.090000e+09	4.833930e+13	0.000000e+00	6.969694e-01	6.847217e+14	9.911300e+14	1.215616e+14	1.430212e+04	6.942998e+03	5.072557e+03	0	1.105373e-03
1.100000e+09	4.770635e+13	0.000000e+00	6.969694e-01	6.785512e+14	9.847331e+14	1.210292e+14	1.427778e+04	6.935135e+03	5.066813e+03	0	1.100528e-03
1.110000e+09	4.708285e+13	0.000000e+00	6.969694e-01	6.724703e+14	9.783554e+14	1.205004e+14	1.425366e+04	6.927259e+03	5.061058e+03	0	1.095712e-03
1.120000e+09	4.646860e+13	0.000000e+00	6.969694e-01	6.664772e+14	9.719997e+14	1.199751e+14	1.422976e+04	6.919372e+03	5.055296e+03	0	1.090926e-03
1.130000e+09	4.586344e+13	0.000000e+00	6.969694e-01	6.605703e+14	9.656681e+14	1.194533e+14	1.420606e+04	6.911478e+03	5.049528e+03	0	1.086170e-03
1.140000e+09	4.526720e+13	0.000000e+00	6.969694e-01	6.547480e+14	9.593632e+14	1.189350e+14	1.418258e+04	6.903579e+03	5.043757e+03	0	1.081442e-03
1.150000e+09	4.467969e+13	0.000000e+00	6.969694e-01	6.490088e+14	9.530867e+14	1.184202e+14	1.415930e+04	6.895678e+03	5.037985e+03	0	1.076744e-03
1.160000e+09	4.410076e+13	0.000000e+00	6.969694e-01	6.433510e+14	9.468409e+14	1.179088e+14	1.413623e+04	6.887777e+03	5.032212e+03	0	1.072073e-03
1.170000e+09	4.353026e+13	0.000000e+00	6.969694e-01	6.377731e+14	9.406269e+14	1.174008e+14	1.411335e+04	6.879879e+03	5.026442e+03	0	1.067430e-03
1.180000e+09	4.296800e+13	0.000000e+00	6.969694e-01	6.322737e+14	9.344469e+14	1.168962e+14	1.409068e+04	6.871986e+03	5.020675e+03	0	1.062814e-03
1.190000e+09	4.241386e+13	0.000000e+00	6.969694e-01	6.268513e+14	9.283021e+14	1.163950e+14	1.406820e+04	6.864100e+03	5.014914e+03	0	1.058225e-03
1.200000e+09	4.186766e+13	0.000000e+00	6.969694e-01	6.215045e+14	9.221936e+14	1.158971e+14	1.404591e+04	6.856222e+03	5.009158e+03	0	1.053663e-03
1.210000e+09	4.132927e+13	0.000000e+00	6.969694e-01	6.162318e+14	9.161229e+14	1.154025e+14	1.402381e+04	6.848355e+03	5.003411e+03	0	1.049127e-03
1.220000e+09	4.079854e+13	0.000000e+00	6.969694e-01	6.110320e+14	9.100908e+14	1.149111e+14	1.400190e+04	6.840501e+03	4.997673e+03	0	1.044617e-03
1.230000e+09	4.027532e+13	0.000000e+00	6.969694e-01	6.059037e+14	9.040987e+14	1.144230e+14	1.398017e+04	6.832660e+03	4.991944e+03	0	1.040132e-03
1.240000e+09	3.975948e+13	0.000000e+00	6.969694e-01	6.008455e+14	8.981472e+14	1.139382e+14	1.395862e+04	6.824835e+03	4.986227e+03	0	1.035673e-03
1.250000e+09	3.925089e+13	0.000000e+00	6.969694e-01	5.958563e+14	8.922373e+14	1.134565e+14	1.393726e+04	6.817027e+03	4.980523e+03	0	1.031238e-03
1.260000e+09	3.874940e+13	0.000000e+00	6.969694e-01	5.909347e+14	8.863695e+14	1.129780e+14	1.391607e+04	6.809237e+03	4.974831e+03	0	1.026827e-03
1.270000e+09	3.825490e+13	0.000000e+00	6.969694e-01	5.860795e+14	8.805445e+14	1.125027e+14	1.389505e+04	6.801466e+03	4.969154e+03	0	1.022440e-03
1.280000e+09	3.776724e+13	0.000000e+00	6.969694e-01	5.812896e+14	8.747628e+14	1.120305e+14	1.387421e+04	6.793716e+03	4.963491e+03	0	1.018077e-03
1.290000e+09	3.728632e+13	0.000000e+00	6.969694e-01	5.765637e+14	8.690254e+14	1.115614e+14	1.385354e+04	6.785987e+03	4.957845e+03	0	1.013737e-03
1.300000e+09	3.681200e+13	0.000000e+00	6.969694e-01	5.719008e+14	8.633320e+14	1.110953e+14	1.383303e+04	6.778281e+03	4.952215e+03	0	1.009420e-03
1.310000e+09	3.634417e+13	0.000000e+00	6.969694e-01	5.672996e+14	8.576833e+14	1.106324e+14	1.381269e+04	6.770598e+03	4.946602e+03	0	1.005126e-03
1.320000e+09	3.588271e+13	0.000000e+00	6.969694e-01	5.627592e+14	8.520793e+14	1.101724e+14	1.379251e+04	6.762940e+03	4.941007e+03	0	1.000854e-03
1.330000e+09	3.542750e+13	0.000000e+00	6.969694e-01	5.582784e+14	8.465207e+14	1.097155e+14	1.377250e+04	6.755307e+03	4.935430e+03	0	9.966034e-04
1.340000e+09	3.497844e+13	0.000000e+00	6.969694e-01	5.538561e+14	8.410076e+14	1.092616e+14	1.375264e+04	6.747700e+03	4.929872e+03	0	9.923747e-04
1.350000e+09	3.453541e+13	0.000000e+00	6.969694e-01	5.494914e+14	8.355398e+14	1.088106e+14	1.373294e+04	6.740119e+03	4.924334e+03	0	9.881672e-04
1.360000e+09	3.409831e+13	0.000000e+00	6.969694e-01	5.451833e+14	8.301180e+14	1.083625e+14	1.371339e+04	6.732566e+03	4.918815e+03	0	9.839805e-04
