#t		Qconv[W]	Ri[Rp]		R*[Rp]		Qc[W]		Qm[W]		Qr[W]		Tcmb[K]		Tl[K]		Tup[K]		RiFlag		Bs[T]
0.000000e+00	1.227578e+16	0.000000e+00	7.000001e-01	1.069225e+17	2.760664e+13	2.227813e+14	5.614088e+04	5.220671e+03	2.970844e+03	0	6.922939e-03
1.000000e+07	1.064451e+16	0.000000e+00	7.000001e-01	9.280302e+16	1.908765e+15	2.215469e+14	5.302021e+04	1.002594e+04	5.705303e+03	0	6.601603e-03
2.000000e+07	8.994259e+15	0.000000e+00	7.000001e-01	7.852799e+16	9.985573e+15	2.203218e+14	5.029160e+04	1.398349e+04	7.957364e+03	0	6.241121e-03
3.000000e+07	7.560117e+15	0.000000e+00	7.000001e-01	6.612335e+16	2.265297e+16	2.191058e+14	4.796841e+04	1.681510e+04	9.568702e+03	0	5.890023e-03
4.000000e+07	6.444503e+15	0.000000e+00	7.000001e-01	5.647057e+16	3.405974e+16	2.178989e+14	4.600246e+04	1.852649e+04	1.054257e+04	0	5.584753e-03
5.000000e+07	5.615710e+15	0.000000e+00	7.000001e-01	4.929489e+16	4.100309e+16	2.167010e+14	4.431689e+04	1.938378e+04	1.103042e+04	0	5.334278e-03
6.000000e+07	4.993064e+15	0.000000e+00	7.000001e-01	4.389972e+16	4.379276e+16	2.155120e+14	4.284090e+04	1.970074e+04	1.121079e+04	0	5.129360e-03
7.000000e+07	4.506663e+15	0.000000e+00	7.000001e-01	3.968172e+16	4.390011e+16	2.143319e+14	4.152306e+04	1.971267e+04	1.121757e+04	0	4.957079e-03
8.000000e+07	4.110412e+15	0.000000e+00	7.000001e-01	3.624303e+16	4.257498e+16	2.131606e+14	4.032922e+04	1.956409e+04	1.113303e+04	0	4.807315e-03
9.000000e+07	3.776502e+15	0.000000e+00	7.000001e-01	3.334357e+16	4.059335e+16	2.119979e+14	3.923670e+04	1.933601e+04	1.100324e+04	0	4.673447e-03
1.000000e+08	3.488241e+15	0.000000e+00	7.000001e-01	3.083918e+16	3.837827e+16	2.108439e+14	3.822981e+04	1.907206e+04	1.085304e+04	0	4.551378e-03
1.100000e+08	3.235217e+15	0.000000e+00	7.000001e-01	2.863994e+16	3.614473e+16	2.096985e+14	3.729703e+04	1.879535e+04	1.069557e+04	0	4.438558e-03
1.200000e+08	3.010560e+15	0.000000e+00	7.000001e-01	2.668644e+16	3.399526e+16	2.085615e+14	3.642945e+04	1.851800e+04	1.053774e+04	0	4.333344e-03
1.300000e+08	2.809446e+15	0.000000e+00	7.000001e-01	2.493699e+16	3.197419e+16	2.074330e+14	3.561990e+04	1.824624e+04	1.038310e+04	0	4.234619e-03
1.400000e+08	2.628300e+15	0.000000e+00	7.000001e-01	2.336065e+16	3.009617e+16	2.063128e+14	3.486243e+04	1.798314e+04	1.023338e+04	0	4.141577e-03
1.500000e+08	2.464350e+15	0.000000e+00	7.000001e-01	2.193345e+16	2.836134e+16	2.052009e+14	3.415194e+04	1.773008e+04	1.008938e+04	0	4.053606e-03
1.600000e+08	2.315373e+15	0.000000e+00	7.000001e-01	2.063613e+16	2.676303e+16	2.040973e+14	3.348407e+04	1.748751e+04	9.951340e+03	0	3.970219e-03
1.700000e+08	2.179541e+15	0.000000e+00	7.000001e-01	1.945286e+16	2.529152e+16	2.030017e+14	3.285501e+04	1.725538e+04	9.819242e+03	0	3.891011e-03
1.800000e+08	2.055321e+15	0.000000e+00	7.000001e-01	1.837038e+16	2.393639e+16	2.019142e+14	3.226139e+04	1.703336e+04	9.692904e+03	0	3.815640e-03
1.900000e+08	1.941413e+15	0.000000e+00	7.000001e-01	1.737741e+16	2.268718e+16	2.008348e+14	3.170023e+04	1.682103e+04	9.572075e+03	0	3.743807e-03
2.000000e+08	1.836700e+15	0.000000e+00	7.000001e-01	1.646428e+16	2.153414e+16	1.997633e+14	3.116891e+04	1.661788e+04	9.456472e+03	0	3.675249e-03
2.100000e+08	1.740217e+15	0.000000e+00	7.000001e-01	1.562263e+16	2.046823e+16	1.986997e+14	3.066505e+04	1.642340e+04	9.345804e+03	0	3.609735e-03
2.200000e+08	1.651126e+15	0.000000e+00	7.000001e-01	1.484519e+16	1.948128e+16	1.976438e+14	3.018653e+04	1.623709e+04	9.239783e+03	0	3.547052e-03
2.300000e+08	1.568692e+15	0.000000e+00	7.000001e-01	1.412559e+16	1.856596e+16	1.965958e+14	2.973145e+04	1.605846e+04	9.138133e+03	0	3.487011e-03
2.400000e+08	1.492270e+15	0.000000e+00	7.000001e-01	1.345823e+16	1.771561e+16	1.955554e+14	2.929810e+04	1.588706e+04	9.040594e+03	0	3.429441e-03
2.500000e+08	1.421293e+15	0.000000e+00	7.000001e-01	1.283820e+16	1.692435e+16	1.945226e+14	2.888491e+04	1.572244e+04	8.946920e+03	0	3.374183e-03
2.600000e+08	1.355256e+15	0.000000e+00	7.000001e-01	1.226112e+16	1.618690e+16	1.934974e+14	2.849047e+04	1.556422e+04	8.856884e+03	0	3.321094e-03
2.700000e+08	1.293713e+15	0.000000e+00	7.000001e-01	1.172313e+16	1.549852e+16	1.924797e+14	2.811351e+04	1.541202e+04	8.770271e+03	0	3.270043e-03
2.800000e+08	1.236268e+15	0.000000e+00	7.000001e-01	1.122077e+16	1.485498e+16	1.914694e+14	2.775285e+04	1.526548e+04	8.686884e+03	0	3.220908e-03
2.900000e+08	1.182565e+15	0.000000e+00	7.000001e-01	1.075097e+16	1.425247e+16	1.904665e+14	2.740744e+04	1.512429e+04	8.606540e+03	0	3.173578e-03
3.000000e+08	1.132287e+15	0.000000e+00	7.000001e-01	1.031098e+16	1.368759e+16	1.894709e+14	2.707628e+04	1.498815e+04	8.529068e+03	0	3.127949e-03
3.100000e+08	1.085150e+15	0.000000e+00	7.000001e-01	9.898315e+15	1.315724e+16	1.884826e+14	2.675850e+04	1.485678e+04	8.454310e+03	0	3.083927e-03
3.200000e+08	1.040898e+15	0.000000e+00	7.000001e-01	9.510768e+15	1.265866e+16	1.875014e+14	2.645327e+04	1.472992e+04	8.382119e+03	0	3.041423e-03
3.300000e+08	9.992999e+14	0.000000e+00	7.000001e-01	9.146333e+15	1.218939e+16	1.865274e+14	2.615984e+04	1.460733e+04	8.312358e+03	0	3.000356e-03
3.400000e+08	9.601484e+14	0.000000e+00	7.000001e-01	8.803206e+15	1.174711e+16	1.855604e+14	2.587750e+04	1.448878e+04	8.244900e+03	0	2.960649e-03
3.500000e+08	9.232552e+14	0.000000e+00	7.000001e-01	8.479751e+15	1.132982e+16	1.846005e+14	2.560563e+04	1.437408e+04	8.179627e+03	0	2.922232e-03
3.600000e+08	8.884497e+14	0.000000e+00	7.000001e-01	8.174487e+15	1.093562e+16	1.836475e+14	2.534362e+04	1.426302e+04	8.116427e+03	0	2.885039e-03
3.700000e+08	8.555774e+14	0.000000e+00	7.000001e-01	7.886070e+15	1.056285e+16	1.827015e+14	2.509094e+04	1.415542e+04	8.055199e+03	0	2.849009e-03
3.800000e+08	8.244973e+14	0.000000e+00	7.000001e-01	7.613277e+15	1.020996e+16	1.817623e+14	2.484706e+04	1.405112e+04	7.995845e+03	0	2.814085e-03
3.900000e+08	7.950813e+14	0.000000e+00	7.000001e-01	7.354992e+15	9.875549e+15	1.808298e+14	2.461151e+04	1.394995e+04	7.938276e+03	0	2.780212e-03
4.000000e+08	7.672123e+14	0.000000e+00	7.000001e-01	7.110200e+15	9.558338e+15	1.799041e+14	2.438387e+04	1.385177e+04	7.882407e+03	0	2.747341e-03
4.100000e+08	7.407835e+14	0.000000e+00	7.000001e-01	6.877969e+15	9.257147e+15	1.789851e+14	2.416372e+04	1.375644e+04	7.828158e+03	0	2.715425e-03
4.200000e+08	7.156969e+14	0.000000e+00	7.000001e-01	6.657450e+15	8.970907e+15	1.780727e+14	2.395068e+04	1.366383e+04	7.775457e+03	0	2.684420e-03
4.300000e+08	6.918628e+14	0.000000e+00	7.000001e-01	6.447861e+15	8.698629e+15	1.771669e+14	2.374440e+04	1.357381e+04	7.724233e+03	0	2.654284e-03
4.400000e+08	6.691989e+14	0.000000e+00	7.000001e-01	6.248486e+15	8.439405e+15	1.762676e+14	2.354454e+04	1.348628e+04	7.674421e+03	0	2.624979e-03
4.500000e+08	6.476293e+14	0.000000e+00	7.000001e-01	6.058665e+15	8.192410e+15	1.753747e+14	2.335079e+04	1.340111e+04	7.625959e+03	0	2.596468e-03
4.600000e+08	6.270845e+14	0.000000e+00	7.000001e-01	5.877793e+15	7.956863e+15	1.744883e+14	2.316287e+04	1.331822e+04	7.578789e+03	0	2.568716e-03
4.700000e+08	6.075001e+14	0.000000e+00	7.000001e-01	5.705311e+15	7.732068e+15	1.736082e+14	2.298050e+04	1.323751e+04	7.532857e+03	0	2.541692e-03
4.800000e+08	5.888167e+14	0.000000e+00	7.000001e-01	5.540701e+15	7.517366e+15	1.727344e+14	2.280343e+04	1.315887e+04	7.488111e+03	0	2.515364e-03
4.900000e+08	5.709797e+14	0.000000e+00	7.000001e-01	5.383486e+15	7.312147e+15	1.718669e+14	2.263141e+04	1.308224e+04	7.444503e+03	0	2.489704e-03
5.000000e+08	5.539383e+14	0.000000e+00	7.000001e-01	5.233227e+15	7.115858e+15	1.710056e+14	2.246423e+04	1.300753e+04	7.401985e+03	0	2.464684e-03
5.100000e+08	5.376456e+14	0.000000e+00	7.000001e-01	5.089512e+15	6.927977e+15	1.701504e+14	2.230167e+04	1.293465e+04	7.360516e+03	0	2.440279e-03
5.200000e+08	5.220579e+14	0.000000e+00	7.000001e-01	4.951963e+15	6.748016e+15	1.693014e+14	2.214353e+04	1.286355e+04	7.320053e+03	0	2.416464e-03
5.300000e+08	5.071349e+14	0.000000e+00	7.000001e-01	4.820228e+15	6.575539e+15	1.684583e+14	2.198963e+04	1.279414e+04	7.280558e+03	0	2.393216e-03
5.400000e+08	4.928390e+14	0.000000e+00	7.000001e-01	4.693979e+15	6.410113e+15	1.676213e+14	2.183978e+04	1.272637e+04	7.241993e+03	0	2.370514e-03
5.500000e+08	4.791352e+14	0.000000e+00	7.000001e-01	4.572912e+15	6.251367e+15	1.667903e+14	2.169382e+04	1.266018e+04	7.204324e+03	0	2.348336e-03
5.600000e+08	4.659911e+14	0.000000e+00	7.000001e-01	4.456743e+15	6.098932e+15	1.659652e+14	2.155159e+04	1.259550e+04	7.167518e+03	0	2.326662e-03
5.700000e+08	4.533761e+14	0.000000e+00	7.000001e-01	4.345208e+15	5.952470e+15	1.651459e+14	2.141294e+04	1.253227e+04	7.131542e+03	0	2.305475e-03
5.800000e+08	4.412621e+14	0.000000e+00	7.000001e-01	4.238059e+15	5.811666e+15	1.643324e+14	2.127773e+04	1.247046e+04	7.096367e+03	0	2.284755e-03
5.900000e+08	4.296226e+14	0.000000e+00	7.000001e-01	4.135066e+15	5.676226e+15	1.635247e+14	2.114582e+04	1.241000e+04	7.061964e+03	0	2.264487e-03
6.000000e+08	4.184329e+14	0.000000e+00	7.000001e-01	4.036014e+15	5.545876e+15	1.627227e+14	2.101709e+04	1.235086e+04	7.028306e+03	0	2.244654e-03
6.100000e+08	4.076698e+14	0.000000e+00	7.000001e-01	3.940701e+15	5.420359e+15	1.619264e+14	2.089143e+04	1.229297e+04	6.995366e+03	0	2.225241e-03
6.200000e+08	3.973117e+14	0.000000e+00	7.000001e-01	3.848938e+15	5.299432e+15	1.611358e+14	2.076870e+04	1.223631e+04	6.963121e+03	0	2.206232e-03
6.300000e+08	3.873384e+14	0.000000e+00	7.000001e-01	3.760547e+15	5.182868e+15	1.603507e+14	2.064881e+04	1.218082e+04	6.931547e+03	0	2.187615e-03
6.400000e+08	3.777307e+14	0.000000e+00	7.000001e-01	3.675364e+15	5.070458e+15	1.595711e+14	2.053165e+04	1.212648e+04	6.900621e+03	0	2.169376e-03
6.500000e+08	3.684708e+14	0.000000e+00	7.000001e-01	3.593231e+15	4.962001e+15	1.587970e+14	2.041712e+04	1.207323e+04	6.870322e+03	0	2.151502e-03
6.600000e+08	3.595420e+14	0.000000e+00	7.000001e-01	3.514002e+15	4.857305e+15	1.580284e+14	2.030513e+04	1.202105e+04	6.840629e+03	0	2.133982e-03
6.700000e+08	3.509284e+14	0.000000e+00	7.000001e-01	3.437540e+15	4.756199e+15	1.572652e+14	2.019559e+04	1.196990e+04	6.811523e+03	0	2.116802e-03
6.800000e+08	3.426152e+14	0.000000e+00	7.000001e-01	3.363715e+15	4.658511e+15	1.565073e+14	2.008841e+04	1.191975e+04	6.782984e+03	0	2.099953e-03
6.900000e+08	3.345884e+14	0.000000e+00	7.000001e-01	3.292404e+15	4.564088e+15	1.557548e+14	1.998352e+04	1.187057e+04	6.754996e+03	0	2.083424e-03
7.000000e+08	3.268348e+14	0.000000e+00	7.000001e-01	3.223492e+15	4.472784e+15	1.550075e+14	1.988084e+04	1.182232e+04	6.727540e+03	0	2.067205e-03
7.100000e+08	3.193420e+14	0.000000e+00	7.000001e-01	3.156872e+15	4.384456e+15	1.542655e+14	1.978028e+04	1.177498e+04	6.700601e+03	0	2.051286e-03
7.200000e+08	3.120984e+14	0.000000e+00	7.000001e-01	3.092440e+15	4.298974e+15	1.535286e+14	1.968180e+04	1.172852e+04	6.674163e+03	0	2.035657e-03
7.300000e+08	3.050927e+14	0.000000e+00	7.000001e-01	3.030100e+15	4.216213e+15	1.527969e+14	1.958530e+04	1.168291e+04	6.648210e+03	0	2.020310e-03
7.400000e+08	2.983146e+14	0.000000e+00	7.000001e-01	2.969760e+15	4.136057e+15	1.520703e+14	1.949074e+04	1.163814e+04	6.622729e+03	0	2.005237e-03
7.500000e+08	2.917542e+14	0.000000e+00	7.000001e-01	2.911334e+15	4.058392e+15	1.513488e+14	1.939805e+04	1.159416e+04	6.597705e+03	0	1.990428e-03
7.600000e+08	2.854021e+14	0.000000e+00	7.000001e-01	2.854740e+15	3.983115e+15	1.506323e+14	1.930717e+04	1.155097e+04	6.573124e+03	0	1.975877e-03
7.700000e+08	2.792495e+14	0.000000e+00	7.000001e-01	2.799900e+15	3.910128e+15	1.499208e+14	1.921804e+04	1.150853e+04	6.548975e+03	0	1.961575e-03
7.800000e+08	2.732879e+14	0.000000e+00	7.000001e-01	2.746742e+15	3.839330e+15	1.492142e+14	1.913061e+04	1.146683e+04	6.525245e+03	0	1.947515e-03
7.900000e+08	2.675095e+14	0.000000e+00	7.000001e-01	2.695196e+15	3.770637e+15	1.485126e+14	1.904483e+04	1.142584e+04	6.501921e+03	0	1.933691e-03
8.000000e+08	2.619067e+14	0.000000e+00	7.000001e-01	2.645195e+15	3.703964e+15	1.478158e+14	1.896065e+04	1.138555e+04	6.478994e+03	0	1.920096e-03
8.100000e+08	2.564723e+14	0.000000e+00	7.000001e-01	2.596677e+15	3.639226e+15	1.471238e+14	1.887802e+04	1.134594e+04	6.456451e+03	0	1.906723e-03
8.200000e+08	2.511996e+14	0.000000e+00	7.000001e-01	2.549584e+15	3.576350e+15	1.464366e+14	1.879690e+04	1.130698e+04	6.434282e+03	0	1.893566e-03
8.300000e+08	2.460821e+14	0.000000e+00	7.000001e-01	2.503857e+15	3.515263e+15	1.457542e+14	1.871724e+04	1.126866e+04	6.412477e+03	0	1.880619e-03
8.400000e+08	2.411137e+14	0.000000e+00	7.000001e-01	2.459445e+15	3.455892e+15	1.450765e+14	1.863900e+04	1.123096e+04	6.391026e+03	0	1.867876e-03
8.500000e+08	2.362885e+14	0.000000e+00	7.000001e-01	2.416295e+15	3.398176e+15	1.444034e+14	1.856213e+04	1.119388e+04	6.369921e+03	0	1.855332e-03
8.600000e+08	2.316011e+14	0.000000e+00	7.000001e-01	2.374359e+15	3.342049e+15	1.437350e+14	1.848661e+04	1.115738e+04	6.349151e+03	0	1.842982e-03
8.700000e+08	2.270461e+14	0.000000e+00	7.000001e-01	2.333590e+15	3.287451e+15	1.430713e+14	1.841239e+04	1.112145e+04	6.328708e+03	0	1.830819e-03
8.800000e+08	2.226185e+14	0.000000e+00	7.000001e-01	2.293946e+15	3.234329e+15	1.424120e+14	1.833943e+04	1.108609e+04	6.308584e+03	0	1.818840e-03
8.900000e+08	2.183136e+14	0.000000e+00	7.000001e-01	2.255384e+15	3.182624e+15	1.417573e+14	1.826771e+04	1.105127e+04	6.288770e+03	0	1.807040e-03
9.000000e+08	2.141267e+14	0.000000e+00	7.000001e-01	2.217863e+15	3.132286e+15	1.411071e+14	1.819718e+04	1.101698e+04	6.269259e+03	0	1.795413e-03
9.100000e+08	2.100536e+14	0.000000e+00	7.000001e-01	2.181346e+15	3.083266e+15	1.404614e+14	1.812783e+04	1.098321e+04	6.250043e+03	0	1.783956e-03
9.200000e+08	2.060900e+14	0.000000e+00	7.000001e-01	2.145797e+15	3.035517e+15	1.398200e+14	1.805960e+04	1.094995e+04	6.231115e+03	0	1.772664e-03
9.300000e+08	2.022321e+14	0.000000e+00	7.000001e-01	2.111180e+15	2.988992e+15	1.391831e+14	1.799248e+04	1.091718e+04	6.212467e+03	0	1.761533e-03
9.400000e+08	1.984759e+14	0.000000e+00	7.000001e-01	2.077463e+15	2.943651e+15	1.385505e+14	1.792644e+04	1.088489e+04	6.194093e+03	0	1.750559e-03
9.500000e+08	1.948180e+14	0.000000e+00	7.000001e-01	2.044614e+15	2.899449e+15	1.379222e+14	1.786145e+04	1.085308e+04	6.175987e+03	0	1.739738e-03
9.600000e+08	1.912549e+14	0.000000e+00	7.000001e-01	2.012601e+15	2.856351e+15	1.372982e+14	1.779748e+04	1.082172e+04	6.158141e+03	0	1.729066e-03
9.700000e+08	1.877832e+14	0.000000e+00	7.000001e-01	1.981398e+15	2.814316e+15	1.366785e+14	1.773450e+04	1.079080e+04	6.140550e+03	0	1.718540e-03
9.800000e+08	1.843998e+14	0.000000e+00	7.000001e-01	1.950975e+15	2.773309e+15	1.360630e+14	1.767250e+04	1.076033e+04	6.123208e+03	0	1.708156e-03
9.900000e+08	1.811017e+14	0.000000e+00	7.000001e-01	1.921306e+15	2.733296e+15	1.354517e+14	1.761144e+04	1.073028e+04	6.106109e+03	0	1.697911e-03
1.000000e+09	1.778860e+14	0.000000e+00	7.000001e-01	1.892366e+15	2.694244e+15	1.348445e+14	1.755130e+04	1.070065e+04	6.089247e+03	0	1.687801e-03
1.010000e+09	1.747499e+14	0.000000e+00	7.000001e-01	1.864131e+15	2.656120e+15	1.342414e+14	1.749207e+04	1.067142e+04	6.072616e+03	0	1.677824e-03
1.020000e+09	1.716907e+14	0.000000e+00	7.000001e-01	1.836577e+15	2.618895e+15	1.336424e+14	1.743371e+04	1.064260e+04	6.056213e+03	0	1.667976e-03
1.030000e+09	1.687060e+14	0.000000e+00	7.000001e-01	1.809681e+15	2.582540e+15	1.330475e+14	1.737621e+04	1.061416e+04	6.040030e+03	0	1.658254e-03
1.040000e+09	1.657933e+14	0.000000e+00	7.000001e-01	1.783423e+15	2.547026e+15	1.324566e+14	1.731955e+04	1.058610e+04	6.024065e+03	0	1.648655e-03
1.050000e+09	1.629502e+14	0.000000e+00	7.000001e-01	1.757782e+15	2.512327e+15	1.318697e+14	1.726371e+04	1.055842e+04	6.008311e+03	0	1.639177e-03
1.060000e+09	1.601745e+14	0.000000e+00	7.000001e-01	1.732738e+15	2.478418e+15	1.312867e+14	1.720867e+04	1.053110e+04	5.992765e+03	0	1.629816e-03
1.070000e+09	1.574641e+14	0.000000e+00	7.000001e-01	1.708272e+15	2.445273e+15	1.307077e+14	1.715440e+04	1.050413e+04	5.977421e+03	0	1.620571e-03
1.080000e+09	1.548169e+14	0.000000e+00	7.000001e-01	1.684366e+15	2.412868e+15	1.301325e+14	1.710090e+04	1.047752e+04	5.962275e+03	0	1.611438e-03
1.090000e+09	1.522308e+14	0.000000e+00	7.000001e-01	1.661003e+15	2.381181e+15	1.295613e+14	1.704815e+04	1.045124e+04	5.947323e+03	0	1.602415e-03
1.100000e+09	1.497041e+14	0.000000e+00	7.000001e-01	1.638166e+15	2.350191e+15	1.289938e+14	1.699612e+04	1.042530e+04	5.932561e+03	0	1.593500e-03
1.110000e+09	1.472348e+14	0.000000e+00	7.000001e-01	1.615838e+15	2.319876e+15	1.284302e+14	1.694480e+04	1.039969e+04	5.917985e+03	0	1.584690e-03
1.120000e+09	1.448212e+14	0.000000e+00	7.000001e-01	1.594004e+15	2.290215e+15	1.278703e+14	1.689418e+04	1.037439e+04	5.903592e+03	0	1.575983e-03
1.130000e+09	1.424616e+14	0.000000e+00	7.000001e-01	1.572650e+15	2.261189e+15	1.273142e+14	1.684424e+04	1.034941e+04	5.889376e+03	0	1.567377e-03
1.140000e+09	1.401544e+14	0.000000e+00	7.000001e-01	1.551760e+15	2.232780e+15	1.267619e+14	1.679496e+04	1.032474e+04	5.875335e+03	0	1.558869e-03
1.150000e+09	1.378979e+14	0.000000e+00	7.000001e-01	1.531322e+15	2.204970e+15	1.262132e+14	1.674634e+04	1.030037e+04	5.861465e+03	0	1.550458e-03
1.160000e+09	1.356908e+14	0.000000e+00	7.000001e-01	1.511321e+15	2.177740e+15	1.256681e+14	1.669835e+04	1.027629e+04	5.847763e+03	0	1.542142e-03
1.170000e+09	1.335316e+14	0.000000e+00	7.000001e-01	1.491746e+15	2.151075e+15	1.251267e+14	1.665099e+04	1.025250e+04	5.834225e+03	0	1.533918e-03
1.180000e+09	1.314187e+14	0.000000e+00	7.000001e-01	1.472583e+15	2.124958e+15	1.245889e+14	1.660424e+04	1.022899e+04	5.820848e+03	0	1.525785e-03
1.190000e+09	1.293510e+14	0.000000e+00	7.000001e-01	1.453821e+15	2.099373e+15	1.240547e+14	1.655809e+04	1.020576e+04	5.807628e+03	0	1.517740e-03
1.200000e+09	1.273271e+14	0.000000e+00	7.000001e-01	1.435449e+15	2.074307e+15	1.235240e+14	1.651252e+04	1.018280e+04	5.794564e+03	0	1.509782e-03
1.210000e+09	1.253457e+14	0.000000e+00	7.000001e-01	1.417454e+15	2.049743e+15	1.229968e+14	1.646752e+04	1.016011e+04	5.781651e+03	0	1.501910e-03
1.220000e+09	1.234056e+14	0.000000e+00	7.000001e-01	1.399828e+15	2.025668e+15	1.224731e+14	1.642309e+04	1.013768e+04	5.768887e+03	0	1.494121e-03
1.230000e+09	1.215058e+14	0.000000e+00	7.000001e-01	1.382559e+15	2.002070e+15	1.219529e+14	1.637920e+04	1.011550e+04	5.756268e+03	0	1.486414e-03
1.240000e+09	1.196450e+14	0.000000e+00	7.000001e-01	1.365637e+15	1.978933e+15	1.214362e+14	1.633586e+04	1.009358e+04	5.743793e+03	0	1.478787e-03
1.250000e+09	1.178221e+14	0.000000e+00	7.000001e-01	1.349053e+15	1.956248e+15	1.209228e+14	1.629304e+04	1.007190e+04	5.731458e+03	0	1.471238e-03
1.260000e+09	1.160362e+14	0.000000e+00	7.000001e-01	1.332799e+15	1.934000e+15	1.204128e+14	1.625074e+04	1.005047e+04	5.719261e+03	0	1.463767e-03
1.270000e+09	1.142862e+14	0.000000e+00	7.000001e-01	1.316864e+15	1.912178e+15	1.199062e+14	1.620895e+04	1.002927e+04	5.707199e+03	0	1.456371e-03
1.280000e+09	1.125711e+14	0.000000e+00	7.000001e-01	1.301240e+15	1.890772e+15	1.194029e+14	1.616765e+04	1.000831e+04	5.695270e+03	0	1.449049e-03
1.290000e+09	1.108900e+14	0.000000e+00	7.000001e-01	1.285919e+15	1.869770e+15	1.189030e+14	1.612684e+04	9.987576e+03	5.683471e+03	0	1.441800e-03
1.300000e+09	1.092420e+14	0.000000e+00	7.000001e-01	1.270893e+15	1.849161e+15	1.184063e+14	1.608652e+04	9.967067e+03	5.671800e+03	0	1.434622e-03
1.310000e+09	1.076262e+14	0.000000e+00	7.000001e-01	1.256154e+15	1.828936e+15	1.179128e+14	1.604666e+04	9.946778e+03	5.660255e+03	0	1.427513e-03
1.320000e+09	1.060418e+14	0.000000e+00	7.000001e-01	1.241694e+15	1.809084e+15	1.174226e+14	1.600726e+04	9.926706e+03	5.648832e+03	0	1.420473e-03
1.330000e+09	1.044879e+14	0.000000e+00	7.000001e-01	1.227507e+15	1.789597e+15	1.169356e+14	1.596831e+04	9.906847e+03	5.637531e+03	0	1.413501e-03
1.340000e+09	1.029637e+14	0.000000e+00	7.000001e-01	1.213585e+15	1.770463e+15	1.164518e+14	1.592980e+04	9.887196e+03	5.626349e+03	0	1.406594e-03
1.350000e+09	1.014685e+14	0.000000e+00	7.000001e-01	1.199922e+15	1.751675e+15	1.159711e+14	1.589173e+04	9.867751e+03	5.615284e+03	0	1.399752e-03
1.360000e+09	1.000015e+14	0.000000e+00	7.000001e-01	1.186511e+15	1.733225e+15	1.154936e+14	1.585409e+04	9.848508e+03	5.604334e+03	0	1.392974e-03
