#t		Qconv[W]	Ri[Rp]		R*[Rp]		Qc[W]		Qm[W]		Qr[W]		Tcmb[K]		Tl[K]		Tup[K]		RiFlag		Bs[T]
0.000000e+00	2.326448e+14	0.000000e+00	6.969699e-01	2.441282e+15	2.369529e+13	2.386850e+14	2.113458e+04	4.218941e+03	3.037631e+03	0	1.858812e-03
1.000000e+07	2.322001e+14	0.000000e+00	6.969699e-01	2.435873e+15	2.865862e+13	2.373626e+14	2.106183e+04	4.320097e+03	3.110463e+03	0	1.857626e-03
2.000000e+07	2.316871e+14	0.000000e+00	6.969699e-01	2.429894e+15	3.438233e+13	2.360500e+14	2.098924e+04	4.420793e+03	3.182964e+03	0	1.856257e-03
3.000000e+07	2.311054e+14	0.000000e+00	6.969699e-01	2.423342e+15	4.093557e+13	2.347472e+14	2.091683e+04	4.520977e+03	3.255097e+03	0	1.854703e-03
4.000000e+07	2.304550e+14	0.000000e+00	6.969699e-01	2.416215e+15	4.838740e+13	2.334541e+14	2.084461e+04	4.620595e+03	3.326822e+03	0	1.852961e-03
5.000000e+07	2.297355e+14	0.000000e+00	6.969699e-01	2.408513e+15	5.680600e+13	2.321707e+14	2.077260e+04	4.719591e+03	3.398098e+03	0	1.851031e-03
6.000000e+07	2.289469e+14	0.000000e+00	6.969699e-01	2.400235e+15	6.625772e+13	2.308968e+14	2.070082e+04	4.817903e+03	3.468883e+03	0	1.848910e-03
7.000000e+07	2.280893e+14	0.000000e+00	6.969699e-01	2.391381e+15	7.680617e+13	2.296325e+14	2.062929e+04	4.915470e+03	3.539131e+03	0	1.846599e-03
8.000000e+07	2.271626e+14	0.000000e+00	6.969699e-01	2.381953e+15	8.851124e+13	2.283775e+14	2.055802e+04	5.012228e+03	3.608796e+03	0	1.844095e-03
9.000000e+07	2.261672e+14	0.000000e+00	6.969699e-01	2.371954e+15	1.014282e+14	2.271319e+14	2.048702e+04	5.108109e+03	3.677831e+03	0	1.841397e-03
1.000000e+08	2.251034e+14	0.000000e+00	6.969699e-01	2.361385e+15	1.156065e+14	2.258955e+14	2.041633e+04	5.203046e+03	3.746185e+03	0	1.838506e-03
1.100000e+08	2.239717e+14	0.000000e+00	6.969699e-01	2.350253e+15	1.310890e+14	2.246683e+14	2.034594e+04	5.296967e+03	3.813808e+03	0	1.835419e-03
1.200000e+08	2.227727e+14	0.000000e+00	6.969699e-01	2.338562e+15	1.479113e+14	2.234502e+14	2.027589e+04	5.389802e+03	3.880649e+03	0	1.832138e-03
1.300000e+08	2.215072e+14	0.000000e+00	6.969699e-01	2.326320e+15	1.661002e+14	2.222411e+14	2.020618e+04	5.481477e+03	3.946655e+03	0	1.828663e-03
1.400000e+08	2.201763e+14	0.000000e+00	6.969699e-01	2.313536e+15	1.856735e+14	2.210409e+14	2.013684e+04	5.571920e+03	4.011774e+03	0	1.824993e-03
1.500000e+08	2.187810e+14	0.000000e+00	6.969699e-01	2.300219e+15	2.066392e+14	2.198496e+14	2.006787e+04	5.661057e+03	4.075952e+03	0	1.821129e-03
1.600000e+08	2.173226e+14	0.000000e+00	6.969699e-01	2.286380e+15	2.289946e+14	2.186672e+14	1.999930e+04	5.748815e+03	4.139138e+03	0	1.817074e-03
1.700000e+08	2.158028e+14	0.000000e+00	6.969699e-01	2.272034e+15	2.527266e+14	2.174934e+14	1.993114e+04	5.835122e+03	4.201279e+03	0	1.812828e-03
1.800000e+08	2.142230e+14	0.000000e+00	6.969699e-01	2.257194e+15	2.778103e+14	2.163283e+14	1.986340e+04	5.919907e+03	4.262324e+03	0	1.808394e-03
1.900000e+08	2.125853e+14	0.000000e+00	6.969699e-01	2.241877e+15	3.042102e+14	2.151718e+14	1.979611e+04	6.003101e+03	4.322223e+03	0	1.803774e-03
2.000000e+08	2.108917e+14	0.000000e+00	6.969699e-01	2.226099e+15	3.318791e+14	2.140238e+14	1.972926e+04	6.084635e+03	4.380928e+03	0	1.798971e-03
2.100000e+08	2.091443e+14	0.000000e+00	6.969699e-01	2.209880e+15	3.607592e+14	2.128843e+14	1.966289e+04	6.164447e+03	4.438392e+03	0	1.793988e-03
2.200000e+08	2.073456e+14	0.000000e+00	6.969699e-01	2.193240e+15	3.907815e+14	2.117531e+14	1.959700e+04	6.242473e+03	4.494571e+03	0	1.788830e-03
2.300000e+08	2.054980e+14	0.000000e+00	6.969699e-01	2.176201e+15	4.218675e+14	2.106302e+14	1.953160e+04	6.318658e+03	4.549424e+03	0	1.783501e-03
2.400000e+08	2.036042e+14	0.000000e+00	6.969699e-01	2.158784e+15	4.539291e+14	2.095155e+14	1.946671e+04	6.392945e+03	4.602911e+03	0	1.778006e-03
2.500000e+08	2.016670e+14	0.000000e+00	6.969699e-01	2.141015e+15	4.868697e+14	2.084090e+14	1.940233e+04	6.465288e+03	4.654997e+03	0	1.772349e-03
2.600000e+08	1.996893e+14	0.000000e+00	6.969699e-01	2.122917e+15	5.205854e+14	2.073106e+14	1.933848e+04	6.535639e+03	4.705650e+03	0	1.766536e-03
2.700000e+08	1.976741e+14	0.000000e+00	6.969699e-01	2.104515e+15	5.549659e+14	2.062203e+14	1.927517e+04	6.603961e+03	4.754842e+03	0	1.760573e-03
2.800000e+08	1.956243e+14	0.000000e+00	6.969699e-01	2.085835e+15	5.898953e+14	2.051379e+14	1.921240e+04	6.670218e+03	4.802547e+03	0	1.754467e-03
2.900000e+08	1.935432e+14	0.000000e+00	6.969699e-01	2.066905e+15	6.252544e+14	2.040634e+14	1.915019e+04	6.734381e+03	4.848744e+03	0	1.748223e-03
3.000000e+08	1.914337e+14	0.000000e+00	6.969699e-01	2.047749e+15	6.609210e+14	2.029967e+14	1.908854e+04	6.796428e+03	4.893418e+03	0	1.741849e-03
3.100000e+08	1.892992e+14	0.000000e+00	6.969699e-01	2.028395e+15	6.967720e+14	2.019378e+14	1.902746e+04	6.856340e+03	4.936554e+03	0	1.735350e-03
3.200000e+08	1.871427e+14	0.000000e+00	6.969699e-01	2.008869e+15	7.326833e+14	2.008866e+14	1.896695e+04	6.914105e+03	4.978145e+03	0	1.728735e-03
3.300000e+08	1.849672e+14	0.000000e+00	6.969699e-01	1.989197e+15	7.685330e+14	1.998430e+14	1.890703e+04	6.969718e+03	5.018187e+03	0	1.722011e-03
3.400000e+08	1.827760e+14	0.000000e+00	6.969699e-01	1.969406e+15	8.042015e+14	1.988071e+14	1.884769e+04	7.023178e+03	5.056677e+03	0	1.715184e-03
3.500000e+08	1.805719e+14	0.000000e+00	6.969699e-01	1.949521e+15	8.395720e+14	1.977786e+14	1.878893e+04	7.074489e+03	5.093621e+03	0	1.708261e-03
3.600000e+08	1.783580e+14	0.000000e+00	6.969699e-01	1.929567e+15	8.745327e+14	1.967576e+14	1.873077e+04	7.123662e+03	5.129026e+03	0	1.701251e-03
3.700000e+08	1.761371e+14	0.000000e+00	6.969699e-01	1.909566e+15	9.089776e+14	1.957440e+14	1.867320e+04	7.170712e+03	5.162902e+03	0	1.694160e-03
3.800000e+08	1.739119e+14	0.000000e+00	6.969699e-01	1.889544e+15	9.428060e+14	1.947377e+14	1.861622e+04	7.215659e+03	5.195264e+03	0	1.686996e-03
3.900000e+08	1.716851e+14	0.000000e+00	6.969699e-01	1.869522e+15	9.759248e+14	1.937387e+14	1.855984e+04	7.258528e+03	5.226129e+03	0	1.679765e-03
4.000000e+08	1.694593e+14	0.000000e+00	6.969699e-01	1.849521e+15	1.008248e+15	1.927470e+14	1.850405e+04	7.299349e+03	5.255520e+03	0	1.672474e-03
4.100000e+08	1.672367e+14	0.000000e+00	6.969699e-01	1.829562e+15	1.039697e+15	1.917623e+14	1.844886e+04	7.338153e+03	5.283459e+03	0	1.665130e-03
4.200000e+08	1.650197e+14	0.000000e+00	6.969699e-01	1.809663e+15	1.070202e+15	1.907848e+14	1.839426e+04	7.374977e+03	5.309972e+03	0	1.657739e-03
4.300000e+08	1.628104e+14	0.000000e+00	6.969699e-01	1.789842e+15	1.099701e+15	1.898143e+14	1.834025e+04	7.409861e+03	5.335089e+03	0	1.650308e-03
4.400000e+08	1.606109e+14	0.000000e+00	6.969699e-01	1.770117e+15	1.128140e+15	1.888508e+14	1.828683e+04	7.442849e+03	5.358840e+03	0	1.642842e-03
4.500000e+08	1.584229e+14	0.000000e+00	6.969699e-01	1.750503e+15	1.155473e+15	1.878942e+14	1.823400e+04	7.473984e+03	5.381257e+03	0	1.635348e-03
4.600000e+08	1.562483e+14	0.000000e+00	6.969699e-01	1.731014e+15	1.181662e+15	1.869445e+14	1.818175e+04	7.503315e+03	5.402376e+03	0	1.627831e-03
4.700000e+08	1.540886e+14	0.000000e+00	6.969699e-01	1.711664e+15	1.206677e+15	1.860016e+14	1.813008e+04	7.530891e+03	5.422230e+03	0	1.620296e-03
4.800000e+08	1.519452e+14	0.000000e+00	6.969699e-01	1.692465e+15	1.230497e+15	1.850654e+14	1.807898e+04	7.556762e+03	5.440857e+03	0	1.612748e-03
4.900000e+08	1.498196e+14	0.000000e+00	6.969699e-01	1.673428e+15	1.253104e+15	1.841360e+14	1.802846e+04	7.580981e+03	5.458294e+03	0	1.605192e-03
5.000000e+08	1.477128e+14	0.000000e+00	6.969699e-01	1.654562e+15	1.274491e+15	1.832132e+14	1.797850e+04	7.603599e+03	5.474580e+03	0	1.597633e-03
5.100000e+08	1.456261e+14	0.000000e+00	6.969699e-01	1.635878e+15	1.294655e+15	1.822970e+14	1.792910e+04	7.624672e+03	5.489752e+03	0	1.590074e-03
5.200000e+08	1.435603e+14	0.000000e+00	6.969699e-01	1.617383e+15	1.313598e+15	1.813873e+14	1.788026e+04	7.644251e+03	5.503849e+03	0	1.582519e-03
5.300000e+08	1.415163e+14	0.000000e+00	6.969699e-01	1.599084e+15	1.331329e+15	1.804841e+14	1.783197e+04	7.662392e+03	5.516911e+03	0	1.574973e-03
5.400000e+08	1.394949e+14	0.000000e+00	6.969699e-01	1.580987e+15	1.347861e+15	1.795874e+14	1.778422e+04	7.679148e+03	5.528975e+03	0	1.567438e-03
5.500000e+08	1.374967e+14	0.000000e+00	6.969699e-01	1.563098e+15	1.363210e+15	1.786970e+14	1.773701e+04	7.694572e+03	5.540080e+03	0	1.559918e-03
5.600000e+08	1.355223e+14	0.000000e+00	6.969699e-01	1.545421e+15	1.377399e+15	1.778129e+14	1.769033e+04	7.708717e+03	5.550264e+03	0	1.552415e-03
5.700000e+08	1.335721e+14	0.000000e+00	6.969699e-01	1.527960e+15	1.390451e+15	1.769352e+14	1.764418e+04	7.721635e+03	5.559566e+03	0	1.544933e-03
5.800000e+08	1.316466e+14	0.000000e+00	6.969699e-01	1.510719e+15	1.402393e+15	1.760636e+14	1.759855e+04	7.733378e+03	5.568021e+03	0	1.537473e-03
5.900000e+08	1.297461e+14	0.000000e+00	6.969699e-01	1.493699e+15	1.413255e+15	1.751983e+14	1.755343e+04	7.743996e+03	5.575665e+03	0	1.530039e-03
6.000000e+08	1.278708e+14	0.000000e+00	6.969699e-01	1.476903e+15	1.423069e+15	1.743391e+14	1.750882e+04	7.753538e+03	5.582536e+03	0	1.522631e-03
6.100000e+08	1.260209e+14	0.000000e+00	6.969699e-01	1.460332e+15	1.431867e+15	1.734859e+14	1.746470e+04	7.762052e+03	5.588666e+03	0	1.515253e-03
6.200000e+08	1.241966e+14	0.000000e+00	6.969699e-01	1.443987e+15	1.439686e+15	1.726388e+14	1.742108e+04	7.769586e+03	5.594090e+03	0	1.507905e-03
6.300000e+08	1.223978e+14	0.000000e+00	6.969699e-01	1.427869e+15	1.446559e+15	1.717976e+14	1.737795e+04	7.776184e+03	5.598841e+03	0	1.500590e-03
6.400000e+08	1.206246e+14	0.000000e+00	6.969699e-01	1.411977e+15	1.452522e+15	1.709624e+14	1.733529e+04	7.781891e+03	5.602950e+03	0	1.493309e-03
6.500000e+08	1.188771e+14	0.000000e+00	6.969699e-01	1.396311e+15	1.457614e+15	1.701331e+14	1.729311e+04	7.786750e+03	5.606448e+03	0	1.486062e-03
6.600000e+08	1.171550e+14	0.000000e+00	6.969699e-01	1.380870e+15	1.461870e+15	1.693096e+14	1.725140e+04	7.790801e+03	5.609365e+03	0	1.478851e-03
6.700000e+08	1.154584e+14	0.000000e+00	6.969699e-01	1.365654e+15	1.465327e+15	1.684919e+14	1.721014e+04	7.794086e+03	5.611730e+03	0	1.471678e-03
6.800000e+08	1.137870e+14	0.000000e+00	6.969699e-01	1.350661e+15	1.468021e+15	1.676799e+14	1.716934e+04	7.796643e+03	5.613571e+03	0	1.464542e-03
6.900000e+08	1.121408e+14	0.000000e+00	6.969699e-01	1.335889e+15	1.469990e+15	1.668737e+14	1.712898e+04	7.798508e+03	5.614914e+03	0	1.457445e-03
7.000000e+08	1.105195e+14	0.000000e+00	6.969699e-01	1.321337e+15	1.471267e+15	1.660730e+14	1.708906e+04	7.799718e+03	5.615785e+03	0	1.450387e-03
7.100000e+08	1.089229e+14	0.000000e+00	6.969699e-01	1.307003e+15	1.471889e+15	1.652780e+14	1.704958e+04	7.800306e+03	5.616208e+03	0	1.443369e-03
7.200000e+08	1.073508e+14	0.000000e+00	6.969699e-01	1.292885e+15	1.471889e+15	1.644886e+14	1.701052e+04	7.800306e+03	5.616208e+03	0	1.436391e-03
7.300000e+08	1.058029e+14	0.000000e+00	6.969699e-01	1.278980e+15	1.471300e+15	1.637047e+14	1.697189e+04	7.799749e+03	5.615807e+03	0	1.429454e-03
7.400000e+08	1.042790e+14	0.000000e+00	6.969699e-01	1.265285e+15	1.470155e+15	1.629262e+14	1.693367e+04	7.798665e+03	5.615027e+03	0	1.422557e-03
7.500000e+08	1.027787e+14	0.000000e+00	6.969699e-01	1.251800e+15	1.468485e+15	1.621532e+14	1.689585e+04	7.797083e+03	5.613888e+03	0	1.415702e-03
7.600000e+08	1.013018e+14	0.000000e+00	6.969699e-01	1.238519e+15	1.466321e+15	1.613855e+14	1.685844e+04	7.795030e+03	5.612410e+03	0	1.408888e-03
7.700000e+08	9.984793e+13	0.000000e+00	6.969699e-01	1.225442e+15	1.463692e+15	1.606232e+14	1.682142e+04	7.792534e+03	5.610612e+03	0	1.402116e-03
7.800000e+08	9.841683e+13	0.000000e+00	6.969699e-01	1.212566e+15	1.460627e+15	1.598662e+14	1.678479e+04	7.789619e+03	5.608513e+03	0	1.395385e-03
7.900000e+08	9.700815e+13	0.000000e+00	6.969699e-01	1.199886e+15	1.457151e+15	1.591145e+14	1.674855e+04	7.786308e+03	5.606130e+03	0	1.388695e-03
8.000000e+08	9.562159e+13	0.000000e+00	6.969699e-01	1.187402e+15	1.453292e+15	1.583679e+14	1.671268e+04	7.782626e+03	5.603479e+03	0	1.382047e-03
8.100000e+08	9.425679e+13	0.000000e+00	6.969699e-01	1.175109e+15	1.449074e+15	1.576266e+14	1.667719e+04	7.778593e+03	5.600575e+03	0	1.375440e-03
8.200000e+08	9.291343e+13	0.000000e+00	6.969699e-01	1.163004e+15	1.444522e+15	1.568903e+14	1.664206e+04	7.774231e+03	5.597434e+03	0	1.368875e-03
8.300000e+08	9.159117e+13	0.000000e+00	6.969699e-01	1.151086e+15	1.439657e+15	1.561592e+14	1.660729e+04	7.769559e+03	5.594070e+03	0	1.362350e-03
8.400000e+08	9.028967e+13	0.000000e+00	6.969699e-01	1.139350e+15	1.434503e+15	1.554331e+14	1.657288e+04	7.764595e+03	5.590497e+03	0	1.355867e-03
8.500000e+08	8.900861e+13	0.000000e+00	6.969699e-01	1.127794e+15	1.429079e+15	1.547120e+14	1.653882e+04	7.759359e+03	5.586726e+03	0	1.349423e-03
8.600000e+08	8.774763e+13	0.000000e+00	6.969699e-01	1.116415e+15	1.423406e+15	1.539959e+14	1.650510e+04	7.753866e+03	5.582771e+03	0	1.343021e-03
8.700000e+08	8.650641e+13	0.000000e+00	6.969699e-01	1.105209e+15	1.417503e+15	1.532847e+14	1.647172e+04	7.748132e+03	5.578643e+03	0	1.336658e-03
8.800000e+08	8.528460e+13	0.000000e+00	6.969699e-01	1.094175e+15	1.411386e+15	1.525784e+14	1.643867e+04	7.742174e+03	5.574353e+03	0	1.330335e-03
8.900000e+08	8.408188e+13	0.000000e+00	6.969699e-01	1.083309e+15	1.405074e+15	1.518770e+14	1.640596e+04	7.736004e+03	5.569911e+03	0	1.324052e-03
9.000000e+08	8.289792e+13	0.000000e+00	6.969699e-01	1.072608e+15	1.398582e+15	1.511803e+14	1.637356e+04	7.729638e+03	5.565328e+03	0	1.317808e-03
9.100000e+08	8.173238e+13	0.000000e+00	6.969699e-01	1.062069e+15	1.391925e+15	1.504885e+14	1.634149e+04	7.723089e+03	5.560612e+03	0	1.311603e-03
9.200000e+08	8.058495e+13	0.000000e+00	6.969699e-01	1.051690e+15	1.385118e+15	1.498014e+14	1.630973e+04	7.716368e+03	5.555773e+03	0	1.305436e-03
9.300000e+08	7.945530e+13	0.000000e+00	6.969699e-01	1.041467e+15	1.378174e+15	1.491190e+14	1.627828e+04	7.709487e+03	5.550819e+03	0	1.299307e-03
9.400000e+08	7.834311e+13	0.000000e+00	6.969699e-01	1.031399e+15	1.371107e+15	1.484412e+14	1.624713e+04	7.702458e+03	5.545758e+03	0	1.293216e-03
9.500000e+08	7.724807e+13	0.000000e+00	6.969699e-01	1.021481e+15	1.363928e+15	1.477681e+14	1.621629e+04	7.695290e+03	5.540597e+03	0	1.287163e-03
9.600000e+08	7.616987e+13	0.000000e+00	6.969699e-01	1.011712e+15	1.356649e+15	1.470996e+14	1.618573e+04	7.687995e+03	5.535344e+03	0	1.281146e-03
9.700000e+08	7.510822e+13	0.000000e+00	6.969699e-01	1.002089e+15	1.349281e+15	1.464356e+14	1.615548e+04	7.680581e+03	5.530006e+03	0	1.275166e-03
9.800000e+08	7.406279e+13	0.000000e+00	6.969699e-01	9.926086e+14	1.341834e+15	1.457761e+14	1.612550e+04	7.673057e+03	5.524589e+03	0	1.269222e-03
9.900000e+08	7.303331e+13	0.000000e+00	6.969699e-01	9.832689e+14	1.334317e+15	1.451212e+14	1.609581e+04	7.665432e+03	5.519099e+03	0	1.263314e-03
1.000000e+09	7.201948e+13	0.000000e+00	6.969699e-01	9.740673e+14	1.326740e+15	1.444706e+14	1.606640e+04	7.657714e+03	5.513542e+03	0	1.257441e-03
1.010000e+09	7.102100e+13	0.000000e+00	6.969699e-01	9.650012e+14	1.319110e+15	1.438245e+14	1.603727e+04	7.649910e+03	5.507923e+03	0	1.251603e-03
1.020000e+09	7.003761e+13	0.000000e+00	6.969699e-01	9.560680e+14	1.311436e+15	1.431828e+14	1.600840e+04	7.642027e+03	5.502248e+03	0	1.245799e-03
1.030000e+09	6.906902e+13	0.000000e+00	6.969699e-01	9.472656e+14	1.303726e+15	1.425454e+14	1.597980e+04	7.634073e+03	5.496521e+03	0	1.240030e-03
1.040000e+09	6.811497e+13	0.000000e+00	6.969699e-01	9.385913e+14	1.295985e+15	1.419123e+14	1.595146e+04	7.626054e+03	5.490747e+03	0	1.234293e-03
1.050000e+09	6.717517e+13	0.000000e+00	6.969699e-01	9.300429e+14	1.288222e+15	1.412835e+14	1.592339e+04	7.617975e+03	5.484931e+03	0	1.228591e-03
1.060000e+09	6.624938e+13	0.000000e+00	6.969699e-01	9.216182e+14	1.280442e+15	1.406589e+14	1.589556e+04	7.609843e+03	5.479075e+03	0	1.222920e-03
1.070000e+09	6.533732e+13	0.000000e+00	6.969699e-01	9.133148e+14	1.272650e+15	1.400385e+14	1.586799e+04	7.601663e+03	5.473186e+03	0	1.217282e-03
1.080000e+09	6.443876e+13	0.000000e+00	6.969699e-01	9.051305e+14	1.264853e+15	1.394223e+14	1.584067e+04	7.593440e+03	5.467265e+03	0	1.211676e-03
1.090000e+09	6.355344e+13	0.000000e+00	6.969699e-01	8.970632e+14	1.257054e+15	1.388103e+14	1.581358e+04	7.585179e+03	5.461317e+03	0	1.206102e-03
1.100000e+09	6.268111e+13	0.000000e+00	6.969699e-01	8.891108e+14	1.249259e+15	1.382023e+14	1.578675e+04	7.576884e+03	5.455345e+03	0	1.200558e-03
1.110000e+09	6.182155e+13	0.000000e+00	6.969699e-01	8.812711e+14	1.241472e+15	1.375985e+14	1.576014e+04	7.568560e+03	5.449351e+03	0	1.195045e-03
1.120000e+09	6.097451e+13	0.000000e+00	6.969699e-01	8.735420e+14	1.233697e+15	1.369986e+14	1.573377e+04	7.560210e+03	5.443340e+03	0	1.189562e-03
1.130000e+09	6.013976e+13	0.000000e+00	6.969699e-01	8.659217e+14	1.225939e+15	1.364028e+14	1.570764e+04	7.551840e+03	5.437313e+03	0	1.184108e-03
1.140000e+09	5.931708e+13	0.000000e+00	6.969699e-01	8.584081e+14	1.218199e+15	1.358110e+14	1.568172e+04	7.543451e+03	5.431273e+03	0	1.178684e-03
1.150000e+09	5.850624e+13	0.000000e+00	6.969699e-01	8.509993e+14	1.210482e+15	1.352232e+14	1.565604e+04	7.535049e+03	5.425224e+03	0	1.173289e-03
1.160000e+09	5.770704e+13	0.000000e+00	6.969699e-01	8.436934e+14	1.202791e+15	1.346392e+14	1.563057e+04	7.526635e+03	5.419166e+03	0	1.167922e-03
1.170000e+09	5.691926e+13	0.000000e+00	6.969699e-01	8.364885e+14	1.195129e+15	1.340591e+14	1.560533e+04	7.518213e+03	5.413102e+03	0	1.162583e-03
1.180000e+09	5.614269e+13	0.000000e+00	6.969699e-01	8.293829e+14	1.187497e+15	1.334829e+14	1.558029e+04	7.509786e+03	5.407034e+03	0	1.157272e-03
1.190000e+09	5.537712e+13	0.000000e+00	6.969699e-01	8.223747e+14	1.179899e+15	1.329106e+14	1.555547e+04	7.501356e+03	5.400965e+03	0	1.151987e-03
1.200000e+09	5.462237e+13	0.000000e+00	6.969699e-01	8.154622e+14	1.172337e+15	1.323420e+14	1.553086e+04	7.492927e+03	5.394896e+03	0	1.146730e-03
1.210000e+09	5.387822e+13	0.000000e+00	6.969699e-01	8.086437e+14	1.164812e+15	1.317772e+14	1.550646e+04	7.484500e+03	5.388828e+03	0	1.141498e-03
1.220000e+09	5.314450e+13	0.000000e+00	6.969699e-01	8.019175e+14	1.157327e+15	1.312161e+14	1.548225e+04	7.476078e+03	5.382764e+03	0	1.136293e-03
1.230000e+09	5.242101e+13	0.000000e+00	6.969699e-01	7.952820e+14	1.149884e+15	1.306588e+14	1.545825e+04	7.467662e+03	5.376705e+03	0	1.131113e-03
1.240000e+09	5.170757e+13	0.000000e+00	6.969699e-01	7.887355e+14	1.142483e+15	1.301051e+14	1.543445e+04	7.459255e+03	5.370652e+03	0	1.125958e-03
1.250000e+09	5.100400e+13	0.000000e+00	6.969699e-01	7.822765e+14	1.135126e+15	1.295551e+14	1.541084e+04	7.450859e+03	5.364607e+03	0	1.120828e-03
1.260000e+09	5.031012e+13	0.000000e+00	6.969699e-01	7.759035e+14	1.127815e+15	1.290088e+14	1.538743e+04	7.442476e+03	5.358571e+03	0	1.115722e-03
1.270000e+09	4.962576e+13	0.000000e+00	6.969699e-01	7.696149e+14	1.120551e+15	1.284660e+14	1.536421e+04	7.434106e+03	5.352545e+03	0	1.110640e-03
1.280000e+09	4.895075e+13	0.000000e+00	6.969699e-01	7.634093e+14	1.113334e+15	1.279268e+14	1.534117e+04	7.425752e+03	5.346530e+03	0	1.105581e-03
1.290000e+09	4.828493e+13	0.000000e+00	6.969699e-01	7.572852e+14	1.106167e+15	1.273911e+14	1.531832e+04	7.417416e+03	5.340528e+03	0	1.100546e-03
1.300000e+09	4.762813e+13	0.000000e+00	6.969699e-01	7.512411e+14	1.099049e+15	1.268589e+14	1.529565e+04	7.409097e+03	5.334539e+03	0	1.095533e-03
1.310000e+09	4.698019e+13	0.000000e+00	6.969699e-01	7.452758e+14	1.091981e+15	1.263303e+14	1.527316e+04	7.400799e+03	5.328564e+03	0	1.090542e-03
1.320000e+09	4.634097e+13	0.000000e+00	6.969699e-01	7.393878e+14	1.084965e+15	1.258051e+14	1.525085e+04	7.392521e+03	5.322604e+03	0	1.085574e-03
1.330000e+09	4.571029e+13	0.000000e+00	6.969699e-01	7.335757e+14	1.078000e+15	1.252833e+14	1.522872e+04	7.384266e+03	5.316660e+03	0	1.080626e-03
1.340000e+09	4.508803e+13	0.000000e+00	6.969699e-01	7.278384e+14	1.071087e+15	1.247650e+14	1.520676e+04	7.376034e+03	5.310733e+03	0	1.075700e-03
1.350000e+09	4.447402e+13	0.000000e+00	6.969699e-01	7.221744e+14	1.064227e+15	1.242500e+14	1.518497e+04	7.367825e+03	5.304823e+03	0	1.070795e-03
1.360000e+09	4.386813e+13	0.000000e+00	6.969699e-01	7.165826e+14	1.057420e+15	1.237384e+14	1.516335e+04	7.359642e+03	5.298931e+03	0	1.065910e-03
