#t		Qconv[W]	Ri[Rp]		R*[Rp]		Qc[W]		Qm[W]		Qr[W]		Tcmb[K]		Tl[K]		Tup[K]		RiFlag		Bs[T]
0.000000e+00	7.891366e+15	0.000000e+00	7.070710e-01	6.485925e+16	2.600937e+13	2.401281e+14	4.765407e+04	5.020756e+03	3.010587e+03	0	5.902040e-03
1.000000e+07	7.346222e+15	0.000000e+00	7.070710e-01	6.042143e+16	5.025481e+14	2.387976e+14	4.600088e+04	7.656204e+03	4.590876e+03	0	5.762878e-03
2.000000e+07	6.728186e+15	0.000000e+00	7.070710e-01	5.539880e+16	2.409557e+15	2.374770e+14	4.445615e+04	1.006674e+04	6.036301e+03	0	5.596512e-03
3.000000e+07	6.088046e+15	0.000000e+00	7.070710e-01	5.020124e+16	6.295403e+15	2.361664e+14	4.303580e+04	1.215664e+04	7.289462e+03	0	5.413075e-03
4.000000e+07	5.475238e+15	0.000000e+00	7.070710e-01	4.522739e+16	1.165100e+16	2.348655e+14	4.174534e+04	1.384539e+04	8.302088e+03	0	5.224994e-03
5.000000e+07	4.925664e+15	0.000000e+00	7.070710e-01	4.076658e+16	1.727172e+16	2.335743e+14	4.058000e+04	1.510563e+04	9.057764e+03	0	5.043976e-03
6.000000e+07	4.454427e+15	0.000000e+00	7.070710e-01	3.694021e+16	2.205722e+16	2.322928e+14	3.952742e+04	1.597084e+04	9.576567e+03	0	4.877703e-03
7.000000e+07	4.059163e+15	0.000000e+00	7.070710e-01	3.372885e+16	2.547681e+16	2.310208e+14	3.857189e+04	1.651321e+04	9.901784e+03	0	4.728938e-03
8.000000e+07	3.728574e+15	0.000000e+00	7.070710e-01	3.104100e+16	2.752347e+16	2.297582e+14	3.769804e+04	1.681447e+04	1.008243e+04	0	4.596907e-03
9.000000e+07	3.449470e+15	0.000000e+00	7.070710e-01	2.876998e+16	2.845658e+16	2.285050e+14	3.689268e+04	1.694680e+04	1.016178e+04	0	4.479218e-03
1.000000e+08	3.210278e+15	0.000000e+00	7.070710e-01	2.682223e+16	2.859283e+16	2.272612e+14	3.614529e+04	1.696588e+04	1.017322e+04	0	4.373196e-03
1.100000e+08	3.002008e+15	0.000000e+00	7.070710e-01	2.512507e+16	2.820530e+16	2.260266e+14	3.544769e+04	1.691145e+04	1.014058e+04	0	4.276503e-03
1.200000e+08	2.818041e+15	0.000000e+00	7.070710e-01	2.362494e+16	2.749687e+16	2.248011e+14	3.479354e+04	1.681066e+04	1.008014e+04	0	4.187298e-03
1.300000e+08	2.653581e+15	0.000000e+00	7.070710e-01	2.228308e+16	2.660715e+16	2.235847e+14	3.417783e+04	1.668153e+04	1.000272e+04	0	4.104203e-03
1.400000e+08	2.505142e+15	0.000000e+00	7.070710e-01	2.107128e+16	2.562738e+16	2.223773e+14	3.359655e+04	1.653591e+04	9.915400e+03	0	4.026202e-03
1.500000e+08	2.370145e+15	0.000000e+00	7.070710e-01	1.996865e+16	2.461546e+16	2.211788e+14	3.304640e+04	1.638149e+04	9.822804e+03	0	3.952541e-03
1.600000e+08	2.246636e+15	0.000000e+00	7.070710e-01	1.895936e+16	2.360697e+16	2.199892e+14	3.252460e+04	1.622324e+04	9.727913e+03	0	3.882657e-03
1.700000e+08	2.133095e+15	0.000000e+00	7.070710e-01	1.803112e+16	2.262310e+16	2.188083e+14	3.202880e+04	1.606436e+04	9.632646e+03	0	3.816116e-03
1.800000e+08	2.028313e+15	0.000000e+00	7.070710e-01	1.717411e+16	2.167590e+16	2.176362e+14	3.155691e+04	1.590690e+04	9.538223e+03	0	3.752578e-03
1.900000e+08	1.931301e+15	0.000000e+00	7.070710e-01	1.638031e+16	2.077150e+16	2.164727e+14	3.110713e+04	1.575211e+04	9.445410e+03	0	3.691771e-03
2.000000e+08	1.841237e+15	0.000000e+00	7.070710e-01	1.564306e+16	1.991254e+16	2.153178e+14	3.067785e+04	1.560079e+04	9.354672e+03	0	3.633468e-03
2.100000e+08	1.757425e+15	0.000000e+00	7.070710e-01	1.495671e+16	1.909937e+16	2.141713e+14	3.026763e+04	1.545337e+04	9.266275e+03	0	3.577478e-03
2.200000e+08	1.679266e+15	0.000000e+00	7.070710e-01	1.431639e+16	1.833105e+16	2.130333e+14	2.987516e+04	1.531008e+04	9.180358e+03	0	3.523638e-03
2.300000e+08	1.606242e+15	0.000000e+00	7.070710e-01	1.371790e+16	1.760584e+16	2.119036e+14	2.949927e+04	1.517102e+04	9.096974e+03	0	3.471803e-03
2.400000e+08	1.537898e+15	0.000000e+00	7.070710e-01	1.315755e+16	1.692163e+16	2.107822e+14	2.913889e+04	1.503618e+04	9.016120e+03	0	3.421847e-03
2.500000e+08	1.473833e+15	0.000000e+00	7.070710e-01	1.263207e+16	1.627611e+16	2.096690e+14	2.879304e+04	1.490550e+04	8.937757e+03	0	3.373657e-03
2.600000e+08	1.413691e+15	0.000000e+00	7.070710e-01	1.213856e+16	1.566692e+16	2.085640e+14	2.846083e+04	1.477886e+04	8.861823e+03	0	3.327128e-03
2.700000e+08	1.357151e+15	0.000000e+00	7.070710e-01	1.167444e+16	1.509171e+16	2.074670e+14	2.814144e+04	1.465615e+04	8.788243e+03	0	3.282168e-03
2.800000e+08	1.303931e+15	0.000000e+00	7.070710e-01	1.123738e+16	1.454827e+16	2.063781e+14	2.783411e+04	1.453723e+04	8.716935e+03	0	3.238692e-03
2.900000e+08	1.253771e+15	0.000000e+00	7.070710e-01	1.082530e+16	1.403448e+16	2.052971e+14	2.753815e+04	1.442195e+04	8.647811e+03	0	3.196619e-03
3.000000e+08	1.206440e+15	0.000000e+00	7.070710e-01	1.043631e+16	1.354833e+16	2.042240e+14	2.725292e+04	1.431017e+04	8.580784e+03	0	3.155877e-03
3.100000e+08	1.161729e+15	0.000000e+00	7.070710e-01	1.006869e+16	1.308796e+16	2.031587e+14	2.697781e+04	1.420175e+04	8.515768e+03	0	3.116399e-03
3.200000e+08	1.119446e+15	0.000000e+00	7.070710e-01	9.720901e+15	1.265166e+16	2.021011e+14	2.671229e+04	1.409653e+04	8.452678e+03	0	3.078122e-03
3.300000e+08	1.079418e+15	0.000000e+00	7.070710e-01	9.391528e+15	1.223780e+16	2.010512e+14	2.645584e+04	1.399439e+04	8.391431e+03	0	3.040988e-03
3.400000e+08	1.041487e+15	0.000000e+00	7.070710e-01	9.079282e+15	1.184491e+16	2.000090e+14	2.620798e+04	1.389519e+04	8.331949e+03	0	3.004942e-03
3.500000e+08	1.005509e+15	0.000000e+00	7.070710e-01	8.782989e+15	1.147161e+16	1.989743e+14	2.596827e+04	1.379881e+04	8.274156e+03	0	2.969933e-03
3.600000e+08	9.713503e+14	0.000000e+00	7.070710e-01	8.501571e+15	1.111663e+16	1.979472e+14	2.573630e+04	1.370513e+04	8.217981e+03	0	2.935914e-03
3.700000e+08	9.388910e+14	0.000000e+00	7.070710e-01	8.234041e+15	1.077879e+16	1.969274e+14	2.551169e+04	1.361403e+04	8.163354e+03	0	2.902840e-03
3.800000e+08	9.080195e+14	0.000000e+00	7.070710e-01	7.979495e+15	1.045703e+16	1.959151e+14	2.529407e+04	1.352540e+04	8.110210e+03	0	2.870669e-03
3.900000e+08	8.786335e+14	0.000000e+00	7.070710e-01	7.737098e+15	1.015032e+16	1.949100e+14	2.508311e+04	1.343914e+04	8.058488e+03	0	2.839361e-03
4.000000e+08	8.506389e+14	0.000000e+00	7.070710e-01	7.506083e+15	9.857734e+15	1.939123e+14	2.487849e+04	1.335516e+04	8.008129e+03	0	2.808880e-03
4.100000e+08	8.239489e+14	0.000000e+00	7.070710e-01	7.285742e+15	9.578429e+15	1.929217e+14	2.467993e+04	1.327335e+04	7.959076e+03	0	2.779190e-03
4.200000e+08	7.984832e+14	0.000000e+00	7.070710e-01	7.075422e+15	9.311592e+15	1.919382e+14	2.448713e+04	1.319364e+04	7.911277e+03	0	2.750258e-03
4.300000e+08	7.741678e+14	0.000000e+00	7.070710e-01	6.874519e+15	9.056499e+15	1.909619e+14	2.429985e+04	1.311593e+04	7.864683e+03	0	2.722052e-03
4.400000e+08	7.509342e+14	0.000000e+00	7.070710e-01	6.682474e+15	8.812451e+15	1.899925e+14	2.411783e+04	1.304015e+04	7.819244e+03	0	2.694545e-03
4.500000e+08	7.287187e+14	0.000000e+00	7.070710e-01	6.498768e+15	8.578823e+15	1.890302e+14	2.394086e+04	1.296623e+04	7.774917e+03	0	2.667707e-03
4.600000e+08	7.074623e+14	0.000000e+00	7.070710e-01	6.322920e+15	8.355017e+15	1.880747e+14	2.376870e+04	1.289409e+04	7.731658e+03	0	2.641512e-03
4.700000e+08	6.871105e+14	0.000000e+00	7.070710e-01	6.154484e+15	8.140489e+15	1.871261e+14	2.360116e+04	1.282366e+04	7.689427e+03	0	2.615935e-03
4.800000e+08	6.676122e+14	0.000000e+00	7.070710e-01	5.993045e+15	7.934714e+15	1.861843e+14	2.343804e+04	1.275488e+04	7.648185e+03	0	2.590953e-03
4.900000e+08	6.489201e+14	0.000000e+00	7.070710e-01	5.838215e+15	7.737231e+15	1.852492e+14	2.327917e+04	1.268769e+04	7.607895e+03	0	2.566543e-03
5.000000e+08	6.309900e+14	0.000000e+00	7.070710e-01	5.689634e+15	7.547577e+15	1.843208e+14	2.312436e+04	1.262202e+04	7.568522e+03	0	2.542683e-03
5.100000e+08	6.137809e+14	0.000000e+00	7.070710e-01	5.546967e+15	7.365348e+15	1.833991e+14	2.297346e+04	1.255784e+04	7.530033e+03	0	2.519354e-03
5.200000e+08	5.972542e+14	0.000000e+00	7.070710e-01	5.409900e+15	7.190149e+15	1.824839e+14	2.282631e+04	1.249507e+04	7.492397e+03	0	2.496536e-03
5.300000e+08	5.813742e+14	0.000000e+00	7.070710e-01	5.278140e+15	7.021620e+15	1.815753e+14	2.268276e+04	1.243368e+04	7.455584e+03	0	2.474211e-03
5.400000e+08	5.661072e+14	0.000000e+00	7.070710e-01	5.151412e+15	6.859422e+15	1.806731e+14	2.254269e+04	1.237361e+04	7.419564e+03	0	2.452361e-03
5.500000e+08	5.514218e+14	0.000000e+00	7.070710e-01	5.029459e+15	6.703234e+15	1.797773e+14	2.240595e+04	1.231481e+04	7.384311e+03	0	2.430969e-03
5.600000e+08	5.372887e+14	0.000000e+00	7.070710e-01	4.912043e+15	6.552751e+15	1.788880e+14	2.227242e+04	1.225726e+04	7.349797e+03	0	2.410020e-03
5.700000e+08	5.236802e+14	0.000000e+00	7.070710e-01	4.798936e+15	6.407703e+15	1.780049e+14	2.214198e+04	1.220089e+04	7.315999e+03	0	2.389499e-03
5.800000e+08	5.105705e+14	0.000000e+00	7.070710e-01	4.689929e+15	6.267817e+15	1.771281e+14	2.201452e+04	1.214568e+04	7.282893e+03	0	2.369391e-03
5.900000e+08	4.979352e+14	0.000000e+00	7.070710e-01	4.584821e+15	6.132854e+15	1.762575e+14	2.188994e+04	1.209158e+04	7.250456e+03	0	2.349682e-03
6.000000e+08	4.857516e+14	0.000000e+00	7.070710e-01	4.483426e+15	6.002576e+15	1.753931e+14	2.176813e+04	1.203857e+04	7.218665e+03	0	2.330359e-03
6.100000e+08	4.739982e+14	0.000000e+00	7.070710e-01	4.385568e+15	5.876765e+15	1.745348e+14	2.164899e+04	1.198660e+04	7.187501e+03	0	2.311410e-03
6.200000e+08	4.626546e+14	0.000000e+00	7.070710e-01	4.291083e+15	5.755209e+15	1.736825e+14	2.153243e+04	1.193564e+04	7.156944e+03	0	2.292822e-03
6.300000e+08	4.517020e+14	0.000000e+00	7.070710e-01	4.199814e+15	5.637720e+15	1.728363e+14	2.141836e+04	1.188565e+04	7.126974e+03	0	2.274585e-03
6.400000e+08	4.411224e+14	0.000000e+00	7.070710e-01	4.111614e+15	5.524113e+15	1.719960e+14	2.130670e+04	1.183662e+04	7.097573e+03	0	2.256686e-03
6.500000e+08	4.308988e+14	0.000000e+00	7.070710e-01	4.026345e+15	5.414216e+15	1.711617e+14	2.119737e+04	1.178851e+04	7.068725e+03	0	2.239116e-03
6.600000e+08	4.210153e+14	0.000000e+00	7.070710e-01	3.943877e+15	5.307865e+15	1.703332e+14	2.109029e+04	1.174129e+04	7.040411e+03	0	2.221864e-03
6.700000e+08	4.114568e+14	0.000000e+00	7.070710e-01	3.864085e+15	5.204902e+15	1.695105e+14	2.098539e+04	1.169494e+04	7.012616e+03	0	2.204920e-03
6.800000e+08	4.022090e+14	0.000000e+00	7.070710e-01	3.786854e+15	5.105183e+15	1.686937e+14	2.088260e+04	1.164943e+04	6.985326e+03	0	2.188276e-03
6.900000e+08	3.932585e+14	0.000000e+00	7.070710e-01	3.712072e+15	5.008571e+15	1.678825e+14	2.078185e+04	1.160473e+04	6.958524e+03	0	2.171921e-03
7.000000e+08	3.845925e+14	0.000000e+00	7.070710e-01	3.639635e+15	4.914932e+15	1.670771e+14	2.068307e+04	1.156082e+04	6.932196e+03	0	2.155849e-03
7.100000e+08	3.761989e+14	0.000000e+00	7.070710e-01	3.569444e+15	4.824144e+15	1.662773e+14	2.058621e+04	1.151769e+04	6.906330e+03	0	2.140050e-03
7.200000e+08	3.680663e+14	0.000000e+00	7.070710e-01	3.501406e+15	4.736087e+15	1.654830e+14	2.049120e+04	1.147530e+04	6.880912e+03	0	2.124517e-03
7.300000e+08	3.601839e+14	0.000000e+00	7.070710e-01	3.435432e+15	4.650654e+15	1.646944e+14	2.039799e+04	1.143363e+04	6.855929e+03	0	2.109241e-03
7.400000e+08	3.525414e+14	0.000000e+00	7.070710e-01	3.371437e+15	4.567736e+15	1.639112e+14	2.030653e+04	1.139268e+04	6.831370e+03	0	2.094216e-03
7.500000e+08	3.451290e+14	0.000000e+00	7.070710e-01	3.309341e+15	4.487231e+15	1.631335e+14	2.021676e+04	1.135240e+04	6.807222e+03	0	2.079435e-03
7.600000e+08	3.379375e+14	0.000000e+00	7.070710e-01	3.249068e+15	4.409047e+15	1.623612e+14	2.012863e+04	1.131280e+04	6.783475e+03	0	2.064890e-03
7.700000e+08	3.309580e+14	0.000000e+00	7.070710e-01	3.190546e+15	4.333091e+15	1.615943e+14	2.004210e+04	1.127385e+04	6.760117e+03	0	2.050575e-03
7.800000e+08	3.241822e+14	0.000000e+00	7.070710e-01	3.133707e+15	4.259276e+15	1.608327e+14	1.995711e+04	1.123553e+04	6.737139e+03	0	2.036485e-03
7.900000e+08	3.176022e+14	0.000000e+00	7.070710e-01	3.078486e+15	4.187523e+15	1.600764e+14	1.987363e+04	1.119782e+04	6.714529e+03	0	2.022612e-03
8.000000e+08	3.112103e+14	0.000000e+00	7.070710e-01	3.024819e+15	4.117748e+15	1.593254e+14	1.979162e+04	1.116071e+04	6.692280e+03	0	2.008951e-03
8.100000e+08	3.049994e+14	0.000000e+00	7.070710e-01	2.972648e+15	4.049884e+15	1.585795e+14	1.971102e+04	1.112419e+04	6.670380e+03	0	1.995497e-03
8.200000e+08	2.989627e+14	0.000000e+00	7.070710e-01	2.921917e+15	3.983854e+15	1.578388e+14	1.963181e+04	1.108824e+04	6.648821e+03	0	1.982244e-03
8.300000e+08	2.930935e+14	0.000000e+00	7.070710e-01	2.872572e+15	3.919592e+15	1.571033e+14	1.955394e+04	1.105284e+04	6.627595e+03	0	1.969186e-03
8.400000e+08	2.873856e+14	0.000000e+00	7.070710e-01	2.824561e+15	3.857035e+15	1.563728e+14	1.947737e+04	1.101798e+04	6.606694e+03	0	1.956319e-03
8.500000e+08	2.818331e+14	0.000000e+00	7.070710e-01	2.777837e+15	3.796120e+15	1.556473e+14	1.940208e+04	1.098365e+04	6.586108e+03	0	1.943638e-03
8.600000e+08	2.764304e+14	0.000000e+00	7.070710e-01	2.732351e+15	3.736790e+15	1.549269e+14	1.932803e+04	1.094984e+04	6.565830e+03	0	1.931138e-03
8.700000e+08	2.711720e+14	0.000000e+00	7.070710e-01	2.688061e+15	3.678984e+15	1.542114e+14	1.925518e+04	1.091652e+04	6.545853e+03	0	1.918815e-03
8.800000e+08	2.660527e+14	0.000000e+00	7.070710e-01	2.644923e+15	3.622653e+15	1.535009e+14	1.918351e+04	1.088369e+04	6.526170e+03	0	1.906663e-03
8.900000e+08	2.610676e+14	0.000000e+00	7.070710e-01	2.602897e+15	3.567747e+15	1.527952e+14	1.911298e+04	1.085134e+04	6.506773e+03	0	1.894680e-03
9.000000e+08	2.562121e+14	0.000000e+00	7.070710e-01	2.561944e+15	3.514210e+15	1.520943e+14	1.904356e+04	1.081946e+04	6.487655e+03	0	1.882860e-03
9.100000e+08	2.514815e+14	0.000000e+00	7.070710e-01	2.522026e+15	3.462002e+15	1.513983e+14	1.897523e+04	1.078803e+04	6.468810e+03	0	1.871200e-03
9.200000e+08	2.468716e+14	0.000000e+00	7.070710e-01	2.483109e+15	3.411075e+15	1.507070e+14	1.890796e+04	1.075705e+04	6.450231e+03	0	1.859695e-03
9.300000e+08	2.423782e+14	0.000000e+00	7.070710e-01	2.445159e+15	3.361384e+15	1.500205e+14	1.884173e+04	1.072650e+04	6.431913e+03	0	1.848343e-03
9.400000e+08	2.379974e+14	0.000000e+00	7.070710e-01	2.408142e+15	3.312891e+15	1.493387e+14	1.877650e+04	1.069638e+04	6.413849e+03	0	1.837140e-03
9.500000e+08	2.337254e+14	0.000000e+00	7.070710e-01	2.372028e+15	3.265557e+15	1.486615e+14	1.871225e+04	1.066667e+04	6.396034e+03	0	1.826081e-03
9.600000e+08	2.295585e+14	0.000000e+00	7.070710e-01	2.336786e+15	3.219342e+15	1.479889e+14	1.864896e+04	1.063736e+04	6.378461e+03	0	1.815164e-03
9.700000e+08	2.254933e+14	0.000000e+00	7.070710e-01	2.302389e+15	3.174211e+15	1.473209e+14	1.858660e+04	1.060845e+04	6.361126e+03	0	1.804386e-03
9.800000e+08	2.215265e+14	0.000000e+00	7.070710e-01	2.268809e+15	3.130127e+15	1.466575e+14	1.852516e+04	1.057993e+04	6.344023e+03	0	1.793742e-03
9.900000e+08	2.176549e+14	0.000000e+00	7.070710e-01	2.236018e+15	3.087059e+15	1.459985e+14	1.846461e+04	1.055178e+04	6.327147e+03	0	1.783231e-03
1.000000e+09	2.138753e+14	0.000000e+00	7.070710e-01	2.203993e+15	3.044975e+15	1.453441e+14	1.840493e+04	1.052401e+04	6.310493e+03	0	1.772849e-03
1.010000e+09	2.101849e+14	0.000000e+00	7.070710e-01	2.172709e+15	3.003844e+15	1.446940e+14	1.834610e+04	1.049660e+04	6.294057e+03	0	1.762593e-03
1.020000e+09	2.065808e+14	0.000000e+00	7.070710e-01	2.142142e+15	2.963635e+15	1.440484e+14	1.828810e+04	1.046954e+04	6.277833e+03	0	1.752460e-03
1.030000e+09	2.030603e+14	0.000000e+00	7.070710e-01	2.112271e+15	2.924319e+15	1.434072e+14	1.823092e+04	1.044283e+04	6.261816e+03	0	1.742448e-03
1.040000e+09	1.996208e+14	0.000000e+00	7.070710e-01	2.083073e+15	2.885871e+15	1.427702e+14	1.817453e+04	1.041646e+04	6.246004e+03	0	1.732554e-03
1.050000e+09	1.962599e+14	0.000000e+00	7.070710e-01	2.054528e+15	2.848265e+15	1.421376e+14	1.811891e+04	1.039042e+04	6.230391e+03	0	1.722775e-03
1.060000e+09	1.929750e+14	0.000000e+00	7.070710e-01	2.026616e+15	2.811475e+15	1.415093e+14	1.806405e+04	1.036471e+04	6.214973e+03	0	1.713109e-03
1.070000e+09	1.897638e+14	0.000000e+00	7.070710e-01	1.999319e+15	2.775473e+15	1.408852e+14	1.800993e+04	1.033932e+04	6.199746e+03	0	1.703554e-03
1.080000e+09	1.866242e+14	0.000000e+00	7.070710e-01	1.972617e+15	2.740242e+15	1.402652e+14	1.795654e+04	1.031423e+04	6.184706e+03	0	1.694107e-03
1.090000e+09	1.835540e+14	0.000000e+00	7.070710e-01	1.946493e+15	2.705756e+15	1.396495e+14	1.790386e+04	1.028946e+04	6.169850e+03	0	1.684765e-03
1.100000e+09	1.805512e+14	0.000000e+00	7.070710e-01	1.920930e+15	2.671992e+15	1.390379e+14	1.785187e+04	1.026498e+04	6.155174e+03	0	1.675527e-03
1.110000e+09	1.776136e+14	0.000000e+00	7.070710e-01	1.895911e+15	2.638932e+15	1.384304e+14	1.780056e+04	1.024080e+04	6.140673e+03	0	1.666391e-03
1.120000e+09	1.747396e+14	0.000000e+00	7.070710e-01	1.871421e+15	2.606553e+15	1.378269e+14	1.774992e+04	1.021691e+04	6.126345e+03	0	1.657354e-03
1.130000e+09	1.719271e+14	0.000000e+00	7.070710e-01	1.847445e+15	2.574838e+15	1.372275e+14	1.769993e+04	1.019329e+04	6.112187e+03	0	1.648414e-03
1.140000e+09	1.691744e+14	0.000000e+00	7.070710e-01	1.823967e+15	2.543768e+15	1.366321e+14	1.765058e+04	1.016996e+04	6.098194e+03	0	1.639569e-03
1.150000e+09	1.664798e+14	0.000000e+00	7.070710e-01	1.800974e+15	2.513324e+15	1.360407e+14	1.760185e+04	1.014689e+04	6.084364e+03	0	1.630817e-03
1.160000e+09	1.638417e+14	0.000000e+00	7.070710e-01	1.778452e+15	2.483490e+15	1.354532e+14	1.755373e+04	1.012410e+04	6.070693e+03	0	1.622157e-03
1.170000e+09	1.612584e+14	0.000000e+00	7.070710e-01	1.756388e+15	2.454247e+15	1.348696e+14	1.750621e+04	1.010156e+04	6.057179e+03	0	1.613586e-03
1.180000e+09	1.587284e+14	0.000000e+00	7.070710e-01	1.734769e+15	2.425581e+15	1.342899e+14	1.745928e+04	1.007928e+04	6.043819e+03	0	1.605103e-03
1.190000e+09	1.562503e+14	0.000000e+00	7.070710e-01	1.713583e+15	2.397475e+15	1.337141e+14	1.741292e+04	1.005725e+04	6.030609e+03	0	1.596706e-03
1.200000e+09	1.538226e+14	0.000000e+00	7.070710e-01	1.692817e+15	2.369913e+15	1.331421e+14	1.736713e+04	1.003546e+04	6.017547e+03	0	1.588394e-03
1.210000e+09	1.514439e+14	0.000000e+00	7.070710e-01	1.672462e+15	2.342883e+15	1.325739e+14	1.732189e+04	1.001392e+04	6.004629e+03	0	1.580163e-03
1.220000e+09	1.491129e+14	0.000000e+00	7.070710e-01	1.652505e+15	2.316370e+15	1.320094e+14	1.727719e+04	9.992616e+03	5.991854e+03	0	1.572014e-03
1.230000e+09	1.468283e+14	0.000000e+00	7.070710e-01	1.632936e+15	2.290359e+15	1.314487e+14	1.723302e+04	9.971544e+03	5.979219e+03	0	1.563945e-03
1.240000e+09	1.445889e+14	0.000000e+00	7.070710e-01	1.613745e+15	2.264838e+15	1.308917e+14	1.718937e+04	9.950701e+03	5.966721e+03	0	1.555953e-03
1.250000e+09	1.423934e+14	0.000000e+00	7.070710e-01	1.594922e+15	2.239795e+15	1.303384e+14	1.714623e+04	9.930083e+03	5.954358e+03	0	1.548037e-03
1.260000e+09	1.402407e+14	0.000000e+00	7.070710e-01	1.576456e+15	2.215216e+15	1.297887e+14	1.710360e+04	9.909685e+03	5.942127e+03	0	1.540197e-03
1.270000e+09	1.381297e+14	0.000000e+00	7.070710e-01	1.558339e+15	2.191088e+15	1.292426e+14	1.706146e+04	9.889504e+03	5.930026e+03	0	1.532429e-03
1.280000e+09	1.360593e+14	0.000000e+00	7.070710e-01	1.540562e+15	2.167403e+15	1.287002e+14	1.701979e+04	9.869536e+03	5.918052e+03	0	1.524734e-03
1.290000e+09	1.340284e+14	0.000000e+00	7.070710e-01	1.523116e+15	2.144149e+15	1.281613e+14	1.697861e+04	9.849777e+03	5.906204e+03	0	1.517110e-03
1.300000e+09	1.320360e+14	0.000000e+00	7.070710e-01	1.505993e+15	2.121313e+15	1.276259e+14	1.693788e+04	9.830223e+03	5.894479e+03	0	1.509555e-03
1.310000e+09	1.300812e+14	0.000000e+00	7.070710e-01	1.489184e+15	2.098886e+15	1.270940e+14	1.689762e+04	9.810871e+03	5.882875e+03	0	1.502068e-03
1.320000e+09	1.281629e+14	0.000000e+00	7.070710e-01	1.472682e+15	2.076858e+15	1.265657e+14	1.685780e+04	9.791718e+03	5.871390e+03	0	1.494648e-03
1.330000e+09	1.262803e+14	0.000000e+00	7.070710e-01	1.456478e+15	2.055219e+15	1.260408e+14	1.681842e+04	9.772759e+03	5.860022e+03	0	1.487293e-03
1.340000e+09	1.244325e+14	0.000000e+00	7.070710e-01	1.440566e+15	2.033959e+15	1.255193e+14	1.677947e+04	9.753992e+03	5.848769e+03	0	1.480003e-03
1.350000e+09	1.226185e+14	0.000000e+00	7.070710e-01	1.424938e+15	2.013069e+15	1.250012e+14	1.674094e+04	9.735414e+03	5.837629e+03	0	1.472776e-03
1.360000e+09	1.208376e+14	0.000000e+00	7.070710e-01	1.409588e+15	1.992540e+15	1.244865e+14	1.670283e+04	9.717021e+03	5.826600e+03	0	1.465611e-03
