#t		Qconv[W]	Ri[Rp]		R*[Rp]		Qc[W]		Qm[W]		Qr[W]		Tcmb[K]		Tl[K]		Tup[K]		RiFlag		Bs[T]
0.000000e+00	2.587763e+12	0.000000e+00	6.030149e-01	6.543953e+13	9.885577e+13	1.646866e+14	5.520860e+03	3.737414e+03	2.186590e+03	0	4.397770e-04
1.000000e+07	2.559144e+12	0.000000e+00	6.030149e-01	6.496714e+13	1.001911e+14	1.637741e+14	5.515400e+03	3.745325e+03	2.191219e+03	0	4.381498e-04
2.000000e+07	2.530671e+12	0.000000e+00	6.030149e-01	6.449721e+13	1.015117e+14	1.628685e+14	5.509979e+03	3.753072e+03	2.195752e+03	0	4.365187e-04
3.000000e+07	2.502353e+12	0.000000e+00	6.030149e-01	6.402987e+13	1.028170e+14	1.619696e+14	5.504597e+03	3.760656e+03	2.200189e+03	0	4.348844e-04
4.000000e+07	2.474198e+12	0.000000e+00	6.030149e-01	6.356526e+13	1.041067e+14	1.610774e+14	5.499254e+03	3.768078e+03	2.204531e+03	0	4.332472e-04
5.000000e+07	2.446214e+12	0.000000e+00	6.030149e-01	6.310351e+13	1.053803e+14	1.601919e+14	5.493949e+03	3.775340e+03	2.208779e+03	0	4.316076e-04
6.000000e+07	2.418408e+12	0.000000e+00	6.030149e-01	6.264472e+13	1.066373e+14	1.593129e+14	5.488684e+03	3.782443e+03	2.212935e+03	0	4.299661e-04
7.000000e+07	2.390789e+12	0.000000e+00	6.030149e-01	6.218902e+13	1.078774e+14	1.584405e+14	5.483456e+03	3.789389e+03	2.216999e+03	0	4.283230e-04
8.000000e+07	2.363363e+12	0.000000e+00	6.030149e-01	6.173651e+13	1.091002e+14	1.575747e+14	5.478266e+03	3.796180e+03	2.220972e+03	0	4.266788e-04
9.000000e+07	2.336136e+12	0.000000e+00	6.030149e-01	6.128729e+13	1.103052e+14	1.567152e+14	5.473115e+03	3.802817e+03	2.224855e+03	0	4.250340e-04
1.000000e+08	2.309114e+12	0.000000e+00	6.030149e-01	6.084145e+13	1.114923e+14	1.558621e+14	5.468000e+03	3.809302e+03	2.228649e+03	0	4.233889e-04
1.100000e+08	2.282304e+12	0.000000e+00	6.030149e-01	6.039908e+13	1.126611e+14	1.550154e+14	5.462923e+03	3.815637e+03	2.232355e+03	0	4.217439e-04
1.200000e+08	2.255709e+12	0.000000e+00	6.030149e-01	5.996025e+13	1.138112e+14	1.541749e+14	5.457882e+03	3.821823e+03	2.235974e+03	0	4.200993e-04
1.300000e+08	2.229335e+12	0.000000e+00	6.030149e-01	5.952505e+13	1.149425e+14	1.533407e+14	5.452879e+03	3.827862e+03	2.239507e+03	0	4.184557e-04
1.400000e+08	2.203187e+12	0.000000e+00	6.030149e-01	5.909353e+13	1.160547e+14	1.525126e+14	5.447911e+03	3.833756e+03	2.242956e+03	0	4.168132e-04
1.500000e+08	2.177268e+12	0.000000e+00	6.030149e-01	5.866577e+13	1.171476e+14	1.516907e+14	5.442979e+03	3.839506e+03	2.246320e+03	0	4.151722e-04
1.600000e+08	2.151582e+12	0.000000e+00	6.030149e-01	5.824181e+13	1.182210e+14	1.508748e+14	5.438084e+03	3.845115e+03	2.249601e+03	0	4.135331e-04
1.700000e+08	2.126133e+12	0.000000e+00	6.030149e-01	5.782171e+13	1.192747e+14	1.500649e+14	5.433223e+03	3.850584e+03	2.252801e+03	0	4.118962e-04
1.800000e+08	2.100923e+12	0.000000e+00	6.030149e-01	5.740552e+13	1.203085e+14	1.492610e+14	5.428397e+03	3.855915e+03	2.255920e+03	0	4.102617e-04
1.900000e+08	2.075956e+12	0.000000e+00	6.030149e-01	5.699328e+13	1.213223e+14	1.484631e+14	5.423606e+03	3.861109e+03	2.258959e+03	0	4.086301e-04
2.000000e+08	2.051233e+12	0.000000e+00	6.030149e-01	5.658502e+13	1.223161e+14	1.476710e+14	5.418850e+03	3.866169e+03	2.261920e+03	0	4.070015e-04
2.100000e+08	2.026757e+12	0.000000e+00	6.030149e-01	5.618079e+13	1.232896e+14	1.468847e+14	5.414127e+03	3.871097e+03	2.264803e+03	0	4.053762e-04
2.200000e+08	2.002531e+12	0.000000e+00	6.030149e-01	5.578059e+13	1.242428e+14	1.461042e+14	5.409438e+03	3.875894e+03	2.267609e+03	0	4.037545e-04
2.300000e+08	1.978554e+12	0.000000e+00	6.030149e-01	5.538446e+13	1.251757e+14	1.453295e+14	5.404783e+03	3.880562e+03	2.270340e+03	0	4.021366e-04
2.400000e+08	1.954830e+12	0.000000e+00	6.030149e-01	5.499243e+13	1.260883e+14	1.445604e+14	5.400161e+03	3.885103e+03	2.272997e+03	0	4.005228e-04
2.500000e+08	1.931358e+12	0.000000e+00	6.030149e-01	5.460449e+13	1.269804e+14	1.437969e+14	5.395571e+03	3.889518e+03	2.275580e+03	0	3.989134e-04
2.600000e+08	1.908140e+12	0.000000e+00	6.030149e-01	5.422067e+13	1.278520e+14	1.430391e+14	5.391013e+03	3.893811e+03	2.278091e+03	0	3.973084e-04
2.700000e+08	1.885176e+12	0.000000e+00	6.030149e-01	5.384098e+13	1.287033e+14	1.422867e+14	5.386488e+03	3.897981e+03	2.280531e+03	0	3.957081e-04
2.800000e+08	1.862467e+12	0.000000e+00	6.030149e-01	5.346541e+13	1.295341e+14	1.415399e+14	5.381994e+03	3.902032e+03	2.282901e+03	0	3.941128e-04
2.900000e+08	1.840013e+12	0.000000e+00	6.030149e-01	5.309397e+13	1.303446e+14	1.407985e+14	5.377531e+03	3.905965e+03	2.285202e+03	0	3.925226e-04
3.000000e+08	1.817814e+12	0.000000e+00	6.030149e-01	5.272665e+13	1.311347e+14	1.400625e+14	5.373100e+03	3.909781e+03	2.287435e+03	0	3.909376e-04
3.100000e+08	1.795869e+12	0.000000e+00	6.030149e-01	5.236346e+13	1.319046e+14	1.393319e+14	5.368699e+03	3.913484e+03	2.289601e+03	0	3.893581e-04
3.200000e+08	1.774179e+12	0.000000e+00	6.030149e-01	5.200438e+13	1.326544e+14	1.386066e+14	5.364328e+03	3.917074e+03	2.291701e+03	0	3.877842e-04
3.300000e+08	1.752743e+12	0.000000e+00	6.030149e-01	5.164941e+13	1.333840e+14	1.378866e+14	5.359988e+03	3.920553e+03	2.293737e+03	0	3.862161e-04
3.400000e+08	1.731559e+12	0.000000e+00	6.030149e-01	5.129853e+13	1.340936e+14	1.371718e+14	5.355676e+03	3.923923e+03	2.295708e+03	0	3.846538e-04
3.500000e+08	1.710627e+12	0.000000e+00	6.030149e-01	5.095172e+13	1.347833e+14	1.364622e+14	5.351395e+03	3.927186e+03	2.297618e+03	0	3.830976e-04
3.600000e+08	1.689947e+12	0.000000e+00	6.030149e-01	5.060897e+13	1.354533e+14	1.357577e+14	5.347142e+03	3.930343e+03	2.299465e+03	0	3.815475e-04
3.700000e+08	1.669516e+12	0.000000e+00	6.030149e-01	5.027026e+13	1.361037e+14	1.350584e+14	5.342917e+03	3.933397e+03	2.301252e+03	0	3.800037e-04
3.800000e+08	1.649334e+12	0.000000e+00	6.030149e-01	4.993557e+13	1.367345e+14	1.343641e+14	5.338721e+03	3.936350e+03	2.302979e+03	0	3.784662e-04
3.900000e+08	1.629399e+12	0.000000e+00	6.030149e-01	4.960487e+13	1.373460e+14	1.336748e+14	5.334553e+03	3.939201e+03	2.304647e+03	0	3.769353e-04
4.000000e+08	1.609709e+12	0.000000e+00	6.030149e-01	4.927813e+13	1.379384e+14	1.329905e+14	5.330412e+03	3.941955e+03	2.306258e+03	0	3.754108e-04
4.100000e+08	1.590264e+12	0.000000e+00	6.030149e-01	4.895533e+13	1.385117e+14	1.323111e+14	5.326299e+03	3.944612e+03	2.307813e+03	0	3.738930e-04
4.200000e+08	1.571060e+12	0.000000e+00	6.030149e-01	4.863644e+13	1.390662e+14	1.316367e+14	5.322212e+03	3.947173e+03	2.309311e+03	0	3.723819e-04
4.300000e+08	1.552097e+12	0.000000e+00	6.030149e-01	4.832144e+13	1.396021e+14	1.309670e+14	5.318152e+03	3.949642e+03	2.310755e+03	0	3.708776e-04
4.400000e+08	1.533373e+12	0.000000e+00	6.030149e-01	4.801028e+13	1.401195e+14	1.303022e+14	5.314118e+03	3.952018e+03	2.312146e+03	0	3.693801e-04
4.500000e+08	1.514884e+12	0.000000e+00	6.030149e-01	4.770294e+13	1.406186e+14	1.296422e+14	5.310111e+03	3.954305e+03	2.313484e+03	0	3.678896e-04
4.600000e+08	1.496630e+12	0.000000e+00	6.030149e-01	4.739937e+13	1.410997e+14	1.289869e+14	5.306128e+03	3.956503e+03	2.314769e+03	0	3.664059e-04
4.700000e+08	1.478609e+12	0.000000e+00	6.030149e-01	4.709956e+13	1.415629e+14	1.283364e+14	5.302171e+03	3.958614e+03	2.316005e+03	0	3.649293e-04
4.800000e+08	1.460817e+12	0.000000e+00	6.030149e-01	4.680345e+13	1.420085e+14	1.276904e+14	5.298240e+03	3.960640e+03	2.317190e+03	0	3.634597e-04
4.900000e+08	1.443252e+12	0.000000e+00	6.030149e-01	4.651102e+13	1.424366e+14	1.270491e+14	5.294332e+03	3.962582e+03	2.318326e+03	0	3.619971e-04
5.000000e+08	1.425914e+12	0.000000e+00	6.030149e-01	4.622222e+13	1.428476e+14	1.264124e+14	5.290450e+03	3.964442e+03	2.319414e+03	0	3.605416e-04
5.100000e+08	1.408798e+12	0.000000e+00	6.030149e-01	4.593702e+13	1.432415e+14	1.257803e+14	5.286591e+03	3.966222e+03	2.320456e+03	0	3.590932e-04
5.200000e+08	1.391902e+12	0.000000e+00	6.030149e-01	4.565537e+13	1.436187e+14	1.251526e+14	5.282756e+03	3.967922e+03	2.321450e+03	0	3.576519e-04
5.300000e+08	1.375225e+12	0.000000e+00	6.030149e-01	4.537724e+13	1.439794e+14	1.245294e+14	5.278944e+03	3.969545e+03	2.322400e+03	0	3.562177e-04
5.400000e+08	1.358763e+12	0.000000e+00	6.030149e-01	4.510259e+13	1.443239e+14	1.239107e+14	5.275156e+03	3.971092e+03	2.323305e+03	0	3.547907e-04
5.500000e+08	1.342514e+12	0.000000e+00	6.030149e-01	4.483138e+13	1.446522e+14	1.232964e+14	5.271391e+03	3.972564e+03	2.324166e+03	0	3.533707e-04
5.600000e+08	1.326476e+12	0.000000e+00	6.030149e-01	4.456356e+13	1.449648e+14	1.226864e+14	5.267648e+03	3.973963e+03	2.324985e+03	0	3.519579e-04
5.700000e+08	1.310645e+12	0.000000e+00	6.030149e-01	4.429909e+13	1.452618e+14	1.220808e+14	5.263928e+03	3.975290e+03	2.325761e+03	0	3.505522e-04
5.800000e+08	1.295020e+12	0.000000e+00	6.030149e-01	4.403794e+13	1.455435e+14	1.214794e+14	5.260229e+03	3.976547e+03	2.326497e+03	0	3.491536e-04
5.900000e+08	1.279598e+12	0.000000e+00	6.030149e-01	4.378005e+13	1.458100e+14	1.208824e+14	5.256553e+03	3.977735e+03	2.327192e+03	0	3.477620e-04
6.000000e+08	1.264376e+12	0.000000e+00	6.030149e-01	4.352540e+13	1.460618e+14	1.202895e+14	5.252897e+03	3.978855e+03	2.327847e+03	0	3.463775e-04
6.100000e+08	1.249351e+12	0.000000e+00	6.030149e-01	4.327393e+13	1.462989e+14	1.197009e+14	5.249264e+03	3.979909e+03	2.328464e+03	0	3.450000e-04
6.200000e+08	1.234521e+12	0.000000e+00	6.030149e-01	4.302560e+13	1.465218e+14	1.191164e+14	5.245651e+03	3.980899e+03	2.329042e+03	0	3.436295e-04
6.300000e+08	1.219883e+12	0.000000e+00	6.030149e-01	4.278037e+13	1.467305e+14	1.185360e+14	5.242058e+03	3.981824e+03	2.329584e+03	0	3.422660e-04
6.400000e+08	1.205435e+12	0.000000e+00	6.030149e-01	4.253820e+13	1.469253e+14	1.179597e+14	5.238487e+03	3.982687e+03	2.330089e+03	0	3.409094e-04
6.500000e+08	1.191174e+12	0.000000e+00	6.030149e-01	4.229905e+13	1.471066e+14	1.173875e+14	5.234935e+03	3.983489e+03	2.330558e+03	0	3.395596e-04
6.600000e+08	1.177097e+12	0.000000e+00	6.030149e-01	4.206287e+13	1.472744e+14	1.168193e+14	5.231403e+03	3.984232e+03	2.330992e+03	0	3.382167e-04
6.700000e+08	1.163202e+12	0.000000e+00	6.030149e-01	4.182962e+13	1.474292e+14	1.162551e+14	5.227891e+03	3.984915e+03	2.331392e+03	0	3.368806e-04
6.800000e+08	1.149486e+12	0.000000e+00	6.030149e-01	4.159926e+13	1.475711e+14	1.156949e+14	5.224399e+03	3.985542e+03	2.331759e+03	0	3.355513e-04
6.900000e+08	1.135947e+12	0.000000e+00	6.030149e-01	4.137175e+13	1.477003e+14	1.151386e+14	5.220926e+03	3.986112e+03	2.332092e+03	0	3.342286e-04
7.000000e+08	1.122581e+12	0.000000e+00	6.030149e-01	4.114705e+13	1.478171e+14	1.145862e+14	5.217471e+03	3.986627e+03	2.332394e+03	0	3.329126e-04
7.100000e+08	1.109387e+12	0.000000e+00	6.030149e-01	4.092511e+13	1.479218e+14	1.140376e+14	5.214036e+03	3.987088e+03	2.332664e+03	0	3.316032e-04
7.200000e+08	1.096362e+12	0.000000e+00	6.030149e-01	4.070590e+13	1.480146e+14	1.134929e+14	5.210619e+03	3.987497e+03	2.332903e+03	0	3.303003e-04
7.300000e+08	1.083503e+12	0.000000e+00	6.030149e-01	4.048937e+13	1.480957e+14	1.129520e+14	5.207220e+03	3.987854e+03	2.333112e+03	0	3.290038e-04
7.400000e+08	1.070807e+12	0.000000e+00	6.030149e-01	4.027548e+13	1.481653e+14	1.124149e+14	5.203839e+03	3.988160e+03	2.333291e+03	0	3.277138e-04
7.500000e+08	1.058273e+12	0.000000e+00	6.030149e-01	4.006420e+13	1.482237e+14	1.118816e+14	5.200476e+03	3.988417e+03	2.333441e+03	0	3.264301e-04
7.600000e+08	1.045898e+12	0.000000e+00	6.030149e-01	3.985548e+13	1.482712e+14	1.113519e+14	5.197131e+03	3.988626e+03	2.333563e+03	0	3.251527e-04
7.700000e+08	1.033679e+12	0.000000e+00	6.030149e-01	3.964928e+13	1.483079e+14	1.108259e+14	5.193803e+03	3.988788e+03	2.333658e+03	0	3.238815e-04
7.800000e+08	1.021613e+12	0.000000e+00	6.030149e-01	3.944557e+13	1.483340e+14	1.103036e+14	5.190492e+03	3.988903e+03	2.333725e+03	0	3.226164e-04
7.900000e+08	1.009700e+12	0.000000e+00	6.030149e-01	3.924430e+13	1.483499e+14	1.097849e+14	5.187198e+03	3.988972e+03	2.333766e+03	0	3.213575e-04
8.000000e+08	9.979349e+11	0.000000e+00	6.030149e-01	3.904544e+13	1.483557e+14	1.092698e+14	5.183921e+03	3.988998e+03	2.333781e+03	0	3.201044e-04
8.100000e+08	9.863169e+11	0.000000e+00	6.030149e-01	3.884895e+13	1.483516e+14	1.087583e+14	5.180661e+03	3.988980e+03	2.333770e+03	0	3.188574e-04
8.200000e+08	9.748432e+11	0.000000e+00	6.030149e-01	3.865480e+13	1.483378e+14	1.082503e+14	5.177417e+03	3.988919e+03	2.333735e+03	0	3.176161e-04
8.300000e+08	9.635116e+11	0.000000e+00	6.030149e-01	3.846294e+13	1.483147e+14	1.077459e+14	5.174189e+03	3.988818e+03	2.333675e+03	0	3.163807e-04
8.400000e+08	9.523198e+11	0.000000e+00	6.030149e-01	3.827334e+13	1.482823e+14	1.072449e+14	5.170977e+03	3.988675e+03	2.333592e+03	0	3.151509e-04
8.500000e+08	9.412655e+11	0.000000e+00	6.030149e-01	3.808596e+13	1.482410e+14	1.067473e+14	5.167781e+03	3.988493e+03	2.333486e+03	0	3.139268e-04
8.600000e+08	9.303464e+11	0.000000e+00	6.030149e-01	3.790077e+13	1.481908e+14	1.062532e+14	5.164601e+03	3.988273e+03	2.333357e+03	0	3.127082e-04
8.700000e+08	9.195605e+11	0.000000e+00	6.030149e-01	3.771773e+13	1.481320e+14	1.057625e+14	5.161436e+03	3.988014e+03	2.333205e+03	0	3.114950e-04
8.800000e+08	9.089055e+11	0.000000e+00	6.030149e-01	3.753680e+13	1.480649e+14	1.052752e+14	5.158286e+03	3.987718e+03	2.333032e+03	0	3.102872e-04
8.900000e+08	8.983794e+11	0.000000e+00	6.030149e-01	3.735796e+13	1.479895e+14	1.047912e+14	5.155152e+03	3.987387e+03	2.332838e+03	0	3.090847e-04
9.000000e+08	8.879799e+11	0.000000e+00	6.030149e-01	3.718117e+13	1.479062e+14	1.043106e+14	5.152032e+03	3.987020e+03	2.332623e+03	0	3.078875e-04
9.100000e+08	8.777049e+11	0.000000e+00	6.030149e-01	3.700640e+13	1.478150e+14	1.038332e+14	5.148927e+03	3.986618e+03	2.332388e+03	0	3.066953e-04
9.200000e+08	8.675526e+11	0.000000e+00	6.030149e-01	3.683361e+13	1.477162e+14	1.033591e+14	5.145837e+03	3.986182e+03	2.332134e+03	0	3.055082e-04
9.300000e+08	8.575208e+11	0.000000e+00	6.030149e-01	3.666277e+13	1.476100e+14	1.028883e+14	5.142761e+03	3.985714e+03	2.331860e+03	0	3.043261e-04
9.400000e+08	8.476075e+11	0.000000e+00	6.030149e-01	3.649385e+13	1.474966e+14	1.024207e+14	5.139699e+03	3.985213e+03	2.331567e+03	0	3.031488e-04
9.500000e+08	8.378108e+11	0.000000e+00	6.030149e-01	3.632681e+13	1.473761e+14	1.019562e+14	5.136652e+03	3.984681e+03	2.331255e+03	0	3.019764e-04
9.600000e+08	8.281287e+11	0.000000e+00	6.030149e-01	3.616163e+13	1.472487e+14	1.014950e+14	5.133618e+03	3.984118e+03	2.330926e+03	0	3.008086e-04
9.700000e+08	8.185593e+11	0.000000e+00	6.030149e-01	3.599828e+13	1.471146e+14	1.010368e+14	5.130598e+03	3.983525e+03	2.330579e+03	0	2.996455e-04
9.800000e+08	8.091009e+11	0.000000e+00	6.030149e-01	3.583672e+13	1.469740e+14	1.005818e+14	5.127592e+03	3.982903e+03	2.330215e+03	0	2.984868e-04
9.900000e+08	7.997514e+11	0.000000e+00	6.030149e-01	3.567693e+13	1.468269e+14	1.001299e+14	5.124599e+03	3.982252e+03	2.329834e+03	0	2.973327e-04
1.000000e+09	7.905091e+11	0.000000e+00	6.030149e-01	3.551888e+13	1.466737e+14	9.968106e+13	5.121619e+03	3.981573e+03	2.329437e+03	0	2.961829e-04
1.010000e+09	7.813723e+11	0.000000e+00	6.030149e-01	3.536254e+13	1.465145e+14	9.923525e+13	5.118653e+03	3.980866e+03	2.329024e+03	0	2.950373e-04
1.020000e+09	7.723391e+11	0.000000e+00	6.030149e-01	3.520787e+13	1.463494e+14	9.879246e+13	5.115700e+03	3.980133e+03	2.328595e+03	0	2.938960e-04
1.030000e+09	7.634079e+11	0.000000e+00	6.030149e-01	3.505486e+13	1.461786e+14	9.835267e+13	5.112759e+03	3.979375e+03	2.328151e+03	0	2.927587e-04
1.040000e+09	7.545769e+11	0.000000e+00	6.030149e-01	3.490348e+13	1.460022e+14	9.791586e+13	5.109832e+03	3.978590e+03	2.327692e+03	0	2.916255e-04
1.050000e+09	7.458444e+11	0.000000e+00	6.030149e-01	3.475369e+13	1.458204e+14	9.748199e+13	5.106917e+03	3.977781e+03	2.327219e+03	0	2.904962e-04
1.060000e+09	7.372089e+11	0.000000e+00	6.030149e-01	3.460548e+13	1.456333e+14	9.705105e+13	5.104014e+03	3.976948e+03	2.326731e+03	0	2.893707e-04
1.070000e+09	7.286687e+11	0.000000e+00	6.030149e-01	3.445881e+13	1.454412e+14	9.662301e+13	5.101124e+03	3.976091e+03	2.326230e+03	0	2.882489e-04
1.080000e+09	7.202222e+11	0.000000e+00	6.030149e-01	3.431367e+13	1.452441e+14	9.619785e+13	5.098246e+03	3.975211e+03	2.325715e+03	0	2.871308e-04
1.090000e+09	7.118678e+11	0.000000e+00	6.030149e-01	3.417002e+13	1.450421e+14	9.577555e+13	5.095380e+03	3.974309e+03	2.325187e+03	0	2.860163e-04
1.100000e+09	7.036041e+11	0.000000e+00	6.030149e-01	3.402784e+13	1.448355e+14	9.535609e+13	5.092527e+03	3.973384e+03	2.324646e+03	0	2.849052e-04
1.110000e+09	6.954295e+11	0.000000e+00	6.030149e-01	3.388711e+13	1.446243e+14	9.493944e+13	5.089685e+03	3.972439e+03	2.324093e+03	0	2.837976e-04
1.120000e+09	6.873426e+11	0.000000e+00	6.030149e-01	3.374781e+13	1.444087e+14	9.452558e+13	5.086854e+03	3.971472e+03	2.323528e+03	0	2.826932e-04
1.130000e+09	6.793418e+11	0.000000e+00	6.030149e-01	3.360990e+13	1.441888e+14	9.411449e+13	5.084036e+03	3.970486e+03	2.322950e+03	0	2.815921e-04
1.140000e+09	6.714258e+11	0.000000e+00	6.030149e-01	3.347338e+13	1.439648e+14	9.370615e+13	5.081229e+03	3.969479e+03	2.322361e+03	0	2.804940e-04
1.150000e+09	6.635931e+11	0.000000e+00	6.030149e-01	3.333821e+13	1.437368e+14	9.330053e+13	5.078433e+03	3.968453e+03	2.321761e+03	0	2.793991e-04
1.160000e+09	6.558424e+11	0.000000e+00	6.030149e-01	3.320437e+13	1.435048e+14	9.289762e+13	5.075648e+03	3.967409e+03	2.321150e+03	0	2.783070e-04
1.170000e+09	6.481723e+11	0.000000e+00	6.030149e-01	3.307184e+13	1.432690e+14	9.249739e+13	5.072875e+03	3.966346e+03	2.320528e+03	0	2.772178e-04
1.180000e+09	6.405816e+11	0.000000e+00	6.030149e-01	3.294061e+13	1.430296e+14	9.209983e+13	5.070113e+03	3.965265e+03	2.319896e+03	0	2.761314e-04
1.190000e+09	6.330688e+11	0.000000e+00	6.030149e-01	3.281064e+13	1.427867e+14	9.170491e+13	5.067362e+03	3.964167e+03	2.319253e+03	0	2.750477e-04
1.200000e+09	6.256327e+11	0.000000e+00	6.030149e-01	3.268193e+13	1.425403e+14	9.131261e+13	5.064621e+03	3.963052e+03	2.318601e+03	0	2.739665e-04
1.210000e+09	6.182721e+11	0.000000e+00	6.030149e-01	3.255444e+13	1.422905e+14	9.092292e+13	5.061891e+03	3.961920e+03	2.317939e+03	0	2.728879e-04
1.220000e+09	6.109858e+11	0.000000e+00	6.030149e-01	3.242816e+13	1.420376e+14	9.053580e+13	5.059172e+03	3.960772e+03	2.317267e+03	0	2.718116e-04
1.230000e+09	6.037724e+11	0.000000e+00	6.030149e-01	3.230307e+13	1.417815e+14	9.015125e+13	5.056464e+03	3.959609e+03	2.316587e+03	0	2.707377e-04
1.240000e+09	5.966309e+11	0.000000e+00	6.030149e-01	3.217915e+13	1.415225e+14	8.976923e+13	5.053766e+03	3.958430e+03	2.315897e+03	0	2.696660e-04
1.250000e+09	5.895600e+11	0.000000e+00	6.030149e-01	3.205639e+13	1.412605e+14	8.938974e+13	5.051078e+03	3.957236e+03	2.315199e+03	0	2.685965e-04
1.260000e+09	5.825586e+11	0.000000e+00	6.030149e-01	3.193476e+13	1.409958e+14	8.901276e+13	5.048400e+03	3.956028e+03	2.314492e+03	0	2.675290e-04
1.270000e+09	5.756256e+11	0.000000e+00	6.030149e-01	3.181424e+13	1.407283e+14	8.863825e+13	5.045733e+03	3.954806e+03	2.313777e+03	0	2.664635e-04
1.280000e+09	5.687600e+11	0.000000e+00	6.030149e-01	3.169482e+13	1.404582e+14	8.826621e+13	5.043075e+03	3.953571e+03	2.313054e+03	0	2.653998e-04
1.290000e+09	5.619605e+11	0.000000e+00	6.030149e-01	3.157649e+13	1.401857e+14	8.789661e+13	5.040428e+03	3.952322e+03	2.312323e+03	0	2.643380e-04
1.300000e+09	5.552262e+11	0.000000e+00	6.030149e-01	3.145921e+13	1.399106e+14	8.752944e+13	5.037791e+03	3.951060e+03	2.311585e+03	0	2.632778e-04
1.310000e+09	5.485560e+11	0.000000e+00	6.030149e-01	3.134299e+13	1.396333e+14	8.716468e+13	5.035163e+03	3.949785e+03	2.310839e+03	0	2.622193e-04
1.320000e+09	5.419488e+11	0.000000e+00	6.030149e-01	3.122779e+13	1.393537e+14	8.680231e+13	5.032545e+03	3.948498e+03	2.310086e+03	0	2.611623e-04
1.330000e+09	5.354038e+11	0.000000e+00	6.030149e-01	3.111361e+13	1.390719e+14	8.644230e+13	5.029936e+03	3.947200e+03	2.309327e+03	0	2.601067e-04
1.340000e+09	5.289199e+11	0.000000e+00	6.030149e-01	3.100043e+13	1.387881e+14	8.608465e+13	5.027337e+03	3.945889e+03	2.308560e+03	0	2.590524e-04
1.350000e+09	5.224961e+11	0.000000e+00	6.030149e-01	3.088823e+13	1.385023e+14	8.572933e+13	5.024748e+03	3.944568e+03	2.307787e+03	0	2.579994e-04
1.360000e+09	5.161314e+11	0.000000e+00	6.030149e-01	3.077700e+13	1.382145e+14	8.537633e+13	5.022168e+03	3.943236e+03	2.307007e+03	0	2.569475e-04
