#t		Qconv[W]	Ri[Rp]		R*[Rp]		Qc[W]		Qm[W]		Qr[W]		Tcmb[K]		Tl[K]		Tup[K]		RiFlag		Bs[T]
0.000000e+00	3.790712e+12	0.000000e+00	4.916666e-01	1.589455e+14	4.407774e+13	7.262387e+13	6.842025e+03	2.843912e+03	2.224301e+03	0	6.195807e-04
1.000000e+07	3.582122e+12	0.000000e+00	4.916666e-01	1.502778e+14	4.635861e+13	7.222148e+13	6.756540e+03	2.866507e+03	2.241973e+03	0	6.080012e-04
2.000000e+07	3.391215e+12	0.000000e+00	4.916666e-01	1.423441e+14	4.858047e+13	7.182210e+13	6.675625e+03	2.887728e+03	2.258570e+03	0	5.970024e-04
3.000000e+07	3.215969e+12	0.000000e+00	4.916666e-01	1.350606e+14	5.074058e+13	7.142570e+13	6.598902e+03	2.907671e+03	2.274168e+03	0	5.865363e-04
4.000000e+07	3.054651e+12	0.000000e+00	4.916666e-01	1.283554e+14	5.283673e+13	7.103227e+13	6.526033e+03	2.926424e+03	2.288836e+03	0	5.765604e-04
5.000000e+07	2.905768e+12	0.000000e+00	4.916666e-01	1.221664e+14	5.486719e+13	7.064177e+13	6.456718e+03	2.944065e+03	2.302633e+03	0	5.670368e-04
6.000000e+07	2.768029e+12	0.000000e+00	4.916666e-01	1.164402e+14	5.683068e+13	7.025418e+13	6.390689e+03	2.960665e+03	2.315617e+03	0	5.579319e-04
7.000000e+07	2.640309e+12	0.000000e+00	4.916666e-01	1.111301e+14	5.872627e+13	6.986947e+13	6.327704e+03	2.976289e+03	2.327837e+03	0	5.492152e-04
8.000000e+07	2.521629e+12	0.000000e+00	4.916666e-01	1.061954e+14	6.055343e+13	6.948763e+13	6.267546e+03	2.990996e+03	2.339339e+03	0	5.408598e-04
9.000000e+07	2.411127e+12	0.000000e+00	4.916666e-01	1.016003e+14	6.231188e+13	6.910862e+13	6.210018e+03	3.004841e+03	2.350167e+03	0	5.328410e-04
1.000000e+08	2.308046e+12	0.000000e+00	4.916666e-01	9.731338e+13	6.400165e+13	6.873243e+13	6.154942e+03	3.017872e+03	2.360360e+03	0	5.251368e-04
1.100000e+08	2.211717e+12	0.000000e+00	4.916666e-01	9.330695e+13	6.562300e+13	6.835904e+13	6.102156e+03	3.030137e+03	2.369952e+03	0	5.177270e-04
1.200000e+08	2.121547e+12	0.000000e+00	4.916666e-01	8.955633e+13	6.717641e+13	6.798840e+13	6.051513e+03	3.041677e+03	2.378978e+03	0	5.105934e-04
1.300000e+08	2.037009e+12	0.000000e+00	4.916666e-01	8.603964e+13	6.866253e+13	6.762052e+13	6.002878e+03	3.052533e+03	2.387469e+03	0	5.037193e-04
1.400000e+08	1.957630e+12	0.000000e+00	4.916666e-01	8.273731e+13	7.008219e+13	6.725535e+13	5.956127e+03	3.062741e+03	2.395453e+03	0	4.970894e-04
1.500000e+08	1.882991e+12	0.000000e+00	4.916666e-01	7.963187e+13	7.143638e+13	6.689289e+13	5.911146e+03	3.072336e+03	2.402958e+03	0	4.906898e-04
1.600000e+08	1.812713e+12	0.000000e+00	4.916666e-01	7.670761e+13	7.272618e+13	6.653310e+13	5.867833e+03	3.081350e+03	2.410007e+03	0	4.845076e-04
1.700000e+08	1.746455e+12	0.000000e+00	4.916666e-01	7.395042e+13	7.395281e+13	6.617597e+13	5.826091e+03	3.089812e+03	2.416626e+03	0	4.785310e-04
1.800000e+08	1.683912e+12	0.000000e+00	4.916666e-01	7.134755e+13	7.511755e+13	6.582147e+13	5.785831e+03	3.097752e+03	2.422836e+03	0	4.727491e-04
1.900000e+08	1.624805e+12	0.000000e+00	4.916666e-01	6.888748e+13	7.622179e+13	6.546958e+13	5.746971e+03	3.105195e+03	2.428657e+03	0	4.671518e-04
2.000000e+08	1.568884e+12	0.000000e+00	4.916666e-01	6.655978e+13	7.726696e+13	6.512028e+13	5.709436e+03	3.112166e+03	2.434110e+03	0	4.617298e-04
2.100000e+08	1.515919e+12	0.000000e+00	4.916666e-01	6.435496e+13	7.825456e+13	6.477355e+13	5.673155e+03	3.118690e+03	2.439212e+03	0	4.564743e-04
2.200000e+08	1.465704e+12	0.000000e+00	4.916666e-01	6.226439e+13	7.918610e+13	6.442937e+13	5.638063e+03	3.124787e+03	2.443981e+03	0	4.513773e-04
2.300000e+08	1.418047e+12	0.000000e+00	4.916666e-01	6.028019e+13	8.006315e+13	6.408771e+13	5.604098e+03	3.130479e+03	2.448433e+03	0	4.464312e-04
2.400000e+08	1.372777e+12	0.000000e+00	4.916666e-01	5.839517e+13	8.088730e+13	6.374856e+13	5.571204e+03	3.135786e+03	2.452583e+03	0	4.416291e-04
2.500000e+08	1.329735e+12	0.000000e+00	4.916666e-01	5.660275e+13	8.166014e+13	6.341189e+13	5.539329e+03	3.140726e+03	2.456447e+03	0	4.369644e-04
2.600000e+08	1.288775e+12	0.000000e+00	4.916666e-01	5.489689e+13	8.238327e+13	6.307769e+13	5.508421e+03	3.145317e+03	2.460038e+03	0	4.324309e-04
2.700000e+08	1.249764e+12	0.000000e+00	4.916666e-01	5.327203e+13	8.305829e+13	6.274592e+13	5.478436e+03	3.149576e+03	2.463368e+03	0	4.280228e-04
2.800000e+08	1.212578e+12	0.000000e+00	4.916666e-01	5.172308e+13	8.368680e+13	6.241659e+13	5.449330e+03	3.153518e+03	2.466452e+03	0	4.237349e-04
2.900000e+08	1.177105e+12	0.000000e+00	4.916666e-01	5.024533e+13	8.427039e+13	6.208965e+13	5.421063e+03	3.157159e+03	2.469299e+03	0	4.195619e-04
3.000000e+08	1.143240e+12	0.000000e+00	4.916666e-01	4.883443e+13	8.481061e+13	6.176510e+13	5.393595e+03	3.160512e+03	2.471922e+03	0	4.154991e-04
3.100000e+08	1.110886e+12	0.000000e+00	4.916666e-01	4.748639e+13	8.530904e+13	6.144291e+13	5.366891e+03	3.163592e+03	2.474331e+03	0	4.115420e-04
3.200000e+08	1.079955e+12	0.000000e+00	4.916666e-01	4.619747e+13	8.576719e+13	6.112307e+13	5.340918e+03	3.166412e+03	2.476537e+03	0	4.076863e-04
3.300000e+08	1.050362e+12	0.000000e+00	4.916666e-01	4.496425e+13	8.618658e+13	6.080555e+13	5.315644e+03	3.168983e+03	2.478548e+03	0	4.039281e-04
3.400000e+08	1.022033e+12	0.000000e+00	4.916666e-01	4.378353e+13	8.656866e+13	6.049034e+13	5.291039e+03	3.171318e+03	2.480374e+03	0	4.002634e-04
3.500000e+08	9.948940e+11	0.000000e+00	4.916666e-01	4.265235e+13	8.691490e+13	6.017741e+13	5.267074e+03	3.173427e+03	2.482023e+03	0	3.966888e-04
3.600000e+08	9.688801e+11	0.000000e+00	4.916666e-01	4.156795e+13	8.722669e+13	5.986676e+13	5.243723e+03	3.175320e+03	2.483504e+03	0	3.932007e-04
3.700000e+08	9.439292e+11	0.000000e+00	4.916666e-01	4.052776e+13	8.750543e+13	5.955835e+13	5.220961e+03	3.177009e+03	2.484825e+03	0	3.897961e-04
3.800000e+08	9.199837e+11	0.000000e+00	4.916666e-01	3.952938e+13	8.775246e+13	5.925218e+13	5.198764e+03	3.178502e+03	2.485993e+03	0	3.864717e-04
3.900000e+08	8.969898e+11	0.000000e+00	4.916666e-01	3.857060e+13	8.796908e+13	5.894822e+13	5.177109e+03	3.179809e+03	2.487015e+03	0	3.832247e-04
4.000000e+08	8.748974e+11	0.000000e+00	4.916666e-01	3.764931e+13	8.815658e+13	5.864645e+13	5.155975e+03	3.180939e+03	2.487898e+03	0	3.800523e-04
4.100000e+08	8.536596e+11	0.000000e+00	4.916666e-01	3.676358e+13	8.831619e+13	5.834686e+13	5.135343e+03	3.181898e+03	2.488649e+03	0	3.769519e-04
4.200000e+08	8.332325e+11	0.000000e+00	4.916666e-01	3.591157e+13	8.844911e+13	5.804943e+13	5.115191e+03	3.182697e+03	2.489274e+03	0	3.739209e-04
4.300000e+08	8.135749e+11	0.000000e+00	4.916666e-01	3.509159e+13	8.855652e+13	5.775414e+13	5.095504e+03	3.183341e+03	2.489778e+03	0	3.709569e-04
4.400000e+08	7.946484e+11	0.000000e+00	4.916666e-01	3.430202e+13	8.863951e+13	5.746098e+13	5.076263e+03	3.183839e+03	2.490167e+03	0	3.680577e-04
4.500000e+08	7.764167e+11	0.000000e+00	4.916666e-01	3.354136e+13	8.869921e+13	5.716992e+13	5.057451e+03	3.184197e+03	2.490447e+03	0	3.652212e-04
4.600000e+08	7.588459e+11	0.000000e+00	4.916666e-01	3.280820e+13	8.873666e+13	5.688095e+13	5.039053e+03	3.184421e+03	2.490622e+03	0	3.624451e-04
4.700000e+08	7.419042e+11	0.000000e+00	4.916666e-01	3.210123e+13	8.875287e+13	5.659406e+13	5.021055e+03	3.184518e+03	2.490698e+03	0	3.597275e-04
4.800000e+08	7.255615e+11	0.000000e+00	4.916666e-01	3.141918e+13	8.874886e+13	5.630922e+13	5.003442e+03	3.184494e+03	2.490679e+03	0	3.570664e-04
4.900000e+08	7.097896e+11	0.000000e+00	4.916666e-01	3.076088e+13	8.872554e+13	5.602642e+13	4.986201e+03	3.184354e+03	2.490570e+03	0	3.544602e-04
5.000000e+08	6.945618e+11	0.000000e+00	4.916666e-01	3.012524e+13	8.868382e+13	5.574564e+13	4.969318e+03	3.184105e+03	2.490375e+03	0	3.519070e-04
5.100000e+08	6.798531e+11	0.000000e+00	4.916666e-01	2.951120e+13	8.862463e+13	5.546687e+13	4.952782e+03	3.183750e+03	2.490097e+03	0	3.494052e-04
5.200000e+08	6.656399e+11	0.000000e+00	4.916666e-01	2.891779e+13	8.854877e+13	5.519008e+13	4.936580e+03	3.183295e+03	2.489741e+03	0	3.469531e-04
5.300000e+08	6.518998e+11	0.000000e+00	4.916666e-01	2.834407e+13	8.845708e+13	5.491527e+13	4.920702e+03	3.182745e+03	2.489311e+03	0	3.445492e-04
5.400000e+08	6.386118e+11	0.000000e+00	4.916666e-01	2.778917e+13	8.835035e+13	5.464242e+13	4.905138e+03	3.182104e+03	2.488810e+03	0	3.421921e-04
5.500000e+08	6.257559e+11	0.000000e+00	4.916666e-01	2.725226e+13	8.822932e+13	5.437151e+13	4.889876e+03	3.181376e+03	2.488241e+03	0	3.398803e-04
5.600000e+08	6.133133e+11	0.000000e+00	4.916666e-01	2.673256e+13	8.809474e+13	5.410253e+13	4.874906e+03	3.180566e+03	2.487607e+03	0	3.376124e-04
5.700000e+08	6.012662e+11	0.000000e+00	4.916666e-01	2.622932e+13	8.794728e+13	5.383545e+13	4.860221e+03	3.179678e+03	2.486912e+03	0	3.353873e-04
5.800000e+08	5.895977e+11	0.000000e+00	4.916666e-01	2.574185e+13	8.778762e+13	5.357027e+13	4.845810e+03	3.178715e+03	2.486159e+03	0	3.332035e-04
5.900000e+08	5.782918e+11	0.000000e+00	4.916666e-01	2.526948e+13	8.761641e+13	5.330698e+13	4.831666e+03	3.177680e+03	2.485350e+03	0	3.310599e-04
6.000000e+08	5.673333e+11	0.000000e+00	4.916666e-01	2.481158e+13	8.743426e+13	5.304554e+13	4.817779e+03	3.176578e+03	2.484488e+03	0	3.289554e-04
6.100000e+08	5.567080e+11	0.000000e+00	4.916666e-01	2.436755e+13	8.724176e+13	5.278595e+13	4.804143e+03	3.175412e+03	2.483576e+03	0	3.268889e-04
6.200000e+08	5.464020e+11	0.000000e+00	4.916666e-01	2.393683e+13	8.703949e+13	5.252820e+13	4.790749e+03	3.174184e+03	2.482615e+03	0	3.248591e-04
6.300000e+08	5.364026e+11	0.000000e+00	4.916666e-01	2.351886e+13	8.682796e+13	5.227227e+13	4.777591e+03	3.172898e+03	2.481609e+03	0	3.228652e-04
6.400000e+08	5.266973e+11	0.000000e+00	4.916666e-01	2.311316e+13	8.660773e+13	5.201814e+13	4.764661e+03	3.171556e+03	2.480560e+03	0	3.209061e-04
6.500000e+08	5.172746e+11	0.000000e+00	4.916666e-01	2.271922e+13	8.637927e+13	5.176580e+13	4.751952e+03	3.170161e+03	2.479469e+03	0	3.189809e-04
6.600000e+08	5.081232e+11	0.000000e+00	4.916666e-01	2.233659e+13	8.614307e+13	5.151524e+13	4.739460e+03	3.168717e+03	2.478339e+03	0	3.170886e-04
6.700000e+08	4.992326e+11	0.000000e+00	4.916666e-01	2.196482e+13	8.589959e+13	5.126644e+13	4.727176e+03	3.167225e+03	2.477172e+03	0	3.152284e-04
6.800000e+08	4.905928e+11	0.000000e+00	4.916666e-01	2.160349e+13	8.564925e+13	5.101939e+13	4.715096e+03	3.165687e+03	2.475970e+03	0	3.133993e-04
6.900000e+08	4.821942e+11	0.000000e+00	4.916666e-01	2.125222e+13	8.539249e+13	5.077407e+13	4.703213e+03	3.164107e+03	2.474734e+03	0	3.116006e-04
7.000000e+08	4.740275e+11	0.000000e+00	4.916666e-01	2.091061e+13	8.512970e+13	5.053047e+13	4.691522e+03	3.162486e+03	2.473466e+03	0	3.098314e-04
7.100000e+08	4.660842e+11	0.000000e+00	4.916666e-01	2.057831e+13	8.486125e+13	5.028858e+13	4.680018e+03	3.160826e+03	2.472168e+03	0	3.080911e-04
7.200000e+08	4.583559e+11	0.000000e+00	4.916666e-01	2.025497e+13	8.458752e+13	5.004837e+13	4.668697e+03	3.159129e+03	2.470841e+03	0	3.063787e-04
7.300000e+08	4.508348e+11	0.000000e+00	4.916666e-01	1.994027e+13	8.430886e+13	4.980985e+13	4.657552e+03	3.157398e+03	2.469487e+03	0	3.046937e-04
7.400000e+08	4.435132e+11	0.000000e+00	4.916666e-01	1.963387e+13	8.402560e+13	4.957299e+13	4.646579e+03	3.155634e+03	2.468107e+03	0	3.030352e-04
7.500000e+08	4.363839e+11	0.000000e+00	4.916666e-01	1.933550e+13	8.373804e+13	4.933778e+13	4.635774e+03	3.153838e+03	2.466702e+03	0	3.014028e-04
7.600000e+08	4.294401e+11	0.000000e+00	4.916666e-01	1.904485e+13	8.344652e+13	4.910421e+13	4.625132e+03	3.152013e+03	2.465275e+03	0	2.997955e-04
7.700000e+08	4.226752e+11	0.000000e+00	4.916666e-01	1.876166e+13	8.315130e+13	4.887227e+13	4.614650e+03	3.150160e+03	2.463826e+03	0	2.982130e-04
7.800000e+08	4.160829e+11	0.000000e+00	4.916666e-01	1.848567e+13	8.285267e+13	4.864194e+13	4.604323e+03	3.148281e+03	2.462356e+03	0	2.966545e-04
7.900000e+08	4.096571e+11	0.000000e+00	4.916666e-01	1.821662e+13	8.255089e+13	4.841320e+13	4.594146e+03	3.146377e+03	2.460867e+03	0	2.951194e-04
8.000000e+08	4.033922e+11	0.000000e+00	4.916666e-01	1.795427e+13	8.224623e+13	4.818606e+13	4.584118e+03	3.144449e+03	2.459359e+03	0	2.936073e-04
8.100000e+08	3.972826e+11	0.000000e+00	4.916666e-01	1.769840e+13	8.193889e+13	4.796048e+13	4.574232e+03	3.142499e+03	2.457834e+03	0	2.921174e-04
8.200000e+08	3.913229e+11	0.000000e+00	4.916666e-01	1.744879e+13	8.162914e+13	4.773647e+13	4.564488e+03	3.140528e+03	2.456292e+03	0	2.906494e-04
8.300000e+08	3.855083e+11	0.000000e+00	4.916666e-01	1.720522e+13	8.131717e+13	4.751401e+13	4.554879e+03	3.138538e+03	2.454736e+03	0	2.892026e-04
8.400000e+08	3.798338e+11	0.000000e+00	4.916666e-01	1.696749e+13	8.100322e+13	4.729308e+13	4.545405e+03	3.136529e+03	2.453164e+03	0	2.877766e-04
8.500000e+08	3.742949e+11	0.000000e+00	4.916666e-01	1.673542e+13	8.068746e+13	4.707368e+13	4.536060e+03	3.134503e+03	2.451580e+03	0	2.863709e-04
8.600000e+08	3.688870e+11	0.000000e+00	4.916666e-01	1.650881e+13	8.037008e+13	4.685579e+13	4.526843e+03	3.132460e+03	2.449982e+03	0	2.849850e-04
8.700000e+08	3.636059e+11	0.000000e+00	4.916666e-01	1.628749e+13	8.005127e+13	4.663940e+13	4.517750e+03	3.130402e+03	2.448373e+03	0	2.836185e-04
8.800000e+08	3.584475e+11	0.000000e+00	4.916666e-01	1.607129e+13	7.973121e+13	4.642450e+13	4.508778e+03	3.128330e+03	2.446752e+03	0	2.822709e-04
8.900000e+08	3.534079e+11	0.000000e+00	4.916666e-01	1.586004e+13	7.941005e+13	4.621108e+13	4.499925e+03	3.126245e+03	2.445121e+03	0	2.809418e-04
9.000000e+08	3.484833e+11	0.000000e+00	4.916666e-01	1.565360e+13	7.908794e+13	4.599912e+13	4.491188e+03	3.124147e+03	2.443480e+03	0	2.796308e-04
9.100000e+08	3.436701e+11	0.000000e+00	4.916666e-01	1.545179e+13	7.876504e+13	4.578861e+13	4.482564e+03	3.122038e+03	2.441830e+03	0	2.783374e-04
9.200000e+08	3.389648e+11	0.000000e+00	4.916666e-01	1.525449e+13	7.844149e+13	4.557955e+13	4.474050e+03	3.119918e+03	2.440172e+03	0	2.770613e-04
9.300000e+08	3.343641e+11	0.000000e+00	4.916666e-01	1.506156e+13	7.811741e+13	4.537191e+13	4.465645e+03	3.117787e+03	2.438506e+03	0	2.758021e-04
9.400000e+08	3.298648e+11	0.000000e+00	4.916666e-01	1.487285e+13	7.779294e+13	4.516570e+13	4.457346e+03	3.115648e+03	2.436833e+03	0	2.745594e-04
9.500000e+08	3.254637e+11	0.000000e+00	4.916666e-01	1.468825e+13	7.746819e+13	4.496089e+13	4.449150e+03	3.113501e+03	2.435153e+03	0	2.733329e-04
9.600000e+08	3.211580e+11	0.000000e+00	4.916666e-01	1.450762e+13	7.714330e+13	4.475748e+13	4.441056e+03	3.111345e+03	2.433467e+03	0	2.721221e-04
9.700000e+08	3.169447e+11	0.000000e+00	4.916666e-01	1.433085e+13	7.681835e+13	4.455545e+13	4.433060e+03	3.109183e+03	2.431776e+03	0	2.709269e-04
9.800000e+08	3.128212e+11	0.000000e+00	4.916666e-01	1.415783e+13	7.649345e+13	4.435480e+13	4.425162e+03	3.107014e+03	2.430080e+03	0	2.697468e-04
9.900000e+08	3.087847e+11	0.000000e+00	4.916666e-01	1.398844e+13	7.616870e+13	4.415551e+13	4.417358e+03	3.104839e+03	2.428379e+03	0	2.685816e-04
1.000000e+09	3.048327e+11	0.000000e+00	4.916666e-01	1.382257e+13	7.584419e+13	4.395758e+13	4.409648e+03	3.102659e+03	2.426674e+03	0	2.674308e-04
1.010000e+09	3.009628e+11	0.000000e+00	4.916666e-01	1.366014e+13	7.552002e+13	4.376099e+13	4.402028e+03	3.100474e+03	2.424965e+03	0	2.662943e-04
1.020000e+09	2.971726e+11	0.000000e+00	4.916666e-01	1.350103e+13	7.519626e+13	4.356572e+13	4.394498e+03	3.098285e+03	2.423253e+03	0	2.651717e-04
1.030000e+09	2.934598e+11	0.000000e+00	4.916666e-01	1.334515e+13	7.487299e+13	4.337179e+13	4.387055e+03	3.096092e+03	2.421538e+03	0	2.640628e-04
1.040000e+09	2.898222e+11	0.000000e+00	4.916666e-01	1.319241e+13	7.455030e+13	4.317916e+13	4.379698e+03	3.093897e+03	2.419821e+03	0	2.629671e-04
1.050000e+09	2.862577e+11	0.000000e+00	4.916666e-01	1.304272e+13	7.422823e+13	4.298783e+13	4.372424e+03	3.091698e+03	2.418101e+03	0	2.618846e-04
1.060000e+09	2.827642e+11	0.000000e+00	4.916666e-01	1.289600e+13	7.390688e+13	4.279779e+13	4.365233e+03	3.089497e+03	2.416380e+03	0	2.608149e-04
1.070000e+09	2.793399e+11	0.000000e+00	4.916666e-01	1.275217e+13	7.358629e+13	4.260903e+13	4.358122e+03	3.087295e+03	2.414657e+03	0	2.597578e-04
1.080000e+09	2.759827e+11	0.000000e+00	4.916666e-01	1.261114e+13	7.326653e+13	4.242155e+13	4.351090e+03	3.085091e+03	2.412933e+03	0	2.587130e-04
1.090000e+09	2.726909e+11	0.000000e+00	4.916666e-01	1.247284e+13	7.294765e+13	4.223532e+13	4.344136e+03	3.082886e+03	2.411209e+03	0	2.576803e-04
1.100000e+09	2.694626e+11	0.000000e+00	4.916666e-01	1.233719e+13	7.262972e+13	4.205034e+13	4.337258e+03	3.080680e+03	2.409483e+03	0	2.566594e-04
1.110000e+09	2.662962e+11	0.000000e+00	4.916666e-01	1.220413e+13	7.231277e+13	4.186661e+13	4.330454e+03	3.078474e+03	2.407758e+03	0	2.556501e-04
1.120000e+09	2.631901e+11	0.000000e+00	4.916666e-01	1.207358e+13	7.199686e+13	4.168410e+13	4.323723e+03	3.076268e+03	2.406033e+03	0	2.546522e-04
1.130000e+09	2.601425e+11	0.000000e+00	4.916666e-01	1.194549e+13	7.168203e+13	4.150282e+13	4.317064e+03	3.074062e+03	2.404307e+03	0	2.536655e-04
1.140000e+09	2.571520e+11	0.000000e+00	4.916666e-01	1.181977e+13	7.136832e+13	4.132275e+13	4.310475e+03	3.071857e+03	2.402583e+03	0	2.526897e-04
1.150000e+09	2.542170e+11	0.000000e+00	4.916666e-01	1.169638e+13	7.105576e+13	4.114388e+13	4.303956e+03	3.069653e+03	2.400859e+03	0	2.517247e-04
1.160000e+09	2.513362e+11	0.000000e+00	4.916666e-01	1.157525e+13	7.074440e+13	4.096620e+13	4.297504e+03	3.067450e+03	2.399136e+03	0	2.507702e-04
1.170000e+09	2.485081e+11	0.000000e+00	4.916666e-01	1.145632e+13	7.043426e+13	4.078971e+13	4.291119e+03	3.065249e+03	2.397414e+03	0	2.498261e-04
1.180000e+09	2.457314e+11	0.000000e+00	4.916666e-01	1.133954e+13	7.012541e+13	4.061439e+13	4.284799e+03	3.063050e+03	2.395694e+03	0	2.488922e-04
1.190000e+09	2.430048e+11	0.000000e+00	4.916666e-01	1.122485e+13	6.981783e+13	4.044024e+13	4.278543e+03	3.060852e+03	2.393975e+03	0	2.479682e-04
1.200000e+09	2.403270e+11	0.000000e+00	4.916666e-01	1.111221e+13	6.951158e+13	4.026724e+13	4.272351e+03	3.058657e+03	2.392259e+03	0	2.470540e-04
1.210000e+09	2.376968e+11	0.000000e+00	4.916666e-01	1.100155e+13	6.920668e+13	4.009539e+13	4.266220e+03	3.056464e+03	2.390544e+03	0	2.461494e-04
1.220000e+09	2.351130e+11	0.000000e+00	4.916666e-01	1.089283e+13	6.890313e+13	3.992468e+13	4.260150e+03	3.054274e+03	2.388831e+03	0	2.452542e-04
1.230000e+09	2.325744e+11	0.000000e+00	4.916666e-01	1.078600e+13	6.860100e+13	3.975510e+13	4.254140e+03	3.052087e+03	2.387120e+03	0	2.443683e-04
1.240000e+09	2.300800e+11	0.000000e+00	4.916666e-01	1.068102e+13	6.830027e+13	3.958664e+13	4.248188e+03	3.049903e+03	2.385412e+03	0	2.434916e-04
1.250000e+09	2.276286e+11	0.000000e+00	4.916666e-01	1.057784e+13	6.800099e+13	3.941929e+13	4.242295e+03	3.047722e+03	2.383706e+03	0	2.426237e-04
1.260000e+09	2.252193e+11	0.000000e+00	4.916666e-01	1.047641e+13	6.770315e+13	3.925305e+13	4.236458e+03	3.045545e+03	2.382003e+03	0	2.417647e-04
1.270000e+09	2.228510e+11	0.000000e+00	4.916666e-01	1.037670e+13	6.740678e+13	3.908790e+13	4.230676e+03	3.043372e+03	2.380303e+03	0	2.409142e-04
1.280000e+09	2.205227e+11	0.000000e+00	4.916666e-01	1.027866e+13	6.711189e+13	3.892383e+13	4.224950e+03	3.041202e+03	2.378606e+03	0	2.400723e-04
1.290000e+09	2.182335e+11	0.000000e+00	4.916666e-01	1.018226e+13	6.681850e+13	3.876085e+13	4.219278e+03	3.039036e+03	2.376912e+03	0	2.392387e-04
1.300000e+09	2.159824e+11	0.000000e+00	4.916666e-01	1.008745e+13	6.652662e+13	3.859893e+13	4.213658e+03	3.036874e+03	2.375222e+03	0	2.384133e-04
1.310000e+09	2.137686e+11	0.000000e+00	4.916666e-01	9.994204e+12	6.623626e+13	3.843808e+13	4.208091e+03	3.034717e+03	2.373534e+03	0	2.375959e-04
1.320000e+09	2.115912e+11	0.000000e+00	4.916666e-01	9.902477e+12	6.594744e+13	3.827828e+13	4.202575e+03	3.032564e+03	2.371850e+03	0	2.367865e-04
1.330000e+09	2.094494e+11	0.000000e+00	4.916666e-01	9.812238e+12	6.566015e+13	3.811952e+13	4.197109e+03	3.030415e+03	2.370170e+03	0	2.359848e-04
1.340000e+09	2.073423e+11	0.000000e+00	4.916666e-01	9.723452e+12	6.537441e+13	3.796180e+13	4.191693e+03	3.028271e+03	2.368493e+03	0	2.351908e-04
1.350000e+09	2.052691e+11	0.000000e+00	4.916666e-01	9.636086e+12	6.509022e+13	3.780511e+13	4.186326e+03	3.026132e+03	2.366820e+03	0	2.344043e-04
1.360000e+09	2.032291e+11	0.000000e+00	4.916666e-01	9.550107e+12	6.480760e+13	3.764945e+13	4.181007e+03	3.023997e+03	2.365150e+03	0	2.336252e-04
