#t		Qconv[W]	Ri[Rp]		R*[Rp]		Qc[W]		Qm[W]		Qr[W]		Tcmb[K]		Tl[K]		Tup[K]		RiFlag		Bs[T]
0.000000e+00	9.747038e+13	0.000000e+00	4.830509e-01	1.798317e+15	4.690277e+13	2.497279e+14	1.642791e+04	4.173761e+03	2.734446e+03	0	1.736042e-03
1.000000e+07	9.147448e+13	0.000000e+00	4.830509e-01	1.690197e+15	5.351695e+13	2.483442e+14	1.616825e+04	4.250923e+03	2.784999e+03	0	1.699689e-03
2.000000e+07	8.604972e+13	0.000000e+00	4.830509e-01	1.592343e+15	6.038413e+13	2.469709e+14	1.592382e+04	4.323594e+03	2.832609e+03	0	1.665403e-03
3.000000e+07	8.112269e+13	0.000000e+00	4.830509e-01	1.503440e+15	6.746812e+13	2.456078e+14	1.569323e+04	4.392162e+03	2.877532e+03	0	1.632990e-03
4.000000e+07	7.663168e+13	0.000000e+00	4.830509e-01	1.422378e+15	7.473474e+13	2.442549e+14	1.547522e+04	4.456965e+03	2.919988e+03	0	1.602282e-03
5.000000e+07	7.252445e+13	0.000000e+00	4.830509e-01	1.348219e+15	8.215200e+13	2.429121e+14	1.526872e+04	4.518300e+03	2.960172e+03	0	1.573129e-03
6.000000e+07	6.875654e+13	0.000000e+00	4.830509e-01	1.280165e+15	8.968989e+13	2.415793e+14	1.507277e+04	4.576430e+03	2.998255e+03	0	1.545399e-03
7.000000e+07	6.528991e+13	0.000000e+00	4.830509e-01	1.217533e+15	9.732053e+13	2.402565e+14	1.488651e+04	4.631586e+03	3.034391e+03	0	1.518978e-03
8.000000e+07	6.209182e+13	0.000000e+00	4.830509e-01	1.159734e+15	1.050180e+14	2.389434e+14	1.470919e+04	4.683975e+03	3.068714e+03	0	1.493760e-03
9.000000e+07	5.913400e+13	0.000000e+00	4.830509e-01	1.106261e+15	1.127581e+14	2.376402e+14	1.454013e+04	4.733782e+03	3.101345e+03	0	1.469654e-03
1.000000e+08	5.639187e+13	0.000000e+00	4.830509e-01	1.056671e+15	1.205188e+14	2.363466e+14	1.437872e+04	4.781173e+03	3.132393e+03	0	1.446577e-03
1.100000e+08	5.384403e+13	0.000000e+00	4.830509e-01	1.010581e+15	1.282794e+14	2.350626e+14	1.422443e+04	4.826299e+03	3.161958e+03	0	1.424454e-03
1.200000e+08	5.147172e+13	0.000000e+00	4.830509e-01	9.676529e+14	1.360210e+14	2.337881e+14	1.407675e+04	4.869295e+03	3.190127e+03	0	1.403220e-03
1.300000e+08	4.925848e+13	0.000000e+00	4.830509e-01	9.275905e+14	1.437262e+14	2.325231e+14	1.393524e+04	4.910285e+03	3.216981e+03	0	1.382812e-03
1.400000e+08	4.718976e+13	0.000000e+00	4.830509e-01	8.901328e+14	1.513792e+14	2.312674e+14	1.379950e+04	4.949382e+03	3.242596e+03	0	1.363176e-03
1.500000e+08	4.525273e+13	0.000000e+00	4.830509e-01	8.550484e+14	1.589653e+14	2.300211e+14	1.366915e+04	4.986689e+03	3.267037e+03	0	1.344263e-03
1.600000e+08	4.343595e+13	0.000000e+00	4.830509e-01	8.221321e+14	1.664712e+14	2.287839e+14	1.354387e+04	5.022301e+03	3.290369e+03	0	1.326027e-03
1.700000e+08	4.172926e+13	0.000000e+00	4.830509e-01	7.912010e+14	1.738850e+14	2.275558e+14	1.342334e+04	5.056305e+03	3.312647e+03	0	1.308427e-03
1.800000e+08	4.012358e+13	0.000000e+00	4.830509e-01	7.620916e+14	1.811957e+14	2.263368e+14	1.330727e+04	5.088783e+03	3.333924e+03	0	1.291425e-03
1.900000e+08	3.861078e+13	0.000000e+00	4.830509e-01	7.346577e+14	1.883936e+14	2.251268e+14	1.319542e+04	5.119808e+03	3.354251e+03	0	1.274987e-03
2.000000e+08	3.718355e+13	0.000000e+00	4.830509e-01	7.087677e+14	1.954697e+14	2.239257e+14	1.308754e+04	5.149451e+03	3.373671e+03	0	1.259079e-03
2.100000e+08	3.583531e+13	0.000000e+00	4.830509e-01	6.843032e+14	2.024164e+14	2.227334e+14	1.298341e+04	5.177777e+03	3.392229e+03	0	1.243674e-03
2.200000e+08	3.456013e+13	0.000000e+00	4.830509e-01	6.611574e+14	2.092265e+14	2.215499e+14	1.288283e+04	5.204846e+03	3.409963e+03	0	1.228743e-03
2.300000e+08	3.335263e+13	0.000000e+00	4.830509e-01	6.392335e+14	2.158941e+14	2.203750e+14	1.278561e+04	5.230715e+03	3.426911e+03	0	1.214263e-03
2.400000e+08	3.220794e+13	0.000000e+00	4.830509e-01	6.184438e+14	2.224138e+14	2.192088e+14	1.269157e+04	5.255436e+03	3.443108e+03	0	1.200210e-03
2.500000e+08	3.112165e+13	0.000000e+00	4.830509e-01	5.987087e+14	2.287811e+14	2.180511e+14	1.260055e+04	5.279061e+03	3.458585e+03	0	1.186562e-03
2.600000e+08	3.008971e+13	0.000000e+00	4.830509e-01	5.799554e+14	2.349920e+14	2.169019e+14	1.251241e+04	5.301635e+03	3.473375e+03	0	1.173299e-03
2.700000e+08	2.910844e+13	0.000000e+00	4.830509e-01	5.621178e+14	2.410433e+14	2.157611e+14	1.242699e+04	5.323204e+03	3.487506e+03	0	1.160404e-03
2.800000e+08	2.817450e+13	0.000000e+00	4.830509e-01	5.451353e+14	2.469325e+14	2.146286e+14	1.234417e+04	5.343809e+03	3.501005e+03	0	1.147858e-03
2.900000e+08	2.728479e+13	0.000000e+00	4.830509e-01	5.289523e+14	2.526575e+14	2.135044e+14	1.226383e+04	5.363490e+03	3.513899e+03	0	1.135646e-03
3.000000e+08	2.643650e+13	0.000000e+00	4.830509e-01	5.135180e+14	2.582166e+14	2.123884e+14	1.218584e+04	5.382285e+03	3.526213e+03	0	1.123753e-03
3.100000e+08	2.562702e+13	0.000000e+00	4.830509e-01	4.987856e+14	2.636088e+14	2.112805e+14	1.211011e+04	5.400229e+03	3.537969e+03	0	1.112164e-03
3.200000e+08	2.485397e+13	0.000000e+00	4.830509e-01	4.847119e+14	2.688336e+14	2.101807e+14	1.203652e+04	5.417355e+03	3.549189e+03	0	1.100867e-03
3.300000e+08	2.411514e+13	0.000000e+00	4.830509e-01	4.712573e+14	2.738907e+14	2.090888e+14	1.196500e+04	5.433697e+03	3.559896e+03	0	1.089848e-03
3.400000e+08	2.340851e+13	0.000000e+00	4.830509e-01	4.583851e+14	2.787804e+14	2.080049e+14	1.189543e+04	5.449285e+03	3.570108e+03	0	1.079097e-03
3.500000e+08	2.273218e+13	0.000000e+00	4.830509e-01	4.460613e+14	2.835030e+14	2.069289e+14	1.182775e+04	5.464149e+03	3.579846e+03	0	1.068603e-03
3.600000e+08	2.208442e+13	0.000000e+00	4.830509e-01	4.342544e+14	2.880595e+14	2.058607e+14	1.176187e+04	5.478315e+03	3.589127e+03	0	1.058355e-03
3.700000e+08	2.146360e+13	0.000000e+00	4.830509e-01	4.229355e+14	2.924511e+14	2.048002e+14	1.169772e+04	5.491811e+03	3.597969e+03	0	1.048344e-03
3.800000e+08	2.086824e+13	0.000000e+00	4.830509e-01	4.120773e+14	2.966790e+14	2.037473e+14	1.163522e+04	5.504663e+03	3.606389e+03	0	1.038559e-03
3.900000e+08	2.029694e+13	0.000000e+00	4.830509e-01	4.016547e+14	3.007450e+14	2.027021e+14	1.157432e+04	5.516894e+03	3.614402e+03	0	1.028994e-03
4.000000e+08	1.974839e+13	0.000000e+00	4.830509e-01	3.916443e+14	3.046510e+14	2.016645e+14	1.151494e+04	5.528529e+03	3.622025e+03	0	1.019639e-03
4.100000e+08	1.922139e+13	0.000000e+00	4.830509e-01	3.820242e+14	3.083990e+14	2.006343e+14	1.145703e+04	5.539589e+03	3.629271e+03	0	1.010488e-03
4.200000e+08	1.871481e+13	0.000000e+00	4.830509e-01	3.727741e+14	3.119912e+14	1.996115e+14	1.140053e+04	5.550096e+03	3.636154e+03	0	1.001531e-03
4.300000e+08	1.822759e+13	0.000000e+00	4.830509e-01	3.638749e+14	3.154300e+14	1.985961e+14	1.134538e+04	5.560070e+03	3.642689e+03	0	9.927635e-04
4.400000e+08	1.775875e+13	0.000000e+00	4.830509e-01	3.553089e+14	3.187180e+14	1.975880e+14	1.129154e+04	5.569531e+03	3.648887e+03	0	9.841778e-04
4.500000e+08	1.730737e+13	0.000000e+00	4.830509e-01	3.470593e+14	3.218579e+14	1.965872e+14	1.123896e+04	5.578498e+03	3.654762e+03	0	9.757677e-04
4.600000e+08	1.687258e+13	0.000000e+00	4.830509e-01	3.391105e+14	3.248522e+14	1.955935e+14	1.118758e+04	5.586990e+03	3.660326e+03	0	9.675273e-04
4.700000e+08	1.645357e+13	0.000000e+00	4.830509e-01	3.314479e+14	3.277040e+14	1.946070e+14	1.113738e+04	5.595023e+03	3.665589e+03	0	9.594510e-04
4.800000e+08	1.604959e+13	0.000000e+00	4.830509e-01	3.240577e+14	3.304162e+14	1.936275e+14	1.108830e+04	5.602615e+03	3.670563e+03	0	9.515334e-04
4.900000e+08	1.565990e+13	0.000000e+00	4.830509e-01	3.169271e+14	3.329916e+14	1.926551e+14	1.104031e+04	5.609782e+03	3.675258e+03	0	9.437691e-04
5.000000e+08	1.528385e+13	0.000000e+00	4.830509e-01	3.100438e+14	3.354333e+14	1.916896e+14	1.099336e+04	5.616538e+03	3.679684e+03	0	9.361534e-04
5.100000e+08	1.492080e+13	0.000000e+00	4.830509e-01	3.033964e+14	3.377445e+14	1.907310e+14	1.094743e+04	5.622900e+03	3.683852e+03	0	9.286815e-04
5.200000e+08	1.457016e+13	0.000000e+00	4.830509e-01	2.969742e+14	3.399282e+14	1.897792e+14	1.090247e+04	5.628881e+03	3.687771e+03	0	9.213490e-04
5.300000e+08	1.423135e+13	0.000000e+00	4.830509e-01	2.907669e+14	3.419876e+14	1.888343e+14	1.085846e+04	5.634496e+03	3.691449e+03	0	9.141514e-04
5.400000e+08	1.390386e+13	0.000000e+00	4.830509e-01	2.847650e+14	3.439257e+14	1.878960e+14	1.081536e+04	5.639757e+03	3.694896e+03	0	9.070847e-04
5.500000e+08	1.358718e+13	0.000000e+00	4.830509e-01	2.789595e+14	3.457457e+14	1.869645e+14	1.077315e+04	5.644677e+03	3.698119e+03	0	9.001450e-04
5.600000e+08	1.328083e+13	0.000000e+00	4.830509e-01	2.733417e+14	3.474507e+14	1.860395e+14	1.073178e+04	5.649269e+03	3.701128e+03	0	8.933284e-04
5.700000e+08	1.298438e+13	0.000000e+00	4.830509e-01	2.679036e+14	3.490438e+14	1.851211e+14	1.069125e+04	5.653545e+03	3.703929e+03	0	8.866314e-04
5.800000e+08	1.269739e+13	0.000000e+00	4.830509e-01	2.626375e+14	3.505282e+14	1.842093e+14	1.065152e+04	5.657516e+03	3.706531e+03	0	8.800504e-04
5.900000e+08	1.241947e+13	0.000000e+00	4.830509e-01	2.575361e+14	3.519070e+14	1.833039e+14	1.061256e+04	5.661193e+03	3.708940e+03	0	8.735822e-04
6.000000e+08	1.215024e+13	0.000000e+00	4.830509e-01	2.525927e+14	3.531830e+14	1.824049e+14	1.057436e+04	5.664587e+03	3.711163e+03	0	8.672234e-04
6.100000e+08	1.188933e+13	0.000000e+00	4.830509e-01	2.478007e+14	3.543596e+14	1.815123e+14	1.053688e+04	5.667708e+03	3.713208e+03	0	8.609710e-04
6.200000e+08	1.163641e+13	0.000000e+00	4.830509e-01	2.431539e+14	3.554393e+14	1.806260e+14	1.050011e+04	5.670566e+03	3.715080e+03	0	8.548221e-04
6.300000e+08	1.139115e+13	0.000000e+00	4.830509e-01	2.386464e+14	3.564255e+14	1.797459e+14	1.046403e+04	5.673170e+03	3.716786e+03	0	8.487738e-04
6.400000e+08	1.115325e+13	0.000000e+00	4.830509e-01	2.342727e+14	3.573209e+14	1.788720e+14	1.042860e+04	5.675530e+03	3.718332e+03	0	8.428233e-04
6.500000e+08	1.092241e+13	0.000000e+00	4.830509e-01	2.300275e+14	3.581284e+14	1.780043e+14	1.039383e+04	5.677654e+03	3.719724e+03	0	8.369680e-04
6.600000e+08	1.069835e+13	0.000000e+00	4.830509e-01	2.259057e+14	3.588507e+14	1.771427e+14	1.035968e+04	5.679551e+03	3.720967e+03	0	8.312054e-04
6.700000e+08	1.048081e+13	0.000000e+00	4.830509e-01	2.219026e+14	3.594906e+14	1.762872e+14	1.032614e+04	5.681230e+03	3.722067e+03	0	8.255329e-04
6.800000e+08	1.026954e+13	0.000000e+00	4.830509e-01	2.180135e+14	3.600509e+14	1.754377e+14	1.029319e+04	5.682698e+03	3.723029e+03	0	8.199482e-04
6.900000e+08	1.006430e+13	0.000000e+00	4.830509e-01	2.142342e+14	3.605342e+14	1.745941e+14	1.026081e+04	5.683962e+03	3.723857e+03	0	8.144491e-04
7.000000e+08	9.864861e+12	0.000000e+00	4.830509e-01	2.105606e+14	3.609430e+14	1.737565e+14	1.022899e+04	5.685031e+03	3.724557e+03	0	8.090333e-04
7.100000e+08	9.671002e+12	0.000000e+00	4.830509e-01	2.069885e+14	3.612800e+14	1.729247e+14	1.019772e+04	5.685912e+03	3.725134e+03	0	8.036986e-04
7.200000e+08	9.482519e+12	0.000000e+00	4.830509e-01	2.035144e+14	3.615476e+14	1.720987e+14	1.016697e+04	5.686610e+03	3.725592e+03	0	7.984431e-04
7.300000e+08	9.299213e+12	0.000000e+00	4.830509e-01	2.001347e+14	3.617482e+14	1.712785e+14	1.013674e+04	5.687134e+03	3.725935e+03	0	7.932647e-04
7.400000e+08	9.120895e+12	0.000000e+00	4.830509e-01	1.968458e+14	3.618843e+14	1.704640e+14	1.010700e+04	5.687489e+03	3.726168e+03	0	7.881615e-04
7.500000e+08	8.947384e+12	0.000000e+00	4.830509e-01	1.936445e+14	3.619581e+14	1.696552e+14	1.007775e+04	5.687682e+03	3.726294e+03	0	7.831316e-04
7.600000e+08	8.778509e+12	0.000000e+00	4.830509e-01	1.905277e+14	3.619719e+14	1.688521e+14	1.004897e+04	5.687718e+03	3.726317e+03	0	7.781733e-04
7.700000e+08	8.614105e+12	0.000000e+00	4.830509e-01	1.874925e+14	3.619279e+14	1.680545e+14	1.002066e+04	5.687603e+03	3.726242e+03	0	7.732848e-04
7.800000e+08	8.454014e+12	0.000000e+00	4.830509e-01	1.845359e+14	3.618283e+14	1.672625e+14	9.992788e+03	5.687343e+03	3.726072e+03	0	7.684644e-04
7.900000e+08	8.298086e+12	0.000000e+00	4.830509e-01	1.816552e+14	3.616750e+14	1.664759e+14	9.965357e+03	5.686943e+03	3.725810e+03	0	7.637104e-04
8.000000e+08	8.146175e+12	0.000000e+00	4.830509e-01	1.788478e+14	3.614703e+14	1.656949e+14	9.938353e+03	5.686409e+03	3.725460e+03	0	7.590213e-04
8.100000e+08	7.998146e+12	0.000000e+00	4.830509e-01	1.761112e+14	3.612160e+14	1.649192e+14	9.911763e+03	5.685744e+03	3.725025e+03	0	7.543956e-04
8.200000e+08	7.853864e+12	0.000000e+00	4.830509e-01	1.734430e+14	3.609140e+14	1.641489e+14	9.885578e+03	5.684956e+03	3.724508e+03	0	7.498318e-04
8.300000e+08	7.713204e+12	0.000000e+00	4.830509e-01	1.708409e+14	3.605663e+14	1.633839e+14	9.859788e+03	5.684046e+03	3.723912e+03	0	7.453284e-04
8.400000e+08	7.576045e+12	0.000000e+00	4.830509e-01	1.683027e+14	3.601746e+14	1.626242e+14	9.834383e+03	5.683022e+03	3.723241e+03	0	7.408841e-04
8.500000e+08	7.442270e+12	0.000000e+00	4.830509e-01	1.658263e+14	3.597407e+14	1.618698e+14	9.809353e+03	5.681885e+03	3.722496e+03	0	7.364974e-04
8.600000e+08	7.311767e+12	0.000000e+00	4.830509e-01	1.634096e+14	3.592664e+14	1.611205e+14	9.784690e+03	5.680642e+03	3.721682e+03	0	7.321671e-04
8.700000e+08	7.184430e+12	0.000000e+00	4.830509e-01	1.610508e+14	3.587533e+14	1.603765e+14	9.760384e+03	5.679295e+03	3.720800e+03	0	7.278918e-04
8.800000e+08	7.060156e+12	0.000000e+00	4.830509e-01	1.587479e+14	3.582028e+14	1.596375e+14	9.736427e+03	5.677850e+03	3.719852e+03	0	7.236704e-04
8.900000e+08	6.938846e+12	0.000000e+00	4.830509e-01	1.564992e+14	3.576168e+14	1.589036e+14	9.712812e+03	5.676308e+03	3.718843e+03	0	7.195017e-04
9.000000e+08	6.820407e+12	0.000000e+00	4.830509e-01	1.543029e+14	3.569966e+14	1.581747e+14	9.689529e+03	5.674675e+03	3.717773e+03	0	7.153844e-04
9.100000e+08	6.704746e+12	0.000000e+00	4.830509e-01	1.521574e+14	3.563437e+14	1.574509e+14	9.666571e+03	5.672954e+03	3.716645e+03	0	7.113175e-04
9.200000e+08	6.591777e+12	0.000000e+00	4.830509e-01	1.500612e+14	3.556596e+14	1.567320e+14	9.643931e+03	5.671148e+03	3.715462e+03	0	7.072999e-04
9.300000e+08	6.481416e+12	0.000000e+00	4.830509e-01	1.480126e+14	3.549456e+14	1.560180e+14	9.621602e+03	5.669260e+03	3.714225e+03	0	7.033304e-04
9.400000e+08	6.373581e+12	0.000000e+00	4.830509e-01	1.460102e+14	3.542031e+14	1.553089e+14	9.599576e+03	5.667293e+03	3.712936e+03	0	6.994080e-04
9.500000e+08	6.268196e+12	0.000000e+00	4.830509e-01	1.440527e+14	3.534333e+14	1.546046e+14	9.577846e+03	5.665251e+03	3.711599e+03	0	6.955317e-04
9.600000e+08	6.165186e+12	0.000000e+00	4.830509e-01	1.421385e+14	3.526374e+14	1.539052e+14	9.556407e+03	5.663137e+03	3.710213e+03	0	6.917006e-04
9.700000e+08	6.064479e+12	0.000000e+00	4.830509e-01	1.402666e+14	3.518167e+14	1.532105e+14	9.535251e+03	5.660953e+03	3.708782e+03	0	6.879136e-04
9.800000e+08	5.966006e+12	0.000000e+00	4.830509e-01	1.384355e+14	3.509724e+14	1.525205e+14	9.514372e+03	5.658702e+03	3.707308e+03	0	6.841699e-04
9.900000e+08	5.869699e+12	0.000000e+00	4.830509e-01	1.366440e+14	3.501055e+14	1.518352e+14	9.493765e+03	5.656387e+03	3.705791e+03	0	6.804685e-04
1.000000e+09	5.775496e+12	0.000000e+00	4.830509e-01	1.348911e+14	3.492172e+14	1.511546e+14	9.473424e+03	5.654010e+03	3.704234e+03	0	6.768086e-04
1.010000e+09	5.683334e+12	0.000000e+00	4.830509e-01	1.331756e+14	3.483085e+14	1.504786e+14	9.453342e+03	5.651574e+03	3.702638e+03	0	6.731892e-04
1.020000e+09	5.593154e+12	0.000000e+00	4.830509e-01	1.314963e+14	3.473804e+14	1.498072e+14	9.433514e+03	5.649081e+03	3.701004e+03	0	6.696096e-04
1.030000e+09	5.504898e+12	0.000000e+00	4.830509e-01	1.298523e+14	3.464339e+14	1.491403e+14	9.413935e+03	5.646533e+03	3.699335e+03	0	6.660689e-04
1.040000e+09	5.418512e+12	0.000000e+00	4.830509e-01	1.282426e+14	3.454700e+14	1.484779e+14	9.394600e+03	5.643933e+03	3.697632e+03	0	6.625664e-04
1.050000e+09	5.333941e+12	0.000000e+00	4.830509e-01	1.266661e+14	3.444896e+14	1.478200e+14	9.375504e+03	5.641283e+03	3.695896e+03	0	6.591012e-04
1.060000e+09	5.251134e+12	0.000000e+00	4.830509e-01	1.251220e+14	3.434934e+14	1.471665e+14	9.356641e+03	5.638585e+03	3.694128e+03	0	6.556727e-04
1.070000e+09	5.170042e+12	0.000000e+00	4.830509e-01	1.236093e+14	3.424825e+14	1.465174e+14	9.338008e+03	5.635841e+03	3.692331e+03	0	6.522800e-04
1.080000e+09	5.090617e+12	0.000000e+00	4.830509e-01	1.221272e+14	3.414576e+14	1.458727e+14	9.319598e+03	5.633053e+03	3.690504e+03	0	6.489225e-04
1.090000e+09	5.012812e+12	0.000000e+00	4.830509e-01	1.206748e+14	3.404195e+14	1.452324e+14	9.301409e+03	5.630223e+03	3.688650e+03	0	6.455995e-04
1.100000e+09	4.936582e+12	0.000000e+00	4.830509e-01	1.192513e+14	3.393690e+14	1.445963e+14	9.283435e+03	5.627352e+03	3.686769e+03	0	6.423103e-04
1.110000e+09	4.861886e+12	0.000000e+00	4.830509e-01	1.178559e+14	3.383067e+14	1.439645e+14	9.265672e+03	5.624443e+03	3.684863e+03	0	6.390542e-04
1.120000e+09	4.788680e+12	0.000000e+00	4.830509e-01	1.164879e+14	3.372335e+14	1.433369e+14	9.248116e+03	5.621496e+03	3.682932e+03	0	6.358305e-04
1.130000e+09	4.716926e+12	0.000000e+00	4.830509e-01	1.151465e+14	3.361500e+14	1.427136e+14	9.230763e+03	5.618515e+03	3.680979e+03	0	6.326387e-04
1.140000e+09	4.646583e+12	0.000000e+00	4.830509e-01	1.138310e+14	3.350569e+14	1.420944e+14	9.213609e+03	5.615499e+03	3.679003e+03	0	6.294781e-04
1.150000e+09	4.577614e+12	0.000000e+00	4.830509e-01	1.125407e+14	3.339547e+14	1.414793e+14	9.196651e+03	5.612451e+03	3.677006e+03	0	6.263482e-04
1.160000e+09	4.509984e+12	0.000000e+00	4.830509e-01	1.112751e+14	3.328441e+14	1.408683e+14	9.179883e+03	5.609373e+03	3.674990e+03	0	6.232482e-04
1.170000e+09	4.443656e+12	0.000000e+00	4.830509e-01	1.100333e+14	3.317257e+14	1.402614e+14	9.163304e+03	5.606265e+03	3.672953e+03	0	6.201778e-04
1.180000e+09	4.378596e+12	0.000000e+00	4.830509e-01	1.088149e+14	3.306001e+14	1.396586e+14	9.146909e+03	5.603129e+03	3.670899e+03	0	6.171362e-04
1.190000e+09	4.314773e+12	0.000000e+00	4.830509e-01	1.076192e+14	3.294678e+14	1.390597e+14	9.130695e+03	5.599966e+03	3.668827e+03	0	6.141230e-04
1.200000e+09	4.252153e+12	0.000000e+00	4.830509e-01	1.064456e+14	3.283292e+14	1.384648e+14	9.114658e+03	5.596778e+03	3.666738e+03	0	6.111377e-04
1.210000e+09	4.190707e+12	0.000000e+00	4.830509e-01	1.052935e+14	3.271851e+14	1.378739e+14	9.098795e+03	5.593566e+03	3.664634e+03	0	6.081796e-04
1.220000e+09	4.130404e+12	0.000000e+00	4.830509e-01	1.041625e+14	3.260359e+14	1.372869e+14	9.083104e+03	5.590331e+03	3.662514e+03	0	6.052483e-04
1.230000e+09	4.071215e+12	0.000000e+00	4.830509e-01	1.030520e+14	3.248818e+14	1.367038e+14	9.067580e+03	5.587074e+03	3.660380e+03	0	6.023433e-04
1.240000e+09	4.013113e+12	0.000000e+00	4.830509e-01	1.019615e+14	3.237235e+14	1.361245e+14	9.052222e+03	5.583796e+03	3.658233e+03	0	5.994641e-04
1.250000e+09	3.956070e+12	0.000000e+00	4.830509e-01	1.008904e+14	3.225613e+14	1.355490e+14	9.037025e+03	5.580499e+03	3.656073e+03	0	5.966103e-04
1.260000e+09	3.900061e+12	0.000000e+00	4.830509e-01	9.983839e+13	3.213958e+14	1.349774e+14	9.021987e+03	5.577183e+03	3.653900e+03	0	5.937813e-04
1.270000e+09	3.845059e+12	0.000000e+00	4.830509e-01	9.880490e+13	3.202272e+14	1.344095e+14	9.007106e+03	5.573849e+03	3.651717e+03	0	5.909767e-04
1.280000e+09	3.791039e+12	0.000000e+00	4.830509e-01	9.778951e+13	3.190560e+14	1.338453e+14	8.992378e+03	5.570499e+03	3.649522e+03	0	5.881961e-04
1.290000e+09	3.737979e+12	0.000000e+00	4.830509e-01	9.679177e+13	3.178826e+14	1.332849e+14	8.977800e+03	5.567134e+03	3.647317e+03	0	5.854391e-04
1.300000e+09	3.685855e+12	0.000000e+00	4.830509e-01	9.581128e+13	3.167072e+14	1.327281e+14	8.963371e+03	5.563753e+03	3.645102e+03	0	5.827051e-04
1.310000e+09	3.634645e+12	0.000000e+00	4.830509e-01	9.484760e+13	3.155303e+14	1.321750e+14	8.949088e+03	5.560359e+03	3.642878e+03	0	5.799938e-04
1.320000e+09	3.584325e+12	0.000000e+00	4.830509e-01	9.390036e+13	3.143520e+14	1.316255e+14	8.934948e+03	5.556952e+03	3.640646e+03	0	5.773049e-04
1.330000e+09	3.534877e+12	0.000000e+00	4.830509e-01	9.296915e+13	3.131729e+14	1.310796e+14	8.920948e+03	5.553532e+03	3.638406e+03	0	5.746378e-04
1.340000e+09	3.486278e+12	0.000000e+00	4.830509e-01	9.205361e+13	3.119932e+14	1.305373e+14	8.907087e+03	5.550101e+03	3.636158e+03	0	5.719922e-04
1.350000e+09	3.438509e+12	0.000000e+00	4.830509e-01	9.115336e+13	3.108130e+14	1.299985e+14	8.893362e+03	5.546660e+03	3.633903e+03	0	5.693677e-04
1.360000e+09	3.391551e+12	0.000000e+00	4.830509e-01	9.026807e+13	3.096329e+14	1.294632e+14	8.879771e+03	5.543208e+03	3.631642e+03	0	5.667639e-04
