#t		Qconv[W]	Ri[Rp]		R*[Rp]		Qc[W]		Qm[W]		Qr[W]		Tcmb[K]		Tl[K]		Tup[K]		RiFlag		Bs[T]
0.000000e+00	1.461843e+14	0.000000e+00	4.745764e-01	2.550077e+15	4.440489e+13	2.903573e+14	1.859342e+04	4.399070e+03	2.796410e+03	0	1.995579e-03
1.000000e+07	1.363846e+14	0.000000e+00	4.745764e-01	2.383100e+15	5.186325e+13	2.887485e+14	1.826922e+04	4.493097e+03	2.856181e+03	0	1.949952e-03
2.000000e+07	1.275998e+14	0.000000e+00	4.745764e-01	2.233361e+15	5.969971e+13	2.871518e+14	1.796570e+04	4.581187e+03	2.912179e+03	0	1.907153e-03
3.000000e+07	1.196890e+14	0.000000e+00	4.745764e-01	2.098468e+15	6.786451e+13	2.855669e+14	1.768078e+04	4.663911e+03	2.964765e+03	0	1.866897e-03
4.000000e+07	1.125352e+14	0.000000e+00	4.745764e-01	1.976439e+15	7.631060e+13	2.839939e+14	1.741267e+04	4.741758e+03	3.014251e+03	0	1.828935e-03
5.000000e+07	1.060408e+14	0.000000e+00	4.745764e-01	1.865616e+15	8.499375e+13	2.824327e+14	1.715979e+04	4.815154e+03	3.060907e+03	0	1.793053e-03
6.000000e+07	1.001237e+14	0.000000e+00	4.745764e-01	1.764608e+15	9.387261e+13	2.808830e+14	1.692077e+04	4.884468e+03	3.104969e+03	0	1.759062e-03
7.000000e+07	9.471457e+13	0.000000e+00	4.745764e-01	1.672238e+15	1.029088e+14	2.793450e+14	1.669443e+04	4.950027e+03	3.146644e+03	0	1.726796e-03
8.000000e+07	8.975437e+13	0.000000e+00	4.745764e-01	1.587503e+15	1.120665e+14	2.778183e+14	1.647969e+04	5.012116e+03	3.186113e+03	0	1.696110e-03
9.000000e+07	8.519261e+13	0.000000e+00	4.745764e-01	1.509546e+15	1.213129e+14	2.763030e+14	1.627562e+04	5.070990e+03	3.223538e+03	0	1.666874e-03
1.000000e+08	8.098586e+13	0.000000e+00	4.745764e-01	1.437630e+15	1.306175e+14	2.747990e+14	1.608137e+04	5.126874e+03	3.259062e+03	0	1.638973e-03
1.100000e+08	7.709660e+13	0.000000e+00	4.745764e-01	1.371117e+15	1.399522e+14	2.733061e+14	1.589621e+04	5.179972e+03	3.292816e+03	0	1.612305e-03
1.200000e+08	7.349229e+13	0.000000e+00	4.745764e-01	1.309456e+15	1.492913e+14	2.718243e+14	1.571947e+04	5.230465e+03	3.324913e+03	0	1.586778e-03
1.300000e+08	7.014452e+13	0.000000e+00	4.745764e-01	1.252163e+15	1.586113e+14	2.703534e+14	1.555053e+04	5.278517e+03	3.355459e+03	0	1.562308e-03
1.400000e+08	6.702848e+13	0.000000e+00	4.745764e-01	1.198816e+15	1.678905e+14	2.688935e+14	1.538887e+04	5.324276e+03	3.384547e+03	0	1.538823e-03
1.500000e+08	6.412234e+13	0.000000e+00	4.745764e-01	1.149045e+15	1.771093e+14	2.674443e+14	1.523397e+04	5.367878e+03	3.412264e+03	0	1.516254e-03
1.600000e+08	6.140685e+13	0.000000e+00	4.745764e-01	1.102523e+15	1.862497e+14	2.660058e+14	1.508541e+04	5.409446e+03	3.438688e+03	0	1.494541e-03
1.700000e+08	5.886501e+13	0.000000e+00	4.745764e-01	1.058960e+15	1.952954e+14	2.645780e+14	1.494277e+04	5.449092e+03	3.463891e+03	0	1.473628e-03
1.800000e+08	5.648170e+13	0.000000e+00	4.745764e-01	1.018100e+15	2.042318e+14	2.631607e+14	1.480568e+04	5.486920e+03	3.487937e+03	0	1.453466e-03
1.900000e+08	5.424348e+13	0.000000e+00	4.745764e-01	9.797141e+14	2.130455e+14	2.617538e+14	1.467380e+04	5.523025e+03	3.510889e+03	0	1.434007e-03
2.000000e+08	5.213834e+13	0.000000e+00	4.745764e-01	9.435976e+14	2.217246e+14	2.603572e+14	1.454683e+04	5.557496e+03	3.532801e+03	0	1.415211e-03
2.100000e+08	5.015551e+13	0.000000e+00	4.745764e-01	9.095677e+14	2.302586e+14	2.589710e+14	1.442447e+04	5.590413e+03	3.553726e+03	0	1.397038e-03
2.200000e+08	4.828535e+13	0.000000e+00	4.745764e-01	8.774602e+14	2.386380e+14	2.575949e+14	1.430646e+04	5.621852e+03	3.573711e+03	0	1.379454e-03
2.300000e+08	4.651916e+13	0.000000e+00	4.745764e-01	8.471272e+14	2.468543e+14	2.562289e+14	1.419256e+04	5.651885e+03	3.592802e+03	0	1.362425e-03
2.400000e+08	4.484909e+13	0.000000e+00	4.745764e-01	8.184351e+14	2.549003e+14	2.548730e+14	1.408255e+04	5.680576e+03	3.611041e+03	0	1.345922e-03
2.500000e+08	4.326806e+13	0.000000e+00	4.745764e-01	7.912632e+14	2.627698e+14	2.535269e+14	1.397622e+04	5.707986e+03	3.628465e+03	0	1.329917e-03
2.600000e+08	4.176962e+13	0.000000e+00	4.745764e-01	7.655019e+14	2.704571e+14	2.521907e+14	1.387338e+04	5.734175e+03	3.645113e+03	0	1.314384e-03
2.700000e+08	4.034794e+13	0.000000e+00	4.745764e-01	7.410518e+14	2.779577e+14	2.508643e+14	1.377384e+04	5.759195e+03	3.661017e+03	0	1.299300e-03
2.800000e+08	3.899770e+13	0.000000e+00	4.745764e-01	7.178222e+14	2.852678e+14	2.495476e+14	1.367745e+04	5.783098e+03	3.676212e+03	0	1.284641e-03
2.900000e+08	3.771404e+13	0.000000e+00	4.745764e-01	6.957305e+14	2.923842e+14	2.482405e+14	1.358404e+04	5.805931e+03	3.690726e+03	0	1.270388e-03
3.000000e+08	3.649253e+13	0.000000e+00	4.745764e-01	6.747012e+14	2.993047e+14	2.469429e+14	1.349348e+04	5.827739e+03	3.704590e+03	0	1.256522e-03
3.100000e+08	3.532910e+13	0.000000e+00	4.745764e-01	6.546650e+14	3.060272e+14	2.456548e+14	1.340562e+04	5.848566e+03	3.717829e+03	0	1.243024e-03
3.200000e+08	3.422004e+13	0.000000e+00	4.745764e-01	6.355584e+14	3.125507e+14	2.443760e+14	1.332035e+04	5.868452e+03	3.730470e+03	0	1.229879e-03
3.300000e+08	3.316192e+13	0.000000e+00	4.745764e-01	6.173231e+14	3.188744e+14	2.431065e+14	1.323753e+04	5.887435e+03	3.742537e+03	0	1.217069e-03
3.400000e+08	3.215159e+13	0.000000e+00	4.745764e-01	5.999055e+14	3.249981e+14	2.418463e+14	1.315707e+04	5.905551e+03	3.754054e+03	0	1.204582e-03
3.500000e+08	3.118614e+13	0.000000e+00	4.745764e-01	5.832561e+14	3.309219e+14	2.405952e+14	1.307886e+04	5.922836e+03	3.765041e+03	0	1.192402e-03
3.600000e+08	3.026291e+13	0.000000e+00	4.745764e-01	5.673290e+14	3.366466e+14	2.393531e+14	1.300279e+04	5.939322e+03	3.775521e+03	0	1.180517e-03
3.700000e+08	2.937941e+13	0.000000e+00	4.745764e-01	5.520822e+14	3.421733e+14	2.381201e+14	1.292878e+04	5.955039e+03	3.785512e+03	0	1.168916e-03
3.800000e+08	2.853334e+13	0.000000e+00	4.745764e-01	5.374764e+14	3.475032e+14	2.368960e+14	1.285674e+04	5.970020e+03	3.795035e+03	0	1.157585e-03
3.900000e+08	2.772259e+13	0.000000e+00	4.745764e-01	5.234754e+14	3.526381e+14	2.356807e+14	1.278659e+04	5.984291e+03	3.804107e+03	0	1.146516e-03
4.000000e+08	2.694517e+13	0.000000e+00	4.745764e-01	5.100454e+14	3.575799e+14	2.344742e+14	1.271825e+04	5.997879e+03	3.812745e+03	0	1.135697e-03
4.100000e+08	2.619926e+13	0.000000e+00	4.745764e-01	4.971553e+14	3.623308e+14	2.332764e+14	1.265165e+04	6.010812e+03	3.820966e+03	0	1.125119e-03
4.200000e+08	2.548315e+13	0.000000e+00	4.745764e-01	4.847758e+14	3.668933e+14	2.320873e+14	1.258671e+04	6.023114e+03	3.828786e+03	0	1.114773e-03
4.300000e+08	2.479524e+13	0.000000e+00	4.745764e-01	4.728799e+14	3.712700e+14	2.309067e+14	1.252338e+04	6.034808e+03	3.836220e+03	0	1.104651e-03
4.400000e+08	2.413406e+13	0.000000e+00	4.745764e-01	4.614421e+14	3.754639e+14	2.297346e+14	1.246159e+04	6.045917e+03	3.843282e+03	0	1.094743e-03
4.500000e+08	2.349822e+13	0.000000e+00	4.745764e-01	4.504388e+14	3.794777e+14	2.285709e+14	1.240128e+04	6.056464e+03	3.849986e+03	0	1.085043e-03
4.600000e+08	2.288642e+13	0.000000e+00	4.745764e-01	4.398479e+14	3.833147e+14	2.274156e+14	1.234240e+04	6.066468e+03	3.856346e+03	0	1.075544e-03
4.700000e+08	2.229745e+13	0.000000e+00	4.745764e-01	4.296487e+14	3.869781e+14	2.262686e+14	1.228489e+04	6.075951e+03	3.862374e+03	0	1.066237e-03
4.800000e+08	2.173017e+13	0.000000e+00	4.745764e-01	4.198217e+14	3.904713e+14	2.251297e+14	1.222870e+04	6.084932e+03	3.868082e+03	0	1.057117e-03
4.900000e+08	2.118353e+13	0.000000e+00	4.745764e-01	4.103489e+14	3.937978e+14	2.239991e+14	1.217379e+04	6.093428e+03	3.873483e+03	0	1.048178e-03
5.000000e+08	2.065653e+13	0.000000e+00	4.745764e-01	4.012132e+14	3.969610e+14	2.228765e+14	1.212010e+04	6.101458e+03	3.878588e+03	0	1.039412e-03
5.100000e+08	2.014822e+13	0.000000e+00	4.745764e-01	3.923985e+14	3.999645e+14	2.217619e+14	1.206760e+04	6.109039e+03	3.883407e+03	0	1.030816e-03
5.200000e+08	1.965773e+13	0.000000e+00	4.745764e-01	3.838897e+14	4.028119e+14	2.206553e+14	1.201625e+04	6.116187e+03	3.887951e+03	0	1.022382e-03
5.300000e+08	1.918422e+13	0.000000e+00	4.745764e-01	3.756726e+14	4.055070e+14	2.195566e+14	1.196600e+04	6.122917e+03	3.892229e+03	0	1.014106e-03
5.400000e+08	1.872691e+13	0.000000e+00	4.745764e-01	3.677339e+14	4.080533e+14	2.184657e+14	1.191682e+04	6.129246e+03	3.896252e+03	0	1.005983e-03
5.500000e+08	1.828507e+13	0.000000e+00	4.745764e-01	3.600610e+14	4.104546e+14	2.173826e+14	1.186867e+04	6.135188e+03	3.900029e+03	0	9.980087e-04
5.600000e+08	1.785800e+13	0.000000e+00	4.745764e-01	3.526420e+14	4.127145e+14	2.163072e+14	1.182152e+04	6.140756e+03	3.903569e+03	0	9.901776e-04
5.700000e+08	1.744505e+13	0.000000e+00	4.745764e-01	3.454657e+14	4.148367e+14	2.152394e+14	1.177534e+04	6.145965e+03	3.906880e+03	0	9.824857e-04
5.800000e+08	1.704560e+13	0.000000e+00	4.745764e-01	3.385214e+14	4.168250e+14	2.141792e+14	1.173008e+04	6.150826e+03	3.909971e+03	0	9.749288e-04
5.900000e+08	1.665906e+13	0.000000e+00	4.745764e-01	3.317992e+14	4.186828e+14	2.131265e+14	1.168573e+04	6.155354e+03	3.912849e+03	0	9.675029e-04
6.000000e+08	1.628487e+13	0.000000e+00	4.745764e-01	3.252896e+14	4.204140e+14	2.120812e+14	1.164226e+04	6.159559e+03	3.915522e+03	0	9.602042e-04
6.100000e+08	1.592252e+13	0.000000e+00	4.745764e-01	3.189835e+14	4.220222e+14	2.110434e+14	1.159963e+04	6.163454e+03	3.917998e+03	0	9.530289e-04
6.200000e+08	1.557151e+13	0.000000e+00	4.745764e-01	3.128726e+14	4.235107e+14	2.100129e+14	1.155782e+04	6.167049e+03	3.920283e+03	0	9.459736e-04
6.300000e+08	1.523136e+13	0.000000e+00	4.745764e-01	3.069487e+14	4.248830e+14	2.089896e+14	1.151681e+04	6.170356e+03	3.922385e+03	0	9.390349e-04
6.400000e+08	1.490163e+13	0.000000e+00	4.745764e-01	3.012041e+14	4.261429e+14	2.079736e+14	1.147657e+04	6.173384e+03	3.924310e+03	0	9.322093e-04
6.500000e+08	1.458190e+13	0.000000e+00	4.745764e-01	2.956317e+14	4.272936e+14	2.069647e+14	1.143708e+04	6.176145e+03	3.926065e+03	0	9.254939e-04
6.600000e+08	1.427177e+13	0.000000e+00	4.745764e-01	2.902246e+14	4.283386e+14	2.059630e+14	1.139831e+04	6.178647e+03	3.927655e+03	0	9.188855e-04
6.700000e+08	1.397084e+13	0.000000e+00	4.745764e-01	2.849761e+14	4.292810e+14	2.049682e+14	1.136025e+04	6.180899e+03	3.929087e+03	0	9.123813e-04
6.800000e+08	1.367877e+13	0.000000e+00	4.745764e-01	2.798801e+14	4.301244e+14	2.039805e+14	1.132287e+04	6.182911e+03	3.930366e+03	0	9.059783e-04
6.900000e+08	1.339520e+13	0.000000e+00	4.745764e-01	2.749306e+14	4.308715e+14	2.029997e+14	1.128616e+04	6.184692e+03	3.931498e+03	0	8.996740e-04
7.000000e+08	1.311980e+13	0.000000e+00	4.745764e-01	2.701220e+14	4.315259e+14	2.020257e+14	1.125009e+04	6.186250e+03	3.932489e+03	0	8.934657e-04
7.100000e+08	1.285227e+13	0.000000e+00	4.745764e-01	2.654490e+14	4.320904e+14	2.010586e+14	1.121465e+04	6.187592e+03	3.933342e+03	0	8.873509e-04
7.200000e+08	1.259230e+13	0.000000e+00	4.745764e-01	2.609064e+14	4.325681e+14	2.000983e+14	1.117982e+04	6.188727e+03	3.934063e+03	0	8.813271e-04
7.300000e+08	1.233960e+13	0.000000e+00	4.745764e-01	2.564894e+14	4.329621e+14	1.991446e+14	1.114558e+04	6.189662e+03	3.934658e+03	0	8.753920e-04
7.400000e+08	1.209392e+13	0.000000e+00	4.745764e-01	2.521932e+14	4.332750e+14	1.981976e+14	1.111192e+04	6.190404e+03	3.935130e+03	0	8.695433e-04
7.500000e+08	1.185499e+13	0.000000e+00	4.745764e-01	2.480136e+14	4.335097e+14	1.972573e+14	1.107882e+04	6.190961e+03	3.935483e+03	0	8.637788e-04
7.600000e+08	1.162256e+13	0.000000e+00	4.745764e-01	2.439461e+14	4.336690e+14	1.963234e+14	1.104626e+04	6.191339e+03	3.935724e+03	0	8.580965e-04
7.700000e+08	1.139640e+13	0.000000e+00	4.745764e-01	2.399869e+14	4.337556e+14	1.953961e+14	1.101424e+04	6.191544e+03	3.935854e+03	0	8.524941e-04
7.800000e+08	1.117629e+13	0.000000e+00	4.745764e-01	2.361320e+14	4.337720e+14	1.944752e+14	1.098273e+04	6.191583e+03	3.935879e+03	0	8.469699e-04
7.900000e+08	1.096200e+13	0.000000e+00	4.745764e-01	2.323778e+14	4.337210e+14	1.935607e+14	1.095172e+04	6.191462e+03	3.935802e+03	0	8.415218e-04
8.000000e+08	1.075333e+13	0.000000e+00	4.745764e-01	2.287207e+14	4.336046e+14	1.926526e+14	1.092121e+04	6.191186e+03	3.935627e+03	0	8.361481e-04
8.100000e+08	1.055010e+13	0.000000e+00	4.745764e-01	2.251573e+14	4.334257e+14	1.917507e+14	1.089117e+04	6.190762e+03	3.935357e+03	0	8.308468e-04
8.200000e+08	1.035210e+13	0.000000e+00	4.745764e-01	2.216844e+14	4.331865e+14	1.908551e+14	1.086160e+04	6.190195e+03	3.934996e+03	0	8.256163e-04
8.300000e+08	1.015915e+13	0.000000e+00	4.745764e-01	2.182990e+14	4.328892e+14	1.899656e+14	1.083248e+04	6.189489e+03	3.934548e+03	0	8.204548e-04
8.400000e+08	9.971100e+12	0.000000e+00	4.745764e-01	2.149980e+14	4.325360e+14	1.890824e+14	1.080381e+04	6.188651e+03	3.934015e+03	0	8.153608e-04
8.500000e+08	9.787766e+12	0.000000e+00	4.745764e-01	2.117787e+14	4.321293e+14	1.882052e+14	1.077556e+04	6.187684e+03	3.933400e+03	0	8.103327e-04
8.600000e+08	9.608996e+12	0.000000e+00	4.745764e-01	2.086383e+14	4.316709e+14	1.873340e+14	1.074774e+04	6.186595e+03	3.932708e+03	0	8.053688e-04
8.700000e+08	9.434637e+12	0.000000e+00	4.745764e-01	2.055742e+14	4.311630e+14	1.864689e+14	1.072032e+04	6.185386e+03	3.931940e+03	0	8.004678e-04
8.800000e+08	9.264544e+12	0.000000e+00	4.745764e-01	2.025839e+14	4.306076e+14	1.856097e+14	1.069331e+04	6.184063e+03	3.931099e+03	0	7.956282e-04
8.900000e+08	9.098578e+12	0.000000e+00	4.745764e-01	1.996650e+14	4.300065e+14	1.847564e+14	1.066669e+04	6.182631e+03	3.930188e+03	0	7.908485e-04
9.000000e+08	8.936604e+12	0.000000e+00	4.745764e-01	1.968152e+14	4.293617e+14	1.839090e+14	1.064045e+04	6.181092e+03	3.929210e+03	0	7.861275e-04
9.100000e+08	8.778495e+12	0.000000e+00	4.745764e-01	1.940323e+14	4.286749e+14	1.830673e+14	1.061458e+04	6.179451e+03	3.928167e+03	0	7.814637e-04
9.200000e+08	8.624127e+12	0.000000e+00	4.745764e-01	1.913142e+14	4.279480e+14	1.822315e+14	1.058908e+04	6.177712e+03	3.927061e+03	0	7.768560e-04
9.300000e+08	8.473382e+12	0.000000e+00	4.745764e-01	1.886589e+14	4.271825e+14	1.814013e+14	1.056393e+04	6.175878e+03	3.925896e+03	0	7.723030e-04
9.400000e+08	8.326146e+12	0.000000e+00	4.745764e-01	1.860643e+14	4.263802e+14	1.805769e+14	1.053913e+04	6.173954e+03	3.924672e+03	0	7.678036e-04
9.500000e+08	8.182309e+12	0.000000e+00	4.745764e-01	1.835286e+14	4.255426e+14	1.797580e+14	1.051467e+04	6.171942e+03	3.923393e+03	0	7.633566e-04
9.600000e+08	8.041767e+12	0.000000e+00	4.745764e-01	1.810500e+14	4.246713e+14	1.789448e+14	1.049054e+04	6.169846e+03	3.922061e+03	0	7.589607e-04
9.700000e+08	7.904417e+12	0.000000e+00	4.745764e-01	1.786268e+14	4.237677e+14	1.781370e+14	1.046674e+04	6.167669e+03	3.920677e+03	0	7.546150e-04
9.800000e+08	7.770164e+12	0.000000e+00	4.745764e-01	1.762572e+14	4.228335e+14	1.773348e+14	1.044325e+04	6.165415e+03	3.919244e+03	0	7.503183e-04
9.900000e+08	7.638913e+12	0.000000e+00	4.745764e-01	1.739397e+14	4.218697e+14	1.765380e+14	1.042007e+04	6.163085e+03	3.917763e+03	0	7.460696e-04
1.000000e+09	7.510574e+12	0.000000e+00	4.745764e-01	1.716727e+14	4.208780e+14	1.757467e+14	1.039720e+04	6.160684e+03	3.916237e+03	0	7.418678e-04
1.010000e+09	7.385060e+12	0.000000e+00	4.745764e-01	1.694548e+14	4.198596e+14	1.749607e+14	1.037462e+04	6.158214e+03	3.914666e+03	0	7.377120e-04
1.020000e+09	7.262288e+12	0.000000e+00	4.745764e-01	1.672844e+14	4.188157e+14	1.741800e+14	1.035234e+04	6.155677e+03	3.913054e+03	0	7.336011e-04
1.030000e+09	7.142178e+12	0.000000e+00	4.745764e-01	1.651602e+14	4.177476e+14	1.734046e+14	1.033033e+04	6.153076e+03	3.911401e+03	0	7.295343e-04
1.040000e+09	7.024651e+12	0.000000e+00	4.745764e-01	1.630808e+14	4.166564e+14	1.726345e+14	1.030861e+04	6.150415e+03	3.909709e+03	0	7.255105e-04
1.050000e+09	6.909633e+12	0.000000e+00	4.745764e-01	1.610451e+14	4.155433e+14	1.718695e+14	1.028716e+04	6.147694e+03	3.907980e+03	0	7.215290e-04
1.060000e+09	6.797053e+12	0.000000e+00	4.745764e-01	1.590516e+14	4.144095e+14	1.711097e+14	1.026597e+04	6.144918e+03	3.906214e+03	0	7.175889e-04
1.070000e+09	6.686839e+12	0.000000e+00	4.745764e-01	1.570993e+14	4.132559e+14	1.703551e+14	1.024505e+04	6.142087e+03	3.904415e+03	0	7.136892e-04
1.080000e+09	6.578926e+12	0.000000e+00	4.745764e-01	1.551869e+14	4.120836e+14	1.696055e+14	1.022438e+04	6.139204e+03	3.902582e+03	0	7.098291e-04
1.090000e+09	6.473249e+12	0.000000e+00	4.745764e-01	1.533134e+14	4.108935e+14	1.688609e+14	1.020396e+04	6.136271e+03	3.900718e+03	0	7.060079e-04
1.100000e+09	6.369745e+12	0.000000e+00	4.745764e-01	1.514777e+14	4.096868e+14	1.681214e+14	1.018379e+04	6.133291e+03	3.898823e+03	0	7.022248e-04
1.110000e+09	6.268354e+12	0.000000e+00	4.745764e-01	1.496787e+14	4.084642e+14	1.673868e+14	1.016386e+04	6.130265e+03	3.896900e+03	0	6.984790e-04
1.120000e+09	6.169018e+12	0.000000e+00	4.745764e-01	1.479155e+14	4.072266e+14	1.666571e+14	1.014416e+04	6.127195e+03	3.894948e+03	0	6.947696e-04
1.130000e+09	6.071681e+12	0.000000e+00	4.745764e-01	1.461870e+14	4.059750e+14	1.659323e+14	1.012470e+04	6.124083e+03	3.892970e+03	0	6.910961e-04
1.140000e+09	5.976288e+12	0.000000e+00	4.745764e-01	1.444923e+14	4.047101e+14	1.652124e+14	1.010546e+04	6.120931e+03	3.890966e+03	0	6.874577e-04
1.150000e+09	5.882786e+12	0.000000e+00	4.745764e-01	1.428306e+14	4.034328e+14	1.644972e+14	1.008644e+04	6.117740e+03	3.888938e+03	0	6.838536e-04
1.160000e+09	5.791126e+12	0.000000e+00	4.745764e-01	1.412009e+14	4.021439e+14	1.637869e+14	1.006764e+04	6.114513e+03	3.886887e+03	0	6.802833e-04
1.170000e+09	5.701258e+12	0.000000e+00	4.745764e-01	1.396024e+14	4.008440e+14	1.630812e+14	1.004906e+04	6.111250e+03	3.884813e+03	0	6.767460e-04
1.180000e+09	5.613135e+12	0.000000e+00	4.745764e-01	1.380343e+14	3.995339e+14	1.623803e+14	1.003068e+04	6.107955e+03	3.882718e+03	0	6.732411e-04
1.190000e+09	5.526711e+12	0.000000e+00	4.745764e-01	1.364958e+14	3.982143e+14	1.616840e+14	1.001251e+04	6.104626e+03	3.880602e+03	0	6.697680e-04
1.200000e+09	5.441941e+12	0.000000e+00	4.745764e-01	1.349861e+14	3.968858e+14	1.609924e+14	9.994544e+03	6.101268e+03	3.878467e+03	0	6.663260e-04
1.210000e+09	5.358784e+12	0.000000e+00	4.745764e-01	1.335045e+14	3.955492e+14	1.603053e+14	9.976773e+03	6.097880e+03	3.876313e+03	0	6.629145e-04
1.220000e+09	5.277196e+12	0.000000e+00	4.745764e-01	1.320503e+14	3.942050e+14	1.596228e+14	9.959198e+03	6.094464e+03	3.874142e+03	0	6.595330e-04
1.230000e+09	5.197139e+12	0.000000e+00	4.745764e-01	1.306227e+14	3.928538e+14	1.589448e+14	9.941812e+03	6.091022e+03	3.871954e+03	0	6.561809e-04
1.240000e+09	5.118573e+12	0.000000e+00	4.745764e-01	1.292212e+14	3.914960e+14	1.582712e+14	9.924615e+03	6.087555e+03	3.869750e+03	0	6.528576e-04
1.250000e+09	5.041460e+12	0.000000e+00	4.745764e-01	1.278450e+14	3.901325e+14	1.576022e+14	9.907600e+03	6.084063e+03	3.867531e+03	0	6.495625e-04
1.260000e+09	4.965765e+12	0.000000e+00	4.745764e-01	1.264935e+14	3.887637e+14	1.569375e+14	9.890767e+03	6.080549e+03	3.865297e+03	0	6.462951e-04
1.270000e+09	4.891451e+12	0.000000e+00	4.745764e-01	1.251661e+14	3.873900e+14	1.562772e+14	9.874111e+03	6.077013e+03	3.863049e+03	0	6.430549e-04
1.280000e+09	4.818485e+12	0.000000e+00	4.745764e-01	1.238623e+14	3.860120e+14	1.556213e+14	9.857629e+03	6.073457e+03	3.860788e+03	0	6.398414e-04
1.290000e+09	4.746833e+12	0.000000e+00	4.745764e-01	1.225814e+14	3.846301e+14	1.549696e+14	9.841318e+03	6.069881e+03	3.858515e+03	0	6.366540e-04
1.300000e+09	4.676464e+12	0.000000e+00	4.745764e-01	1.213229e+14	3.832448e+14	1.543223e+14	9.825175e+03	6.066287e+03	3.856230e+03	0	6.334923e-04
1.310000e+09	4.607345e+12	0.000000e+00	4.745764e-01	1.200862e+14	3.818566e+14	1.536792e+14	9.809197e+03	6.062675e+03	3.853935e+03	0	6.303558e-04
1.320000e+09	4.539448e+12	0.000000e+00	4.745764e-01	1.188708e+14	3.804658e+14	1.530403e+14	9.793381e+03	6.059047e+03	3.851628e+03	0	6.272439e-04
1.330000e+09	4.472742e+12	0.000000e+00	4.745764e-01	1.176763e+14	3.790728e+14	1.524056e+14	9.777725e+03	6.055404e+03	3.849312e+03	0	6.241564e-04
1.340000e+09	4.407199e+12	0.000000e+00	4.745764e-01	1.165021e+14	3.776781e+14	1.517750e+14	9.762226e+03	6.051746e+03	3.846987e+03	0	6.210926e-04
1.350000e+09	4.342791e+12	0.000000e+00	4.745764e-01	1.153478e+14	3.762820e+14	1.511485e+14	9.746881e+03	6.048074e+03	3.844653e+03	0	6.180522e-04
1.360000e+09	4.279493e+12	0.000000e+00	4.745764e-01	1.142128e+14	3.748849e+14	1.505262e+14	9.731687e+03	6.044389e+03	3.842310e+03	0	6.150346e-04
