#t		Qconv[W]	Ri[Rp]		R*[Rp]		Qc[W]		Qm[W]		Qr[W]		Tcmb[K]		Tl[K]		Tup[K]		RiFlag		Bs[T]
0.000000e+00	1.026819e+15	0.000000e+00	4.871794e-01	1.340564e+16	3.599414e+13	3.942929e+14	2.972101e+04	5.211539e+03	2.940549e+03	0	3.696486e-03
1.000000e+07	9.084435e+14	0.000000e+00	4.871794e-01	1.188146e+16	5.970822e+13	3.921083e+14	2.866503e+04	5.569617e+03	3.142591e+03	0	3.548600e-03
2.000000e+07	8.099886e+14	0.000000e+00	4.871794e-01	1.061321e+16	8.962609e+13	3.899399e+14	2.772414e+04	5.887253e+03	3.321813e+03	0	3.415472e-03
3.000000e+07	7.271409e+14	0.000000e+00	4.871794e-01	9.545530e+15	1.251303e+14	3.877878e+14	2.687978e+04	6.170956e+03	3.481889e+03	0	3.294812e-03
4.000000e+07	6.567021e+14	0.000000e+00	4.871794e-01	8.637370e+15	1.654443e+14	3.856517e+14	2.611727e+04	6.425814e+03	3.625689e+03	0	3.184788e-03
5.000000e+07	5.962604e+14	0.000000e+00	4.871794e-01	7.857758e+15	2.097356e+14	3.835316e+14	2.542483e+04	6.655866e+03	3.755494e+03	0	3.083920e-03
6.000000e+07	5.439684e+14	0.000000e+00	4.871794e-01	7.182971e+15	2.571797e+14	3.814273e+14	2.479286e+04	6.864368e+03	3.873138e+03	0	2.990995e-03
7.000000e+07	4.983918e+14	0.000000e+00	4.871794e-01	6.594584e+15	3.069971e+14	3.793386e+14	2.421351e+04	7.053976e+03	3.980122e+03	0	2.905013e-03
8.000000e+07	4.584026e+14	0.000000e+00	4.871794e-01	6.078107e+15	3.584725e+14	3.772655e+14	2.368023e+04	7.226889e+03	4.077687e+03	0	2.825141e-03
9.000000e+07	4.231036e+14	0.000000e+00	4.871794e-01	5.622008e+15	4.109634e+14	3.752078e+14	2.318758e+04	7.384945e+03	4.166868e+03	0	2.750679e-03
1.000000e+08	3.917734e+14	0.000000e+00	4.871794e-01	5.217017e+15	4.639018e+14	3.731654e+14	2.273092e+04	7.529697e+03	4.248542e+03	0	2.681037e-03
1.100000e+08	3.638267e+14	0.000000e+00	4.871794e-01	4.855607e+15	5.167929e+14	3.711381e+14	2.230634e+04	7.662472e+03	4.323459e+03	0	2.615708e-03
1.200000e+08	3.387839e+14	0.000000e+00	4.871794e-01	4.531613e+15	5.692106e+14	3.691259e+14	2.191047e+04	7.784411e+03	4.392262e+03	0	2.554261e-03
1.300000e+08	3.162490e+14	0.000000e+00	4.871794e-01	4.239941e+15	6.207926e+14	3.671285e+14	2.154041e+04	7.896507e+03	4.455510e+03	0	2.496323e-03
1.400000e+08	2.958927e+14	0.000000e+00	4.871794e-01	3.976355e+15	6.712352e+14	3.651459e+14	2.119365e+04	7.999627e+03	4.513694e+03	0	2.441570e-03
1.500000e+08	2.774388e+14	0.000000e+00	4.871794e-01	3.737301e+15	7.202866e+14	3.631780e+14	2.086799e+04	8.094535e+03	4.567246e+03	0	2.389719e-03
1.600000e+08	2.606544e+14	0.000000e+00	4.871794e-01	3.519781e+15	7.677433e+14	3.612247e+14	2.056152e+04	8.181911e+03	4.616546e+03	0	2.340522e-03
1.700000e+08	2.453417e+14	0.000000e+00	4.871794e-01	3.321251e+15	8.134426e+14	3.592857e+14	2.027254e+04	8.262359e+03	4.661938e+03	0	2.293761e-03
1.800000e+08	2.313321e+14	0.000000e+00	4.871794e-01	3.139538e+15	8.572594e+14	3.573610e+14	1.999955e+04	8.336421e+03	4.703727e+03	0	2.249243e-03
1.900000e+08	2.184807e+14	0.000000e+00	4.871794e-01	2.972776e+15	8.991014e+14	3.554506e+14	1.974123e+04	8.404586e+03	4.742188e+03	0	2.206796e-03
2.000000e+08	2.066625e+14	0.000000e+00	4.871794e-01	2.819355e+15	9.389039e+14	3.535541e+14	1.949640e+04	8.467295e+03	4.777571e+03	0	2.166265e-03
2.100000e+08	1.957691e+14	0.000000e+00	4.871794e-01	2.677881e+15	9.766278e+14	3.516716e+14	1.926398e+04	8.524951e+03	4.810103e+03	0	2.127514e-03
2.200000e+08	1.857063e+14	0.000000e+00	4.871794e-01	2.547137e+15	1.012255e+15	3.498030e+14	1.904304e+04	8.577919e+03	4.839989e+03	0	2.090419e-03
2.300000e+08	1.763916e+14	0.000000e+00	4.871794e-01	2.426061e+15	1.045784e+15	3.479480e+14	1.883272e+04	8.626533e+03	4.867419e+03	0	2.054867e-03
2.400000e+08	1.677528e+14	0.000000e+00	4.871794e-01	2.313721e+15	1.077231e+15	3.461067e+14	1.863224e+04	8.671101e+03	4.892566e+03	0	2.020758e-03
2.500000e+08	1.597260e+14	0.000000e+00	4.871794e-01	2.209295e+15	1.106623e+15	3.442788e+14	1.844090e+04	8.711903e+03	4.915588e+03	0	1.987999e-03
2.600000e+08	1.522549e+14	0.000000e+00	4.871794e-01	2.112056e+15	1.134000e+15	3.424643e+14	1.825808e+04	8.749200e+03	4.936632e+03	0	1.956507e-03
2.700000e+08	1.452895e+14	0.000000e+00	4.871794e-01	2.021360e+15	1.159408e+15	3.406631e+14	1.808319e+04	8.783230e+03	4.955833e+03	0	1.926205e-03
2.800000e+08	1.387854e+14	0.000000e+00	4.871794e-01	1.936632e+15	1.182903e+15	3.388751e+14	1.791571e+04	8.814215e+03	4.973316e+03	0	1.897022e-03
2.900000e+08	1.327030e+14	0.000000e+00	4.871794e-01	1.857362e+15	1.204544e+15	3.371001e+14	1.775516e+04	8.842360e+03	4.989197e+03	0	1.868894e-03
3.000000e+08	1.270067e+14	0.000000e+00	4.871794e-01	1.783092e+15	1.224395e+15	3.353380e+14	1.760109e+04	8.867854e+03	5.003582e+03	0	1.841761e-03
3.100000e+08	1.216648e+14	0.000000e+00	4.871794e-01	1.713409e+15	1.242524e+15	3.335888e+14	1.745311e+04	8.890874e+03	5.016570e+03	0	1.815569e-03
3.200000e+08	1.166486e+14	0.000000e+00	4.871794e-01	1.647946e+15	1.259001e+15	3.318522e+14	1.731084e+04	8.911584e+03	5.028256e+03	0	1.790266e-03
3.300000e+08	1.119322e+14	0.000000e+00	4.871794e-01	1.586369e+15	1.273895e+15	3.301284e+14	1.717393e+04	8.930136e+03	5.038723e+03	0	1.765805e-03
3.400000e+08	1.074925e+14	0.000000e+00	4.871794e-01	1.528376e+15	1.287279e+15	3.284170e+14	1.704209e+04	8.946671e+03	5.048053e+03	0	1.742143e-03
3.500000e+08	1.033084e+14	0.000000e+00	4.871794e-01	1.473696e+15	1.299223e+15	3.267181e+14	1.691501e+04	8.961323e+03	5.056320e+03	0	1.719239e-03
3.600000e+08	9.936061e+13	0.000000e+00	4.871794e-01	1.422082e+15	1.309798e+15	3.250314e+14	1.679242e+04	8.974213e+03	5.063593e+03	0	1.697055e-03
3.700000e+08	9.563186e+13	0.000000e+00	4.871794e-01	1.373307e+15	1.319073e+15	3.233570e+14	1.667408e+04	8.985457e+03	5.069938e+03	0	1.675555e-03
3.800000e+08	9.210629e+13	0.000000e+00	4.871794e-01	1.327169e+15	1.327118e+15	3.216947e+14	1.655976e+04	8.995162e+03	5.075414e+03	0	1.654706e-03
3.900000e+08	8.876947e+13	0.000000e+00	4.871794e-01	1.283480e+15	1.333998e+15	3.200444e+14	1.644923e+04	9.003429e+03	5.080078e+03	0	1.634477e-03
4.000000e+08	8.560822e+13	0.000000e+00	4.871794e-01	1.242070e+15	1.339779e+15	3.184061e+14	1.634231e+04	9.010350e+03	5.083983e+03	0	1.614840e-03
4.100000e+08	8.261047e+13	0.000000e+00	4.871794e-01	1.202783e+15	1.344522e+15	3.167795e+14	1.623880e+04	9.016013e+03	5.087179e+03	0	1.595767e-03
4.200000e+08	7.976516e+13	0.000000e+00	4.871794e-01	1.165475e+15	1.348290e+15	3.151647e+14	1.613853e+04	9.020501e+03	5.089711e+03	0	1.577232e-03
4.300000e+08	7.706214e+13	0.000000e+00	4.871794e-01	1.130016e+15	1.351139e+15	3.135615e+14	1.604134e+04	9.023889e+03	5.091622e+03	0	1.559210e-03
4.400000e+08	7.449209e+13	0.000000e+00	4.871794e-01	1.096284e+15	1.353127e+15	3.119698e+14	1.594709e+04	9.026249e+03	5.092954e+03	0	1.541681e-03
4.500000e+08	7.204643e+13	0.000000e+00	4.871794e-01	1.064169e+15	1.354306e+15	3.103896e+14	1.585561e+04	9.027648e+03	5.093744e+03	0	1.524621e-03
4.600000e+08	6.971725e+13	0.000000e+00	4.871794e-01	1.033569e+15	1.354729e+15	3.088207e+14	1.576680e+04	9.028150e+03	5.094026e+03	0	1.508011e-03
4.700000e+08	6.749726e+13	0.000000e+00	4.871794e-01	1.004388e+15	1.354444e+15	3.072631e+14	1.568051e+04	9.027812e+03	5.093836e+03	0	1.491831e-03
4.800000e+08	6.537971e+13	0.000000e+00	4.871794e-01	9.765396e+14	1.353498e+15	3.057167e+14	1.559664e+04	9.026690e+03	5.093203e+03	0	1.476065e-03
4.900000e+08	6.335837e+13	0.000000e+00	4.871794e-01	9.499430e+14	1.351936e+15	3.041813e+14	1.551507e+04	9.024835e+03	5.092156e+03	0	1.460693e-03
5.000000e+08	6.142747e+13	0.000000e+00	4.871794e-01	9.245236e+14	1.349799e+15	3.026568e+14	1.543571e+04	9.022296e+03	5.090724e+03	0	1.445701e-03
5.100000e+08	5.958167e+13	0.000000e+00	4.871794e-01	9.002118e+14	1.347128e+15	3.011433e+14	1.535845e+04	9.019118e+03	5.088931e+03	0	1.431074e-03
5.200000e+08	5.781599e+13	0.000000e+00	4.871794e-01	8.769435e+14	1.343961e+15	2.996406e+14	1.528320e+04	9.015344e+03	5.086801e+03	0	1.416795e-03
5.300000e+08	5.612584e+13	0.000000e+00	4.871794e-01	8.546588e+14	1.340334e+15	2.981486e+14	1.520989e+04	9.011014e+03	5.084358e+03	0	1.402853e-03
5.400000e+08	5.450692e+13	0.000000e+00	4.871794e-01	8.333021e+14	1.336281e+15	2.966672e+14	1.513842e+04	9.006164e+03	5.081622e+03	0	1.389233e-03
5.500000e+08	5.295525e+13	0.000000e+00	4.871794e-01	8.128219e+14	1.331834e+15	2.951964e+14	1.506872e+04	9.000831e+03	5.078612e+03	0	1.375923e-03
5.600000e+08	5.146711e+13	0.000000e+00	4.871794e-01	7.931698e+14	1.327023e+15	2.937360e+14	1.500073e+04	8.995047e+03	5.075349e+03	0	1.362911e-03
5.700000e+08	5.003903e+13	0.000000e+00	4.871794e-01	7.743010e+14	1.321876e+15	2.922860e+14	1.493436e+04	8.988843e+03	5.071848e+03	0	1.350187e-03
5.800000e+08	4.866779e+13	0.000000e+00	4.871794e-01	7.561734e+14	1.316422e+15	2.908463e+14	1.486956e+04	8.982248e+03	5.068127e+03	0	1.337740e-03
5.900000e+08	4.735036e+13	0.000000e+00	4.871794e-01	7.387480e+14	1.310684e+15	2.894167e+14	1.480627e+04	8.975290e+03	5.064201e+03	0	1.325558e-03
6.000000e+08	4.608393e+13	0.000000e+00	4.871794e-01	7.219880e+14	1.304687e+15	2.879973e+14	1.474442e+04	8.967993e+03	5.060084e+03	0	1.313634e-03
6.100000e+08	4.486584e+13	0.000000e+00	4.871794e-01	7.058591e+14	1.298454e+15	2.865880e+14	1.468397e+04	8.960382e+03	5.055790e+03	0	1.301956e-03
6.200000e+08	4.369363e+13	0.000000e+00	4.871794e-01	6.903293e+14	1.292005e+15	2.851886e+14	1.462486e+04	8.952480e+03	5.051331e+03	0	1.290517e-03
6.300000e+08	4.256497e+13	0.000000e+00	4.871794e-01	6.753684e+14	1.285360e+15	2.837991e+14	1.456704e+04	8.944308e+03	5.046720e+03	0	1.279308e-03
6.400000e+08	4.147770e+13	0.000000e+00	4.871794e-01	6.609483e+14	1.278537e+15	2.824194e+14	1.451046e+04	8.935886e+03	5.041968e+03	0	1.268321e-03
6.500000e+08	4.042977e+13	0.000000e+00	4.871794e-01	6.470423e+14	1.271555e+15	2.810493e+14	1.445508e+04	8.927232e+03	5.037085e+03	0	1.257549e-03
6.600000e+08	3.941927e+13	0.000000e+00	4.871794e-01	6.336256e+14	1.264429e+15	2.796890e+14	1.440086e+04	8.918364e+03	5.032081e+03	0	1.246983e-03
6.700000e+08	3.844440e+13	0.000000e+00	4.871794e-01	6.206749e+14	1.257174e+15	2.783382e+14	1.434776e+04	8.909298e+03	5.026966e+03	0	1.236618e-03
6.800000e+08	3.750346e+13	0.000000e+00	4.871794e-01	6.081679e+14	1.249806e+15	2.769969e+14	1.429573e+04	8.900051e+03	5.021748e+03	0	1.226445e-03
6.900000e+08	3.659485e+13	0.000000e+00	4.871794e-01	5.960841e+14	1.242336e+15	2.756650e+14	1.424475e+04	8.890637e+03	5.016436e+03	0	1.216460e-03
7.000000e+08	3.571708e+13	0.000000e+00	4.871794e-01	5.844039e+14	1.234778e+15	2.743424e+14	1.419477e+04	8.881068e+03	5.011038e+03	0	1.206655e-03
7.100000e+08	3.486873e+13	0.000000e+00	4.871794e-01	5.731089e+14	1.227144e+15	2.730291e+14	1.414576e+04	8.871360e+03	5.005560e+03	0	1.197025e-03
7.200000e+08	3.404847e+13	0.000000e+00	4.871794e-01	5.621817e+14	1.219443e+15	2.717250e+14	1.409770e+04	8.861522e+03	5.000009e+03	0	1.187564e-03
7.300000e+08	3.325503e+13	0.000000e+00	4.871794e-01	5.516058e+14	1.211687e+15	2.704300e+14	1.405054e+04	8.851568e+03	4.994392e+03	0	1.178266e-03
7.400000e+08	3.248722e+13	0.000000e+00	4.871794e-01	5.413659e+14	1.203884e+15	2.691440e+14	1.400427e+04	8.841507e+03	4.988716e+03	0	1.169128e-03
7.500000e+08	3.174392e+13	0.000000e+00	4.871794e-01	5.314473e+14	1.196044e+15	2.678670e+14	1.395885e+04	8.831350e+03	4.982985e+03	0	1.160142e-03
7.600000e+08	3.102407e+13	0.000000e+00	4.871794e-01	5.218361e+14	1.188175e+15	2.665989e+14	1.391426e+04	8.821106e+03	4.977205e+03	0	1.151306e-03
7.700000e+08	3.032666e+13	0.000000e+00	4.871794e-01	5.125192e+14	1.180284e+15	2.653396e+14	1.387047e+04	8.810784e+03	4.971380e+03	0	1.142613e-03
7.800000e+08	2.965073e+13	0.000000e+00	4.871794e-01	5.034842e+14	1.172379e+15	2.640891e+14	1.382746e+04	8.800392e+03	4.965517e+03	0	1.134060e-03
7.900000e+08	2.899539e+13	0.000000e+00	4.871794e-01	4.947194e+14	1.164466e+15	2.628472e+14	1.378520e+04	8.789939e+03	4.959619e+03	0	1.125643e-03
8.000000e+08	2.835978e+13	0.000000e+00	4.871794e-01	4.862137e+14	1.156551e+15	2.616140e+14	1.374367e+04	8.779431e+03	4.953690e+03	0	1.117357e-03
8.100000e+08	2.774310e+13	0.000000e+00	4.871794e-01	4.779564e+14	1.148640e+15	2.603893e+14	1.370285e+04	8.768876e+03	4.947734e+03	0	1.109199e-03
8.200000e+08	2.714456e+13	0.000000e+00	4.871794e-01	4.699376e+14	1.140739e+15	2.591731e+14	1.366272e+04	8.758280e+03	4.941756e+03	0	1.101164e-03
8.300000e+08	2.656345e+13	0.000000e+00	4.871794e-01	4.621477e+14	1.132851e+15	2.579653e+14	1.362326e+04	8.747649e+03	4.935757e+03	0	1.093249e-03
8.400000e+08	2.599906e+13	0.000000e+00	4.871794e-01	4.545777e+14	1.124982e+15	2.567658e+14	1.358445e+04	8.736989e+03	4.929742e+03	0	1.085451e-03
8.500000e+08	2.545074e+13	0.000000e+00	4.871794e-01	4.472190e+14	1.117136e+15	2.555747e+14	1.354628e+04	8.726305e+03	4.923714e+03	0	1.077766e-03
8.600000e+08	2.491787e+13	0.000000e+00	4.871794e-01	4.400634e+14	1.109317e+15	2.543917e+14	1.350871e+04	8.715603e+03	4.917676e+03	0	1.070191e-03
8.700000e+08	2.439985e+13	0.000000e+00	4.871794e-01	4.331032e+14	1.101527e+15	2.532169e+14	1.347175e+04	8.704887e+03	4.911629e+03	0	1.062723e-03
8.800000e+08	2.389610e+13	0.000000e+00	4.871794e-01	4.263309e+14	1.093771e+15	2.520501e+14	1.343536e+04	8.694162e+03	4.905578e+03	0	1.055359e-03
8.900000e+08	2.340610e+13	0.000000e+00	4.871794e-01	4.197395e+14	1.086052e+15	2.508914e+14	1.339955e+04	8.683431e+03	4.899523e+03	0	1.048095e-03
9.000000e+08	2.292932e+13	0.000000e+00	4.871794e-01	4.133223e+14	1.078371e+15	2.497406e+14	1.336428e+04	8.672700e+03	4.893468e+03	0	1.040930e-03
9.100000e+08	2.246528e+13	0.000000e+00	4.871794e-01	4.070728e+14	1.070732e+15	2.485977e+14	1.332955e+04	8.661970e+03	4.887414e+03	0	1.033860e-03
9.200000e+08	2.201350e+13	0.000000e+00	4.871794e-01	4.009851e+14	1.063137e+15	2.474626e+14	1.329534e+04	8.651247e+03	4.881364e+03	0	1.026883e-03
9.300000e+08	2.157355e+13	0.000000e+00	4.871794e-01	3.950532e+14	1.055588e+15	2.463353e+14	1.326164e+04	8.640533e+03	4.875318e+03	0	1.019996e-03
9.400000e+08	2.114500e+13	0.000000e+00	4.871794e-01	3.892716e+14	1.048087e+15	2.452157e+14	1.322843e+04	8.629831e+03	4.869280e+03	0	1.013196e-03
9.500000e+08	2.072744e+13	0.000000e+00	4.871794e-01	3.836350e+14	1.040636e+15	2.441038e+14	1.319571e+04	8.619144e+03	4.863250e+03	0	1.006483e-03
9.600000e+08	2.032049e+13	0.000000e+00	4.871794e-01	3.781383e+14	1.033236e+15	2.429994e+14	1.316347e+04	8.608475e+03	4.857230e+03	0	9.998522e-04
9.700000e+08	1.992377e+13	0.000000e+00	4.871794e-01	3.727767e+14	1.025888e+15	2.419026e+14	1.313168e+04	8.597827e+03	4.851222e+03	0	9.933026e-04
9.800000e+08	1.953693e+13	0.000000e+00	4.871794e-01	3.675455e+14	1.018594e+15	2.408132e+14	1.310034e+04	8.587200e+03	4.845226e+03	0	9.868318e-04
9.900000e+08	1.915962e+13	0.000000e+00	4.871794e-01	3.624404e+14	1.011355e+15	2.397312e+14	1.306943e+04	8.576599e+03	4.839244e+03	0	9.804378e-04
1.000000e+09	1.879154e+13	0.000000e+00	4.871794e-01	3.574569e+14	1.004172e+15	2.386566e+14	1.303896e+04	8.566024e+03	4.833278e+03	0	9.741186e-04
1.010000e+09	1.843236e+13	0.000000e+00	4.871794e-01	3.525912e+14	9.970462e+14	2.375892e+14	1.300890e+04	8.555478e+03	4.827327e+03	0	9.678722e-04
1.020000e+09	1.808179e+13	0.000000e+00	4.871794e-01	3.478393e+14	9.899775e+14	2.365291e+14	1.297925e+04	8.544962e+03	4.821394e+03	0	9.616968e-04
1.030000e+09	1.773954e+13	0.000000e+00	4.871794e-01	3.431975e+14	9.829671e+14	2.354761e+14	1.294999e+04	8.534479e+03	4.815478e+03	0	9.555906e-04
1.040000e+09	1.740535e+13	0.000000e+00	4.871794e-01	3.386622e+14	9.760156e+14	2.344303e+14	1.292113e+04	8.524028e+03	4.809582e+03	0	9.495517e-04
1.050000e+09	1.707894e+13	0.000000e+00	4.871794e-01	3.342300e+14	9.691232e+14	2.333915e+14	1.289264e+04	8.513613e+03	4.803705e+03	0	9.435785e-04
1.060000e+09	1.676007e+13	0.000000e+00	4.871794e-01	3.298975e+14	9.622903e+14	2.323598e+14	1.286452e+04	8.503235e+03	4.797849e+03	0	9.376693e-04
1.070000e+09	1.644851e+13	0.000000e+00	4.871794e-01	3.256618e+14	9.555179e+14	2.313350e+14	1.283677e+04	8.492893e+03	4.792014e+03	0	9.318226e-04
1.080000e+09	1.614401e+13	0.000000e+00	4.871794e-01	3.215196e+14	9.488055e+14	2.303171e+14	1.280937e+04	8.482591e+03	4.786201e+03	0	9.260367e-04
1.090000e+09	1.584636e+13	0.000000e+00	4.871794e-01	3.174682e+14	9.421534e+14	2.293060e+14	1.278232e+04	8.472328e+03	4.780411e+03	0	9.203102e-04
1.100000e+09	1.555534e+13	0.000000e+00	4.871794e-01	3.135047e+14	9.355619e+14	2.283017e+14	1.275561e+04	8.462106e+03	4.774643e+03	0	9.146415e-04
1.110000e+09	1.527075e+13	0.000000e+00	4.871794e-01	3.096265e+14	9.290309e+14	2.273042e+14	1.272923e+04	8.451925e+03	4.768899e+03	0	9.090293e-04
1.120000e+09	1.499240e+13	0.000000e+00	4.871794e-01	3.058309e+14	9.225605e+14	2.263133e+14	1.270318e+04	8.441787e+03	4.763178e+03	0	9.034722e-04
1.130000e+09	1.472009e+13	0.000000e+00	4.871794e-01	3.021156e+14	9.161505e+14	2.253291e+14	1.267744e+04	8.431692e+03	4.757482e+03	0	8.979688e-04
1.140000e+09	1.445365e+13	0.000000e+00	4.871794e-01	2.984781e+14	9.098011e+14	2.243514e+14	1.265202e+04	8.421641e+03	4.751811e+03	0	8.925177e-04
1.150000e+09	1.419289e+13	0.000000e+00	4.871794e-01	2.949161e+14	9.035118e+14	2.233803e+14	1.262690e+04	8.411634e+03	4.746165e+03	0	8.871179e-04
1.160000e+09	1.393765e+13	0.000000e+00	4.871794e-01	2.914274e+14	8.972829e+14	2.224156e+14	1.260207e+04	8.401672e+03	4.740544e+03	0	8.817679e-04
1.170000e+09	1.368778e+13	0.000000e+00	4.871794e-01	2.880099e+14	8.911136e+14	2.214574e+14	1.257754e+04	8.391756e+03	4.734949e+03	0	8.764666e-04
1.180000e+09	1.344310e+13	0.000000e+00	4.871794e-01	2.846616e+14	8.850042e+14	2.205056e+14	1.255330e+04	8.381886e+03	4.729380e+03	0	8.712128e-04
1.190000e+09	1.320348e+13	0.000000e+00	4.871794e-01	2.813804e+14	8.789541e+14	2.195601e+14	1.252934e+04	8.372062e+03	4.723837e+03	0	8.660053e-04
1.200000e+09	1.296877e+13	0.000000e+00	4.871794e-01	2.781645e+14	8.729631e+14	2.186208e+14	1.250565e+04	8.362285e+03	4.718320e+03	0	8.608431e-04
1.210000e+09	1.273883e+13	0.000000e+00	4.871794e-01	2.750121e+14	8.670310e+14	2.176878e+14	1.248223e+04	8.352555e+03	4.712830e+03	0	8.557251e-04
1.220000e+09	1.251353e+13	0.000000e+00	4.871794e-01	2.719214e+14	8.611571e+14	2.167610e+14	1.245908e+04	8.342873e+03	4.707367e+03	0	8.506501e-04
1.230000e+09	1.229273e+13	0.000000e+00	4.871794e-01	2.688907e+14	8.553415e+14	2.158403e+14	1.243618e+04	8.333238e+03	4.701931e+03	0	8.456172e-04
1.240000e+09	1.207631e+13	0.000000e+00	4.871794e-01	2.659183e+14	8.495833e+14	2.149257e+14	1.241354e+04	8.323651e+03	4.696521e+03	0	8.406254e-04
1.250000e+09	1.186416e+13	0.000000e+00	4.871794e-01	2.630027e+14	8.438825e+14	2.140171e+14	1.239115e+04	8.314112e+03	4.691139e+03	0	8.356736e-04
1.260000e+09	1.165615e+13	0.000000e+00	4.871794e-01	2.601423e+14	8.382385e+14	2.131145e+14	1.236900e+04	8.304621e+03	4.685784e+03	0	8.307609e-04
1.270000e+09	1.145217e+13	0.000000e+00	4.871794e-01	2.573357e+14	8.326509e+14	2.122179e+14	1.234710e+04	8.295179e+03	4.680456e+03	0	8.258864e-04
1.280000e+09	1.125212e+13	0.000000e+00	4.871794e-01	2.545814e+14	8.271190e+14	2.113271e+14	1.232543e+04	8.285785e+03	4.675156e+03	0	8.210492e-04
1.290000e+09	1.105589e+13	0.000000e+00	4.871794e-01	2.518781e+14	8.216430e+14	2.104422e+14	1.230399e+04	8.276440e+03	4.669883e+03	0	8.162482e-04
1.300000e+09	1.086338e+13	0.000000e+00	4.871794e-01	2.492244e+14	8.162217e+14	2.095631e+14	1.228277e+04	8.267143e+03	4.664637e+03	0	8.114828e-04
1.310000e+09	1.067449e+13	0.000000e+00	4.871794e-01	2.466190e+14	8.108551e+14	2.086898e+14	1.226178e+04	8.257894e+03	4.659419e+03	0	8.067520e-04
1.320000e+09	1.048912e+13	0.000000e+00	4.871794e-01	2.440608e+14	8.055423e+14	2.078222e+14	1.224101e+04	8.248694e+03	4.654228e+03	0	8.020549e-04
1.330000e+09	1.030720e+13	0.000000e+00	4.871794e-01	2.415484e+14	8.002831e+14	2.069603e+14	1.222045e+04	8.239543e+03	4.649064e+03	0	7.973908e-04
1.340000e+09	1.012862e+13	0.000000e+00	4.871794e-01	2.390808e+14	7.950770e+14	2.061040e+14	1.220010e+04	8.230440e+03	4.643928e+03	0	7.927589e-04
1.350000e+09	9.953303e+12	0.000000e+00	4.871794e-01	2.366568e+14	7.899236e+14	2.052533e+14	1.217996e+04	8.221385e+03	4.638819e+03	0	7.881583e-04
1.360000e+09	9.781168e+12	0.000000e+00	4.871794e-01	2.342753e+14	7.848220e+14	2.044082e+14	1.216003e+04	8.212379e+03	4.633738e+03	0	7.835883e-04
