#t		Qconv[W]	Ri[Rp]		R*[Rp]		Qc[W]		Qm[W]		Qr[W]		Tcmb[K]		Tl[K]		Tup[K]		RiFlag		Bs[T]
0.000000e+00	6.248729e+14	0.000000e+00	4.827588e-01	7.447494e+15	2.551099e+13	4.860518e+14	2.896800e+04	5.288545e+03	3.079814e+03	0	3.149896e-03
1.000000e+07	5.859705e+14	0.000000e+00	4.827588e-01	7.001836e+15	3.279056e+13	4.833588e+14	2.847618e+04	5.453937e+03	3.176131e+03	0	3.083123e-03
2.000000e+07	5.507455e+14	0.000000e+00	4.827588e-01	6.598061e+15	4.107182e+13	4.806858e+14	2.801305e+04	5.609783e+03	3.266889e+03	0	3.020063e-03
3.000000e+07	5.187322e+14	0.000000e+00	4.827588e-01	6.230879e+15	5.032991e+13	4.780328e+14	2.757599e+04	5.756941e+03	3.352587e+03	0	2.960375e-03
4.000000e+07	4.895374e+14	0.000000e+00	4.827588e-01	5.895824e+15	6.052954e+13	4.753997e+14	2.716269e+04	5.896155e+03	3.433659e+03	0	2.903762e-03
5.000000e+07	4.628274e+14	0.000000e+00	4.827588e-01	5.589100e+15	7.162742e+13	4.727862e+14	2.677113e+04	6.028079e+03	3.510486e+03	0	2.849960e-03
6.000000e+07	4.383173e+14	0.000000e+00	4.827588e-01	5.307470e+15	8.357439e+13	4.701921e+14	2.639950e+04	6.153289e+03	3.583403e+03	0	2.798736e-03
7.000000e+07	4.157625e+14	0.000000e+00	4.827588e-01	5.048152e+15	9.631712e+13	4.676174e+14	2.604620e+04	6.272293e+03	3.652705e+03	0	2.749882e-03
8.000000e+07	3.949523e+14	0.000000e+00	4.827588e-01	4.808748e+15	1.097996e+14	4.650618e+14	2.570983e+04	6.385542e+03	3.718656e+03	0	2.703215e-03
9.000000e+07	3.757039e+14	0.000000e+00	4.827588e-01	4.587181e+15	1.239640e+14	4.625253e+14	2.538909e+04	6.493438e+03	3.781490e+03	0	2.658567e-03
1.000000e+08	3.578586e+14	0.000000e+00	4.827588e-01	4.381643e+15	1.387521e+14	4.600075e+14	2.508286e+04	6.596342e+03	3.841417e+03	0	2.615790e-03
1.100000e+08	3.412777e+14	0.000000e+00	4.827588e-01	4.190554e+15	1.541055e+14	4.575085e+14	2.479009e+04	6.694576e+03	3.898624e+03	0	2.574749e-03
1.200000e+08	3.258395e+14	0.000000e+00	4.827588e-01	4.012531e+15	1.699663e+14	4.550279e+14	2.450987e+04	6.788432e+03	3.953281e+03	0	2.535325e-03
1.300000e+08	3.114371e+14	0.000000e+00	4.827588e-01	3.846354e+15	1.862779e+14	4.525658e+14	2.424135e+04	6.878174e+03	4.005543e+03	0	2.497406e-03
1.400000e+08	2.979760e+14	0.000000e+00	4.827588e-01	3.690948e+15	2.029848e+14	4.501218e+14	2.398376e+04	6.964042e+03	4.055549e+03	0	2.460893e-03
1.500000e+08	2.853726e+14	0.000000e+00	4.827588e-01	3.545358e+15	2.200334e+14	4.476960e+14	2.373642e+04	7.046253e+03	4.103425e+03	0	2.425696e-03
1.600000e+08	2.735526e+14	0.000000e+00	4.827588e-01	3.408738e+15	2.373717e+14	4.452880e+14	2.349867e+04	7.125007e+03	4.149288e+03	0	2.391732e-03
1.700000e+08	2.624496e+14	0.000000e+00	4.827588e-01	3.280333e+15	2.549499e+14	4.428978e+14	2.326995e+04	7.200487e+03	4.193244e+03	0	2.358926e-03
1.800000e+08	2.520046e+14	0.000000e+00	4.827588e-01	3.159466e+15	2.727200e+14	4.405252e+14	2.304971e+04	7.272859e+03	4.235390e+03	0	2.327208e-03
1.900000e+08	2.421644e+14	0.000000e+00	4.827588e-01	3.045534e+15	2.906365e+14	4.381701e+14	2.283747e+04	7.342279e+03	4.275817e+03	0	2.296514e-03
2.000000e+08	2.328815e+14	0.000000e+00	4.827588e-01	2.937993e+15	3.086560e+14	4.358324e+14	2.263277e+04	7.408889e+03	4.314608e+03	0	2.266787e-03
2.100000e+08	2.241129e+14	0.000000e+00	4.827588e-01	2.836352e+15	3.267372e+14	4.335118e+14	2.243520e+04	7.472823e+03	4.351840e+03	0	2.237972e-03
2.200000e+08	2.158199e+14	0.000000e+00	4.827588e-01	2.740169e+15	3.448411e+14	4.312083e+14	2.224438e+04	7.534202e+03	4.387585e+03	0	2.210020e-03
2.300000e+08	2.079675e+14	0.000000e+00	4.827588e-01	2.649045e+15	3.629308e+14	4.289217e+14	2.205993e+04	7.593141e+03	4.421908e+03	0	2.182885e-03
2.400000e+08	2.005239e+14	0.000000e+00	4.827588e-01	2.562616e+15	3.809720e+14	4.266518e+14	2.188155e+04	7.649748e+03	4.454874e+03	0	2.156524e-03
2.500000e+08	1.934602e+14	0.000000e+00	4.827588e-01	2.480553e+15	3.989320e+14	4.243986e+14	2.170891e+04	7.704122e+03	4.486538e+03	0	2.130899e-03
2.600000e+08	1.867502e+14	0.000000e+00	4.827588e-01	2.402554e+15	4.167806e+14	4.221618e+14	2.154173e+04	7.756356e+03	4.516958e+03	0	2.105972e-03
2.700000e+08	1.803698e+14	0.000000e+00	4.827588e-01	2.328346e+15	4.344896e+14	4.199414e+14	2.137974e+04	7.806540e+03	4.546182e+03	0	2.081710e-03
2.800000e+08	1.742972e+14	0.000000e+00	4.827588e-01	2.257678e+15	4.520325e+14	4.177373e+14	2.122270e+04	7.854756e+03	4.574261e+03	0	2.058081e-03
2.900000e+08	1.685123e+14	0.000000e+00	4.827588e-01	2.190321e+15	4.693852e+14	4.155492e+14	2.107037e+04	7.901081e+03	4.601239e+03	0	2.035055e-03
3.000000e+08	1.629967e+14	0.000000e+00	4.827588e-01	2.126063e+15	4.865252e+14	4.133770e+14	2.092253e+04	7.945590e+03	4.627159e+03	0	2.012605e-03
3.100000e+08	1.577335e+14	0.000000e+00	4.827588e-01	2.064713e+15	5.034318e+14	4.112207e+14	2.077898e+04	7.988353e+03	4.652062e+03	0	1.990705e-03
3.200000e+08	1.527072e+14	0.000000e+00	4.827588e-01	2.006090e+15	5.200863e+14	4.090801e+14	2.063953e+04	8.029436e+03	4.675987e+03	0	1.969331e-03
3.300000e+08	1.479033e+14	0.000000e+00	4.827588e-01	1.950032e+15	5.364715e+14	4.069550e+14	2.050400e+04	8.068902e+03	4.698970e+03	0	1.948461e-03
3.400000e+08	1.433087e+14	0.000000e+00	4.827588e-01	1.896386e+15	5.525719e+14	4.048454e+14	2.037221e+04	8.106810e+03	4.721046e+03	0	1.928072e-03
3.500000e+08	1.389112e+14	0.000000e+00	4.827588e-01	1.845012e+15	5.683733e+14	4.027511e+14	2.024401e+04	8.143218e+03	4.742248e+03	0	1.908145e-03
3.600000e+08	1.346993e+14	0.000000e+00	4.827588e-01	1.795781e+15	5.838634e+14	4.006720e+14	2.011925e+04	8.178179e+03	4.762608e+03	0	1.888662e-03
3.700000e+08	1.306627e+14	0.000000e+00	4.827588e-01	1.748572e+15	5.990312e+14	3.986079e+14	1.999779e+04	8.211746e+03	4.782156e+03	0	1.869604e-03
3.800000e+08	1.267915e+14	0.000000e+00	4.827588e-01	1.703273e+15	6.138667e+14	3.965587e+14	1.987948e+04	8.243968e+03	4.800921e+03	0	1.850955e-03
3.900000e+08	1.230768e+14	0.000000e+00	4.827588e-01	1.659780e+15	6.283614e+14	3.945244e+14	1.976422e+04	8.274892e+03	4.818930e+03	0	1.832699e-03
4.000000e+08	1.195100e+14	0.000000e+00	4.827588e-01	1.617997e+15	6.425085e+14	3.925048e+14	1.965187e+04	8.304565e+03	4.836210e+03	0	1.814821e-03
4.100000e+08	1.160834e+14	0.000000e+00	4.827588e-01	1.577834e+15	6.563013e+14	3.904997e+14	1.954232e+04	8.333028e+03	4.852785e+03	0	1.797308e-03
4.200000e+08	1.127896e+14	0.000000e+00	4.827588e-01	1.539206e+15	6.697352e+14	3.885091e+14	1.943546e+04	8.360324e+03	4.868681e+03	0	1.780145e-03
4.300000e+08	1.096218e+14	0.000000e+00	4.827588e-01	1.502035e+15	6.828058e+14	3.865328e+14	1.933120e+04	8.386492e+03	4.883921e+03	0	1.763321e-03
4.400000e+08	1.065735e+14	0.000000e+00	4.827588e-01	1.466247e+15	6.955105e+14	3.845707e+14	1.922944e+04	8.411572e+03	4.898526e+03	0	1.746823e-03
4.500000e+08	1.036389e+14	0.000000e+00	4.827588e-01	1.431774e+15	7.078470e+14	3.826228e+14	1.913008e+04	8.435600e+03	4.912519e+03	0	1.730639e-03
4.600000e+08	1.008122e+14	0.000000e+00	4.827588e-01	1.398552e+15	7.198138e+14	3.806888e+14	1.903303e+04	8.458612e+03	4.925920e+03	0	1.714760e-03
4.700000e+08	9.808831e+13	0.000000e+00	4.827588e-01	1.366518e+15	7.314105e+14	3.787687e+14	1.893822e+04	8.480641e+03	4.938749e+03	0	1.699175e-03
4.800000e+08	9.546219e+13	0.000000e+00	4.827588e-01	1.335618e+15	7.426372e+14	3.768623e+14	1.884556e+04	8.501721e+03	4.951025e+03	0	1.683873e-03
4.900000e+08	9.292923e+13	0.000000e+00	4.827588e-01	1.305798e+15	7.534950e+14	3.749696e+14	1.875498e+04	8.521884e+03	4.962767e+03	0	1.668847e-03
5.000000e+08	9.048509e+13	0.000000e+00	4.827588e-01	1.277007e+15	7.639851e+14	3.730904e+14	1.866641e+04	8.541160e+03	4.973992e+03	0	1.654086e-03
5.100000e+08	8.812565e+13	0.000000e+00	4.827588e-01	1.249198e+15	7.741099e+14	3.712247e+14	1.857977e+04	8.559578e+03	4.984718e+03	0	1.639582e-03
5.200000e+08	8.584706e+13	0.000000e+00	4.827588e-01	1.222327e+15	7.838718e+14	3.693722e+14	1.849501e+04	8.577168e+03	4.994962e+03	0	1.625327e-03
5.300000e+08	8.364566e+13	0.000000e+00	4.827588e-01	1.196352e+15	7.932741e+14	3.675330e+14	1.841205e+04	8.593955e+03	5.004738e+03	0	1.611314e-03
5.400000e+08	8.151802e+13	0.000000e+00	4.827588e-01	1.171233e+15	8.023200e+14	3.657069e+14	1.833085e+04	8.609968e+03	5.014063e+03	0	1.597534e-03
5.500000e+08	7.946090e+13	0.000000e+00	4.827588e-01	1.146933e+15	8.110140e+14	3.638938e+14	1.825134e+04	8.625232e+03	5.022952e+03	0	1.583982e-03
5.600000e+08	7.747122e+13	0.000000e+00	4.827588e-01	1.123416e+15	8.193601e+14	3.620935e+14	1.817346e+04	8.639771e+03	5.031419e+03	0	1.570649e-03
5.700000e+08	7.554609e+13	0.000000e+00	4.827588e-01	1.100650e+15	8.273632e+14	3.603061e+14	1.809717e+04	8.653609e+03	5.039478e+03	0	1.557530e-03
5.800000e+08	7.368276e+13	0.000000e+00	4.827588e-01	1.078601e+15	8.350280e+14	3.585313e+14	1.802242e+04	8.666769e+03	5.047142e+03	0	1.544618e-03
5.900000e+08	7.187863e+13	0.000000e+00	4.827588e-01	1.057241e+15	8.423599e+14	3.567691e+14	1.794915e+04	8.679275e+03	5.054424e+03	0	1.531907e-03
6.000000e+08	7.013124e+13	0.000000e+00	4.827588e-01	1.036541e+15	8.493642e+14	3.550194e+14	1.787732e+04	8.691146e+03	5.061337e+03	0	1.519391e-03
6.100000e+08	6.843825e+13	0.000000e+00	4.827588e-01	1.016474e+15	8.560467e+14	3.532821e+14	1.780689e+04	8.702404e+03	5.067894e+03	0	1.507065e-03
6.200000e+08	6.679745e+13	0.000000e+00	4.827588e-01	9.970139e+14	8.624135e+14	3.515570e+14	1.773782e+04	8.713070e+03	5.074105e+03	0	1.494923e-03
6.300000e+08	6.520673e+13	0.000000e+00	4.827588e-01	9.781370e+14	8.684704e+14	3.498441e+14	1.767006e+04	8.723163e+03	5.079983e+03	0	1.482961e-03
6.400000e+08	6.366408e+13	0.000000e+00	4.827588e-01	9.598202e+14	8.742235e+14	3.481433e+14	1.760357e+04	8.732701e+03	5.085537e+03	0	1.471173e-03
6.500000e+08	6.216762e+13	0.000000e+00	4.827588e-01	9.420413e+14	8.796792e+14	3.464545e+14	1.753832e+04	8.741703e+03	5.090780e+03	0	1.459555e-03
6.600000e+08	6.071554e+13	0.000000e+00	4.827588e-01	9.247795e+14	8.848437e+14	3.447775e+14	1.747427e+04	8.750187e+03	5.095720e+03	0	1.448101e-03
6.700000e+08	5.930610e+13	0.000000e+00	4.827588e-01	9.080150e+14	8.897238e+14	3.431124e+14	1.741139e+04	8.758169e+03	5.100369e+03	0	1.436808e-03
6.800000e+08	5.793768e+13	0.000000e+00	4.827588e-01	8.917288e+14	8.943255e+14	3.414589e+14	1.734963e+04	8.765667e+03	5.104735e+03	0	1.425671e-03
6.900000e+08	5.660872e+13	0.000000e+00	4.827588e-01	8.759028e+14	8.986554e+14	3.398171e+14	1.728899e+04	8.772695e+03	5.108828e+03	0	1.414686e-03
7.000000e+08	5.531773e+13	0.000000e+00	4.827588e-01	8.605199e+14	9.027203e+14	3.381867e+14	1.722941e+04	8.779271e+03	5.112658e+03	0	1.403849e-03
7.100000e+08	5.406329e+13	0.000000e+00	4.827588e-01	8.455636e+14	9.065267e+14	3.365678e+14	1.717087e+04	8.785408e+03	5.116232e+03	0	1.393156e-03
7.200000e+08	5.284405e+13	0.000000e+00	4.827588e-01	8.310184e+14	9.100806e+14	3.349602e+14	1.711334e+04	8.791122e+03	5.119559e+03	0	1.382604e-03
7.300000e+08	5.165871e+13	0.000000e+00	4.827588e-01	8.168692e+14	9.133890e+14	3.333638e+14	1.705679e+04	8.796426e+03	5.122648e+03	0	1.372188e-03
7.400000e+08	5.050606e+13	0.000000e+00	4.827588e-01	8.031019e+14	9.164584e+14	3.317786e+14	1.700120e+04	8.801333e+03	5.125506e+03	0	1.361905e-03
7.500000e+08	4.938490e+13	0.000000e+00	4.827588e-01	7.897027e+14	9.192949e+14	3.302044e+14	1.694655e+04	8.805858e+03	5.128141e+03	0	1.351752e-03
7.600000e+08	4.829412e+13	0.000000e+00	4.827588e-01	7.766586e+14	9.219049e+14	3.286412e+14	1.689280e+04	8.810013e+03	5.130560e+03	0	1.341726e-03
7.700000e+08	4.723263e+13	0.000000e+00	4.827588e-01	7.639572e+14	9.242952e+14	3.270888e+14	1.683993e+04	8.813809e+03	5.132771e+03	0	1.331823e-03
7.800000e+08	4.619942e+13	0.000000e+00	4.827588e-01	7.515865e+14	9.264715e+14	3.255473e+14	1.678792e+04	8.817260e+03	5.134781e+03	0	1.322040e-03
7.900000e+08	4.519348e+13	0.000000e+00	4.827588e-01	7.395351e+14	9.284401e+14	3.240164e+14	1.673675e+04	8.820376e+03	5.136595e+03	0	1.312374e-03
8.000000e+08	4.421389e+13	0.000000e+00	4.827588e-01	7.277922e+14	9.302071e+14	3.224962e+14	1.668640e+04	8.823169e+03	5.138222e+03	0	1.302822e-03
8.100000e+08	4.325974e+13	0.000000e+00	4.827588e-01	7.163471e+14	9.317786e+14	3.209865e+14	1.663684e+04	8.825650e+03	5.139666e+03	0	1.293382e-03
8.200000e+08	4.233016e+13	0.000000e+00	4.827588e-01	7.051900e+14	9.331604e+14	3.194873e+14	1.658806e+04	8.827828e+03	5.140935e+03	0	1.284051e-03
8.300000e+08	4.142433e+13	0.000000e+00	4.827588e-01	6.943111e+14	9.343587e+14	3.179984e+14	1.654003e+04	8.829715e+03	5.142034e+03	0	1.274826e-03
8.400000e+08	4.054145e+13	0.000000e+00	4.827588e-01	6.837012e+14	9.353788e+14	3.165198e+14	1.649274e+04	8.831320e+03	5.142969e+03	0	1.265704e-03
8.500000e+08	3.968076e+13	0.000000e+00	4.827588e-01	6.733516e+14	9.362262e+14	3.150514e+14	1.644617e+04	8.832653e+03	5.143745e+03	0	1.256683e-03
8.600000e+08	3.884153e+13	0.000000e+00	4.827588e-01	6.632537e+14	9.369066e+14	3.135931e+14	1.640030e+04	8.833723e+03	5.144368e+03	0	1.247760e-03
8.700000e+08	3.802305e+13	0.000000e+00	4.827588e-01	6.533994e+14	9.374255e+14	3.121449e+14	1.635511e+04	8.834538e+03	5.144843e+03	0	1.238933e-03
8.800000e+08	3.722466e+13	0.000000e+00	4.827588e-01	6.437809e+14	9.377884e+14	3.107066e+14	1.631060e+04	8.835107e+03	5.145174e+03	0	1.230201e-03
8.900000e+08	3.644570e+13	0.000000e+00	4.827588e-01	6.343905e+14	9.380001e+14	3.092782e+14	1.626673e+04	8.835440e+03	5.145368e+03	0	1.221559e-03
9.000000e+08	3.568557e+13	0.000000e+00	4.827588e-01	6.252213e+14	9.380656e+14	3.078596e+14	1.622350e+04	8.835543e+03	5.145428e+03	0	1.213007e-03
9.100000e+08	3.494365e+13	0.000000e+00	4.827588e-01	6.162661e+14	9.379904e+14	3.064508e+14	1.618089e+04	8.835424e+03	5.145359e+03	0	1.204541e-03
9.200000e+08	3.421937e+13	0.000000e+00	4.827588e-01	6.075183e+14	9.377787e+14	3.050515e+14	1.613889e+04	8.835092e+03	5.145165e+03	0	1.196161e-03
9.300000e+08	3.351220e+13	0.000000e+00	4.827588e-01	5.989715e+14	9.374360e+14	3.036619e+14	1.609749e+04	8.834554e+03	5.144852e+03	0	1.187864e-03
9.400000e+08	3.282158e+13	0.000000e+00	4.827588e-01	5.906196e+14	9.369660e+14	3.022818e+14	1.605666e+04	8.833816e+03	5.144422e+03	0	1.179647e-03
9.500000e+08	3.214702e+13	0.000000e+00	4.827588e-01	5.824566e+14	9.363740e+14	3.009110e+14	1.601640e+04	8.832885e+03	5.143880e+03	0	1.171510e-03
9.600000e+08	3.148803e+13	0.000000e+00	4.827588e-01	5.744768e+14	9.356640e+14	2.995497e+14	1.597669e+04	8.831769e+03	5.143230e+03	0	1.163449e-03
9.700000e+08	3.084412e+13	0.000000e+00	4.827588e-01	5.666746e+14	9.348405e+14	2.981975e+14	1.593753e+04	8.830474e+03	5.142476e+03	0	1.155464e-03
9.800000e+08	3.021485e+13	0.000000e+00	4.827588e-01	5.590449e+14	9.339077e+14	2.968546e+14	1.589889e+04	8.829005e+03	5.141621e+03	0	1.147552e-03
9.900000e+08	2.959978e+13	0.000000e+00	4.827588e-01	5.515824e+14	9.328695e+14	2.955209e+14	1.586077e+04	8.827370e+03	5.140668e+03	0	1.139712e-03
1.000000e+09	2.899848e+13	0.000000e+00	4.827588e-01	5.442823e+14	9.317298e+14	2.941961e+14	1.582316e+04	8.825573e+03	5.139622e+03	0	1.131942e-03
1.010000e+09	2.841055e+13	0.000000e+00	4.827588e-01	5.371398e+14	9.304929e+14	2.928804e+14	1.578604e+04	8.823621e+03	5.138485e+03	0	1.124240e-03
1.020000e+09	2.783560e+13	0.000000e+00	4.827588e-01	5.301504e+14	9.291623e+14	2.915736e+14	1.574941e+04	8.821518e+03	5.137260e+03	0	1.116604e-03
1.030000e+09	2.727325e+13	0.000000e+00	4.827588e-01	5.233096e+14	9.277416e+14	2.902756e+14	1.571326e+04	8.819271e+03	5.135952e+03	0	1.109033e-03
1.040000e+09	2.672313e+13	0.000000e+00	4.827588e-01	5.166133e+14	9.262346e+14	2.889864e+14	1.567756e+04	8.816884e+03	5.134562e+03	0	1.101526e-03
1.050000e+09	2.618489e+13	0.000000e+00	4.827588e-01	5.100572e+14	9.246441e+14	2.877059e+14	1.564233e+04	8.814363e+03	5.133094e+03	0	1.094080e-03
1.060000e+09	2.565820e+13	0.000000e+00	4.827588e-01	5.036375e+14	9.229743e+14	2.864340e+14	1.560753e+04	8.811712e+03	5.131550e+03	0	1.086695e-03
1.070000e+09	2.514272e+13	0.000000e+00	4.827588e-01	4.973503e+14	9.212277e+14	2.851707e+14	1.557318e+04	8.808936e+03	5.129933e+03	0	1.079369e-03
1.080000e+09	2.463815e+13	0.000000e+00	4.827588e-01	4.911920e+14	9.194081e+14	2.839159e+14	1.553925e+04	8.806039e+03	5.128246e+03	0	1.072099e-03
1.090000e+09	2.414417e+13	0.000000e+00	4.827588e-01	4.851590e+14	9.175184e+14	2.826695e+14	1.550574e+04	8.803026e+03	5.126491e+03	0	1.064886e-03
1.100000e+09	2.366049e+13	0.000000e+00	4.827588e-01	4.792478e+14	9.155616e+14	2.814315e+14	1.547264e+04	8.799901e+03	5.124671e+03	0	1.057727e-03
1.110000e+09	2.318683e+13	0.000000e+00	4.827588e-01	4.734551e+14	9.135403e+14	2.802018e+14	1.543994e+04	8.796668e+03	5.122789e+03	0	1.050621e-03
1.120000e+09	2.272291e+13	0.000000e+00	4.827588e-01	4.677777e+14	9.114573e+14	2.789804e+14	1.540763e+04	8.793331e+03	5.120845e+03	0	1.043567e-03
1.130000e+09	2.226847e+13	0.000000e+00	4.827588e-01	4.622126e+14	9.093159e+14	2.777671e+14	1.537571e+04	8.789894e+03	5.118844e+03	0	1.036563e-03
1.140000e+09	2.182324e+13	0.000000e+00	4.827588e-01	4.567566e+14	9.071182e+14	2.765619e+14	1.534417e+04	8.786360e+03	5.116786e+03	0	1.029608e-03
1.150000e+09	2.138699e+13	0.000000e+00	4.827588e-01	4.514070e+14	9.048668e+14	2.753648e+14	1.531300e+04	8.782734e+03	5.114675e+03	0	1.022702e-03
1.160000e+09	2.095948e+13	0.000000e+00	4.827588e-01	4.461609e+14	9.025643e+14	2.741757e+14	1.528219e+04	8.779019e+03	5.112511e+03	0	1.015841e-03
1.170000e+09	2.054046e+13	0.000000e+00	4.827588e-01	4.410156e+14	9.002133e+14	2.729945e+14	1.525174e+04	8.775218e+03	5.110297e+03	0	1.009026e-03
1.180000e+09	2.012971e+13	0.000000e+00	4.827588e-01	4.359684e+14	8.978155e+14	2.718211e+14	1.522164e+04	8.771334e+03	5.108035e+03	0	1.002255e-03
1.190000e+09	1.972703e+13	0.000000e+00	4.827588e-01	4.310169e+14	8.953737e+14	2.706555e+14	1.519188e+04	8.767370e+03	5.105727e+03	0	9.955267e-04
1.200000e+09	1.933220e+13	0.000000e+00	4.827588e-01	4.261586e+14	8.928900e+14	2.694977e+14	1.516246e+04	8.763331e+03	5.103375e+03	0	9.888401e-04
1.210000e+09	1.894501e+13	0.000000e+00	4.827588e-01	4.213910e+14	8.903663e+14	2.683476e+14	1.513337e+04	8.759218e+03	5.100979e+03	0	9.821939e-04
1.220000e+09	1.856526e+13	0.000000e+00	4.827588e-01	4.167119e+14	8.878048e+14	2.672051e+14	1.510461e+04	8.755034e+03	5.098543e+03	0	9.755871e-04
1.230000e+09	1.819278e+13	0.000000e+00	4.827588e-01	4.121191e+14	8.852074e+14	2.660701e+14	1.507616e+04	8.750782e+03	5.096067e+03	0	9.690184e-04
1.240000e+09	1.782737e+13	0.000000e+00	4.827588e-01	4.076104e+14	8.825762e+14	2.649426e+14	1.504802e+04	8.746466e+03	5.093553e+03	0	9.624868e-04
1.250000e+09	1.746886e+13	0.000000e+00	4.827588e-01	4.031836e+14	8.799125e+14	2.638226e+14	1.502019e+04	8.742087e+03	5.091003e+03	0	9.559910e-04
1.260000e+09	1.711706e+13	0.000000e+00	4.827588e-01	3.988369e+14	8.772186e+14	2.627100e+14	1.499266e+04	8.737648e+03	5.088418e+03	0	9.495301e-04
1.270000e+09	1.677182e+13	0.000000e+00	4.827588e-01	3.945681e+14	8.744960e+14	2.616047e+14	1.496543e+04	8.733151e+03	5.085800e+03	0	9.431029e-04
1.280000e+09	1.643297e+13	0.000000e+00	4.827588e-01	3.903754e+14	8.717463e+14	2.605067e+14	1.493849e+04	8.728600e+03	5.083149e+03	0	9.367083e-04
1.290000e+09	1.610035e+13	0.000000e+00	4.827588e-01	3.862569e+14	8.689715e+14	2.594158e+14	1.491183e+04	8.723995e+03	5.080468e+03	0	9.303452e-04
1.300000e+09	1.577382e+13	0.000000e+00	4.827588e-01	3.822109e+14	8.661727e+14	2.583322e+14	1.488545e+04	8.719340e+03	5.077757e+03	0	9.240127e-04
1.310000e+09	1.545321e+13	0.000000e+00	4.827588e-01	3.782356e+14	8.633517e+14	2.572556e+14	1.485935e+04	8.714637e+03	5.075017e+03	0	9.177096e-04
1.320000e+09	1.513840e+13	0.000000e+00	4.827588e-01	3.743293e+14	8.605097e+14	2.561861e+14	1.483352e+04	8.709887e+03	5.072251e+03	0	9.114349e-04
1.330000e+09	1.482923e+13	0.000000e+00	4.827588e-01	3.704904e+14	8.576483e+14	2.551236e+14	1.480796e+04	8.705093e+03	5.069459e+03	0	9.051875e-04
1.340000e+09	1.452558e+13	0.000000e+00	4.827588e-01	3.667173e+14	8.547686e+14	2.540680e+14	1.478265e+04	8.700256e+03	5.066643e+03	0	8.989664e-04
1.350000e+09	1.422731e+13	0.000000e+00	4.827588e-01	3.630085e+14	8.518719e+14	2.530194e+14	1.475761e+04	8.695379e+03	5.063802e+03	0	8.927706e-04
1.360000e+09	1.393429e+13	0.000000e+00	4.827588e-01	3.593623e+14	8.489598e+14	2.519775e+14	1.473281e+04	8.690463e+03	5.060940e+03	0	8.865991e-04
