#t		Qconv[W]	Ri[Rp]		R*[Rp]		Qc[W]		Qm[W]		Qr[W]		Tcmb[K]		Tl[K]		Tup[K]		RiFlag		Bs[T]
0.000000e+00	3.421519e+12	0.000000e+00	5.979900e-01	8.528122e+13	2.215578e+15	1.874215e+14	6.034808e+03	4.000800e+03	2.232098e+03	0	4.835615e-04
1.000000e+07	3.403875e+12	0.000000e+00	5.979900e-01	8.498559e+13	1.954041e+15	1.863831e+14	6.028539e+03	3.901466e+03	2.176679e+03	0	4.827289e-04
2.000000e+07	3.364117e+12	0.000000e+00	5.979900e-01	8.436512e+13	1.742263e+15	1.853524e+14	6.022292e+03	3.814975e+03	2.128424e+03	0	4.808421e-04
3.000000e+07	3.310821e+12	0.000000e+00	5.979900e-01	8.354596e+13	1.568238e+15	1.843294e+14	6.016090e+03	3.738936e+03	2.086001e+03	0	4.782893e-04
4.000000e+07	3.249487e+12	0.000000e+00	5.979900e-01	8.260903e+13	1.423356e+15	1.833141e+14	6.009948e+03	3.671521e+03	2.048389e+03	0	4.753174e-04
5.000000e+07	3.183690e+12	0.000000e+00	5.979900e-01	8.160692e+13	1.301326e+15	1.823063e+14	6.003874e+03	3.611305e+03	2.014794e+03	0	4.720873e-04
6.000000e+07	3.115770e+12	0.000000e+00	5.979900e-01	8.057403e+13	1.197469e+15	1.813060e+14	5.997874e+03	3.557168e+03	1.984590e+03	0	4.687060e-04
7.000000e+07	3.047265e+12	0.000000e+00	5.979900e-01	7.953298e+13	1.108250e+15	1.803132e+14	5.991950e+03	3.508211e+03	1.957277e+03	0	4.652454e-04
8.000000e+07	2.979180e+12	0.000000e+00	5.979900e-01	7.849855e+13	1.030960e+15	1.793278e+14	5.986101e+03	3.463709e+03	1.932448e+03	0	4.617543e-04
9.000000e+07	2.912171e+12	0.000000e+00	5.979900e-01	7.748037e+13	9.634945e+14	1.783497e+14	5.980329e+03	3.423067e+03	1.909773e+03	0	4.582661e-04
1.000000e+08	2.846652e+12	0.000000e+00	5.979900e-01	7.648453e+13	9.041984e+14	1.773788e+14	5.974631e+03	3.385792e+03	1.888978e+03	0	4.548032e-04
1.100000e+08	2.782877e+12	0.000000e+00	5.979900e-01	7.551472e+13	8.517547e+14	1.764152e+14	5.969006e+03	3.351477e+03	1.869833e+03	0	4.513811e-04
1.200000e+08	2.720987e+12	0.000000e+00	5.979900e-01	7.457304e+13	8.051052e+14	1.754587e+14	5.963453e+03	3.319776e+03	1.852146e+03	0	4.480098e-04
1.300000e+08	2.661051e+12	0.000000e+00	5.979900e-01	7.366046e+13	7.633914e+14	1.745093e+14	5.957968e+03	3.290396e+03	1.835755e+03	0	4.446959e-04
1.400000e+08	2.603083e+12	0.000000e+00	5.979900e-01	7.277720e+13	7.259105e+14	1.735669e+14	5.952550e+03	3.263088e+03	1.820519e+03	0	4.414431e-04
1.500000e+08	2.547065e+12	0.000000e+00	5.979900e-01	7.192297e+13	6.920827e+14	1.726315e+14	5.947197e+03	3.237639e+03	1.806321e+03	0	4.382535e-04
1.600000e+08	2.492956e+12	0.000000e+00	5.979900e-01	7.109716e+13	6.614257e+14	1.717030e+14	5.941907e+03	3.213862e+03	1.793055e+03	0	4.351279e-04
1.700000e+08	2.440699e+12	0.000000e+00	5.979900e-01	7.029890e+13	6.335359e+14	1.707813e+14	5.936678e+03	3.191597e+03	1.780633e+03	0	4.320661e-04
1.800000e+08	2.390228e+12	0.000000e+00	5.979900e-01	6.952724e+13	6.080731e+14	1.698665e+14	5.931506e+03	3.170703e+03	1.768976e+03	0	4.290671e-04
1.900000e+08	2.341473e+12	0.000000e+00	5.979900e-01	6.878112e+13	5.847488e+14	1.689583e+14	5.926392e+03	3.151057e+03	1.758016e+03	0	4.261297e-04
2.000000e+08	2.294360e+12	0.000000e+00	5.979900e-01	6.805944e+13	5.633171e+14	1.680569e+14	5.921332e+03	3.132549e+03	1.747690e+03	0	4.232522e-04
2.100000e+08	2.248815e+12	0.000000e+00	5.979900e-01	6.736113e+13	5.435669e+14	1.671621e+14	5.916326e+03	3.115084e+03	1.737946e+03	0	4.204329e-04
2.200000e+08	2.204767e+12	0.000000e+00	5.979900e-01	6.668510e+13	5.253168e+14	1.662739e+14	5.911370e+03	3.098575e+03	1.728735e+03	0	4.176697e-04
2.300000e+08	2.162145e+12	0.000000e+00	5.979900e-01	6.603030e+13	5.084095e+14	1.653921e+14	5.906464e+03	3.082947e+03	1.720016e+03	0	4.149607e-04
2.400000e+08	2.120879e+12	0.000000e+00	5.979900e-01	6.539573e+13	4.927081e+14	1.645169e+14	5.901607e+03	3.068130e+03	1.711749e+03	0	4.123038e-04
2.500000e+08	2.080905e+12	0.000000e+00	5.979900e-01	6.478040e+13	4.780935e+14	1.636480e+14	5.896796e+03	3.054063e+03	1.703901e+03	0	4.096970e-04
2.600000e+08	2.042159e+12	0.000000e+00	5.979900e-01	6.418339e+13	4.644609e+14	1.627855e+14	5.892030e+03	3.040691e+03	1.696441e+03	0	4.071383e-04
2.700000e+08	2.004582e+12	0.000000e+00	5.979900e-01	6.360381e+13	4.517183e+14	1.619294e+14	5.887307e+03	3.027963e+03	1.689340e+03	0	4.046256e-04
2.800000e+08	1.968118e+12	0.000000e+00	5.979900e-01	6.304083e+13	4.397845e+14	1.610794e+14	5.882628e+03	3.015835e+03	1.682574e+03	0	4.021572e-04
2.900000e+08	1.932713e+12	0.000000e+00	5.979900e-01	6.249365e+13	4.285876e+14	1.602357e+14	5.877989e+03	3.004265e+03	1.676119e+03	0	3.997310e-04
3.000000e+08	1.898316e+12	0.000000e+00	5.979900e-01	6.196151e+13	4.180635e+14	1.593981e+14	5.873391e+03	2.993216e+03	1.669954e+03	0	3.973455e-04
3.100000e+08	1.864879e+12	0.000000e+00	5.979900e-01	6.144372e+13	4.081553e+14	1.585667e+14	5.868832e+03	2.982653e+03	1.664061e+03	0	3.949987e-04
3.200000e+08	1.832358e+12	0.000000e+00	5.979900e-01	6.093959e+13	3.988121e+14	1.577412e+14	5.864311e+03	2.972544e+03	1.658421e+03	0	3.926891e-04
3.300000e+08	1.800709e+12	0.000000e+00	5.979900e-01	6.044851e+13	3.899882e+14	1.569218e+14	5.859827e+03	2.962862e+03	1.653019e+03	0	3.904151e-04
3.400000e+08	1.769893e+12	0.000000e+00	5.979900e-01	5.996986e+13	3.816426e+14	1.561083e+14	5.855380e+03	2.953581e+03	1.647841e+03	0	3.881751e-04
3.500000e+08	1.739871e+12	0.000000e+00	5.979900e-01	5.950309e+13	3.737383e+14	1.553008e+14	5.850967e+03	2.944674e+03	1.642872e+03	0	3.859678e-04
3.600000e+08	1.710607e+12	0.000000e+00	5.979900e-01	5.904767e+13	3.662420e+14	1.544991e+14	5.846588e+03	2.936121e+03	1.638100e+03	0	3.837917e-04
3.700000e+08	1.682069e+12	0.000000e+00	5.979900e-01	5.860310e+13	3.591234e+14	1.537031e+14	5.842243e+03	2.927901e+03	1.633514e+03	0	3.816454e-04
3.800000e+08	1.654224e+12	0.000000e+00	5.979900e-01	5.816891e+13	3.523553e+14	1.529130e+14	5.837931e+03	2.919995e+03	1.629103e+03	0	3.795277e-04
3.900000e+08	1.627042e+12	0.000000e+00	5.979900e-01	5.774464e+13	3.459127e+14	1.521286e+14	5.833650e+03	2.912384e+03	1.624857e+03	0	3.774375e-04
4.000000e+08	1.600495e+12	0.000000e+00	5.979900e-01	5.732988e+13	3.397729e+14	1.513498e+14	5.829401e+03	2.905053e+03	1.620767e+03	0	3.753734e-04
4.100000e+08	1.574556e+12	0.000000e+00	5.979900e-01	5.692424e+13	3.339153e+14	1.505766e+14	5.825182e+03	2.897986e+03	1.616824e+03	0	3.733345e-04
4.200000e+08	1.549200e+12	0.000000e+00	5.979900e-01	5.652733e+13	3.283210e+14	1.498090e+14	5.820993e+03	2.891169e+03	1.613021e+03	0	3.713196e-04
4.300000e+08	1.524402e+12	0.000000e+00	5.979900e-01	5.613881e+13	3.229727e+14	1.490470e+14	5.816833e+03	2.884589e+03	1.609349e+03	0	3.693278e-04
4.400000e+08	1.500141e+12	0.000000e+00	5.979900e-01	5.575833e+13	3.178545e+14	1.482904e+14	5.812702e+03	2.878233e+03	1.605804e+03	0	3.673580e-04
4.500000e+08	1.476395e+12	0.000000e+00	5.979900e-01	5.538557e+13	3.129519e+14	1.475393e+14	5.808599e+03	2.872091e+03	1.602377e+03	0	3.654093e-04
4.600000e+08	1.453143e+12	0.000000e+00	5.979900e-01	5.502025e+13	3.082514e+14	1.467935e+14	5.804523e+03	2.866151e+03	1.599063e+03	0	3.634808e-04
4.700000e+08	1.430367e+12	0.000000e+00	5.979900e-01	5.466206e+13	3.037407e+14	1.460531e+14	5.800474e+03	2.860403e+03	1.595856e+03	0	3.615718e-04
4.800000e+08	1.408048e+12	0.000000e+00	5.979900e-01	5.431075e+13	2.994083e+14	1.453180e+14	5.796451e+03	2.854837e+03	1.592751e+03	0	3.596813e-04
4.900000e+08	1.386168e+12	0.000000e+00	5.979900e-01	5.396605e+13	2.952438e+14	1.445882e+14	5.792454e+03	2.849446e+03	1.589743e+03	0	3.578086e-04
5.000000e+08	1.364713e+12	0.000000e+00	5.979900e-01	5.362772e+13	2.912374e+14	1.438636e+14	5.788482e+03	2.844221e+03	1.586828e+03	0	3.559528e-04
5.100000e+08	1.343665e+12	0.000000e+00	5.979900e-01	5.329553e+13	2.873800e+14	1.431442e+14	5.784535e+03	2.839153e+03	1.584000e+03	0	3.541134e-04
5.200000e+08	1.323010e+12	0.000000e+00	5.979900e-01	5.296927e+13	2.836632e+14	1.424299e+14	5.780613e+03	2.834236e+03	1.581257e+03	0	3.522896e-04
5.300000e+08	1.302735e+12	0.000000e+00	5.979900e-01	5.264871e+13	2.800794e+14	1.417207e+14	5.776714e+03	2.829462e+03	1.578594e+03	0	3.504807e-04
5.400000e+08	1.282826e+12	0.000000e+00	5.979900e-01	5.233367e+13	2.766211e+14	1.410165e+14	5.772839e+03	2.824825e+03	1.576007e+03	0	3.486861e-04
5.500000e+08	1.263270e+12	0.000000e+00	5.979900e-01	5.202395e+13	2.732818e+14	1.403174e+14	5.768987e+03	2.820320e+03	1.573493e+03	0	3.469052e-04
5.600000e+08	1.244055e+12	0.000000e+00	5.979900e-01	5.171938e+13	2.700551e+14	1.396232e+14	5.765158e+03	2.815939e+03	1.571049e+03	0	3.451373e-04
5.700000e+08	1.225170e+12	0.000000e+00	5.979900e-01	5.141978e+13	2.669351e+14	1.389340e+14	5.761352e+03	2.811678e+03	1.568672e+03	0	3.433820e-04
5.800000e+08	1.206603e+12	0.000000e+00	5.979900e-01	5.112500e+13	2.639164e+14	1.382496e+14	5.757567e+03	2.807532e+03	1.566359e+03	0	3.416386e-04
5.900000e+08	1.188345e+12	0.000000e+00	5.979900e-01	5.083487e+13	2.609939e+14	1.375701e+14	5.753804e+03	2.803495e+03	1.564106e+03	0	3.399066e-04
6.000000e+08	1.170385e+12	0.000000e+00	5.979900e-01	5.054924e+13	2.581627e+14	1.368954e+14	5.750063e+03	2.799563e+03	1.561913e+03	0	3.381855e-04
6.100000e+08	1.152714e+12	0.000000e+00	5.979900e-01	5.026798e+13	2.554184e+14	1.362255e+14	5.746342e+03	2.795732e+03	1.559775e+03	0	3.364748e-04
6.200000e+08	1.135322e+12	0.000000e+00	5.979900e-01	4.999095e+13	2.527567e+14	1.355603e+14	5.742642e+03	2.791997e+03	1.557692e+03	0	3.347741e-04
6.300000e+08	1.118202e+12	0.000000e+00	5.979900e-01	4.971803e+13	2.501738e+14	1.348998e+14	5.738962e+03	2.788355e+03	1.555660e+03	0	3.330827e-04
6.400000e+08	1.101344e+12	0.000000e+00	5.979900e-01	4.944908e+13	2.476659e+14	1.342440e+14	5.735303e+03	2.784802e+03	1.553677e+03	0	3.314004e-04
6.500000e+08	1.084741e+12	0.000000e+00	5.979900e-01	4.918398e+13	2.452296e+14	1.335928e+14	5.731663e+03	2.781333e+03	1.551742e+03	0	3.297267e-04
6.600000e+08	1.068385e+12	0.000000e+00	5.979900e-01	4.892264e+13	2.428615e+14	1.329462e+14	5.728043e+03	2.777947e+03	1.549852e+03	0	3.280611e-04
6.700000e+08	1.052269e+12	0.000000e+00	5.979900e-01	4.866493e+13	2.405585e+14	1.323041e+14	5.724442e+03	2.774639e+03	1.548007e+03	0	3.264032e-04
6.800000e+08	1.036387e+12	0.000000e+00	5.979900e-01	4.841075e+13	2.383178e+14	1.316665e+14	5.720859e+03	2.771406e+03	1.546203e+03	0	3.247526e-04
6.900000e+08	1.020730e+12	0.000000e+00	5.979900e-01	4.816001e+13	2.361367e+14	1.310334e+14	5.717296e+03	2.768246e+03	1.544441e+03	0	3.231090e-04
7.000000e+08	1.005294e+12	0.000000e+00	5.979900e-01	4.791261e+13	2.340124e+14	1.304048e+14	5.713751e+03	2.765156e+03	1.542717e+03	0	3.214719e-04
7.100000e+08	9.900711e+11	0.000000e+00	5.979900e-01	4.766846e+13	2.319427e+14	1.297805e+14	5.710224e+03	2.762134e+03	1.541030e+03	0	3.198411e-04
7.200000e+08	9.750566e+11	0.000000e+00	5.979900e-01	4.742747e+13	2.299251e+14	1.291606e+14	5.706715e+03	2.759176e+03	1.539380e+03	0	3.182160e-04
7.300000e+08	9.602444e+11	0.000000e+00	5.979900e-01	4.718956e+13	2.279575e+14	1.285450e+14	5.703224e+03	2.756280e+03	1.537764e+03	0	3.165964e-04
7.400000e+08	9.456291e+11	0.000000e+00	5.979900e-01	4.695464e+13	2.260378e+14	1.279338e+14	5.699750e+03	2.753444e+03	1.536182e+03	0	3.149820e-04
7.500000e+08	9.312057e+11	0.000000e+00	5.979900e-01	4.672264e+13	2.241641e+14	1.273268e+14	5.696294e+03	2.750667e+03	1.534633e+03	0	3.133723e-04
7.600000e+08	9.169690e+11	0.000000e+00	5.979900e-01	4.649348e+13	2.223345e+14	1.267240e+14	5.692854e+03	2.747945e+03	1.533114e+03	0	3.117671e-04
7.700000e+08	9.029144e+11	0.000000e+00	5.979900e-01	4.626710e+13	2.205473e+14	1.261254e+14	5.689432e+03	2.745277e+03	1.531625e+03	0	3.101660e-04
7.800000e+08	8.890371e+11	0.000000e+00	5.979900e-01	4.604341e+13	2.188008e+14	1.255310e+14	5.686026e+03	2.742660e+03	1.530166e+03	0	3.085688e-04
7.900000e+08	8.753328e+11	0.000000e+00	5.979900e-01	4.582237e+13	2.170934e+14	1.249407e+14	5.682637e+03	2.740094e+03	1.528734e+03	0	3.069751e-04
8.000000e+08	8.617972e+11	0.000000e+00	5.979900e-01	4.560390e+13	2.154236e+14	1.243545e+14	5.679263e+03	2.737576e+03	1.527329e+03	0	3.053846e-04
8.100000e+08	8.484262e+11	0.000000e+00	5.979900e-01	4.538794e+13	2.137900e+14	1.237723e+14	5.675906e+03	2.735105e+03	1.525951e+03	0	3.037970e-04
8.200000e+08	8.352158e+11	0.000000e+00	5.979900e-01	4.517443e+13	2.121913e+14	1.231942e+14	5.672565e+03	2.732679e+03	1.524597e+03	0	3.022119e-04
8.300000e+08	8.221622e+11	0.000000e+00	5.979900e-01	4.496332e+13	2.106260e+14	1.226201e+14	5.669239e+03	2.730296e+03	1.523268e+03	0	3.006293e-04
8.400000e+08	8.092618e+11	0.000000e+00	5.979900e-01	4.475455e+13	2.090931e+14	1.220500e+14	5.665929e+03	2.727956e+03	1.521962e+03	0	2.990486e-04
8.500000e+08	7.965109e+11	0.000000e+00	5.979900e-01	4.454807e+13	2.075914e+14	1.214838e+14	5.662634e+03	2.725656e+03	1.520679e+03	0	2.974696e-04
8.600000e+08	7.839063e+11	0.000000e+00	5.979900e-01	4.434382e+13	2.061196e+14	1.209215e+14	5.659355e+03	2.723396e+03	1.519418e+03	0	2.958922e-04
8.700000e+08	7.714446e+11	0.000000e+00	5.979900e-01	4.414176e+13	2.046769e+14	1.203630e+14	5.656090e+03	2.721174e+03	1.518178e+03	0	2.943158e-04
8.800000e+08	7.591225e+11	0.000000e+00	5.979900e-01	4.394184e+13	2.032621e+14	1.198084e+14	5.652841e+03	2.718988e+03	1.516959e+03	0	2.927404e-04
8.900000e+08	7.469372e+11	0.000000e+00	5.979900e-01	4.374402e+13	2.018743e+14	1.192576e+14	5.649606e+03	2.716838e+03	1.515759e+03	0	2.911656e-04
9.000000e+08	7.348854e+11	0.000000e+00	5.979900e-01	4.354824e+13	2.005126e+14	1.187106e+14	5.646385e+03	2.714723e+03	1.514579e+03	0	2.895911e-04
9.100000e+08	7.229645e+11	0.000000e+00	5.979900e-01	4.335446e+13	1.991760e+14	1.181674e+14	5.643179e+03	2.712641e+03	1.513418e+03	0	2.880167e-04
9.200000e+08	7.111717e+11	0.000000e+00	5.979900e-01	4.316265e+13	1.978639e+14	1.176278e+14	5.639988e+03	2.710592e+03	1.512274e+03	0	2.864421e-04
9.300000e+08	6.995042e+11	0.000000e+00	5.979900e-01	4.297277e+13	1.965752e+14	1.170920e+14	5.636810e+03	2.708574e+03	1.511148e+03	0	2.848670e-04
9.400000e+08	6.879595e+11	0.000000e+00	5.979900e-01	4.278477e+13	1.953094e+14	1.165598e+14	5.633646e+03	2.706586e+03	1.510039e+03	0	2.832912e-04
9.500000e+08	6.765350e+11	0.000000e+00	5.979900e-01	4.259862e+13	1.940656e+14	1.160312e+14	5.630496e+03	2.704628e+03	1.508947e+03	0	2.817143e-04
9.600000e+08	6.652284e+11	0.000000e+00	5.979900e-01	4.241428e+13	1.928432e+14	1.155063e+14	5.627360e+03	2.702698e+03	1.507870e+03	0	2.801360e-04
9.700000e+08	6.540372e+11	0.000000e+00	5.979900e-01	4.223171e+13	1.916415e+14	1.149849e+14	5.624237e+03	2.700797e+03	1.506809e+03	0	2.785562e-04
9.800000e+08	6.429593e+11	0.000000e+00	5.979900e-01	4.205089e+13	1.904597e+14	1.144671e+14	5.621128e+03	2.698922e+03	1.505763e+03	0	2.769746e-04
9.900000e+08	6.319924e+11	0.000000e+00	5.979900e-01	4.187177e+13	1.892974e+14	1.139528e+14	5.618032e+03	2.697073e+03	1.504732e+03	0	2.753908e-04
1.000000e+09	6.211344e+11	0.000000e+00	5.979900e-01	4.169433e+13	1.881540e+14	1.134420e+14	5.614949e+03	2.695249e+03	1.503715e+03	0	2.738045e-04
1.010000e+09	6.103832e+11	0.000000e+00	5.979900e-01	4.151854e+13	1.870287e+14	1.129346e+14	5.611880e+03	2.693451e+03	1.502711e+03	0	2.722155e-04
1.020000e+09	5.997368e+11	0.000000e+00	5.979900e-01	4.134436e+13	1.859212e+14	1.124307e+14	5.608823e+03	2.691676e+03	1.501721e+03	0	2.706236e-04
1.030000e+09	5.891932e+11	0.000000e+00	5.979900e-01	4.117177e+13	1.848309e+14	1.119302e+14	5.605779e+03	2.689924e+03	1.500744e+03	0	2.690283e-04
1.040000e+09	5.787507e+11	0.000000e+00	5.979900e-01	4.100073e+13	1.837573e+14	1.114331e+14	5.602748e+03	2.688195e+03	1.499779e+03	0	2.674295e-04
1.050000e+09	5.684072e+11	0.000000e+00	5.979900e-01	4.083123e+13	1.826999e+14	1.109393e+14	5.599729e+03	2.686488e+03	1.498826e+03	0	2.658267e-04
1.060000e+09	5.581611e+11	0.000000e+00	5.979900e-01	4.066322e+13	1.816583e+14	1.104489e+14	5.596723e+03	2.684802e+03	1.497886e+03	0	2.642197e-04
1.070000e+09	5.480107e+11	0.000000e+00	5.979900e-01	4.049670e+13	1.806319e+14	1.099618e+14	5.593729e+03	2.683137e+03	1.496957e+03	0	2.626083e-04
1.080000e+09	5.379542e+11	0.000000e+00	5.979900e-01	4.033162e+13	1.796205e+14	1.094779e+14	5.590747e+03	2.681492e+03	1.496039e+03	0	2.609920e-04
1.090000e+09	5.279900e+11	0.000000e+00	5.979900e-01	4.016798e+13	1.786235e+14	1.089973e+14	5.587777e+03	2.679867e+03	1.495132e+03	0	2.593705e-04
1.100000e+09	5.181166e+11	0.000000e+00	5.979900e-01	4.000573e+13	1.776406e+14	1.085200e+14	5.584820e+03	2.678261e+03	1.494236e+03	0	2.577436e-04
1.110000e+09	5.083324e+11	0.000000e+00	5.979900e-01	3.984487e+13	1.766714e+14	1.080458e+14	5.581874e+03	2.676673e+03	1.493351e+03	0	2.561109e-04
1.120000e+09	4.986359e+11	0.000000e+00	5.979900e-01	3.968536e+13	1.757155e+14	1.075748e+14	5.578941e+03	2.675104e+03	1.492475e+03	0	2.544719e-04
1.130000e+09	4.890256e+11	0.000000e+00	5.979900e-01	3.952719e+13	1.747726e+14	1.071070e+14	5.576019e+03	2.673552e+03	1.491609e+03	0	2.528265e-04
1.140000e+09	4.795002e+11	0.000000e+00	5.979900e-01	3.937034e+13	1.738424e+14	1.066422e+14	5.573108e+03	2.672017e+03	1.490753e+03	0	2.511742e-04
1.150000e+09	4.700582e+11	0.000000e+00	5.979900e-01	3.921477e+13	1.729245e+14	1.061806e+14	5.570209e+03	2.670499e+03	1.489906e+03	0	2.495146e-04
1.160000e+09	4.606983e+11	0.000000e+00	5.979900e-01	3.906048e+13	1.720186e+14	1.057221e+14	5.567322e+03	2.668997e+03	1.489068e+03	0	2.478474e-04
1.170000e+09	4.514193e+11	0.000000e+00	5.979900e-01	3.890745e+13	1.711244e+14	1.052666e+14	5.564446e+03	2.667511e+03	1.488239e+03	0	2.461721e-04
1.180000e+09	4.422198e+11	0.000000e+00	5.979900e-01	3.875564e+13	1.702416e+14	1.048142e+14	5.561581e+03	2.666041e+03	1.487419e+03	0	2.444883e-04
1.190000e+09	4.330985e+11	0.000000e+00	5.979900e-01	3.860505e+13	1.693700e+14	1.043647e+14	5.558728e+03	2.664586e+03	1.486607e+03	0	2.427957e-04
1.200000e+09	4.240544e+11	0.000000e+00	5.979900e-01	3.845566e+13	1.685092e+14	1.039183e+14	5.555885e+03	2.663145e+03	1.485803e+03	0	2.410937e-04
1.210000e+09	4.150861e+11	0.000000e+00	5.979900e-01	3.830745e+13	1.676590e+14	1.034748e+14	5.553053e+03	2.661719e+03	1.485008e+03	0	2.393820e-04
1.220000e+09	4.061926e+11	0.000000e+00	5.979900e-01	3.816040e+13	1.668191e+14	1.030342e+14	5.550233e+03	2.660307e+03	1.484220e+03	0	2.376600e-04
1.230000e+09	3.973728e+11	0.000000e+00	5.979900e-01	3.801450e+13	1.659894e+14	1.025966e+14	5.547423e+03	2.658908e+03	1.483439e+03	0	2.359272e-04
1.240000e+09	3.886255e+11	0.000000e+00	5.979900e-01	3.786972e+13	1.651695e+14	1.021618e+14	5.544624e+03	2.657523e+03	1.482667e+03	0	2.341832e-04
1.250000e+09	3.799497e+11	0.000000e+00	5.979900e-01	3.772606e+13	1.643593e+14	1.017300e+14	5.541835e+03	2.656151e+03	1.481901e+03	0	2.324275e-04
1.260000e+09	3.713443e+11	0.000000e+00	5.979900e-01	3.758349e+13	1.635585e+14	1.013009e+14	5.539057e+03	2.654792e+03	1.481143e+03	0	2.306593e-04
1.270000e+09	3.628083e+11	0.000000e+00	5.979900e-01	3.744200e+13	1.627669e+14	1.008747e+14	5.536290e+03	2.653445e+03	1.480391e+03	0	2.288782e-04
1.280000e+09	3.543408e+11	0.000000e+00	5.979900e-01	3.730158e+13	1.619843e+14	1.004513e+14	5.533533e+03	2.652110e+03	1.479647e+03	0	2.270836e-04
1.290000e+09	3.459408e+11	0.000000e+00	5.979900e-01	3.716221e+13	1.612105e+14	1.000307e+14	5.530786e+03	2.650787e+03	1.478908e+03	0	2.252748e-04
1.300000e+09	3.376073e+11	0.000000e+00	5.979900e-01	3.702388e+13	1.604453e+14	9.961285e+13	5.528050e+03	2.649476e+03	1.478177e+03	0	2.234512e-04
1.310000e+09	3.293394e+11	0.000000e+00	5.979900e-01	3.688657e+13	1.596885e+14	9.919773e+13	5.525323e+03	2.648176e+03	1.477451e+03	0	2.216120e-04
1.320000e+09	3.211362e+11	0.000000e+00	5.979900e-01	3.675027e+13	1.589400e+14	9.878533e+13	5.522607e+03	2.646887e+03	1.476732e+03	0	2.197565e-04
1.330000e+09	3.129968e+11	0.000000e+00	5.979900e-01	3.661496e+13	1.581995e+14	9.837563e+13	5.519901e+03	2.645609e+03	1.476019e+03	0	2.178840e-04
1.340000e+09	3.049204e+11	0.000000e+00	5.979900e-01	3.648064e+13	1.574670e+14	9.796860e+13	5.517205e+03	2.644341e+03	1.475312e+03	0	2.159936e-04
1.350000e+09	2.969061e+11	0.000000e+00	5.979900e-01	3.634729e+13	1.567422e+14	9.756423e+13	5.514519e+03	2.643084e+03	1.474611e+03	0	2.140844e-04
1.360000e+09	2.889531e+11	0.000000e+00	5.979900e-01	3.621490e+13	1.560250e+14	9.716250e+13	5.511842e+03	2.641837e+03	1.473915e+03	0	2.121556e-04
