#t		Qconv[W]	Ri[Rp]		R*[Rp]		Qc[W]		Qm[W]		Qr[W]		Tcmb[K]		Tl[K]		Tup[K]		RiFlag		Bs[T]
0.000000e+00	5.181803e+12	0.000000e+00	6.030150e-01	1.418018e+14	2.795811e+15	2.498062e+14	7.056196e+03	4.522501e+03	2.319288e+03	0	5.423070e-04
1.000000e+07	5.109688e+12	0.000000e+00	6.030150e-01	1.408602e+14	2.505878e+15	2.484221e+14	7.049261e+03	4.426795e+03	2.270206e+03	0	5.397795e-04
2.000000e+07	5.012856e+12	0.000000e+00	6.030150e-01	1.396232e+14	2.265514e+15	2.470483e+14	7.042373e+03	4.342182e+03	2.226815e+03	0	5.363480e-04
3.000000e+07	4.900855e+12	0.000000e+00	6.030150e-01	1.382054e+14	2.063860e+15	2.456848e+14	7.035544e+03	4.266799e+03	2.188155e+03	0	5.323233e-04
4.000000e+07	4.780026e+12	0.000000e+00	6.030150e-01	1.366826e+14	1.892869e+15	2.443315e+14	7.028784e+03	4.199176e+03	2.153476e+03	0	5.279121e-04
5.000000e+07	4.654611e+12	0.000000e+00	6.030150e-01	1.351058e+14	1.746482e+15	2.429883e+14	7.022099e+03	4.138147e+03	2.122179e+03	0	5.232542e-04
6.000000e+07	4.527463e+12	0.000000e+00	6.030150e-01	1.335092e+14	1.620070e+15	2.416551e+14	7.015490e+03	4.082768e+03	2.093779e+03	0	5.184456e-04
7.000000e+07	4.400494e+12	0.000000e+00	6.030150e-01	1.319155e+14	1.510051e+15	2.403318e+14	7.008959e+03	4.032272e+03	2.067882e+03	0	5.135531e-04
8.000000e+07	4.274983e+12	0.000000e+00	6.030150e-01	1.303402e+14	1.413617e+15	2.390184e+14	7.002506e+03	3.986026e+03	2.044166e+03	0	5.086234e-04
9.000000e+07	4.151771e+12	0.000000e+00	6.030150e-01	1.287933e+14	1.328544e+15	2.377147e+14	6.996130e+03	3.943503e+03	2.022358e+03	0	5.036893e-04
1.000000e+08	4.031395e+12	0.000000e+00	6.030150e-01	1.272811e+14	1.253048e+15	2.364207e+14	6.989829e+03	3.904261e+03	2.002234e+03	0	4.987735e-04
1.100000e+08	3.914184e+12	0.000000e+00	6.030150e-01	1.258077e+14	1.185687e+15	2.351363e+14	6.983602e+03	3.867930e+03	1.983602e+03	0	4.938920e-04
1.200000e+08	3.800318e+12	0.000000e+00	6.030150e-01	1.243752e+14	1.125285e+15	2.338615e+14	6.977447e+03	3.834190e+03	1.966299e+03	0	4.890556e-04
1.300000e+08	3.689876e+12	0.000000e+00	6.030150e-01	1.229844e+14	1.070875e+15	2.325960e+14	6.971362e+03	3.802769e+03	1.950186e+03	0	4.842714e-04
1.400000e+08	3.582867e+12	0.000000e+00	6.030150e-01	1.216355e+14	1.021653e+15	2.313400e+14	6.965345e+03	3.773434e+03	1.935141e+03	0	4.795440e-04
1.500000e+08	3.479251e+12	0.000000e+00	6.030150e-01	1.203279e+14	9.769484e+14	2.300932e+14	6.959393e+03	3.745980e+03	1.921062e+03	0	4.748759e-04
1.600000e+08	3.378953e+12	0.000000e+00	6.030150e-01	1.190608e+14	9.361987e+14	2.288556e+14	6.953505e+03	3.720230e+03	1.907857e+03	0	4.702682e-04
1.700000e+08	3.281880e+12	0.000000e+00	6.030150e-01	1.178330e+14	8.989267e+14	2.276272e+14	6.947680e+03	3.696029e+03	1.895446e+03	0	4.657210e-04
1.800000e+08	3.187923e+12	0.000000e+00	6.030150e-01	1.166431e+14	8.647270e+14	2.264078e+14	6.941914e+03	3.673240e+03	1.883759e+03	0	4.612335e-04
1.900000e+08	3.096965e+12	0.000000e+00	6.030150e-01	1.154898e+14	8.332526e+14	2.251974e+14	6.936206e+03	3.651742e+03	1.872734e+03	0	4.568045e-04
2.000000e+08	3.008887e+12	0.000000e+00	6.030150e-01	1.143716e+14	8.042052e+14	2.239959e+14	6.930554e+03	3.631427e+03	1.862316e+03	0	4.524322e-04
2.100000e+08	2.923567e+12	0.000000e+00	6.030150e-01	1.132871e+14	7.773270e+14	2.228033e+14	6.924958e+03	3.612201e+03	1.852456e+03	0	4.481148e-04
2.200000e+08	2.840886e+12	0.000000e+00	6.030150e-01	1.122347e+14	7.523945e+14	2.216194e+14	6.919414e+03	3.593978e+03	1.843110e+03	0	4.438499e-04
2.300000e+08	2.760727e+12	0.000000e+00	6.030150e-01	1.112131e+14	7.292127e+14	2.204441e+14	6.913921e+03	3.576680e+03	1.834240e+03	0	4.396355e-04
2.400000e+08	2.682976e+12	0.000000e+00	6.030150e-01	1.102209e+14	7.076110e+14	2.192776e+14	6.908479e+03	3.560240e+03	1.825809e+03	0	4.354689e-04
2.500000e+08	2.607524e+12	0.000000e+00	6.030150e-01	1.092568e+14	6.874397e+14	2.181195e+14	6.903084e+03	3.544595e+03	1.817785e+03	0	4.313479e-04
2.600000e+08	2.534266e+12	0.000000e+00	6.030150e-01	1.083194e+14	6.685667e+14	2.169699e+14	6.897737e+03	3.529688e+03	1.810141e+03	0	4.272699e-04
2.700000e+08	2.463101e+12	0.000000e+00	6.030150e-01	1.074076e+14	6.508751e+14	2.158288e+14	6.892436e+03	3.515468e+03	1.802848e+03	0	4.232324e-04
2.800000e+08	2.393934e+12	0.000000e+00	6.030150e-01	1.065203e+14	6.342614e+14	2.146959e+14	6.887179e+03	3.501890e+03	1.795885e+03	0	4.192331e-04
2.900000e+08	2.326674e+12	0.000000e+00	6.030150e-01	1.056562e+14	6.186334e+14	2.135714e+14	6.881966e+03	3.488910e+03	1.789228e+03	0	4.152695e-04
3.000000e+08	2.261234e+12	0.000000e+00	6.030150e-01	1.048145e+14	6.039085e+14	2.124550e+14	6.876795e+03	3.476490e+03	1.782859e+03	0	4.113392e-04
3.100000e+08	2.197534e+12	0.000000e+00	6.030150e-01	1.039940e+14	5.900132e+14	2.113468e+14	6.871665e+03	3.464594e+03	1.776758e+03	0	4.074398e-04
3.200000e+08	2.135495e+12	0.000000e+00	6.030150e-01	1.031938e+14	5.768813e+14	2.102466e+14	6.866575e+03	3.453190e+03	1.770910e+03	0	4.035689e-04
3.300000e+08	2.075044e+12	0.000000e+00	6.030150e-01	1.024131e+14	5.644532e+14	2.091544e+14	6.861524e+03	3.442248e+03	1.765299e+03	0	3.997244e-04
3.400000e+08	2.016112e+12	0.000000e+00	6.030150e-01	1.016510e+14	5.526752e+14	2.080702e+14	6.856511e+03	3.431740e+03	1.759910e+03	0	3.959039e-04
3.500000e+08	1.958632e+12	0.000000e+00	6.030150e-01	1.009068e+14	5.414989e+14	2.069938e+14	6.851536e+03	3.421642e+03	1.754731e+03	0	3.921052e-04
3.600000e+08	1.902544e+12	0.000000e+00	6.030150e-01	1.001796e+14	5.308801e+14	2.059252e+14	6.846597e+03	3.411928e+03	1.749749e+03	0	3.883260e-04
3.700000e+08	1.847787e+12	0.000000e+00	6.030150e-01	9.946868e+13	5.207791e+14	2.048644e+14	6.841693e+03	3.402578e+03	1.744955e+03	0	3.845642e-04
3.800000e+08	1.794307e+12	0.000000e+00	6.030150e-01	9.877348e+13	5.111594e+14	2.038112e+14	6.836824e+03	3.393572e+03	1.740336e+03	0	3.808177e-04
3.900000e+08	1.742050e+12	0.000000e+00	6.030150e-01	9.809330e+13	5.019880e+14	2.027657e+14	6.831989e+03	3.384890e+03	1.735884e+03	0	3.770843e-04
4.000000e+08	1.690966e+12	0.000000e+00	6.030150e-01	9.742755e+13	4.932346e+14	2.017277e+14	6.827188e+03	3.376516e+03	1.731589e+03	0	3.733618e-04
4.100000e+08	1.641009e+12	0.000000e+00	6.030150e-01	9.677564e+13	4.848714e+14	2.006972e+14	6.822419e+03	3.368433e+03	1.727444e+03	0	3.696482e-04
4.200000e+08	1.592133e+12	0.000000e+00	6.030150e-01	9.613705e+13	4.768733e+14	1.996741e+14	6.817681e+03	3.360625e+03	1.723440e+03	0	3.659412e-04
4.300000e+08	1.544296e+12	0.000000e+00	6.030150e-01	9.551124e+13	4.692168e+14	1.986584e+14	6.812975e+03	3.353080e+03	1.719570e+03	0	3.622389e-04
4.400000e+08	1.497458e+12	0.000000e+00	6.030150e-01	9.489773e+13	4.618806e+14	1.976500e+14	6.808300e+03	3.345783e+03	1.715828e+03	0	3.585391e-04
4.500000e+08	1.451581e+12	0.000000e+00	6.030150e-01	9.429606e+13	4.548450e+14	1.966488e+14	6.803654e+03	3.338722e+03	1.712207e+03	0	3.548395e-04
4.600000e+08	1.406628e+12	0.000000e+00	6.030150e-01	9.370578e+13	4.480917e+14	1.956549e+14	6.799038e+03	3.331887e+03	1.708702e+03	0	3.511381e-04
4.700000e+08	1.362564e+12	0.000000e+00	6.030150e-01	9.312648e+13	4.416041e+14	1.946680e+14	6.794451e+03	3.325265e+03	1.705306e+03	0	3.474326e-04
4.800000e+08	1.319358e+12	0.000000e+00	6.030150e-01	9.255777e+13	4.353665e+14	1.936883e+14	6.789892e+03	3.318847e+03	1.702014e+03	0	3.437208e-04
4.900000e+08	1.276978e+12	0.000000e+00	6.030150e-01	9.199925e+13	4.293646e+14	1.927155e+14	6.785361e+03	3.312623e+03	1.698822e+03	0	3.400004e-04
5.000000e+08	1.235395e+12	0.000000e+00	6.030150e-01	9.145058e+13	4.235851e+14	1.917497e+14	6.780857e+03	3.306584e+03	1.695725e+03	0	3.362690e-04
5.100000e+08	1.194579e+12	0.000000e+00	6.030150e-01	9.091141e+13	4.180156e+14	1.907908e+14	6.776380e+03	3.300722e+03	1.692719e+03	0	3.325242e-04
5.200000e+08	1.154506e+12	0.000000e+00	6.030150e-01	9.038141e+13	4.126445e+14	1.898387e+14	6.771929e+03	3.295028e+03	1.689799e+03	0	3.287635e-04
5.300000e+08	1.115149e+12	0.000000e+00	6.030150e-01	8.986028e+13	4.074612e+14	1.888935e+14	6.767505e+03	3.289496e+03	1.686962e+03	0	3.249844e-04
5.400000e+08	1.076483e+12	0.000000e+00	6.030150e-01	8.934773e+13	4.024557e+14	1.879549e+14	6.763105e+03	3.284118e+03	1.684204e+03	0	3.211841e-04
5.500000e+08	1.038487e+12	0.000000e+00	6.030150e-01	8.884345e+13	3.976187e+14	1.870231e+14	6.758731e+03	3.278888e+03	1.681522e+03	0	3.173598e-04
5.600000e+08	1.001137e+12	0.000000e+00	6.030150e-01	8.834720e+13	3.929416e+14	1.860979e+14	6.754382e+03	3.273798e+03	1.678912e+03	0	3.135086e-04
5.700000e+08	9.644127e+11	0.000000e+00	6.030150e-01	8.785872e+13	3.884161e+14	1.851792e+14	6.750056e+03	3.268844e+03	1.676371e+03	0	3.096273e-04
5.800000e+08	9.282940e+11	0.000000e+00	6.030150e-01	8.737775e+13	3.840347e+14	1.842670e+14	6.745755e+03	3.264019e+03	1.673897e+03	0	3.057127e-04
5.900000e+08	8.927617e+11	0.000000e+00	6.030150e-01	8.690406e+13	3.797903e+14	1.833614e+14	6.741477e+03	3.259318e+03	1.671486e+03	0	3.017612e-04
6.000000e+08	8.577974e+11	0.000000e+00	6.030150e-01	8.643744e+13	3.756763e+14	1.824621e+14	6.737222e+03	3.254736e+03	1.669136e+03	0	2.977692e-04
6.100000e+08	8.233836e+11	0.000000e+00	6.030150e-01	8.597766e+13	3.716863e+14	1.815692e+14	6.732990e+03	3.250268e+03	1.666845e+03	0	2.937327e-04
6.200000e+08	7.895035e+11	0.000000e+00	6.030150e-01	8.552453e+13	3.678146e+14	1.806826e+14	6.728781e+03	3.245910e+03	1.664610e+03	0	2.896474e-04
6.300000e+08	7.561411e+11	0.000000e+00	6.030150e-01	8.507784e+13	3.640555e+14	1.798023e+14	6.724593e+03	3.241657e+03	1.662429e+03	0	2.855086e-04
6.400000e+08	7.232811e+11	0.000000e+00	6.030150e-01	8.463741e+13	3.604040e+14	1.789281e+14	6.720428e+03	3.237505e+03	1.660300e+03	0	2.813114e-04
6.500000e+08	6.909086e+11	0.000000e+00	6.030150e-01	8.420307e+13	3.568551e+14	1.780602e+14	6.716284e+03	3.233451e+03	1.658220e+03	0	2.770502e-04
6.600000e+08	6.590098e+11	0.000000e+00	6.030150e-01	8.377463e+13	3.534042e+14	1.771983e+14	6.712161e+03	3.229489e+03	1.656189e+03	0	2.727191e-04
6.700000e+08	6.275710e+11	0.000000e+00	6.030150e-01	8.335193e+13	3.500471e+14	1.763425e+14	6.708059e+03	3.225618e+03	1.654203e+03	0	2.683114e-04
6.800000e+08	5.965793e+11	0.000000e+00	6.030150e-01	8.293482e+13	3.467795e+14	1.754927e+14	6.703978e+03	3.221833e+03	1.652262e+03	0	2.638199e-04
6.900000e+08	5.660222e+11	0.000000e+00	6.030150e-01	8.252315e+13	3.435977e+14	1.746489e+14	6.699918e+03	3.218131e+03	1.650364e+03	0	2.592364e-04
7.000000e+08	5.358880e+11	0.000000e+00	6.030150e-01	8.211676e+13	3.404979e+14	1.738110e+14	6.695877e+03	3.214510e+03	1.648507e+03	0	2.545518e-04
7.100000e+08	5.061651e+11	0.000000e+00	6.030150e-01	8.171552e+13	3.374768e+14	1.729789e+14	6.691856e+03	3.210965e+03	1.646689e+03	0	2.497558e-04
7.200000e+08	4.768426e+11	0.000000e+00	6.030150e-01	8.131930e+13	3.345311e+14	1.721527e+14	6.687855e+03	3.207495e+03	1.644909e+03	0	2.448367e-04
7.300000e+08	4.479099e+11	0.000000e+00	6.030150e-01	8.092796e+13	3.316577e+14	1.713322e+14	6.683874e+03	3.204097e+03	1.643167e+03	0	2.397812e-04
7.400000e+08	4.193568e+11	0.000000e+00	6.030150e-01	8.054138e+13	3.288537e+14	1.705175e+14	6.679911e+03	3.200768e+03	1.641459e+03	0	2.345738e-04
7.500000e+08	3.911736e+11	0.000000e+00	6.030150e-01	8.015944e+13	3.261162e+14	1.697084e+14	6.675967e+03	3.197505e+03	1.639786e+03	0	2.291966e-04
7.600000e+08	3.633509e+11	0.000000e+00	6.030150e-01	7.978203e+13	3.234427e+14	1.689050e+14	6.672042e+03	3.194307e+03	1.638146e+03	0	2.236284e-04
7.700000e+08	3.358798e+11	0.000000e+00	6.030150e-01	7.940904e+13	3.208307e+14	1.681072e+14	6.668136e+03	3.191172e+03	1.636538e+03	0	2.178443e-04
7.800000e+08	3.087514e+11	0.000000e+00	6.030150e-01	7.904035e+13	3.182778e+14	1.673149e+14	6.664247e+03	3.188096e+03	1.634961e+03	0	2.118139e-04
7.900000e+08	2.819574e+11	0.000000e+00	6.030150e-01	7.867587e+13	3.157817e+14	1.665281e+14	6.660377e+03	3.185078e+03	1.633413e+03	0	2.055004e-04
8.000000e+08	2.554898e+11	0.000000e+00	6.030150e-01	7.831550e+13	3.133404e+14	1.657468e+14	6.656525e+03	3.182117e+03	1.631894e+03	0	1.988579e-04
8.100000e+08	2.293408e+11	0.000000e+00	6.030150e-01	7.795914e+13	3.109517e+14	1.649709e+14	6.652690e+03	3.179209e+03	1.630403e+03	0	1.918280e-04
8.200000e+08	2.035028e+11	0.000000e+00	6.030150e-01	7.760671e+13	3.086137e+14	1.642004e+14	6.648872e+03	3.176354e+03	1.628939e+03	0	1.843352e-04
8.300000e+08	1.779687e+11	0.000000e+00	6.030150e-01	7.725810e+13	3.063246e+14	1.634352e+14	6.645072e+03	3.173549e+03	1.627501e+03	0	1.762786e-04
8.400000e+08	1.527315e+11	0.000000e+00	6.030150e-01	7.691324e+13	3.040827e+14	1.626752e+14	6.641289e+03	3.170794e+03	1.626088e+03	0	1.675179e-04
8.500000e+08	1.277845e+11	0.000000e+00	6.030150e-01	7.657205e+13	3.018862e+14	1.619206e+14	6.637523e+03	3.168086e+03	1.624699e+03	0	1.578499e-04
8.600000e+08	1.031211e+11	0.000000e+00	6.030150e-01	7.623443e+13	2.997336e+14	1.611711e+14	6.633773e+03	3.165424e+03	1.623334e+03	0	1.469606e-04
8.700000e+08	7.873515e+10	0.000000e+00	6.030150e-01	7.590033e+13	2.976233e+14	1.604268e+14	6.630040e+03	3.162806e+03	1.621991e+03	0	1.343201e-04
8.800000e+08	5.462049e+10	0.000000e+00	6.030150e-01	7.556966e+13	2.955539e+14	1.596876e+14	6.626323e+03	3.160231e+03	1.620671e+03	0	1.189059e-04
8.900000e+08	3.077130e+10	0.000000e+00	6.030150e-01	7.524235e+13	2.935240e+14	1.589534e+14	6.622623e+03	3.157698e+03	1.619372e+03	0	9.820498e-05
9.000000e+08	7.181925e+09	0.000000e+00	6.030150e-01	7.491833e+13	2.915323e+14	1.582244e+14	6.618938e+03	3.155206e+03	1.618094e+03	0	6.046423e-05
9.100000e+08	-1.615312e+10	0.000000e+00	6.030150e-01	7.459753e+13	2.895775e+14	1.575003e+14	6.615270e+03	3.152752e+03	1.616835e+03	0	nan
