#t		Qconv[W]	Ri[Rp]		R*[Rp]		Qc[W]		Qm[W]		Qr[W]		Tcmb[K]		Tl[K]		Tup[K]		RiFlag		Bs[T]
0.000000e+00	6.158908e+12	0.000000e+00	5.979899e-01	1.814334e+14	3.061727e+15	2.837031e+14	7.696000e+03	4.845656e+03	2.367097e+03	0	5.746751e-04
1.000000e+07	6.040693e+12	0.000000e+00	5.979899e-01	1.799871e+14	2.767677e+15	2.821312e+14	7.688278e+03	4.752402e+03	2.321543e+03	0	5.709745e-04
2.000000e+07	5.899403e+12	0.000000e+00	5.979899e-01	1.782812e+14	2.520844e+15	2.805710e+14	7.680617e+03	4.669297e+03	2.280946e+03	0	5.664877e-04
3.000000e+07	5.744141e+12	0.000000e+00	5.979899e-01	1.764188e+14	2.311455e+15	2.790225e+14	7.673029e+03	4.594732e+03	2.244521e+03	0	5.614738e-04
4.000000e+07	5.581053e+12	0.000000e+00	5.979899e-01	1.744692e+14	2.132139e+15	2.774855e+14	7.665519e+03	4.527424e+03	2.211641e+03	0	5.561089e-04
5.000000e+07	5.414312e+12	0.000000e+00	5.979899e-01	1.724795e+14	1.977255e+15	2.759601e+14	7.658092e+03	4.466338e+03	2.181800e+03	0	5.505146e-04
6.000000e+07	5.246753e+12	0.000000e+00	5.979899e-01	1.704819e+14	1.842434e+15	2.744459e+14	7.650750e+03	4.410628e+03	2.154586e+03	0	5.447761e-04
7.000000e+07	5.080301e+12	0.000000e+00	5.979899e-01	1.684980e+14	1.724246e+15	2.729431e+14	7.643492e+03	4.359598e+03	2.129658e+03	0	5.389531e-04
8.000000e+07	4.916247e+12	0.000000e+00	5.979899e-01	1.665423e+14	1.619971e+15	2.714515e+14	7.636319e+03	4.312671e+03	2.106734e+03	0	5.330882e-04
9.000000e+07	4.755443e+12	0.000000e+00	5.979899e-01	1.646246e+14	1.527429e+15	2.699709e+14	7.629229e+03	4.269358e+03	2.085576e+03	0	5.272114e-04
1.000000e+08	4.598431e+12	0.000000e+00	5.979899e-01	1.627508e+14	1.444856e+15	2.685013e+14	7.622220e+03	4.229251e+03	2.065984e+03	0	5.213440e-04
1.100000e+08	4.445538e+12	0.000000e+00	5.979899e-01	1.609247e+14	1.370811e+15	2.670426e+14	7.615290e+03	4.191999e+03	2.047786e+03	0	5.155007e-04
1.200000e+08	4.296936e+12	0.000000e+00	5.979899e-01	1.591481e+14	1.304110e+15	2.655948e+14	7.608438e+03	4.157303e+03	2.030837e+03	0	5.096915e-04
1.300000e+08	4.152691e+12	0.000000e+00	5.979899e-01	1.574218e+14	1.243768e+15	2.641576e+14	7.601662e+03	4.124904e+03	2.015010e+03	0	5.039232e-04
1.400000e+08	4.012795e+12	0.000000e+00	5.979899e-01	1.557456e+14	1.188966e+15	2.627311e+14	7.594959e+03	4.094578e+03	2.000196e+03	0	4.981997e-04
1.500000e+08	3.877185e+12	0.000000e+00	5.979899e-01	1.541188e+14	1.139011e+15	2.613152e+14	7.588327e+03	4.066130e+03	1.986299e+03	0	4.925231e-04
1.600000e+08	3.745764e+12	0.000000e+00	5.979899e-01	1.525403e+14	1.093320e+15	2.599097e+14	7.581764e+03	4.039388e+03	1.973236e+03	0	4.868942e-04
1.700000e+08	3.618412e+12	0.000000e+00	5.979899e-01	1.510087e+14	1.051396e+15	2.585146e+14	7.575268e+03	4.014203e+03	1.960933e+03	0	4.813125e-04
1.800000e+08	3.494995e+12	0.000000e+00	5.979899e-01	1.495225e+14	1.012813e+15	2.571297e+14	7.568838e+03	3.990440e+03	1.949325e+03	0	4.757768e-04
1.900000e+08	3.375367e+12	0.000000e+00	5.979899e-01	1.480799e+14	9.772063e+14	2.557551e+14	7.562470e+03	3.967981e+03	1.938354e+03	0	4.702854e-04
2.000000e+08	3.259383e+12	0.000000e+00	5.979899e-01	1.466794e+14	9.442593e+14	2.543905e+14	7.556164e+03	3.946722e+03	1.927969e+03	0	4.648358e-04
2.100000e+08	3.146894e+12	0.000000e+00	5.979899e-01	1.453191e+14	9.136979e+14	2.530361e+14	7.549917e+03	3.926568e+03	1.918124e+03	0	4.594256e-04
2.200000e+08	3.037753e+12	0.000000e+00	5.979899e-01	1.439975e+14	8.852832e+14	2.516915e+14	7.543728e+03	3.907435e+03	1.908777e+03	0	4.540517e-04
2.300000e+08	2.931816e+12	0.000000e+00	5.979899e-01	1.427128e+14	8.588059e+14	2.503568e+14	7.537596e+03	3.889247e+03	1.899892e+03	0	4.487110e-04
2.400000e+08	2.828945e+12	0.000000e+00	5.979899e-01	1.414635e+14	8.340825e+14	2.490319e+14	7.531517e+03	3.871934e+03	1.891435e+03	0	4.434003e-04
2.500000e+08	2.729005e+12	0.000000e+00	5.979899e-01	1.402481e+14	8.109509e+14	2.477168e+14	7.525492e+03	3.855436e+03	1.883376e+03	0	4.381161e-04
2.600000e+08	2.631866e+12	0.000000e+00	5.979899e-01	1.390650e+14	7.892680e+14	2.464112e+14	7.519519e+03	3.839696e+03	1.875687e+03	0	4.328549e-04
2.700000e+08	2.537405e+12	0.000000e+00	5.979899e-01	1.379129e+14	7.689067e+14	2.451152e+14	7.513596e+03	3.824663e+03	1.868343e+03	0	4.276132e-04
2.800000e+08	2.445505e+12	0.000000e+00	5.979899e-01	1.367904e+14	7.497540e+14	2.438286e+14	7.507722e+03	3.810289e+03	1.861321e+03	0	4.223871e-04
2.900000e+08	2.356052e+12	0.000000e+00	5.979899e-01	1.356963e+14	7.317087e+14	2.425515e+14	7.501895e+03	3.796533e+03	1.854602e+03	0	4.171729e-04
3.000000e+08	2.268940e+12	0.000000e+00	5.979899e-01	1.346292e+14	7.146806e+14	2.412836e+14	7.496116e+03	3.783355e+03	1.848164e+03	0	4.119667e-04
3.100000e+08	2.184067e+12	0.000000e+00	5.979899e-01	1.335880e+14	6.985885e+14	2.400250e+14	7.490381e+03	3.770720e+03	1.841992e+03	0	4.067646e-04
3.200000e+08	2.101337e+12	0.000000e+00	5.979899e-01	1.325716e+14	6.833594e+14	2.387755e+14	7.484691e+03	3.758594e+03	1.836069e+03	0	4.015624e-04
3.300000e+08	2.020658e+12	0.000000e+00	5.979899e-01	1.315791e+14	6.689275e+14	2.375352e+14	7.479044e+03	3.746948e+03	1.830379e+03	0	3.963560e-04
3.400000e+08	1.941944e+12	0.000000e+00	5.979899e-01	1.306093e+14	6.552333e+14	2.363038e+14	7.473439e+03	3.735752e+03	1.824910e+03	0	3.911410e-04
3.500000e+08	1.865112e+12	0.000000e+00	5.979899e-01	1.296614e+14	6.422229e+14	2.350814e+14	7.467875e+03	3.724982e+03	1.819649e+03	0	3.859130e-04
3.600000e+08	1.790085e+12	0.000000e+00	5.979899e-01	1.287344e+14	6.298473e+14	2.338678e+14	7.462352e+03	3.714614e+03	1.814584e+03	0	3.806674e-04
3.700000e+08	1.716789e+12	0.000000e+00	5.979899e-01	1.278275e+14	6.180619e+14	2.326630e+14	7.456868e+03	3.704624e+03	1.809704e+03	0	3.753993e-04
3.800000e+08	1.645153e+12	0.000000e+00	5.979899e-01	1.269399e+14	6.068262e+14	2.314670e+14	7.451423e+03	3.694993e+03	1.804999e+03	0	3.701035e-04
3.900000e+08	1.575111e+12	0.000000e+00	5.979899e-01	1.260709e+14	5.961031e+14	2.302795e+14	7.446015e+03	3.685701e+03	1.800460e+03	0	3.647748e-04
4.000000e+08	1.506601e+12	0.000000e+00	5.979899e-01	1.252196e+14	5.858587e+14	2.291007e+14	7.440645e+03	3.676731e+03	1.796078e+03	0	3.594075e-04
4.100000e+08	1.439561e+12	0.000000e+00	5.979899e-01	1.243855e+14	5.760618e+14	2.279304e+14	7.435311e+03	3.668066e+03	1.791845e+03	0	3.539956e-04
4.200000e+08	1.373937e+12	0.000000e+00	5.979899e-01	1.235679e+14	5.666840e+14	2.267685e+14	7.430012e+03	3.659689e+03	1.787754e+03	0	3.485326e-04
4.300000e+08	1.309674e+12	0.000000e+00	5.979899e-01	1.227661e+14	5.576990e+14	2.256149e+14	7.424747e+03	3.651588e+03	1.783796e+03	0	3.430116e-04
4.400000e+08	1.246720e+12	0.000000e+00	5.979899e-01	1.219797e+14	5.490826e+14	2.244697e+14	7.419517e+03	3.643748e+03	1.779966e+03	0	3.374252e-04
4.500000e+08	1.185028e+12	0.000000e+00	5.979899e-01	1.212079e+14	5.408126e+14	2.233327e+14	7.414321e+03	3.636156e+03	1.776258e+03	0	3.317651e-04
4.600000e+08	1.124551e+12	0.000000e+00	5.979899e-01	1.204503e+14	5.328683e+14	2.222038e+14	7.409157e+03	3.628801e+03	1.772665e+03	0	3.260224e-04
4.700000e+08	1.065245e+12	0.000000e+00	5.979899e-01	1.197065e+14	5.252308e+14	2.210831e+14	7.404025e+03	3.621670e+03	1.769181e+03	0	3.201874e-04
4.800000e+08	1.007068e+12	0.000000e+00	5.979899e-01	1.189758e+14	5.178824e+14	2.199704e+14	7.398926e+03	3.614755e+03	1.765803e+03	0	3.142491e-04
4.900000e+08	9.499808e+11	0.000000e+00	5.979899e-01	1.182578e+14	5.108068e+14	2.188656e+14	7.393857e+03	3.608045e+03	1.762525e+03	0	3.081953e-04
5.000000e+08	8.939456e+11	0.000000e+00	5.979899e-01	1.175522e+14	5.039888e+14	2.177688e+14	7.388818e+03	3.601530e+03	1.759343e+03	0	3.020124e-04
5.100000e+08	8.389262e+11	0.000000e+00	5.979899e-01	1.168585e+14	4.974143e+14	2.166797e+14	7.383810e+03	3.595202e+03	1.756251e+03	0	2.956848e-04
5.200000e+08	7.848882e+11	0.000000e+00	5.979899e-01	1.161763e+14	4.910702e+14	2.155985e+14	7.378831e+03	3.589052e+03	1.753247e+03	0	2.891947e-04
5.300000e+08	7.317989e+11	0.000000e+00	5.979899e-01	1.155052e+14	4.849442e+14	2.145250e+14	7.373882e+03	3.583073e+03	1.750327e+03	0	2.825216e-04
5.400000e+08	6.796271e+11	0.000000e+00	5.979899e-01	1.148449e+14	4.790250e+14	2.134591e+14	7.368960e+03	3.577257e+03	1.747486e+03	0	2.756415e-04
5.500000e+08	6.283428e+11	0.000000e+00	5.979899e-01	1.141950e+14	4.733018e+14	2.124008e+14	7.364067e+03	3.571597e+03	1.744721e+03	0	2.685262e-04
5.600000e+08	5.779177e+11	0.000000e+00	5.979899e-01	1.135552e+14	4.677649e+14	2.113500e+14	7.359202e+03	3.566088e+03	1.742029e+03	0	2.611418e-04
5.700000e+08	5.283246e+11	0.000000e+00	5.979899e-01	1.129252e+14	4.624048e+14	2.103067e+14	7.354364e+03	3.560721e+03	1.739408e+03	0	2.534475e-04
5.800000e+08	4.795374e+11	0.000000e+00	5.979899e-01	1.123047e+14	4.572128e+14	2.092708e+14	7.349552e+03	3.555492e+03	1.736853e+03	0	2.453929e-04
5.900000e+08	4.315314e+11	0.000000e+00	5.979899e-01	1.116933e+14	4.521808e+14	2.082422e+14	7.344767e+03	3.550395e+03	1.734364e+03	0	2.369147e-04
6.000000e+08	3.842827e+11	0.000000e+00	5.979899e-01	1.110909e+14	4.473011e+14	2.072209e+14	7.340008e+03	3.545425e+03	1.731936e+03	0	2.279317e-04
6.100000e+08	3.377686e+11	0.000000e+00	5.979899e-01	1.104972e+14	4.425665e+14	2.062068e+14	7.335275e+03	3.540576e+03	1.729567e+03	0	2.183371e-04
6.200000e+08	2.919674e+11	0.000000e+00	5.979899e-01	1.099119e+14	4.379702e+14	2.051999e+14	7.330566e+03	3.535844e+03	1.727255e+03	0	2.079853e-04
6.300000e+08	2.468581e+11	0.000000e+00	5.979899e-01	1.093347e+14	4.335060e+14	2.042001e+14	7.325883e+03	3.531224e+03	1.724998e+03	0	1.966695e-04
6.400000e+08	2.024208e+11	0.000000e+00	5.979899e-01	1.087655e+14	4.291677e+14	2.032074e+14	7.321225e+03	3.526711e+03	1.722794e+03	0	1.840798e-04
6.500000e+08	1.586364e+11	0.000000e+00	5.979899e-01	1.082040e+14	4.249498e+14	2.022216e+14	7.316590e+03	3.522303e+03	1.720641e+03	0	1.697157e-04
6.600000e+08	1.154865e+11	0.000000e+00	5.979899e-01	1.076500e+14	4.208469e+14	2.012428e+14	7.311979e+03	3.517994e+03	1.718536e+03	0	1.526739e-04
6.700000e+08	7.295337e+10	0.000000e+00	5.979899e-01	1.071033e+14	4.168541e+14	2.002709e+14	7.307392e+03	3.513782e+03	1.716478e+03	0	1.309995e-04
6.800000e+08	3.102021e+10	0.000000e+00	5.979899e-01	1.065637e+14	4.129666e+14	1.993058e+14	7.302829e+03	3.509661e+03	1.714465e+03	0	9.850751e-05
6.900000e+08	-1.032926e+10	0.000000e+00	5.979899e-01	1.060311e+14	4.091799e+14	1.983475e+14	7.298288e+03	3.505630e+03	1.712496e+03	0	nan
