#t		Qconv[W]	Ri[Rp]		R*[Rp]		Qc[W]		Qm[W]		Qr[W]		Tcmb[K]		Tl[K]		Tup[K]		RiFlag		Bs[T]
0.000000e+00	2.928724e+14	0.000000e+00	6.825395e-01	3.448499e+15	5.750652e+13	1.646541e+14	1.642709e+04	4.298543e+03	2.614101e+03	0	2.021225e-03
1.000000e+07	2.858511e+14	0.000000e+00	6.825395e-01	3.367813e+15	8.005646e+13	1.637418e+14	1.625308e+04	4.510137e+03	2.742780e+03	0	2.004942e-03
2.000000e+07	2.786415e+14	0.000000e+00	6.825395e-01	3.285042e+15	1.078357e+14	1.628363e+14	1.608309e+04	4.715361e+03	2.867584e+03	0	1.987942e-03
3.000000e+07	2.712801e+14	0.000000e+00	6.825395e-01	3.200598e+15	1.411112e+14	1.619376e+14	1.591722e+04	4.913769e+03	2.988243e+03	0	1.970280e-03
4.000000e+07	2.638045e+14	0.000000e+00	6.825395e-01	3.114905e+15	1.799812e+14	1.610456e+14	1.575556e+04	5.104930e+03	3.104495e+03	0	1.952013e-03
5.000000e+07	2.562527e+14	0.000000e+00	6.825395e-01	3.028392e+15	2.243631e+14	1.601603e+14	1.559818e+04	5.288437e+03	3.216092e+03	0	1.933205e-03
6.000000e+07	2.486628e+14	0.000000e+00	6.825395e-01	2.941489e+15	2.739928e+14	1.592815e+14	1.544511e+04	5.463920e+03	3.322810e+03	0	1.913927e-03
7.000000e+07	2.410725e+14	0.000000e+00	6.825395e-01	2.854620e+15	3.284333e+14	1.584093e+14	1.529638e+04	5.631055e+03	3.424451e+03	0	1.894252e-03
8.000000e+07	2.335182e+14	0.000000e+00	6.825395e-01	2.768197e+15	3.870940e+14	1.575436e+14	1.515200e+04	5.789574e+03	3.520852e+03	0	1.874255e-03
9.000000e+07	2.260347e+14	0.000000e+00	6.825395e-01	2.682611e+15	4.492565e+14	1.566843e+14	1.501194e+04	5.939272e+03	3.611889e+03	0	1.854016e-03
1.000000e+08	2.186544e+14	0.000000e+00	6.825395e-01	2.598225e+15	5.141081e+14	1.558314e+14	1.487617e+04	6.080016e+03	3.697481e+03	0	1.833614e-03
1.100000e+08	2.114065e+14	0.000000e+00	6.825395e-01	2.515371e+15	5.807763e+14	1.549848e+14	1.474462e+04	6.211742e+03	3.777588e+03	0	1.813126e-03
1.200000e+08	2.043173e+14	0.000000e+00	6.825395e-01	2.434342e+15	6.483662e+14	1.541445e+14	1.461723e+04	6.334460e+03	3.852217e+03	0	1.792628e-03
1.300000e+08	1.974091e+14	0.000000e+00	6.825395e-01	2.355388e+15	7.159942e+14	1.533104e+14	1.449390e+04	6.448251e+03	3.921418e+03	0	1.772193e-03
1.400000e+08	1.907005e+14	0.000000e+00	6.825395e-01	2.278720e+15	7.828190e+14	1.524825e+14	1.437454e+04	6.553263e+03	3.985279e+03	0	1.751886e-03
1.500000e+08	1.842062e+14	0.000000e+00	6.825395e-01	2.204502e+15	8.480668e+14	1.516608e+14	1.425902e+04	6.649703e+03	4.043928e+03	0	1.731769e-03
1.600000e+08	1.779373e+14	0.000000e+00	6.825395e-01	2.132857e+15	9.110513e+14	1.508450e+14	1.414724e+04	6.737832e+03	4.097523e+03	0	1.711897e-03
1.700000e+08	1.719013e+14	0.000000e+00	6.825395e-01	2.063868e+15	9.711853e+14	1.500353e+14	1.403905e+04	6.817959e+03	4.146250e+03	0	1.692317e-03
1.800000e+08	1.661024e+14	0.000000e+00	6.825395e-01	1.997582e+15	1.027989e+15	1.492316e+14	1.393434e+04	6.890426e+03	4.190320e+03	0	1.673069e-03
1.900000e+08	1.605419e+14	0.000000e+00	6.825395e-01	1.934012e+15	1.081088e+15	1.484338e+14	1.383296e+04	6.955606e+03	4.229959e+03	0	1.654187e-03
2.000000e+08	1.552185e+14	0.000000e+00	6.825395e-01	1.873144e+15	1.130216e+15	1.476419e+14	1.373478e+04	7.013891e+03	4.265404e+03	0	1.635698e-03
2.100000e+08	1.501290e+14	0.000000e+00	6.825395e-01	1.814938e+15	1.175199e+15	1.468558e+14	1.363966e+04	7.065685e+03	4.296902e+03	0	1.617621e-03
2.200000e+08	1.452682e+14	0.000000e+00	6.825395e-01	1.759335e+15	1.215956e+15	1.460754e+14	1.354748e+04	7.111397e+03	4.324701e+03	0	1.599971e-03
2.300000e+08	1.406296e+14	0.000000e+00	6.825395e-01	1.706261e+15	1.252479e+15	1.453008e+14	1.345809e+04	7.151437e+03	4.349051e+03	0	1.582756e-03
2.400000e+08	1.362055e+14	0.000000e+00	6.825395e-01	1.655629e+15	1.284826e+15	1.445319e+14	1.337139e+04	7.186207e+03	4.370196e+03	0	1.565982e-03
2.500000e+08	1.319877e+14	0.000000e+00	6.825395e-01	1.607344e+15	1.313109e+15	1.437686e+14	1.328723e+04	7.216099e+03	4.388374e+03	0	1.549648e-03
2.600000e+08	1.279672e+14	0.000000e+00	6.825395e-01	1.561304e+15	1.337483e+15	1.430109e+14	1.320552e+04	7.241491e+03	4.403816e+03	0	1.533750e-03
2.700000e+08	1.241348e+14	0.000000e+00	6.825395e-01	1.517406e+15	1.358133e+15	1.422587e+14	1.312612e+04	7.262747e+03	4.416743e+03	0	1.518284e-03
2.800000e+08	1.204814e+14	0.000000e+00	6.825395e-01	1.475543e+15	1.375268e+15	1.415120e+14	1.304894e+04	7.280210e+03	4.427362e+03	0	1.503241e-03
2.900000e+08	1.169977e+14	0.000000e+00	6.825395e-01	1.435611e+15	1.389112e+15	1.407708e+14	1.297388e+04	7.294205e+03	4.435873e+03	0	1.488610e-03
3.000000e+08	1.136746e+14	0.000000e+00	6.825395e-01	1.397508e+15	1.399896e+15	1.400349e+14	1.290083e+04	7.305038e+03	4.442461e+03	0	1.474381e-03
3.100000e+08	1.105032e+14	0.000000e+00	6.825395e-01	1.361131e+15	1.407853e+15	1.393045e+14	1.282970e+04	7.312993e+03	4.447299e+03	0	1.460540e-03
3.200000e+08	1.074751e+14	0.000000e+00	6.825395e-01	1.326385e+15	1.413216e+15	1.385793e+14	1.276041e+04	7.318337e+03	4.450549e+03	0	1.447075e-03
3.300000e+08	1.045821e+14	0.000000e+00	6.825395e-01	1.293178e+15	1.416211e+15	1.378594e+14	1.269288e+04	7.321314e+03	4.452359e+03	0	1.433973e-03
3.400000e+08	1.018164e+14	0.000000e+00	6.825395e-01	1.261420e+15	1.417055e+15	1.371448e+14	1.262703e+04	7.322152e+03	4.452869e+03	0	1.421219e-03
3.500000e+08	9.917059e+13	0.000000e+00	6.825395e-01	1.231028e+15	1.415955e+15	1.364353e+14	1.256278e+04	7.321060e+03	4.452205e+03	0	1.408801e-03
3.600000e+08	9.663781e+13	0.000000e+00	6.825395e-01	1.201923e+15	1.413109e+15	1.357310e+14	1.250007e+04	7.318230e+03	4.450484e+03	0	1.396703e-03
3.700000e+08	9.421145e+13	0.000000e+00	6.825395e-01	1.174030e+15	1.408699e+15	1.350318e+14	1.243883e+04	7.313837e+03	4.447812e+03	0	1.384915e-03
3.800000e+08	9.188535e+13	0.000000e+00	6.825395e-01	1.147280e+15	1.402898e+15	1.343376e+14	1.237901e+04	7.308043e+03	4.444289e+03	0	1.373422e-03
3.900000e+08	8.965376e+13	0.000000e+00	6.825395e-01	1.121606e+15	1.395863e+15	1.336484e+14	1.232053e+04	7.300994e+03	4.440002e+03	0	1.362212e-03
4.000000e+08	8.751126e+13	0.000000e+00	6.825395e-01	1.096949e+15	1.387742e+15	1.329643e+14	1.226336e+04	7.292824e+03	4.435034e+03	0	1.351273e-03
4.100000e+08	8.545281e+13	0.000000e+00	6.825395e-01	1.073250e+15	1.378667e+15	1.322850e+14	1.220744e+04	7.283655e+03	4.429458e+03	0	1.340594e-03
4.200000e+08	8.347371e+13	0.000000e+00	6.825395e-01	1.050455e+15	1.368763e+15	1.316107e+14	1.215271e+04	7.273598e+03	4.423341e+03	0	1.330164e-03
4.300000e+08	8.156955e+13	0.000000e+00	6.825395e-01	1.028516e+15	1.358139e+15	1.309412e+14	1.209914e+04	7.262753e+03	4.416746e+03	0	1.319971e-03
4.400000e+08	7.973623e+13	0.000000e+00	6.825395e-01	1.007385e+15	1.346897e+15	1.302766e+14	1.204668e+04	7.251211e+03	4.409727e+03	0	1.310007e-03
4.500000e+08	7.796992e+13	0.000000e+00	6.825395e-01	9.870180e+14	1.335130e+15	1.296167e+14	1.199529e+04	7.239055e+03	4.402334e+03	0	1.300262e-03
4.600000e+08	7.626707e+13	0.000000e+00	6.825395e-01	9.673758e+14	1.322920e+15	1.289615e+14	1.194494e+04	7.226359e+03	4.394614e+03	0	1.290726e-03
4.700000e+08	7.462433e+13	0.000000e+00	6.825395e-01	9.484199e+14	1.310340e+15	1.283111e+14	1.189558e+04	7.213193e+03	4.386607e+03	0	1.281392e-03
4.800000e+08	7.303860e+13	0.000000e+00	6.825395e-01	9.301150e+14	1.297458e+15	1.276653e+14	1.184718e+04	7.199615e+03	4.378350e+03	0	1.272251e-03
4.900000e+08	7.150698e+13	0.000000e+00	6.825395e-01	9.124282e+14	1.284334e+15	1.270241e+14	1.179970e+04	7.185684e+03	4.369878e+03	0	1.263295e-03
5.000000e+08	7.002675e+13	0.000000e+00	6.825395e-01	8.953286e+14	1.271022e+15	1.263875e+14	1.175313e+04	7.171447e+03	4.361220e+03	0	1.254517e-03
5.100000e+08	6.859539e+13	0.000000e+00	6.825395e-01	8.787875e+14	1.257568e+15	1.257555e+14	1.170742e+04	7.156950e+03	4.352404e+03	0	1.245910e-03
5.200000e+08	6.721052e+13	0.000000e+00	6.825395e-01	8.627777e+14	1.244016e+15	1.251279e+14	1.166256e+04	7.142235e+03	4.343455e+03	0	1.237469e-03
5.300000e+08	6.586992e+13	0.000000e+00	6.825395e-01	8.472742e+14	1.230403e+15	1.245049e+14	1.161850e+04	7.127337e+03	4.334395e+03	0	1.229186e-03
5.400000e+08	6.457152e+13	0.000000e+00	6.825395e-01	8.322532e+14	1.216762e+15	1.238863e+14	1.157523e+04	7.112291e+03	4.325245e+03	0	1.221056e-03
5.500000e+08	6.331336e+13	0.000000e+00	6.825395e-01	8.176925e+14	1.203123e+15	1.232721e+14	1.153272e+04	7.097124e+03	4.316022e+03	0	1.213073e-03
5.600000e+08	6.209362e+13	0.000000e+00	6.825395e-01	8.035714e+14	1.189513e+15	1.226622e+14	1.149096e+04	7.081866e+03	4.306742e+03	0	1.205233e-03
5.700000e+08	6.091058e+13	0.000000e+00	6.825395e-01	7.898703e+14	1.175952e+15	1.220567e+14	1.144991e+04	7.066539e+03	4.297422e+03	0	1.197529e-03
5.800000e+08	5.976261e+13	0.000000e+00	6.825395e-01	7.765707e+14	1.162462e+15	1.214555e+14	1.140955e+04	7.051166e+03	4.288072e+03	0	1.189958e-03
5.900000e+08	5.864821e+13	0.000000e+00	6.825395e-01	7.636554e+14	1.149060e+15	1.208585e+14	1.136987e+04	7.035765e+03	4.278707e+03	0	1.182515e-03
6.000000e+08	5.756594e+13	0.000000e+00	6.825395e-01	7.511080e+14	1.135762e+15	1.202658e+14	1.133085e+04	7.020355e+03	4.269335e+03	0	1.175196e-03
6.100000e+08	5.651445e+13	0.000000e+00	6.825395e-01	7.389132e+14	1.122579e+15	1.196773e+14	1.129247e+04	7.004952e+03	4.259968e+03	0	1.167997e-03
6.200000e+08	5.549247e+13	0.000000e+00	6.825395e-01	7.270566e+14	1.109523e+15	1.190929e+14	1.125470e+04	6.989568e+03	4.250612e+03	0	1.160914e-03
6.300000e+08	5.449880e+13	0.000000e+00	6.825395e-01	7.155243e+14	1.096605e+15	1.185126e+14	1.121754e+04	6.974217e+03	4.241277e+03	0	1.153942e-03
6.400000e+08	5.353229e+13	0.000000e+00	6.825395e-01	7.043034e+14	1.083831e+15	1.179365e+14	1.118096e+04	6.958909e+03	4.231968e+03	0	1.147080e-03
6.500000e+08	5.259188e+13	0.000000e+00	6.825395e-01	6.933817e+14	1.071208e+15	1.173644e+14	1.114495e+04	6.943656e+03	4.222692e+03	0	1.140324e-03
6.600000e+08	5.167655e+13	0.000000e+00	6.825395e-01	6.827477e+14	1.058744e+15	1.167963e+14	1.110950e+04	6.928465e+03	4.213453e+03	0	1.133669e-03
6.700000e+08	5.078533e+13	0.000000e+00	6.825395e-01	6.723902e+14	1.046441e+15	1.162322e+14	1.107459e+04	6.913345e+03	4.204258e+03	0	1.127114e-03
6.800000e+08	4.991732e+13	0.000000e+00	6.825395e-01	6.622989e+14	1.034303e+15	1.156721e+14	1.104021e+04	6.898302e+03	4.195110e+03	0	1.120656e-03
6.900000e+08	4.907163e+13	0.000000e+00	6.825395e-01	6.524639e+14	1.022334e+15	1.151159e+14	1.100633e+04	6.883343e+03	4.186013e+03	0	1.114291e-03
7.000000e+08	4.824746e+13	0.000000e+00	6.825395e-01	6.428757e+14	1.010536e+15	1.145636e+14	1.097296e+04	6.868474e+03	4.176971e+03	0	1.108018e-03
7.100000e+08	4.744401e+13	0.000000e+00	6.825395e-01	6.335255e+14	9.989089e+14	1.140152e+14	1.094008e+04	6.853698e+03	4.167985e+03	0	1.101833e-03
7.200000e+08	4.666055e+13	0.000000e+00	6.825395e-01	6.244047e+14	9.874551e+14	1.134706e+14	1.090767e+04	6.839020e+03	4.159059e+03	0	1.095734e-03
7.300000e+08	4.589635e+13	0.000000e+00	6.825395e-01	6.155053e+14	9.761745e+14	1.129298e+14	1.087573e+04	6.824444e+03	4.150195e+03	0	1.089719e-03
7.400000e+08	4.515076e+13	0.000000e+00	6.825395e-01	6.068196e+14	9.650674e+14	1.123928e+14	1.084424e+04	6.809973e+03	4.141394e+03	0	1.083786e-03
7.500000e+08	4.442312e+13	0.000000e+00	6.825395e-01	5.983401e+14	9.541328e+14	1.118595e+14	1.081319e+04	6.795609e+03	4.132659e+03	0	1.077932e-03
7.600000e+08	4.371281e+13	0.000000e+00	6.825395e-01	5.900599e+14	9.433701e+14	1.113299e+14	1.078258e+04	6.781354e+03	4.123990e+03	0	1.072156e-03
7.700000e+08	4.301927e+13	0.000000e+00	6.825395e-01	5.819723e+14	9.327790e+14	1.108041e+14	1.075238e+04	6.767212e+03	4.115389e+03	0	1.066456e-03
7.800000e+08	4.234192e+13	0.000000e+00	6.825395e-01	5.740709e+14	9.223571e+14	1.102819e+14	1.072260e+04	6.753182e+03	4.106857e+03	0	1.060829e-03
7.900000e+08	4.168022e+13	0.000000e+00	6.825395e-01	5.663496e+14	9.121034e+14	1.097633e+14	1.069322e+04	6.739266e+03	4.098395e+03	0	1.055274e-03
8.000000e+08	4.103368e+13	0.000000e+00	6.825395e-01	5.588026e+14	9.020163e+14	1.092483e+14	1.066423e+04	6.725466e+03	4.090003e+03	0	1.049789e-03
8.100000e+08	4.040180e+13	0.000000e+00	6.825395e-01	5.514242e+14	8.920938e+14	1.087369e+14	1.063563e+04	6.711782e+03	4.081681e+03	0	1.044373e-03
8.200000e+08	3.978411e+13	0.000000e+00	6.825395e-01	5.442091e+14	8.823339e+14	1.082290e+14	1.060740e+04	6.698215e+03	4.073430e+03	0	1.039023e-03
8.300000e+08	3.918017e+13	0.000000e+00	6.825395e-01	5.371522e+14	8.727345e+14	1.077246e+14	1.057954e+04	6.684764e+03	4.065250e+03	0	1.033738e-03
8.400000e+08	3.858953e+13	0.000000e+00	6.825395e-01	5.302485e+14	8.632932e+14	1.072237e+14	1.055204e+04	6.671430e+03	4.057141e+03	0	1.028518e-03
8.500000e+08	3.801180e+13	0.000000e+00	6.825395e-01	5.234935e+14	8.540076e+14	1.067263e+14	1.052489e+04	6.658213e+03	4.049104e+03	0	1.023359e-03
8.600000e+08	3.744658e+13	0.000000e+00	6.825395e-01	5.168824e+14	8.448761e+14	1.062323e+14	1.049809e+04	6.645114e+03	4.041137e+03	0	1.018261e-03
8.700000e+08	3.689349e+13	0.000000e+00	6.825395e-01	5.104111e+14	8.358953e+14	1.057417e+14	1.047162e+04	6.632130e+03	4.033241e+03	0	1.013223e-03
8.800000e+08	3.635216e+13	0.000000e+00	6.825395e-01	5.040753e+14	8.270632e+14	1.052545e+14	1.044548e+04	6.619263e+03	4.025416e+03	0	1.008243e-03
8.900000e+08	3.582224e+13	0.000000e+00	6.825395e-01	4.978710e+14	8.183774e+14	1.047706e+14	1.041967e+04	6.606511e+03	4.017662e+03	0	1.003320e-03
9.000000e+08	3.530340e+13	0.000000e+00	6.825395e-01	4.917944e+14	8.098353e+14	1.042900e+14	1.039417e+04	6.593875e+03	4.009977e+03	0	9.984524e-04
9.100000e+08	3.479532e+13	0.000000e+00	6.825395e-01	4.858417e+14	8.014343e+14	1.038128e+14	1.036898e+04	6.581353e+03	4.002362e+03	0	9.936394e-04
9.200000e+08	3.429768e+13	0.000000e+00	6.825395e-01	4.800095e+14	7.931719e+14	1.033388e+14	1.034409e+04	6.568944e+03	3.994816e+03	0	9.888796e-04
9.300000e+08	3.381018e+13	0.000000e+00	6.825395e-01	4.742943e+14	7.850455e+14	1.028680e+14	1.031951e+04	6.556648e+03	3.987338e+03	0	9.841720e-04
9.400000e+08	3.333254e+13	0.000000e+00	6.825395e-01	4.686928e+14	7.770529e+14	1.024005e+14	1.029521e+04	6.544464e+03	3.979928e+03	0	9.795156e-04
9.500000e+08	3.286448e+13	0.000000e+00	6.825395e-01	4.632018e+14	7.691912e+14	1.019361e+14	1.027120e+04	6.532391e+03	3.972586e+03	0	9.749091e-04
9.600000e+08	3.240574e+13	0.000000e+00	6.825395e-01	4.578183e+14	7.614584e+14	1.014750e+14	1.024747e+04	6.520428e+03	3.965311e+03	0	9.703517e-04
9.700000e+08	3.195605e+13	0.000000e+00	6.825395e-01	4.525393e+14	7.538517e+14	1.010169e+14	1.022401e+04	6.508574e+03	3.958102e+03	0	9.658423e-04
9.800000e+08	3.151516e+13	0.000000e+00	6.825395e-01	4.473619e+14	7.463690e+14	1.005620e+14	1.020083e+04	6.496828e+03	3.950959e+03	0	9.613799e-04
9.900000e+08	3.108285e+13	0.000000e+00	6.825395e-01	4.422835e+14	7.390074e+14	1.001102e+14	1.017790e+04	6.485189e+03	3.943881e+03	0	9.569637e-04
1.000000e+09	3.065887e+13	0.000000e+00	6.825395e-01	4.373014e+14	7.317652e+14	9.966140e+13	1.015524e+04	6.473656e+03	3.936867e+03	0	9.525927e-04
1.010000e+09	3.024300e+13	0.000000e+00	6.825395e-01	4.324130e+14	7.246394e+14	9.921569e+13	1.013283e+04	6.462227e+03	3.929917e+03	0	9.482660e-04
1.020000e+09	2.983504e+13	0.000000e+00	6.825395e-01	4.276158e+14	7.176279e+14	9.877299e+13	1.011067e+04	6.450902e+03	3.923030e+03	0	9.439827e-04
1.030000e+09	2.943476e+13	0.000000e+00	6.825395e-01	4.229075e+14	7.107288e+14	9.833328e+13	1.008876e+04	6.439680e+03	3.916205e+03	0	9.397421e-04
1.040000e+09	2.904198e+13	0.000000e+00	6.825395e-01	4.182858e+14	7.039396e+14	9.789655e+13	1.006708e+04	6.428558e+03	3.909442e+03	0	9.355434e-04
1.050000e+09	2.865649e+13	0.000000e+00	6.825395e-01	4.137484e+14	6.972581e+14	9.746277e+13	1.004564e+04	6.417537e+03	3.902740e+03	0	9.313856e-04
1.060000e+09	2.827811e+13	0.000000e+00	6.825395e-01	4.092932e+14	6.906823e+14	9.703191e+13	1.002444e+04	6.406615e+03	3.896098e+03	0	9.272681e-04
1.070000e+09	2.790666e+13	0.000000e+00	6.825395e-01	4.049182e+14	6.842099e+14	9.660396e+13	1.000346e+04	6.395791e+03	3.889515e+03	0	9.231901e-04
1.080000e+09	2.754196e+13	0.000000e+00	6.825395e-01	4.006212e+14	6.778389e+14	9.617889e+13	9.982700e+03	6.385064e+03	3.882991e+03	0	9.191509e-04
1.090000e+09	2.718385e+13	0.000000e+00	6.825395e-01	3.964004e+14	6.715674e+14	9.575667e+13	9.962163e+03	6.374432e+03	3.876526e+03	0	9.151497e-04
1.100000e+09	2.683215e+13	0.000000e+00	6.825395e-01	3.922539e+14	6.653932e+14	9.533729e+13	9.941841e+03	6.363894e+03	3.870117e+03	0	9.111860e-04
1.110000e+09	2.648671e+13	0.000000e+00	6.825395e-01	3.881799e+14	6.593144e+14	9.492072e+13	9.921732e+03	6.353450e+03	3.863766e+03	0	9.072589e-04
1.120000e+09	2.614738e+13	0.000000e+00	6.825395e-01	3.841765e+14	6.533294e+14	9.450694e+13	9.901830e+03	6.343098e+03	3.857470e+03	0	9.033678e-04
1.130000e+09	2.581401e+13	0.000000e+00	6.825395e-01	3.802421e+14	6.474360e+14	9.409593e+13	9.882132e+03	6.332836e+03	3.851230e+03	0	8.995122e-04
1.140000e+09	2.548645e+13	0.000000e+00	6.825395e-01	3.763750e+14	6.416323e+14	9.368767e+13	9.862636e+03	6.322665e+03	3.845044e+03	0	8.956913e-04
1.150000e+09	2.516457e+13	0.000000e+00	6.825395e-01	3.725736e+14	6.359169e+14	9.328213e+13	9.843337e+03	6.312582e+03	3.838912e+03	0	8.919045e-04
1.160000e+09	2.484822e+13	0.000000e+00	6.825395e-01	3.688364e+14	6.302876e+14	9.287930e+13	9.824232e+03	6.302586e+03	3.832834e+03	0	8.881513e-04
1.170000e+09	2.453728e+13	0.000000e+00	6.825395e-01	3.651619e+14	6.247430e+14	9.247916e+13	9.805319e+03	6.292677e+03	3.826808e+03	0	8.844311e-04
1.180000e+09	2.423162e+13	0.000000e+00	6.825395e-01	3.615485e+14	6.192813e+14	9.208167e+13	9.786592e+03	6.282854e+03	3.820834e+03	0	8.807434e-04
1.190000e+09	2.393112e+13	0.000000e+00	6.825395e-01	3.579949e+14	6.139008e+14	9.168683e+13	9.768051e+03	6.273114e+03	3.814911e+03	0	8.770874e-04
1.200000e+09	2.363565e+13	0.000000e+00	6.825395e-01	3.544997e+14	6.086000e+14	9.129461e+13	9.749691e+03	6.263458e+03	3.809038e+03	0	8.734628e-04
1.210000e+09	2.334511e+13	0.000000e+00	6.825395e-01	3.510615e+14	6.033772e+14	9.090499e+13	9.731510e+03	6.253884e+03	3.803216e+03	0	8.698689e-04
1.220000e+09	2.305937e+13	0.000000e+00	6.825395e-01	3.476791e+14	5.982311e+14	9.051795e+13	9.713504e+03	6.244391e+03	3.797443e+03	0	8.663054e-04
1.230000e+09	2.277833e+13	0.000000e+00	6.825395e-01	3.443512e+14	5.931599e+14	9.013347e+13	9.695671e+03	6.234978e+03	3.791719e+03	0	8.627715e-04
1.240000e+09	2.250188e+13	0.000000e+00	6.825395e-01	3.410766e+14	5.881625e+14	8.975154e+13	9.678008e+03	6.225644e+03	3.786042e+03	0	8.592670e-04
1.250000e+09	2.222992e+13	0.000000e+00	6.825395e-01	3.378541e+14	5.832370e+14	8.937212e+13	9.660513e+03	6.216388e+03	3.780413e+03	0	8.557912e-04
1.260000e+09	2.196235e+13	0.000000e+00	6.825395e-01	3.346825e+14	5.783824e+14	8.899521e+13	9.643182e+03	6.207209e+03	3.774831e+03	0	8.523437e-04
1.270000e+09	2.169907e+13	0.000000e+00	6.825395e-01	3.315607e+14	5.735972e+14	8.862078e+13	9.626014e+03	6.198106e+03	3.769295e+03	0	8.489241e-04
1.280000e+09	2.143998e+13	0.000000e+00	6.825395e-01	3.284876e+14	5.688798e+14	8.824881e+13	9.609005e+03	6.189077e+03	3.763805e+03	0	8.455319e-04
1.290000e+09	2.118500e+13	0.000000e+00	6.825395e-01	3.254622e+14	5.642293e+14	8.787929e+13	9.592153e+03	6.180123e+03	3.758359e+03	0	8.421666e-04
1.300000e+09	2.093404e+13	0.000000e+00	6.825395e-01	3.224835e+14	5.596442e+14	8.751219e+13	9.575455e+03	6.171242e+03	3.752958e+03	0	8.388279e-04
1.310000e+09	2.068700e+13	0.000000e+00	6.825395e-01	3.195503e+14	5.551232e+14	8.714750e+13	9.558910e+03	6.162433e+03	3.747601e+03	0	8.355152e-04
1.320000e+09	2.044381e+13	0.000000e+00	6.825395e-01	3.166619e+14	5.506653e+14	8.678519e+13	9.542515e+03	6.153695e+03	3.742288e+03	0	8.322283e-04
1.330000e+09	2.020438e+13	0.000000e+00	6.825395e-01	3.138172e+14	5.462691e+14	8.642526e+13	9.526268e+03	6.145028e+03	3.737017e+03	0	8.289666e-04
1.340000e+09	1.996863e+13	0.000000e+00	6.825395e-01	3.110152e+14	5.419334e+14	8.606768e+13	9.510166e+03	6.136430e+03	3.731788e+03	0	8.257298e-04
1.350000e+09	1.973648e+13	0.000000e+00	6.825395e-01	3.082552e+14	5.376572e+14	8.571243e+13	9.494207e+03	6.127900e+03	3.726601e+03	0	8.225174e-04
1.360000e+09	1.950786e+13	0.000000e+00	6.825395e-01	3.055362e+14	5.334394e+14	8.535950e+13	9.478390e+03	6.119438e+03	3.721454e+03	0	8.193292e-04
