#t		Qconv[W]	Ri[Rp]		R*[Rp]		Qc[W]		Qm[W]		Qr[W]		Tcmb[K]		Tl[K]		Tup[K]		RiFlag		Bs[T]
0.000000e+00	4.557029e+14	0.000000e+00	6.960003e-01	4.671455e+15	5.383084e+13	1.980503e+14	1.876449e+04	4.575608e+03	2.717004e+03	0	2.291225e-03
1.000000e+07	4.484599e+14	0.000000e+00	6.960003e-01	4.599257e+15	7.728930e+13	1.969529e+14	1.859755e+04	4.815103e+03	2.859216e+03	0	2.279021e-03
2.000000e+07	4.406928e+14	0.000000e+00	6.960003e-01	4.522062e+15	1.071892e+14	1.958638e+14	1.843315e+04	5.049618e+03	2.998472e+03	0	2.265787e-03
3.000000e+07	4.324448e+14	0.000000e+00	6.960003e-01	4.440289e+15	1.441927e+14	1.947828e+14	1.827148e+04	5.278566e+03	3.134421e+03	0	2.251563e-03
4.000000e+07	4.237638e+14	0.000000e+00	6.960003e-01	4.354401e+15	1.887932e+14	1.937099e+14	1.811269e+04	5.501351e+03	3.266712e+03	0	2.236394e-03
5.000000e+07	4.147015e+14	0.000000e+00	6.960003e-01	4.264897e+15	2.412776e+14	1.926449e+14	1.795695e+04	5.717384e+03	3.394992e+03	0	2.220338e-03
6.000000e+07	4.053135e+14	0.000000e+00	6.960003e-01	4.172313e+15	3.016986e+14	1.915879e+14	1.780437e+04	5.926087e+03	3.518920e+03	0	2.203455e-03
7.000000e+07	3.956580e+14	0.000000e+00	6.960003e-01	4.077210e+15	3.698606e+14	1.905388e+14	1.765506e+04	6.126917e+03	3.638174e+03	0	2.185817e-03
8.000000e+07	3.857953e+14	0.000000e+00	6.960003e-01	3.980169e+15	4.453183e+14	1.894975e+14	1.750913e+04	6.319372e+03	3.752454e+03	0	2.167502e-03
9.000000e+07	3.757863e+14	0.000000e+00	6.960003e-01	3.881776e+15	5.273907e+14	1.884639e+14	1.736664e+04	6.503009e+03	3.861498e+03	0	2.148593e-03
1.000000e+08	3.656917e+14	0.000000e+00	6.960003e-01	3.782614e+15	6.151881e+14	1.874380e+14	1.722764e+04	6.677452e+03	3.965082e+03	0	2.129179e-03
1.100000e+08	3.555702e+14	0.000000e+00	6.960003e-01	3.683250e+15	7.076489e+14	1.864198e+14	1.709216e+04	6.842404e+03	4.063031e+03	0	2.109351e-03
1.200000e+08	3.454781e+14	0.000000e+00	6.960003e-01	3.584223e+15	8.035872e+14	1.854090e+14	1.696021e+04	6.997651e+03	4.155217e+03	0	2.089203e-03
1.300000e+08	3.354676e+14	0.000000e+00	6.960003e-01	3.486034e+15	9.017414e+14	1.844058e+14	1.683178e+04	7.143069e+03	4.241566e+03	0	2.068826e-03
1.400000e+08	3.255860e+14	0.000000e+00	6.960003e-01	3.389138e+15	1.000827e+15	1.834099e+14	1.670683e+04	7.278621e+03	4.322057e+03	0	2.048310e-03
1.500000e+08	3.158753e+14	0.000000e+00	6.960003e-01	3.293940e+15	1.099584e+15	1.824215e+14	1.658533e+04	7.404357e+03	4.396720e+03	0	2.027740e-03
1.600000e+08	3.063719e+14	0.000000e+00	6.960003e-01	3.200785e+15	1.196820e+15	1.814403e+14	1.646722e+04	7.520408e+03	4.465631e+03	0	2.007197e-03
1.700000e+08	2.971058e+14	0.000000e+00	6.960003e-01	3.109961e+15	1.291447e+15	1.804664e+14	1.635242e+04	7.626981e+03	4.528914e+03	0	1.986754e-03
1.800000e+08	2.881012e+14	0.000000e+00	6.960003e-01	3.021701e+15	1.382507e+15	1.794997e+14	1.624086e+04	7.724344e+03	4.586729e+03	0	1.966477e-03
1.900000e+08	2.793765e+14	0.000000e+00	6.960003e-01	2.936181e+15	1.469186e+15	1.785400e+14	1.613244e+04	7.812827e+03	4.639270e+03	0	1.946422e-03
2.000000e+08	2.709449e+14	0.000000e+00	6.960003e-01	2.853523e+15	1.550828e+15	1.775875e+14	1.602706e+04	7.892800e+03	4.686758e+03	0	1.926641e-03
2.100000e+08	2.628146e+14	0.000000e+00	6.960003e-01	2.773806e+15	1.626932e+15	1.766419e+14	1.592463e+04	7.964672e+03	4.729435e+03	0	1.907174e-03
2.200000e+08	2.549894e+14	0.000000e+00	6.960003e-01	2.697065e+15	1.697144e+15	1.757033e+14	1.582504e+04	8.028873e+03	4.767558e+03	0	1.888054e-03
2.300000e+08	2.474695e+14	0.000000e+00	6.960003e-01	2.623300e+15	1.761253e+15	1.747716e+14	1.572819e+04	8.085854e+03	4.801393e+03	0	1.869309e-03
2.400000e+08	2.402521e+14	0.000000e+00	6.960003e-01	2.552482e+15	1.819170e+15	1.738467e+14	1.563397e+04	8.136068e+03	4.831211e+03	0	1.850956e-03
2.500000e+08	2.333315e+14	0.000000e+00	6.960003e-01	2.484556e+15	1.870912e+15	1.729286e+14	1.554227e+04	8.179972e+03	4.857281e+03	0	1.833010e-03
2.600000e+08	2.267003e+14	0.000000e+00	6.960003e-01	2.419448e+15	1.916592e+15	1.720172e+14	1.545300e+04	8.218016e+03	4.879872e+03	0	1.815479e-03
2.700000e+08	2.203494e+14	0.000000e+00	6.960003e-01	2.357071e+15	1.956390e+15	1.711124e+14	1.536605e+04	8.250639e+03	4.899243e+03	0	1.798365e-03
2.800000e+08	2.142687e+14	0.000000e+00	6.960003e-01	2.297323e+15	1.990551e+15	1.702143e+14	1.528133e+04	8.278264e+03	4.915647e+03	0	1.781668e-03
2.900000e+08	2.084473e+14	0.000000e+00	6.960003e-01	2.240100e+15	2.019355e+15	1.693227e+14	1.519874e+04	8.301297e+03	4.929324e+03	0	1.765384e-03
3.000000e+08	2.028737e+14	0.000000e+00	6.960003e-01	2.185291e+15	2.043119e+15	1.684376e+14	1.511820e+04	8.320123e+03	4.940503e+03	0	1.749507e-03
3.100000e+08	1.975365e+14	0.000000e+00	6.960003e-01	2.132783e+15	2.062174e+15	1.675590e+14	1.503961e+04	8.335107e+03	4.949400e+03	0	1.734029e-03
3.200000e+08	1.924240e+14	0.000000e+00	6.960003e-01	2.082463e+15	2.076861e+15	1.666868e+14	1.496290e+04	8.346589e+03	4.956218e+03	0	1.718938e-03
3.300000e+08	1.875249e+14	0.000000e+00	6.960003e-01	2.034222e+15	2.087524e+15	1.658209e+14	1.488799e+04	8.354888e+03	4.961146e+03	0	1.704224e-03
3.400000e+08	1.828281e+14	0.000000e+00	6.960003e-01	1.987951e+15	2.094498e+15	1.649613e+14	1.481480e+04	8.360300e+03	4.964360e+03	0	1.689876e-03
3.500000e+08	1.783227e+14	0.000000e+00	6.960003e-01	1.943546e+15	2.098112e+15	1.641079e+14	1.474326e+04	8.363099e+03	4.966022e+03	0	1.675879e-03
3.600000e+08	1.739986e+14	0.000000e+00	6.960003e-01	1.900907e+15	2.098681e+15	1.632607e+14	1.467332e+04	8.363539e+03	4.966284e+03	0	1.662222e-03
3.700000e+08	1.698458e+14	0.000000e+00	6.960003e-01	1.859938e+15	2.096502e+15	1.624197e+14	1.460489e+04	8.361853e+03	4.965282e+03	0	1.648892e-03
3.800000e+08	1.658551e+14	0.000000e+00	6.960003e-01	1.820548e+15	2.091858e+15	1.615847e+14	1.453794e+04	8.358252e+03	4.963144e+03	0	1.635875e-03
3.900000e+08	1.620175e+14	0.000000e+00	6.960003e-01	1.782653e+15	2.085010e+15	1.607558e+14	1.447239e+04	8.352934e+03	4.959986e+03	0	1.623159e-03
4.000000e+08	1.583248e+14	0.000000e+00	6.960003e-01	1.746170e+15	2.076204e+15	1.599329e+14	1.440820e+04	8.346075e+03	4.955914e+03	0	1.610733e-03
4.100000e+08	1.547691e+14	0.000000e+00	6.960003e-01	1.711024e+15	2.065665e+15	1.591159e+14	1.434531e+04	8.337840e+03	4.951023e+03	0	1.598583e-03
4.200000e+08	1.513430e+14	0.000000e+00	6.960003e-01	1.677144e+15	2.053599e+15	1.583048e+14	1.428368e+04	8.328376e+03	4.945404e+03	0	1.586699e-03
4.300000e+08	1.480397e+14	0.000000e+00	6.960003e-01	1.644461e+15	2.040199e+15	1.574995e+14	1.422326e+04	8.317818e+03	4.939134e+03	0	1.575070e-03
4.400000e+08	1.448526e+14	0.000000e+00	6.960003e-01	1.612914e+15	2.025636e+15	1.567000e+14	1.416402e+04	8.306288e+03	4.932288e+03	0	1.563685e-03
4.500000e+08	1.417757e+14	0.000000e+00	6.960003e-01	1.582444e+15	2.010069e+15	1.559063e+14	1.410590e+04	8.293897e+03	4.924930e+03	0	1.552534e-03
4.600000e+08	1.388034e+14	0.000000e+00	6.960003e-01	1.552995e+15	1.993638e+15	1.551182e+14	1.404888e+04	8.280745e+03	4.917120e+03	0	1.541608e-03
4.700000e+08	1.359304e+14	0.000000e+00	6.960003e-01	1.524516e+15	1.976475e+15	1.543359e+14	1.399291e+04	8.266923e+03	4.908913e+03	0	1.530897e-03
4.800000e+08	1.331517e+14	0.000000e+00	6.960003e-01	1.496960e+15	1.958696e+15	1.535591e+14	1.393796e+04	8.252514e+03	4.900357e+03	0	1.520393e-03
4.900000e+08	1.304626e+14	0.000000e+00	6.960003e-01	1.470280e+15	1.940403e+15	1.527879e+14	1.388400e+04	8.237592e+03	4.891496e+03	0	1.510089e-03
5.000000e+08	1.278589e+14	0.000000e+00	6.960003e-01	1.444436e+15	1.921692e+15	1.520222e+14	1.383099e+04	8.222224e+03	4.882370e+03	0	1.499975e-03
5.100000e+08	1.253365e+14	0.000000e+00	6.960003e-01	1.419386e+15	1.902645e+15	1.512619e+14	1.377891e+04	8.206471e+03	4.873016e+03	0	1.490046e-03
5.200000e+08	1.228915e+14	0.000000e+00	6.960003e-01	1.395095e+15	1.883339e+15	1.505071e+14	1.372773e+04	8.190387e+03	4.863465e+03	0	1.480293e-03
5.300000e+08	1.205204e+14	0.000000e+00	6.960003e-01	1.371528e+15	1.863838e+15	1.497577e+14	1.367742e+04	8.174022e+03	4.853748e+03	0	1.470711e-03
5.400000e+08	1.182200e+14	0.000000e+00	6.960003e-01	1.348653e+15	1.844205e+15	1.490136e+14	1.362795e+04	8.157420e+03	4.843890e+03	0	1.461293e-03
5.500000e+08	1.159869e+14	0.000000e+00	6.960003e-01	1.326437e+15	1.824489e+15	1.482748e+14	1.357931e+04	8.140622e+03	4.833915e+03	0	1.452034e-03
5.600000e+08	1.138183e+14	0.000000e+00	6.960003e-01	1.304854e+15	1.804738e+15	1.475413e+14	1.353146e+04	8.123664e+03	4.823845e+03	0	1.442928e-03
5.700000e+08	1.117115e+14	0.000000e+00	6.960003e-01	1.283876e+15	1.784993e+15	1.468130e+14	1.348439e+04	8.106577e+03	4.813699e+03	0	1.433969e-03
5.800000e+08	1.096638e+14	0.000000e+00	6.960003e-01	1.263478e+15	1.765290e+15	1.460898e+14	1.343806e+04	8.089392e+03	4.803495e+03	0	1.425153e-03
5.900000e+08	1.076727e+14	0.000000e+00	6.960003e-01	1.243636e+15	1.745661e+15	1.453718e+14	1.339247e+04	8.072134e+03	4.793247e+03	0	1.416475e-03
6.000000e+08	1.057359e+14	0.000000e+00	6.960003e-01	1.224326e+15	1.726135e+15	1.446588e+14	1.334760e+04	8.054828e+03	4.782970e+03	0	1.407931e-03
6.100000e+08	1.038513e+14	0.000000e+00	6.960003e-01	1.205529e+15	1.706733e+15	1.439509e+14	1.330341e+04	8.037493e+03	4.772677e+03	0	1.399516e-03
6.200000e+08	1.020168e+14	0.000000e+00	6.960003e-01	1.187223e+15	1.687479e+15	1.432480e+14	1.325990e+04	8.020150e+03	4.762379e+03	0	1.391226e-03
6.300000e+08	1.002304e+14	0.000000e+00	6.960003e-01	1.169390e+15	1.668390e+15	1.425501e+14	1.321705e+04	8.002815e+03	4.752085e+03	0	1.383058e-03
6.400000e+08	9.849028e+13	0.000000e+00	6.960003e-01	1.152011e+15	1.649481e+15	1.418570e+14	1.317484e+04	7.985503e+03	4.741805e+03	0	1.375007e-03
6.500000e+08	9.679471e+13	0.000000e+00	6.960003e-01	1.135071e+15	1.630766e+15	1.411689e+14	1.313325e+04	7.968229e+03	4.731548e+03	0	1.367071e-03
6.600000e+08	9.514201e+13	0.000000e+00	6.960003e-01	1.118551e+15	1.612256e+15	1.404856e+14	1.309227e+04	7.951003e+03	4.721319e+03	0	1.359245e-03
6.700000e+08	9.353062e+13	0.000000e+00	6.960003e-01	1.102438e+15	1.593961e+15	1.398071e+14	1.305188e+04	7.933837e+03	4.711126e+03	0	1.351528e-03
6.800000e+08	9.195903e+13	0.000000e+00	6.960003e-01	1.086717e+15	1.575888e+15	1.391334e+14	1.301207e+04	7.916741e+03	4.700974e+03	0	1.343915e-03
6.900000e+08	9.042584e+13	0.000000e+00	6.960003e-01	1.071373e+15	1.558044e+15	1.384644e+14	1.297283e+04	7.899723e+03	4.690869e+03	0	1.336405e-03
7.000000e+08	8.892968e+13	0.000000e+00	6.960003e-01	1.056393e+15	1.540434e+15	1.378000e+14	1.293414e+04	7.882790e+03	4.680814e+03	0	1.328993e-03
7.100000e+08	8.746928e+13	0.000000e+00	6.960003e-01	1.041766e+15	1.523062e+15	1.371404e+14	1.289599e+04	7.865949e+03	4.670814e+03	0	1.321678e-03
7.200000e+08	8.604340e+13	0.000000e+00	6.960003e-01	1.027478e+15	1.505931e+15	1.364853e+14	1.285836e+04	7.849206e+03	4.660872e+03	0	1.314457e-03
7.300000e+08	8.465089e+13	0.000000e+00	6.960003e-01	1.013519e+15	1.489043e+15	1.358349e+14	1.282124e+04	7.832566e+03	4.650991e+03	0	1.307327e-03
7.400000e+08	8.329062e+13	0.000000e+00	6.960003e-01	9.998776e+14	1.472399e+15	1.351889e+14	1.278463e+04	7.816034e+03	4.641174e+03	0	1.300287e-03
7.500000e+08	8.196154e+13	0.000000e+00	6.960003e-01	9.865435e+14	1.456000e+15	1.345475e+14	1.274851e+04	7.799613e+03	4.631423e+03	0	1.293333e-03
7.600000e+08	8.066262e+13	0.000000e+00	6.960003e-01	9.735068e+14	1.439846e+15	1.339105e+14	1.271287e+04	7.783307e+03	4.621741e+03	0	1.286465e-03
7.700000e+08	7.939291e+13	0.000000e+00	6.960003e-01	9.607579e+14	1.423936e+15	1.332780e+14	1.267769e+04	7.767119e+03	4.612128e+03	0	1.279679e-03
7.800000e+08	7.815146e+13	0.000000e+00	6.960003e-01	9.482878e+14	1.408270e+15	1.326499e+14	1.264298e+04	7.751050e+03	4.602587e+03	0	1.272974e-03
7.900000e+08	7.693739e+13	0.000000e+00	6.960003e-01	9.360877e+14	1.392845e+15	1.320261e+14	1.260871e+04	7.735104e+03	4.593118e+03	0	1.266348e-03
8.000000e+08	7.574984e+13	0.000000e+00	6.960003e-01	9.241494e+14	1.377661e+15	1.314067e+14	1.257488e+04	7.719281e+03	4.583722e+03	0	1.259798e-03
8.100000e+08	7.458801e+13	0.000000e+00	6.960003e-01	9.124648e+14	1.362714e+15	1.307915e+14	1.254148e+04	7.703584e+03	4.574401e+03	0	1.253324e-03
8.200000e+08	7.345110e+13	0.000000e+00	6.960003e-01	9.010263e+14	1.348004e+15	1.301806e+14	1.250850e+04	7.688012e+03	4.565154e+03	0	1.246924e-03
8.300000e+08	7.233838e+13	0.000000e+00	6.960003e-01	8.898265e+14	1.333527e+15	1.295740e+14	1.247594e+04	7.672567e+03	4.555983e+03	0	1.240595e-03
8.400000e+08	7.124911e+13	0.000000e+00	6.960003e-01	8.788584e+14	1.319279e+15	1.289715e+14	1.244377e+04	7.657250e+03	4.546888e+03	0	1.234337e-03
8.500000e+08	7.018260e+13	0.000000e+00	6.960003e-01	8.681152e+14	1.305259e+15	1.283732e+14	1.241200e+04	7.642061e+03	4.537868e+03	0	1.228147e-03
8.600000e+08	6.913819e+13	0.000000e+00	6.960003e-01	8.575904e+14	1.291464e+15	1.277790e+14	1.238062e+04	7.626999e+03	4.528925e+03	0	1.222024e-03
8.700000e+08	6.811525e+13	0.000000e+00	6.960003e-01	8.472776e+14	1.277890e+15	1.271888e+14	1.234961e+04	7.612065e+03	4.520057e+03	0	1.215967e-03
8.800000e+08	6.711315e+13	0.000000e+00	6.960003e-01	8.371710e+14	1.264534e+15	1.266028e+14	1.231898e+04	7.597260e+03	4.511266e+03	0	1.209975e-03
8.900000e+08	6.613130e+13	0.000000e+00	6.960003e-01	8.272646e+14	1.251393e+15	1.260208e+14	1.228871e+04	7.582581e+03	4.502550e+03	0	1.204045e-03
9.000000e+08	6.516914e+13	0.000000e+00	6.960003e-01	8.175529e+14	1.238462e+15	1.254427e+14	1.225880e+04	7.568030e+03	4.493909e+03	0	1.198177e-03
9.100000e+08	6.422611e+13	0.000000e+00	6.960003e-01	8.080306e+14	1.225740e+15	1.248687e+14	1.222924e+04	7.553605e+03	4.485343e+03	0	1.192370e-03
9.200000e+08	6.330170e+13	0.000000e+00	6.960003e-01	7.986924e+14	1.213222e+15	1.242985e+14	1.220002e+04	7.539306e+03	4.476853e+03	0	1.186622e-03
9.300000e+08	6.239538e+13	0.000000e+00	6.960003e-01	7.895333e+14	1.200905e+15	1.237323e+14	1.217113e+04	7.525133e+03	4.468436e+03	0	1.180931e-03
9.400000e+08	6.150666e+13	0.000000e+00	6.960003e-01	7.805486e+14	1.188786e+15	1.231699e+14	1.214258e+04	7.511083e+03	4.460094e+03	0	1.175298e-03
9.500000e+08	6.063509e+13	0.000000e+00	6.960003e-01	7.717335e+14	1.176860e+15	1.226114e+14	1.211435e+04	7.497157e+03	4.451824e+03	0	1.169720e-03
9.600000e+08	5.978018e+13	0.000000e+00	6.960003e-01	7.630836e+14	1.165124e+15	1.220567e+14	1.208644e+04	7.483354e+03	4.443628e+03	0	1.164196e-03
9.700000e+08	5.894152e+13	0.000000e+00	6.960003e-01	7.545946e+14	1.153576e+15	1.215058e+14	1.205883e+04	7.469672e+03	4.435504e+03	0	1.158726e-03
9.800000e+08	5.811866e+13	0.000000e+00	6.960003e-01	7.462623e+14	1.142211e+15	1.209586e+14	1.203154e+04	7.456110e+03	4.427451e+03	0	1.153309e-03
9.900000e+08	5.731120e+13	0.000000e+00	6.960003e-01	7.380826e+14	1.131026e+15	1.204151e+14	1.200454e+04	7.442668e+03	4.419469e+03	0	1.147943e-03
1.000000e+09	5.651874e+13	0.000000e+00	6.960003e-01	7.300516e+14	1.120019e+15	1.198753e+14	1.197784e+04	7.429345e+03	4.411557e+03	0	1.142627e-03
1.010000e+09	5.574090e+13	0.000000e+00	6.960003e-01	7.221656e+14	1.109184e+15	1.193392e+14	1.195143e+04	7.416138e+03	4.403715e+03	0	1.137361e-03
1.020000e+09	5.497731e+13	0.000000e+00	6.960003e-01	7.144209e+14	1.098520e+15	1.188067e+14	1.192530e+04	7.403048e+03	4.395942e+03	0	1.132144e-03
1.030000e+09	5.422760e+13	0.000000e+00	6.960003e-01	7.068140e+14	1.088023e+15	1.182778e+14	1.189946e+04	7.390072e+03	4.388237e+03	0	1.126974e-03
1.040000e+09	5.349143e+13	0.000000e+00	6.960003e-01	6.993414e+14	1.077690e+15	1.177525e+14	1.187388e+04	7.377211e+03	4.380600e+03	0	1.121851e-03
1.050000e+09	5.276846e+13	0.000000e+00	6.960003e-01	6.919999e+14	1.067518e+15	1.172307e+14	1.184858e+04	7.364461e+03	4.373029e+03	0	1.116774e-03
1.060000e+09	5.205837e+13	0.000000e+00	6.960003e-01	6.847862e+14	1.057502e+15	1.167125e+14	1.182354e+04	7.351823e+03	4.365525e+03	0	1.111742e-03
1.070000e+09	5.136084e+13	0.000000e+00	6.960003e-01	6.776973e+14	1.047642e+15	1.161977e+14	1.179876e+04	7.339295e+03	4.358086e+03	0	1.106754e-03
1.080000e+09	5.067556e+13	0.000000e+00	6.960003e-01	6.707302e+14	1.037933e+15	1.156865e+14	1.177423e+04	7.326876e+03	4.350711e+03	0	1.101810e-03
1.090000e+09	5.000225e+13	0.000000e+00	6.960003e-01	6.638819e+14	1.028373e+15	1.151786e+14	1.174996e+04	7.314564e+03	4.343400e+03	0	1.096908e-03
1.100000e+09	4.934061e+13	0.000000e+00	6.960003e-01	6.571496e+14	1.018958e+15	1.146742e+14	1.172593e+04	7.302359e+03	4.336153e+03	0	1.092049e-03
1.110000e+09	4.869037e+13	0.000000e+00	6.960003e-01	6.505306e+14	1.009686e+15	1.141731e+14	1.170215e+04	7.290258e+03	4.328968e+03	0	1.087230e-03
1.120000e+09	4.805125e+13	0.000000e+00	6.960003e-01	6.440222e+14	1.000554e+15	1.136754e+14	1.167860e+04	7.278262e+03	4.321844e+03	0	1.082452e-03
1.130000e+09	4.742300e+13	0.000000e+00	6.960003e-01	6.376219e+14	9.915599e+14	1.131810e+14	1.165529e+04	7.266368e+03	4.314781e+03	0	1.077714e-03
1.140000e+09	4.680537e+13	0.000000e+00	6.960003e-01	6.313272e+14	9.827002e+14	1.126900e+14	1.163221e+04	7.254575e+03	4.307779e+03	0	1.073015e-03
1.150000e+09	4.619810e+13	0.000000e+00	6.960003e-01	6.251357e+14	9.739727e+14	1.122022e+14	1.160936e+04	7.242883e+03	4.300836e+03	0	1.068354e-03
1.160000e+09	4.560096e+13	0.000000e+00	6.960003e-01	6.190449e+14	9.653743e+14	1.117176e+14	1.158673e+04	7.231289e+03	4.293952e+03	0	1.063731e-03
1.170000e+09	4.501372e+13	0.000000e+00	6.960003e-01	6.130527e+14	9.569033e+14	1.112363e+14	1.156432e+04	7.219794e+03	4.287126e+03	0	1.059145e-03
1.180000e+09	4.443615e+13	0.000000e+00	6.960003e-01	6.071568e+14	9.485569e+14	1.107582e+14	1.154213e+04	7.208394e+03	4.280357e+03	0	1.054596e-03
1.190000e+09	4.386804e+13	0.000000e+00	6.960003e-01	6.013551e+14	9.403327e+14	1.102833e+14	1.152015e+04	7.197090e+03	4.273644e+03	0	1.050082e-03
1.200000e+09	4.330917e+13	0.000000e+00	6.960003e-01	5.956454e+14	9.322279e+14	1.098115e+14	1.149838e+04	7.185881e+03	4.266988e+03	0	1.045604e-03
1.210000e+09	4.275934e+13	0.000000e+00	6.960003e-01	5.900258e+14	9.242407e+14	1.093429e+14	1.147681e+04	7.174764e+03	4.260387e+03	0	1.041160e-03
1.220000e+09	4.221834e+13	0.000000e+00	6.960003e-01	5.844943e+14	9.163686e+14	1.088773e+14	1.145545e+04	7.163739e+03	4.253840e+03	0	1.036750e-03
1.230000e+09	4.168599e+13	0.000000e+00	6.960003e-01	5.790490e+14	9.086100e+14	1.084149e+14	1.143429e+04	7.152805e+03	4.247348e+03	0	1.032374e-03
1.240000e+09	4.116210e+13	0.000000e+00	6.960003e-01	5.736879e+14	9.009617e+14	1.079555e+14	1.141332e+04	7.141960e+03	4.240908e+03	0	1.028031e-03
1.250000e+09	4.064647e+13	0.000000e+00	6.960003e-01	5.684094e+14	8.934224e+14	1.074991e+14	1.139254e+04	7.131204e+03	4.234521e+03	0	1.023721e-03
1.260000e+09	4.013894e+13	0.000000e+00	6.960003e-01	5.632115e+14	8.859896e+14	1.070457e+14	1.137196e+04	7.120535e+03	4.228186e+03	0	1.019442e-03
1.270000e+09	3.963933e+13	0.000000e+00	6.960003e-01	5.580928e+14	8.786614e+14	1.065954e+14	1.135157e+04	7.109953e+03	4.221902e+03	0	1.015194e-03
1.280000e+09	3.914747e+13	0.000000e+00	6.960003e-01	5.530513e+14	8.714362e+14	1.061480e+14	1.133136e+04	7.099456e+03	4.215669e+03	0	1.010978e-03
1.290000e+09	3.866320e+13	0.000000e+00	6.960003e-01	5.480856e+14	8.643112e+14	1.057035e+14	1.131133e+04	7.089042e+03	4.209485e+03	0	1.006792e-03
1.300000e+09	3.818635e+13	0.000000e+00	6.960003e-01	5.431940e+14	8.572854e+14	1.052619e+14	1.129148e+04	7.078712e+03	4.203351e+03	0	1.002636e-03
1.310000e+09	3.771677e+13	0.000000e+00	6.960003e-01	5.383751e+14	8.503564e+14	1.048233e+14	1.127181e+04	7.068464e+03	4.197266e+03	0	9.985089e-04
1.320000e+09	3.725432e+13	0.000000e+00	6.960003e-01	5.336273e+14	8.435225e+14	1.043875e+14	1.125231e+04	7.058297e+03	4.191229e+03	0	9.944112e-04
1.330000e+09	3.679883e+13	0.000000e+00	6.960003e-01	5.289492e+14	8.367820e+14	1.039545e+14	1.123298e+04	7.048210e+03	4.185239e+03	0	9.903419e-04
1.340000e+09	3.635018e+13	0.000000e+00	6.960003e-01	5.243393e+14	8.301331e+14	1.035244e+14	1.121382e+04	7.038202e+03	4.179296e+03	0	9.863006e-04
1.350000e+09	3.590821e+13	0.000000e+00	6.960003e-01	5.197963e+14	8.235743e+14	1.030971e+14	1.119483e+04	7.028272e+03	4.173399e+03	0	9.822870e-04
1.360000e+09	3.547280e+13	0.000000e+00	6.960003e-01	5.153188e+14	8.171039e+14	1.026726e+14	1.117600e+04	7.018418e+03	4.167549e+03	0	9.783005e-04
