#t		Qconv[W]	Ri[Rp]		R*[Rp]		Qc[W]		Qm[W]		Qr[W]		Tcmb[K]		Tl[K]		Tup[K]		RiFlag		Bs[T]
0.000000e+00	3.409569e+13	0.000000e+00	6.935485e-01	5.315411e+14	5.306157e+13	2.089134e+14	1.222135e+04	3.985235e+03	2.748845e+03	0	9.677726e-04
1.000000e+07	3.407822e+13	0.000000e+00	6.935485e-01	5.310613e+14	5.606757e+13	2.077559e+14	1.220296e+04	4.015603e+03	2.769791e+03	0	9.676072e-04
2.000000e+07	3.405470e+13	0.000000e+00	6.935485e-01	5.305245e+14	5.918191e+13	2.066070e+14	1.218458e+04	4.045762e+03	2.790594e+03	0	9.673846e-04
3.000000e+07	3.402516e+13	0.000000e+00	6.935485e-01	5.299311e+14	6.240485e+13	2.054667e+14	1.216623e+04	4.075707e+03	2.811249e+03	0	9.671048e-04
4.000000e+07	3.398963e+13	0.000000e+00	6.935485e-01	5.292814e+14	6.573647e+13	2.043349e+14	1.214789e+04	4.105430e+03	2.831750e+03	0	9.667681e-04
5.000000e+07	3.394815e+13	0.000000e+00	6.935485e-01	5.285758e+14	6.917656e+13	2.032116e+14	1.212958e+04	4.134924e+03	2.852094e+03	0	9.663746e-04
6.000000e+07	3.390074e+13	0.000000e+00	6.935485e-01	5.278146e+14	7.272477e+13	2.020966e+14	1.211129e+04	4.164183e+03	2.872275e+03	0	9.659246e-04
7.000000e+07	3.384747e+13	0.000000e+00	6.935485e-01	5.269983e+14	7.638048e+13	2.009900e+14	1.209302e+04	4.193199e+03	2.892289e+03	0	9.654184e-04
8.000000e+07	3.378837e+13	0.000000e+00	6.935485e-01	5.261273e+14	8.014283e+13	1.998916e+14	1.207479e+04	4.221965e+03	2.912131e+03	0	9.648561e-04
9.000000e+07	3.372349e+13	0.000000e+00	6.935485e-01	5.252023e+14	8.401074e+13	1.988013e+14	1.205658e+04	4.250476e+03	2.931796e+03	0	9.642382e-04
1.000000e+08	3.365290e+13	0.000000e+00	6.935485e-01	5.242237e+14	8.798290e+13	1.977191e+14	1.203841e+04	4.278723e+03	2.951280e+03	0	9.635649e-04
1.100000e+08	3.357665e+13	0.000000e+00	6.935485e-01	5.231922e+14	9.205774e+13	1.966450e+14	1.202027e+04	4.306702e+03	2.970579e+03	0	9.628367e-04
1.200000e+08	3.349481e+13	0.000000e+00	6.935485e-01	5.221085e+14	9.623348e+13	1.955788e+14	1.200216e+04	4.334404e+03	2.989686e+03	0	9.620538e-04
1.300000e+08	3.340746e+13	0.000000e+00	6.935485e-01	5.209732e+14	1.005081e+14	1.945205e+14	1.198410e+04	4.361824e+03	3.008599e+03	0	9.612167e-04
1.400000e+08	3.331466e+13	0.000000e+00	6.935485e-01	5.197871e+14	1.048793e+14	1.934701e+14	1.196607e+04	4.388955e+03	3.027313e+03	0	9.603258e-04
1.500000e+08	3.321649e+13	0.000000e+00	6.935485e-01	5.185509e+14	1.093447e+14	1.924274e+14	1.194808e+04	4.415792e+03	3.045824e+03	0	9.593817e-04
1.600000e+08	3.311305e+13	0.000000e+00	6.935485e-01	5.172656e+14	1.139015e+14	1.913924e+14	1.193014e+04	4.442327e+03	3.064128e+03	0	9.583847e-04
1.700000e+08	3.300441e+13	0.000000e+00	6.935485e-01	5.159318e+14	1.185467e+14	1.903651e+14	1.191224e+04	4.468557e+03	3.082219e+03	0	9.573355e-04
1.800000e+08	3.289067e+13	0.000000e+00	6.935485e-01	5.145506e+14	1.232773e+14	1.893453e+14	1.189439e+04	4.494474e+03	3.100096e+03	0	9.562345e-04
1.900000e+08	3.277193e+13	0.000000e+00	6.935485e-01	5.131229e+14	1.280898e+14	1.883330e+14	1.187658e+04	4.520073e+03	3.117753e+03	0	9.550824e-04
2.000000e+08	3.264828e+13	0.000000e+00	6.935485e-01	5.116496e+14	1.329807e+14	1.873282e+14	1.185882e+04	4.545350e+03	3.135188e+03	0	9.538797e-04
2.100000e+08	3.251983e+13	0.000000e+00	6.935485e-01	5.101318e+14	1.379462e+14	1.863308e+14	1.184112e+04	4.570299e+03	3.152396e+03	0	9.526270e-04
2.200000e+08	3.238668e+13	0.000000e+00	6.935485e-01	5.085704e+14	1.429825e+14	1.853407e+14	1.182347e+04	4.594914e+03	3.169375e+03	0	9.513251e-04
2.300000e+08	3.224894e+13	0.000000e+00	6.935485e-01	5.069665e+14	1.480854e+14	1.843579e+14	1.180587e+04	4.619192e+03	3.186121e+03	0	9.499745e-04
2.400000e+08	3.210673e+13	0.000000e+00	6.935485e-01	5.053213e+14	1.532506e+14	1.833823e+14	1.178832e+04	4.643128e+03	3.202631e+03	0	9.485761e-04
2.500000e+08	3.196015e+13	0.000000e+00	6.935485e-01	5.036358e+14	1.584738e+14	1.824138e+14	1.177084e+04	4.666718e+03	3.218903e+03	0	9.471304e-04
2.600000e+08	3.180934e+13	0.000000e+00	6.935485e-01	5.019112e+14	1.637503e+14	1.814524e+14	1.175341e+04	4.689958e+03	3.234932e+03	0	9.456383e-04
2.700000e+08	3.165441e+13	0.000000e+00	6.935485e-01	5.001486e+14	1.690756e+14	1.804980e+14	1.173604e+04	4.712844e+03	3.250718e+03	0	9.441005e-04
2.800000e+08	3.149548e+13	0.000000e+00	6.935485e-01	4.983492e+14	1.744449e+14	1.795506e+14	1.171873e+04	4.735373e+03	3.266258e+03	0	9.425178e-04
2.900000e+08	3.133267e+13	0.000000e+00	6.935485e-01	4.965143e+14	1.798532e+14	1.786102e+14	1.170148e+04	4.757541e+03	3.281549e+03	0	9.408910e-04
3.000000e+08	3.116612e+13	0.000000e+00	6.935485e-01	4.946450e+14	1.852957e+14	1.776765e+14	1.168430e+04	4.779347e+03	3.296589e+03	0	9.392208e-04
3.100000e+08	3.099594e+13	0.000000e+00	6.935485e-01	4.927426e+14	1.907673e+14	1.767497e+14	1.166718e+04	4.800786e+03	3.311377e+03	0	9.375083e-04
3.200000e+08	3.082228e+13	0.000000e+00	6.935485e-01	4.908083e+14	1.962630e+14	1.758296e+14	1.165013e+04	4.821857e+03	3.325911e+03	0	9.357541e-04
3.300000e+08	3.064526e+13	0.000000e+00	6.935485e-01	4.888433e+14	2.017777e+14	1.749163e+14	1.163314e+04	4.842558e+03	3.340189e+03	0	9.339592e-04
3.400000e+08	3.046500e+13	0.000000e+00	6.935485e-01	4.868489e+14	2.073061e+14	1.740095e+14	1.161623e+04	4.862887e+03	3.354211e+03	0	9.321244e-04
3.500000e+08	3.028165e+13	0.000000e+00	6.935485e-01	4.848265e+14	2.128433e+14	1.731093e+14	1.159938e+04	4.882842e+03	3.367975e+03	0	9.302507e-04
3.600000e+08	3.009533e+13	0.000000e+00	6.935485e-01	4.827771e+14	2.183841e+14	1.722157e+14	1.158260e+04	4.902422e+03	3.381481e+03	0	9.283389e-04
3.700000e+08	2.990618e+13	0.000000e+00	6.935485e-01	4.807021e+14	2.239234e+14	1.713285e+14	1.156589e+04	4.921627e+03	3.394728e+03	0	9.263899e-04
3.800000e+08	2.971432e+13	0.000000e+00	6.935485e-01	4.786028e+14	2.294561e+14	1.704478e+14	1.154925e+04	4.940455e+03	3.407714e+03	0	9.244046e-04
3.900000e+08	2.951989e+13	0.000000e+00	6.935485e-01	4.764805e+14	2.349772e+14	1.695734e+14	1.153269e+04	4.958906e+03	3.420441e+03	0	9.223840e-04
4.000000e+08	2.932302e+13	0.000000e+00	6.935485e-01	4.743362e+14	2.404818e+14	1.687053e+14	1.151620e+04	4.976980e+03	3.432908e+03	0	9.203289e-04
4.100000e+08	2.912384e+13	0.000000e+00	6.935485e-01	4.721714e+14	2.459650e+14	1.678435e+14	1.149978e+04	4.994678e+03	3.445115e+03	0	9.182403e-04
4.200000e+08	2.892247e+13	0.000000e+00	6.935485e-01	4.699872e+14	2.514219e+14	1.669879e+14	1.148344e+04	5.011999e+03	3.457063e+03	0	9.161192e-04
4.300000e+08	2.871906e+13	0.000000e+00	6.935485e-01	4.677849e+14	2.568479e+14	1.661384e+14	1.146717e+04	5.028945e+03	3.468751e+03	0	9.139664e-04
4.400000e+08	2.851371e+13	0.000000e+00	6.935485e-01	4.655656e+14	2.622385e+14	1.652951e+14	1.145098e+04	5.045515e+03	3.480181e+03	0	9.117828e-04
4.500000e+08	2.830656e+13	0.000000e+00	6.935485e-01	4.633306e+14	2.675891e+14	1.644578e+14	1.143486e+04	5.061712e+03	3.491353e+03	0	9.095694e-04
4.600000e+08	2.809773e+13	0.000000e+00	6.935485e-01	4.610810e+14	2.728953e+14	1.636266e+14	1.141883e+04	5.077537e+03	3.502268e+03	0	9.073271e-04
4.700000e+08	2.788734e+13	0.000000e+00	6.935485e-01	4.588180e+14	2.781532e+14	1.628013e+14	1.140287e+04	5.092992e+03	3.512928e+03	0	9.050568e-04
4.800000e+08	2.767551e+13	0.000000e+00	6.935485e-01	4.565428e+14	2.833584e+14	1.619819e+14	1.138699e+04	5.108078e+03	3.523334e+03	0	9.027595e-04
4.900000e+08	2.746236e+13	0.000000e+00	6.935485e-01	4.542563e+14	2.885071e+14	1.611684e+14	1.137119e+04	5.122798e+03	3.533487e+03	0	9.004359e-04
5.000000e+08	2.724801e+13	0.000000e+00	6.935485e-01	4.519599e+14	2.935957e+14	1.603607e+14	1.135546e+04	5.137153e+03	3.543389e+03	0	8.980870e-04
5.100000e+08	2.703256e+13	0.000000e+00	6.935485e-01	4.496544e+14	2.986204e+14	1.595587e+14	1.133982e+04	5.151147e+03	3.553041e+03	0	8.957137e-04
5.200000e+08	2.681613e+13	0.000000e+00	6.935485e-01	4.473410e+14	3.035779e+14	1.587625e+14	1.132425e+04	5.164782e+03	3.562446e+03	0	8.933168e-04
5.300000e+08	2.659882e+13	0.000000e+00	6.935485e-01	4.450207e+14	3.084649e+14	1.579720e+14	1.130877e+04	5.178062e+03	3.571606e+03	0	8.908972e-04
5.400000e+08	2.638074e+13	0.000000e+00	6.935485e-01	4.426944e+14	3.132784e+14	1.571871e+14	1.129336e+04	5.190989e+03	3.580522e+03	0	8.884558e-04
5.500000e+08	2.616199e+13	0.000000e+00	6.935485e-01	4.403632e+14	3.180153e+14	1.564078e+14	1.127804e+04	5.203566e+03	3.589198e+03	0	8.859933e-04
5.600000e+08	2.594268e+13	0.000000e+00	6.935485e-01	4.380281e+14	3.226733e+14	1.556340e+14	1.126280e+04	5.215798e+03	3.597634e+03	0	8.835106e-04
5.700000e+08	2.572290e+13	0.000000e+00	6.935485e-01	4.356898e+14	3.272494e+14	1.548657e+14	1.124763e+04	5.227687e+03	3.605835e+03	0	8.810086e-04
5.800000e+08	2.550274e+13	0.000000e+00	6.935485e-01	4.333494e+14	3.317415e+14	1.541029e+14	1.123255e+04	5.239238e+03	3.613803e+03	0	8.784879e-04
5.900000e+08	2.528229e+13	0.000000e+00	6.935485e-01	4.310077e+14	3.361474e+14	1.533455e+14	1.121755e+04	5.250455e+03	3.621539e+03	0	8.759493e-04
6.000000e+08	2.506165e+13	0.000000e+00	6.935485e-01	4.286655e+14	3.404650e+14	1.525934e+14	1.120263e+04	5.261341e+03	3.629048e+03	0	8.733937e-04
6.100000e+08	2.484090e+13	0.000000e+00	6.935485e-01	4.263236e+14	3.446926e+14	1.518467e+14	1.118779e+04	5.271900e+03	3.636331e+03	0	8.708217e-04
6.200000e+08	2.462012e+13	0.000000e+00	6.935485e-01	4.239828e+14	3.488285e+14	1.511052e+14	1.117303e+04	5.282138e+03	3.643393e+03	0	8.682341e-04
6.300000e+08	2.439939e+13	0.000000e+00	6.935485e-01	4.216439e+14	3.528712e+14	1.503690e+14	1.115835e+04	5.292058e+03	3.650235e+03	0	8.656316e-04
6.400000e+08	2.417878e+13	0.000000e+00	6.935485e-01	4.193076e+14	3.568195e+14	1.496380e+14	1.114376e+04	5.301664e+03	3.656861e+03	0	8.630149e-04
6.500000e+08	2.395838e+13	0.000000e+00	6.935485e-01	4.169746e+14	3.606721e+14	1.489121e+14	1.112924e+04	5.310962e+03	3.663275e+03	0	8.603847e-04
6.600000e+08	2.373826e+13	0.000000e+00	6.935485e-01	4.146456e+14	3.644282e+14	1.481913e+14	1.111480e+04	5.319956e+03	3.669478e+03	0	8.577415e-04
6.700000e+08	2.351847e+13	0.000000e+00	6.935485e-01	4.123211e+14	3.680868e+14	1.474756e+14	1.110045e+04	5.328651e+03	3.675476e+03	0	8.550861e-04
6.800000e+08	2.329909e+13	0.000000e+00	6.935485e-01	4.100019e+14	3.716474e+14	1.467649e+14	1.108617e+04	5.337051e+03	3.681270e+03	0	8.524191e-04
6.900000e+08	2.308019e+13	0.000000e+00	6.935485e-01	4.076885e+14	3.751095e+14	1.460592e+14	1.107198e+04	5.345162e+03	3.686864e+03	0	8.497411e-04
7.000000e+08	2.286181e+13	0.000000e+00	6.935485e-01	4.053815e+14	3.784726e+14	1.453585e+14	1.105786e+04	5.352987e+03	3.692262e+03	0	8.470525e-04
7.100000e+08	2.264402e+13	0.000000e+00	6.935485e-01	4.030814e+14	3.817366e+14	1.446626e+14	1.104383e+04	5.360533e+03	3.697466e+03	0	8.443541e-04
7.200000e+08	2.242686e+13	0.000000e+00	6.935485e-01	4.007887e+14	3.849013e+14	1.439716e+14	1.102987e+04	5.367803e+03	3.702481e+03	0	8.416464e-04
7.300000e+08	2.221041e+13	0.000000e+00	6.935485e-01	3.985039e+14	3.879668e+14	1.432855e+14	1.101600e+04	5.374803e+03	3.707309e+03	0	8.389299e-04
7.400000e+08	2.199469e+13	0.000000e+00	6.935485e-01	3.962275e+14	3.909334e+14	1.426041e+14	1.100220e+04	5.381538e+03	3.711955e+03	0	8.362051e-04
7.500000e+08	2.177977e+13	0.000000e+00	6.935485e-01	3.939599e+14	3.938011e+14	1.419275e+14	1.098848e+04	5.388013e+03	3.716421e+03	0	8.334724e-04
7.600000e+08	2.156568e+13	0.000000e+00	6.935485e-01	3.917016e+14	3.965705e+14	1.412556e+14	1.097484e+04	5.394233e+03	3.720711e+03	0	8.307325e-04
7.700000e+08	2.135246e+13	0.000000e+00	6.935485e-01	3.894528e+14	3.992421e+14	1.405884e+14	1.096128e+04	5.400202e+03	3.724829e+03	0	8.279857e-04
7.800000e+08	2.114017e+13	0.000000e+00	6.935485e-01	3.872141e+14	4.018163e+14	1.399258e+14	1.094779e+04	5.405926e+03	3.728777e+03	0	8.252324e-04
7.900000e+08	2.092882e+13	0.000000e+00	6.935485e-01	3.849857e+14	4.042940e+14	1.392678e+14	1.093438e+04	5.411410e+03	3.732559e+03	0	8.224732e-04
8.000000e+08	2.071847e+13	0.000000e+00	6.935485e-01	3.827680e+14	4.066759e+14	1.386144e+14	1.092105e+04	5.416658e+03	3.736179e+03	0	8.197084e-04
8.100000e+08	2.050914e+13	0.000000e+00	6.935485e-01	3.805613e+14	4.089630e+14	1.379655e+14	1.090780e+04	5.421676e+03	3.739640e+03	0	8.169384e-04
8.200000e+08	2.030086e+13	0.000000e+00	6.935485e-01	3.783659e+14	4.111560e+14	1.373211e+14	1.089462e+04	5.426468e+03	3.742945e+03	0	8.141635e-04
8.300000e+08	2.009367e+13	0.000000e+00	6.935485e-01	3.761820e+14	4.132561e+14	1.366812e+14	1.088152e+04	5.431039e+03	3.746098e+03	0	8.113842e-04
8.400000e+08	1.988759e+13	0.000000e+00	6.935485e-01	3.740099e+14	4.152644e+14	1.360456e+14	1.086850e+04	5.435394e+03	3.749102e+03	0	8.086008e-04
8.500000e+08	1.968264e+13	0.000000e+00	6.935485e-01	3.718498e+14	4.171819e+14	1.354145e+14	1.085554e+04	5.439537e+03	3.751960e+03	0	8.058137e-04
8.600000e+08	1.947886e+13	0.000000e+00	6.935485e-01	3.697020e+14	4.190098e+14	1.347877e+14	1.084267e+04	5.443474e+03	3.754676e+03	0	8.030230e-04
8.700000e+08	1.927625e+13	0.000000e+00	6.935485e-01	3.675667e+14	4.207496e+14	1.341652e+14	1.082986e+04	5.447210e+03	3.757252e+03	0	8.002292e-04
8.800000e+08	1.907486e+13	0.000000e+00	6.935485e-01	3.654440e+14	4.224024e+14	1.335470e+14	1.081714e+04	5.450748e+03	3.759693e+03	0	7.974325e-04
8.900000e+08	1.887468e+13	0.000000e+00	6.935485e-01	3.633341e+14	4.239696e+14	1.329331e+14	1.080448e+04	5.454093e+03	3.762000e+03	0	7.946332e-04
9.000000e+08	1.867574e+13	0.000000e+00	6.935485e-01	3.612372e+14	4.254526e+14	1.323233e+14	1.079190e+04	5.457250e+03	3.764178e+03	0	7.918315e-04
9.100000e+08	1.847806e+13	0.000000e+00	6.935485e-01	3.591534e+14	4.268528e+14	1.317178e+14	1.077939e+04	5.460223e+03	3.766229e+03	0	7.890277e-04
9.200000e+08	1.828164e+13	0.000000e+00	6.935485e-01	3.570828e+14	4.281717e+14	1.311164e+14	1.076695e+04	5.463018e+03	3.768156e+03	0	7.862221e-04
9.300000e+08	1.808651e+13	0.000000e+00	6.935485e-01	3.550256e+14	4.294107e+14	1.305191e+14	1.075459e+04	5.465637e+03	3.769962e+03	0	7.834148e-04
9.400000e+08	1.789268e+13	0.000000e+00	6.935485e-01	3.529818e+14	4.305715e+14	1.299259e+14	1.074229e+04	5.468085e+03	3.771651e+03	0	7.806061e-04
9.500000e+08	1.770015e+13	0.000000e+00	6.935485e-01	3.509516e+14	4.316553e+14	1.293367e+14	1.073007e+04	5.470367e+03	3.773225e+03	0	7.777961e-04
9.600000e+08	1.750893e+13	0.000000e+00	6.935485e-01	3.489350e+14	4.326638e+14	1.287516e+14	1.071791e+04	5.472486e+03	3.774687e+03	0	7.749851e-04
9.700000e+08	1.731903e+13	0.000000e+00	6.935485e-01	3.469322e+14	4.335986e+14	1.281704e+14	1.070583e+04	5.474448e+03	3.776040e+03	0	7.721732e-04
9.800000e+08	1.713047e+13	0.000000e+00	6.935485e-01	3.449430e+14	4.344613e+14	1.275932e+14	1.069381e+04	5.476255e+03	3.777286e+03	0	7.693606e-04
9.900000e+08	1.694324e+13	0.000000e+00	6.935485e-01	3.429677e+14	4.352533e+14	1.270199e+14	1.068186e+04	5.477912e+03	3.778429e+03	0	7.665473e-04
1.000000e+09	1.675735e+13	0.000000e+00	6.935485e-01	3.410063e+14	4.359763e+14	1.264505e+14	1.066999e+04	5.479422e+03	3.779471e+03	0	7.637337e-04
1.010000e+09	1.657281e+13	0.000000e+00	6.935485e-01	3.390587e+14	4.366317e+14	1.258850e+14	1.065818e+04	5.480790e+03	3.780414e+03	0	7.609198e-04
1.020000e+09	1.638961e+13	0.000000e+00	6.935485e-01	3.371251e+14	4.372212e+14	1.253233e+14	1.064643e+04	5.482019e+03	3.781262e+03	0	7.581057e-04
1.030000e+09	1.620777e+13	0.000000e+00	6.935485e-01	3.352053e+14	4.377464e+14	1.247654e+14	1.063476e+04	5.483113e+03	3.782017e+03	0	7.552915e-04
1.040000e+09	1.602728e+13	0.000000e+00	6.935485e-01	3.332995e+14	4.382088e+14	1.242113e+14	1.062315e+04	5.484075e+03	3.782680e+03	0	7.524774e-04
1.050000e+09	1.584814e+13	0.000000e+00	6.935485e-01	3.314076e+14	4.386100e+14	1.236609e+14	1.061160e+04	5.484909e+03	3.783256e+03	0	7.496634e-04
1.060000e+09	1.567036e+13	0.000000e+00	6.935485e-01	3.295297e+14	4.389515e+14	1.231142e+14	1.060012e+04	5.485618e+03	3.783745e+03	0	7.468496e-04
1.070000e+09	1.549393e+13	0.000000e+00	6.935485e-01	3.276656e+14	4.392347e+14	1.225713e+14	1.058871e+04	5.486207e+03	3.784151e+03	0	7.440361e-04
1.080000e+09	1.531885e+13	0.000000e+00	6.935485e-01	3.258155e+14	4.394613e+14	1.220319e+14	1.057736e+04	5.486677e+03	3.784475e+03	0	7.412230e-04
1.090000e+09	1.514512e+13	0.000000e+00	6.935485e-01	3.239792e+14	4.396328e+14	1.214962e+14	1.056607e+04	5.487033e+03	3.784721e+03	0	7.384103e-04
1.100000e+09	1.497274e+13	0.000000e+00	6.935485e-01	3.221568e+14	4.397507e+14	1.209641e+14	1.055485e+04	5.487278e+03	3.784889e+03	0	7.355981e-04
1.110000e+09	1.480171e+13	0.000000e+00	6.935485e-01	3.203481e+14	4.398163e+14	1.204356e+14	1.054369e+04	5.487414e+03	3.784983e+03	0	7.327865e-04
1.120000e+09	1.463202e+13	0.000000e+00	6.935485e-01	3.185532e+14	4.398311e+14	1.199106e+14	1.053260e+04	5.487445e+03	3.785005e+03	0	7.299754e-04
1.130000e+09	1.446366e+13	0.000000e+00	6.935485e-01	3.167721e+14	4.397967e+14	1.193891e+14	1.052156e+04	5.487373e+03	3.784955e+03	0	7.271649e-04
1.140000e+09	1.429664e+13	0.000000e+00	6.935485e-01	3.150045e+14	4.397144e+14	1.188711e+14	1.051059e+04	5.487202e+03	3.784837e+03	0	7.243550e-04
1.150000e+09	1.413095e+13	0.000000e+00	6.935485e-01	3.132507e+14	4.395856e+14	1.183565e+14	1.049968e+04	5.486935e+03	3.784653e+03	0	7.215458e-04
1.160000e+09	1.396658e+13	0.000000e+00	6.935485e-01	3.115103e+14	4.394116e+14	1.178454e+14	1.048883e+04	5.486574e+03	3.784404e+03	0	7.187373e-04
1.170000e+09	1.380353e+13	0.000000e+00	6.935485e-01	3.097835e+14	4.391938e+14	1.173377e+14	1.047804e+04	5.486122e+03	3.784092e+03	0	7.159294e-04
1.180000e+09	1.364179e+13	0.000000e+00	6.935485e-01	3.080701e+14	4.389337e+14	1.168334e+14	1.046731e+04	5.485582e+03	3.783720e+03	0	7.131222e-04
1.190000e+09	1.348136e+13	0.000000e+00	6.935485e-01	3.063701e+14	4.386323e+14	1.163324e+14	1.045663e+04	5.484955e+03	3.783288e+03	0	7.103156e-04
1.200000e+09	1.332222e+13	0.000000e+00	6.935485e-01	3.046833e+14	4.382912e+14	1.158347e+14	1.044602e+04	5.484246e+03	3.782798e+03	0	7.075097e-04
1.210000e+09	1.316438e+13	0.000000e+00	6.935485e-01	3.030098e+14	4.379113e+14	1.153404e+14	1.043547e+04	5.483456e+03	3.782253e+03	0	7.047044e-04
1.220000e+09	1.300783e+13	0.000000e+00	6.935485e-01	3.013494e+14	4.374942e+14	1.148493e+14	1.042497e+04	5.482587e+03	3.781654e+03	0	7.018998e-04
1.230000e+09	1.285255e+13	0.000000e+00	6.935485e-01	2.997022e+14	4.370409e+14	1.143615e+14	1.041453e+04	5.481643e+03	3.781003e+03	0	6.990957e-04
1.240000e+09	1.269855e+13	0.000000e+00	6.935485e-01	2.980679e+14	4.365526e+14	1.138769e+14	1.040415e+04	5.480625e+03	3.780301e+03	0	6.962922e-04
1.250000e+09	1.254580e+13	0.000000e+00	6.935485e-01	2.964465e+14	4.360305e+14	1.133955e+14	1.039382e+04	5.479535e+03	3.779549e+03	0	6.934892e-04
1.260000e+09	1.239432e+13	0.000000e+00	6.935485e-01	2.948379e+14	4.354758e+14	1.129173e+14	1.038355e+04	5.478377e+03	3.778750e+03	0	6.906866e-04
1.270000e+09	1.224408e+13	0.000000e+00	6.935485e-01	2.932421e+14	4.348894e+14	1.124422e+14	1.037334e+04	5.477151e+03	3.777904e+03	0	6.878845e-04
1.280000e+09	1.209508e+13	0.000000e+00	6.935485e-01	2.916590e+14	4.342726e+14	1.119702e+14	1.036318e+04	5.475860e+03	3.777014e+03	0	6.850827e-04
1.290000e+09	1.194730e+13	0.000000e+00	6.935485e-01	2.900884e+14	4.336264e+14	1.115014e+14	1.035307e+04	5.474506e+03	3.776080e+03	0	6.822813e-04
1.300000e+09	1.180075e+13	0.000000e+00	6.935485e-01	2.885303e+14	4.329518e+14	1.110356e+14	1.034302e+04	5.473091e+03	3.775104e+03	0	6.794801e-04
1.310000e+09	1.165542e+13	0.000000e+00	6.935485e-01	2.869846e+14	4.322499e+14	1.105729e+14	1.033303e+04	5.471617e+03	3.774087e+03	0	6.766791e-04
1.320000e+09	1.151128e+13	0.000000e+00	6.935485e-01	2.854512e+14	4.315215e+14	1.101132e+14	1.032308e+04	5.470086e+03	3.773031e+03	0	6.738782e-04
1.330000e+09	1.136835e+13	0.000000e+00	6.935485e-01	2.839301e+14	4.307678e+14	1.096565e+14	1.031319e+04	5.468499e+03	3.771937e+03	0	6.710773e-04
1.340000e+09	1.122659e+13	0.000000e+00	6.935485e-01	2.824210e+14	4.299897e+14	1.092028e+14	1.030336e+04	5.466858e+03	3.770805e+03	0	6.682765e-04
1.350000e+09	1.108602e+13	0.000000e+00	6.935485e-01	2.809240e+14	4.291880e+14	1.087521e+14	1.029357e+04	5.465166e+03	3.769638e+03	0	6.654754e-04
1.360000e+09	1.094661e+13	0.000000e+00	6.935485e-01	2.794389e+14	4.283637e+14	1.083043e+14	1.028384e+04	5.463424e+03	3.768436e+03	0	6.626742e-04
