#t		Qconv[W]	Ri[Rp]		R*[Rp]		Qc[W]		Qm[W]		Qr[W]		Tcmb[K]		Tl[K]		Tup[K]		RiFlag		Bs[T]
0.000000e+00	3.411771e+13	0.000000e+00	6.935483e-01	5.423552e+14	5.216472e+13	2.139431e+14	1.240418e+04	4.017229e+03	2.762442e+03	0	9.673453e-04
1.000000e+07	3.411082e+13	0.000000e+00	6.935483e-01	5.419628e+14	5.511442e+13	2.127577e+14	1.238600e+04	4.047650e+03	2.783362e+03	0	9.672802e-04
2.000000e+07	3.409782e+13	0.000000e+00	6.935483e-01	5.415135e+14	5.817137e+13	2.115812e+14	1.236784e+04	4.077873e+03	2.804144e+03	0	9.671573e-04
3.000000e+07	3.407874e+13	0.000000e+00	6.935483e-01	5.410078e+14	6.133598e+13	2.104134e+14	1.234969e+04	4.107891e+03	2.824786e+03	0	9.669768e-04
4.000000e+07	3.405359e+13	0.000000e+00	6.935483e-01	5.404458e+14	6.460847e+13	2.092544e+14	1.233155e+04	4.137697e+03	2.845282e+03	0	9.667390e-04
5.000000e+07	3.402242e+13	0.000000e+00	6.935483e-01	5.398278e+14	6.798886e+13	2.081040e+14	1.231344e+04	4.167285e+03	2.865628e+03	0	9.664438e-04
6.000000e+07	3.398524e+13	0.000000e+00	6.935483e-01	5.391541e+14	7.147696e+13	2.069622e+14	1.229535e+04	4.196647e+03	2.885819e+03	0	9.660917e-04
7.000000e+07	3.394209e+13	0.000000e+00	6.935483e-01	5.384252e+14	7.507234e+13	2.058289e+14	1.227727e+04	4.225778e+03	2.905851e+03	0	9.656827e-04
8.000000e+07	3.389302e+13	0.000000e+00	6.935483e-01	5.376415e+14	7.877436e+13	2.047040e+14	1.225923e+04	4.254669e+03	2.925718e+03	0	9.652171e-04
9.000000e+07	3.383808e+13	0.000000e+00	6.935483e-01	5.368033e+14	8.258219e+13	2.035875e+14	1.224121e+04	4.283316e+03	2.945417e+03	0	9.646953e-04
1.000000e+08	3.377731e+13	0.000000e+00	6.935483e-01	5.359113e+14	8.649473e+13	2.024793e+14	1.222321e+04	4.311711e+03	2.964943e+03	0	9.641174e-04
1.100000e+08	3.371076e+13	0.000000e+00	6.935483e-01	5.349660e+14	9.051067e+13	2.013793e+14	1.220525e+04	4.339847e+03	2.984291e+03	0	9.634838e-04
1.200000e+08	3.363851e+13	0.000000e+00	6.935483e-01	5.339679e+14	9.462847e+13	2.002875e+14	1.218732e+04	4.367719e+03	3.003457e+03	0	9.627950e-04
1.300000e+08	3.356060e+13	0.000000e+00	6.935483e-01	5.329177e+14	9.884637e+13	1.992037e+14	1.216942e+04	4.395320e+03	3.022437e+03	0	9.620511e-04
1.400000e+08	3.347712e+13	0.000000e+00	6.935483e-01	5.318160e+14	1.031624e+14	1.981280e+14	1.215156e+04	4.422644e+03	3.041226e+03	0	9.612527e-04
1.500000e+08	3.338812e+13	0.000000e+00	6.935483e-01	5.306636e+14	1.075742e+14	1.970602e+14	1.213373e+04	4.449684e+03	3.059820e+03	0	9.604002e-04
1.600000e+08	3.329370e+13	0.000000e+00	6.935483e-01	5.294612e+14	1.120795e+14	1.960003e+14	1.211595e+04	4.476436e+03	3.078216e+03	0	9.594940e-04
1.700000e+08	3.319393e+13	0.000000e+00	6.935483e-01	5.282096e+14	1.166756e+14	1.949482e+14	1.209820e+04	4.502892e+03	3.096408e+03	0	9.585346e-04
1.800000e+08	3.308889e+13	0.000000e+00	6.935483e-01	5.269096e+14	1.213596e+14	1.939039e+14	1.208049e+04	4.529047e+03	3.114394e+03	0	9.575225e-04
1.900000e+08	3.297868e+13	0.000000e+00	6.935483e-01	5.255621e+14	1.261284e+14	1.928673e+14	1.206283e+04	4.554897e+03	3.132169e+03	0	9.564582e-04
2.000000e+08	3.286338e+13	0.000000e+00	6.935483e-01	5.241680e+14	1.309787e+14	1.918383e+14	1.204521e+04	4.580434e+03	3.149730e+03	0	9.553423e-04
2.100000e+08	3.274310e+13	0.000000e+00	6.935483e-01	5.227281e+14	1.359071e+14	1.908168e+14	1.202764e+04	4.605655e+03	3.167073e+03	0	9.541753e-04
2.200000e+08	3.261794e+13	0.000000e+00	6.935483e-01	5.212436e+14	1.409099e+14	1.898029e+14	1.201012e+04	4.630555e+03	3.184195e+03	0	9.529580e-04
2.300000e+08	3.248799e+13	0.000000e+00	6.935483e-01	5.197153e+14	1.459832e+14	1.887964e+14	1.199265e+04	4.655127e+03	3.201093e+03	0	9.516908e-04
2.400000e+08	3.235337e+13	0.000000e+00	6.935483e-01	5.181443e+14	1.511231e+14	1.877973e+14	1.197523e+04	4.679369e+03	3.217763e+03	0	9.503744e-04
2.500000e+08	3.221418e+13	0.000000e+00	6.935483e-01	5.165317e+14	1.563254e+14	1.868055e+14	1.195786e+04	4.703276e+03	3.234202e+03	0	9.490096e-04
2.600000e+08	3.207055e+13	0.000000e+00	6.935483e-01	5.148785e+14	1.615858e+14	1.858209e+14	1.194055e+04	4.726843e+03	3.250408e+03	0	9.475970e-04
2.700000e+08	3.192257e+13	0.000000e+00	6.935483e-01	5.131858e+14	1.668999e+14	1.848436e+14	1.192329e+04	4.750067e+03	3.266378e+03	0	9.461374e-04
2.800000e+08	3.177038e+13	0.000000e+00	6.935483e-01	5.114548e+14	1.722630e+14	1.838734e+14	1.190608e+04	4.772945e+03	3.282110e+03	0	9.446314e-04
2.900000e+08	3.161409e+13	0.000000e+00	6.935483e-01	5.096865e+14	1.776707e+14	1.829103e+14	1.188894e+04	4.795471e+03	3.297600e+03	0	9.430798e-04
3.000000e+08	3.145382e+13	0.000000e+00	6.935483e-01	5.078822e+14	1.831180e+14	1.819542e+14	1.187185e+04	4.817645e+03	3.312848e+03	0	9.414835e-04
3.100000e+08	3.128970e+13	0.000000e+00	6.935483e-01	5.060430e+14	1.886002e+14	1.810051e+14	1.185483e+04	4.839462e+03	3.327850e+03	0	9.398431e-04
3.200000e+08	3.112185e+13	0.000000e+00	6.935483e-01	5.041702e+14	1.941123e+14	1.800628e+14	1.183786e+04	4.860921e+03	3.342606e+03	0	9.381596e-04
3.300000e+08	3.095041e+13	0.000000e+00	6.935483e-01	5.022649e+14	1.996495e+14	1.791275e+14	1.182096e+04	4.882018e+03	3.357114e+03	0	9.364337e-04
3.400000e+08	3.077549e+13	0.000000e+00	6.935483e-01	5.003283e+14	2.052067e+14	1.781989e+14	1.180412e+04	4.902752e+03	3.371371e+03	0	9.346662e-04
3.500000e+08	3.059722e+13	0.000000e+00	6.935483e-01	4.983617e+14	2.107789e+14	1.772770e+14	1.178735e+04	4.923120e+03	3.385378e+03	0	9.328581e-04
3.600000e+08	3.041575e+13	0.000000e+00	6.935483e-01	4.963663e+14	2.163611e+14	1.763619e+14	1.177064e+04	4.943122e+03	3.399132e+03	0	9.310101e-04
3.700000e+08	3.023118e+13	0.000000e+00	6.935483e-01	4.943433e+14	2.219483e+14	1.754533e+14	1.175400e+04	4.962756e+03	3.412633e+03	0	9.291232e-04
3.800000e+08	3.004367e+13	0.000000e+00	6.935483e-01	4.922939e+14	2.275355e+14	1.745514e+14	1.173743e+04	4.982021e+03	3.425881e+03	0	9.271982e-04
3.900000e+08	2.985333e+13	0.000000e+00	6.935483e-01	4.902194e+14	2.331176e+14	1.736559e+14	1.172093e+04	5.000917e+03	3.438874e+03	0	9.252359e-04
4.000000e+08	2.966029e+13	0.000000e+00	6.935483e-01	4.881211e+14	2.386897e+14	1.727669e+14	1.170449e+04	5.019442e+03	3.451613e+03	0	9.232374e-04
4.100000e+08	2.946470e+13	0.000000e+00	6.935483e-01	4.860000e+14	2.442471e+14	1.718844e+14	1.168813e+04	5.037596e+03	3.464097e+03	0	9.212035e-04
4.200000e+08	2.926666e+13	0.000000e+00	6.935483e-01	4.838575e+14	2.497848e+14	1.710082e+14	1.167184e+04	5.055380e+03	3.476326e+03	0	9.191350e-04
4.300000e+08	2.906632e+13	0.000000e+00	6.935483e-01	4.816948e+14	2.552982e+14	1.701383e+14	1.165561e+04	5.072794e+03	3.488301e+03	0	9.170329e-04
4.400000e+08	2.886380e+13	0.000000e+00	6.935483e-01	4.795130e+14	2.607826e+14	1.692746e+14	1.163946e+04	5.089839e+03	3.500022e+03	0	9.148981e-04
4.500000e+08	2.865922e+13	0.000000e+00	6.935483e-01	4.773134e+14	2.662335e+14	1.684172e+14	1.162339e+04	5.106515e+03	3.511489e+03	0	9.127315e-04
4.600000e+08	2.845271e+13	0.000000e+00	6.935483e-01	4.750970e+14	2.716463e+14	1.675659e+14	1.160739e+04	5.122823e+03	3.522703e+03	0	9.105339e-04
4.700000e+08	2.824440e+13	0.000000e+00	6.935483e-01	4.728652e+14	2.770170e+14	1.667208e+14	1.159146e+04	5.138765e+03	3.533665e+03	0	9.083063e-04
4.800000e+08	2.803440e+13	0.000000e+00	6.935483e-01	4.706189e+14	2.823412e+14	1.658817e+14	1.157560e+04	5.154341e+03	3.544376e+03	0	9.060496e-04
4.900000e+08	2.782283e+13	0.000000e+00	6.935483e-01	4.683594e+14	2.876149e+14	1.650486e+14	1.155982e+04	5.169555e+03	3.554838e+03	0	9.037646e-04
5.000000e+08	2.760981e+13	0.000000e+00	6.935483e-01	4.660877e+14	2.928343e+14	1.642214e+14	1.154412e+04	5.184407e+03	3.565051e+03	0	9.014522e-04
5.100000e+08	2.739546e+13	0.000000e+00	6.935483e-01	4.638049e+14	2.979955e+14	1.634002e+14	1.152849e+04	5.198900e+03	3.575018e+03	0	8.991133e-04
5.200000e+08	2.717989e+13	0.000000e+00	6.935483e-01	4.615122e+14	3.030949e+14	1.625848e+14	1.151294e+04	5.213037e+03	3.584739e+03	0	8.967488e-04
5.300000e+08	2.696321e+13	0.000000e+00	6.935483e-01	4.592104e+14	3.081292e+14	1.617752e+14	1.149747e+04	5.226819e+03	3.594216e+03	0	8.943594e-04
5.400000e+08	2.674553e+13	0.000000e+00	6.935483e-01	4.569007e+14	3.130951e+14	1.609715e+14	1.148207e+04	5.240251e+03	3.603452e+03	0	8.919461e-04
5.500000e+08	2.652695e+13	0.000000e+00	6.935483e-01	4.545841e+14	3.179894e+14	1.601734e+14	1.146675e+04	5.253333e+03	3.612448e+03	0	8.895097e-04
5.600000e+08	2.630758e+13	0.000000e+00	6.935483e-01	4.522614e+14	3.228093e+14	1.593810e+14	1.145151e+04	5.266071e+03	3.621207e+03	0	8.870509e-04
5.700000e+08	2.608752e+13	0.000000e+00	6.935483e-01	4.499338e+14	3.275519e+14	1.585942e+14	1.143635e+04	5.278466e+03	3.629731e+03	0	8.845707e-04
5.800000e+08	2.586687e+13	0.000000e+00	6.935483e-01	4.476020e+14	3.322147e+14	1.578130e+14	1.142126e+04	5.290523e+03	3.638022e+03	0	8.820697e-04
5.900000e+08	2.564573e+13	0.000000e+00	6.935483e-01	4.452670e+14	3.367953e+14	1.570373e+14	1.140625e+04	5.302244e+03	3.646082e+03	0	8.795488e-04
6.000000e+08	2.542418e+13	0.000000e+00	6.935483e-01	4.429296e+14	3.412914e+14	1.562672e+14	1.139132e+04	5.313635e+03	3.653915e+03	0	8.770087e-04
6.100000e+08	2.520232e+13	0.000000e+00	6.935483e-01	4.405907e+14	3.457009e+14	1.555025e+14	1.137647e+04	5.324698e+03	3.661522e+03	0	8.744502e-04
6.200000e+08	2.498023e+13	0.000000e+00	6.935483e-01	4.382511e+14	3.500220e+14	1.547432e+14	1.136169e+04	5.335437e+03	3.668907e+03	0	8.718740e-04
6.300000e+08	2.475800e+13	0.000000e+00	6.935483e-01	4.359117e+14	3.542530e+14	1.539892e+14	1.134700e+04	5.345857e+03	3.676072e+03	0	8.692809e-04
6.400000e+08	2.453571e+13	0.000000e+00	6.935483e-01	4.335730e+14	3.583922e+14	1.532406e+14	1.133238e+04	5.355962e+03	3.683021e+03	0	8.666714e-04
6.500000e+08	2.431345e+13	0.000000e+00	6.935483e-01	4.312360e+14	3.624383e+14	1.524972e+14	1.131784e+04	5.365755e+03	3.689755e+03	0	8.640464e-04
6.600000e+08	2.409127e+13	0.000000e+00	6.935483e-01	4.289013e+14	3.663901e+14	1.517591e+14	1.130338e+04	5.375242e+03	3.696279e+03	0	8.614065e-04
6.700000e+08	2.386926e+13	0.000000e+00	6.935483e-01	4.265695e+14	3.702465e+14	1.510261e+14	1.128900e+04	5.384427e+03	3.702595e+03	0	8.587523e-04
6.800000e+08	2.364750e+13	0.000000e+00	6.935483e-01	4.242414e+14	3.740066e+14	1.502983e+14	1.127469e+04	5.393314e+03	3.708706e+03	0	8.560845e-04
6.900000e+08	2.342604e+13	0.000000e+00	6.935483e-01	4.219176e+14	3.776697e+14	1.495757e+14	1.126046e+04	5.401908e+03	3.714616e+03	0	8.534037e-04
7.000000e+08	2.320495e+13	0.000000e+00	6.935483e-01	4.195986e+14	3.812350e+14	1.488580e+14	1.124632e+04	5.410214e+03	3.720327e+03	0	8.507105e-04
7.100000e+08	2.298429e+13	0.000000e+00	6.935483e-01	4.172851e+14	3.847023e+14	1.481454e+14	1.123224e+04	5.418236e+03	3.725843e+03	0	8.480054e-04
7.200000e+08	2.276413e+13	0.000000e+00	6.935483e-01	4.149776e+14	3.880712e+14	1.474378e+14	1.121825e+04	5.425978e+03	3.731167e+03	0	8.452891e-04
7.300000e+08	2.254452e+13	0.000000e+00	6.935483e-01	4.126766e+14	3.913413e+14	1.467351e+14	1.120433e+04	5.433446e+03	3.736303e+03	0	8.425621e-04
7.400000e+08	2.232551e+13	0.000000e+00	6.935483e-01	4.103826e+14	3.945128e+14	1.460374e+14	1.119049e+04	5.440645e+03	3.741253e+03	0	8.398248e-04
7.500000e+08	2.210716e+13	0.000000e+00	6.935483e-01	4.080962e+14	3.975857e+14	1.453445e+14	1.117673e+04	5.447578e+03	3.746021e+03	0	8.370779e-04
7.600000e+08	2.188952e+13	0.000000e+00	6.935483e-01	4.058177e+14	4.005600e+14	1.446564e+14	1.116304e+04	5.454252e+03	3.750610e+03	0	8.343219e-04
7.700000e+08	2.167263e+13	0.000000e+00	6.935483e-01	4.035476e+14	4.034362e+14	1.439731e+14	1.114943e+04	5.460671e+03	3.755024e+03	0	8.315571e-04
7.800000e+08	2.145653e+13	0.000000e+00	6.935483e-01	4.012864e+14	4.062147e+14	1.432946e+14	1.113590e+04	5.466839e+03	3.759265e+03	0	8.287841e-04
7.900000e+08	2.124128e+13	0.000000e+00	6.935483e-01	3.990344e+14	4.088959e+14	1.426208e+14	1.112244e+04	5.472762e+03	3.763338e+03	0	8.260033e-04
8.000000e+08	2.102691e+13	0.000000e+00	6.935483e-01	3.967919e+14	4.114805e+14	1.419516e+14	1.110906e+04	5.478443e+03	3.767245e+03	0	8.232152e-04
8.100000e+08	2.081345e+13	0.000000e+00	6.935483e-01	3.945594e+14	4.139691e+14	1.412871e+14	1.109575e+04	5.483889e+03	3.770990e+03	0	8.204201e-04
8.200000e+08	2.060095e+13	0.000000e+00	6.935483e-01	3.923371e+14	4.163624e+14	1.406272e+14	1.108251e+04	5.489104e+03	3.774576e+03	0	8.176184e-04
8.300000e+08	2.038944e+13	0.000000e+00	6.935483e-01	3.901254e+14	4.186616e+14	1.399718e+14	1.106936e+04	5.494092e+03	3.778006e+03	0	8.148106e-04
8.400000e+08	2.017894e+13	0.000000e+00	6.935483e-01	3.879245e+14	4.208672e+14	1.393210e+14	1.105627e+04	5.498859e+03	3.781283e+03	0	8.119969e-04
8.500000e+08	1.996950e+13	0.000000e+00	6.935483e-01	3.857347e+14	4.229805e+14	1.386747e+14	1.104326e+04	5.503408e+03	3.784412e+03	0	8.091778e-04
8.600000e+08	1.976114e+13	0.000000e+00	6.935483e-01	3.835564e+14	4.250024e+14	1.380328e+14	1.103032e+04	5.507745e+03	3.787394e+03	0	8.063536e-04
8.700000e+08	1.955387e+13	0.000000e+00	6.935483e-01	3.813896e+14	4.269342e+14	1.373953e+14	1.101746e+04	5.511874e+03	3.790234e+03	0	8.035246e-04
8.800000e+08	1.934774e+13	0.000000e+00	6.935483e-01	3.792347e+14	4.287769e+14	1.367622e+14	1.100466e+04	5.515801e+03	3.792934e+03	0	8.006910e-04
8.900000e+08	1.914275e+13	0.000000e+00	6.935483e-01	3.770919e+14	4.305319e+14	1.361335e+14	1.099194e+04	5.519528e+03	3.795497e+03	0	7.978533e-04
9.000000e+08	1.893894e+13	0.000000e+00	6.935483e-01	3.749612e+14	4.322003e+14	1.355091e+14	1.097929e+04	5.523061e+03	3.797926e+03	0	7.950116e-04
9.100000e+08	1.873632e+13	0.000000e+00	6.935483e-01	3.728430e+14	4.337835e+14	1.348890e+14	1.096672e+04	5.526405e+03	3.800226e+03	0	7.921663e-04
9.200000e+08	1.853491e+13	0.000000e+00	6.935483e-01	3.707374e+14	4.352830e+14	1.342731e+14	1.095421e+04	5.529563e+03	3.802397e+03	0	7.893175e-04
9.300000e+08	1.833472e+13	0.000000e+00	6.935483e-01	3.686444e+14	4.367000e+14	1.336614e+14	1.094177e+04	5.532540e+03	3.804445e+03	0	7.864655e-04
9.400000e+08	1.813578e+13	0.000000e+00	6.935483e-01	3.665643e+14	4.380361e+14	1.330539e+14	1.092941e+04	5.535341e+03	3.806371e+03	0	7.836106e-04
9.500000e+08	1.793809e+13	0.000000e+00	6.935483e-01	3.644972e+14	4.392926e+14	1.324506e+14	1.091711e+04	5.537969e+03	3.808178e+03	0	7.807529e-04
9.600000e+08	1.774167e+13	0.000000e+00	6.935483e-01	3.624431e+14	4.404709e+14	1.318513e+14	1.090488e+04	5.540429e+03	3.809869e+03	0	7.778927e-04
9.700000e+08	1.754652e+13	0.000000e+00	6.935483e-01	3.604023e+14	4.415727e+14	1.312562e+14	1.089273e+04	5.542724e+03	3.811447e+03	0	7.750301e-04
9.800000e+08	1.735267e+13	0.000000e+00	6.935483e-01	3.583747e+14	4.425995e+14	1.306651e+14	1.088064e+04	5.544859e+03	3.812915e+03	0	7.721654e-04
9.900000e+08	1.716011e+13	0.000000e+00	6.935483e-01	3.563604e+14	4.435526e+14	1.300780e+14	1.086861e+04	5.546838e+03	3.814276e+03	0	7.692986e-04
1.000000e+09	1.696886e+13	0.000000e+00	6.935483e-01	3.543595e+14	4.444337e+14	1.294949e+14	1.085666e+04	5.548664e+03	3.815532e+03	0	7.664300e-04
1.010000e+09	1.677892e+13	0.000000e+00	6.935483e-01	3.523721e+14	4.452443e+14	1.289158e+14	1.084477e+04	5.550342e+03	3.816686e+03	0	7.635596e-04
1.020000e+09	1.659030e+13	0.000000e+00	6.935483e-01	3.503982e+14	4.459860e+14	1.283405e+14	1.083295e+04	5.551875e+03	3.817740e+03	0	7.606876e-04
1.030000e+09	1.640301e+13	0.000000e+00	6.935483e-01	3.484379e+14	4.466601e+14	1.277692e+14	1.082119e+04	5.553267e+03	3.818697e+03	0	7.578142e-04
1.040000e+09	1.621704e+13	0.000000e+00	6.935483e-01	3.464911e+14	4.472685e+14	1.272017e+14	1.080950e+04	5.554522e+03	3.819560e+03	0	7.549394e-04
1.050000e+09	1.603240e+13	0.000000e+00	6.935483e-01	3.445580e+14	4.478123e+14	1.266381e+14	1.079788e+04	5.555643e+03	3.820331e+03	0	7.520634e-04
1.060000e+09	1.584910e+13	0.000000e+00	6.935483e-01	3.426384e+14	4.482935e+14	1.260783e+14	1.078632e+04	5.556633e+03	3.821012e+03	0	7.491862e-04
1.070000e+09	1.566713e+13	0.000000e+00	6.935483e-01	3.407325e+14	4.487133e+14	1.255222e+14	1.077483e+04	5.557497e+03	3.821606e+03	0	7.463080e-04
1.080000e+09	1.548650e+13	0.000000e+00	6.935483e-01	3.388402e+14	4.490734e+14	1.249699e+14	1.076339e+04	5.558237e+03	3.822115e+03	0	7.434288e-04
1.090000e+09	1.530721e+13	0.000000e+00	6.935483e-01	3.369615e+14	4.493751e+14	1.244213e+14	1.075203e+04	5.558857e+03	3.822542e+03	0	7.405486e-04
1.100000e+09	1.512925e+13	0.000000e+00	6.935483e-01	3.350965e+14	4.496200e+14	1.238764e+14	1.074072e+04	5.559361e+03	3.822888e+03	0	7.376676e-04
1.110000e+09	1.495263e+13	0.000000e+00	6.935483e-01	3.332450e+14	4.498097e+14	1.233351e+14	1.072948e+04	5.559750e+03	3.823155e+03	0	7.347858e-04
1.120000e+09	1.477734e+13	0.000000e+00	6.935483e-01	3.314071e+14	4.499455e+14	1.227975e+14	1.071830e+04	5.560029e+03	3.823347e+03	0	7.319032e-04
1.130000e+09	1.460338e+13	0.000000e+00	6.935483e-01	3.295827e+14	4.500288e+14	1.222634e+14	1.070718e+04	5.560200e+03	3.823465e+03	0	7.290199e-04
1.140000e+09	1.443075e+13	0.000000e+00	6.935483e-01	3.277718e+14	4.500611e+14	1.217329e+14	1.069612e+04	5.560266e+03	3.823510e+03	0	7.261359e-04
1.150000e+09	1.425945e+13	0.000000e+00	6.935483e-01	3.259745e+14	4.500441e+14	1.212060e+14	1.068512e+04	5.560231e+03	3.823486e+03	0	7.232512e-04
1.160000e+09	1.408947e+13	0.000000e+00	6.935483e-01	3.241905e+14	4.499787e+14	1.206826e+14	1.067418e+04	5.560097e+03	3.823394e+03	0	7.203658e-04
1.170000e+09	1.392080e+13	0.000000e+00	6.935483e-01	3.224199e+14	4.498667e+14	1.201627e+14	1.066331e+04	5.559867e+03	3.823236e+03	0	7.174798e-04
1.180000e+09	1.375345e+13	0.000000e+00	6.935483e-01	3.206626e+14	4.497090e+14	1.196462e+14	1.065249e+04	5.559543e+03	3.823013e+03	0	7.145931e-04
1.190000e+09	1.358741e+13	0.000000e+00	6.935483e-01	3.189187e+14	4.495074e+14	1.191332e+14	1.064173e+04	5.559129e+03	3.822729e+03	0	7.117058e-04
1.200000e+09	1.342268e+13	0.000000e+00	6.935483e-01	3.171879e+14	4.492630e+14	1.186235e+14	1.063103e+04	5.558627e+03	3.822383e+03	0	7.088178e-04
1.210000e+09	1.325924e+13	0.000000e+00	6.935483e-01	3.154703e+14	4.489771e+14	1.181173e+14	1.062039e+04	5.558040e+03	3.821979e+03	0	7.059291e-04
1.220000e+09	1.309709e+13	0.000000e+00	6.935483e-01	3.137658e+14	4.486509e+14	1.176144e+14	1.060980e+04	5.557369e+03	3.821518e+03	0	7.030397e-04
1.230000e+09	1.293623e+13	0.000000e+00	6.935483e-01	3.120743e+14	4.482858e+14	1.171148e+14	1.059927e+04	5.556618e+03	3.821001e+03	0	7.001496e-04
1.240000e+09	1.277665e+13	0.000000e+00	6.935483e-01	3.103958e+14	4.478829e+14	1.166185e+14	1.058880e+04	5.555788e+03	3.820431e+03	0	6.972586e-04
1.250000e+09	1.261834e+13	0.000000e+00	6.935483e-01	3.087302e+14	4.474434e+14	1.161255e+14	1.057838e+04	5.554883e+03	3.819808e+03	0	6.943668e-04
1.260000e+09	1.246130e+13	0.000000e+00	6.935483e-01	3.070774e+14	4.469686e+14	1.156358e+14	1.056802e+04	5.553904e+03	3.819135e+03	0	6.914742e-04
1.270000e+09	1.230551e+13	0.000000e+00	6.935483e-01	3.054374e+14	4.464595e+14	1.151493e+14	1.055772e+04	5.552853e+03	3.818413e+03	0	6.885806e-04
1.280000e+09	1.215098e+13	0.000000e+00	6.935483e-01	3.038100e+14	4.459172e+14	1.146660e+14	1.054747e+04	5.551733e+03	3.817643e+03	0	6.856860e-04
1.290000e+09	1.199769e+13	0.000000e+00	6.935483e-01	3.021952e+14	4.453430e+14	1.141858e+14	1.053728e+04	5.550546e+03	3.816826e+03	0	6.827904e-04
1.300000e+09	1.184563e+13	0.000000e+00	6.935483e-01	3.005930e+14	4.447380e+14	1.137088e+14	1.052713e+04	5.549294e+03	3.815965e+03	0	6.798937e-04
1.310000e+09	1.169481e+13	0.000000e+00	6.935483e-01	2.990031e+14	4.441029e+14	1.132350e+14	1.051705e+04	5.547979e+03	3.815061e+03	0	6.769957e-04
1.320000e+09	1.154520e+13	0.000000e+00	6.935483e-01	2.974256e+14	4.434391e+14	1.127642e+14	1.050701e+04	5.546602e+03	3.814114e+03	0	6.740965e-04
1.330000e+09	1.139681e+13	0.000000e+00	6.935483e-01	2.958604e+14	4.427475e+14	1.122965e+14	1.049703e+04	5.545166e+03	3.813127e+03	0	6.711959e-04
1.340000e+09	1.124961e+13	0.000000e+00	6.935483e-01	2.943073e+14	4.420290e+14	1.118319e+14	1.048710e+04	5.543673e+03	3.812100e+03	0	6.682938e-04
1.350000e+09	1.110362e+13	0.000000e+00	6.935483e-01	2.927664e+14	4.412847e+14	1.113703e+14	1.047723e+04	5.542124e+03	3.811035e+03	0	6.653902e-04
1.360000e+09	1.095881e+13	0.000000e+00	6.935483e-01	2.912374e+14	4.405153e+14	1.109117e+14	1.046740e+04	5.540521e+03	3.809933e+03	0	6.624849e-04
