#t		Qconv[W]	Ri[Rp]		R*[Rp]		Qc[W]		Qm[W]		Qr[W]		Tcmb[K]		Tl[K]		Tup[K]		RiFlag		Bs[T]
0.000000e+00	4.059225e+13	0.000000e+00	6.854839e-01	6.620704e+14	4.718546e+13	2.397321e+14	1.364058e+04	4.202142e+03	2.824987e+03	0	1.032992e-03
1.000000e+07	4.060193e+13	0.000000e+00	6.854839e-01	6.617168e+14	5.005470e+13	2.384038e+14	1.362028e+04	4.235597e+03	2.847478e+03	0	1.033074e-03
2.000000e+07	4.060430e+13	0.000000e+00	6.854839e-01	6.612974e+14	5.304148e+13	2.370854e+14	1.360000e+04	4.268871e+03	2.869848e+03	0	1.033095e-03
3.000000e+07	4.059935e+13	0.000000e+00	6.854839e-01	6.608124e+14	5.614714e+13	2.357769e+14	1.357973e+04	4.301958e+03	2.892091e+03	0	1.033053e-03
4.000000e+07	4.058710e+13	0.000000e+00	6.854839e-01	6.602619e+14	5.937284e+13	2.344782e+14	1.355947e+04	4.334850e+03	2.914204e+03	0	1.032949e-03
5.000000e+07	4.056756e+13	0.000000e+00	6.854839e-01	6.596462e+14	6.271957e+13	2.331891e+14	1.353923e+04	4.367541e+03	2.936181e+03	0	1.032783e-03
6.000000e+07	4.054076e+13	0.000000e+00	6.854839e-01	6.589654e+14	6.618810e+13	2.319097e+14	1.351901e+04	4.400024e+03	2.958018e+03	0	1.032555e-03
7.000000e+07	4.050672e+13	0.000000e+00	6.854839e-01	6.582198e+14	6.977898e+13	2.306398e+14	1.349881e+04	4.432291e+03	2.979711e+03	0	1.032266e-03
8.000000e+07	4.046547e+13	0.000000e+00	6.854839e-01	6.574098e+14	7.349255e+13	2.293793e+14	1.347863e+04	4.464337e+03	3.001254e+03	0	1.031916e-03
9.000000e+07	4.041704e+13	0.000000e+00	6.854839e-01	6.565356e+14	7.732894e+13	2.281282e+14	1.345848e+04	4.496153e+03	3.022643e+03	0	1.031504e-03
1.000000e+08	4.036147e+13	0.000000e+00	6.854839e-01	6.555978e+14	8.128802e+13	2.268864e+14	1.343835e+04	4.527733e+03	3.043873e+03	0	1.031031e-03
1.100000e+08	4.029882e+13	0.000000e+00	6.854839e-01	6.545967e+14	8.536945e+13	2.256538e+14	1.341825e+04	4.559069e+03	3.064940e+03	0	1.030497e-03
1.200000e+08	4.022912e+13	0.000000e+00	6.854839e-01	6.535328e+14	8.957263e+13	2.244304e+14	1.339819e+04	4.590156e+03	3.085839e+03	0	1.029903e-03
1.300000e+08	4.015244e+13	0.000000e+00	6.854839e-01	6.524066e+14	9.389673e+13	2.232160e+14	1.337815e+04	4.620986e+03	3.106565e+03	0	1.029248e-03
1.400000e+08	4.006883e+13	0.000000e+00	6.854839e-01	6.512189e+14	9.834064e+13	2.220106e+14	1.335815e+04	4.651552e+03	3.127114e+03	0	1.028533e-03
1.500000e+08	3.997836e+13	0.000000e+00	6.854839e-01	6.499701e+14	1.029030e+14	2.208141e+14	1.333819e+04	4.681848e+03	3.147481e+03	0	1.027758e-03
1.600000e+08	3.988111e+13	0.000000e+00	6.854839e-01	6.486610e+14	1.075823e+14	2.196264e+14	1.331827e+04	4.711867e+03	3.167662e+03	0	1.026924e-03
1.700000e+08	3.977714e+13	0.000000e+00	6.854839e-01	6.472922e+14	1.123767e+14	2.184475e+14	1.329838e+04	4.741601e+03	3.187652e+03	0	1.026031e-03
1.800000e+08	3.966654e+13	0.000000e+00	6.854839e-01	6.458646e+14	1.172839e+14	2.172773e+14	1.327854e+04	4.771046e+03	3.207446e+03	0	1.025079e-03
1.900000e+08	3.954939e+13	0.000000e+00	6.854839e-01	6.443790e+14	1.223018e+14	2.161157e+14	1.325874e+04	4.800194e+03	3.227042e+03	0	1.024069e-03
2.000000e+08	3.942579e+13	0.000000e+00	6.854839e-01	6.428363e+14	1.274277e+14	2.149627e+14	1.323899e+04	4.829040e+03	3.246434e+03	0	1.023001e-03
2.100000e+08	3.929582e+13	0.000000e+00	6.854839e-01	6.412372e+14	1.326588e+14	2.138181e+14	1.321928e+04	4.857576e+03	3.265618e+03	0	1.021876e-03
2.200000e+08	3.915960e+13	0.000000e+00	6.854839e-01	6.395828e+14	1.379919e+14	2.126820e+14	1.319962e+04	4.885798e+03	3.284591e+03	0	1.020694e-03
2.300000e+08	3.901723e+13	0.000000e+00	6.854839e-01	6.378741e+14	1.434239e+14	2.115541e+14	1.318001e+04	4.913699e+03	3.303348e+03	0	1.019455e-03
2.400000e+08	3.886880e+13	0.000000e+00	6.854839e-01	6.361120e+14	1.489510e+14	2.104346e+14	1.316046e+04	4.941275e+03	3.321886e+03	0	1.018161e-03
2.500000e+08	3.871445e+13	0.000000e+00	6.854839e-01	6.342977e+14	1.545697e+14	2.093232e+14	1.314096e+04	4.968518e+03	3.340201e+03	0	1.016811e-03
2.600000e+08	3.855428e+13	0.000000e+00	6.854839e-01	6.324322e+14	1.602759e+14	2.082200e+14	1.312151e+04	4.995425e+03	3.358290e+03	0	1.015407e-03
2.700000e+08	3.838842e+13	0.000000e+00	6.854839e-01	6.305166e+14	1.660655e+14	2.071249e+14	1.310212e+04	5.021989e+03	3.376149e+03	0	1.013949e-03
2.800000e+08	3.821700e+13	0.000000e+00	6.854839e-01	6.285522e+14	1.719340e+14	2.060377e+14	1.308279e+04	5.048207e+03	3.393774e+03	0	1.012438e-03
2.900000e+08	3.804014e+13	0.000000e+00	6.854839e-01	6.265401e+14	1.778771e+14	2.049585e+14	1.306352e+04	5.074074e+03	3.411164e+03	0	1.010873e-03
3.000000e+08	3.785797e+13	0.000000e+00	6.854839e-01	6.244815e+14	1.838899e+14	2.038872e+14	1.304432e+04	5.099584e+03	3.428314e+03	0	1.009257e-03
3.100000e+08	3.767063e+13	0.000000e+00	6.854839e-01	6.223778e+14	1.899675e+14	2.028236e+14	1.302517e+04	5.124735e+03	3.445222e+03	0	1.007590e-03
3.200000e+08	3.747826e+13	0.000000e+00	6.854839e-01	6.202301e+14	1.961051e+14	2.017678e+14	1.300609e+04	5.149522e+03	3.461886e+03	0	1.005872e-03
3.300000e+08	3.728101e+13	0.000000e+00	6.854839e-01	6.180397e+14	2.022975e+14	2.007197e+14	1.298707e+04	5.173942e+03	3.478302e+03	0	1.004104e-03
3.400000e+08	3.707900e+13	0.000000e+00	6.854839e-01	6.158081e+14	2.085393e+14	1.996792e+14	1.296813e+04	5.197990e+03	3.494470e+03	0	1.002287e-03
3.500000e+08	3.687240e+13	0.000000e+00	6.854839e-01	6.135365e+14	2.148254e+14	1.986462e+14	1.294925e+04	5.221665e+03	3.510385e+03	0	1.000422e-03
3.600000e+08	3.666134e+13	0.000000e+00	6.854839e-01	6.112263e+14	2.211502e+14	1.976207e+14	1.293043e+04	5.244963e+03	3.526048e+03	0	9.985095e-04
3.700000e+08	3.644598e+13	0.000000e+00	6.854839e-01	6.088788e+14	2.275083e+14	1.966027e+14	1.291169e+04	5.267880e+03	3.541455e+03	0	9.965504e-04
3.800000e+08	3.622646e+13	0.000000e+00	6.854839e-01	6.064955e+14	2.338940e+14	1.955920e+14	1.289303e+04	5.290416e+03	3.556605e+03	0	9.945456e-04
3.900000e+08	3.600295e+13	0.000000e+00	6.854839e-01	6.040778e+14	2.403019e+14	1.945886e+14	1.287443e+04	5.312568e+03	3.571497e+03	0	9.924960e-04
4.000000e+08	3.577558e+13	0.000000e+00	6.854839e-01	6.016269e+14	2.467262e+14	1.935925e+14	1.285591e+04	5.334334e+03	3.586130e+03	0	9.904023e-04
4.100000e+08	3.554452e+13	0.000000e+00	6.854839e-01	5.991444e+14	2.531614e+14	1.926035e+14	1.283746e+04	5.355713e+03	3.600502e+03	0	9.882655e-04
4.200000e+08	3.530992e+13	0.000000e+00	6.854839e-01	5.966317e+14	2.596018e+14	1.916217e+14	1.281909e+04	5.376702e+03	3.614613e+03	0	9.860865e-04
4.300000e+08	3.507193e+13	0.000000e+00	6.854839e-01	5.940900e+14	2.660418e+14	1.906470e+14	1.280080e+04	5.397302e+03	3.628462e+03	0	9.838661e-04
4.400000e+08	3.483071e+13	0.000000e+00	6.854839e-01	5.915210e+14	2.724760e+14	1.896792e+14	1.278259e+04	5.417512e+03	3.642048e+03	0	9.816052e-04
4.500000e+08	3.458641e+13	0.000000e+00	6.854839e-01	5.889259e+14	2.788986e+14	1.887184e+14	1.276445e+04	5.437331e+03	3.655372e+03	0	9.793048e-04
4.600000e+08	3.433918e+13	0.000000e+00	6.854839e-01	5.863061e+14	2.853042e+14	1.877646e+14	1.274639e+04	5.456758e+03	3.668432e+03	0	9.769658e-04
4.700000e+08	3.408917e+13	0.000000e+00	6.854839e-01	5.836631e+14	2.916876e+14	1.868175e+14	1.272841e+04	5.475795e+03	3.681230e+03	0	9.745891e-04
4.800000e+08	3.383654e+13	0.000000e+00	6.854839e-01	5.809982e+14	2.980435e+14	1.858772e+14	1.271052e+04	5.494440e+03	3.693765e+03	0	9.721756e-04
4.900000e+08	3.358143e+13	0.000000e+00	6.854839e-01	5.783127e+14	3.043664e+14	1.849437e+14	1.269270e+04	5.512696e+03	3.706038e+03	0	9.697262e-04
5.000000e+08	3.332400e+13	0.000000e+00	6.854839e-01	5.756081e+14	3.106515e+14	1.840169e+14	1.267497e+04	5.530562e+03	3.718049e+03	0	9.672419e-04
5.100000e+08	3.306438e+13	0.000000e+00	6.854839e-01	5.728856e+14	3.168937e+14	1.830966e+14	1.265732e+04	5.548040e+03	3.729799e+03	0	9.647236e-04
5.200000e+08	3.280273e+13	0.000000e+00	6.854839e-01	5.701466e+14	3.230883e+14	1.821830e+14	1.263975e+04	5.565132e+03	3.741289e+03	0	9.621721e-04
5.300000e+08	3.253919e+13	0.000000e+00	6.854839e-01	5.673924e+14	3.292304e+14	1.812758e+14	1.262227e+04	5.581838e+03	3.752520e+03	0	9.595884e-04
5.400000e+08	3.227389e+13	0.000000e+00	6.854839e-01	5.646242e+14	3.353157e+14	1.803751e+14	1.260487e+04	5.598160e+03	3.763493e+03	0	9.569734e-04
5.500000e+08	3.200698e+13	0.000000e+00	6.854839e-01	5.618432e+14	3.413397e+14	1.794809e+14	1.258756e+04	5.614101e+03	3.774210e+03	0	9.543280e-04
5.600000e+08	3.173859e+13	0.000000e+00	6.854839e-01	5.590509e+14	3.472981e+14	1.785929e+14	1.257033e+04	5.629663e+03	3.784671e+03	0	9.516530e-04
5.700000e+08	3.146886e+13	0.000000e+00	6.854839e-01	5.562482e+14	3.531869e+14	1.777113e+14	1.255318e+04	5.644848e+03	3.794880e+03	0	9.489494e-04
5.800000e+08	3.119791e+13	0.000000e+00	6.854839e-01	5.534365e+14	3.590023e+14	1.768360e+14	1.253613e+04	5.659659e+03	3.804837e+03	0	9.462181e-04
5.900000e+08	3.092587e+13	0.000000e+00	6.854839e-01	5.506168e+14	3.647405e+14	1.759668e+14	1.251915e+04	5.674099e+03	3.814544e+03	0	9.434598e-04
6.000000e+08	3.065287e+13	0.000000e+00	6.854839e-01	5.477904e+14	3.703981e+14	1.751038e+14	1.250227e+04	5.688170e+03	3.824004e+03	0	9.406754e-04
6.100000e+08	3.037904e+13	0.000000e+00	6.854839e-01	5.449582e+14	3.759717e+14	1.742469e+14	1.248547e+04	5.701876e+03	3.833219e+03	0	9.378659e-04
6.200000e+08	3.010448e+13	0.000000e+00	6.854839e-01	5.421215e+14	3.814582e+14	1.733961e+14	1.246876e+04	5.715221e+03	3.842190e+03	0	9.350319e-04
6.300000e+08	2.982931e+13	0.000000e+00	6.854839e-01	5.392812e+14	3.868546e+14	1.725512e+14	1.245213e+04	5.728208e+03	3.850920e+03	0	9.321743e-04
6.400000e+08	2.955365e+13	0.000000e+00	6.854839e-01	5.364383e+14	3.921581e+14	1.717124e+14	1.243559e+04	5.740840e+03	3.859413e+03	0	9.292939e-04
6.500000e+08	2.927760e+13	0.000000e+00	6.854839e-01	5.335938e+14	3.973665e+14	1.708794e+14	1.241914e+04	5.753121e+03	3.867669e+03	0	9.263916e-04
6.600000e+08	2.900128e+13	0.000000e+00	6.854839e-01	5.307487e+14	4.024769e+14	1.700523e+14	1.240278e+04	5.765056e+03	3.875693e+03	0	9.234679e-04
6.700000e+08	2.872478e+13	0.000000e+00	6.854839e-01	5.279040e+14	4.074874e+14	1.692310e+14	1.238650e+04	5.776648e+03	3.883486e+03	0	9.205237e-04
6.800000e+08	2.844821e+13	0.000000e+00	6.854839e-01	5.250604e+14	4.123960e+14	1.684155e+14	1.237031e+04	5.787902e+03	3.891052e+03	0	9.175598e-04
6.900000e+08	2.817166e+13	0.000000e+00	6.854839e-01	5.222189e+14	4.172009e+14	1.676057e+14	1.235421e+04	5.798822e+03	3.898393e+03	0	9.145768e-04
7.000000e+08	2.789521e+13	0.000000e+00	6.854839e-01	5.193803e+14	4.219004e+14	1.668016e+14	1.233819e+04	5.809412e+03	3.905512e+03	0	9.115755e-04
7.100000e+08	2.761898e+13	0.000000e+00	6.854839e-01	5.165455e+14	4.264932e+14	1.660031e+14	1.232226e+04	5.819677e+03	3.912413e+03	0	9.085565e-04
7.200000e+08	2.734303e+13	0.000000e+00	6.854839e-01	5.137151e+14	4.309780e+14	1.652101e+14	1.230642e+04	5.829622e+03	3.919098e+03	0	9.055205e-04
7.300000e+08	2.706745e+13	0.000000e+00	6.854839e-01	5.108899e+14	4.353536e+14	1.644228e+14	1.229066e+04	5.839250e+03	3.925571e+03	0	9.024681e-04
7.400000e+08	2.679232e+13	0.000000e+00	6.854839e-01	5.080707e+14	4.396192e+14	1.636409e+14	1.227499e+04	5.848567e+03	3.931835e+03	0	8.993999e-04
7.500000e+08	2.651772e+13	0.000000e+00	6.854839e-01	5.052582e+14	4.437741e+14	1.628645e+14	1.225941e+04	5.857578e+03	3.937893e+03	0	8.963167e-04
7.600000e+08	2.624373e+13	0.000000e+00	6.854839e-01	5.024529e+14	4.478175e+14	1.620935e+14	1.224391e+04	5.866287e+03	3.943748e+03	0	8.932189e-04
7.700000e+08	2.597040e+13	0.000000e+00	6.854839e-01	4.996555e+14	4.517492e+14	1.613278e+14	1.222850e+04	5.874700e+03	3.949403e+03	0	8.901072e-04
7.800000e+08	2.569782e+13	0.000000e+00	6.854839e-01	4.968667e+14	4.555688e+14	1.605675e+14	1.221318e+04	5.882821e+03	3.954863e+03	0	8.869820e-04
7.900000e+08	2.542603e+13	0.000000e+00	6.854839e-01	4.940869e+14	4.592762e+14	1.598124e+14	1.219794e+04	5.890655e+03	3.960129e+03	0	8.838440e-04
8.000000e+08	2.515511e+13	0.000000e+00	6.854839e-01	4.913168e+14	4.628713e+14	1.590626e+14	1.218278e+04	5.898207e+03	3.965206e+03	0	8.806936e-04
8.100000e+08	2.488512e+13	0.000000e+00	6.854839e-01	4.885568e+14	4.663544e+14	1.583180e+14	1.216771e+04	5.905482e+03	3.970097e+03	0	8.775314e-04
8.200000e+08	2.461610e+13	0.000000e+00	6.854839e-01	4.858075e+14	4.697257e+14	1.575785e+14	1.215272e+04	5.912485e+03	3.974805e+03	0	8.743578e-04
8.300000e+08	2.434812e+13	0.000000e+00	6.854839e-01	4.830693e+14	4.729855e+14	1.568442e+14	1.213782e+04	5.919221e+03	3.979334e+03	0	8.711733e-04
8.400000e+08	2.408121e+13	0.000000e+00	6.854839e-01	4.803427e+14	4.761344e+14	1.561149e+14	1.212300e+04	5.925695e+03	3.983686e+03	0	8.679783e-04
8.500000e+08	2.381544e+13	0.000000e+00	6.854839e-01	4.776281e+14	4.791730e+14	1.553907e+14	1.210827e+04	5.931913e+03	3.987866e+03	0	8.647733e-04
8.600000e+08	2.355084e+13	0.000000e+00	6.854839e-01	4.749258e+14	4.821019e+14	1.546714e+14	1.209362e+04	5.937878e+03	3.991876e+03	0	8.615587e-04
8.700000e+08	2.328745e+13	0.000000e+00	6.854839e-01	4.722363e+14	4.849220e+14	1.539571e+14	1.207905e+04	5.943597e+03	3.995721e+03	0	8.583348e-04
8.800000e+08	2.302532e+13	0.000000e+00	6.854839e-01	4.695599e+14	4.876343e+14	1.532477e+14	1.206456e+04	5.949073e+03	3.999402e+03	0	8.551021e-04
8.900000e+08	2.276449e+13	0.000000e+00	6.854839e-01	4.668969e+14	4.902396e+14	1.525432e+14	1.205016e+04	5.954312e+03	4.002925e+03	0	8.518609e-04
9.000000e+08	2.250498e+13	0.000000e+00	6.854839e-01	4.642477e+14	4.927391e+14	1.518435e+14	1.203584e+04	5.959320e+03	4.006291e+03	0	8.486116e-04
9.100000e+08	2.224683e+13	0.000000e+00	6.854839e-01	4.616125e+14	4.951340e+14	1.511486e+14	1.202159e+04	5.964099e+03	4.009504e+03	0	8.453544e-04
9.200000e+08	2.199008e+13	0.000000e+00	6.854839e-01	4.589916e+14	4.974254e+14	1.504585e+14	1.200743e+04	5.968657e+03	4.012568e+03	0	8.420897e-04
9.300000e+08	2.173475e+13	0.000000e+00	6.854839e-01	4.563853e+14	4.996146e+14	1.497731e+14	1.199335e+04	5.972996e+03	4.015485e+03	0	8.388177e-04
9.400000e+08	2.148086e+13	0.000000e+00	6.854839e-01	4.537937e+14	5.017030e+14	1.490924e+14	1.197935e+04	5.977123e+03	4.018259e+03	0	8.355389e-04
9.500000e+08	2.122845e+13	0.000000e+00	6.854839e-01	4.512171e+14	5.036919e+14	1.484163e+14	1.196543e+04	5.981041e+03	4.020893e+03	0	8.322533e-04
9.600000e+08	2.097754e+13	0.000000e+00	6.854839e-01	4.486558e+14	5.055828e+14	1.477449e+14	1.195159e+04	5.984755e+03	4.023391e+03	0	8.289613e-04
9.700000e+08	2.072814e+13	0.000000e+00	6.854839e-01	4.461098e+14	5.073772e+14	1.470780e+14	1.193782e+04	5.988271e+03	4.025754e+03	0	8.256631e-04
9.800000e+08	2.048028e+13	0.000000e+00	6.854839e-01	4.435793e+14	5.090767e+14	1.464156e+14	1.192413e+04	5.991592e+03	4.027987e+03	0	8.223589e-04
9.900000e+08	2.023398e+13	0.000000e+00	6.854839e-01	4.410645e+14	5.106829e+14	1.457578e+14	1.191053e+04	5.994723e+03	4.030091e+03	0	8.190489e-04
1.000000e+09	1.998924e+13	0.000000e+00	6.854839e-01	4.385656e+14	5.121971e+14	1.451044e+14	1.189699e+04	5.997668e+03	4.032071e+03	0	8.157333e-04
1.010000e+09	1.974609e+13	0.000000e+00	6.854839e-01	4.360826e+14	5.136212e+14	1.444554e+14	1.188354e+04	6.000432e+03	4.033929e+03	0	8.124123e-04
1.020000e+09	1.950455e+13	0.000000e+00	6.854839e-01	4.336157e+14	5.149567e+14	1.438109e+14	1.187016e+04	6.003019e+03	4.035669e+03	0	8.090860e-04
1.030000e+09	1.926461e+13	0.000000e+00	6.854839e-01	4.311649e+14	5.162055e+14	1.431707e+14	1.185685e+04	6.005433e+03	4.037292e+03	0	8.057546e-04
1.040000e+09	1.902629e+13	0.000000e+00	6.854839e-01	4.287303e+14	5.173690e+14	1.425348e+14	1.184363e+04	6.007679e+03	4.038801e+03	0	8.024182e-04
1.050000e+09	1.878961e+13	0.000000e+00	6.854839e-01	4.263121e+14	5.184492e+14	1.419032e+14	1.183047e+04	6.009760e+03	4.040201e+03	0	7.990770e-04
1.060000e+09	1.855456e+13	0.000000e+00	6.854839e-01	4.239103e+14	5.194476e+14	1.412759e+14	1.181739e+04	6.011681e+03	4.041492e+03	0	7.957310e-04
1.070000e+09	1.832116e+13	0.000000e+00	6.854839e-01	4.215248e+14	5.203659e+14	1.406528e+14	1.180438e+04	6.013445e+03	4.042678e+03	0	7.923804e-04
1.080000e+09	1.808941e+13	0.000000e+00	6.854839e-01	4.191559e+14	5.212059e+14	1.400339e+14	1.179145e+04	6.015057e+03	4.043762e+03	0	7.890252e-04
1.090000e+09	1.785931e+13	0.000000e+00	6.854839e-01	4.168034e+14	5.219694e+14	1.394192e+14	1.177859e+04	6.016521e+03	4.044746e+03	0	7.856655e-04
1.100000e+09	1.763088e+13	0.000000e+00	6.854839e-01	4.144675e+14	5.226580e+14	1.388086e+14	1.176580e+04	6.017839e+03	4.045632e+03	0	7.823013e-04
1.110000e+09	1.740411e+13	0.000000e+00	6.854839e-01	4.121481e+14	5.232735e+14	1.382021e+14	1.175308e+04	6.019017e+03	4.046424e+03	0	7.789328e-04
1.120000e+09	1.717900e+13	0.000000e+00	6.854839e-01	4.098452e+14	5.238175e+14	1.375996e+14	1.174044e+04	6.020057e+03	4.047123e+03	0	7.755599e-04
1.130000e+09	1.695556e+13	0.000000e+00	6.854839e-01	4.075588e+14	5.242918e+14	1.370012e+14	1.172786e+04	6.020963e+03	4.047732e+03	0	7.721827e-04
1.140000e+09	1.673378e+13	0.000000e+00	6.854839e-01	4.052890e+14	5.246982e+14	1.364068e+14	1.171535e+04	6.021739e+03	4.048253e+03	0	7.688012e-04
1.150000e+09	1.651366e+13	0.000000e+00	6.854839e-01	4.030357e+14	5.250381e+14	1.358163e+14	1.170292e+04	6.022387e+03	4.048690e+03	0	7.654155e-04
1.160000e+09	1.629521e+13	0.000000e+00	6.854839e-01	4.007988e+14	5.253135e+14	1.352298e+14	1.169055e+04	6.022912e+03	4.049043e+03	0	7.620254e-04
1.170000e+09	1.607842e+13	0.000000e+00	6.854839e-01	3.985784e+14	5.255259e+14	1.346472e+14	1.167825e+04	6.023317e+03	4.049315e+03	0	7.586310e-04
1.180000e+09	1.586329e+13	0.000000e+00	6.854839e-01	3.963745e+14	5.256768e+14	1.340685e+14	1.166602e+04	6.023605e+03	4.049508e+03	0	7.552322e-04
1.190000e+09	1.564981e+13	0.000000e+00	6.854839e-01	3.941869e+14	5.257682e+14	1.334936e+14	1.165386e+04	6.023779e+03	4.049625e+03	0	7.518291e-04
1.200000e+09	1.543799e+13	0.000000e+00	6.854839e-01	3.920156e+14	5.258013e+14	1.329225e+14	1.164176e+04	6.023842e+03	4.049668e+03	0	7.484215e-04
1.210000e+09	1.522780e+13	0.000000e+00	6.854839e-01	3.898606e+14	5.257778e+14	1.323553e+14	1.162973e+04	6.023797e+03	4.049638e+03	0	7.450095e-04
1.220000e+09	1.501926e+13	0.000000e+00	6.854839e-01	3.877218e+14	5.256994e+14	1.317917e+14	1.161777e+04	6.023648e+03	4.049537e+03	0	7.415929e-04
1.230000e+09	1.481235e+13	0.000000e+00	6.854839e-01	3.855991e+14	5.255676e+14	1.312320e+14	1.160587e+04	6.023397e+03	4.049368e+03	0	7.381717e-04
1.240000e+09	1.460707e+13	0.000000e+00	6.854839e-01	3.834925e+14	5.253840e+14	1.306759e+14	1.159403e+04	6.023047e+03	4.049133e+03	0	7.347458e-04
1.250000e+09	1.440342e+13	0.000000e+00	6.854839e-01	3.814020e+14	5.251499e+14	1.301235e+14	1.158227e+04	6.022600e+03	4.048833e+03	0	7.313151e-04
1.260000e+09	1.420137e+13	0.000000e+00	6.854839e-01	3.793274e+14	5.248668e+14	1.295747e+14	1.157056e+04	6.022060e+03	4.048470e+03	0	7.278795e-04
1.270000e+09	1.400094e+13	0.000000e+00	6.854839e-01	3.772686e+14	5.245364e+14	1.290295e+14	1.155892e+04	6.021430e+03	4.048046e+03	0	7.244389e-04
1.280000e+09	1.380210e+13	0.000000e+00	6.854839e-01	3.752256e+14	5.241598e+14	1.284879e+14	1.154734e+04	6.020711e+03	4.047562e+03	0	7.209932e-04
1.290000e+09	1.360486e+13	0.000000e+00	6.854839e-01	3.731984e+14	5.237386e+14	1.279499e+14	1.153583e+04	6.019906e+03	4.047021e+03	0	7.175421e-04
1.300000e+09	1.340920e+13	0.000000e+00	6.854839e-01	3.711867e+14	5.232741e+14	1.274154e+14	1.152437e+04	6.019018e+03	4.046425e+03	0	7.140857e-04
1.310000e+09	1.321511e+13	0.000000e+00	6.854839e-01	3.691906e+14	5.227678e+14	1.268845e+14	1.151298e+04	6.018049e+03	4.045773e+03	0	7.106237e-04
1.320000e+09	1.302259e+13	0.000000e+00	6.854839e-01	3.672099e+14	5.222208e+14	1.263570e+14	1.150165e+04	6.017002e+03	4.045069e+03	0	7.071559e-04
1.330000e+09	1.283162e+13	0.000000e+00	6.854839e-01	3.652445e+14	5.216345e+14	1.258329e+14	1.149038e+04	6.015879e+03	4.044314e+03	0	7.036822e-04
1.340000e+09	1.264220e+13	0.000000e+00	6.854839e-01	3.632944e+14	5.210103e+14	1.253123e+14	1.147917e+04	6.014682e+03	4.043510e+03	0	7.002025e-04
1.350000e+09	1.245432e+13	0.000000e+00	6.854839e-01	3.613594e+14	5.203492e+14	1.247950e+14	1.146802e+04	6.013413e+03	4.042657e+03	0	6.967165e-04
1.360000e+09	1.226797e+13	0.000000e+00	6.854839e-01	3.594395e+14	5.196526e+14	1.242812e+14	1.145693e+04	6.012075e+03	4.041757e+03	0	6.932240e-04
