#t		Qconv[W]	Ri[Rp]		R*[Rp]		Qc[W]		Qm[W]		Qr[W]		Tcmb[K]		Tl[K]		Tup[K]		RiFlag		Bs[T]
0.000000e+00	4.428175e+13	0.000000e+00	6.854840e-01	7.414014e+14	4.620275e+13	2.574328e+14	1.419444e+04	4.281458e+03	2.850577e+03	0	1.058570e-03
1.000000e+07	4.431865e+13	0.000000e+00	6.854840e-01	7.411979e+14	4.910059e+13	2.560064e+14	1.417376e+04	4.316278e+03	2.873760e+03	0	1.058864e-03
2.000000e+07	4.434718e+13	0.000000e+00	6.854840e-01	7.409222e+14	5.212339e+13	2.545907e+14	1.415308e+04	4.350930e+03	2.896832e+03	0	1.059091e-03
3.000000e+07	4.436734e+13	0.000000e+00	6.854840e-01	7.405743e+14	5.527300e+13	2.531856e+14	1.413240e+04	4.385408e+03	2.919787e+03	0	1.059252e-03
4.000000e+07	4.437913e+13	0.000000e+00	6.854840e-01	7.401543e+14	5.855111e+13	2.517910e+14	1.411174e+04	4.419704e+03	2.942621e+03	0	1.059346e-03
5.000000e+07	4.438255e+13	0.000000e+00	6.854840e-01	7.396622e+14	6.195924e+13	2.504068e+14	1.409109e+04	4.453811e+03	2.965329e+03	0	1.059373e-03
6.000000e+07	4.437761e+13	0.000000e+00	6.854840e-01	7.390981e+14	6.549866e+13	2.490329e+14	1.407045e+04	4.487722e+03	2.987907e+03	0	1.059334e-03
7.000000e+07	4.436432e+13	0.000000e+00	6.854840e-01	7.384624e+14	6.917048e+13	2.476692e+14	1.404982e+04	4.521430e+03	3.010350e+03	0	1.059228e-03
8.000000e+07	4.434271e+13	0.000000e+00	6.854840e-01	7.377550e+14	7.297559e+13	2.463156e+14	1.402922e+04	4.554928e+03	3.032653e+03	0	1.059056e-03
9.000000e+07	4.431279e+13	0.000000e+00	6.854840e-01	7.369764e+14	7.691462e+13	2.449722e+14	1.400863e+04	4.588209e+03	3.054811e+03	0	1.058818e-03
1.000000e+08	4.427460e+13	0.000000e+00	6.854840e-01	7.361268e+14	8.098800e+13	2.436387e+14	1.398807e+04	4.621266e+03	3.076820e+03	0	1.058513e-03
1.100000e+08	4.422818e+13	0.000000e+00	6.854840e-01	7.352065e+14	8.519590e+13	2.423151e+14	1.396753e+04	4.654092e+03	3.098675e+03	0	1.058143e-03
1.200000e+08	4.417355e+13	0.000000e+00	6.854840e-01	7.342160e+14	8.953825e+13	2.410013e+14	1.394702e+04	4.686678e+03	3.120371e+03	0	1.057707e-03
1.300000e+08	4.411078e+13	0.000000e+00	6.854840e-01	7.331558e+14	9.401471e+13	2.396972e+14	1.392653e+04	4.719019e+03	3.141904e+03	0	1.057206e-03
1.400000e+08	4.403991e+13	0.000000e+00	6.854840e-01	7.320264e+14	9.862470e+13	2.384028e+14	1.390607e+04	4.751107e+03	3.163268e+03	0	1.056640e-03
1.500000e+08	4.396100e+13	0.000000e+00	6.854840e-01	7.308282e+14	1.033674e+14	2.371180e+14	1.388564e+04	4.782935e+03	3.184459e+03	0	1.056008e-03
1.600000e+08	4.387412e+13	0.000000e+00	6.854840e-01	7.295619e+14	1.082416e+14	2.358426e+14	1.386525e+04	4.814497e+03	3.205472e+03	0	1.055312e-03
1.700000e+08	4.377934e+13	0.000000e+00	6.854840e-01	7.282283e+14	1.132459e+14	2.345767e+14	1.384489e+04	4.845784e+03	3.226303e+03	0	1.054552e-03
1.800000e+08	4.367674e+13	0.000000e+00	6.854840e-01	7.268279e+14	1.183788e+14	2.333201e+14	1.382457e+04	4.876790e+03	3.246947e+03	0	1.053727e-03
1.900000e+08	4.356639e+13	0.000000e+00	6.854840e-01	7.253615e+14	1.236382e+14	2.320727e+14	1.380429e+04	4.907509e+03	3.267400e+03	0	1.052839e-03
2.000000e+08	4.344839e+13	0.000000e+00	6.854840e-01	7.238300e+14	1.290219e+14	2.308345e+14	1.378405e+04	4.937934e+03	3.287656e+03	0	1.051888e-03
2.100000e+08	4.332283e+13	0.000000e+00	6.854840e-01	7.222342e+14	1.345275e+14	2.296055e+14	1.376386e+04	4.968058e+03	3.307713e+03	0	1.050873e-03
2.200000e+08	4.318980e+13	0.000000e+00	6.854840e-01	7.205750e+14	1.401521e+14	2.283854e+14	1.374370e+04	4.997875e+03	3.327565e+03	0	1.049797e-03
2.300000e+08	4.304943e+13	0.000000e+00	6.854840e-01	7.188534e+14	1.458928e+14	2.271743e+14	1.372360e+04	5.027378e+03	3.347208e+03	0	1.048658e-03
2.400000e+08	4.290180e+13	0.000000e+00	6.854840e-01	7.170704e+14	1.517464e+14	2.259721e+14	1.370354e+04	5.056562e+03	3.366638e+03	0	1.047458e-03
2.500000e+08	4.274705e+13	0.000000e+00	6.854840e-01	7.152270e+14	1.577091e+14	2.247787e+14	1.368353e+04	5.085420e+03	3.385852e+03	0	1.046197e-03
2.600000e+08	4.258529e+13	0.000000e+00	6.854840e-01	7.133243e+14	1.637774e+14	2.235941e+14	1.366357e+04	5.113946e+03	3.404845e+03	0	1.044876e-03
2.700000e+08	4.241665e+13	0.000000e+00	6.854840e-01	7.113634e+14	1.699471e+14	2.224181e+14	1.364366e+04	5.142136e+03	3.423613e+03	0	1.043495e-03
2.800000e+08	4.224126e+13	0.000000e+00	6.854840e-01	7.093456e+14	1.762140e+14	2.212506e+14	1.362381e+04	5.169983e+03	3.442153e+03	0	1.042054e-03
2.900000e+08	4.205925e+13	0.000000e+00	6.854840e-01	7.072720e+14	1.825736e+14	2.200917e+14	1.360402e+04	5.197482e+03	3.460462e+03	0	1.040556e-03
3.000000e+08	4.187077e+13	0.000000e+00	6.854840e-01	7.051438e+14	1.890213e+14	2.189413e+14	1.358428e+04	5.224628e+03	3.478536e+03	0	1.038999e-03
3.100000e+08	4.167596e+13	0.000000e+00	6.854840e-01	7.029624e+14	1.955521e+14	2.177992e+14	1.356460e+04	5.251416e+03	3.496371e+03	0	1.037385e-03
3.200000e+08	4.147496e+13	0.000000e+00	6.854840e-01	7.007291e+14	2.021611e+14	2.166654e+14	1.354499e+04	5.277842e+03	3.513966e+03	0	1.035715e-03
3.300000e+08	4.126794e+13	0.000000e+00	6.854840e-01	6.984453e+14	2.088429e+14	2.155399e+14	1.352543e+04	5.303902e+03	3.531316e+03	0	1.033988e-03
3.400000e+08	4.105504e+13	0.000000e+00	6.854840e-01	6.961122e+14	2.155922e+14	2.144226e+14	1.350594e+04	5.329590e+03	3.548419e+03	0	1.032207e-03
3.500000e+08	4.083642e+13	0.000000e+00	6.854840e-01	6.937313e+14	2.224033e+14	2.133134e+14	1.348652e+04	5.354904e+03	3.565273e+03	0	1.030372e-03
3.600000e+08	4.061224e+13	0.000000e+00	6.854840e-01	6.913041e+14	2.292708e+14	2.122122e+14	1.346716e+04	5.379840e+03	3.581876e+03	0	1.028483e-03
3.700000e+08	4.038268e+13	0.000000e+00	6.854840e-01	6.888320e+14	2.361886e+14	2.111189e+14	1.344786e+04	5.404394e+03	3.598224e+03	0	1.026541e-03
3.800000e+08	4.014788e+13	0.000000e+00	6.854840e-01	6.863164e+14	2.431511e+14	2.100336e+14	1.342864e+04	5.428564e+03	3.614315e+03	0	1.024548e-03
3.900000e+08	3.990804e+13	0.000000e+00	6.854840e-01	6.837589e+14	2.501522e+14	2.089562e+14	1.340949e+04	5.452345e+03	3.630149e+03	0	1.022504e-03
4.000000e+08	3.966330e+13	0.000000e+00	6.854840e-01	6.811609e+14	2.571858e+14	2.078865e+14	1.339041e+04	5.475737e+03	3.645723e+03	0	1.020409e-03
4.100000e+08	3.941385e+13	0.000000e+00	6.854840e-01	6.785240e+14	2.642460e+14	2.068245e+14	1.337140e+04	5.498736e+03	3.661036e+03	0	1.018265e-03
4.200000e+08	3.915985e+13	0.000000e+00	6.854840e-01	6.758496e+14	2.713265e+14	2.057702e+14	1.335246e+04	5.521341e+03	3.676086e+03	0	1.016073e-03
4.300000e+08	3.890149e+13	0.000000e+00	6.854840e-01	6.731394e+14	2.784213e+14	2.047235e+14	1.333360e+04	5.543550e+03	3.690873e+03	0	1.013834e-03
4.400000e+08	3.863893e+13	0.000000e+00	6.854840e-01	6.703948e+14	2.855243e+14	2.036843e+14	1.331481e+04	5.565361e+03	3.705395e+03	0	1.011548e-03
4.500000e+08	3.837235e+13	0.000000e+00	6.854840e-01	6.676173e+14	2.926292e+14	2.026526e+14	1.329610e+04	5.586774e+03	3.719651e+03	0	1.009216e-03
4.600000e+08	3.810193e+13	0.000000e+00	6.854840e-01	6.648086e+14	2.997300e+14	2.016282e+14	1.327747e+04	5.607786e+03	3.733641e+03	0	1.006840e-03
4.700000e+08	3.782783e+13	0.000000e+00	6.854840e-01	6.619701e+14	3.068207e+14	2.006113e+14	1.325892e+04	5.628399e+03	3.747365e+03	0	1.004420e-03
4.800000e+08	3.755024e+13	0.000000e+00	6.854840e-01	6.591034e+14	3.138954e+14	1.996016e+14	1.324044e+04	5.648611e+03	3.760822e+03	0	1.001957e-03
4.900000e+08	3.726933e+13	0.000000e+00	6.854840e-01	6.562100e+14	3.209480e+14	1.985991e+14	1.322205e+04	5.668422e+03	3.774012e+03	0	9.994520e-04
5.000000e+08	3.698526e+13	0.000000e+00	6.854840e-01	6.532913e+14	3.279728e+14	1.976038e+14	1.320373e+04	5.687833e+03	3.786936e+03	0	9.969062e-04
5.100000e+08	3.669821e+13	0.000000e+00	6.854840e-01	6.503489e+14	3.349641e+14	1.966157e+14	1.318550e+04	5.706844e+03	3.799593e+03	0	9.943205e-04
5.200000e+08	3.640835e+13	0.000000e+00	6.854840e-01	6.473843e+14	3.419163e+14	1.956346e+14	1.316735e+04	5.725455e+03	3.811985e+03	0	9.916957e-04
5.300000e+08	3.611585e+13	0.000000e+00	6.854840e-01	6.443989e+14	3.488239e+14	1.946604e+14	1.314928e+04	5.743669e+03	3.824111e+03	0	9.890328e-04
5.400000e+08	3.582087e+13	0.000000e+00	6.854840e-01	6.413942e+14	3.556816e+14	1.936932e+14	1.313129e+04	5.761485e+03	3.835973e+03	0	9.863328e-04
5.500000e+08	3.552358e+13	0.000000e+00	6.854840e-01	6.383716e+14	3.624842e+14	1.927329e+14	1.311339e+04	5.778905e+03	3.847572e+03	0	9.835965e-04
5.600000e+08	3.522413e+13	0.000000e+00	6.854840e-01	6.353325e+14	3.692266e+14	1.917794e+14	1.309557e+04	5.795932e+03	3.858908e+03	0	9.808249e-04
5.700000e+08	3.492269e+13	0.000000e+00	6.854840e-01	6.322783e+14	3.759041e+14	1.908327e+14	1.307784e+04	5.812567e+03	3.869983e+03	0	9.780190e-04
5.800000e+08	3.461941e+13	0.000000e+00	6.854840e-01	6.292104e+14	3.825119e+14	1.898928e+14	1.306019e+04	5.828811e+03	3.880799e+03	0	9.751796e-04
5.900000e+08	3.431444e+13	0.000000e+00	6.854840e-01	6.261301e+14	3.890456e+14	1.889594e+14	1.304263e+04	5.844669e+03	3.891357e+03	0	9.723077e-04
6.000000e+08	3.400794e+13	0.000000e+00	6.854840e-01	6.230386e+14	3.955007e+14	1.880327e+14	1.302515e+04	5.860141e+03	3.901658e+03	0	9.694041e-04
6.100000e+08	3.370006e+13	0.000000e+00	6.854840e-01	6.199374e+14	4.018733e+14	1.871125e+14	1.300776e+04	5.875232e+03	3.911705e+03	0	9.664698e-04
6.200000e+08	3.339093e+13	0.000000e+00	6.854840e-01	6.168275e+14	4.081592e+14	1.861989e+14	1.299046e+04	5.889943e+03	3.921500e+03	0	9.635056e-04
6.300000e+08	3.308070e+13	0.000000e+00	6.854840e-01	6.137104e+14	4.143549e+14	1.852917e+14	1.297324e+04	5.904279e+03	3.931045e+03	0	9.605124e-04
6.400000e+08	3.276950e+13	0.000000e+00	6.854840e-01	6.105871e+14	4.204568e+14	1.843908e+14	1.295611e+04	5.918242e+03	3.940341e+03	0	9.574910e-04
6.500000e+08	3.245747e+13	0.000000e+00	6.854840e-01	6.074588e+14	4.264617e+14	1.834964e+14	1.293906e+04	5.931836e+03	3.949392e+03	0	9.544422e-04
6.600000e+08	3.214475e+13	0.000000e+00	6.854840e-01	6.043266e+14	4.323662e+14	1.826082e+14	1.292211e+04	5.945064e+03	3.958199e+03	0	9.513670e-04
6.700000e+08	3.183145e+13	0.000000e+00	6.854840e-01	6.011917e+14	4.381678e+14	1.817263e+14	1.290524e+04	5.957931e+03	3.966766e+03	0	9.482660e-04
6.800000e+08	3.151770e+13	0.000000e+00	6.854840e-01	5.980551e+14	4.438634e+14	1.808505e+14	1.288845e+04	5.970440e+03	3.975095e+03	0	9.451402e-04
6.900000e+08	3.120362e+13	0.000000e+00	6.854840e-01	5.949179e+14	4.494508e+14	1.799809e+14	1.287176e+04	5.982596e+03	3.983188e+03	0	9.419902e-04
7.000000e+08	3.088932e+13	0.000000e+00	6.854840e-01	5.917810e+14	4.549277e+14	1.791174e+14	1.285515e+04	5.994402e+03	3.991048e+03	0	9.388168e-04
7.100000e+08	3.057492e+13	0.000000e+00	6.854840e-01	5.886454e+14	4.602919e+14	1.782600e+14	1.283863e+04	6.005863e+03	3.998679e+03	0	9.356208e-04
7.200000e+08	3.026053e+13	0.000000e+00	6.854840e-01	5.855121e+14	4.655416e+14	1.774085e+14	1.282220e+04	6.016984e+03	4.006083e+03	0	9.324028e-04
7.300000e+08	2.994624e+13	0.000000e+00	6.854840e-01	5.823819e+14	4.706751e+14	1.765630e+14	1.280585e+04	6.027769e+03	4.013264e+03	0	9.291636e-04
7.400000e+08	2.963217e+13	0.000000e+00	6.854840e-01	5.792558e+14	4.756909e+14	1.757234e+14	1.278960e+04	6.038222e+03	4.020223e+03	0	9.259038e-04
7.500000e+08	2.931840e+13	0.000000e+00	6.854840e-01	5.761345e+14	4.805878e+14	1.748897e+14	1.277342e+04	6.048348e+03	4.026965e+03	0	9.226242e-04
7.600000e+08	2.900504e+13	0.000000e+00	6.854840e-01	5.730189e+14	4.853646e+14	1.740617e+14	1.275734e+04	6.058152e+03	4.033493e+03	0	9.193254e-04
7.700000e+08	2.869217e+13	0.000000e+00	6.854840e-01	5.699097e+14	4.900205e+14	1.732395e+14	1.274134e+04	6.067640e+03	4.039810e+03	0	9.160079e-04
7.800000e+08	2.837988e+13	0.000000e+00	6.854840e-01	5.668077e+14	4.945546e+14	1.724231e+14	1.272543e+04	6.076815e+03	4.045918e+03	0	9.126724e-04
7.900000e+08	2.806825e+13	0.000000e+00	6.854840e-01	5.637137e+14	4.989664e+14	1.716123e+14	1.270961e+04	6.085682e+03	4.051822e+03	0	9.093195e-04
8.000000e+08	2.775736e+13	0.000000e+00	6.854840e-01	5.606282e+14	5.032554e+14	1.708071e+14	1.269387e+04	6.094248e+03	4.057525e+03	0	9.059497e-04
8.100000e+08	2.744728e+13	0.000000e+00	6.854840e-01	5.575519e+14	5.074217e+14	1.700075e+14	1.267822e+04	6.102516e+03	4.063030e+03	0	9.025637e-04
8.200000e+08	2.713810e+13	0.000000e+00	6.854840e-01	5.544855e+14	5.114648e+14	1.692134e+14	1.266265e+04	6.110492e+03	4.068340e+03	0	8.991618e-04
8.300000e+08	2.682987e+13	0.000000e+00	6.854840e-01	5.514295e+14	5.153849e+14	1.684249e+14	1.264717e+04	6.118180e+03	4.073459e+03	0	8.957447e-04
8.400000e+08	2.652267e+13	0.000000e+00	6.854840e-01	5.483846e+14	5.191825e+14	1.676417e+14	1.263177e+04	6.125587e+03	4.078391e+03	0	8.923128e-04
8.500000e+08	2.621655e+13	0.000000e+00	6.854840e-01	5.453511e+14	5.228574e+14	1.668640e+14	1.261646e+04	6.132716e+03	4.083137e+03	0	8.888666e-04
8.600000e+08	2.591158e+13	0.000000e+00	6.854840e-01	5.423297e+14	5.264104e+14	1.660917e+14	1.260124e+04	6.139574e+03	4.087703e+03	0	8.854065e-04
8.700000e+08	2.560781e+13	0.000000e+00	6.854840e-01	5.393209e+14	5.298421e+14	1.653246e+14	1.258609e+04	6.146165e+03	4.092091e+03	0	8.819329e-04
8.800000e+08	2.530530e+13	0.000000e+00	6.854840e-01	5.363250e+14	5.331530e+14	1.645628e+14	1.257104e+04	6.152494e+03	4.096305e+03	0	8.784463e-04
8.900000e+08	2.500410e+13	0.000000e+00	6.854840e-01	5.333426e+14	5.363440e+14	1.638063e+14	1.255606e+04	6.158566e+03	4.100348e+03	0	8.749471e-04
9.000000e+08	2.470425e+13	0.000000e+00	6.854840e-01	5.303739e+14	5.394163e+14	1.630550e+14	1.254117e+04	6.164387e+03	4.104224e+03	0	8.714356e-04
9.100000e+08	2.440580e+13	0.000000e+00	6.854840e-01	5.274195e+14	5.423704e+14	1.623088e+14	1.252636e+04	6.169961e+03	4.107935e+03	0	8.679121e-04
9.200000e+08	2.410880e+13	0.000000e+00	6.854840e-01	5.244796e+14	5.452078e+14	1.615677e+14	1.251163e+04	6.175294e+03	4.111485e+03	0	8.643771e-04
9.300000e+08	2.381328e+13	0.000000e+00	6.854840e-01	5.215546e+14	5.479298e+14	1.608317e+14	1.249699e+04	6.180390e+03	4.114878e+03	0	8.608308e-04
9.400000e+08	2.351928e+13	0.000000e+00	6.854840e-01	5.186448e+14	5.505373e+14	1.601007e+14	1.248243e+04	6.185254e+03	4.118117e+03	0	8.572735e-04
9.500000e+08	2.322683e+13	0.000000e+00	6.854840e-01	5.157506e+14	5.530319e+14	1.593747e+14	1.246794e+04	6.189892e+03	4.121205e+03	0	8.537055e-04
9.600000e+08	2.293598e+13	0.000000e+00	6.854840e-01	5.128720e+14	5.554148e+14	1.586537e+14	1.245354e+04	6.194308e+03	4.124145e+03	0	8.501270e-04
9.700000e+08	2.264674e+13	0.000000e+00	6.854840e-01	5.100096e+14	5.576877e+14	1.579375e+14	1.243922e+04	6.198506e+03	4.126940e+03	0	8.465384e-04
9.800000e+08	2.235916e+13	0.000000e+00	6.854840e-01	5.071634e+14	5.598520e+14	1.572263e+14	1.242498e+04	6.202493e+03	4.129594e+03	0	8.429398e-04
9.900000e+08	2.207324e+13	0.000000e+00	6.854840e-01	5.043336e+14	5.619094e+14	1.565199e+14	1.241082e+04	6.206272e+03	4.132110e+03	0	8.393314e-04
1.000000e+09	2.178903e+13	0.000000e+00	6.854840e-01	5.015206e+14	5.638615e+14	1.558182e+14	1.239673e+04	6.209848e+03	4.134491e+03	0	8.357134e-04
1.010000e+09	2.150653e+13	0.000000e+00	6.854840e-01	4.987244e+14	5.657099e+14	1.551214e+14	1.238273e+04	6.213225e+03	4.136740e+03	0	8.320860e-04
1.020000e+09	2.122578e+13	0.000000e+00	6.854840e-01	4.959452e+14	5.674565e+14	1.544292e+14	1.236880e+04	6.216409e+03	4.138860e+03	0	8.284494e-04
1.030000e+09	2.094679e+13	0.000000e+00	6.854840e-01	4.931832e+14	5.691029e+14	1.537417e+14	1.235495e+04	6.219404e+03	4.140854e+03	0	8.248036e-04
1.040000e+09	2.066957e+13	0.000000e+00	6.854840e-01	4.904385e+14	5.706510e+14	1.530589e+14	1.234118e+04	6.222214e+03	4.142725e+03	0	8.211489e-04
1.050000e+09	2.039415e+13	0.000000e+00	6.854840e-01	4.877113e+14	5.721024e+14	1.523807e+14	1.232748e+04	6.224844e+03	4.144475e+03	0	8.174853e-04
1.060000e+09	2.012054e+13	0.000000e+00	6.854840e-01	4.850015e+14	5.734590e+14	1.517071e+14	1.231386e+04	6.227297e+03	4.146109e+03	0	8.138129e-04
1.070000e+09	1.984874e+13	0.000000e+00	6.854840e-01	4.823095e+14	5.747229e+14	1.510380e+14	1.230032e+04	6.229579e+03	4.147628e+03	0	8.101319e-04
1.080000e+09	1.957877e+13	0.000000e+00	6.854840e-01	4.796351e+14	5.758957e+14	1.503734e+14	1.228685e+04	6.231693e+03	4.149035e+03	0	8.064421e-04
1.090000e+09	1.931064e+13	0.000000e+00	6.854840e-01	4.769785e+14	5.769793e+14	1.497133e+14	1.227345e+04	6.233643e+03	4.150334e+03	0	8.027438e-04
1.100000e+09	1.904436e+13	0.000000e+00	6.854840e-01	4.743398e+14	5.779757e+14	1.490576e+14	1.226013e+04	6.235434e+03	4.151526e+03	0	7.990370e-04
1.110000e+09	1.877993e+13	0.000000e+00	6.854840e-01	4.717189e+14	5.788865e+14	1.484063e+14	1.224688e+04	6.237069e+03	4.152615e+03	0	7.953216e-04
1.120000e+09	1.851737e+13	0.000000e+00	6.854840e-01	4.691160e+14	5.797138e+14	1.477594e+14	1.223371e+04	6.238553e+03	4.153603e+03	0	7.915976e-04
1.130000e+09	1.825666e+13	0.000000e+00	6.854840e-01	4.665310e+14	5.804594e+14	1.471167e+14	1.222061e+04	6.239889e+03	4.154492e+03	0	7.878651e-04
1.140000e+09	1.799783e+13	0.000000e+00	6.854840e-01	4.639640e+14	5.811253e+14	1.464784e+14	1.220758e+04	6.241080e+03	4.155286e+03	0	7.841240e-04
1.150000e+09	1.774086e+13	0.000000e+00	6.854840e-01	4.614149e+14	5.817133e+14	1.458444e+14	1.219462e+04	6.242132e+03	4.155986e+03	0	7.803743e-04
1.160000e+09	1.748577e+13	0.000000e+00	6.854840e-01	4.588839e+14	5.822253e+14	1.452146e+14	1.218173e+04	6.243047e+03	4.156595e+03	0	7.766160e-04
1.170000e+09	1.723255e+13	0.000000e+00	6.854840e-01	4.563708e+14	5.826629e+14	1.445890e+14	1.216892e+04	6.243829e+03	4.157116e+03	0	7.728488e-04
1.180000e+09	1.698120e+13	0.000000e+00	6.854840e-01	4.538756e+14	5.830283e+14	1.439675e+14	1.215617e+04	6.244481e+03	4.157550e+03	0	7.690729e-04
1.190000e+09	1.673172e+13	0.000000e+00	6.854840e-01	4.513984e+14	5.833230e+14	1.433502e+14	1.214349e+04	6.245007e+03	4.157900e+03	0	7.652880e-04
1.200000e+09	1.648410e+13	0.000000e+00	6.854840e-01	4.489391e+14	5.835490e+14	1.427369e+14	1.213088e+04	6.245410e+03	4.158168e+03	0	7.614941e-04
1.210000e+09	1.623836e+13	0.000000e+00	6.854840e-01	4.464977e+14	5.837080e+14	1.421278e+14	1.211835e+04	6.245693e+03	4.158357e+03	0	7.576910e-04
1.220000e+09	1.599447e+13	0.000000e+00	6.854840e-01	4.440740e+14	5.838019e+14	1.415227e+14	1.210587e+04	6.245861e+03	4.158469e+03	0	7.538786e-04
1.230000e+09	1.575245e+13	0.000000e+00	6.854840e-01	4.416682e+14	5.838322e+14	1.409215e+14	1.209347e+04	6.245915e+03	4.158505e+03	0	7.500567e-04
1.240000e+09	1.551227e+13	0.000000e+00	6.854840e-01	4.392800e+14	5.838009e+14	1.403244e+14	1.208113e+04	6.245859e+03	4.158467e+03	0	7.462252e-04
1.250000e+09	1.527395e+13	0.000000e+00	6.854840e-01	4.369095e+14	5.837095e+14	1.397312e+14	1.206886e+04	6.245696e+03	4.158359e+03	0	7.423838e-04
1.260000e+09	1.503746e+13	0.000000e+00	6.854840e-01	4.345566e+14	5.835596e+14	1.391419e+14	1.205666e+04	6.245429e+03	4.158181e+03	0	7.385325e-04
1.270000e+09	1.480281e+13	0.000000e+00	6.854840e-01	4.322212e+14	5.833533e+14	1.385565e+14	1.204452e+04	6.245061e+03	4.157936e+03	0	7.346709e-04
1.280000e+09	1.456999e+13	0.000000e+00	6.854840e-01	4.299033e+14	5.830917e+14	1.379749e+14	1.203245e+04	6.244594e+03	4.157625e+03	0	7.307988e-04
1.290000e+09	1.433899e+13	0.000000e+00	6.854840e-01	4.276027e+14	5.827769e+14	1.373972e+14	1.202044e+04	6.244032e+03	4.157251e+03	0	7.269161e-04
1.300000e+09	1.410980e+13	0.000000e+00	6.854840e-01	4.253194e+14	5.824100e+14	1.368232e+14	1.200849e+04	6.243377e+03	4.156815e+03	0	7.230223e-04
1.310000e+09	1.388242e+13	0.000000e+00	6.854840e-01	4.230534e+14	5.819928e+14	1.362530e+14	1.199661e+04	6.242632e+03	4.156319e+03	0	7.191173e-04
1.320000e+09	1.365683e+13	0.000000e+00	6.854840e-01	4.208044e+14	5.815269e+14	1.356866e+14	1.198480e+04	6.241799e+03	4.155764e+03	0	7.152008e-04
1.330000e+09	1.343302e+13	0.000000e+00	6.854840e-01	4.185725e+14	5.810137e+14	1.351238e+14	1.197304e+04	6.240880e+03	4.155153e+03	0	7.112724e-04
1.340000e+09	1.321099e+13	0.000000e+00	6.854840e-01	4.163575e+14	5.804545e+14	1.345648e+14	1.196135e+04	6.239880e+03	4.154486e+03	0	7.073319e-04
1.350000e+09	1.299073e+13	0.000000e+00	6.854840e-01	4.141593e+14	5.798511e+14	1.340093e+14	1.194972e+04	6.238799e+03	4.153767e+03	0	7.033788e-04
1.360000e+09	1.277223e+13	0.000000e+00	6.854840e-01	4.119779e+14	5.792045e+14	1.334575e+14	1.193815e+04	6.237640e+03	4.152995e+03	0	6.994129e-04
