#t		Qconv[W]	Ri[Rp]		R*[Rp]		Qc[W]		Qm[W]		Qr[W]		Tcmb[K]		Tl[K]		Tup[K]		RiFlag		Bs[T]
0.000000e+00	5.230796e+13	0.000000e+00	6.910566e-01	1.067283e+15	3.927822e+13	3.041948e+14	1.644232e+04	4.555926e+03	2.945854e+03	0	1.108369e-03
1.000000e+07	5.254459e+13	0.000000e+00	6.910566e-01	1.068254e+15	4.216622e+13	3.025093e+14	1.642011e+04	4.597690e+03	2.972859e+03	0	1.110038e-03
2.000000e+07	5.276838e+13	0.000000e+00	6.910566e-01	1.069124e+15	4.520998e+13	3.008365e+14	1.639788e+04	4.639338e+03	2.999789e+03	0	1.111611e-03
3.000000e+07	5.297923e+13	0.000000e+00	6.910566e-01	1.069891e+15	4.841392e+13	2.991761e+14	1.637563e+04	4.680864e+03	3.026639e+03	0	1.113090e-03
4.000000e+07	5.317705e+13	0.000000e+00	6.910566e-01	1.070556e+15	5.178235e+13	2.975282e+14	1.635337e+04	4.722258e+03	3.053405e+03	0	1.114474e-03
5.000000e+07	5.336174e+13	0.000000e+00	6.910566e-01	1.071116e+15	5.531945e+13	2.958925e+14	1.633109e+04	4.763514e+03	3.080080e+03	0	1.115762e-03
6.000000e+07	5.353322e+13	0.000000e+00	6.910566e-01	1.071573e+15	5.902920e+13	2.942690e+14	1.630880e+04	4.804622e+03	3.106661e+03	0	1.116956e-03
7.000000e+07	5.369140e+13	0.000000e+00	6.910566e-01	1.071925e+15	6.291543e+13	2.926576e+14	1.628651e+04	4.845574e+03	3.133140e+03	0	1.118055e-03
8.000000e+07	5.383622e+13	0.000000e+00	6.910566e-01	1.072171e+15	6.698177e+13	2.910582e+14	1.626420e+04	4.886362e+03	3.159514e+03	0	1.119060e-03
9.000000e+07	5.396760e+13	0.000000e+00	6.910566e-01	1.072312e+15	7.123161e+13	2.894707e+14	1.624189e+04	4.926977e+03	3.185776e+03	0	1.119969e-03
1.000000e+08	5.408549e+13	0.000000e+00	6.910566e-01	1.072347e+15	7.566814e+13	2.878950e+14	1.621958e+04	4.967411e+03	3.211920e+03	0	1.120784e-03
1.100000e+08	5.418984e+13	0.000000e+00	6.910566e-01	1.072275e+15	8.029427e+13	2.863310e+14	1.619726e+04	5.007654e+03	3.237941e+03	0	1.121504e-03
1.200000e+08	5.428062e+13	0.000000e+00	6.910566e-01	1.072097e+15	8.511265e+13	2.847785e+14	1.617495e+04	5.047698e+03	3.263833e+03	0	1.122130e-03
1.300000e+08	5.435778e+13	0.000000e+00	6.910566e-01	1.071812e+15	9.012562e+13	2.832376e+14	1.615264e+04	5.087533e+03	3.289591e+03	0	1.122662e-03
1.400000e+08	5.442130e+13	0.000000e+00	6.910566e-01	1.071420e+15	9.533524e+13	2.817081e+14	1.613034e+04	5.127150e+03	3.315207e+03	0	1.123099e-03
1.500000e+08	5.447117e+13	0.000000e+00	6.910566e-01	1.070922e+15	1.007432e+14	2.801898e+14	1.610804e+04	5.166541e+03	3.340677e+03	0	1.123442e-03
1.600000e+08	5.450739e+13	0.000000e+00	6.910566e-01	1.070316e+15	1.063510e+14	2.786828e+14	1.608576e+04	5.205695e+03	3.365994e+03	0	1.123691e-03
1.700000e+08	5.452996e+13	0.000000e+00	6.910566e-01	1.069604e+15	1.121595e+14	2.771869e+14	1.606348e+04	5.244604e+03	3.391153e+03	0	1.123846e-03
1.800000e+08	5.453890e+13	0.000000e+00	6.910566e-01	1.068786e+15	1.181695e+14	2.757020e+14	1.604123e+04	5.283259e+03	3.416147e+03	0	1.123907e-03
1.900000e+08	5.453422e+13	0.000000e+00	6.910566e-01	1.067861e+15	1.243811e+14	2.742281e+14	1.601899e+04	5.321649e+03	3.440970e+03	0	1.123875e-03
2.000000e+08	5.451598e+13	0.000000e+00	6.910566e-01	1.066830e+15	1.307944e+14	2.727650e+14	1.599676e+04	5.359766e+03	3.465616e+03	0	1.123750e-03
2.100000e+08	5.448421e+13	0.000000e+00	6.910566e-01	1.065694e+15	1.374088e+14	2.713127e+14	1.597456e+04	5.397600e+03	3.490079e+03	0	1.123532e-03
2.200000e+08	5.443897e+13	0.000000e+00	6.910566e-01	1.064454e+15	1.442234e+14	2.698710e+14	1.595239e+04	5.435142e+03	3.514354e+03	0	1.123220e-03
2.300000e+08	5.438033e+13	0.000000e+00	6.910566e-01	1.063109e+15	1.512368e+14	2.684400e+14	1.593024e+04	5.472383e+03	3.538434e+03	0	1.122817e-03
2.400000e+08	5.430838e+13	0.000000e+00	6.910566e-01	1.061660e+15	1.584472e+14	2.670194e+14	1.590812e+04	5.509314e+03	3.562313e+03	0	1.122322e-03
2.500000e+08	5.422319e+13	0.000000e+00	6.910566e-01	1.060109e+15	1.658524e+14	2.656092e+14	1.588602e+04	5.545925e+03	3.585986e+03	0	1.121734e-03
2.600000e+08	5.412488e+13	0.000000e+00	6.910566e-01	1.058456e+15	1.734498e+14	2.642093e+14	1.586396e+04	5.582208e+03	3.609447e+03	0	1.121056e-03
2.700000e+08	5.401355e+13	0.000000e+00	6.910566e-01	1.056703e+15	1.812363e+14	2.628197e+14	1.584194e+04	5.618153e+03	3.632689e+03	0	1.120287e-03
2.800000e+08	5.388933e+13	0.000000e+00	6.910566e-01	1.054849e+15	1.892085e+14	2.614402e+14	1.581995e+04	5.653753e+03	3.655708e+03	0	1.119427e-03
2.900000e+08	5.375234e+13	0.000000e+00	6.910566e-01	1.052897e+15	1.973622e+14	2.600708e+14	1.579800e+04	5.688998e+03	3.678497e+03	0	1.118478e-03
3.000000e+08	5.360275e+13	0.000000e+00	6.910566e-01	1.050848e+15	2.056934e+14	2.587114e+14	1.577609e+04	5.723880e+03	3.701052e+03	0	1.117440e-03
3.100000e+08	5.344070e+13	0.000000e+00	6.910566e-01	1.048702e+15	2.141970e+14	2.573619e+14	1.575422e+04	5.758391e+03	3.723366e+03	0	1.116312e-03
3.200000e+08	5.326635e+13	0.000000e+00	6.910566e-01	1.046461e+15	2.228679e+14	2.560222e+14	1.573240e+04	5.792522e+03	3.745436e+03	0	1.115097e-03
3.300000e+08	5.307988e+13	0.000000e+00	6.910566e-01	1.044128e+15	2.317005e+14	2.546922e+14	1.571062e+04	5.826266e+03	3.767255e+03	0	1.113794e-03
3.400000e+08	5.288148e+13	0.000000e+00	6.910566e-01	1.041702e+15	2.406888e+14	2.533719e+14	1.568889e+04	5.859616e+03	3.788818e+03	0	1.112405e-03
3.500000e+08	5.267135e+13	0.000000e+00	6.910566e-01	1.039186e+15	2.498266e+14	2.520612e+14	1.566721e+04	5.892563e+03	3.810122e+03	0	1.110930e-03
3.600000e+08	5.244968e+13	0.000000e+00	6.910566e-01	1.036582e+15	2.591069e+14	2.507599e+14	1.564559e+04	5.925102e+03	3.831161e+03	0	1.109369e-03
3.700000e+08	5.221669e+13	0.000000e+00	6.910566e-01	1.033891e+15	2.685227e+14	2.494681e+14	1.562402e+04	5.957224e+03	3.851932e+03	0	1.107724e-03
3.800000e+08	5.197260e+13	0.000000e+00	6.910566e-01	1.031116e+15	2.780667e+14	2.481857e+14	1.560250e+04	5.988924e+03	3.872428e+03	0	1.105995e-03
3.900000e+08	5.171763e+13	0.000000e+00	6.910566e-01	1.028257e+15	2.877311e+14	2.469125e+14	1.558104e+04	6.020194e+03	3.892648e+03	0	1.104184e-03
4.000000e+08	5.145204e+13	0.000000e+00	6.910566e-01	1.025317e+15	2.975080e+14	2.456485e+14	1.555964e+04	6.051030e+03	3.912586e+03	0	1.102290e-03
4.100000e+08	5.117605e+13	0.000000e+00	6.910566e-01	1.022298e+15	3.073889e+14	2.443936e+14	1.553831e+04	6.081425e+03	3.932240e+03	0	1.100316e-03
4.200000e+08	5.088993e+13	0.000000e+00	6.910566e-01	1.019201e+15	3.173656e+14	2.431478e+14	1.551703e+04	6.111375e+03	3.951605e+03	0	1.098261e-03
4.300000e+08	5.059393e+13	0.000000e+00	6.910566e-01	1.016030e+15	3.274293e+14	2.419110e+14	1.549582e+04	6.140873e+03	3.970679e+03	0	1.096128e-03
4.400000e+08	5.028830e+13	0.000000e+00	6.910566e-01	1.012786e+15	3.375709e+14	2.406830e+14	1.547468e+04	6.169916e+03	3.989458e+03	0	1.093916e-03
4.500000e+08	4.997333e+13	0.000000e+00	6.910566e-01	1.009471e+15	3.477815e+14	2.394639e+14	1.545360e+04	6.198499e+03	4.007939e+03	0	1.091628e-03
4.600000e+08	4.964928e+13	0.000000e+00	6.910566e-01	1.006087e+15	3.580519e+14	2.382535e+14	1.543259e+04	6.226618e+03	4.026121e+03	0	1.089263e-03
4.700000e+08	4.931642e+13	0.000000e+00	6.910566e-01	1.002638e+15	3.683727e+14	2.370518e+14	1.541165e+04	6.254270e+03	4.044001e+03	0	1.086823e-03
4.800000e+08	4.897505e+13	0.000000e+00	6.910566e-01	9.991238e+14	3.787345e+14	2.358587e+14	1.539078e+04	6.281451e+03	4.061576e+03	0	1.084310e-03
4.900000e+08	4.862544e+13	0.000000e+00	6.910566e-01	9.955482e+14	3.891278e+14	2.346741e+14	1.536999e+04	6.308158e+03	4.078845e+03	0	1.081723e-03
5.000000e+08	4.826787e+13	0.000000e+00	6.910566e-01	9.919132e+14	3.995431e+14	2.334981e+14	1.534927e+04	6.334389e+03	4.095806e+03	0	1.079065e-03
5.100000e+08	4.790264e+13	0.000000e+00	6.910566e-01	9.882210e+14	4.099711e+14	2.323304e+14	1.532863e+04	6.360142e+03	4.112458e+03	0	1.076337e-03
5.200000e+08	4.753004e+13	0.000000e+00	6.910566e-01	9.844739e+14	4.204021e+14	2.311711e+14	1.530806e+04	6.385415e+03	4.128799e+03	0	1.073539e-03
5.300000e+08	4.715036e+13	0.000000e+00	6.910566e-01	9.806743e+14	4.308265e+14	2.300200e+14	1.528757e+04	6.410207e+03	4.144829e+03	0	1.070673e-03
5.400000e+08	4.676388e+13	0.000000e+00	6.910566e-01	9.768245e+14	4.412353e+14	2.288771e+14	1.526716e+04	6.434516e+03	4.160548e+03	0	1.067739e-03
5.500000e+08	4.637089e+13	0.000000e+00	6.910566e-01	9.729269e+14	4.516190e+14	2.277424e+14	1.524683e+04	6.458342e+03	4.175954e+03	0	1.064740e-03
5.600000e+08	4.597170e+13	0.000000e+00	6.910566e-01	9.689837e+14	4.619687e+14	2.266157e+14	1.522658e+04	6.481684e+03	4.191047e+03	0	1.061676e-03
5.700000e+08	4.556658e+13	0.000000e+00	6.910566e-01	9.649972e+14	4.722750e+14	2.254970e+14	1.520641e+04	6.504543e+03	4.205827e+03	0	1.058548e-03
5.800000e+08	4.515583e+13	0.000000e+00	6.910566e-01	9.609698e+14	4.825292e+14	2.243863e+14	1.518633e+04	6.526919e+03	4.220296e+03	0	1.055358e-03
5.900000e+08	4.473972e+13	0.000000e+00	6.910566e-01	9.569038e+14	4.927230e+14	2.232834e+14	1.516633e+04	6.548813e+03	4.234452e+03	0	1.052106e-03
6.000000e+08	4.431855e+13	0.000000e+00	6.910566e-01	9.528013e+14	5.028475e+14	2.221883e+14	1.514641e+04	6.570225e+03	4.248297e+03	0	1.048794e-03
6.100000e+08	4.389259e+13	0.000000e+00	6.910566e-01	9.486646e+14	5.128947e+14	2.211010e+14	1.512658e+04	6.591158e+03	4.261832e+03	0	1.045423e-03
6.200000e+08	4.346212e+13	0.000000e+00	6.910566e-01	9.444960e+14	5.228566e+14	2.200214e+14	1.510684e+04	6.611612e+03	4.275058e+03	0	1.041994e-03
6.300000e+08	4.302742e+13	0.000000e+00	6.910566e-01	9.402975e+14	5.327254e+14	2.189494e+14	1.508718e+04	6.631591e+03	4.287976e+03	0	1.038509e-03
6.400000e+08	4.258874e+13	0.000000e+00	6.910566e-01	9.360714e+14	5.424938e+14	2.178850e+14	1.506761e+04	6.651095e+03	4.300588e+03	0	1.034967e-03
6.500000e+08	4.214637e+13	0.000000e+00	6.910566e-01	9.318197e+14	5.521544e+14	2.168280e+14	1.504812e+04	6.670129e+03	4.312895e+03	0	1.031371e-03
6.600000e+08	4.170056e+13	0.000000e+00	6.910566e-01	9.275445e+14	5.617005e+14	2.157785e+14	1.502873e+04	6.688694e+03	4.324899e+03	0	1.027722e-03
6.700000e+08	4.125156e+13	0.000000e+00	6.910566e-01	9.232479e+14	5.711253e+14	2.147364e+14	1.500942e+04	6.706794e+03	4.336603e+03	0	1.024020e-03
6.800000e+08	4.079963e+13	0.000000e+00	6.910566e-01	9.189318e+14	5.804230e+14	2.137015e+14	1.499020e+04	6.724433e+03	4.348008e+03	0	1.020267e-03
6.900000e+08	4.034501e+13	0.000000e+00	6.910566e-01	9.145982e+14	5.895871e+14	2.126740e+14	1.497107e+04	6.741614e+03	4.359117e+03	0	1.016463e-03
7.000000e+08	3.988795e+13	0.000000e+00	6.910566e-01	9.102490e+14	5.986124e+14	2.116536e+14	1.495204e+04	6.758341e+03	4.369933e+03	0	1.012610e-03
7.100000e+08	3.942868e+13	0.000000e+00	6.910566e-01	9.058860e+14	6.074934e+14	2.106404e+14	1.493309e+04	6.774619e+03	4.380458e+03	0	1.008709e-03
7.200000e+08	3.896742e+13	0.000000e+00	6.910566e-01	9.015111e+14	6.162250e+14	2.096343e+14	1.491423e+04	6.790451e+03	4.390695e+03	0	1.004760e-03
7.300000e+08	3.850441e+13	0.000000e+00	6.910566e-01	8.971260e+14	6.248030e+14	2.086352e+14	1.489547e+04	6.805843e+03	4.400647e+03	0	1.000764e-03
7.400000e+08	3.803986e+13	0.000000e+00	6.910566e-01	8.927325e+14	6.332227e+14	2.076431e+14	1.487679e+04	6.820798e+03	4.410317e+03	0	9.967234e-04
7.500000e+08	3.757397e+13	0.000000e+00	6.910566e-01	8.883321e+14	6.414804e+14	2.066579e+14	1.485821e+04	6.835323e+03	4.419709e+03	0	9.926377e-04
7.600000e+08	3.710696e+13	0.000000e+00	6.910566e-01	8.839266e+14	6.495723e+14	2.056796e+14	1.483972e+04	6.849422e+03	4.428825e+03	0	9.885080e-04
7.700000e+08	3.663903e+13	0.000000e+00	6.910566e-01	8.795174e+14	6.574952e+14	2.047080e+14	1.482132e+04	6.863101e+03	4.437670e+03	0	9.843352e-04
7.800000e+08	3.617036e+13	0.000000e+00	6.910566e-01	8.751062e+14	6.652461e+14	2.037433e+14	1.480301e+04	6.876364e+03	4.446246e+03	0	9.801201e-04
7.900000e+08	3.570114e+13	0.000000e+00	6.910566e-01	8.706943e+14	6.728223e+14	2.027852e+14	1.478479e+04	6.889218e+03	4.454558e+03	0	9.758635e-04
8.000000e+08	3.523156e+13	0.000000e+00	6.910566e-01	8.662832e+14	6.802216e+14	2.018337e+14	1.476666e+04	6.901669e+03	4.462608e+03	0	9.715660e-04
8.100000e+08	3.476178e+13	0.000000e+00	6.910566e-01	8.618742e+14	6.874417e+14	2.008889e+14	1.474863e+04	6.913722e+03	4.470402e+03	0	9.672284e-04
8.200000e+08	3.429198e+13	0.000000e+00	6.910566e-01	8.574686e+14	6.944809e+14	1.999506e+14	1.473069e+04	6.925383e+03	4.477941e+03	0	9.628513e-04
8.300000e+08	3.382231e+13	0.000000e+00	6.910566e-01	8.530678e+14	7.013379e+14	1.990188e+14	1.471284e+04	6.936657e+03	4.485232e+03	0	9.584353e-04
8.400000e+08	3.335293e+13	0.000000e+00	6.910566e-01	8.486729e+14	7.080119e+14	1.980934e+14	1.469508e+04	6.947552e+03	4.492276e+03	0	9.539810e-04
8.500000e+08	3.288399e+13	0.000000e+00	6.910566e-01	8.442852e+14	7.145012e+14	1.971744e+14	1.467741e+04	6.958074e+03	4.499080e+03	0	9.494889e-04
8.600000e+08	3.241563e+13	0.000000e+00	6.910566e-01	8.399056e+14	7.208056e+14	1.962618e+14	1.465983e+04	6.968228e+03	4.505645e+03	0	9.449595e-04
8.700000e+08	3.194799e+13	0.000000e+00	6.910566e-01	8.355353e+14	7.269249e+14	1.953554e+14	1.464235e+04	6.978021e+03	4.511977e+03	0	9.403934e-04
8.800000e+08	3.148121e+13	0.000000e+00	6.910566e-01	8.311753e+14	7.328588e+14	1.944553e+14	1.462495e+04	6.987459e+03	4.518080e+03	0	9.357909e-04
8.900000e+08	3.101539e+13	0.000000e+00	6.910566e-01	8.268266e+14	7.386074e+14	1.935613e+14	1.460765e+04	6.996548e+03	4.523957e+03	0	9.311525e-04
9.000000e+08	3.055068e+13	0.000000e+00	6.910566e-01	8.224901e+14	7.441711e+14	1.926735e+14	1.459043e+04	7.005295e+03	4.529613e+03	0	9.264785e-04
9.100000e+08	3.008717e+13	0.000000e+00	6.910566e-01	8.181667e+14	7.495505e+14	1.917917e+14	1.457331e+04	7.013707e+03	4.535052e+03	0	9.217691e-04
9.200000e+08	2.962498e+13	0.000000e+00	6.910566e-01	8.138572e+14	7.547462e+14	1.909160e+14	1.455628e+04	7.021789e+03	4.540277e+03	0	9.170248e-04
9.300000e+08	2.916422e+13	0.000000e+00	6.910566e-01	8.095625e+14	7.597593e+14	1.900463e+14	1.453933e+04	7.029548e+03	4.545294e+03	0	9.122457e-04
9.400000e+08	2.870497e+13	0.000000e+00	6.910566e-01	8.052833e+14	7.645909e+14	1.891826e+14	1.452248e+04	7.036990e+03	4.550107e+03	0	9.074320e-04
9.500000e+08	2.824735e+13	0.000000e+00	6.910566e-01	8.010203e+14	7.692425e+14	1.883247e+14	1.450571e+04	7.044122e+03	4.554718e+03	0	9.025839e-04
9.600000e+08	2.779142e+13	0.000000e+00	6.910566e-01	7.967742e+14	7.737153e+14	1.874727e+14	1.448903e+04	7.050950e+03	4.559133e+03	0	8.977015e-04
9.700000e+08	2.733728e+13	0.000000e+00	6.910566e-01	7.925457e+14	7.780113e+14	1.866265e+14	1.447244e+04	7.057481e+03	4.563356e+03	0	8.927849e-04
9.800000e+08	2.688501e+13	0.000000e+00	6.910566e-01	7.883354e+14	7.821319e+14	1.857860e+14	1.445594e+04	7.063720e+03	4.567390e+03	0	8.878340e-04
9.900000e+08	2.643468e+13	0.000000e+00	6.910566e-01	7.841438e+14	7.860792e+14	1.849513e+14	1.443953e+04	7.069674e+03	4.571240e+03	0	8.828490e-04
1.000000e+09	2.598637e+13	0.000000e+00	6.910566e-01	7.799715e+14	7.898550e+14	1.841222e+14	1.442320e+04	7.075348e+03	4.574909e+03	0	8.778296e-04
1.010000e+09	2.554013e+13	0.000000e+00	6.910566e-01	7.758190e+14	7.934617e+14	1.832987e+14	1.440696e+04	7.080750e+03	4.578402e+03	0	8.727759e-04
1.020000e+09	2.509603e+13	0.000000e+00	6.910566e-01	7.716867e+14	7.969020e+14	1.824809e+14	1.439081e+04	7.085885e+03	4.581722e+03	0	8.676876e-04
1.030000e+09	2.465413e+13	0.000000e+00	6.910566e-01	7.675752e+14	8.001774e+14	1.816685e+14	1.437474e+04	7.090760e+03	4.584874e+03	0	8.625646e-04
1.040000e+09	2.421449e+13	0.000000e+00	6.910566e-01	7.634847e+14	8.032908e+14	1.808617e+14	1.435876e+04	7.095379e+03	4.587861e+03	0	8.574066e-04
1.050000e+09	2.377715e+13	0.000000e+00	6.910566e-01	7.594158e+14	8.062446e+14	1.800603e+14	1.434286e+04	7.099749e+03	4.590687e+03	0	8.522133e-04
1.060000e+09	2.334217e+13	0.000000e+00	6.910566e-01	7.553687e+14	8.090416e+14	1.792643e+14	1.432705e+04	7.103877e+03	4.593355e+03	0	8.469845e-04
1.070000e+09	2.290958e+13	0.000000e+00	6.910566e-01	7.513438e+14	8.116840e+14	1.784736e+14	1.431132e+04	7.107767e+03	4.595871e+03	0	8.417196e-04
1.080000e+09	2.247943e+13	0.000000e+00	6.910566e-01	7.473414e+14	8.141751e+14	1.776883e+14	1.429567e+04	7.111425e+03	4.598236e+03	0	8.364182e-04
1.090000e+09	2.205176e+13	0.000000e+00	6.910566e-01	7.433617e+14	8.165171e+14	1.769083e+14	1.428011e+04	7.114857e+03	4.600455e+03	0	8.310799e-04
1.100000e+09	2.162660e+13	0.000000e+00	6.910566e-01	7.394050e+14	8.187131e+14	1.761335e+14	1.426463e+04	7.118068e+03	4.602531e+03	0	8.257041e-04
1.110000e+09	2.120398e+13	0.000000e+00	6.910566e-01	7.354716e+14	8.207659e+14	1.753639e+14	1.424923e+04	7.121064e+03	4.604469e+03	0	8.202901e-04
1.120000e+09	2.078393e+13	0.000000e+00	6.910566e-01	7.315617e+14	8.226783e+14	1.745994e+14	1.423392e+04	7.123851e+03	4.606270e+03	0	8.148374e-04
1.130000e+09	2.036648e+13	0.000000e+00	6.910566e-01	7.276754e+14	8.244532e+14	1.738401e+14	1.421868e+04	7.126432e+03	4.607940e+03	0	8.093450e-04
1.140000e+09	1.995165e+13	0.000000e+00	6.910566e-01	7.238130e+14	8.260936e+14	1.730859e+14	1.420353e+04	7.128814e+03	4.609480e+03	0	8.038124e-04
1.150000e+09	1.953947e+13	0.000000e+00	6.910566e-01	7.199745e+14	8.276022e+14	1.723366e+14	1.418846e+04	7.131002e+03	4.610895e+03	0	7.982385e-04
1.160000e+09	1.912995e+13	0.000000e+00	6.910566e-01	7.161601e+14	8.289820e+14	1.715924e+14	1.417346e+04	7.133001e+03	4.612187e+03	0	7.926224e-04
1.170000e+09	1.872311e+13	0.000000e+00	6.910566e-01	7.123699e+14	8.302361e+14	1.708532e+14	1.415855e+04	7.134815e+03	4.613360e+03	0	7.869632e-04
1.180000e+09	1.831897e+13	0.000000e+00	6.910566e-01	7.086040e+14	8.313671e+14	1.701188e+14	1.414371e+04	7.136450e+03	4.614417e+03	0	7.812597e-04
1.190000e+09	1.791754e+13	0.000000e+00	6.910566e-01	7.048626e+14	8.323782e+14	1.693894e+14	1.412896e+04	7.137909e+03	4.615361e+03	0	7.755108e-04
1.200000e+09	1.751882e+13	0.000000e+00	6.910566e-01	7.011455e+14	8.332719e+14	1.686647e+14	1.411428e+04	7.139199e+03	4.616195e+03	0	7.697151e-04
1.210000e+09	1.712284e+13	0.000000e+00	6.910566e-01	6.974531e+14	8.340516e+14	1.679449e+14	1.409968e+04	7.140323e+03	4.616921e+03	0	7.638715e-04
1.220000e+09	1.672959e+13	0.000000e+00	6.910566e-01	6.937851e+14	8.347199e+14	1.672299e+14	1.408515e+04	7.141285e+03	4.617544e+03	0	7.579784e-04
1.230000e+09	1.633909e+13	0.000000e+00	6.910566e-01	6.901418e+14	8.352794e+14	1.665196e+14	1.407070e+04	7.142091e+03	4.618065e+03	0	7.520343e-04
1.240000e+09	1.595133e+13	0.000000e+00	6.910566e-01	6.865230e+14	8.357333e+14	1.658139e+14	1.405633e+04	7.142744e+03	4.618487e+03	0	7.460375e-04
1.250000e+09	1.556632e+13	0.000000e+00	6.910566e-01	6.829289e+14	8.360841e+14	1.651130e+14	1.404203e+04	7.143249e+03	4.618813e+03	0	7.399864e-04
1.260000e+09	1.518407e+13	0.000000e+00	6.910566e-01	6.793593e+14	8.363350e+14	1.644166e+14	1.402781e+04	7.143610e+03	4.619047e+03	0	7.338789e-04
1.270000e+09	1.480456e+13	0.000000e+00	6.910566e-01	6.758143e+14	8.364882e+14	1.637249e+14	1.401366e+04	7.143830e+03	4.619189e+03	0	7.277131e-04
1.280000e+09	1.442781e+13	0.000000e+00	6.910566e-01	6.722938e+14	8.365467e+14	1.630377e+14	1.399958e+04	7.143914e+03	4.619243e+03	0	7.214869e-04
1.290000e+09	1.405380e+13	0.000000e+00	6.910566e-01	6.687979e+14	8.365128e+14	1.623550e+14	1.398558e+04	7.143865e+03	4.619212e+03	0	7.151980e-04
1.300000e+09	1.368254e+13	0.000000e+00	6.910566e-01	6.653264e+14	8.363898e+14	1.616768e+14	1.397165e+04	7.143688e+03	4.619098e+03	0	7.088439e-04
1.310000e+09	1.331402e+13	0.000000e+00	6.910566e-01	6.618793e+14	8.361798e+14	1.610030e+14	1.395779e+04	7.143386e+03	4.618902e+03	0	7.024220e-04
1.320000e+09	1.294823e+13	0.000000e+00	6.910566e-01	6.584565e+14	8.358853e+14	1.603337e+14	1.394401e+04	7.142963e+03	4.618628e+03	0	6.959294e-04
1.330000e+09	1.258517e+13	0.000000e+00	6.910566e-01	6.550580e+14	8.355090e+14	1.596687e+14	1.393029e+04	7.142421e+03	4.618278e+03	0	6.893632e-04
1.340000e+09	1.222483e+13	0.000000e+00	6.910566e-01	6.516837e+14	8.350535e+14	1.590081e+14	1.391665e+04	7.141766e+03	4.617854e+03	0	6.827201e-04
1.350000e+09	1.186721e+13	0.000000e+00	6.910566e-01	6.483335e+14	8.345209e+14	1.583518e+14	1.390308e+04	7.140999e+03	4.617358e+03	0	6.759967e-04
1.360000e+09	1.151228e+13	0.000000e+00	6.910566e-01	6.450072e+14	8.339135e+14	1.576997e+14	1.388957e+04	7.140124e+03	4.616793e+03	0	6.691891e-04
