#t		Qconv[W]	Ri[Rp]		R*[Rp]		Qc[W]		Qm[W]		Qr[W]		Tcmb[K]		Tl[K]		Tup[K]		RiFlag		Bs[T]
0.000000e+00	8.591060e+14	0.000000e+00	6.829271e-01	7.807062e+15	3.214099e+13	3.650652e+14	2.632889e+04	5.417954e+03	3.030491e+03	0	2.819810e-03
1.000000e+07	8.575327e+14	0.000000e+00	6.829271e-01	7.788073e+15	4.450596e+13	3.630424e+14	2.619739e+04	5.644168e+03	3.157022e+03	0	2.818088e-03
2.000000e+07	8.552381e+14	0.000000e+00	6.829271e-01	7.763794e+15	6.027268e+13	3.610348e+14	2.606621e+04	5.869408e+03	3.283008e+03	0	2.815572e-03
3.000000e+07	8.522225e+14	0.000000e+00	6.829271e-01	7.734229e+15	7.999819e+13	3.590422e+14	2.593544e+04	6.093424e+03	3.408309e+03	0	2.812259e-03
4.000000e+07	8.484884e+14	0.000000e+00	6.829271e-01	7.699403e+15	1.042517e+14	3.570645e+14	2.580515e+04	6.315953e+03	3.532779e+03	0	2.808146e-03
5.000000e+07	8.440416e+14	0.000000e+00	6.829271e-01	7.659364e+15	1.336006e+14	3.551015e+14	2.567545e+04	6.536714e+03	3.656260e+03	0	2.803231e-03
6.000000e+07	8.388908e+14	0.000000e+00	6.829271e-01	7.614179e+15	1.685956e+14	3.531532e+14	2.554641e+04	6.755414e+03	3.778588e+03	0	2.797517e-03
7.000000e+07	8.330479e+14	0.000000e+00	6.829271e-01	7.563943e+15	2.097543e+14	3.512194e+14	2.541813e+04	6.971745e+03	3.899591e+03	0	2.791007e-03
8.000000e+07	8.265287e+14	0.000000e+00	6.829271e-01	7.508775e+15	2.575450e+14	3.492999e+14	2.529069e+04	7.185389e+03	4.019091e+03	0	2.783708e-03
9.000000e+07	8.193521e+14	0.000000e+00	6.829271e-01	7.448821e+15	3.123708e+14	3.473947e+14	2.516418e+04	7.396020e+03	4.136906e+03	0	2.775628e-03
1.000000e+08	8.115412e+14	0.000000e+00	6.829271e-01	7.384254e+15	3.745540e+14	3.455037e+14	2.503866e+04	7.603304e+03	4.252849e+03	0	2.766779e-03
1.100000e+08	8.031225e+14	0.000000e+00	6.829271e-01	7.315273e+15	4.443224e+14	3.436267e+14	2.491423e+04	7.806905e+03	4.366732e+03	0	2.757179e-03
1.200000e+08	7.941264e+14	0.000000e+00	6.829271e-01	7.242107e+15	5.217971e+14	3.417636e+14	2.479095e+04	8.006488e+03	4.478367e+03	0	2.746845e-03
1.300000e+08	7.845865e+14	0.000000e+00	6.829271e-01	7.165007e+15	6.069838e+14	3.399143e+14	2.466889e+04	8.201723e+03	4.587570e+03	0	2.735802e-03
1.400000e+08	7.745400e+14	0.000000e+00	6.829271e-01	7.084250e+15	6.997662e+14	3.380787e+14	2.454813e+04	8.392287e+03	4.694161e+03	0	2.724074e-03
1.500000e+08	7.640268e+14	0.000000e+00	6.829271e-01	7.000135e+15	7.999043e+14	3.362567e+14	2.442872e+04	8.577871e+03	4.797965e+03	0	2.711693e-03
1.600000e+08	7.530895e+14	0.000000e+00	6.829271e-01	6.912977e+15	9.070341e+14	3.344481e+14	2.431072e+04	8.758181e+03	4.898821e+03	0	2.698691e-03
1.700000e+08	7.417727e+14	0.000000e+00	6.829271e-01	6.823107e+15	1.020673e+15	3.326529e+14	2.419418e+04	8.932947e+03	4.996574e+03	0	2.685105e-03
1.800000e+08	7.301224e+14	0.000000e+00	6.829271e-01	6.730868e+15	1.140231e+15	3.308709e+14	2.407915e+04	9.101918e+03	5.091087e+03	0	2.670973e-03
1.900000e+08	7.181859e+14	0.000000e+00	6.829271e-01	6.636609e+15	1.265015e+15	3.291020e+14	2.396566e+04	9.264876e+03	5.182236e+03	0	2.656338e-03
2.000000e+08	7.060107e+14	0.000000e+00	6.829271e-01	6.540681e+15	1.394253e+15	3.273462e+14	2.385376e+04	9.421628e+03	5.269914e+03	0	2.641241e-03
2.100000e+08	6.936439e+14	0.000000e+00	6.829271e-01	6.443434e+15	1.527104e+15	3.256033e+14	2.374346e+04	9.572017e+03	5.354033e+03	0	2.625729e-03
2.200000e+08	6.811320e+14	0.000000e+00	6.829271e-01	6.345210e+15	1.662680e+15	3.238731e+14	2.363480e+04	9.715919e+03	5.434523e+03	0	2.609845e-03
2.300000e+08	6.685202e+14	0.000000e+00	6.829271e-01	6.246345e+15	1.800063e+15	3.221557e+14	2.352778e+04	9.853242e+03	5.511334e+03	0	2.593637e-03
2.400000e+08	6.558518e+14	0.000000e+00	6.829271e-01	6.147155e+15	1.938326e+15	3.204508e+14	2.342242e+04	9.983933e+03	5.584435e+03	0	2.577149e-03
2.500000e+08	6.431678e+14	0.000000e+00	6.829271e-01	6.047945e+15	2.076550e+15	3.187584e+14	2.331873e+04	1.010797e+04	5.653815e+03	0	2.560427e-03
2.600000e+08	6.305067e+14	0.000000e+00	6.829271e-01	5.948997e+15	2.213844e+15	3.170785e+14	2.321670e+04	1.022537e+04	5.719481e+03	0	2.543515e-03
2.700000e+08	6.179040e+14	0.000000e+00	6.829271e-01	5.850573e+15	2.349357e+15	3.154108e+14	2.311634e+04	1.033617e+04	5.781458e+03	0	2.526454e-03
2.800000e+08	6.053921e+14	0.000000e+00	6.829271e-01	5.752911e+15	2.482293e+15	3.137553e+14	2.301762e+04	1.044046e+04	5.839790e+03	0	2.509285e-03
2.900000e+08	5.930004e+14	0.000000e+00	6.829271e-01	5.656225e+15	2.611925e+15	3.121118e+14	2.292055e+04	1.053833e+04	5.894533e+03	0	2.492046e-03
3.000000e+08	5.807547e+14	0.000000e+00	6.829271e-01	5.560706e+15	2.737594e+15	3.104804e+14	2.282510e+04	1.062991e+04	5.945759e+03	0	2.474772e-03
3.100000e+08	5.686778e+14	0.000000e+00	6.829271e-01	5.466519e+15	2.858727e+15	3.088608e+14	2.273125e+04	1.071536e+04	5.993554e+03	0	2.457498e-03
3.200000e+08	5.567892e+14	0.000000e+00	6.829271e-01	5.373808e+15	2.974829e+15	3.072530e+14	2.263899e+04	1.079485e+04	6.038013e+03	0	2.440251e-03
3.300000e+08	5.451053e+14	0.000000e+00	6.829271e-01	5.282691e+15	3.085492e+15	3.056569e+14	2.254828e+04	1.086855e+04	6.079240e+03	0	2.423062e-03
3.400000e+08	5.336396e+14	0.000000e+00	6.829271e-01	5.193267e+15	3.190388e+15	3.040724e+14	2.245911e+04	1.093668e+04	6.117347e+03	0	2.405952e-03
3.500000e+08	5.224032e+14	0.000000e+00	6.829271e-01	5.105615e+15	3.289270e+15	3.024994e+14	2.237144e+04	1.099944e+04	6.152454e+03	0	2.388946e-03
3.600000e+08	5.114041e+14	0.000000e+00	6.829271e-01	5.019794e+15	3.381966e+15	3.009378e+14	2.228524e+04	1.105706e+04	6.184682e+03	0	2.372060e-03
3.700000e+08	5.006486e+14	0.000000e+00	6.829271e-01	4.935846e+15	3.468374e+15	2.993875e+14	2.220048e+04	1.110976e+04	6.214157e+03	0	2.355313e-03
3.800000e+08	4.901406e+14	0.000000e+00	6.829271e-01	4.853800e+15	3.548453e+15	2.978484e+14	2.211713e+04	1.115776e+04	6.241007e+03	0	2.338718e-03
3.900000e+08	4.798823e+14	0.000000e+00	6.829271e-01	4.773669e+15	3.622225e+15	2.963205e+14	2.203517e+04	1.120130e+04	6.265360e+03	0	2.322287e-03
4.000000e+08	4.698742e+14	0.000000e+00	6.829271e-01	4.695457e+15	3.689755e+15	2.948036e+14	2.195455e+04	1.124060e+04	6.287343e+03	0	2.306030e-03
4.100000e+08	4.601156e+14	0.000000e+00	6.829271e-01	4.619155e+15	3.751162e+15	2.932976e+14	2.187524e+04	1.127589e+04	6.307084e+03	0	2.289953e-03
4.200000e+08	4.506044e+14	0.000000e+00	6.829271e-01	4.544747e+15	3.806590e+15	2.918025e+14	2.179722e+04	1.130740e+04	6.324705e+03	0	2.274065e-03
4.300000e+08	4.413377e+14	0.000000e+00	6.829271e-01	4.472208e+15	3.856225e+15	2.903181e+14	2.172045e+04	1.133533e+04	6.340328e+03	0	2.258368e-03
4.400000e+08	4.323116e+14	0.000000e+00	6.829271e-01	4.401509e+15	3.900265e+15	2.888444e+14	2.164490e+04	1.135990e+04	6.354072e+03	0	2.242866e-03
4.500000e+08	4.235215e+14	0.000000e+00	6.829271e-01	4.332615e+15	3.938940e+15	2.873814e+14	2.157054e+04	1.138131e+04	6.366049e+03	0	2.227560e-03
4.600000e+08	4.149624e+14	0.000000e+00	6.829271e-01	4.265487e+15	3.972487e+15	2.859288e+14	2.149734e+04	1.139977e+04	6.376370e+03	0	2.212452e-03
4.700000e+08	4.066289e+14	0.000000e+00	6.829271e-01	4.200083e+15	4.001156e+15	2.844866e+14	2.142526e+04	1.141545e+04	6.385141e+03	0	2.197541e-03
4.800000e+08	3.985150e+14	0.000000e+00	6.829271e-01	4.136357e+15	4.025195e+15	2.830548e+14	2.135429e+04	1.142853e+04	6.392462e+03	0	2.182827e-03
4.900000e+08	3.906149e+14	0.000000e+00	6.829271e-01	4.074266e+15	4.044869e+15	2.816332e+14	2.128439e+04	1.143920e+04	6.398430e+03	0	2.168306e-03
5.000000e+08	3.829223e+14	0.000000e+00	6.829271e-01	4.013761e+15	4.060433e+15	2.802218e+14	2.121553e+04	1.144762e+04	6.403135e+03	0	2.153978e-03
5.100000e+08	3.754311e+14	0.000000e+00	6.829271e-01	3.954795e+15	4.072136e+15	2.788205e+14	2.114770e+04	1.145393e+04	6.406666e+03	0	2.139839e-03
5.200000e+08	3.681349e+14	0.000000e+00	6.829271e-01	3.897321e+15	4.080232e+15	2.774291e+14	2.108085e+04	1.145829e+04	6.409104e+03	0	2.125886e-03
5.300000e+08	3.610275e+14	0.000000e+00	6.829271e-01	3.841292e+15	4.084962e+15	2.760477e+14	2.101497e+04	1.146083e+04	6.410526e+03	0	2.112116e-03
5.400000e+08	3.541028e+14	0.000000e+00	6.829271e-01	3.786660e+15	4.086559e+15	2.746761e+14	2.095004e+04	1.146169e+04	6.411007e+03	0	2.098525e-03
5.500000e+08	3.473548e+14	0.000000e+00	6.829271e-01	3.733381e+15	4.085252e+15	2.733143e+14	2.088602e+04	1.146099e+04	6.410614e+03	0	2.085109e-03
5.600000e+08	3.407775e+14	0.000000e+00	6.829271e-01	3.681409e+15	4.081257e+15	2.719622e+14	2.082290e+04	1.145884e+04	6.409413e+03	0	2.071864e-03
5.700000e+08	3.343651e+14	0.000000e+00	6.829271e-01	3.630700e+15	4.074783e+15	2.706197e+14	2.076066e+04	1.145535e+04	6.407463e+03	0	2.058787e-03
5.800000e+08	3.281121e+14	0.000000e+00	6.829271e-01	3.581212e+15	4.066023e+15	2.692867e+14	2.069927e+04	1.145063e+04	6.404823e+03	0	2.045872e-03
5.900000e+08	3.220130e+14	0.000000e+00	6.829271e-01	3.532904e+15	4.055166e+15	2.679631e+14	2.063871e+04	1.144477e+04	6.401545e+03	0	2.033116e-03
6.000000e+08	3.160624e+14	0.000000e+00	6.829271e-01	3.485736e+15	4.042390e+15	2.666489e+14	2.057897e+04	1.143786e+04	6.397678e+03	0	2.020514e-03
6.100000e+08	3.102554e+14	0.000000e+00	6.829271e-01	3.439669e+15	4.027857e+15	2.653441e+14	2.052002e+04	1.142998e+04	6.393270e+03	0	2.008064e-03
6.200000e+08	3.045870e+14	0.000000e+00	6.829271e-01	3.394666e+15	4.011726e+15	2.640484e+14	2.046185e+04	1.142121e+04	6.388364e+03	0	1.995759e-03
6.300000e+08	2.990525e+14	0.000000e+00	6.829271e-01	3.350691e+15	3.994142e+15	2.627619e+14	2.040443e+04	1.141162e+04	6.383000e+03	0	1.983597e-03
6.400000e+08	2.936473e+14	0.000000e+00	6.829271e-01	3.307711e+15	3.975245e+15	2.614844e+14	2.034776e+04	1.140128e+04	6.377216e+03	0	1.971574e-03
6.500000e+08	2.883672e+14	0.000000e+00	6.829271e-01	3.265691e+15	3.955156e+15	2.602160e+14	2.029181e+04	1.139025e+04	6.371046e+03	0	1.959685e-03
6.600000e+08	2.832078e+14	0.000000e+00	6.829271e-01	3.224600e+15	3.934001e+15	2.589565e+14	2.023657e+04	1.137859e+04	6.364524e+03	0	1.947927e-03
6.700000e+08	2.781652e+14	0.000000e+00	6.829271e-01	3.184408e+15	3.911888e+15	2.577058e+14	2.018202e+04	1.136635e+04	6.357680e+03	0	1.936297e-03
6.800000e+08	2.732355e+14	0.000000e+00	6.829271e-01	3.145085e+15	3.888919e+15	2.564639e+14	2.012814e+04	1.135359e+04	6.350542e+03	0	1.924790e-03
6.900000e+08	2.684151e+14	0.000000e+00	6.829271e-01	3.106604e+15	3.865193e+15	2.552307e+14	2.007493e+04	1.134035e+04	6.343136e+03	0	1.913404e-03
7.000000e+08	2.637004e+14	0.000000e+00	6.829271e-01	3.068937e+15	3.840795e+15	2.540062e+14	2.002237e+04	1.132667e+04	6.335487e+03	0	1.902135e-03
7.100000e+08	2.590880e+14	0.000000e+00	6.829271e-01	3.032059e+15	3.815808e+15	2.527903e+14	1.997044e+04	1.131260e+04	6.327617e+03	0	1.890979e-03
7.200000e+08	2.545746e+14	0.000000e+00	6.829271e-01	2.995945e+15	3.790307e+15	2.515828e+14	1.991914e+04	1.129818e+04	6.319547e+03	0	1.879934e-03
7.300000e+08	2.501571e+14	0.000000e+00	6.829271e-01	2.960572e+15	3.764364e+15	2.503838e+14	1.986844e+04	1.128343e+04	6.311297e+03	0	1.868997e-03
7.400000e+08	2.458326e+14	0.000000e+00	6.829271e-01	2.925916e+15	3.738041e+15	2.491932e+14	1.981834e+04	1.126839e+04	6.302885e+03	0	1.858164e-03
7.500000e+08	2.415982e+14	0.000000e+00	6.829271e-01	2.891957e+15	3.711395e+15	2.480108e+14	1.976882e+04	1.125309e+04	6.294327e+03	0	1.847434e-03
7.600000e+08	2.374511e+14	0.000000e+00	6.829271e-01	2.858672e+15	3.684487e+15	2.468367e+14	1.971988e+04	1.123755e+04	6.285639e+03	0	1.836802e-03
7.700000e+08	2.333887e+14	0.000000e+00	6.829271e-01	2.826043e+15	3.657363e+15	2.456708e+14	1.967150e+04	1.122182e+04	6.276835e+03	0	1.826267e-03
7.800000e+08	2.294084e+14	0.000000e+00	6.829271e-01	2.794049e+15	3.630069e+15	2.445129e+14	1.962366e+04	1.120589e+04	6.267929e+03	0	1.815826e-03
7.900000e+08	2.255080e+14	0.000000e+00	6.829271e-01	2.762673e+15	3.602649e+15	2.433631e+14	1.957637e+04	1.118981e+04	6.258932e+03	0	1.805476e-03
8.000000e+08	2.216849e+14	0.000000e+00	6.829271e-01	2.731897e+15	3.575138e+15	2.422213e+14	1.952961e+04	1.117358e+04	6.249857e+03	0	1.795215e-03
8.100000e+08	2.179371e+14	0.000000e+00	6.829271e-01	2.701704e+15	3.547573e+15	2.410874e+14	1.948336e+04	1.115724e+04	6.240714e+03	0	1.785040e-03
8.200000e+08	2.142623e+14	0.000000e+00	6.829271e-01	2.672077e+15	3.519987e+15	2.399614e+14	1.943762e+04	1.114079e+04	6.231513e+03	0	1.774950e-03
8.300000e+08	2.106585e+14	0.000000e+00	6.829271e-01	2.643000e+15	3.492410e+15	2.388431e+14	1.939239e+04	1.112425e+04	6.222262e+03	0	1.764943e-03
8.400000e+08	2.071237e+14	0.000000e+00	6.829271e-01	2.614459e+15	3.464866e+15	2.377325e+14	1.934764e+04	1.110764e+04	6.212971e+03	0	1.755015e-03
8.500000e+08	2.036560e+14	0.000000e+00	6.829271e-01	2.586440e+15	3.437381e+15	2.366297e+14	1.930338e+04	1.109097e+04	6.203646e+03	0	1.745166e-03
8.600000e+08	2.002535e+14	0.000000e+00	6.829271e-01	2.558927e+15	3.409977e+15	2.355344e+14	1.925958e+04	1.107425e+04	6.194295e+03	0	1.735393e-03
8.700000e+08	1.969146e+14	0.000000e+00	6.829271e-01	2.531908e+15	3.382674e+15	2.344466e+14	1.921626e+04	1.105750e+04	6.184925e+03	0	1.725693e-03
8.800000e+08	1.936375e+14	0.000000e+00	6.829271e-01	2.505370e+15	3.355488e+15	2.333664e+14	1.917338e+04	1.104072e+04	6.175541e+03	0	1.716067e-03
8.900000e+08	1.904205e+14	0.000000e+00	6.829271e-01	2.479299e+15	3.328438e+15	2.322935e+14	1.913096e+04	1.102393e+04	6.166150e+03	0	1.706510e-03
9.000000e+08	1.872622e+14	0.000000e+00	6.829271e-01	2.453685e+15	3.301537e+15	2.312281e+14	1.908897e+04	1.100714e+04	6.156756e+03	0	1.697023e-03
9.100000e+08	1.841609e+14	0.000000e+00	6.829271e-01	2.428516e+15	3.274800e+15	2.301699e+14	1.904742e+04	1.099035e+04	6.147364e+03	0	1.687602e-03
9.200000e+08	1.811152e+14	0.000000e+00	6.829271e-01	2.403779e+15	3.248238e+15	2.291190e+14	1.900629e+04	1.097357e+04	6.137979e+03	0	1.678247e-03
9.300000e+08	1.781237e+14	0.000000e+00	6.829271e-01	2.379465e+15	3.221859e+15	2.280752e+14	1.896558e+04	1.095681e+04	6.128605e+03	0	1.668956e-03
9.400000e+08	1.751851e+14	0.000000e+00	6.829271e-01	2.355563e+15	3.195676e+15	2.270386e+14	1.892528e+04	1.094007e+04	6.119244e+03	0	1.659727e-03
9.500000e+08	1.722979e+14	0.000000e+00	6.829271e-01	2.332063e+15	3.169696e+15	2.260091e+14	1.888539e+04	1.092337e+04	6.109902e+03	0	1.650559e-03
9.600000e+08	1.694610e+14	0.000000e+00	6.829271e-01	2.308955e+15	3.143925e+15	2.249866e+14	1.884589e+04	1.090671e+04	6.100581e+03	0	1.641450e-03
9.700000e+08	1.666731e+14	0.000000e+00	6.829271e-01	2.286230e+15	3.118371e+15	2.239710e+14	1.880678e+04	1.089008e+04	6.091283e+03	0	1.632399e-03
9.800000e+08	1.639331e+14	0.000000e+00	6.829271e-01	2.263879e+15	3.093039e+15	2.229624e+14	1.876805e+04	1.087351e+04	6.082012e+03	0	1.623404e-03
9.900000e+08	1.612397e+14	0.000000e+00	6.829271e-01	2.241892e+15	3.067933e+15	2.219606e+14	1.872970e+04	1.085699e+04	6.072770e+03	0	1.614464e-03
1.000000e+09	1.585918e+14	0.000000e+00	6.829271e-01	2.220261e+15	3.043059e+15	2.209656e+14	1.869173e+04	1.084052e+04	6.063560e+03	0	1.605577e-03
1.010000e+09	1.559884e+14	0.000000e+00	6.829271e-01	2.198979e+15	3.018419e+15	2.199774e+14	1.865411e+04	1.082411e+04	6.054382e+03	0	1.596743e-03
1.020000e+09	1.534285e+14	0.000000e+00	6.829271e-01	2.178036e+15	2.994015e+15	2.189959e+14	1.861686e+04	1.080777e+04	6.045239e+03	0	1.587960e-03
1.030000e+09	1.509109e+14	0.000000e+00	6.829271e-01	2.157426e+15	2.969853e+15	2.180210e+14	1.857996e+04	1.079149e+04	6.036134e+03	0	1.579227e-03
1.040000e+09	1.484349e+14	0.000000e+00	6.829271e-01	2.137140e+15	2.945931e+15	2.170527e+14	1.854341e+04	1.077527e+04	6.027066e+03	0	1.570542e-03
1.050000e+09	1.459993e+14	0.000000e+00	6.829271e-01	2.117172e+15	2.922252e+15	2.160909e+14	1.850720e+04	1.075913e+04	6.018038e+03	0	1.561905e-03
1.060000e+09	1.436033e+14	0.000000e+00	6.829271e-01	2.097514e+15	2.898817e+15	2.151356e+14	1.847133e+04	1.074307e+04	6.009051e+03	0	1.553314e-03
1.070000e+09	1.412460e+14	0.000000e+00	6.829271e-01	2.078159e+15	2.875627e+15	2.141868e+14	1.843579e+04	1.072708e+04	6.000106e+03	0	1.544767e-03
1.080000e+09	1.389265e+14	0.000000e+00	6.829271e-01	2.059102e+15	2.852681e+15	2.132443e+14	1.840057e+04	1.071116e+04	5.991204e+03	0	1.536265e-03
1.090000e+09	1.366440e+14	0.000000e+00	6.829271e-01	2.040334e+15	2.829979e+15	2.123082e+14	1.836568e+04	1.069532e+04	5.982346e+03	0	1.527805e-03
1.100000e+09	1.343977e+14	0.000000e+00	6.829271e-01	2.021851e+15	2.807523e+15	2.113784e+14	1.833111e+04	1.067957e+04	5.973533e+03	0	1.519387e-03
1.110000e+09	1.321868e+14	0.000000e+00	6.829271e-01	2.003646e+15	2.785309e+15	2.104548e+14	1.829685e+04	1.066389e+04	5.964765e+03	0	1.511009e-03
1.120000e+09	1.300104e+14	0.000000e+00	6.829271e-01	1.985714e+15	2.763338e+15	2.095374e+14	1.826289e+04	1.064830e+04	5.956043e+03	0	1.502670e-03
1.130000e+09	1.278680e+14	0.000000e+00	6.829271e-01	1.968047e+15	2.741610e+15	2.086261e+14	1.822924e+04	1.063279e+04	5.947368e+03	0	1.494371e-03
1.140000e+09	1.257587e+14	0.000000e+00	6.829271e-01	1.950642e+15	2.720122e+15	2.077209e+14	1.819589e+04	1.061737e+04	5.938741e+03	0	1.486108e-03
1.150000e+09	1.236818e+14	0.000000e+00	6.829271e-01	1.933491e+15	2.698874e+15	2.068218e+14	1.816283e+04	1.060203e+04	5.930160e+03	0	1.477882e-03
1.160000e+09	1.216368e+14	0.000000e+00	6.829271e-01	1.916591e+15	2.677864e+15	2.059286e+14	1.813006e+04	1.058677e+04	5.921628e+03	0	1.469691e-03
1.170000e+09	1.196228e+14	0.000000e+00	6.829271e-01	1.899936e+15	2.657090e+15	2.050414e+14	1.809758e+04	1.057160e+04	5.913144e+03	0	1.461534e-03
1.180000e+09	1.176392e+14	0.000000e+00	6.829271e-01	1.883521e+15	2.636548e+15	2.041601e+14	1.806537e+04	1.055652e+04	5.904709e+03	0	1.453411e-03
1.190000e+09	1.156855e+14	0.000000e+00	6.829271e-01	1.867341e+15	2.616242e+15	2.032847e+14	1.803345e+04	1.054153e+04	5.896322e+03	0	1.445320e-03
1.200000e+09	1.137610e+14	0.000000e+00	6.829271e-01	1.851391e+15	2.596164e+15	2.024151e+14	1.800180e+04	1.052662e+04	5.887984e+03	0	1.437260e-03
1.210000e+09	1.118651e+14	0.000000e+00	6.829271e-01	1.835668e+15	2.576316e+15	2.015512e+14	1.797042e+04	1.051180e+04	5.879695e+03	0	1.429231e-03
1.220000e+09	1.099972e+14	0.000000e+00	6.829271e-01	1.820165e+15	2.556693e+15	2.006931e+14	1.793930e+04	1.049707e+04	5.871455e+03	0	1.421232e-03
1.230000e+09	1.081568e+14	0.000000e+00	6.829271e-01	1.804880e+15	2.537295e+15	1.998407e+14	1.790844e+04	1.048243e+04	5.863264e+03	0	1.413261e-03
1.240000e+09	1.063434e+14	0.000000e+00	6.829271e-01	1.789807e+15	2.518119e+15	1.989938e+14	1.787785e+04	1.046787e+04	5.855122e+03	0	1.405318e-03
1.250000e+09	1.045563e+14	0.000000e+00	6.829271e-01	1.774943e+15	2.499162e+15	1.981526e+14	1.784751e+04	1.045340e+04	5.847029e+03	0	1.397401e-03
1.260000e+09	1.027951e+14	0.000000e+00	6.829271e-01	1.760284e+15	2.480423e+15	1.973169e+14	1.781742e+04	1.043902e+04	5.838984e+03	0	1.389510e-03
1.270000e+09	1.010592e+14	0.000000e+00	6.829271e-01	1.745825e+15	2.461897e+15	1.964868e+14	1.778757e+04	1.042473e+04	5.830989e+03	0	1.381644e-03
1.280000e+09	9.934818e+13	0.000000e+00	6.829271e-01	1.731562e+15	2.443584e+15	1.956621e+14	1.775798e+04	1.041052e+04	5.823043e+03	0	1.373803e-03
1.290000e+09	9.766155e+13	0.000000e+00	6.829271e-01	1.717493e+15	2.425481e+15	1.948428e+14	1.772862e+04	1.039640e+04	5.815145e+03	0	1.365984e-03
1.300000e+09	9.599883e+13	0.000000e+00	6.829271e-01	1.703613e+15	2.407585e+15	1.940288e+14	1.769950e+04	1.038237e+04	5.807295e+03	0	1.358187e-03
1.310000e+09	9.435956e+13	0.000000e+00	6.829271e-01	1.689919e+15	2.389895e+15	1.932203e+14	1.767062e+04	1.036842e+04	5.799494e+03	0	1.350412e-03
1.320000e+09	9.274329e+13	0.000000e+00	6.829271e-01	1.676408e+15	2.372407e+15	1.924170e+14	1.764196e+04	1.035456e+04	5.791741e+03	0	1.342657e-03
1.330000e+09	9.114959e+13	0.000000e+00	6.829271e-01	1.663075e+15	2.355117e+15	1.916189e+14	1.761354e+04	1.034078e+04	5.784035e+03	0	1.334922e-03
1.340000e+09	8.957803e+13	0.000000e+00	6.829271e-01	1.649918e+15	2.338027e+15	1.908261e+14	1.758534e+04	1.032709e+04	5.776378e+03	0	1.327205e-03
1.350000e+09	8.802819e+13	0.000000e+00	6.829271e-01	1.636934e+15	2.321131e+15	1.900385e+14	1.755736e+04	1.031348e+04	5.768767e+03	0	1.319507e-03
1.360000e+09	8.649967e+13	0.000000e+00	6.829271e-01	1.624119e+15	2.304427e+15	1.892560e+14	1.752961e+04	1.029996e+04	5.761204e+03	0	1.311825e-03
