#t		Qconv[W]	Ri[Rp]		R*[Rp]		Qc[W]		Qm[W]		Qr[W]		Tcmb[K]		Tl[K]		Tup[K]		RiFlag		Bs[T]
0.000000e+00	4.027955e+13	0.000000e+00	4.469695e-01	8.793212e+14	6.103485e+13	2.550082e+14	1.299114e+04	4.142808e+03	2.614953e+03	0	1.341236e-03
1.000000e+07	3.814379e+13	0.000000e+00	4.469695e-01	8.340329e+14	6.538345e+13	2.535952e+14	1.282973e+04	4.183933e+03	2.640911e+03	0	1.317099e-03
2.000000e+07	3.618553e+13	0.000000e+00	4.469695e-01	7.924950e+14	6.974195e+13	2.521929e+14	1.267647e+04	4.223096e+03	2.665631e+03	0	1.294162e-03
3.000000e+07	3.438467e+13	0.000000e+00	4.469695e-01	7.542836e+14	7.410236e+13	2.508010e+14	1.253070e+04	4.260442e+03	2.689204e+03	0	1.272327e-03
4.000000e+07	3.272394e+13	0.000000e+00	4.469695e-01	7.190344e+14	7.845743e+13	2.494195e+14	1.239183e+04	4.296100e+03	2.711711e+03	0	1.251504e-03
5.000000e+07	3.118845e+13	0.000000e+00	4.469695e-01	6.864330e+14	8.280058e+13	2.480483e+14	1.225932e+04	4.330183e+03	2.733225e+03	0	1.231615e-03
6.000000e+07	2.976529e+13	0.000000e+00	4.469695e-01	6.562069e+14	8.712579e+13	2.466873e+14	1.213273e+04	4.362795e+03	2.753809e+03	0	1.212590e-03
7.000000e+07	2.844320e+13	0.000000e+00	4.469695e-01	6.281187e+14	9.142764e+13	2.453365e+14	1.201161e+04	4.394027e+03	2.773523e+03	0	1.194364e-03
8.000000e+07	2.721236e+13	0.000000e+00	4.469695e-01	6.019606e+14	9.570116e+13	2.439957e+14	1.189559e+04	4.423964e+03	2.792420e+03	0	1.176881e-03
9.000000e+07	2.606413e+13	0.000000e+00	4.469695e-01	5.775505e+14	9.994182e+13	2.426649e+14	1.178433e+04	4.452681e+03	2.810546e+03	0	1.160090e-03
1.000000e+08	2.499089e+13	0.000000e+00	4.469695e-01	5.547277e+14	1.041455e+14	2.413440e+14	1.167750e+04	4.480248e+03	2.827946e+03	0	1.143943e-03
1.100000e+08	2.398594e+13	0.000000e+00	4.469695e-01	5.333502e+14	1.083085e+14	2.400328e+14	1.157484e+04	4.506726e+03	2.844659e+03	0	1.128399e-03
1.200000e+08	2.304330e+13	0.000000e+00	4.469695e-01	5.132920e+14	1.124274e+14	2.387314e+14	1.147607e+04	4.532173e+03	2.860721e+03	0	1.113419e-03
1.300000e+08	2.215767e+13	0.000000e+00	4.469695e-01	4.944410e+14	1.164990e+14	2.374396e+14	1.138097e+04	4.556643e+03	2.876167e+03	0	1.098968e-03
1.400000e+08	2.132430e+13	0.000000e+00	4.469695e-01	4.766970e+14	1.205206e+14	2.361574e+14	1.128931e+04	4.580183e+03	2.891026e+03	0	1.085014e-03
1.500000e+08	2.053897e+13	0.000000e+00	4.469695e-01	4.599705e+14	1.244896e+14	2.348847e+14	1.120090e+04	4.602839e+03	2.905326e+03	0	1.071528e-03
1.600000e+08	1.979786e+13	0.000000e+00	4.469695e-01	4.441811e+14	1.284036e+14	2.336213e+14	1.111554e+04	4.624653e+03	2.919095e+03	0	1.058481e-03
1.700000e+08	1.909756e+13	0.000000e+00	4.469695e-01	4.292565e+14	1.322608e+14	2.323673e+14	1.103308e+04	4.645662e+03	2.932356e+03	0	1.045851e-03
1.800000e+08	1.843497e+13	0.000000e+00	4.469695e-01	4.151313e+14	1.360590e+14	2.311225e+14	1.095335e+04	4.665903e+03	2.945132e+03	0	1.033613e-03
1.900000e+08	1.780730e+13	0.000000e+00	4.469695e-01	4.017466e+14	1.397967e+14	2.298869e+14	1.087622e+04	4.685408e+03	2.957444e+03	0	1.021747e-03
2.000000e+08	1.721204e+13	0.000000e+00	4.469695e-01	3.890489e+14	1.434724e+14	2.286604e+14	1.080154e+04	4.704210e+03	2.969312e+03	0	1.010232e-03
2.100000e+08	1.664687e+13	0.000000e+00	4.469695e-01	3.769895e+14	1.470848e+14	2.274429e+14	1.072920e+04	4.722337e+03	2.980754e+03	0	9.990518e-04
2.200000e+08	1.610971e+13	0.000000e+00	4.469695e-01	3.655244e+14	1.506328e+14	2.262344e+14	1.065907e+04	4.739816e+03	2.991787e+03	0	9.881884e-04
2.300000e+08	1.559866e+13	0.000000e+00	4.469695e-01	3.546133e+14	1.541153e+14	2.250347e+14	1.059105e+04	4.756674e+03	3.002427e+03	0	9.776265e-04
2.400000e+08	1.511198e+13	0.000000e+00	4.469695e-01	3.442192e+14	1.575314e+14	2.238438e+14	1.052504e+04	4.772934e+03	3.012691e+03	0	9.673514e-04
2.500000e+08	1.464807e+13	0.000000e+00	4.469695e-01	3.343084e+14	1.608805e+14	2.226616e+14	1.046094e+04	4.788619e+03	3.022591e+03	0	9.573497e-04
2.600000e+08	1.420547e+13	0.000000e+00	4.469695e-01	3.248502e+14	1.641620e+14	2.214881e+14	1.039867e+04	4.803751e+03	3.032142e+03	0	9.476086e-04
2.700000e+08	1.378284e+13	0.000000e+00	4.469695e-01	3.158161e+14	1.673754e+14	2.203232e+14	1.033815e+04	4.818349e+03	3.041357e+03	0	9.381164e-04
2.800000e+08	1.337896e+13	0.000000e+00	4.469695e-01	3.071799e+14	1.705202e+14	2.191668e+14	1.027928e+04	4.832434e+03	3.050247e+03	0	9.288620e-04
2.900000e+08	1.299267e+13	0.000000e+00	4.469695e-01	2.989177e+14	1.735964e+14	2.180188e+14	1.022202e+04	4.846024e+03	3.058825e+03	0	9.198350e-04
3.000000e+08	1.262294e+13	0.000000e+00	4.469695e-01	2.910072e+14	1.766036e+14	2.168792e+14	1.016627e+04	4.859135e+03	3.067101e+03	0	9.110258e-04
3.100000e+08	1.226880e+13	0.000000e+00	4.469695e-01	2.834279e+14	1.795419e+14	2.157479e+14	1.011199e+04	4.871784e+03	3.075085e+03	0	9.024250e-04
3.200000e+08	1.192934e+13	0.000000e+00	4.469695e-01	2.761609e+14	1.824111e+14	2.146248e+14	1.005911e+04	4.883987e+03	3.082788e+03	0	8.940242e-04
3.300000e+08	1.160374e+13	0.000000e+00	4.469695e-01	2.691884e+14	1.852116e+14	2.135099e+14	1.000758e+04	4.895759e+03	3.090218e+03	0	8.858153e-04
3.400000e+08	1.129123e+13	0.000000e+00	4.469695e-01	2.624942e+14	1.879433e+14	2.124030e+14	9.957328e+03	4.907115e+03	3.097386e+03	0	8.777906e-04
3.500000e+08	1.099109e+13	0.000000e+00	4.469695e-01	2.560632e+14	1.906065e+14	2.113042e+14	9.908318e+03	4.918067e+03	3.104299e+03	0	8.699430e-04
3.600000e+08	1.070266e+13	0.000000e+00	4.469695e-01	2.498811e+14	1.932015e+14	2.102134e+14	9.860499e+03	4.928629e+03	3.110965e+03	0	8.622656e-04
3.700000e+08	1.042531e+13	0.000000e+00	4.469695e-01	2.439348e+14	1.957289e+14	2.091305e+14	9.813824e+03	4.938813e+03	3.117394e+03	0	8.547521e-04
3.800000e+08	1.015847e+13	0.000000e+00	4.469695e-01	2.382121e+14	1.981887e+14	2.080554e+14	9.768250e+03	4.948631e+03	3.123591e+03	0	8.473963e-04
3.900000e+08	9.901593e+12	0.000000e+00	4.469695e-01	2.327015e+14	2.005818e+14	2.069881e+14	9.723737e+03	4.958096e+03	3.129565e+03	0	8.401926e-04
4.000000e+08	9.654179e+12	0.000000e+00	4.469695e-01	2.273923e+14	2.029084e+14	2.059285e+14	9.680245e+03	4.967217e+03	3.135322e+03	0	8.331354e-04
4.100000e+08	9.415754e+12	0.000000e+00	4.469695e-01	2.222745e+14	2.051693e+14	2.048765e+14	9.637738e+03	4.976005e+03	3.140870e+03	0	8.262196e-04
4.200000e+08	9.185877e+12	0.000000e+00	4.469695e-01	2.173388e+14	2.073649e+14	2.038321e+14	9.596179e+03	4.984471e+03	3.146214e+03	0	8.194404e-04
4.300000e+08	8.964133e+12	0.000000e+00	4.469695e-01	2.125762e+14	2.094961e+14	2.027953e+14	9.555536e+03	4.992625e+03	3.151360e+03	0	8.127929e-04
4.400000e+08	8.750134e+12	0.000000e+00	4.469695e-01	2.079787e+14	2.115634e+14	2.017659e+14	9.515777e+03	5.000474e+03	3.156315e+03	0	8.062729e-04
4.500000e+08	8.543514e+12	0.000000e+00	4.469695e-01	2.035383e+14	2.135676e+14	2.007439e+14	9.476871e+03	5.008030e+03	3.161084e+03	0	7.998760e-04
4.600000e+08	8.343930e+12	0.000000e+00	4.469695e-01	1.992479e+14	2.155094e+14	1.997292e+14	9.438790e+03	5.015300e+03	3.165673e+03	0	7.935982e-04
4.700000e+08	8.151059e+12	0.000000e+00	4.469695e-01	1.951006e+14	2.173897e+14	1.987218e+14	9.401506e+03	5.022293e+03	3.170087e+03	0	7.874358e-04
4.800000e+08	7.964597e+12	0.000000e+00	4.469695e-01	1.910899e+14	2.192092e+14	1.977216e+14	9.364991e+03	5.029017e+03	3.174331e+03	0	7.813850e-04
4.900000e+08	7.784257e+12	0.000000e+00	4.469695e-01	1.872097e+14	2.209687e+14	1.967286e+14	9.329223e+03	5.035480e+03	3.178411e+03	0	7.754424e-04
5.000000e+08	7.609770e+12	0.000000e+00	4.469695e-01	1.834544e+14	2.226691e+14	1.957427e+14	9.294175e+03	5.041690e+03	3.182330e+03	0	7.696046e-04
5.100000e+08	7.440878e+12	0.000000e+00	4.469695e-01	1.798184e+14	2.243113e+14	1.947638e+14	9.259826e+03	5.047653e+03	3.186094e+03	0	7.638684e-04
5.200000e+08	7.277343e+12	0.000000e+00	4.469695e-01	1.762966e+14	2.258962e+14	1.937920e+14	9.226152e+03	5.053377e+03	3.189707e+03	0	7.582308e-04
5.300000e+08	7.118935e+12	0.000000e+00	4.469695e-01	1.728843e+14	2.274245e+14	1.928270e+14	9.193134e+03	5.058869e+03	3.193173e+03	0	7.526889e-04
5.400000e+08	6.965440e+12	0.000000e+00	4.469695e-01	1.695768e+14	2.288973e+14	1.918689e+14	9.160751e+03	5.064135e+03	3.196497e+03	0	7.472398e-04
5.500000e+08	6.816652e+12	0.000000e+00	4.469695e-01	1.663698e+14	2.303154e+14	1.909177e+14	9.128983e+03	5.069182e+03	3.199683e+03	0	7.418809e-04
5.600000e+08	6.672379e+12	0.000000e+00	4.469695e-01	1.632592e+14	2.316798e+14	1.899732e+14	9.097811e+03	5.074015e+03	3.202734e+03	0	7.366096e-04
5.700000e+08	6.532437e+12	0.000000e+00	4.469695e-01	1.602410e+14	2.329914e+14	1.890354e+14	9.067219e+03	5.078642e+03	3.205654e+03	0	7.314235e-04
5.800000e+08	6.396652e+12	0.000000e+00	4.469695e-01	1.573116e+14	2.342511e+14	1.881042e+14	9.037189e+03	5.083067e+03	3.208447e+03	0	7.263201e-04
5.900000e+08	6.264859e+12	0.000000e+00	4.469695e-01	1.544675e+14	2.354599e+14	1.871797e+14	9.007705e+03	5.087297e+03	3.211117e+03	0	7.212972e-04
6.000000e+08	6.136901e+12	0.000000e+00	4.469695e-01	1.517054e+14	2.366186e+14	1.862617e+14	8.978750e+03	5.091337e+03	3.213667e+03	0	7.163526e-04
6.100000e+08	6.012629e+12	0.000000e+00	4.469695e-01	1.490219e+14	2.377284e+14	1.853502e+14	8.950310e+03	5.095191e+03	3.216100e+03	0	7.114842e-04
6.200000e+08	5.891902e+12	0.000000e+00	4.469695e-01	1.464143e+14	2.387900e+14	1.844451e+14	8.922370e+03	5.098866e+03	3.218420e+03	0	7.066900e-04
6.300000e+08	5.774583e+12	0.000000e+00	4.469695e-01	1.438795e+14	2.398044e+14	1.835465e+14	8.894916e+03	5.102367e+03	3.220629e+03	0	7.019681e-04
6.400000e+08	5.660546e+12	0.000000e+00	4.469695e-01	1.414148e+14	2.407726e+14	1.826541e+14	8.867934e+03	5.105697e+03	3.222732e+03	0	6.973165e-04
6.500000e+08	5.549667e+12	0.000000e+00	4.469695e-01	1.390177e+14	2.416955e+14	1.817681e+14	8.841412e+03	5.108863e+03	3.224730e+03	0	6.927334e-04
6.600000e+08	5.441830e+12	0.000000e+00	4.469695e-01	1.366856e+14	2.425739e+14	1.808883e+14	8.815337e+03	5.111867e+03	3.226626e+03	0	6.882171e-04
6.700000e+08	5.336923e+12	0.000000e+00	4.469695e-01	1.344162e+14	2.434089e+14	1.800147e+14	8.789696e+03	5.114716e+03	3.228424e+03	0	6.837659e-04
6.800000e+08	5.234841e+12	0.000000e+00	4.469695e-01	1.322072e+14	2.442014e+14	1.791472e+14	8.764479e+03	5.117412e+03	3.230126e+03	0	6.793783e-04
6.900000e+08	5.135483e+12	0.000000e+00	4.469695e-01	1.300565e+14	2.449522e+14	1.782858e+14	8.739675e+03	5.119961e+03	3.231735e+03	0	6.750525e-04
7.000000e+08	5.038750e+12	0.000000e+00	4.469695e-01	1.279620e+14	2.456622e+14	1.774304e+14	8.715271e+03	5.122367e+03	3.233253e+03	0	6.707872e-04
7.100000e+08	4.944552e+12	0.000000e+00	4.469695e-01	1.259218e+14	2.463324e+14	1.765810e+14	8.691258e+03	5.124632e+03	3.234683e+03	0	6.665808e-04
7.200000e+08	4.852800e+12	0.000000e+00	4.469695e-01	1.239339e+14	2.469637e+14	1.757376e+14	8.667626e+03	5.126762e+03	3.236028e+03	0	6.624319e-04
7.300000e+08	4.763408e+12	0.000000e+00	4.469695e-01	1.219965e+14	2.475568e+14	1.749000e+14	8.644366e+03	5.128759e+03	3.237288e+03	0	6.583392e-04
7.400000e+08	4.676297e+12	0.000000e+00	4.469695e-01	1.201080e+14	2.481128e+14	1.740684e+14	8.621467e+03	5.130628e+03	3.238468e+03	0	6.543014e-04
7.500000e+08	4.591389e+12	0.000000e+00	4.469695e-01	1.182667e+14	2.486324e+14	1.732425e+14	8.598920e+03	5.132372e+03	3.239569e+03	0	6.503171e-04
7.600000e+08	4.508609e+12	0.000000e+00	4.469695e-01	1.164710e+14	2.491165e+14	1.724223e+14	8.576717e+03	5.133994e+03	3.240593e+03	0	6.463851e-04
7.700000e+08	4.427888e+12	0.000000e+00	4.469695e-01	1.147193e+14	2.495659e+14	1.716079e+14	8.554850e+03	5.135498e+03	3.241542e+03	0	6.425043e-04
7.800000e+08	4.349156e+12	0.000000e+00	4.469695e-01	1.130103e+14	2.499814e+14	1.707991e+14	8.533310e+03	5.136886e+03	3.242418e+03	0	6.386734e-04
7.900000e+08	4.272349e+12	0.000000e+00	4.469695e-01	1.113426e+14	2.503639e+14	1.699959e+14	8.512089e+03	5.138163e+03	3.243224e+03	0	6.348913e-04
8.000000e+08	4.197404e+12	0.000000e+00	4.469695e-01	1.097148e+14	2.507141e+14	1.691983e+14	8.491180e+03	5.139331e+03	3.243961e+03	0	6.311570e-04
8.100000e+08	4.124261e+12	0.000000e+00	4.469695e-01	1.081256e+14	2.510329e+14	1.684063e+14	8.470575e+03	5.140393e+03	3.244632e+03	0	6.274693e-04
8.200000e+08	4.052862e+12	0.000000e+00	4.469695e-01	1.065738e+14	2.513211e+14	1.676197e+14	8.450267e+03	5.141352e+03	3.245237e+03	0	6.238273e-04
8.300000e+08	3.983152e+12	0.000000e+00	4.469695e-01	1.050583e+14	2.515793e+14	1.668385e+14	8.430249e+03	5.142211e+03	3.245779e+03	0	6.202300e-04
8.400000e+08	3.915078e+12	0.000000e+00	4.469695e-01	1.035778e+14	2.518084e+14	1.660628e+14	8.410515e+03	5.142972e+03	3.246260e+03	0	6.166763e-04
8.500000e+08	3.848588e+12	0.000000e+00	4.469695e-01	1.021313e+14	2.520090e+14	1.652924e+14	8.391057e+03	5.143638e+03	3.246680e+03	0	6.131654e-04
8.600000e+08	3.783635e+12	0.000000e+00	4.469695e-01	1.007178e+14	2.521820e+14	1.645273e+14	8.371869e+03	5.144212e+03	3.247043e+03	0	6.096963e-04
8.700000e+08	3.720170e+12	0.000000e+00	4.469695e-01	9.933629e+13	2.523280e+14	1.637675e+14	8.352946e+03	5.144697e+03	3.247348e+03	0	6.062681e-04
8.800000e+08	3.658148e+12	0.000000e+00	4.469695e-01	9.798572e+13	2.524478e+14	1.630129e+14	8.334282e+03	5.145094e+03	3.247599e+03	0	6.028800e-04
8.900000e+08	3.597526e+12	0.000000e+00	4.469695e-01	9.666519e+13	2.525420e+14	1.622635e+14	8.315869e+03	5.145406e+03	3.247796e+03	0	5.995312e-04
9.000000e+08	3.538261e+12	0.000000e+00	4.469695e-01	9.537382e+13	2.526113e+14	1.615192e+14	8.297704e+03	5.145636e+03	3.247941e+03	0	5.962208e-04
9.100000e+08	3.480313e+12	0.000000e+00	4.469695e-01	9.411073e+13	2.526564e+14	1.607801e+14	8.279781e+03	5.145785e+03	3.248035e+03	0	5.929480e-04
9.200000e+08	3.423643e+12	0.000000e+00	4.469695e-01	9.287510e+13	2.526779e+14	1.600460e+14	8.262094e+03	5.145857e+03	3.248080e+03	0	5.897120e-04
9.300000e+08	3.368214e+12	0.000000e+00	4.469695e-01	9.166612e+13	2.526765e+14	1.593169e+14	8.244637e+03	5.145852e+03	3.248077e+03	0	5.865122e-04
9.400000e+08	3.313989e+12	0.000000e+00	4.469695e-01	9.048302e+13	2.526528e+14	1.585928e+14	8.227408e+03	5.145773e+03	3.248028e+03	0	5.833477e-04
9.500000e+08	3.260933e+12	0.000000e+00	4.469695e-01	8.932505e+13	2.526074e+14	1.578736e+14	8.210399e+03	5.145623e+03	3.247933e+03	0	5.802179e-04
9.600000e+08	3.209014e+12	0.000000e+00	4.469695e-01	8.819151e+13	2.525409e+14	1.571594e+14	8.193608e+03	5.145403e+03	3.247794e+03	0	5.771221e-04
9.700000e+08	3.158198e+12	0.000000e+00	4.469695e-01	8.708168e+13	2.524540e+14	1.564500e+14	8.177028e+03	5.145115e+03	3.247612e+03	0	5.740595e-04
9.800000e+08	3.108454e+12	0.000000e+00	4.469695e-01	8.599492e+13	2.523471e+14	1.557454e+14	8.160656e+03	5.144760e+03	3.247388e+03	0	5.710296e-04
9.900000e+08	3.059752e+12	0.000000e+00	4.469695e-01	8.493057e+13	2.522209e+14	1.550457e+14	8.144488e+03	5.144342e+03	3.247124e+03	0	5.680317e-04
1.000000e+09	3.012063e+12	0.000000e+00	4.469695e-01	8.388801e+13	2.520760e+14	1.543506e+14	8.128519e+03	5.143861e+03	3.246821e+03	0	5.650651e-04
1.010000e+09	2.965359e+12	0.000000e+00	4.469695e-01	8.286664e+13	2.519128e+14	1.536603e+14	8.112745e+03	5.143319e+03	3.246479e+03	0	5.621293e-04
1.020000e+09	2.919613e+12	0.000000e+00	4.469695e-01	8.186587e+13	2.517319e+14	1.529747e+14	8.097163e+03	5.142718e+03	3.246099e+03	0	5.592237e-04
1.030000e+09	2.874798e+12	0.000000e+00	4.469695e-01	8.088516e+13	2.515339e+14	1.522937e+14	8.081768e+03	5.142060e+03	3.245684e+03	0	5.563476e-04
1.040000e+09	2.830889e+12	0.000000e+00	4.469695e-01	7.992395e+13	2.513192e+14	1.516173e+14	8.066556e+03	5.141346e+03	3.245233e+03	0	5.535006e-04
1.050000e+09	2.787862e+12	0.000000e+00	4.469695e-01	7.898173e+13	2.510883e+14	1.509455e+14	8.051525e+03	5.140577e+03	3.244748e+03	0	5.506820e-04
1.060000e+09	2.745693e+12	0.000000e+00	4.469695e-01	7.805798e+13	2.508418e+14	1.502782e+14	8.036670e+03	5.139756e+03	3.244230e+03	0	5.478914e-04
1.070000e+09	2.704359e+12	0.000000e+00	4.469695e-01	7.715222e+13	2.505800e+14	1.496154e+14	8.021988e+03	5.138884e+03	3.243679e+03	0	5.451281e-04
1.080000e+09	2.663838e+12	0.000000e+00	4.469695e-01	7.626398e+13	2.503035e+14	1.489571e+14	8.007476e+03	5.137962e+03	3.243097e+03	0	5.423918e-04
1.090000e+09	2.624109e+12	0.000000e+00	4.469695e-01	7.539279e+13	2.500128e+14	1.483032e+14	7.993130e+03	5.136991e+03	3.242484e+03	0	5.396818e-04
1.100000e+09	2.585151e+12	0.000000e+00	4.469695e-01	7.453822e+13	2.497081e+14	1.476537e+14	7.978947e+03	5.135973e+03	3.241842e+03	0	5.369977e-04
1.110000e+09	2.546944e+12	0.000000e+00	4.469695e-01	7.369984e+13	2.493902e+14	1.470085e+14	7.964925e+03	5.134910e+03	3.241171e+03	0	5.343391e-04
1.120000e+09	2.509469e+12	0.000000e+00	4.469695e-01	7.287722e+13	2.490592e+14	1.463677e+14	7.951060e+03	5.133802e+03	3.240471e+03	0	5.317054e-04
1.130000e+09	2.472706e+12	0.000000e+00	4.469695e-01	7.206998e+13	2.487157e+14	1.457311e+14	7.937349e+03	5.132651e+03	3.239745e+03	0	5.290962e-04
1.140000e+09	2.436638e+12	0.000000e+00	4.469695e-01	7.127771e+13	2.483600e+14	1.450988e+14	7.923789e+03	5.131458e+03	3.238992e+03	0	5.265110e-04
1.150000e+09	2.401247e+12	0.000000e+00	4.469695e-01	7.050005e+13	2.479926e+14	1.444708e+14	7.910378e+03	5.130224e+03	3.238213e+03	0	5.239495e-04
1.160000e+09	2.366516e+12	0.000000e+00	4.469695e-01	6.973663e+13	2.476138e+14	1.438469e+14	7.897112e+03	5.128951e+03	3.237409e+03	0	5.214111e-04
1.170000e+09	2.332428e+12	0.000000e+00	4.469695e-01	6.898709e+13	2.472241e+14	1.432271e+14	7.883990e+03	5.127639e+03	3.236581e+03	0	5.188955e-04
1.180000e+09	2.298968e+12	0.000000e+00	4.469695e-01	6.825109e+13	2.468237e+14	1.426115e+14	7.871008e+03	5.126290e+03	3.235730e+03	0	5.164023e-04
1.190000e+09	2.266120e+12	0.000000e+00	4.469695e-01	6.752831e+13	2.464131e+14	1.420000e+14	7.858164e+03	5.124904e+03	3.234855e+03	0	5.139310e-04
1.200000e+09	2.233870e+12	0.000000e+00	4.469695e-01	6.681841e+13	2.459925e+14	1.413926e+14	7.845455e+03	5.123484e+03	3.233958e+03	0	5.114813e-04
1.210000e+09	2.202201e+12	0.000000e+00	4.469695e-01	6.612109e+13	2.455624e+14	1.407891e+14	7.832880e+03	5.122029e+03	3.233040e+03	0	5.090528e-04
1.220000e+09	2.171101e+12	0.000000e+00	4.469695e-01	6.543604e+13	2.451231e+14	1.401897e+14	7.820436e+03	5.120541e+03	3.232101e+03	0	5.066451e-04
1.230000e+09	2.140555e+12	0.000000e+00	4.469695e-01	6.476298e+13	2.446748e+14	1.395943e+14	7.808120e+03	5.119020e+03	3.231141e+03	0	5.042578e-04
1.240000e+09	2.110551e+12	0.000000e+00	4.469695e-01	6.410160e+13	2.442180e+14	1.390027e+14	7.795930e+03	5.117469e+03	3.230162e+03	0	5.018906e-04
1.250000e+09	2.081075e+12	0.000000e+00	4.469695e-01	6.345164e+13	2.437528e+14	1.384151e+14	7.783864e+03	5.115887e+03	3.229163e+03	0	4.995432e-04
1.260000e+09	2.052115e+12	0.000000e+00	4.469695e-01	6.281283e+13	2.432797e+14	1.378314e+14	7.771920e+03	5.114276e+03	3.228146e+03	0	4.972152e-04
1.270000e+09	2.023658e+12	0.000000e+00	4.469695e-01	6.218491e+13	2.427989e+14	1.372515e+14	7.760096e+03	5.112636e+03	3.227111e+03	0	4.949062e-04
1.280000e+09	1.995694e+12	0.000000e+00	4.469695e-01	6.156763e+13	2.423107e+14	1.366754e+14	7.748390e+03	5.110968e+03	3.226059e+03	0	4.926159e-04
1.290000e+09	1.968210e+12	0.000000e+00	4.469695e-01	6.096073e+13	2.418155e+14	1.361031e+14	7.736800e+03	5.109273e+03	3.224989e+03	0	4.903441e-04
1.300000e+09	1.941195e+12	0.000000e+00	4.469695e-01	6.036399e+13	2.413133e+14	1.355345e+14	7.725323e+03	5.107553e+03	3.223903e+03	0	4.880903e-04
1.310000e+09	1.914639e+12	0.000000e+00	4.469695e-01	5.977716e+13	2.408045e+14	1.349697e+14	7.713959e+03	5.105807e+03	3.222801e+03	0	4.858544e-04
1.320000e+09	1.888531e+12	0.000000e+00	4.469695e-01	5.920003e+13	2.402895e+14	1.344086e+14	7.702704e+03	5.104037e+03	3.221683e+03	0	4.836359e-04
1.330000e+09	1.862860e+12	0.000000e+00	4.469695e-01	5.863237e+13	2.397683e+14	1.338512e+14	7.691558e+03	5.102242e+03	3.220551e+03	0	4.814345e-04
1.340000e+09	1.837618e+12	0.000000e+00	4.469695e-01	5.807397e+13	2.392414e+14	1.332974e+14	7.680518e+03	5.100425e+03	3.219404e+03	0	4.792501e-04
1.350000e+09	1.812794e+12	0.000000e+00	4.469695e-01	5.752463e+13	2.387088e+14	1.327472e+14	7.669584e+03	5.098586e+03	3.218243e+03	0	4.770823e-04
1.360000e+09	1.788379e+12	0.000000e+00	4.469695e-01	5.698414e+13	2.381709e+14	1.322006e+14	7.658752e+03	5.096725e+03	3.217068e+03	0	4.749308e-04
