#t		Qconv[W]	Ri[Rp]		R*[Rp]		Qc[W]		Qm[W]		Qr[W]		Tcmb[K]		Tl[K]		Tup[K]		RiFlag		Bs[T]
0.000000e+00	4.530427e+13	0.000000e+00	4.503818e-01	9.389092e+14	5.912929e+13	2.679688e+14	1.347015e+04	4.201547e+03	2.648514e+03	0	1.385109e-03
1.000000e+07	4.301814e+13	0.000000e+00	4.503818e-01	8.930361e+14	6.338911e+13	2.664840e+14	1.331077e+04	4.243301e+03	2.674834e+03	0	1.361408e-03
2.000000e+07	4.091277e+13	0.000000e+00	4.503818e-01	8.507758e+14	6.767344e+13	2.650104e+14	1.315903e+04	4.283172e+03	2.699968e+03	0	1.338825e-03
3.000000e+07	3.896865e+13	0.000000e+00	4.503818e-01	8.117390e+14	7.197424e+13	2.635478e+14	1.301433e+04	4.321293e+03	2.723998e+03	0	1.317274e-03
4.000000e+07	3.716890e+13	0.000000e+00	4.503818e-01	7.755887e+14	7.628413e+13	2.620961e+14	1.287616e+04	4.357779e+03	2.746997e+03	0	1.296674e-03
5.000000e+07	3.549883e+13	0.000000e+00	4.503818e-01	7.420321e+14	8.059635e+13	2.606552e+14	1.274403e+04	4.392737e+03	2.769034e+03	0	1.276955e-03
6.000000e+07	3.394565e+13	0.000000e+00	4.503818e-01	7.108135e+14	8.490462e+13	2.592250e+14	1.261753e+04	4.426261e+03	2.790166e+03	0	1.258053e-03
7.000000e+07	3.249813e+13	0.000000e+00	4.503818e-01	6.817089e+14	8.920319e+13	2.578056e+14	1.249626e+04	4.458438e+03	2.810450e+03	0	1.239911e-03
8.000000e+07	3.114641e+13	0.000000e+00	4.503818e-01	6.545215e+14	9.348675e+13	2.563966e+14	1.237988e+04	4.489346e+03	2.829933e+03	0	1.222476e-03
9.000000e+07	2.988177e+13	0.000000e+00	4.503818e-01	6.290771e+14	9.775041e+13	2.549982e+14	1.226806e+04	4.519054e+03	2.848660e+03	0	1.205701e-03
1.000000e+08	2.869652e+13	0.000000e+00	4.503818e-01	6.052220e+14	1.019897e+14	2.536101e+14	1.216053e+04	4.547629e+03	2.866673e+03	0	1.189545e-03
1.100000e+08	2.758379e+13	0.000000e+00	4.503818e-01	5.828191e+14	1.062003e+14	2.522323e+14	1.205702e+04	4.575130e+03	2.884008e+03	0	1.173966e-03
1.200000e+08	2.653748e+13	0.000000e+00	4.503818e-01	5.617465e+14	1.103785e+14	2.508648e+14	1.195728e+04	4.601610e+03	2.900701e+03	0	1.158931e-03
1.300000e+08	2.555214e+13	0.000000e+00	4.503818e-01	5.418953e+14	1.145207e+14	2.495073e+14	1.186110e+04	4.627121e+03	2.916781e+03	0	1.144406e-03
1.400000e+08	2.462287e+13	0.000000e+00	4.503818e-01	5.231676e+14	1.186237e+14	2.481599e+14	1.176827e+04	4.651707e+03	2.932280e+03	0	1.130361e-03
1.500000e+08	2.374528e+13	0.000000e+00	4.503818e-01	5.054757e+14	1.226844e+14	2.468225e+14	1.167861e+04	4.675413e+03	2.947223e+03	0	1.116769e-03
1.600000e+08	2.291542e+13	0.000000e+00	4.503818e-01	4.887404e+14	1.267001e+14	2.454950e+14	1.159194e+04	4.698278e+03	2.961637e+03	0	1.103605e-03
1.700000e+08	2.212971e+13	0.000000e+00	4.503818e-01	4.728904e+14	1.306682e+14	2.441772e+14	1.150810e+04	4.720339e+03	2.975543e+03	0	1.090845e-03
1.800000e+08	2.138492e+13	0.000000e+00	4.503818e-01	4.578610e+14	1.345864e+14	2.428692e+14	1.142695e+04	4.741630e+03	2.988964e+03	0	1.078467e-03
1.900000e+08	2.067811e+13	0.000000e+00	4.503818e-01	4.435934e+14	1.384527e+14	2.415708e+14	1.134835e+04	4.762183e+03	3.001920e+03	0	1.066452e-03
2.000000e+08	2.000662e+13	0.000000e+00	4.503818e-01	4.300345e+14	1.422650e+14	2.402819e+14	1.127217e+04	4.782029e+03	3.014430e+03	0	1.054781e-03
2.100000e+08	1.936802e+13	0.000000e+00	4.503818e-01	4.171355e+14	1.460216e+14	2.390026e+14	1.119829e+04	4.801195e+03	3.026512e+03	0	1.043437e-03
2.200000e+08	1.876010e+13	0.000000e+00	4.503818e-01	4.048522e+14	1.497210e+14	2.377326e+14	1.112660e+04	4.819708e+03	3.038182e+03	0	1.032403e-03
2.300000e+08	1.818082e+13	0.000000e+00	4.503818e-01	3.931440e+14	1.533617e+14	2.364719e+14	1.105700e+04	4.837594e+03	3.049457e+03	0	1.021666e-03
2.400000e+08	1.762834e+13	0.000000e+00	4.503818e-01	3.819738e+14	1.569424e+14	2.352205e+14	1.098939e+04	4.854875e+03	3.060350e+03	0	1.011210e-03
2.500000e+08	1.710095e+13	0.000000e+00	4.503818e-01	3.713075e+14	1.604621e+14	2.339783e+14	1.092368e+04	4.871573e+03	3.070876e+03	0	1.001024e-03
2.600000e+08	1.659708e+13	0.000000e+00	4.503818e-01	3.611138e+14	1.639196e+14	2.327451e+14	1.085979e+04	4.887711e+03	3.081049e+03	0	9.910942e-04
2.700000e+08	1.611531e+13	0.000000e+00	4.503818e-01	3.513639e+14	1.673142e+14	2.315210e+14	1.079763e+04	4.903306e+03	3.090880e+03	0	9.814101e-04
2.800000e+08	1.565429e+13	0.000000e+00	4.503818e-01	3.420312e+14	1.706451e+14	2.303058e+14	1.073713e+04	4.918379e+03	3.100381e+03	0	9.719609e-04
2.900000e+08	1.521281e+13	0.000000e+00	4.503818e-01	3.330911e+14	1.739117e+14	2.290994e+14	1.067823e+04	4.932948e+03	3.109564e+03	0	9.627366e-04
3.000000e+08	1.478973e+13	0.000000e+00	4.503818e-01	3.245210e+14	1.771134e+14	2.279019e+14	1.062085e+04	4.947028e+03	3.118440e+03	0	9.537278e-04
3.100000e+08	1.438400e+13	0.000000e+00	4.503818e-01	3.162998e+14	1.802498e+14	2.267131e+14	1.056493e+04	4.960637e+03	3.127019e+03	0	9.449255e-04
3.200000e+08	1.399465e+13	0.000000e+00	4.503818e-01	3.084079e+14	1.833206e+14	2.255329e+14	1.051042e+04	4.973789e+03	3.135309e+03	0	9.363216e-04
3.300000e+08	1.362078e+13	0.000000e+00	4.503818e-01	3.008274e+14	1.863255e+14	2.243614e+14	1.045725e+04	4.986500e+03	3.143322e+03	0	9.279081e-04
3.400000e+08	1.326154e+13	0.000000e+00	4.503818e-01	2.935414e+14	1.892644e+14	2.231983e+14	1.040538e+04	4.998783e+03	3.151065e+03	0	9.196777e-04
3.500000e+08	1.291616e+13	0.000000e+00	4.503818e-01	2.865341e+14	1.921372e+14	2.220436e+14	1.035475e+04	5.010653e+03	3.158547e+03	0	9.116233e-04
3.600000e+08	1.258390e+13	0.000000e+00	4.503818e-01	2.797911e+14	1.949439e+14	2.208974e+14	1.030533e+04	5.022122e+03	3.165777e+03	0	9.037384e-04
3.700000e+08	1.226409e+13	0.000000e+00	4.503818e-01	2.732987e+14	1.976847e+14	2.197594e+14	1.025705e+04	5.033201e+03	3.172761e+03	0	8.960167e-04
3.800000e+08	1.195609e+13	0.000000e+00	4.503818e-01	2.670442e+14	2.003595e+14	2.186297e+14	1.020989e+04	5.043904e+03	3.179508e+03	0	8.884522e-04
3.900000e+08	1.165932e+13	0.000000e+00	4.503818e-01	2.610156e+14	2.029687e+14	2.175081e+14	1.016379e+04	5.054242e+03	3.186024e+03	0	8.810395e-04
4.000000e+08	1.137320e+13	0.000000e+00	4.503818e-01	2.552018e+14	2.055125e+14	2.163947e+14	1.011873e+04	5.064224e+03	3.192317e+03	0	8.737730e-04
4.100000e+08	1.109724e+13	0.000000e+00	4.503818e-01	2.495925e+14	2.079913e+14	2.152892e+14	1.007467e+04	5.073863e+03	3.198393e+03	0	8.666478e-04
4.200000e+08	1.083093e+13	0.000000e+00	4.503818e-01	2.441778e+14	2.104054e+14	2.141918e+14	1.003156e+04	5.083168e+03	3.204258e+03	0	8.596591e-04
4.300000e+08	1.057382e+13	0.000000e+00	4.503818e-01	2.389485e+14	2.127552e+14	2.131022e+14	9.989387e+03	5.092148e+03	3.209919e+03	0	8.528022e-04
4.400000e+08	1.032548e+13	0.000000e+00	4.503818e-01	2.338960e+14	2.150412e+14	2.120205e+14	9.948107e+03	5.100814e+03	3.215382e+03	0	8.460729e-04
4.500000e+08	1.008551e+13	0.000000e+00	4.503818e-01	2.290122e+14	2.172640e+14	2.109465e+14	9.907694e+03	5.109174e+03	3.220651e+03	0	8.394669e-04
4.600000e+08	9.853518e+12	0.000000e+00	4.503818e-01	2.242894e+14	2.194240e+14	2.098803e+14	9.868117e+03	5.117236e+03	3.225734e+03	0	8.329804e-04
4.700000e+08	9.629154e+12	0.000000e+00	4.503818e-01	2.197205e+14	2.215219e+14	2.088217e+14	9.829351e+03	5.125011e+03	3.230634e+03	0	8.266095e-04
4.800000e+08	9.412079e+12	0.000000e+00	4.503818e-01	2.152985e+14	2.235582e+14	2.077707e+14	9.791369e+03	5.132504e+03	3.235358e+03	0	8.203506e-04
4.900000e+08	9.201972e+12	0.000000e+00	4.503818e-01	2.110172e+14	2.255338e+14	2.067272e+14	9.754146e+03	5.139725e+03	3.239910e+03	0	8.142004e-04
5.000000e+08	8.998534e+12	0.000000e+00	4.503818e-01	2.068705e+14	2.274491e+14	2.056912e+14	9.717658e+03	5.146681e+03	3.244295e+03	0	8.081555e-04
5.100000e+08	8.801478e+12	0.000000e+00	4.503818e-01	2.028527e+14	2.293050e+14	2.046626e+14	9.681883e+03	5.153380e+03	3.248517e+03	0	8.022127e-04
5.200000e+08	8.610537e+12	0.000000e+00	4.503818e-01	1.989583e+14	2.311021e+14	2.036413e+14	9.646797e+03	5.159828e+03	3.252582e+03	0	7.963691e-04
5.300000e+08	8.425454e+12	0.000000e+00	4.503818e-01	1.951822e+14	2.328413e+14	2.026273e+14	9.612380e+03	5.166032e+03	3.256493e+03	0	7.906218e-04
5.400000e+08	8.245989e+12	0.000000e+00	4.503818e-01	1.915196e+14	2.345232e+14	2.016205e+14	9.578612e+03	5.171999e+03	3.260255e+03	0	7.849679e-04
5.500000e+08	8.071914e+12	0.000000e+00	4.503818e-01	1.879658e+14	2.361488e+14	2.006209e+14	9.545474e+03	5.177736e+03	3.263871e+03	0	7.794050e-04
5.600000e+08	7.903010e+12	0.000000e+00	4.503818e-01	1.845166e+14	2.377188e+14	1.996284e+14	9.512947e+03	5.183249e+03	3.267346e+03	0	7.739303e-04
5.700000e+08	7.739072e+12	0.000000e+00	4.503818e-01	1.811677e+14	2.392339e+14	1.986430e+14	9.481012e+03	5.188543e+03	3.270683e+03	0	7.685415e-04
5.800000e+08	7.579906e+12	0.000000e+00	4.503818e-01	1.779152e+14	2.406951e+14	1.976645e+14	9.449654e+03	5.193625e+03	3.273887e+03	0	7.632361e-04
5.900000e+08	7.425324e+12	0.000000e+00	4.503818e-01	1.747555e+14	2.421032e+14	1.966930e+14	9.418855e+03	5.198501e+03	3.276960e+03	0	7.580121e-04
6.000000e+08	7.275150e+12	0.000000e+00	4.503818e-01	1.716849e+14	2.434590e+14	1.957283e+14	9.388600e+03	5.203176e+03	3.279907e+03	0	7.528671e-04
6.100000e+08	7.129218e+12	0.000000e+00	4.503818e-01	1.687000e+14	2.447635e+14	1.947705e+14	9.358873e+03	5.207655e+03	3.282731e+03	0	7.477991e-04
6.200000e+08	6.987365e+12	0.000000e+00	4.503818e-01	1.657977e+14	2.460174e+14	1.938194e+14	9.329660e+03	5.211944e+03	3.285435e+03	0	7.428061e-04
6.300000e+08	6.849441e+12	0.000000e+00	4.503818e-01	1.629749e+14	2.472216e+14	1.928751e+14	9.300946e+03	5.216048e+03	3.288021e+03	0	7.378862e-04
6.400000e+08	6.715299e+12	0.000000e+00	4.503818e-01	1.602286e+14	2.483771e+14	1.919374e+14	9.272719e+03	5.219971e+03	3.290495e+03	0	7.330374e-04
6.500000e+08	6.584803e+12	0.000000e+00	4.503818e-01	1.575561e+14	2.494845e+14	1.910063e+14	9.244964e+03	5.223719e+03	3.292857e+03	0	7.282580e-04
6.600000e+08	6.457819e+12	0.000000e+00	4.503818e-01	1.549547e+14	2.505450e+14	1.900818e+14	9.217670e+03	5.227297e+03	3.295112e+03	0	7.235462e-04
6.700000e+08	6.334221e+12	0.000000e+00	4.503818e-01	1.524218e+14	2.515593e+14	1.891638e+14	9.190824e+03	5.230707e+03	3.297262e+03	0	7.189004e-04
6.800000e+08	6.213890e+12	0.000000e+00	4.503818e-01	1.499551e+14	2.525283e+14	1.882522e+14	9.164414e+03	5.233956e+03	3.299310e+03	0	7.143190e-04
6.900000e+08	6.096710e+12	0.000000e+00	4.503818e-01	1.475523e+14	2.534528e+14	1.873470e+14	9.138429e+03	5.237047e+03	3.301259e+03	0	7.098003e-04
7.000000e+08	5.982572e+12	0.000000e+00	4.503818e-01	1.452110e+14	2.543338e+14	1.864482e+14	9.112858e+03	5.239985e+03	3.303111e+03	0	7.053429e-04
7.100000e+08	5.871370e+12	0.000000e+00	4.503818e-01	1.429293e+14	2.551722e+14	1.855556e+14	9.087691e+03	5.242774e+03	3.304868e+03	0	7.009453e-04
7.200000e+08	5.763004e+12	0.000000e+00	4.503818e-01	1.407050e+14	2.559687e+14	1.846693e+14	9.062917e+03	5.245417e+03	3.306534e+03	0	6.966062e-04
7.300000e+08	5.657378e+12	0.000000e+00	4.503818e-01	1.385362e+14	2.567242e+14	1.837892e+14	9.038527e+03	5.247918e+03	3.308111e+03	0	6.923240e-04
7.400000e+08	5.554400e+12	0.000000e+00	4.503818e-01	1.364212e+14	2.574396e+14	1.829153e+14	9.014510e+03	5.250281e+03	3.309601e+03	0	6.880976e-04
7.500000e+08	5.453981e+12	0.000000e+00	4.503818e-01	1.343580e+14	2.581157e+14	1.820474e+14	8.990858e+03	5.252511e+03	3.311006e+03	0	6.839256e-04
7.600000e+08	5.356037e+12	0.000000e+00	4.503818e-01	1.323450e+14	2.587533e+14	1.811856e+14	8.967563e+03	5.254609e+03	3.312329e+03	0	6.798068e-04
7.700000e+08	5.260486e+12	0.000000e+00	4.503818e-01	1.303806e+14	2.593534e+14	1.803297e+14	8.944614e+03	5.256580e+03	3.313572e+03	0	6.757400e-04
7.800000e+08	5.167252e+12	0.000000e+00	4.503818e-01	1.284631e+14	2.599167e+14	1.794798e+14	8.922004e+03	5.258427e+03	3.314736e+03	0	6.717240e-04
7.900000e+08	5.076260e+12	0.000000e+00	4.503818e-01	1.265912e+14	2.604439e+14	1.786359e+14	8.899725e+03	5.260154e+03	3.315824e+03	0	6.677578e-04
8.000000e+08	4.987437e+12	0.000000e+00	4.503818e-01	1.247633e+14	2.609360e+14	1.777977e+14	8.877770e+03	5.261763e+03	3.316838e+03	0	6.638401e-04
8.100000e+08	4.900715e+12	0.000000e+00	4.503818e-01	1.229780e+14	2.613938e+14	1.769654e+14	8.856129e+03	5.263257e+03	3.317780e+03	0	6.599699e-04
8.200000e+08	4.816029e+12	0.000000e+00	4.503818e-01	1.212340e+14	2.618179e+14	1.761388e+14	8.834797e+03	5.264640e+03	3.318652e+03	0	6.561463e-04
8.300000e+08	4.733314e+12	0.000000e+00	4.503818e-01	1.195301e+14	2.622092e+14	1.753180e+14	8.813766e+03	5.265915e+03	3.319456e+03	0	6.523682e-04
8.400000e+08	4.652511e+12	0.000000e+00	4.503818e-01	1.178650e+14	2.625685e+14	1.745028e+14	8.793029e+03	5.267084e+03	3.320193e+03	0	6.486346e-04
8.500000e+08	4.573559e+12	0.000000e+00	4.503818e-01	1.162375e+14	2.628964e+14	1.736933e+14	8.772580e+03	5.268150e+03	3.320865e+03	0	6.449446e-04
8.600000e+08	4.496403e+12	0.000000e+00	4.503818e-01	1.146465e+14	2.631938e+14	1.728893e+14	8.752411e+03	5.269115e+03	3.321473e+03	0	6.412973e-04
8.700000e+08	4.420989e+12	0.000000e+00	4.503818e-01	1.130909e+14	2.634613e+14	1.720909e+14	8.732518e+03	5.269984e+03	3.322021e+03	0	6.376917e-04
8.800000e+08	4.347264e+12	0.000000e+00	4.503818e-01	1.115697e+14	2.636998e+14	1.712979e+14	8.712893e+03	5.270757e+03	3.322508e+03	0	6.341271e-04
8.900000e+08	4.275178e+12	0.000000e+00	4.503818e-01	1.100817e+14	2.639099e+14	1.705104e+14	8.693531e+03	5.271438e+03	3.322937e+03	0	6.306025e-04
9.000000e+08	4.204682e+12	0.000000e+00	4.503818e-01	1.086261e+14	2.640923e+14	1.697283e+14	8.674426e+03	5.272029e+03	3.323310e+03	0	6.271172e-04
9.100000e+08	4.135731e+12	0.000000e+00	4.503818e-01	1.072019e+14	2.642477e+14	1.689516e+14	8.655572e+03	5.272532e+03	3.323627e+03	0	6.236703e-04
9.200000e+08	4.068278e+12	0.000000e+00	4.503818e-01	1.058082e+14	2.643768e+14	1.681802e+14	8.636964e+03	5.272949e+03	3.323890e+03	0	6.202611e-04
9.300000e+08	4.002282e+12	0.000000e+00	4.503818e-01	1.044440e+14	2.644802e+14	1.674141e+14	8.618598e+03	5.273284e+03	3.324101e+03	0	6.168888e-04
9.400000e+08	3.937699e+12	0.000000e+00	4.503818e-01	1.031087e+14	2.645587e+14	1.666532e+14	8.600467e+03	5.273538e+03	3.324261e+03	0	6.135527e-04
9.500000e+08	3.874491e+12	0.000000e+00	4.503818e-01	1.018013e+14	2.646128e+14	1.658975e+14	8.582567e+03	5.273713e+03	3.324371e+03	0	6.102520e-04
9.600000e+08	3.812617e+12	0.000000e+00	4.503818e-01	1.005211e+14	2.646432e+14	1.651469e+14	8.564893e+03	5.273811e+03	3.324433e+03	0	6.069861e-04
9.700000e+08	3.752040e+12	0.000000e+00	4.503818e-01	9.926730e+13	2.646505e+14	1.644015e+14	8.547440e+03	5.273835e+03	3.324448e+03	0	6.037542e-04
9.800000e+08	3.692725e+12	0.000000e+00	4.503818e-01	9.803917e+13	2.646353e+14	1.636611e+14	8.530204e+03	5.273786e+03	3.324417e+03	0	6.005557e-04
9.900000e+08	3.634636e+12	0.000000e+00	4.503818e-01	9.683603e+13	2.645983e+14	1.629258e+14	8.513180e+03	5.273666e+03	3.324342e+03	0	5.973900e-04
1.000000e+09	3.577740e+12	0.000000e+00	4.503818e-01	9.565717e+13	2.645399e+14	1.621954e+14	8.496365e+03	5.273477e+03	3.324223e+03	0	5.942565e-04
1.010000e+09	3.522003e+12	0.000000e+00	4.503818e-01	9.450194e+13	2.644608e+14	1.614700e+14	8.479753e+03	5.273221e+03	3.324062e+03	0	5.911544e-04
1.020000e+09	3.467396e+12	0.000000e+00	4.503818e-01	9.336971e+13	2.643616e+14	1.607495e+14	8.463341e+03	5.272900e+03	3.323859e+03	0	5.880832e-04
1.030000e+09	3.413886e+12	0.000000e+00	4.503818e-01	9.225986e+13	2.642428e+14	1.600339e+14	8.447125e+03	5.272516e+03	3.323617e+03	0	5.850424e-04
1.040000e+09	3.361445e+12	0.000000e+00	4.503818e-01	9.117180e+13	2.641049e+14	1.593232e+14	8.431100e+03	5.272070e+03	3.323336e+03	0	5.820313e-04
1.050000e+09	3.310044e+12	0.000000e+00	4.503818e-01	9.010494e+13	2.639486e+14	1.586172e+14	8.415265e+03	5.271563e+03	3.323016e+03	0	5.790493e-04
1.060000e+09	3.259656e+12	0.000000e+00	4.503818e-01	8.905873e+13	2.637743e+14	1.579160e+14	8.399613e+03	5.270998e+03	3.322660e+03	0	5.760961e-04
1.070000e+09	3.210254e+12	0.000000e+00	4.503818e-01	8.803263e+13	2.635824e+14	1.572195e+14	8.384143e+03	5.270376e+03	3.322268e+03	0	5.731709e-04
1.080000e+09	3.161812e+12	0.000000e+00	4.503818e-01	8.702613e+13	2.633736e+14	1.565277e+14	8.368850e+03	5.269699e+03	3.321841e+03	0	5.702733e-04
1.090000e+09	3.114306e+12	0.000000e+00	4.503818e-01	8.603872e+13	2.631483e+14	1.558406e+14	8.353731e+03	5.268968e+03	3.321380e+03	0	5.674027e-04
1.100000e+09	3.067712e+12	0.000000e+00	4.503818e-01	8.506990e+13	2.629070e+14	1.551581e+14	8.338783e+03	5.268184e+03	3.320886e+03	0	5.645588e-04
1.110000e+09	3.022005e+12	0.000000e+00	4.503818e-01	8.411921e+13	2.626501e+14	1.544801e+14	8.324003e+03	5.267349e+03	3.320360e+03	0	5.617409e-04
1.120000e+09	2.977164e+12	0.000000e+00	4.503818e-01	8.318619e+13	2.623782e+14	1.538067e+14	8.309388e+03	5.266465e+03	3.319802e+03	0	5.589487e-04
1.130000e+09	2.933167e+12	0.000000e+00	4.503818e-01	8.227039e+13	2.620916e+14	1.531378e+14	8.294934e+03	5.265532e+03	3.319214e+03	0	5.561815e-04
1.140000e+09	2.889992e+12	0.000000e+00	4.503818e-01	8.137139e+13	2.617909e+14	1.524734e+14	8.280638e+03	5.264552e+03	3.318597e+03	0	5.534391e-04
1.150000e+09	2.847618e+12	0.000000e+00	4.503818e-01	8.048876e+13	2.614763e+14	1.518134e+14	8.266498e+03	5.263527e+03	3.317950e+03	0	5.507210e-04
1.160000e+09	2.806027e+12	0.000000e+00	4.503818e-01	7.962212e+13	2.611485e+14	1.511578e+14	8.252511e+03	5.262457e+03	3.317276e+03	0	5.480266e-04
1.170000e+09	2.765199e+12	0.000000e+00	4.503818e-01	7.877105e+13	2.608077e+14	1.505066e+14	8.238674e+03	5.261343e+03	3.316574e+03	0	5.453556e-04
1.180000e+09	2.725114e+12	0.000000e+00	4.503818e-01	7.793519e+13	2.604544e+14	1.498597e+14	8.224984e+03	5.260188e+03	3.315846e+03	0	5.427076e-04
1.190000e+09	2.685756e+12	0.000000e+00	4.503818e-01	7.711417e+13	2.600890e+14	1.492171e+14	8.211439e+03	5.258992e+03	3.315092e+03	0	5.400822e-04
1.200000e+09	2.647105e+12	0.000000e+00	4.503818e-01	7.630763e+13	2.597119e+14	1.485788e+14	8.198037e+03	5.257756e+03	3.314313e+03	0	5.374789e-04
1.210000e+09	2.609146e+12	0.000000e+00	4.503818e-01	7.551522e+13	2.593233e+14	1.479447e+14	8.184773e+03	5.256481e+03	3.313509e+03	0	5.348973e-04
1.220000e+09	2.571861e+12	0.000000e+00	4.503818e-01	7.473660e+13	2.589238e+14	1.473148e+14	8.171648e+03	5.255169e+03	3.312682e+03	0	5.323372e-04
1.230000e+09	2.535235e+12	0.000000e+00	4.503818e-01	7.397146e+13	2.585136e+14	1.466890e+14	8.158656e+03	5.253821e+03	3.311832e+03	0	5.297981e-04
1.240000e+09	2.499252e+12	0.000000e+00	4.503818e-01	7.321948e+13	2.580931e+14	1.460675e+14	8.145798e+03	5.252436e+03	3.310959e+03	0	5.272796e-04
1.250000e+09	2.463896e+12	0.000000e+00	4.503818e-01	7.248034e+13	2.576628e+14	1.454500e+14	8.133070e+03	5.251018e+03	3.310065e+03	0	5.247815e-04
1.260000e+09	2.429154e+12	0.000000e+00	4.503818e-01	7.175376e+13	2.572227e+14	1.448366e+14	8.120470e+03	5.249565e+03	3.309150e+03	0	5.223032e-04
1.270000e+09	2.395011e+12	0.000000e+00	4.503818e-01	7.103943e+13	2.567734e+14	1.442272e+14	8.107995e+03	5.248081e+03	3.308214e+03	0	5.198445e-04
1.280000e+09	2.361452e+12	0.000000e+00	4.503818e-01	7.033708e+13	2.563151e+14	1.436218e+14	8.095645e+03	5.246564e+03	3.307258e+03	0	5.174051e-04
1.290000e+09	2.328466e+12	0.000000e+00	4.503818e-01	6.964644e+13	2.558481e+14	1.430204e+14	8.083416e+03	5.245017e+03	3.306282e+03	0	5.149846e-04
1.300000e+09	2.296037e+12	0.000000e+00	4.503818e-01	6.896724e+13	2.553728e+14	1.424230e+14	8.071307e+03	5.243440e+03	3.305288e+03	0	5.125827e-04
1.310000e+09	2.264155e+12	0.000000e+00	4.503818e-01	6.829922e+13	2.548894e+14	1.418295e+14	8.059315e+03	5.241834e+03	3.304276e+03	0	5.101991e-04
1.320000e+09	2.232806e+12	0.000000e+00	4.503818e-01	6.764213e+13	2.543982e+14	1.412398e+14	8.047439e+03	5.240200e+03	3.303246e+03	0	5.078335e-04
1.330000e+09	2.201978e+12	0.000000e+00	4.503818e-01	6.699573e+13	2.538996e+14	1.406541e+14	8.035677e+03	5.238538e+03	3.302198e+03	0	5.054854e-04
1.340000e+09	2.171660e+12	0.000000e+00	4.503818e-01	6.635978e+13	2.533937e+14	1.400721e+14	8.024028e+03	5.236850e+03	3.301134e+03	0	5.031548e-04
1.350000e+09	2.141841e+12	0.000000e+00	4.503818e-01	6.573405e+13	2.528808e+14	1.394940e+14	8.012488e+03	5.235136e+03	3.300054e+03	0	5.008412e-04
1.360000e+09	2.112508e+12	0.000000e+00	4.503818e-01	6.511831e+13	2.523613e+14	1.389196e+14	8.001057e+03	5.233397e+03	3.298958e+03	0	4.985444e-04
