#t		Qconv[W]	Ri[Rp]		R*[Rp]		Qc[W]		Qm[W]		Qr[W]		Tcmb[K]		Tl[K]		Tup[K]		RiFlag		Bs[T]
0.000000e+00	6.094092e+13	0.000000e+00	4.427481e-01	1.226894e+15	5.574062e+13	2.977026e+14	1.502945e+04	4.429041e+03	2.705516e+03	0	1.544959e-03
1.000000e+07	5.761318e+13	0.000000e+00	4.427481e-01	1.162065e+15	6.032441e+13	2.960532e+14	1.483551e+04	4.478244e+03	2.735571e+03	0	1.516310e-03
2.000000e+07	5.457023e+13	0.000000e+00	4.427481e-01	1.102762e+15	6.495094e+13	2.944160e+14	1.465161e+04	4.525061e+03	2.764170e+03	0	1.489130e-03
3.000000e+07	5.177893e+13	0.000000e+00	4.427481e-01	1.048342e+15	6.960994e+13	2.927911e+14	1.447691e+04	4.569676e+03	2.791423e+03	0	1.463295e-03
4.000000e+07	4.921094e+13	0.000000e+00	4.427481e-01	9.982567e+14	7.429198e+13	2.911783e+14	1.431066e+04	4.612253e+03	2.817432e+03	0	1.438692e-03
5.000000e+07	4.684187e+13	0.000000e+00	4.427481e-01	9.520338e+14	7.898853e+13	2.895775e+14	1.415221e+04	4.652938e+03	2.842285e+03	0	1.415225e-03
6.000000e+07	4.465070e+13	0.000000e+00	4.427481e-01	9.092655e+14	8.369174e+13	2.879887e+14	1.400097e+04	4.691860e+03	2.866060e+03	0	1.392804e-03
7.000000e+07	4.261915e+13	0.000000e+00	4.427481e-01	8.695977e+14	8.839444e+13	2.864117e+14	1.385640e+04	4.729135e+03	2.888830e+03	0	1.371352e-03
8.000000e+07	4.073130e+13	0.000000e+00	4.427481e-01	8.327220e+14	9.309008e+13	2.848464e+14	1.371802e+04	4.764868e+03	2.910658e+03	0	1.350797e-03
9.000000e+07	3.897323e+13	0.000000e+00	4.427481e-01	7.983683e+14	9.777264e+13	2.832928e+14	1.358543e+04	4.799153e+03	2.931601e+03	0	1.331076e-03
1.000000e+08	3.733271e+13	0.000000e+00	4.427481e-01	7.662995e+14	1.024366e+14	2.817507e+14	1.345821e+04	4.832076e+03	2.951713e+03	0	1.312131e-03
1.100000e+08	3.579894e+13	0.000000e+00	4.427481e-01	7.363063e+14	1.070769e+14	2.802201e+14	1.333602e+04	4.863716e+03	2.971040e+03	0	1.293910e-03
1.200000e+08	3.436239e+13	0.000000e+00	4.427481e-01	7.082037e+14	1.116888e+14	2.787008e+14	1.321855e+04	4.894141e+03	2.989626e+03	0	1.276366e-03
1.300000e+08	3.301459e+13	0.000000e+00	4.427481e-01	6.818275e+14	1.162681e+14	2.771927e+14	1.310549e+04	4.923419e+03	3.007510e+03	0	1.259455e-03
1.400000e+08	3.174801e+13	0.000000e+00	4.427481e-01	6.570315e+14	1.208109e+14	2.756958e+14	1.299658e+04	4.951607e+03	3.024729e+03	0	1.243139e-03
1.500000e+08	3.055590e+13	0.000000e+00	4.427481e-01	6.336849e+14	1.253135e+14	2.742100e+14	1.289158e+04	4.978761e+03	3.041316e+03	0	1.227380e-03
1.600000e+08	2.943226e+13	0.000000e+00	4.427481e-01	6.116709e+14	1.297726e+14	2.727351e+14	1.279026e+04	5.004931e+03	3.057303e+03	0	1.212147e-03
1.700000e+08	2.837166e+13	0.000000e+00	4.427481e-01	5.908845e+14	1.341852e+14	2.712712e+14	1.269241e+04	5.030164e+03	3.072716e+03	0	1.197408e-03
1.800000e+08	2.736924e+13	0.000000e+00	4.427481e-01	5.712311e+14	1.385485e+14	2.698180e+14	1.259784e+04	5.054503e+03	3.087584e+03	0	1.183137e-03
1.900000e+08	2.642061e+13	0.000000e+00	4.427481e-01	5.526253e+14	1.428600e+14	2.683755e+14	1.250638e+04	5.077989e+03	3.101930e+03	0	1.169306e-03
2.000000e+08	2.552178e+13	0.000000e+00	4.427481e-01	5.349902e+14	1.471173e+14	2.669437e+14	1.241786e+04	5.100657e+03	3.115777e+03	0	1.155893e-03
2.100000e+08	2.466918e+13	0.000000e+00	4.427481e-01	5.182557e+14	1.513183e+14	2.655223e+14	1.233213e+04	5.122544e+03	3.129147e+03	0	1.142876e-03
2.200000e+08	2.385951e+13	0.000000e+00	4.427481e-01	5.023583e+14	1.554611e+14	2.641114e+14	1.224905e+04	5.143681e+03	3.142059e+03	0	1.130233e-03
2.300000e+08	2.308982e+13	0.000000e+00	4.427481e-01	4.872402e+14	1.595439e+14	2.627109e+14	1.216849e+04	5.164099e+03	3.154532e+03	0	1.117946e-03
2.400000e+08	2.235737e+13	0.000000e+00	4.427481e-01	4.728485e+14	1.635653e+14	2.613206e+14	1.209033e+04	5.183827e+03	3.166583e+03	0	1.105998e-03
2.500000e+08	2.165970e+13	0.000000e+00	4.427481e-01	4.591352e+14	1.675238e+14	2.599405e+14	1.201445e+04	5.202892e+03	3.178228e+03	0	1.094372e-03
2.600000e+08	2.099453e+13	0.000000e+00	4.427481e-01	4.460561e+14	1.714181e+14	2.585705e+14	1.194075e+04	5.221318e+03	3.189484e+03	0	1.083052e-03
2.700000e+08	2.035979e+13	0.000000e+00	4.427481e-01	4.335707e+14	1.752471e+14	2.572106e+14	1.186912e+04	5.239130e+03	3.200364e+03	0	1.072026e-03
2.800000e+08	1.975356e+13	0.000000e+00	4.427481e-01	4.216419e+14	1.790100e+14	2.558605e+14	1.179948e+04	5.256349e+03	3.210883e+03	0	1.061278e-03
2.900000e+08	1.917407e+13	0.000000e+00	4.427481e-01	4.102354e+14	1.827057e+14	2.545204e+14	1.173174e+04	5.272998e+03	3.221053e+03	0	1.050797e-03
3.000000e+08	1.861973e+13	0.000000e+00	4.427481e-01	3.993197e+14	1.863336e+14	2.531899e+14	1.166580e+04	5.289096e+03	3.230887e+03	0	1.040571e-03
3.100000e+08	1.808902e+13	0.000000e+00	4.427481e-01	3.888657e+14	1.898932e+14	2.518692e+14	1.160161e+04	5.304663e+03	3.240396e+03	0	1.030589e-03
3.200000e+08	1.758056e+13	0.000000e+00	4.427481e-01	3.788466e+14	1.933839e+14	2.505581e+14	1.153908e+04	5.319716e+03	3.249591e+03	0	1.020841e-03
3.300000e+08	1.709308e+13	0.000000e+00	4.427481e-01	3.692375e+14	1.968052e+14	2.492565e+14	1.147815e+04	5.334273e+03	3.258484e+03	0	1.011318e-03
3.400000e+08	1.662540e+13	0.000000e+00	4.427481e-01	3.600152e+14	2.001569e+14	2.479644e+14	1.141874e+04	5.348351e+03	3.267083e+03	0	1.002009e-03
3.500000e+08	1.617641e+13	0.000000e+00	4.427481e-01	3.511584e+14	2.034389e+14	2.466816e+14	1.136081e+04	5.361964e+03	3.275399e+03	0	9.929059e-04
3.600000e+08	1.574509e+13	0.000000e+00	4.427481e-01	3.426473e+14	2.066509e+14	2.454082e+14	1.130429e+04	5.375128e+03	3.283440e+03	0	9.840015e-04
3.700000e+08	1.533049e+13	0.000000e+00	4.427481e-01	3.344632e+14	2.097928e+14	2.441440e+14	1.124913e+04	5.387857e+03	3.291216e+03	0	9.752877e-04
3.800000e+08	1.493173e+13	0.000000e+00	4.427481e-01	3.265889e+14	2.128648e+14	2.428889e+14	1.119527e+04	5.400164e+03	3.298734e+03	0	9.667572e-04
3.900000e+08	1.454798e+13	0.000000e+00	4.427481e-01	3.190084e+14	2.158670e+14	2.416429e+14	1.114267e+04	5.412064e+03	3.306003e+03	0	9.584033e-04
4.000000e+08	1.417847e+13	0.000000e+00	4.427481e-01	3.117067e+14	2.187994e+14	2.404059e+14	1.109128e+04	5.423568e+03	3.313030e+03	0	9.502193e-04
4.100000e+08	1.382248e+13	0.000000e+00	4.427481e-01	3.046697e+14	2.216624e+14	2.391778e+14	1.104106e+04	5.434687e+03	3.319822e+03	0	9.421993e-04
4.200000e+08	1.347934e+13	0.000000e+00	4.427481e-01	2.978843e+14	2.244561e+14	2.379585e+14	1.099196e+04	5.445435e+03	3.326388e+03	0	9.343372e-04
4.300000e+08	1.314842e+13	0.000000e+00	4.427481e-01	2.913382e+14	2.271810e+14	2.367481e+14	1.094395e+04	5.455822e+03	3.332733e+03	0	9.266277e-04
4.400000e+08	1.282913e+13	0.000000e+00	4.427481e-01	2.850199e+14	2.298375e+14	2.355463e+14	1.089698e+04	5.465858e+03	3.338863e+03	0	9.190655e-04
4.500000e+08	1.252091e+13	0.000000e+00	4.427481e-01	2.789186e+14	2.324259e+14	2.343532e+14	1.085103e+04	5.475553e+03	3.344786e+03	0	9.116455e-04
4.600000e+08	1.222324e+13	0.000000e+00	4.427481e-01	2.730240e+14	2.349469e+14	2.331687e+14	1.080605e+04	5.484918e+03	3.350507e+03	0	9.043631e-04
4.700000e+08	1.193563e+13	0.000000e+00	4.427481e-01	2.673267e+14	2.374008e+14	2.319926e+14	1.076201e+04	5.493963e+03	3.356031e+03	0	8.972136e-04
4.800000e+08	1.165762e+13	0.000000e+00	4.427481e-01	2.618177e+14	2.397884e+14	2.308250e+14	1.071889e+04	5.502695e+03	3.361365e+03	0	8.901927e-04
4.900000e+08	1.138878e+13	0.000000e+00	4.427481e-01	2.564885e+14	2.421100e+14	2.296657e+14	1.067665e+04	5.511124e+03	3.366515e+03	0	8.832964e-04
5.000000e+08	1.112870e+13	0.000000e+00	4.427481e-01	2.513310e+14	2.443665e+14	2.285147e+14	1.063526e+04	5.519259e+03	3.371484e+03	0	8.765207e-04
5.100000e+08	1.087699e+13	0.000000e+00	4.427481e-01	2.463379e+14	2.465585e+14	2.273720e+14	1.059470e+04	5.527108e+03	3.376278e+03	0	8.698619e-04
5.200000e+08	1.063329e+13	0.000000e+00	4.427481e-01	2.415020e+14	2.486867e+14	2.262374e+14	1.055494e+04	5.534678e+03	3.380902e+03	0	8.633164e-04
5.300000e+08	1.039726e+13	0.000000e+00	4.427481e-01	2.368165e+14	2.507518e+14	2.251109e+14	1.051595e+04	5.541977e+03	3.385361e+03	0	8.568807e-04
5.400000e+08	1.016857e+13	0.000000e+00	4.427481e-01	2.322751e+14	2.527546e+14	2.239924e+14	1.047772e+04	5.549014e+03	3.389660e+03	0	8.505515e-04
5.500000e+08	9.946906e+12	0.000000e+00	4.427481e-01	2.278719e+14	2.546958e+14	2.228819e+14	1.044021e+04	5.555794e+03	3.393801e+03	0	8.443258e-04
5.600000e+08	9.731988e+12	0.000000e+00	4.427481e-01	2.236011e+14	2.565762e+14	2.217792e+14	1.040341e+04	5.562325e+03	3.397791e+03	0	8.382005e-04
5.700000e+08	9.523537e+12	0.000000e+00	4.427481e-01	2.194573e+14	2.583966e+14	2.206844e+14	1.036729e+04	5.568614e+03	3.401632e+03	0	8.321727e-04
5.800000e+08	9.321289e+12	0.000000e+00	4.427481e-01	2.154355e+14	2.601579e+14	2.195974e+14	1.033184e+04	5.574667e+03	3.405330e+03	0	8.262397e-04
5.900000e+08	9.124998e+12	0.000000e+00	4.427481e-01	2.115307e+14	2.618608e+14	2.185181e+14	1.029704e+04	5.580490e+03	3.408887e+03	0	8.203988e-04
6.000000e+08	8.934429e+12	0.000000e+00	4.427481e-01	2.077384e+14	2.635063e+14	2.174464e+14	1.026286e+04	5.586090e+03	3.412308e+03	0	8.146474e-04
6.100000e+08	8.749356e+12	0.000000e+00	4.427481e-01	2.040541e+14	2.650952e+14	2.163823e+14	1.022929e+04	5.591473e+03	3.415596e+03	0	8.089831e-04
6.200000e+08	8.569568e+12	0.000000e+00	4.427481e-01	2.004738e+14	2.666283e+14	2.153257e+14	1.019631e+04	5.596644e+03	3.418755e+03	0	8.034035e-04
6.300000e+08	8.394863e+12	0.000000e+00	4.427481e-01	1.969935e+14	2.681066e+14	2.142766e+14	1.016391e+04	5.601609e+03	3.421788e+03	0	7.979064e-04
6.400000e+08	8.225048e+12	0.000000e+00	4.427481e-01	1.936094e+14	2.695308e+14	2.132348e+14	1.013207e+04	5.606373e+03	3.424698e+03	0	7.924895e-04
6.500000e+08	8.059939e+12	0.000000e+00	4.427481e-01	1.903179e+14	2.709020e+14	2.122004e+14	1.010077e+04	5.610942e+03	3.427489e+03	0	7.871509e-04
6.600000e+08	7.899363e+12	0.000000e+00	4.427481e-01	1.871157e+14	2.722210e+14	2.111733e+14	1.007000e+04	5.615320e+03	3.430164e+03	0	7.818884e-04
6.700000e+08	7.743153e+12	0.000000e+00	4.427481e-01	1.839994e+14	2.734887e+14	2.101534e+14	1.003974e+04	5.619514e+03	3.432725e+03	0	7.767001e-04
6.800000e+08	7.591151e+12	0.000000e+00	4.427481e-01	1.809659e+14	2.747059e+14	2.091407e+14	1.000999e+04	5.623527e+03	3.435176e+03	0	7.715841e-04
6.900000e+08	7.443204e+12	0.000000e+00	4.427481e-01	1.780123e+14	2.758736e+14	2.081351e+14	9.980721e+03	5.627364e+03	3.437520e+03	0	7.665386e-04
7.000000e+08	7.299169e+12	0.000000e+00	4.427481e-01	1.751358e+14	2.769928e+14	2.071365e+14	9.951929e+03	5.631030e+03	3.439760e+03	0	7.615619e-04
7.100000e+08	7.158907e+12	0.000000e+00	4.427481e-01	1.723336e+14	2.780641e+14	2.061449e+14	9.923600e+03	5.634529e+03	3.441897e+03	0	7.566522e-04
7.200000e+08	7.022287e+12	0.000000e+00	4.427481e-01	1.696032e+14	2.790886e+14	2.051603e+14	9.895721e+03	5.637866e+03	3.443936e+03	0	7.518080e-04
7.300000e+08	6.889182e+12	0.000000e+00	4.427481e-01	1.669421e+14	2.800672e+14	2.041825e+14	9.868282e+03	5.641045e+03	3.445878e+03	0	7.470275e-04
7.400000e+08	6.759472e+12	0.000000e+00	4.427481e-01	1.643480e+14	2.810007e+14	2.032116e+14	9.841271e+03	5.644069e+03	3.447725e+03	0	7.423095e-04
7.500000e+08	6.633042e+12	0.000000e+00	4.427481e-01	1.618185e+14	2.818900e+14	2.022474e+14	9.814677e+03	5.646944e+03	3.449481e+03	0	7.376522e-04
7.600000e+08	6.509780e+12	0.000000e+00	4.427481e-01	1.593515e+14	2.827360e+14	2.012899e+14	9.788491e+03	5.649672e+03	3.451148e+03	0	7.330544e-04
7.700000e+08	6.389582e+12	0.000000e+00	4.427481e-01	1.569449e+14	2.835396e+14	2.003391e+14	9.762701e+03	5.652258e+03	3.452727e+03	0	7.285145e-04
7.800000e+08	6.272346e+12	0.000000e+00	4.427481e-01	1.545968e+14	2.843015e+14	1.993950e+14	9.737300e+03	5.654704e+03	3.454222e+03	0	7.240314e-04
7.900000e+08	6.157974e+12	0.000000e+00	4.427481e-01	1.523052e+14	2.850227e+14	1.984573e+14	9.712276e+03	5.657016e+03	3.455634e+03	0	7.196037e-04
8.000000e+08	6.046374e+12	0.000000e+00	4.427481e-01	1.500683e+14	2.857041e+14	1.975262e+14	9.687621e+03	5.659195e+03	3.456965e+03	0	7.152300e-04
8.100000e+08	5.937456e+12	0.000000e+00	4.427481e-01	1.478844e+14	2.863464e+14	1.966015e+14	9.663327e+03	5.661247e+03	3.458218e+03	0	7.109093e-04
8.200000e+08	5.831135e+12	0.000000e+00	4.427481e-01	1.457518e+14	2.869505e+14	1.956832e+14	9.639384e+03	5.663173e+03	3.459395e+03	0	7.066403e-04
8.300000e+08	5.727327e+12	0.000000e+00	4.427481e-01	1.436688e+14	2.875172e+14	1.947713e+14	9.615785e+03	5.664977e+03	3.460497e+03	0	7.024219e-04
8.400000e+08	5.625955e+12	0.000000e+00	4.427481e-01	1.416339e+14	2.880473e+14	1.938657e+14	9.592522e+03	5.666662e+03	3.461526e+03	0	6.982530e-04
8.500000e+08	5.526942e+12	0.000000e+00	4.427481e-01	1.396457e+14	2.885416e+14	1.929663e+14	9.569586e+03	5.668231e+03	3.462485e+03	0	6.941325e-04
8.600000e+08	5.430214e+12	0.000000e+00	4.427481e-01	1.377026e+14	2.890010e+14	1.920731e+14	9.546971e+03	5.669688e+03	3.463374e+03	0	6.900593e-04
8.700000e+08	5.335703e+12	0.000000e+00	4.427481e-01	1.358033e+14	2.894262e+14	1.911861e+14	9.524669e+03	5.671035e+03	3.464197e+03	0	6.860324e-04
8.800000e+08	5.243340e+12	0.000000e+00	4.427481e-01	1.339465e+14	2.898179e+14	1.903052e+14	9.502673e+03	5.672274e+03	3.464954e+03	0	6.820508e-04
8.900000e+08	5.153060e+12	0.000000e+00	4.427481e-01	1.321309e+14	2.901771e+14	1.894303e+14	9.480977e+03	5.673409e+03	3.465648e+03	0	6.781136e-04
9.000000e+08	5.064802e+12	0.000000e+00	4.427481e-01	1.303553e+14	2.905043e+14	1.885614e+14	9.459573e+03	5.674443e+03	3.466279e+03	0	6.742199e-04
9.100000e+08	4.978504e+12	0.000000e+00	4.427481e-01	1.286185e+14	2.908004e+14	1.876985e+14	9.438456e+03	5.675377e+03	3.466850e+03	0	6.703686e-04
9.200000e+08	4.894109e+12	0.000000e+00	4.427481e-01	1.269193e+14	2.910660e+14	1.868415e+14	9.417619e+03	5.676214e+03	3.467361e+03	0	6.665590e-04
9.300000e+08	4.811561e+12	0.000000e+00	4.427481e-01	1.252567e+14	2.913021e+14	1.859903e+14	9.397055e+03	5.676958e+03	3.467815e+03	0	6.627902e-04
9.400000e+08	4.730807e+12	0.000000e+00	4.427481e-01	1.236297e+14	2.915090e+14	1.851450e+14	9.376760e+03	5.677610e+03	3.468214e+03	0	6.590613e-04
9.500000e+08	4.651795e+12	0.000000e+00	4.427481e-01	1.220370e+14	2.916876e+14	1.843055e+14	9.356728e+03	5.678172e+03	3.468557e+03	0	6.553715e-04
9.600000e+08	4.574474e+12	0.000000e+00	4.427481e-01	1.204779e+14	2.918387e+14	1.834716e+14	9.336952e+03	5.678648e+03	3.468848e+03	0	6.517201e-04
9.700000e+08	4.498796e+12	0.000000e+00	4.427481e-01	1.189514e+14	2.919629e+14	1.826435e+14	9.317428e+03	5.679038e+03	3.469086e+03	0	6.481062e-04
9.800000e+08	4.424716e+12	0.000000e+00	4.427481e-01	1.174565e+14	2.920607e+14	1.818210e+14	9.298150e+03	5.679346e+03	3.469274e+03	0	6.445291e-04
9.900000e+08	4.352188e+12	0.000000e+00	4.427481e-01	1.159923e+14	2.921331e+14	1.810040e+14	9.279114e+03	5.679573e+03	3.469413e+03	0	6.409881e-04
1.000000e+09	4.281169e+12	0.000000e+00	4.427481e-01	1.145581e+14	2.921804e+14	1.801926e+14	9.260313e+03	5.679722e+03	3.469504e+03	0	6.374824e-04
1.010000e+09	4.211617e+12	0.000000e+00	4.427481e-01	1.131530e+14	2.922034e+14	1.793868e+14	9.241745e+03	5.679794e+03	3.469548e+03	0	6.340113e-04
1.020000e+09	4.143492e+12	0.000000e+00	4.427481e-01	1.117761e+14	2.922027e+14	1.785863e+14	9.223403e+03	5.679792e+03	3.469547e+03	0	6.305743e-04
1.030000e+09	4.076755e+12	0.000000e+00	4.427481e-01	1.104268e+14	2.921790e+14	1.777913e+14	9.205283e+03	5.679717e+03	3.469501e+03	0	6.271705e-04
1.040000e+09	4.011369e+12	0.000000e+00	4.427481e-01	1.091042e+14	2.921327e+14	1.770017e+14	9.187381e+03	5.679572e+03	3.469412e+03	0	6.237994e-04
1.050000e+09	3.947296e+12	0.000000e+00	4.427481e-01	1.078078e+14	2.920645e+14	1.762174e+14	9.169693e+03	5.679358e+03	3.469281e+03	0	6.204603e-04
1.060000e+09	3.884503e+12	0.000000e+00	4.427481e-01	1.065367e+14	2.919750e+14	1.754384e+14	9.152214e+03	5.679076e+03	3.469109e+03	0	6.171526e-04
1.070000e+09	3.822954e+12	0.000000e+00	4.427481e-01	1.052903e+14	2.918647e+14	1.746646e+14	9.134940e+03	5.678729e+03	3.468897e+03	0	6.138757e-04
1.080000e+09	3.762617e+12	0.000000e+00	4.427481e-01	1.040680e+14	2.917342e+14	1.738961e+14	9.117867e+03	5.678319e+03	3.468647e+03	0	6.106290e-04
1.090000e+09	3.703461e+12	0.000000e+00	4.427481e-01	1.028691e+14	2.915840e+14	1.731327e+14	9.100992e+03	5.677846e+03	3.468358e+03	0	6.074119e-04
1.100000e+09	3.645453e+12	0.000000e+00	4.427481e-01	1.016931e+14	2.914148e+14	1.723744e+14	9.084311e+03	5.677313e+03	3.468032e+03	0	6.042239e-04
1.110000e+09	3.588566e+12	0.000000e+00	4.427481e-01	1.005393e+14	2.912269e+14	1.716213e+14	9.067819e+03	5.676721e+03	3.467671e+03	0	6.010645e-04
1.120000e+09	3.532770e+12	0.000000e+00	4.427481e-01	9.940718e+13	2.910209e+14	1.708731e+14	9.051514e+03	5.676072e+03	3.467274e+03	0	5.979330e-04
1.130000e+09	3.478036e+12	0.000000e+00	4.427481e-01	9.829618e+13	2.907974e+14	1.701300e+14	9.035392e+03	5.675367e+03	3.466844e+03	0	5.948289e-04
1.140000e+09	3.424339e+12	0.000000e+00	4.427481e-01	9.720578e+13	2.905567e+14	1.693918e+14	9.019449e+03	5.674608e+03	3.466380e+03	0	5.917519e-04
1.150000e+09	3.371651e+12	0.000000e+00	4.427481e-01	9.613547e+13	2.902994e+14	1.686586e+14	9.003683e+03	5.673796e+03	3.465884e+03	0	5.887012e-04
1.160000e+09	3.319948e+12	0.000000e+00	4.427481e-01	9.508473e+13	2.900260e+14	1.679303e+14	8.988089e+03	5.672932e+03	3.465356e+03	0	5.856765e-04
1.170000e+09	3.269205e+12	0.000000e+00	4.427481e-01	9.405308e+13	2.897369e+14	1.672068e+14	8.972665e+03	5.672018e+03	3.464798e+03	0	5.826773e-04
1.180000e+09	3.219398e+12	0.000000e+00	4.427481e-01	9.304006e+13	2.894326e+14	1.664881e+14	8.957408e+03	5.671055e+03	3.464209e+03	0	5.797031e-04
1.190000e+09	3.170504e+12	0.000000e+00	4.427481e-01	9.204522e+13	2.891135e+14	1.657742e+14	8.942315e+03	5.670044e+03	3.463592e+03	0	5.767534e-04
1.200000e+09	3.122502e+12	0.000000e+00	4.427481e-01	9.106810e+13	2.887801e+14	1.650651e+14	8.927382e+03	5.668988e+03	3.462947e+03	0	5.738278e-04
1.210000e+09	3.075368e+12	0.000000e+00	4.427481e-01	9.010829e+13	2.884327e+14	1.643606e+14	8.912608e+03	5.667886e+03	3.462274e+03	0	5.709259e-04
1.220000e+09	3.029082e+12	0.000000e+00	4.427481e-01	8.916536e+13	2.880718e+14	1.636608e+14	8.897988e+03	5.666740e+03	3.461574e+03	0	5.680472e-04
1.230000e+09	2.983624e+12	0.000000e+00	4.427481e-01	8.823892e+13	2.876978e+14	1.629657e+14	8.883521e+03	5.665551e+03	3.460848e+03	0	5.651913e-04
1.240000e+09	2.938974e+12	0.000000e+00	4.427481e-01	8.732857e+13	2.873111e+14	1.622751e+14	8.869204e+03	5.664321e+03	3.460096e+03	0	5.623577e-04
1.250000e+09	2.895113e+12	0.000000e+00	4.427481e-01	8.643394e+13	2.869121e+14	1.615891e+14	8.855034e+03	5.663051e+03	3.459320e+03	0	5.595461e-04
1.260000e+09	2.852021e+12	0.000000e+00	4.427481e-01	8.555466e+13	2.865012e+14	1.609076e+14	8.841009e+03	5.661741e+03	3.458520e+03	0	5.567561e-04
1.270000e+09	2.809682e+12	0.000000e+00	4.427481e-01	8.469036e+13	2.860787e+14	1.602307e+14	8.827126e+03	5.660392e+03	3.457696e+03	0	5.539873e-04
1.280000e+09	2.768077e+12	0.000000e+00	4.427481e-01	8.384071e+13	2.856450e+14	1.595581e+14	8.813382e+03	5.659007e+03	3.456850e+03	0	5.512392e-04
1.290000e+09	2.727190e+12	0.000000e+00	4.427481e-01	8.300536e+13	2.852005e+14	1.588900e+14	8.799776e+03	5.657585e+03	3.455981e+03	0	5.485116e-04
1.300000e+09	2.687003e+12	0.000000e+00	4.427481e-01	8.218399e+13	2.847454e+14	1.582263e+14	8.786305e+03	5.656128e+03	3.455091e+03	0	5.458041e-04
1.310000e+09	2.647501e+12	0.000000e+00	4.427481e-01	8.137629e+13	2.842802e+14	1.575669e+14	8.772967e+03	5.654636e+03	3.454180e+03	0	5.431162e-04
1.320000e+09	2.608668e+12	0.000000e+00	4.427481e-01	8.058193e+13	2.838052e+14	1.569118e+14	8.759760e+03	5.653111e+03	3.453248e+03	0	5.404477e-04
1.330000e+09	2.570489e+12	0.000000e+00	4.427481e-01	7.980063e+13	2.833206e+14	1.562611e+14	8.746681e+03	5.651554e+03	3.452297e+03	0	5.377982e-04
1.340000e+09	2.532949e+12	0.000000e+00	4.427481e-01	7.903208e+13	2.828269e+14	1.556145e+14	8.733728e+03	5.649965e+03	3.451326e+03	0	5.351673e-04
1.350000e+09	2.496034e+12	0.000000e+00	4.427481e-01	7.827601e+13	2.823243e+14	1.549722e+14	8.720900e+03	5.648345e+03	3.450337e+03	0	5.325547e-04
1.360000e+09	2.459730e+12	0.000000e+00	4.427481e-01	7.753214e+13	2.818131e+14	1.543341e+14	8.708194e+03	5.646696e+03	3.449329e+03	0	5.299601e-04
