#t		Qconv[W]	Ri[Rp]		R*[Rp]		Qc[W]		Qm[W]		Qr[W]		Tcmb[K]		Tl[K]		Tup[K]		RiFlag		Bs[T]
0.000000e+00	8.623979e+13	0.000000e+00	4.427479e-01	1.576873e+15	5.210667e+13	3.443547e+14	1.671445e+04	4.677786e+03	2.775169e+03	0	1.724336e-03
1.000000e+07	8.164782e+13	0.000000e+00	4.427479e-01	1.496079e+15	5.674873e+13	3.424467e+14	1.650328e+04	4.732703e+03	2.807750e+03	0	1.693171e-03
2.000000e+07	7.743813e+13	0.000000e+00	4.427479e-01	1.421979e+15	6.146602e+13	3.405530e+14	1.630271e+04	4.785048e+03	2.838804e+03	0	1.663557e-03
3.000000e+07	7.356740e+13	0.000000e+00	4.427479e-01	1.353815e+15	6.624715e+13	3.386735e+14	1.611188e+04	4.835017e+03	2.868449e+03	0	1.635364e-03
4.000000e+07	6.999846e+13	0.000000e+00	4.427479e-01	1.290939e+15	7.108160e+13	3.368080e+14	1.593002e+04	4.882783e+03	2.896787e+03	0	1.608479e-03
5.000000e+07	6.669919e+13	0.000000e+00	4.427479e-01	1.232788e+15	7.595966e+13	3.349563e+14	1.575646e+04	4.928501e+03	2.923910e+03	0	1.582801e-03
6.000000e+07	6.364176e+13	0.000000e+00	4.427479e-01	1.178875e+15	8.087231e+13	3.331185e+14	1.559058e+04	4.972309e+03	2.949900e+03	0	1.558237e-03
7.000000e+07	6.080191e+13	0.000000e+00	4.427479e-01	1.128778e+15	8.581124e+13	3.312944e+14	1.543182e+04	5.014331e+03	2.974830e+03	0	1.534706e-03
8.000000e+07	5.815845e+13	0.000000e+00	4.427479e-01	1.082125e+15	9.076876e+13	3.294839e+14	1.527970e+04	5.054679e+03	2.998767e+03	0	1.512134e-03
9.000000e+07	5.569276e+13	0.000000e+00	4.427479e-01	1.038590e+15	9.573768e+13	3.276868e+14	1.513376e+04	5.093456e+03	3.021772e+03	0	1.490455e-03
1.000000e+08	5.338843e+13	0.000000e+00	4.427479e-01	9.978872e+14	1.007114e+14	3.259030e+14	1.499361e+04	5.130752e+03	3.043898e+03	0	1.469609e-03
1.100000e+08	5.123097e+13	0.000000e+00	4.427479e-01	9.597618e+14	1.056837e+14	3.241325e+14	1.485886e+04	5.166651e+03	3.065196e+03	0	1.449540e-03
1.200000e+08	4.920752e+13	0.000000e+00	4.427479e-01	9.239890e+14	1.106489e+14	3.223751e+14	1.472918e+04	5.201230e+03	3.085711e+03	0	1.430199e-03
1.300000e+08	4.730662e+13	0.000000e+00	4.427479e-01	8.903686e+14	1.156016e+14	3.206307e+14	1.460426e+04	5.234558e+03	3.105483e+03	0	1.411540e-03
1.400000e+08	4.551807e+13	0.000000e+00	4.427479e-01	8.587217e+14	1.205369e+14	3.188993e+14	1.448383e+04	5.266701e+03	3.124552e+03	0	1.393522e-03
1.500000e+08	4.383273e+13	0.000000e+00	4.427479e-01	8.288881e+14	1.254502e+14	3.171806e+14	1.436762e+04	5.297716e+03	3.142952e+03	0	1.376107e-03
1.600000e+08	4.224240e+13	0.000000e+00	4.427479e-01	8.007244e+14	1.303371e+14	3.154746e+14	1.425539e+04	5.327658e+03	3.160716e+03	0	1.359259e-03
1.700000e+08	4.073970e+13	0.000000e+00	4.427479e-01	7.741013e+14	1.351938e+14	3.137812e+14	1.414692e+04	5.356578e+03	3.177873e+03	0	1.342946e-03
1.800000e+08	3.931797e+13	0.000000e+00	4.427479e-01	7.489022e+14	1.400165e+14	3.121003e+14	1.404201e+04	5.384523e+03	3.194452e+03	0	1.327139e-03
1.900000e+08	3.797121e+13	0.000000e+00	4.427479e-01	7.250216e+14	1.448017e+14	3.104318e+14	1.394048e+04	5.411535e+03	3.210477e+03	0	1.311810e-03
2.000000e+08	3.669396e+13	0.000000e+00	4.427479e-01	7.023642e+14	1.495463e+14	3.087756e+14	1.384214e+04	5.437655e+03	3.225973e+03	0	1.296933e-03
2.100000e+08	3.548129e+13	0.000000e+00	4.427479e-01	6.808431e+14	1.542473e+14	3.071315e+14	1.374684e+04	5.462920e+03	3.240962e+03	0	1.282485e-03
2.200000e+08	3.432868e+13	0.000000e+00	4.427479e-01	6.603795e+14	1.589020e+14	3.054995e+14	1.365442e+04	5.487366e+03	3.255465e+03	0	1.268445e-03
2.300000e+08	3.323205e+13	0.000000e+00	4.427479e-01	6.409015e+14	1.635077e+14	3.038795e+14	1.356475e+04	5.511026e+03	3.269502e+03	0	1.254792e-03
2.400000e+08	3.218763e+13	0.000000e+00	4.427479e-01	6.223434e+14	1.680622e+14	3.022714e+14	1.347769e+04	5.533930e+03	3.283090e+03	0	1.241507e-03
2.500000e+08	3.119202e+13	0.000000e+00	4.427479e-01	6.046449e+14	1.725633e+14	3.006750e+14	1.339313e+04	5.556108e+03	3.296247e+03	0	1.228572e-03
2.600000e+08	3.024206e+13	0.000000e+00	4.427479e-01	5.877511e+14	1.770090e+14	2.990904e+14	1.331095e+04	5.577586e+03	3.308990e+03	0	1.215971e-03
2.700000e+08	2.933488e+13	0.000000e+00	4.427479e-01	5.716113e+14	1.813975e+14	2.975173e+14	1.323104e+04	5.598390e+03	3.321332e+03	0	1.203688e-03
2.800000e+08	2.846782e+13	0.000000e+00	4.427479e-01	5.561790e+14	1.857270e+14	2.959557e+14	1.315330e+04	5.618545e+03	3.333289e+03	0	1.191710e-03
2.900000e+08	2.763843e+13	0.000000e+00	4.427479e-01	5.414112e+14	1.899962e+14	2.944055e+14	1.307763e+04	5.638073e+03	3.344875e+03	0	1.180023e-03
3.000000e+08	2.684448e+13	0.000000e+00	4.427479e-01	5.272684e+14	1.942036e+14	2.928666e+14	1.300396e+04	5.656997e+03	3.356102e+03	0	1.168614e-03
3.100000e+08	2.608387e+13	0.000000e+00	4.427479e-01	5.137141e+14	1.983479e+14	2.913389e+14	1.293219e+04	5.675336e+03	3.366982e+03	0	1.157471e-03
3.200000e+08	2.535469e+13	0.000000e+00	4.427479e-01	5.007144e+14	2.024281e+14	2.898223e+14	1.286225e+04	5.693110e+03	3.377526e+03	0	1.146583e-03
3.300000e+08	2.465514e+13	0.000000e+00	4.427479e-01	4.882381e+14	2.064431e+14	2.883168e+14	1.279406e+04	5.710339e+03	3.387747e+03	0	1.135939e-03
3.400000e+08	2.398358e+13	0.000000e+00	4.427479e-01	4.762560e+14	2.103920e+14	2.868221e+14	1.272756e+04	5.727038e+03	3.397655e+03	0	1.125531e-03
3.500000e+08	2.333847e+13	0.000000e+00	4.427479e-01	4.647411e+14	2.142741e+14	2.853384e+14	1.266267e+04	5.743226e+03	3.407258e+03	0	1.115347e-03
3.600000e+08	2.271838e+13	0.000000e+00	4.427479e-01	4.536684e+14	2.180887e+14	2.838654e+14	1.259934e+04	5.758918e+03	3.416568e+03	0	1.105381e-03
3.700000e+08	2.212199e+13	0.000000e+00	4.427479e-01	4.430144e+14	2.218352e+14	2.824030e+14	1.253750e+04	5.774130e+03	3.425593e+03	0	1.095622e-03
3.800000e+08	2.154805e+13	0.000000e+00	4.427479e-01	4.327574e+14	2.255131e+14	2.809513e+14	1.247710e+04	5.788876e+03	3.434341e+03	0	1.086064e-03
3.900000e+08	2.099540e+13	0.000000e+00	4.427479e-01	4.228770e+14	2.291221e+14	2.795100e+14	1.241809e+04	5.803171e+03	3.442821e+03	0	1.076698e-03
4.000000e+08	2.046297e+13	0.000000e+00	4.427479e-01	4.133541e+14	2.326617e+14	2.780791e+14	1.236042e+04	5.817027e+03	3.451042e+03	0	1.067519e-03
4.100000e+08	1.994974e+13	0.000000e+00	4.427479e-01	4.041711e+14	2.361319e+14	2.766586e+14	1.230403e+04	5.830458e+03	3.459010e+03	0	1.058518e-03
4.200000e+08	1.945478e+13	0.000000e+00	4.427479e-01	3.953112e+14	2.395324e+14	2.752483e+14	1.224888e+04	5.843475e+03	3.466733e+03	0	1.049691e-03
4.300000e+08	1.897719e+13	0.000000e+00	4.427479e-01	3.867590e+14	2.428631e+14	2.738481e+14	1.219494e+04	5.856092e+03	3.474218e+03	0	1.041030e-03
4.400000e+08	1.851614e+13	0.000000e+00	4.427479e-01	3.784996e+14	2.461241e+14	2.724581e+14	1.214215e+04	5.868319e+03	3.481471e+03	0	1.032530e-03
4.500000e+08	1.807086e+13	0.000000e+00	4.427479e-01	3.705194e+14	2.493154e+14	2.710780e+14	1.209048e+04	5.880166e+03	3.488500e+03	0	1.024186e-03
4.600000e+08	1.764061e+13	0.000000e+00	4.427479e-01	3.628054e+14	2.524370e+14	2.697078e+14	1.203989e+04	5.891646e+03	3.495311e+03	0	1.015992e-03
4.700000e+08	1.722469e+13	0.000000e+00	4.427479e-01	3.553456e+14	2.554893e+14	2.683475e+14	1.199035e+04	5.902768e+03	3.501909e+03	0	1.007944e-03
4.800000e+08	1.682247e+13	0.000000e+00	4.427479e-01	3.481285e+14	2.584723e+14	2.669969e+14	1.194182e+04	5.913541e+03	3.508300e+03	0	1.000037e-03
4.900000e+08	1.643333e+13	0.000000e+00	4.427479e-01	3.411432e+14	2.613864e+14	2.656559e+14	1.189426e+04	5.923975e+03	3.514491e+03	0	9.922653e-04
5.000000e+08	1.605668e+13	0.000000e+00	4.427479e-01	3.343796e+14	2.642319e+14	2.643246e+14	1.184766e+04	5.934080e+03	3.520486e+03	0	9.846260e-04
5.100000e+08	1.569200e+13	0.000000e+00	4.427479e-01	3.278282e+14	2.670091e+14	2.630027e+14	1.180197e+04	5.943864e+03	3.526290e+03	0	9.771145e-04
5.200000e+08	1.533876e+13	0.000000e+00	4.427479e-01	3.214798e+14	2.697185e+14	2.616903e+14	1.175717e+04	5.953336e+03	3.531909e+03	0	9.697269e-04
5.300000e+08	1.499648e+13	0.000000e+00	4.427479e-01	3.153259e+14	2.723606e+14	2.603873e+14	1.171323e+04	5.962503e+03	3.537348e+03	0	9.624595e-04
5.400000e+08	1.466470e+13	0.000000e+00	4.427479e-01	3.093583e+14	2.749357e+14	2.590935e+14	1.167013e+04	5.971375e+03	3.542611e+03	0	9.553087e-04
5.500000e+08	1.434298e+13	0.000000e+00	4.427479e-01	3.035695e+14	2.774445e+14	2.578090e+14	1.162784e+04	5.979958e+03	3.547703e+03	0	9.482711e-04
5.600000e+08	1.403092e+13	0.000000e+00	4.427479e-01	2.979520e+14	2.798875e+14	2.565336e+14	1.158633e+04	5.988260e+03	3.552628e+03	0	9.413433e-04
5.700000e+08	1.372812e+13	0.000000e+00	4.427479e-01	2.924991e+14	2.822652e+14	2.552672e+14	1.154559e+04	5.996288e+03	3.557391e+03	0	9.345222e-04
5.800000e+08	1.343420e+13	0.000000e+00	4.427479e-01	2.872042e+14	2.845783e+14	2.540098e+14	1.150558e+04	6.004050e+03	3.561996e+03	0	9.278049e-04
5.900000e+08	1.314883e+13	0.000000e+00	4.427479e-01	2.820611e+14	2.868275e+14	2.527614e+14	1.146630e+04	6.011552e+03	3.566447e+03	0	9.211883e-04
6.000000e+08	1.287167e+13	0.000000e+00	4.427479e-01	2.770639e+14	2.890134e+14	2.515217e+14	1.142771e+04	6.018800e+03	3.570747e+03	0	9.146696e-04
6.100000e+08	1.260239e+13	0.000000e+00	4.427479e-01	2.722069e+14	2.911367e+14	2.502909e+14	1.138981e+04	6.025802e+03	3.574901e+03	0	9.082463e-04
6.200000e+08	1.234070e+13	0.000000e+00	4.427479e-01	2.674849e+14	2.931981e+14	2.490687e+14	1.135257e+04	6.032563e+03	3.578912e+03	0	9.019157e-04
6.300000e+08	1.208631e+13	0.000000e+00	4.427479e-01	2.628927e+14	2.951983e+14	2.478552e+14	1.131596e+04	6.039090e+03	3.582784e+03	0	8.956753e-04
6.400000e+08	1.183895e+13	0.000000e+00	4.427479e-01	2.584256e+14	2.971381e+14	2.466502e+14	1.127998e+04	6.045387e+03	3.586520e+03	0	8.895227e-04
6.500000e+08	1.159835e+13	0.000000e+00	4.427479e-01	2.540790e+14	2.990182e+14	2.454537e+14	1.124461e+04	6.051462e+03	3.590124e+03	0	8.834557e-04
6.600000e+08	1.136428e+13	0.000000e+00	4.427479e-01	2.498484e+14	3.008395e+14	2.442657e+14	1.120984e+04	6.057319e+03	3.593599e+03	0	8.774720e-04
6.700000e+08	1.113648e+13	0.000000e+00	4.427479e-01	2.457297e+14	3.026026e+14	2.430859e+14	1.117563e+04	6.062965e+03	3.596948e+03	0	8.715694e-04
6.800000e+08	1.091474e+13	0.000000e+00	4.427479e-01	2.417188e+14	3.043084e+14	2.419145e+14	1.114199e+04	6.068403e+03	3.600175e+03	0	8.657460e-04
6.900000e+08	1.069885e+13	0.000000e+00	4.427479e-01	2.378121e+14	3.059578e+14	2.407513e+14	1.110889e+04	6.073639e+03	3.603281e+03	0	8.599998e-04
7.000000e+08	1.048859e+13	0.000000e+00	4.427479e-01	2.340057e+14	3.075514e+14	2.395962e+14	1.107633e+04	6.078679e+03	3.606271e+03	0	8.543287e-04
7.100000e+08	1.028377e+13	0.000000e+00	4.427479e-01	2.302964e+14	3.090902e+14	2.384493e+14	1.104428e+04	6.083527e+03	3.609147e+03	0	8.487310e-04
7.200000e+08	1.008420e+13	0.000000e+00	4.427479e-01	2.266806e+14	3.105749e+14	2.373103e+14	1.101274e+04	6.088187e+03	3.611912e+03	0	8.432049e-04
7.300000e+08	9.889700e+12	0.000000e+00	4.427479e-01	2.231553e+14	3.120065e+14	2.361793e+14	1.098169e+04	6.092665e+03	3.614568e+03	0	8.377486e-04
7.400000e+08	9.700103e+12	0.000000e+00	4.427479e-01	2.197174e+14	3.133857e+14	2.350562e+14	1.095112e+04	6.096964e+03	3.617119e+03	0	8.323605e-04
7.500000e+08	9.515241e+12	0.000000e+00	4.427479e-01	2.163640e+14	3.147134e+14	2.339410e+14	1.092102e+04	6.101089e+03	3.619566e+03	0	8.270389e-04
7.600000e+08	9.334956e+12	0.000000e+00	4.427479e-01	2.130923e+14	3.159904e+14	2.328335e+14	1.089138e+04	6.105045e+03	3.621913e+03	0	8.217823e-04
7.700000e+08	9.159099e+12	0.000000e+00	4.427479e-01	2.098996e+14	3.172176e+14	2.317337e+14	1.086218e+04	6.108835e+03	3.624162e+03	0	8.165891e-04
7.800000e+08	8.987524e+12	0.000000e+00	4.427479e-01	2.067834e+14	3.183957e+14	2.306415e+14	1.083342e+04	6.112463e+03	3.626314e+03	0	8.114579e-04
7.900000e+08	8.820092e+12	0.000000e+00	4.427479e-01	2.037411e+14	3.195257e+14	2.295570e+14	1.080509e+04	6.115934e+03	3.628373e+03	0	8.063873e-04
8.000000e+08	8.656670e+12	0.000000e+00	4.427479e-01	2.007705e+14	3.206084e+14	2.284799e+14	1.077716e+04	6.119251e+03	3.630341e+03	0	8.013759e-04
8.100000e+08	8.497132e+12	0.000000e+00	4.427479e-01	1.978693e+14	3.216447e+14	2.274103e+14	1.074965e+04	6.122417e+03	3.632219e+03	0	7.964224e-04
8.200000e+08	8.341353e+12	0.000000e+00	4.427479e-01	1.950352e+14	3.226353e+14	2.263482e+14	1.072252e+04	6.125437e+03	3.634011e+03	0	7.915253e-04
8.300000e+08	8.189216e+12	0.000000e+00	4.427479e-01	1.922663e+14	3.235811e+14	2.252933e+14	1.069579e+04	6.128314e+03	3.635718e+03	0	7.866836e-04
8.400000e+08	8.040609e+12	0.000000e+00	4.427479e-01	1.895605e+14	3.244828e+14	2.242458e+14	1.066943e+04	6.131051e+03	3.637342e+03	0	7.818960e-04
8.500000e+08	7.895421e+12	0.000000e+00	4.427479e-01	1.869158e+14	3.253415e+14	2.232055e+14	1.064344e+04	6.133652e+03	3.638885e+03	0	7.771612e-04
8.600000e+08	7.753550e+12	0.000000e+00	4.427479e-01	1.843305e+14	3.261578e+14	2.221723e+14	1.061782e+04	6.136120e+03	3.640349e+03	0	7.724781e-04
8.700000e+08	7.614894e+12	0.000000e+00	4.427479e-01	1.818026e+14	3.269326e+14	2.211463e+14	1.059254e+04	6.138459e+03	3.641736e+03	0	7.678457e-04
8.800000e+08	7.479357e+12	0.000000e+00	4.427479e-01	1.793306e+14	3.276667e+14	2.201273e+14	1.056761e+04	6.140670e+03	3.643048e+03	0	7.632628e-04
8.900000e+08	7.346845e+12	0.000000e+00	4.427479e-01	1.769128e+14	3.283609e+14	2.191153e+14	1.054302e+04	6.142758e+03	3.644287e+03	0	7.587283e-04
9.000000e+08	7.217270e+12	0.000000e+00	4.427479e-01	1.745475e+14	3.290159e+14	2.181103e+14	1.051876e+04	6.144725e+03	3.645454e+03	0	7.542413e-04
9.100000e+08	7.090544e+12	0.000000e+00	4.427479e-01	1.722332e+14	3.296325e+14	2.171122e+14	1.049482e+04	6.146574e+03	3.646551e+03	0	7.498007e-04
9.200000e+08	6.966585e+12	0.000000e+00	4.427479e-01	1.699686e+14	3.302117e+14	2.161209e+14	1.047119e+04	6.148309e+03	3.647580e+03	0	7.454056e-04
9.300000e+08	6.845312e+12	0.000000e+00	4.427479e-01	1.677520e+14	3.307540e+14	2.151363e+14	1.044788e+04	6.149931e+03	3.648542e+03	0	7.410549e-04
9.400000e+08	6.726648e+12	0.000000e+00	4.427479e-01	1.655822e+14	3.312603e+14	2.141585e+14	1.042487e+04	6.151443e+03	3.649440e+03	0	7.367479e-04
9.500000e+08	6.610520e+12	0.000000e+00	4.427479e-01	1.634579e+14	3.317314e+14	2.131874e+14	1.040215e+04	6.152849e+03	3.650273e+03	0	7.324835e-04
9.600000e+08	6.496854e+12	0.000000e+00	4.427479e-01	1.613777e+14	3.321679e+14	2.122229e+14	1.037973e+04	6.154150e+03	3.651045e+03	0	7.282610e-04
9.700000e+08	6.385582e+12	0.000000e+00	4.427479e-01	1.593404e+14	3.325707e+14	2.112650e+14	1.035759e+04	6.155349e+03	3.651757e+03	0	7.240794e-04
9.800000e+08	6.276638e+12	0.000000e+00	4.427479e-01	1.573449e+14	3.329402e+14	2.103136e+14	1.033573e+04	6.156449e+03	3.652410e+03	0	7.199379e-04
9.900000e+08	6.169956e+12	0.000000e+00	4.427479e-01	1.553900e+14	3.332776e+14	2.093686e+14	1.031414e+04	6.157452e+03	3.653005e+03	0	7.158357e-04
1.000000e+09	6.065474e+12	0.000000e+00	4.427479e-01	1.534745e+14	3.335833e+14	2.084301e+14	1.029281e+04	6.158361e+03	3.653543e+03	0	7.117720e-04
1.010000e+09	5.963132e+12	0.000000e+00	4.427479e-01	1.515975e+14	3.338580e+14	2.074979e+14	1.027175e+04	6.159176e+03	3.654027e+03	0	7.077461e-04
1.020000e+09	5.862873e+12	0.000000e+00	4.427479e-01	1.497579e+14	3.341025e+14	2.065721e+14	1.025095e+04	6.159902e+03	3.654458e+03	0	7.037571e-04
1.030000e+09	5.764639e+12	0.000000e+00	4.427479e-01	1.479546e+14	3.343175e+14	2.056525e+14	1.023039e+04	6.160539e+03	3.654836e+03	0	6.998044e-04
1.040000e+09	5.668377e+12	0.000000e+00	4.427479e-01	1.461868e+14	3.345035e+14	2.047391e+14	1.021009e+04	6.161091e+03	3.655163e+03	0	6.958873e-04
1.050000e+09	5.574034e+12	0.000000e+00	4.427479e-01	1.444535e+14	3.346613e+14	2.038319e+14	1.019002e+04	6.161559e+03	3.655441e+03	0	6.920049e-04
1.060000e+09	5.481559e+12	0.000000e+00	4.427479e-01	1.427537e+14	3.347915e+14	2.029308e+14	1.017019e+04	6.161944e+03	3.655669e+03	0	6.881567e-04
1.070000e+09	5.390904e+12	0.000000e+00	4.427479e-01	1.410866e+14	3.348948e+14	2.020358e+14	1.015060e+04	6.162250e+03	3.655851e+03	0	6.843420e-04
1.080000e+09	5.302021e+12	0.000000e+00	4.427479e-01	1.394514e+14	3.349717e+14	2.011468e+14	1.013123e+04	6.162478e+03	3.655986e+03	0	6.805601e-04
1.090000e+09	5.214864e+12	0.000000e+00	4.427479e-01	1.378473e+14	3.350230e+14	2.002638e+14	1.011209e+04	6.162630e+03	3.656076e+03	0	6.768104e-04
1.100000e+09	5.129389e+12	0.000000e+00	4.427479e-01	1.362734e+14	3.350492e+14	1.993867e+14	1.009316e+04	6.162707e+03	3.656122e+03	0	6.730922e-04
1.110000e+09	5.045552e+12	0.000000e+00	4.427479e-01	1.347290e+14	3.350509e+14	1.985155e+14	1.007445e+04	6.162713e+03	3.656125e+03	0	6.694049e-04
1.120000e+09	4.963312e+12	0.000000e+00	4.427479e-01	1.332133e+14	3.350287e+14	1.976501e+14	1.005595e+04	6.162647e+03	3.656086e+03	0	6.657480e-04
1.130000e+09	4.882629e+12	0.000000e+00	4.427479e-01	1.317256e+14	3.349833e+14	1.967906e+14	1.003766e+04	6.162512e+03	3.656006e+03	0	6.621208e-04
1.140000e+09	4.803463e+12	0.000000e+00	4.427479e-01	1.302653e+14	3.349151e+14	1.959367e+14	1.001958e+04	6.162310e+03	3.655887e+03	0	6.585228e-04
1.150000e+09	4.725777e+12	0.000000e+00	4.427479e-01	1.288316e+14	3.348248e+14	1.950886e+14	1.000169e+04	6.162043e+03	3.655728e+03	0	6.549534e-04
1.160000e+09	4.649534e+12	0.000000e+00	4.427479e-01	1.274239e+14	3.347128e+14	1.942461e+14	9.983995e+03	6.161711e+03	3.655531e+03	0	6.514121e-04
1.170000e+09	4.574698e+12	0.000000e+00	4.427479e-01	1.260415e+14	3.345797e+14	1.934093e+14	9.966496e+03	6.161317e+03	3.655297e+03	0	6.478983e-04
1.180000e+09	4.501235e+12	0.000000e+00	4.427479e-01	1.246839e+14	3.344261e+14	1.925780e+14	9.949186e+03	6.160861e+03	3.655027e+03	0	6.444114e-04
1.190000e+09	4.429112e+12	0.000000e+00	4.427479e-01	1.233505e+14	3.342524e+14	1.917522e+14	9.932062e+03	6.160347e+03	3.654722e+03	0	6.409511e-04
1.200000e+09	4.358295e+12	0.000000e+00	4.427479e-01	1.220406e+14	3.340594e+14	1.909319e+14	9.915120e+03	6.159774e+03	3.654382e+03	0	6.375167e-04
1.210000e+09	4.288754e+12	0.000000e+00	4.427479e-01	1.207537e+14	3.338472e+14	1.901171e+14	9.898358e+03	6.159144e+03	3.654008e+03	0	6.341077e-04
1.220000e+09	4.220458e+12	0.000000e+00	4.427479e-01	1.194893e+14	3.336166e+14	1.893076e+14	9.881771e+03	6.158459e+03	3.653602e+03	0	6.307238e-04
1.230000e+09	4.153378e+12	0.000000e+00	4.427479e-01	1.182468e+14	3.333679e+14	1.885035e+14	9.865358e+03	6.157721e+03	3.653164e+03	0	6.273643e-04
1.240000e+09	4.087484e+12	0.000000e+00	4.427479e-01	1.170258e+14	3.331017e+14	1.877048e+14	9.849115e+03	6.156929e+03	3.652694e+03	0	6.240289e-04
1.250000e+09	4.022749e+12	0.000000e+00	4.427479e-01	1.158256e+14	3.328184e+14	1.869113e+14	9.833039e+03	6.156087e+03	3.652194e+03	0	6.207170e-04
1.260000e+09	3.959146e+12	0.000000e+00	4.427479e-01	1.146459e+14	3.325185e+14	1.861230e+14	9.817127e+03	6.155194e+03	3.651665e+03	0	6.174282e-04
1.270000e+09	3.896648e+12	0.000000e+00	4.427479e-01	1.134862e+14	3.322024e+14	1.853399e+14	9.801376e+03	6.154253e+03	3.651106e+03	0	6.141621e-04
1.280000e+09	3.835229e+12	0.000000e+00	4.427479e-01	1.123460e+14	3.318706e+14	1.845620e+14	9.785785e+03	6.153264e+03	3.650520e+03	0	6.109183e-04
1.290000e+09	3.774866e+12	0.000000e+00	4.427479e-01	1.112248e+14	3.315235e+14	1.837892e+14	9.770349e+03	6.152229e+03	3.649906e+03	0	6.076962e-04
1.300000e+09	3.715534e+12	0.000000e+00	4.427479e-01	1.101223e+14	3.311615e+14	1.830214e+14	9.755067e+03	6.151148e+03	3.649264e+03	0	6.044955e-04
1.310000e+09	3.657209e+12	0.000000e+00	4.427479e-01	1.090379e+14	3.307850e+14	1.822587e+14	9.739936e+03	6.150023e+03	3.648597e+03	0	6.013158e-04
1.320000e+09	3.599869e+12	0.000000e+00	4.427479e-01	1.079714e+14	3.303945e+14	1.815010e+14	9.724954e+03	6.148856e+03	3.647905e+03	0	5.981566e-04
1.330000e+09	3.543492e+12	0.000000e+00	4.427479e-01	1.069223e+14	3.299904e+14	1.807482e+14	9.710117e+03	6.147646e+03	3.647187e+03	0	5.950176e-04
1.340000e+09	3.488055e+12	0.000000e+00	4.427479e-01	1.058902e+14	3.295730e+14	1.800004e+14	9.695425e+03	6.146396e+03	3.646445e+03	0	5.918983e-04
1.350000e+09	3.433539e+12	0.000000e+00	4.427479e-01	1.048748e+14	3.291427e+14	1.792574e+14	9.680873e+03	6.145106e+03	3.645680e+03	0	5.887984e-04
1.360000e+09	3.379922e+12	0.000000e+00	4.427479e-01	1.038757e+14	3.286998e+14	1.785193e+14	9.666461e+03	6.143776e+03	3.644891e+03	0	5.857175e-04
