#t		Qconv[W]	Ri[Rp]		R*[Rp]		Qc[W]		Qm[W]		Qr[W]		Tcmb[K]		Tl[K]		Tup[K]		RiFlag		Bs[T]
0.000000e+00	1.161448e+14	0.000000e+00	4.461538e-01	1.940948e+15	4.708127e+13	3.838478e+14	1.834100e+04	4.872062e+03	2.841787e+03	0	1.888467e-03
1.000000e+07	1.101741e+14	0.000000e+00	4.461538e-01	1.845508e+15	5.163086e+13	3.817210e+14	1.811631e+04	4.932542e+03	2.877064e+03	0	1.855536e-03
2.000000e+07	1.046818e+14	0.000000e+00	4.461538e-01	1.757671e+15	5.628921e+13	3.796101e+14	1.790245e+04	4.990306e+03	2.910757e+03	0	1.824175e-03
3.000000e+07	9.961559e+13	0.000000e+00	4.461538e-01	1.676610e+15	6.104446e+13	3.775150e+14	1.769857e+04	5.045552e+03	2.942981e+03	0	1.794260e-03
4.000000e+07	9.493050e+13	0.000000e+00	4.461538e-01	1.601610e+15	6.588547e+13	3.754355e+14	1.750392e+04	5.098460e+03	2.973841e+03	0	1.765678e-03
5.000000e+07	9.058735e+13	0.000000e+00	4.461538e-01	1.532049e+15	7.080181e+13	3.733715e+14	1.731782e+04	5.149189e+03	3.003430e+03	0	1.738329e-03
6.000000e+07	8.655203e+13	0.000000e+00	4.461538e-01	1.467387e+15	7.578365e+13	3.713229e+14	1.713967e+04	5.197881e+03	3.031832e+03	0	1.712124e-03
7.000000e+07	8.279468e+13	0.000000e+00	4.461538e-01	1.407150e+15	8.082180e+13	3.692896e+14	1.696890e+04	5.244667e+03	3.059121e+03	0	1.686981e-03
8.000000e+07	7.928906e+13	0.000000e+00	4.461538e-01	1.350921e+15	8.590758e+13	3.672714e+14	1.680503e+04	5.289662e+03	3.085366e+03	0	1.662828e-03
9.000000e+07	7.601205e+13	0.000000e+00	4.461538e-01	1.298332e+15	9.103292e+13	3.652682e+14	1.664761e+04	5.332973e+03	3.110629e+03	0	1.639596e-03
1.000000e+08	7.294317e+13	0.000000e+00	4.461538e-01	1.249061e+15	9.619016e+13	3.632799e+14	1.649622e+04	5.374696e+03	3.134965e+03	0	1.617227e-03
1.100000e+08	7.006427e+13	0.000000e+00	4.461538e-01	1.202816e+15	1.013722e+14	3.613063e+14	1.635048e+04	5.414918e+03	3.158426e+03	0	1.595665e-03
1.200000e+08	6.735917e+13	0.000000e+00	4.461538e-01	1.159343e+15	1.065722e+14	3.593474e+14	1.621006e+04	5.453720e+03	3.181058e+03	0	1.574859e-03
1.300000e+08	6.481344e+13	0.000000e+00	4.461538e-01	1.118411e+15	1.117838e+14	3.574030e+14	1.607465e+04	5.491176e+03	3.202906e+03	0	1.554764e-03
1.400000e+08	6.241416e+13	0.000000e+00	4.461538e-01	1.079815e+15	1.170012e+14	3.554729e+14	1.594395e+04	5.527353e+03	3.224007e+03	0	1.535338e-03
1.500000e+08	6.014971e+13	0.000000e+00	4.461538e-01	1.043371e+15	1.222187e+14	3.535571e+14	1.581769e+04	5.562314e+03	3.244399e+03	0	1.516541e-03
1.600000e+08	5.800966e+13	0.000000e+00	4.461538e-01	1.008912e+15	1.274311e+14	3.516555e+14	1.569564e+04	5.596117e+03	3.264115e+03	0	1.498337e-03
1.700000e+08	5.598459e+13	0.000000e+00	4.461538e-01	9.762890e+14	1.326333e+14	3.497679e+14	1.557757e+04	5.628814e+03	3.283187e+03	0	1.480695e-03
1.800000e+08	5.406598e+13	0.000000e+00	4.461538e-01	9.453662e+14	1.378208e+14	3.478942e+14	1.546327e+04	5.660455e+03	3.301643e+03	0	1.463584e-03
1.900000e+08	5.224610e+13	0.000000e+00	4.461538e-01	9.160209e+14	1.429891e+14	3.460344e+14	1.535255e+04	5.691087e+03	3.319510e+03	0	1.446974e-03
2.000000e+08	5.051795e+13	0.000000e+00	4.461538e-01	8.881415e+14	1.481342e+14	3.441882e+14	1.524522e+04	5.720752e+03	3.336813e+03	0	1.430841e-03
2.100000e+08	4.887515e+13	0.000000e+00	4.461538e-01	8.616264e+14	1.532521e+14	3.423555e+14	1.514111e+04	5.749491e+03	3.353576e+03	0	1.415160e-03
2.200000e+08	4.731188e+13	0.000000e+00	4.461538e-01	8.363831e+14	1.583392e+14	3.405364e+14	1.504008e+04	5.777340e+03	3.369820e+03	0	1.399908e-03
2.300000e+08	4.582283e+13	0.000000e+00	4.461538e-01	8.123269e+14	1.633921e+14	3.387306e+14	1.494198e+04	5.804334e+03	3.385565e+03	0	1.385065e-03
2.400000e+08	4.440314e+13	0.000000e+00	4.461538e-01	7.893805e+14	1.684077e+14	3.369380e+14	1.484666e+04	5.830508e+03	3.400832e+03	0	1.370611e-03
2.500000e+08	4.304835e+13	0.000000e+00	4.461538e-01	7.674728e+14	1.733829e+14	3.351586e+14	1.475401e+04	5.855890e+03	3.415637e+03	0	1.356527e-03
2.600000e+08	4.175436e+13	0.000000e+00	4.461538e-01	7.465387e+14	1.783149e+14	3.333922e+14	1.466390e+04	5.880512e+03	3.429998e+03	0	1.342796e-03
2.700000e+08	4.051742e+13	0.000000e+00	4.461538e-01	7.265180e+14	1.832011e+14	3.316387e+14	1.457622e+04	5.904399e+03	3.443931e+03	0	1.329403e-03
2.800000e+08	3.933405e+13	0.000000e+00	4.461538e-01	7.073557e+14	1.880390e+14	3.298980e+14	1.449087e+04	5.927578e+03	3.457451e+03	0	1.316333e-03
2.900000e+08	3.820106e+13	0.000000e+00	4.461538e-01	6.890006e+14	1.928265e+14	3.281700e+14	1.440775e+04	5.950074e+03	3.470572e+03	0	1.303571e-03
3.000000e+08	3.711549e+13	0.000000e+00	4.461538e-01	6.714057e+14	1.975613e+14	3.264546e+14	1.432677e+04	5.971909e+03	3.483308e+03	0	1.291104e-03
3.100000e+08	3.607461e+13	0.000000e+00	4.461538e-01	6.545273e+14	2.022415e+14	3.247517e+14	1.424783e+04	5.993105e+03	3.495672e+03	0	1.278920e-03
3.200000e+08	3.507589e+13	0.000000e+00	4.461538e-01	6.383250e+14	2.068653e+14	3.230612e+14	1.417085e+04	6.013684e+03	3.507675e+03	0	1.267007e-03
3.300000e+08	3.411697e+13	0.000000e+00	4.461538e-01	6.227614e+14	2.114310e+14	3.213830e+14	1.409577e+04	6.033665e+03	3.519330e+03	0	1.255354e-03
3.400000e+08	3.319568e+13	0.000000e+00	4.461538e-01	6.078017e+14	2.159370e+14	3.197170e+14	1.402250e+04	6.053067e+03	3.530647e+03	0	1.243951e-03
3.500000e+08	3.230998e+13	0.000000e+00	4.461538e-01	5.934133e+14	2.203820e+14	3.180630e+14	1.395097e+04	6.071908e+03	3.541636e+03	0	1.232788e-03
3.600000e+08	3.145799e+13	0.000000e+00	4.461538e-01	5.795662e+14	2.247647e+14	3.164211e+14	1.388112e+04	6.090206e+03	3.552309e+03	0	1.221855e-03
3.700000e+08	3.063795e+13	0.000000e+00	4.461538e-01	5.662323e+14	2.290838e+14	3.147910e+14	1.381289e+04	6.107975e+03	3.562674e+03	0	1.211145e-03
3.800000e+08	2.984821e+13	0.000000e+00	4.461538e-01	5.533852e+14	2.333383e+14	3.131727e+14	1.374621e+04	6.125234e+03	3.572740e+03	0	1.200648e-03
3.900000e+08	2.908724e+13	0.000000e+00	4.461538e-01	5.410005e+14	2.375272e+14	3.115662e+14	1.368103e+04	6.141995e+03	3.582517e+03	0	1.190356e-03
4.000000e+08	2.835359e+13	0.000000e+00	4.461538e-01	5.290553e+14	2.416497e+14	3.099712e+14	1.361730e+04	6.158274e+03	3.592012e+03	0	1.180263e-03
4.100000e+08	2.764594e+13	0.000000e+00	4.461538e-01	5.175279e+14	2.457052e+14	3.083878e+14	1.355496e+04	6.174084e+03	3.601234e+03	0	1.170361e-03
4.200000e+08	2.696301e+13	0.000000e+00	4.461538e-01	5.063984e+14	2.496927e+14	3.068157e+14	1.349397e+04	6.189439e+03	3.610190e+03	0	1.160644e-03
4.300000e+08	2.630364e+13	0.000000e+00	4.461538e-01	4.956477e+14	2.536118e+14	3.052550e+14	1.343429e+04	6.204351e+03	3.618888e+03	0	1.151105e-03
4.400000e+08	2.566670e+13	0.000000e+00	4.461538e-01	4.852582e+14	2.574620e+14	3.037055e+14	1.337586e+04	6.218833e+03	3.627335e+03	0	1.141737e-03
4.500000e+08	2.505115e+13	0.000000e+00	4.461538e-01	4.752132e+14	2.612429e+14	3.021671e+14	1.331864e+04	6.232895e+03	3.635537e+03	0	1.132536e-03
4.600000e+08	2.445603e+13	0.000000e+00	4.461538e-01	4.654971e+14	2.649542e+14	3.006398e+14	1.326260e+04	6.246551e+03	3.643502e+03	0	1.123496e-03
4.700000e+08	2.388040e+13	0.000000e+00	4.461538e-01	4.560950e+14	2.685955e+14	2.991235e+14	1.320770e+04	6.259809e+03	3.651236e+03	0	1.114611e-03
4.800000e+08	2.332339e+13	0.000000e+00	4.461538e-01	4.469930e+14	2.721668e+14	2.976180e+14	1.315390e+04	6.272682e+03	3.658744e+03	0	1.105877e-03
4.900000e+08	2.278419e+13	0.000000e+00	4.461538e-01	4.381780e+14	2.756679e+14	2.961232e+14	1.310116e+04	6.285179e+03	3.666033e+03	0	1.097288e-03
5.000000e+08	2.226202e+13	0.000000e+00	4.461538e-01	4.296376e+14	2.790988e+14	2.946392e+14	1.304946e+04	6.297309e+03	3.673109e+03	0	1.088841e-03
5.100000e+08	2.175615e+13	0.000000e+00	4.461538e-01	4.213601e+14	2.824593e+14	2.931658e+14	1.299875e+04	6.309083e+03	3.679976e+03	0	1.080530e-03
5.200000e+08	2.126589e+13	0.000000e+00	4.461538e-01	4.133345e+14	2.857498e+14	2.917029e+14	1.294902e+04	6.320509e+03	3.686641e+03	0	1.072352e-03
5.300000e+08	2.079060e+13	0.000000e+00	4.461538e-01	4.055503e+14	2.889701e+14	2.902504e+14	1.290023e+04	6.331596e+03	3.693108e+03	0	1.064303e-03
5.400000e+08	2.032964e+13	0.000000e+00	4.461538e-01	3.979975e+14	2.921206e+14	2.888082e+14	1.285235e+04	6.342354e+03	3.699382e+03	0	1.056378e-03
5.500000e+08	1.988243e+13	0.000000e+00	4.461538e-01	3.906669e+14	2.952015e+14	2.873764e+14	1.280535e+04	6.352789e+03	3.705469e+03	0	1.048575e-03
5.600000e+08	1.944843e+13	0.000000e+00	4.461538e-01	3.835494e+14	2.982129e+14	2.859547e+14	1.275922e+04	6.362910e+03	3.711373e+03	0	1.040889e-03
5.700000e+08	1.902710e+13	0.000000e+00	4.461538e-01	3.766367e+14	3.011553e+14	2.845431e+14	1.271392e+04	6.372726e+03	3.717098e+03	0	1.033317e-03
5.800000e+08	1.861794e+13	0.000000e+00	4.461538e-01	3.699207e+14	3.040289e+14	2.831415e+14	1.266943e+04	6.382242e+03	3.722649e+03	0	1.025857e-03
5.900000e+08	1.822049e+13	0.000000e+00	4.461538e-01	3.633938e+14	3.068343e+14	2.817498e+14	1.262573e+04	6.391468e+03	3.728030e+03	0	1.018504e-03
6.000000e+08	1.783428e+13	0.000000e+00	4.461538e-01	3.570488e+14	3.095717e+14	2.803680e+14	1.258280e+04	6.400409e+03	3.733245e+03	0	1.011257e-03
6.100000e+08	1.745890e+13	0.000000e+00	4.461538e-01	3.508788e+14	3.122417e+14	2.789960e+14	1.254061e+04	6.409073e+03	3.738299e+03	0	1.004111e-03
6.200000e+08	1.709392e+13	0.000000e+00	4.461538e-01	3.448773e+14	3.148448e+14	2.776337e+14	1.249914e+04	6.417467e+03	3.743195e+03	0	9.970648e-04
6.300000e+08	1.673897e+13	0.000000e+00	4.461538e-01	3.390380e+14	3.173816e+14	2.762810e+14	1.245838e+04	6.425597e+03	3.747936e+03	0	9.901153e-04
6.400000e+08	1.639368e+13	0.000000e+00	4.461538e-01	3.333550e+14	3.198525e+14	2.749378e+14	1.241831e+04	6.433469e+03	3.752528e+03	0	9.832598e-04
6.500000e+08	1.605769e+13	0.000000e+00	4.461538e-01	3.278225e+14	3.222582e+14	2.736041e+14	1.237890e+04	6.441089e+03	3.756973e+03	0	9.764960e-04
6.600000e+08	1.573066e+13	0.000000e+00	4.461538e-01	3.224353e+14	3.245992e+14	2.722798e+14	1.234015e+04	6.448464e+03	3.761274e+03	0	9.698215e-04
6.700000e+08	1.541228e+13	0.000000e+00	4.461538e-01	3.171882e+14	3.268764e+14	2.709648e+14	1.230202e+04	6.455599e+03	3.765436e+03	0	9.632340e-04
6.800000e+08	1.510224e+13	0.000000e+00	4.461538e-01	3.120762e+14	3.290901e+14	2.696590e+14	1.226452e+04	6.462500e+03	3.769461e+03	0	9.567312e-04
6.900000e+08	1.480025e+13	0.000000e+00	4.461538e-01	3.070946e+14	3.312412e+14	2.683624e+14	1.222761e+04	6.469172e+03	3.773353e+03	0	9.503111e-04
7.000000e+08	1.450602e+13	0.000000e+00	4.461538e-01	3.022389e+14	3.333304e+14	2.670748e+14	1.219129e+04	6.475621e+03	3.777115e+03	0	9.439716e-04
7.100000e+08	1.421930e+13	0.000000e+00	4.461538e-01	2.975049e+14	3.353584e+14	2.657963e+14	1.215555e+04	6.481852e+03	3.780749e+03	0	9.377107e-04
7.200000e+08	1.393982e+13	0.000000e+00	4.461538e-01	2.928885e+14	3.373257e+14	2.645268e+14	1.212035e+04	6.487871e+03	3.784260e+03	0	9.315264e-04
7.300000e+08	1.366734e+13	0.000000e+00	4.461538e-01	2.883856e+14	3.392333e+14	2.632661e+14	1.208571e+04	6.493681e+03	3.787649e+03	0	9.254170e-04
7.400000e+08	1.340163e+13	0.000000e+00	4.461538e-01	2.839926e+14	3.410819e+14	2.620142e+14	1.205159e+04	6.499288e+03	3.790919e+03	0	9.193806e-04
7.500000e+08	1.314246e+13	0.000000e+00	4.461538e-01	2.797058e+14	3.428723e+14	2.607710e+14	1.201799e+04	6.504697e+03	3.794074e+03	0	9.134155e-04
7.600000e+08	1.288962e+13	0.000000e+00	4.461538e-01	2.755218e+14	3.446051e+14	2.595365e+14	1.198489e+04	6.509912e+03	3.797116e+03	0	9.075201e-04
7.700000e+08	1.264291e+13	0.000000e+00	4.461538e-01	2.714372e+14	3.462813e+14	2.583105e+14	1.195229e+04	6.514938e+03	3.800048e+03	0	9.016925e-04
7.800000e+08	1.240212e+13	0.000000e+00	4.461538e-01	2.674489e+14	3.479017e+14	2.570931e+14	1.192016e+04	6.519779e+03	3.802871e+03	0	8.959314e-04
7.900000e+08	1.216706e+13	0.000000e+00	4.461538e-01	2.635538e+14	3.494668e+14	2.558842e+14	1.188851e+04	6.524439e+03	3.805589e+03	0	8.902352e-04
8.000000e+08	1.193756e+13	0.000000e+00	4.461538e-01	2.597490e+14	3.509776e+14	2.546836e+14	1.185731e+04	6.528923e+03	3.808205e+03	0	8.846023e-04
8.100000e+08	1.171344e+13	0.000000e+00	4.461538e-01	2.560317e+14	3.524350e+14	2.534914e+14	1.182657e+04	6.533234e+03	3.810719e+03	0	8.790314e-04
8.200000e+08	1.149454e+13	0.000000e+00	4.461538e-01	2.523992e+14	3.538397e+14	2.523074e+14	1.179626e+04	6.537377e+03	3.813136e+03	0	8.735210e-04
8.300000e+08	1.128068e+13	0.000000e+00	4.461538e-01	2.488489e+14	3.551923e+14	2.511316e+14	1.176637e+04	6.541355e+03	3.815456e+03	0	8.680698e-04
8.400000e+08	1.107173e+13	0.000000e+00	4.461538e-01	2.453783e+14	3.564941e+14	2.499639e+14	1.173691e+04	6.545172e+03	3.817683e+03	0	8.626764e-04
8.500000e+08	1.086752e+13	0.000000e+00	4.461538e-01	2.419849e+14	3.577456e+14	2.488043e+14	1.170786e+04	6.548832e+03	3.819818e+03	0	8.573397e-04
8.600000e+08	1.066791e+13	0.000000e+00	4.461538e-01	2.386666e+14	3.589477e+14	2.476526e+14	1.167920e+04	6.552339e+03	3.821863e+03	0	8.520583e-04
8.700000e+08	1.047277e+13	0.000000e+00	4.461538e-01	2.354210e+14	3.601010e+14	2.465089e+14	1.165094e+04	6.555695e+03	3.823821e+03	0	8.468310e-04
8.800000e+08	1.028197e+13	0.000000e+00	4.461538e-01	2.322460e+14	3.612067e+14	2.453731e+14	1.162306e+04	6.558905e+03	3.825693e+03	0	8.416567e-04
8.900000e+08	1.009538e+13	0.000000e+00	4.461538e-01	2.291396e+14	3.622653e+14	2.442450e+14	1.159555e+04	6.561971e+03	3.827481e+03	0	8.365342e-04
9.000000e+08	9.912868e+12	0.000000e+00	4.461538e-01	2.260997e+14	3.632777e+14	2.431247e+14	1.156841e+04	6.564898e+03	3.829188e+03	0	8.314624e-04
9.100000e+08	9.734324e+12	0.000000e+00	4.461538e-01	2.231245e+14	3.642448e+14	2.420121e+14	1.154163e+04	6.567688e+03	3.830816e+03	0	8.264402e-04
9.200000e+08	9.559633e+12	0.000000e+00	4.461538e-01	2.202122e+14	3.651673e+14	2.409071e+14	1.151520e+04	6.570343e+03	3.832365e+03	0	8.214666e-04
9.300000e+08	9.388683e+12	0.000000e+00	4.461538e-01	2.173608e+14	3.660461e+14	2.398097e+14	1.148911e+04	6.572869e+03	3.833838e+03	0	8.165405e-04
9.400000e+08	9.221370e+12	0.000000e+00	4.461538e-01	2.145689e+14	3.668818e+14	2.387198e+14	1.146336e+04	6.575266e+03	3.835236e+03	0	8.116609e-04
9.500000e+08	9.057591e+12	0.000000e+00	4.461538e-01	2.118345e+14	3.676754e+14	2.376373e+14	1.143794e+04	6.577539e+03	3.836562e+03	0	8.068269e-04
9.600000e+08	8.897246e+12	0.000000e+00	4.461538e-01	2.091563e+14	3.684275e+14	2.365621e+14	1.141284e+04	6.579690e+03	3.837816e+03	0	8.020376e-04
9.700000e+08	8.740242e+12	0.000000e+00	4.461538e-01	2.065326e+14	3.691391e+14	2.354944e+14	1.138805e+04	6.581721e+03	3.839001e+03	0	7.972918e-04
9.800000e+08	8.586485e+12	0.000000e+00	4.461538e-01	2.039619e+14	3.698108e+14	2.344338e+14	1.136358e+04	6.583636e+03	3.840118e+03	0	7.925889e-04
9.900000e+08	8.435888e+12	0.000000e+00	4.461538e-01	2.014428e+14	3.704435e+14	2.333805e+14	1.133941e+04	6.585438e+03	3.841169e+03	0	7.879278e-04
1.000000e+09	8.288364e+12	0.000000e+00	4.461538e-01	1.989740e+14	3.710378e+14	2.323343e+14	1.131553e+04	6.587128e+03	3.842155e+03	0	7.833078e-04
1.010000e+09	8.143830e+12	0.000000e+00	4.461538e-01	1.965541e+14	3.715945e+14	2.312953e+14	1.129195e+04	6.588709e+03	3.843077e+03	0	7.787279e-04
1.020000e+09	8.002207e+12	0.000000e+00	4.461538e-01	1.941817e+14	3.721145e+14	2.302632e+14	1.126866e+04	6.590184e+03	3.843938e+03	0	7.741874e-04
1.030000e+09	7.863417e+12	0.000000e+00	4.461538e-01	1.918557e+14	3.725983e+14	2.292382e+14	1.124564e+04	6.591556e+03	3.844737e+03	0	7.696854e-04
1.040000e+09	7.727384e+12	0.000000e+00	4.461538e-01	1.895748e+14	3.730467e+14	2.282201e+14	1.122290e+04	6.592826e+03	3.845478e+03	0	7.652212e-04
1.050000e+09	7.594038e+12	0.000000e+00	4.461538e-01	1.873378e+14	3.734605e+14	2.272088e+14	1.120042e+04	6.593997e+03	3.846161e+03	0	7.607940e-04
1.060000e+09	7.463307e+12	0.000000e+00	4.461538e-01	1.851436e+14	3.738405e+14	2.262044e+14	1.117822e+04	6.595071e+03	3.846788e+03	0	7.564030e-04
1.070000e+09	7.335124e+12	0.000000e+00	4.461538e-01	1.829912e+14	3.741871e+14	2.252067e+14	1.115627e+04	6.596050e+03	3.847359e+03	0	7.520476e-04
1.080000e+09	7.209423e+12	0.000000e+00	4.461538e-01	1.808794e+14	3.745013e+14	2.242158e+14	1.113457e+04	6.596937e+03	3.847876e+03	0	7.477269e-04
1.090000e+09	7.086141e+12	0.000000e+00	4.461538e-01	1.788072e+14	3.747837e+14	2.232315e+14	1.111312e+04	6.597734e+03	3.848341e+03	0	7.434403e-04
1.100000e+09	6.965216e+12	0.000000e+00	4.461538e-01	1.767737e+14	3.750349e+14	2.222538e+14	1.109192e+04	6.598442e+03	3.848754e+03	0	7.391871e-04
1.110000e+09	6.846589e+12	0.000000e+00	4.461538e-01	1.747778e+14	3.752555e+14	2.212827e+14	1.107096e+04	6.599065e+03	3.849117e+03	0	7.349666e-04
1.120000e+09	6.730202e+12	0.000000e+00	4.461538e-01	1.728186e+14	3.754464e+14	2.203181e+14	1.105024e+04	6.599602e+03	3.849431e+03	0	7.307781e-04
1.130000e+09	6.615999e+12	0.000000e+00	4.461538e-01	1.708953e+14	3.756081e+14	2.193599e+14	1.102974e+04	6.600058e+03	3.849697e+03	0	7.266211e-04
1.140000e+09	6.503927e+12	0.000000e+00	4.461538e-01	1.690069e+14	3.757413e+14	2.184081e+14	1.100948e+04	6.600433e+03	3.849915e+03	0	7.224948e-04
1.150000e+09	6.393932e+12	0.000000e+00	4.461538e-01	1.671525e+14	3.758466e+14	2.174627e+14	1.098943e+04	6.600729e+03	3.850088e+03	0	7.183986e-04
1.160000e+09	6.285963e+12	0.000000e+00	4.461538e-01	1.653315e+14	3.759246e+14	2.165237e+14	1.096961e+04	6.600949e+03	3.850216e+03	0	7.143320e-04
1.170000e+09	6.179972e+12	0.000000e+00	4.461538e-01	1.635428e+14	3.759761e+14	2.155908e+14	1.095000e+04	6.601093e+03	3.850301e+03	0	7.102943e-04
1.180000e+09	6.075911e+12	0.000000e+00	4.461538e-01	1.617859e+14	3.760013e+14	2.146642e+14	1.093060e+04	6.601165e+03	3.850342e+03	0	7.062850e-04
1.190000e+09	5.973732e+12	0.000000e+00	4.461538e-01	1.600599e+14	3.760012e+14	2.137437e+14	1.091141e+04	6.601164e+03	3.850342e+03	0	7.023034e-04
1.200000e+09	5.873392e+12	0.000000e+00	4.461538e-01	1.583641e+14	3.759762e+14	2.128294e+14	1.089242e+04	6.601094e+03	3.850301e+03	0	6.983490e-04
1.210000e+09	5.774846e+12	0.000000e+00	4.461538e-01	1.566978e+14	3.759271e+14	2.119211e+14	1.087364e+04	6.600955e+03	3.850220e+03	0	6.944212e-04
1.220000e+09	5.678052e+12	0.000000e+00	4.461538e-01	1.550602e+14	3.758541e+14	2.110188e+14	1.085505e+04	6.600750e+03	3.850100e+03	0	6.905195e-04
1.230000e+09	5.582969e+12	0.000000e+00	4.461538e-01	1.534508e+14	3.757579e+14	2.101225e+14	1.083665e+04	6.600479e+03	3.849942e+03	0	6.866434e-04
1.240000e+09	5.489556e+12	0.000000e+00	4.461538e-01	1.518689e+14	3.756392e+14	2.092321e+14	1.081845e+04	6.600145e+03	3.849748e+03	0	6.827922e-04
1.250000e+09	5.397775e+12	0.000000e+00	4.461538e-01	1.503138e+14	3.754984e+14	2.083476e+14	1.080043e+04	6.599749e+03	3.849516e+03	0	6.789656e-04
1.260000e+09	5.307589e+12	0.000000e+00	4.461538e-01	1.487850e+14	3.753361e+14	2.074689e+14	1.078260e+04	6.599291e+03	3.849250e+03	0	6.751629e-04
1.270000e+09	5.218960e+12	0.000000e+00	4.461538e-01	1.472817e+14	3.751528e+14	2.065960e+14	1.076494e+04	6.598775e+03	3.848948e+03	0	6.713837e-04
1.280000e+09	5.131853e+12	0.000000e+00	4.461538e-01	1.458036e+14	3.749489e+14	2.057289e+14	1.074747e+04	6.598200e+03	3.848613e+03	0	6.676275e-04
1.290000e+09	5.046234e+12	0.000000e+00	4.461538e-01	1.443499e+14	3.747252e+14	2.048674e+14	1.073016e+04	6.597569e+03	3.848245e+03	0	6.638938e-04
1.300000e+09	4.962068e+12	0.000000e+00	4.461538e-01	1.429202e+14	3.744819e+14	2.040116e+14	1.071304e+04	6.596883e+03	3.847844e+03	0	6.601821e-04
1.310000e+09	4.879323e+12	0.000000e+00	4.461538e-01	1.415139e+14	3.742196e+14	2.031615e+14	1.069608e+04	6.596142e+03	3.847413e+03	0	6.564919e-04
1.320000e+09	4.797968e+12	0.000000e+00	4.461538e-01	1.401305e+14	3.739389e+14	2.023168e+14	1.067928e+04	6.595349e+03	3.846950e+03	0	6.528228e-04
1.330000e+09	4.717971e+12	0.000000e+00	4.461538e-01	1.387695e+14	3.736401e+14	2.014777e+14	1.066265e+04	6.594504e+03	3.846457e+03	0	6.491742e-04
1.340000e+09	4.639303e+12	0.000000e+00	4.461538e-01	1.374303e+14	3.733236e+14	2.006441e+14	1.064618e+04	6.593609e+03	3.845935e+03	0	6.455458e-04
1.350000e+09	4.561934e+12	0.000000e+00	4.461538e-01	1.361127e+14	3.729902e+14	1.998160e+14	1.062987e+04	6.592666e+03	3.845385e+03	0	6.419371e-04
1.360000e+09	4.485835e+12	0.000000e+00	4.461538e-01	1.348159e+14	3.726399e+14	1.989932e+14	1.061372e+04	6.591674e+03	3.844806e+03	0	6.383477e-04
