#t		Qconv[W]	Ri[Rp]		R*[Rp]		Qc[W]		Qm[W]		Qr[W]		Tcmb[K]		Tl[K]		Tup[K]		RiFlag		Bs[T]
0.000000e+00	3.419433e+14	0.000000e+00	4.496125e-01	4.385008e+15	3.351479e+13	5.660826e+14	2.516176e+04	5.648220e+03	3.032116e+03	0	2.649482e-03
1.000000e+07	3.245588e+14	0.000000e+00	4.496125e-01	4.175779e+15	3.813431e+13	5.629461e+14	2.484964e+04	5.739799e+03	3.081278e+03	0	2.603799e-03
2.000000e+07	3.085263e+14	0.000000e+00	4.496125e-01	3.982685e+15	4.300724e+13	5.598330e+14	2.455212e+04	5.827331e+03	3.128268e+03	0	2.560199e-03
3.000000e+07	2.937032e+14	0.000000e+00	4.496125e-01	3.804030e+15	4.811967e+13	5.567432e+14	2.426809e+04	5.911114e+03	3.173245e+03	0	2.518523e-03
4.000000e+07	2.799656e+14	0.000000e+00	4.496125e-01	3.638341e+15	5.345767e+13	5.536765e+14	2.399657e+04	5.991412e+03	3.216351e+03	0	2.478627e-03
5.000000e+07	2.672054e+14	0.000000e+00	4.496125e-01	3.484331e+15	5.900744e+13	5.506326e+14	2.373667e+04	6.068464e+03	3.257714e+03	0	2.440383e-03
6.000000e+07	2.553279e+14	0.000000e+00	4.496125e-01	3.340873e+15	6.475534e+13	5.476115e+14	2.348757e+04	6.142484e+03	3.297450e+03	0	2.403675e-03
7.000000e+07	2.442498e+14	0.000000e+00	4.496125e-01	3.206976e+15	7.068805e+13	5.446128e+14	2.324855e+04	6.213665e+03	3.335662e+03	0	2.368396e-03
8.000000e+07	2.338977e+14	0.000000e+00	4.496125e-01	3.081765e+15	7.679255e+13	5.416365e+14	2.301896e+04	6.282183e+03	3.372444e+03	0	2.334452e-03
9.000000e+07	2.242066e+14	0.000000e+00	4.496125e-01	2.964466e+15	8.305617e+13	5.386822e+14	2.279819e+04	6.348197e+03	3.407882e+03	0	2.301755e-03
1.000000e+08	2.151187e+14	0.000000e+00	4.496125e-01	2.854391e+15	8.946666e+13	5.357499e+14	2.258569e+04	6.411851e+03	3.442054e+03	0	2.270226e-03
1.100000e+08	2.065827e+14	0.000000e+00	4.496125e-01	2.750928e+15	9.601214e+13	5.328394e+14	2.238096e+04	6.473279e+03	3.475030e+03	0	2.239792e-03
1.200000e+08	1.985527e+14	0.000000e+00	4.496125e-01	2.653530e+15	1.026811e+14	5.299504e+14	2.218354e+04	6.532602e+03	3.506876e+03	0	2.210387e-03
1.300000e+08	1.909876e+14	0.000000e+00	4.496125e-01	2.561705e+15	1.094626e+14	5.270829e+14	2.199300e+04	6.589930e+03	3.537651e+03	0	2.181949e-03
1.400000e+08	1.838503e+14	0.000000e+00	4.496125e-01	2.475014e+15	1.163460e+14	5.242365e+14	2.180897e+04	6.645366e+03	3.567411e+03	0	2.154424e-03
1.500000e+08	1.771078e+14	0.000000e+00	4.496125e-01	2.393059e+15	1.233209e+14	5.214112e+14	2.163108e+04	6.699004e+03	3.596205e+03	0	2.127758e-03
1.600000e+08	1.707299e+14	0.000000e+00	4.496125e-01	2.315484e+15	1.303777e+14	5.186068e+14	2.145900e+04	6.750932e+03	3.624082e+03	0	2.101904e-03
1.700000e+08	1.646897e+14	0.000000e+00	4.496125e-01	2.241964e+15	1.375068e+14	5.158230e+14	2.129243e+04	6.801230e+03	3.651083e+03	0	2.076818e-03
1.800000e+08	1.589626e+14	0.000000e+00	4.496125e-01	2.172206e+15	1.446992e+14	5.130598e+14	2.113108e+04	6.849973e+03	3.677249e+03	0	2.052459e-03
1.900000e+08	1.535261e+14	0.000000e+00	4.496125e-01	2.105943e+15	1.519462e+14	5.103169e+14	2.097468e+04	6.897229e+03	3.702617e+03	0	2.028790e-03
2.000000e+08	1.483601e+14	0.000000e+00	4.496125e-01	2.042933e+15	1.592394e+14	5.075942e+14	2.082299e+04	6.943064e+03	3.727223e+03	0	2.005774e-03
2.100000e+08	1.434460e+14	0.000000e+00	4.496125e-01	1.982955e+15	1.665711e+14	5.048916e+14	2.067579e+04	6.987538e+03	3.751098e+03	0	1.983379e-03
2.200000e+08	1.387669e+14	0.000000e+00	4.496125e-01	1.925805e+15	1.739333e+14	5.022088e+14	2.053286e+04	7.030707e+03	3.774272e+03	0	1.961575e-03
2.300000e+08	1.343073e+14	0.000000e+00	4.496125e-01	1.871299e+15	1.813190e+14	4.995456e+14	2.039401e+04	7.072623e+03	3.796774e+03	0	1.940333e-03
2.400000e+08	1.300531e+14	0.000000e+00	4.496125e-01	1.819268e+15	1.887211e+14	4.969020e+14	2.025903e+04	7.113337e+03	3.818630e+03	0	1.919626e-03
2.500000e+08	1.259912e+14	0.000000e+00	4.496125e-01	1.769554e+15	1.961329e+14	4.942778e+14	2.012777e+04	7.152893e+03	3.839865e+03	0	1.899429e-03
2.600000e+08	1.221096e+14	0.000000e+00	4.496125e-01	1.722016e+15	2.035481e+14	4.916728e+14	2.000006e+04	7.191336e+03	3.860502e+03	0	1.879719e-03
2.700000e+08	1.183974e+14	0.000000e+00	4.496125e-01	1.676521e+15	2.109604e+14	4.890868e+14	1.987574e+04	7.228707e+03	3.880564e+03	0	1.860475e-03
2.800000e+08	1.148444e+14	0.000000e+00	4.496125e-01	1.632947e+15	2.183643e+14	4.865197e+14	1.975467e+04	7.265043e+03	3.900070e+03	0	1.841675e-03
2.900000e+08	1.114411e+14	0.000000e+00	4.496125e-01	1.591182e+15	2.257540e+14	4.839713e+14	1.963671e+04	7.300382e+03	3.919041e+03	0	1.823300e-03
3.000000e+08	1.081789e+14	0.000000e+00	4.496125e-01	1.551121e+15	2.331244e+14	4.814415e+14	1.952174e+04	7.334758e+03	3.937495e+03	0	1.805332e-03
3.100000e+08	1.050497e+14	0.000000e+00	4.496125e-01	1.512667e+15	2.404703e+14	4.789302e+14	1.940964e+04	7.368203e+03	3.955449e+03	0	1.787755e-03
3.200000e+08	1.020461e+14	0.000000e+00	4.496125e-01	1.475732e+15	2.477871e+14	4.764371e+14	1.930028e+04	7.400748e+03	3.972920e+03	0	1.770551e-03
3.300000e+08	9.916115e+13	0.000000e+00	4.496125e-01	1.440233e+15	2.550700e+14	4.739621e+14	1.919358e+04	7.432422e+03	3.989924e+03	0	1.753706e-03
3.400000e+08	9.638838e+13	0.000000e+00	4.496125e-01	1.406091e+15	2.623149e+14	4.715051e+14	1.908941e+04	7.463253e+03	4.006475e+03	0	1.737206e-03
3.500000e+08	9.372181e+13	0.000000e+00	4.496125e-01	1.373235e+15	2.695176e+14	4.690660e+14	1.898769e+04	7.493268e+03	4.022587e+03	0	1.721036e-03
3.600000e+08	9.115587e+13	0.000000e+00	4.496125e-01	1.341597e+15	2.766742e+14	4.666445e+14	1.888833e+04	7.522491e+03	4.038275e+03	0	1.705184e-03
3.700000e+08	8.868532e+13	0.000000e+00	4.496125e-01	1.311116e+15	2.837810e+14	4.642406e+14	1.879124e+04	7.550947e+03	4.053551e+03	0	1.689638e-03
3.800000e+08	8.630532e+13	0.000000e+00	4.496125e-01	1.281732e+15	2.908345e+14	4.618540e+14	1.869633e+04	7.578658e+03	4.068427e+03	0	1.674386e-03
3.900000e+08	8.401130e+13	0.000000e+00	4.496125e-01	1.253391e+15	2.978315e+14	4.594847e+14	1.860353e+04	7.605646e+03	4.082915e+03	0	1.659417e-03
4.000000e+08	8.179901e+13	0.000000e+00	4.496125e-01	1.226042e+15	3.047688e+14	4.571325e+14	1.851276e+04	7.631932e+03	4.097026e+03	0	1.644721e-03
4.100000e+08	7.966447e+13	0.000000e+00	4.496125e-01	1.199637e+15	3.116435e+14	4.547973e+14	1.842396e+04	7.657536e+03	4.110771e+03	0	1.630289e-03
4.200000e+08	7.760393e+13	0.000000e+00	4.496125e-01	1.174130e+15	3.184527e+14	4.524789e+14	1.833706e+04	7.682477e+03	4.124160e+03	0	1.616110e-03
4.300000e+08	7.561389e+13	0.000000e+00	4.496125e-01	1.149480e+15	3.251941e+14	4.501772e+14	1.825199e+04	7.706773e+03	4.137203e+03	0	1.602176e-03
4.400000e+08	7.369105e+13	0.000000e+00	4.496125e-01	1.125647e+15	3.318650e+14	4.478921e+14	1.816869e+04	7.730442e+03	4.149909e+03	0	1.588478e-03
4.500000e+08	7.183230e+13	0.000000e+00	4.496125e-01	1.102593e+15	3.384633e+14	4.456234e+14	1.808710e+04	7.753501e+03	4.162287e+03	0	1.575009e-03
4.600000e+08	7.003474e+13	0.000000e+00	4.496125e-01	1.080283e+15	3.449867e+14	4.433710e+14	1.800717e+04	7.775966e+03	4.174347e+03	0	1.561759e-03
4.700000e+08	6.829562e+13	0.000000e+00	4.496125e-01	1.058685e+15	3.514335e+14	4.411347e+14	1.792885e+04	7.797852e+03	4.186096e+03	0	1.548724e-03
4.800000e+08	6.661235e+13	0.000000e+00	4.496125e-01	1.037766e+15	3.578016e+14	4.389145e+14	1.785208e+04	7.819175e+03	4.197543e+03	0	1.535894e-03
4.900000e+08	6.498249e+13	0.000000e+00	4.496125e-01	1.017498e+15	3.640894e+14	4.367101e+14	1.777681e+04	7.839949e+03	4.208695e+03	0	1.523264e-03
5.000000e+08	6.340373e+13	0.000000e+00	4.496125e-01	9.978531e+14	3.702953e+14	4.345215e+14	1.770301e+04	7.860187e+03	4.219559e+03	0	1.510826e-03
5.100000e+08	6.187390e+13	0.000000e+00	4.496125e-01	9.788044e+14	3.764181e+14	4.323486e+14	1.763062e+04	7.879904e+03	4.230144e+03	0	1.498576e-03
5.200000e+08	6.039093e+13	0.000000e+00	4.496125e-01	9.603272e+14	3.824560e+14	4.301911e+14	1.755960e+04	7.899113e+03	4.240455e+03	0	1.486507e-03
5.300000e+08	5.895289e+13	0.000000e+00	4.496125e-01	9.423981e+14	3.884083e+14	4.280491e+14	1.748991e+04	7.917825e+03	4.250501e+03	0	1.474613e-03
5.400000e+08	5.755792e+13	0.000000e+00	4.496125e-01	9.249947e+14	3.942737e+14	4.259223e+14	1.742152e+04	7.936053e+03	4.260286e+03	0	1.462889e-03
5.500000e+08	5.620428e+13	0.000000e+00	4.496125e-01	9.080961e+14	4.000512e+14	4.238106e+14	1.735438e+04	7.953808e+03	4.269818e+03	0	1.451330e-03
5.600000e+08	5.489031e+13	0.000000e+00	4.496125e-01	8.916821e+14	4.057399e+14	4.217139e+14	1.728845e+04	7.971103e+03	4.279102e+03	0	1.439931e-03
5.700000e+08	5.361444e+13	0.000000e+00	4.496125e-01	8.757337e+14	4.113392e+14	4.196322e+14	1.722371e+04	7.987948e+03	4.288145e+03	0	1.428686e-03
5.800000e+08	5.237518e+13	0.000000e+00	4.496125e-01	8.602329e+14	4.168482e+14	4.175652e+14	1.716012e+04	8.004353e+03	4.296951e+03	0	1.417593e-03
5.900000e+08	5.117112e+13	0.000000e+00	4.496125e-01	8.451625e+14	4.222665e+14	4.155128e+14	1.709765e+04	8.020329e+03	4.305528e+03	0	1.406645e-03
6.000000e+08	5.000090e+13	0.000000e+00	4.496125e-01	8.305063e+14	4.275936e+14	4.134750e+14	1.703627e+04	8.035886e+03	4.313879e+03	0	1.395840e-03
6.100000e+08	4.886324e+13	0.000000e+00	4.496125e-01	8.162487e+14	4.328291e+14	4.114516e+14	1.697594e+04	8.051034e+03	4.322011e+03	0	1.385172e-03
6.200000e+08	4.775692e+13	0.000000e+00	4.496125e-01	8.023749e+14	4.379726e+14	4.094425e+14	1.691665e+04	8.065781e+03	4.329928e+03	0	1.374638e-03
6.300000e+08	4.668079e+13	0.000000e+00	4.496125e-01	7.888710e+14	4.430240e+14	4.074476e+14	1.685835e+04	8.080138e+03	4.337635e+03	0	1.364235e-03
6.400000e+08	4.563374e+13	0.000000e+00	4.496125e-01	7.757234e+14	4.479829e+14	4.054667e+14	1.680103e+04	8.094112e+03	4.345137e+03	0	1.353957e-03
6.500000e+08	4.461472e+13	0.000000e+00	4.496125e-01	7.629194e+14	4.528494e+14	4.034998e+14	1.674466e+04	8.107714e+03	4.352438e+03	0	1.343803e-03
6.600000e+08	4.362271e+13	0.000000e+00	4.496125e-01	7.504469e+14	4.576236e+14	4.015468e+14	1.668922e+04	8.120950e+03	4.359544e+03	0	1.333769e-03
6.700000e+08	4.265676e+13	0.000000e+00	4.496125e-01	7.382941e+14	4.623052e+14	3.996075e+14	1.663467e+04	8.133829e+03	4.366458e+03	0	1.323850e-03
6.800000e+08	4.171596e+13	0.000000e+00	4.496125e-01	7.264500e+14	4.668946e+14	3.976818e+14	1.658101e+04	8.146360e+03	4.373184e+03	0	1.314045e-03
6.900000e+08	4.079942e+13	0.000000e+00	4.496125e-01	7.149039e+14	4.713919e+14	3.957696e+14	1.652819e+04	8.158549e+03	4.379728e+03	0	1.304351e-03
7.000000e+08	3.990632e+13	0.000000e+00	4.496125e-01	7.036457e+14	4.757972e+14	3.938708e+14	1.647622e+04	8.170405e+03	4.386092e+03	0	1.294763e-03
7.100000e+08	3.903585e+13	0.000000e+00	4.496125e-01	6.926657e+14	4.801110e+14	3.919853e+14	1.642506e+04	8.181934e+03	4.392282e+03	0	1.285279e-03
7.200000e+08	3.818725e+13	0.000000e+00	4.496125e-01	6.819546e+14	4.843336e+14	3.901130e+14	1.637469e+04	8.193144e+03	4.398300e+03	0	1.275897e-03
7.300000e+08	3.735978e+13	0.000000e+00	4.496125e-01	6.715035e+14	4.884651e+14	3.882537e+14	1.632509e+04	8.204042e+03	4.404150e+03	0	1.266614e-03
7.400000e+08	3.655276e+13	0.000000e+00	4.496125e-01	6.613038e+14	4.925063e+14	3.864075e+14	1.627626e+04	8.214635e+03	4.409836e+03	0	1.257428e-03
7.500000e+08	3.576549e+13	0.000000e+00	4.496125e-01	6.513474e+14	4.964574e+14	3.845741e+14	1.622816e+04	8.224928e+03	4.415362e+03	0	1.248335e-03
7.600000e+08	3.499735e+13	0.000000e+00	4.496125e-01	6.416265e+14	5.003191e+14	3.827535e+14	1.618078e+04	8.234929e+03	4.420731e+03	0	1.239333e-03
7.700000e+08	3.424772e+13	0.000000e+00	4.496125e-01	6.321336e+14	5.040919e+14	3.809455e+14	1.613410e+04	8.244644e+03	4.425946e+03	0	1.230420e-03
7.800000e+08	3.351599e+13	0.000000e+00	4.496125e-01	6.228615e+14	5.077764e+14	3.791502e+14	1.608811e+04	8.254079e+03	4.431011e+03	0	1.221594e-03
7.900000e+08	3.280162e+13	0.000000e+00	4.496125e-01	6.138032e+14	5.113733e+14	3.773673e+14	1.604279e+04	8.263240e+03	4.435929e+03	0	1.212853e-03
8.000000e+08	3.210404e+13	0.000000e+00	4.496125e-01	6.049521e+14	5.148831e+14	3.755967e+14	1.599813e+04	8.272133e+03	4.440703e+03	0	1.204193e-03
8.100000e+08	3.142275e+13	0.000000e+00	4.496125e-01	5.963019e+14	5.183066e+14	3.738384e+14	1.595411e+04	8.280764e+03	4.445336e+03	0	1.195614e-03
8.200000e+08	3.075722e+13	0.000000e+00	4.496125e-01	5.878465e+14	5.216445e+14	3.720923e+14	1.591071e+04	8.289137e+03	4.449831e+03	0	1.187113e-03
8.300000e+08	3.010700e+13	0.000000e+00	4.496125e-01	5.795799e+14	5.248977e+14	3.703583e+14	1.586793e+04	8.297259e+03	4.454191e+03	0	1.178688e-03
8.400000e+08	2.947160e+13	0.000000e+00	4.496125e-01	5.714964e+14	5.280667e+14	3.686363e+14	1.582574e+04	8.305135e+03	4.458419e+03	0	1.170337e-03
8.500000e+08	2.885058e+13	0.000000e+00	4.496125e-01	5.635907e+14	5.311526e+14	3.669261e+14	1.578414e+04	8.312770e+03	4.462518e+03	0	1.162058e-03
8.600000e+08	2.824352e+13	0.000000e+00	4.496125e-01	5.558575e+14	5.341559e+14	3.652277e+14	1.574312e+04	8.320169e+03	4.466490e+03	0	1.153850e-03
8.700000e+08	2.764999e+13	0.000000e+00	4.496125e-01	5.482917e+14	5.370778e+14	3.635410e+14	1.570265e+04	8.327338e+03	4.470338e+03	0	1.145710e-03
8.800000e+08	2.706961e+13	0.000000e+00	4.496125e-01	5.408885e+14	5.399188e+14	3.618659e+14	1.566273e+04	8.334280e+03	4.474065e+03	0	1.137637e-03
8.900000e+08	2.650199e+13	0.000000e+00	4.496125e-01	5.336433e+14	5.426802e+14	3.602023e+14	1.562335e+04	8.341001e+03	4.477673e+03	0	1.129629e-03
9.000000e+08	2.594675e+13	0.000000e+00	4.496125e-01	5.265514e+14	5.453624e+14	3.585502e+14	1.558449e+04	8.347505e+03	4.481165e+03	0	1.121684e-03
9.100000e+08	2.540355e+13	0.000000e+00	4.496125e-01	5.196086e+14	5.479668e+14	3.569093e+14	1.554615e+04	8.353797e+03	4.484542e+03	0	1.113801e-03
9.200000e+08	2.487204e+13	0.000000e+00	4.496125e-01	5.128106e+14	5.504940e+14	3.552797e+14	1.550831e+04	8.359882e+03	4.487809e+03	0	1.105979e-03
9.300000e+08	2.435189e+13	0.000000e+00	4.496125e-01	5.061535e+14	5.529451e+14	3.536613e+14	1.547096e+04	8.365763e+03	4.490966e+03	0	1.098215e-03
9.400000e+08	2.384278e+13	0.000000e+00	4.496125e-01	4.996333e+14	5.553210e+14	3.520539e+14	1.543410e+04	8.371445e+03	4.494016e+03	0	1.090507e-03
9.500000e+08	2.334441e+13	0.000000e+00	4.496125e-01	4.932462e+14	5.576225e+14	3.504575e+14	1.539771e+04	8.376932e+03	4.496962e+03	0	1.082856e-03
9.600000e+08	2.285647e+13	0.000000e+00	4.496125e-01	4.869887e+14	5.598507e+14	3.488719e+14	1.536178e+04	8.382228e+03	4.499805e+03	0	1.075258e-03
9.700000e+08	2.237868e+13	0.000000e+00	4.496125e-01	4.808571e+14	5.620067e+14	3.472972e+14	1.532630e+04	8.387338e+03	4.502548e+03	0	1.067713e-03
9.800000e+08	2.191077e+13	0.000000e+00	4.496125e-01	4.748482e+14	5.640913e+14	3.457332e+14	1.529127e+04	8.392264e+03	4.505192e+03	0	1.060219e-03
9.900000e+08	2.145246e+13	0.000000e+00	4.496125e-01	4.689586e+14	5.661056e+14	3.441798e+14	1.525668e+04	8.397011e+03	4.507741e+03	0	1.052774e-03
1.000000e+09	2.100350e+13	0.000000e+00	4.496125e-01	4.631852e+14	5.680505e+14	3.426369e+14	1.522251e+04	8.401582e+03	4.510195e+03	0	1.045378e-03
1.010000e+09	2.056363e+13	0.000000e+00	4.496125e-01	4.575249e+14	5.699270e+14	3.411045e+14	1.518876e+04	8.405982e+03	4.512556e+03	0	1.038029e-03
1.020000e+09	2.013263e+13	0.000000e+00	4.496125e-01	4.519748e+14	5.717360e+14	3.395825e+14	1.515543e+04	8.410213e+03	4.514828e+03	0	1.030726e-03
1.030000e+09	1.971025e+13	0.000000e+00	4.496125e-01	4.465320e+14	5.734787e+14	3.380708e+14	1.512249e+04	8.414280e+03	4.517011e+03	0	1.023467e-03
1.040000e+09	1.929626e+13	0.000000e+00	4.496125e-01	4.411937e+14	5.751559e+14	3.365693e+14	1.508995e+04	8.418185e+03	4.519107e+03	0	1.016250e-03
1.050000e+09	1.889046e+13	0.000000e+00	4.496125e-01	4.359573e+14	5.767689e+14	3.350780e+14	1.505780e+04	8.421932e+03	4.521119e+03	0	1.009076e-03
1.060000e+09	1.849262e+13	0.000000e+00	4.496125e-01	4.308201e+14	5.783181e+14	3.335967e+14	1.502603e+04	8.425524e+03	4.523047e+03	0	1.001942e-03
1.070000e+09	1.810255e+13	0.000000e+00	4.496125e-01	4.257797e+14	5.798051e+14	3.321254e+14	1.499463e+04	8.428965e+03	4.524894e+03	0	9.948468e-04
1.080000e+09	1.772004e+13	0.000000e+00	4.496125e-01	4.208336e+14	5.812306e+14	3.306640e+14	1.496359e+04	8.432257e+03	4.526662e+03	0	9.877898e-04
1.090000e+09	1.734491e+13	0.000000e+00	4.496125e-01	4.159794e+14	5.825957e+14	3.292124e+14	1.493292e+04	8.435404e+03	4.528351e+03	0	9.807695e-04
1.100000e+09	1.697696e+13	0.000000e+00	4.496125e-01	4.112150e+14	5.839012e+14	3.277706e+14	1.490260e+04	8.438409e+03	4.529964e+03	0	9.737847e-04
1.110000e+09	1.661603e+13	0.000000e+00	4.496125e-01	4.065380e+14	5.851481e+14	3.263384e+14	1.487262e+04	8.441274e+03	4.531502e+03	0	9.668342e-04
1.120000e+09	1.626192e+13	0.000000e+00	4.496125e-01	4.019463e+14	5.863377e+14	3.249158e+14	1.484298e+04	8.444003e+03	4.532967e+03	0	9.599168e-04
1.130000e+09	1.591449e+13	0.000000e+00	4.496125e-01	3.974379e+14	5.874706e+14	3.235028e+14	1.481368e+04	8.446598e+03	4.534360e+03	0	9.530314e-04
1.140000e+09	1.557355e+13	0.000000e+00	4.496125e-01	3.930107e+14	5.885478e+14	3.220992e+14	1.478471e+04	8.449063e+03	4.535683e+03	0	9.461766e-04
1.150000e+09	1.523896e+13	0.000000e+00	4.496125e-01	3.886629e+14	5.895705e+14	3.207049e+14	1.475605e+04	8.451399e+03	4.536938e+03	0	9.393514e-04
1.160000e+09	1.491056e+13	0.000000e+00	4.496125e-01	3.843924e+14	5.905394e+14	3.193200e+14	1.472771e+04	8.453610e+03	4.538124e+03	0	9.325547e-04
1.170000e+09	1.458820e+13	0.000000e+00	4.496125e-01	3.801974e+14	5.914556e+14	3.179443e+14	1.469968e+04	8.455697e+03	4.539245e+03	0	9.257851e-04
1.180000e+09	1.427173e+13	0.000000e+00	4.496125e-01	3.760762e+14	5.923199e+14	3.165777e+14	1.467196e+04	8.457665e+03	4.540301e+03	0	9.190416e-04
1.190000e+09	1.396102e+13	0.000000e+00	4.496125e-01	3.720271e+14	5.931334e+14	3.152203e+14	1.464454e+04	8.459515e+03	4.541294e+03	0	9.123231e-04
1.200000e+09	1.365592e+13	0.000000e+00	4.496125e-01	3.680483e+14	5.938968e+14	3.138718e+14	1.461741e+04	8.461249e+03	4.542225e+03	0	9.056283e-04
1.210000e+09	1.335632e+13	0.000000e+00	4.496125e-01	3.641382e+14	5.946112e+14	3.125323e+14	1.459057e+04	8.462870e+03	4.543096e+03	0	8.989562e-04
1.220000e+09	1.306206e+13	0.000000e+00	4.496125e-01	3.602953e+14	5.952774e+14	3.112016e+14	1.456401e+04	8.464381e+03	4.543907e+03	0	8.923055e-04
1.230000e+09	1.277304e+13	0.000000e+00	4.496125e-01	3.565180e+14	5.958966e+14	3.098798e+14	1.453773e+04	8.465783e+03	4.544660e+03	0	8.856751e-04
1.240000e+09	1.248914e+13	0.000000e+00	4.496125e-01	3.528047e+14	5.964690e+14	3.085667e+14	1.451173e+04	8.467080e+03	4.545355e+03	0	8.790639e-04
1.250000e+09	1.221022e+13	0.000000e+00	4.496125e-01	3.491541e+14	5.969961e+14	3.072623e+14	1.448600e+04	8.468272e+03	4.545996e+03	0	8.724706e-04
1.260000e+09	1.193618e+13	0.000000e+00	4.496125e-01	3.455648e+14	5.974786e+14	3.059664e+14	1.446053e+04	8.469363e+03	4.546581e+03	0	8.658941e-04
1.270000e+09	1.166691e+13	0.000000e+00	4.496125e-01	3.420353e+14	5.979172e+14	3.046791e+14	1.443532e+04	8.470354e+03	4.547113e+03	0	8.593333e-04
1.280000e+09	1.140230e+13	0.000000e+00	4.496125e-01	3.385644e+14	5.983130e+14	3.034003e+14	1.441037e+04	8.471248e+03	4.547593e+03	0	8.527869e-04
1.290000e+09	1.114225e+13	0.000000e+00	4.496125e-01	3.351506e+14	5.986666e+14	3.021299e+14	1.438567e+04	8.472046e+03	4.548022e+03	0	8.462537e-04
1.300000e+09	1.088665e+13	0.000000e+00	4.496125e-01	3.317929e+14	5.989790e+14	3.008678e+14	1.436122e+04	8.472751e+03	4.548400e+03	0	8.397326e-04
1.310000e+09	1.063540e+13	0.000000e+00	4.496125e-01	3.284899e+14	5.992510e+14	2.996140e+14	1.433702e+04	8.473365e+03	4.548729e+03	0	8.332223e-04
1.320000e+09	1.038840e+13	0.000000e+00	4.496125e-01	3.252404e+14	5.994834e+14	2.983684e+14	1.431305e+04	8.473889e+03	4.549011e+03	0	8.267215e-04
1.330000e+09	1.014557e+13	0.000000e+00	4.496125e-01	3.220433e+14	5.996769e+14	2.971309e+14	1.428932e+04	8.474325e+03	4.549245e+03	0	8.202290e-04
1.340000e+09	9.906811e+12	0.000000e+00	4.496125e-01	3.188975e+14	5.998323e+14	2.959015e+14	1.426582e+04	8.474675e+03	4.549433e+03	0	8.137436e-04
1.350000e+09	9.672032e+12	0.000000e+00	4.496125e-01	3.158018e+14	5.999506e+14	2.946802e+14	1.424256e+04	8.474942e+03	4.549576e+03	0	8.072639e-04
1.360000e+09	9.441150e+12	0.000000e+00	4.496125e-01	3.127553e+14	6.000324e+14	2.934668e+14	1.421951e+04	8.475126e+03	4.549675e+03	0	8.007887e-04
