#t		Qconv[W]	Ri[Rp]		R*[Rp]		Qc[W]		Qm[W]		Qr[W]		Tcmb[K]		Tl[K]		Tup[K]		RiFlag		Bs[T]
0.000000e+00	4.217183e+14	0.000000e+00	4.418604e-01	5.267189e+15	3.103700e+13	6.194275e+14	2.701409e+04	5.842092e+03	3.068150e+03	0	2.861385e-03
1.000000e+07	3.988529e+14	0.000000e+00	4.418604e-01	4.999510e+15	3.566072e+13	6.159955e+14	2.665741e+04	5.942508e+03	3.120886e+03	0	2.808707e-03
2.000000e+07	3.778809e+14	0.000000e+00	4.418604e-01	4.753807e+15	4.055963e+13	6.125890e+14	2.631848e+04	6.038190e+03	3.171136e+03	0	2.758590e-03
3.000000e+07	3.585904e+14	0.000000e+00	4.418604e-01	4.527630e+15	4.571823e+13	6.092081e+14	2.599587e+04	6.129511e+03	3.219097e+03	0	2.710827e-03
4.000000e+07	3.407990e+14	0.000000e+00	4.418604e-01	4.318866e+15	5.112101e+13	6.058524e+14	2.568832e+04	6.216803e+03	3.264940e+03	0	2.665232e-03
5.000000e+07	3.243487e+14	0.000000e+00	4.418604e-01	4.125688e+15	5.675262e+13	6.025217e+14	2.539468e+04	6.300360e+03	3.308823e+03	0	2.621639e-03
6.000000e+07	3.091022e+14	0.000000e+00	4.418604e-01	3.946509e+15	6.259801e+13	5.992158e+14	2.511393e+04	6.380446e+03	3.350882e+03	0	2.579900e-03
7.000000e+07	2.949397e+14	0.000000e+00	4.418604e-01	3.779941e+15	6.864245e+13	5.959346e+14	2.484516e+04	6.457299e+03	3.391244e+03	0	2.539880e-03
8.000000e+07	2.817565e+14	0.000000e+00	4.418604e-01	3.624769e+15	7.487167e+13	5.926777e+14	2.458754e+04	6.531133e+03	3.430020e+03	0	2.501460e-03
9.000000e+07	2.694602e+14	0.000000e+00	4.418604e-01	3.479925e+15	8.127183e+13	5.894451e+14	2.434031e+04	6.602139e+03	3.467311e+03	0	2.464528e-03
1.000000e+08	2.579695e+14	0.000000e+00	4.418604e-01	3.344465e+15	8.782961e+13	5.862365e+14	2.410281e+04	6.670493e+03	3.503209e+03	0	2.428986e-03
1.100000e+08	2.472123e+14	0.000000e+00	4.418604e-01	3.217555e+15	9.453217e+13	5.830517e+14	2.387440e+04	6.736354e+03	3.537798e+03	0	2.394743e-03
1.200000e+08	2.371247e+14	0.000000e+00	4.418604e-01	3.098452e+15	1.013672e+14	5.798905e+14	2.365453e+04	6.799867e+03	3.571154e+03	0	2.361717e-03
1.300000e+08	2.276496e+14	0.000000e+00	4.418604e-01	2.986495e+15	1.083228e+14	5.767527e+14	2.344267e+04	6.861164e+03	3.603346e+03	0	2.329831e-03
1.400000e+08	2.187362e+14	0.000000e+00	4.418604e-01	2.881093e+15	1.153876e+14	5.736381e+14	2.323836e+04	6.920365e+03	3.634437e+03	0	2.299018e-03
1.500000e+08	2.103388e+14	0.000000e+00	4.418604e-01	2.781717e+15	1.225509e+14	5.705466e+14	2.304115e+04	6.977582e+03	3.664486e+03	0	2.269213e-03
1.600000e+08	2.024165e+14	0.000000e+00	4.418604e-01	2.687892e+15	1.298023e+14	5.674778e+14	2.285065e+04	7.032917e+03	3.693547e+03	0	2.240358e-03
1.700000e+08	1.949325e+14	0.000000e+00	4.418604e-01	2.599189e+15	1.371317e+14	5.644318e+14	2.266649e+04	7.086465e+03	3.721669e+03	0	2.212400e-03
1.800000e+08	1.878534e+14	0.000000e+00	4.418604e-01	2.515222e+15	1.445299e+14	5.614082e+14	2.248832e+04	7.138312e+03	3.748898e+03	0	2.185287e-03
1.900000e+08	1.811492e+14	0.000000e+00	4.418604e-01	2.435641e+15	1.519875e+14	5.584068e+14	2.231584e+04	7.188538e+03	3.775276e+03	0	2.158975e-03
2.000000e+08	1.747927e+14	0.000000e+00	4.418604e-01	2.360129e+15	1.594962e+14	5.554276e+14	2.214874e+04	7.237220e+03	3.800843e+03	0	2.133421e-03
2.100000e+08	1.687590e+14	0.000000e+00	4.418604e-01	2.288398e+15	1.670475e+14	5.524702e+14	2.198676e+04	7.284425e+03	3.825634e+03	0	2.108585e-03
2.200000e+08	1.630257e+14	0.000000e+00	4.418604e-01	2.220186e+15	1.746337e+14	5.495346e+14	2.182964e+04	7.330219e+03	3.849684e+03	0	2.084431e-03
2.300000e+08	1.575721e+14	0.000000e+00	4.418604e-01	2.155253e+15	1.822472e+14	5.466205e+14	2.167715e+04	7.374662e+03	3.873025e+03	0	2.060924e-03
2.400000e+08	1.523795e+14	0.000000e+00	4.418604e-01	2.093381e+15	1.898809e+14	5.437278e+14	2.152907e+04	7.417810e+03	3.895685e+03	0	2.038032e-03
2.500000e+08	1.474308e+14	0.000000e+00	4.418604e-01	2.034370e+15	1.975280e+14	5.408562e+14	2.138519e+04	7.459716e+03	3.917693e+03	0	2.015726e-03
2.600000e+08	1.427101e+14	0.000000e+00	4.418604e-01	1.978036e+15	2.051819e+14	5.380057e+14	2.124532e+04	7.500428e+03	3.939075e+03	0	1.993978e-03
2.700000e+08	1.382031e+14	0.000000e+00	4.418604e-01	1.924211e+15	2.128364e+14	5.351760e+14	2.110928e+04	7.539994e+03	3.959854e+03	0	1.972762e-03
2.800000e+08	1.338963e+14	0.000000e+00	4.418604e-01	1.872740e+15	2.204858e+14	5.323670e+14	2.097690e+04	7.578456e+03	3.980053e+03	0	1.952053e-03
2.900000e+08	1.297776e+14	0.000000e+00	4.418604e-01	1.823479e+15	2.281243e+14	5.295785e+14	2.084802e+04	7.615856e+03	3.999695e+03	0	1.931829e-03
3.000000e+08	1.258357e+14	0.000000e+00	4.418604e-01	1.776298e+15	2.357466e+14	5.268103e+14	2.072250e+04	7.652232e+03	4.018799e+03	0	1.912069e-03
3.100000e+08	1.220601e+14	0.000000e+00	4.418604e-01	1.731073e+15	2.433478e+14	5.240623e+14	2.060020e+04	7.687620e+03	4.037384e+03	0	1.892751e-03
3.200000e+08	1.184412e+14	0.000000e+00	4.418604e-01	1.687693e+15	2.509228e+14	5.213343e+14	2.048097e+04	7.722055e+03	4.055469e+03	0	1.873857e-03
3.300000e+08	1.149701e+14	0.000000e+00	4.418604e-01	1.646054e+15	2.584671e+14	5.186261e+14	2.036471e+04	7.755570e+03	4.073070e+03	0	1.855370e-03
3.400000e+08	1.116384e+14	0.000000e+00	4.418604e-01	1.606057e+15	2.659765e+14	5.159376e+14	2.025129e+04	7.788194e+03	4.090203e+03	0	1.837271e-03
3.500000e+08	1.084384e+14	0.000000e+00	4.418604e-01	1.567614e+15	2.734467e+14	5.132686e+14	2.014059e+04	7.819957e+03	4.106885e+03	0	1.819547e-03
3.600000e+08	1.053630e+14	0.000000e+00	4.418604e-01	1.530641e+15	2.808738e+14	5.106189e+14	2.003252e+04	7.850887e+03	4.123129e+03	0	1.802180e-03
3.700000e+08	1.024056e+14	0.000000e+00	4.418604e-01	1.495059e+15	2.882543e+14	5.079884e+14	1.992698e+04	7.881010e+03	4.138949e+03	0	1.785158e-03
3.800000e+08	9.955986e+13	0.000000e+00	4.418604e-01	1.460796e+15	2.955844e+14	5.053770e+14	1.982386e+04	7.910352e+03	4.154358e+03	0	1.768467e-03
3.900000e+08	9.682006e+13	0.000000e+00	4.418604e-01	1.427784e+15	3.028611e+14	5.027844e+14	1.972309e+04	7.938935e+03	4.169370e+03	0	1.752094e-03
4.000000e+08	9.418077e+13	0.000000e+00	4.418604e-01	1.395960e+15	3.100810e+14	5.002106e+14	1.962458e+04	7.966784e+03	4.183995e+03	0	1.736026e-03
4.100000e+08	9.163695e+13	0.000000e+00	4.418604e-01	1.365264e+15	3.172413e+14	4.976553e+14	1.952824e+04	7.993918e+03	4.198246e+03	0	1.720253e-03
4.200000e+08	8.918385e+13	0.000000e+00	4.418604e-01	1.335642e+15	3.243391e+14	4.951184e+14	1.943401e+04	8.020360e+03	4.212133e+03	0	1.704764e-03
4.300000e+08	8.681705e+13	0.000000e+00	4.418604e-01	1.307041e+15	3.313719e+14	4.925998e+14	1.934180e+04	8.046129e+03	4.225666e+03	0	1.689548e-03
4.400000e+08	8.453239e+13	0.000000e+00	4.418604e-01	1.279413e+15	3.383372e+14	4.900994e+14	1.925155e+04	8.071244e+03	4.238856e+03	0	1.674595e-03
4.500000e+08	8.232597e+13	0.000000e+00	4.418604e-01	1.252711e+15	3.452328e+14	4.876169e+14	1.916319e+04	8.095724e+03	4.251712e+03	0	1.659897e-03
4.600000e+08	8.019412e+13	0.000000e+00	4.418604e-01	1.226893e+15	3.520563e+14	4.851522e+14	1.907666e+04	8.119585e+03	4.264243e+03	0	1.645444e-03
4.700000e+08	7.813340e+13	0.000000e+00	4.418604e-01	1.201919e+15	3.588060e+14	4.827052e+14	1.899190e+04	8.142844e+03	4.276458e+03	0	1.631227e-03
4.800000e+08	7.614058e+13	0.000000e+00	4.418604e-01	1.177750e+15	3.654798e+14	4.802757e+14	1.890886e+04	8.165517e+03	4.288366e+03	0	1.617239e-03
4.900000e+08	7.421259e+13	0.000000e+00	4.418604e-01	1.154350e+15	3.720761e+14	4.778636e+14	1.882746e+04	8.187621e+03	4.299974e+03	0	1.603472e-03
5.000000e+08	7.234657e+13	0.000000e+00	4.418604e-01	1.131686e+15	3.785931e+14	4.754688e+14	1.874768e+04	8.209169e+03	4.311291e+03	0	1.589918e-03
5.100000e+08	7.053979e+13	0.000000e+00	4.418604e-01	1.109726e+15	3.850295e+14	4.730911e+14	1.866945e+04	8.230176e+03	4.322324e+03	0	1.576571e-03
5.200000e+08	6.878970e+13	0.000000e+00	4.418604e-01	1.088439e+15	3.913838e+14	4.707303e+14	1.859273e+04	8.250656e+03	4.333079e+03	0	1.563424e-03
5.300000e+08	6.709387e+13	0.000000e+00	4.418604e-01	1.067798e+15	3.976549e+14	4.683864e+14	1.851746e+04	8.270622e+03	4.343565e+03	0	1.550469e-03
5.400000e+08	6.545003e+13	0.000000e+00	4.418604e-01	1.047775e+15	4.038416e+14	4.660592e+14	1.844362e+04	8.290086e+03	4.353787e+03	0	1.537702e-03
5.500000e+08	6.385600e+13	0.000000e+00	4.418604e-01	1.028345e+15	4.099426e+14	4.637485e+14	1.837115e+04	8.309062e+03	4.363753e+03	0	1.525116e-03
5.600000e+08	6.230973e+13	0.000000e+00	4.418604e-01	1.009484e+15	4.159574e+14	4.614543e+14	1.830001e+04	8.327561e+03	4.373468e+03	0	1.512705e-03
5.700000e+08	6.080929e+13	0.000000e+00	4.418604e-01	9.911679e+14	4.218848e+14	4.591763e+14	1.823017e+04	8.345595e+03	4.382939e+03	0	1.500464e-03
5.800000e+08	5.935284e+13	0.000000e+00	4.418604e-01	9.733764e+14	4.277243e+14	4.569146e+14	1.816159e+04	8.363174e+03	4.392171e+03	0	1.488387e-03
5.900000e+08	5.793862e+13	0.000000e+00	4.418604e-01	9.560886e+14	4.334751e+14	4.546688e+14	1.809423e+04	8.380310e+03	4.401171e+03	0	1.476471e-03
6.000000e+08	5.656498e+13	0.000000e+00	4.418604e-01	9.392847e+14	4.391366e+14	4.524390e+14	1.802806e+04	8.397013e+03	4.409943e+03	0	1.464709e-03
6.100000e+08	5.523035e+13	0.000000e+00	4.418604e-01	9.229464e+14	4.447084e+14	4.502249e+14	1.796305e+04	8.413293e+03	4.418493e+03	0	1.453098e-03
6.200000e+08	5.393323e+13	0.000000e+00	4.418604e-01	9.070559e+14	4.501900e+14	4.480265e+14	1.789916e+04	8.429160e+03	4.426826e+03	0	1.441632e-03
6.300000e+08	5.267220e+13	0.000000e+00	4.418604e-01	8.915964e+14	4.555812e+14	4.458435e+14	1.783636e+04	8.444623e+03	4.434947e+03	0	1.430307e-03
6.400000e+08	5.144591e+13	0.000000e+00	4.418604e-01	8.765520e+14	4.608817e+14	4.436760e+14	1.777462e+04	8.459692e+03	4.442861e+03	0	1.419120e-03
6.500000e+08	5.025306e+13	0.000000e+00	4.418604e-01	8.619075e+14	4.660912e+14	4.415238e+14	1.771393e+04	8.474376e+03	4.450572e+03	0	1.408066e-03
6.600000e+08	4.909243e+13	0.000000e+00	4.418604e-01	8.476482e+14	4.712098e+14	4.393867e+14	1.765423e+04	8.488683e+03	4.458086e+03	0	1.397141e-03
6.700000e+08	4.796285e+13	0.000000e+00	4.418604e-01	8.337605e+14	4.762372e+14	4.372646e+14	1.759552e+04	8.502621e+03	4.465406e+03	0	1.386342e-03
6.800000e+08	4.686320e+13	0.000000e+00	4.418604e-01	8.202311e+14	4.811736e+14	4.351574e+14	1.753777e+04	8.516200e+03	4.472537e+03	0	1.375665e-03
6.900000e+08	4.579241e+13	0.000000e+00	4.418604e-01	8.070474e+14	4.860190e+14	4.330650e+14	1.748095e+04	8.529426e+03	4.479484e+03	0	1.365107e-03
7.000000e+08	4.474948e+13	0.000000e+00	4.418604e-01	7.941974e+14	4.907734e+14	4.309873e+14	1.742503e+04	8.542308e+03	4.486249e+03	0	1.354664e-03
7.100000e+08	4.373343e+13	0.000000e+00	4.418604e-01	7.816697e+14	4.954372e+14	4.289241e+14	1.737001e+04	8.554853e+03	4.492837e+03	0	1.344332e-03
7.200000e+08	4.274333e+13	0.000000e+00	4.418604e-01	7.694531e+14	5.000106e+14	4.268754e+14	1.731584e+04	8.567069e+03	4.499253e+03	0	1.334110e-03
7.300000e+08	4.177830e+13	0.000000e+00	4.418604e-01	7.575372e+14	5.044936e+14	4.248409e+14	1.726252e+04	8.578962e+03	4.505499e+03	0	1.323993e-03
7.400000e+08	4.083748e+13	0.000000e+00	4.418604e-01	7.459121e+14	5.088870e+14	4.228207e+14	1.721001e+04	8.590540e+03	4.511579e+03	0	1.313979e-03
7.500000e+08	3.992007e+13	0.000000e+00	4.418604e-01	7.345679e+14	5.131906e+14	4.208146e+14	1.715831e+04	8.601809e+03	4.517498e+03	0	1.304065e-03
7.600000e+08	3.902528e+13	0.000000e+00	4.418604e-01	7.234957e+14	5.174052e+14	4.188224e+14	1.710739e+04	8.612776e+03	4.523257e+03	0	1.294248e-03
7.700000e+08	3.815239e+13	0.000000e+00	4.418604e-01	7.126864e+14	5.215312e+14	4.168441e+14	1.705724e+04	8.623447e+03	4.528862e+03	0	1.284526e-03
7.800000e+08	3.730066e+13	0.000000e+00	4.418604e-01	7.021316e+14	5.255690e+14	4.148795e+14	1.700782e+04	8.633829e+03	4.534314e+03	0	1.274895e-03
7.900000e+08	3.646942e+13	0.000000e+00	4.418604e-01	6.918233e+14	5.295193e+14	4.129286e+14	1.695914e+04	8.643928e+03	4.539618e+03	0	1.265353e-03
8.000000e+08	3.565801e+13	0.000000e+00	4.418604e-01	6.817537e+14	5.333824e+14	4.109912e+14	1.691117e+04	8.653749e+03	4.544776e+03	0	1.255898e-03
8.100000e+08	3.486580e+13	0.000000e+00	4.418604e-01	6.719152e+14	5.371591e+14	4.090672e+14	1.686389e+04	8.663299e+03	4.549791e+03	0	1.246528e-03
8.200000e+08	3.409219e+13	0.000000e+00	4.418604e-01	6.623008e+14	5.408499e+14	4.071566e+14	1.681729e+04	8.672583e+03	4.554667e+03	0	1.237240e-03
8.300000e+08	3.333661e+13	0.000000e+00	4.418604e-01	6.529035e+14	5.444555e+14	4.052591e+14	1.677136e+04	8.681607e+03	4.559406e+03	0	1.228031e-03
8.400000e+08	3.259848e+13	0.000000e+00	4.418604e-01	6.437167e+14	5.479764e+14	4.033748e+14	1.672607e+04	8.690376e+03	4.564012e+03	0	1.218900e-03
8.500000e+08	3.187728e+13	0.000000e+00	4.418604e-01	6.347340e+14	5.514137e+14	4.015035e+14	1.668142e+04	8.698896e+03	4.568486e+03	0	1.209844e-03
8.600000e+08	3.117250e+13	0.000000e+00	4.418604e-01	6.259494e+14	5.547678e+14	3.996450e+14	1.663739e+04	8.707171e+03	4.572832e+03	0	1.200861e-03
8.700000e+08	3.048363e+13	0.000000e+00	4.418604e-01	6.173569e+14	5.580396e+14	3.977994e+14	1.659396e+04	8.715206e+03	4.577052e+03	0	1.191949e-03
8.800000e+08	2.981021e+13	0.000000e+00	4.418604e-01	6.089509e+14	5.612297e+14	3.959665e+14	1.655113e+04	8.723008e+03	4.581149e+03	0	1.183107e-03
8.900000e+08	2.915177e+13	0.000000e+00	4.418604e-01	6.007259e+14	5.643389e+14	3.941461e+14	1.650887e+04	8.730579e+03	4.585125e+03	0	1.174331e-03
9.000000e+08	2.850788e+13	0.000000e+00	4.418604e-01	5.926767e+14	5.673681e+14	3.923383e+14	1.646719e+04	8.737926e+03	4.588984e+03	0	1.165620e-03
9.100000e+08	2.787811e+13	0.000000e+00	4.418604e-01	5.847983e+14	5.703183e+14	3.905428e+14	1.642606e+04	8.745052e+03	4.592726e+03	0	1.156973e-03
9.200000e+08	2.726206e+13	0.000000e+00	4.418604e-01	5.770857e+14	5.731901e+14	3.887596e+14	1.638548e+04	8.751962e+03	4.596355e+03	0	1.148387e-03
9.300000e+08	2.665932e+13	0.000000e+00	4.418604e-01	5.695343e+14	5.759842e+14	3.869887e+14	1.634542e+04	8.758661e+03	4.599873e+03	0	1.139861e-03
9.400000e+08	2.606952e+13	0.000000e+00	4.418604e-01	5.621395e+14	5.787018e+14	3.852298e+14	1.630589e+04	8.765153e+03	4.603283e+03	0	1.131392e-03
9.500000e+08	2.549229e+13	0.000000e+00	4.418604e-01	5.548970e+14	5.813435e+14	3.834829e+14	1.626687e+04	8.771442e+03	4.606586e+03	0	1.122979e-03
9.600000e+08	2.492729e+13	0.000000e+00	4.418604e-01	5.478026e+14	5.839103e+14	3.817480e+14	1.622836e+04	8.777532e+03	4.609784e+03	0	1.114621e-03
9.700000e+08	2.437416e+13	0.000000e+00	4.418604e-01	5.408522e+14	5.864031e+14	3.800248e+14	1.619033e+04	8.783427e+03	4.612880e+03	0	1.106315e-03
9.800000e+08	2.383259e+13	0.000000e+00	4.418604e-01	5.340419e+14	5.888229e+14	3.783134e+14	1.615278e+04	8.789131e+03	4.615876e+03	0	1.098060e-03
9.900000e+08	2.330225e+13	0.000000e+00	4.418604e-01	5.273679e+14	5.911704e+14	3.766137e+14	1.611570e+04	8.794648e+03	4.618773e+03	0	1.089854e-03
1.000000e+09	2.278284e+13	0.000000e+00	4.418604e-01	5.208265e+14	5.934465e+14	3.749254e+14	1.607909e+04	8.799982e+03	4.621574e+03	0	1.081695e-03
1.010000e+09	2.227406e+13	0.000000e+00	4.418604e-01	5.144142e+14	5.956523e+14	3.732486e+14	1.604292e+04	8.805137e+03	4.624281e+03	0	1.073582e-03
1.020000e+09	2.177563e+13	0.000000e+00	4.418604e-01	5.081276e+14	5.977886e+14	3.715832e+14	1.600720e+04	8.810115e+03	4.626896e+03	0	1.065514e-03
1.030000e+09	2.128728e+13	0.000000e+00	4.418604e-01	5.019634e+14	5.998564e+14	3.699290e+14	1.597191e+04	8.814921e+03	4.629420e+03	0	1.057488e-03
1.040000e+09	2.080872e+13	0.000000e+00	4.418604e-01	4.959184e+14	6.018566e+14	3.682861e+14	1.593705e+04	8.819558e+03	4.631855e+03	0	1.049504e-03
1.050000e+09	2.033971e+13	0.000000e+00	4.418604e-01	4.899895e+14	6.037901e+14	3.666542e+14	1.590261e+04	8.824029e+03	4.634203e+03	0	1.041559e-03
1.060000e+09	1.988000e+13	0.000000e+00	4.418604e-01	4.841737e+14	6.056576e+14	3.650333e+14	1.586858e+04	8.828338e+03	4.636466e+03	0	1.033652e-03
1.070000e+09	1.942935e+13	0.000000e+00	4.418604e-01	4.784682e+14	6.074608e+14	3.634233e+14	1.583495e+04	8.832488e+03	4.638646e+03	0	1.025782e-03
1.080000e+09	1.898752e+13	0.000000e+00	4.418604e-01	4.728701e+14	6.091998e+14	3.618242e+14	1.580172e+04	8.836483e+03	4.640744e+03	0	1.017946e-03
1.090000e+09	1.855428e+13	0.000000e+00	4.418604e-01	4.673767e+14	6.108757e+14	3.602358e+14	1.576887e+04	8.840324e+03	4.642761e+03	0	1.010145e-03
1.100000e+09	1.812942e+13	0.000000e+00	4.418604e-01	4.619854e+14	6.124897e+14	3.586581e+14	1.573640e+04	8.844016e+03	4.644700e+03	0	1.002375e-03
1.110000e+09	1.771273e+13	0.000000e+00	4.418604e-01	4.566936e+14	6.140425e+14	3.570910e+14	1.570431e+04	8.847561e+03	4.646562e+03	0	9.946356e-04
1.120000e+09	1.730400e+13	0.000000e+00	4.418604e-01	4.514990e+14	6.155352e+14	3.555344e+14	1.567258e+04	8.850963e+03	4.648348e+03	0	9.869254e-04
1.130000e+09	1.690302e+13	0.000000e+00	4.418604e-01	4.463991e+14	6.169685e+14	3.539882e+14	1.564121e+04	8.854223e+03	4.650061e+03	0	9.792426e-04
1.140000e+09	1.650962e+13	0.000000e+00	4.418604e-01	4.413916e+14	6.183438e+14	3.524523e+14	1.561020e+04	8.857346e+03	4.651701e+03	0	9.715860e-04
1.150000e+09	1.612360e+13	0.000000e+00	4.418604e-01	4.364742e+14	6.196613e+14	3.509267e+14	1.557953e+04	8.860333e+03	4.653269e+03	0	9.639538e-04
1.160000e+09	1.574479e+13	0.000000e+00	4.418604e-01	4.316449e+14	6.209225e+14	3.494112e+14	1.554920e+04	8.863188e+03	4.654769e+03	0	9.563446e-04
1.170000e+09	1.537299e+13	0.000000e+00	4.418604e-01	4.269014e+14	6.221280e+14	3.479059e+14	1.551920e+04	8.865912e+03	4.656200e+03	0	9.487570e-04
1.180000e+09	1.500806e+13	0.000000e+00	4.418604e-01	4.222418e+14	6.232787e+14	3.464105e+14	1.548954e+04	8.868510e+03	4.657564e+03	0	9.411894e-04
1.190000e+09	1.464982e+13	0.000000e+00	4.418604e-01	4.176641e+14	6.243757e+14	3.449251e+14	1.546019e+04	8.870982e+03	4.658862e+03	0	9.336403e-04
1.200000e+09	1.429810e+13	0.000000e+00	4.418604e-01	4.131662e+14	6.254198e+14	3.434496e+14	1.543117e+04	8.873332e+03	4.660096e+03	0	9.261081e-04
1.210000e+09	1.395277e+13	0.000000e+00	4.418604e-01	4.087465e+14	6.264117e+14	3.419839e+14	1.540245e+04	8.875563e+03	4.661268e+03	0	9.185912e-04
1.220000e+09	1.361366e+13	0.000000e+00	4.418604e-01	4.044030e+14	6.273526e+14	3.405278e+14	1.537404e+04	8.877675e+03	4.662377e+03	0	9.110882e-04
1.230000e+09	1.328063e+13	0.000000e+00	4.418604e-01	4.001340e+14	6.282430e+14	3.390814e+14	1.534593e+04	8.879673e+03	4.663426e+03	0	9.035975e-04
1.240000e+09	1.295353e+13	0.000000e+00	4.418604e-01	3.959377e+14	6.290840e+14	3.376446e+14	1.531812e+04	8.881558e+03	4.664416e+03	0	8.961174e-04
1.250000e+09	1.263223e+13	0.000000e+00	4.418604e-01	3.918126e+14	6.298766e+14	3.362172e+14	1.529060e+04	8.883332e+03	4.665348e+03	0	8.886462e-04
1.260000e+09	1.231660e+13	0.000000e+00	4.418604e-01	3.877571e+14	6.306213e+14	3.347993e+14	1.526336e+04	8.884998e+03	4.666223e+03	0	8.811824e-04
1.270000e+09	1.200651e+13	0.000000e+00	4.418604e-01	3.837694e+14	6.313192e+14	3.333907e+14	1.523641e+04	8.886557e+03	4.667042e+03	0	8.737243e-04
1.280000e+09	1.170182e+13	0.000000e+00	4.418604e-01	3.798482e+14	6.319710e+14	3.319913e+14	1.520973e+04	8.888013e+03	4.667806e+03	0	8.662701e-04
1.290000e+09	1.140242e+13	0.000000e+00	4.418604e-01	3.759919e+14	6.325775e+14	3.306012e+14	1.518332e+04	8.889366e+03	4.668517e+03	0	8.588181e-04
1.300000e+09	1.110819e+13	0.000000e+00	4.418604e-01	3.721991e+14	6.331395e+14	3.292202e+14	1.515718e+04	8.890620e+03	4.669175e+03	0	8.513665e-04
1.310000e+09	1.081900e+13	0.000000e+00	4.418604e-01	3.684684e+14	6.336581e+14	3.278482e+14	1.513130e+04	8.891775e+03	4.669782e+03	0	8.439134e-04
1.320000e+09	1.053475e+13	0.000000e+00	4.418604e-01	3.647984e+14	6.341338e+14	3.264852e+14	1.510568e+04	8.892834e+03	4.670339e+03	0	8.364571e-04
1.330000e+09	1.025534e+13	0.000000e+00	4.418604e-01	3.611879e+14	6.345677e+14	3.251311e+14	1.508032e+04	8.893800e+03	4.670845e+03	0	8.289954e-04
1.340000e+09	9.980637e+12	0.000000e+00	4.418604e-01	3.576354e+14	6.349600e+14	3.237859e+14	1.505520e+04	8.894673e+03	4.671304e+03	0	8.215265e-04
1.350000e+09	9.710556e+12	0.000000e+00	4.418604e-01	3.541398e+14	6.353120e+14	3.224495e+14	1.503034e+04	8.895456e+03	4.671715e+03	0	8.140484e-04
1.360000e+09	9.444992e+12	0.000000e+00	4.418604e-01	3.506999e+14	6.356243e+14	3.211218e+14	1.500571e+04	8.896150e+03	4.672080e+03	0	8.065588e-04
