#t		Qconv[W]	Ri[Rp]		R*[Rp]		Qc[W]		Qm[W]		Qr[W]		Tcmb[K]		Tl[K]		Tup[K]		RiFlag		Bs[T]
0.000000e+00	1.255286e+11	0.000000e+00	5.678392e-01	4.739193e+12	7.562847e+14	6.176813e+13	3.434138e+03	2.663979e+03	1.961885e+03	0	1.790756e-04
1.000000e+06	1.262495e+11	0.000000e+00	5.678392e-01	4.764300e+12	7.430267e+14	6.173379e+13	3.433972e+03	2.653937e+03	1.954490e+03	0	1.794178e-04
2.000000e+06	1.269239e+11	0.000000e+00	5.678392e-01	4.787784e+12	7.301562e+14	6.169948e+13	3.433805e+03	2.644087e+03	1.947236e+03	0	1.797367e-04
3.000000e+06	1.275541e+11	0.000000e+00	5.678392e-01	4.809727e+12	7.176580e+14	6.166519e+13	3.433638e+03	2.634423e+03	1.940119e+03	0	1.800336e-04
4.000000e+06	1.281423e+11	0.000000e+00	5.678392e-01	4.830209e+12	7.055179e+14	6.163093e+13	3.433470e+03	2.624940e+03	1.933135e+03	0	1.803100e-04
5.000000e+06	1.286908e+11	0.000000e+00	5.678392e-01	4.849304e+12	6.937223e+14	6.159669e+13	3.433301e+03	2.615633e+03	1.926280e+03	0	1.805668e-04
6.000000e+06	1.292014e+11	0.000000e+00	5.678392e-01	4.867083e+12	6.822580e+14	6.156248e+13	3.433132e+03	2.606496e+03	1.919552e+03	0	1.808054e-04
7.000000e+06	1.296762e+11	0.000000e+00	5.678392e-01	4.883612e+12	6.711128e+14	6.152829e+13	3.432961e+03	2.597526e+03	1.912945e+03	0	1.810266e-04
8.000000e+06	1.301170e+11	0.000000e+00	5.678392e-01	4.898954e+12	6.602746e+14	6.149413e+13	3.432791e+03	2.588716e+03	1.906457e+03	0	1.812314e-04
9.000000e+06	1.305254e+11	0.000000e+00	5.678392e-01	4.913170e+12	6.497324e+14	6.146000e+13	3.432619e+03	2.580063e+03	1.900085e+03	0	1.814209e-04
1.000000e+07	1.309032e+11	0.000000e+00	5.678392e-01	4.926316e+12	6.394751e+14	6.142589e+13	3.432448e+03	2.571563e+03	1.893825e+03	0	1.815957e-04
1.100000e+07	1.312518e+11	0.000000e+00	5.678392e-01	4.938445e+12	6.294926e+14	6.139181e+13	3.432276e+03	2.563212e+03	1.887675e+03	0	1.817568e-04
1.200000e+07	1.315726e+11	0.000000e+00	5.678392e-01	4.949609e+12	6.197750e+14	6.135775e+13	3.432103e+03	2.555004e+03	1.881630e+03	0	1.819048e-04
1.300000e+07	1.318672e+11	0.000000e+00	5.678392e-01	4.959856e+12	6.103129e+14	6.132372e+13	3.431930e+03	2.546938e+03	1.875690e+03	0	1.820404e-04
1.400000e+07	1.321367e+11	0.000000e+00	5.678392e-01	4.969231e+12	6.010972e+14	6.128971e+13	3.431757e+03	2.539008e+03	1.869850e+03	0	1.821644e-04
1.500000e+07	1.323825e+11	0.000000e+00	5.678392e-01	4.977778e+12	5.921194e+14	6.125573e+13	3.431583e+03	2.531212e+03	1.864108e+03	0	1.822772e-04
1.600000e+07	1.326057e+11	0.000000e+00	5.678392e-01	4.985537e+12	5.833712e+14	6.122177e+13	3.431409e+03	2.523545e+03	1.858462e+03	0	1.823796e-04
1.700000e+07	1.328074e+11	0.000000e+00	5.678392e-01	4.992548e+12	5.748447e+14	6.118784e+13	3.431235e+03	2.516005e+03	1.852910e+03	0	1.824720e-04
1.800000e+07	1.329887e+11	0.000000e+00	5.678392e-01	4.998848e+12	5.665324e+14	6.115394e+13	3.431060e+03	2.508588e+03	1.847448e+03	0	1.825550e-04
1.900000e+07	1.331506e+11	0.000000e+00	5.678392e-01	5.004471e+12	5.584271e+14	6.112006e+13	3.430885e+03	2.501292e+03	1.842074e+03	0	1.826291e-04
2.000000e+07	1.332940e+11	0.000000e+00	5.678392e-01	5.009451e+12	5.505217e+14	6.108621e+13	3.430710e+03	2.494113e+03	1.836787e+03	0	1.826946e-04
2.100000e+07	1.334199e+11	0.000000e+00	5.678392e-01	5.013820e+12	5.428097e+14	6.105238e+13	3.430535e+03	2.487048e+03	1.831584e+03	0	1.827521e-04
2.200000e+07	1.335291e+11	0.000000e+00	5.678392e-01	5.017608e+12	5.352846e+14	6.101858e+13	3.430360e+03	2.480095e+03	1.826464e+03	0	1.828020e-04
2.300000e+07	1.336225e+11	0.000000e+00	5.678392e-01	5.020842e+12	5.279405e+14	6.098480e+13	3.430185e+03	2.473251e+03	1.821423e+03	0	1.828446e-04
2.400000e+07	1.337007e+11	0.000000e+00	5.678392e-01	5.023551e+12	5.207713e+14	6.095105e+13	3.430009e+03	2.466513e+03	1.816461e+03	0	1.828803e-04
2.500000e+07	1.337646e+11	0.000000e+00	5.678392e-01	5.025759e+12	5.137715e+14	6.091732e+13	3.429833e+03	2.459878e+03	1.811575e+03	0	1.829094e-04
2.600000e+07	1.338149e+11	0.000000e+00	5.678392e-01	5.027492e+12	5.069357e+14	6.088362e+13	3.429658e+03	2.453345e+03	1.806763e+03	0	1.829323e-04
2.700000e+07	1.338522e+11	0.000000e+00	5.678392e-01	5.028772e+12	5.002586e+14	6.084994e+13	3.429482e+03	2.446910e+03	1.802025e+03	0	1.829493e-04
2.800000e+07	1.338771e+11	0.000000e+00	5.678392e-01	5.029622e+12	4.937353e+14	6.081629e+13	3.429306e+03	2.440572e+03	1.797357e+03	0	1.829606e-04
2.900000e+07	1.338903e+11	0.000000e+00	5.678392e-01	5.030063e+12	4.873611e+14	6.078267e+13	3.429130e+03	2.434329e+03	1.792759e+03	0	1.829666e-04
3.000000e+07	1.338923e+11	0.000000e+00	5.678392e-01	5.030114e+12	4.811312e+14	6.074907e+13	3.428955e+03	2.428177e+03	1.788229e+03	0	1.829675e-04
3.100000e+07	1.338837e+11	0.000000e+00	5.678392e-01	5.029796e+12	4.750413e+14	6.071549e+13	3.428779e+03	2.422116e+03	1.783765e+03	0	1.829636e-04
3.200000e+07	1.338650e+11	0.000000e+00	5.678392e-01	5.029125e+12	4.690870e+14	6.068194e+13	3.428603e+03	2.416143e+03	1.779366e+03	0	1.829551e-04
3.300000e+07	1.338366e+11	0.000000e+00	5.678392e-01	5.028119e+12	4.632644e+14	6.064841e+13	3.428427e+03	2.410255e+03	1.775030e+03	0	1.829422e-04
3.400000e+07	1.337992e+11	0.000000e+00	5.678392e-01	5.026795e+12	4.575695e+14	6.061491e+13	3.428251e+03	2.404452e+03	1.770757e+03	0	1.829251e-04
3.500000e+07	1.337530e+11	0.000000e+00	5.678392e-01	5.025168e+12	4.519983e+14	6.058144e+13	3.428076e+03	2.398731e+03	1.766543e+03	0	1.829041e-04
3.600000e+07	1.336986e+11	0.000000e+00	5.678392e-01	5.023253e+12	4.465474e+14	6.054799e+13	3.427900e+03	2.393091e+03	1.762390e+03	0	1.828793e-04
3.700000e+07	1.336363e+11	0.000000e+00	5.678392e-01	5.021064e+12	4.412132e+14	6.051456e+13	3.427724e+03	2.387529e+03	1.758294e+03	0	1.828509e-04
3.800000e+07	1.335666e+11	0.000000e+00	5.678392e-01	5.018615e+12	4.359922e+14	6.048116e+13	3.427549e+03	2.382045e+03	1.754255e+03	0	1.828191e-04
3.900000e+07	1.334898e+11	0.000000e+00	5.678392e-01	5.015919e+12	4.308813e+14	6.044779e+13	3.427373e+03	2.376636e+03	1.750271e+03	0	1.827840e-04
4.000000e+07	1.334062e+11	0.000000e+00	5.678392e-01	5.012988e+12	4.258772e+14	6.041444e+13	3.427198e+03	2.371300e+03	1.746342e+03	0	1.827459e-04
4.100000e+07	1.333162e+11	0.000000e+00	5.678392e-01	5.009833e+12	4.209769e+14	6.038111e+13	3.427023e+03	2.366037e+03	1.742466e+03	0	1.827048e-04
4.200000e+07	1.332201e+11	0.000000e+00	5.678392e-01	5.006466e+12	4.161775e+14	6.034781e+13	3.426848e+03	2.360845e+03	1.738642e+03	0	1.826609e-04
4.300000e+07	1.331183e+11	0.000000e+00	5.678392e-01	5.002898e+12	4.114762e+14	6.031454e+13	3.426673e+03	2.355722e+03	1.734869e+03	0	1.826143e-04
4.400000e+07	1.330109e+11	0.000000e+00	5.678392e-01	4.999139e+12	4.068702e+14	6.028129e+13	3.426498e+03	2.350667e+03	1.731146e+03	0	1.825652e-04
4.500000e+07	1.328984e+11	0.000000e+00	5.678392e-01	4.995197e+12	4.023569e+14	6.024806e+13	3.426323e+03	2.345678e+03	1.727472e+03	0	1.825137e-04
4.600000e+07	1.327809e+11	0.000000e+00	5.678392e-01	4.991084e+12	3.979338e+14	6.021486e+13	3.426149e+03	2.340754e+03	1.723846e+03	0	1.824599e-04
4.700000e+07	1.326587e+11	0.000000e+00	5.678392e-01	4.986806e+12	3.935983e+14	6.018169e+13	3.425974e+03	2.335895e+03	1.720267e+03	0	1.824039e-04
4.800000e+07	1.325320e+11	0.000000e+00	5.678392e-01	4.982374e+12	3.893482e+14	6.014854e+13	3.425800e+03	2.331097e+03	1.716734e+03	0	1.823458e-04
4.900000e+07	1.324011e+11	0.000000e+00	5.678392e-01	4.977794e+12	3.851811e+14	6.011541e+13	3.425626e+03	2.326361e+03	1.713247e+03	0	1.822858e-04
5.000000e+07	1.322662e+11	0.000000e+00	5.678392e-01	4.973075e+12	3.810948e+14	6.008231e+13	3.425452e+03	2.321686e+03	1.709803e+03	0	1.822239e-04
5.100000e+07	1.321276e+11	0.000000e+00	5.678392e-01	4.968224e+12	3.770872e+14	6.004923e+13	3.425278e+03	2.317069e+03	1.706403e+03	0	1.821601e-04
5.200000e+07	1.319853e+11	0.000000e+00	5.678392e-01	4.963248e+12	3.731562e+14	6.001618e+13	3.425104e+03	2.312510e+03	1.703046e+03	0	1.820947e-04
5.300000e+07	1.318397e+11	0.000000e+00	5.678392e-01	4.958154e+12	3.692997e+14	5.998315e+13	3.424931e+03	2.308007e+03	1.699730e+03	0	1.820277e-04
5.400000e+07	1.316908e+11	0.000000e+00	5.678392e-01	4.952947e+12	3.655160e+14	5.995015e+13	3.424757e+03	2.303561e+03	1.696455e+03	0	1.819592e-04
5.500000e+07	1.315389e+11	0.000000e+00	5.678392e-01	4.947634e+12	3.618031e+14	5.991717e+13	3.424584e+03	2.299168e+03	1.693220e+03	0	1.818892e-04
5.600000e+07	1.313841e+11	0.000000e+00	5.678392e-01	4.942222e+12	3.581591e+14	5.988422e+13	3.424411e+03	2.294830e+03	1.690025e+03	0	1.818178e-04
5.700000e+07	1.312266e+11	0.000000e+00	5.678392e-01	4.936715e+12	3.545823e+14	5.985129e+13	3.424238e+03	2.290544e+03	1.686869e+03	0	1.817451e-04
5.800000e+07	1.310665e+11	0.000000e+00	5.678392e-01	4.931118e+12	3.510711e+14	5.981839e+13	3.424066e+03	2.286309e+03	1.683750e+03	0	1.816712e-04
5.900000e+07	1.309040e+11	0.000000e+00	5.678392e-01	4.925438e+12	3.476238e+14	5.978551e+13	3.423893e+03	2.282125e+03	1.680669e+03	0	1.815961e-04
6.000000e+07	1.307393e+11	0.000000e+00	5.678392e-01	4.919678e+12	3.442387e+14	5.975266e+13	3.423721e+03	2.277990e+03	1.677624e+03	0	1.815199e-04
6.100000e+07	1.305724e+11	0.000000e+00	5.678392e-01	4.913844e+12	3.409144e+14	5.971983e+13	3.423549e+03	2.273905e+03	1.674615e+03	0	1.814426e-04
6.200000e+07	1.304035e+11	0.000000e+00	5.678392e-01	4.907939e+12	3.376494e+14	5.968702e+13	3.423378e+03	2.269867e+03	1.671641e+03	0	1.813644e-04
6.300000e+07	1.302327e+11	0.000000e+00	5.678392e-01	4.901969e+12	3.344422e+14	5.965424e+13	3.423206e+03	2.265876e+03	1.668702e+03	0	1.812852e-04
6.400000e+07	1.300601e+11	0.000000e+00	5.678392e-01	4.895937e+12	3.312913e+14	5.962148e+13	3.423035e+03	2.261931e+03	1.665797e+03	0	1.812050e-04
6.500000e+07	1.298859e+11	0.000000e+00	5.678392e-01	4.889847e+12	3.281955e+14	5.958875e+13	3.422864e+03	2.258032e+03	1.662925e+03	0	1.811241e-04
6.600000e+07	1.297101e+11	0.000000e+00	5.678392e-01	4.883703e+12	3.251534e+14	5.955604e+13	3.422693e+03	2.254177e+03	1.660087e+03	0	1.810423e-04
6.700000e+07	1.295329e+11	0.000000e+00	5.678392e-01	4.877508e+12	3.221638e+14	5.952336e+13	3.422522e+03	2.250366e+03	1.657280e+03	0	1.809598e-04
6.800000e+07	1.293543e+11	0.000000e+00	5.678392e-01	4.871266e+12	3.192254e+14	5.949070e+13	3.422351e+03	2.246598e+03	1.654505e+03	0	1.808766e-04
6.900000e+07	1.291744e+11	0.000000e+00	5.678392e-01	4.864979e+12	3.163369e+14	5.945807e+13	3.422181e+03	2.242872e+03	1.651761e+03	0	1.807928e-04
7.000000e+07	1.289934e+11	0.000000e+00	5.678392e-01	4.858652e+12	3.134973e+14	5.942546e+13	3.422011e+03	2.239188e+03	1.649048e+03	0	1.807083e-04
7.100000e+07	1.288113e+11	0.000000e+00	5.678392e-01	4.852287e+12	3.107053e+14	5.939287e+13	3.421841e+03	2.235545e+03	1.646365e+03	0	1.806232e-04
7.200000e+07	1.286281e+11	0.000000e+00	5.678392e-01	4.845887e+12	3.079600e+14	5.936031e+13	3.421672e+03	2.231942e+03	1.643711e+03	0	1.805375e-04
7.300000e+07	1.284441e+11	0.000000e+00	5.678392e-01	4.839455e+12	3.052602e+14	5.932777e+13	3.421502e+03	2.228378e+03	1.641087e+03	0	1.804514e-04
7.400000e+07	1.282592e+11	0.000000e+00	5.678392e-01	4.832992e+12	3.026048e+14	5.929526e+13	3.421333e+03	2.224853e+03	1.638491e+03	0	1.803648e-04
7.500000e+07	1.280735e+11	0.000000e+00	5.678392e-01	4.826503e+12	2.999929e+14	5.926277e+13	3.421164e+03	2.221366e+03	1.635923e+03	0	1.802777e-04
7.600000e+07	1.278870e+11	0.000000e+00	5.678392e-01	4.819989e+12	2.974236e+14	5.923031e+13	3.420995e+03	2.217916e+03	1.633382e+03	0	1.801902e-04
7.700000e+07	1.277000e+11	0.000000e+00	5.678392e-01	4.813452e+12	2.948957e+14	5.919787e+13	3.420827e+03	2.214504e+03	1.630869e+03	0	1.801023e-04
7.800000e+07	1.275123e+11	0.000000e+00	5.678392e-01	4.806894e+12	2.924085e+14	5.916545e+13	3.420659e+03	2.211128e+03	1.628383e+03	0	1.800140e-04
7.900000e+07	1.273242e+11	0.000000e+00	5.678392e-01	4.800319e+12	2.899610e+14	5.913306e+13	3.420491e+03	2.207787e+03	1.625923e+03	0	1.799254e-04
8.000000e+07	1.271355e+11	0.000000e+00	5.678392e-01	4.793727e+12	2.875523e+14	5.910069e+13	3.420323e+03	2.204482e+03	1.623489e+03	0	1.798365e-04
8.100000e+07	1.269465e+11	0.000000e+00	5.678392e-01	4.787120e+12	2.851816e+14	5.906835e+13	3.420155e+03	2.201211e+03	1.621080e+03	0	1.797473e-04
8.200000e+07	1.267570e+11	0.000000e+00	5.678392e-01	4.780501e+12	2.828481e+14	5.903603e+13	3.419988e+03	2.197974e+03	1.618696e+03	0	1.796579e-04
8.300000e+07	1.265673e+11	0.000000e+00	5.678392e-01	4.773871e+12	2.805510e+14	5.900373e+13	3.419821e+03	2.194771e+03	1.616337e+03	0	1.795682e-04
8.400000e+07	1.263773e+11	0.000000e+00	5.678392e-01	4.767232e+12	2.782894e+14	5.897146e+13	3.419654e+03	2.191600e+03	1.614002e+03	0	1.794783e-04
8.500000e+07	1.261871e+11	0.000000e+00	5.678392e-01	4.760586e+12	2.760627e+14	5.893921e+13	3.419487e+03	2.188462e+03	1.611691e+03	0	1.793882e-04
8.600000e+07	1.259967e+11	0.000000e+00	5.678392e-01	4.753933e+12	2.738700e+14	5.890699e+13	3.419321e+03	2.185356e+03	1.609404e+03	0	1.792979e-04
8.700000e+07	1.258062e+11	0.000000e+00	5.678392e-01	4.747276e+12	2.717107e+14	5.887479e+13	3.419155e+03	2.182282e+03	1.607139e+03	0	1.792075e-04
8.800000e+07	1.256156e+11	0.000000e+00	5.678392e-01	4.740616e+12	2.695841e+14	5.884262e+13	3.418989e+03	2.179238e+03	1.604898e+03	0	1.791170e-04
8.900000e+07	1.254249e+11	0.000000e+00	5.678392e-01	4.733953e+12	2.674894e+14	5.881047e+13	3.418823e+03	2.176225e+03	1.602679e+03	0	1.790263e-04
9.000000e+07	1.252342e+11	0.000000e+00	5.678392e-01	4.727290e+12	2.654261e+14	5.877834e+13	3.418657e+03	2.173241e+03	1.600482e+03	0	1.789355e-04
9.100000e+07	1.250436e+11	0.000000e+00	5.678392e-01	4.720628e+12	2.633934e+14	5.874624e+13	3.418492e+03	2.170288e+03	1.598306e+03	0	1.788447e-04
9.200000e+07	1.248529e+11	0.000000e+00	5.678392e-01	4.713968e+12	2.613907e+14	5.871416e+13	3.418327e+03	2.167363e+03	1.596152e+03	0	1.787537e-04
9.300000e+07	1.246624e+11	0.000000e+00	5.678392e-01	4.707310e+12	2.594175e+14	5.868210e+13	3.418162e+03	2.164467e+03	1.594020e+03	0	1.786628e-04
9.400000e+07	1.244720e+11	0.000000e+00	5.678392e-01	4.700657e+12	2.574731e+14	5.865007e+13	3.417998e+03	2.161599e+03	1.591908e+03	0	1.785717e-04
9.500000e+07	1.242817e+11	0.000000e+00	5.678392e-01	4.694008e+12	2.555570e+14	5.861806e+13	3.417834e+03	2.158759e+03	1.589816e+03	0	1.784807e-04
9.600000e+07	1.240916e+11	0.000000e+00	5.678392e-01	4.687366e+12	2.536685e+14	5.858608e+13	3.417669e+03	2.155947e+03	1.587745e+03	0	1.783897e-04
9.700000e+07	1.239017e+11	0.000000e+00	5.678392e-01	4.680730e+12	2.518071e+14	5.855412e+13	3.417506e+03	2.153161e+03	1.585693e+03	0	1.782986e-04
9.800000e+07	1.237120e+11	0.000000e+00	5.678392e-01	4.674102e+12	2.499724e+14	5.852218e+13	3.417342e+03	2.150402e+03	1.583662e+03	0	1.782076e-04
9.900000e+07	1.235226e+11	0.000000e+00	5.678392e-01	4.667483e+12	2.481636e+14	5.849027e+13	3.417179e+03	2.147669e+03	1.581649e+03	0	1.781166e-04
1.000000e+08	1.233334e+11	0.000000e+00	5.678392e-01	4.660873e+12	2.463805e+14	5.845838e+13	3.417015e+03	2.144962e+03	1.579656e+03	0	1.780256e-04
1.010000e+08	1.231445e+11	0.000000e+00	5.678392e-01	4.654274e+12	2.446224e+14	5.842652e+13	3.416852e+03	2.142281e+03	1.577681e+03	0	1.779347e-04
1.020000e+08	1.229560e+11	0.000000e+00	5.678392e-01	4.647685e+12	2.428888e+14	5.839468e+13	3.416690e+03	2.139625e+03	1.575725e+03	0	1.778438e-04
1.030000e+08	1.227677e+11	0.000000e+00	5.678392e-01	4.641108e+12	2.411793e+14	5.836286e+13	3.416527e+03	2.136993e+03	1.573786e+03	0	1.777530e-04
1.040000e+08	1.225798e+11	0.000000e+00	5.678392e-01	4.634543e+12	2.394935e+14	5.833107e+13	3.416365e+03	2.134386e+03	1.571866e+03	0	1.776623e-04
1.050000e+08	1.223923e+11	0.000000e+00	5.678392e-01	4.627991e+12	2.378308e+14	5.829929e+13	3.416203e+03	2.131803e+03	1.569964e+03	0	1.775716e-04
1.060000e+08	1.222052e+11	0.000000e+00	5.678392e-01	4.621453e+12	2.361908e+14	5.826755e+13	3.416041e+03	2.129243e+03	1.568079e+03	0	1.774811e-04
1.070000e+08	1.220185e+11	0.000000e+00	5.678392e-01	4.614929e+12	2.345732e+14	5.823583e+13	3.415880e+03	2.126707e+03	1.566211e+03	0	1.773907e-04
1.080000e+08	1.218322e+11	0.000000e+00	5.678392e-01	4.608419e+12	2.329774e+14	5.820413e+13	3.415718e+03	2.124194e+03	1.564361e+03	0	1.773003e-04
1.090000e+08	1.216463e+11	0.000000e+00	5.678392e-01	4.601925e+12	2.314031e+14	5.817245e+13	3.415557e+03	2.121704e+03	1.562527e+03	0	1.772101e-04
1.100000e+08	1.214609e+11	0.000000e+00	5.678392e-01	4.595446e+12	2.298498e+14	5.814080e+13	3.415396e+03	2.119236e+03	1.560709e+03	0	1.771201e-04
1.110000e+08	1.212760e+11	0.000000e+00	5.678392e-01	4.588984e+12	2.283172e+14	5.810917e+13	3.415236e+03	2.116790e+03	1.558908e+03	0	1.770301e-04
1.120000e+08	1.210915e+11	0.000000e+00	5.678392e-01	4.582538e+12	2.268050e+14	5.807757e+13	3.415075e+03	2.114366e+03	1.557123e+03	0	1.769403e-04
1.130000e+08	1.209075e+11	0.000000e+00	5.678392e-01	4.576109e+12	2.253126e+14	5.804598e+13	3.414915e+03	2.111964e+03	1.555354e+03	0	1.768506e-04
1.140000e+08	1.207240e+11	0.000000e+00	5.678392e-01	4.569698e+12	2.238398e+14	5.801443e+13	3.414755e+03	2.109583e+03	1.553600e+03	0	1.767611e-04
1.150000e+08	1.205411e+11	0.000000e+00	5.678392e-01	4.563304e+12	2.223862e+14	5.798289e+13	3.414595e+03	2.107223e+03	1.551862e+03	0	1.766718e-04
1.160000e+08	1.203586e+11	0.000000e+00	5.678392e-01	4.556929e+12	2.209514e+14	5.795138e+13	3.414436e+03	2.104883e+03	1.550139e+03	0	1.765826e-04
1.170000e+08	1.201767e+11	0.000000e+00	5.678392e-01	4.550572e+12	2.195352e+14	5.791989e+13	3.414277e+03	2.102564e+03	1.548431e+03	0	1.764936e-04
1.180000e+08	1.199953e+11	0.000000e+00	5.678392e-01	4.544233e+12	2.181371e+14	5.788843e+13	3.414118e+03	2.100265e+03	1.546738e+03	0	1.764047e-04
1.190000e+08	1.198144e+11	0.000000e+00	5.678392e-01	4.537914e+12	2.167569e+14	5.785699e+13	3.413959e+03	2.097986e+03	1.545060e+03	0	1.763161e-04
1.200000e+08	1.196342e+11	0.000000e+00	5.678392e-01	4.531615e+12	2.153942e+14	5.782557e+13	3.413800e+03	2.095726e+03	1.543396e+03	0	1.762276e-04
1.210000e+08	1.194544e+11	0.000000e+00	5.678392e-01	4.525335e+12	2.140488e+14	5.779418e+13	3.413642e+03	2.093486e+03	1.541746e+03	0	1.761393e-04
1.220000e+08	1.192753e+11	0.000000e+00	5.678392e-01	4.519075e+12	2.127202e+14	5.776280e+13	3.413484e+03	2.091265e+03	1.540110e+03	0	1.760512e-04
1.230000e+08	1.190967e+11	0.000000e+00	5.678392e-01	4.512835e+12	2.114084e+14	5.773146e+13	3.413326e+03	2.089063e+03	1.538488e+03	0	1.759633e-04
1.240000e+08	1.189187e+11	0.000000e+00	5.678392e-01	4.506616e+12	2.101128e+14	5.770013e+13	3.413168e+03	2.086879e+03	1.536880e+03	0	1.758756e-04
1.250000e+08	1.187414e+11	0.000000e+00	5.678392e-01	4.500417e+12	2.088333e+14	5.766883e+13	3.413010e+03	2.084714e+03	1.535286e+03	0	1.757881e-04
1.260000e+08	1.185646e+11	0.000000e+00	5.678392e-01	4.494239e+12	2.075696e+14	5.763755e+13	3.412853e+03	2.082567e+03	1.533705e+03	0	1.757008e-04
1.270000e+08	1.183884e+11	0.000000e+00	5.678392e-01	4.488082e+12	2.063214e+14	5.760630e+13	3.412696e+03	2.080438e+03	1.532137e+03	0	1.756138e-04
1.280000e+08	1.182128e+11	0.000000e+00	5.678392e-01	4.481946e+12	2.050885e+14	5.757507e+13	3.412539e+03	2.078326e+03	1.530582e+03	0	1.755269e-04
1.290000e+08	1.180378e+11	0.000000e+00	5.678392e-01	4.475832e+12	2.038705e+14	5.754386e+13	3.412382e+03	2.076232e+03	1.529039e+03	0	1.754403e-04
1.300000e+08	1.178635e+11	0.000000e+00	5.678392e-01	4.469739e+12	2.026673e+14	5.751267e+13	3.412226e+03	2.074156e+03	1.527510e+03	0	1.753538e-04
1.310000e+08	1.176897e+11	0.000000e+00	5.678392e-01	4.463668e+12	2.014785e+14	5.748151e+13	3.412070e+03	2.072096e+03	1.525993e+03	0	1.752676e-04
1.320000e+08	1.175166e+11	0.000000e+00	5.678392e-01	4.457619e+12	2.003040e+14	5.745037e+13	3.411914e+03	2.070053e+03	1.524489e+03	0	1.751817e-04
1.330000e+08	1.173441e+11	0.000000e+00	5.678392e-01	4.451591e+12	1.991435e+14	5.741926e+13	3.411758e+03	2.068027e+03	1.522996e+03	0	1.750959e-04
1.340000e+08	1.171723e+11	0.000000e+00	5.678392e-01	4.445586e+12	1.979968e+14	5.738817e+13	3.411602e+03	2.066017e+03	1.521516e+03	0	1.750104e-04
1.350000e+08	1.170011e+11	0.000000e+00	5.678392e-01	4.439602e+12	1.968636e+14	5.735710e+13	3.411447e+03	2.064023e+03	1.520048e+03	0	1.749251e-04
1.360000e+08	1.168305e+11	0.000000e+00	5.678392e-01	4.433641e+12	1.957437e+14	5.732605e+13	3.411291e+03	2.062046e+03	1.518592e+03	0	1.748401e-04
