#t		Qconv[W]	Ri[Rp]		R*[Rp]		Qc[W]		Qm[W]		Qr[W]		Tcmb[K]		Tl[K]		Tup[K]		RiFlag		Bs[T]
0.000000e+00	3.461151e+11	0.000000e+00	5.628141e-01	1.057780e+13	1.056638e+15	8.656365e+13	4.033812e+03	2.940915e+03	2.024118e+03	0	2.466230e-04
1.000000e+06	3.467938e+11	0.000000e+00	5.628141e-01	1.059685e+13	1.039216e+15	8.651552e+13	4.033552e+03	2.930610e+03	2.017025e+03	0	2.467841e-04
2.000000e+06	3.474026e+11	0.000000e+00	5.628141e-01	1.061394e+13	1.022276e+15	8.646743e+13	4.033293e+03	2.920491e+03	2.010061e+03	0	2.469285e-04
3.000000e+06	3.479452e+11	0.000000e+00	5.628141e-01	1.062916e+13	1.005799e+15	8.641938e+13	4.033032e+03	2.910553e+03	2.003220e+03	0	2.470570e-04
4.000000e+06	3.484252e+11	0.000000e+00	5.628141e-01	1.064262e+13	9.897682e+14	8.637137e+13	4.032772e+03	2.900791e+03	1.996501e+03	0	2.471705e-04
5.000000e+06	3.488459e+11	0.000000e+00	5.628141e-01	1.065440e+13	9.741680e+14	8.632338e+13	4.032511e+03	2.891199e+03	1.989900e+03	0	2.472699e-04
6.000000e+06	3.492104e+11	0.000000e+00	5.628141e-01	1.066461e+13	9.589827e+14	8.627544e+13	4.032250e+03	2.881774e+03	1.983413e+03	0	2.473560e-04
7.000000e+06	3.495217e+11	0.000000e+00	5.628141e-01	1.067332e+13	9.441977e+14	8.622753e+13	4.031988e+03	2.872511e+03	1.977037e+03	0	2.474295e-04
8.000000e+06	3.497827e+11	0.000000e+00	5.628141e-01	1.068061e+13	9.297988e+14	8.617966e+13	4.031727e+03	2.863405e+03	1.970771e+03	0	2.474911e-04
9.000000e+06	3.499959e+11	0.000000e+00	5.628141e-01	1.068656e+13	9.157726e+14	8.613182e+13	4.031465e+03	2.854454e+03	1.964609e+03	0	2.475414e-04
1.000000e+07	3.501640e+11	0.000000e+00	5.628141e-01	1.069124e+13	9.021061e+14	8.608402e+13	4.031203e+03	2.845651e+03	1.958551e+03	0	2.475810e-04
1.100000e+07	3.502893e+11	0.000000e+00	5.628141e-01	1.069471e+13	8.887870e+14	8.603626e+13	4.030941e+03	2.836995e+03	1.952593e+03	0	2.476105e-04
1.200000e+07	3.503741e+11	0.000000e+00	5.628141e-01	1.069704e+13	8.758034e+14	8.598853e+13	4.030678e+03	2.828480e+03	1.946733e+03	0	2.476305e-04
1.300000e+07	3.504205e+11	0.000000e+00	5.628141e-01	1.069830e+13	8.631441e+14	8.594083e+13	4.030416e+03	2.820104e+03	1.940968e+03	0	2.476414e-04
1.400000e+07	3.504306e+11	0.000000e+00	5.628141e-01	1.069852e+13	8.507980e+14	8.589318e+13	4.030154e+03	2.811863e+03	1.935296e+03	0	2.476438e-04
1.500000e+07	3.504063e+11	0.000000e+00	5.628141e-01	1.069778e+13	8.387549e+14	8.584556e+13	4.029892e+03	2.803754e+03	1.929714e+03	0	2.476381e-04
1.600000e+07	3.503493e+11	0.000000e+00	5.628141e-01	1.069613e+13	8.270047e+14	8.579797e+13	4.029629e+03	2.795773e+03	1.924221e+03	0	2.476246e-04
1.700000e+07	3.502615e+11	0.000000e+00	5.628141e-01	1.069360e+13	8.155379e+14	8.575042e+13	4.029367e+03	2.787917e+03	1.918815e+03	0	2.476040e-04
1.800000e+07	3.501445e+11	0.000000e+00	5.628141e-01	1.069025e+13	8.043451e+14	8.570291e+13	4.029105e+03	2.780183e+03	1.913492e+03	0	2.475764e-04
1.900000e+07	3.499997e+11	0.000000e+00	5.628141e-01	1.068612e+13	7.934178e+14	8.565543e+13	4.028843e+03	2.772569e+03	1.908251e+03	0	2.475423e-04
2.000000e+07	3.498288e+11	0.000000e+00	5.628141e-01	1.068126e+13	7.827472e+14	8.560798e+13	4.028581e+03	2.765071e+03	1.903091e+03	0	2.475020e-04
2.100000e+07	3.496331e+11	0.000000e+00	5.628141e-01	1.067569e+13	7.723253e+14	8.556058e+13	4.028319e+03	2.757687e+03	1.898009e+03	0	2.474558e-04
2.200000e+07	3.494139e+11	0.000000e+00	5.628141e-01	1.066947e+13	7.621444e+14	8.551320e+13	4.028057e+03	2.750414e+03	1.893003e+03	0	2.474041e-04
2.300000e+07	3.491724e+11	0.000000e+00	5.628141e-01	1.066262e+13	7.521967e+14	8.546587e+13	4.027796e+03	2.743250e+03	1.888072e+03	0	2.473471e-04
2.400000e+07	3.489100e+11	0.000000e+00	5.628141e-01	1.065518e+13	7.424753e+14	8.541856e+13	4.027534e+03	2.736191e+03	1.883214e+03	0	2.472851e-04
2.500000e+07	3.486277e+11	0.000000e+00	5.628141e-01	1.064718e+13	7.329729e+14	8.537130e+13	4.027273e+03	2.729236e+03	1.878427e+03	0	2.472184e-04
2.600000e+07	3.483265e+11	0.000000e+00	5.628141e-01	1.063865e+13	7.236831e+14	8.532407e+13	4.027012e+03	2.722383e+03	1.873710e+03	0	2.471472e-04
2.700000e+07	3.480076e+11	0.000000e+00	5.628141e-01	1.062961e+13	7.145994e+14	8.527687e+13	4.026751e+03	2.715628e+03	1.869061e+03	0	2.470717e-04
2.800000e+07	3.476719e+11	0.000000e+00	5.628141e-01	1.062011e+13	7.057155e+14	8.522971e+13	4.026491e+03	2.708970e+03	1.864479e+03	0	2.469922e-04
2.900000e+07	3.473203e+11	0.000000e+00	5.628141e-01	1.061016e+13	6.970256e+14	8.518259e+13	4.026230e+03	2.702407e+03	1.859961e+03	0	2.469090e-04
3.000000e+07	3.469537e+11	0.000000e+00	5.628141e-01	1.059979e+13	6.885239e+14	8.513550e+13	4.025970e+03	2.695936e+03	1.855508e+03	0	2.468221e-04
3.100000e+07	3.465730e+11	0.000000e+00	5.628141e-01	1.058901e+13	6.802048e+14	8.508845e+13	4.025710e+03	2.689556e+03	1.851116e+03	0	2.467317e-04
3.200000e+07	3.461788e+11	0.000000e+00	5.628141e-01	1.057787e+13	6.720630e+14	8.504143e+13	4.025451e+03	2.683264e+03	1.846786e+03	0	2.466382e-04
3.300000e+07	3.457721e+11	0.000000e+00	5.628141e-01	1.056636e+13	6.640934e+14	8.499445e+13	4.025191e+03	2.677059e+03	1.842515e+03	0	2.465415e-04
3.400000e+07	3.453535e+11	0.000000e+00	5.628141e-01	1.055453e+13	6.562911e+14	8.494750e+13	4.024932e+03	2.670939e+03	1.838303e+03	0	2.464420e-04
3.500000e+07	3.449237e+11	0.000000e+00	5.628141e-01	1.054237e+13	6.486513e+14	8.490058e+13	4.024673e+03	2.664902e+03	1.834148e+03	0	2.463397e-04
3.600000e+07	3.444833e+11	0.000000e+00	5.628141e-01	1.052992e+13	6.411694e+14	8.485371e+13	4.024415e+03	2.658946e+03	1.830049e+03	0	2.462348e-04
3.700000e+07	3.440330e+11	0.000000e+00	5.628141e-01	1.051719e+13	6.338409e+14	8.480686e+13	4.024157e+03	2.653069e+03	1.826004e+03	0	2.461275e-04
3.800000e+07	3.435733e+11	0.000000e+00	5.628141e-01	1.050420e+13	6.266616e+14	8.476006e+13	4.023899e+03	2.647271e+03	1.822014e+03	0	2.460178e-04
3.900000e+07	3.431049e+11	0.000000e+00	5.628141e-01	1.049096e+13	6.196274e+14	8.471328e+13	4.023641e+03	2.641549e+03	1.818076e+03	0	2.459060e-04
4.000000e+07	3.426282e+11	0.000000e+00	5.628141e-01	1.047749e+13	6.127342e+14	8.466655e+13	4.023384e+03	2.635902e+03	1.814189e+03	0	2.457920e-04
4.100000e+07	3.421437e+11	0.000000e+00	5.628141e-01	1.046380e+13	6.059781e+14	8.461984e+13	4.023127e+03	2.630329e+03	1.810353e+03	0	2.456761e-04
4.200000e+07	3.416520e+11	0.000000e+00	5.628141e-01	1.044991e+13	5.993556e+14	8.457318e+13	4.022871e+03	2.624827e+03	1.806566e+03	0	2.455584e-04
4.300000e+07	3.411536e+11	0.000000e+00	5.628141e-01	1.043582e+13	5.928629e+14	8.452654e+13	4.022615e+03	2.619395e+03	1.802828e+03	0	2.454389e-04
4.400000e+07	3.406487e+11	0.000000e+00	5.628141e-01	1.042156e+13	5.864966e+14	8.447995e+13	4.022359e+03	2.614033e+03	1.799137e+03	0	2.453178e-04
4.500000e+07	3.401379e+11	0.000000e+00	5.628141e-01	1.040713e+13	5.802534e+14	8.443338e+13	4.022103e+03	2.608738e+03	1.795493e+03	0	2.451951e-04
4.600000e+07	3.396216e+11	0.000000e+00	5.628141e-01	1.039254e+13	5.741300e+14	8.438686e+13	4.021848e+03	2.603510e+03	1.791894e+03	0	2.450710e-04
4.700000e+07	3.391002e+11	0.000000e+00	5.628141e-01	1.037781e+13	5.681232e+14	8.434036e+13	4.021593e+03	2.598346e+03	1.788341e+03	0	2.449455e-04
4.800000e+07	3.385739e+11	0.000000e+00	5.628141e-01	1.036294e+13	5.622301e+14	8.429390e+13	4.021339e+03	2.593247e+03	1.784831e+03	0	2.448187e-04
4.900000e+07	3.380432e+11	0.000000e+00	5.628141e-01	1.034795e+13	5.564476e+14	8.424748e+13	4.021085e+03	2.588210e+03	1.781364e+03	0	2.446907e-04
5.000000e+07	3.375083e+11	0.000000e+00	5.628141e-01	1.033284e+13	5.507730e+14	8.420109e+13	4.020831e+03	2.583234e+03	1.777940e+03	0	2.445616e-04
5.100000e+07	3.369697e+11	0.000000e+00	5.628141e-01	1.031762e+13	5.452035e+14	8.415474e+13	4.020578e+03	2.578319e+03	1.774557e+03	0	2.444314e-04
5.200000e+07	3.364275e+11	0.000000e+00	5.628141e-01	1.030231e+13	5.397365e+14	8.410842e+13	4.020325e+03	2.573463e+03	1.771214e+03	0	2.443003e-04
5.300000e+07	3.358821e+11	0.000000e+00	5.628141e-01	1.028691e+13	5.343692e+14	8.406213e+13	4.020072e+03	2.568665e+03	1.767912e+03	0	2.441682e-04
5.400000e+07	3.353338e+11	0.000000e+00	5.628141e-01	1.027142e+13	5.290994e+14	8.401588e+13	4.019820e+03	2.563924e+03	1.764649e+03	0	2.440352e-04
5.500000e+07	3.347827e+11	0.000000e+00	5.628141e-01	1.025585e+13	5.239245e+14	8.396967e+13	4.019568e+03	2.559239e+03	1.761424e+03	0	2.439015e-04
5.600000e+07	3.342292e+11	0.000000e+00	5.628141e-01	1.024022e+13	5.188422e+14	8.392348e+13	4.019317e+03	2.554608e+03	1.758238e+03	0	2.437670e-04
5.700000e+07	3.336735e+11	0.000000e+00	5.628141e-01	1.022453e+13	5.138502e+14	8.387734e+13	4.019066e+03	2.550032e+03	1.755088e+03	0	2.436318e-04
5.800000e+07	3.331158e+11	0.000000e+00	5.628141e-01	1.020877e+13	5.089463e+14	8.383123e+13	4.018815e+03	2.545509e+03	1.751975e+03	0	2.434960e-04
5.900000e+07	3.325563e+11	0.000000e+00	5.628141e-01	1.019297e+13	5.041284e+14	8.378515e+13	4.018565e+03	2.541038e+03	1.748897e+03	0	2.433596e-04
6.000000e+07	3.319952e+11	0.000000e+00	5.628141e-01	1.017713e+13	4.993945e+14	8.373910e+13	4.018315e+03	2.536617e+03	1.745855e+03	0	2.432227e-04
6.100000e+07	3.314327e+11	0.000000e+00	5.628141e-01	1.016124e+13	4.947424e+14	8.369310e+13	4.018065e+03	2.532247e+03	1.742847e+03	0	2.430852e-04
6.200000e+07	3.308690e+11	0.000000e+00	5.628141e-01	1.014532e+13	4.901704e+14	8.364712e+13	4.017816e+03	2.527927e+03	1.739873e+03	0	2.429473e-04
6.300000e+07	3.303043e+11	0.000000e+00	5.628141e-01	1.012938e+13	4.856764e+14	8.360118e+13	4.017567e+03	2.523654e+03	1.736933e+03	0	2.428091e-04
6.400000e+07	3.297388e+11	0.000000e+00	5.628141e-01	1.011340e+13	4.812587e+14	8.355527e+13	4.017319e+03	2.519430e+03	1.734025e+03	0	2.426704e-04
6.500000e+07	3.291725e+11	0.000000e+00	5.628141e-01	1.009741e+13	4.769154e+14	8.350940e+13	4.017071e+03	2.515252e+03	1.731150e+03	0	2.425314e-04
6.600000e+07	3.286057e+11	0.000000e+00	5.628141e-01	1.008141e+13	4.726450e+14	8.346357e+13	4.016824e+03	2.511120e+03	1.728306e+03	0	2.423921e-04
6.700000e+07	3.280385e+11	0.000000e+00	5.628141e-01	1.006539e+13	4.684455e+14	8.341776e+13	4.016576e+03	2.507034e+03	1.725494e+03	0	2.422526e-04
6.800000e+07	3.274710e+11	0.000000e+00	5.628141e-01	1.004936e+13	4.643156e+14	8.337199e+13	4.016330e+03	2.502991e+03	1.722712e+03	0	2.421128e-04
6.900000e+07	3.269034e+11	0.000000e+00	5.628141e-01	1.003333e+13	4.602535e+14	8.332626e+13	4.016083e+03	2.498993e+03	1.719960e+03	0	2.419728e-04
7.000000e+07	3.263357e+11	0.000000e+00	5.628141e-01	1.001730e+13	4.562577e+14	8.328056e+13	4.015837e+03	2.495038e+03	1.717237e+03	0	2.418327e-04
7.100000e+07	3.257682e+11	0.000000e+00	5.628141e-01	1.000128e+13	4.523268e+14	8.323489e+13	4.015592e+03	2.491125e+03	1.714544e+03	0	2.416924e-04
7.200000e+07	3.252009e+11	0.000000e+00	5.628141e-01	9.985256e+12	4.484593e+14	8.318926e+13	4.015346e+03	2.487253e+03	1.711880e+03	0	2.415520e-04
7.300000e+07	3.246339e+11	0.000000e+00	5.628141e-01	9.969245e+12	4.446538e+14	8.314366e+13	4.015102e+03	2.483423e+03	1.709243e+03	0	2.414116e-04
7.400000e+07	3.240673e+11	0.000000e+00	5.628141e-01	9.953246e+12	4.409089e+14	8.309810e+13	4.014857e+03	2.479632e+03	1.706634e+03	0	2.412710e-04
7.500000e+07	3.235013e+11	0.000000e+00	5.628141e-01	9.937262e+12	4.372233e+14	8.305256e+13	4.014613e+03	2.475882e+03	1.704053e+03	0	2.411305e-04
7.600000e+07	3.229359e+11	0.000000e+00	5.628141e-01	9.921296e+12	4.335957e+14	8.300707e+13	4.014370e+03	2.472170e+03	1.701498e+03	0	2.409899e-04
7.700000e+07	3.223712e+11	0.000000e+00	5.628141e-01	9.905349e+12	4.300248e+14	8.296161e+13	4.014126e+03	2.468496e+03	1.698970e+03	0	2.408494e-04
7.800000e+07	3.218072e+11	0.000000e+00	5.628141e-01	9.889425e+12	4.265095e+14	8.291618e+13	4.013883e+03	2.464861e+03	1.696468e+03	0	2.407088e-04
7.900000e+07	3.212442e+11	0.000000e+00	5.628141e-01	9.873526e+12	4.230484e+14	8.287078e+13	4.013641e+03	2.461262e+03	1.693991e+03	0	2.405684e-04
8.000000e+07	3.206821e+11	0.000000e+00	5.628141e-01	9.857653e+12	4.196406e+14	8.282542e+13	4.013399e+03	2.457700e+03	1.691539e+03	0	2.404280e-04
8.100000e+07	3.201210e+11	0.000000e+00	5.628141e-01	9.841808e+12	4.162848e+14	8.278009e+13	4.013157e+03	2.454174e+03	1.689113e+03	0	2.402877e-04
8.200000e+07	3.195610e+11	0.000000e+00	5.628141e-01	9.825995e+12	4.129799e+14	8.273480e+13	4.012916e+03	2.450684e+03	1.686710e+03	0	2.401475e-04
8.300000e+07	3.190022e+11	0.000000e+00	5.628141e-01	9.810214e+12	4.097249e+14	8.268954e+13	4.012675e+03	2.447228e+03	1.684332e+03	0	2.400074e-04
8.400000e+07	3.184446e+11	0.000000e+00	5.628141e-01	9.794467e+12	4.065187e+14	8.264432e+13	4.012435e+03	2.443807e+03	1.681977e+03	0	2.398675e-04
8.500000e+07	3.178882e+11	0.000000e+00	5.628141e-01	9.778756e+12	4.033604e+14	8.259912e+13	4.012194e+03	2.440419e+03	1.679646e+03	0	2.397277e-04
8.600000e+07	3.173332e+11	0.000000e+00	5.628141e-01	9.763082e+12	4.002489e+14	8.255397e+13	4.011955e+03	2.437065e+03	1.677337e+03	0	2.395881e-04
8.700000e+07	3.167795e+11	0.000000e+00	5.628141e-01	9.747448e+12	3.971833e+14	8.250884e+13	4.011715e+03	2.433744e+03	1.675051e+03	0	2.394487e-04
8.800000e+07	3.162273e+11	0.000000e+00	5.628141e-01	9.731853e+12	3.941626e+14	8.246375e+13	4.011476e+03	2.430455e+03	1.672787e+03	0	2.393095e-04
8.900000e+07	3.156765e+11	0.000000e+00	5.628141e-01	9.716300e+12	3.911860e+14	8.241869e+13	4.011238e+03	2.427198e+03	1.670546e+03	0	2.391705e-04
9.000000e+07	3.151273e+11	0.000000e+00	5.628141e-01	9.700790e+12	3.882525e+14	8.237367e+13	4.010999e+03	2.423972e+03	1.668325e+03	0	2.390317e-04
9.100000e+07	3.145796e+11	0.000000e+00	5.628141e-01	9.685324e+12	3.853613e+14	8.232868e+13	4.010762e+03	2.420777e+03	1.666127e+03	0	2.388931e-04
9.200000e+07	3.140335e+11	0.000000e+00	5.628141e-01	9.669903e+12	3.825115e+14	8.228372e+13	4.010524e+03	2.417613e+03	1.663949e+03	0	2.387548e-04
9.300000e+07	3.134890e+11	0.000000e+00	5.628141e-01	9.654528e+12	3.797024e+14	8.223880e+13	4.010287e+03	2.414478e+03	1.661791e+03	0	2.386167e-04
9.400000e+07	3.129463e+11	0.000000e+00	5.628141e-01	9.639200e+12	3.769331e+14	8.219391e+13	4.010050e+03	2.411373e+03	1.659654e+03	0	2.384789e-04
9.500000e+07	3.124052e+11	0.000000e+00	5.628141e-01	9.623920e+12	3.742028e+14	8.214905e+13	4.009814e+03	2.408298e+03	1.657538e+03	0	2.383414e-04
9.600000e+07	3.118659e+11	0.000000e+00	5.628141e-01	9.608690e+12	3.715108e+14	8.210423e+13	4.009578e+03	2.405251e+03	1.655440e+03	0	2.382042e-04
9.700000e+07	3.113283e+11	0.000000e+00	5.628141e-01	9.593509e+12	3.688563e+14	8.205944e+13	4.009343e+03	2.402232e+03	1.653363e+03	0	2.380672e-04
9.800000e+07	3.107925e+11	0.000000e+00	5.628141e-01	9.578378e+12	3.662386e+14	8.201468e+13	4.009107e+03	2.399241e+03	1.651304e+03	0	2.379306e-04
9.900000e+07	3.102586e+11	0.000000e+00	5.628141e-01	9.563299e+12	3.636570e+14	8.196996e+13	4.008873e+03	2.396278e+03	1.649265e+03	0	2.377943e-04
1.000000e+08	3.097264e+11	0.000000e+00	5.628141e-01	9.548272e+12	3.611108e+14	8.192527e+13	4.008638e+03	2.393342e+03	1.647244e+03	0	2.376582e-04
1.010000e+08	3.091962e+11	0.000000e+00	5.628141e-01	9.533297e+12	3.585994e+14	8.188062e+13	4.008404e+03	2.390433e+03	1.645242e+03	0	2.375225e-04
1.020000e+08	3.086678e+11	0.000000e+00	5.628141e-01	9.518375e+12	3.561220e+14	8.183599e+13	4.008170e+03	2.387550e+03	1.643258e+03	0	2.373872e-04
1.030000e+08	3.081414e+11	0.000000e+00	5.628141e-01	9.503507e+12	3.536781e+14	8.179140e+13	4.007937e+03	2.384693e+03	1.641292e+03	0	2.372521e-04
1.040000e+08	3.076168e+11	0.000000e+00	5.628141e-01	9.488694e+12	3.512670e+14	8.174685e+13	4.007704e+03	2.381862e+03	1.639343e+03	0	2.371174e-04
1.050000e+08	3.070942e+11	0.000000e+00	5.628141e-01	9.473935e+12	3.488881e+14	8.170232e+13	4.007471e+03	2.379056e+03	1.637412e+03	0	2.369831e-04
1.060000e+08	3.065736e+11	0.000000e+00	5.628141e-01	9.459231e+12	3.465408e+14	8.165783e+13	4.007239e+03	2.376275e+03	1.635498e+03	0	2.368491e-04
1.070000e+08	3.060549e+11	0.000000e+00	5.628141e-01	9.444583e+12	3.442245e+14	8.161337e+13	4.007007e+03	2.373519e+03	1.633601e+03	0	2.367154e-04
1.080000e+08	3.055383e+11	0.000000e+00	5.628141e-01	9.429991e+12	3.419387e+14	8.156895e+13	4.006775e+03	2.370787e+03	1.631720e+03	0	2.365821e-04
1.090000e+08	3.050236e+11	0.000000e+00	5.628141e-01	9.415455e+12	3.396828e+14	8.152456e+13	4.006544e+03	2.368079e+03	1.629857e+03	0	2.364492e-04
1.100000e+08	3.045109e+11	0.000000e+00	5.628141e-01	9.400975e+12	3.374562e+14	8.148020e+13	4.006313e+03	2.365395e+03	1.628009e+03	0	2.363167e-04
1.110000e+08	3.040002e+11	0.000000e+00	5.628141e-01	9.386553e+12	3.352585e+14	8.143588e+13	4.006083e+03	2.362734e+03	1.626178e+03	0	2.361845e-04
1.120000e+08	3.034916e+11	0.000000e+00	5.628141e-01	9.372187e+12	3.330890e+14	8.139158e+13	4.005853e+03	2.360096e+03	1.624362e+03	0	2.360527e-04
1.130000e+08	3.029850e+11	0.000000e+00	5.628141e-01	9.357879e+12	3.309474e+14	8.134732e+13	4.005623e+03	2.357481e+03	1.622562e+03	0	2.359213e-04
1.140000e+08	3.024804e+11	0.000000e+00	5.628141e-01	9.343629e+12	3.288331e+14	8.130310e+13	4.005394e+03	2.354888e+03	1.620778e+03	0	2.357903e-04
1.150000e+08	3.019779e+11	0.000000e+00	5.628141e-01	9.329436e+12	3.267456e+14	8.125890e+13	4.005164e+03	2.352317e+03	1.619008e+03	0	2.356596e-04
1.160000e+08	3.014775e+11	0.000000e+00	5.628141e-01	9.315301e+12	3.246844e+14	8.121474e+13	4.004936e+03	2.349768e+03	1.617254e+03	0	2.355294e-04
1.170000e+08	3.009791e+11	0.000000e+00	5.628141e-01	9.301225e+12	3.226491e+14	8.117062e+13	4.004707e+03	2.347241e+03	1.615515e+03	0	2.353995e-04
1.180000e+08	3.004828e+11	0.000000e+00	5.628141e-01	9.287206e+12	3.206393e+14	8.112652e+13	4.004479e+03	2.344735e+03	1.613790e+03	0	2.352700e-04
1.190000e+08	2.999885e+11	0.000000e+00	5.628141e-01	9.273246e+12	3.186544e+14	8.108246e+13	4.004252e+03	2.342250e+03	1.612080e+03	0	2.351410e-04
1.200000e+08	2.994963e+11	0.000000e+00	5.628141e-01	9.259344e+12	3.166941e+14	8.103843e+13	4.004024e+03	2.339786e+03	1.610384e+03	0	2.350123e-04
1.210000e+08	2.990062e+11	0.000000e+00	5.628141e-01	9.245500e+12	3.147579e+14	8.099443e+13	4.003797e+03	2.337342e+03	1.608702e+03	0	2.348840e-04
1.220000e+08	2.985181e+11	0.000000e+00	5.628141e-01	9.231715e+12	3.128455e+14	8.095047e+13	4.003571e+03	2.334919e+03	1.607034e+03	0	2.347562e-04
1.230000e+08	2.980322e+11	0.000000e+00	5.628141e-01	9.217989e+12	3.109564e+14	8.090654e+13	4.003344e+03	2.332516e+03	1.605380e+03	0	2.346287e-04
1.240000e+08	2.975483e+11	0.000000e+00	5.628141e-01	9.204321e+12	3.090902e+14	8.086264e+13	4.003118e+03	2.330132e+03	1.603739e+03	0	2.345017e-04
1.250000e+08	2.970665e+11	0.000000e+00	5.628141e-01	9.190711e+12	3.072465e+14	8.081877e+13	4.002893e+03	2.327768e+03	1.602112e+03	0	2.343750e-04
1.260000e+08	2.965867e+11	0.000000e+00	5.628141e-01	9.177160e+12	3.054250e+14	8.077494e+13	4.002667e+03	2.325422e+03	1.600498e+03	0	2.342488e-04
1.270000e+08	2.961091e+11	0.000000e+00	5.628141e-01	9.163667e+12	3.036253e+14	8.073114e+13	4.002442e+03	2.323096e+03	1.598897e+03	0	2.341230e-04
1.280000e+08	2.956335e+11	0.000000e+00	5.628141e-01	9.150233e+12	3.018470e+14	8.068737e+13	4.002218e+03	2.320789e+03	1.597309e+03	0	2.339976e-04
1.290000e+08	2.951600e+11	0.000000e+00	5.628141e-01	9.136857e+12	3.000898e+14	8.064363e+13	4.001993e+03	2.318501e+03	1.595734e+03	0	2.338726e-04
1.300000e+08	2.946885e+11	0.000000e+00	5.628141e-01	9.123540e+12	2.983533e+14	8.059993e+13	4.001769e+03	2.316230e+03	1.594171e+03	0	2.337480e-04
1.310000e+08	2.942191e+11	0.000000e+00	5.628141e-01	9.110281e+12	2.966371e+14	8.055626e+13	4.001545e+03	2.313978e+03	1.592621e+03	0	2.336238e-04
1.320000e+08	2.937518e+11	0.000000e+00	5.628141e-01	9.097079e+12	2.949411e+14	8.051262e+13	4.001322e+03	2.311743e+03	1.591083e+03	0	2.335000e-04
1.330000e+08	2.932865e+11	0.000000e+00	5.628141e-01	9.083936e+12	2.932647e+14	8.046901e+13	4.001099e+03	2.309527e+03	1.589557e+03	0	2.333767e-04
1.340000e+08	2.928233e+11	0.000000e+00	5.628141e-01	9.070851e+12	2.916077e+14	8.042544e+13	4.000876e+03	2.307327e+03	1.588044e+03	0	2.332538e-04
1.350000e+08	2.923621e+11	0.000000e+00	5.628141e-01	9.057823e+12	2.899699e+14	8.038190e+13	4.000654e+03	2.305145e+03	1.586542e+03	0	2.331312e-04
1.360000e+08	2.919030e+11	0.000000e+00	5.628141e-01	9.044853e+12	2.883508e+14	8.033839e+13	4.000432e+03	2.302980e+03	1.585052e+03	0	2.330091e-04
