#t		Qconv[W]	Ri[Rp]		R*[Rp]		Qc[W]		Qm[W]		Qr[W]		Tcmb[K]		Tl[K]		Tup[K]		RiFlag		Bs[T]
0.000000e+00	5.024750e+11	0.000000e+00	5.628141e-01	1.406113e+13	1.199228e+15	9.864962e+13	4.299020e+03	3.065699e+03	2.050982e+03	0	2.766789e-04
1.000000e+06	5.030067e+11	0.000000e+00	5.628141e-01	1.407469e+13	1.180029e+15	9.859478e+13	4.298724e+03	3.055328e+03	2.044044e+03	0	2.767764e-04
2.000000e+06	5.034582e+11	0.000000e+00	5.628141e-01	1.408619e+13	1.161347e+15	9.853997e+13	4.298427e+03	3.045138e+03	2.037227e+03	0	2.768592e-04
3.000000e+06	5.038339e+11	0.000000e+00	5.628141e-01	1.409575e+13	1.143162e+15	9.848521e+13	4.298130e+03	3.035126e+03	2.030528e+03	0	2.769281e-04
4.000000e+06	5.041379e+11	0.000000e+00	5.628141e-01	1.410346e+13	1.125457e+15	9.843049e+13	4.297833e+03	3.025286e+03	2.023945e+03	0	2.769838e-04
5.000000e+06	5.043740e+11	0.000000e+00	5.628141e-01	1.410944e+13	1.108215e+15	9.837581e+13	4.297536e+03	3.015614e+03	2.017475e+03	0	2.770270e-04
6.000000e+06	5.045459e+11	0.000000e+00	5.628141e-01	1.411377e+13	1.091420e+15	9.832117e+13	4.297238e+03	3.006105e+03	2.011113e+03	0	2.770585e-04
7.000000e+06	5.046571e+11	0.000000e+00	5.628141e-01	1.411654e+13	1.075056e+15	9.826658e+13	4.296941e+03	2.996755e+03	2.004858e+03	0	2.770788e-04
8.000000e+06	5.047108e+11	0.000000e+00	5.628141e-01	1.411784e+13	1.059108e+15	9.821202e+13	4.296643e+03	2.987561e+03	1.998707e+03	0	2.770886e-04
9.000000e+06	5.047101e+11	0.000000e+00	5.628141e-01	1.411774e+13	1.043563e+15	9.815750e+13	4.296346e+03	2.978517e+03	1.992657e+03	0	2.770885e-04
1.000000e+07	5.046580e+11	0.000000e+00	5.628141e-01	1.411632e+13	1.028407e+15	9.810303e+13	4.296048e+03	2.969621e+03	1.986705e+03	0	2.770790e-04
1.100000e+07	5.045573e+11	0.000000e+00	5.628141e-01	1.411366e+13	1.013627e+15	9.804859e+13	4.295750e+03	2.960868e+03	1.980849e+03	0	2.770605e-04
1.200000e+07	5.044105e+11	0.000000e+00	5.628141e-01	1.410981e+13	9.992091e+14	9.799420e+13	4.295453e+03	2.952256e+03	1.975087e+03	0	2.770337e-04
1.300000e+07	5.042202e+11	0.000000e+00	5.628141e-01	1.410485e+13	9.851430e+14	9.793985e+13	4.295155e+03	2.943780e+03	1.969417e+03	0	2.769988e-04
1.400000e+07	5.039887e+11	0.000000e+00	5.628141e-01	1.409883e+13	9.714166e+14	9.788554e+13	4.294858e+03	2.935437e+03	1.963835e+03	0	2.769564e-04
1.500000e+07	5.037183e+11	0.000000e+00	5.628141e-01	1.409181e+13	9.580188e+14	9.783127e+13	4.294561e+03	2.927224e+03	1.958341e+03	0	2.769069e-04
1.600000e+07	5.034111e+11	0.000000e+00	5.628141e-01	1.408385e+13	9.449392e+14	9.777704e+13	4.294264e+03	2.919138e+03	1.952931e+03	0	2.768506e-04
1.700000e+07	5.030691e+11	0.000000e+00	5.628141e-01	1.407499e+13	9.321675e+14	9.772285e+13	4.293967e+03	2.911176e+03	1.947605e+03	0	2.767879e-04
1.800000e+07	5.026942e+11	0.000000e+00	5.628141e-01	1.406529e+13	9.196940e+14	9.766870e+13	4.293670e+03	2.903335e+03	1.942359e+03	0	2.767191e-04
1.900000e+07	5.022883e+11	0.000000e+00	5.628141e-01	1.405480e+13	9.075093e+14	9.761459e+13	4.293374e+03	2.895612e+03	1.937192e+03	0	2.766446e-04
2.000000e+07	5.018529e+11	0.000000e+00	5.628141e-01	1.404355e+13	8.956043e+14	9.756053e+13	4.293077e+03	2.888005e+03	1.932103e+03	0	2.765647e-04
2.100000e+07	5.013898e+11	0.000000e+00	5.628141e-01	1.403159e+13	8.839704e+14	9.750650e+13	4.292781e+03	2.880510e+03	1.927089e+03	0	2.764796e-04
2.200000e+07	5.009006e+11	0.000000e+00	5.628141e-01	1.401896e+13	8.725993e+14	9.745251e+13	4.292485e+03	2.873125e+03	1.922148e+03	0	2.763896e-04
2.300000e+07	5.003866e+11	0.000000e+00	5.628141e-01	1.400569e+13	8.614830e+14	9.739857e+13	4.292190e+03	2.865848e+03	1.917280e+03	0	2.762950e-04
2.400000e+07	4.998492e+11	0.000000e+00	5.628141e-01	1.399182e+13	8.506136e+14	9.734466e+13	4.291895e+03	2.858676e+03	1.912482e+03	0	2.761961e-04
2.500000e+07	4.992899e+11	0.000000e+00	5.628141e-01	1.397739e+13	8.399839e+14	9.729080e+13	4.291600e+03	2.851607e+03	1.907752e+03	0	2.760930e-04
2.600000e+07	4.987098e+11	0.000000e+00	5.628141e-01	1.396243e+13	8.295866e+14	9.723697e+13	4.291305e+03	2.844639e+03	1.903090e+03	0	2.759861e-04
2.700000e+07	4.981102e+11	0.000000e+00	5.628141e-01	1.394697e+13	8.194148e+14	9.718319e+13	4.291011e+03	2.837768e+03	1.898494e+03	0	2.758754e-04
2.800000e+07	4.974922e+11	0.000000e+00	5.628141e-01	1.393103e+13	8.094621e+14	9.712944e+13	4.290716e+03	2.830995e+03	1.893962e+03	0	2.757613e-04
2.900000e+07	4.968568e+11	0.000000e+00	5.628141e-01	1.391465e+13	7.997218e+14	9.707574e+13	4.290423e+03	2.824315e+03	1.889494e+03	0	2.756438e-04
3.000000e+07	4.962050e+11	0.000000e+00	5.628141e-01	1.389785e+13	7.901880e+14	9.702208e+13	4.290129e+03	2.817727e+03	1.885087e+03	0	2.755232e-04
3.100000e+07	4.955380e+11	0.000000e+00	5.628141e-01	1.388066e+13	7.808546e+14	9.696845e+13	4.289836e+03	2.811230e+03	1.880740e+03	0	2.753997e-04
3.200000e+07	4.948565e+11	0.000000e+00	5.628141e-01	1.386309e+13	7.717159e+14	9.691487e+13	4.289544e+03	2.804821e+03	1.876452e+03	0	2.752734e-04
3.300000e+07	4.941615e+11	0.000000e+00	5.628141e-01	1.384518e+13	7.627665e+14	9.686133e+13	4.289252e+03	2.798498e+03	1.872222e+03	0	2.751445e-04
3.400000e+07	4.934537e+11	0.000000e+00	5.628141e-01	1.382695e+13	7.540010e+14	9.680782e+13	4.288960e+03	2.792260e+03	1.868049e+03	0	2.750131e-04
3.500000e+07	4.927341e+11	0.000000e+00	5.628141e-01	1.380841e+13	7.454142e+14	9.675436e+13	4.288668e+03	2.786105e+03	1.863931e+03	0	2.748793e-04
3.600000e+07	4.920033e+11	0.000000e+00	5.628141e-01	1.378958e+13	7.370012e+14	9.670094e+13	4.288377e+03	2.780031e+03	1.859867e+03	0	2.747434e-04
3.700000e+07	4.912621e+11	0.000000e+00	5.628141e-01	1.377048e+13	7.287572e+14	9.664756e+13	4.288086e+03	2.774036e+03	1.855857e+03	0	2.746053e-04
3.800000e+07	4.905112e+11	0.000000e+00	5.628141e-01	1.375114e+13	7.206777e+14	9.659421e+13	4.287796e+03	2.768120e+03	1.851898e+03	0	2.744653e-04
3.900000e+07	4.897511e+11	0.000000e+00	5.628141e-01	1.373156e+13	7.127580e+14	9.654091e+13	4.287506e+03	2.762279e+03	1.847991e+03	0	2.743235e-04
4.000000e+07	4.889826e+11	0.000000e+00	5.628141e-01	1.371177e+13	7.049940e+14	9.648765e+13	4.287217e+03	2.756514e+03	1.844134e+03	0	2.741799e-04
4.100000e+07	4.882063e+11	0.000000e+00	5.628141e-01	1.369177e+13	6.973814e+14	9.643442e+13	4.286928e+03	2.750822e+03	1.840326e+03	0	2.740348e-04
4.200000e+07	4.874225e+11	0.000000e+00	5.628141e-01	1.367159e+13	6.899162e+14	9.638124e+13	4.286639e+03	2.745201e+03	1.836566e+03	0	2.738880e-04
4.300000e+07	4.866321e+11	0.000000e+00	5.628141e-01	1.365123e+13	6.825945e+14	9.632810e+13	4.286351e+03	2.739652e+03	1.832853e+03	0	2.737399e-04
4.400000e+07	4.858353e+11	0.000000e+00	5.628141e-01	1.363071e+13	6.754127e+14	9.627499e+13	4.286063e+03	2.734171e+03	1.829187e+03	0	2.735904e-04
4.500000e+07	4.850327e+11	0.000000e+00	5.628141e-01	1.361004e+13	6.683669e+14	9.622193e+13	4.285776e+03	2.728758e+03	1.825565e+03	0	2.734397e-04
4.600000e+07	4.842249e+11	0.000000e+00	5.628141e-01	1.358924e+13	6.614537e+14	9.616890e+13	4.285489e+03	2.723412e+03	1.821989e+03	0	2.732878e-04
4.700000e+07	4.834121e+11	0.000000e+00	5.628141e-01	1.356831e+13	6.546697e+14	9.611592e+13	4.285202e+03	2.718131e+03	1.818456e+03	0	2.731348e-04
4.800000e+07	4.825949e+11	0.000000e+00	5.628141e-01	1.354726e+13	6.480116e+14	9.606298e+13	4.284916e+03	2.712914e+03	1.814965e+03	0	2.729808e-04
4.900000e+07	4.817736e+11	0.000000e+00	5.628141e-01	1.352612e+13	6.414761e+14	9.601007e+13	4.284630e+03	2.707760e+03	1.811517e+03	0	2.728258e-04
5.000000e+07	4.809486e+11	0.000000e+00	5.628141e-01	1.350487e+13	6.350603e+14	9.595720e+13	4.284345e+03	2.702667e+03	1.808110e+03	0	2.726700e-04
5.100000e+07	4.801202e+11	0.000000e+00	5.628141e-01	1.348354e+13	6.287611e+14	9.590438e+13	4.284061e+03	2.697635e+03	1.804744e+03	0	2.725134e-04
5.200000e+07	4.792889e+11	0.000000e+00	5.628141e-01	1.346214e+13	6.225756e+14	9.585159e+13	4.283776e+03	2.692662e+03	1.801417e+03	0	2.723560e-04
5.300000e+07	4.784549e+11	0.000000e+00	5.628141e-01	1.344067e+13	6.165009e+14	9.579884e+13	4.283493e+03	2.687748e+03	1.798129e+03	0	2.721980e-04
5.400000e+07	4.776186e+11	0.000000e+00	5.628141e-01	1.341913e+13	6.105345e+14	9.574614e+13	4.283209e+03	2.682891e+03	1.794880e+03	0	2.720393e-04
5.500000e+07	4.767802e+11	0.000000e+00	5.628141e-01	1.339755e+13	6.046736e+14	9.569347e+13	4.282926e+03	2.678090e+03	1.791668e+03	0	2.718800e-04
5.600000e+07	4.759400e+11	0.000000e+00	5.628141e-01	1.337592e+13	5.989156e+14	9.564084e+13	4.282644e+03	2.673344e+03	1.788493e+03	0	2.717202e-04
5.700000e+07	4.750983e+11	0.000000e+00	5.628141e-01	1.335425e+13	5.932582e+14	9.558825e+13	4.282362e+03	2.668653e+03	1.785354e+03	0	2.715599e-04
5.800000e+07	4.742554e+11	0.000000e+00	5.628141e-01	1.333254e+13	5.876988e+14	9.553570e+13	4.282080e+03	2.664015e+03	1.782252e+03	0	2.713992e-04
5.900000e+07	4.734115e+11	0.000000e+00	5.628141e-01	1.331082e+13	5.822352e+14	9.548319e+13	4.281799e+03	2.659429e+03	1.779184e+03	0	2.712382e-04
6.000000e+07	4.725668e+11	0.000000e+00	5.628141e-01	1.328907e+13	5.768651e+14	9.543071e+13	4.281519e+03	2.654895e+03	1.776150e+03	0	2.710767e-04
6.100000e+07	4.717215e+11	0.000000e+00	5.628141e-01	1.326731e+13	5.715862e+14	9.537828e+13	4.281238e+03	2.650411e+03	1.773151e+03	0	2.709150e-04
6.200000e+07	4.708759e+11	0.000000e+00	5.628141e-01	1.324554e+13	5.663966e+14	9.532589e+13	4.280959e+03	2.645978e+03	1.770184e+03	0	2.707530e-04
6.300000e+07	4.700301e+11	0.000000e+00	5.628141e-01	1.322376e+13	5.612940e+14	9.527353e+13	4.280679e+03	2.641592e+03	1.767251e+03	0	2.705908e-04
6.400000e+07	4.691844e+11	0.000000e+00	5.628141e-01	1.320199e+13	5.562765e+14	9.522122e+13	4.280401e+03	2.637255e+03	1.764349e+03	0	2.704285e-04
6.500000e+07	4.683389e+11	0.000000e+00	5.628141e-01	1.318022e+13	5.513422e+14	9.516894e+13	4.280122e+03	2.632965e+03	1.761479e+03	0	2.702659e-04
6.600000e+07	4.674939e+11	0.000000e+00	5.628141e-01	1.315847e+13	5.464891e+14	9.511670e+13	4.279844e+03	2.628722e+03	1.758640e+03	0	2.701033e-04
6.700000e+07	4.666493e+11	0.000000e+00	5.628141e-01	1.313673e+13	5.417154e+14	9.506451e+13	4.279567e+03	2.624524e+03	1.755832e+03	0	2.699405e-04
6.800000e+07	4.658055e+11	0.000000e+00	5.628141e-01	1.311500e+13	5.370193e+14	9.501235e+13	4.279290e+03	2.620371e+03	1.753053e+03	0	2.697777e-04
6.900000e+07	4.649625e+11	0.000000e+00	5.628141e-01	1.309330e+13	5.323992e+14	9.496023e+13	4.279014e+03	2.616262e+03	1.750305e+03	0	2.696149e-04
7.000000e+07	4.641206e+11	0.000000e+00	5.628141e-01	1.307163e+13	5.278532e+14	9.490815e+13	4.278738e+03	2.612197e+03	1.747585e+03	0	2.694520e-04
7.100000e+07	4.632798e+11	0.000000e+00	5.628141e-01	1.304998e+13	5.233797e+14	9.485610e+13	4.278462e+03	2.608174e+03	1.744894e+03	0	2.692892e-04
7.200000e+07	4.624402e+11	0.000000e+00	5.628141e-01	1.302837e+13	5.189772e+14	9.480410e+13	4.278187e+03	2.604194e+03	1.742231e+03	0	2.691265e-04
7.300000e+07	4.616020e+11	0.000000e+00	5.628141e-01	1.300679e+13	5.146441e+14	9.475213e+13	4.277912e+03	2.600255e+03	1.739595e+03	0	2.689638e-04
7.400000e+07	4.607653e+11	0.000000e+00	5.628141e-01	1.298525e+13	5.103790e+14	9.470021e+13	4.277638e+03	2.596356e+03	1.736987e+03	0	2.688011e-04
7.500000e+07	4.599302e+11	0.000000e+00	5.628141e-01	1.296375e+13	5.061802e+14	9.464832e+13	4.277364e+03	2.592498e+03	1.734406e+03	0	2.686387e-04
7.600000e+07	4.590968e+11	0.000000e+00	5.628141e-01	1.294229e+13	5.020465e+14	9.459647e+13	4.277091e+03	2.588679e+03	1.731851e+03	0	2.684763e-04
7.700000e+07	4.582652e+11	0.000000e+00	5.628141e-01	1.292088e+13	4.979764e+14	9.454466e+13	4.276818e+03	2.584898e+03	1.729322e+03	0	2.683141e-04
7.800000e+07	4.574355e+11	0.000000e+00	5.628141e-01	1.289952e+13	4.939685e+14	9.449289e+13	4.276546e+03	2.581156e+03	1.726818e+03	0	2.681521e-04
7.900000e+07	4.566078e+11	0.000000e+00	5.628141e-01	1.287821e+13	4.900217e+14	9.444116e+13	4.276274e+03	2.577452e+03	1.724340e+03	0	2.679902e-04
8.000000e+07	4.557821e+11	0.000000e+00	5.628141e-01	1.285696e+13	4.861344e+14	9.438946e+13	4.276002e+03	2.573784e+03	1.721886e+03	0	2.678286e-04
8.100000e+07	4.549585e+11	0.000000e+00	5.628141e-01	1.283576e+13	4.823057e+14	9.433781e+13	4.275731e+03	2.570153e+03	1.719457e+03	0	2.676672e-04
8.200000e+07	4.541372e+11	0.000000e+00	5.628141e-01	1.281461e+13	4.785341e+14	9.428619e+13	4.275461e+03	2.566558e+03	1.717052e+03	0	2.675060e-04
8.300000e+07	4.533182e+11	0.000000e+00	5.628141e-01	1.279353e+13	4.748186e+14	9.423461e+13	4.275190e+03	2.562999e+03	1.714671e+03	0	2.673451e-04
8.400000e+07	4.525015e+11	0.000000e+00	5.628141e-01	1.277250e+13	4.711579e+14	9.418307e+13	4.274921e+03	2.559474e+03	1.712312e+03	0	2.671845e-04
8.500000e+07	4.516872e+11	0.000000e+00	5.628141e-01	1.275154e+13	4.675511e+14	9.413157e+13	4.274651e+03	2.555983e+03	1.709977e+03	0	2.670241e-04
8.600000e+07	4.508753e+11	0.000000e+00	5.628141e-01	1.273063e+13	4.639969e+14	9.408011e+13	4.274383e+03	2.552526e+03	1.707664e+03	0	2.668640e-04
8.700000e+07	4.500660e+11	0.000000e+00	5.628141e-01	1.270980e+13	4.604943e+14	9.402868e+13	4.274114e+03	2.549103e+03	1.705374e+03	0	2.667042e-04
8.800000e+07	4.492593e+11	0.000000e+00	5.628141e-01	1.268903e+13	4.570423e+14	9.397730e+13	4.273846e+03	2.545712e+03	1.703106e+03	0	2.665448e-04
8.900000e+07	4.484551e+11	0.000000e+00	5.628141e-01	1.266833e+13	4.536399e+14	9.392595e+13	4.273579e+03	2.542353e+03	1.700859e+03	0	2.663857e-04
9.000000e+07	4.476537e+11	0.000000e+00	5.628141e-01	1.264769e+13	4.502860e+14	9.387464e+13	4.273312e+03	2.539027e+03	1.698633e+03	0	2.662269e-04
9.100000e+07	4.468549e+11	0.000000e+00	5.628141e-01	1.262713e+13	4.469798e+14	9.382337e+13	4.273045e+03	2.535732e+03	1.696429e+03	0	2.660685e-04
9.200000e+07	4.460589e+11	0.000000e+00	5.628141e-01	1.260663e+13	4.437202e+14	9.377213e+13	4.272779e+03	2.532467e+03	1.694245e+03	0	2.659104e-04
9.300000e+07	4.452657e+11	0.000000e+00	5.628141e-01	1.258621e+13	4.405065e+14	9.372094e+13	4.272513e+03	2.529234e+03	1.692081e+03	0	2.657527e-04
9.400000e+07	4.444753e+11	0.000000e+00	5.628141e-01	1.256586e+13	4.373376e+14	9.366978e+13	4.272248e+03	2.526030e+03	1.689938e+03	0	2.655953e-04
9.500000e+07	4.436878e+11	0.000000e+00	5.628141e-01	1.254559e+13	4.342127e+14	9.361866e+13	4.271983e+03	2.522856e+03	1.687815e+03	0	2.654384e-04
9.600000e+07	4.429031e+11	0.000000e+00	5.628141e-01	1.252538e+13	4.311310e+14	9.356758e+13	4.271718e+03	2.519711e+03	1.685711e+03	0	2.652818e-04
9.700000e+07	4.421214e+11	0.000000e+00	5.628141e-01	1.250526e+13	4.280917e+14	9.351654e+13	4.271454e+03	2.516595e+03	1.683626e+03	0	2.651256e-04
9.800000e+07	4.413426e+11	0.000000e+00	5.628141e-01	1.248520e+13	4.250939e+14	9.346553e+13	4.271190e+03	2.513507e+03	1.681560e+03	0	2.649699e-04
9.900000e+07	4.405667e+11	0.000000e+00	5.628141e-01	1.246523e+13	4.221368e+14	9.341456e+13	4.270927e+03	2.510447e+03	1.679513e+03	0	2.648145e-04
1.000000e+08	4.397939e+11	0.000000e+00	5.628141e-01	1.244533e+13	4.192197e+14	9.336364e+13	4.270664e+03	2.507415e+03	1.677485e+03	0	2.646596e-04
1.010000e+08	4.390240e+11	0.000000e+00	5.628141e-01	1.242551e+13	4.163419e+14	9.331274e+13	4.270402e+03	2.504410e+03	1.675474e+03	0	2.645050e-04
1.020000e+08	4.382572e+11	0.000000e+00	5.628141e-01	1.240576e+13	4.135025e+14	9.326189e+13	4.270140e+03	2.501432e+03	1.673482e+03	0	2.643510e-04
1.030000e+08	4.374934e+11	0.000000e+00	5.628141e-01	1.238610e+13	4.107010e+14	9.321108e+13	4.269879e+03	2.498480e+03	1.671507e+03	0	2.641973e-04
1.040000e+08	4.367327e+11	0.000000e+00	5.628141e-01	1.236651e+13	4.079365e+14	9.316030e+13	4.269617e+03	2.495555e+03	1.669550e+03	0	2.640441e-04
1.050000e+08	4.359750e+11	0.000000e+00	5.628141e-01	1.234700e+13	4.052084e+14	9.310956e+13	4.269357e+03	2.492655e+03	1.667610e+03	0	2.638913e-04
1.060000e+08	4.352204e+11	0.000000e+00	5.628141e-01	1.232757e+13	4.025161e+14	9.305886e+13	4.269096e+03	2.489781e+03	1.665687e+03	0	2.637390e-04
1.070000e+08	4.344689e+11	0.000000e+00	5.628141e-01	1.230822e+13	3.998589e+14	9.300819e+13	4.268836e+03	2.486932e+03	1.663781e+03	0	2.635871e-04
1.080000e+08	4.337205e+11	0.000000e+00	5.628141e-01	1.228895e+13	3.972361e+14	9.295756e+13	4.268577e+03	2.484107e+03	1.661891e+03	0	2.634356e-04
1.090000e+08	4.329753e+11	0.000000e+00	5.628141e-01	1.226976e+13	3.946472e+14	9.290698e+13	4.268318e+03	2.481307e+03	1.660018e+03	0	2.632847e-04
1.100000e+08	4.322331e+11	0.000000e+00	5.628141e-01	1.225065e+13	3.920915e+14	9.285642e+13	4.268059e+03	2.478531e+03	1.658161e+03	0	2.631341e-04
1.110000e+08	4.314941e+11	0.000000e+00	5.628141e-01	1.223162e+13	3.895684e+14	9.280591e+13	4.267801e+03	2.475779e+03	1.656320e+03	0	2.629841e-04
1.120000e+08	4.307582e+11	0.000000e+00	5.628141e-01	1.221267e+13	3.870774e+14	9.275543e+13	4.267543e+03	2.473050e+03	1.654494e+03	0	2.628345e-04
1.130000e+08	4.300254e+11	0.000000e+00	5.628141e-01	1.219380e+13	3.846179e+14	9.270500e+13	4.267286e+03	2.470345e+03	1.652684e+03	0	2.626854e-04
1.140000e+08	4.292958e+11	0.000000e+00	5.628141e-01	1.217501e+13	3.821894e+14	9.265459e+13	4.267029e+03	2.467662e+03	1.650890e+03	0	2.625367e-04
1.150000e+08	4.285693e+11	0.000000e+00	5.628141e-01	1.215630e+13	3.797912e+14	9.260423e+13	4.266772e+03	2.465002e+03	1.649110e+03	0	2.623886e-04
1.160000e+08	4.278460e+11	0.000000e+00	5.628141e-01	1.213768e+13	3.774229e+14	9.255390e+13	4.266516e+03	2.462365e+03	1.647345e+03	0	2.622409e-04
1.170000e+08	4.271258e+11	0.000000e+00	5.628141e-01	1.211913e+13	3.750839e+14	9.250362e+13	4.266260e+03	2.459749e+03	1.645595e+03	0	2.620936e-04
1.180000e+08	4.264087e+11	0.000000e+00	5.628141e-01	1.210067e+13	3.727738e+14	9.245336e+13	4.266004e+03	2.457155e+03	1.643860e+03	0	2.619469e-04
1.190000e+08	4.256948e+11	0.000000e+00	5.628141e-01	1.208228e+13	3.704921e+14	9.240315e+13	4.265749e+03	2.454582e+03	1.642139e+03	0	2.618006e-04
1.200000e+08	4.249840e+11	0.000000e+00	5.628141e-01	1.206398e+13	3.682382e+14	9.235297e+13	4.265494e+03	2.452031e+03	1.640432e+03	0	2.616548e-04
1.210000e+08	4.242764e+11	0.000000e+00	5.628141e-01	1.204575e+13	3.660117e+14	9.230283e+13	4.265240e+03	2.449500e+03	1.638739e+03	0	2.615095e-04
1.220000e+08	4.235719e+11	0.000000e+00	5.628141e-01	1.202761e+13	3.638122e+14	9.225273e+13	4.264986e+03	2.446991e+03	1.637060e+03	0	2.613647e-04
1.230000e+08	4.228705e+11	0.000000e+00	5.628141e-01	1.200955e+13	3.616391e+14	9.220267e+13	4.264732e+03	2.444501e+03	1.635395e+03	0	2.612203e-04
1.240000e+08	4.221722e+11	0.000000e+00	5.628141e-01	1.199156e+13	3.594920e+14	9.215264e+13	4.264479e+03	2.442032e+03	1.633743e+03	0	2.610765e-04
1.250000e+08	4.214771e+11	0.000000e+00	5.628141e-01	1.197366e+13	3.573706e+14	9.210265e+13	4.264226e+03	2.439583e+03	1.632104e+03	0	2.609331e-04
1.260000e+08	4.207850e+11	0.000000e+00	5.628141e-01	1.195584e+13	3.552743e+14	9.205269e+13	4.263974e+03	2.437153e+03	1.630479e+03	0	2.607902e-04
1.270000e+08	4.200961e+11	0.000000e+00	5.628141e-01	1.193809e+13	3.532028e+14	9.200278e+13	4.263722e+03	2.434743e+03	1.628866e+03	0	2.606478e-04
1.280000e+08	4.194103e+11	0.000000e+00	5.628141e-01	1.192043e+13	3.511556e+14	9.195290e+13	4.263470e+03	2.432351e+03	1.627266e+03	0	2.605059e-04
1.290000e+08	4.187276e+11	0.000000e+00	5.628141e-01	1.190285e+13	3.491324e+14	9.190306e+13	4.263219e+03	2.429979e+03	1.625679e+03	0	2.603645e-04
1.300000e+08	4.180479e+11	0.000000e+00	5.628141e-01	1.188534e+13	3.471327e+14	9.185325e+13	4.262968e+03	2.427626e+03	1.624105e+03	0	2.602235e-04
1.310000e+08	4.173713e+11	0.000000e+00	5.628141e-01	1.186792e+13	3.451562e+14	9.180348e+13	4.262717e+03	2.425291e+03	1.622543e+03	0	2.600831e-04
1.320000e+08	4.166978e+11	0.000000e+00	5.628141e-01	1.185057e+13	3.432026e+14	9.175375e+13	4.262467e+03	2.422974e+03	1.620993e+03	0	2.599431e-04
1.330000e+08	4.160274e+11	0.000000e+00	5.628141e-01	1.183330e+13	3.412713e+14	9.170406e+13	4.262217e+03	2.420676e+03	1.619455e+03	0	2.598036e-04
1.340000e+08	4.153600e+11	0.000000e+00	5.628141e-01	1.181611e+13	3.393621e+14	9.165440e+13	4.261968e+03	2.418395e+03	1.617929e+03	0	2.596646e-04
1.350000e+08	4.146956e+11	0.000000e+00	5.628141e-01	1.179900e+13	3.374747e+14	9.160478e+13	4.261719e+03	2.416132e+03	1.616415e+03	0	2.595261e-04
1.360000e+08	4.140343e+11	0.000000e+00	5.628141e-01	1.178197e+13	3.356086e+14	9.155519e+13	4.261470e+03	2.413886e+03	1.614913e+03	0	2.593881e-04
