#t		Qconv[W]	Ri[Rp]		R*[Rp]		Qc[W]		Qm[W]		Qr[W]		Tcmb[K]		Tl[K]		Tup[K]		RiFlag		Bs[T]
0.000000e+00	6.988688e+11	0.000000e+00	5.577889e-01	1.852276e+13	1.346935e+15	1.114149e+14	4.604089e+03	3.208389e+03	2.079865e+03	0	3.084300e-04
1.000000e+06	6.990595e+11	0.000000e+00	5.577889e-01	1.852727e+13	1.326033e+15	1.113530e+14	4.603742e+03	3.197936e+03	2.073089e+03	0	3.084580e-04
2.000000e+06	6.991641e+11	0.000000e+00	5.577889e-01	1.852969e+13	1.305677e+15	1.112911e+14	4.603394e+03	3.187662e+03	2.066428e+03	0	3.084734e-04
3.000000e+06	6.991876e+11	0.000000e+00	5.577889e-01	1.853014e+13	1.285849e+15	1.112292e+14	4.603047e+03	3.177561e+03	2.059881e+03	0	3.084768e-04
4.000000e+06	6.991342e+11	0.000000e+00	5.577889e-01	1.852872e+13	1.266530e+15	1.111674e+14	4.602699e+03	3.167630e+03	2.053442e+03	0	3.084690e-04
5.000000e+06	6.990083e+11	0.000000e+00	5.577889e-01	1.852555e+13	1.247702e+15	1.111057e+14	4.602351e+03	3.157862e+03	2.047111e+03	0	3.084505e-04
6.000000e+06	6.988138e+11	0.000000e+00	5.577889e-01	1.852072e+13	1.229348e+15	1.110440e+14	4.602004e+03	3.148256e+03	2.040883e+03	0	3.084219e-04
7.000000e+06	6.985546e+11	0.000000e+00	5.577889e-01	1.851431e+13	1.211454e+15	1.109823e+14	4.601657e+03	3.138806e+03	2.034757e+03	0	3.083837e-04
8.000000e+06	6.982342e+11	0.000000e+00	5.577889e-01	1.850642e+13	1.194003e+15	1.109207e+14	4.601309e+03	3.129508e+03	2.028729e+03	0	3.083366e-04
9.000000e+06	6.978560e+11	0.000000e+00	5.577889e-01	1.849713e+13	1.176980e+15	1.108591e+14	4.600962e+03	3.120359e+03	2.022798e+03	0	3.082809e-04
1.000000e+07	6.974232e+11	0.000000e+00	5.577889e-01	1.848651e+13	1.160373e+15	1.107976e+14	4.600615e+03	3.111355e+03	2.016961e+03	0	3.082172e-04
1.100000e+07	6.969389e+11	0.000000e+00	5.577889e-01	1.847465e+13	1.144166e+15	1.107361e+14	4.600269e+03	3.102492e+03	2.011216e+03	0	3.081458e-04
1.200000e+07	6.964060e+11	0.000000e+00	5.577889e-01	1.846160e+13	1.128347e+15	1.106747e+14	4.599922e+03	3.093768e+03	2.005561e+03	0	3.080672e-04
1.300000e+07	6.958272e+11	0.000000e+00	5.577889e-01	1.844744e+13	1.112903e+15	1.106133e+14	4.599576e+03	3.085178e+03	1.999992e+03	0	3.079819e-04
1.400000e+07	6.952050e+11	0.000000e+00	5.577889e-01	1.843224e+13	1.097824e+15	1.105520e+14	4.599230e+03	3.076720e+03	1.994509e+03	0	3.078900e-04
1.500000e+07	6.945420e+11	0.000000e+00	5.577889e-01	1.841604e+13	1.083096e+15	1.104907e+14	4.598884e+03	3.068390e+03	1.989109e+03	0	3.077921e-04
1.600000e+07	6.938404e+11	0.000000e+00	5.577889e-01	1.839890e+13	1.068709e+15	1.104294e+14	4.598539e+03	3.060186e+03	1.983791e+03	0	3.076885e-04
1.700000e+07	6.931025e+11	0.000000e+00	5.577889e-01	1.838088e+13	1.054652e+15	1.103682e+14	4.598194e+03	3.052104e+03	1.978552e+03	0	3.075793e-04
1.800000e+07	6.923304e+11	0.000000e+00	5.577889e-01	1.836204e+13	1.040916e+15	1.103071e+14	4.597849e+03	3.044142e+03	1.973390e+03	0	3.074651e-04
1.900000e+07	6.915259e+11	0.000000e+00	5.577889e-01	1.834241e+13	1.027489e+15	1.102460e+14	4.597504e+03	3.036296e+03	1.968304e+03	0	3.073460e-04
2.000000e+07	6.906911e+11	0.000000e+00	5.577889e-01	1.832204e+13	1.014364e+15	1.101849e+14	4.597160e+03	3.028566e+03	1.963293e+03	0	3.072222e-04
2.100000e+07	6.898277e+11	0.000000e+00	5.577889e-01	1.830098e+13	1.001530e+15	1.101239e+14	4.596817e+03	3.020946e+03	1.958354e+03	0	3.070942e-04
2.200000e+07	6.889374e+11	0.000000e+00	5.577889e-01	1.827927e+13	9.889788e+14	1.100629e+14	4.596474e+03	3.013437e+03	1.953485e+03	0	3.069620e-04
2.300000e+07	6.880218e+11	0.000000e+00	5.577889e-01	1.825694e+13	9.767023e+14	1.100020e+14	4.596131e+03	3.006033e+03	1.948686e+03	0	3.068259e-04
2.400000e+07	6.870824e+11	0.000000e+00	5.577889e-01	1.823404e+13	9.646922e+14	1.099411e+14	4.595788e+03	2.998735e+03	1.943955e+03	0	3.066862e-04
2.500000e+07	6.861208e+11	0.000000e+00	5.577889e-01	1.821060e+13	9.529405e+14	1.098803e+14	4.595446e+03	2.991538e+03	1.939290e+03	0	3.065431e-04
2.600000e+07	6.851381e+11	0.000000e+00	5.577889e-01	1.818665e+13	9.414399e+14	1.098195e+14	4.595105e+03	2.984442e+03	1.934689e+03	0	3.063967e-04
2.700000e+07	6.841359e+11	0.000000e+00	5.577889e-01	1.816222e+13	9.301830e+14	1.097587e+14	4.594764e+03	2.977443e+03	1.930152e+03	0	3.062472e-04
2.800000e+07	6.831152e+11	0.000000e+00	5.577889e-01	1.813735e+13	9.191628e+14	1.096980e+14	4.594423e+03	2.970541e+03	1.925678e+03	0	3.060948e-04
2.900000e+07	6.820774e+11	0.000000e+00	5.577889e-01	1.811206e+13	9.083726e+14	1.096374e+14	4.594083e+03	2.963731e+03	1.921264e+03	0	3.059397e-04
3.000000e+07	6.810234e+11	0.000000e+00	5.577889e-01	1.808638e+13	8.978058e+14	1.095768e+14	4.593743e+03	2.957014e+03	1.916909e+03	0	3.057821e-04
3.100000e+07	6.799545e+11	0.000000e+00	5.577889e-01	1.806034e+13	8.874562e+14	1.095162e+14	4.593404e+03	2.950387e+03	1.912613e+03	0	3.056220e-04
3.200000e+07	6.788715e+11	0.000000e+00	5.577889e-01	1.803395e+13	8.773177e+14	1.094557e+14	4.593065e+03	2.943847e+03	1.908373e+03	0	3.054597e-04
3.300000e+07	6.777755e+11	0.000000e+00	5.577889e-01	1.800725e+13	8.673844e+14	1.093952e+14	4.592727e+03	2.937394e+03	1.904190e+03	0	3.052952e-04
3.400000e+07	6.766673e+11	0.000000e+00	5.577889e-01	1.798026e+13	8.576508e+14	1.093348e+14	4.592389e+03	2.931025e+03	1.900061e+03	0	3.051287e-04
3.500000e+07	6.755479e+11	0.000000e+00	5.577889e-01	1.795299e+13	8.481113e+14	1.092744e+14	4.592052e+03	2.924739e+03	1.895986e+03	0	3.049604e-04
3.600000e+07	6.744181e+11	0.000000e+00	5.577889e-01	1.792547e+13	8.387606e+14	1.092141e+14	4.591715e+03	2.918534e+03	1.891964e+03	0	3.047902e-04
3.700000e+07	6.732785e+11	0.000000e+00	5.577889e-01	1.789772e+13	8.295938e+14	1.091538e+14	4.591379e+03	2.912408e+03	1.887993e+03	0	3.046185e-04
3.800000e+07	6.721301e+11	0.000000e+00	5.577889e-01	1.786975e+13	8.206058e+14	1.090935e+14	4.591043e+03	2.906360e+03	1.884072e+03	0	3.044452e-04
3.900000e+07	6.709735e+11	0.000000e+00	5.577889e-01	1.784158e+13	8.117919e+14	1.090333e+14	4.590708e+03	2.900389e+03	1.880201e+03	0	3.042705e-04
4.000000e+07	6.698094e+11	0.000000e+00	5.577889e-01	1.781323e+13	8.031475e+14	1.089732e+14	4.590373e+03	2.894492e+03	1.876379e+03	0	3.040944e-04
4.100000e+07	6.686384e+11	0.000000e+00	5.577889e-01	1.778471e+13	7.946682e+14	1.089131e+14	4.590039e+03	2.888669e+03	1.872604e+03	0	3.039171e-04
4.200000e+07	6.674612e+11	0.000000e+00	5.577889e-01	1.775604e+13	7.863496e+14	1.088530e+14	4.589706e+03	2.882918e+03	1.868875e+03	0	3.037386e-04
4.300000e+07	6.662782e+11	0.000000e+00	5.577889e-01	1.772723e+13	7.781876e+14	1.087930e+14	4.589373e+03	2.877237e+03	1.865193e+03	0	3.035591e-04
4.400000e+07	6.650901e+11	0.000000e+00	5.577889e-01	1.769830e+13	7.701782e+14	1.087330e+14	4.589040e+03	2.871626e+03	1.861555e+03	0	3.033785e-04
4.500000e+07	6.638975e+11	0.000000e+00	5.577889e-01	1.766926e+13	7.623175e+14	1.086731e+14	4.588708e+03	2.866082e+03	1.857962e+03	0	3.031971e-04
4.600000e+07	6.627007e+11	0.000000e+00	5.577889e-01	1.764012e+13	7.546017e+14	1.086132e+14	4.588377e+03	2.860606e+03	1.854411e+03	0	3.030148e-04
4.700000e+07	6.615003e+11	0.000000e+00	5.577889e-01	1.761089e+13	7.470271e+14	1.085534e+14	4.588046e+03	2.855195e+03	1.850904e+03	0	3.028317e-04
4.800000e+07	6.602967e+11	0.000000e+00	5.577889e-01	1.758158e+13	7.395902e+14	1.084936e+14	4.587716e+03	2.849848e+03	1.847437e+03	0	3.026479e-04
4.900000e+07	6.590903e+11	0.000000e+00	5.577889e-01	1.755221e+13	7.322877e+14	1.084338e+14	4.587386e+03	2.844564e+03	1.844012e+03	0	3.024635e-04
5.000000e+07	6.578817e+11	0.000000e+00	5.577889e-01	1.752278e+13	7.251161e+14	1.083741e+14	4.587057e+03	2.839342e+03	1.840627e+03	0	3.022785e-04
5.100000e+07	6.566710e+11	0.000000e+00	5.577889e-01	1.749330e+13	7.180722e+14	1.083144e+14	4.586728e+03	2.834181e+03	1.837281e+03	0	3.020930e-04
5.200000e+07	6.554588e+11	0.000000e+00	5.577889e-01	1.746379e+13	7.111530e+14	1.082548e+14	4.586400e+03	2.829080e+03	1.833974e+03	0	3.019070e-04
5.300000e+07	6.542454e+11	0.000000e+00	5.577889e-01	1.743424e+13	7.043554e+14	1.081953e+14	4.586072e+03	2.824037e+03	1.830705e+03	0	3.017205e-04
5.400000e+07	6.530310e+11	0.000000e+00	5.577889e-01	1.740467e+13	6.976765e+14	1.081357e+14	4.585745e+03	2.819052e+03	1.827474e+03	0	3.015338e-04
5.500000e+07	6.518161e+11	0.000000e+00	5.577889e-01	1.737509e+13	6.911135e+14	1.080762e+14	4.585419e+03	2.814123e+03	1.824279e+03	0	3.013466e-04
5.600000e+07	6.506009e+11	0.000000e+00	5.577889e-01	1.734551e+13	6.846635e+14	1.080168e+14	4.585093e+03	2.809250e+03	1.821120e+03	0	3.011593e-04
5.700000e+07	6.493857e+11	0.000000e+00	5.577889e-01	1.731592e+13	6.783240e+14	1.079574e+14	4.584768e+03	2.804432e+03	1.817996e+03	0	3.009716e-04
5.800000e+07	6.481707e+11	0.000000e+00	5.577889e-01	1.728634e+13	6.720922e+14	1.078981e+14	4.584443e+03	2.799667e+03	1.814907e+03	0	3.007838e-04
5.900000e+07	6.469563e+11	0.000000e+00	5.577889e-01	1.725677e+13	6.659658e+14	1.078388e+14	4.584119e+03	2.794955e+03	1.811853e+03	0	3.005959e-04
6.000000e+07	6.457427e+11	0.000000e+00	5.577889e-01	1.722723e+13	6.599423e+14	1.077795e+14	4.583795e+03	2.790295e+03	1.808832e+03	0	3.004078e-04
6.100000e+07	6.445301e+11	0.000000e+00	5.577889e-01	1.719770e+13	6.540192e+14	1.077203e+14	4.583472e+03	2.785686e+03	1.805844e+03	0	3.002196e-04
6.200000e+07	6.433188e+11	0.000000e+00	5.577889e-01	1.716821e+13	6.481943e+14	1.076611e+14	4.583149e+03	2.781127e+03	1.802889e+03	0	3.000314e-04
6.300000e+07	6.421089e+11	0.000000e+00	5.577889e-01	1.713876e+13	6.424654e+14	1.076020e+14	4.582827e+03	2.776617e+03	1.799965e+03	0	2.998432e-04
6.400000e+07	6.409006e+11	0.000000e+00	5.577889e-01	1.710934e+13	6.368303e+14	1.075429e+14	4.582506e+03	2.772156e+03	1.797073e+03	0	2.996550e-04
6.500000e+07	6.396941e+11	0.000000e+00	5.577889e-01	1.707997e+13	6.312868e+14	1.074838e+14	4.582185e+03	2.767743e+03	1.794212e+03	0	2.994669e-04
6.600000e+07	6.384897e+11	0.000000e+00	5.577889e-01	1.705064e+13	6.258329e+14	1.074249e+14	4.581865e+03	2.763376e+03	1.791381e+03	0	2.992788e-04
6.700000e+07	6.372875e+11	0.000000e+00	5.577889e-01	1.702137e+13	6.204667e+14	1.073659e+14	4.581545e+03	2.759056e+03	1.788581e+03	0	2.990909e-04
6.800000e+07	6.360876e+11	0.000000e+00	5.577889e-01	1.699216e+13	6.151861e+14	1.073070e+14	4.581225e+03	2.754780e+03	1.785809e+03	0	2.989030e-04
6.900000e+07	6.348901e+11	0.000000e+00	5.577889e-01	1.696300e+13	6.099893e+14	1.072481e+14	4.580907e+03	2.750550e+03	1.783067e+03	0	2.987153e-04
7.000000e+07	6.336954e+11	0.000000e+00	5.577889e-01	1.693392e+13	6.048746e+14	1.071893e+14	4.580589e+03	2.746363e+03	1.780353e+03	0	2.985278e-04
7.100000e+07	6.325033e+11	0.000000e+00	5.577889e-01	1.690489e+13	5.998400e+14	1.071305e+14	4.580271e+03	2.742220e+03	1.777667e+03	0	2.983405e-04
7.200000e+07	6.313142e+11	0.000000e+00	5.577889e-01	1.687594e+13	5.948838e+14	1.070718e+14	4.579954e+03	2.738119e+03	1.775008e+03	0	2.981535e-04
7.300000e+07	6.301282e+11	0.000000e+00	5.577889e-01	1.684707e+13	5.900044e+14	1.070131e+14	4.579637e+03	2.734059e+03	1.772377e+03	0	2.979666e-04
7.400000e+07	6.289452e+11	0.000000e+00	5.577889e-01	1.681827e+13	5.852002e+14	1.069545e+14	4.579321e+03	2.730042e+03	1.769772e+03	0	2.977801e-04
7.500000e+07	6.277655e+11	0.000000e+00	5.577889e-01	1.678954e+13	5.804695e+14	1.068959e+14	4.579006e+03	2.726064e+03	1.767194e+03	0	2.975938e-04
7.600000e+07	6.265892e+11	0.000000e+00	5.577889e-01	1.676090e+13	5.758108e+14	1.068373e+14	4.578691e+03	2.722127e+03	1.764641e+03	0	2.974078e-04
7.700000e+07	6.254163e+11	0.000000e+00	5.577889e-01	1.673235e+13	5.712226e+14	1.067788e+14	4.578377e+03	2.718229e+03	1.762114e+03	0	2.972221e-04
7.800000e+07	6.242469e+11	0.000000e+00	5.577889e-01	1.670388e+13	5.667033e+14	1.067203e+14	4.578063e+03	2.714369e+03	1.759612e+03	0	2.970367e-04
7.900000e+07	6.230812e+11	0.000000e+00	5.577889e-01	1.667549e+13	5.622516e+14	1.066619e+14	4.577749e+03	2.710548e+03	1.757135e+03	0	2.968517e-04
8.000000e+07	6.219192e+11	0.000000e+00	5.577889e-01	1.664720e+13	5.578661e+14	1.066035e+14	4.577437e+03	2.706764e+03	1.754682e+03	0	2.966671e-04
8.100000e+07	6.207609e+11	0.000000e+00	5.577889e-01	1.661900e+13	5.535455e+14	1.065452e+14	4.577124e+03	2.703017e+03	1.752253e+03	0	2.964828e-04
8.200000e+07	6.196065e+11	0.000000e+00	5.577889e-01	1.659089e+13	5.492883e+14	1.064869e+14	4.576813e+03	2.699306e+03	1.749848e+03	0	2.962989e-04
8.300000e+07	6.184560e+11	0.000000e+00	5.577889e-01	1.656288e+13	5.450933e+14	1.064286e+14	4.576502e+03	2.695632e+03	1.747466e+03	0	2.961154e-04
8.400000e+07	6.173095e+11	0.000000e+00	5.577889e-01	1.653497e+13	5.409593e+14	1.063704e+14	4.576191e+03	2.691993e+03	1.745107e+03	0	2.959323e-04
8.500000e+07	6.161671e+11	0.000000e+00	5.577889e-01	1.650715e+13	5.368850e+14	1.063122e+14	4.575881e+03	2.688388e+03	1.742770e+03	0	2.957496e-04
8.600000e+07	6.150287e+11	0.000000e+00	5.577889e-01	1.647943e+13	5.328692e+14	1.062541e+14	4.575571e+03	2.684818e+03	1.740456e+03	0	2.955674e-04
8.700000e+07	6.138944e+11	0.000000e+00	5.577889e-01	1.645181e+13	5.289108e+14	1.061960e+14	4.575262e+03	2.681282e+03	1.738163e+03	0	2.953855e-04
8.800000e+07	6.127644e+11	0.000000e+00	5.577889e-01	1.642430e+13	5.250086e+14	1.061380e+14	4.574953e+03	2.677779e+03	1.735892e+03	0	2.952042e-04
8.900000e+07	6.116386e+11	0.000000e+00	5.577889e-01	1.639689e+13	5.211616e+14	1.060800e+14	4.574645e+03	2.674308e+03	1.733643e+03	0	2.950233e-04
9.000000e+07	6.105171e+11	0.000000e+00	5.577889e-01	1.636958e+13	5.173686e+14	1.060221e+14	4.574338e+03	2.670870e+03	1.731414e+03	0	2.948429e-04
9.100000e+07	6.093998e+11	0.000000e+00	5.577889e-01	1.634237e+13	5.136286e+14	1.059642e+14	4.574031e+03	2.667465e+03	1.729206e+03	0	2.946629e-04
9.200000e+07	6.082869e+11	0.000000e+00	5.577889e-01	1.631528e+13	5.099406e+14	1.059063e+14	4.573724e+03	2.664090e+03	1.727018e+03	0	2.944834e-04
9.300000e+07	6.071784e+11	0.000000e+00	5.577889e-01	1.628828e+13	5.063035e+14	1.058485e+14	4.573418e+03	2.660746e+03	1.724851e+03	0	2.943044e-04
9.400000e+07	6.060743e+11	0.000000e+00	5.577889e-01	1.626140e+13	5.027165e+14	1.057907e+14	4.573113e+03	2.657433e+03	1.722703e+03	0	2.941259e-04
9.500000e+07	6.049747e+11	0.000000e+00	5.577889e-01	1.623462e+13	4.991785e+14	1.057330e+14	4.572808e+03	2.654151e+03	1.720575e+03	0	2.939479e-04
9.600000e+07	6.038795e+11	0.000000e+00	5.577889e-01	1.620795e+13	4.956886e+14	1.056753e+14	4.572503e+03	2.650897e+03	1.718466e+03	0	2.937704e-04
9.700000e+07	6.027887e+11	0.000000e+00	5.577889e-01	1.618139e+13	4.922459e+14	1.056176e+14	4.572199e+03	2.647674e+03	1.716376e+03	0	2.935935e-04
9.800000e+07	6.017025e+11	0.000000e+00	5.577889e-01	1.615494e+13	4.888496e+14	1.055600e+14	4.571896e+03	2.644479e+03	1.714305e+03	0	2.934170e-04
9.900000e+07	6.006208e+11	0.000000e+00	5.577889e-01	1.612860e+13	4.854987e+14	1.055025e+14	4.571593e+03	2.641312e+03	1.712253e+03	0	2.932411e-04
1.000000e+08	5.995436e+11	0.000000e+00	5.577889e-01	1.610237e+13	4.821925e+14	1.054449e+14	4.571290e+03	2.638174e+03	1.710218e+03	0	2.930657e-04
1.010000e+08	5.984710e+11	0.000000e+00	5.577889e-01	1.607625e+13	4.789300e+14	1.053875e+14	4.570988e+03	2.635063e+03	1.708202e+03	0	2.928908e-04
1.020000e+08	5.974029e+11	0.000000e+00	5.577889e-01	1.605024e+13	4.757105e+14	1.053300e+14	4.570687e+03	2.631980e+03	1.706203e+03	0	2.927164e-04
1.030000e+08	5.963394e+11	0.000000e+00	5.577889e-01	1.602434e+13	4.725332e+14	1.052726e+14	4.570386e+03	2.628924e+03	1.704222e+03	0	2.925426e-04
1.040000e+08	5.952804e+11	0.000000e+00	5.577889e-01	1.599855e+13	4.693974e+14	1.052153e+14	4.570085e+03	2.625894e+03	1.702258e+03	0	2.923694e-04
1.050000e+08	5.942260e+11	0.000000e+00	5.577889e-01	1.597287e+13	4.663022e+14	1.051580e+14	4.569785e+03	2.622891e+03	1.700311e+03	0	2.921966e-04
1.060000e+08	5.931762e+11	0.000000e+00	5.577889e-01	1.594731e+13	4.632470e+14	1.051007e+14	4.569485e+03	2.619913e+03	1.698381e+03	0	2.920245e-04
1.070000e+08	5.921310e+11	0.000000e+00	5.577889e-01	1.592185e+13	4.602310e+14	1.050435e+14	4.569186e+03	2.616961e+03	1.696467e+03	0	2.918529e-04
1.080000e+08	5.910904e+11	0.000000e+00	5.577889e-01	1.589651e+13	4.572536e+14	1.049863e+14	4.568888e+03	2.614035e+03	1.694570e+03	0	2.916818e-04
1.090000e+08	5.900544e+11	0.000000e+00	5.577889e-01	1.587128e+13	4.543140e+14	1.049292e+14	4.568589e+03	2.611133e+03	1.692689e+03	0	2.915113e-04
1.100000e+08	5.890230e+11	0.000000e+00	5.577889e-01	1.584616e+13	4.514116e+14	1.048721e+14	4.568292e+03	2.608256e+03	1.690824e+03	0	2.913413e-04
1.110000e+08	5.879961e+11	0.000000e+00	5.577889e-01	1.582115e+13	4.485457e+14	1.048150e+14	4.567994e+03	2.605403e+03	1.688974e+03	0	2.911719e-04
1.120000e+08	5.869739e+11	0.000000e+00	5.577889e-01	1.579626e+13	4.457157e+14	1.047580e+14	4.567698e+03	2.602574e+03	1.687140e+03	0	2.910031e-04
1.130000e+08	5.859562e+11	0.000000e+00	5.577889e-01	1.577147e+13	4.429210e+14	1.047011e+14	4.567401e+03	2.599769e+03	1.685322e+03	0	2.908348e-04
1.140000e+08	5.849431e+11	0.000000e+00	5.577889e-01	1.574680e+13	4.401609e+14	1.046441e+14	4.567106e+03	2.596987e+03	1.683519e+03	0	2.906671e-04
1.150000e+08	5.839346e+11	0.000000e+00	5.577889e-01	1.572223e+13	4.374349e+14	1.045873e+14	4.566810e+03	2.594228e+03	1.681730e+03	0	2.905000e-04
1.160000e+08	5.829306e+11	0.000000e+00	5.577889e-01	1.569778e+13	4.347424e+14	1.045304e+14	4.566515e+03	2.591492e+03	1.679956e+03	0	2.903334e-04
1.170000e+08	5.819312e+11	0.000000e+00	5.577889e-01	1.567344e+13	4.320827e+14	1.044736e+14	4.566221e+03	2.588779e+03	1.678197e+03	0	2.901674e-04
1.180000e+08	5.809363e+11	0.000000e+00	5.577889e-01	1.564921e+13	4.294554e+14	1.044169e+14	4.565927e+03	2.586087e+03	1.676453e+03	0	2.900019e-04
1.190000e+08	5.799460e+11	0.000000e+00	5.577889e-01	1.562509e+13	4.268599e+14	1.043602e+14	4.565633e+03	2.583418e+03	1.674722e+03	0	2.898370e-04
1.200000e+08	5.789602e+11	0.000000e+00	5.577889e-01	1.560107e+13	4.242957e+14	1.043035e+14	4.565340e+03	2.580770e+03	1.673006e+03	0	2.896727e-04
1.210000e+08	5.779789e+11	0.000000e+00	5.577889e-01	1.557717e+13	4.217622e+14	1.042469e+14	4.565048e+03	2.578144e+03	1.671303e+03	0	2.895090e-04
1.220000e+08	5.770021e+11	0.000000e+00	5.577889e-01	1.555338e+13	4.192589e+14	1.041903e+14	4.564756e+03	2.575539e+03	1.669614e+03	0	2.893458e-04
1.230000e+08	5.760298e+11	0.000000e+00	5.577889e-01	1.552970e+13	4.167853e+14	1.041337e+14	4.564464e+03	2.572954e+03	1.667939e+03	0	2.891832e-04
1.240000e+08	5.750620e+11	0.000000e+00	5.577889e-01	1.550612e+13	4.143409e+14	1.040772e+14	4.564173e+03	2.570390e+03	1.666277e+03	0	2.890211e-04
1.250000e+08	5.740987e+11	0.000000e+00	5.577889e-01	1.548266e+13	4.119253e+14	1.040208e+14	4.563882e+03	2.567847e+03	1.664628e+03	0	2.888596e-04
1.260000e+08	5.731398e+11	0.000000e+00	5.577889e-01	1.545930e+13	4.095380e+14	1.039644e+14	4.563591e+03	2.565324e+03	1.662992e+03	0	2.886987e-04
1.270000e+08	5.721853e+11	0.000000e+00	5.577889e-01	1.543605e+13	4.071785e+14	1.039080e+14	4.563301e+03	2.562820e+03	1.661369e+03	0	2.885384e-04
1.280000e+08	5.712353e+11	0.000000e+00	5.577889e-01	1.541291e+13	4.048463e+14	1.038516e+14	4.563012e+03	2.560336e+03	1.659759e+03	0	2.883786e-04
1.290000e+08	5.702896e+11	0.000000e+00	5.577889e-01	1.538987e+13	4.025411e+14	1.037954e+14	4.562723e+03	2.557872e+03	1.658162e+03	0	2.882194e-04
1.300000e+08	5.693484e+11	0.000000e+00	5.577889e-01	1.536694e+13	4.002623e+14	1.037391e+14	4.562434e+03	2.555427e+03	1.656576e+03	0	2.880607e-04
1.310000e+08	5.684115e+11	0.000000e+00	5.577889e-01	1.534412e+13	3.980096e+14	1.036829e+14	4.562146e+03	2.553000e+03	1.655004e+03	0	2.879026e-04
1.320000e+08	5.674790e+11	0.000000e+00	5.577889e-01	1.532140e+13	3.957825e+14	1.036267e+14	4.561858e+03	2.550593e+03	1.653443e+03	0	2.877451e-04
1.330000e+08	5.665508e+11	0.000000e+00	5.577889e-01	1.529879e+13	3.935807e+14	1.035706e+14	4.561571e+03	2.548204e+03	1.651894e+03	0	2.875881e-04
1.340000e+08	5.656269e+11	0.000000e+00	5.577889e-01	1.527628e+13	3.914038e+14	1.035145e+14	4.561284e+03	2.545833e+03	1.650357e+03	0	2.874317e-04
1.350000e+08	5.647074e+11	0.000000e+00	5.577889e-01	1.525388e+13	3.892512e+14	1.034585e+14	4.560997e+03	2.543480e+03	1.648832e+03	0	2.872759e-04
1.360000e+08	5.637921e+11	0.000000e+00	5.577889e-01	1.523158e+13	3.871228e+14	1.034025e+14	4.560711e+03	2.541145e+03	1.647318e+03	0	2.871206e-04
