#t		Qconv[W]	Ri[Rp]		R*[Rp]		Qc[W]		Qm[W]		Qr[W]		Tcmb[K]		Tl[K]		Tup[K]		RiFlag		Bs[T]
0.000000e+00	6.891301e+11	0.000000e+00	5.728643e-01	1.779347e+13	1.302283e+15	1.075197e+14	4.551465e+03	3.185702e+03	2.076236e+03	0	3.025430e-04
1.000000e+07	6.888240e+11	0.000000e+00	5.728643e-01	1.778517e+13	1.120903e+15	1.069239e+14	4.548359e+03	3.088685e+03	2.013007e+03	0	3.024982e-04
2.000000e+07	6.829286e+11	0.000000e+00	5.728643e-01	1.764603e+13	9.791208e+14	1.063326e+14	4.545254e+03	3.005977e+03	1.959103e+03	0	3.016327e-04
3.000000e+07	6.739024e+11	0.000000e+00	5.728643e-01	1.743360e+13	8.660624e+14	1.057458e+14	4.542173e+03	2.934548e+03	1.912550e+03	0	3.002979e-04
4.000000e+07	6.631999e+11	0.000000e+00	5.728643e-01	1.718195e+13	7.743380e+14	1.051633e+14	4.539129e+03	2.872175e+03	1.871900e+03	0	2.986997e-04
5.000000e+07	6.516946e+11	0.000000e+00	5.728643e-01	1.691152e+13	6.987927e+14	1.045851e+14	4.536129e+03	2.817191e+03	1.836064e+03	0	2.969623e-04
6.000000e+07	6.399151e+11	0.000000e+00	5.728643e-01	1.663469e+13	6.357458e+14	1.040113e+14	4.533175e+03	2.768319e+03	1.804212e+03	0	2.951622e-04
7.000000e+07	6.281813e+11	0.000000e+00	5.728643e-01	1.635895e+13	5.825131e+14	1.034418e+14	4.530270e+03	2.724565e+03	1.775696e+03	0	2.933470e-04
8.000000e+07	6.166843e+11	0.000000e+00	5.728643e-01	1.608877e+13	5.370999e+14	1.028764e+14	4.527413e+03	2.685144e+03	1.750004e+03	0	2.915463e-04
9.000000e+07	6.055349e+11	0.000000e+00	5.728643e-01	1.582674e+13	4.979988e+14	1.023153e+14	4.524603e+03	2.649427e+03	1.726727e+03	0	2.897786e-04
1.000000e+08	5.947934e+11	0.000000e+00	5.728643e-01	1.557428e+13	4.640530e+14	1.017584e+14	4.521839e+03	2.616904e+03	1.705530e+03	0	2.880550e-04
1.100000e+08	5.844880e+11	0.000000e+00	5.728643e-01	1.533204e+13	4.343625e+14	1.012056e+14	4.519119e+03	2.587155e+03	1.686142e+03	0	2.863816e-04
1.200000e+08	5.746267e+11	0.000000e+00	5.728643e-01	1.510022e+13	4.082179e+14	1.006568e+14	4.516441e+03	2.559833e+03	1.668335e+03	0	2.847619e-04
1.300000e+08	5.652049e+11	0.000000e+00	5.728643e-01	1.487869e+13	3.850543e+14	1.001122e+14	4.513803e+03	2.534649e+03	1.651921e+03	0	2.831970e-04
1.400000e+08	5.562102e+11	0.000000e+00	5.728643e-01	1.466718e+13	3.644164e+14	9.957156e+13	4.511204e+03	2.511356e+03	1.636741e+03	0	2.816867e-04
1.500000e+08	5.476257e+11	0.000000e+00	5.728643e-01	1.446529e+13	3.459343e+14	9.903494e+13	4.508642e+03	2.489747e+03	1.622657e+03	0	2.802300e-04
1.600000e+08	5.394321e+11	0.000000e+00	5.728643e-01	1.427256e+13	3.293046e+14	9.850227e+13	4.506115e+03	2.469644e+03	1.609556e+03	0	2.788253e-04
1.700000e+08	5.316090e+11	0.000000e+00	5.728643e-01	1.408851e+13	3.142763e+14	9.797354e+13	4.503622e+03	2.450894e+03	1.597335e+03	0	2.774709e-04
1.800000e+08	5.241357e+11	0.000000e+00	5.728643e-01	1.391267e+13	3.006404e+14	9.744870e+13	4.501161e+03	2.433364e+03	1.585910e+03	0	2.761645e-04
1.900000e+08	5.169920e+11	0.000000e+00	5.728643e-01	1.374455e+13	2.882216e+14	9.692773e+13	4.498730e+03	2.416937e+03	1.575205e+03	0	2.749041e-04
2.000000e+08	5.101583e+11	0.000000e+00	5.728643e-01	1.358370e+13	2.768720e+14	9.641059e+13	4.496329e+03	2.401514e+03	1.565153e+03	0	2.736875e-04
2.100000e+08	5.036159e+11	0.000000e+00	5.728643e-01	1.342968e+13	2.664656e+14	9.589726e+13	4.493956e+03	2.387004e+03	1.555696e+03	0	2.725125e-04
2.200000e+08	4.973471e+11	0.000000e+00	5.728643e-01	1.328207e+13	2.568953e+14	9.538769e+13	4.491610e+03	2.373330e+03	1.546784e+03	0	2.713771e-04
2.300000e+08	4.913352e+11	0.000000e+00	5.728643e-01	1.314049e+13	2.480687e+14	9.488187e+13	4.489289e+03	2.360420e+03	1.538371e+03	0	2.702792e-04
2.400000e+08	4.855647e+11	0.000000e+00	5.728643e-01	1.300457e+13	2.399063e+14	9.437975e+13	4.486993e+03	2.348214e+03	1.530415e+03	0	2.692169e-04
2.500000e+08	4.800209e+11	0.000000e+00	5.728643e-01	1.287396e+13	2.323391e+14	9.388131e+13	4.484721e+03	2.336656e+03	1.522882e+03	0	2.681884e-04
2.600000e+08	4.746903e+11	0.000000e+00	5.728643e-01	1.274836e+13	2.253072e+14	9.338652e+13	4.482472e+03	2.325695e+03	1.515739e+03	0	2.671920e-04
2.700000e+08	4.695602e+11	0.000000e+00	5.728643e-01	1.262745e+13	2.187579e+14	9.289535e+13	4.480244e+03	2.315287e+03	1.508955e+03	0	2.662260e-04
2.800000e+08	4.646188e+11	0.000000e+00	5.728643e-01	1.251097e+13	2.126454e+14	9.240777e+13	4.478038e+03	2.305391e+03	1.502506e+03	0	2.652888e-04
2.900000e+08	4.598550e+11	0.000000e+00	5.728643e-01	1.239865e+13	2.069289e+14	9.192374e+13	4.475852e+03	2.295972e+03	1.496367e+03	0	2.643790e-04
3.000000e+08	4.552587e+11	0.000000e+00	5.728643e-01	1.229027e+13	2.015726e+14	9.144324e+13	4.473686e+03	2.286995e+03	1.490517e+03	0	2.634952e-04
3.100000e+08	4.508204e+11	0.000000e+00	5.728643e-01	1.218558e+13	1.965447e+14	9.096624e+13	4.471538e+03	2.278431e+03	1.484935e+03	0	2.626362e-04
3.200000e+08	4.465312e+11	0.000000e+00	5.728643e-01	1.208440e+13	1.918170e+14	9.049271e+13	4.469409e+03	2.270252e+03	1.479605e+03	0	2.618006e-04
3.300000e+08	4.423829e+11	0.000000e+00	5.728643e-01	1.198652e+13	1.873641e+14	9.002263e+13	4.467297e+03	2.262433e+03	1.474509e+03	0	2.609873e-04
3.400000e+08	4.383677e+11	0.000000e+00	5.728643e-01	1.189176e+13	1.831636e+14	8.955596e+13	4.465203e+03	2.254951e+03	1.469632e+03	0	2.601953e-04
3.500000e+08	4.344786e+11	0.000000e+00	5.728643e-01	1.179996e+13	1.791952e+14	8.909267e+13	4.463125e+03	2.247785e+03	1.464962e+03	0	2.594236e-04
3.600000e+08	4.307088e+11	0.000000e+00	5.728643e-01	1.171096e+13	1.754407e+14	8.863275e+13	4.461063e+03	2.240915e+03	1.460485e+03	0	2.586711e-04
3.700000e+08	4.270521e+11	0.000000e+00	5.728643e-01	1.162461e+13	1.718835e+14	8.817615e+13	4.459017e+03	2.234324e+03	1.456189e+03	0	2.579370e-04
3.800000e+08	4.235027e+11	0.000000e+00	5.728643e-01	1.154078e+13	1.685090e+14	8.772286e+13	4.456985e+03	2.227994e+03	1.452064e+03	0	2.572204e-04
3.900000e+08	4.200551e+11	0.000000e+00	5.728643e-01	1.145933e+13	1.653037e+14	8.727284e+13	4.454968e+03	2.221912e+03	1.448100e+03	0	2.565205e-04
4.000000e+08	4.167042e+11	0.000000e+00	5.728643e-01	1.138016e+13	1.622553e+14	8.682608e+13	4.452966e+03	2.216062e+03	1.444287e+03	0	2.558366e-04
4.100000e+08	4.134453e+11	0.000000e+00	5.728643e-01	1.130315e+13	1.593528e+14	8.638254e+13	4.450977e+03	2.210432e+03	1.440618e+03	0	2.551679e-04
4.200000e+08	4.102739e+11	0.000000e+00	5.728643e-01	1.122818e+13	1.565861e+14	8.594219e+13	4.449002e+03	2.205010e+03	1.437084e+03	0	2.545138e-04
4.300000e+08	4.071858e+11	0.000000e+00	5.728643e-01	1.115518e+13	1.539460e+14	8.550502e+13	4.447040e+03	2.199783e+03	1.433678e+03	0	2.538736e-04
4.400000e+08	4.041770e+11	0.000000e+00	5.728643e-01	1.108403e+13	1.514239e+14	8.507099e+13	4.445091e+03	2.194743e+03	1.430392e+03	0	2.532467e-04
4.500000e+08	4.012439e+11	0.000000e+00	5.728643e-01	1.101466e+13	1.490123e+14	8.464008e+13	4.443154e+03	2.189878e+03	1.427222e+03	0	2.526326e-04
4.600000e+08	3.983829e+11	0.000000e+00	5.728643e-01	1.094698e+13	1.467039e+14	8.421226e+13	4.441229e+03	2.185180e+03	1.424160e+03	0	2.520308e-04
4.700000e+08	3.955909e+11	0.000000e+00	5.728643e-01	1.088093e+13	1.444923e+14	8.378751e+13	4.439316e+03	2.180640e+03	1.421201e+03	0	2.514406e-04
4.800000e+08	3.928647e+11	0.000000e+00	5.728643e-01	1.081641e+13	1.423715e+14	8.336580e+13	4.437414e+03	2.176251e+03	1.418341e+03	0	2.508617e-04
4.900000e+08	3.902014e+11	0.000000e+00	5.728643e-01	1.075338e+13	1.403360e+14	8.294712e+13	4.435524e+03	2.172004e+03	1.415573e+03	0	2.502935e-04
5.000000e+08	3.875983e+11	0.000000e+00	5.728643e-01	1.069175e+13	1.383805e+14	8.253143e+13	4.433645e+03	2.167894e+03	1.412894e+03	0	2.497357e-04
5.100000e+08	3.850528e+11	0.000000e+00	5.728643e-01	1.063148e+13	1.365005e+14	8.211870e+13	4.431776e+03	2.163912e+03	1.410299e+03	0	2.491878e-04
5.200000e+08	3.825625e+11	0.000000e+00	5.728643e-01	1.057251e+13	1.346915e+14	8.170893e+13	4.429918e+03	2.160053e+03	1.407784e+03	0	2.486494e-04
5.300000e+08	3.801251e+11	0.000000e+00	5.728643e-01	1.051477e+13	1.329495e+14	8.130207e+13	4.428070e+03	2.156312e+03	1.405346e+03	0	2.481202e-04
5.400000e+08	3.777384e+11	0.000000e+00	5.728643e-01	1.045823e+13	1.312707e+14	8.089812e+13	4.426233e+03	2.152683e+03	1.402980e+03	0	2.475998e-04
5.500000e+08	3.754003e+11	0.000000e+00	5.728643e-01	1.040283e+13	1.296517e+14	8.049703e+13	4.424405e+03	2.149160e+03	1.400684e+03	0	2.470879e-04
5.600000e+08	3.731089e+11	0.000000e+00	5.728643e-01	1.034853e+13	1.280891e+14	8.009880e+13	4.422587e+03	2.145739e+03	1.398455e+03	0	2.465842e-04
5.700000e+08	3.708624e+11	0.000000e+00	5.728643e-01	1.029528e+13	1.265800e+14	7.970340e+13	4.420778e+03	2.142415e+03	1.396288e+03	0	2.460883e-04
5.800000e+08	3.686590e+11	0.000000e+00	5.728643e-01	1.024304e+13	1.251215e+14	7.931080e+13	4.418979e+03	2.139184e+03	1.394183e+03	0	2.455999e-04
5.900000e+08	3.664971e+11	0.000000e+00	5.728643e-01	1.019178e+13	1.237111e+14	7.892099e+13	4.417189e+03	2.136041e+03	1.392135e+03	0	2.451189e-04
6.000000e+08	3.643750e+11	0.000000e+00	5.728643e-01	1.014145e+13	1.223461e+14	7.853393e+13	4.415408e+03	2.132984e+03	1.390142e+03	0	2.446449e-04
6.100000e+08	3.622913e+11	0.000000e+00	5.728643e-01	1.009203e+13	1.210244e+14	7.814961e+13	4.413635e+03	2.130008e+03	1.388203e+03	0	2.441777e-04
6.200000e+08	3.602446e+11	0.000000e+00	5.728643e-01	1.004347e+13	1.197438e+14	7.776801e+13	4.411871e+03	2.127110e+03	1.386314e+03	0	2.437170e-04
6.300000e+08	3.582335e+11	0.000000e+00	5.728643e-01	9.995750e+12	1.185023e+14	7.738910e+13	4.410116e+03	2.124287e+03	1.384474e+03	0	2.432626e-04
6.400000e+08	3.562568e+11	0.000000e+00	5.728643e-01	9.948837e+12	1.172979e+14	7.701287e+13	4.408369e+03	2.121535e+03	1.382680e+03	0	2.428143e-04
6.500000e+08	3.543131e+11	0.000000e+00	5.728643e-01	9.902703e+12	1.161289e+14	7.663928e+13	4.406630e+03	2.118851e+03	1.380931e+03	0	2.423720e-04
6.600000e+08	3.524015e+11	0.000000e+00	5.728643e-01	9.857320e+12	1.149937e+14	7.626833e+13	4.404899e+03	2.116234e+03	1.379225e+03	0	2.419353e-04
6.700000e+08	3.505207e+11	0.000000e+00	5.728643e-01	9.812663e+12	1.138906e+14	7.589998e+13	4.403177e+03	2.113679e+03	1.377560e+03	0	2.415041e-04
6.800000e+08	3.486697e+11	0.000000e+00	5.728643e-01	9.768706e+12	1.128183e+14	7.553422e+13	4.401462e+03	2.111185e+03	1.375935e+03	0	2.410782e-04
6.900000e+08	3.468475e+11	0.000000e+00	5.728643e-01	9.725426e+12	1.117752e+14	7.517102e+13	4.399754e+03	2.108749e+03	1.374347e+03	0	2.406575e-04
7.000000e+08	3.450531e+11	0.000000e+00	5.728643e-01	9.682800e+12	1.107601e+14	7.481037e+13	4.398054e+03	2.106369e+03	1.372796e+03	0	2.402418e-04
7.100000e+08	3.432857e+11	0.000000e+00	5.728643e-01	9.640808e+12	1.097717e+14	7.445225e+13	4.396362e+03	2.104043e+03	1.371280e+03	0	2.398309e-04
7.200000e+08	3.415443e+11	0.000000e+00	5.728643e-01	9.599428e+12	1.088090e+14	7.409663e+13	4.394677e+03	2.101769e+03	1.369798e+03	0	2.394247e-04
7.300000e+08	3.398281e+11	0.000000e+00	5.728643e-01	9.558641e+12	1.078708e+14	7.374349e+13	4.392999e+03	2.099544e+03	1.368348e+03	0	2.390230e-04
7.400000e+08	3.381364e+11	0.000000e+00	5.728643e-01	9.518429e+12	1.069560e+14	7.339282e+13	4.391328e+03	2.097367e+03	1.366929e+03	0	2.386257e-04
7.500000e+08	3.364684e+11	0.000000e+00	5.728643e-01	9.478774e+12	1.060636e+14	7.304459e+13	4.389665e+03	2.095236e+03	1.365540e+03	0	2.382327e-04
7.600000e+08	3.348232e+11	0.000000e+00	5.728643e-01	9.439658e+12	1.051928e+14	7.269879e+13	4.388008e+03	2.093149e+03	1.364180e+03	0	2.378438e-04
7.700000e+08	3.332004e+11	0.000000e+00	5.728643e-01	9.401065e+12	1.043427e+14	7.235540e+13	4.386358e+03	2.091106e+03	1.362848e+03	0	2.374589e-04
7.800000e+08	3.315991e+11	0.000000e+00	5.728643e-01	9.362979e+12	1.035124e+14	7.201439e+13	4.384715e+03	2.089103e+03	1.361543e+03	0	2.370779e-04
7.900000e+08	3.300187e+11	0.000000e+00	5.728643e-01	9.325387e+12	1.027011e+14	7.167575e+13	4.383078e+03	2.087140e+03	1.360264e+03	0	2.367007e-04
8.000000e+08	3.284587e+11	0.000000e+00	5.728643e-01	9.288272e+12	1.019081e+14	7.133946e+13	4.381448e+03	2.085216e+03	1.359010e+03	0	2.363271e-04
8.100000e+08	3.269184e+11	0.000000e+00	5.728643e-01	9.251622e+12	1.011327e+14	7.100550e+13	4.379825e+03	2.083328e+03	1.357779e+03	0	2.359571e-04
8.200000e+08	3.253973e+11	0.000000e+00	5.728643e-01	9.215424e+12	1.003742e+14	7.067386e+13	4.378208e+03	2.081476e+03	1.356572e+03	0	2.355906e-04
8.300000e+08	3.238948e+11	0.000000e+00	5.728643e-01	9.179664e+12	9.963196e+13	7.034450e+13	4.376597e+03	2.079658e+03	1.355388e+03	0	2.352274e-04
8.400000e+08	3.224105e+11	0.000000e+00	5.728643e-01	9.144330e+12	9.890535e+13	7.001742e+13	4.374993e+03	2.077873e+03	1.354225e+03	0	2.348676e-04
8.500000e+08	3.209438e+11	0.000000e+00	5.728643e-01	9.109412e+12	9.819380e+13	6.969260e+13	4.373394e+03	2.076121e+03	1.353082e+03	0	2.345109e-04
8.600000e+08	3.194942e+11	0.000000e+00	5.728643e-01	9.074897e+12	9.749676e+13	6.937001e+13	4.371802e+03	2.074400e+03	1.351960e+03	0	2.341573e-04
8.700000e+08	3.180613e+11	0.000000e+00	5.728643e-01	9.040776e+12	9.681371e+13	6.904965e+13	4.370216e+03	2.072708e+03	1.350858e+03	0	2.338067e-04
8.800000e+08	3.166447e+11	0.000000e+00	5.728643e-01	9.007037e+12	9.614415e+13	6.873149e+13	4.368635e+03	2.071045e+03	1.349775e+03	0	2.334591e-04
8.900000e+08	3.152440e+11	0.000000e+00	5.728643e-01	8.973671e+12	9.548759e+13	6.841551e+13	4.367061e+03	2.069411e+03	1.348709e+03	0	2.331143e-04
9.000000e+08	3.138586e+11	0.000000e+00	5.728643e-01	8.940668e+12	9.484359e+13	6.810170e+13	4.365493e+03	2.067803e+03	1.347662e+03	0	2.327723e-04
9.100000e+08	3.124883e+11	0.000000e+00	5.728643e-01	8.908019e+12	9.421170e+13	6.779005e+13	4.363930e+03	2.066222e+03	1.346631e+03	0	2.324331e-04
9.200000e+08	3.111327e+11	0.000000e+00	5.728643e-01	8.875716e+12	9.359152e+13	6.748053e+13	4.362373e+03	2.064666e+03	1.345617e+03	0	2.320965e-04
9.300000e+08	3.097913e+11	0.000000e+00	5.728643e-01	8.843749e+12	9.298265e+13	6.717313e+13	4.360821e+03	2.063135e+03	1.344619e+03	0	2.317624e-04
9.400000e+08	3.084639e+11	0.000000e+00	5.728643e-01	8.812111e+12	9.238471e+13	6.686782e+13	4.359275e+03	2.061627e+03	1.343636e+03	0	2.314309e-04
9.500000e+08	3.071501e+11	0.000000e+00	5.728643e-01	8.780794e+12	9.179735e+13	6.656461e+13	4.357735e+03	2.060142e+03	1.342668e+03	0	2.311019e-04
9.600000e+08	3.058496e+11	0.000000e+00	5.728643e-01	8.749790e+12	9.122021e+13	6.626345e+13	4.356200e+03	2.058680e+03	1.341715e+03	0	2.307753e-04
9.700000e+08	3.045621e+11	0.000000e+00	5.728643e-01	8.719092e+12	9.065296e+13	6.596435e+13	4.354671e+03	2.057239e+03	1.340776e+03	0	2.304510e-04
9.800000e+08	3.032873e+11	0.000000e+00	5.728643e-01	8.688693e+12	9.009530e+13	6.566729e+13	4.353147e+03	2.055819e+03	1.339851e+03	0	2.301290e-04
9.900000e+08	3.020249e+11	0.000000e+00	5.728643e-01	8.658586e+12	8.954691e+13	6.537224e+13	4.351628e+03	2.054420e+03	1.338939e+03	0	2.298093e-04
1.000000e+09	3.007746e+11	0.000000e+00	5.728643e-01	8.628764e+12	8.900752e+13	6.507920e+13	4.350114e+03	2.053040e+03	1.338040e+03	0	2.294917e-04
1.010000e+09	2.995361e+11	0.000000e+00	5.728643e-01	8.599221e+12	8.847684e+13	6.478815e+13	4.348606e+03	2.051679e+03	1.337153e+03	0	2.291763e-04
1.020000e+09	2.983092e+11	0.000000e+00	5.728643e-01	8.569951e+12	8.795460e+13	6.449906e+13	4.347103e+03	2.050337e+03	1.336278e+03	0	2.288630e-04
1.030000e+09	2.970936e+11	0.000000e+00	5.728643e-01	8.540949e+12	8.744056e+13	6.421194e+13	4.345605e+03	2.049013e+03	1.335415e+03	0	2.285517e-04
1.040000e+09	2.958892e+11	0.000000e+00	5.728643e-01	8.512208e+12	8.693446e+13	6.392675e+13	4.344112e+03	2.047706e+03	1.334563e+03	0	2.282424e-04
1.050000e+09	2.946955e+11	0.000000e+00	5.728643e-01	8.483723e+12	8.643609e+13	6.364349e+13	4.342624e+03	2.046416e+03	1.333723e+03	0	2.279351e-04
1.060000e+09	2.935126e+11	0.000000e+00	5.728643e-01	8.455488e+12	8.594520e+13	6.336214e+13	4.341141e+03	2.045143e+03	1.332893e+03	0	2.276297e-04
1.070000e+09	2.923400e+11	0.000000e+00	5.728643e-01	8.427500e+12	8.546159e+13	6.308268e+13	4.339663e+03	2.043886e+03	1.332074e+03	0	2.273261e-04
1.080000e+09	2.911776e+11	0.000000e+00	5.728643e-01	8.399751e+12	8.498504e+13	6.280511e+13	4.338190e+03	2.042644e+03	1.331264e+03	0	2.270245e-04
1.090000e+09	2.900252e+11	0.000000e+00	5.728643e-01	8.372238e+12	8.451537e+13	6.252940e+13	4.336721e+03	2.041417e+03	1.330465e+03	0	2.267246e-04
1.100000e+09	2.888826e+11	0.000000e+00	5.728643e-01	8.344957e+12	8.405237e+13	6.225554e+13	4.335258e+03	2.040206e+03	1.329675e+03	0	2.264264e-04
1.110000e+09	2.877496e+11	0.000000e+00	5.728643e-01	8.317902e+12	8.359587e+13	6.198352e+13	4.333799e+03	2.039008e+03	1.328894e+03	0	2.261300e-04
1.120000e+09	2.866261e+11	0.000000e+00	5.728643e-01	8.291069e+12	8.314569e+13	6.171332e+13	4.332345e+03	2.037824e+03	1.328123e+03	0	2.258353e-04
1.130000e+09	2.855117e+11	0.000000e+00	5.728643e-01	8.264454e+12	8.270165e+13	6.144493e+13	4.330896e+03	2.036654e+03	1.327360e+03	0	2.255423e-04
1.140000e+09	2.844065e+11	0.000000e+00	5.728643e-01	8.238053e+12	8.226360e+13	6.117834e+13	4.329451e+03	2.035497e+03	1.326606e+03	0	2.252509e-04
1.150000e+09	2.833101e+11	0.000000e+00	5.728643e-01	8.211862e+12	8.183138e+13	6.091352e+13	4.328011e+03	2.034353e+03	1.325861e+03	0	2.249611e-04
1.160000e+09	2.822225e+11	0.000000e+00	5.728643e-01	8.185877e+12	8.140484e+13	6.065047e+13	4.326575e+03	2.033221e+03	1.325123e+03	0	2.246728e-04
1.170000e+09	2.811434e+11	0.000000e+00	5.728643e-01	8.160094e+12	8.098383e+13	6.038917e+13	4.325144e+03	2.032102e+03	1.324393e+03	0	2.243861e-04
1.180000e+09	2.800728e+11	0.000000e+00	5.728643e-01	8.134511e+12	8.056820e+13	6.012961e+13	4.323718e+03	2.030994e+03	1.323672e+03	0	2.241009e-04
1.190000e+09	2.790104e+11	0.000000e+00	5.728643e-01	8.109122e+12	8.015784e+13	5.987178e+13	4.322296e+03	2.029898e+03	1.322957e+03	0	2.238172e-04
1.200000e+09	2.779562e+11	0.000000e+00	5.728643e-01	8.083925e+12	7.975260e+13	5.961566e+13	4.320878e+03	2.028813e+03	1.322250e+03	0	2.235349e-04
1.210000e+09	2.769099e+11	0.000000e+00	5.728643e-01	8.058917e+12	7.935236e+13	5.936124e+13	4.319465e+03	2.027739e+03	1.321550e+03	0	2.232541e-04
1.220000e+09	2.758715e+11	0.000000e+00	5.728643e-01	8.034094e+12	7.895699e+13	5.910850e+13	4.318056e+03	2.026676e+03	1.320857e+03	0	2.229747e-04
1.230000e+09	2.748408e+11	0.000000e+00	5.728643e-01	8.009454e+12	7.856639e+13	5.885743e+13	4.316652e+03	2.025623e+03	1.320171e+03	0	2.226967e-04
1.240000e+09	2.738177e+11	0.000000e+00	5.728643e-01	7.984993e+12	7.818044e+13	5.860803e+13	4.315252e+03	2.024580e+03	1.319491e+03	0	2.224200e-04
1.250000e+09	2.728021e+11	0.000000e+00	5.728643e-01	7.960708e+12	7.779902e+13	5.836027e+13	4.313856e+03	2.023548e+03	1.318818e+03	0	2.221447e-04
1.260000e+09	2.717938e+11	0.000000e+00	5.728643e-01	7.936597e+12	7.742204e+13	5.811414e+13	4.312464e+03	2.022524e+03	1.318152e+03	0	2.218706e-04
1.270000e+09	2.707928e+11	0.000000e+00	5.728643e-01	7.912656e+12	7.704939e+13	5.786964e+13	4.311077e+03	2.021511e+03	1.317491e+03	0	2.215979e-04
1.280000e+09	2.697988e+11	0.000000e+00	5.728643e-01	7.888883e+12	7.668098e+13	5.762674e+13	4.309694e+03	2.020506e+03	1.316836e+03	0	2.213265e-04
1.290000e+09	2.688119e+11	0.000000e+00	5.728643e-01	7.865276e+12	7.631671e+13	5.738544e+13	4.308315e+03	2.019511e+03	1.316188e+03	0	2.210562e-04
1.300000e+09	2.678318e+11	0.000000e+00	5.728643e-01	7.841832e+12	7.595648e+13	5.714573e+13	4.306940e+03	2.018524e+03	1.315545e+03	0	2.207873e-04
1.310000e+09	2.668586e+11	0.000000e+00	5.728643e-01	7.818548e+12	7.560022e+13	5.690758e+13	4.305569e+03	2.017546e+03	1.314907e+03	0	2.205195e-04
1.320000e+09	2.658920e+11	0.000000e+00	5.728643e-01	7.795421e+12	7.524782e+13	5.667100e+13	4.304202e+03	2.016577e+03	1.314275e+03	0	2.202529e-04
1.330000e+09	2.649320e+11	0.000000e+00	5.728643e-01	7.772451e+12	7.489922e+13	5.643596e+13	4.302839e+03	2.015615e+03	1.313649e+03	0	2.199876e-04
1.340000e+09	2.639785e+11	0.000000e+00	5.728643e-01	7.749634e+12	7.455433e+13	5.620246e+13	4.301480e+03	2.014662e+03	1.313027e+03	0	2.197233e-04
1.350000e+09	2.630314e+11	0.000000e+00	5.728643e-01	7.726968e+12	7.421307e+13	5.597048e+13	4.300126e+03	2.013716e+03	1.312411e+03	0	2.194602e-04
1.360000e+09	2.620905e+11	0.000000e+00	5.728643e-01	7.704451e+12	7.387537e+13	5.574001e+13	4.298775e+03	2.012779e+03	1.311800e+03	0	2.191983e-04
