#t		Qconv[W]	Ri[Rp]		R*[Rp]		Qc[W]		Qm[W]		Qr[W]		Tcmb[K]		Tl[K]		Tup[K]		RiFlag		Bs[T]
0.000000e+00	9.028722e+11	0.000000e+00	5.728643e-01	2.183376e+13	1.437195e+15	1.193351e+14	4.783145e+03	3.296458e+03	2.098933e+03	0	3.284935e-04
1.000000e+07	8.992209e+11	0.000000e+00	5.728643e-01	2.175270e+13	1.242027e+15	1.186739e+14	4.779779e+03	3.199181e+03	2.036995e+03	0	3.280501e-04
2.000000e+07	8.895338e+11	0.000000e+00	5.728643e-01	2.154018e+13	1.088561e+15	1.180176e+14	4.776426e+03	3.115929e+03	1.983986e+03	0	3.268678e-04
3.000000e+07	8.765189e+11	0.000000e+00	5.728643e-01	2.125518e+13	9.655642e+14	1.173663e+14	4.773105e+03	3.043793e+03	1.938055e+03	0	3.252658e-04
4.000000e+07	8.617831e+11	0.000000e+00	5.728643e-01	2.093272e+13	8.653409e+14	1.167198e+14	4.769828e+03	2.980624e+03	1.897834e+03	0	3.234327e-04
5.000000e+07	8.462921e+11	0.000000e+00	5.728643e-01	2.059384e+13	7.824828e+14	1.160781e+14	4.766601e+03	2.924800e+03	1.862289e+03	0	3.214831e-04
6.000000e+07	8.306289e+11	0.000000e+00	5.728643e-01	2.025123e+13	7.131036e+14	1.154412e+14	4.763426e+03	2.875073e+03	1.830627e+03	0	3.194874e-04
7.000000e+07	8.151443e+11	0.000000e+00	5.728643e-01	1.991253e+13	6.543533e+14	1.148091e+14	4.760303e+03	2.830468e+03	1.802226e+03	0	3.174896e-04
8.000000e+07	8.000451e+11	0.000000e+00	5.728643e-01	1.958225e+13	6.041035e+14	1.141816e+14	4.757232e+03	2.790211e+03	1.776594e+03	0	3.155170e-04
9.000000e+07	7.854486e+11	0.000000e+00	5.728643e-01	1.926294e+13	5.607382e+14	1.135588e+14	4.754213e+03	2.753680e+03	1.753333e+03	0	3.135864e-04
1.000000e+08	7.714152e+11	0.000000e+00	5.728643e-01	1.895592e+13	5.230126e+14	1.129407e+14	4.751242e+03	2.720368e+03	1.732123e+03	0	3.117076e-04
1.100000e+08	7.579698e+11	0.000000e+00	5.728643e-01	1.866173e+13	4.899545e+14	1.123271e+14	4.748319e+03	2.689858e+03	1.712696e+03	0	3.098860e-04
1.200000e+08	7.451151e+11	0.000000e+00	5.728643e-01	1.838043e+13	4.607955e+14	1.117181e+14	4.745440e+03	2.661804e+03	1.694834e+03	0	3.081242e-04
1.300000e+08	7.328397e+11	0.000000e+00	5.728643e-01	1.811176e+13	4.349214e+14	1.111136e+14	4.742606e+03	2.635916e+03	1.678350e+03	0	3.064227e-04
1.400000e+08	7.211240e+11	0.000000e+00	5.728643e-01	1.785531e+13	4.118363e+14	1.105136e+14	4.739812e+03	2.611948e+03	1.663089e+03	0	3.047811e-04
1.500000e+08	7.099438e+11	0.000000e+00	5.728643e-01	1.761053e+13	3.911360e+14	1.099180e+14	4.737058e+03	2.589691e+03	1.648918e+03	0	3.031978e-04
1.600000e+08	6.992722e+11	0.000000e+00	5.728643e-01	1.737685e+13	3.724884e+14	1.093268e+14	4.734342e+03	2.568967e+03	1.635723e+03	0	3.016709e-04
1.700000e+08	6.890818e+11	0.000000e+00	5.728643e-01	1.715367e+13	3.556180e+14	1.087399e+14	4.731662e+03	2.549621e+03	1.623404e+03	0	3.001983e-04
1.800000e+08	6.793451e+11	0.000000e+00	5.728643e-01	1.694039e+13	3.402953e+14	1.081574e+14	4.729016e+03	2.531519e+03	1.611879e+03	0	2.987777e-04
1.900000e+08	6.700353e+11	0.000000e+00	5.728643e-01	1.673642e+13	3.263272e+14	1.075792e+14	4.726403e+03	2.514545e+03	1.601070e+03	0	2.974066e-04
2.000000e+08	6.611268e+11	0.000000e+00	5.728643e-01	1.654121e+13	3.135503e+14	1.070052e+14	4.723821e+03	2.498595e+03	1.590915e+03	0	2.960826e-04
2.100000e+08	6.525953e+11	0.000000e+00	5.728643e-01	1.635422e+13	3.018259e+14	1.064355e+14	4.721269e+03	2.483579e+03	1.581354e+03	0	2.948035e-04
2.200000e+08	6.444176e+11	0.000000e+00	5.728643e-01	1.617495e+13	2.910351e+14	1.058699e+14	4.718746e+03	2.469419e+03	1.572338e+03	0	2.935669e-04
2.300000e+08	6.365723e+11	0.000000e+00	5.728643e-01	1.600294e+13	2.810758e+14	1.053085e+14	4.716251e+03	2.456042e+03	1.563820e+03	0	2.923707e-04
2.400000e+08	6.290391e+11	0.000000e+00	5.728643e-01	1.583773e+13	2.718597e+14	1.047512e+14	4.713783e+03	2.443387e+03	1.555762e+03	0	2.912129e-04
2.500000e+08	6.217992e+11	0.000000e+00	5.728643e-01	1.567892e+13	2.633104e+14	1.041980e+14	4.711339e+03	2.431395e+03	1.548127e+03	0	2.900913e-04
2.600000e+08	6.148350e+11	0.000000e+00	5.728643e-01	1.552614e+13	2.553610e+14	1.036488e+14	4.708921e+03	2.420018e+03	1.540883e+03	0	2.890042e-04
2.700000e+08	6.081302e+11	0.000000e+00	5.728643e-01	1.537901e+13	2.479532e+14	1.031037e+14	4.706525e+03	2.409208e+03	1.534000e+03	0	2.879498e-04
2.800000e+08	6.016695e+11	0.000000e+00	5.728643e-01	1.523720e+13	2.410356e+14	1.025625e+14	4.704153e+03	2.398926e+03	1.527453e+03	0	2.869265e-04
2.900000e+08	5.954388e+11	0.000000e+00	5.728643e-01	1.510042e+13	2.345631e+14	1.020253e+14	4.701802e+03	2.389133e+03	1.521218e+03	0	2.859326e-04
3.000000e+08	5.894249e+11	0.000000e+00	5.728643e-01	1.496837e+13	2.284955e+14	1.014920e+14	4.699472e+03	2.379796e+03	1.515273e+03	0	2.849667e-04
3.100000e+08	5.836155e+11	0.000000e+00	5.728643e-01	1.484079e+13	2.227974e+14	1.009626e+14	4.697163e+03	2.370883e+03	1.509598e+03	0	2.840274e-04
3.200000e+08	5.779994e+11	0.000000e+00	5.728643e-01	1.471742e+13	2.174372e+14	1.004370e+14	4.694873e+03	2.362368e+03	1.504176e+03	0	2.831134e-04
3.300000e+08	5.725658e+11	0.000000e+00	5.728643e-01	1.459804e+13	2.123867e+14	9.991529e+13	4.692603e+03	2.354224e+03	1.498990e+03	0	2.822235e-04
3.400000e+08	5.673049e+11	0.000000e+00	5.728643e-01	1.448243e+13	2.076206e+14	9.939734e+13	4.690350e+03	2.346427e+03	1.494026e+03	0	2.813564e-04
3.500000e+08	5.622074e+11	0.000000e+00	5.728643e-01	1.437038e+13	2.031161e+14	9.888314e+13	4.688116e+03	2.338956e+03	1.489269e+03	0	2.805112e-04
3.600000e+08	5.572647e+11	0.000000e+00	5.728643e-01	1.426171e+13	1.988530e+14	9.837267e+13	4.685899e+03	2.331791e+03	1.484707e+03	0	2.796867e-04
3.700000e+08	5.524689e+11	0.000000e+00	5.728643e-01	1.415625e+13	1.948128e+14	9.786590e+13	4.683698e+03	2.324914e+03	1.480328e+03	0	2.788821e-04
3.800000e+08	5.478123e+11	0.000000e+00	5.728643e-01	1.405384e+13	1.909787e+14	9.736280e+13	4.681514e+03	2.318308e+03	1.476122e+03	0	2.780963e-04
3.900000e+08	5.432880e+11	0.000000e+00	5.728643e-01	1.395431e+13	1.873359e+14	9.686333e+13	4.679346e+03	2.311957e+03	1.472078e+03	0	2.773286e-04
4.000000e+08	5.388894e+11	0.000000e+00	5.728643e-01	1.385752e+13	1.838705e+14	9.636747e+13	4.677193e+03	2.305847e+03	1.468188e+03	0	2.765782e-04
4.100000e+08	5.346103e+11	0.000000e+00	5.728643e-01	1.376335e+13	1.805701e+14	9.587519e+13	4.675054e+03	2.299964e+03	1.464442e+03	0	2.758441e-04
4.200000e+08	5.304450e+11	0.000000e+00	5.728643e-01	1.367166e+13	1.774233e+14	9.538645e+13	4.672931e+03	2.294296e+03	1.460833e+03	0	2.751259e-04
4.300000e+08	5.263881e+11	0.000000e+00	5.728643e-01	1.358233e+13	1.744197e+14	9.490123e+13	4.670821e+03	2.288831e+03	1.457353e+03	0	2.744227e-04
4.400000e+08	5.224345e+11	0.000000e+00	5.728643e-01	1.349526e+13	1.715499e+14	9.441951e+13	4.668725e+03	2.283559e+03	1.453996e+03	0	2.737339e-04
4.500000e+08	5.185793e+11	0.000000e+00	5.728643e-01	1.341035e+13	1.688051e+14	9.394124e+13	4.666643e+03	2.278469e+03	1.450756e+03	0	2.730589e-04
4.600000e+08	5.148182e+11	0.000000e+00	5.728643e-01	1.332749e+13	1.661774e+14	9.346641e+13	4.664574e+03	2.273553e+03	1.447625e+03	0	2.723972e-04
4.700000e+08	5.111469e+11	0.000000e+00	5.728643e-01	1.324659e+13	1.636594e+14	9.299499e+13	4.662517e+03	2.268800e+03	1.444599e+03	0	2.717481e-04
4.800000e+08	5.075614e+11	0.000000e+00	5.728643e-01	1.316756e+13	1.612443e+14	9.252694e+13	4.660473e+03	2.264203e+03	1.441672e+03	0	2.711112e-04
4.900000e+08	5.040580e+11	0.000000e+00	5.728643e-01	1.309033e+13	1.589260e+14	9.206225e+13	4.658441e+03	2.259755e+03	1.438840e+03	0	2.704860e-04
5.000000e+08	5.006331e+11	0.000000e+00	5.728643e-01	1.301482e+13	1.566985e+14	9.160087e+13	4.656422e+03	2.255448e+03	1.436097e+03	0	2.698720e-04
5.100000e+08	4.972835e+11	0.000000e+00	5.728643e-01	1.294094e+13	1.545567e+14	9.114280e+13	4.654413e+03	2.251275e+03	1.433440e+03	0	2.692688e-04
5.200000e+08	4.940058e+11	0.000000e+00	5.728643e-01	1.286865e+13	1.524955e+14	9.068799e+13	4.652416e+03	2.247230e+03	1.430865e+03	0	2.686759e-04
5.300000e+08	4.907973e+11	0.000000e+00	5.728643e-01	1.279786e+13	1.505104e+14	9.023642e+13	4.650431e+03	2.243307e+03	1.428367e+03	0	2.680929e-04
5.400000e+08	4.876550e+11	0.000000e+00	5.728643e-01	1.272852e+13	1.485972e+14	8.978808e+13	4.648456e+03	2.239500e+03	1.425943e+03	0	2.675196e-04
5.500000e+08	4.845764e+11	0.000000e+00	5.728643e-01	1.266057e+13	1.467518e+14	8.934292e+13	4.646492e+03	2.235805e+03	1.423590e+03	0	2.669554e-04
5.600000e+08	4.815588e+11	0.000000e+00	5.728643e-01	1.259396e+13	1.449707e+14	8.890093e+13	4.644538e+03	2.232215e+03	1.421304e+03	0	2.664001e-04
5.700000e+08	4.785999e+11	0.000000e+00	5.728643e-01	1.252863e+13	1.432503e+14	8.846207e+13	4.642594e+03	2.228727e+03	1.419083e+03	0	2.658534e-04
5.800000e+08	4.756975e+11	0.000000e+00	5.728643e-01	1.246453e+13	1.415876e+14	8.802633e+13	4.640661e+03	2.225335e+03	1.416924e+03	0	2.653149e-04
5.900000e+08	4.728493e+11	0.000000e+00	5.728643e-01	1.240162e+13	1.399794e+14	8.759368e+13	4.638738e+03	2.222036e+03	1.414823e+03	0	2.647843e-04
6.000000e+08	4.700534e+11	0.000000e+00	5.728643e-01	1.233985e+13	1.384231e+14	8.716409e+13	4.636824e+03	2.218825e+03	1.412779e+03	0	2.642614e-04
6.100000e+08	4.673077e+11	0.000000e+00	5.728643e-01	1.227918e+13	1.369161e+14	8.673754e+13	4.634920e+03	2.215700e+03	1.410789e+03	0	2.637459e-04
6.200000e+08	4.646106e+11	0.000000e+00	5.728643e-01	1.221957e+13	1.354558e+14	8.631400e+13	4.633025e+03	2.212656e+03	1.408850e+03	0	2.632375e-04
6.300000e+08	4.619601e+11	0.000000e+00	5.728643e-01	1.216099e+13	1.340400e+14	8.589346e+13	4.631139e+03	2.209689e+03	1.406962e+03	0	2.627359e-04
6.400000e+08	4.593548e+11	0.000000e+00	5.728643e-01	1.210339e+13	1.326665e+14	8.547588e+13	4.629262e+03	2.206797e+03	1.405120e+03	0	2.622411e-04
6.500000e+08	4.567928e+11	0.000000e+00	5.728643e-01	1.204674e+13	1.313335e+14	8.506124e+13	4.627395e+03	2.203977e+03	1.403325e+03	0	2.617527e-04
6.600000e+08	4.542729e+11	0.000000e+00	5.728643e-01	1.199101e+13	1.300388e+14	8.464952e+13	4.625535e+03	2.201226e+03	1.401573e+03	0	2.612704e-04
6.700000e+08	4.517935e+11	0.000000e+00	5.728643e-01	1.193616e+13	1.287808e+14	8.424069e+13	4.623685e+03	2.198540e+03	1.399863e+03	0	2.607942e-04
6.800000e+08	4.493532e+11	0.000000e+00	5.728643e-01	1.188217e+13	1.275579e+14	8.383473e+13	4.621843e+03	2.195918e+03	1.398193e+03	0	2.603238e-04
6.900000e+08	4.469508e+11	0.000000e+00	5.728643e-01	1.182901e+13	1.263683e+14	8.343163e+13	4.620009e+03	2.193357e+03	1.396563e+03	0	2.598591e-04
7.000000e+08	4.445849e+11	0.000000e+00	5.728643e-01	1.177665e+13	1.252107e+14	8.303134e+13	4.618184e+03	2.190854e+03	1.394969e+03	0	2.593998e-04
7.100000e+08	4.422545e+11	0.000000e+00	5.728643e-01	1.172507e+13	1.240836e+14	8.263387e+13	4.616366e+03	2.188408e+03	1.393411e+03	0	2.589457e-04
7.200000e+08	4.399584e+11	0.000000e+00	5.728643e-01	1.167424e+13	1.229858e+14	8.223917e+13	4.614557e+03	2.186016e+03	1.391888e+03	0	2.584968e-04
7.300000e+08	4.376955e+11	0.000000e+00	5.728643e-01	1.162413e+13	1.219159e+14	8.184722e+13	4.612755e+03	2.183676e+03	1.390398e+03	0	2.580529e-04
7.400000e+08	4.354647e+11	0.000000e+00	5.728643e-01	1.157473e+13	1.208727e+14	8.145802e+13	4.610961e+03	2.181386e+03	1.388940e+03	0	2.576137e-04
7.500000e+08	4.332651e+11	0.000000e+00	5.728643e-01	1.152600e+13	1.198553e+14	8.107153e+13	4.609175e+03	2.179144e+03	1.387513e+03	0	2.571792e-04
7.600000e+08	4.310957e+11	0.000000e+00	5.728643e-01	1.147795e+13	1.188624e+14	8.068773e+13	4.607396e+03	2.176949e+03	1.386115e+03	0	2.567493e-04
7.700000e+08	4.289557e+11	0.000000e+00	5.728643e-01	1.143053e+13	1.178932e+14	8.030660e+13	4.605625e+03	2.174798e+03	1.384746e+03	0	2.563237e-04
7.800000e+08	4.268440e+11	0.000000e+00	5.728643e-01	1.138373e+13	1.169466e+14	7.992812e+13	4.603861e+03	2.172691e+03	1.383404e+03	0	2.559024e-04
7.900000e+08	4.247600e+11	0.000000e+00	5.728643e-01	1.133754e+13	1.160217e+14	7.955226e+13	4.602104e+03	2.170626e+03	1.382089e+03	0	2.554853e-04
8.000000e+08	4.227028e+11	0.000000e+00	5.728643e-01	1.129194e+13	1.151178e+14	7.917902e+13	4.600354e+03	2.168601e+03	1.380800e+03	0	2.550721e-04
8.100000e+08	4.206716e+11	0.000000e+00	5.728643e-01	1.124691e+13	1.142339e+14	7.880836e+13	4.598611e+03	2.166614e+03	1.379535e+03	0	2.546629e-04
8.200000e+08	4.186657e+11	0.000000e+00	5.728643e-01	1.120243e+13	1.133694e+14	7.844026e+13	4.596876e+03	2.164665e+03	1.378294e+03	0	2.542575e-04
8.300000e+08	4.166845e+11	0.000000e+00	5.728643e-01	1.115849e+13	1.125235e+14	7.807472e+13	4.595147e+03	2.162752e+03	1.377076e+03	0	2.538558e-04
8.400000e+08	4.147271e+11	0.000000e+00	5.728643e-01	1.111507e+13	1.116954e+14	7.771169e+13	4.593425e+03	2.160874e+03	1.375880e+03	0	2.534577e-04
8.500000e+08	4.127931e+11	0.000000e+00	5.728643e-01	1.107217e+13	1.108846e+14	7.735117e+13	4.591709e+03	2.159030e+03	1.374706e+03	0	2.530631e-04
8.600000e+08	4.108817e+11	0.000000e+00	5.728643e-01	1.102976e+13	1.100904e+14	7.699314e+13	4.590000e+03	2.157218e+03	1.373552e+03	0	2.526719e-04
8.700000e+08	4.089923e+11	0.000000e+00	5.728643e-01	1.098784e+13	1.093122e+14	7.663757e+13	4.588298e+03	2.155438e+03	1.372419e+03	0	2.522840e-04
8.800000e+08	4.071245e+11	0.000000e+00	5.728643e-01	1.094638e+13	1.085495e+14	7.628445e+13	4.586602e+03	2.153689e+03	1.371305e+03	0	2.518994e-04
8.900000e+08	4.052775e+11	0.000000e+00	5.728643e-01	1.090539e+13	1.078016e+14	7.593375e+13	4.584913e+03	2.151969e+03	1.370210e+03	0	2.515179e-04
9.000000e+08	4.034510e+11	0.000000e+00	5.728643e-01	1.086484e+13	1.070681e+14	7.558546e+13	4.583230e+03	2.150277e+03	1.369132e+03	0	2.511394e-04
9.100000e+08	4.016444e+11	0.000000e+00	5.728643e-01	1.082473e+13	1.063485e+14	7.523956e+13	4.581553e+03	2.148613e+03	1.368073e+03	0	2.507640e-04
9.200000e+08	3.998571e+11	0.000000e+00	5.728643e-01	1.078504e+13	1.056422e+14	7.489602e+13	4.579882e+03	2.146975e+03	1.367030e+03	0	2.503915e-04
9.300000e+08	3.980888e+11	0.000000e+00	5.728643e-01	1.074577e+13	1.049490e+14	7.455484e+13	4.578218e+03	2.145364e+03	1.366004e+03	0	2.500219e-04
9.400000e+08	3.963389e+11	0.000000e+00	5.728643e-01	1.070690e+13	1.042682e+14	7.421598e+13	4.576559e+03	2.143778e+03	1.364994e+03	0	2.496550e-04
9.500000e+08	3.946070e+11	0.000000e+00	5.728643e-01	1.066843e+13	1.035996e+14	7.387945e+13	4.574907e+03	2.142216e+03	1.364000e+03	0	2.492908e-04
9.600000e+08	3.928928e+11	0.000000e+00	5.728643e-01	1.063034e+13	1.029427e+14	7.354520e+13	4.573260e+03	2.140677e+03	1.363020e+03	0	2.489293e-04
9.700000e+08	3.911957e+11	0.000000e+00	5.728643e-01	1.059264e+13	1.022971e+14	7.321323e+13	4.571619e+03	2.139161e+03	1.362055e+03	0	2.485704e-04
9.800000e+08	3.895155e+11	0.000000e+00	5.728643e-01	1.055530e+13	1.016625e+14	7.288352e+13	4.569984e+03	2.137667e+03	1.361104e+03	0	2.482140e-04
9.900000e+08	3.878516e+11	0.000000e+00	5.728643e-01	1.051832e+13	1.010385e+14	7.255605e+13	4.568355e+03	2.136195e+03	1.360166e+03	0	2.478600e-04
1.000000e+09	3.862038e+11	0.000000e+00	5.728643e-01	1.048169e+13	1.004248e+14	7.223081e+13	4.566732e+03	2.134744e+03	1.359242e+03	0	2.475085e-04
1.010000e+09	3.845717e+11	0.000000e+00	5.728643e-01	1.044540e+13	9.982110e+13	7.190777e+13	4.565114e+03	2.133313e+03	1.358331e+03	0	2.471594e-04
1.020000e+09	3.829549e+11	0.000000e+00	5.728643e-01	1.040946e+13	9.922709e+13	7.158692e+13	4.563502e+03	2.131901e+03	1.357432e+03	0	2.468125e-04
1.030000e+09	3.813531e+11	0.000000e+00	5.728643e-01	1.037384e+13	9.864247e+13	7.126824e+13	4.561895e+03	2.130508e+03	1.356545e+03	0	2.464679e-04
1.040000e+09	3.797661e+11	0.000000e+00	5.728643e-01	1.033854e+13	9.806695e+13	7.095171e+13	4.560294e+03	2.129134e+03	1.355670e+03	0	2.461256e-04
1.050000e+09	3.781934e+11	0.000000e+00	5.728643e-01	1.030357e+13	9.750028e+13	7.063732e+13	4.558698e+03	2.127778e+03	1.354807e+03	0	2.457853e-04
1.060000e+09	3.766348e+11	0.000000e+00	5.728643e-01	1.026890e+13	9.694220e+13	7.032506e+13	4.557108e+03	2.126439e+03	1.353954e+03	0	2.454472e-04
1.070000e+09	3.750901e+11	0.000000e+00	5.728643e-01	1.023453e+13	9.639246e+13	7.001489e+13	4.555523e+03	2.125118e+03	1.353113e+03	0	2.451112e-04
1.080000e+09	3.735588e+11	0.000000e+00	5.728643e-01	1.020046e+13	9.585081e+13	6.970681e+13	4.553943e+03	2.123812e+03	1.352282e+03	0	2.447772e-04
1.090000e+09	3.720408e+11	0.000000e+00	5.728643e-01	1.016668e+13	9.531705e+13	6.940081e+13	4.552369e+03	2.122523e+03	1.351461e+03	0	2.444452e-04
1.100000e+09	3.705359e+11	0.000000e+00	5.728643e-01	1.013319e+13	9.479094e+13	6.909685e+13	4.550800e+03	2.121249e+03	1.350650e+03	0	2.441152e-04
1.110000e+09	3.690436e+11	0.000000e+00	5.728643e-01	1.009998e+13	9.427227e+13	6.879494e+13	4.549236e+03	2.119990e+03	1.349848e+03	0	2.437870e-04
1.120000e+09	3.675638e+11	0.000000e+00	5.728643e-01	1.006704e+13	9.376085e+13	6.849505e+13	4.547677e+03	2.118747e+03	1.349056e+03	0	2.434607e-04
1.130000e+09	3.660963e+11	0.000000e+00	5.728643e-01	1.003437e+13	9.325648e+13	6.819717e+13	4.546123e+03	2.117517e+03	1.348273e+03	0	2.431363e-04
1.140000e+09	3.646409e+11	0.000000e+00	5.728643e-01	1.000197e+13	9.275897e+13	6.790127e+13	4.544574e+03	2.116301e+03	1.347499e+03	0	2.428137e-04
1.150000e+09	3.631972e+11	0.000000e+00	5.728643e-01	9.969821e+12	9.226814e+13	6.760736e+13	4.543030e+03	2.115099e+03	1.346734e+03	0	2.424928e-04
1.160000e+09	3.617651e+11	0.000000e+00	5.728643e-01	9.937931e+12	9.178382e+13	6.731540e+13	4.541492e+03	2.113911e+03	1.345977e+03	0	2.421737e-04
1.170000e+09	3.603444e+11	0.000000e+00	5.728643e-01	9.906290e+12	9.130584e+13	6.702539e+13	4.539958e+03	2.112735e+03	1.345228e+03	0	2.418562e-04
1.180000e+09	3.589349e+11	0.000000e+00	5.728643e-01	9.874895e+12	9.083404e+13	6.673731e+13	4.538429e+03	2.111571e+03	1.344488e+03	0	2.415405e-04
1.190000e+09	3.575364e+11	0.000000e+00	5.728643e-01	9.843742e+12	9.036827e+13	6.645114e+13	4.536904e+03	2.110420e+03	1.343755e+03	0	2.412264e-04
1.200000e+09	3.561487e+11	0.000000e+00	5.728643e-01	9.812826e+12	8.990837e+13	6.616687e+13	4.535385e+03	2.109281e+03	1.343030e+03	0	2.409139e-04
1.210000e+09	3.547715e+11	0.000000e+00	5.728643e-01	9.782143e+12	8.945420e+13	6.588449e+13	4.533870e+03	2.108154e+03	1.342312e+03	0	2.406029e-04
1.220000e+09	3.534048e+11	0.000000e+00	5.728643e-01	9.751689e+12	8.900562e+13	6.560398e+13	4.532360e+03	2.107038e+03	1.341601e+03	0	2.402936e-04
1.230000e+09	3.520483e+11	0.000000e+00	5.728643e-01	9.721460e+12	8.856250e+13	6.532533e+13	4.530855e+03	2.105932e+03	1.340897e+03	0	2.399857e-04
1.240000e+09	3.507019e+11	0.000000e+00	5.728643e-01	9.691453e+12	8.812471e+13	6.504851e+13	4.529355e+03	2.104838e+03	1.340200e+03	0	2.396794e-04
1.250000e+09	3.493655e+11	0.000000e+00	5.728643e-01	9.661664e+12	8.769212e+13	6.477353e+13	4.527859e+03	2.103754e+03	1.339510e+03	0	2.393746e-04
1.260000e+09	3.480387e+11	0.000000e+00	5.728643e-01	9.632090e+12	8.726461e+13	6.450035e+13	4.526367e+03	2.102681e+03	1.338827e+03	0	2.390712e-04
1.270000e+09	3.467216e+11	0.000000e+00	5.728643e-01	9.602727e+12	8.684207e+13	6.422898e+13	4.524881e+03	2.101617e+03	1.338150e+03	0	2.387692e-04
1.280000e+09	3.454139e+11	0.000000e+00	5.728643e-01	9.573571e+12	8.642438e+13	6.395939e+13	4.523398e+03	2.100564e+03	1.337479e+03	0	2.384686e-04
1.290000e+09	3.441155e+11	0.000000e+00	5.728643e-01	9.544620e+12	8.601143e+13	6.369158e+13	4.521921e+03	2.099519e+03	1.336814e+03	0	2.381695e-04
1.300000e+09	3.428263e+11	0.000000e+00	5.728643e-01	9.515871e+12	8.560312e+13	6.342552e+13	4.520447e+03	2.098485e+03	1.336155e+03	0	2.378717e-04
1.310000e+09	3.415461e+11	0.000000e+00	5.728643e-01	9.487319e+12	8.519935e+13	6.316120e+13	4.518979e+03	2.097459e+03	1.335502e+03	0	2.375752e-04
1.320000e+09	3.402747e+11	0.000000e+00	5.728643e-01	9.458964e+12	8.480001e+13	6.289862e+13	4.517514e+03	2.096442e+03	1.334855e+03	0	2.372801e-04
1.330000e+09	3.390121e+11	0.000000e+00	5.728643e-01	9.430800e+12	8.440502e+13	6.263775e+13	4.516054e+03	2.095434e+03	1.334213e+03	0	2.369862e-04
1.340000e+09	3.377581e+11	0.000000e+00	5.728643e-01	9.402826e+12	8.401427e+13	6.237859e+13	4.514598e+03	2.094435e+03	1.333576e+03	0	2.366936e-04
1.350000e+09	3.365126e+11	0.000000e+00	5.728643e-01	9.375039e+12	8.362769e+13	6.212112e+13	4.513147e+03	2.093444e+03	1.332945e+03	0	2.364024e-04
1.360000e+09	3.352755e+11	0.000000e+00	5.728643e-01	9.347437e+12	8.324517e+13	6.186533e+13	4.511700e+03	2.092461e+03	1.332319e+03	0	2.361123e-04
