#t		Qconv[W]	Ri[Rp]		R*[Rp]		Qc[W]		Qm[W]		Qr[W]		Tcmb[K]		Tl[K]		Tup[K]		RiFlag		Bs[T]
0.000000e+00	5.055483e+12	0.000000e+00	5.628141e-01	8.568520e+13	2.577499e+15	2.384094e+14	7.190113e+03	4.456596e+03	2.302428e+03	0	5.676657e-04
1.000000e+07	4.967932e+12	0.000000e+00	5.628141e-01	8.442444e+13	2.308762e+15	2.370884e+14	7.184105e+03	4.361945e+03	2.253528e+03	0	5.643696e-04
2.000000e+07	4.875867e+12	0.000000e+00	5.628141e-01	8.309945e+13	2.085989e+15	2.357773e+14	7.178184e+03	4.278125e+03	2.210224e+03	0	5.608616e-04
3.000000e+07	4.782581e+12	0.000000e+00	5.628141e-01	8.175719e+13	1.899058e+15	2.344760e+14	7.172357e+03	4.203320e+03	2.171577e+03	0	5.572617e-04
4.000000e+07	4.690085e+12	0.000000e+00	5.628141e-01	8.042639e+13	1.740496e+15	2.331844e+14	7.166623e+03	4.136102e+03	2.136850e+03	0	5.536458e-04
5.000000e+07	4.599592e+12	0.000000e+00	5.628141e-01	7.912435e+13	1.604688e+15	2.319025e+14	7.160982e+03	4.075334e+03	2.105456e+03	0	5.500618e-04
6.000000e+07	4.511806e+12	0.000000e+00	5.628141e-01	7.786111e+13	1.487354e+15	2.306301e+14	7.155432e+03	4.020102e+03	2.076921e+03	0	5.465399e-04
7.000000e+07	4.427109e+12	0.000000e+00	5.628141e-01	7.664213e+13	1.385182e+15	2.293672e+14	7.149971e+03	3.969657e+03	2.050859e+03	0	5.430984e-04
8.000000e+07	4.345677e+12	0.000000e+00	5.628141e-01	7.546990e+13	1.295581e+15	2.281137e+14	7.144595e+03	3.923385e+03	2.026953e+03	0	5.397478e-04
9.000000e+07	4.267553e+12	0.000000e+00	5.628141e-01	7.434503e+13	1.216495e+15	2.268695e+14	7.139301e+03	3.880772e+03	2.004938e+03	0	5.364938e-04
1.000000e+08	4.192698e+12	0.000000e+00	5.628141e-01	7.326695e+13	1.146278e+15	2.256346e+14	7.134085e+03	3.841389e+03	1.984592e+03	0	5.333385e-04
1.100000e+08	4.121018e+12	0.000000e+00	5.628141e-01	7.223434e+13	1.083599e+15	2.244088e+14	7.128945e+03	3.804872e+03	1.965726e+03	0	5.302817e-04
1.200000e+08	4.052394e+12	0.000000e+00	5.628141e-01	7.124547e+13	1.027371e+15	2.231921e+14	7.123878e+03	3.770911e+03	1.948180e+03	0	5.273217e-04
1.300000e+08	3.986687e+12	0.000000e+00	5.628141e-01	7.029836e+13	9.766989e+14	2.219844e+14	7.118880e+03	3.739241e+03	1.931819e+03	0	5.244561e-04
1.400000e+08	3.923751e+12	0.000000e+00	5.628141e-01	6.939091e+13	9.308418e+14	2.207856e+14	7.113948e+03	3.709632e+03	1.916522e+03	0	5.216816e-04
1.500000e+08	3.863439e+12	0.000000e+00	5.628141e-01	6.852104e+13	8.891793e+14	2.195957e+14	7.109079e+03	3.681886e+03	1.902187e+03	0	5.189949e-04
1.600000e+08	3.805605e+12	0.000000e+00	5.628141e-01	6.768665e+13	8.511901e+14	2.184146e+14	7.104272e+03	3.655828e+03	1.888725e+03	0	5.163922e-04
1.700000e+08	3.750110e+12	0.000000e+00	5.628141e-01	6.688574e+13	8.164330e+14	2.172422e+14	7.099522e+03	3.631306e+03	1.876056e+03	0	5.138698e-04
1.800000e+08	3.696820e+12	0.000000e+00	5.628141e-01	6.611640e+13	7.845325e+14	2.160785e+14	7.094829e+03	3.608187e+03	1.864112e+03	0	5.114241e-04
1.900000e+08	3.645606e+12	0.000000e+00	5.628141e-01	6.537680e+13	7.551670e+14	2.149233e+14	7.090190e+03	3.586351e+03	1.852830e+03	0	5.090514e-04
2.000000e+08	3.596349e+12	0.000000e+00	5.628141e-01	6.466521e+13	7.280601e+14	2.137766e+14	7.085603e+03	3.565693e+03	1.842158e+03	0	5.067484e-04
2.100000e+08	3.548935e+12	0.000000e+00	5.628141e-01	6.398003e+13	7.029728e+14	2.126384e+14	7.081066e+03	3.546119e+03	1.832045e+03	0	5.045115e-04
2.200000e+08	3.503258e+12	0.000000e+00	5.628141e-01	6.331973e+13	6.796977e+14	2.115085e+14	7.076576e+03	3.527545e+03	1.822449e+03	0	5.023377e-04
2.300000e+08	3.459221e+12	0.000000e+00	5.628141e-01	6.268290e+13	6.580538e+14	2.103869e+14	7.072133e+03	3.509895e+03	1.813331e+03	0	5.002240e-04
2.400000e+08	3.416728e+12	0.000000e+00	5.628141e-01	6.206822e+13	6.378828e+14	2.092735e+14	7.067734e+03	3.493102e+03	1.804655e+03	0	4.981673e-04
2.500000e+08	3.375696e+12	0.000000e+00	5.628141e-01	6.147444e+13	6.190456e+14	2.081683e+14	7.063379e+03	3.477104e+03	1.796390e+03	0	4.961651e-04
2.600000e+08	3.336042e+12	0.000000e+00	5.628141e-01	6.090042e+13	6.014194e+14	2.070712e+14	7.059065e+03	3.461846e+03	1.788507e+03	0	4.942146e-04
2.700000e+08	3.297691e+12	0.000000e+00	5.628141e-01	6.034508e+13	5.848956e+14	2.059821e+14	7.054791e+03	3.447277e+03	1.780980e+03	0	4.923135e-04
2.800000e+08	3.260574e+12	0.000000e+00	5.628141e-01	5.980741e+13	5.693779e+14	2.049009e+14	7.050556e+03	3.433350e+03	1.773785e+03	0	4.904594e-04
2.900000e+08	3.224624e+12	0.000000e+00	5.628141e-01	5.928647e+13	5.547805e+14	2.038277e+14	7.046359e+03	3.420025e+03	1.766901e+03	0	4.886503e-04
3.000000e+08	3.189781e+12	0.000000e+00	5.628141e-01	5.878139e+13	5.410268e+14	2.027622e+14	7.042198e+03	3.407263e+03	1.760308e+03	0	4.868839e-04
3.100000e+08	3.155988e+12	0.000000e+00	5.628141e-01	5.829136e+13	5.280480e+14	2.017045e+14	7.038073e+03	3.395029e+03	1.753987e+03	0	4.851584e-04
3.200000e+08	3.123190e+12	0.000000e+00	5.628141e-01	5.781561e+13	5.157827e+14	2.006546e+14	7.033982e+03	3.383290e+03	1.747922e+03	0	4.834719e-04
3.300000e+08	3.091339e+12	0.000000e+00	5.628141e-01	5.735341e+13	5.041754e+14	1.996122e+14	7.029925e+03	3.372016e+03	1.742098e+03	0	4.818227e-04
3.400000e+08	3.060386e+12	0.000000e+00	5.628141e-01	5.690412e+13	4.931761e+14	1.985774e+14	7.025899e+03	3.361182e+03	1.736500e+03	0	4.802092e-04
3.500000e+08	3.030290e+12	0.000000e+00	5.628141e-01	5.646709e+13	4.827395e+14	1.975502e+14	7.021906e+03	3.350760e+03	1.731116e+03	0	4.786299e-04
3.600000e+08	3.001007e+12	0.000000e+00	5.628141e-01	5.604174e+13	4.728246e+14	1.965304e+14	7.017943e+03	3.340728e+03	1.725933e+03	0	4.770832e-04
3.700000e+08	2.972501e+12	0.000000e+00	5.628141e-01	5.562752e+13	4.633942e+14	1.955179e+14	7.014009e+03	3.331064e+03	1.720941e+03	0	4.755678e-04
3.800000e+08	2.944735e+12	0.000000e+00	5.628141e-01	5.522392e+13	4.544144e+14	1.945128e+14	7.010105e+03	3.321749e+03	1.716128e+03	0	4.740824e-04
3.900000e+08	2.917674e+12	0.000000e+00	5.628141e-01	5.483044e+13	4.458543e+14	1.935150e+14	7.006229e+03	3.312762e+03	1.711485e+03	0	4.726257e-04
4.000000e+08	2.891288e+12	0.000000e+00	5.628141e-01	5.444664e+13	4.376858e+14	1.925243e+14	7.002381e+03	3.304088e+03	1.707004e+03	0	4.711966e-04
4.100000e+08	2.865545e+12	0.000000e+00	5.628141e-01	5.407208e+13	4.298829e+14	1.915408e+14	6.998559e+03	3.295710e+03	1.702675e+03	0	4.697941e-04
4.200000e+08	2.840419e+12	0.000000e+00	5.628141e-01	5.370635e+13	4.224220e+14	1.905644e+14	6.994764e+03	3.287612e+03	1.698492e+03	0	4.684169e-04
4.300000e+08	2.815881e+12	0.000000e+00	5.628141e-01	5.334908e+13	4.152814e+14	1.895951e+14	6.990994e+03	3.279781e+03	1.694446e+03	0	4.670642e-04
4.400000e+08	2.791908e+12	0.000000e+00	5.628141e-01	5.299991e+13	4.084410e+14	1.886327e+14	6.987250e+03	3.272204e+03	1.690531e+03	0	4.657349e-04
4.500000e+08	2.768475e+12	0.000000e+00	5.628141e-01	5.265850e+13	4.018825e+14	1.876772e+14	6.983530e+03	3.264867e+03	1.686741e+03	0	4.644283e-04
4.600000e+08	2.745560e+12	0.000000e+00	5.628141e-01	5.232452e+13	3.955889e+14	1.867286e+14	6.979834e+03	3.257760e+03	1.683069e+03	0	4.631433e-04
4.700000e+08	2.723143e+12	0.000000e+00	5.628141e-01	5.199768e+13	3.895444e+14	1.857867e+14	6.976161e+03	3.250872e+03	1.679511e+03	0	4.618793e-04
4.800000e+08	2.701202e+12	0.000000e+00	5.628141e-01	5.167769e+13	3.837347e+14	1.848517e+14	6.972511e+03	3.244193e+03	1.676060e+03	0	4.606355e-04
4.900000e+08	2.679719e+12	0.000000e+00	5.628141e-01	5.136428e+13	3.781461e+14	1.839233e+14	6.968884e+03	3.237712e+03	1.672712e+03	0	4.594111e-04
5.000000e+08	2.658676e+12	0.000000e+00	5.628141e-01	5.105719e+13	3.727664e+14	1.830016e+14	6.965278e+03	3.231421e+03	1.669462e+03	0	4.582054e-04
5.100000e+08	2.638056e+12	0.000000e+00	5.628141e-01	5.075619e+13	3.675838e+14	1.820864e+14	6.961694e+03	3.225312e+03	1.666305e+03	0	4.570178e-04
5.200000e+08	2.617844e+12	0.000000e+00	5.628141e-01	5.046103e+13	3.625876e+14	1.811778e+14	6.958132e+03	3.219376e+03	1.663239e+03	0	4.558476e-04
5.300000e+08	2.598023e+12	0.000000e+00	5.628141e-01	5.017150e+13	3.577679e+14	1.802756e+14	6.954590e+03	3.213606e+03	1.660258e+03	0	4.546942e-04
5.400000e+08	2.578580e+12	0.000000e+00	5.628141e-01	4.988739e+13	3.531152e+14	1.793799e+14	6.951068e+03	3.207994e+03	1.657359e+03	0	4.535571e-04
5.500000e+08	2.559500e+12	0.000000e+00	5.628141e-01	4.960852e+13	3.486209e+14	1.784906e+14	6.947566e+03	3.202535e+03	1.654538e+03	0	4.524357e-04
5.600000e+08	2.540771e+12	0.000000e+00	5.628141e-01	4.933468e+13	3.442769e+14	1.776076e+14	6.944084e+03	3.197221e+03	1.651793e+03	0	4.513294e-04
5.700000e+08	2.522380e+12	0.000000e+00	5.628141e-01	4.906570e+13	3.400755e+14	1.767308e+14	6.940620e+03	3.192047e+03	1.649119e+03	0	4.502378e-04
5.800000e+08	2.504316e+12	0.000000e+00	5.628141e-01	4.880142e+13	3.360096e+14	1.758603e+14	6.937176e+03	3.187006e+03	1.646515e+03	0	4.491604e-04
5.900000e+08	2.486566e+12	0.000000e+00	5.628141e-01	4.854166e+13	3.320726e+14	1.749959e+14	6.933750e+03	3.182094e+03	1.643977e+03	0	4.480967e-04
6.000000e+08	2.469121e+12	0.000000e+00	5.628141e-01	4.828628e+13	3.282582e+14	1.741377e+14	6.930343e+03	3.177304e+03	1.641503e+03	0	4.470463e-04
6.100000e+08	2.451969e+12	0.000000e+00	5.628141e-01	4.803514e+13	3.245606e+14	1.732855e+14	6.926953e+03	3.172634e+03	1.639090e+03	0	4.460088e-04
6.200000e+08	2.435102e+12	0.000000e+00	5.628141e-01	4.778808e+13	3.209742e+14	1.724394e+14	6.923581e+03	3.168077e+03	1.636736e+03	0	4.449838e-04
6.300000e+08	2.418510e+12	0.000000e+00	5.628141e-01	4.754498e+13	3.174940e+14	1.715992e+14	6.920226e+03	3.163629e+03	1.634438e+03	0	4.439708e-04
6.400000e+08	2.402184e+12	0.000000e+00	5.628141e-01	4.730571e+13	3.141150e+14	1.707650e+14	6.916889e+03	3.159286e+03	1.632194e+03	0	4.429695e-04
6.500000e+08	2.386116e+12	0.000000e+00	5.628141e-01	4.707015e+13	3.108326e+14	1.699366e+14	6.913568e+03	3.155044e+03	1.630003e+03	0	4.419797e-04
6.600000e+08	2.370297e+12	0.000000e+00	5.628141e-01	4.683818e+13	3.076426e+14	1.691140e+14	6.910264e+03	3.150900e+03	1.627862e+03	0	4.410008e-04
6.700000e+08	2.354721e+12	0.000000e+00	5.628141e-01	4.660969e+13	3.045408e+14	1.682973e+14	6.906975e+03	3.146849e+03	1.625769e+03	0	4.400326e-04
6.800000e+08	2.339378e+12	0.000000e+00	5.628141e-01	4.638457e+13	3.015235e+14	1.674863e+14	6.903703e+03	3.142889e+03	1.623723e+03	0	4.390748e-04
6.900000e+08	2.324263e+12	0.000000e+00	5.628141e-01	4.616273e+13	2.985870e+14	1.666809e+14	6.900447e+03	3.139015e+03	1.621722e+03	0	4.381271e-04
7.000000e+08	2.309368e+12	0.000000e+00	5.628141e-01	4.594407e+13	2.957278e+14	1.658812e+14	6.897206e+03	3.135226e+03	1.619764e+03	0	4.371892e-04
7.100000e+08	2.294687e+12	0.000000e+00	5.628141e-01	4.572848e+13	2.929428e+14	1.650871e+14	6.893981e+03	3.131517e+03	1.617848e+03	0	4.362608e-04
7.200000e+08	2.280213e+12	0.000000e+00	5.628141e-01	4.551589e+13	2.902289e+14	1.642986e+14	6.890771e+03	3.127886e+03	1.615972e+03	0	4.353417e-04
7.300000e+08	2.265942e+12	0.000000e+00	5.628141e-01	4.530621e+13	2.875831e+14	1.635156e+14	6.887575e+03	3.124330e+03	1.614135e+03	0	4.344315e-04
7.400000e+08	2.251866e+12	0.000000e+00	5.628141e-01	4.509935e+13	2.850028e+14	1.627380e+14	6.884395e+03	3.120847e+03	1.612335e+03	0	4.335301e-04
7.500000e+08	2.237981e+12	0.000000e+00	5.628141e-01	4.489523e+13	2.824853e+14	1.619659e+14	6.881228e+03	3.117434e+03	1.610572e+03	0	4.326373e-04
7.600000e+08	2.224282e+12	0.000000e+00	5.628141e-01	4.469379e+13	2.800281e+14	1.611991e+14	6.878077e+03	3.114088e+03	1.608843e+03	0	4.317527e-04
7.700000e+08	2.210762e+12	0.000000e+00	5.628141e-01	4.449495e+13	2.776289e+14	1.604377e+14	6.874939e+03	3.110808e+03	1.607149e+03	0	4.308761e-04
7.800000e+08	2.197418e+12	0.000000e+00	5.628141e-01	4.429863e+13	2.752854e+14	1.596816e+14	6.871815e+03	3.107592e+03	1.605487e+03	0	4.300074e-04
7.900000e+08	2.184244e+12	0.000000e+00	5.628141e-01	4.410477e+13	2.729956e+14	1.589307e+14	6.868705e+03	3.104436e+03	1.603857e+03	0	4.291464e-04
8.000000e+08	2.171237e+12	0.000000e+00	5.628141e-01	4.391331e+13	2.707574e+14	1.581850e+14	6.865609e+03	3.101340e+03	1.602257e+03	0	4.282928e-04
8.100000e+08	2.158391e+12	0.000000e+00	5.628141e-01	4.372418e+13	2.685690e+14	1.574445e+14	6.862526e+03	3.098300e+03	1.600687e+03	0	4.274465e-04
8.200000e+08	2.145703e+12	0.000000e+00	5.628141e-01	4.353733e+13	2.664284e+14	1.567091e+14	6.859456e+03	3.095317e+03	1.599145e+03	0	4.266073e-04
8.300000e+08	2.133168e+12	0.000000e+00	5.628141e-01	4.335270e+13	2.643339e+14	1.559788e+14	6.856399e+03	3.092386e+03	1.597631e+03	0	4.257749e-04
8.400000e+08	2.120783e+12	0.000000e+00	5.628141e-01	4.317022e+13	2.622840e+14	1.552536e+14	6.853356e+03	3.089508e+03	1.596144e+03	0	4.249494e-04
8.500000e+08	2.108544e+12	0.000000e+00	5.628141e-01	4.298986e+13	2.602770e+14	1.545333e+14	6.850325e+03	3.086680e+03	1.594683e+03	0	4.241303e-04
8.600000e+08	2.096448e+12	0.000000e+00	5.628141e-01	4.281155e+13	2.583113e+14	1.538180e+14	6.847306e+03	3.083900e+03	1.593247e+03	0	4.233177e-04
8.700000e+08	2.084491e+12	0.000000e+00	5.628141e-01	4.263525e+13	2.563857e+14	1.531077e+14	6.844301e+03	3.081168e+03	1.591836e+03	0	4.225114e-04
8.800000e+08	2.072669e+12	0.000000e+00	5.628141e-01	4.246090e+13	2.544986e+14	1.524022e+14	6.841307e+03	3.078481e+03	1.590448e+03	0	4.217111e-04
8.900000e+08	2.060980e+12	0.000000e+00	5.628141e-01	4.228847e+13	2.526488e+14	1.517015e+14	6.838326e+03	3.075839e+03	1.589083e+03	0	4.209169e-04
9.000000e+08	2.049420e+12	0.000000e+00	5.628141e-01	4.211791e+13	2.508351e+14	1.510057e+14	6.835357e+03	3.073240e+03	1.587740e+03	0	4.201284e-04
9.100000e+08	2.037987e+12	0.000000e+00	5.628141e-01	4.194918e+13	2.490562e+14	1.503147e+14	6.832400e+03	3.070682e+03	1.586418e+03	0	4.193457e-04
9.200000e+08	2.026677e+12	0.000000e+00	5.628141e-01	4.178223e+13	2.473110e+14	1.496284e+14	6.829455e+03	3.068165e+03	1.585118e+03	0	4.185685e-04
9.300000e+08	2.015487e+12	0.000000e+00	5.628141e-01	4.161703e+13	2.455983e+14	1.489467e+14	6.826521e+03	3.065687e+03	1.583838e+03	0	4.177968e-04
9.400000e+08	2.004416e+12	0.000000e+00	5.628141e-01	4.145353e+13	2.439173e+14	1.482698e+14	6.823599e+03	3.063247e+03	1.582577e+03	0	4.170304e-04
9.500000e+08	1.993460e+12	0.000000e+00	5.628141e-01	4.129170e+13	2.422668e+14	1.475974e+14	6.820689e+03	3.060845e+03	1.581336e+03	0	4.162692e-04
9.600000e+08	1.982618e+12	0.000000e+00	5.628141e-01	4.113150e+13	2.406459e+14	1.469297e+14	6.817790e+03	3.058478e+03	1.580113e+03	0	4.155131e-04
9.700000e+08	1.971885e+12	0.000000e+00	5.628141e-01	4.097291e+13	2.390536e+14	1.462665e+14	6.814902e+03	3.056146e+03	1.578909e+03	0	4.147620e-04
9.800000e+08	1.961261e+12	0.000000e+00	5.628141e-01	4.081587e+13	2.374891e+14	1.456078e+14	6.812025e+03	3.053848e+03	1.577721e+03	0	4.140158e-04
9.900000e+08	1.950743e+12	0.000000e+00	5.628141e-01	4.066037e+13	2.359516e+14	1.449535e+14	6.809159e+03	3.051583e+03	1.576551e+03	0	4.132743e-04
1.000000e+09	1.940328e+12	0.000000e+00	5.628141e-01	4.050637e+13	2.344402e+14	1.443038e+14	6.806304e+03	3.049351e+03	1.575398e+03	0	4.125375e-04
1.010000e+09	1.930015e+12	0.000000e+00	5.628141e-01	4.035383e+13	2.329541e+14	1.436584e+14	6.803460e+03	3.047149e+03	1.574260e+03	0	4.118053e-04
1.020000e+09	1.919801e+12	0.000000e+00	5.628141e-01	4.020274e+13	2.314927e+14	1.430174e+14	6.800627e+03	3.044978e+03	1.573139e+03	0	4.110776e-04
1.030000e+09	1.909685e+12	0.000000e+00	5.628141e-01	4.005305e+13	2.300551e+14	1.423807e+14	6.797804e+03	3.042836e+03	1.572032e+03	0	4.103543e-04
1.040000e+09	1.899664e+12	0.000000e+00	5.628141e-01	3.990475e+13	2.286407e+14	1.417484e+14	6.794992e+03	3.040723e+03	1.570940e+03	0	4.096353e-04
1.050000e+09	1.889737e+12	0.000000e+00	5.628141e-01	3.975781e+13	2.272488e+14	1.411203e+14	6.792190e+03	3.038638e+03	1.569863e+03	0	4.089205e-04
1.060000e+09	1.879902e+12	0.000000e+00	5.628141e-01	3.961220e+13	2.258788e+14	1.404964e+14	6.789398e+03	3.036580e+03	1.568800e+03	0	4.082099e-04
1.070000e+09	1.870157e+12	0.000000e+00	5.628141e-01	3.946789e+13	2.245301e+14	1.398768e+14	6.786617e+03	3.034548e+03	1.567750e+03	0	4.075033e-04
1.080000e+09	1.860500e+12	0.000000e+00	5.628141e-01	3.932486e+13	2.232021e+14	1.392613e+14	6.783846e+03	3.032543e+03	1.566714e+03	0	4.068007e-04
1.090000e+09	1.850930e+12	0.000000e+00	5.628141e-01	3.918309e+13	2.218941e+14	1.386499e+14	6.781085e+03	3.030562e+03	1.565691e+03	0	4.061020e-04
1.100000e+09	1.841445e+12	0.000000e+00	5.628141e-01	3.904255e+13	2.206058e+14	1.380427e+14	6.778333e+03	3.028606e+03	1.564680e+03	0	4.054071e-04
1.110000e+09	1.832044e+12	0.000000e+00	5.628141e-01	3.890322e+13	2.193364e+14	1.374395e+14	6.775592e+03	3.026674e+03	1.563682e+03	0	4.047160e-04
1.120000e+09	1.822724e+12	0.000000e+00	5.628141e-01	3.876508e+13	2.180856e+14	1.368404e+14	6.772860e+03	3.024765e+03	1.562696e+03	0	4.040286e-04
1.130000e+09	1.813485e+12	0.000000e+00	5.628141e-01	3.862811e+13	2.168529e+14	1.362453e+14	6.770138e+03	3.022878e+03	1.561721e+03	0	4.033448e-04
1.140000e+09	1.804326e+12	0.000000e+00	5.628141e-01	3.849228e+13	2.156377e+14	1.356542e+14	6.767426e+03	3.021014e+03	1.560758e+03	0	4.026645e-04
1.150000e+09	1.795244e+12	0.000000e+00	5.628141e-01	3.835758e+13	2.144396e+14	1.350670e+14	6.764723e+03	3.019171e+03	1.559806e+03	0	4.019878e-04
1.160000e+09	1.786238e+12	0.000000e+00	5.628141e-01	3.822399e+13	2.132582e+14	1.344837e+14	6.762030e+03	3.017350e+03	1.558865e+03	0	4.013145e-04
1.170000e+09	1.777307e+12	0.000000e+00	5.628141e-01	3.809149e+13	2.120931e+14	1.339043e+14	6.759346e+03	3.015549e+03	1.557935e+03	0	4.006446e-04
1.180000e+09	1.768451e+12	0.000000e+00	5.628141e-01	3.796006e+13	2.109438e+14	1.333288e+14	6.756671e+03	3.013767e+03	1.557014e+03	0	3.999780e-04
1.190000e+09	1.759666e+12	0.000000e+00	5.628141e-01	3.782968e+13	2.098100e+14	1.327571e+14	6.754006e+03	3.012006e+03	1.556104e+03	0	3.993146e-04
1.200000e+09	1.750953e+12	0.000000e+00	5.628141e-01	3.770034e+13	2.086912e+14	1.321891e+14	6.751350e+03	3.010263e+03	1.555204e+03	0	3.986544e-04
1.210000e+09	1.742311e+12	0.000000e+00	5.628141e-01	3.757201e+13	2.075871e+14	1.316250e+14	6.748702e+03	3.008539e+03	1.554313e+03	0	3.979974e-04
1.220000e+09	1.733737e+12	0.000000e+00	5.628141e-01	3.744469e+13	2.064974e+14	1.310646e+14	6.746064e+03	3.006834e+03	1.553432e+03	0	3.973435e-04
1.230000e+09	1.725231e+12	0.000000e+00	5.628141e-01	3.731835e+13	2.054217e+14	1.305079e+14	6.743435e+03	3.005145e+03	1.552560e+03	0	3.966927e-04
1.240000e+09	1.716792e+12	0.000000e+00	5.628141e-01	3.719298e+13	2.043597e+14	1.299549e+14	6.740814e+03	3.003475e+03	1.551697e+03	0	3.960448e-04
1.250000e+09	1.708419e+12	0.000000e+00	5.628141e-01	3.706857e+13	2.033111e+14	1.294055e+14	6.738203e+03	3.001821e+03	1.550842e+03	0	3.953999e-04
1.260000e+09	1.700110e+12	0.000000e+00	5.628141e-01	3.694510e+13	2.022754e+14	1.288597e+14	6.735600e+03	3.000184e+03	1.549997e+03	0	3.947578e-04
1.270000e+09	1.691865e+12	0.000000e+00	5.628141e-01	3.682255e+13	2.012526e+14	1.283176e+14	6.733005e+03	2.998563e+03	1.549159e+03	0	3.941187e-04
1.280000e+09	1.683683e+12	0.000000e+00	5.628141e-01	3.670092e+13	2.002422e+14	1.277790e+14	6.730420e+03	2.996958e+03	1.548330e+03	0	3.934823e-04
1.290000e+09	1.675563e+12	0.000000e+00	5.628141e-01	3.658018e+13	1.992440e+14	1.272440e+14	6.727843e+03	2.995368e+03	1.547509e+03	0	3.928487e-04
1.300000e+09	1.667503e+12	0.000000e+00	5.628141e-01	3.646033e+13	1.982576e+14	1.267124e+14	6.725274e+03	2.993793e+03	1.546695e+03	0	3.922178e-04
1.310000e+09	1.659504e+12	0.000000e+00	5.628141e-01	3.634135e+13	1.972830e+14	1.261844e+14	6.722714e+03	2.992234e+03	1.545889e+03	0	3.915896e-04
1.320000e+09	1.651563e+12	0.000000e+00	5.628141e-01	3.622323e+13	1.963197e+14	1.256598e+14	6.720162e+03	2.990688e+03	1.545091e+03	0	3.909641e-04
1.330000e+09	1.643681e+12	0.000000e+00	5.628141e-01	3.610595e+13	1.953675e+14	1.251386e+14	6.717618e+03	2.989157e+03	1.544300e+03	0	3.903411e-04
1.340000e+09	1.635856e+12	0.000000e+00	5.628141e-01	3.598951e+13	1.944263e+14	1.246209e+14	6.715083e+03	2.987640e+03	1.543516e+03	0	3.897207e-04
1.350000e+09	1.628088e+12	0.000000e+00	5.628141e-01	3.587389e+13	1.934957e+14	1.241065e+14	6.712556e+03	2.986136e+03	1.542739e+03	0	3.891028e-04
1.360000e+09	1.620376e+12	0.000000e+00	5.628141e-01	3.575908e+13	1.925756e+14	1.235955e+14	6.710036e+03	2.984646e+03	1.541969e+03	0	3.884874e-04
