#t		Qconv[W]	Ri[Rp]		R*[Rp]		Qc[W]		Qm[W]		Qr[W]		Tcmb[K]		Tl[K]		Tup[K]		RiFlag		Bs[T]
0.000000e+00	6.943837e+12	0.000000e+00	5.628139e-01	1.101960e+14	2.839600e+15	2.736006e+14	7.828428e+03	4.769462e+03	2.350211e+03	0	6.266302e-04
1.000000e+07	6.820367e+12	0.000000e+00	5.628139e-01	1.085742e+14	2.565711e+15	2.720846e+14	7.821926e+03	4.677371e+03	2.304832e+03	0	6.228939e-04
2.000000e+07	6.693746e+12	0.000000e+00	5.628139e-01	1.069118e+14	2.335688e+15	2.705800e+14	7.815518e+03	4.595138e+03	2.264311e+03	0	6.190151e-04
3.000000e+07	6.567117e+12	0.000000e+00	5.628139e-01	1.052494e+14	2.140435e+15	2.690867e+14	7.809209e+03	4.521208e+03	2.227881e+03	0	6.150868e-04
4.000000e+07	6.442421e+12	0.000000e+00	5.628139e-01	1.036125e+14	1.973106e+15	2.676045e+14	7.802997e+03	4.454344e+03	2.194933e+03	0	6.111688e-04
5.000000e+07	6.320832e+12	0.000000e+00	5.628139e-01	1.020161e+14	1.828469e+15	2.661333e+14	7.796882e+03	4.393545e+03	2.164973e+03	0	6.072995e-04
6.000000e+07	6.203030e+12	0.000000e+00	5.628139e-01	1.004693e+14	1.702474e+15	2.646731e+14	7.790860e+03	4.337994e+03	2.137600e+03	0	6.035030e-04
7.000000e+07	6.089370e+12	0.000000e+00	5.628139e-01	9.897652e+13	1.591943e+15	2.632238e+14	7.784930e+03	4.287019e+03	2.112481e+03	0	5.997942e-04
8.000000e+07	5.980001e+12	0.000000e+00	5.628139e-01	9.753977e+13	1.494356e+15	2.617852e+14	7.779088e+03	4.240059e+03	2.089341e+03	0	5.961816e-04
9.000000e+07	5.874935e+12	0.000000e+00	5.628139e-01	9.615917e+13	1.407693e+15	2.603574e+14	7.773330e+03	4.196644e+03	2.067948e+03	0	5.926694e-04
1.000000e+08	5.774099e+12	0.000000e+00	5.628139e-01	9.483378e+13	1.330317e+15	2.589401e+14	7.767653e+03	4.156375e+03	2.048105e+03	0	5.892590e-04
1.100000e+08	5.677366e+12	0.000000e+00	5.628139e-01	9.356192e+13	1.260892e+15	2.575334e+14	7.762055e+03	4.118913e+03	2.029645e+03	0	5.859498e-04
1.200000e+08	5.584577e+12	0.000000e+00	5.628139e-01	9.234154e+13	1.198319e+15	2.561371e+14	7.756532e+03	4.083967e+03	2.012425e+03	0	5.827401e-04
1.300000e+08	5.495556e+12	0.000000e+00	5.628139e-01	9.117032e+13	1.141683e+15	2.547511e+14	7.751080e+03	4.051285e+03	1.996321e+03	0	5.796271e-04
1.400000e+08	5.410120e+12	0.000000e+00	5.628139e-01	9.004589e+13	1.090223e+15	2.533754e+14	7.745698e+03	4.020650e+03	1.981225e+03	0	5.766077e-04
1.500000e+08	5.328085e+12	0.000000e+00	5.628139e-01	8.896583e+13	1.043295e+15	2.520099e+14	7.740381e+03	3.991869e+03	1.967043e+03	0	5.736784e-04
1.600000e+08	5.249268e+12	0.000000e+00	5.628139e-01	8.792779e+13	1.000356e+15	2.506545e+14	7.735129e+03	3.964778e+03	1.953693e+03	0	5.708356e-04
1.700000e+08	5.173495e+12	0.000000e+00	5.628139e-01	8.692947e+13	9.609429e+14	2.493090e+14	7.729937e+03	3.939228e+03	1.941103e+03	0	5.680757e-04
1.800000e+08	5.100598e+12	0.000000e+00	5.628139e-01	8.596868e+13	9.246596e+14	2.479735e+14	7.724805e+03	3.915089e+03	1.929208e+03	0	5.653949e-04
1.900000e+08	5.030416e+12	0.000000e+00	5.628139e-01	8.504334e+13	8.911653e+14	2.466478e+14	7.719729e+03	3.892246e+03	1.917952e+03	0	5.627897e-04
2.000000e+08	4.962798e+12	0.000000e+00	5.628139e-01	8.415147e+13	8.601650e+14	2.453319e+14	7.714707e+03	3.870595e+03	1.907283e+03	0	5.602566e-04
2.100000e+08	4.897601e+12	0.000000e+00	5.628139e-01	8.329122e+13	8.314028e+14	2.440256e+14	7.709738e+03	3.850044e+03	1.897156e+03	0	5.577925e-04
2.200000e+08	4.834693e+12	0.000000e+00	5.628139e-01	8.246084e+13	8.046555e+14	2.427289e+14	7.704820e+03	3.830510e+03	1.887531e+03	0	5.553939e-04
2.300000e+08	4.773946e+12	0.000000e+00	5.628139e-01	8.165870e+13	7.797278e+14	2.414418e+14	7.699951e+03	3.811919e+03	1.878370e+03	0	5.530580e-04
2.400000e+08	4.715244e+12	0.000000e+00	5.628139e-01	8.088325e+13	7.564478e+14	2.401641e+14	7.695129e+03	3.794203e+03	1.869640e+03	0	5.507818e-04
2.500000e+08	4.658476e+12	0.000000e+00	5.628139e-01	8.013307e+13	7.346641e+14	2.388957e+14	7.690353e+03	3.777302e+03	1.861312e+03	0	5.485625e-04
2.600000e+08	4.603540e+12	0.000000e+00	5.628139e-01	7.940681e+13	7.142427e+14	2.376366e+14	7.685621e+03	3.761159e+03	1.853357e+03	0	5.463976e-04
2.700000e+08	4.550338e+12	0.000000e+00	5.628139e-01	7.870321e+13	6.950646e+14	2.363868e+14	7.680932e+03	3.745724e+03	1.845752e+03	0	5.442846e-04
2.800000e+08	4.498781e+12	0.000000e+00	5.628139e-01	7.802109e+13	6.770238e+14	2.351460e+14	7.676284e+03	3.730952e+03	1.838473e+03	0	5.422211e-04
2.900000e+08	4.448784e+12	0.000000e+00	5.628139e-01	7.735937e+13	6.600257e+14	2.339144e+14	7.671677e+03	3.716800e+03	1.831499e+03	0	5.402050e-04
3.000000e+08	4.400268e+12	0.000000e+00	5.628139e-01	7.671700e+13	6.439856e+14	2.326916e+14	7.667108e+03	3.703229e+03	1.824812e+03	0	5.382341e-04
3.100000e+08	4.353159e+12	0.000000e+00	5.628139e-01	7.609302e+13	6.288275e+14	2.314778e+14	7.662578e+03	3.690205e+03	1.818394e+03	0	5.363064e-04
3.200000e+08	4.307389e+12	0.000000e+00	5.628139e-01	7.548653e+13	6.144827e+14	2.302729e+14	7.658084e+03	3.677694e+03	1.812229e+03	0	5.344202e-04
3.300000e+08	4.262892e+12	0.000000e+00	5.628139e-01	7.489669e+13	6.008895e+14	2.290767e+14	7.653626e+03	3.665667e+03	1.806302e+03	0	5.325736e-04
3.400000e+08	4.219607e+12	0.000000e+00	5.628139e-01	7.432270e+13	5.879921e+14	2.278892e+14	7.649203e+03	3.654095e+03	1.800600e+03	0	5.307649e-04
3.500000e+08	4.177477e+12	0.000000e+00	5.628139e-01	7.376381e+13	5.757398e+14	2.267103e+14	7.644813e+03	3.642953e+03	1.795110e+03	0	5.289925e-04
3.600000e+08	4.136449e+12	0.000000e+00	5.628139e-01	7.321932e+13	5.640866e+14	2.255399e+14	7.640457e+03	3.632218e+03	1.789820e+03	0	5.272550e-04
3.700000e+08	4.096472e+12	0.000000e+00	5.628139e-01	7.268858e+13	5.529906e+14	2.243780e+14	7.636133e+03	3.621866e+03	1.784719e+03	0	5.255510e-04
3.800000e+08	4.057499e+12	0.000000e+00	5.628139e-01	7.217097e+13	5.424138e+14	2.232246e+14	7.631840e+03	3.611879e+03	1.779798e+03	0	5.238790e-04
3.900000e+08	4.019484e+12	0.000000e+00	5.628139e-01	7.166591e+13	5.323211e+14	2.220794e+14	7.627577e+03	3.602236e+03	1.775046e+03	0	5.222378e-04
4.000000e+08	3.982387e+12	0.000000e+00	5.628139e-01	7.117284e+13	5.226807e+14	2.209426e+14	7.623344e+03	3.592920e+03	1.770455e+03	0	5.206261e-04
4.100000e+08	3.946167e+12	0.000000e+00	5.628139e-01	7.069125e+13	5.134633e+14	2.198139e+14	7.619141e+03	3.583913e+03	1.766017e+03	0	5.190430e-04
4.200000e+08	3.910787e+12	0.000000e+00	5.628139e-01	7.022066e+13	5.046422e+14	2.186934e+14	7.614966e+03	3.575202e+03	1.761725e+03	0	5.174871e-04
4.300000e+08	3.876212e+12	0.000000e+00	5.628139e-01	6.976060e+13	4.961925e+14	2.175809e+14	7.610818e+03	3.566771e+03	1.757570e+03	0	5.159576e-04
4.400000e+08	3.842409e+12	0.000000e+00	5.628139e-01	6.931065e+13	4.880915e+14	2.164765e+14	7.606698e+03	3.558606e+03	1.753547e+03	0	5.144534e-04
4.500000e+08	3.809345e+12	0.000000e+00	5.628139e-01	6.887038e+13	4.803182e+14	2.153799e+14	7.602604e+03	3.550696e+03	1.749649e+03	0	5.129735e-04
4.600000e+08	3.776992e+12	0.000000e+00	5.628139e-01	6.843941e+13	4.728533e+14	2.142913e+14	7.598536e+03	3.543027e+03	1.745870e+03	0	5.115171e-04
4.700000e+08	3.745321e+12	0.000000e+00	5.628139e-01	6.801738e+13	4.656788e+14	2.132104e+14	7.594494e+03	3.535589e+03	1.742205e+03	0	5.100834e-04
4.800000e+08	3.714306e+12	0.000000e+00	5.628139e-01	6.760393e+13	4.587781e+14	2.121373e+14	7.590476e+03	3.528372e+03	1.738649e+03	0	5.086715e-04
4.900000e+08	3.683921e+12	0.000000e+00	5.628139e-01	6.719874e+13	4.521357e+14	2.110719e+14	7.586483e+03	3.521364e+03	1.735195e+03	0	5.072806e-04
5.000000e+08	3.654142e+12	0.000000e+00	5.628139e-01	6.680149e+13	4.457374e+14	2.100141e+14	7.582514e+03	3.514557e+03	1.731841e+03	0	5.059101e-04
5.100000e+08	3.624947e+12	0.000000e+00	5.628139e-01	6.641189e+13	4.395699e+14	2.089639e+14	7.578568e+03	3.507943e+03	1.728582e+03	0	5.045591e-04
5.200000e+08	3.596314e+12	0.000000e+00	5.628139e-01	6.602965e+13	4.336208e+14	2.079212e+14	7.574646e+03	3.501512e+03	1.725413e+03	0	5.032271e-04
5.300000e+08	3.568222e+12	0.000000e+00	5.628139e-01	6.565451e+13	4.278784e+14	2.068859e+14	7.570745e+03	3.495257e+03	1.722331e+03	0	5.019134e-04
5.400000e+08	3.540653e+12	0.000000e+00	5.628139e-01	6.528622e+13	4.223322e+14	2.058579e+14	7.566867e+03	3.489171e+03	1.719332e+03	0	5.006174e-04
5.500000e+08	3.513587e+12	0.000000e+00	5.628139e-01	6.492453e+13	4.169720e+14	2.048373e+14	7.563011e+03	3.483246e+03	1.716412e+03	0	4.993385e-04
5.600000e+08	3.487007e+12	0.000000e+00	5.628139e-01	6.456920e+13	4.117884e+14	2.038239e+14	7.559176e+03	3.477476e+03	1.713569e+03	0	4.980762e-04
5.700000e+08	3.460896e+12	0.000000e+00	5.628139e-01	6.422004e+13	4.067727e+14	2.028178e+14	7.555362e+03	3.471854e+03	1.710799e+03	0	4.968298e-04
5.800000e+08	3.435238e+12	0.000000e+00	5.628139e-01	6.387681e+13	4.019165e+14	2.018188e+14	7.551568e+03	3.466375e+03	1.708099e+03	0	4.955990e-04
5.900000e+08	3.410018e+12	0.000000e+00	5.628139e-01	6.353933e+13	3.972122e+14	2.008268e+14	7.547795e+03	3.461032e+03	1.705466e+03	0	4.943832e-04
6.000000e+08	3.385222e+12	0.000000e+00	5.628139e-01	6.320740e+13	3.926526e+14	1.998419e+14	7.544042e+03	3.455821e+03	1.702899e+03	0	4.931820e-04
6.100000e+08	3.360834e+12	0.000000e+00	5.628139e-01	6.288085e+13	3.882308e+14	1.988639e+14	7.540308e+03	3.450737e+03	1.700393e+03	0	4.919948e-04
6.200000e+08	3.336844e+12	0.000000e+00	5.628139e-01	6.255949e+13	3.839404e+14	1.978929e+14	7.536594e+03	3.445774e+03	1.697947e+03	0	4.908213e-04
6.300000e+08	3.313236e+12	0.000000e+00	5.628139e-01	6.224318e+13	3.797754e+14	1.969287e+14	7.532898e+03	3.440927e+03	1.695559e+03	0	4.896611e-04
6.400000e+08	3.290001e+12	0.000000e+00	5.628139e-01	6.193174e+13	3.757302e+14	1.959713e+14	7.529221e+03	3.436193e+03	1.693227e+03	0	4.885138e-04
6.500000e+08	3.267125e+12	0.000000e+00	5.628139e-01	6.162502e+13	3.717994e+14	1.950207e+14	7.525563e+03	3.431568e+03	1.690947e+03	0	4.873789e-04
6.600000e+08	3.244598e+12	0.000000e+00	5.628139e-01	6.132289e+13	3.679779e+14	1.940767e+14	7.521922e+03	3.427046e+03	1.688719e+03	0	4.862562e-04
6.700000e+08	3.222409e+12	0.000000e+00	5.628139e-01	6.102520e+13	3.642611e+14	1.931394e+14	7.518300e+03	3.422625e+03	1.686541e+03	0	4.851452e-04
6.800000e+08	3.200549e+12	0.000000e+00	5.628139e-01	6.073183e+13	3.606445e+14	1.922086e+14	7.514695e+03	3.418301e+03	1.684410e+03	0	4.840456e-04
6.900000e+08	3.179007e+12	0.000000e+00	5.628139e-01	6.044264e+13	3.571237e+14	1.912844e+14	7.511107e+03	3.414070e+03	1.682325e+03	0	4.829572e-04
7.000000e+08	3.157774e+12	0.000000e+00	5.628139e-01	6.015751e+13	3.536948e+14	1.903667e+14	7.507536e+03	3.409929e+03	1.680285e+03	0	4.818796e-04
7.100000e+08	3.136842e+12	0.000000e+00	5.628139e-01	5.987633e+13	3.503540e+14	1.894554e+14	7.503983e+03	3.405875e+03	1.678287e+03	0	4.808124e-04
7.200000e+08	3.116201e+12	0.000000e+00	5.628139e-01	5.959898e+13	3.470978e+14	1.885505e+14	7.500446e+03	3.401905e+03	1.676331e+03	0	4.797555e-04
7.300000e+08	3.095844e+12	0.000000e+00	5.628139e-01	5.932536e+13	3.439226e+14	1.876519e+14	7.496925e+03	3.398016e+03	1.674414e+03	0	4.787085e-04
7.400000e+08	3.075763e+12	0.000000e+00	5.628139e-01	5.905537e+13	3.408253e+14	1.867595e+14	7.493420e+03	3.394205e+03	1.672536e+03	0	4.776712e-04
7.500000e+08	3.055949e+12	0.000000e+00	5.628139e-01	5.878890e+13	3.378028e+14	1.858734e+14	7.489931e+03	3.390470e+03	1.670696e+03	0	4.766433e-04
7.600000e+08	3.036397e+12	0.000000e+00	5.628139e-01	5.852586e+13	3.348522e+14	1.849935e+14	7.486458e+03	3.386807e+03	1.668891e+03	0	4.756246e-04
7.700000e+08	3.017098e+12	0.000000e+00	5.628139e-01	5.826616e+13	3.319707e+14	1.841197e+14	7.483001e+03	3.383216e+03	1.667121e+03	0	4.746148e-04
7.800000e+08	2.998046e+12	0.000000e+00	5.628139e-01	5.800972e+13	3.291558e+14	1.832519e+14	7.479558e+03	3.379692e+03	1.665385e+03	0	4.736137e-04
7.900000e+08	2.979235e+12	0.000000e+00	5.628139e-01	5.775644e+13	3.264049e+14	1.823902e+14	7.476131e+03	3.376235e+03	1.663681e+03	0	4.726211e-04
8.000000e+08	2.960659e+12	0.000000e+00	5.628139e-01	5.750625e+13	3.237156e+14	1.815344e+14	7.472719e+03	3.372841e+03	1.662009e+03	0	4.716367e-04
8.100000e+08	2.942311e+12	0.000000e+00	5.628139e-01	5.725907e+13	3.210857e+14	1.806846e+14	7.469322e+03	3.369510e+03	1.660367e+03	0	4.706604e-04
8.200000e+08	2.924186e+12	0.000000e+00	5.628139e-01	5.701482e+13	3.185131e+14	1.798407e+14	7.465939e+03	3.366238e+03	1.658755e+03	0	4.696920e-04
8.300000e+08	2.906278e+12	0.000000e+00	5.628139e-01	5.677343e+13	3.159956e+14	1.790026e+14	7.462571e+03	3.363024e+03	1.657172e+03	0	4.687312e-04
8.400000e+08	2.888582e+12	0.000000e+00	5.628139e-01	5.653483e+13	3.135313e+14	1.781703e+14	7.459217e+03	3.359867e+03	1.655616e+03	0	4.677779e-04
8.500000e+08	2.871092e+12	0.000000e+00	5.628139e-01	5.629895e+13	3.111184e+14	1.773437e+14	7.455877e+03	3.356764e+03	1.654087e+03	0	4.668319e-04
8.600000e+08	2.853805e+12	0.000000e+00	5.628139e-01	5.606573e+13	3.087551e+14	1.765229e+14	7.452551e+03	3.353714e+03	1.652584e+03	0	4.658931e-04
8.700000e+08	2.836714e+12	0.000000e+00	5.628139e-01	5.583511e+13	3.064397e+14	1.757076e+14	7.449238e+03	3.350715e+03	1.651106e+03	0	4.649611e-04
8.800000e+08	2.819815e+12	0.000000e+00	5.628139e-01	5.560702e+13	3.041705e+14	1.748980e+14	7.445940e+03	3.347766e+03	1.649653e+03	0	4.640360e-04
8.900000e+08	2.803105e+12	0.000000e+00	5.628139e-01	5.538141e+13	3.019460e+14	1.740940e+14	7.442654e+03	3.344865e+03	1.648223e+03	0	4.631176e-04
9.000000e+08	2.786578e+12	0.000000e+00	5.628139e-01	5.515822e+13	2.997648e+14	1.732955e+14	7.439382e+03	3.342011e+03	1.646817e+03	0	4.622056e-04
9.100000e+08	2.770230e+12	0.000000e+00	5.628139e-01	5.493740e+13	2.976253e+14	1.725024e+14	7.436124e+03	3.339202e+03	1.645433e+03	0	4.613000e-04
9.200000e+08	2.754058e+12	0.000000e+00	5.628139e-01	5.471889e+13	2.955263e+14	1.717148e+14	7.432878e+03	3.336437e+03	1.644070e+03	0	4.604006e-04
9.300000e+08	2.738057e+12	0.000000e+00	5.628139e-01	5.450264e+13	2.934664e+14	1.709325e+14	7.429645e+03	3.333715e+03	1.642729e+03	0	4.595072e-04
9.400000e+08	2.722224e+12	0.000000e+00	5.628139e-01	5.428860e+13	2.914444e+14	1.701557e+14	7.426425e+03	3.331035e+03	1.641408e+03	0	4.586198e-04
9.500000e+08	2.706556e+12	0.000000e+00	5.628139e-01	5.407673e+13	2.894592e+14	1.693841e+14	7.423217e+03	3.328395e+03	1.640107e+03	0	4.577382e-04
9.600000e+08	2.691047e+12	0.000000e+00	5.628139e-01	5.386698e+13	2.875094e+14	1.686177e+14	7.420022e+03	3.325794e+03	1.638826e+03	0	4.568623e-04
9.700000e+08	2.675696e+12	0.000000e+00	5.628139e-01	5.365931e+13	2.855942e+14	1.678566e+14	7.416840e+03	3.323231e+03	1.637563e+03	0	4.559919e-04
9.800000e+08	2.660499e+12	0.000000e+00	5.628139e-01	5.345367e+13	2.837124e+14	1.671007e+14	7.413670e+03	3.320705e+03	1.636318e+03	0	4.551269e-04
9.900000e+08	2.645453e+12	0.000000e+00	5.628139e-01	5.325002e+13	2.818630e+14	1.663499e+14	7.410511e+03	3.318216e+03	1.635092e+03	0	4.542673e-04
1.000000e+09	2.630555e+12	0.000000e+00	5.628139e-01	5.304832e+13	2.800450e+14	1.656042e+14	7.407365e+03	3.315761e+03	1.633882e+03	0	4.534130e-04
1.010000e+09	2.615801e+12	0.000000e+00	5.628139e-01	5.284853e+13	2.782575e+14	1.648636e+14	7.404231e+03	3.313341e+03	1.632689e+03	0	4.525637e-04
1.020000e+09	2.601188e+12	0.000000e+00	5.628139e-01	5.265061e+13	2.764997e+14	1.641280e+14	7.401109e+03	3.310953e+03	1.631513e+03	0	4.517194e-04
1.030000e+09	2.586715e+12	0.000000e+00	5.628139e-01	5.245454e+13	2.747706e+14	1.633973e+14	7.397998e+03	3.308598e+03	1.630353e+03	0	4.508801e-04
1.040000e+09	2.572378e+12	0.000000e+00	5.628139e-01	5.226026e+13	2.730694e+14	1.626716e+14	7.394899e+03	3.306275e+03	1.629208e+03	0	4.500455e-04
1.050000e+09	2.558175e+12	0.000000e+00	5.628139e-01	5.206775e+13	2.713954e+14	1.619508e+14	7.391811e+03	3.303982e+03	1.628078e+03	0	4.492157e-04
1.060000e+09	2.544103e+12	0.000000e+00	5.628139e-01	5.187697e+13	2.697478e+14	1.612349e+14	7.388734e+03	3.301719e+03	1.626963e+03	0	4.483905e-04
1.070000e+09	2.530160e+12	0.000000e+00	5.628139e-01	5.168789e+13	2.681258e+14	1.605238e+14	7.385669e+03	3.299485e+03	1.625862e+03	0	4.475698e-04
1.080000e+09	2.516342e+12	0.000000e+00	5.628139e-01	5.150049e+13	2.665288e+14	1.598174e+14	7.382615e+03	3.297279e+03	1.624775e+03	0	4.467536e-04
1.090000e+09	2.502649e+12	0.000000e+00	5.628139e-01	5.131472e+13	2.649560e+14	1.591158e+14	7.379572e+03	3.295101e+03	1.623701e+03	0	4.459417e-04
1.100000e+09	2.489077e+12	0.000000e+00	5.628139e-01	5.113056e+13	2.634069e+14	1.584190e+14	7.376540e+03	3.292949e+03	1.622641e+03	0	4.451342e-04
1.110000e+09	2.475624e+12	0.000000e+00	5.628139e-01	5.094798e+13	2.618807e+14	1.577268e+14	7.373519e+03	3.290824e+03	1.621594e+03	0	4.443308e-04
1.120000e+09	2.462289e+12	0.000000e+00	5.628139e-01	5.076695e+13	2.603769e+14	1.570392e+14	7.370509e+03	3.288725e+03	1.620560e+03	0	4.435315e-04
1.130000e+09	2.449069e+12	0.000000e+00	5.628139e-01	5.058744e+13	2.588948e+14	1.563563e+14	7.367509e+03	3.286650e+03	1.619537e+03	0	4.427363e-04
1.140000e+09	2.435962e+12	0.000000e+00	5.628139e-01	5.040944e+13	2.574340e+14	1.556779e+14	7.364520e+03	3.284600e+03	1.618527e+03	0	4.419451e-04
1.150000e+09	2.422967e+12	0.000000e+00	5.628139e-01	5.023290e+13	2.559939e+14	1.550040e+14	7.361542e+03	3.282573e+03	1.617528e+03	0	4.411578e-04
1.160000e+09	2.410080e+12	0.000000e+00	5.628139e-01	5.005782e+13	2.545739e+14	1.543346e+14	7.358574e+03	3.280569e+03	1.616541e+03	0	4.403743e-04
1.170000e+09	2.397301e+12	0.000000e+00	5.628139e-01	4.988415e+13	2.531735e+14	1.536697e+14	7.355616e+03	3.278589e+03	1.615565e+03	0	4.395946e-04
1.180000e+09	2.384628e+12	0.000000e+00	5.628139e-01	4.971189e+13	2.517923e+14	1.530092e+14	7.352669e+03	3.276630e+03	1.614600e+03	0	4.388186e-04
1.190000e+09	2.372059e+12	0.000000e+00	5.628139e-01	4.954100e+13	2.504298e+14	1.523531e+14	7.349731e+03	3.274692e+03	1.613645e+03	0	4.380462e-04
1.200000e+09	2.359591e+12	0.000000e+00	5.628139e-01	4.937147e+13	2.490854e+14	1.517014e+14	7.346804e+03	3.272776e+03	1.612701e+03	0	4.372774e-04
1.210000e+09	2.347224e+12	0.000000e+00	5.628139e-01	4.920326e+13	2.477589e+14	1.510540e+14	7.343887e+03	3.270880e+03	1.611766e+03	0	4.365122e-04
1.220000e+09	2.334956e+12	0.000000e+00	5.628139e-01	4.903637e+13	2.464497e+14	1.504108e+14	7.340980e+03	3.269004e+03	1.610842e+03	0	4.357504e-04
1.230000e+09	2.322786e+12	0.000000e+00	5.628139e-01	4.887077e+13	2.451575e+14	1.497720e+14	7.338082e+03	3.267148e+03	1.609928e+03	0	4.349919e-04
1.240000e+09	2.310711e+12	0.000000e+00	5.628139e-01	4.870644e+13	2.438818e+14	1.491373e+14	7.335194e+03	3.265311e+03	1.609022e+03	0	4.342369e-04
1.250000e+09	2.298730e+12	0.000000e+00	5.628139e-01	4.854336e+13	2.426223e+14	1.485068e+14	7.332316e+03	3.263493e+03	1.608126e+03	0	4.334851e-04
1.260000e+09	2.286842e+12	0.000000e+00	5.628139e-01	4.838150e+13	2.413785e+14	1.478805e+14	7.329448e+03	3.261693e+03	1.607239e+03	0	4.327365e-04
1.270000e+09	2.275046e+12	0.000000e+00	5.628139e-01	4.822086e+13	2.401502e+14	1.472584e+14	7.326589e+03	3.259911e+03	1.606361e+03	0	4.319912e-04
1.280000e+09	2.263339e+12	0.000000e+00	5.628139e-01	4.806142e+13	2.389369e+14	1.466403e+14	7.323740e+03	3.258146e+03	1.605492e+03	0	4.312489e-04
1.290000e+09	2.251721e+12	0.000000e+00	5.628139e-01	4.790315e+13	2.377384e+14	1.460262e+14	7.320900e+03	3.256399e+03	1.604631e+03	0	4.305098e-04
1.300000e+09	2.240190e+12	0.000000e+00	5.628139e-01	4.774604e+13	2.365543e+14	1.454163e+14	7.318069e+03	3.254668e+03	1.603778e+03	0	4.297737e-04
1.310000e+09	2.228746e+12	0.000000e+00	5.628139e-01	4.759007e+13	2.353843e+14	1.448103e+14	7.315248e+03	3.252954e+03	1.602933e+03	0	4.290405e-04
1.320000e+09	2.217386e+12	0.000000e+00	5.628139e-01	4.743523e+13	2.342281e+14	1.442082e+14	7.312436e+03	3.251255e+03	1.602096e+03	0	4.283104e-04
1.330000e+09	2.206109e+12	0.000000e+00	5.628139e-01	4.728149e+13	2.330853e+14	1.436101e+14	7.309633e+03	3.249573e+03	1.601267e+03	0	4.275831e-04
1.340000e+09	2.194915e+12	0.000000e+00	5.628139e-01	4.712885e+13	2.319558e+14	1.430160e+14	7.306839e+03	3.247905e+03	1.600445e+03	0	4.268586e-04
1.350000e+09	2.183802e+12	0.000000e+00	5.628139e-01	4.697729e+13	2.308392e+14	1.424257e+14	7.304054e+03	3.246253e+03	1.599631e+03	0	4.261370e-04
1.360000e+09	2.172770e+12	0.000000e+00	5.628139e-01	4.682679e+13	2.297352e+14	1.418392e+14	7.301279e+03	3.244616e+03	1.598824e+03	0	4.254182e-04
