#t		Qconv[W]	Ri[Rp]		R*[Rp]		Qc[W]		Qm[W]		Qr[W]		Tcmb[K]		Tl[K]		Tup[K]		RiFlag		Bs[T]
0.000000e+00	8.333850e+12	0.000000e+00	5.628140e-01	1.283249e+14	2.992135e+15	2.964770e+14	8.259933e+03	4.981043e+03	2.380821e+03	0	6.635293e-04
1.000000e+07	8.184816e+12	0.000000e+00	5.628140e-01	1.264605e+14	2.718263e+15	2.948343e+14	8.253134e+03	4.890827e+03	2.337701e+03	0	6.595502e-04
2.000000e+07	8.033726e+12	0.000000e+00	5.628140e-01	1.245711e+14	2.486362e+15	2.932039e+14	8.246434e+03	4.809849e+03	2.298995e+03	0	6.554666e-04
3.000000e+07	7.883547e+12	0.000000e+00	5.628140e-01	1.226933e+14	2.288074e+15	2.915857e+14	8.239833e+03	4.736710e+03	2.264036e+03	0	6.513565e-04
4.000000e+07	7.736125e+12	0.000000e+00	5.628140e-01	1.208498e+14	2.117030e+15	2.899795e+14	8.233332e+03	4.670288e+03	2.232288e+03	0	6.472708e-04
5.000000e+07	7.592577e+12	0.000000e+00	5.628140e-01	1.190546e+14	1.968313e+15	2.883854e+14	8.226928e+03	4.609667e+03	2.203313e+03	0	6.432423e-04
6.000000e+07	7.453546e+12	0.000000e+00	5.628140e-01	1.173155e+14	1.838076e+15	2.868031e+14	8.220618e+03	4.554094e+03	2.176750e+03	0	6.392919e-04
7.000000e+07	7.319361e+12	0.000000e+00	5.628140e-01	1.156366e+14	1.723275e+15	2.852326e+14	8.214401e+03	4.502944e+03	2.152302e+03	0	6.354323e-04
8.000000e+07	7.190144e+12	0.000000e+00	5.628140e-01	1.140195e+14	1.621475e+15	2.836737e+14	8.208273e+03	4.455693e+03	2.129717e+03	0	6.316707e-04
9.000000e+07	7.065887e+12	0.000000e+00	5.628140e-01	1.124640e+14	1.530708e+15	2.821265e+14	8.202230e+03	4.411898e+03	2.108783e+03	0	6.280108e-04
1.000000e+08	6.946492e+12	0.000000e+00	5.628140e-01	1.109689e+14	1.449372e+15	2.805908e+14	8.196269e+03	4.371181e+03	2.089322e+03	0	6.244535e-04
1.100000e+08	6.831811e+12	0.000000e+00	5.628140e-01	1.095323e+14	1.376150e+15	2.790664e+14	8.190388e+03	4.333222e+03	2.071178e+03	0	6.209979e-04
1.200000e+08	6.721661e+12	0.000000e+00	5.628140e-01	1.081521e+14	1.309948e+15	2.775534e+14	8.184582e+03	4.297741e+03	2.054219e+03	0	6.176424e-04
1.300000e+08	6.615843e+12	0.000000e+00	5.628140e-01	1.068256e+14	1.249857e+15	2.760515e+14	8.178849e+03	4.264497e+03	2.038329e+03	0	6.143841e-04
1.400000e+08	6.514152e+12	0.000000e+00	5.628140e-01	1.055504e+14	1.195111e+15	2.745608e+14	8.173187e+03	4.233281e+03	2.023409e+03	0	6.112199e-04
1.500000e+08	6.416380e+12	0.000000e+00	5.628140e-01	1.043239e+14	1.145063e+15	2.730811e+14	8.167592e+03	4.203908e+03	2.009369e+03	0	6.081465e-04
1.600000e+08	6.322323e+12	0.000000e+00	5.628140e-01	1.031435e+14	1.099164e+15	2.716123e+14	8.162062e+03	4.176216e+03	1.996133e+03	0	6.051603e-04
1.700000e+08	6.231784e+12	0.000000e+00	5.628140e-01	1.020069e+14	1.056944e+15	2.701544e+14	8.156594e+03	4.150062e+03	1.983632e+03	0	6.022577e-04
1.800000e+08	6.144575e+12	0.000000e+00	5.628140e-01	1.009116e+14	1.017998e+15	2.687072e+14	8.151187e+03	4.125319e+03	1.971806e+03	0	5.994351e-04
1.900000e+08	6.060515e+12	0.000000e+00	5.628140e-01	9.985542e+13	9.819770e+14	2.672706e+14	8.145837e+03	4.101875e+03	1.960600e+03	0	5.966891e-04
2.000000e+08	5.979434e+12	0.000000e+00	5.628140e-01	9.883628e+13	9.485793e+14	2.658447e+14	8.140544e+03	4.079627e+03	1.949966e+03	0	5.940161e-04
2.100000e+08	5.901169e+12	0.000000e+00	5.628140e-01	9.785215e+13	9.175410e+14	2.644292e+14	8.135304e+03	4.058485e+03	1.939861e+03	0	5.914131e-04
2.200000e+08	5.825571e+12	0.000000e+00	5.628140e-01	9.690116e+13	8.886315e+14	2.630241e+14	8.130117e+03	4.038368e+03	1.930245e+03	0	5.888767e-04
2.300000e+08	5.752496e+12	0.000000e+00	5.628140e-01	9.598153e+13	8.616485e+14	2.616293e+14	8.124979e+03	4.019201e+03	1.921084e+03	0	5.864041e-04
2.400000e+08	5.681810e+12	0.000000e+00	5.628140e-01	9.509161e+13	8.364137e+14	2.602448e+14	8.119891e+03	4.000919e+03	1.912345e+03	0	5.839923e-04
2.500000e+08	5.613388e+12	0.000000e+00	5.628140e-01	9.422984e+13	8.127693e+14	2.588704e+14	8.114849e+03	3.983459e+03	1.904000e+03	0	5.816386e-04
2.600000e+08	5.547112e+12	0.000000e+00	5.628140e-01	9.339476e+13	7.905754e+14	2.575060e+14	8.109853e+03	3.966769e+03	1.896022e+03	0	5.793405e-04
2.700000e+08	5.482873e+12	0.000000e+00	5.628140e-01	9.258499e+13	7.697078e+14	2.561517e+14	8.104902e+03	3.950797e+03	1.888388e+03	0	5.770954e-04
2.800000e+08	5.420566e+12	0.000000e+00	5.628140e-01	9.179927e+13	7.500553e+14	2.548072e+14	8.099993e+03	3.935497e+03	1.881075e+03	0	5.749011e-04
2.900000e+08	5.360096e+12	0.000000e+00	5.628140e-01	9.103639e+13	7.315185e+14	2.534725e+14	8.095126e+03	3.920827e+03	1.874063e+03	0	5.727552e-04
3.000000e+08	5.301371e+12	0.000000e+00	5.628140e-01	9.029522e+13	7.140084e+14	2.521476e+14	8.090299e+03	3.906750e+03	1.867335e+03	0	5.706559e-04
3.100000e+08	5.244306e+12	0.000000e+00	5.628140e-01	8.957471e+13	6.974446e+14	2.508323e+14	8.085512e+03	3.893228e+03	1.860872e+03	0	5.686009e-04
3.200000e+08	5.188822e+12	0.000000e+00	5.628140e-01	8.887387e+13	6.817549e+14	2.495266e+14	8.080762e+03	3.880230e+03	1.854659e+03	0	5.665886e-04
3.300000e+08	5.134843e+12	0.000000e+00	5.628140e-01	8.819176e+13	6.668740e+14	2.482303e+14	8.076050e+03	3.867726e+03	1.848682e+03	0	5.646170e-04
3.400000e+08	5.082299e+12	0.000000e+00	5.628140e-01	8.752751e+13	6.527426e+14	2.469435e+14	8.071374e+03	3.855687e+03	1.842928e+03	0	5.626845e-04
3.500000e+08	5.031124e+12	0.000000e+00	5.628140e-01	8.688031e+13	6.393070e+14	2.456661e+14	8.066733e+03	3.844088e+03	1.837384e+03	0	5.607895e-04
3.600000e+08	4.981256e+12	0.000000e+00	5.628140e-01	8.624938e+13	6.265183e+14	2.443979e+14	8.062126e+03	3.832905e+03	1.832039e+03	0	5.589306e-04
3.700000e+08	4.932637e+12	0.000000e+00	5.628140e-01	8.563398e+13	6.143320e+14	2.431388e+14	8.057552e+03	3.822116e+03	1.826881e+03	0	5.571061e-04
3.800000e+08	4.885210e+12	0.000000e+00	5.628140e-01	8.503345e+13	6.027074e+14	2.418889e+14	8.053012e+03	3.811699e+03	1.821902e+03	0	5.553149e-04
3.900000e+08	4.838925e+12	0.000000e+00	5.628140e-01	8.444713e+13	5.916073e+14	2.406480e+14	8.048503e+03	3.801635e+03	1.817092e+03	0	5.535555e-04
4.000000e+08	4.793732e+12	0.000000e+00	5.628140e-01	8.387442e+13	5.809975e+14	2.394161e+14	8.044025e+03	3.791908e+03	1.812443e+03	0	5.518268e-04
4.100000e+08	4.749585e+12	0.000000e+00	5.628140e-01	8.331473e+13	5.708470e+14	2.381931e+14	8.039577e+03	3.782499e+03	1.807946e+03	0	5.501276e-04
4.200000e+08	4.706440e+12	0.000000e+00	5.628140e-01	8.276754e+13	5.611267e+14	2.369789e+14	8.035159e+03	3.773393e+03	1.803593e+03	0	5.484568e-04
4.300000e+08	4.664256e+12	0.000000e+00	5.628140e-01	8.223233e+13	5.518104e+14	2.357734e+14	8.030770e+03	3.764575e+03	1.799378e+03	0	5.468132e-04
4.400000e+08	4.622995e+12	0.000000e+00	5.628140e-01	8.170861e+13	5.428735e+14	2.345766e+14	8.026410e+03	3.756032e+03	1.795295e+03	0	5.451960e-04
4.500000e+08	4.582619e+12	0.000000e+00	5.628140e-01	8.119592e+13	5.342935e+14	2.333884e+14	8.022077e+03	3.747750e+03	1.791337e+03	0	5.436042e-04
4.600000e+08	4.543093e+12	0.000000e+00	5.628140e-01	8.069384e+13	5.260495e+14	2.322087e+14	8.017771e+03	3.739718e+03	1.787498e+03	0	5.420368e-04
4.700000e+08	4.504385e+12	0.000000e+00	5.628140e-01	8.020195e+13	5.181223e+14	2.310375e+14	8.013492e+03	3.731924e+03	1.783772e+03	0	5.404930e-04
4.800000e+08	4.466463e+12	0.000000e+00	5.628140e-01	7.971987e+13	5.104940e+14	2.298747e+14	8.009239e+03	3.724358e+03	1.780156e+03	0	5.389719e-04
4.900000e+08	4.429298e+12	0.000000e+00	5.628140e-01	7.924722e+13	5.031478e+14	2.287202e+14	8.005011e+03	3.717008e+03	1.776643e+03	0	5.374728e-04
5.000000e+08	4.392860e+12	0.000000e+00	5.628140e-01	7.878365e+13	4.960685e+14	2.275739e+14	8.000808e+03	3.709867e+03	1.773229e+03	0	5.359949e-04
5.100000e+08	4.357124e+12	0.000000e+00	5.628140e-01	7.832883e+13	4.892416e+14	2.264359e+14	7.996630e+03	3.702924e+03	1.769911e+03	0	5.345375e-04
5.200000e+08	4.322063e+12	0.000000e+00	5.628140e-01	7.788245e+13	4.826537e+14	2.253060e+14	7.992476e+03	3.696171e+03	1.766683e+03	0	5.330999e-04
5.300000e+08	4.287655e+12	0.000000e+00	5.628140e-01	7.744420e+13	4.762923e+14	2.241841e+14	7.988346e+03	3.689600e+03	1.763542e+03	0	5.316814e-04
5.400000e+08	4.253875e+12	0.000000e+00	5.628140e-01	7.701380e+13	4.701458e+14	2.230702e+14	7.984239e+03	3.683204e+03	1.760485e+03	0	5.302815e-04
5.500000e+08	4.220702e+12	0.000000e+00	5.628140e-01	7.659098e+13	4.642033e+14	2.219643e+14	7.980155e+03	3.676975e+03	1.757508e+03	0	5.288994e-04
5.600000e+08	4.188115e+12	0.000000e+00	5.628140e-01	7.617547e+13	4.584546e+14	2.208662e+14	7.976093e+03	3.670906e+03	1.754607e+03	0	5.275348e-04
5.700000e+08	4.156093e+12	0.000000e+00	5.628140e-01	7.576703e+13	4.528902e+14	2.197759e+14	7.972053e+03	3.664992e+03	1.751780e+03	0	5.261869e-04
5.800000e+08	4.124619e+12	0.000000e+00	5.628140e-01	7.536542e+13	4.475011e+14	2.186933e+14	7.968035e+03	3.659226e+03	1.749024e+03	0	5.248552e-04
5.900000e+08	4.093674e+12	0.000000e+00	5.628140e-01	7.497042e+13	4.422789e+14	2.176184e+14	7.964038e+03	3.653601e+03	1.746336e+03	0	5.235393e-04
6.000000e+08	4.063241e+12	0.000000e+00	5.628140e-01	7.458182e+13	4.372157e+14	2.165512e+14	7.960062e+03	3.648114e+03	1.743713e+03	0	5.222387e-04
6.100000e+08	4.033303e+12	0.000000e+00	5.628140e-01	7.419940e+13	4.323042e+14	2.154914e+14	7.956106e+03	3.642757e+03	1.741152e+03	0	5.209529e-04
6.200000e+08	4.003844e+12	0.000000e+00	5.628140e-01	7.382298e+13	4.275374e+14	2.144392e+14	7.952171e+03	3.637527e+03	1.738653e+03	0	5.196815e-04
6.300000e+08	3.974850e+12	0.000000e+00	5.628140e-01	7.345236e+13	4.229087e+14	2.133944e+14	7.948256e+03	3.632419e+03	1.736211e+03	0	5.184240e-04
6.400000e+08	3.946306e+12	0.000000e+00	5.628140e-01	7.308737e+13	4.184119e+14	2.123570e+14	7.944360e+03	3.627427e+03	1.733825e+03	0	5.171801e-04
6.500000e+08	3.918198e+12	0.000000e+00	5.628140e-01	7.272784e+13	4.140412e+14	2.113268e+14	7.940484e+03	3.622549e+03	1.731493e+03	0	5.159493e-04
6.600000e+08	3.890513e+12	0.000000e+00	5.628140e-01	7.237360e+13	4.097912e+14	2.103039e+14	7.936627e+03	3.617779e+03	1.729213e+03	0	5.147312e-04
6.700000e+08	3.863239e+12	0.000000e+00	5.628140e-01	7.202449e+13	4.056566e+14	2.092882e+14	7.932788e+03	3.613114e+03	1.726983e+03	0	5.135256e-04
6.800000e+08	3.836363e+12	0.000000e+00	5.628140e-01	7.168037e+13	4.016326e+14	2.082797e+14	7.928968e+03	3.608549e+03	1.724802e+03	0	5.123320e-04
6.900000e+08	3.809874e+12	0.000000e+00	5.628140e-01	7.134109e+13	3.977145e+14	2.072782e+14	7.925167e+03	3.604082e+03	1.722667e+03	0	5.111501e-04
7.000000e+08	3.783761e+12	0.000000e+00	5.628140e-01	7.100651e+13	3.938979e+14	2.062837e+14	7.921383e+03	3.599710e+03	1.720577e+03	0	5.099796e-04
7.100000e+08	3.758013e+12	0.000000e+00	5.628140e-01	7.067650e+13	3.901786e+14	2.052962e+14	7.917617e+03	3.595427e+03	1.718530e+03	0	5.088202e-04
7.200000e+08	3.732619e+12	0.000000e+00	5.628140e-01	7.035094e+13	3.865528e+14	2.043156e+14	7.913868e+03	3.591233e+03	1.716525e+03	0	5.076715e-04
7.300000e+08	3.707571e+12	0.000000e+00	5.628140e-01	7.002969e+13	3.830167e+14	2.033419e+14	7.910137e+03	3.587123e+03	1.714561e+03	0	5.065333e-04
7.400000e+08	3.682858e+12	0.000000e+00	5.628140e-01	6.971265e+13	3.795668e+14	2.023750e+14	7.906422e+03	3.583095e+03	1.712635e+03	0	5.054054e-04
7.500000e+08	3.658471e+12	0.000000e+00	5.628140e-01	6.939969e+13	3.761996e+14	2.014147e+14	7.902725e+03	3.579146e+03	1.710748e+03	0	5.042874e-04
7.600000e+08	3.634403e+12	0.000000e+00	5.628140e-01	6.909072e+13	3.729121e+14	2.004612e+14	7.899044e+03	3.575273e+03	1.708897e+03	0	5.031791e-04
7.700000e+08	3.610643e+12	0.000000e+00	5.628140e-01	6.878563e+13	3.697012e+14	1.995144e+14	7.895379e+03	3.571475e+03	1.707081e+03	0	5.020802e-04
7.800000e+08	3.587186e+12	0.000000e+00	5.628140e-01	6.848431e+13	3.665640e+14	1.985741e+14	7.891731e+03	3.567748e+03	1.705300e+03	0	5.009905e-04
7.900000e+08	3.564021e+12	0.000000e+00	5.628140e-01	6.818667e+13	3.634977e+14	1.976403e+14	7.888099e+03	3.564090e+03	1.703551e+03	0	4.999098e-04
8.000000e+08	3.541143e+12	0.000000e+00	5.628140e-01	6.789262e+13	3.604998e+14	1.967130e+14	7.884482e+03	3.560499e+03	1.701835e+03	0	4.988378e-04
8.100000e+08	3.518544e+12	0.000000e+00	5.628140e-01	6.760207e+13	3.575678e+14	1.957921e+14	7.880881e+03	3.556973e+03	1.700150e+03	0	4.977744e-04
8.200000e+08	3.496216e+12	0.000000e+00	5.628140e-01	6.731492e+13	3.546993e+14	1.948776e+14	7.877295e+03	3.553510e+03	1.698494e+03	0	4.967192e-04
8.300000e+08	3.474154e+12	0.000000e+00	5.628140e-01	6.703111e+13	3.518920e+14	1.939695e+14	7.873725e+03	3.550108e+03	1.696868e+03	0	4.956722e-04
8.400000e+08	3.452351e+12	0.000000e+00	5.628140e-01	6.675054e+13	3.491439e+14	1.930676e+14	7.870169e+03	3.546765e+03	1.695270e+03	0	4.946331e-04
8.500000e+08	3.430800e+12	0.000000e+00	5.628140e-01	6.647315e+13	3.464527e+14	1.921719e+14	7.866629e+03	3.543479e+03	1.693700e+03	0	4.936018e-04
8.600000e+08	3.409497e+12	0.000000e+00	5.628140e-01	6.619885e+13	3.438167e+14	1.912824e+14	7.863103e+03	3.540248e+03	1.692156e+03	0	4.925780e-04
8.700000e+08	3.388434e+12	0.000000e+00	5.628140e-01	6.592758e+13	3.412339e+14	1.903990e+14	7.859591e+03	3.537072e+03	1.690637e+03	0	4.915615e-04
8.800000e+08	3.367606e+12	0.000000e+00	5.628140e-01	6.565926e+13	3.387024e+14	1.895217e+14	7.856094e+03	3.533947e+03	1.689144e+03	0	4.905523e-04
8.900000e+08	3.347008e+12	0.000000e+00	5.628140e-01	6.539383e+13	3.362207e+14	1.886504e+14	7.852612e+03	3.530874e+03	1.687675e+03	0	4.895501e-04
9.000000e+08	3.326635e+12	0.000000e+00	5.628140e-01	6.513122e+13	3.337870e+14	1.877851e+14	7.849143e+03	3.527849e+03	1.686229e+03	0	4.885548e-04
9.100000e+08	3.306482e+12	0.000000e+00	5.628140e-01	6.487137e+13	3.313999e+14	1.869258e+14	7.845688e+03	3.524872e+03	1.684806e+03	0	4.875662e-04
9.200000e+08	3.286544e+12	0.000000e+00	5.628140e-01	6.461423e+13	3.290577e+14	1.860723e+14	7.842247e+03	3.521942e+03	1.683406e+03	0	4.865842e-04
9.300000e+08	3.266816e+12	0.000000e+00	5.628140e-01	6.435972e+13	3.267592e+14	1.852246e+14	7.838820e+03	3.519057e+03	1.682026e+03	0	4.856087e-04
9.400000e+08	3.247293e+12	0.000000e+00	5.628140e-01	6.410780e+13	3.245028e+14	1.843828e+14	7.835406e+03	3.516215e+03	1.680668e+03	0	4.846394e-04
9.500000e+08	3.227972e+12	0.000000e+00	5.628140e-01	6.385841e+13	3.222873e+14	1.835467e+14	7.832005e+03	3.513416e+03	1.679330e+03	0	4.836763e-04
9.600000e+08	3.208848e+12	0.000000e+00	5.628140e-01	6.361149e+13	3.201114e+14	1.827163e+14	7.828618e+03	3.510658e+03	1.678012e+03	0	4.827192e-04
9.700000e+08	3.189916e+12	0.000000e+00	5.628140e-01	6.336700e+13	3.179739e+14	1.818915e+14	7.825244e+03	3.507941e+03	1.676713e+03	0	4.817680e-04
9.800000e+08	3.171173e+12	0.000000e+00	5.628140e-01	6.312489e+13	3.158736e+14	1.810724e+14	7.821882e+03	3.505263e+03	1.675433e+03	0	4.808226e-04
9.900000e+08	3.152616e+12	0.000000e+00	5.628140e-01	6.288510e+13	3.138095e+14	1.802588e+14	7.818534e+03	3.502622e+03	1.674171e+03	0	4.798829e-04
1.000000e+09	3.134240e+12	0.000000e+00	5.628140e-01	6.264760e+13	3.117804e+14	1.794508e+14	7.815198e+03	3.500019e+03	1.672927e+03	0	4.789486e-04
1.010000e+09	3.116041e+12	0.000000e+00	5.628140e-01	6.241233e+13	3.097853e+14	1.786482e+14	7.811875e+03	3.497452e+03	1.671700e+03	0	4.780199e-04
1.020000e+09	3.098016e+12	0.000000e+00	5.628140e-01	6.217925e+13	3.078233e+14	1.778511e+14	7.808564e+03	3.494920e+03	1.670489e+03	0	4.770964e-04
1.030000e+09	3.080163e+12	0.000000e+00	5.628140e-01	6.194833e+13	3.058933e+14	1.770594e+14	7.805266e+03	3.492421e+03	1.669295e+03	0	4.761781e-04
1.040000e+09	3.062476e+12	0.000000e+00	5.628140e-01	6.171951e+13	3.039945e+14	1.762730e+14	7.801980e+03	3.489957e+03	1.668117e+03	0	4.752650e-04
1.050000e+09	3.044954e+12	0.000000e+00	5.628140e-01	6.149276e+13	3.021261e+14	1.754919e+14	7.798706e+03	3.487524e+03	1.666955e+03	0	4.743568e-04
1.060000e+09	3.027593e+12	0.000000e+00	5.628140e-01	6.126804e+13	3.002870e+14	1.747161e+14	7.795444e+03	3.485123e+03	1.665807e+03	0	4.734536e-04
1.070000e+09	3.010390e+12	0.000000e+00	5.628140e-01	6.104532e+13	2.984766e+14	1.739456e+14	7.792194e+03	3.482753e+03	1.664674e+03	0	4.725551e-04
1.080000e+09	2.993343e+12	0.000000e+00	5.628140e-01	6.082454e+13	2.966940e+14	1.731802e+14	7.788955e+03	3.480413e+03	1.663555e+03	0	4.716614e-04
1.090000e+09	2.976447e+12	0.000000e+00	5.628140e-01	6.060569e+13	2.949385e+14	1.724199e+14	7.785729e+03	3.478101e+03	1.662451e+03	0	4.707724e-04
1.100000e+09	2.959701e+12	0.000000e+00	5.628140e-01	6.038873e+13	2.932094e+14	1.716648e+14	7.782514e+03	3.475819e+03	1.661360e+03	0	4.698878e-04
1.110000e+09	2.943102e+12	0.000000e+00	5.628140e-01	6.017361e+13	2.915060e+14	1.709147e+14	7.779310e+03	3.473564e+03	1.660282e+03	0	4.690078e-04
1.120000e+09	2.926648e+12	0.000000e+00	5.628140e-01	5.996032e+13	2.898275e+14	1.701697e+14	7.776118e+03	3.471336e+03	1.659217e+03	0	4.681321e-04
1.130000e+09	2.910335e+12	0.000000e+00	5.628140e-01	5.974881e+13	2.881734e+14	1.694296e+14	7.772937e+03	3.469134e+03	1.658165e+03	0	4.672607e-04
1.140000e+09	2.894162e+12	0.000000e+00	5.628140e-01	5.953907e+13	2.865430e+14	1.686945e+14	7.769768e+03	3.466959e+03	1.657125e+03	0	4.663935e-04
1.150000e+09	2.878125e+12	0.000000e+00	5.628140e-01	5.933104e+13	2.849357e+14	1.679643e+14	7.766609e+03	3.464808e+03	1.656097e+03	0	4.655305e-04
1.160000e+09	2.862223e+12	0.000000e+00	5.628140e-01	5.912472e+13	2.833510e+14	1.672389e+14	7.763462e+03	3.462682e+03	1.655081e+03	0	4.646715e-04
1.170000e+09	2.846453e+12	0.000000e+00	5.628140e-01	5.892007e+13	2.817881e+14	1.665184e+14	7.760325e+03	3.460580e+03	1.654076e+03	0	4.638165e-04
1.180000e+09	2.830813e+12	0.000000e+00	5.628140e-01	5.871706e+13	2.802467e+14	1.658027e+14	7.757200e+03	3.458501e+03	1.653082e+03	0	4.629655e-04
1.190000e+09	2.815302e+12	0.000000e+00	5.628140e-01	5.851566e+13	2.787262e+14	1.650917e+14	7.754085e+03	3.456445e+03	1.652100e+03	0	4.621183e-04
1.200000e+09	2.799916e+12	0.000000e+00	5.628140e-01	5.831586e+13	2.772261e+14	1.643855e+14	7.750981e+03	3.454412e+03	1.651128e+03	0	4.612749e-04
1.210000e+09	2.784653e+12	0.000000e+00	5.628140e-01	5.811761e+13	2.757458e+14	1.636840e+14	7.747887e+03	3.452400e+03	1.650166e+03	0	4.604353e-04
1.220000e+09	2.769513e+12	0.000000e+00	5.628140e-01	5.792091e+13	2.742850e+14	1.629871e+14	7.744804e+03	3.450409e+03	1.649215e+03	0	4.595993e-04
1.230000e+09	2.754493e+12	0.000000e+00	5.628140e-01	5.772572e+13	2.728431e+14	1.622948e+14	7.741731e+03	3.448440e+03	1.648273e+03	0	4.587669e-04
1.240000e+09	2.739591e+12	0.000000e+00	5.628140e-01	5.753203e+13	2.714197e+14	1.616070e+14	7.738669e+03	3.446490e+03	1.647341e+03	0	4.579381e-04
1.250000e+09	2.724804e+12	0.000000e+00	5.628140e-01	5.733980e+13	2.700144e+14	1.609239e+14	7.735617e+03	3.444561e+03	1.646419e+03	0	4.571127e-04
1.260000e+09	2.710133e+12	0.000000e+00	5.628140e-01	5.714902e+13	2.686268e+14	1.602452e+14	7.732575e+03	3.442651e+03	1.645506e+03	0	4.562908e-04
1.270000e+09	2.695573e+12	0.000000e+00	5.628140e-01	5.695966e+13	2.672564e+14	1.595710e+14	7.729543e+03	3.440760e+03	1.644602e+03	0	4.554723e-04
1.280000e+09	2.681125e+12	0.000000e+00	5.628140e-01	5.677171e+13	2.659029e+14	1.589012e+14	7.726521e+03	3.438888e+03	1.643707e+03	0	4.546570e-04
1.290000e+09	2.666786e+12	0.000000e+00	5.628140e-01	5.658513e+13	2.645659e+14	1.582359e+14	7.723509e+03	3.437033e+03	1.642821e+03	0	4.538451e-04
1.300000e+09	2.652555e+12	0.000000e+00	5.628140e-01	5.639992e+13	2.632450e+14	1.575749e+14	7.720508e+03	3.435197e+03	1.641943e+03	0	4.530363e-04
1.310000e+09	2.638430e+12	0.000000e+00	5.628140e-01	5.621606e+13	2.619399e+14	1.569182e+14	7.717515e+03	3.433378e+03	1.641074e+03	0	4.522307e-04
1.320000e+09	2.624409e+12	0.000000e+00	5.628140e-01	5.603351e+13	2.606502e+14	1.562658e+14	7.714533e+03	3.431576e+03	1.640213e+03	0	4.514283e-04
1.330000e+09	2.610492e+12	0.000000e+00	5.628140e-01	5.585227e+13	2.593756e+14	1.556177e+14	7.711560e+03	3.429791e+03	1.639359e+03	0	4.506289e-04
1.340000e+09	2.596676e+12	0.000000e+00	5.628140e-01	5.567232e+13	2.581158e+14	1.549739e+14	7.708597e+03	3.428022e+03	1.638514e+03	0	4.498325e-04
1.350000e+09	2.582960e+12	0.000000e+00	5.628140e-01	5.549363e+13	2.568705e+14	1.543342e+14	7.705644e+03	3.426269e+03	1.637676e+03	0	4.490391e-04
1.360000e+09	2.569343e+12	0.000000e+00	5.628140e-01	5.531620e+13	2.556393e+14	1.536987e+14	7.702700e+03	3.424532e+03	1.636846e+03	0	4.482486e-04
