#t		Qconv[W]	Ri[Rp]		R*[Rp]		Qc[W]		Qm[W]		Qr[W]		Tcmb[K]		Tl[K]		Tup[K]		RiFlag		Bs[T]
0.000000e+00	1.238467e+13	0.000000e+00	5.577888e-01	1.817122e+14	3.336916e+15	3.570928e+14	9.391865e+03	5.535519e+03	2.455036e+03	0	7.556973e-04
1.000000e+07	1.216528e+13	0.000000e+00	5.577888e-01	1.792032e+14	3.070960e+15	3.551143e+14	9.384116e+03	5.450787e+03	2.417457e+03	0	7.512083e-04
2.000000e+07	1.194709e+13	0.000000e+00	5.577888e-01	1.767083e+14	2.841285e+15	3.531505e+14	9.376474e+03	5.373779e+03	2.383303e+03	0	7.466901e-04
3.000000e+07	1.173244e+13	0.000000e+00	5.577888e-01	1.742537e+14	2.641399e+15	3.512014e+14	9.368938e+03	5.303447e+03	2.352110e+03	0	7.421912e-04
4.000000e+07	1.152279e+13	0.000000e+00	5.577888e-01	1.718561e+14	2.466209e+15	3.492669e+14	9.361507e+03	5.238931e+03	2.323497e+03	0	7.377439e-04
5.000000e+07	1.131903e+13	0.000000e+00	5.577888e-01	1.695253e+14	2.311674e+15	3.473468e+14	9.354178e+03	5.179514e+03	2.297145e+03	0	7.333695e-04
6.000000e+07	1.112165e+13	0.000000e+00	5.577888e-01	1.672668e+14	2.174558e+15	3.454410e+14	9.346947e+03	5.124595e+03	2.272789e+03	0	7.290815e-04
7.000000e+07	1.093086e+13	0.000000e+00	5.577888e-01	1.650832e+14	2.052241e+15	3.435494e+14	9.339813e+03	5.073666e+03	2.250201e+03	0	7.248885e-04
8.000000e+07	1.074671e+13	0.000000e+00	5.577888e-01	1.629749e+14	1.942583e+15	3.416719e+14	9.332772e+03	5.026294e+03	2.229191e+03	0	7.207948e-04
9.000000e+07	1.056913e+13	0.000000e+00	5.577888e-01	1.609410e+14	1.843824e+15	3.398083e+14	9.325821e+03	4.982107e+03	2.209594e+03	0	7.168025e-04
1.000000e+08	1.039796e+13	0.000000e+00	5.577888e-01	1.589798e+14	1.754504e+15	3.379586e+14	9.318956e+03	4.940785e+03	2.191268e+03	0	7.129118e-04
1.100000e+08	1.023299e+13	0.000000e+00	5.577888e-01	1.570890e+14	1.673403e+15	3.361226e+14	9.312174e+03	4.902052e+03	2.174089e+03	0	7.091215e-04
1.200000e+08	1.007400e+13	0.000000e+00	5.577888e-01	1.552658e+14	1.599497e+15	3.343002e+14	9.305473e+03	4.865664e+03	2.157951e+03	0	7.054296e-04
1.300000e+08	9.920726e+12	0.000000e+00	5.577888e-01	1.535076e+14	1.531917e+15	3.324913e+14	9.298850e+03	4.831410e+03	2.142759e+03	0	7.018337e-04
1.400000e+08	9.772920e+12	0.000000e+00	5.577888e-01	1.518113e+14	1.469926e+15	3.306958e+14	9.292302e+03	4.799102e+03	2.128430e+03	0	6.983308e-04
1.500000e+08	9.630325e+12	0.000000e+00	5.577888e-01	1.501741e+14	1.412892e+15	3.289135e+14	9.285825e+03	4.768575e+03	2.114892e+03	0	6.949177e-04
1.600000e+08	9.492689e+12	0.000000e+00	5.577888e-01	1.485932e+14	1.360273e+15	3.271444e+14	9.279419e+03	4.739684e+03	2.102078e+03	0	6.915913e-04
1.700000e+08	9.359768e+12	0.000000e+00	5.577888e-01	1.470658e+14	1.311598e+15	3.253884e+14	9.273080e+03	4.712297e+03	2.089932e+03	0	6.883481e-04
1.800000e+08	9.231328e+12	0.000000e+00	5.577888e-01	1.455891e+14	1.266463e+15	3.236453e+14	9.266806e+03	4.686297e+03	2.078401e+03	0	6.851849e-04
1.900000e+08	9.107144e+12	0.000000e+00	5.577888e-01	1.441608e+14	1.224510e+15	3.219151e+14	9.260594e+03	4.661579e+03	2.067438e+03	0	6.820986e-04
2.000000e+08	8.987002e+12	0.000000e+00	5.577888e-01	1.427783e+14	1.185431e+15	3.201976e+14	9.254444e+03	4.638050e+03	2.057003e+03	0	6.790859e-04
2.100000e+08	8.870700e+12	0.000000e+00	5.577888e-01	1.414394e+14	1.148953e+15	3.184927e+14	9.248352e+03	4.615624e+03	2.047057e+03	0	6.761437e-04
2.200000e+08	8.758045e+12	0.000000e+00	5.577888e-01	1.401419e+14	1.114835e+15	3.168003e+14	9.242318e+03	4.594224e+03	2.037566e+03	0	6.732693e-04
2.300000e+08	8.648857e+12	0.000000e+00	5.577888e-01	1.388837e+14	1.082865e+15	3.151204e+14	9.236339e+03	4.573780e+03	2.028499e+03	0	6.704596e-04
2.400000e+08	8.542965e+12	0.000000e+00	5.577888e-01	1.376629e+14	1.052855e+15	3.134528e+14	9.230413e+03	4.554228e+03	2.019827e+03	0	6.677121e-04
2.500000e+08	8.440207e+12	0.000000e+00	5.577888e-01	1.364777e+14	1.024636e+15	3.117974e+14	9.224539e+03	4.535510e+03	2.011526e+03	0	6.650242e-04
2.600000e+08	8.340432e+12	0.000000e+00	5.577888e-01	1.353264e+14	9.980596e+14	3.101541e+14	9.218716e+03	4.517574e+03	2.003571e+03	0	6.623933e-04
2.700000e+08	8.243497e+12	0.000000e+00	5.577888e-01	1.342073e+14	9.729908e+14	3.085228e+14	9.212942e+03	4.500370e+03	1.995941e+03	0	6.598171e-04
2.800000e+08	8.149268e+12	0.000000e+00	5.577888e-01	1.331190e+14	9.493097e+14	3.069034e+14	9.207216e+03	4.483854e+03	1.988616e+03	0	6.572934e-04
2.900000e+08	8.057618e+12	0.000000e+00	5.577888e-01	1.320599e+14	9.269081e+14	3.052959e+14	9.201536e+03	4.467985e+03	1.981578e+03	0	6.548200e-04
3.000000e+08	7.968428e+12	0.000000e+00	5.577888e-01	1.310288e+14	9.056882e+14	3.037001e+14	9.195901e+03	4.452726e+03	1.974810e+03	0	6.523950e-04
3.100000e+08	7.881585e+12	0.000000e+00	5.577888e-01	1.300244e+14	8.855620e+14	3.021159e+14	9.190310e+03	4.438040e+03	1.968297e+03	0	6.500163e-04
3.200000e+08	7.796984e+12	0.000000e+00	5.577888e-01	1.290454e+14	8.664496e+14	3.005432e+14	9.184761e+03	4.423896e+03	1.962024e+03	0	6.476822e-04
3.300000e+08	7.714525e+12	0.000000e+00	5.577888e-01	1.280908e+14	8.482782e+14	2.989820e+14	9.179255e+03	4.410264e+03	1.955979e+03	0	6.453908e-04
3.400000e+08	7.634114e+12	0.000000e+00	5.577888e-01	1.271595e+14	8.309820e+14	2.974321e+14	9.173789e+03	4.397116e+03	1.950148e+03	0	6.431406e-04
3.500000e+08	7.555662e+12	0.000000e+00	5.577888e-01	1.262504e+14	8.145008e+14	2.958934e+14	9.168363e+03	4.384427e+03	1.944520e+03	0	6.409300e-04
3.600000e+08	7.479086e+12	0.000000e+00	5.577888e-01	1.253627e+14	7.987797e+14	2.943659e+14	9.162975e+03	4.372172e+03	1.939085e+03	0	6.387574e-04
3.700000e+08	7.404307e+12	0.000000e+00	5.577888e-01	1.244954e+14	7.837683e+14	2.928495e+14	9.157626e+03	4.360330e+03	1.933832e+03	0	6.366214e-04
3.800000e+08	7.331250e+12	0.000000e+00	5.577888e-01	1.236476e+14	7.694206e+14	2.913440e+14	9.152313e+03	4.348878e+03	1.928754e+03	0	6.345206e-04
3.900000e+08	7.259843e+12	0.000000e+00	5.577888e-01	1.228187e+14	7.556945e+14	2.898494e+14	9.147036e+03	4.337798e+03	1.923840e+03	0	6.324538e-04
4.000000e+08	7.190022e+12	0.000000e+00	5.577888e-01	1.220078e+14	7.425509e+14	2.883656e+14	9.141795e+03	4.327072e+03	1.919083e+03	0	6.304197e-04
4.100000e+08	7.121722e+12	0.000000e+00	5.577888e-01	1.212142e+14	7.299541e+14	2.868925e+14	9.136589e+03	4.316683e+03	1.914475e+03	0	6.284172e-04
4.200000e+08	7.054883e+12	0.000000e+00	5.577888e-01	1.204372e+14	7.178711e+14	2.854301e+14	9.131416e+03	4.306614e+03	1.910009e+03	0	6.264451e-04
4.300000e+08	6.989448e+12	0.000000e+00	5.577888e-01	1.196763e+14	7.062714e+14	2.839781e+14	9.126276e+03	4.296850e+03	1.905679e+03	0	6.245023e-04
4.400000e+08	6.925365e+12	0.000000e+00	5.577888e-01	1.189307e+14	6.951269e+14	2.825366e+14	9.121169e+03	4.287378e+03	1.901478e+03	0	6.225878e-04
4.500000e+08	6.862581e+12	0.000000e+00	5.577888e-01	1.181999e+14	6.844114e+14	2.811055e+14	9.116093e+03	4.278185e+03	1.897401e+03	0	6.207007e-04
4.600000e+08	6.801049e+12	0.000000e+00	5.577888e-01	1.174834e+14	6.741007e+14	2.796846e+14	9.111049e+03	4.269257e+03	1.893441e+03	0	6.188400e-04
4.700000e+08	6.740722e+12	0.000000e+00	5.577888e-01	1.167805e+14	6.641724e+14	2.782740e+14	9.106035e+03	4.260583e+03	1.889594e+03	0	6.170048e-04
4.800000e+08	6.681556e+12	0.000000e+00	5.577888e-01	1.160910e+14	6.546056e+14	2.768734e+14	9.101051e+03	4.252152e+03	1.885855e+03	0	6.151943e-04
4.900000e+08	6.623511e+12	0.000000e+00	5.577888e-01	1.154142e+14	6.453808e+14	2.754829e+14	9.096097e+03	4.243954e+03	1.882219e+03	0	6.134076e-04
5.000000e+08	6.566546e+12	0.000000e+00	5.577888e-01	1.147497e+14	6.364799e+14	2.741023e+14	9.091171e+03	4.235978e+03	1.878682e+03	0	6.116440e-04
5.100000e+08	6.510623e+12	0.000000e+00	5.577888e-01	1.140970e+14	6.278860e+14	2.727316e+14	9.086274e+03	4.228216e+03	1.875239e+03	0	6.099027e-04
5.200000e+08	6.455707e+12	0.000000e+00	5.577888e-01	1.134559e+14	6.195835e+14	2.713706e+14	9.081404e+03	4.220658e+03	1.871887e+03	0	6.081831e-04
5.300000e+08	6.401764e+12	0.000000e+00	5.577888e-01	1.128259e+14	6.115575e+14	2.700194e+14	9.076562e+03	4.213296e+03	1.868622e+03	0	6.064844e-04
5.400000e+08	6.348761e+12	0.000000e+00	5.577888e-01	1.122065e+14	6.037942e+14	2.686778e+14	9.071747e+03	4.206123e+03	1.865441e+03	0	6.048060e-04
5.500000e+08	6.296667e+12	0.000000e+00	5.577888e-01	1.115976e+14	5.962808e+14	2.673457e+14	9.066958e+03	4.199130e+03	1.862339e+03	0	6.031472e-04
5.600000e+08	6.245452e+12	0.000000e+00	5.577888e-01	1.109987e+14	5.890051e+14	2.660231e+14	9.062195e+03	4.192311e+03	1.859315e+03	0	6.015075e-04
5.700000e+08	6.195087e+12	0.000000e+00	5.577888e-01	1.104095e+14	5.819558e+14	2.647099e+14	9.057457e+03	4.185659e+03	1.856365e+03	0	5.998862e-04
5.800000e+08	6.145547e+12	0.000000e+00	5.577888e-01	1.098296e+14	5.751222e+14	2.634060e+14	9.052745e+03	4.179167e+03	1.853486e+03	0	5.982829e-04
5.900000e+08	6.096804e+12	0.000000e+00	5.577888e-01	1.092589e+14	5.684944e+14	2.621113e+14	9.048057e+03	4.172829e+03	1.850675e+03	0	5.966969e-04
6.000000e+08	6.048834e+12	0.000000e+00	5.577888e-01	1.086971e+14	5.620627e+14	2.608259e+14	9.043394e+03	4.166640e+03	1.847930e+03	0	5.951279e-04
6.100000e+08	6.001614e+12	0.000000e+00	5.577888e-01	1.081438e+14	5.558185e+14	2.595495e+14	9.038755e+03	4.160594e+03	1.845249e+03	0	5.935752e-04
6.200000e+08	5.955120e+12	0.000000e+00	5.577888e-01	1.075987e+14	5.497534e+14	2.582821e+14	9.034139e+03	4.154686e+03	1.842628e+03	0	5.920384e-04
6.300000e+08	5.909331e+12	0.000000e+00	5.577888e-01	1.070618e+14	5.438594e+14	2.570237e+14	9.029546e+03	4.148910e+03	1.840067e+03	0	5.905172e-04
6.400000e+08	5.864227e+12	0.000000e+00	5.577888e-01	1.065326e+14	5.381291e+14	2.557741e+14	9.024977e+03	4.143263e+03	1.837562e+03	0	5.890109e-04
6.500000e+08	5.819786e+12	0.000000e+00	5.577888e-01	1.060111e+14	5.325555e+14	2.545334e+14	9.020430e+03	4.137738e+03	1.835112e+03	0	5.875192e-04
6.600000e+08	5.775991e+12	0.000000e+00	5.577888e-01	1.054969e+14	5.271319e+14	2.533014e+14	9.015905e+03	4.132333e+03	1.832714e+03	0	5.860418e-04
6.700000e+08	5.732822e+12	0.000000e+00	5.577888e-01	1.049899e+14	5.218521e+14	2.520780e+14	9.011402e+03	4.127042e+03	1.830368e+03	0	5.845781e-04
6.800000e+08	5.690263e+12	0.000000e+00	5.577888e-01	1.044899e+14	5.167102e+14	2.508632e+14	9.006921e+03	4.121863e+03	1.828071e+03	0	5.831279e-04
6.900000e+08	5.648296e+12	0.000000e+00	5.577888e-01	1.039966e+14	5.117004e+14	2.496570e+14	9.002461e+03	4.116790e+03	1.825821e+03	0	5.816908e-04
7.000000e+08	5.606904e+12	0.000000e+00	5.577888e-01	1.035099e+14	5.068176e+14	2.484592e+14	8.998022e+03	4.111821e+03	1.823617e+03	0	5.802664e-04
7.100000e+08	5.566073e+12	0.000000e+00	5.577888e-01	1.030296e+14	5.020565e+14	2.472698e+14	8.993604e+03	4.106951e+03	1.821458e+03	0	5.788544e-04
7.200000e+08	5.525787e+12	0.000000e+00	5.577888e-01	1.025556e+14	4.974125e+14	2.460887e+14	8.989206e+03	4.102179e+03	1.819341e+03	0	5.774545e-04
7.300000e+08	5.486033e+12	0.000000e+00	5.577888e-01	1.020877e+14	4.928810e+14	2.449159e+14	8.984828e+03	4.097499e+03	1.817266e+03	0	5.760664e-04
7.400000e+08	5.446795e+12	0.000000e+00	5.577888e-01	1.016256e+14	4.884576e+14	2.437513e+14	8.980471e+03	4.092910e+03	1.815230e+03	0	5.746897e-04
7.500000e+08	5.408061e+12	0.000000e+00	5.577888e-01	1.011694e+14	4.841383e+14	2.425947e+14	8.976133e+03	4.088409e+03	1.813234e+03	0	5.733242e-04
7.600000e+08	5.369817e+12	0.000000e+00	5.577888e-01	1.007188e+14	4.799191e+14	2.414463e+14	8.971814e+03	4.083992e+03	1.811275e+03	0	5.719695e-04
7.700000e+08	5.332052e+12	0.000000e+00	5.577888e-01	1.002736e+14	4.757964e+14	2.403058e+14	8.967515e+03	4.079657e+03	1.809352e+03	0	5.706255e-04
7.800000e+08	5.294754e+12	0.000000e+00	5.577888e-01	9.983379e+13	4.717665e+14	2.391733e+14	8.963235e+03	4.075401e+03	1.807465e+03	0	5.692919e-04
7.900000e+08	5.257911e+12	0.000000e+00	5.577888e-01	9.939919e+13	4.678261e+14	2.380486e+14	8.958973e+03	4.071223e+03	1.805612e+03	0	5.679684e-04
8.000000e+08	5.221511e+12	0.000000e+00	5.577888e-01	9.896969e+13	4.639721e+14	2.369317e+14	8.954730e+03	4.067118e+03	1.803791e+03	0	5.666547e-04
8.100000e+08	5.185545e+12	0.000000e+00	5.577888e-01	9.854515e+13	4.602012e+14	2.358225e+14	8.950506e+03	4.063086e+03	1.802003e+03	0	5.653506e-04
8.200000e+08	5.150001e+12	0.000000e+00	5.577888e-01	9.812547e+13	4.565107e+14	2.347211e+14	8.946299e+03	4.059124e+03	1.800246e+03	0	5.640560e-04
8.300000e+08	5.114871e+12	0.000000e+00	5.577888e-01	9.771052e+13	4.528978e+14	2.336272e+14	8.942111e+03	4.055230e+03	1.798519e+03	0	5.627705e-04
8.400000e+08	5.080144e+12	0.000000e+00	5.577888e-01	9.730020e+13	4.493597e+14	2.325409e+14	8.937940e+03	4.051402e+03	1.796821e+03	0	5.614939e-04
8.500000e+08	5.045811e+12	0.000000e+00	5.577888e-01	9.689440e+13	4.458939e+14	2.314621e+14	8.933786e+03	4.047637e+03	1.795151e+03	0	5.602262e-04
8.600000e+08	5.011863e+12	0.000000e+00	5.577888e-01	9.649302e+13	4.424980e+14	2.303908e+14	8.929650e+03	4.043935e+03	1.793509e+03	0	5.589669e-04
8.700000e+08	4.978291e+12	0.000000e+00	5.577888e-01	9.609597e+13	4.391697e+14	2.293268e+14	8.925531e+03	4.040293e+03	1.791894e+03	0	5.577161e-04
8.800000e+08	4.945088e+12	0.000000e+00	5.577888e-01	9.570314e+13	4.359068e+14	2.282701e+14	8.921429e+03	4.036709e+03	1.790305e+03	0	5.564734e-04
8.900000e+08	4.912244e+12	0.000000e+00	5.577888e-01	9.531444e+13	4.327070e+14	2.272207e+14	8.917344e+03	4.033182e+03	1.788740e+03	0	5.552387e-04
9.000000e+08	4.879753e+12	0.000000e+00	5.577888e-01	9.492979e+13	4.295685e+14	2.261785e+14	8.913275e+03	4.029710e+03	1.787201e+03	0	5.540118e-04
9.100000e+08	4.847606e+12	0.000000e+00	5.577888e-01	9.454910e+13	4.264892e+14	2.251434e+14	8.909222e+03	4.026292e+03	1.785685e+03	0	5.527925e-04
9.200000e+08	4.815796e+12	0.000000e+00	5.577888e-01	9.417229e+13	4.234673e+14	2.241154e+14	8.905186e+03	4.022926e+03	1.784192e+03	0	5.515808e-04
9.300000e+08	4.784317e+12	0.000000e+00	5.577888e-01	9.379927e+13	4.205009e+14	2.230945e+14	8.901166e+03	4.019611e+03	1.782722e+03	0	5.503763e-04
9.400000e+08	4.753161e+12	0.000000e+00	5.577888e-01	9.342997e+13	4.175884e+14	2.220805e+14	8.897162e+03	4.016345e+03	1.781273e+03	0	5.491790e-04
9.500000e+08	4.722321e+12	0.000000e+00	5.577888e-01	9.306431e+13	4.147281e+14	2.210735e+14	8.893174e+03	4.013127e+03	1.779846e+03	0	5.479887e-04
9.600000e+08	4.691792e+12	0.000000e+00	5.577888e-01	9.270222e+13	4.119185e+14	2.200733e+14	8.889201e+03	4.009955e+03	1.778439e+03	0	5.468052e-04
9.700000e+08	4.661566e+12	0.000000e+00	5.577888e-01	9.234362e+13	4.091580e+14	2.190799e+14	8.885243e+03	4.006829e+03	1.777053e+03	0	5.456285e-04
9.800000e+08	4.631638e+12	0.000000e+00	5.577888e-01	9.198845e+13	4.064451e+14	2.180933e+14	8.881301e+03	4.003747e+03	1.775686e+03	0	5.444583e-04
9.900000e+08	4.602003e+12	0.000000e+00	5.577888e-01	9.163665e+13	4.037785e+14	2.171134e+14	8.877374e+03	4.000708e+03	1.774338e+03	0	5.432946e-04
1.000000e+09	4.572653e+12	0.000000e+00	5.577888e-01	9.128813e+13	4.011569e+14	2.161402e+14	8.873462e+03	3.997711e+03	1.773009e+03	0	5.421371e-04
1.010000e+09	4.543585e+12	0.000000e+00	5.577888e-01	9.094285e+13	3.985788e+14	2.151735e+14	8.869565e+03	3.994755e+03	1.771698e+03	0	5.409859e-04
1.020000e+09	4.514791e+12	0.000000e+00	5.577888e-01	9.060075e+13	3.960431e+14	2.142134e+14	8.865683e+03	3.991838e+03	1.770404e+03	0	5.398407e-04
1.030000e+09	4.486268e+12	0.000000e+00	5.577888e-01	9.026175e+13	3.935487e+14	2.132598e+14	8.861815e+03	3.988960e+03	1.769128e+03	0	5.387015e-04
1.040000e+09	4.458010e+12	0.000000e+00	5.577888e-01	8.992581e+13	3.910942e+14	2.123127e+14	8.857962e+03	3.986120e+03	1.767868e+03	0	5.375680e-04
1.050000e+09	4.430013e+12	0.000000e+00	5.577888e-01	8.959287e+13	3.886787e+14	2.113719e+14	8.854123e+03	3.983316e+03	1.766625e+03	0	5.364403e-04
1.060000e+09	4.402270e+12	0.000000e+00	5.577888e-01	8.926288e+13	3.863010e+14	2.104375e+14	8.850298e+03	3.980549e+03	1.765397e+03	0	5.353182e-04
1.070000e+09	4.374779e+12	0.000000e+00	5.577888e-01	8.893577e+13	3.839602e+14	2.095094e+14	8.846487e+03	3.977816e+03	1.764185e+03	0	5.342015e-04
1.080000e+09	4.347534e+12	0.000000e+00	5.577888e-01	8.861151e+13	3.816552e+14	2.085875e+14	8.842690e+03	3.975117e+03	1.762988e+03	0	5.330902e-04
1.090000e+09	4.320531e+12	0.000000e+00	5.577888e-01	8.829004e+13	3.793851e+14	2.076718e+14	8.838907e+03	3.972452e+03	1.761806e+03	0	5.319842e-04
1.100000e+09	4.293765e+12	0.000000e+00	5.577888e-01	8.797131e+13	3.771489e+14	2.067623e+14	8.835138e+03	3.969818e+03	1.760638e+03	0	5.308834e-04
1.110000e+09	4.267234e+12	0.000000e+00	5.577888e-01	8.765527e+13	3.749459e+14	2.058588e+14	8.831383e+03	3.967217e+03	1.759484e+03	0	5.297877e-04
1.120000e+09	4.240931e+12	0.000000e+00	5.577888e-01	8.734188e+13	3.727751e+14	2.049615e+14	8.827640e+03	3.964646e+03	1.758344e+03	0	5.286970e-04
1.130000e+09	4.214855e+12	0.000000e+00	5.577888e-01	8.703110e+13	3.706356e+14	2.040701e+14	8.823912e+03	3.962106e+03	1.757218e+03	0	5.276111e-04
1.140000e+09	4.189000e+12	0.000000e+00	5.577888e-01	8.672288e+13	3.685268e+14	2.031847e+14	8.820196e+03	3.959595e+03	1.756104e+03	0	5.265301e-04
1.150000e+09	4.163363e+12	0.000000e+00	5.577888e-01	8.641718e+13	3.664478e+14	2.023052e+14	8.816494e+03	3.957113e+03	1.755003e+03	0	5.254538e-04
1.160000e+09	4.137941e+12	0.000000e+00	5.577888e-01	8.611396e+13	3.643979e+14	2.014315e+14	8.812804e+03	3.954658e+03	1.753915e+03	0	5.243821e-04
1.170000e+09	4.112730e+12	0.000000e+00	5.577888e-01	8.581317e+13	3.623764e+14	2.005637e+14	8.809128e+03	3.952232e+03	1.752838e+03	0	5.233149e-04
1.180000e+09	4.087726e+12	0.000000e+00	5.577888e-01	8.551478e+13	3.603825e+14	1.997017e+14	8.805464e+03	3.949832e+03	1.751774e+03	0	5.222523e-04
1.190000e+09	4.062927e+12	0.000000e+00	5.577888e-01	8.521875e+13	3.584157e+14	1.988454e+14	8.801813e+03	3.947458e+03	1.750721e+03	0	5.211940e-04
1.200000e+09	4.038329e+12	0.000000e+00	5.577888e-01	8.492505e+13	3.564752e+14	1.979947e+14	8.798175e+03	3.945109e+03	1.749680e+03	0	5.201400e-04
1.210000e+09	4.013928e+12	0.000000e+00	5.577888e-01	8.463363e+13	3.545605e+14	1.971498e+14	8.794549e+03	3.942786e+03	1.748649e+03	0	5.190903e-04
1.220000e+09	3.989722e+12	0.000000e+00	5.577888e-01	8.434446e+13	3.526709e+14	1.963104e+14	8.790936e+03	3.940487e+03	1.747630e+03	0	5.180448e-04
1.230000e+09	3.965708e+12	0.000000e+00	5.577888e-01	8.405751e+13	3.508058e+14	1.954765e+14	8.787335e+03	3.938212e+03	1.746621e+03	0	5.170033e-04
1.240000e+09	3.941882e+12	0.000000e+00	5.577888e-01	8.377275e+13	3.489648e+14	1.946482e+14	8.783746e+03	3.935961e+03	1.745622e+03	0	5.159659e-04
1.250000e+09	3.918243e+12	0.000000e+00	5.577888e-01	8.349013e+13	3.471471e+14	1.938254e+14	8.780170e+03	3.933732e+03	1.744634e+03	0	5.149324e-04
1.260000e+09	3.894787e+12	0.000000e+00	5.577888e-01	8.320964e+13	3.453523e+14	1.930079e+14	8.776605e+03	3.931526e+03	1.743655e+03	0	5.139028e-04
1.270000e+09	3.871510e+12	0.000000e+00	5.577888e-01	8.293123e+13	3.435800e+14	1.921959e+14	8.773053e+03	3.929342e+03	1.742687e+03	0	5.128770e-04
1.280000e+09	3.848412e+12	0.000000e+00	5.577888e-01	8.265488e+13	3.418295e+14	1.913892e+14	8.769512e+03	3.927179e+03	1.741727e+03	0	5.118550e-04
1.290000e+09	3.825489e+12	0.000000e+00	5.577888e-01	8.238056e+13	3.401004e+14	1.905878e+14	8.765983e+03	3.925037e+03	1.740777e+03	0	5.108367e-04
1.300000e+09	3.802738e+12	0.000000e+00	5.577888e-01	8.210823e+13	3.383922e+14	1.897916e+14	8.762466e+03	3.922915e+03	1.739836e+03	0	5.098220e-04
1.310000e+09	3.780158e+12	0.000000e+00	5.577888e-01	8.183788e+13	3.367045e+14	1.890007e+14	8.758960e+03	3.920814e+03	1.738904e+03	0	5.088109e-04
1.320000e+09	3.757745e+12	0.000000e+00	5.577888e-01	8.156947e+13	3.350368e+14	1.882150e+14	8.755466e+03	3.918732e+03	1.737981e+03	0	5.078033e-04
1.330000e+09	3.735498e+12	0.000000e+00	5.577888e-01	8.130298e+13	3.333888e+14	1.874344e+14	8.751984e+03	3.916670e+03	1.737067e+03	0	5.067992e-04
1.340000e+09	3.713413e+12	0.000000e+00	5.577888e-01	8.103837e+13	3.317600e+14	1.866589e+14	8.748512e+03	3.914626e+03	1.736160e+03	0	5.057984e-04
1.350000e+09	3.691489e+12	0.000000e+00	5.577888e-01	8.077563e+13	3.301499e+14	1.858884e+14	8.745052e+03	3.912601e+03	1.735262e+03	0	5.048011e-04
1.360000e+09	3.669724e+12	0.000000e+00	5.577888e-01	8.051472e+13	3.285583e+14	1.851230e+14	8.741604e+03	3.910595e+03	1.734372e+03	0	5.038070e-04
