#t		Qconv[W]	Ri[Rp]		R*[Rp]		Qc[W]		Qm[W]		Qr[W]		Tcmb[K]		Tl[K]		Tup[K]		RiFlag		Bs[T]
0.000000e+00	3.261745e+13	0.000000e+00	5.477386e-01	4.786741e+14	3.947658e+15	5.961954e+14	1.381356e+04	7.731899e+03	2.694776e+03	0	1.039678e-03
1.000000e+07	3.212607e+13	0.000000e+00	5.477386e-01	4.741999e+14	3.773662e+15	5.928921e+14	1.380309e+04	7.673498e+03	2.674422e+03	0	1.034431e-03
2.000000e+07	3.164485e+13	0.000000e+00	5.477386e-01	4.698166e+14	3.614209e+15	5.896134e+14	1.379271e+04	7.618425e+03	2.655228e+03	0	1.029240e-03
3.000000e+07	3.117415e+13	0.000000e+00	5.477386e-01	4.655273e+14	3.467646e+15	5.863593e+14	1.378243e+04	7.566397e+03	2.637094e+03	0	1.024111e-03
4.000000e+07	3.071415e+13	0.000000e+00	5.477386e-01	4.613335e+14	3.332556e+15	5.831294e+14	1.377225e+04	7.517160e+03	2.619934e+03	0	1.019049e-03
5.000000e+07	3.026490e+13	0.000000e+00	5.477386e-01	4.572357e+14	3.207712e+15	5.799237e+14	1.376215e+04	7.470491e+03	2.603668e+03	0	1.014056e-03
6.000000e+07	2.982633e+13	0.000000e+00	5.477386e-01	4.532332e+14	3.092050e+15	5.767418e+14	1.375215e+04	7.426188e+03	2.588228e+03	0	1.009134e-03
7.000000e+07	2.939832e+13	0.000000e+00	5.477386e-01	4.493250e+14	2.984645e+15	5.735836e+14	1.374223e+04	7.384070e+03	2.573549e+03	0	1.004284e-03
8.000000e+07	2.898068e+13	0.000000e+00	5.477386e-01	4.455093e+14	2.884685e+15	5.704489e+14	1.373240e+04	7.343977e+03	2.559575e+03	0	9.995054e-04
9.000000e+07	2.857318e+13	0.000000e+00	5.477386e-01	4.417841e+14	2.791460e+15	5.673375e+14	1.372265e+04	7.305762e+03	2.546256e+03	0	9.947985e-04
1.000000e+08	2.817557e+13	0.000000e+00	5.477386e-01	4.381472e+14	2.704342e+15	5.642493e+14	1.371298e+04	7.269294e+03	2.533546e+03	0	9.901626e-04
1.100000e+08	2.778758e+13	0.000000e+00	5.477386e-01	4.345961e+14	2.622779e+15	5.611839e+14	1.370339e+04	7.234451e+03	2.521402e+03	0	9.855966e-04
1.200000e+08	2.740893e+13	0.000000e+00	5.477386e-01	4.311284e+14	2.546278e+15	5.581412e+14	1.369388e+04	7.201126e+03	2.509788e+03	0	9.810993e-04
1.300000e+08	2.703932e+13	0.000000e+00	5.477386e-01	4.277414e+14	2.474403e+15	5.551211e+14	1.368444e+04	7.169219e+03	2.498667e+03	0	9.766693e-04
1.400000e+08	2.667847e+13	0.000000e+00	5.477386e-01	4.244326e+14	2.406765e+15	5.521234e+14	1.367508e+04	7.138640e+03	2.488009e+03	0	9.723052e-04
1.500000e+08	2.632609e+13	0.000000e+00	5.477386e-01	4.211994e+14	2.343015e+15	5.491478e+14	1.366579e+04	7.109305e+03	2.477785e+03	0	9.680053e-04
1.600000e+08	2.598189e+13	0.000000e+00	5.477386e-01	4.180393e+14	2.282840e+15	5.461942e+14	1.365658e+04	7.081139e+03	2.467969e+03	0	9.637681e-04
1.700000e+08	2.564559e+13	0.000000e+00	5.477386e-01	4.149497e+14	2.225959e+15	5.432623e+14	1.364743e+04	7.054071e+03	2.458535e+03	0	9.595918e-04
1.800000e+08	2.531692e+13	0.000000e+00	5.477386e-01	4.119282e+14	2.172120e+15	5.403521e+14	1.363835e+04	7.028037e+03	2.449461e+03	0	9.554748e-04
1.900000e+08	2.499561e+13	0.000000e+00	5.477386e-01	4.089726e+14	2.121093e+15	5.374633e+14	1.362933e+04	7.002978e+03	2.440727e+03	0	9.514155e-04
2.000000e+08	2.468141e+13	0.000000e+00	5.477386e-01	4.060804e+14	2.072671e+15	5.345958e+14	1.362038e+04	6.978838e+03	2.432314e+03	0	9.474121e-04
2.100000e+08	2.437406e+13	0.000000e+00	5.477386e-01	4.032495e+14	2.026667e+15	5.317494e+14	1.361149e+04	6.955567e+03	2.424204e+03	0	9.434631e-04
2.200000e+08	2.407332e+13	0.000000e+00	5.477386e-01	4.004777e+14	1.982909e+15	5.289239e+14	1.360267e+04	6.933118e+03	2.416379e+03	0	9.395668e-04
2.300000e+08	2.377897e+13	0.000000e+00	5.477386e-01	3.977630e+14	1.941243e+15	5.261191e+14	1.359390e+04	6.911447e+03	2.408826e+03	0	9.357216e-04
2.400000e+08	2.349078e+13	0.000000e+00	5.477386e-01	3.951034e+14	1.901525e+15	5.233348e+14	1.358519e+04	6.890513e+03	2.401530e+03	0	9.319260e-04
2.500000e+08	2.320853e+13	0.000000e+00	5.477386e-01	3.924970e+14	1.863626e+15	5.205710e+14	1.357655e+04	6.870278e+03	2.394478e+03	0	9.281785e-04
2.600000e+08	2.293202e+13	0.000000e+00	5.477386e-01	3.899419e+14	1.827428e+15	5.178274e+14	1.356796e+04	6.850707e+03	2.387657e+03	0	9.244776e-04
2.700000e+08	2.266105e+13	0.000000e+00	5.477386e-01	3.874364e+14	1.792821e+15	5.151038e+14	1.355942e+04	6.831768e+03	2.381056e+03	0	9.208219e-04
2.800000e+08	2.239544e+13	0.000000e+00	5.477386e-01	3.849788e+14	1.759705e+15	5.124002e+14	1.355094e+04	6.813428e+03	2.374664e+03	0	9.172101e-04
2.900000e+08	2.213500e+13	0.000000e+00	5.477386e-01	3.825675e+14	1.727987e+15	5.097163e+14	1.354251e+04	6.795660e+03	2.368472e+03	0	9.136407e-04
3.000000e+08	2.187955e+13	0.000000e+00	5.477386e-01	3.802010e+14	1.697584e+15	5.070519e+14	1.353414e+04	6.778437e+03	2.362469e+03	0	9.101125e-04
3.100000e+08	2.162893e+13	0.000000e+00	5.477386e-01	3.778778e+14	1.668416e+15	5.044069e+14	1.352582e+04	6.761732e+03	2.356647e+03	0	9.066242e-04
3.200000e+08	2.138299e+13	0.000000e+00	5.477386e-01	3.755964e+14	1.640410e+15	5.017812e+14	1.351755e+04	6.745522e+03	2.350997e+03	0	9.031747e-04
3.300000e+08	2.114156e+13	0.000000e+00	5.477386e-01	3.733555e+14	1.613500e+15	4.991746e+14	1.350932e+04	6.729785e+03	2.345512e+03	0	8.997626e-04
3.400000e+08	2.090450e+13	0.000000e+00	5.477386e-01	3.711538e+14	1.587624e+15	4.965869e+14	1.350115e+04	6.714500e+03	2.340185e+03	0	8.963870e-04
3.500000e+08	2.067167e+13	0.000000e+00	5.477386e-01	3.689900e+14	1.562723e+15	4.940180e+14	1.349303e+04	6.699646e+03	2.335008e+03	0	8.930467e-04
3.600000e+08	2.044294e+13	0.000000e+00	5.477386e-01	3.668629e+14	1.538745e+15	4.914677e+14	1.348495e+04	6.685206e+03	2.329975e+03	0	8.897406e-04
3.700000e+08	2.021817e+13	0.000000e+00	5.477386e-01	3.647714e+14	1.515639e+15	4.889359e+14	1.347692e+04	6.671161e+03	2.325080e+03	0	8.864677e-04
3.800000e+08	1.999724e+13	0.000000e+00	5.477386e-01	3.627144e+14	1.493359e+15	4.864224e+14	1.346894e+04	6.657496e+03	2.320318e+03	0	8.832270e-04
3.900000e+08	1.978004e+13	0.000000e+00	5.477386e-01	3.606909e+14	1.471861e+15	4.839271e+14	1.346100e+04	6.644193e+03	2.315681e+03	0	8.800176e-04
4.000000e+08	1.956645e+13	0.000000e+00	5.477386e-01	3.586997e+14	1.451105e+15	4.814498e+14	1.345310e+04	6.631238e+03	2.311166e+03	0	8.768385e-04
4.100000e+08	1.935635e+13	0.000000e+00	5.477386e-01	3.567400e+14	1.431054e+15	4.789903e+14	1.344525e+04	6.618618e+03	2.306768e+03	0	8.736889e-04
4.200000e+08	1.914966e+13	0.000000e+00	5.477386e-01	3.548108e+14	1.411672e+15	4.765486e+14	1.343744e+04	6.606318e+03	2.302481e+03	0	8.705678e-04
4.300000e+08	1.894625e+13	0.000000e+00	5.477386e-01	3.529112e+14	1.392925e+15	4.741245e+14	1.342967e+04	6.594327e+03	2.298301e+03	0	8.674745e-04
4.400000e+08	1.874605e+13	0.000000e+00	5.477386e-01	3.510403e+14	1.374784e+15	4.717178e+14	1.342195e+04	6.582631e+03	2.294225e+03	0	8.644082e-04
4.500000e+08	1.854895e+13	0.000000e+00	5.477386e-01	3.491974e+14	1.357219e+15	4.693284e+14	1.341426e+04	6.571220e+03	2.290248e+03	0	8.613680e-04
4.600000e+08	1.835487e+13	0.000000e+00	5.477386e-01	3.473816e+14	1.340203e+15	4.669562e+14	1.340662e+04	6.560083e+03	2.286367e+03	0	8.583532e-04
4.700000e+08	1.816371e+13	0.000000e+00	5.477386e-01	3.455922e+14	1.323709e+15	4.646009e+14	1.339901e+04	6.549210e+03	2.282577e+03	0	8.553631e-04
4.800000e+08	1.797541e+13	0.000000e+00	5.477386e-01	3.438284e+14	1.307715e+15	4.622626e+14	1.339145e+04	6.538590e+03	2.278876e+03	0	8.523969e-04
4.900000e+08	1.778987e+13	0.000000e+00	5.477386e-01	3.420896e+14	1.292197e+15	4.599410e+14	1.338392e+04	6.528214e+03	2.275260e+03	0	8.494541e-04
5.000000e+08	1.760703e+13	0.000000e+00	5.477386e-01	3.403750e+14	1.277134e+15	4.576360e+14	1.337643e+04	6.518075e+03	2.271726e+03	0	8.465339e-04
5.100000e+08	1.742681e+13	0.000000e+00	5.477386e-01	3.386840e+14	1.262506e+15	4.553474e+14	1.336898e+04	6.508162e+03	2.268271e+03	0	8.436357e-04
5.200000e+08	1.724914e+13	0.000000e+00	5.477386e-01	3.370160e+14	1.248294e+15	4.530752e+14	1.336156e+04	6.498468e+03	2.264892e+03	0	8.407588e-04
5.300000e+08	1.707395e+13	0.000000e+00	5.477386e-01	3.353703e+14	1.234480e+15	4.508192e+14	1.335418e+04	6.488985e+03	2.261587e+03	0	8.379027e-04
5.400000e+08	1.690118e+13	0.000000e+00	5.477386e-01	3.337465e+14	1.221047e+15	4.485793e+14	1.334684e+04	6.479707e+03	2.258353e+03	0	8.350669e-04
5.500000e+08	1.673076e+13	0.000000e+00	5.477386e-01	3.321439e+14	1.207980e+15	4.463553e+14	1.333954e+04	6.470625e+03	2.255188e+03	0	8.322507e-04
5.600000e+08	1.656263e+13	0.000000e+00	5.477386e-01	3.305619e+14	1.195261e+15	4.441471e+14	1.333226e+04	6.461733e+03	2.252089e+03	0	8.294535e-04
5.700000e+08	1.639674e+13	0.000000e+00	5.477386e-01	3.290002e+14	1.182879e+15	4.419546e+14	1.332503e+04	6.453025e+03	2.249054e+03	0	8.266750e-04
5.800000e+08	1.623303e+13	0.000000e+00	5.477386e-01	3.274581e+14	1.170818e+15	4.397776e+14	1.331782e+04	6.444495e+03	2.246081e+03	0	8.239145e-04
5.900000e+08	1.607144e+13	0.000000e+00	5.477386e-01	3.259351e+14	1.159067e+15	4.376161e+14	1.331066e+04	6.436136e+03	2.243168e+03	0	8.211715e-04
6.000000e+08	1.591192e+13	0.000000e+00	5.477386e-01	3.244309e+14	1.147613e+15	4.354699e+14	1.330352e+04	6.427944e+03	2.240312e+03	0	8.184457e-04
6.100000e+08	1.575443e+13	0.000000e+00	5.477386e-01	3.229450e+14	1.136443e+15	4.333389e+14	1.329642e+04	6.419912e+03	2.237513e+03	0	8.157364e-04
6.200000e+08	1.559891e+13	0.000000e+00	5.477386e-01	3.214769e+14	1.125548e+15	4.312229e+14	1.328935e+04	6.412036e+03	2.234768e+03	0	8.130433e-04
6.300000e+08	1.544531e+13	0.000000e+00	5.477386e-01	3.200262e+14	1.114917e+15	4.291218e+14	1.328231e+04	6.404310e+03	2.232075e+03	0	8.103660e-04
6.400000e+08	1.529360e+13	0.000000e+00	5.477386e-01	3.185926e+14	1.104540e+15	4.270356e+14	1.327530e+04	6.396730e+03	2.229434e+03	0	8.077039e-04
6.500000e+08	1.514372e+13	0.000000e+00	5.477386e-01	3.171755e+14	1.094407e+15	4.249641e+14	1.326833e+04	6.389292e+03	2.226841e+03	0	8.050567e-04
6.600000e+08	1.499564e+13	0.000000e+00	5.477386e-01	3.157747e+14	1.084510e+15	4.229071e+14	1.326138e+04	6.381990e+03	2.224296e+03	0	8.024240e-04
6.700000e+08	1.484930e+13	0.000000e+00	5.477386e-01	3.143897e+14	1.074839e+15	4.208647e+14	1.325447e+04	6.374821e+03	2.221798e+03	0	7.998054e-04
6.800000e+08	1.470469e+13	0.000000e+00	5.477386e-01	3.130202e+14	1.065387e+15	4.188365e+14	1.324758e+04	6.367781e+03	2.219344e+03	0	7.972005e-04
6.900000e+08	1.456174e+13	0.000000e+00	5.477386e-01	3.116660e+14	1.056146e+15	4.168226e+14	1.324073e+04	6.360866e+03	2.216934e+03	0	7.946089e-04
7.000000e+08	1.442044e+13	0.000000e+00	5.477386e-01	3.103265e+14	1.047108e+15	4.148228e+14	1.323391e+04	6.354072e+03	2.214566e+03	0	7.920303e-04
7.100000e+08	1.428074e+13	0.000000e+00	5.477386e-01	3.090016e+14	1.038267e+15	4.128370e+14	1.322711e+04	6.347395e+03	2.212239e+03	0	7.894643e-04
7.200000e+08	1.414260e+13	0.000000e+00	5.477386e-01	3.076909e+14	1.029615e+15	4.108651e+14	1.322035e+04	6.340832e+03	2.209952e+03	0	7.869106e-04
7.300000e+08	1.400600e+13	0.000000e+00	5.477386e-01	3.063941e+14	1.021146e+15	4.089070e+14	1.321361e+04	6.334380e+03	2.207703e+03	0	7.843688e-04
7.400000e+08	1.387090e+13	0.000000e+00	5.477386e-01	3.051110e+14	1.012855e+15	4.069625e+14	1.320690e+04	6.328036e+03	2.205492e+03	0	7.818387e-04
7.500000e+08	1.373727e+13	0.000000e+00	5.477386e-01	3.038411e+14	1.004734e+15	4.050316e+14	1.320022e+04	6.321796e+03	2.203317e+03	0	7.793199e-04
7.600000e+08	1.360508e+13	0.000000e+00	5.477386e-01	3.025843e+14	9.967783e+14	4.031141e+14	1.319357e+04	6.315658e+03	2.201178e+03	0	7.768120e-04
7.700000e+08	1.347429e+13	0.000000e+00	5.477386e-01	3.013404e+14	9.889828e+14	4.012100e+14	1.318694e+04	6.309618e+03	2.199073e+03	0	7.743149e-04
7.800000e+08	1.334489e+13	0.000000e+00	5.477386e-01	3.001089e+14	9.813420e+14	3.993191e+14	1.318035e+04	6.303674e+03	2.197001e+03	0	7.718282e-04
7.900000e+08	1.321684e+13	0.000000e+00	5.477386e-01	2.988898e+14	9.738511e+14	3.974414e+14	1.317377e+04	6.297824e+03	2.194962e+03	0	7.693516e-04
8.000000e+08	1.309012e+13	0.000000e+00	5.477386e-01	2.976827e+14	9.665052e+14	3.955767e+14	1.316723e+04	6.292064e+03	2.192955e+03	0	7.668848e-04
8.100000e+08	1.296469e+13	0.000000e+00	5.477386e-01	2.964874e+14	9.592998e+14	3.937248e+14	1.316071e+04	6.286392e+03	2.190978e+03	0	7.644276e-04
8.200000e+08	1.284054e+13	0.000000e+00	5.477386e-01	2.953037e+14	9.522305e+14	3.918859e+14	1.315422e+04	6.280807e+03	2.189031e+03	0	7.619798e-04
8.300000e+08	1.271764e+13	0.000000e+00	5.477386e-01	2.941314e+14	9.452932e+14	3.900596e+14	1.314775e+04	6.275304e+03	2.187114e+03	0	7.595409e-04
8.400000e+08	1.259597e+13	0.000000e+00	5.477386e-01	2.929702e+14	9.384838e+14	3.882459e+14	1.314131e+04	6.269884e+03	2.185224e+03	0	7.571109e-04
8.500000e+08	1.247550e+13	0.000000e+00	5.477386e-01	2.918199e+14	9.317984e+14	3.864448e+14	1.313490e+04	6.264542e+03	2.183363e+03	0	7.546894e-04
8.600000e+08	1.235620e+13	0.000000e+00	5.477386e-01	2.906804e+14	9.252334e+14	3.846561e+14	1.312851e+04	6.259277e+03	2.181528e+03	0	7.522761e-04
8.700000e+08	1.223807e+13	0.000000e+00	5.477386e-01	2.895515e+14	9.187853e+14	3.828796e+14	1.312214e+04	6.254088e+03	2.179719e+03	0	7.498710e-04
8.800000e+08	1.212107e+13	0.000000e+00	5.477386e-01	2.884329e+14	9.124504e+14	3.811154e+14	1.311580e+04	6.248972e+03	2.177936e+03	0	7.474737e-04
8.900000e+08	1.200518e+13	0.000000e+00	5.477386e-01	2.873244e+14	9.062257e+14	3.793634e+14	1.310949e+04	6.243927e+03	2.176178e+03	0	7.450839e-04
9.000000e+08	1.189039e+13	0.000000e+00	5.477386e-01	2.862260e+14	9.001079e+14	3.776233e+14	1.310320e+04	6.238952e+03	2.174444e+03	0	7.427016e-04
9.100000e+08	1.177668e+13	0.000000e+00	5.477386e-01	2.851373e+14	8.940940e+14	3.758952e+14	1.309693e+04	6.234044e+03	2.172733e+03	0	7.403264e-04
9.200000e+08	1.166402e+13	0.000000e+00	5.477386e-01	2.840583e+14	8.881810e+14	3.741789e+14	1.309068e+04	6.229202e+03	2.171046e+03	0	7.379581e-04
9.300000e+08	1.155240e+13	0.000000e+00	5.477386e-01	2.829888e+14	8.823661e+14	3.724743e+14	1.308446e+04	6.224425e+03	2.169381e+03	0	7.355966e-04
9.400000e+08	1.144180e+13	0.000000e+00	5.477386e-01	2.819286e+14	8.766467e+14	3.707814e+14	1.307827e+04	6.219711e+03	2.167738e+03	0	7.332416e-04
9.500000e+08	1.133220e+13	0.000000e+00	5.477386e-01	2.808775e+14	8.710201e+14	3.691001e+14	1.307209e+04	6.215058e+03	2.166116e+03	0	7.308929e-04
9.600000e+08	1.122359e+13	0.000000e+00	5.477386e-01	2.798354e+14	8.654837e+14	3.674302e+14	1.306594e+04	6.210465e+03	2.164515e+03	0	7.285503e-04
9.700000e+08	1.111594e+13	0.000000e+00	5.477386e-01	2.788022e+14	8.600352e+14	3.657717e+14	1.305982e+04	6.205930e+03	2.162935e+03	0	7.262136e-04
9.800000e+08	1.100925e+13	0.000000e+00	5.477386e-01	2.777776e+14	8.546723e+14	3.641245e+14	1.305371e+04	6.201453e+03	2.161374e+03	0	7.238827e-04
9.900000e+08	1.090350e+13	0.000000e+00	5.477386e-01	2.767616e+14	8.493926e+14	3.624885e+14	1.304763e+04	6.197031e+03	2.159833e+03	0	7.215574e-04
1.000000e+09	1.079866e+13	0.000000e+00	5.477386e-01	2.757541e+14	8.441939e+14	3.608636e+14	1.304157e+04	6.192663e+03	2.158311e+03	0	7.192374e-04
1.010000e+09	1.069473e+13	0.000000e+00	5.477386e-01	2.747548e+14	8.390743e+14	3.592497e+14	1.303553e+04	6.188348e+03	2.156807e+03	0	7.169225e-04
1.020000e+09	1.059169e+13	0.000000e+00	5.477386e-01	2.737637e+14	8.340316e+14	3.576467e+14	1.302951e+04	6.184085e+03	2.155321e+03	0	7.146127e-04
1.030000e+09	1.048953e+13	0.000000e+00	5.477386e-01	2.727806e+14	8.290639e+14	3.560546e+14	1.302352e+04	6.179873e+03	2.153853e+03	0	7.123077e-04
1.040000e+09	1.038823e+13	0.000000e+00	5.477386e-01	2.718054e+14	8.241692e+14	3.544732e+14	1.301755e+04	6.175711e+03	2.152402e+03	0	7.100073e-04
1.050000e+09	1.028778e+13	0.000000e+00	5.477386e-01	2.708380e+14	8.193459e+14	3.529025e+14	1.301159e+04	6.171596e+03	2.150968e+03	0	7.077114e-04
1.060000e+09	1.018817e+13	0.000000e+00	5.477386e-01	2.698782e+14	8.145921e+14	3.513424e+14	1.300566e+04	6.167529e+03	2.149551e+03	0	7.054198e-04
1.070000e+09	1.008938e+13	0.000000e+00	5.477386e-01	2.689260e+14	8.099060e+14	3.497929e+14	1.299975e+04	6.163508e+03	2.148150e+03	0	7.031323e-04
1.080000e+09	9.991396e+12	0.000000e+00	5.477386e-01	2.679812e+14	8.052861e+14	3.482537e+14	1.299386e+04	6.159533e+03	2.146764e+03	0	7.008488e-04
1.090000e+09	9.894214e+12	0.000000e+00	5.477386e-01	2.670438e+14	8.007308e+14	3.467249e+14	1.298799e+04	6.155601e+03	2.145394e+03	0	6.985691e-04
1.100000e+09	9.797818e+12	0.000000e+00	5.477386e-01	2.661135e+14	7.962384e+14	3.452064e+14	1.298215e+04	6.151713e+03	2.144039e+03	0	6.962931e-04
1.110000e+09	9.702196e+12	0.000000e+00	5.477386e-01	2.651903e+14	7.918076e+14	3.436980e+14	1.297632e+04	6.147867e+03	2.142698e+03	0	6.940205e-04
1.120000e+09	9.607338e+12	0.000000e+00	5.477386e-01	2.642742e+14	7.874369e+14	3.421998e+14	1.297051e+04	6.144063e+03	2.141372e+03	0	6.917513e-04
1.130000e+09	9.513231e+12	0.000000e+00	5.477386e-01	2.633649e+14	7.831248e+14	3.407116e+14	1.296472e+04	6.140299e+03	2.140060e+03	0	6.894852e-04
1.140000e+09	9.419865e+12	0.000000e+00	5.477386e-01	2.624625e+14	7.788700e+14	3.392333e+14	1.295896e+04	6.136574e+03	2.138762e+03	0	6.872222e-04
1.150000e+09	9.327228e+12	0.000000e+00	5.477386e-01	2.615667e+14	7.746713e+14	3.377649e+14	1.295321e+04	6.132889e+03	2.137478e+03	0	6.849620e-04
1.160000e+09	9.235312e+12	0.000000e+00	5.477386e-01	2.606776e+14	7.705272e+14	3.363063e+14	1.294748e+04	6.129241e+03	2.136207e+03	0	6.827046e-04
1.170000e+09	9.144105e+12	0.000000e+00	5.477386e-01	2.597950e+14	7.664367e+14	3.348574e+14	1.294177e+04	6.125631e+03	2.134948e+03	0	6.804497e-04
1.180000e+09	9.053597e+12	0.000000e+00	5.477386e-01	2.589188e+14	7.623984e+14	3.334181e+14	1.293608e+04	6.122057e+03	2.133703e+03	0	6.781972e-04
1.190000e+09	8.963778e+12	0.000000e+00	5.477386e-01	2.580490e+14	7.584114e+14	3.319885e+14	1.293041e+04	6.118519e+03	2.132469e+03	0	6.759470e-04
1.200000e+09	8.874640e+12	0.000000e+00	5.477386e-01	2.571854e+14	7.544743e+14	3.305683e+14	1.292476e+04	6.115015e+03	2.131248e+03	0	6.736990e-04
1.210000e+09	8.786173e+12	0.000000e+00	5.477386e-01	2.563279e+14	7.505862e+14	3.291575e+14	1.291913e+04	6.111546e+03	2.130039e+03	0	6.714529e-04
1.220000e+09	8.698367e+12	0.000000e+00	5.477386e-01	2.554766e+14	7.467459e+14	3.277561e+14	1.291352e+04	6.108110e+03	2.128842e+03	0	6.692086e-04
1.230000e+09	8.611213e+12	0.000000e+00	5.477386e-01	2.546313e+14	7.429526e+14	3.263639e+14	1.290792e+04	6.104708e+03	2.127656e+03	0	6.669661e-04
1.240000e+09	8.524704e+12	0.000000e+00	5.477386e-01	2.537919e+14	7.392051e+14	3.249810e+14	1.290235e+04	6.101337e+03	2.126481e+03	0	6.647251e-04
1.250000e+09	8.438830e+12	0.000000e+00	5.477386e-01	2.529583e+14	7.355024e+14	3.236071e+14	1.289679e+04	6.097998e+03	2.125318e+03	0	6.624855e-04
1.260000e+09	8.353583e+12	0.000000e+00	5.477386e-01	2.521306e+14	7.318438e+14	3.222424e+14	1.289125e+04	6.094690e+03	2.124165e+03	0	6.602472e-04
1.270000e+09	8.268954e+12	0.000000e+00	5.477386e-01	2.513085e+14	7.282282e+14	3.208866e+14	1.288573e+04	6.091413e+03	2.123022e+03	0	6.580100e-04
1.280000e+09	8.184936e+12	0.000000e+00	5.477386e-01	2.504921e+14	7.246548e+14	3.195397e+14	1.288022e+04	6.088165e+03	2.121890e+03	0	6.557738e-04
1.290000e+09	8.101521e+12	0.000000e+00	5.477386e-01	2.496812e+14	7.211227e+14	3.182017e+14	1.287474e+04	6.084947e+03	2.120769e+03	0	6.535384e-04
1.300000e+09	8.018701e+12	0.000000e+00	5.477386e-01	2.488758e+14	7.176310e+14	3.168725e+14	1.286927e+04	6.081757e+03	2.119657e+03	0	6.513038e-04
1.310000e+09	7.936468e+12	0.000000e+00	5.477386e-01	2.480758e+14	7.141791e+14	3.155520e+14	1.286382e+04	6.078595e+03	2.118555e+03	0	6.490698e-04
1.320000e+09	7.854815e+12	0.000000e+00	5.477386e-01	2.472812e+14	7.107660e+14	3.142401e+14	1.285839e+04	6.075461e+03	2.117463e+03	0	6.468362e-04
1.330000e+09	7.773736e+12	0.000000e+00	5.477386e-01	2.464919e+14	7.073910e+14	3.129369e+14	1.285297e+04	6.072354e+03	2.116380e+03	0	6.446028e-04
1.340000e+09	7.693221e+12	0.000000e+00	5.477386e-01	2.457078e+14	7.040534e+14	3.116421e+14	1.284757e+04	6.069273e+03	2.115306e+03	0	6.423697e-04
1.350000e+09	7.613266e+12	0.000000e+00	5.477386e-01	2.449288e+14	7.007524e+14	3.103558e+14	1.284219e+04	6.066219e+03	2.114242e+03	0	6.401366e-04
1.360000e+09	7.533863e+12	0.000000e+00	5.477386e-01	2.441550e+14	6.974874e+14	3.090778e+14	1.283683e+04	6.063190e+03	2.113186e+03	0	6.379033e-04
