#t		Qconv[W]	Ri[Rp]		R*[Rp]		Qc[W]		Qm[W]		Qr[W]		Tcmb[K]		Tl[K]		Tup[K]		RiFlag		Bs[T]
0.000000e+00	3.648542e+13	0.000000e+00	5.477386e-01	5.614402e+14	4.017038e+15	6.558017e+14	1.470641e+04	8.185389e+03	2.737217e+03	0	1.074258e-03
1.000000e+07	3.594559e+13	0.000000e+00	5.477386e-01	5.567234e+14	3.863025e+15	6.521681e+14	1.469578e+04	8.132866e+03	2.719653e+03	0	1.068933e-03
2.000000e+07	3.541654e+13	0.000000e+00	5.477386e-01	5.520986e+14	3.720504e+15	6.485616e+14	1.468523e+04	8.083040e+03	2.702991e+03	0	1.063663e-03
3.000000e+07	3.489843e+13	0.000000e+00	5.477386e-01	5.475672e+14	3.588300e+15	6.449821e+14	1.467477e+04	8.035703e+03	2.687162e+03	0	1.058451e-03
4.000000e+07	3.439131e+13	0.000000e+00	5.477386e-01	5.431296e+14	3.465390e+15	6.414294e+14	1.466439e+04	7.990667e+03	2.672102e+03	0	1.053299e-03
5.000000e+07	3.389515e+13	0.000000e+00	5.477386e-01	5.387853e+14	3.350875e+15	6.379031e+14	1.465410e+04	7.947766e+03	2.657755e+03	0	1.048209e-03
6.000000e+07	3.340982e+13	0.000000e+00	5.477386e-01	5.345335e+14	3.243964e+15	6.344031e+14	1.464389e+04	7.906847e+03	2.644072e+03	0	1.043182e-03
7.000000e+07	3.293517e+13	0.000000e+00	5.477386e-01	5.303727e+14	3.143962e+15	6.309292e+14	1.463376e+04	7.867773e+03	2.631005e+03	0	1.038218e-03
8.000000e+07	3.247099e+13	0.000000e+00	5.477386e-01	5.263013e+14	3.050250e+15	6.274811e+14	1.462371e+04	7.830418e+03	2.618514e+03	0	1.033318e-03
9.000000e+07	3.201706e+13	0.000000e+00	5.477386e-01	5.223172e+14	2.962279e+15	6.240586e+14	1.461374e+04	7.794670e+03	2.606560e+03	0	1.028480e-03
1.000000e+08	3.157314e+13	0.000000e+00	5.477386e-01	5.184184e+14	2.879561e+15	6.206616e+14	1.460384e+04	7.760425e+03	2.595108e+03	0	1.023705e-03
1.100000e+08	3.113895e+13	0.000000e+00	5.477386e-01	5.146026e+14	2.801658e+15	6.172898e+14	1.459401e+04	7.727587e+03	2.584127e+03	0	1.018990e-03
1.200000e+08	3.071424e+13	0.000000e+00	5.477386e-01	5.108677e+14	2.728180e+15	6.139429e+14	1.458426e+04	7.696070e+03	2.573587e+03	0	1.014336e-03
1.300000e+08	3.029874e+13	0.000000e+00	5.477386e-01	5.072112e+14	2.658776e+15	6.106209e+14	1.457458e+04	7.665794e+03	2.563463e+03	0	1.009741e-03
1.400000e+08	2.989215e+13	0.000000e+00	5.477386e-01	5.036309e+14	2.593129e+15	6.073234e+14	1.456497e+04	7.636685e+03	2.553729e+03	0	1.005205e-03
1.500000e+08	2.949423e+13	0.000000e+00	5.477386e-01	5.001245e+14	2.530953e+15	6.040503e+14	1.455542e+04	7.608676e+03	2.544363e+03	0	1.000724e-03
1.600000e+08	2.910470e+13	0.000000e+00	5.477386e-01	4.966896e+14	2.471990e+15	6.008014e+14	1.454594e+04	7.581704e+03	2.535343e+03	0	9.962991e-04
1.700000e+08	2.872329e+13	0.000000e+00	5.477386e-01	4.933241e+14	2.416006e+15	5.975765e+14	1.453653e+04	7.555711e+03	2.526651e+03	0	9.919278e-04
1.800000e+08	2.834974e+13	0.000000e+00	5.477386e-01	4.900257e+14	2.362790e+15	5.943753e+14	1.452718e+04	7.530644e+03	2.518268e+03	0	9.876091e-04
1.900000e+08	2.798382e+13	0.000000e+00	5.477386e-01	4.867924e+14	2.312146e+15	5.911977e+14	1.451789e+04	7.506453e+03	2.510179e+03	0	9.833414e-04
2.000000e+08	2.762526e+13	0.000000e+00	5.477386e-01	4.836219e+14	2.263899e+15	5.880435e+14	1.450867e+04	7.483092e+03	2.502367e+03	0	9.791235e-04
2.100000e+08	2.727383e+13	0.000000e+00	5.477386e-01	4.805125e+14	2.217888e+15	5.849125e+14	1.449950e+04	7.460517e+03	2.494818e+03	0	9.749540e-04
2.200000e+08	2.692931e+13	0.000000e+00	5.477386e-01	4.774620e+14	2.173965e+15	5.818045e+14	1.449039e+04	7.438690e+03	2.487519e+03	0	9.708314e-04
2.300000e+08	2.659148e+13	0.000000e+00	5.477386e-01	4.744686e+14	2.131995e+15	5.787192e+14	1.448134e+04	7.417572e+03	2.480457e+03	0	9.667545e-04
2.400000e+08	2.626010e+13	0.000000e+00	5.477386e-01	4.715305e+14	2.091855e+15	5.756567e+14	1.447235e+04	7.397128e+03	2.473621e+03	0	9.627219e-04
2.500000e+08	2.593499e+13	0.000000e+00	5.477386e-01	4.686459e+14	2.053428e+15	5.726165e+14	1.446341e+04	7.377327e+03	2.466999e+03	0	9.587324e-04
2.600000e+08	2.561594e+13	0.000000e+00	5.477386e-01	4.658131e+14	2.016612e+15	5.695986e+14	1.445453e+04	7.358136e+03	2.460582e+03	0	9.547848e-04
2.700000e+08	2.530276e+13	0.000000e+00	5.477386e-01	4.630305e+14	1.981308e+15	5.666027e+14	1.444570e+04	7.339529e+03	2.454359e+03	0	9.508777e-04
2.800000e+08	2.499526e+13	0.000000e+00	5.477386e-01	4.602966e+14	1.947428e+15	5.636288e+14	1.443693e+04	7.321477e+03	2.448322e+03	0	9.470100e-04
2.900000e+08	2.469326e+13	0.000000e+00	5.477386e-01	4.576097e+14	1.914887e+15	5.606765e+14	1.442820e+04	7.303955e+03	2.442463e+03	0	9.431806e-04
3.000000e+08	2.439660e+13	0.000000e+00	5.477386e-01	4.549686e+14	1.883611e+15	5.577458e+14	1.441953e+04	7.286940e+03	2.436773e+03	0	9.393883e-04
3.100000e+08	2.410511e+13	0.000000e+00	5.477386e-01	4.523717e+14	1.853526e+15	5.548364e+14	1.441090e+04	7.270409e+03	2.431245e+03	0	9.356320e-04
3.200000e+08	2.381863e+13	0.000000e+00	5.477386e-01	4.498177e+14	1.824569e+15	5.519482e+14	1.440233e+04	7.254342e+03	2.425872e+03	0	9.319107e-04
3.300000e+08	2.353701e+13	0.000000e+00	5.477386e-01	4.473054e+14	1.796676e+15	5.490810e+14	1.439380e+04	7.238718e+03	2.420648e+03	0	9.282233e-04
3.400000e+08	2.326010e+13	0.000000e+00	5.477386e-01	4.448334e+14	1.769791e+15	5.462346e+14	1.438532e+04	7.223518e+03	2.415565e+03	0	9.245688e-04
3.500000e+08	2.298776e+13	0.000000e+00	5.477386e-01	4.424007e+14	1.743860e+15	5.434088e+14	1.437689e+04	7.208725e+03	2.410618e+03	0	9.209462e-04
3.600000e+08	2.271986e+13	0.000000e+00	5.477386e-01	4.400059e+14	1.718835e+15	5.406036e+14	1.436851e+04	7.194322e+03	2.405802e+03	0	9.173546e-04
3.700000e+08	2.245627e+13	0.000000e+00	5.477386e-01	4.376482e+14	1.694668e+15	5.378186e+14	1.436017e+04	7.180293e+03	2.401110e+03	0	9.137931e-04
3.800000e+08	2.219685e+13	0.000000e+00	5.477386e-01	4.353263e+14	1.671316e+15	5.350538e+14	1.435187e+04	7.166624e+03	2.396539e+03	0	9.102608e-04
3.900000e+08	2.194150e+13	0.000000e+00	5.477386e-01	4.330392e+14	1.648739e+15	5.323090e+14	1.434362e+04	7.153299e+03	2.392083e+03	0	9.067567e-04
4.000000e+08	2.169009e+13	0.000000e+00	5.477386e-01	4.307861e+14	1.626898e+15	5.295840e+14	1.433541e+04	7.140306e+03	2.387738e+03	0	9.032802e-04
4.100000e+08	2.144251e+13	0.000000e+00	5.477386e-01	4.285658e+14	1.605759e+15	5.268787e+14	1.432724e+04	7.127631e+03	2.383500e+03	0	8.998303e-04
4.200000e+08	2.119866e+13	0.000000e+00	5.477386e-01	4.263776e+14	1.585287e+15	5.241929e+14	1.431912e+04	7.115262e+03	2.379364e+03	0	8.964062e-04
4.300000e+08	2.095844e+13	0.000000e+00	5.477386e-01	4.242205e+14	1.565451e+15	5.215264e+14	1.431104e+04	7.103189e+03	2.375326e+03	0	8.930073e-04
4.400000e+08	2.072174e+13	0.000000e+00	5.477386e-01	4.220937e+14	1.546221e+15	5.188791e+14	1.430299e+04	7.091399e+03	2.371384e+03	0	8.896327e-04
4.500000e+08	2.048846e+13	0.000000e+00	5.477386e-01	4.199964e+14	1.527571e+15	5.162508e+14	1.429499e+04	7.079882e+03	2.367532e+03	0	8.862818e-04
4.600000e+08	2.025853e+13	0.000000e+00	5.477386e-01	4.179278e+14	1.509474e+15	5.136414e+14	1.428703e+04	7.068629e+03	2.363769e+03	0	8.829538e-04
4.700000e+08	2.003184e+13	0.000000e+00	5.477386e-01	4.158871e+14	1.491904e+15	5.110507e+14	1.427911e+04	7.057629e+03	2.360091e+03	0	8.796481e-04
4.800000e+08	1.980831e+13	0.000000e+00	5.477386e-01	4.138737e+14	1.474840e+15	5.084786e+14	1.427122e+04	7.046874e+03	2.356495e+03	0	8.763640e-04
4.900000e+08	1.958786e+13	0.000000e+00	5.477386e-01	4.118868e+14	1.458259e+15	5.059248e+14	1.426338e+04	7.036356e+03	2.352977e+03	0	8.731008e-04
5.000000e+08	1.937042e+13	0.000000e+00	5.477386e-01	4.099257e+14	1.442140e+15	5.033894e+14	1.425557e+04	7.026065e+03	2.349536e+03	0	8.698580e-04
5.100000e+08	1.915590e+13	0.000000e+00	5.477386e-01	4.079898e+14	1.426464e+15	5.008720e+14	1.424780e+04	7.015994e+03	2.346168e+03	0	8.666349e-04
5.200000e+08	1.894422e+13	0.000000e+00	5.477386e-01	4.060785e+14	1.411212e+15	4.983726e+14	1.424006e+04	7.006136e+03	2.342871e+03	0	8.634310e-04
5.300000e+08	1.873533e+13	0.000000e+00	5.477386e-01	4.041911e+14	1.396367e+15	4.958911e+14	1.423237e+04	6.996483e+03	2.339643e+03	0	8.602457e-04
5.400000e+08	1.852915e+13	0.000000e+00	5.477386e-01	4.023271e+14	1.381912e+15	4.934272e+14	1.422470e+04	6.987028e+03	2.336482e+03	0	8.570784e-04
5.500000e+08	1.832561e+13	0.000000e+00	5.477386e-01	4.004859e+14	1.367832e+15	4.909809e+14	1.421708e+04	6.977765e+03	2.333384e+03	0	8.539285e-04
5.600000e+08	1.812465e+13	0.000000e+00	5.477386e-01	3.986670e+14	1.354111e+15	4.885519e+14	1.420948e+04	6.968688e+03	2.330349e+03	0	8.507956e-04
5.700000e+08	1.792621e+13	0.000000e+00	5.477386e-01	3.968699e+14	1.340736e+15	4.861402e+14	1.420193e+04	6.959790e+03	2.327373e+03	0	8.476792e-04
5.800000e+08	1.773023e+13	0.000000e+00	5.477386e-01	3.950939e+14	1.327693e+15	4.837456e+14	1.419440e+04	6.951066e+03	2.324456e+03	0	8.445788e-04
5.900000e+08	1.753665e+13	0.000000e+00	5.477386e-01	3.933387e+14	1.314970e+15	4.813680e+14	1.418691e+04	6.942510e+03	2.321595e+03	0	8.414938e-04
6.000000e+08	1.734541e+13	0.000000e+00	5.477386e-01	3.916038e+14	1.302553e+15	4.790072e+14	1.417945e+04	6.934116e+03	2.318788e+03	0	8.384237e-04
6.100000e+08	1.715647e+13	0.000000e+00	5.477386e-01	3.898886e+14	1.290432e+15	4.766631e+14	1.417203e+04	6.925881e+03	2.316034e+03	0	8.353683e-04
6.200000e+08	1.696976e+13	0.000000e+00	5.477386e-01	3.881929e+14	1.278596e+15	4.743356e+14	1.416464e+04	6.917798e+03	2.313331e+03	0	8.323269e-04
6.300000e+08	1.678524e+13	0.000000e+00	5.477386e-01	3.865160e+14	1.267034e+15	4.720245e+14	1.415728e+04	6.909864e+03	2.310678e+03	0	8.292992e-04
6.400000e+08	1.660286e+13	0.000000e+00	5.477386e-01	3.848577e+14	1.255737e+15	4.697297e+14	1.414995e+04	6.902073e+03	2.308073e+03	0	8.262847e-04
6.500000e+08	1.642258e+13	0.000000e+00	5.477386e-01	3.832175e+14	1.244694e+15	4.674510e+14	1.414265e+04	6.894421e+03	2.305514e+03	0	8.232830e-04
6.600000e+08	1.624434e+13	0.000000e+00	5.477386e-01	3.815950e+14	1.233897e+15	4.651884e+14	1.413539e+04	6.886905e+03	2.303000e+03	0	8.202937e-04
6.700000e+08	1.606810e+13	0.000000e+00	5.477386e-01	3.799898e+14	1.223338e+15	4.629417e+14	1.412815e+04	6.879520e+03	2.300531e+03	0	8.173164e-04
6.800000e+08	1.589382e+13	0.000000e+00	5.477386e-01	3.784017e+14	1.213007e+15	4.607108e+14	1.412095e+04	6.872262e+03	2.298104e+03	0	8.143507e-04
6.900000e+08	1.572146e+13	0.000000e+00	5.477386e-01	3.768301e+14	1.202898e+15	4.584956e+14	1.411378e+04	6.865127e+03	2.295718e+03	0	8.113962e-04
7.000000e+08	1.555098e+13	0.000000e+00	5.477386e-01	3.752748e+14	1.193002e+15	4.562958e+14	1.410663e+04	6.858113e+03	2.293372e+03	0	8.084527e-04
7.100000e+08	1.538233e+13	0.000000e+00	5.477386e-01	3.737355e+14	1.183312e+15	4.541115e+14	1.409952e+04	6.851215e+03	2.291066e+03	0	8.055196e-04
7.200000e+08	1.521549e+13	0.000000e+00	5.477386e-01	3.722118e+14	1.173822e+15	4.519424e+14	1.409243e+04	6.844430e+03	2.288797e+03	0	8.025967e-04
7.300000e+08	1.505041e+13	0.000000e+00	5.477386e-01	3.707034e+14	1.164525e+15	4.497885e+14	1.408537e+04	6.837756e+03	2.286565e+03	0	7.996836e-04
7.400000e+08	1.488706e+13	0.000000e+00	5.477386e-01	3.692101e+14	1.155415e+15	4.476497e+14	1.407835e+04	6.831188e+03	2.284369e+03	0	7.967799e-04
7.500000e+08	1.472541e+13	0.000000e+00	5.477386e-01	3.677314e+14	1.146485e+15	4.455257e+14	1.407134e+04	6.824725e+03	2.282207e+03	0	7.938854e-04
7.600000e+08	1.456541e+13	0.000000e+00	5.477386e-01	3.662672e+14	1.137731e+15	4.434166e+14	1.406437e+04	6.818362e+03	2.280079e+03	0	7.909996e-04
7.700000e+08	1.440704e+13	0.000000e+00	5.477386e-01	3.648171e+14	1.129145e+15	4.413221e+14	1.405743e+04	6.812098e+03	2.277985e+03	0	7.881224e-04
7.800000e+08	1.425027e+13	0.000000e+00	5.477386e-01	3.633809e+14	1.120724e+15	4.392421e+14	1.405051e+04	6.805930e+03	2.275922e+03	0	7.852533e-04
7.900000e+08	1.409507e+13	0.000000e+00	5.477386e-01	3.619583e+14	1.112462e+15	4.371767e+14	1.404362e+04	6.799855e+03	2.273891e+03	0	7.823921e-04
8.000000e+08	1.394140e+13	0.000000e+00	5.477386e-01	3.605491e+14	1.104354e+15	4.351255e+14	1.403676e+04	6.793871e+03	2.271889e+03	0	7.795384e-04
8.100000e+08	1.378924e+13	0.000000e+00	5.477386e-01	3.591530e+14	1.096395e+15	4.330886e+14	1.402992e+04	6.787975e+03	2.269918e+03	0	7.766919e-04
8.200000e+08	1.363856e+13	0.000000e+00	5.477386e-01	3.577698e+14	1.088582e+15	4.310657e+14	1.402311e+04	6.782164e+03	2.267975e+03	0	7.738525e-04
8.300000e+08	1.348933e+13	0.000000e+00	5.477386e-01	3.563992e+14	1.080909e+15	4.290569e+14	1.401633e+04	6.776438e+03	2.266060e+03	0	7.710197e-04
8.400000e+08	1.334152e+13	0.000000e+00	5.477386e-01	3.550410e+14	1.073372e+15	4.270619e+14	1.400957e+04	6.770794e+03	2.264172e+03	0	7.681933e-04
8.500000e+08	1.319512e+13	0.000000e+00	5.477386e-01	3.536951e+14	1.065968e+15	4.250806e+14	1.400284e+04	6.765228e+03	2.262311e+03	0	7.653729e-04
8.600000e+08	1.305008e+13	0.000000e+00	5.477386e-01	3.523611e+14	1.058693e+15	4.231131e+14	1.399613e+04	6.759741e+03	2.260476e+03	0	7.625585e-04
8.700000e+08	1.290640e+13	0.000000e+00	5.477386e-01	3.510389e+14	1.051543e+15	4.211591e+14	1.398945e+04	6.754329e+03	2.258666e+03	0	7.597495e-04
8.800000e+08	1.276405e+13	0.000000e+00	5.477386e-01	3.497282e+14	1.044514e+15	4.192185e+14	1.398280e+04	6.748990e+03	2.256881e+03	0	7.569459e-04
8.900000e+08	1.262300e+13	0.000000e+00	5.477386e-01	3.484290e+14	1.037603e+15	4.172912e+14	1.397617e+04	6.743724e+03	2.255120e+03	0	7.541473e-04
9.000000e+08	1.248323e+13	0.000000e+00	5.477386e-01	3.471409e+14	1.030807e+15	4.153772e+14	1.396956e+04	6.738527e+03	2.253382e+03	0	7.513535e-04
9.100000e+08	1.234471e+13	0.000000e+00	5.477386e-01	3.458638e+14	1.024123e+15	4.134763e+14	1.396298e+04	6.733399e+03	2.251667e+03	0	7.485642e-04
9.200000e+08	1.220744e+13	0.000000e+00	5.477386e-01	3.445975e+14	1.017547e+15	4.115884e+14	1.395642e+04	6.728337e+03	2.249975e+03	0	7.457791e-04
9.300000e+08	1.207138e+13	0.000000e+00	5.477386e-01	3.433418e+14	1.011076e+15	4.097135e+14	1.394988e+04	6.723341e+03	2.248304e+03	0	7.429980e-04
9.400000e+08	1.193651e+13	0.000000e+00	5.477386e-01	3.420966e+14	1.004709e+15	4.078513e+14	1.394337e+04	6.718408e+03	2.246655e+03	0	7.402207e-04
9.500000e+08	1.180283e+13	0.000000e+00	5.477386e-01	3.408616e+14	9.984415e+14	4.060019e+14	1.393689e+04	6.713537e+03	2.245026e+03	0	7.374469e-04
9.600000e+08	1.167030e+13	0.000000e+00	5.477386e-01	3.396368e+14	9.922715e+14	4.041651e+14	1.393042e+04	6.708727e+03	2.243417e+03	0	7.346763e-04
9.700000e+08	1.153891e+13	0.000000e+00	5.477386e-01	3.384220e+14	9.861963e+14	4.023407e+14	1.392398e+04	6.703976e+03	2.241828e+03	0	7.319087e-04
9.800000e+08	1.140864e+13	0.000000e+00	5.477386e-01	3.372169e+14	9.802135e+14	4.005288e+14	1.391757e+04	6.699282e+03	2.240259e+03	0	7.291440e-04
9.900000e+08	1.127947e+13	0.000000e+00	5.477386e-01	3.360216e+14	9.743208e+14	3.987292e+14	1.391117e+04	6.694645e+03	2.238708e+03	0	7.263817e-04
1.000000e+09	1.115138e+13	0.000000e+00	5.477386e-01	3.348357e+14	9.685158e+14	3.969419e+14	1.390480e+04	6.690063e+03	2.237176e+03	0	7.236218e-04
1.010000e+09	1.102437e+13	0.000000e+00	5.477386e-01	3.336591e+14	9.627964e+14	3.951666e+14	1.389845e+04	6.685535e+03	2.235662e+03	0	7.208639e-04
1.020000e+09	1.089840e+13	0.000000e+00	5.477386e-01	3.324918e+14	9.571604e+14	3.934034e+14	1.389213e+04	6.681060e+03	2.234165e+03	0	7.181079e-04
1.030000e+09	1.077348e+13	0.000000e+00	5.477386e-01	3.313336e+14	9.516058e+14	3.916521e+14	1.388582e+04	6.676636e+03	2.232686e+03	0	7.153534e-04
1.040000e+09	1.064957e+13	0.000000e+00	5.477386e-01	3.301843e+14	9.461305e+14	3.899126e+14	1.387954e+04	6.672263e+03	2.231224e+03	0	7.126003e-04
1.050000e+09	1.052666e+13	0.000000e+00	5.477386e-01	3.290438e+14	9.407327e+14	3.881849e+14	1.387328e+04	6.667939e+03	2.229778e+03	0	7.098483e-04
1.060000e+09	1.040474e+13	0.000000e+00	5.477386e-01	3.279119e+14	9.354104e+14	3.864689e+14	1.386704e+04	6.663663e+03	2.228348e+03	0	7.070973e-04
1.070000e+09	1.028380e+13	0.000000e+00	5.477386e-01	3.267887e+14	9.301619e+14	3.847644e+14	1.386082e+04	6.659434e+03	2.226933e+03	0	7.043469e-04
1.080000e+09	1.016382e+13	0.000000e+00	5.477386e-01	3.256738e+14	9.249854e+14	3.830713e+14	1.385462e+04	6.655251e+03	2.225535e+03	0	7.015969e-04
1.090000e+09	1.004478e+13	0.000000e+00	5.477386e-01	3.245673e+14	9.198793e+14	3.813897e+14	1.384845e+04	6.651114e+03	2.224151e+03	0	6.988472e-04
1.100000e+09	9.926679e+12	0.000000e+00	5.477386e-01	3.234690e+14	9.148418e+14	3.797193e+14	1.384229e+04	6.647020e+03	2.222782e+03	0	6.960974e-04
1.110000e+09	9.809494e+12	0.000000e+00	5.477386e-01	3.223787e+14	9.098715e+14	3.780602e+14	1.383616e+04	6.642970e+03	2.221428e+03	0	6.933474e-04
1.120000e+09	9.693215e+12	0.000000e+00	5.477386e-01	3.212964e+14	9.049667e+14	3.764121e+14	1.383005e+04	6.638962e+03	2.220087e+03	0	6.905969e-04
1.130000e+09	9.577829e+12	0.000000e+00	5.477386e-01	3.202220e+14	9.001260e+14	3.747751e+14	1.382395e+04	6.634995e+03	2.218761e+03	0	6.878458e-04
1.140000e+09	9.463323e+12	0.000000e+00	5.477386e-01	3.191552e+14	8.953479e+14	3.731491e+14	1.381788e+04	6.631069e+03	2.217448e+03	0	6.850936e-04
1.150000e+09	9.349686e+12	0.000000e+00	5.477386e-01	3.180962e+14	8.906311e+14	3.715338e+14	1.381183e+04	6.627183e+03	2.216149e+03	0	6.823403e-04
1.160000e+09	9.236904e+12	0.000000e+00	5.477386e-01	3.170447e+14	8.859742e+14	3.699294e+14	1.380580e+04	6.623335e+03	2.214862e+03	0	6.795856e-04
1.170000e+09	9.124968e+12	0.000000e+00	5.477386e-01	3.160006e+14	8.813759e+14	3.683357e+14	1.379978e+04	6.619526e+03	2.213588e+03	0	6.768293e-04
1.180000e+09	9.013865e+12	0.000000e+00	5.477386e-01	3.149638e+14	8.768349e+14	3.667525e+14	1.379379e+04	6.615754e+03	2.212327e+03	0	6.740711e-04
1.190000e+09	8.903583e+12	0.000000e+00	5.477386e-01	3.139343e+14	8.723500e+14	3.651799e+14	1.378782e+04	6.612019e+03	2.211078e+03	0	6.713108e-04
1.200000e+09	8.794113e+12	0.000000e+00	5.477386e-01	3.129120e+14	8.679199e+14	3.636177e+14	1.378187e+04	6.608319e+03	2.209841e+03	0	6.685482e-04
1.210000e+09	8.685442e+12	0.000000e+00	5.477386e-01	3.118967e+14	8.635436e+14	3.620659e+14	1.377593e+04	6.604655e+03	2.208615e+03	0	6.657830e-04
1.220000e+09	8.577562e+12	0.000000e+00	5.477386e-01	3.108883e+14	8.592198e+14	3.605244e+14	1.377002e+04	6.601025e+03	2.207401e+03	0	6.630150e-04
1.230000e+09	8.470461e+12	0.000000e+00	5.477386e-01	3.098868e+14	8.549476e+14	3.589930e+14	1.376412e+04	6.597429e+03	2.206199e+03	0	6.602439e-04
1.240000e+09	8.364129e+12	0.000000e+00	5.477386e-01	3.088922e+14	8.507257e+14	3.574718e+14	1.375825e+04	6.593867e+03	2.205008e+03	0	6.574695e-04
1.250000e+09	8.258557e+12	0.000000e+00	5.477386e-01	3.079042e+14	8.465533e+14	3.559606e+14	1.375239e+04	6.590336e+03	2.203827e+03	0	6.546916e-04
1.260000e+09	8.153735e+12	0.000000e+00	5.477386e-01	3.069228e+14	8.424292e+14	3.544594e+14	1.374655e+04	6.586838e+03	2.202657e+03	0	6.519099e-04
1.270000e+09	8.049652e+12	0.000000e+00	5.477386e-01	3.059480e+14	8.383526e+14	3.529681e+14	1.374073e+04	6.583371e+03	2.201498e+03	0	6.491241e-04
1.280000e+09	7.946301e+12	0.000000e+00	5.477386e-01	3.049797e+14	8.343224e+14	3.514866e+14	1.373493e+04	6.579934e+03	2.200349e+03	0	6.463341e-04
1.290000e+09	7.843672e+12	0.000000e+00	5.477386e-01	3.040177e+14	8.303377e+14	3.500148e+14	1.372914e+04	6.576528e+03	2.199209e+03	0	6.435395e-04
1.300000e+09	7.741756e+12	0.000000e+00	5.477386e-01	3.030620e+14	8.263977e+14	3.485527e+14	1.372338e+04	6.573151e+03	2.198080e+03	0	6.407400e-04
1.310000e+09	7.640544e+12	0.000000e+00	5.477386e-01	3.021126e+14	8.225015e+14	3.471002e+14	1.371763e+04	6.569804e+03	2.196961e+03	0	6.379355e-04
1.320000e+09	7.540028e+12	0.000000e+00	5.477386e-01	3.011693e+14	8.186481e+14	3.456571e+14	1.371190e+04	6.566484e+03	2.195851e+03	0	6.351257e-04
1.330000e+09	7.440199e+12	0.000000e+00	5.477386e-01	3.002320e+14	8.148369e+14	3.442236e+14	1.370619e+04	6.563193e+03	2.194750e+03	0	6.323103e-04
1.340000e+09	7.341049e+12	0.000000e+00	5.477386e-01	2.993008e+14	8.110670e+14	3.427994e+14	1.370050e+04	6.559930e+03	2.193659e+03	0	6.294889e-04
1.350000e+09	7.242570e+12	0.000000e+00	5.477386e-01	2.983756e+14	8.073375e+14	3.413844e+14	1.369482e+04	6.556693e+03	2.192577e+03	0	6.266614e-04
1.360000e+09	7.144754e+12	0.000000e+00	5.477386e-01	2.974562e+14	8.036479e+14	3.399787e+14	1.368916e+04	6.553483e+03	2.191503e+03	0	6.238274e-04
