#t		Qconv[W]	Ri[Rp]		R*[Rp]		Qc[W]		Qm[W]		Qr[W]		Tcmb[K]		Tl[K]		Tup[K]		RiFlag		Bs[T]
0.000000e+00	4.275163e+13	0.000000e+00	5.427136e-01	7.363942e+14	3.926273e+15	7.529107e+14	1.663148e+04	9.153201e+03	2.817008e+03	0	1.138342e-03
1.000000e+07	4.214195e+13	0.000000e+00	5.427136e-01	7.312286e+14	3.814759e+15	7.487390e+14	1.661987e+04	9.111859e+03	2.804284e+03	0	1.132905e-03
2.000000e+07	4.154341e+13	0.000000e+00	5.427136e-01	7.261543e+14	3.709800e+15	7.445985e+14	1.660834e+04	9.072233e+03	2.792089e+03	0	1.127516e-03
3.000000e+07	4.095589e+13	0.000000e+00	5.427136e-01	7.211703e+14	3.610860e+15	7.404890e+14	1.659689e+04	9.034215e+03	2.780388e+03	0	1.122175e-03
4.000000e+07	4.037925e+13	0.000000e+00	5.427136e-01	7.162754e+14	3.517457e+15	7.364101e+14	1.658552e+04	8.997708e+03	2.769153e+03	0	1.116884e-03
5.000000e+07	3.981331e+13	0.000000e+00	5.427136e-01	7.114682e+14	3.429158e+15	7.323617e+14	1.657422e+04	8.962621e+03	2.758354e+03	0	1.111641e-03
6.000000e+07	3.925788e+13	0.000000e+00	5.427136e-01	7.067470e+14	3.345572e+15	7.283435e+14	1.656301e+04	8.928871e+03	2.747967e+03	0	1.106447e-03
7.000000e+07	3.871273e+13	0.000000e+00	5.427136e-01	7.021102e+14	3.266346e+15	7.243551e+14	1.655186e+04	8.896382e+03	2.737968e+03	0	1.101302e-03
8.000000e+07	3.817766e+13	0.000000e+00	5.427136e-01	6.975558e+14	3.191161e+15	7.203965e+14	1.654079e+04	8.865082e+03	2.728336e+03	0	1.096204e-03
9.000000e+07	3.765241e+13	0.000000e+00	5.427136e-01	6.930820e+14	3.119726e+15	7.164672e+14	1.652979e+04	8.834906e+03	2.719049e+03	0	1.091154e-03
1.000000e+08	3.713676e+13	0.000000e+00	5.427136e-01	6.886868e+14	3.051777e+15	7.125672e+14	1.651886e+04	8.805794e+03	2.710089e+03	0	1.086150e-03
1.100000e+08	3.663048e+13	0.000000e+00	5.427136e-01	6.843684e+14	2.987073e+15	7.086960e+14	1.650801e+04	8.777689e+03	2.701439e+03	0	1.081192e-03
1.200000e+08	3.613331e+13	0.000000e+00	5.427136e-01	6.801248e+14	2.925394e+15	7.048536e+14	1.649721e+04	8.750537e+03	2.693083e+03	0	1.076278e-03
1.300000e+08	3.564502e+13	0.000000e+00	5.427136e-01	6.759540e+14	2.866540e+15	7.010396e+14	1.648649e+04	8.724291e+03	2.685005e+03	0	1.071408e-03
1.400000e+08	3.516539e+13	0.000000e+00	5.427136e-01	6.718541e+14	2.810327e+15	6.972539e+14	1.647583e+04	8.698905e+03	2.677192e+03	0	1.066580e-03
1.500000e+08	3.469417e+13	0.000000e+00	5.427136e-01	6.678233e+14	2.756585e+15	6.934961e+14	1.646524e+04	8.674335e+03	2.669631e+03	0	1.061795e-03
1.600000e+08	3.423114e+13	0.000000e+00	5.427136e-01	6.638596e+14	2.705159e+15	6.897661e+14	1.645471e+04	8.650543e+03	2.662309e+03	0	1.057050e-03
1.700000e+08	3.377607e+13	0.000000e+00	5.427136e-01	6.599614e+14	2.655907e+15	6.860636e+14	1.644424e+04	8.627491e+03	2.655214e+03	0	1.052345e-03
1.800000e+08	3.332876e+13	0.000000e+00	5.427136e-01	6.561267e+14	2.608696e+15	6.823884e+14	1.643383e+04	8.605144e+03	2.648336e+03	0	1.047679e-03
1.900000e+08	3.288897e+13	0.000000e+00	5.427136e-01	6.523539e+14	2.563404e+15	6.787403e+14	1.642348e+04	8.583469e+03	2.641666e+03	0	1.043050e-03
2.000000e+08	3.245651e+13	0.000000e+00	5.427136e-01	6.486413e+14	2.519920e+15	6.751191e+14	1.641320e+04	8.562435e+03	2.635192e+03	0	1.038458e-03
2.100000e+08	3.203118e+13	0.000000e+00	5.427136e-01	6.449872e+14	2.478139e+15	6.715244e+14	1.640297e+04	8.542014e+03	2.628908e+03	0	1.033902e-03
2.200000e+08	3.161278e+13	0.000000e+00	5.427136e-01	6.413901e+14	2.437965e+15	6.679562e+14	1.639280e+04	8.522178e+03	2.622803e+03	0	1.029381e-03
2.300000e+08	3.120112e+13	0.000000e+00	5.427136e-01	6.378484e+14	2.399308e+15	6.644141e+14	1.638268e+04	8.502902e+03	2.616870e+03	0	1.024893e-03
2.400000e+08	3.079601e+13	0.000000e+00	5.427136e-01	6.343606e+14	2.362085e+15	6.608980e+14	1.637262e+04	8.484162e+03	2.611103e+03	0	1.020438e-03
2.500000e+08	3.039728e+13	0.000000e+00	5.427136e-01	6.309253e+14	2.326218e+15	6.574077e+14	1.636262e+04	8.465934e+03	2.605493e+03	0	1.016015e-03
2.600000e+08	3.000476e+13	0.000000e+00	5.427136e-01	6.275410e+14	2.291635e+15	6.539429e+14	1.635267e+04	8.448197e+03	2.600034e+03	0	1.011623e-03
2.700000e+08	2.961827e+13	0.000000e+00	5.427136e-01	6.242064e+14	2.258269e+15	6.505034e+14	1.634277e+04	8.430930e+03	2.594720e+03	0	1.007260e-03
2.800000e+08	2.923765e+13	0.000000e+00	5.427136e-01	6.209202e+14	2.226057e+15	6.470891e+14	1.633293e+04	8.414116e+03	2.589545e+03	0	1.002927e-03
2.900000e+08	2.886276e+13	0.000000e+00	5.427136e-01	6.176811e+14	2.194941e+15	6.436997e+14	1.632314e+04	8.397734e+03	2.584504e+03	0	9.986219e-04
3.000000e+08	2.849343e+13	0.000000e+00	5.427136e-01	6.144878e+14	2.164866e+15	6.403350e+14	1.631340e+04	8.381769e+03	2.579590e+03	0	9.943442e-04
3.100000e+08	2.812952e+13	0.000000e+00	5.427136e-01	6.113392e+14	2.135780e+15	6.369948e+14	1.630370e+04	8.366203e+03	2.574800e+03	0	9.900929e-04
3.200000e+08	2.777089e+13	0.000000e+00	5.427136e-01	6.082341e+14	2.107635e+15	6.336789e+14	1.629406e+04	8.351021e+03	2.570127e+03	0	9.858672e-04
3.300000e+08	2.741740e+13	0.000000e+00	5.427136e-01	6.051715e+14	2.080386e+15	6.303871e+14	1.628447e+04	8.336208e+03	2.565568e+03	0	9.816664e-04
3.400000e+08	2.706892e+13	0.000000e+00	5.427136e-01	6.021501e+14	2.053991e+15	6.271192e+14	1.627493e+04	8.321751e+03	2.561119e+03	0	9.774896e-04
3.500000e+08	2.672533e+13	0.000000e+00	5.427136e-01	5.991691e+14	2.028410e+15	6.238750e+14	1.626543e+04	8.307636e+03	2.556775e+03	0	9.733361e-04
3.600000e+08	2.638649e+13	0.000000e+00	5.427136e-01	5.962273e+14	2.003606e+15	6.206544e+14	1.625598e+04	8.293849e+03	2.552532e+03	0	9.692051e-04
3.700000e+08	2.605229e+13	0.000000e+00	5.427136e-01	5.933239e+14	1.979542e+15	6.174570e+14	1.624658e+04	8.280380e+03	2.548387e+03	0	9.650959e-04
3.800000e+08	2.572261e+13	0.000000e+00	5.427136e-01	5.904578e+14	1.956187e+15	6.142829e+14	1.623722e+04	8.267217e+03	2.544335e+03	0	9.610077e-04
3.900000e+08	2.539735e+13	0.000000e+00	5.427136e-01	5.876281e+14	1.933508e+15	6.111316e+14	1.622791e+04	8.254348e+03	2.540375e+03	0	9.569398e-04
4.000000e+08	2.507639e+13	0.000000e+00	5.427136e-01	5.848341e+14	1.911476e+15	6.080031e+14	1.621864e+04	8.241764e+03	2.536502e+03	0	9.528915e-04
4.100000e+08	2.475962e+13	0.000000e+00	5.427136e-01	5.820748e+14	1.890064e+15	6.048972e+14	1.620941e+04	8.229454e+03	2.532713e+03	0	9.488622e-04
4.200000e+08	2.444696e+13	0.000000e+00	5.427136e-01	5.793493e+14	1.869245e+15	6.018137e+14	1.620023e+04	8.217408e+03	2.529006e+03	0	9.448512e-04
4.300000e+08	2.413830e+13	0.000000e+00	5.427136e-01	5.766570e+14	1.848993e+15	5.987523e+14	1.619110e+04	8.205618e+03	2.525378e+03	0	9.408579e-04
4.400000e+08	2.383354e+13	0.000000e+00	5.427136e-01	5.739971e+14	1.829286e+15	5.957130e+14	1.618200e+04	8.194075e+03	2.521825e+03	0	9.368815e-04
4.500000e+08	2.353260e+13	0.000000e+00	5.427136e-01	5.713687e+14	1.810102e+15	5.926955e+14	1.617295e+04	8.182771e+03	2.518346e+03	0	9.329215e-04
4.600000e+08	2.323538e+13	0.000000e+00	5.427136e-01	5.687712e+14	1.791418e+15	5.896997e+14	1.616394e+04	8.171698e+03	2.514938e+03	0	9.289773e-04
4.700000e+08	2.294181e+13	0.000000e+00	5.427136e-01	5.662038e+14	1.773215e+15	5.867254e+14	1.615497e+04	8.160847e+03	2.511599e+03	0	9.250482e-04
4.800000e+08	2.265179e+13	0.000000e+00	5.427136e-01	5.636660e+14	1.755475e+15	5.837724e+14	1.614604e+04	8.150213e+03	2.508326e+03	0	9.211337e-04
4.900000e+08	2.236525e+13	0.000000e+00	5.427136e-01	5.611570e+14	1.738178e+15	5.808405e+14	1.613714e+04	8.139787e+03	2.505117e+03	0	9.172331e-04
5.000000e+08	2.208211e+13	0.000000e+00	5.427136e-01	5.586763e+14	1.721308e+15	5.779296e+14	1.612829e+04	8.129564e+03	2.501971e+03	0	9.133461e-04
5.100000e+08	2.180230e+13	0.000000e+00	5.427136e-01	5.562231e+14	1.704849e+15	5.750395e+14	1.611948e+04	8.119536e+03	2.498885e+03	0	9.094718e-04
5.200000e+08	2.152574e+13	0.000000e+00	5.427136e-01	5.537969e+14	1.688785e+15	5.721701e+14	1.611071e+04	8.109697e+03	2.495857e+03	0	9.056099e-04
5.300000e+08	2.125236e+13	0.000000e+00	5.427136e-01	5.513972e+14	1.673101e+15	5.693210e+14	1.610197e+04	8.100043e+03	2.492886e+03	0	9.017598e-04
5.400000e+08	2.098209e+13	0.000000e+00	5.427136e-01	5.490233e+14	1.657784e+15	5.664923e+14	1.609328e+04	8.090566e+03	2.489969e+03	0	8.979209e-04
5.500000e+08	2.071487e+13	0.000000e+00	5.427136e-01	5.466748e+14	1.642819e+15	5.636837e+14	1.608462e+04	8.081262e+03	2.487106e+03	0	8.940928e-04
5.600000e+08	2.045064e+13	0.000000e+00	5.427136e-01	5.443511e+14	1.628195e+15	5.608951e+14	1.607599e+04	8.072126e+03	2.484294e+03	0	8.902748e-04
5.700000e+08	2.018932e+13	0.000000e+00	5.427136e-01	5.420516e+14	1.613899e+15	5.581263e+14	1.606741e+04	8.063151e+03	2.481532e+03	0	8.864666e-04
5.800000e+08	1.993086e+13	0.000000e+00	5.427136e-01	5.397760e+14	1.599920e+15	5.553771e+14	1.605886e+04	8.054335e+03	2.478818e+03	0	8.826676e-04
5.900000e+08	1.967521e+13	0.000000e+00	5.427136e-01	5.375237e+14	1.586246e+15	5.526474e+14	1.605034e+04	8.045671e+03	2.476152e+03	0	8.788774e-04
6.000000e+08	1.942230e+13	0.000000e+00	5.427136e-01	5.352942e+14	1.572867e+15	5.499370e+14	1.604186e+04	8.037155e+03	2.473531e+03	0	8.750954e-04
6.100000e+08	1.917208e+13	0.000000e+00	5.427136e-01	5.330872e+14	1.559773e+15	5.472458e+14	1.603342e+04	8.028784e+03	2.470955e+03	0	8.713211e-04
6.200000e+08	1.892450e+13	0.000000e+00	5.427136e-01	5.309021e+14	1.546954e+15	5.445736e+14	1.602501e+04	8.020552e+03	2.468421e+03	0	8.675542e-04
6.300000e+08	1.867950e+13	0.000000e+00	5.427136e-01	5.287385e+14	1.534401e+15	5.419203e+14	1.601664e+04	8.012457e+03	2.465930e+03	0	8.637941e-04
6.400000e+08	1.843703e+13	0.000000e+00	5.427136e-01	5.265961e+14	1.522106e+15	5.392857e+14	1.600830e+04	8.004494e+03	2.463479e+03	0	8.600403e-04
6.500000e+08	1.819705e+13	0.000000e+00	5.427136e-01	5.244744e+14	1.510059e+15	5.366697e+14	1.599999e+04	7.996659e+03	2.461068e+03	0	8.562925e-04
6.600000e+08	1.795950e+13	0.000000e+00	5.427136e-01	5.223731e+14	1.498254e+15	5.340720e+14	1.599172e+04	7.988949e+03	2.458695e+03	0	8.525501e-04
6.700000e+08	1.772434e+13	0.000000e+00	5.427136e-01	5.202917e+14	1.486681e+15	5.314926e+14	1.598348e+04	7.981360e+03	2.456359e+03	0	8.488127e-04
6.800000e+08	1.749153e+13	0.000000e+00	5.427136e-01	5.182299e+14	1.475334e+15	5.289314e+14	1.597527e+04	7.973890e+03	2.454060e+03	0	8.450799e-04
6.900000e+08	1.726103e+13	0.000000e+00	5.427136e-01	5.161873e+14	1.464206e+15	5.263881e+14	1.596710e+04	7.966534e+03	2.451797e+03	0	8.413513e-04
7.000000e+08	1.703278e+13	0.000000e+00	5.427136e-01	5.141637e+14	1.453289e+15	5.238626e+14	1.595895e+04	7.959290e+03	2.449567e+03	0	8.376263e-04
7.100000e+08	1.680674e+13	0.000000e+00	5.427136e-01	5.121585e+14	1.442578e+15	5.213548e+14	1.595084e+04	7.952155e+03	2.447371e+03	0	8.339046e-04
7.200000e+08	1.658289e+13	0.000000e+00	5.427136e-01	5.101716e+14	1.432066e+15	5.188646e+14	1.594276e+04	7.945126e+03	2.445208e+03	0	8.301857e-04
7.300000e+08	1.636117e+13	0.000000e+00	5.427136e-01	5.082026e+14	1.421747e+15	5.163918e+14	1.593472e+04	7.938200e+03	2.443077e+03	0	8.264691e-04
7.400000e+08	1.614156e+13	0.000000e+00	5.427136e-01	5.062511e+14	1.411615e+15	5.139362e+14	1.592670e+04	7.931375e+03	2.440976e+03	0	8.227546e-04
7.500000e+08	1.592400e+13	0.000000e+00	5.427136e-01	5.043170e+14	1.401665e+15	5.114977e+14	1.591871e+04	7.924648e+03	2.438906e+03	0	8.190415e-04
7.600000e+08	1.570848e+13	0.000000e+00	5.427136e-01	5.023998e+14	1.391891e+15	5.090762e+14	1.591076e+04	7.918016e+03	2.436864e+03	0	8.153296e-04
7.700000e+08	1.549495e+13	0.000000e+00	5.427136e-01	5.004993e+14	1.382288e+15	5.066716e+14	1.590283e+04	7.911477e+03	2.434852e+03	0	8.116183e-04
7.800000e+08	1.528337e+13	0.000000e+00	5.427136e-01	4.986152e+14	1.372852e+15	5.042837e+14	1.589494e+04	7.905028e+03	2.432867e+03	0	8.079073e-04
7.900000e+08	1.507372e+13	0.000000e+00	5.427136e-01	4.967473e+14	1.363577e+15	5.019124e+14	1.588707e+04	7.898668e+03	2.430910e+03	0	8.041961e-04
8.000000e+08	1.486596e+13	0.000000e+00	5.427136e-01	4.948952e+14	1.354459e+15	4.995575e+14	1.587924e+04	7.892394e+03	2.428979e+03	0	8.004843e-04
8.100000e+08	1.466006e+13	0.000000e+00	5.427136e-01	4.930588e+14	1.345494e+15	4.972189e+14	1.587143e+04	7.886204e+03	2.427074e+03	0	7.967714e-04
8.200000e+08	1.445599e+13	0.000000e+00	5.427136e-01	4.912377e+14	1.336677e+15	4.948965e+14	1.586365e+04	7.880096e+03	2.425194e+03	0	7.930571e-04
8.300000e+08	1.425372e+13	0.000000e+00	5.427136e-01	4.894318e+14	1.328005e+15	4.925902e+14	1.585590e+04	7.874068e+03	2.423339e+03	0	7.893408e-04
8.400000e+08	1.405322e+13	0.000000e+00	5.427136e-01	4.876407e+14	1.319473e+15	4.902998e+14	1.584818e+04	7.868118e+03	2.421508e+03	0	7.856223e-04
8.500000e+08	1.385446e+13	0.000000e+00	5.427136e-01	4.858642e+14	1.311078e+15	4.880252e+14	1.584049e+04	7.862244e+03	2.419700e+03	0	7.819009e-04
8.600000e+08	1.365742e+13	0.000000e+00	5.427136e-01	4.841022e+14	1.302815e+15	4.857663e+14	1.583282e+04	7.856444e+03	2.417915e+03	0	7.781764e-04
8.700000e+08	1.346206e+13	0.000000e+00	5.427136e-01	4.823543e+14	1.294682e+15	4.835229e+14	1.582519e+04	7.850718e+03	2.416153e+03	0	7.744482e-04
8.800000e+08	1.326837e+13	0.000000e+00	5.427136e-01	4.806204e+14	1.286675e+15	4.812950e+14	1.581758e+04	7.845062e+03	2.414412e+03	0	7.707159e-04
8.900000e+08	1.307630e+13	0.000000e+00	5.427136e-01	4.789003e+14	1.278791e+15	4.790824e+14	1.580999e+04	7.839475e+03	2.412693e+03	0	7.669790e-04
9.000000e+08	1.288585e+13	0.000000e+00	5.427136e-01	4.771937e+14	1.271027e+15	4.768849e+14	1.580244e+04	7.833956e+03	2.410994e+03	0	7.632372e-04
9.100000e+08	1.269698e+13	0.000000e+00	5.427136e-01	4.755005e+14	1.263379e+15	4.747026e+14	1.579491e+04	7.828503e+03	2.409316e+03	0	7.594898e-04
9.200000e+08	1.250967e+13	0.000000e+00	5.427136e-01	4.738204e+14	1.255844e+15	4.725351e+14	1.578741e+04	7.823114e+03	2.407657e+03	0	7.557366e-04
9.300000e+08	1.232390e+13	0.000000e+00	5.427136e-01	4.721533e+14	1.248421e+15	4.703825e+14	1.577994e+04	7.817789e+03	2.406019e+03	0	7.519770e-04
9.400000e+08	1.213964e+13	0.000000e+00	5.427136e-01	4.704990e+14	1.241105e+15	4.682446e+14	1.577249e+04	7.812526e+03	2.404399e+03	0	7.482105e-04
9.500000e+08	1.195687e+13	0.000000e+00	5.427136e-01	4.688572e+14	1.233895e+15	4.661213e+14	1.576506e+04	7.807322e+03	2.402797e+03	0	7.444366e-04
9.600000e+08	1.177558e+13	0.000000e+00	5.427136e-01	4.672278e+14	1.226788e+15	4.640125e+14	1.575767e+04	7.802178e+03	2.401214e+03	0	7.406549e-04
9.700000e+08	1.159573e+13	0.000000e+00	5.427136e-01	4.656107e+14	1.219781e+15	4.619180e+14	1.575030e+04	7.797092e+03	2.399649e+03	0	7.368648e-04
9.800000e+08	1.141731e+13	0.000000e+00	5.427136e-01	4.640056e+14	1.212871e+15	4.598378e+14	1.574295e+04	7.792062e+03	2.398101e+03	0	7.330659e-04
9.900000e+08	1.124029e+13	0.000000e+00	5.427136e-01	4.624123e+14	1.206058e+15	4.577718e+14	1.573563e+04	7.787087e+03	2.396570e+03	0	7.292577e-04
1.000000e+09	1.106466e+13	0.000000e+00	5.427136e-01	4.608308e+14	1.199338e+15	4.557197e+14	1.572834e+04	7.782166e+03	2.395055e+03	0	7.254395e-04
1.010000e+09	1.089040e+13	0.000000e+00	5.427136e-01	4.592609e+14	1.192708e+15	4.536816e+14	1.572107e+04	7.777298e+03	2.393557e+03	0	7.216110e-04
1.020000e+09	1.071749e+13	0.000000e+00	5.427136e-01	4.577024e+14	1.186168e+15	4.516573e+14	1.571382e+04	7.772482e+03	2.392075e+03	0	7.177715e-04
1.030000e+09	1.054591e+13	0.000000e+00	5.427136e-01	4.561551e+14	1.179715e+15	4.496467e+14	1.570660e+04	7.767716e+03	2.390608e+03	0	7.139204e-04
1.040000e+09	1.037563e+13	0.000000e+00	5.427136e-01	4.546189e+14	1.173347e+15	4.476496e+14	1.569940e+04	7.763001e+03	2.389157e+03	0	7.100573e-04
1.050000e+09	1.020666e+13	0.000000e+00	5.427136e-01	4.530936e+14	1.167062e+15	4.456661e+14	1.569223e+04	7.758333e+03	2.387720e+03	0	7.061815e-04
1.060000e+09	1.003895e+13	0.000000e+00	5.427136e-01	4.515792e+14	1.160858e+15	4.436959e+14	1.568508e+04	7.753714e+03	2.386299e+03	0	7.022924e-04
1.070000e+09	9.872507e+12	0.000000e+00	5.427136e-01	4.500754e+14	1.154733e+15	4.417390e+14	1.567796e+04	7.749141e+03	2.384891e+03	0	6.983894e-04
1.080000e+09	9.707305e+12	0.000000e+00	5.427136e-01	4.485821e+14	1.148687e+15	4.397953e+14	1.567086e+04	7.744613e+03	2.383498e+03	0	6.944720e-04
1.090000e+09	9.543327e+12	0.000000e+00	5.427136e-01	4.470993e+14	1.142716e+15	4.378646e+14	1.566378e+04	7.740131e+03	2.382118e+03	0	6.905393e-04
1.100000e+09	9.380559e+12	0.000000e+00	5.427136e-01	4.456266e+14	1.136819e+15	4.359469e+14	1.565673e+04	7.735692e+03	2.380752e+03	0	6.865909e-04
1.110000e+09	9.218984e+12	0.000000e+00	5.427136e-01	4.441641e+14	1.130995e+15	4.340421e+14	1.564969e+04	7.731296e+03	2.379399e+03	0	6.826260e-04
1.120000e+09	9.058587e+12	0.000000e+00	5.427136e-01	4.427116e+14	1.125243e+15	4.321500e+14	1.564269e+04	7.726942e+03	2.378059e+03	0	6.786439e-04
1.130000e+09	8.899353e+12	0.000000e+00	5.427136e-01	4.412690e+14	1.119560e+15	4.302706e+14	1.563570e+04	7.722630e+03	2.376732e+03	0	6.746440e-04
1.140000e+09	8.741268e+12	0.000000e+00	5.427136e-01	4.398361e+14	1.113945e+15	4.284038e+14	1.562874e+04	7.718358e+03	2.375417e+03	0	6.706253e-04
1.150000e+09	8.584315e+12	0.000000e+00	5.427136e-01	4.384129e+14	1.108397e+15	4.265494e+14	1.562180e+04	7.714126e+03	2.374115e+03	0	6.665873e-04
1.160000e+09	8.428483e+12	0.000000e+00	5.427136e-01	4.369991e+14	1.102915e+15	4.247074e+14	1.561488e+04	7.709932e+03	2.372824e+03	0	6.625291e-04
1.170000e+09	8.273755e+12	0.000000e+00	5.427136e-01	4.355948e+14	1.097496e+15	4.228776e+14	1.560799e+04	7.705777e+03	2.371546e+03	0	6.584499e-04
1.180000e+09	8.120119e+12	0.000000e+00	5.427136e-01	4.341997e+14	1.092141e+15	4.210600e+14	1.560112e+04	7.701659e+03	2.370278e+03	0	6.543488e-04
1.190000e+09	7.967562e+12	0.000000e+00	5.427136e-01	4.328138e+14	1.086846e+15	4.192546e+14	1.559427e+04	7.697579e+03	2.369022e+03	0	6.502250e-04
1.200000e+09	7.816070e+12	0.000000e+00	5.427136e-01	4.314370e+14	1.081613e+15	4.174611e+14	1.558744e+04	7.693534e+03	2.367777e+03	0	6.460775e-04
1.210000e+09	7.665630e+12	0.000000e+00	5.427136e-01	4.300691e+14	1.076438e+15	4.156794e+14	1.558063e+04	7.689524e+03	2.366544e+03	0	6.419055e-04
1.220000e+09	7.516229e+12	0.000000e+00	5.427136e-01	4.287101e+14	1.071321e+15	4.139096e+14	1.557385e+04	7.685550e+03	2.365320e+03	0	6.377079e-04
1.230000e+09	7.367856e+12	0.000000e+00	5.427136e-01	4.273598e+14	1.066261e+15	4.121515e+14	1.556708e+04	7.681609e+03	2.364107e+03	0	6.334838e-04
1.240000e+09	7.220498e+12	0.000000e+00	5.427136e-01	4.260181e+14	1.061257e+15	4.104051e+14	1.556034e+04	7.677702e+03	2.362905e+03	0	6.292321e-04
1.250000e+09	7.074143e+12	0.000000e+00	5.427136e-01	4.246850e+14	1.056307e+15	4.086701e+14	1.555362e+04	7.673828e+03	2.361713e+03	0	6.249517e-04
1.260000e+09	6.928779e+12	0.000000e+00	5.427136e-01	4.233604e+14	1.051411e+15	4.069466e+14	1.554692e+04	7.669986e+03	2.360530e+03	0	6.206414e-04
1.270000e+09	6.784395e+12	0.000000e+00	5.427136e-01	4.220441e+14	1.046567e+15	4.052345e+14	1.554024e+04	7.666175e+03	2.359358e+03	0	6.163000e-04
1.280000e+09	6.640979e+12	0.000000e+00	5.427136e-01	4.207361e+14	1.041775e+15	4.035336e+14	1.553358e+04	7.662396e+03	2.358195e+03	0	6.119264e-04
1.290000e+09	6.498521e+12	0.000000e+00	5.427136e-01	4.194362e+14	1.037034e+15	4.018439e+14	1.552694e+04	7.658648e+03	2.357041e+03	0	6.075192e-04
1.300000e+09	6.357010e+12	0.000000e+00	5.427136e-01	4.181444e+14	1.032343e+15	4.001652e+14	1.552032e+04	7.654929e+03	2.355897e+03	0	6.030770e-04
1.310000e+09	6.216434e+12	0.000000e+00	5.427136e-01	4.168606e+14	1.027700e+15	3.984976e+14	1.551372e+04	7.651240e+03	2.354761e+03	0	5.985985e-04
1.320000e+09	6.076784e+12	0.000000e+00	5.427136e-01	4.155847e+14	1.023105e+15	3.968409e+14	1.550715e+04	7.647581e+03	2.353635e+03	0	5.940820e-04
1.330000e+09	5.938048e+12	0.000000e+00	5.427136e-01	4.143167e+14	1.018557e+15	3.951951e+14	1.550059e+04	7.643949e+03	2.352517e+03	0	5.895261e-04
1.340000e+09	5.800218e+12	0.000000e+00	5.427136e-01	4.130563e+14	1.014056e+15	3.935600e+14	1.549405e+04	7.640346e+03	2.351408e+03	0	5.849291e-04
1.350000e+09	5.663282e+12	0.000000e+00	5.427136e-01	4.118036e+14	1.009599e+15	3.919355e+14	1.548754e+04	7.636770e+03	2.350308e+03	0	5.802893e-04
1.360000e+09	5.527232e+12	0.000000e+00	5.427136e-01	4.105585e+14	1.005188e+15	3.903217e+14	1.548104e+04	7.633222e+03	2.349216e+03	0	5.756048e-04
