#t		Qconv[W]	Ri[Rp]		R*[Rp]		Qc[W]		Qm[W]		Qr[W]		Tcmb[K]		Tl[K]		Tup[K]		RiFlag		Bs[T]
0.000000e+00	3.938392e+13	0.000000e+00	5.427137e-01	9.872593e+14	3.786609e+15	8.937041e+14	1.892861e+04	1.032915e+04	2.906143e+03	0	1.101852e-03
1.000000e+07	3.873995e+13	0.000000e+00	5.427137e-01	9.819952e+14	3.717030e+15	8.887524e+14	1.891696e+04	1.030101e+04	2.898227e+03	0	1.095813e-03
2.000000e+07	3.810542e+13	0.000000e+00	5.427137e-01	9.768044e+14	3.650359e+15	8.838376e+14	1.890538e+04	1.027374e+04	2.890556e+03	0	1.089797e-03
3.000000e+07	3.748016e+13	0.000000e+00	5.427137e-01	9.716853e+14	3.586423e+15	8.789596e+14	1.889386e+04	1.024731e+04	2.883118e+03	0	1.083804e-03
4.000000e+07	3.686398e+13	0.000000e+00	5.427137e-01	9.666368e+14	3.525060e+15	8.741180e+14	1.888240e+04	1.022166e+04	2.875902e+03	0	1.077832e-03
5.000000e+07	3.625669e+13	0.000000e+00	5.427137e-01	9.616572e+14	3.466120e+15	8.693125e+14	1.887099e+04	1.019677e+04	2.868899e+03	0	1.071880e-03
6.000000e+07	3.565812e+13	0.000000e+00	5.427137e-01	9.567453e+14	3.409467e+15	8.645429e+14	1.885965e+04	1.017260e+04	2.862098e+03	0	1.065949e-03
7.000000e+07	3.506809e+13	0.000000e+00	5.427137e-01	9.518996e+14	3.354971e+15	8.598087e+14	1.884836e+04	1.014912e+04	2.855492e+03	0	1.060037e-03
8.000000e+07	3.448640e+13	0.000000e+00	5.427137e-01	9.471187e+14	3.302514e+15	8.551098e+14	1.883713e+04	1.012630e+04	2.849071e+03	0	1.054143e-03
9.000000e+07	3.391287e+13	0.000000e+00	5.427137e-01	9.424012e+14	3.251985e+15	8.504458e+14	1.882596e+04	1.010411e+04	2.842828e+03	0	1.048267e-03
1.000000e+08	3.334734e+13	0.000000e+00	5.427137e-01	9.377458e+14	3.203280e+15	8.458164e+14	1.881484e+04	1.008252e+04	2.836755e+03	0	1.042407e-03
1.100000e+08	3.278963e+13	0.000000e+00	5.427137e-01	9.331511e+14	3.156304e+15	8.412214e+14	1.880378e+04	1.006151e+04	2.830845e+03	0	1.036563e-03
1.200000e+08	3.223955e+13	0.000000e+00	5.427137e-01	9.286159e+14	3.110968e+15	8.366604e+14	1.879277e+04	1.004106e+04	2.825091e+03	0	1.030734e-03
1.300000e+08	3.169695e+13	0.000000e+00	5.427137e-01	9.241387e+14	3.067186e+15	8.321333e+14	1.878181e+04	1.002115e+04	2.819487e+03	0	1.024919e-03
1.400000e+08	3.116165e+13	0.000000e+00	5.427137e-01	9.197183e+14	3.024881e+15	8.276396e+14	1.877091e+04	1.000174e+04	2.814026e+03	0	1.019116e-03
1.500000e+08	3.063349e+13	0.000000e+00	5.427137e-01	9.153535e+14	2.983980e+15	8.231791e+14	1.876006e+04	9.982823e+03	2.808704e+03	0	1.013326e-03
1.600000e+08	3.011231e+13	0.000000e+00	5.427137e-01	9.110430e+14	2.944414e+15	8.187516e+14	1.874926e+04	9.964379e+03	2.803515e+03	0	1.007546e-03
1.700000e+08	2.959796e+13	0.000000e+00	5.427137e-01	9.067856e+14	2.906118e+15	8.143568e+14	1.873851e+04	9.946389e+03	2.798454e+03	0	1.001776e-03
1.800000e+08	2.909028e+13	0.000000e+00	5.427137e-01	9.025803e+14	2.869032e+15	8.099943e+14	1.872782e+04	9.928835e+03	2.793515e+03	0	9.960157e-04
1.900000e+08	2.858913e+13	0.000000e+00	5.427137e-01	8.984257e+14	2.833100e+15	8.056640e+14	1.871717e+04	9.911701e+03	2.788694e+03	0	9.902629e-04
2.000000e+08	2.809435e+13	0.000000e+00	5.427137e-01	8.943209e+14	2.798268e+15	8.013656e+14	1.870657e+04	9.894971e+03	2.783987e+03	0	9.845170e-04
2.100000e+08	2.760581e+13	0.000000e+00	5.427137e-01	8.902647e+14	2.764485e+15	7.970987e+14	1.869602e+04	9.878631e+03	2.779390e+03	0	9.787769e-04
2.200000e+08	2.712338e+13	0.000000e+00	5.427137e-01	8.862561e+14	2.731705e+15	7.928632e+14	1.868551e+04	9.862665e+03	2.774898e+03	0	9.730417e-04
2.300000e+08	2.664691e+13	0.000000e+00	5.427137e-01	8.822941e+14	2.699882e+15	7.886588e+14	1.867506e+04	9.847061e+03	2.770507e+03	0	9.673103e-04
2.400000e+08	2.617627e+13	0.000000e+00	5.427137e-01	8.783776e+14	2.668976e+15	7.844852e+14	1.866465e+04	9.831806e+03	2.766215e+03	0	9.615816e-04
2.500000e+08	2.571135e+13	0.000000e+00	5.427137e-01	8.745057e+14	2.638945e+15	7.803422e+14	1.865429e+04	9.816887e+03	2.762018e+03	0	9.558545e-04
2.600000e+08	2.525201e+13	0.000000e+00	5.427137e-01	8.706774e+14	2.609753e+15	7.762295e+14	1.864397e+04	9.802292e+03	2.757911e+03	0	9.501281e-04
2.700000e+08	2.479813e+13	0.000000e+00	5.427137e-01	8.668918e+14	2.581365e+15	7.721468e+14	1.863370e+04	9.788011e+03	2.753893e+03	0	9.444012e-04
2.800000e+08	2.434960e+13	0.000000e+00	5.427137e-01	8.631481e+14	2.553746e+15	7.680940e+14	1.862347e+04	9.774032e+03	2.749960e+03	0	9.386726e-04
2.900000e+08	2.390631e+13	0.000000e+00	5.427137e-01	8.594453e+14	2.526865e+15	7.640708e+14	1.861328e+04	9.760346e+03	2.746110e+03	0	9.329414e-04
3.000000e+08	2.346814e+13	0.000000e+00	5.427137e-01	8.557825e+14	2.500692e+15	7.600769e+14	1.860314e+04	9.746942e+03	2.742339e+03	0	9.272064e-04
3.100000e+08	2.303498e+13	0.000000e+00	5.427137e-01	8.521591e+14	2.475198e+15	7.561121e+14	1.859305e+04	9.733812e+03	2.738644e+03	0	9.214664e-04
3.200000e+08	2.260674e+13	0.000000e+00	5.427137e-01	8.485741e+14	2.450357e+15	7.521761e+14	1.858299e+04	9.720946e+03	2.735024e+03	0	9.157203e-04
3.300000e+08	2.218331e+13	0.000000e+00	5.427137e-01	8.450268e+14	2.426143e+15	7.482688e+14	1.857298e+04	9.708335e+03	2.731476e+03	0	9.099670e-04
3.400000e+08	2.176459e+13	0.000000e+00	5.427137e-01	8.415164e+14	2.402531e+15	7.443898e+14	1.856301e+04	9.695972e+03	2.727998e+03	0	9.042052e-04
3.500000e+08	2.135048e+13	0.000000e+00	5.427137e-01	8.380422e+14	2.379499e+15	7.405390e+14	1.855308e+04	9.683848e+03	2.724587e+03	0	8.984338e-04
3.600000e+08	2.094090e+13	0.000000e+00	5.427137e-01	8.346035e+14	2.357024e+15	7.367161e+14	1.854319e+04	9.671956e+03	2.721241e+03	0	8.926515e-04
3.700000e+08	2.053574e+13	0.000000e+00	5.427137e-01	8.311996e+14	2.335085e+15	7.329208e+14	1.853335e+04	9.660289e+03	2.717958e+03	0	8.868572e-04
3.800000e+08	2.013493e+13	0.000000e+00	5.427137e-01	8.278297e+14	2.313664e+15	7.291531e+14	1.852354e+04	9.648840e+03	2.714737e+03	0	8.810494e-04
3.900000e+08	1.973838e+13	0.000000e+00	5.427137e-01	8.244933e+14	2.292740e+15	7.254125e+14	1.851377e+04	9.637601e+03	2.711575e+03	0	8.752269e-04
4.000000e+08	1.934600e+13	0.000000e+00	5.427137e-01	8.211897e+14	2.272295e+15	7.216990e+14	1.850404e+04	9.626567e+03	2.708471e+03	0	8.693885e-04
4.100000e+08	1.895771e+13	0.000000e+00	5.427137e-01	8.179182e+14	2.252313e+15	7.180123e+14	1.849435e+04	9.615732e+03	2.705422e+03	0	8.635327e-04
4.200000e+08	1.857343e+13	0.000000e+00	5.427137e-01	8.146783e+14	2.232777e+15	7.143521e+14	1.848470e+04	9.605089e+03	2.702428e+03	0	8.576582e-04
4.300000e+08	1.819309e+13	0.000000e+00	5.427137e-01	8.114694e+14	2.213672e+15	7.107183e+14	1.847509e+04	9.594632e+03	2.699486e+03	0	8.517635e-04
4.400000e+08	1.781661e+13	0.000000e+00	5.427137e-01	8.082908e+14	2.194981e+15	7.071107e+14	1.846552e+04	9.584357e+03	2.696595e+03	0	8.458471e-04
4.500000e+08	1.744392e+13	0.000000e+00	5.427137e-01	8.051422e+14	2.176692e+15	7.035289e+14	1.845598e+04	9.574258e+03	2.693753e+03	0	8.399077e-04
4.600000e+08	1.707495e+13	0.000000e+00	5.427137e-01	8.020227e+14	2.158791e+15	6.999729e+14	1.844648e+04	9.564330e+03	2.690960e+03	0	8.339435e-04
4.700000e+08	1.670962e+13	0.000000e+00	5.427137e-01	7.989321e+14	2.141264e+15	6.964424e+14	1.843701e+04	9.554568e+03	2.688213e+03	0	8.279531e-04
4.800000e+08	1.634788e+13	0.000000e+00	5.427137e-01	7.958697e+14	2.124099e+15	6.929372e+14	1.842759e+04	9.544967e+03	2.685512e+03	0	8.219348e-04
4.900000e+08	1.598966e+13	0.000000e+00	5.427137e-01	7.928350e+14	2.107285e+15	6.894571e+14	1.841820e+04	9.535522e+03	2.682855e+03	0	8.158868e-04
5.000000e+08	1.563488e+13	0.000000e+00	5.427137e-01	7.898276e+14	2.090809e+15	6.860018e+14	1.840884e+04	9.526231e+03	2.680240e+03	0	8.098074e-04
5.100000e+08	1.528350e+13	0.000000e+00	5.427137e-01	7.868470e+14	2.074661e+15	6.825713e+14	1.839952e+04	9.517087e+03	2.677668e+03	0	8.036948e-04
5.200000e+08	1.493545e+13	0.000000e+00	5.427137e-01	7.838927e+14	2.058830e+15	6.791652e+14	1.839024e+04	9.508087e+03	2.675136e+03	0	7.975471e-04
5.300000e+08	1.459068e+13	0.000000e+00	5.427137e-01	7.809642e+14	2.043306e+15	6.757834e+14	1.838099e+04	9.499227e+03	2.672643e+03	0	7.913623e-04
5.400000e+08	1.424912e+13	0.000000e+00	5.427137e-01	7.780612e+14	2.028080e+15	6.724257e+14	1.837177e+04	9.490504e+03	2.670189e+03	0	7.851383e-04
5.500000e+08	1.391071e+13	0.000000e+00	5.427137e-01	7.751832e+14	2.013143e+15	6.690919e+14	1.836259e+04	9.481913e+03	2.667772e+03	0	7.788730e-04
5.600000e+08	1.357542e+13	0.000000e+00	5.427137e-01	7.723297e+14	1.998485e+15	6.657818e+14	1.835344e+04	9.473452e+03	2.665391e+03	0	7.725642e-04
5.700000e+08	1.324317e+13	0.000000e+00	5.427137e-01	7.695004e+14	1.984099e+15	6.624952e+14	1.834433e+04	9.465116e+03	2.663046e+03	0	7.662095e-04
5.800000e+08	1.291393e+13	0.000000e+00	5.427137e-01	7.666949e+14	1.969975e+15	6.592320e+14	1.833525e+04	9.456902e+03	2.660735e+03	0	7.598065e-04
5.900000e+08	1.258764e+13	0.000000e+00	5.427137e-01	7.639127e+14	1.956106e+15	6.559918e+14	1.832620e+04	9.448808e+03	2.658457e+03	0	7.533526e-04
6.000000e+08	1.226425e+13	0.000000e+00	5.427137e-01	7.611535e+14	1.942485e+15	6.527746e+14	1.831719e+04	9.440830e+03	2.656213e+03	0	7.468450e-04
6.100000e+08	1.194371e+13	0.000000e+00	5.427137e-01	7.584170e+14	1.929105e+15	6.495802e+14	1.830821e+04	9.432965e+03	2.654000e+03	0	7.402810e-04
6.200000e+08	1.162598e+13	0.000000e+00	5.427137e-01	7.557028e+14	1.915957e+15	6.464083e+14	1.829926e+04	9.425211e+03	2.651818e+03	0	7.336576e-04
6.300000e+08	1.131101e+13	0.000000e+00	5.427137e-01	7.530104e+14	1.903037e+15	6.432588e+14	1.829034e+04	9.417564e+03	2.649667e+03	0	7.269715e-04
6.400000e+08	1.099876e+13	0.000000e+00	5.427137e-01	7.503397e+14	1.890336e+15	6.401315e+14	1.828145e+04	9.410022e+03	2.647545e+03	0	7.202194e-04
6.500000e+08	1.068919e+13	0.000000e+00	5.427137e-01	7.476902e+14	1.877850e+15	6.370263e+14	1.827260e+04	9.402582e+03	2.645451e+03	0	7.133978e-04
6.600000e+08	1.038225e+13	0.000000e+00	5.427137e-01	7.450616e+14	1.865572e+15	6.339429e+14	1.826378e+04	9.395242e+03	2.643386e+03	0	7.065029e-04
6.700000e+08	1.007790e+13	0.000000e+00	5.427137e-01	7.424536e+14	1.853496e+15	6.308812e+14	1.825498e+04	9.387999e+03	2.641348e+03	0	6.995307e-04
6.800000e+08	9.776095e+12	0.000000e+00	5.427137e-01	7.398659e+14	1.841617e+15	6.278410e+14	1.824622e+04	9.380851e+03	2.639337e+03	0	6.924770e-04
6.900000e+08	9.476806e+12	0.000000e+00	5.427137e-01	7.372982e+14	1.829930e+15	6.248221e+14	1.823749e+04	9.373795e+03	2.637352e+03	0	6.853370e-04
7.000000e+08	9.179990e+12	0.000000e+00	5.427137e-01	7.347502e+14	1.818428e+15	6.218244e+14	1.822879e+04	9.366830e+03	2.635393e+03	0	6.781060e-04
7.100000e+08	8.885611e+12	0.000000e+00	5.427137e-01	7.322216e+14	1.807108e+15	6.188476e+14	1.822012e+04	9.359954e+03	2.633458e+03	0	6.707787e-04
7.200000e+08	8.593631e+12	0.000000e+00	5.427137e-01	7.297121e+14	1.795965e+15	6.158917e+14	1.821148e+04	9.353163e+03	2.631547e+03	0	6.633495e-04
7.300000e+08	8.304014e+12	0.000000e+00	5.427137e-01	7.272214e+14	1.784994e+15	6.129564e+14	1.820287e+04	9.346457e+03	2.629660e+03	0	6.558123e-04
7.400000e+08	8.016726e+12	0.000000e+00	5.427137e-01	7.247493e+14	1.774190e+15	6.100417e+14	1.819429e+04	9.339832e+03	2.627797e+03	0	6.481605e-04
7.500000e+08	7.731733e+12	0.000000e+00	5.427137e-01	7.222955e+14	1.763550e+15	6.071472e+14	1.818573e+04	9.333288e+03	2.625955e+03	0	6.403870e-04
7.600000e+08	7.449001e+12	0.000000e+00	5.427137e-01	7.198598e+14	1.753068e+15	6.042729e+14	1.817721e+04	9.326823e+03	2.624136e+03	0	6.324840e-04
7.700000e+08	7.168498e+12	0.000000e+00	5.427137e-01	7.174419e+14	1.742741e+15	6.014186e+14	1.816872e+04	9.320434e+03	2.622339e+03	0	6.244432e-04
7.800000e+08	6.890192e+12	0.000000e+00	5.427137e-01	7.150415e+14	1.732566e+15	5.985842e+14	1.816025e+04	9.314120e+03	2.620562e+03	0	6.162553e-04
7.900000e+08	6.614051e+12	0.000000e+00	5.427137e-01	7.126584e+14	1.722538e+15	5.957694e+14	1.815181e+04	9.307879e+03	2.618807e+03	0	6.079101e-04
8.000000e+08	6.340046e+12	0.000000e+00	5.427137e-01	7.102924e+14	1.712654e+15	5.929742e+14	1.814340e+04	9.301710e+03	2.617071e+03	0	5.993967e-04
8.100000e+08	6.068147e+12	0.000000e+00	5.427137e-01	7.079432e+14	1.702910e+15	5.901983e+14	1.813502e+04	9.295611e+03	2.615355e+03	0	5.907026e-04
8.200000e+08	5.798323e+12	0.000000e+00	5.427137e-01	7.056106e+14	1.693303e+15	5.874416e+14	1.812666e+04	9.289581e+03	2.613658e+03	0	5.818142e-04
8.300000e+08	5.530548e+12	0.000000e+00	5.427137e-01	7.032945e+14	1.683830e+15	5.847040e+14	1.811834e+04	9.283617e+03	2.611980e+03	0	5.727163e-04
8.400000e+08	5.264792e+12	0.000000e+00	5.427137e-01	7.009945e+14	1.674487e+15	5.819853e+14	1.811004e+04	9.277719e+03	2.610321e+03	0	5.633919e-04
8.500000e+08	5.001029e+12	0.000000e+00	5.427137e-01	6.987104e+14	1.665272e+15	5.792854e+14	1.810176e+04	9.271885e+03	2.608680e+03	0	5.538217e-04
8.600000e+08	4.739232e+12	0.000000e+00	5.427137e-01	6.964422e+14	1.656181e+15	5.766040e+14	1.809352e+04	9.266114e+03	2.607056e+03	0	5.439841e-04
8.700000e+08	4.479375e+12	0.000000e+00	5.427137e-01	6.941894e+14	1.647211e+15	5.739412e+14	1.808530e+04	9.260405e+03	2.605449e+03	0	5.338542e-04
8.800000e+08	4.221431e+12	0.000000e+00	5.427137e-01	6.919521e+14	1.638360e+15	5.712966e+14	1.807711e+04	9.254755e+03	2.603860e+03	0	5.234037e-04
8.900000e+08	3.965377e+12	0.000000e+00	5.427137e-01	6.897299e+14	1.629626e+15	5.686702e+14	1.806894e+04	9.249165e+03	2.602287e+03	0	5.125997e-04
9.000000e+08	3.711187e+12	0.000000e+00	5.427137e-01	6.875226e+14	1.621004e+15	5.660619e+14	1.806080e+04	9.243632e+03	2.600730e+03	0	5.014040e-04
9.100000e+08	3.458838e+12	0.000000e+00	5.427137e-01	6.853301e+14	1.612494e+15	5.634714e+14	1.805269e+04	9.238155e+03	2.599189e+03	0	4.897716e-04
9.200000e+08	3.208305e+12	0.000000e+00	5.427137e-01	6.831523e+14	1.604092e+15	5.608987e+14	1.804460e+04	9.232734e+03	2.597664e+03	0	4.776488e-04
9.300000e+08	2.959566e+12	0.000000e+00	5.427137e-01	6.809888e+14	1.595796e+15	5.583435e+14	1.803654e+04	9.227367e+03	2.596154e+03	0	4.649713e-04
9.400000e+08	2.712598e+12	0.000000e+00	5.427137e-01	6.788396e+14	1.587604e+15	5.558058e+14	1.802850e+04	9.222053e+03	2.594659e+03	0	4.516604e-04
9.500000e+08	2.467378e+12	0.000000e+00	5.427137e-01	6.767044e+14	1.579513e+15	5.532855e+14	1.802049e+04	9.216791e+03	2.593179e+03	0	4.376183e-04
9.600000e+08	2.223886e+12	0.000000e+00	5.427137e-01	6.745831e+14	1.571522e+15	5.507823e+14	1.801250e+04	9.211581e+03	2.591713e+03	0	4.227215e-04
9.700000e+08	1.982100e+12	0.000000e+00	5.427137e-01	6.724756e+14	1.563628e+15	5.482962e+14	1.800454e+04	9.206420e+03	2.590260e+03	0	4.068104e-04
9.800000e+08	1.741998e+12	0.000000e+00	5.427137e-01	6.703817e+14	1.555829e+15	5.458270e+14	1.799661e+04	9.201308e+03	2.588822e+03	0	3.896722e-04
9.900000e+08	1.503561e+12	0.000000e+00	5.427137e-01	6.683011e+14	1.548123e+15	5.433746e+14	1.798869e+04	9.196244e+03	2.587397e+03	0	3.710142e-04
1.000000e+09	1.266768e+12	0.000000e+00	5.427137e-01	6.662338e+14	1.540509e+15	5.409388e+14	1.798081e+04	9.191227e+03	2.585986e+03	0	3.504149e-04
1.010000e+09	1.031599e+12	0.000000e+00	5.427137e-01	6.641796e+14	1.532984e+15	5.385196e+14	1.797294e+04	9.186257e+03	2.584588e+03	0	3.272306e-04
1.020000e+09	7.980358e+11	0.000000e+00	5.427137e-01	6.621383e+14	1.525546e+15	5.361167e+14	1.796511e+04	9.181331e+03	2.583202e+03	0	3.003938e-04
1.030000e+09	5.660586e+11	0.000000e+00	5.427137e-01	6.601099e+14	1.518194e+15	5.337301e+14	1.795729e+04	9.176450e+03	2.581829e+03	0	2.678987e-04
1.040000e+09	3.356489e+11	0.000000e+00	5.427137e-01	6.580940e+14	1.510926e+15	5.313596e+14	1.794950e+04	9.171613e+03	2.580468e+03	0	2.250671e-04
1.050000e+09	1.067885e+11	0.000000e+00	5.427137e-01	6.560907e+14	1.503741e+15	5.290051e+14	1.794173e+04	9.166819e+03	2.579119e+03	0	1.536473e-04
1.060000e+09	-1.205406e+11	0.000000e+00	5.427137e-01	6.540998e+14	1.496636e+15	5.266666e+14	1.793399e+04	9.162066e+03	2.577782e+03	0	-nan
