#t		Qconv[W]	Ri[Rp]		R*[Rp]		Qc[W]		Qm[W]		Qr[W]		Tcmb[K]		Tl[K]		Tup[K]		RiFlag		Bs[T]
0.000000e+00	7.164911e+13	0.000000e+00	8.235294e-01	1.205755e+15	5.019541e+13	3.521232e+13	1.008224e+04	3.407763e+03	2.129174e+03	0	1.181885e-03
1.000000e+07	6.911038e+13	0.000000e+00	8.235294e-01	1.163465e+15	8.676098e+13	3.501722e+13	9.962188e+03	3.725756e+03	2.327856e+03	0	1.167758e-03
2.000000e+07	6.616606e+13	0.000000e+00	8.235294e-01	1.114461e+15	1.355652e+14	3.482358e+13	9.846303e+03	4.020673e+03	2.512121e+03	0	1.150933e-03
3.000000e+07	6.297583e+13	0.000000e+00	8.235294e-01	1.061391e+15	1.948185e+14	3.463138e+13	9.735253e+03	4.287579e+03	2.678884e+03	0	1.132130e-03
4.000000e+07	5.969849e+13	0.000000e+00	8.235294e-01	1.006887e+15	2.610019e+14	3.444062e+13	9.629447e+03	4.522988e+03	2.825968e+03	0	1.112140e-03
5.000000e+07	5.647219e+13	0.000000e+00	8.235294e-01	9.532383e+14	3.296531e+14	3.425128e+13	9.529030e+03	4.725223e+03	2.952324e+03	0	1.091733e-03
6.000000e+07	5.340125e+13	0.000000e+00	8.235294e-01	9.021740e+14	3.963310e+14	3.406336e+13	9.433921e+03	4.894454e+03	3.058061e+03	0	1.071574e-03
7.000000e+07	5.055189e+13	0.000000e+00	8.235294e-01	8.547910e+14	4.574034e+14	3.387683e+13	9.343869e+03	5.032428e+03	3.144266e+03	0	1.052166e-03
8.000000e+07	4.795566e+13	0.000000e+00	8.235294e-01	8.116112e+14	5.104595e+14	3.369169e+13	9.258512e+03	5.142009e+03	3.212733e+03	0	1.033836e-03
9.000000e+07	4.561729e+13	0.000000e+00	8.235294e-01	7.727124e+14	5.543428e+14	3.350793e+13	9.177435e+03	5.226689e+03	3.265641e+03	0	1.016752e-03
1.000000e+08	4.352373e+13	0.000000e+00	8.235294e-01	7.378776e+14	5.889312e+14	3.332553e+13	9.100214e+03	5.290147e+03	3.305290e+03	0	1.000953e-03
1.100000e+08	4.165210e+13	0.000000e+00	8.235294e-01	7.067268e+14	6.148160e+14	3.314448e+13	9.026449e+03	5.335933e+03	3.333897e+03	0	9.863946e-04
1.200000e+08	3.997559e+13	0.000000e+00	8.235294e-01	6.788152e+14	6.329915e+14	3.296478e+13	8.955775e+03	5.367276e+03	3.353480e+03	0	9.729787e-04
1.300000e+08	3.846728e+13	0.000000e+00	8.235294e-01	6.536960e+14	6.446144e+14	3.278640e+13	8.887870e+03	5.386987e+03	3.365795e+03	0	9.605844e-04
1.400000e+08	3.710230e+13	0.000000e+00	8.235294e-01	6.309565e+14	6.508398e+14	3.260935e+13	8.822459e+03	5.397442e+03	3.372328e+03	0	9.490855e-04
1.500000e+08	3.585878e+13	0.000000e+00	8.235294e-01	6.102340e+14	6.527303e+14	3.243361e+13	8.759305e+03	5.400603e+03	3.374303e+03	0	9.383616e-04
1.600000e+08	3.471810e+13	0.000000e+00	8.235294e-01	5.912196e+14	6.512111e+14	3.225916e+13	8.698209e+03	5.398063e+03	3.372716e+03	0	9.283043e-04
1.700000e+08	3.366476e+13	0.000000e+00	8.235294e-01	5.736557e+14	6.470601e+14	3.208600e+13	8.639002e+03	5.391103e+03	3.368367e+03	0	9.188195e-04
1.800000e+08	3.268595e+13	0.000000e+00	8.235294e-01	5.573303e+14	6.409138e+14	3.191412e+13	8.581539e+03	5.380739e+03	3.361892e+03	0	9.098268e-04
1.900000e+08	3.177123e+13	0.000000e+00	8.235294e-01	5.420699e+14	6.332851e+14	3.174350e+13	8.525698e+03	5.367776e+03	3.353793e+03	0	9.012592e-04
2.000000e+08	3.091206e+13	0.000000e+00	8.235294e-01	5.277328e+14	6.245798e+14	3.157414e+13	8.471374e+03	5.352850e+03	3.344467e+03	0	8.930608e-04
2.100000e+08	3.010149e+13	0.000000e+00	8.235294e-01	5.142038e+14	6.151170e+14	3.140603e+13	8.418474e+03	5.336458e+03	3.334225e+03	0	8.851857e-04
2.200000e+08	2.933383e+13	0.000000e+00	8.235294e-01	5.013883e+14	6.051448e+14	3.123915e+13	8.366920e+03	5.318989e+03	3.323310e+03	0	8.775960e-04
2.300000e+08	2.860440e+13	0.000000e+00	8.235294e-01	4.892085e+14	5.948545e+14	3.107349e+13	8.316641e+03	5.300748e+03	3.311913e+03	0	8.702606e-04
2.400000e+08	2.790931e+13	0.000000e+00	8.235294e-01	4.776001e+14	5.843932e+14	3.090905e+13	8.267572e+03	5.281974e+03	3.300183e+03	0	8.631536e-04
2.500000e+08	2.724534e+13	0.000000e+00	8.235294e-01	4.665095e+14	5.738726e+14	3.074581e+13	8.219659e+03	5.262853e+03	3.288236e+03	0	8.562537e-04
2.600000e+08	2.660977e+13	0.000000e+00	8.235294e-01	4.558915e+14	5.633775e+14	3.058377e+13	8.172850e+03	5.243529e+03	3.276163e+03	0	8.495431e-04
2.700000e+08	2.600028e+13	0.000000e+00	8.235294e-01	4.457077e+14	5.529711e+14	3.042291e+13	8.127097e+03	5.224116e+03	3.264034e+03	0	8.430067e-04
2.800000e+08	2.541490e+13	0.000000e+00	8.235294e-01	4.359253e+14	5.427002e+14	3.026323e+13	8.082359e+03	5.204700e+03	3.251902e+03	0	8.366321e-04
2.900000e+08	2.485191e+13	0.000000e+00	8.235294e-01	4.265158e+14	5.325990e+14	3.010471e+13	8.038594e+03	5.185350e+03	3.239812e+03	0	8.304083e-04
3.000000e+08	2.430983e+13	0.000000e+00	8.235294e-01	4.174544e+14	5.226917e+14	2.994735e+13	7.995767e+03	5.166116e+03	3.227795e+03	0	8.243261e-04
3.100000e+08	2.378734e+13	0.000000e+00	8.235294e-01	4.087193e+14	5.129951e+14	2.979114e+13	7.953843e+03	5.147040e+03	3.215876e+03	0	8.183775e-04
3.200000e+08	2.328326e+13	0.000000e+00	8.235294e-01	4.002909e+14	5.035201e+14	2.963606e+13	7.912790e+03	5.128151e+03	3.204075e+03	0	8.125554e-04
3.300000e+08	2.279655e+13	0.000000e+00	8.235294e-01	3.921519e+14	4.942729e+14	2.948211e+13	7.872576e+03	5.109472e+03	3.192404e+03	0	8.068536e-04
3.400000e+08	2.232627e+13	0.000000e+00	8.235294e-01	3.842865e+14	4.852568e+14	2.932927e+13	7.833174e+03	5.091019e+03	3.180874e+03	0	8.012667e-04
3.500000e+08	2.187155e+13	0.000000e+00	8.235294e-01	3.766807e+14	4.764721e+14	2.917755e+13	7.794557e+03	5.072804e+03	3.169493e+03	0	7.957896e-04
3.600000e+08	2.143162e+13	0.000000e+00	8.235294e-01	3.693212e+14	4.679174e+14	2.902693e+13	7.756698e+03	5.054835e+03	3.158267e+03	0	7.904179e-04
3.700000e+08	2.100576e+13	0.000000e+00	8.235294e-01	3.621961e+14	4.595899e+14	2.887739e+13	7.719574e+03	5.037118e+03	3.147197e+03	0	7.851474e-04
3.800000e+08	2.059330e+13	0.000000e+00	8.235294e-01	3.552945e+14	4.514856e+14	2.872894e+13	7.683160e+03	5.019654e+03	3.136286e+03	0	7.799745e-04
3.900000e+08	2.019363e+13	0.000000e+00	8.235294e-01	3.486060e+14	4.435996e+14	2.858156e+13	7.647436e+03	5.002446e+03	3.125534e+03	0	7.748956e-04
4.000000e+08	1.980618e+13	0.000000e+00	8.235294e-01	3.421213e+14	4.359268e+14	2.843525e+13	7.612379e+03	4.985493e+03	3.114942e+03	0	7.699076e-04
4.100000e+08	1.943041e+13	0.000000e+00	8.235294e-01	3.358313e+14	4.284616e+14	2.828999e+13	7.577970e+03	4.968794e+03	3.104508e+03	0	7.650075e-04
4.200000e+08	1.906582e+13	0.000000e+00	8.235294e-01	3.297278e+14	4.211980e+14	2.814578e+13	7.544189e+03	4.952345e+03	3.094231e+03	0	7.601924e-04
4.300000e+08	1.871195e+13	0.000000e+00	8.235294e-01	3.238029e+14	4.141302e+14	2.800260e+13	7.511017e+03	4.936145e+03	3.084109e+03	0	7.554598e-04
4.400000e+08	1.836835e+13	0.000000e+00	8.235294e-01	3.180494e+14	4.072522e+14	2.786046e+13	7.478438e+03	4.920189e+03	3.074140e+03	0	7.508072e-04
4.500000e+08	1.803461e+13	0.000000e+00	8.235294e-01	3.124603e+14	4.005577e+14	2.771934e+13	7.446434e+03	4.904474e+03	3.064321e+03	0	7.462321e-04
4.600000e+08	1.771033e+13	0.000000e+00	8.235294e-01	3.070291e+14	3.940413e+14	2.757923e+13	7.414988e+03	4.888995e+03	3.054650e+03	0	7.417324e-04
4.700000e+08	1.739515e+13	0.000000e+00	8.235294e-01	3.017496e+14	3.876970e+14	2.744013e+13	7.384086e+03	4.873748e+03	3.045124e+03	0	7.373060e-04
4.800000e+08	1.708871e+13	0.000000e+00	8.235294e-01	2.966160e+14	3.815191e+14	2.730202e+13	7.353711e+03	4.858730e+03	3.035740e+03	0	7.329508e-04
4.900000e+08	1.679069e+13	0.000000e+00	8.235294e-01	2.916227e+14	3.755021e+14	2.716490e+13	7.323849e+03	4.843934e+03	3.026496e+03	0	7.286649e-04
5.000000e+08	1.650075e+13	0.000000e+00	8.235294e-01	2.867644e+14	3.696406e+14	2.702876e+13	7.294488e+03	4.829358e+03	3.017388e+03	0	7.244465e-04
5.100000e+08	1.621861e+13	0.000000e+00	8.235294e-01	2.820361e+14	3.639295e+14	2.689360e+13	7.265612e+03	4.814995e+03	3.008414e+03	0	7.202937e-04
5.200000e+08	1.594398e+13	0.000000e+00	8.235294e-01	2.774331e+14	3.583638e+14	2.675940e+13	7.237209e+03	4.800842e+03	2.999571e+03	0	7.162049e-04
5.300000e+08	1.567658e+13	0.000000e+00	8.235294e-01	2.729508e+14	3.529385e+14	2.662615e+13	7.209267e+03	4.786894e+03	2.990857e+03	0	7.121784e-04
5.400000e+08	1.541615e+13	0.000000e+00	8.235294e-01	2.685849e+14	3.476491e+14	2.649386e+13	7.181773e+03	4.773147e+03	2.982267e+03	0	7.082127e-04
5.500000e+08	1.516245e+13	0.000000e+00	8.235294e-01	2.643313e+14	3.424909e+14	2.636251e+13	7.154717e+03	4.759596e+03	2.973801e+03	0	7.043062e-04
5.600000e+08	1.491524e+13	0.000000e+00	8.235294e-01	2.601860e+14	3.374597e+14	2.623209e+13	7.128086e+03	4.746237e+03	2.965454e+03	0	7.004576e-04
5.700000e+08	1.467430e+13	0.000000e+00	8.235294e-01	2.561453e+14	3.325513e+14	2.610259e+13	7.101871e+03	4.733065e+03	2.957225e+03	0	6.966653e-04
5.800000e+08	1.443940e+13	0.000000e+00	8.235294e-01	2.522055e+14	3.277617e+14	2.597402e+13	7.076060e+03	4.720078e+03	2.949110e+03	0	6.929280e-04
5.900000e+08	1.421035e+13	0.000000e+00	8.235294e-01	2.483633e+14	3.230869e+14	2.584636e+13	7.050644e+03	4.707270e+03	2.941107e+03	0	6.892445e-04
6.000000e+08	1.398694e+13	0.000000e+00	8.235294e-01	2.446153e+14	3.185232e+14	2.571960e+13	7.025612e+03	4.694637e+03	2.933215e+03	0	6.856134e-04
6.100000e+08	1.376899e+13	0.000000e+00	8.235294e-01	2.409585e+14	3.140672e+14	2.559373e+13	7.000957e+03	4.682177e+03	2.925429e+03	0	6.820335e-04
6.200000e+08	1.355631e+13	0.000000e+00	8.235294e-01	2.373897e+14	3.097153e+14	2.546876e+13	6.976667e+03	4.669884e+03	2.917749e+03	0	6.785037e-04
6.300000e+08	1.334874e+13	0.000000e+00	8.235294e-01	2.339062e+14	3.054642e+14	2.534467e+13	6.952736e+03	4.657756e+03	2.910171e+03	0	6.750228e-04
6.400000e+08	1.314610e+13	0.000000e+00	8.235294e-01	2.305051e+14	3.013107e+14	2.522145e+13	6.929153e+03	4.645789e+03	2.902695e+03	0	6.715897e-04
6.500000e+08	1.294824e+13	0.000000e+00	8.235294e-01	2.271838e+14	2.972519e+14	2.509911e+13	6.905912e+03	4.633980e+03	2.895316e+03	0	6.682033e-04
6.600000e+08	1.275500e+13	0.000000e+00	8.235294e-01	2.239397e+14	2.932847e+14	2.497762e+13	6.883003e+03	4.622325e+03	2.888034e+03	0	6.648626e-04
6.700000e+08	1.256625e+13	0.000000e+00	8.235294e-01	2.207704e+14	2.894063e+14	2.485699e+13	6.860420e+03	4.610820e+03	2.880846e+03	0	6.615666e-04
6.800000e+08	1.238182e+13	0.000000e+00	8.235294e-01	2.176736e+14	2.856140e+14	2.473720e+13	6.838155e+03	4.599463e+03	2.873750e+03	0	6.583142e-04
6.900000e+08	1.220160e+13	0.000000e+00	8.235294e-01	2.146469e+14	2.819051e+14	2.461826e+13	6.816200e+03	4.588251e+03	2.866744e+03	0	6.551046e-04
7.000000e+08	1.202545e+13	0.000000e+00	8.235294e-01	2.116883e+14	2.782773e+14	2.450014e+13	6.794549e+03	4.577180e+03	2.859827e+03	0	6.519369e-04
7.100000e+08	1.185325e+13	0.000000e+00	8.235294e-01	2.087957e+14	2.747278e+14	2.438286e+13	6.773194e+03	4.566247e+03	2.852997e+03	0	6.488101e-04
7.200000e+08	1.168488e+13	0.000000e+00	8.235294e-01	2.059670e+14	2.712546e+14	2.426639e+13	6.752130e+03	4.555451e+03	2.846251e+03	0	6.457233e-04
7.300000e+08	1.152022e+13	0.000000e+00	8.235294e-01	2.032003e+14	2.678554e+14	2.415074e+13	6.731350e+03	4.544787e+03	2.839588e+03	0	6.426758e-04
7.400000e+08	1.135916e+13	0.000000e+00	8.235294e-01	2.004938e+14	2.645278e+14	2.403590e+13	6.710847e+03	4.534254e+03	2.833007e+03	0	6.396667e-04
7.500000e+08	1.120159e+13	0.000000e+00	8.235294e-01	1.978457e+14	2.612700e+14	2.392186e+13	6.690616e+03	4.523848e+03	2.826505e+03	0	6.366952e-04
7.600000e+08	1.104741e+13	0.000000e+00	8.235294e-01	1.952543e+14	2.580798e+14	2.380861e+13	6.670651e+03	4.513567e+03	2.820082e+03	0	6.337606e-04
7.700000e+08	1.089653e+13	0.000000e+00	8.235294e-01	1.927179e+14	2.549554e+14	2.369615e+13	6.650946e+03	4.503409e+03	2.813735e+03	0	6.308620e-04
7.800000e+08	1.074884e+13	0.000000e+00	8.235294e-01	1.902349e+14	2.518947e+14	2.358447e+13	6.631496e+03	4.493371e+03	2.807464e+03	0	6.279989e-04
7.900000e+08	1.060425e+13	0.000000e+00	8.235294e-01	1.878038e+14	2.488961e+14	2.347357e+13	6.612295e+03	4.483451e+03	2.801265e+03	0	6.251704e-04
8.000000e+08	1.046269e+13	0.000000e+00	8.235294e-01	1.854232e+14	2.459579e+14	2.336343e+13	6.593338e+03	4.473647e+03	2.795139e+03	0	6.223759e-04
8.100000e+08	1.032405e+13	0.000000e+00	8.235294e-01	1.830916e+14	2.430783e+14	2.325406e+13	6.574620e+03	4.463955e+03	2.789084e+03	0	6.196147e-04
8.200000e+08	1.018826e+13	0.000000e+00	8.235294e-01	1.808076e+14	2.402556e+14	2.314545e+13	6.556137e+03	4.454375e+03	2.783098e+03	0	6.168862e-04
8.300000e+08	1.005524e+13	0.000000e+00	8.235294e-01	1.785698e+14	2.374885e+14	2.303759e+13	6.537883e+03	4.444903e+03	2.777181e+03	0	6.141896e-04
8.400000e+08	9.924908e+12	0.000000e+00	8.235294e-01	1.763771e+14	2.347753e+14	2.293047e+13	6.519853e+03	4.435539e+03	2.771330e+03	0	6.115245e-04
8.500000e+08	9.797196e+12	0.000000e+00	8.235294e-01	1.742282e+14	2.321146e+14	2.282409e+13	6.502044e+03	4.426279e+03	2.765544e+03	0	6.088902e-04
8.600000e+08	9.672031e+12	0.000000e+00	8.235294e-01	1.721219e+14	2.295049e+14	2.271844e+13	6.484451e+03	4.417122e+03	2.759823e+03	0	6.062861e-04
8.700000e+08	9.549343e+12	0.000000e+00	8.235294e-01	1.700570e+14	2.269450e+14	2.261353e+13	6.467070e+03	4.408067e+03	2.754165e+03	0	6.037116e-04
8.800000e+08	9.429066e+12	0.000000e+00	8.235294e-01	1.680325e+14	2.244334e+14	2.250933e+13	6.449896e+03	4.399110e+03	2.748569e+03	0	6.011663e-04
8.900000e+08	9.311135e+12	0.000000e+00	8.235294e-01	1.660472e+14	2.219690e+14	2.240585e+13	6.432925e+03	4.390251e+03	2.743034e+03	0	5.986495e-04
9.000000e+08	9.195488e+12	0.000000e+00	8.235294e-01	1.641001e+14	2.195506e+14	2.230308e+13	6.416154e+03	4.381487e+03	2.737558e+03	0	5.961607e-04
9.100000e+08	9.082065e+12	0.000000e+00	8.235294e-01	1.621902e+14	2.171768e+14	2.220101e+13	6.399579e+03	4.372817e+03	2.732141e+03	0	5.936994e-04
9.200000e+08	8.970807e+12	0.000000e+00	8.235294e-01	1.603166e+14	2.148466e+14	2.209965e+13	6.383196e+03	4.364239e+03	2.726781e+03	0	5.912651e-04
9.300000e+08	8.861659e+12	0.000000e+00	8.235294e-01	1.584782e+14	2.125588e+14	2.199897e+13	6.367001e+03	4.355752e+03	2.721479e+03	0	5.888573e-04
9.400000e+08	8.754566e+12	0.000000e+00	8.235294e-01	1.566743e+14	2.103125e+14	2.189899e+13	6.350992e+03	4.347353e+03	2.716231e+03	0	5.864756e-04
9.500000e+08	8.649474e+12	0.000000e+00	8.235294e-01	1.549038e+14	2.081065e+14	2.179968e+13	6.335163e+03	4.339042e+03	2.711038e+03	0	5.841194e-04
9.600000e+08	8.546335e+12	0.000000e+00	8.235294e-01	1.531661e+14	2.059398e+14	2.170106e+13	6.319513e+03	4.330816e+03	2.705899e+03	0	5.817883e-04
9.700000e+08	8.445097e+12	0.000000e+00	8.235294e-01	1.514601e+14	2.038115e+14	2.160310e+13	6.304037e+03	4.322675e+03	2.700812e+03	0	5.794820e-04
9.800000e+08	8.345713e+12	0.000000e+00	8.235294e-01	1.497852e+14	2.017205e+14	2.150582e+13	6.288733e+03	4.314617e+03	2.695778e+03	0	5.771998e-04
9.900000e+08	8.248137e+12	0.000000e+00	8.235294e-01	1.481406e+14	1.996661e+14	2.140919e+13	6.273597e+03	4.306640e+03	2.690794e+03	0	5.749415e-04
1.000000e+09	8.152325e+12	0.000000e+00	8.235294e-01	1.465255e+14	1.976473e+14	2.131322e+13	6.258627e+03	4.298743e+03	2.685860e+03	0	5.727066e-04
1.010000e+09	8.058232e+12	0.000000e+00	8.235294e-01	1.449392e+14	1.956633e+14	2.121790e+13	6.243820e+03	4.290925e+03	2.680975e+03	0	5.704947e-04
1.020000e+09	7.965816e+12	0.000000e+00	8.235294e-01	1.433810e+14	1.937131e+14	2.112323e+13	6.229172e+03	4.283185e+03	2.676139e+03	0	5.683054e-04
1.030000e+09	7.875038e+12	0.000000e+00	8.235294e-01	1.418501e+14	1.917961e+14	2.102919e+13	6.214681e+03	4.275520e+03	2.671350e+03	0	5.661384e-04
1.040000e+09	7.785857e+12	0.000000e+00	8.235294e-01	1.403461e+14	1.899114e+14	2.093579e+13	6.200343e+03	4.267930e+03	2.666607e+03	0	5.639932e-04
1.050000e+09	7.698235e+12	0.000000e+00	8.235294e-01	1.388681e+14	1.880583e+14	2.084303e+13	6.186158e+03	4.260414e+03	2.661911e+03	0	5.618695e-04
1.060000e+09	7.612135e+12	0.000000e+00	8.235294e-01	1.374157e+14	1.862360e+14	2.075089e+13	6.172121e+03	4.252970e+03	2.657260e+03	0	5.597669e-04
1.070000e+09	7.527521e+12	0.000000e+00	8.235294e-01	1.359881e+14	1.844438e+14	2.065937e+13	6.158230e+03	4.245597e+03	2.652654e+03	0	5.576851e-04
1.080000e+09	7.444357e+12	0.000000e+00	8.235294e-01	1.345849e+14	1.826810e+14	2.056846e+13	6.144483e+03	4.238294e+03	2.648091e+03	0	5.556237e-04
1.090000e+09	7.362611e+12	0.000000e+00	8.235294e-01	1.332053e+14	1.809470e+14	2.047817e+13	6.130877e+03	4.231060e+03	2.643571e+03	0	5.535825e-04
1.100000e+09	7.282248e+12	0.000000e+00	8.235294e-01	1.318490e+14	1.792410e+14	2.038848e+13	6.117410e+03	4.223894e+03	2.639094e+03	0	5.515610e-04
1.110000e+09	7.203238e+12	0.000000e+00	8.235294e-01	1.305153e+14	1.775626e+14	2.029939e+13	6.104079e+03	4.216795e+03	2.634658e+03	0	5.495590e-04
1.120000e+09	7.125548e+12	0.000000e+00	8.235294e-01	1.292038e+14	1.759109e+14	2.021090e+13	6.090883e+03	4.209761e+03	2.630264e+03	0	5.475761e-04
1.130000e+09	7.049150e+12	0.000000e+00	8.235294e-01	1.279139e+14	1.742855e+14	2.012301e+13	6.077819e+03	4.202792e+03	2.625909e+03	0	5.456121e-04
1.140000e+09	6.974013e+12	0.000000e+00	8.235294e-01	1.266451e+14	1.726858e+14	2.003570e+13	6.064885e+03	4.195887e+03	2.621595e+03	0	5.436666e-04
1.150000e+09	6.900109e+12	0.000000e+00	8.235294e-01	1.253970e+14	1.711111e+14	1.994897e+13	6.052079e+03	4.189044e+03	2.617320e+03	0	5.417393e-04
1.160000e+09	6.827410e+12	0.000000e+00	8.235294e-01	1.241691e+14	1.695610e+14	1.986282e+13	6.039398e+03	4.182263e+03	2.613083e+03	0	5.398300e-04
1.170000e+09	6.755890e+12	0.000000e+00	8.235294e-01	1.229610e+14	1.680348e+14	1.977725e+13	6.026841e+03	4.175543e+03	2.608884e+03	0	5.379384e-04
1.180000e+09	6.685523e+12	0.000000e+00	8.235294e-01	1.217722e+14	1.665322e+14	1.969225e+13	6.014406e+03	4.168883e+03	2.604723e+03	0	5.360642e-04
1.190000e+09	6.616283e+12	0.000000e+00	8.235294e-01	1.206023e+14	1.650526e+14	1.960781e+13	6.002090e+03	4.162281e+03	2.600598e+03	0	5.342072e-04
1.200000e+09	6.548145e+12	0.000000e+00	8.235294e-01	1.194509e+14	1.635954e+14	1.952393e+13	5.989892e+03	4.155738e+03	2.596510e+03	0	5.323670e-04
1.210000e+09	6.481086e+12	0.000000e+00	8.235294e-01	1.183175e+14	1.621603e+14	1.944060e+13	5.977811e+03	4.149251e+03	2.592457e+03	0	5.305435e-04
1.220000e+09	6.415082e+12	0.000000e+00	8.235294e-01	1.172019e+14	1.607466e+14	1.935783e+13	5.965843e+03	4.142821e+03	2.588440e+03	0	5.287363e-04
1.230000e+09	6.350111e+12	0.000000e+00	8.235294e-01	1.161035e+14	1.593541e+14	1.927561e+13	5.953988e+03	4.136447e+03	2.584457e+03	0	5.269452e-04
1.240000e+09	6.286150e+12	0.000000e+00	8.235294e-01	1.150221e+14	1.579823e+14	1.919393e+13	5.942244e+03	4.130127e+03	2.580508e+03	0	5.251700e-04
1.250000e+09	6.223177e+12	0.000000e+00	8.235294e-01	1.139573e+14	1.566307e+14	1.911279e+13	5.930608e+03	4.123861e+03	2.576593e+03	0	5.234105e-04
1.260000e+09	6.161173e+12	0.000000e+00	8.235294e-01	1.129088e+14	1.552988e+14	1.903219e+13	5.919080e+03	4.117648e+03	2.572711e+03	0	5.216664e-04
1.270000e+09	6.100117e+12	0.000000e+00	8.235294e-01	1.118761e+14	1.539864e+14	1.895211e+13	5.907658e+03	4.111488e+03	2.568862e+03	0	5.199375e-04
1.280000e+09	6.039989e+12	0.000000e+00	8.235294e-01	1.108590e+14	1.526929e+14	1.887256e+13	5.896339e+03	4.105379e+03	2.565045e+03	0	5.182235e-04
1.290000e+09	5.980769e+12	0.000000e+00	8.235294e-01	1.098572e+14	1.514181e+14	1.879354e+13	5.885123e+03	4.099321e+03	2.561260e+03	0	5.165242e-04
1.300000e+09	5.922439e+12	0.000000e+00	8.235294e-01	1.088702e+14	1.501615e+14	1.871503e+13	5.874008e+03	4.093313e+03	2.557506e+03	0	5.148395e-04
1.310000e+09	5.864980e+12	0.000000e+00	8.235294e-01	1.078979e+14	1.489229e+14	1.863704e+13	5.862993e+03	4.087354e+03	2.553783e+03	0	5.131692e-04
1.320000e+09	5.808375e+12	0.000000e+00	8.235294e-01	1.069400e+14	1.477017e+14	1.855956e+13	5.852076e+03	4.081444e+03	2.550091e+03	0	5.115129e-04
1.330000e+09	5.752607e+12	0.000000e+00	8.235294e-01	1.059960e+14	1.464977e+14	1.848259e+13	5.841255e+03	4.075582e+03	2.546428e+03	0	5.098706e-04
1.340000e+09	5.697658e+12	0.000000e+00	8.235294e-01	1.050659e+14	1.453105e+14	1.840612e+13	5.830529e+03	4.069768e+03	2.542795e+03	0	5.082419e-04
1.350000e+09	5.643511e+12	0.000000e+00	8.235294e-01	1.041492e+14	1.441398e+14	1.833014e+13	5.819897e+03	4.064000e+03	2.539192e+03	0	5.066268e-04
1.360000e+09	5.590152e+12	0.000000e+00	8.235294e-01	1.032457e+14	1.429853e+14	1.825467e+13	5.809358e+03	4.058278e+03	2.535617e+03	0	5.050251e-04
