#t		Qconv[W]	Ri[Rp]		R*[Rp]		Qc[W]		Qm[W]		Qr[W]		Tcmb[K]		Tl[K]		Tup[K]		RiFlag		Bs[T]
0.000000e+00	9.877779e+10	0.000000e+00	8.222222e-01	2.059082e+13	6.332431e+13	5.216837e+13	4.630676e+03	2.720320e+03	2.268064e+03	0	1.295646e-04
1.000000e+07	9.699563e+10	0.000000e+00	8.222222e-01	2.056161e+13	6.354806e+13	5.187931e+13	4.629349e+03	2.721810e+03	2.269307e+03	0	1.287807e-04
2.000000e+07	9.518761e+10	0.000000e+00	8.222222e-01	2.053206e+13	6.375932e+13	5.159243e+13	4.628023e+03	2.723213e+03	2.270477e+03	0	1.279755e-04
3.000000e+07	9.335507e+10	0.000000e+00	8.222222e-01	2.050220e+13	6.395834e+13	5.130768e+13	4.626700e+03	2.724532e+03	2.271577e+03	0	1.271489e-04
4.000000e+07	9.149930e+10	0.000000e+00	8.222222e-01	2.047203e+13	6.414537e+13	5.102506e+13	4.625379e+03	2.725769e+03	2.272608e+03	0	1.263007e-04
5.000000e+07	8.962153e+10	0.000000e+00	8.222222e-01	2.044158e+13	6.432067e+13	5.074455e+13	4.624059e+03	2.726925e+03	2.273572e+03	0	1.254308e-04
6.000000e+07	8.772293e+10	0.000000e+00	8.222222e-01	2.041086e+13	6.448450e+13	5.046613e+13	4.622742e+03	2.728004e+03	2.274471e+03	0	1.245387e-04
7.000000e+07	8.580465e+10	0.000000e+00	8.222222e-01	2.037989e+13	6.463711e+13	5.018978e+13	4.621426e+03	2.729007e+03	2.275308e+03	0	1.236242e-04
8.000000e+07	8.386774e+10	0.000000e+00	8.222222e-01	2.034868e+13	6.477876e+13	4.991549e+13	4.620113e+03	2.729937e+03	2.276083e+03	0	1.226869e-04
9.000000e+07	8.191325e+10	0.000000e+00	8.222222e-01	2.031724e+13	6.490971e+13	4.964324e+13	4.618801e+03	2.730794e+03	2.276798e+03	0	1.217264e-04
1.000000e+08	7.994216e+10	0.000000e+00	8.222222e-01	2.028559e+13	6.503021e+13	4.937301e+13	4.617491e+03	2.731583e+03	2.277455e+03	0	1.207421e-04
1.100000e+08	7.795541e+10	0.000000e+00	8.222222e-01	2.025374e+13	6.514053e+13	4.910478e+13	4.616184e+03	2.732303e+03	2.278056e+03	0	1.197334e-04
1.200000e+08	7.595391e+10	0.000000e+00	8.222222e-01	2.022171e+13	6.524092e+13	4.883854e+13	4.614879e+03	2.732958e+03	2.278602e+03	0	1.186998e-04
1.300000e+08	7.393851e+10	0.000000e+00	8.222222e-01	2.018949e+13	6.533164e+13	4.857428e+13	4.613575e+03	2.733550e+03	2.279095e+03	0	1.176405e-04
1.400000e+08	7.191004e+10	0.000000e+00	8.222222e-01	2.015712e+13	6.541292e+13	4.831197e+13	4.612274e+03	2.734079e+03	2.279536e+03	0	1.165547e-04
1.500000e+08	6.986928e+10	0.000000e+00	8.222222e-01	2.012459e+13	6.548504e+13	4.805160e+13	4.610975e+03	2.734548e+03	2.279927e+03	0	1.154415e-04
1.600000e+08	6.781699e+10	0.000000e+00	8.222222e-01	2.009191e+13	6.554823e+13	4.779315e+13	4.609678e+03	2.734959e+03	2.280270e+03	0	1.143000e-04
1.700000e+08	6.575389e+10	0.000000e+00	8.222222e-01	2.005910e+13	6.560274e+13	4.753661e+13	4.608383e+03	2.735313e+03	2.280565e+03	0	1.131290e-04
1.800000e+08	6.368067e+10	0.000000e+00	8.222222e-01	2.002616e+13	6.564881e+13	4.728196e+13	4.607090e+03	2.735612e+03	2.280814e+03	0	1.119273e-04
1.900000e+08	6.159798e+10	0.000000e+00	8.222222e-01	1.999311e+13	6.568668e+13	4.702918e+13	4.605799e+03	2.735858e+03	2.281019e+03	0	1.106935e-04
2.000000e+08	5.950645e+10	0.000000e+00	8.222222e-01	1.995994e+13	6.571658e+13	4.677827e+13	4.604510e+03	2.736052e+03	2.281181e+03	0	1.094262e-04
2.100000e+08	5.740668e+10	0.000000e+00	8.222222e-01	1.992668e+13	6.573875e+13	4.652920e+13	4.603224e+03	2.736195e+03	2.281301e+03	0	1.081237e-04
2.200000e+08	5.529926e+10	0.000000e+00	8.222222e-01	1.989332e+13	6.575341e+13	4.628196e+13	4.601939e+03	2.736290e+03	2.281380e+03	0	1.067841e-04
2.300000e+08	5.318472e+10	0.000000e+00	8.222222e-01	1.985988e+13	6.576079e+13	4.603653e+13	4.600657e+03	2.736338e+03	2.281420e+03	0	1.054053e-04
2.400000e+08	5.106359e+10	0.000000e+00	8.222222e-01	1.982636e+13	6.576113e+13	4.579291e+13	4.599377e+03	2.736340e+03	2.281422e+03	0	1.039849e-04
2.500000e+08	4.893638e+10	0.000000e+00	8.222222e-01	1.979277e+13	6.575461e+13	4.555107e+13	4.598099e+03	2.736298e+03	2.281387e+03	0	1.025205e-04
2.600000e+08	4.680356e+10	0.000000e+00	8.222222e-01	1.975911e+13	6.574146e+13	4.531099e+13	4.596824e+03	2.736213e+03	2.281315e+03	0	1.010089e-04
2.700000e+08	4.466561e+10	0.000000e+00	8.222222e-01	1.972539e+13	6.572189e+13	4.507268e+13	4.595550e+03	2.736086e+03	2.281210e+03	0	9.944686e-05
2.800000e+08	4.252294e+10	0.000000e+00	8.222222e-01	1.969162e+13	6.569611e+13	4.483610e+13	4.594279e+03	2.735919e+03	2.281070e+03	0	9.783054e-05
2.900000e+08	4.037600e+10	0.000000e+00	8.222222e-01	1.965780e+13	6.566431e+13	4.460125e+13	4.593009e+03	2.735713e+03	2.280898e+03	0	9.615557e-05
3.000000e+08	3.822517e+10	0.000000e+00	8.222222e-01	1.962394e+13	6.562670e+13	4.436812e+13	4.591742e+03	2.735468e+03	2.280695e+03	0	9.441692e-05
3.100000e+08	3.607085e+10	0.000000e+00	8.222222e-01	1.959004e+13	6.558345e+13	4.413668e+13	4.590478e+03	2.735188e+03	2.280461e+03	0	9.260878e-05
3.200000e+08	3.391341e+10	0.000000e+00	8.222222e-01	1.955611e+13	6.553477e+13	4.390692e+13	4.589215e+03	2.734871e+03	2.280197e+03	0	9.072434e-05
3.300000e+08	3.175319e+10	0.000000e+00	8.222222e-01	1.952215e+13	6.548083e+13	4.367884e+13	4.587954e+03	2.734521e+03	2.279905e+03	0	8.875561e-05
3.400000e+08	2.959054e+10	0.000000e+00	8.222222e-01	1.948817e+13	6.542183e+13	4.345241e+13	4.586696e+03	2.734137e+03	2.279584e+03	0	8.669305e-05
3.500000e+08	2.742577e+10	0.000000e+00	8.222222e-01	1.945417e+13	6.535791e+13	4.322762e+13	4.585440e+03	2.733721e+03	2.279238e+03	0	8.452522e-05
3.600000e+08	2.525920e+10	0.000000e+00	8.222222e-01	1.942015e+13	6.528927e+13	4.300447e+13	4.584186e+03	2.733274e+03	2.278865e+03	0	8.223813e-05
3.700000e+08	2.309113e+10	0.000000e+00	8.222222e-01	1.938613e+13	6.521607e+13	4.278293e+13	4.582934e+03	2.732796e+03	2.278467e+03	0	7.981449e-05
3.800000e+08	2.092184e+10	0.000000e+00	8.222222e-01	1.935209e+13	6.513847e+13	4.256299e+13	4.581685e+03	2.732290e+03	2.278045e+03	0	7.723248e-05
3.900000e+08	1.875160e+10	0.000000e+00	8.222222e-01	1.931806e+13	6.505662e+13	4.234465e+13	4.580437e+03	2.731755e+03	2.277599e+03	0	7.446396e-05
4.000000e+08	1.658068e+10	0.000000e+00	8.222222e-01	1.928402e+13	6.497069e+13	4.212788e+13	4.579192e+03	2.731194e+03	2.277131e+03	0	7.147170e-05
4.100000e+08	1.440931e+10	0.000000e+00	8.222222e-01	1.924999e+13	6.488083e+13	4.191267e+13	4.577949e+03	2.730605e+03	2.276640e+03	0	6.820472e-05
4.200000e+08	1.223775e+10	0.000000e+00	8.222222e-01	1.921596e+13	6.478718e+13	4.169902e+13	4.576709e+03	2.729992e+03	2.276129e+03	0	6.459029e-05
4.300000e+08	1.006623e+10	0.000000e+00	8.222222e-01	1.918194e+13	6.468988e+13	4.148690e+13	4.575470e+03	2.729354e+03	2.275597e+03	0	6.051860e-05
4.400000e+08	7.894950e+09	0.000000e+00	8.222222e-01	1.914794e+13	6.458908e+13	4.127631e+13	4.574234e+03	2.728692e+03	2.275045e+03	0	5.581057e-05
4.500000e+08	5.724137e+09	0.000000e+00	8.222222e-01	1.911395e+13	6.448492e+13	4.106723e+13	4.572999e+03	2.728007e+03	2.274474e+03	0	5.013835e-05
4.600000e+08	3.553991e+09	0.000000e+00	8.222222e-01	1.907997e+13	6.437751e+13	4.085966e+13	4.571767e+03	2.727300e+03	2.273884e+03	0	4.277324e-05
4.700000e+08	1.384704e+09	0.000000e+00	8.222222e-01	1.904602e+13	6.426699e+13	4.065357e+13	4.570538e+03	2.726571e+03	2.273277e+03	0	3.124058e-05
4.800000e+08	-7.835362e+08	0.000000e+00	8.222222e-01	1.901209e+13	6.415347e+13	4.044896e+13	4.569310e+03	2.725822e+03	2.272652e+03	0	nan
