#t		Qconv[W]	Ri[Rp]		R*[Rp]		Qc[W]		Qm[W]		Qr[W]		Tcmb[K]		Tl[K]		Tup[K]		RiFlag		Bs[T]
0.000000e+00	3.802373e+14	0.000000e+00	8.208953e-01	3.721142e+15	6.841158e+13	1.175703e+14	1.631648e+04	4.549640e+03	2.589632e+03	0	1.954675e-03
1.000000e+07	3.810128e+14	0.000000e+00	8.208953e-01	3.725784e+15	1.081724e+14	1.169189e+14	1.623918e+04	4.866812e+03	2.770164e+03	0	1.956003e-03
2.000000e+07	3.803066e+14	0.000000e+00	8.208953e-01	3.717618e+15	1.627128e+14	1.162723e+14	1.616179e+04	5.180354e+03	2.948631e+03	0	1.954793e-03
3.000000e+07	3.781498e+14	0.000000e+00	8.208953e-01	3.696919e+15	2.341631e+14	1.156306e+14	1.608457e+04	5.487838e+03	3.123649e+03	0	1.951091e-03
4.000000e+07	3.746188e+14	0.000000e+00	8.208953e-01	3.664356e+15	3.238877e+14	1.149937e+14	1.600778e+04	5.786714e+03	3.293768e+03	0	1.944999e-03
5.000000e+07	3.698349e+14	0.000000e+00	8.208953e-01	3.620981e+15	4.322052e+14	1.143615e+14	1.593166e+04	6.074412e+03	3.457524e+03	0	1.936685e-03
6.000000e+07	3.639583e+14	0.000000e+00	8.208953e-01	3.568187e+15	5.582141e+14	1.137340e+14	1.585644e+04	6.348476e+03	3.613520e+03	0	1.926372e-03
7.000000e+07	3.571792e+14	0.000000e+00	8.208953e-01	3.507622e+15	6.997682e+14	1.131112e+14	1.578231e+04	6.606699e+03	3.760499e+03	0	1.914337e-03
8.000000e+07	3.497049e+14	0.000000e+00	8.208953e-01	3.441082e+15	8.536182e+14	1.124931e+14	1.570943e+04	6.847239e+03	3.897413e+03	0	1.900889e-03
9.000000e+07	3.417464e+14	0.000000e+00	8.208953e-01	3.370394e+15	1.015700e+15	1.118795e+14	1.563794e+04	7.068720e+03	4.023479e+03	0	1.886359e-03
1.000000e+08	3.335052e+14	0.000000e+00	8.208953e-01	3.297301e+15	1.181520e+15	1.112705e+14	1.556790e+04	7.270283e+03	4.138208e+03	0	1.871072e-03
1.100000e+08	3.251623e+14	0.000000e+00	8.208953e-01	3.223371e+15	1.346566e+15	1.106660e+14	1.549938e+04	7.451601e+03	4.241413e+03	0	1.855338e-03
1.200000e+08	3.168711e+14	0.000000e+00	8.208953e-01	3.149927e+15	1.506674e+15	1.100660e+14	1.543240e+04	7.612847e+03	4.333193e+03	0	1.839432e-03
1.300000e+08	3.087533e+14	0.000000e+00	8.208953e-01	3.078023e+15	1.658320e+15	1.094704e+14	1.536693e+04	7.754633e+03	4.413897e+03	0	1.823588e-03
1.400000e+08	3.008991e+14	0.000000e+00	8.208953e-01	3.008437e+15	1.798774e+15	1.088792e+14	1.530295e+04	7.877926e+03	4.484075e+03	0	1.807992e-03
1.500000e+08	2.933692e+14	0.000000e+00	8.208953e-01	2.941692e+15	1.926158e+15	1.082924e+14	1.524042e+04	7.983953e+03	4.544425e+03	0	1.792783e-03
1.600000e+08	2.861990e+14	0.000000e+00	8.208953e-01	2.878093e+15	2.039409e+15	1.077100e+14	1.517927e+04	8.074109e+03	4.595741e+03	0	1.778057e-03
1.700000e+08	2.794035e+14	0.000000e+00	8.208953e-01	2.817768e+15	2.138171e+15	1.071318e+14	1.511943e+04	8.149875e+03	4.638867e+03	0	1.763871e-03
1.800000e+08	2.729822e+14	0.000000e+00	8.208953e-01	2.760708e+15	2.222660e+15	1.065579e+14	1.506085e+04	8.212746e+03	4.674653e+03	0	1.750254e-03
1.900000e+08	2.669232e+14	0.000000e+00	8.208953e-01	2.706813e+15	2.293517e+15	1.059883e+14	1.500344e+04	8.264182e+03	4.703930e+03	0	1.737207e-03
2.000000e+08	2.612075e+14	0.000000e+00	8.208953e-01	2.655914e+15	2.351673e+15	1.054228e+14	1.494716e+04	8.305564e+03	4.727484e+03	0	1.724718e-03
2.100000e+08	2.558119e+14	0.000000e+00	8.208953e-01	2.607810e+15	2.398229e+15	1.048615e+14	1.489193e+04	8.338174e+03	4.746046e+03	0	1.712760e-03
2.200000e+08	2.507112e+14	0.000000e+00	8.208953e-01	2.562281e+15	2.434370e+15	1.043043e+14	1.483769e+04	8.363180e+03	4.760279e+03	0	1.701300e-03
2.300000e+08	2.458798e+14	0.000000e+00	8.208953e-01	2.519105e+15	2.461280e+15	1.037512e+14	1.478440e+04	8.381631e+03	4.770781e+03	0	1.690300e-03
2.400000e+08	2.412930e+14	0.000000e+00	8.208953e-01	2.478066e+15	2.480110e+15	1.032021e+14	1.473200e+04	8.394457e+03	4.778082e+03	0	1.679724e-03
2.500000e+08	2.369273e+14	0.000000e+00	8.208953e-01	2.438961e+15	2.491935e+15	1.026571e+14	1.468046e+04	8.402477e+03	4.782646e+03	0	1.669532e-03
2.600000e+08	2.327616e+14	0.000000e+00	8.208953e-01	2.401606e+15	2.497741e+15	1.021160e+14	1.462972e+04	8.406404e+03	4.784882e+03	0	1.659689e-03
2.700000e+08	2.287762e+14	0.000000e+00	8.208953e-01	2.365830e+15	2.498412e+15	1.015790e+14	1.457976e+04	8.406857e+03	4.785140e+03	0	1.650162e-03
2.800000e+08	2.249540e+14	0.000000e+00	8.208953e-01	2.331484e+15	2.494735e+15	1.010458e+14	1.453054e+04	8.404372e+03	4.783725e+03	0	1.640920e-03
2.900000e+08	2.212794e+14	0.000000e+00	8.208953e-01	2.298433e+15	2.487402e+15	1.005165e+14	1.448203e+04	8.399406e+03	4.780898e+03	0	1.631936e-03
3.000000e+08	2.177388e+14	0.000000e+00	8.208953e-01	2.266559e+15	2.477014e+15	9.999110e+13	1.443420e+04	8.392353e+03	4.776884e+03	0	1.623186e-03
3.100000e+08	2.143205e+14	0.000000e+00	8.208953e-01	2.235758e+15	2.464088e+15	9.946951e+13	1.438704e+04	8.383548e+03	4.771872e+03	0	1.614647e-03
3.200000e+08	2.110138e+14	0.000000e+00	8.208953e-01	2.205939e+15	2.449071e+15	9.895172e+13	1.434052e+04	8.373279e+03	4.766027e+03	0	1.606300e-03
3.300000e+08	2.078097e+14	0.000000e+00	8.208953e-01	2.177024e+15	2.432348e+15	9.843769e+13	1.429461e+04	8.361788e+03	4.759487e+03	0	1.598128e-03
3.400000e+08	2.047002e+14	0.000000e+00	8.208953e-01	2.148942e+15	2.414237e+15	9.792740e+13	1.424930e+04	8.349283e+03	4.752369e+03	0	1.590117e-03
3.500000e+08	2.016782e+14	0.000000e+00	8.208953e-01	2.121632e+15	2.395019e+15	9.742081e+13	1.420457e+04	8.335939e+03	4.744774e+03	0	1.582253e-03
3.600000e+08	1.987377e+14	0.000000e+00	8.208953e-01	2.095042e+15	2.374926e+15	9.691789e+13	1.416041e+04	8.321907e+03	4.736787e+03	0	1.574526e-03
3.700000e+08	1.958734e+14	0.000000e+00	8.208953e-01	2.069124e+15	2.354152e+15	9.641861e+13	1.411680e+04	8.307312e+03	4.728479e+03	0	1.566924e-03
3.800000e+08	1.930804e+14	0.000000e+00	8.208953e-01	2.043837e+15	2.332868e+15	9.592295e+13	1.407373e+04	8.292262e+03	4.719913e+03	0	1.559441e-03
3.900000e+08	1.903545e+14	0.000000e+00	8.208953e-01	2.019144e+15	2.311208e+15	9.543087e+13	1.403119e+04	8.276848e+03	4.711139e+03	0	1.552068e-03
4.000000e+08	1.876922e+14	0.000000e+00	8.208953e-01	1.995015e+15	2.289292e+15	9.494234e+13	1.398915e+04	8.261147e+03	4.702202e+03	0	1.544798e-03
4.100000e+08	1.850901e+14	0.000000e+00	8.208953e-01	1.971418e+15	2.267219e+15	9.445734e+13	1.394762e+04	8.245224e+03	4.693139e+03	0	1.537626e-03
4.200000e+08	1.825452e+14	0.000000e+00	8.208953e-01	1.948329e+15	2.245067e+15	9.397583e+13	1.390657e+04	8.229135e+03	4.683981e+03	0	1.530546e-03
4.300000e+08	1.800549e+14	0.000000e+00	8.208953e-01	1.925725e+15	2.222906e+15	9.349779e+13	1.386600e+04	8.212927e+03	4.674756e+03	0	1.523554e-03
4.400000e+08	1.776168e+14	0.000000e+00	8.208953e-01	1.903585e+15	2.200793e+15	9.302319e+13	1.382591e+04	8.196639e+03	4.665484e+03	0	1.516646e-03
4.500000e+08	1.752287e+14	0.000000e+00	8.208953e-01	1.881890e+15	2.178773e+15	9.255200e+13	1.378627e+04	8.180304e+03	4.656187e+03	0	1.509818e-03
4.600000e+08	1.728888e+14	0.000000e+00	8.208953e-01	1.860622e+15	2.156885e+15	9.208419e+13	1.374708e+04	8.163951e+03	4.646879e+03	0	1.503068e-03
4.700000e+08	1.705951e+14	0.000000e+00	8.208953e-01	1.839765e+15	2.135162e+15	9.161973e+13	1.370833e+04	8.147604e+03	4.637574e+03	0	1.496391e-03
4.800000e+08	1.683460e+14	0.000000e+00	8.208953e-01	1.819306e+15	2.113628e+15	9.115861e+13	1.367001e+04	8.131282e+03	4.628284e+03	0	1.489786e-03
4.900000e+08	1.661400e+14	0.000000e+00	8.208953e-01	1.799230e+15	2.092305e+15	9.070079e+13	1.363212e+04	8.115004e+03	4.619018e+03	0	1.483250e-03
5.000000e+08	1.639756e+14	0.000000e+00	8.208953e-01	1.779526e+15	2.071208e+15	9.024624e+13	1.359465e+04	8.098783e+03	4.609785e+03	0	1.476781e-03
5.100000e+08	1.618516e+14	0.000000e+00	8.208953e-01	1.760181e+15	2.050351e+15	8.979493e+13	1.355758e+04	8.082630e+03	4.600591e+03	0	1.470377e-03
5.200000e+08	1.597667e+14	0.000000e+00	8.208953e-01	1.741185e+15	2.029745e+15	8.934685e+13	1.352092e+04	8.066557e+03	4.591443e+03	0	1.464036e-03
5.300000e+08	1.577198e+14	0.000000e+00	8.208953e-01	1.722527e+15	2.009396e+15	8.890196e+13	1.348465e+04	8.050570e+03	4.582343e+03	0	1.457756e-03
5.400000e+08	1.557096e+14	0.000000e+00	8.208953e-01	1.704198e+15	1.989312e+15	8.846025e+13	1.344877e+04	8.034678e+03	4.573297e+03	0	1.451537e-03
5.500000e+08	1.537354e+14	0.000000e+00	8.208953e-01	1.686189e+15	1.969494e+15	8.802167e+13	1.341327e+04	8.018885e+03	4.564308e+03	0	1.445376e-03
5.600000e+08	1.517959e+14	0.000000e+00	8.208953e-01	1.668490e+15	1.949947e+15	8.758622e+13	1.337814e+04	8.003197e+03	4.555378e+03	0	1.439272e-03
5.700000e+08	1.498903e+14	0.000000e+00	8.208953e-01	1.651095e+15	1.930670e+15	8.715385e+13	1.334338e+04	7.987616e+03	4.546510e+03	0	1.433224e-03
5.800000e+08	1.480178e+14	0.000000e+00	8.208953e-01	1.633994e+15	1.911666e+15	8.672456e+13	1.330898e+04	7.972146e+03	4.537705e+03	0	1.427231e-03
5.900000e+08	1.461775e+14	0.000000e+00	8.208953e-01	1.617182e+15	1.892932e+15	8.629830e+13	1.327493e+04	7.956790e+03	4.528964e+03	0	1.421291e-03
6.000000e+08	1.443685e+14	0.000000e+00	8.208953e-01	1.600649e+15	1.874467e+15	8.587507e+13	1.324123e+04	7.941548e+03	4.520288e+03	0	1.415404e-03
6.100000e+08	1.425902e+14	0.000000e+00	8.208953e-01	1.584391e+15	1.856269e+15	8.545482e+13	1.320788e+04	7.926422e+03	4.511679e+03	0	1.409568e-03
6.200000e+08	1.408416e+14	0.000000e+00	8.208953e-01	1.568399e+15	1.838338e+15	8.503755e+13	1.317487e+04	7.911413e+03	4.503136e+03	0	1.403783e-03
6.300000e+08	1.391223e+14	0.000000e+00	8.208953e-01	1.552668e+15	1.820669e+15	8.462322e+13	1.314218e+04	7.896522e+03	4.494660e+03	0	1.398047e-03
6.400000e+08	1.374314e+14	0.000000e+00	8.208953e-01	1.537192e+15	1.803259e+15	8.421182e+13	1.310983e+04	7.881748e+03	4.486251e+03	0	1.392360e-03
6.500000e+08	1.357683e+14	0.000000e+00	8.208953e-01	1.521964e+15	1.786105e+15	8.380331e+13	1.307779e+04	7.867093e+03	4.477909e+03	0	1.386721e-03
6.600000e+08	1.341323e+14	0.000000e+00	8.208953e-01	1.506980e+15	1.769204e+15	8.339768e+13	1.304607e+04	7.852554e+03	4.469633e+03	0	1.381128e-03
6.700000e+08	1.325229e+14	0.000000e+00	8.208953e-01	1.492233e+15	1.752552e+15	8.299490e+13	1.301466e+04	7.838133e+03	4.461425e+03	0	1.375582e-03
6.800000e+08	1.309394e+14	0.000000e+00	8.208953e-01	1.477719e+15	1.736144e+15	8.259495e+13	1.298356e+04	7.823828e+03	4.453283e+03	0	1.370081e-03
6.900000e+08	1.293813e+14	0.000000e+00	8.208953e-01	1.463431e+15	1.719979e+15	8.219780e+13	1.295276e+04	7.809640e+03	4.445207e+03	0	1.364625e-03
7.000000e+08	1.278480e+14	0.000000e+00	8.208953e-01	1.449367e+15	1.704050e+15	8.180344e+13	1.292226e+04	7.795566e+03	4.437196e+03	0	1.359213e-03
7.100000e+08	1.263389e+14	0.000000e+00	8.208953e-01	1.435519e+15	1.688355e+15	8.141184e+13	1.289205e+04	7.781607e+03	4.429250e+03	0	1.353844e-03
7.200000e+08	1.248536e+14	0.000000e+00	8.208953e-01	1.421885e+15	1.672890e+15	8.102297e+13	1.286212e+04	7.767760e+03	4.421369e+03	0	1.348518e-03
7.300000e+08	1.233916e+14	0.000000e+00	8.208953e-01	1.408458e+15	1.657649e+15	8.063683e+13	1.283248e+04	7.754027e+03	4.413552e+03	0	1.343233e-03
7.400000e+08	1.219522e+14	0.000000e+00	8.208953e-01	1.395236e+15	1.642631e+15	8.025338e+13	1.280312e+04	7.740404e+03	4.405798e+03	0	1.337990e-03
7.500000e+08	1.205351e+14	0.000000e+00	8.208953e-01	1.382213e+15	1.627830e+15	7.987260e+13	1.277403e+04	7.726892e+03	4.398107e+03	0	1.332787e-03
7.600000e+08	1.191398e+14	0.000000e+00	8.208953e-01	1.369386e+15	1.613243e+15	7.949448e+13	1.274522e+04	7.713488e+03	4.390478e+03	0	1.327624e-03
7.700000e+08	1.177658e+14	0.000000e+00	8.208953e-01	1.356750e+15	1.598865e+15	7.911898e+13	1.271667e+04	7.700193e+03	4.382910e+03	0	1.322501e-03
7.800000e+08	1.164127e+14	0.000000e+00	8.208953e-01	1.344302e+15	1.584694e+15	7.874610e+13	1.268838e+04	7.687004e+03	4.375403e+03	0	1.317416e-03
7.900000e+08	1.150801e+14	0.000000e+00	8.208953e-01	1.332038e+15	1.570724e+15	7.837581e+13	1.266035e+04	7.673921e+03	4.367956e+03	0	1.312370e-03
8.000000e+08	1.137675e+14	0.000000e+00	8.208953e-01	1.319953e+15	1.556953e+15	7.800808e+13	1.263258e+04	7.660942e+03	4.360569e+03	0	1.307361e-03
8.100000e+08	1.124745e+14	0.000000e+00	8.208953e-01	1.308045e+15	1.543377e+15	7.764290e+13	1.260506e+04	7.648066e+03	4.353240e+03	0	1.302390e-03
8.200000e+08	1.112008e+14	0.000000e+00	8.208953e-01	1.296310e+15	1.529993e+15	7.728025e+13	1.257778e+04	7.635292e+03	4.345969e+03	0	1.297455e-03
8.300000e+08	1.099460e+14	0.000000e+00	8.208953e-01	1.284744e+15	1.516796e+15	7.692011e+13	1.255075e+04	7.622619e+03	4.338756e+03	0	1.292556e-03
8.400000e+08	1.087096e+14	0.000000e+00	8.208953e-01	1.273344e+15	1.503783e+15	7.656245e+13	1.252396e+04	7.610046e+03	4.331599e+03	0	1.287693e-03
8.500000e+08	1.074913e+14	0.000000e+00	8.208953e-01	1.262107e+15	1.490951e+15	7.620727e+13	1.249741e+04	7.597571e+03	4.324498e+03	0	1.282864e-03
8.600000e+08	1.062908e+14	0.000000e+00	8.208953e-01	1.251030e+15	1.478297e+15	7.585453e+13	1.247109e+04	7.585194e+03	4.317453e+03	0	1.278070e-03
8.700000e+08	1.051076e+14	0.000000e+00	8.208953e-01	1.240110e+15	1.465818e+15	7.550422e+13	1.244500e+04	7.572912e+03	4.310462e+03	0	1.273311e-03
8.800000e+08	1.039416e+14	0.000000e+00	8.208953e-01	1.229342e+15	1.453509e+15	7.515632e+13	1.241913e+04	7.560725e+03	4.303526e+03	0	1.268584e-03
8.900000e+08	1.027923e+14	0.000000e+00	8.208953e-01	1.218726e+15	1.441368e+15	7.481080e+13	1.239349e+04	7.548632e+03	4.296643e+03	0	1.263891e-03
9.000000e+08	1.016594e+14	0.000000e+00	8.208953e-01	1.208257e+15	1.429393e+15	7.446766e+13	1.236808e+04	7.536632e+03	4.289812e+03	0	1.259231e-03
9.100000e+08	1.005426e+14	0.000000e+00	8.208953e-01	1.197933e+15	1.417578e+15	7.412688e+13	1.234287e+04	7.524723e+03	4.283034e+03	0	1.254603e-03
9.200000e+08	9.944154e+13	0.000000e+00	8.208953e-01	1.187752e+15	1.405924e+15	7.378842e+13	1.231789e+04	7.512905e+03	4.276307e+03	0	1.250006e-03
9.300000e+08	9.835601e+13	0.000000e+00	8.208953e-01	1.177709e+15	1.394425e+15	7.345228e+13	1.229311e+04	7.501176e+03	4.269631e+03	0	1.245441e-03
9.400000e+08	9.728568e+13	0.000000e+00	8.208953e-01	1.167804e+15	1.383079e+15	7.311844e+13	1.226855e+04	7.489535e+03	4.263005e+03	0	1.240907e-03
9.500000e+08	9.623026e+13	0.000000e+00	8.208953e-01	1.158033e+15	1.371884e+15	7.278688e+13	1.224419e+04	7.477982e+03	4.256429e+03	0	1.236403e-03
9.600000e+08	9.518948e+13	0.000000e+00	8.208953e-01	1.148394e+15	1.360837e+15	7.245758e+13	1.222003e+04	7.466514e+03	4.249901e+03	0	1.231930e-03
9.700000e+08	9.416306e+13	0.000000e+00	8.208953e-01	1.138885e+15	1.349934e+15	7.213052e+13	1.219608e+04	7.455132e+03	4.243422e+03	0	1.227486e-03
9.800000e+08	9.315073e+13	0.000000e+00	8.208953e-01	1.129503e+15	1.339175e+15	7.180569e+13	1.217232e+04	7.443833e+03	4.236992e+03	0	1.223071e-03
9.900000e+08	9.215225e+13	0.000000e+00	8.208953e-01	1.120245e+15	1.328555e+15	7.148306e+13	1.214876e+04	7.432618e+03	4.230608e+03	0	1.218685e-03
1.000000e+09	9.116734e+13	0.000000e+00	8.208953e-01	1.111110e+15	1.318073e+15	7.116262e+13	1.212539e+04	7.421485e+03	4.224271e+03	0	1.214328e-03
1.010000e+09	9.019577e+13	0.000000e+00	8.208953e-01	1.102095e+15	1.307726e+15	7.084436e+13	1.210220e+04	7.410432e+03	4.217980e+03	0	1.209999e-03
1.020000e+09	8.923729e+13	0.000000e+00	8.208953e-01	1.093198e+15	1.297512e+15	7.052826e+13	1.207921e+04	7.399460e+03	4.211735e+03	0	1.205698e-03
1.030000e+09	8.829166e+13	0.000000e+00	8.208953e-01	1.084418e+15	1.287428e+15	7.021429e+13	1.205640e+04	7.388567e+03	4.205534e+03	0	1.201424e-03
1.040000e+09	8.735866e+13	0.000000e+00	8.208953e-01	1.075751e+15	1.277472e+15	6.990244e+13	1.203378e+04	7.377752e+03	4.199379e+03	0	1.197177e-03
1.050000e+09	8.643806e+13	0.000000e+00	8.208953e-01	1.067197e+15	1.267643e+15	6.959270e+13	1.201133e+04	7.367015e+03	4.193267e+03	0	1.192956e-03
1.060000e+09	8.552964e+13	0.000000e+00	8.208953e-01	1.058752e+15	1.257936e+15	6.928505e+13	1.198907e+04	7.356354e+03	4.187199e+03	0	1.188763e-03
1.070000e+09	8.463318e+13	0.000000e+00	8.208953e-01	1.050415e+15	1.248352e+15	6.897948e+13	1.196698e+04	7.345768e+03	4.181173e+03	0	1.184595e-03
1.080000e+09	8.374847e+13	0.000000e+00	8.208953e-01	1.042185e+15	1.238887e+15	6.867595e+13	1.194506e+04	7.335257e+03	4.175191e+03	0	1.180453e-03
1.090000e+09	8.287530e+13	0.000000e+00	8.208953e-01	1.034059e+15	1.229540e+15	6.837447e+13	1.192331e+04	7.324820e+03	4.169250e+03	0	1.176336e-03
1.100000e+09	8.201348e+13	0.000000e+00	8.208953e-01	1.026035e+15	1.220308e+15	6.807502e+13	1.190173e+04	7.314456e+03	4.163350e+03	0	1.172244e-03
1.110000e+09	8.116280e+13	0.000000e+00	8.208953e-01	1.018113e+15	1.211190e+15	6.777757e+13	1.188032e+04	7.304163e+03	4.157492e+03	0	1.168177e-03
1.120000e+09	8.032307e+13	0.000000e+00	8.208953e-01	1.010289e+15	1.202183e+15	6.748211e+13	1.185908e+04	7.293942e+03	4.151674e+03	0	1.164134e-03
1.130000e+09	7.949410e+13	0.000000e+00	8.208953e-01	1.002562e+15	1.193286e+15	6.718863e+13	1.183799e+04	7.283791e+03	4.145896e+03	0	1.160116e-03
1.140000e+09	7.867572e+13	0.000000e+00	8.208953e-01	9.949317e+14	1.184497e+15	6.689712e+13	1.181707e+04	7.273710e+03	4.140158e+03	0	1.156121e-03
1.150000e+09	7.786772e+13	0.000000e+00	8.208953e-01	9.873951e+14	1.175814e+15	6.660755e+13	1.179631e+04	7.263698e+03	4.134459e+03	0	1.152149e-03
1.160000e+09	7.706995e+13	0.000000e+00	8.208953e-01	9.799510e+14	1.167236e+15	6.631991e+13	1.177570e+04	7.253753e+03	4.128799e+03	0	1.148201e-03
1.170000e+09	7.628222e+13	0.000000e+00	8.208953e-01	9.725979e+14	1.158760e+15	6.603419e+13	1.175525e+04	7.243876e+03	4.123177e+03	0	1.144276e-03
1.180000e+09	7.550437e+13	0.000000e+00	8.208953e-01	9.653342e+14	1.150386e+15	6.575036e+13	1.173495e+04	7.234066e+03	4.117593e+03	0	1.140373e-03
1.190000e+09	7.473623e+13	0.000000e+00	8.208953e-01	9.581584e+14	1.142110e+15	6.546843e+13	1.171480e+04	7.224321e+03	4.112046e+03	0	1.136493e-03
1.200000e+09	7.397764e+13	0.000000e+00	8.208953e-01	9.510692e+14	1.133932e+15	6.518837e+13	1.169481e+04	7.214641e+03	4.106536e+03	0	1.132634e-03
1.210000e+09	7.322844e+13	0.000000e+00	8.208953e-01	9.440650e+14	1.125851e+15	6.491016e+13	1.167496e+04	7.205025e+03	4.101063e+03	0	1.128798e-03
1.220000e+09	7.248846e+13	0.000000e+00	8.208953e-01	9.371445e+14	1.117864e+15	6.463380e+13	1.165525e+04	7.195473e+03	4.095626e+03	0	1.124983e-03
1.230000e+09	7.175757e+13	0.000000e+00	8.208953e-01	9.303063e+14	1.109970e+15	6.435926e+13	1.163569e+04	7.185984e+03	4.090225e+03	0	1.121189e-03
1.240000e+09	7.103561e+13	0.000000e+00	8.208953e-01	9.235491e+14	1.102167e+15	6.408654e+13	1.161627e+04	7.176557e+03	4.084859e+03	0	1.117416e-03
1.250000e+09	7.032244e+13	0.000000e+00	8.208953e-01	9.168716e+14	1.094455e+15	6.381562e+13	1.159699e+04	7.167192e+03	4.079529e+03	0	1.113664e-03
1.260000e+09	6.961791e+13	0.000000e+00	8.208953e-01	9.102725e+14	1.086831e+15	6.354649e+13	1.157786e+04	7.157888e+03	4.074233e+03	0	1.109933e-03
1.270000e+09	6.892187e+13	0.000000e+00	8.208953e-01	9.037505e+14	1.079295e+15	6.327913e+13	1.155885e+04	7.148643e+03	4.068971e+03	0	1.106221e-03
1.280000e+09	6.823420e+13	0.000000e+00	8.208953e-01	8.973044e+14	1.071845e+15	6.301353e+13	1.153999e+04	7.139458e+03	4.063743e+03	0	1.102530e-03
1.290000e+09	6.755476e+13	0.000000e+00	8.208953e-01	8.909330e+14	1.064479e+15	6.274967e+13	1.152126e+04	7.130333e+03	4.058549e+03	0	1.098858e-03
1.300000e+09	6.688342e+13	0.000000e+00	8.208953e-01	8.846351e+14	1.057196e+15	6.248755e+13	1.150266e+04	7.121265e+03	4.053387e+03	0	1.095206e-03
1.310000e+09	6.622004e+13	0.000000e+00	8.208953e-01	8.784095e+14	1.049995e+15	6.222714e+13	1.148419e+04	7.112255e+03	4.048259e+03	0	1.091573e-03
1.320000e+09	6.556451e+13	0.000000e+00	8.208953e-01	8.722552e+14	1.042875e+15	6.196844e+13	1.146585e+04	7.103302e+03	4.043163e+03	0	1.087959e-03
1.330000e+09	6.491668e+13	0.000000e+00	8.208953e-01	8.661710e+14	1.035835e+15	6.171144e+13	1.144764e+04	7.094405e+03	4.038099e+03	0	1.084364e-03
1.340000e+09	6.427646e+13	0.000000e+00	8.208953e-01	8.601557e+14	1.028873e+15	6.145611e+13	1.142956e+04	7.085565e+03	4.033067e+03	0	1.080787e-03
1.350000e+09	6.364371e+13	0.000000e+00	8.208953e-01	8.542085e+14	1.021987e+15	6.120244e+13	1.141160e+04	7.076779e+03	4.028066e+03	0	1.077229e-03
1.360000e+09	6.301831e+13	0.000000e+00	8.208953e-01	8.483281e+14	1.015178e+15	6.095043e+13	1.139377e+04	7.068049e+03	4.023097e+03	0	1.073689e-03
