#t		Qconv[W]	Ri[Rp]		R*[Rp]		Qc[W]		Qm[W]		Qr[W]		Tcmb[K]		Tl[K]		Tup[K]		RiFlag		Bs[T]
0.000000e+00	6.359195e+13	0.000000e+00	8.045111e-01	1.364674e+15	6.041439e+13	1.831838e+14	1.458295e+04	4.516616e+03	2.772821e+03	0	1.079070e-03
1.000000e+07	6.469603e+13	0.000000e+00	8.045111e-01	1.372142e+15	6.848415e+13	1.821688e+14	1.456556e+04	4.594928e+03	2.820898e+03	0	1.085279e-03
2.000000e+07	6.574477e+13	0.000000e+00	8.045111e-01	1.379177e+15	7.735259e+13	1.811614e+14	1.454808e+04	4.673134e+03	2.868910e+03	0	1.091112e-03
3.000000e+07	6.673624e+13	0.000000e+00	8.045111e-01	1.385766e+15	8.706152e+13	1.801616e+14	1.453050e+04	4.751169e+03	2.916817e+03	0	1.096569e-03
4.000000e+07	6.766866e+13	0.000000e+00	8.045111e-01	1.391895e+15	9.765026e+13	1.791692e+14	1.451284e+04	4.828963e+03	2.964576e+03	0	1.101653e-03
5.000000e+07	6.854039e+13	0.000000e+00	8.045111e-01	1.397551e+15	1.091550e+14	1.781842e+14	1.449510e+04	4.906445e+03	3.012143e+03	0	1.106363e-03
6.000000e+07	6.934996e+13	0.000000e+00	8.045111e-01	1.402724e+15	1.216081e+14	1.772066e+14	1.447729e+04	4.983542e+03	3.059474e+03	0	1.110702e-03
7.000000e+07	7.009611e+13	0.000000e+00	8.045111e-01	1.407404e+15	1.350374e+14	1.762362e+14	1.445942e+04	5.060177e+03	3.106522e+03	0	1.114671e-03
8.000000e+07	7.077775e+13	0.000000e+00	8.045111e-01	1.411583e+15	1.494657e+14	1.752731e+14	1.444149e+04	5.136272e+03	3.153238e+03	0	1.118273e-03
9.000000e+07	7.139405e+13	0.000000e+00	8.045111e-01	1.415255e+15	1.649096e+14	1.743171e+14	1.442350e+04	5.211749e+03	3.199574e+03	0	1.121509e-03
1.000000e+08	7.194439e+13	0.000000e+00	8.045111e-01	1.418416e+15	1.813797e+14	1.733682e+14	1.440546e+04	5.286527e+03	3.245482e+03	0	1.124384e-03
1.100000e+08	7.242840e+13	0.000000e+00	8.045111e-01	1.421063e+15	1.988793e+14	1.724263e+14	1.438739e+04	5.360525e+03	3.290910e+03	0	1.126899e-03
1.200000e+08	7.284595e+13	0.000000e+00	8.045111e-01	1.423196e+15	2.174045e+14	1.714915e+14	1.436928e+04	5.433663e+03	3.335810e+03	0	1.129061e-03
1.300000e+08	7.319721e+13	0.000000e+00	8.045111e-01	1.424816e+15	2.369435e+14	1.705635e+14	1.435114e+04	5.505858e+03	3.380132e+03	0	1.130873e-03
1.400000e+08	7.348256e+13	0.000000e+00	8.045111e-01	1.425927e+15	2.574765e+14	1.696424e+14	1.433299e+04	5.577032e+03	3.423827e+03	0	1.132340e-03
1.500000e+08	7.370267e+13	0.000000e+00	8.045111e-01	1.426534e+15	2.789753e+14	1.687282e+14	1.431482e+04	5.647107e+03	3.466847e+03	0	1.133470e-03
1.600000e+08	7.385848e+13	0.000000e+00	8.045111e-01	1.426645e+15	3.014037e+14	1.678207e+14	1.429664e+04	5.716005e+03	3.509145e+03	0	1.134268e-03
1.700000e+08	7.395115e+13	0.000000e+00	8.045111e-01	1.426269e+15	3.247174e+14	1.669199e+14	1.427846e+04	5.783653e+03	3.550675e+03	0	1.134742e-03
1.800000e+08	7.398209e+13	0.000000e+00	8.045111e-01	1.425418e+15	3.488643e+14	1.660257e+14	1.426029e+04	5.849981e+03	3.591395e+03	0	1.134900e-03
1.900000e+08	7.395296e+13	0.000000e+00	8.045111e-01	1.424104e+15	3.737847e+14	1.651381e+14	1.424213e+04	5.914921e+03	3.631263e+03	0	1.134751e-03
2.000000e+08	7.386559e+13	0.000000e+00	8.045111e-01	1.422343e+15	3.994119e+14	1.642570e+14	1.422398e+04	5.978410e+03	3.670240e+03	0	1.134304e-03
2.100000e+08	7.372205e+13	0.000000e+00	8.045111e-01	1.420150e+15	4.256734e+14	1.633824e+14	1.420585e+04	6.040390e+03	3.708290e+03	0	1.133569e-03
2.200000e+08	7.352454e+13	0.000000e+00	8.045111e-01	1.417542e+15	4.524908e+14	1.625143e+14	1.418776e+04	6.100805e+03	3.745380e+03	0	1.132556e-03
2.300000e+08	7.327543e+13	0.000000e+00	8.045111e-01	1.414538e+15	4.797809e+14	1.616525e+14	1.416970e+04	6.159609e+03	3.781480e+03	0	1.131275e-03
2.400000e+08	7.297722e+13	0.000000e+00	8.045111e-01	1.411159e+15	5.074572e+14	1.607970e+14	1.415167e+04	6.216757e+03	3.816564e+03	0	1.129739e-03
2.500000e+08	7.263251e+13	0.000000e+00	8.045111e-01	1.407423e+15	5.354298e+14	1.599478e+14	1.413369e+04	6.272211e+03	3.850608e+03	0	1.127957e-03
2.600000e+08	7.224397e+13	0.000000e+00	8.045111e-01	1.403353e+15	5.636076e+14	1.591048e+14	1.411576e+04	6.325941e+03	3.883594e+03	0	1.125942e-03
2.700000e+08	7.181433e+13	0.000000e+00	8.045111e-01	1.398969e+15	5.918984e+14	1.582680e+14	1.409787e+04	6.377920e+03	3.915505e+03	0	1.123706e-03
2.800000e+08	7.134635e+13	0.000000e+00	8.045111e-01	1.394292e+15	6.202099e+14	1.574373e+14	1.408005e+04	6.428129e+03	3.946329e+03	0	1.121259e-03
2.900000e+08	7.084278e+13	0.000000e+00	8.045111e-01	1.389345e+15	6.484517e+14	1.566127e+14	1.406228e+04	6.476553e+03	3.976057e+03	0	1.118615e-03
3.000000e+08	7.030638e+13	0.000000e+00	8.045111e-01	1.384149e+15	6.765349e+14	1.557940e+14	1.404458e+04	6.523185e+03	4.004685e+03	0	1.115785e-03
3.100000e+08	6.973986e+13	0.000000e+00	8.045111e-01	1.378724e+15	7.043737e+14	1.549814e+14	1.402694e+04	6.568023e+03	4.032212e+03	0	1.112780e-03
3.200000e+08	6.914587e+13	0.000000e+00	8.045111e-01	1.373091e+15	7.318861e+14	1.541746e+14	1.400937e+04	6.611070e+03	4.058639e+03	0	1.109611e-03
3.300000e+08	6.852701e+13	0.000000e+00	8.045111e-01	1.367272e+15	7.589944e+14	1.533737e+14	1.399187e+04	6.652334e+03	4.083972e+03	0	1.106291e-03
3.400000e+08	6.788577e+13	0.000000e+00	8.045111e-01	1.361284e+15	7.856255e+14	1.525786e+14	1.397445e+04	6.691830e+03	4.108219e+03	0	1.102830e-03
3.500000e+08	6.722456e+13	0.000000e+00	8.045111e-01	1.355147e+15	8.117123e+14	1.517893e+14	1.395711e+04	6.729576e+03	4.131392e+03	0	1.099237e-03
3.600000e+08	6.654569e+13	0.000000e+00	8.045111e-01	1.348878e+15	8.371932e+14	1.510057e+14	1.393984e+04	6.765594e+03	4.153504e+03	0	1.095525e-03
3.700000e+08	6.585134e+13	0.000000e+00	8.045111e-01	1.342495e+15	8.620125e+14	1.502278e+14	1.392265e+04	6.799911e+03	4.174572e+03	0	1.091701e-03
3.800000e+08	6.514359e+13	0.000000e+00	8.045111e-01	1.336013e+15	8.861206e+14	1.494555e+14	1.390554e+04	6.832559e+03	4.194615e+03	0	1.087776e-03
3.900000e+08	6.442436e+13	0.000000e+00	8.045111e-01	1.329448e+15	9.094748e+14	1.486888e+14	1.388852e+04	6.863570e+03	4.213653e+03	0	1.083758e-03
4.000000e+08	6.369550e+13	0.000000e+00	8.045111e-01	1.322814e+15	9.320376e+14	1.479277e+14	1.387157e+04	6.892982e+03	4.231709e+03	0	1.079655e-03
4.100000e+08	6.295868e+13	0.000000e+00	8.045111e-01	1.316123e+15	9.537789e+14	1.471720e+14	1.385472e+04	6.920833e+03	4.248808e+03	0	1.075476e-03
4.200000e+08	6.221548e+13	0.000000e+00	8.045111e-01	1.309388e+15	9.746735e+14	1.464218e+14	1.383795e+04	6.947165e+03	4.264974e+03	0	1.071227e-03
4.300000e+08	6.146734e+13	0.000000e+00	8.045111e-01	1.302621e+15	9.947023e+14	1.456769e+14	1.382126e+04	6.972022e+03	4.280233e+03	0	1.066916e-03
4.400000e+08	6.071560e+13	0.000000e+00	8.045111e-01	1.295830e+15	1.013852e+15	1.449375e+14	1.380466e+04	6.995448e+03	4.294615e+03	0	1.062549e-03
4.500000e+08	5.996146e+13	0.000000e+00	8.045111e-01	1.289027e+15	1.032113e+15	1.442033e+14	1.378815e+04	7.017488e+03	4.308146e+03	0	1.058131e-03
4.600000e+08	5.920604e+13	0.000000e+00	8.045111e-01	1.282219e+15	1.049484e+15	1.434744e+14	1.377172e+04	7.038190e+03	4.320855e+03	0	1.053669e-03
4.700000e+08	5.845032e+13	0.000000e+00	8.045111e-01	1.275413e+15	1.065963e+15	1.427508e+14	1.375538e+04	7.057600e+03	4.332771e+03	0	1.049167e-03
4.800000e+08	5.769521e+13	0.000000e+00	8.045111e-01	1.268618e+15	1.081556e+15	1.420323e+14	1.373913e+04	7.075766e+03	4.343923e+03	0	1.044629e-03
4.900000e+08	5.694151e+13	0.000000e+00	8.045111e-01	1.261838e+15	1.096272e+15	1.413190e+14	1.372296e+04	7.092735e+03	4.354341e+03	0	1.040060e-03
5.000000e+08	5.618994e+13	0.000000e+00	8.045111e-01	1.255081e+15	1.110121e+15	1.406108e+14	1.370688e+04	7.108554e+03	4.364053e+03	0	1.035464e-03
5.100000e+08	5.544114e+13	0.000000e+00	8.045111e-01	1.248349e+15	1.123119e+15	1.399076e+14	1.369088e+04	7.123270e+03	4.373087e+03	0	1.030844e-03
5.200000e+08	5.469567e+13	0.000000e+00	8.045111e-01	1.241649e+15	1.135283e+15	1.392094e+14	1.367497e+04	7.136930e+03	4.381473e+03	0	1.026203e-03
5.300000e+08	5.395402e+13	0.000000e+00	8.045111e-01	1.234983e+15	1.146631e+15	1.385163e+14	1.365915e+04	7.149578e+03	4.389238e+03	0	1.021543e-03
5.400000e+08	5.321662e+13	0.000000e+00	8.045111e-01	1.228355e+15	1.157185e+15	1.378280e+14	1.364341e+04	7.161260e+03	4.396409e+03	0	1.016868e-03
5.500000e+08	5.248384e+13	0.000000e+00	8.045111e-01	1.221767e+15	1.166967e+15	1.371447e+14	1.362776e+04	7.172018e+03	4.403014e+03	0	1.012179e-03
5.600000e+08	5.175600e+13	0.000000e+00	8.045111e-01	1.215223e+15	1.176002e+15	1.364662e+14	1.361219e+04	7.181896e+03	4.409078e+03	0	1.007478e-03
5.700000e+08	5.103337e+13	0.000000e+00	8.045111e-01	1.208724e+15	1.184314e+15	1.357926e+14	1.359670e+04	7.190935e+03	4.414627e+03	0	1.002768e-03
5.800000e+08	5.031618e+13	0.000000e+00	8.045111e-01	1.202271e+15	1.191928e+15	1.351237e+14	1.358129e+04	7.199174e+03	4.419686e+03	0	9.980479e-04
5.900000e+08	4.960461e+13	0.000000e+00	8.045111e-01	1.195867e+15	1.198871e+15	1.344596e+14	1.356597e+04	7.206654e+03	4.424277e+03	0	9.933208e-04
6.000000e+08	4.889883e+13	0.000000e+00	8.045111e-01	1.189513e+15	1.205168e+15	1.338001e+14	1.355073e+04	7.213411e+03	4.428426e+03	0	9.885872e-04
6.100000e+08	4.819895e+13	0.000000e+00	8.045111e-01	1.183209e+15	1.210846e+15	1.331454e+14	1.353557e+04	7.219481e+03	4.432152e+03	0	9.838481e-04
6.200000e+08	4.750507e+13	0.000000e+00	8.045111e-01	1.176956e+15	1.215931e+15	1.324952e+14	1.352049e+04	7.224900e+03	4.435479e+03	0	9.791040e-04
6.300000e+08	4.681726e+13	0.000000e+00	8.045111e-01	1.170754e+15	1.220449e+15	1.318497e+14	1.350549e+04	7.229701e+03	4.438427e+03	0	9.743557e-04
6.400000e+08	4.613557e+13	0.000000e+00	8.045111e-01	1.164604e+15	1.224426e+15	1.312087e+14	1.349057e+04	7.233917e+03	4.441015e+03	0	9.696035e-04
6.500000e+08	4.546004e+13	0.000000e+00	8.045111e-01	1.158507e+15	1.227887e+15	1.305722e+14	1.347572e+04	7.237578e+03	4.443262e+03	0	9.648477e-04
6.600000e+08	4.479066e+13	0.000000e+00	8.045111e-01	1.152462e+15	1.230857e+15	1.299402e+14	1.346096e+04	7.240713e+03	4.445187e+03	0	9.600887e-04
6.700000e+08	4.412746e+13	0.000000e+00	8.045111e-01	1.146468e+15	1.233361e+15	1.293126e+14	1.344627e+04	7.243352e+03	4.446807e+03	0	9.553265e-04
6.800000e+08	4.347040e+13	0.000000e+00	8.045111e-01	1.140527e+15	1.235422e+15	1.286894e+14	1.343166e+04	7.245520e+03	4.448138e+03	0	9.505612e-04
6.900000e+08	4.281948e+13	0.000000e+00	8.045111e-01	1.134638e+15	1.237062e+15	1.280707e+14	1.341712e+04	7.247245e+03	4.449197e+03	0	9.457927e-04
7.000000e+08	4.217465e+13	0.000000e+00	8.045111e-01	1.128800e+15	1.238304e+15	1.274562e+14	1.340266e+04	7.248550e+03	4.449998e+03	0	9.410211e-04
7.100000e+08	4.153588e+13	0.000000e+00	8.045111e-01	1.123013e+15	1.239169e+15	1.268461e+14	1.338827e+04	7.249459e+03	4.450556e+03	0	9.362460e-04
7.200000e+08	4.090312e+13	0.000000e+00	8.045111e-01	1.117277e+15	1.239679e+15	1.262402e+14	1.337395e+04	7.249993e+03	4.450884e+03	0	9.314674e-04
7.300000e+08	4.027631e+13	0.000000e+00	8.045111e-01	1.111591e+15	1.239852e+15	1.256385e+14	1.335971e+04	7.250175e+03	4.450996e+03	0	9.266849e-04
7.400000e+08	3.965541e+13	0.000000e+00	8.045111e-01	1.105955e+15	1.239709e+15	1.250411e+14	1.334554e+04	7.250025e+03	4.450904e+03	0	9.218982e-04
7.500000e+08	3.904034e+13	0.000000e+00	8.045111e-01	1.100369e+15	1.239267e+15	1.244478e+14	1.333145e+04	7.249561e+03	4.450619e+03	0	9.171071e-04
7.600000e+08	3.843105e+13	0.000000e+00	8.045111e-01	1.094831e+15	1.238543e+15	1.238587e+14	1.331742e+04	7.248801e+03	4.450152e+03	0	9.123110e-04
7.700000e+08	3.782747e+13	0.000000e+00	8.045111e-01	1.089341e+15	1.237555e+15	1.232736e+14	1.330347e+04	7.247763e+03	4.449515e+03	0	9.075097e-04
7.800000e+08	3.722953e+13	0.000000e+00	8.045111e-01	1.083899e+15	1.236318e+15	1.226926e+14	1.328958e+04	7.246464e+03	4.448717e+03	0	9.027026e-04
7.900000e+08	3.663716e+13	0.000000e+00	8.045111e-01	1.078504e+15	1.234848e+15	1.221157e+14	1.327576e+04	7.244918e+03	4.447768e+03	0	8.978893e-04
8.000000e+08	3.605029e+13	0.000000e+00	8.045111e-01	1.073156e+15	1.233160e+15	1.215427e+14	1.326202e+04	7.243140e+03	4.446677e+03	0	8.930692e-04
8.100000e+08	3.546886e+13	0.000000e+00	8.045111e-01	1.067854e+15	1.231266e+15	1.209738e+14	1.324834e+04	7.241144e+03	4.445452e+03	0	8.882419e-04
8.200000e+08	3.489278e+13	0.000000e+00	8.045111e-01	1.062597e+15	1.229180e+15	1.204087e+14	1.323472e+04	7.238944e+03	4.444101e+03	0	8.834068e-04
8.300000e+08	3.432200e+13	0.000000e+00	8.045111e-01	1.057385e+15	1.226915e+15	1.198476e+14	1.322118e+04	7.236551e+03	4.442631e+03	0	8.785632e-04
8.400000e+08	3.375643e+13	0.000000e+00	8.045111e-01	1.052217e+15	1.224482e+15	1.192903e+14	1.320770e+04	7.233977e+03	4.441051e+03	0	8.737108e-04
8.500000e+08	3.319601e+13	0.000000e+00	8.045111e-01	1.047092e+15	1.221893e+15	1.187369e+14	1.319429e+04	7.231233e+03	4.439367e+03	0	8.688487e-04
8.600000e+08	3.264068e+13	0.000000e+00	8.045111e-01	1.042011e+15	1.219158e+15	1.181873e+14	1.318094e+04	7.228331e+03	4.437585e+03	0	8.639764e-04
8.700000e+08	3.209035e+13	0.000000e+00	8.045111e-01	1.036972e+15	1.216287e+15	1.176415e+14	1.316765e+04	7.225279e+03	4.435712e+03	0	8.590933e-04
8.800000e+08	3.154496e+13	0.000000e+00	8.045111e-01	1.031975e+15	1.213290e+15	1.170995e+14	1.315444e+04	7.222088e+03	4.433753e+03	0	8.541986e-04
8.900000e+08	3.100445e+13	0.000000e+00	8.045111e-01	1.027020e+15	1.210175e+15	1.165611e+14	1.314128e+04	7.218765e+03	4.431713e+03	0	8.492917e-04
9.000000e+08	3.046875e+13	0.000000e+00	8.045111e-01	1.022105e+15	1.206952e+15	1.160265e+14	1.312819e+04	7.215320e+03	4.429598e+03	0	8.443718e-04
9.100000e+08	2.993779e+13	0.000000e+00	8.045111e-01	1.017231e+15	1.203627e+15	1.154955e+14	1.311516e+04	7.211761e+03	4.427413e+03	0	8.394383e-04
9.200000e+08	2.941152e+13	0.000000e+00	8.045111e-01	1.012397e+15	1.200210e+15	1.149682e+14	1.310219e+04	7.208093e+03	4.425161e+03	0	8.344904e-04
9.300000e+08	2.888986e+13	0.000000e+00	8.045111e-01	1.007601e+15	1.196707e+15	1.144445e+14	1.308928e+04	7.204326e+03	4.422848e+03	0	8.295273e-04
9.400000e+08	2.837276e+13	0.000000e+00	8.045111e-01	1.002845e+15	1.193124e+15	1.139243e+14	1.307644e+04	7.200465e+03	4.420478e+03	0	8.245482e-04
9.500000e+08	2.786015e+13	0.000000e+00	8.045111e-01	9.981268e+14	1.189468e+15	1.134077e+14	1.306365e+04	7.196516e+03	4.418054e+03	0	8.195523e-04
9.600000e+08	2.735198e+13	0.000000e+00	8.045111e-01	9.934465e+14	1.185745e+15	1.128946e+14	1.305093e+04	7.192486e+03	4.415580e+03	0	8.145388e-04
9.700000e+08	2.684819e+13	0.000000e+00	8.045111e-01	9.888035e+14	1.181961e+15	1.123850e+14	1.303826e+04	7.188380e+03	4.413059e+03	0	8.095069e-04
9.800000e+08	2.634872e+13	0.000000e+00	8.045111e-01	9.841974e+14	1.178120e+15	1.118789e+14	1.302566e+04	7.184203e+03	4.410495e+03	0	8.044555e-04
9.900000e+08	2.585352e+13	0.000000e+00	8.045111e-01	9.796277e+14	1.174229e+15	1.113763e+14	1.301311e+04	7.179961e+03	4.407890e+03	0	7.993839e-04
1.000000e+09	2.536252e+13	0.000000e+00	8.045111e-01	9.750939e+14	1.170290e+15	1.108770e+14	1.300062e+04	7.175658e+03	4.405248e+03	0	7.942911e-04
1.010000e+09	2.487569e+13	0.000000e+00	8.045111e-01	9.705956e+14	1.166311e+15	1.103811e+14	1.298819e+04	7.171298e+03	4.402572e+03	0	7.891760e-04
1.020000e+09	2.439296e+13	0.000000e+00	8.045111e-01	9.661324e+14	1.162293e+15	1.098886e+14	1.297581e+04	7.166885e+03	4.399863e+03	0	7.840378e-04
1.030000e+09	2.391428e+13	0.000000e+00	8.045111e-01	9.617038e+14	1.158241e+15	1.093994e+14	1.296350e+04	7.162424e+03	4.397124e+03	0	7.788753e-04
1.040000e+09	2.343960e+13	0.000000e+00	8.045111e-01	9.573095e+14	1.154159e+15	1.089135e+14	1.295124e+04	7.157918e+03	4.394358e+03	0	7.736875e-04
1.050000e+09	2.296888e+13	0.000000e+00	8.045111e-01	9.529490e+14	1.150050e+15	1.084309e+14	1.293903e+04	7.153371e+03	4.391566e+03	0	7.684733e-04
1.060000e+09	2.250206e+13	0.000000e+00	8.045111e-01	9.486219e+14	1.145918e+15	1.079516e+14	1.292688e+04	7.148786e+03	4.388751e+03	0	7.632314e-04
1.070000e+09	2.203909e+13	0.000000e+00	8.045111e-01	9.443279e+14	1.141765e+15	1.074755e+14	1.291479e+04	7.144166e+03	4.385915e+03	0	7.579608e-04
1.080000e+09	2.157994e+13	0.000000e+00	8.045111e-01	9.400665e+14	1.137594e+15	1.070026e+14	1.290275e+04	7.139514e+03	4.383059e+03	0	7.526601e-04
1.090000e+09	2.112455e+13	0.000000e+00	8.045111e-01	9.358374e+14	1.133408e+15	1.065328e+14	1.289076e+04	7.134832e+03	4.380185e+03	0	7.473282e-04
1.100000e+09	2.067288e+13	0.000000e+00	8.045111e-01	9.316401e+14	1.129210e+15	1.060663e+14	1.287883e+04	7.130124e+03	4.377294e+03	0	7.419635e-04
1.110000e+09	2.022489e+13	0.000000e+00	8.045111e-01	9.274745e+14	1.125001e+15	1.056028e+14	1.286695e+04	7.125391e+03	4.374389e+03	0	7.365647e-04
1.120000e+09	1.978053e+13	0.000000e+00	8.045111e-01	9.233400e+14	1.120785e+15	1.051425e+14	1.285513e+04	7.120637e+03	4.371470e+03	0	7.311304e-04
1.130000e+09	1.933976e+13	0.000000e+00	8.045111e-01	9.192363e+14	1.116563e+15	1.046852e+14	1.284335e+04	7.115863e+03	4.368540e+03	0	7.256589e-04
1.140000e+09	1.890254e+13	0.000000e+00	8.045111e-01	9.151631e+14	1.112336e+15	1.042310e+14	1.283163e+04	7.111071e+03	4.365598e+03	0	7.201488e-04
1.150000e+09	1.846882e+13	0.000000e+00	8.045111e-01	9.111201e+14	1.108108e+15	1.037798e+14	1.281996e+04	7.106264e+03	4.362646e+03	0	7.145982e-04
1.160000e+09	1.803858e+13	0.000000e+00	8.045111e-01	9.071069e+14	1.103879e+15	1.033317e+14	1.280835e+04	7.101442e+03	4.359686e+03	0	7.090055e-04
1.170000e+09	1.761176e+13	0.000000e+00	8.045111e-01	9.031231e+14	1.099651e+15	1.028865e+14	1.279678e+04	7.096608e+03	4.356719e+03	0	7.033688e-04
1.180000e+09	1.718833e+13	0.000000e+00	8.045111e-01	8.991686e+14	1.095426e+15	1.024443e+14	1.278526e+04	7.091764e+03	4.353745e+03	0	6.976862e-04
1.190000e+09	1.676826e+13	0.000000e+00	8.045111e-01	8.952429e+14	1.091205e+15	1.020050e+14	1.277380e+04	7.086911e+03	4.350765e+03	0	6.919555e-04
1.200000e+09	1.635150e+13	0.000000e+00	8.045111e-01	8.913458e+14	1.086988e+15	1.015686e+14	1.276238e+04	7.082050e+03	4.347781e+03	0	6.861747e-04
1.210000e+09	1.593802e+13	0.000000e+00	8.045111e-01	8.874769e+14	1.082779e+15	1.011352e+14	1.275102e+04	7.077182e+03	4.344793e+03	0	6.803414e-04
1.220000e+09	1.552777e+13	0.000000e+00	8.045111e-01	8.836359e+14	1.078577e+15	1.007046e+14	1.273970e+04	7.072310e+03	4.341802e+03	0	6.744534e-04
1.230000e+09	1.512074e+13	0.000000e+00	8.045111e-01	8.798226e+14	1.074383e+15	1.002768e+14	1.272844e+04	7.067434e+03	4.338808e+03	0	6.685079e-04
1.240000e+09	1.471688e+13	0.000000e+00	8.045111e-01	8.760367e+14	1.070199e+15	9.985190e+13	1.271722e+04	7.062555e+03	4.335813e+03	0	6.625023e-04
1.250000e+09	1.431615e+13	0.000000e+00	8.045111e-01	8.722778e+14	1.066026e+15	9.942978e+13	1.270605e+04	7.057674e+03	4.332817e+03	0	6.564338e-04
1.260000e+09	1.391853e+13	0.000000e+00	8.045111e-01	8.685457e+14	1.061864e+15	9.901045e+13	1.269492e+04	7.052793e+03	4.329820e+03	0	6.502994e-04
1.270000e+09	1.352398e+13	0.000000e+00	8.045111e-01	8.648402e+14	1.057714e+15	9.859388e+13	1.268385e+04	7.047912e+03	4.326823e+03	0	6.440957e-04
1.280000e+09	1.313247e+13	0.000000e+00	8.045111e-01	8.611609e+14	1.053577e+15	9.818006e+13	1.267282e+04	7.043032e+03	4.323828e+03	0	6.378193e-04
1.290000e+09	1.274397e+13	0.000000e+00	8.045111e-01	8.575076e+14	1.049454e+15	9.776895e+13	1.266184e+04	7.038155e+03	4.320833e+03	0	6.314666e-04
1.300000e+09	1.235843e+13	0.000000e+00	8.045111e-01	8.538800e+14	1.045344e+15	9.736054e+13	1.265091e+04	7.033280e+03	4.317841e+03	0	6.250335e-04
1.310000e+09	1.197585e+13	0.000000e+00	8.045111e-01	8.502779e+14	1.041250e+15	9.695480e+13	1.264002e+04	7.028409e+03	4.314850e+03	0	6.185159e-04
1.320000e+09	1.159617e+13	0.000000e+00	8.045111e-01	8.467009e+14	1.037171e+15	9.655173e+13	1.262917e+04	7.023542e+03	4.311862e+03	0	6.119093e-04
1.330000e+09	1.121938e+13	0.000000e+00	8.045111e-01	8.431489e+14	1.033107e+15	9.615129e+13	1.261838e+04	7.018680e+03	4.308877e+03	0	6.052086e-04
1.340000e+09	1.084544e+13	0.000000e+00	8.045111e-01	8.396216e+14	1.029060e+15	9.575347e+13	1.260763e+04	7.013823e+03	4.305896e+03	0	5.984086e-04
1.350000e+09	1.047432e+13	0.000000e+00	8.045111e-01	8.361188e+14	1.025029e+15	9.535824e+13	1.259692e+04	7.008972e+03	4.302918e+03	0	5.915037e-04
1.360000e+09	1.010600e+13	0.000000e+00	8.045111e-01	8.326402e+14	1.021015e+15	9.496559e+13	1.258626e+04	7.004128e+03	4.299944e+03	0	5.844875e-04
