#t		Qconv[W]	Ri[Rp]		R*[Rp]		Qc[W]		Qm[W]		Qr[W]		Tcmb[K]		Tl[K]		Tup[K]		RiFlag		Bs[T]
0.000000e+00	1.304973e+14	0.000000e+00	8.181817e-01	2.161627e+15	5.762098e+13	1.784451e+14	1.641726e+04	4.709520e+03	2.798889e+03	0	1.359080e-03
1.000000e+07	1.329256e+14	0.000000e+00	8.181817e-01	2.178331e+15	6.986118e+13	1.774564e+14	1.639322e+04	4.834825e+03	2.873359e+03	0	1.367458e-03
2.000000e+07	1.351947e+14	0.000000e+00	8.181817e-01	2.193814e+15	8.404462e+13	1.764750e+14	1.636900e+04	4.960270e+03	2.947911e+03	0	1.375195e-03
3.000000e+07	1.372968e+14	0.000000e+00	8.181817e-01	2.208018e+15	1.003511e+14	1.755010e+14	1.634460e+04	5.085674e+03	3.022439e+03	0	1.382286e-03
4.000000e+07	1.392245e+14	0.000000e+00	8.181817e-01	2.220888e+15	1.189546e+14	1.745343e+14	1.632004e+04	5.210847e+03	3.096830e+03	0	1.388725e-03
5.000000e+07	1.409713e+14	0.000000e+00	8.181817e-01	2.232376e+15	1.400184e+14	1.735748e+14	1.629534e+04	5.335584e+03	3.170962e+03	0	1.394509e-03
6.000000e+07	1.425316e+14	0.000000e+00	8.181817e-01	2.242440e+15	1.636904e+14	1.726225e+14	1.627052e+04	5.459670e+03	3.244707e+03	0	1.399635e-03
7.000000e+07	1.439011e+14	0.000000e+00	8.181817e-01	2.251048e+15	1.900980e+14	1.716772e+14	1.624558e+04	5.582880e+03	3.317931e+03	0	1.404104e-03
8.000000e+07	1.450766e+14	0.000000e+00	8.181817e-01	2.258178e+15	2.193430e+14	1.707390e+14	1.622055e+04	5.704980e+03	3.390496e+03	0	1.407916e-03
9.000000e+07	1.460560e+14	0.000000e+00	8.181817e-01	2.263815e+15	2.514968e+14	1.698077e+14	1.619543e+04	5.825732e+03	3.462259e+03	0	1.411078e-03
1.000000e+08	1.468389e+14	0.000000e+00	8.181817e-01	2.267956e+15	2.865961e+14	1.688834e+14	1.617026e+04	5.944892e+03	3.533076e+03	0	1.413594e-03
1.100000e+08	1.474262e+14	0.000000e+00	8.181817e-01	2.270611e+15	3.246387e+14	1.679659e+14	1.614504e+04	6.062215e+03	3.602802e+03	0	1.415476e-03
1.200000e+08	1.478203e+14	0.000000e+00	8.181817e-01	2.271799e+15	3.655813e+14	1.670552e+14	1.611979e+04	6.177460e+03	3.671293e+03	0	1.416737e-03
1.300000e+08	1.480250e+14	0.000000e+00	8.181817e-01	2.271549e+15	4.093375e+14	1.661513e+14	1.609452e+04	6.290388e+03	3.738406e+03	0	1.417391e-03
1.400000e+08	1.480457e+14	0.000000e+00	8.181817e-01	2.269903e+15	4.557765e+14	1.652540e+14	1.606926e+04	6.400770e+03	3.804007e+03	0	1.417456e-03
1.500000e+08	1.478889e+14	0.000000e+00	8.181817e-01	2.266911e+15	5.047251e+14	1.643634e+14	1.604402e+04	6.508385e+03	3.867963e+03	0	1.416956e-03
1.600000e+08	1.475624e+14	0.000000e+00	8.181817e-01	2.262636e+15	5.559686e+14	1.634794e+14	1.601881e+04	6.613028e+03	3.930153e+03	0	1.415912e-03
1.700000e+08	1.470751e+14	0.000000e+00	8.181817e-01	2.257144e+15	6.092550e+14	1.626019e+14	1.599365e+04	6.714508e+03	3.990463e+03	0	1.414352e-03
1.800000e+08	1.464369e+14	0.000000e+00	8.181817e-01	2.250511e+15	6.642993e+14	1.617308e+14	1.596855e+04	6.812655e+03	4.048792e+03	0	1.412303e-03
1.900000e+08	1.456584e+14	0.000000e+00	8.181817e-01	2.242820e+15	7.207891e+14	1.608662e+14	1.594353e+04	6.907317e+03	4.105050e+03	0	1.409796e-03
2.000000e+08	1.447506e+14	0.000000e+00	8.181817e-01	2.234153e+15	7.783906e+14	1.600079e+14	1.591859e+04	6.998366e+03	4.159161e+03	0	1.406861e-03
2.100000e+08	1.437251e+14	0.000000e+00	8.181817e-01	2.224601e+15	8.367569e+14	1.591560e+14	1.589374e+04	7.085697e+03	4.211062e+03	0	1.403531e-03
2.200000e+08	1.425935e+14	0.000000e+00	8.181817e-01	2.214252e+15	8.955339e+14	1.583103e+14	1.586900e+04	7.169230e+03	4.260706e+03	0	1.399838e-03
2.300000e+08	1.413675e+14	0.000000e+00	8.181817e-01	2.203195e+15	9.543679e+14	1.574708e+14	1.584438e+04	7.248907e+03	4.308058e+03	0	1.395814e-03
2.400000e+08	1.400585e+14	0.000000e+00	8.181817e-01	2.191517e+15	1.012913e+15	1.566374e+14	1.581988e+04	7.324697e+03	4.353101e+03	0	1.391493e-03
2.500000e+08	1.386777e+14	0.000000e+00	8.181817e-01	2.179303e+15	1.070836e+15	1.558102e+14	1.579551e+04	7.396591e+03	4.395828e+03	0	1.386905e-03
2.600000e+08	1.372357e+14	0.000000e+00	8.181817e-01	2.166635e+15	1.127824e+15	1.549890e+14	1.577127e+04	7.464603e+03	4.436247e+03	0	1.382081e-03
2.700000e+08	1.357426e+14	0.000000e+00	8.181817e-01	2.153590e+15	1.183587e+15	1.541738e+14	1.574718e+04	7.528768e+03	4.474381e+03	0	1.377050e-03
2.800000e+08	1.342079e+14	0.000000e+00	8.181817e-01	2.140239e+15	1.237863e+15	1.533646e+14	1.572323e+04	7.589139e+03	4.510260e+03	0	1.371841e-03
2.900000e+08	1.326403e+14	0.000000e+00	8.181817e-01	2.126649e+15	1.290421e+15	1.525613e+14	1.569943e+04	7.645789e+03	4.543927e+03	0	1.366479e-03
3.000000e+08	1.310478e+14	0.000000e+00	8.181817e-01	2.112882e+15	1.341060e+15	1.517638e+14	1.567578e+04	7.698806e+03	4.575435e+03	0	1.360988e-03
3.100000e+08	1.294377e+14	0.000000e+00	8.181817e-01	2.098991e+15	1.389614e+15	1.509722e+14	1.565228e+04	7.748289e+03	4.604843e+03	0	1.355391e-03
3.200000e+08	1.278163e+14	0.000000e+00	8.181817e-01	2.085026e+15	1.435946e+15	1.501863e+14	1.562894e+04	7.794352e+03	4.632219e+03	0	1.349708e-03
3.300000e+08	1.261895e+14	0.000000e+00	8.181817e-01	2.071031e+15	1.479954e+15	1.494061e+14	1.560575e+04	7.837116e+03	4.657634e+03	0	1.343957e-03
3.400000e+08	1.245622e+14	0.000000e+00	8.181817e-01	2.057043e+15	1.521563e+15	1.486316e+14	1.558272e+04	7.876710e+03	4.681164e+03	0	1.338155e-03
3.500000e+08	1.229387e+14	0.000000e+00	8.181817e-01	2.043095e+15	1.560727e+15	1.478627e+14	1.555984e+04	7.913267e+03	4.702891e+03	0	1.332316e-03
3.600000e+08	1.213228e+14	0.000000e+00	8.181817e-01	2.029216e+15	1.597427e+15	1.470994e+14	1.553712e+04	7.946926e+03	4.722894e+03	0	1.326453e-03
3.700000e+08	1.197175e+14	0.000000e+00	8.181817e-01	2.015429e+15	1.631666e+15	1.463416e+14	1.551455e+04	7.977826e+03	4.741258e+03	0	1.320577e-03
3.800000e+08	1.181256e+14	0.000000e+00	8.181817e-01	2.001753e+15	1.663465e+15	1.455893e+14	1.549214e+04	8.006108e+03	4.758066e+03	0	1.314697e-03
3.900000e+08	1.165490e+14	0.000000e+00	8.181817e-01	1.988205e+15	1.692866e+15	1.448424e+14	1.546987e+04	8.031911e+03	4.773401e+03	0	1.308822e-03
4.000000e+08	1.149896e+14	0.000000e+00	8.181817e-01	1.974798e+15	1.719924e+15	1.441010e+14	1.544776e+04	8.055374e+03	4.787345e+03	0	1.302959e-03
4.100000e+08	1.134485e+14	0.000000e+00	8.181817e-01	1.961541e+15	1.744707e+15	1.433648e+14	1.542580e+04	8.076631e+03	4.799978e+03	0	1.297112e-03
4.200000e+08	1.119269e+14	0.000000e+00	8.181817e-01	1.948441e+15	1.767292e+15	1.426340e+14	1.540398e+04	8.095814e+03	4.811379e+03	0	1.291287e-03
4.300000e+08	1.104254e+14	0.000000e+00	8.181817e-01	1.935505e+15	1.787765e+15	1.419085e+14	1.538231e+04	8.113051e+03	4.821623e+03	0	1.285486e-03
4.400000e+08	1.089446e+14	0.000000e+00	8.181817e-01	1.922735e+15	1.806218e+15	1.411881e+14	1.536078e+04	8.128465e+03	4.830783e+03	0	1.279714e-03
4.500000e+08	1.074846e+14	0.000000e+00	8.181817e-01	1.910134e+15	1.822744e+15	1.404730e+14	1.533940e+04	8.142173e+03	4.838931e+03	0	1.273972e-03
4.600000e+08	1.060456e+14	0.000000e+00	8.181817e-01	1.897702e+15	1.837441e+15	1.397629e+14	1.531815e+04	8.154290e+03	4.846132e+03	0	1.268261e-03
4.700000e+08	1.046275e+14	0.000000e+00	8.181817e-01	1.885439e+15	1.850408e+15	1.390580e+14	1.529704e+04	8.164922e+03	4.852450e+03	0	1.262583e-03
4.800000e+08	1.032303e+14	0.000000e+00	8.181817e-01	1.873344e+15	1.861743e+15	1.383581e+14	1.527607e+04	8.174172e+03	4.857947e+03	0	1.256937e-03
4.900000e+08	1.018537e+14	0.000000e+00	8.181817e-01	1.861414e+15	1.871542e+15	1.376632e+14	1.525524e+04	8.182136e+03	4.862681e+03	0	1.251325e-03
5.000000e+08	1.004972e+14	0.000000e+00	8.181817e-01	1.849647e+15	1.879901e+15	1.369733e+14	1.523453e+04	8.188906e+03	4.866704e+03	0	1.245745e-03
5.100000e+08	9.916071e+13	0.000000e+00	8.181817e-01	1.838041e+15	1.886912e+15	1.362884e+14	1.521396e+04	8.194567e+03	4.870068e+03	0	1.240198e-03
5.200000e+08	9.784364e+13	0.000000e+00	8.181817e-01	1.826591e+15	1.892664e+15	1.356083e+14	1.519351e+04	8.199201e+03	4.872822e+03	0	1.234683e-03
5.300000e+08	9.654559e+13	0.000000e+00	8.181817e-01	1.815294e+15	1.897244e+15	1.349330e+14	1.517319e+04	8.202883e+03	4.875010e+03	0	1.229198e-03
5.400000e+08	9.526610e+13	0.000000e+00	8.181817e-01	1.804148e+15	1.900734e+15	1.342626e+14	1.515300e+04	8.205684e+03	4.876675e+03	0	1.223744e-03
5.500000e+08	9.400469e+13	0.000000e+00	8.181817e-01	1.793147e+15	1.903212e+15	1.335970e+14	1.513293e+04	8.207671e+03	4.877856e+03	0	1.218319e-03
5.600000e+08	9.276089e+13	0.000000e+00	8.181817e-01	1.782288e+15	1.904752e+15	1.329360e+14	1.511299e+04	8.208905e+03	4.878589e+03	0	1.212922e-03
5.700000e+08	9.153421e+13	0.000000e+00	8.181817e-01	1.771568e+15	1.905426e+15	1.322798e+14	1.509316e+04	8.209445e+03	4.878910e+03	0	1.207551e-03
5.800000e+08	9.032418e+13	0.000000e+00	8.181817e-01	1.760983e+15	1.905299e+15	1.316282e+14	1.507345e+04	8.209343e+03	4.878850e+03	0	1.202207e-03
5.900000e+08	8.913033e+13	0.000000e+00	8.181817e-01	1.750529e+15	1.904435e+15	1.309813e+14	1.505386e+04	8.208651e+03	4.878438e+03	0	1.196887e-03
6.000000e+08	8.795221e+13	0.000000e+00	8.181817e-01	1.740203e+15	1.902891e+15	1.303389e+14	1.503439e+04	8.207414e+03	4.877703e+03	0	1.191590e-03
6.100000e+08	8.678938e+13	0.000000e+00	8.181817e-01	1.730000e+15	1.900723e+15	1.297011e+14	1.501503e+04	8.205675e+03	4.876670e+03	0	1.186315e-03
6.200000e+08	8.564140e+13	0.000000e+00	8.181817e-01	1.719919e+15	1.897982e+15	1.290677e+14	1.499579e+04	8.203475e+03	4.875363e+03	0	1.181061e-03
6.300000e+08	8.450787e+13	0.000000e+00	8.181817e-01	1.709955e+15	1.894716e+15	1.284389e+14	1.497665e+04	8.200851e+03	4.873803e+03	0	1.175827e-03
6.400000e+08	8.338838e+13	0.000000e+00	8.181817e-01	1.700105e+15	1.890970e+15	1.278145e+14	1.495763e+04	8.197837e+03	4.872012e+03	0	1.170612e-03
6.500000e+08	8.228256e+13	0.000000e+00	8.181817e-01	1.690367e+15	1.886786e+15	1.271944e+14	1.493872e+04	8.194465e+03	4.870008e+03	0	1.165414e-03
6.600000e+08	8.119003e+13	0.000000e+00	8.181817e-01	1.680738e+15	1.882201e+15	1.265788e+14	1.491991e+04	8.190765e+03	4.867809e+03	0	1.160233e-03
6.700000e+08	8.011045e+13	0.000000e+00	8.181817e-01	1.671214e+15	1.877252e+15	1.259675e+14	1.490121e+04	8.186763e+03	4.865430e+03	0	1.155068e-03
6.800000e+08	7.904349e+13	0.000000e+00	8.181817e-01	1.661793e+15	1.871972e+15	1.253604e+14	1.488262e+04	8.182484e+03	4.862888e+03	0	1.149917e-03
6.900000e+08	7.798882e+13	0.000000e+00	8.181817e-01	1.652474e+15	1.866391e+15	1.247576e+14	1.486413e+04	8.177953e+03	4.860195e+03	0	1.144780e-03
7.000000e+08	7.694615e+13	0.000000e+00	8.181817e-01	1.643252e+15	1.860539e+15	1.241591e+14	1.484575e+04	8.173191e+03	4.857364e+03	0	1.139655e-03
7.100000e+08	7.591517e+13	0.000000e+00	8.181817e-01	1.634127e+15	1.854440e+15	1.235647e+14	1.482746e+04	8.168217e+03	4.854408e+03	0	1.134542e-03
7.200000e+08	7.489561e+13	0.000000e+00	8.181817e-01	1.625096e+15	1.848120e+15	1.229745e+14	1.480928e+04	8.163050e+03	4.851338e+03	0	1.129440e-03
7.300000e+08	7.388721e+13	0.000000e+00	8.181817e-01	1.616156e+15	1.841602e+15	1.223884e+14	1.479120e+04	8.157707e+03	4.848162e+03	0	1.124348e-03
7.400000e+08	7.288972e+13	0.000000e+00	8.181817e-01	1.607306e+15	1.834904e+15	1.218065e+14	1.477322e+04	8.152203e+03	4.844891e+03	0	1.119266e-03
7.500000e+08	7.190289e+13	0.000000e+00	8.181817e-01	1.598544e+15	1.828048e+15	1.212285e+14	1.475534e+04	8.146554e+03	4.841534e+03	0	1.114192e-03
7.600000e+08	7.092650e+13	0.000000e+00	8.181817e-01	1.589868e+15	1.821049e+15	1.206546e+14	1.473755e+04	8.140771e+03	4.838097e+03	0	1.109125e-03
7.700000e+08	6.996033e+13	0.000000e+00	8.181817e-01	1.581277e+15	1.813925e+15	1.200847e+14	1.471986e+04	8.134869e+03	4.834589e+03	0	1.104066e-03
7.800000e+08	6.900416e+13	0.000000e+00	8.181817e-01	1.572768e+15	1.806689e+15	1.195187e+14	1.470227e+04	8.128857e+03	4.831017e+03	0	1.099013e-03
7.900000e+08	6.805779e+13	0.000000e+00	8.181817e-01	1.564341e+15	1.799357e+15	1.189567e+14	1.468477e+04	8.122747e+03	4.827386e+03	0	1.093966e-03
8.000000e+08	6.712104e+13	0.000000e+00	8.181817e-01	1.555993e+15	1.791940e+15	1.183986e+14	1.466737e+04	8.116549e+03	4.823702e+03	0	1.088924e-03
8.100000e+08	6.619372e+13	0.000000e+00	8.181817e-01	1.547723e+15	1.784451e+15	1.178443e+14	1.465005e+04	8.110270e+03	4.819970e+03	0	1.083886e-03
8.200000e+08	6.527566e+13	0.000000e+00	8.181817e-01	1.539530e+15	1.776898e+15	1.172939e+14	1.463283e+04	8.103920e+03	4.816196e+03	0	1.078851e-03
8.300000e+08	6.436668e+13	0.000000e+00	8.181817e-01	1.531412e+15	1.769293e+15	1.167473e+14	1.461570e+04	8.097505e+03	4.812384e+03	0	1.073820e-03
8.400000e+08	6.346662e+13	0.000000e+00	8.181817e-01	1.523368e+15	1.761645e+15	1.162045e+14	1.459866e+04	8.091034e+03	4.808538e+03	0	1.068791e-03
8.500000e+08	6.257534e+13	0.000000e+00	8.181817e-01	1.515398e+15	1.753960e+15	1.156654e+14	1.458171e+04	8.084512e+03	4.804662e+03	0	1.063765e-03
8.600000e+08	6.169266e+13	0.000000e+00	8.181817e-01	1.507499e+15	1.746248e+15	1.151300e+14	1.456485e+04	8.077946e+03	4.800760e+03	0	1.058739e-03
8.700000e+08	6.081847e+13	0.000000e+00	8.181817e-01	1.499670e+15	1.738514e+15	1.145983e+14	1.454807e+04	8.071340e+03	4.796834e+03	0	1.053715e-03
8.800000e+08	5.995260e+13	0.000000e+00	8.181817e-01	1.491911e+15	1.730766e+15	1.140703e+14	1.453139e+04	8.064701e+03	4.792888e+03	0	1.048690e-03
8.900000e+08	5.909494e+13	0.000000e+00	8.181817e-01	1.484221e+15	1.723009e+15	1.135459e+14	1.451478e+04	8.058032e+03	4.788925e+03	0	1.043665e-03
9.000000e+08	5.824535e+13	0.000000e+00	8.181817e-01	1.476597e+15	1.715247e+15	1.130250e+14	1.449827e+04	8.051338e+03	4.784947e+03	0	1.038640e-03
9.100000e+08	5.740370e+13	0.000000e+00	8.181817e-01	1.469040e+15	1.707488e+15	1.125078e+14	1.448184e+04	8.044624e+03	4.780956e+03	0	1.033613e-03
9.200000e+08	5.656988e+13	0.000000e+00	8.181817e-01	1.461549e+15	1.699733e+15	1.119941e+14	1.446549e+04	8.037892e+03	4.776955e+03	0	1.028583e-03
9.300000e+08	5.574376e+13	0.000000e+00	8.181817e-01	1.454121e+15	1.691987e+15	1.114839e+14	1.444923e+04	8.031145e+03	4.772946e+03	0	1.023552e-03
9.400000e+08	5.492524e+13	0.000000e+00	8.181817e-01	1.446757e+15	1.684255e+15	1.109772e+14	1.443304e+04	8.024388e+03	4.768930e+03	0	1.018517e-03
9.500000e+08	5.411420e+13	0.000000e+00	8.181817e-01	1.439456e+15	1.676540e+15	1.104740e+14	1.441694e+04	8.017624e+03	4.764910e+03	0	1.013479e-03
9.600000e+08	5.331054e+13	0.000000e+00	8.181817e-01	1.432217e+15	1.668843e+15	1.099742e+14	1.440093e+04	8.010853e+03	4.760886e+03	0	1.008437e-03
9.700000e+08	5.251415e+13	0.000000e+00	8.181817e-01	1.425038e+15	1.661169e+15	1.094778e+14	1.438499e+04	8.004080e+03	4.756861e+03	0	1.003390e-03
9.800000e+08	5.172494e+13	0.000000e+00	8.181817e-01	1.417920e+15	1.653521e+15	1.089848e+14	1.436913e+04	7.997306e+03	4.752835e+03	0	9.983384e-04
9.900000e+08	5.094280e+13	0.000000e+00	8.181817e-01	1.410861e+15	1.645899e+15	1.084951e+14	1.435335e+04	7.990534e+03	4.748810e+03	0	9.932809e-04
1.000000e+09	5.016763e+13	0.000000e+00	8.181817e-01	1.403860e+15	1.638305e+15	1.080087e+14	1.433765e+04	7.983765e+03	4.744788e+03	0	9.882170e-04
1.010000e+09	4.939935e+13	0.000000e+00	8.181817e-01	1.396917e+15	1.630744e+15	1.075257e+14	1.432203e+04	7.977001e+03	4.740768e+03	0	9.831465e-04
1.020000e+09	4.863787e+13	0.000000e+00	8.181817e-01	1.390031e+15	1.623214e+15	1.070459e+14	1.430648e+04	7.970243e+03	4.736752e+03	0	9.780686e-04
1.030000e+09	4.788309e+13	0.000000e+00	8.181817e-01	1.383202e+15	1.615719e+15	1.065694e+14	1.429101e+04	7.963494e+03	4.732741e+03	0	9.729829e-04
1.040000e+09	4.713493e+13	0.000000e+00	8.181817e-01	1.376428e+15	1.608260e+15	1.060961e+14	1.427562e+04	7.956754e+03	4.728735e+03	0	9.678887e-04
1.050000e+09	4.639330e+13	0.000000e+00	8.181817e-01	1.369709e+15	1.600838e+15	1.056260e+14	1.426030e+04	7.950025e+03	4.724736e+03	0	9.627856e-04
1.060000e+09	4.565813e+13	0.000000e+00	8.181817e-01	1.363045e+15	1.593452e+15	1.051590e+14	1.424505e+04	7.943308e+03	4.720744e+03	0	9.576729e-04
1.070000e+09	4.492933e+13	0.000000e+00	8.181817e-01	1.356434e+15	1.586107e+15	1.046952e+14	1.422989e+04	7.936604e+03	4.716760e+03	0	9.525500e-04
1.080000e+09	4.420682e+13	0.000000e+00	8.181817e-01	1.349876e+15	1.578801e+15	1.042345e+14	1.421479e+04	7.929913e+03	4.712784e+03	0	9.474164e-04
1.090000e+09	4.349052e+13	0.000000e+00	8.181817e-01	1.343370e+15	1.571535e+15	1.037770e+14	1.419977e+04	7.923238e+03	4.708816e+03	0	9.422714e-04
1.100000e+09	4.278037e+13	0.000000e+00	8.181817e-01	1.336916e+15	1.564310e+15	1.033225e+14	1.418481e+04	7.916578e+03	4.704858e+03	0	9.371145e-04
1.110000e+09	4.207628e+13	0.000000e+00	8.181817e-01	1.330513e+15	1.557127e+15	1.028710e+14	1.416994e+04	7.909934e+03	4.700910e+03	0	9.319449e-04
1.120000e+09	4.137818e+13	0.000000e+00	8.181817e-01	1.324161e+15	1.549986e+15	1.024226e+14	1.415513e+04	7.903308e+03	4.696972e+03	0	9.267621e-04
1.130000e+09	4.068600e+13	0.000000e+00	8.181817e-01	1.317858e+15	1.542888e+15	1.019771e+14	1.414039e+04	7.896699e+03	4.693044e+03	0	9.215654e-04
1.140000e+09	3.999968e+13	0.000000e+00	8.181817e-01	1.311605e+15	1.535833e+15	1.015347e+14	1.412572e+04	7.890108e+03	4.689127e+03	0	9.163540e-04
1.150000e+09	3.931913e+13	0.000000e+00	8.181817e-01	1.305401e+15	1.528821e+15	1.010952e+14	1.411112e+04	7.883536e+03	4.685221e+03	0	9.111274e-04
1.160000e+09	3.864430e+13	0.000000e+00	8.181817e-01	1.299245e+15	1.521852e+15	1.006586e+14	1.409659e+04	7.876983e+03	4.681327e+03	0	9.058848e-04
1.170000e+09	3.797512e+13	0.000000e+00	8.181817e-01	1.293137e+15	1.514928e+15	1.002249e+14	1.408213e+04	7.870449e+03	4.677444e+03	0	9.006254e-04
1.180000e+09	3.731153e+13	0.000000e+00	8.181817e-01	1.287076e+15	1.508047e+15	9.979416e+13	1.406774e+04	7.863936e+03	4.673573e+03	0	8.953486e-04
1.190000e+09	3.665345e+13	0.000000e+00	8.181817e-01	1.281062e+15	1.501210e+15	9.936625e+13	1.405341e+04	7.857443e+03	4.669714e+03	0	8.900535e-04
1.200000e+09	3.600083e+13	0.000000e+00	8.181817e-01	1.275094e+15	1.494418e+15	9.894118e+13	1.403916e+04	7.850970e+03	4.665867e+03	0	8.847393e-04
1.210000e+09	3.535361e+13	0.000000e+00	8.181817e-01	1.269171e+15	1.487669e+15	9.851892e+13	1.402496e+04	7.844518e+03	4.662033e+03	0	8.794053e-04
1.220000e+09	3.471173e+13	0.000000e+00	8.181817e-01	1.263294e+15	1.480964e+15	9.809947e+13	1.401084e+04	7.838087e+03	4.658211e+03	0	8.740505e-04
1.230000e+09	3.407511e+13	0.000000e+00	8.181817e-01	1.257461e+15	1.474304e+15	9.768279e+13	1.399678e+04	7.831678e+03	4.654402e+03	0	8.686742e-04
1.240000e+09	3.344372e+13	0.000000e+00	8.181817e-01	1.251673e+15	1.467687e+15	9.726886e+13	1.398278e+04	7.825290e+03	4.650605e+03	0	8.632753e-04
1.250000e+09	3.281748e+13	0.000000e+00	8.181817e-01	1.245928e+15	1.461114e+15	9.685767e+13	1.396885e+04	7.818924e+03	4.646822e+03	0	8.578530e-04
1.260000e+09	3.219635e+13	0.000000e+00	8.181817e-01	1.240227e+15	1.454585e+15	9.644918e+13	1.395498e+04	7.812579e+03	4.643051e+03	0	8.524063e-04
1.270000e+09	3.158026e+13	0.000000e+00	8.181817e-01	1.234568e+15	1.448100e+15	9.604339e+13	1.394117e+04	7.806257e+03	4.639294e+03	0	8.469343e-04
1.280000e+09	3.096916e+13	0.000000e+00	8.181817e-01	1.228952e+15	1.441658e+15	9.564027e+13	1.392743e+04	7.799956e+03	4.635549e+03	0	8.414358e-04
1.290000e+09	3.036300e+13	0.000000e+00	8.181817e-01	1.223378e+15	1.435259e+15	9.523979e+13	1.391375e+04	7.793678e+03	4.631818e+03	0	8.359097e-04
1.300000e+09	2.976173e+13	0.000000e+00	8.181817e-01	1.217845e+15	1.428904e+15	9.484195e+13	1.390013e+04	7.787422e+03	4.628100e+03	0	8.303551e-04
1.310000e+09	2.916528e+13	0.000000e+00	8.181817e-01	1.212353e+15	1.422592e+15	9.444671e+13	1.388658e+04	7.781188e+03	4.624395e+03	0	8.247707e-04
1.320000e+09	2.857362e+13	0.000000e+00	8.181817e-01	1.206902e+15	1.416322e+15	9.405406e+13	1.387308e+04	7.774976e+03	4.620704e+03	0	8.191552e-04
1.330000e+09	2.798668e+13	0.000000e+00	8.181817e-01	1.201491e+15	1.410095e+15	9.366398e+13	1.385965e+04	7.768787e+03	4.617025e+03	0	8.135076e-04
1.340000e+09	2.740442e+13	0.000000e+00	8.181817e-01	1.196119e+15	1.403910e+15	9.327645e+13	1.384627e+04	7.762620e+03	4.613360e+03	0	8.078263e-04
1.350000e+09	2.682679e+13	0.000000e+00	8.181817e-01	1.190787e+15	1.397767e+15	9.289145e+13	1.383296e+04	7.756475e+03	4.609708e+03	0	8.021102e-04
1.360000e+09	2.625373e+13	0.000000e+00	8.181817e-01	1.185494e+15	1.391666e+15	9.250895e+13	1.381970e+04	7.750353e+03	4.606070e+03	0	7.963576e-04
