#t		Qconv[W]	Ri[Rp]		R*[Rp]		Qc[W]		Qm[W]		Qr[W]		Tcmb[K]		Tl[K]		Tup[K]		RiFlag		Bs[T]
0.000000e+00	9.055297e+13	0.000000e+00	8.181815e-01	2.206767e+15	5.334222e+13	1.946781e+14	1.709682e+04	4.835012e+03	2.849653e+03	0	1.201367e-03
1.000000e+07	9.324909e+13	0.000000e+00	8.181815e-01	2.224941e+15	6.392882e+13	1.935994e+14	1.707576e+04	4.953641e+03	2.919571e+03	0	1.213174e-03
2.000000e+07	9.581597e+13	0.000000e+00	8.181815e-01	2.242139e+15	7.611575e+13	1.925288e+14	1.705453e+04	5.072561e+03	2.989660e+03	0	1.224205e-03
3.000000e+07	9.824619e+13	0.000000e+00	8.181815e-01	2.258305e+15	9.005267e+13	1.914662e+14	1.703313e+04	5.191637e+03	3.059840e+03	0	1.234469e-03
4.000000e+07	1.005327e+14	0.000000e+00	8.181815e-01	2.273388e+15	1.058880e+14	1.904116e+14	1.701158e+04	5.310725e+03	3.130028e+03	0	1.243972e-03
5.000000e+07	1.026688e+14	0.000000e+00	8.181815e-01	2.287339e+15	1.237658e+14	1.893648e+14	1.698989e+04	5.429670e+03	3.200132e+03	0	1.252721e-03
6.000000e+07	1.046487e+14	0.000000e+00	8.181815e-01	2.300115e+15	1.438229e+14	1.883258e+14	1.696807e+04	5.548308e+03	3.270055e+03	0	1.260723e-03
7.000000e+07	1.064668e+14	0.000000e+00	8.181815e-01	2.311676e+15	1.661854e+14	1.872946e+14	1.694612e+04	5.666468e+03	3.339696e+03	0	1.267982e-03
8.000000e+07	1.081187e+14	0.000000e+00	8.181815e-01	2.321991e+15	1.909649e+14	1.862710e+14	1.692406e+04	5.783968e+03	3.408947e+03	0	1.274506e-03
9.000000e+07	1.096005e+14	0.000000e+00	8.181815e-01	2.331032e+15	2.182550e+14	1.852550e+14	1.690191e+04	5.900620e+03	3.477700e+03	0	1.280302e-03
1.000000e+08	1.109096e+14	0.000000e+00	8.181815e-01	2.338779e+15	2.481281e+14	1.842466e+14	1.687967e+04	6.016232e+03	3.545839e+03	0	1.285380e-03
1.100000e+08	1.120443e+14	0.000000e+00	8.181815e-01	2.345221e+15	2.806316e+14	1.832456e+14	1.685735e+04	6.130606e+03	3.613249e+03	0	1.289748e-03
1.200000e+08	1.130037e+14	0.000000e+00	8.181815e-01	2.350355e+15	3.157853e+14	1.822521e+14	1.683498e+04	6.243543e+03	3.679811e+03	0	1.293419e-03
1.300000e+08	1.137884e+14	0.000000e+00	8.181815e-01	2.354184e+15	3.535785e+14	1.812659e+14	1.681255e+04	6.354842e+03	3.745408e+03	0	1.296406e-03
1.400000e+08	1.144000e+14	0.000000e+00	8.181815e-01	2.356720e+15	3.939689e+14	1.802871e+14	1.679009e+04	6.464305e+03	3.809924e+03	0	1.298724e-03
1.500000e+08	1.148410e+14	0.000000e+00	8.181815e-01	2.357987e+15	4.368804e+14	1.793154e+14	1.676760e+04	6.571738e+03	3.873242e+03	0	1.300391e-03
1.600000e+08	1.151154e+14	0.000000e+00	8.181815e-01	2.358011e+15	4.822035e+14	1.783510e+14	1.674511e+04	6.676951e+03	3.935253e+03	0	1.301426e-03
1.700000e+08	1.152280e+14	0.000000e+00	8.181815e-01	2.356832e+15	5.297955e+14	1.773936e+14	1.672261e+04	6.779763e+03	3.995848e+03	0	1.301850e-03
1.800000e+08	1.151846e+14	0.000000e+00	8.181815e-01	2.354493e+15	5.794821e+14	1.764433e+14	1.670012e+04	6.880003e+03	4.054927e+03	0	1.301687e-03
1.900000e+08	1.149919e+14	0.000000e+00	8.181815e-01	2.351044e+15	6.310594e+14	1.755001e+14	1.667766e+04	6.977512e+03	4.112397e+03	0	1.300960e-03
2.000000e+08	1.146574e+14	0.000000e+00	8.181815e-01	2.346544e+15	6.842972e+14	1.745637e+14	1.665523e+04	7.072144e+03	4.168171e+03	0	1.299697e-03
2.100000e+08	1.141892e+14	0.000000e+00	8.181815e-01	2.341053e+15	7.389430e+14	1.736343e+14	1.663284e+04	7.163767e+03	4.222172e+03	0	1.297926e-03
2.200000e+08	1.135961e+14	0.000000e+00	8.181815e-01	2.334637e+15	7.947256e+14	1.727116e+14	1.661050e+04	7.252268e+03	4.274333e+03	0	1.295675e-03
2.300000e+08	1.128871e+14	0.000000e+00	8.181815e-01	2.327364e+15	8.513610e+14	1.717958e+14	1.658823e+04	7.337550e+03	4.324596e+03	0	1.292974e-03
2.400000e+08	1.120717e+14	0.000000e+00	8.181815e-01	2.319305e+15	9.085571e+14	1.708866e+14	1.656602e+04	7.419534e+03	4.372916e+03	0	1.289853e-03
2.500000e+08	1.111592e+14	0.000000e+00	8.181815e-01	2.310530e+15	9.660179e+14	1.699841e+14	1.654390e+04	7.498160e+03	4.419256e+03	0	1.286343e-03
2.600000e+08	1.101591e+14	0.000000e+00	8.181815e-01	2.301112e+15	1.023450e+15	1.690883e+14	1.652185e+04	7.573385e+03	4.463592e+03	0	1.282473e-03
2.700000e+08	1.090807e+14	0.000000e+00	8.181815e-01	2.291119e+15	1.080567e+15	1.681989e+14	1.649990e+04	7.645186e+03	4.505910e+03	0	1.278275e-03
2.800000e+08	1.079333e+14	0.000000e+00	8.181815e-01	2.280620e+15	1.137094e+15	1.673161e+14	1.647804e+04	7.713557e+03	4.546206e+03	0	1.273777e-03
2.900000e+08	1.067255e+14	0.000000e+00	8.181815e-01	2.269682e+15	1.192771e+15	1.664397e+14	1.645628e+04	7.778510e+03	4.584488e+03	0	1.269008e-03
3.000000e+08	1.054658e+14	0.000000e+00	8.181815e-01	2.258366e+15	1.247355e+15	1.655697e+14	1.643462e+04	7.840072e+03	4.620772e+03	0	1.263995e-03
3.100000e+08	1.041620e+14	0.000000e+00	8.181815e-01	2.246732e+15	1.300625e+15	1.647060e+14	1.641308e+04	7.898286e+03	4.655081e+03	0	1.258765e-03
3.200000e+08	1.028217e+14	0.000000e+00	8.181815e-01	2.234836e+15	1.352386e+15	1.638486e+14	1.639164e+04	7.953206e+03	4.687450e+03	0	1.253343e-03
3.300000e+08	1.014515e+14	0.000000e+00	8.181815e-01	2.222728e+15	1.402464e+15	1.629975e+14	1.637032e+04	8.004900e+03	4.717918e+03	0	1.247751e-03
3.400000e+08	1.000580e+14	0.000000e+00	8.181815e-01	2.210457e+15	1.450710e+15	1.621525e+14	1.634911e+04	8.053449e+03	4.746531e+03	0	1.242011e-03
3.500000e+08	9.864671e+13	0.000000e+00	8.181815e-01	2.198064e+15	1.497002e+15	1.613137e+14	1.632802e+04	8.098939e+03	4.773342e+03	0	1.236144e-03
3.600000e+08	9.722291e+13	0.000000e+00	8.181815e-01	2.185588e+15	1.541241e+15	1.604809e+14	1.630705e+04	8.141466e+03	4.798407e+03	0	1.230168e-03
3.700000e+08	9.579120e+13	0.000000e+00	8.181815e-01	2.173065e+15	1.583354e+15	1.596542e+14	1.628619e+04	8.181133e+03	4.821786e+03	0	1.224100e-03
3.800000e+08	9.435568e+13	0.000000e+00	8.181815e-01	2.160523e+15	1.623287e+15	1.588335e+14	1.626546e+04	8.218046e+03	4.843541e+03	0	1.217954e-03
3.900000e+08	9.291994e+13	0.000000e+00	8.181815e-01	2.147991e+15	1.661010e+15	1.580187e+14	1.624484e+04	8.252316e+03	4.863739e+03	0	1.211745e-03
4.000000e+08	9.148709e+13	0.000000e+00	8.181815e-01	2.135491e+15	1.696512e+15	1.572097e+14	1.622435e+04	8.284056e+03	4.882446e+03	0	1.205484e-03
4.100000e+08	9.005984e+13	0.000000e+00	8.181815e-01	2.123043e+15	1.729797e+15	1.564066e+14	1.620397e+04	8.313380e+03	4.899729e+03	0	1.199183e-03
4.200000e+08	8.864047e+13	0.000000e+00	8.181815e-01	2.110665e+15	1.760887e+15	1.556093e+14	1.618371e+04	8.340404e+03	4.915656e+03	0	1.192849e-03
4.300000e+08	8.723089e+13	0.000000e+00	8.181815e-01	2.098370e+15	1.789817e+15	1.548178e+14	1.616358e+04	8.365240e+03	4.930295e+03	0	1.186493e-03
4.400000e+08	8.583271e+13	0.000000e+00	8.181815e-01	2.086170e+15	1.816631e+15	1.540319e+14	1.614355e+04	8.388003e+03	4.943710e+03	0	1.180119e-03
4.500000e+08	8.444722e+13	0.000000e+00	8.181815e-01	2.074075e+15	1.841385e+15	1.532517e+14	1.612365e+04	8.408803e+03	4.955969e+03	0	1.173735e-03
4.600000e+08	8.307547e+13	0.000000e+00	8.181815e-01	2.062093e+15	1.864144e+15	1.524771e+14	1.610386e+04	8.427748e+03	4.967135e+03	0	1.167345e-03
4.700000e+08	8.171826e+13	0.000000e+00	8.181815e-01	2.050229e+15	1.884977e+15	1.517080e+14	1.608418e+04	8.444943e+03	4.977269e+03	0	1.160953e-03
4.800000e+08	8.037622e+13	0.000000e+00	8.181815e-01	2.038489e+15	1.903957e+15	1.509445e+14	1.606462e+04	8.460491e+03	4.986433e+03	0	1.154563e-03
4.900000e+08	7.904978e+13	0.000000e+00	8.181815e-01	2.026874e+15	1.921165e+15	1.501864e+14	1.604516e+04	8.474489e+03	4.994684e+03	0	1.148176e-03
5.000000e+08	7.773924e+13	0.000000e+00	8.181815e-01	2.015387e+15	1.936679e+15	1.494337e+14	1.602582e+04	8.487033e+03	5.002077e+03	0	1.141796e-03
5.100000e+08	7.644475e+13	0.000000e+00	8.181815e-01	2.004030e+15	1.950583e+15	1.486864e+14	1.600659e+04	8.498213e+03	5.008666e+03	0	1.135423e-03
5.200000e+08	7.516639e+13	0.000000e+00	8.181815e-01	1.992803e+15	1.962956e+15	1.479445e+14	1.598747e+04	8.508114e+03	5.014501e+03	0	1.129058e-03
5.300000e+08	7.390413e+13	0.000000e+00	8.181815e-01	1.981705e+15	1.973883e+15	1.472078e+14	1.596845e+04	8.516820e+03	5.019633e+03	0	1.122702e-03
5.400000e+08	7.265787e+13	0.000000e+00	8.181815e-01	1.970735e+15	1.983442e+15	1.464764e+14	1.594954e+04	8.524409e+03	5.024105e+03	0	1.116355e-03
5.500000e+08	7.142744e+13	0.000000e+00	8.181815e-01	1.959893e+15	1.991713e+15	1.457502e+14	1.593073e+04	8.530953e+03	5.027962e+03	0	1.110018e-03
5.600000e+08	7.021264e+13	0.000000e+00	8.181815e-01	1.949176e+15	1.998774e+15	1.450291e+14	1.591203e+04	8.536524e+03	5.031245e+03	0	1.103689e-03
5.700000e+08	6.901323e+13	0.000000e+00	8.181815e-01	1.938583e+15	2.004698e+15	1.443132e+14	1.589343e+04	8.541187e+03	5.033994e+03	0	1.097368e-03
5.800000e+08	6.782892e+13	0.000000e+00	8.181815e-01	1.928112e+15	2.009557e+15	1.436024e+14	1.587493e+04	8.545005e+03	5.036244e+03	0	1.091055e-03
5.900000e+08	6.665944e+13	0.000000e+00	8.181815e-01	1.917759e+15	2.013421e+15	1.428965e+14	1.585653e+04	8.548036e+03	5.038030e+03	0	1.084748e-03
6.000000e+08	6.550447e+13	0.000000e+00	8.181815e-01	1.907524e+15	2.016356e+15	1.421957e+14	1.583823e+04	8.550335e+03	5.039385e+03	0	1.078446e-03
6.100000e+08	6.436369e+13	0.000000e+00	8.181815e-01	1.897402e+15	2.018424e+15	1.414999e+14	1.582002e+04	8.551954e+03	5.040340e+03	0	1.072149e-03
6.200000e+08	6.323677e+13	0.000000e+00	8.181815e-01	1.887393e+15	2.019686e+15	1.408089e+14	1.580192e+04	8.552941e+03	5.040921e+03	0	1.065855e-03
6.300000e+08	6.212340e+13	0.000000e+00	8.181815e-01	1.877493e+15	2.020198e+15	1.401229e+14	1.578391e+04	8.553342e+03	5.041157e+03	0	1.059563e-03
6.400000e+08	6.102324e+13	0.000000e+00	8.181815e-01	1.867700e+15	2.020015e+15	1.394417e+14	1.576599e+04	8.553198e+03	5.041073e+03	0	1.053271e-03
6.500000e+08	5.993598e+13	0.000000e+00	8.181815e-01	1.858011e+15	2.019186e+15	1.387652e+14	1.574816e+04	8.552550e+03	5.040691e+03	0	1.046978e-03
6.600000e+08	5.886129e+13	0.000000e+00	8.181815e-01	1.848424e+15	2.017760e+15	1.380936e+14	1.573043e+04	8.551435e+03	5.040033e+03	0	1.040682e-03
6.700000e+08	5.779888e+13	0.000000e+00	8.181815e-01	1.838936e+15	2.015782e+15	1.374266e+14	1.571279e+04	8.549886e+03	5.039121e+03	0	1.034383e-03
6.800000e+08	5.674843e+13	0.000000e+00	8.181815e-01	1.829546e+15	2.013294e+15	1.367644e+14	1.569524e+04	8.547936e+03	5.037972e+03	0	1.028078e-03
6.900000e+08	5.570966e+13	0.000000e+00	8.181815e-01	1.820250e+15	2.010335e+15	1.361068e+14	1.567778e+04	8.545616e+03	5.036604e+03	0	1.021767e-03
7.000000e+08	5.468229e+13	0.000000e+00	8.181815e-01	1.811047e+15	2.006943e+15	1.354538e+14	1.566041e+04	8.542952e+03	5.035034e+03	0	1.015447e-03
7.100000e+08	5.366604e+13	0.000000e+00	8.181815e-01	1.801935e+15	2.003152e+15	1.348053e+14	1.564312e+04	8.539971e+03	5.033277e+03	0	1.009117e-03
7.200000e+08	5.266065e+13	0.000000e+00	8.181815e-01	1.792912e+15	1.998994e+15	1.341614e+14	1.562592e+04	8.536698e+03	5.031348e+03	0	1.002775e-03
7.300000e+08	5.166586e+13	0.000000e+00	8.181815e-01	1.783975e+15	1.994501e+15	1.335220e+14	1.560881e+04	8.533154e+03	5.029259e+03	0	9.964209e-04
7.400000e+08	5.068144e+13	0.000000e+00	8.181815e-01	1.775123e+15	1.989699e+15	1.328871e+14	1.559179e+04	8.529361e+03	5.027024e+03	0	9.900518e-04
7.500000e+08	4.970714e+13	0.000000e+00	8.181815e-01	1.766354e+15	1.984615e+15	1.322566e+14	1.557484e+04	8.525338e+03	5.024653e+03	0	9.836665e-04
7.600000e+08	4.874275e+13	0.000000e+00	8.181815e-01	1.757666e+15	1.979274e+15	1.316305e+14	1.555798e+04	8.521103e+03	5.022157e+03	0	9.772634e-04
7.700000e+08	4.778804e+13	0.000000e+00	8.181815e-01	1.749057e+15	1.973697e+15	1.310087e+14	1.554121e+04	8.516673e+03	5.019546e+03	0	9.708408e-04
7.800000e+08	4.684282e+13	0.000000e+00	8.181815e-01	1.740526e+15	1.967907e+15	1.303913e+14	1.552451e+04	8.512063e+03	5.016829e+03	0	9.643972e-04
7.900000e+08	4.590688e+13	0.000000e+00	8.181815e-01	1.732072e+15	1.961922e+15	1.297781e+14	1.550790e+04	8.507289e+03	5.014015e+03	0	9.579310e-04
8.000000e+08	4.498004e+13	0.000000e+00	8.181815e-01	1.723693e+15	1.955762e+15	1.291692e+14	1.549137e+04	8.502363e+03	5.011112e+03	0	9.514403e-04
8.100000e+08	4.406211e+13	0.000000e+00	8.181815e-01	1.715387e+15	1.949441e+15	1.285646e+14	1.547492e+04	8.497298e+03	5.008126e+03	0	9.449236e-04
8.200000e+08	4.315292e+13	0.000000e+00	8.181815e-01	1.707153e+15	1.942978e+15	1.279641e+14	1.545854e+04	8.492105e+03	5.005066e+03	0	9.383792e-04
8.300000e+08	4.225231e+13	0.000000e+00	8.181815e-01	1.698991e+15	1.936386e+15	1.273677e+14	1.544225e+04	8.486796e+03	5.001937e+03	0	9.318051e-04
8.400000e+08	4.136011e+13	0.000000e+00	8.181815e-01	1.690897e+15	1.929677e+15	1.267755e+14	1.542603e+04	8.481380e+03	4.998745e+03	0	9.251998e-04
8.500000e+08	4.047617e+13	0.000000e+00	8.181815e-01	1.682872e+15	1.922865e+15	1.261874e+14	1.540989e+04	8.475867e+03	4.995496e+03	0	9.185612e-04
8.600000e+08	3.960034e+13	0.000000e+00	8.181815e-01	1.674915e+15	1.915961e+15	1.256033e+14	1.539383e+04	8.470265e+03	4.992194e+03	0	9.118875e-04
8.700000e+08	3.873249e+13	0.000000e+00	8.181815e-01	1.667023e+15	1.908976e+15	1.250232e+14	1.537784e+04	8.464583e+03	4.988845e+03	0	9.051768e-04
8.800000e+08	3.787247e+13	0.000000e+00	8.181815e-01	1.659197e+15	1.901919e+15	1.244472e+14	1.536193e+04	8.458827e+03	4.985452e+03	0	8.984270e-04
8.900000e+08	3.702015e+13	0.000000e+00	8.181815e-01	1.651434e+15	1.894801e+15	1.238750e+14	1.534609e+04	8.453004e+03	4.982021e+03	0	8.916362e-04
9.000000e+08	3.617541e+13	0.000000e+00	8.181815e-01	1.643735e+15	1.887628e+15	1.233069e+14	1.533033e+04	8.447122e+03	4.978554e+03	0	8.848020e-04
9.100000e+08	3.533813e+13	0.000000e+00	8.181815e-01	1.636098e+15	1.880410e+15	1.227426e+14	1.531464e+04	8.441185e+03	4.975055e+03	0	8.779224e-04
9.200000e+08	3.450819e+13	0.000000e+00	8.181815e-01	1.628521e+15	1.873152e+15	1.221821e+14	1.529902e+04	8.435200e+03	4.971527e+03	0	8.709951e-04
9.300000e+08	3.368548e+13	0.000000e+00	8.181815e-01	1.621005e+15	1.865861e+15	1.216255e+14	1.528348e+04	8.429170e+03	4.967974e+03	0	8.640175e-04
9.400000e+08	3.286989e+13	0.000000e+00	8.181815e-01	1.613549e+15	1.858545e+15	1.210728e+14	1.526800e+04	8.423103e+03	4.964397e+03	0	8.569872e-04
9.500000e+08	3.206131e+13	0.000000e+00	8.181815e-01	1.606151e+15	1.851209e+15	1.205237e+14	1.525260e+04	8.417000e+03	4.960801e+03	0	8.499017e-04
9.600000e+08	3.125964e+13	0.000000e+00	8.181815e-01	1.598811e+15	1.843856e+15	1.199785e+14	1.523727e+04	8.410867e+03	4.957186e+03	0	8.427581e-04
9.700000e+08	3.046478e+13	0.000000e+00	8.181815e-01	1.591527e+15	1.836493e+15	1.194369e+14	1.522201e+04	8.404708e+03	4.953556e+03	0	8.355536e-04
9.800000e+08	2.967665e+13	0.000000e+00	8.181815e-01	1.584300e+15	1.829123e+15	1.188990e+14	1.520681e+04	8.398525e+03	4.949912e+03	0	8.282852e-04
9.900000e+08	2.889513e+13	0.000000e+00	8.181815e-01	1.577129e+15	1.821752e+15	1.183648e+14	1.519169e+04	8.392323e+03	4.946256e+03	0	8.209496e-04
1.000000e+09	2.812015e+13	0.000000e+00	8.181815e-01	1.570012e+15	1.814382e+15	1.178342e+14	1.517663e+04	8.386104e+03	4.942591e+03	0	8.135436e-04
1.010000e+09	2.735162e+13	0.000000e+00	8.181815e-01	1.562949e+15	1.807017e+15	1.173072e+14	1.516165e+04	8.379870e+03	4.938917e+03	0	8.060636e-04
1.020000e+09	2.658945e+13	0.000000e+00	8.181815e-01	1.555940e+15	1.799660e+15	1.167838e+14	1.514673e+04	8.373625e+03	4.935236e+03	0	7.985058e-04
1.030000e+09	2.583356e+13	0.000000e+00	8.181815e-01	1.548983e+15	1.792314e+15	1.162639e+14	1.513187e+04	8.367371e+03	4.931550e+03	0	7.908663e-04
1.040000e+09	2.508388e+13	0.000000e+00	8.181815e-01	1.542078e+15	1.784982e+15	1.157476e+14	1.511708e+04	8.361110e+03	4.927860e+03	0	7.831408e-04
1.050000e+09	2.434031e+13	0.000000e+00	8.181815e-01	1.535225e+15	1.777666e+15	1.152347e+14	1.510236e+04	8.354845e+03	4.924167e+03	0	7.753248e-04
1.060000e+09	2.360279e+13	0.000000e+00	8.181815e-01	1.528423e+15	1.770368e+15	1.147253e+14	1.508771e+04	8.348576e+03	4.920473e+03	0	7.674135e-04
1.070000e+09	2.287125e+13	0.000000e+00	8.181815e-01	1.521671e+15	1.763091e+15	1.142193e+14	1.507312e+04	8.342306e+03	4.916778e+03	0	7.594017e-04
1.080000e+09	2.214560e+13	0.000000e+00	8.181815e-01	1.514969e+15	1.755836e+15	1.137167e+14	1.505859e+04	8.336037e+03	4.913083e+03	0	7.512839e-04
1.090000e+09	2.142578e+13	0.000000e+00	8.181815e-01	1.508315e+15	1.748605e+15	1.132175e+14	1.504413e+04	8.329769e+03	4.909389e+03	0	7.430542e-04
1.100000e+09	2.071173e+13	0.000000e+00	8.181815e-01	1.501711e+15	1.741399e+15	1.127216e+14	1.502973e+04	8.323506e+03	4.905697e+03	0	7.347062e-04
1.110000e+09	2.000336e+13	0.000000e+00	8.181815e-01	1.495154e+15	1.734220e+15	1.122291e+14	1.501539e+04	8.317246e+03	4.902008e+03	0	7.262329e-04
1.120000e+09	1.930062e+13	0.000000e+00	8.181815e-01	1.488645e+15	1.727070e+15	1.117399e+14	1.500112e+04	8.310993e+03	4.898322e+03	0	7.176269e-04
1.130000e+09	1.860344e+13	0.000000e+00	8.181815e-01	1.482183e+15	1.719949e+15	1.112539e+14	1.498690e+04	8.304747e+03	4.894641e+03	0	7.088800e-04
1.140000e+09	1.791176e+13	0.000000e+00	8.181815e-01	1.475767e+15	1.712858e+15	1.107712e+14	1.497275e+04	8.298509e+03	4.890964e+03	0	6.999834e-04
1.150000e+09	1.722552e+13	0.000000e+00	8.181815e-01	1.469397e+15	1.705799e+15	1.102917e+14	1.495866e+04	8.292280e+03	4.887293e+03	0	6.909274e-04
1.160000e+09	1.654465e+13	0.000000e+00	8.181815e-01	1.463073e+15	1.698772e+15	1.098154e+14	1.494464e+04	8.286060e+03	4.883627e+03	0	6.817014e-04
1.170000e+09	1.586910e+13	0.000000e+00	8.181815e-01	1.456793e+15	1.691778e+15	1.093423e+14	1.493067e+04	8.279852e+03	4.879968e+03	0	6.722938e-04
1.180000e+09	1.519881e+13	0.000000e+00	8.181815e-01	1.450558e+15	1.684817e+15	1.088724e+14	1.491676e+04	8.273655e+03	4.876316e+03	0	6.626916e-04
1.190000e+09	1.453372e+13	0.000000e+00	8.181815e-01	1.444367e+15	1.677892e+15	1.084055e+14	1.490291e+04	8.267470e+03	4.872670e+03	0	6.528808e-04
1.200000e+09	1.387377e+13	0.000000e+00	8.181815e-01	1.438220e+15	1.671001e+15	1.079418e+14	1.488912e+04	8.261297e+03	4.869033e+03	0	6.428453e-04
1.210000e+09	1.321891e+13	0.000000e+00	8.181815e-01	1.432115e+15	1.664145e+15	1.074811e+14	1.487539e+04	8.255138e+03	4.865403e+03	0	6.325675e-04
1.220000e+09	1.256909e+13	0.000000e+00	8.181815e-01	1.426054e+15	1.657325e+15	1.070235e+14	1.486172e+04	8.248993e+03	4.861781e+03	0	6.220274e-04
1.230000e+09	1.192425e+13	0.000000e+00	8.181815e-01	1.420035e+15	1.650541e+15	1.065689e+14	1.484810e+04	8.242863e+03	4.858168e+03	0	6.112027e-04
1.240000e+09	1.128433e+13	0.000000e+00	8.181815e-01	1.414057e+15	1.643794e+15	1.061173e+14	1.483454e+04	8.236747e+03	4.854563e+03	0	6.000677e-04
1.250000e+09	1.064929e+13	0.000000e+00	8.181815e-01	1.408121e+15	1.637084e+15	1.056687e+14	1.482104e+04	8.230646e+03	4.850968e+03	0	5.885932e-04
1.260000e+09	1.001908e+13	0.000000e+00	8.181815e-01	1.402226e+15	1.630410e+15	1.052231e+14	1.480760e+04	8.224561e+03	4.847381e+03	0	5.767456e-04
1.270000e+09	9.393652e+12	0.000000e+00	8.181815e-01	1.396371e+15	1.623774e+15	1.047804e+14	1.479421e+04	8.218492e+03	4.843804e+03	0	5.644859e-04
1.280000e+09	8.772946e+12	0.000000e+00	8.181815e-01	1.390557e+15	1.617175e+15	1.043406e+14	1.478088e+04	8.212440e+03	4.840237e+03	0	5.517683e-04
1.290000e+09	8.156920e+12	0.000000e+00	8.181815e-01	1.384783e+15	1.610614e+15	1.039037e+14	1.476760e+04	8.206403e+03	4.836679e+03	0	5.385388e-04
1.300000e+09	7.545526e+12	0.000000e+00	8.181815e-01	1.379047e+15	1.604090e+15	1.034697e+14	1.475438e+04	8.200384e+03	4.833132e+03	0	5.247327e-04
1.310000e+09	6.938716e+12	0.000000e+00	8.181815e-01	1.373351e+15	1.597603e+15	1.030385e+14	1.474121e+04	8.194382e+03	4.829594e+03	0	5.102715e-04
1.320000e+09	6.336446e+12	0.000000e+00	8.181815e-01	1.367694e+15	1.591155e+15	1.026101e+14	1.472810e+04	8.188397e+03	4.826067e+03	0	4.950589e-04
1.330000e+09	5.738669e+12	0.000000e+00	8.181815e-01	1.362075e+15	1.584744e+15	1.021845e+14	1.471504e+04	8.182430e+03	4.822550e+03	0	4.789741e-04
1.340000e+09	5.145340e+12	0.000000e+00	8.181815e-01	1.356493e+15	1.578370e+15	1.017617e+14	1.470203e+04	8.176480e+03	4.819043e+03	0	4.618628e-04
1.350000e+09	4.556415e+12	0.000000e+00	8.181815e-01	1.350950e+15	1.572035e+15	1.013417e+14	1.468908e+04	8.170548e+03	4.815547e+03	0	4.435229e-04
1.360000e+09	3.971852e+12	0.000000e+00	8.181815e-01	1.345443e+15	1.565737e+15	1.009244e+14	1.467618e+04	8.164634e+03	4.812061e+03	0	4.236813e-04
