#t		Qconv[W]	Ri[Rp]		R*[Rp]		Qc[W]		Qm[W]		Qr[W]		Tcmb[K]		Tl[K]		Tup[K]		RiFlag		Bs[T]
0.000000e+00	3.818633e+13	0.000000e+00	8.222221e-01	4.964187e+14	1.006806e+15	7.894406e+13	9.195600e+03	3.543893e+03	2.411371e+03	0	9.228151e-04
1.000000e+07	3.746570e+13	0.000000e+00	8.222221e-01	4.886908e+14	9.296360e+14	7.850666e+13	9.177275e+03	3.497710e+03	2.379947e+03	0	9.169733e-04
2.000000e+07	3.679931e+13	0.000000e+00	8.222221e-01	4.815331e+14	8.674210e+14	7.807252e+13	9.159234e+03	3.458733e+03	2.353426e+03	0	9.115041e-04
3.000000e+07	3.617914e+13	0.000000e+00	8.222221e-01	4.748612e+14	8.164108e+14	7.764163e+13	9.141457e+03	3.425499e+03	2.330813e+03	0	9.063545e-04
4.000000e+07	3.559856e+13	0.000000e+00	8.222221e-01	4.686060e+14	7.739748e+14	7.721395e+13	9.123925e+03	3.396912e+03	2.311361e+03	0	9.014802e-04
5.000000e+07	3.505214e+13	0.000000e+00	8.222221e-01	4.627103e+14	7.382201e+14	7.678947e+13	9.106623e+03	3.372126e+03	2.294496e+03	0	8.968440e-04
6.000000e+07	3.453537e+13	0.000000e+00	8.222221e-01	4.571269e+14	7.077530e+14	7.636814e+13	9.089538e+03	3.350484e+03	2.279770e+03	0	8.924148e-04
7.000000e+07	3.404452e+13	0.000000e+00	8.222221e-01	4.518167e+14	6.815279e+14	7.594996e+13	9.072659e+03	3.331465e+03	2.266829e+03	0	8.881666e-04
8.000000e+07	3.357645e+13	0.000000e+00	8.222221e-01	4.467467e+14	6.587463e+14	7.553489e+13	9.055976e+03	3.314651e+03	2.255388e+03	0	8.840775e-04
9.000000e+07	3.312854e+13	0.000000e+00	8.222221e-01	4.418894e+14	6.387892e+14	7.512290e+13	9.039479e+03	3.299701e+03	2.245216e+03	0	8.801286e-04
1.000000e+08	3.269856e+13	0.000000e+00	8.222221e-01	4.372215e+14	6.211706e+14	7.471397e+13	9.023161e+03	3.286341e+03	2.236125e+03	0	8.763043e-04
1.100000e+08	3.228464e+13	0.000000e+00	8.222221e-01	4.327233e+14	6.055039e+14	7.430808e+13	9.007015e+03	3.274339e+03	2.227959e+03	0	8.725909e-04
1.200000e+08	3.188515e+13	0.000000e+00	8.222221e-01	4.283778e+14	5.914788e+14	7.390519e+13	8.991034e+03	3.263505e+03	2.220587e+03	0	8.689769e-04
1.300000e+08	3.149873e+13	0.000000e+00	8.222221e-01	4.241705e+14	5.788434e+14	7.350529e+13	8.975214e+03	3.253681e+03	2.213902e+03	0	8.654522e-04
1.400000e+08	3.112418e+13	0.000000e+00	8.222221e-01	4.200890e+14	5.673917e+14	7.310835e+13	8.959548e+03	3.244731e+03	2.207812e+03	0	8.620081e-04
1.500000e+08	3.076047e+13	0.000000e+00	8.222221e-01	4.161224e+14	5.569538e+14	7.271434e+13	8.944033e+03	3.236541e+03	2.202240e+03	0	8.586372e-04
1.600000e+08	3.040672e+13	0.000000e+00	8.222221e-01	4.122615e+14	5.473889e+14	7.232324e+13	8.928664e+03	3.229015e+03	2.197119e+03	0	8.553330e-04
1.700000e+08	3.006214e+13	0.000000e+00	8.222221e-01	4.084980e+14	5.385789e+14	7.193503e+13	8.913437e+03	3.222069e+03	2.192393e+03	0	8.520898e-04
1.800000e+08	2.972605e+13	0.000000e+00	8.222221e-01	4.048247e+14	5.304251e+14	7.154968e+13	8.898348e+03	3.215634e+03	2.188014e+03	0	8.489025e-04
1.900000e+08	2.939786e+13	0.000000e+00	8.222221e-01	4.012354e+14	5.228438e+14	7.116717e+13	8.883395e+03	3.209646e+03	2.183940e+03	0	8.457668e-04
2.000000e+08	2.907703e+13	0.000000e+00	8.222221e-01	3.977245e+14	5.157639e+14	7.078747e+13	8.868575e+03	3.204054e+03	2.180135e+03	0	8.426788e-04
2.100000e+08	2.876310e+13	0.000000e+00	8.222221e-01	3.942871e+14	5.091251e+14	7.041056e+13	8.853883e+03	3.198812e+03	2.176568e+03	0	8.396352e-04
2.200000e+08	2.845566e+13	0.000000e+00	8.222221e-01	3.909188e+14	5.028756e+14	7.003643e+13	8.839318e+03	3.193880e+03	2.173212e+03	0	8.366329e-04
2.300000e+08	2.815432e+13	0.000000e+00	8.222221e-01	3.876158e+14	4.969708e+14	6.966504e+13	8.824878e+03	3.189223e+03	2.170043e+03	0	8.336692e-04
2.400000e+08	2.785878e+13	0.000000e+00	8.222221e-01	3.843745e+14	4.913725e+14	6.929637e+13	8.810559e+03	3.184811e+03	2.167041e+03	0	8.307418e-04
2.500000e+08	2.756872e+13	0.000000e+00	8.222221e-01	3.811919e+14	4.860474e+14	6.893040e+13	8.796359e+03	3.180617e+03	2.164188e+03	0	8.278486e-04
2.600000e+08	2.728388e+13	0.000000e+00	8.222221e-01	3.780651e+14	4.809667e+14	6.856711e+13	8.782277e+03	3.176619e+03	2.161467e+03	0	8.249876e-04
2.700000e+08	2.700403e+13	0.000000e+00	8.222221e-01	3.749916e+14	4.761056e+14	6.820648e+13	8.768310e+03	3.172795e+03	2.158865e+03	0	8.221572e-04
2.800000e+08	2.672893e+13	0.000000e+00	8.222221e-01	3.719690e+14	4.714421e+14	6.784848e+13	8.754456e+03	3.169129e+03	2.156370e+03	0	8.193559e-04
2.900000e+08	2.645840e+13	0.000000e+00	8.222221e-01	3.689954e+14	4.669571e+14	6.749309e+13	8.740713e+03	3.165603e+03	2.153972e+03	0	8.165822e-04
3.000000e+08	2.619225e+13	0.000000e+00	8.222221e-01	3.660687e+14	4.626340e+14	6.714029e+13	8.727081e+03	3.162205e+03	2.151659e+03	0	8.138349e-04
3.100000e+08	2.593031e+13	0.000000e+00	8.222221e-01	3.631872e+14	4.584579e+14	6.679007e+13	8.713556e+03	3.158921e+03	2.149425e+03	0	8.111129e-04
3.200000e+08	2.567245e+13	0.000000e+00	8.222221e-01	3.603494e+14	4.544161e+14	6.644239e+13	8.700137e+03	3.155741e+03	2.147261e+03	0	8.084152e-04
3.300000e+08	2.541850e+13	0.000000e+00	8.222221e-01	3.575537e+14	4.504970e+14	6.609724e+13	8.686823e+03	3.152656e+03	2.145162e+03	0	8.057408e-04
3.400000e+08	2.516836e+13	0.000000e+00	8.222221e-01	3.547988e+14	4.466906e+14	6.575460e+13	8.673611e+03	3.149656e+03	2.143121e+03	0	8.030890e-04
3.500000e+08	2.492188e+13	0.000000e+00	8.222221e-01	3.520834e+14	4.429878e+14	6.541444e+13	8.660502e+03	3.146734e+03	2.141132e+03	0	8.004588e-04
3.600000e+08	2.467898e+13	0.000000e+00	8.222221e-01	3.494063e+14	4.393809e+14	6.507675e+13	8.647492e+03	3.143883e+03	2.139193e+03	0	7.978497e-04
3.700000e+08	2.443953e+13	0.000000e+00	8.222221e-01	3.467664e+14	4.358626e+14	6.474150e+13	8.634581e+03	3.141097e+03	2.137297e+03	0	7.952610e-04
3.800000e+08	2.420345e+13	0.000000e+00	8.222221e-01	3.441627e+14	4.324268e+14	6.440868e+13	8.621768e+03	3.138371e+03	2.135442e+03	0	7.926920e-04
3.900000e+08	2.397064e+13	0.000000e+00	8.222221e-01	3.415943e+14	4.290677e+14	6.407827e+13	8.609050e+03	3.135700e+03	2.133625e+03	0	7.901422e-04
4.000000e+08	2.374102e+13	0.000000e+00	8.222221e-01	3.390602e+14	4.257804e+14	6.375024e+13	8.596427e+03	3.133080e+03	2.131842e+03	0	7.876111e-04
4.100000e+08	2.351450e+13	0.000000e+00	8.222221e-01	3.365595e+14	4.225603e+14	6.342458e+13	8.583898e+03	3.130506e+03	2.130090e+03	0	7.850982e-04
4.200000e+08	2.329102e+13	0.000000e+00	8.222221e-01	3.340916e+14	4.194034e+14	6.310126e+13	8.571461e+03	3.127975e+03	2.128368e+03	0	7.826030e-04
4.300000e+08	2.307049e+13	0.000000e+00	8.222221e-01	3.316555e+14	4.163060e+14	6.278028e+13	8.559114e+03	3.125485e+03	2.126674e+03	0	7.801252e-04
4.400000e+08	2.285286e+13	0.000000e+00	8.222221e-01	3.292506e+14	4.132649e+14	6.246160e+13	8.546858e+03	3.123032e+03	2.125005e+03	0	7.776644e-04
4.500000e+08	2.263805e+13	0.000000e+00	8.222221e-01	3.268762e+14	4.102771e+14	6.214521e+13	8.534690e+03	3.120614e+03	2.123359e+03	0	7.752201e-04
4.600000e+08	2.242600e+13	0.000000e+00	8.222221e-01	3.245315e+14	4.073398e+14	6.183110e+13	8.522610e+03	3.118228e+03	2.121736e+03	0	7.727921e-04
4.700000e+08	2.221666e+13	0.000000e+00	8.222221e-01	3.222161e+14	4.044507e+14	6.151923e+13	8.510616e+03	3.115873e+03	2.120134e+03	0	7.703800e-04
4.800000e+08	2.200997e+13	0.000000e+00	8.222221e-01	3.199293e+14	4.016075e+14	6.120961e+13	8.498707e+03	3.113546e+03	2.118551e+03	0	7.679835e-04
4.900000e+08	2.180587e+13	0.000000e+00	8.222221e-01	3.176705e+14	3.988081e+14	6.090219e+13	8.486883e+03	3.111247e+03	2.116986e+03	0	7.656022e-04
5.000000e+08	2.160432e+13	0.000000e+00	8.222221e-01	3.154391e+14	3.960508e+14	6.059698e+13	8.475142e+03	3.108973e+03	2.115439e+03	0	7.632361e-04
5.100000e+08	2.140525e+13	0.000000e+00	8.222221e-01	3.132347e+14	3.933338e+14	6.029395e+13	8.463484e+03	3.106724e+03	2.113908e+03	0	7.608847e-04
5.200000e+08	2.120863e+13	0.000000e+00	8.222221e-01	3.110567e+14	3.906556e+14	5.999308e+13	8.451907e+03	3.104497e+03	2.112393e+03	0	7.585478e-04
5.300000e+08	2.101441e+13	0.000000e+00	8.222221e-01	3.089046e+14	3.880148e+14	5.969435e+13	8.440410e+03	3.102292e+03	2.110893e+03	0	7.562251e-04
5.400000e+08	2.082254e+13	0.000000e+00	8.222221e-01	3.067779e+14	3.854100e+14	5.939776e+13	8.428992e+03	3.100108e+03	2.109407e+03	0	7.539165e-04
5.500000e+08	2.063298e+13	0.000000e+00	8.222221e-01	3.046762e+14	3.828399e+14	5.910327e+13	8.417653e+03	3.097944e+03	2.107934e+03	0	7.516218e-04
5.600000e+08	2.044568e+13	0.000000e+00	8.222221e-01	3.025990e+14	3.803036e+14	5.881088e+13	8.406391e+03	3.095799e+03	2.106475e+03	0	7.493406e-04
5.700000e+08	2.026061e+13	0.000000e+00	8.222221e-01	3.005459e+14	3.777999e+14	5.852056e+13	8.395206e+03	3.093672e+03	2.105028e+03	0	7.470728e-04
5.800000e+08	2.007773e+13	0.000000e+00	8.222221e-01	2.985165e+14	3.753279e+14	5.823230e+13	8.384097e+03	3.091563e+03	2.103592e+03	0	7.448182e-04
5.900000e+08	1.989700e+13	0.000000e+00	8.222221e-01	2.965103e+14	3.728867e+14	5.794609e+13	8.373062e+03	3.089470e+03	2.102168e+03	0	7.425766e-04
6.000000e+08	1.971838e+13	0.000000e+00	8.222221e-01	2.945270e+14	3.704753e+14	5.766190e+13	8.362102e+03	3.087394e+03	2.100756e+03	0	7.403479e-04
6.100000e+08	1.954184e+13	0.000000e+00	8.222221e-01	2.925662e+14	3.680930e+14	5.737973e+13	8.351215e+03	3.085333e+03	2.099354e+03	0	7.381317e-04
6.200000e+08	1.936734e+13	0.000000e+00	8.222221e-01	2.906275e+14	3.657392e+14	5.709954e+13	8.340400e+03	3.083288e+03	2.097962e+03	0	7.359281e-04
6.300000e+08	1.919485e+13	0.000000e+00	8.222221e-01	2.887105e+14	3.634130e+14	5.682134e+13	8.329656e+03	3.081257e+03	2.096580e+03	0	7.337367e-04
6.400000e+08	1.902432e+13	0.000000e+00	8.222221e-01	2.868149e+14	3.611137e+14	5.654509e+13	8.318983e+03	3.079241e+03	2.095208e+03	0	7.315575e-04
6.500000e+08	1.885574e+13	0.000000e+00	8.222221e-01	2.849403e+14	3.588409e+14	5.627080e+13	8.308380e+03	3.077239e+03	2.093846e+03	0	7.293902e-04
6.600000e+08	1.868907e+13	0.000000e+00	8.222221e-01	2.830865e+14	3.565939e+14	5.599843e+13	8.297847e+03	3.075250e+03	2.092493e+03	0	7.272348e-04
6.700000e+08	1.852428e+13	0.000000e+00	8.222221e-01	2.812530e+14	3.543721e+14	5.572798e+13	8.287381e+03	3.073274e+03	2.091148e+03	0	7.250910e-04
6.800000e+08	1.836134e+13	0.000000e+00	8.222221e-01	2.794395e+14	3.521749e+14	5.545942e+13	8.276984e+03	3.071312e+03	2.089813e+03	0	7.229587e-04
6.900000e+08	1.820021e+13	0.000000e+00	8.222221e-01	2.776458e+14	3.500020e+14	5.519276e+13	8.266653e+03	3.069361e+03	2.088486e+03	0	7.208378e-04
7.000000e+08	1.804088e+13	0.000000e+00	8.222221e-01	2.758714e+14	3.478527e+14	5.492796e+13	8.256388e+03	3.067424e+03	2.087167e+03	0	7.187281e-04
7.100000e+08	1.788331e+13	0.000000e+00	8.222221e-01	2.741162e+14	3.457267e+14	5.466501e+13	8.246189e+03	3.065498e+03	2.085857e+03	0	7.166295e-04
7.200000e+08	1.772747e+13	0.000000e+00	8.222221e-01	2.723799e+14	3.436235e+14	5.440390e+13	8.236055e+03	3.063584e+03	2.084555e+03	0	7.145418e-04
7.300000e+08	1.757334e+13	0.000000e+00	8.222221e-01	2.706620e+14	3.415427e+14	5.414462e+13	8.225985e+03	3.061681e+03	2.083260e+03	0	7.124650e-04
7.400000e+08	1.742090e+13	0.000000e+00	8.222221e-01	2.689625e+14	3.394838e+14	5.388715e+13	8.215978e+03	3.059790e+03	2.081973e+03	0	7.103988e-04
7.500000e+08	1.727011e+13	0.000000e+00	8.222221e-01	2.672809e+14	3.374465e+14	5.363147e+13	8.206033e+03	3.057910e+03	2.080694e+03	0	7.083432e-04
7.600000e+08	1.712095e+13	0.000000e+00	8.222221e-01	2.656170e+14	3.354304e+14	5.337758e+13	8.196151e+03	3.056041e+03	2.079422e+03	0	7.062981e-04
7.700000e+08	1.697340e+13	0.000000e+00	8.222221e-01	2.639705e+14	3.334351e+14	5.312545e+13	8.186330e+03	3.054183e+03	2.078158e+03	0	7.042632e-04
7.800000e+08	1.682743e+13	0.000000e+00	8.222221e-01	2.623413e+14	3.314603e+14	5.287507e+13	8.176570e+03	3.052335e+03	2.076901e+03	0	7.022385e-04
7.900000e+08	1.668302e+13	0.000000e+00	8.222221e-01	2.607290e+14	3.295056e+14	5.262643e+13	8.166870e+03	3.050498e+03	2.075651e+03	0	7.002239e-04
8.000000e+08	1.654015e+13	0.000000e+00	8.222221e-01	2.591333e+14	3.275708e+14	5.237952e+13	8.157230e+03	3.048671e+03	2.074407e+03	0	6.982193e-04
8.100000e+08	1.639879e+13	0.000000e+00	8.222221e-01	2.575541e+14	3.256554e+14	5.213431e+13	8.147649e+03	3.046854e+03	2.073171e+03	0	6.962245e-04
8.200000e+08	1.625892e+13	0.000000e+00	8.222221e-01	2.559912e+14	3.237592e+14	5.189081e+13	8.138125e+03	3.045047e+03	2.071942e+03	0	6.942394e-04
8.300000e+08	1.612052e+13	0.000000e+00	8.222221e-01	2.544441e+14	3.218819e+14	5.164898e+13	8.128660e+03	3.043250e+03	2.070719e+03	0	6.922639e-04
8.400000e+08	1.598357e+13	0.000000e+00	8.222221e-01	2.529129e+14	3.200232e+14	5.140883e+13	8.119251e+03	3.041462e+03	2.069503e+03	0	6.902980e-04
8.500000e+08	1.584804e+13	0.000000e+00	8.222221e-01	2.513971e+14	3.181828e+14	5.117034e+13	8.109899e+03	3.039685e+03	2.068293e+03	0	6.883414e-04
8.600000e+08	1.571392e+13	0.000000e+00	8.222221e-01	2.498966e+14	3.163604e+14	5.093349e+13	8.100603e+03	3.037916e+03	2.067090e+03	0	6.863941e-04
8.700000e+08	1.558119e+13	0.000000e+00	8.222221e-01	2.484113e+14	3.145558e+14	5.069826e+13	8.091362e+03	3.036157e+03	2.065893e+03	0	6.844561e-04
8.800000e+08	1.544982e+13	0.000000e+00	8.222221e-01	2.469408e+14	3.127687e+14	5.046466e+13	8.082177e+03	3.034407e+03	2.064702e+03	0	6.825271e-04
8.900000e+08	1.531980e+13	0.000000e+00	8.222221e-01	2.454849e+14	3.109988e+14	5.023266e+13	8.073045e+03	3.032666e+03	2.063517e+03	0	6.806071e-04
9.000000e+08	1.519111e+13	0.000000e+00	8.222221e-01	2.440435e+14	3.092460e+14	5.000226e+13	8.063967e+03	3.030935e+03	2.062339e+03	0	6.786959e-04
9.100000e+08	1.506373e+13	0.000000e+00	8.222221e-01	2.426163e+14	3.075098e+14	4.977343e+13	8.054942e+03	3.029212e+03	2.061167e+03	0	6.767936e-04
9.200000e+08	1.493764e+13	0.000000e+00	8.222221e-01	2.412032e+14	3.057903e+14	4.954617e+13	8.045971e+03	3.027498e+03	2.060000e+03	0	6.748999e-04
9.300000e+08	1.481282e+13	0.000000e+00	8.222221e-01	2.398040e+14	3.040870e+14	4.932047e+13	8.037051e+03	3.025792e+03	2.058840e+03	0	6.730149e-04
9.400000e+08	1.468926e+13	0.000000e+00	8.222221e-01	2.384185e+14	3.023997e+14	4.909631e+13	8.028183e+03	3.024095e+03	2.057686e+03	0	6.711383e-04
9.500000e+08	1.456694e+13	0.000000e+00	8.222221e-01	2.370464e+14	3.007283e+14	4.887367e+13	8.019365e+03	3.022407e+03	2.056537e+03	0	6.692702e-04
9.600000e+08	1.444584e+13	0.000000e+00	8.222221e-01	2.356876e+14	2.990726e+14	4.865256e+13	8.010599e+03	3.020727e+03	2.055394e+03	0	6.674104e-04
9.700000e+08	1.432594e+13	0.000000e+00	8.222221e-01	2.343419e+14	2.974322e+14	4.843295e+13	8.001883e+03	3.019056e+03	2.054256e+03	0	6.655588e-04
9.800000e+08	1.420723e+13	0.000000e+00	8.222221e-01	2.330092e+14	2.958071e+14	4.821484e+13	7.993216e+03	3.017393e+03	2.053125e+03	0	6.637153e-04
9.900000e+08	1.408969e+13	0.000000e+00	8.222221e-01	2.316893e+14	2.941969e+14	4.799821e+13	7.984599e+03	3.015737e+03	2.051999e+03	0	6.618799e-04
1.000000e+09	1.397331e+13	0.000000e+00	8.222221e-01	2.303820e+14	2.926016e+14	4.778305e+13	7.976030e+03	3.014091e+03	2.050878e+03	0	6.600524e-04
1.010000e+09	1.385806e+13	0.000000e+00	8.222221e-01	2.290870e+14	2.910208e+14	4.756935e+13	7.967510e+03	3.012452e+03	2.049763e+03	0	6.582329e-04
1.020000e+09	1.374395e+13	0.000000e+00	8.222221e-01	2.278044e+14	2.894545e+14	4.735709e+13	7.959037e+03	3.010821e+03	2.048653e+03	0	6.564211e-04
1.030000e+09	1.363094e+13	0.000000e+00	8.222221e-01	2.265339e+14	2.879024e+14	4.714628e+13	7.950612e+03	3.009197e+03	2.047549e+03	0	6.546170e-04
1.040000e+09	1.351903e+13	0.000000e+00	8.222221e-01	2.252753e+14	2.863643e+14	4.693688e+13	7.942234e+03	3.007582e+03	2.046449e+03	0	6.528206e-04
1.050000e+09	1.340819e+13	0.000000e+00	8.222221e-01	2.240285e+14	2.848401e+14	4.672890e+13	7.933902e+03	3.005974e+03	2.045356e+03	0	6.510317e-04
1.060000e+09	1.329843e+13	0.000000e+00	8.222221e-01	2.227933e+14	2.833296e+14	4.652233e+13	7.925616e+03	3.004374e+03	2.044267e+03	0	6.492503e-04
1.070000e+09	1.318971e+13	0.000000e+00	8.222221e-01	2.215696e+14	2.818326e+14	4.631714e+13	7.917376e+03	3.002782e+03	2.043183e+03	0	6.474763e-04
1.080000e+09	1.308204e+13	0.000000e+00	8.222221e-01	2.203572e+14	2.803489e+14	4.611334e+13	7.909181e+03	3.001197e+03	2.042105e+03	0	6.457095e-04
1.090000e+09	1.297539e+13	0.000000e+00	8.222221e-01	2.191561e+14	2.788784e+14	4.591091e+13	7.901030e+03	2.999620e+03	2.041032e+03	0	6.439500e-04
1.100000e+09	1.286975e+13	0.000000e+00	8.222221e-01	2.179660e+14	2.774209e+14	4.570983e+13	7.892925e+03	2.998050e+03	2.039963e+03	0	6.421977e-04
1.110000e+09	1.276511e+13	0.000000e+00	8.222221e-01	2.167867e+14	2.759763e+14	4.551011e+13	7.884863e+03	2.996487e+03	2.038900e+03	0	6.404525e-04
1.120000e+09	1.266145e+13	0.000000e+00	8.222221e-01	2.156183e+14	2.745443e+14	4.531172e+13	7.876844e+03	2.994931e+03	2.037842e+03	0	6.387142e-04
1.130000e+09	1.255877e+13	0.000000e+00	8.222221e-01	2.144604e+14	2.731248e+14	4.511466e+13	7.868869e+03	2.993383e+03	2.036788e+03	0	6.369829e-04
1.140000e+09	1.245705e+13	0.000000e+00	8.222221e-01	2.133131e+14	2.717177e+14	4.491892e+13	7.860936e+03	2.991842e+03	2.035739e+03	0	6.352584e-04
1.150000e+09	1.235627e+13	0.000000e+00	8.222221e-01	2.121761e+14	2.703229e+14	4.472448e+13	7.853046e+03	2.990308e+03	2.034696e+03	0	6.335408e-04
1.160000e+09	1.225644e+13	0.000000e+00	8.222221e-01	2.110493e+14	2.689401e+14	4.453134e+13	7.845198e+03	2.988781e+03	2.033657e+03	0	6.318298e-04
1.170000e+09	1.215752e+13	0.000000e+00	8.222221e-01	2.099327e+14	2.675692e+14	4.433949e+13	7.837391e+03	2.987261e+03	2.032622e+03	0	6.301255e-04
1.180000e+09	1.205952e+13	0.000000e+00	8.222221e-01	2.088260e+14	2.662101e+14	4.414892e+13	7.829626e+03	2.985748e+03	2.031593e+03	0	6.284278e-04
1.190000e+09	1.196242e+13	0.000000e+00	8.222221e-01	2.077292e+14	2.648626e+14	4.395961e+13	7.821901e+03	2.984241e+03	2.030568e+03	0	6.267365e-04
1.200000e+09	1.186620e+13	0.000000e+00	8.222221e-01	2.066420e+14	2.635266e+14	4.377156e+13	7.814217e+03	2.982742e+03	2.029547e+03	0	6.250517e-04
1.210000e+09	1.177087e+13	0.000000e+00	8.222221e-01	2.055645e+14	2.622020e+14	4.358475e+13	7.806573e+03	2.981249e+03	2.028531e+03	0	6.233733e-04
1.220000e+09	1.167640e+13	0.000000e+00	8.222221e-01	2.044965e+14	2.608886e+14	4.339918e+13	7.798969e+03	2.979763e+03	2.027520e+03	0	6.217012e-04
1.230000e+09	1.158279e+13	0.000000e+00	8.222221e-01	2.034379e+14	2.595863e+14	4.321484e+13	7.791405e+03	2.978283e+03	2.026513e+03	0	6.200354e-04
1.240000e+09	1.149003e+13	0.000000e+00	8.222221e-01	2.023885e+14	2.582950e+14	4.303172e+13	7.783879e+03	2.976810e+03	2.025511e+03	0	6.183757e-04
1.250000e+09	1.139810e+13	0.000000e+00	8.222221e-01	2.013482e+14	2.570145e+14	4.284981e+13	7.776392e+03	2.975343e+03	2.024513e+03	0	6.167221e-04
1.260000e+09	1.130699e+13	0.000000e+00	8.222221e-01	2.003170e+14	2.557447e+14	4.266910e+13	7.768944e+03	2.973883e+03	2.023520e+03	0	6.150746e-04
1.270000e+09	1.121670e+13	0.000000e+00	8.222221e-01	1.992947e+14	2.544855e+14	4.248958e+13	7.761534e+03	2.972430e+03	2.022531e+03	0	6.134330e-04
1.280000e+09	1.112722e+13	0.000000e+00	8.222221e-01	1.982813e+14	2.532367e+14	4.231123e+13	7.754161e+03	2.970983e+03	2.021546e+03	0	6.117974e-04
1.290000e+09	1.103853e+13	0.000000e+00	8.222221e-01	1.972765e+14	2.519983e+14	4.213407e+13	7.746826e+03	2.969542e+03	2.020566e+03	0	6.101676e-04
1.300000e+09	1.095063e+13	0.000000e+00	8.222221e-01	1.962803e+14	2.507700e+14	4.195806e+13	7.739528e+03	2.968107e+03	2.019589e+03	0	6.085436e-04
1.310000e+09	1.086350e+13	0.000000e+00	8.222221e-01	1.952927e+14	2.495519e+14	4.178321e+13	7.732267e+03	2.966679e+03	2.018617e+03	0	6.069254e-04
1.320000e+09	1.077714e+13	0.000000e+00	8.222221e-01	1.943134e+14	2.483438e+14	4.160950e+13	7.725042e+03	2.965256e+03	2.017650e+03	0	6.053129e-04
1.330000e+09	1.069154e+13	0.000000e+00	8.222221e-01	1.933425e+14	2.471455e+14	4.143693e+13	7.717853e+03	2.963840e+03	2.016686e+03	0	6.037059e-04
1.340000e+09	1.060668e+13	0.000000e+00	8.222221e-01	1.923797e+14	2.459570e+14	4.126548e+13	7.710701e+03	2.962430e+03	2.015727e+03	0	6.021046e-04
1.350000e+09	1.052257e+13	0.000000e+00	8.222221e-01	1.914251e+14	2.447781e+14	4.109516e+13	7.703583e+03	2.961026e+03	2.014771e+03	0	6.005087e-04
1.360000e+09	1.043918e+13	0.000000e+00	8.222221e-01	1.904785e+14	2.436088e+14	4.092594e+13	7.696502e+03	2.959628e+03	2.013820e+03	0	5.989183e-04
