#t		Qconv[W]	Ri[Rp]		R*[Rp]		Qc[W]		Qm[W]		Qr[W]		Tcmb[K]		Tl[K]		Tup[K]		RiFlag		Bs[T]
0.000000e+00	3.369645e+14	0.000000e+00	8.208959e-01	3.397122e+15	1.796917e+15	1.015020e+14	1.532423e+04	4.363901e+03	2.516517e+03	0	1.886405e-03
1.000000e+07	3.324988e+14	0.000000e+00	8.208959e-01	3.354272e+15	2.166862e+15	1.009396e+14	1.523670e+04	4.510761e+03	2.601207e+03	0	1.878034e-03
2.000000e+07	3.271857e+14	0.000000e+00	8.208959e-01	3.303625e+15	2.468536e+15	1.003814e+14	1.515026e+04	4.620429e+03	2.664448e+03	0	1.867977e-03
3.000000e+07	3.213358e+14	0.000000e+00	8.208959e-01	3.248048e+15	2.695631e+15	9.982741e+13	1.506513e+04	4.699249e+03	2.709902e+03	0	1.856778e-03
4.000000e+07	3.151820e+14	0.000000e+00	8.208959e-01	3.189693e+15	2.854100e+15	9.927753e+13	1.498141e+04	4.753816e+03	2.741369e+03	0	1.844848e-03
5.000000e+07	3.088883e+14	0.000000e+00	8.208959e-01	3.130076e+15	2.955563e+15	9.873175e+13	1.489919e+04	4.790028e+03	2.762251e+03	0	1.832486e-03
6.000000e+07	3.025659e+14	0.000000e+00	8.208959e-01	3.070223e+15	3.012710e+15	9.819003e+13	1.481849e+04	4.812717e+03	2.775335e+03	0	1.819897e-03
7.000000e+07	2.962881e+14	0.000000e+00	8.208959e-01	3.010811e+15	3.036928e+15	9.765236e+13	1.473933e+04	4.825623e+03	2.782777e+03	0	1.807222e-03
8.000000e+07	2.901021e+14	0.000000e+00	8.208959e-01	2.952274e+15	3.037455e+15	9.711868e+13	1.466170e+04	4.831543e+03	2.786191e+03	0	1.794556e-03
9.000000e+07	2.840374e+14	0.000000e+00	8.208959e-01	2.894885e+15	3.021366e+15	9.658896e+13	1.458556e+04	4.832519e+03	2.786754e+03	0	1.781963e-03
1.000000e+08	2.781119e+14	0.000000e+00	8.208959e-01	2.838807e+15	2.993882e+15	9.606319e+13	1.451089e+04	4.830019e+03	2.785312e+03	0	1.769484e-03
1.100000e+08	2.723354e+14	0.000000e+00	8.208959e-01	2.784131e+15	2.958770e+15	9.554131e+13	1.443767e+04	4.825093e+03	2.782472e+03	0	1.757148e-03
1.200000e+08	2.667127e+14	0.000000e+00	8.208959e-01	2.730900e+15	2.918709e+15	9.502330e+13	1.436584e+04	4.818485e+03	2.778661e+03	0	1.744970e-03
1.300000e+08	2.612448e+14	0.000000e+00	8.208959e-01	2.679124e+15	2.875584e+15	9.450913e+13	1.429538e+04	4.810723e+03	2.774185e+03	0	1.732963e-03
1.400000e+08	2.559307e+14	0.000000e+00	8.208959e-01	2.628792e+15	2.830711e+15	9.399876e+13	1.422625e+04	4.802181e+03	2.769259e+03	0	1.721132e-03
1.500000e+08	2.507679e+14	0.000000e+00	8.208959e-01	2.579880e+15	2.785002e+15	9.349217e+13	1.415841e+04	4.793123e+03	2.764035e+03	0	1.709481e-03
1.600000e+08	2.457529e+14	0.000000e+00	8.208959e-01	2.532356e+15	2.739088e+15	9.298931e+13	1.409182e+04	4.783736e+03	2.758622e+03	0	1.698008e-03
1.700000e+08	2.408817e+14	0.000000e+00	8.208959e-01	2.486180e+15	2.693400e+15	9.249017e+13	1.402645e+04	4.774154e+03	2.753097e+03	0	1.686714e-03
1.800000e+08	2.361498e+14	0.000000e+00	8.208959e-01	2.441314e+15	2.648230e+15	9.199471e+13	1.396227e+04	4.764472e+03	2.747513e+03	0	1.675596e-03
1.900000e+08	2.315529e+14	0.000000e+00	8.208959e-01	2.397713e+15	2.603771e+15	9.150290e+13	1.389925e+04	4.754755e+03	2.741910e+03	0	1.664652e-03
2.000000e+08	2.270862e+14	0.000000e+00	8.208959e-01	2.355336e+15	2.560148e+15	9.101470e+13	1.383734e+04	4.745052e+03	2.736315e+03	0	1.653879e-03
2.100000e+08	2.227454e+14	0.000000e+00	8.208959e-01	2.314141e+15	2.517440e+15	9.053010e+13	1.377652e+04	4.735396e+03	2.730746e+03	0	1.643273e-03
2.200000e+08	2.185259e+14	0.000000e+00	8.208959e-01	2.274085e+15	2.475691e+15	9.004905e+13	1.371675e+04	4.725811e+03	2.725219e+03	0	1.632831e-03
2.300000e+08	2.144235e+14	0.000000e+00	8.208959e-01	2.235128e+15	2.434922e+15	8.957154e+13	1.365802e+04	4.716312e+03	2.719741e+03	0	1.622548e-03
2.400000e+08	2.104340e+14	0.000000e+00	8.208959e-01	2.197232e+15	2.395139e+15	8.909752e+13	1.360029e+04	4.706911e+03	2.714320e+03	0	1.612422e-03
2.500000e+08	2.065533e+14	0.000000e+00	8.208959e-01	2.160358e+15	2.356334e+15	8.862698e+13	1.354353e+04	4.697615e+03	2.708959e+03	0	1.602449e-03
2.600000e+08	2.027775e+14	0.000000e+00	8.208959e-01	2.124470e+15	2.318495e+15	8.815988e+13	1.348772e+04	4.688429e+03	2.703662e+03	0	1.592625e-03
2.700000e+08	1.991029e+14	0.000000e+00	8.208959e-01	2.089534e+15	2.281603e+15	8.769620e+13	1.343283e+04	4.679355e+03	2.698429e+03	0	1.582946e-03
2.800000e+08	1.955259e+14	0.000000e+00	8.208959e-01	2.055514e+15	2.245636e+15	8.723591e+13	1.337884e+04	4.670395e+03	2.693262e+03	0	1.573409e-03
2.900000e+08	1.920431e+14	0.000000e+00	8.208959e-01	2.022381e+15	2.210569e+15	8.677897e+13	1.332573e+04	4.661550e+03	2.688161e+03	0	1.564011e-03
3.000000e+08	1.886512e+14	0.000000e+00	8.208959e-01	1.990101e+15	2.176379e+15	8.632536e+13	1.327346e+04	4.652818e+03	2.683126e+03	0	1.554748e-03
3.100000e+08	1.853470e+14	0.000000e+00	8.208959e-01	1.958647e+15	2.143039e+15	8.587506e+13	1.322203e+04	4.644199e+03	2.678156e+03	0	1.545618e-03
3.200000e+08	1.821275e+14	0.000000e+00	8.208959e-01	1.927989e+15	2.110523e+15	8.542803e+13	1.317140e+04	4.635692e+03	2.673250e+03	0	1.536616e-03
3.300000e+08	1.789897e+14	0.000000e+00	8.208959e-01	1.898100e+15	2.078807e+15	8.498426e+13	1.312157e+04	4.627294e+03	2.668407e+03	0	1.527740e-03
3.400000e+08	1.759309e+14	0.000000e+00	8.208959e-01	1.868955e+15	2.047864e+15	8.454371e+13	1.307250e+04	4.619005e+03	2.663627e+03	0	1.518988e-03
3.500000e+08	1.729485e+14	0.000000e+00	8.208959e-01	1.840528e+15	2.017671e+15	8.410635e+13	1.302418e+04	4.610822e+03	2.658909e+03	0	1.510355e-03
3.600000e+08	1.700398e+14	0.000000e+00	8.208959e-01	1.812796e+15	1.988205e+15	8.367217e+13	1.297660e+04	4.602744e+03	2.654250e+03	0	1.501840e-03
3.700000e+08	1.672025e+14	0.000000e+00	8.208959e-01	1.785735e+15	1.959440e+15	8.324113e+13	1.292973e+04	4.594768e+03	2.649651e+03	0	1.493440e-03
3.800000e+08	1.644341e+14	0.000000e+00	8.208959e-01	1.759324e+15	1.931357e+15	8.281320e+13	1.288355e+04	4.586893e+03	2.645110e+03	0	1.485152e-03
3.900000e+08	1.617325e+14	0.000000e+00	8.208959e-01	1.733541e+15	1.903932e+15	8.238837e+13	1.283806e+04	4.579117e+03	2.640625e+03	0	1.476973e-03
4.000000e+08	1.590954e+14	0.000000e+00	8.208959e-01	1.708366e+15	1.877146e+15	8.196661e+13	1.279323e+04	4.571437e+03	2.636196e+03	0	1.468902e-03
4.100000e+08	1.565208e+14	0.000000e+00	8.208959e-01	1.683780e+15	1.850978e+15	8.154790e+13	1.274904e+04	4.563852e+03	2.631822e+03	0	1.460935e-03
4.200000e+08	1.540068e+14	0.000000e+00	8.208959e-01	1.659765e+15	1.825409e+15	8.113219e+13	1.270549e+04	4.556360e+03	2.627502e+03	0	1.453071e-03
4.300000e+08	1.515513e+14	0.000000e+00	8.208959e-01	1.636301e+15	1.800420e+15	8.071949e+13	1.266256e+04	4.548958e+03	2.623234e+03	0	1.445307e-03
4.400000e+08	1.491525e+14	0.000000e+00	8.208959e-01	1.613372e+15	1.775993e+15	8.030975e+13	1.262023e+04	4.541646e+03	2.619017e+03	0	1.437641e-03
4.500000e+08	1.468088e+14	0.000000e+00	8.208959e-01	1.590962e+15	1.752112e+15	7.990296e+13	1.257849e+04	4.534422e+03	2.614851e+03	0	1.430071e-03
4.600000e+08	1.445183e+14	0.000000e+00	8.208959e-01	1.569054e+15	1.728759e+15	7.949908e+13	1.253733e+04	4.527282e+03	2.610734e+03	0	1.422594e-03
4.700000e+08	1.422794e+14	0.000000e+00	8.208959e-01	1.547634e+15	1.705918e+15	7.909811e+13	1.249674e+04	4.520227e+03	2.606666e+03	0	1.415210e-03
4.800000e+08	1.400907e+14	0.000000e+00	8.208959e-01	1.526686e+15	1.683575e+15	7.870000e+13	1.245670e+04	4.513255e+03	2.602645e+03	0	1.407916e-03
4.900000e+08	1.379505e+14	0.000000e+00	8.208959e-01	1.506196e+15	1.661715e+15	7.830475e+13	1.241719e+04	4.506362e+03	2.598670e+03	0	1.400709e-03
5.000000e+08	1.358575e+14	0.000000e+00	8.208959e-01	1.486152e+15	1.640322e+15	7.791232e+13	1.237822e+04	4.499549e+03	2.594741e+03	0	1.393589e-03
5.100000e+08	1.338102e+14	0.000000e+00	8.208959e-01	1.466538e+15	1.619384e+15	7.752270e+13	1.233976e+04	4.492814e+03	2.590857e+03	0	1.386553e-03
5.200000e+08	1.318072e+14	0.000000e+00	8.208959e-01	1.447344e+15	1.598887e+15	7.713586e+13	1.230180e+04	4.486155e+03	2.587017e+03	0	1.379600e-03
5.300000e+08	1.298473e+14	0.000000e+00	8.208959e-01	1.428556e+15	1.578819e+15	7.675177e+13	1.226434e+04	4.479570e+03	2.583220e+03	0	1.372728e-03
5.400000e+08	1.279293e+14	0.000000e+00	8.208959e-01	1.410164e+15	1.559167e+15	7.637042e+13	1.222737e+04	4.473058e+03	2.579465e+03	0	1.365936e-03
5.500000e+08	1.260519e+14	0.000000e+00	8.208959e-01	1.392155e+15	1.539919e+15	7.599179e+13	1.219087e+04	4.466618e+03	2.575751e+03	0	1.359221e-03
5.600000e+08	1.242139e+14	0.000000e+00	8.208959e-01	1.374519e+15	1.521064e+15	7.561585e+13	1.215483e+04	4.460249e+03	2.572078e+03	0	1.352582e-03
5.700000e+08	1.224143e+14	0.000000e+00	8.208959e-01	1.357246e+15	1.502592e+15	7.524257e+13	1.211925e+04	4.453949e+03	2.568445e+03	0	1.346018e-03
5.800000e+08	1.206520e+14	0.000000e+00	8.208959e-01	1.340324e+15	1.484490e+15	7.487195e+13	1.208411e+04	4.447717e+03	2.564851e+03	0	1.339528e-03
5.900000e+08	1.189259e+14	0.000000e+00	8.208959e-01	1.323745e+15	1.466749e+15	7.450395e+13	1.204941e+04	4.441551e+03	2.561296e+03	0	1.333109e-03
6.000000e+08	1.172350e+14	0.000000e+00	8.208959e-01	1.307499e+15	1.449360e+15	7.413856e+13	1.201514e+04	4.435451e+03	2.557778e+03	0	1.326761e-03
6.100000e+08	1.155783e+14	0.000000e+00	8.208959e-01	1.291577e+15	1.432312e+15	7.377575e+13	1.198129e+04	4.429415e+03	2.554297e+03	0	1.320482e-03
6.200000e+08	1.139550e+14	0.000000e+00	8.208959e-01	1.275970e+15	1.415597e+15	7.341551e+13	1.194785e+04	4.423442e+03	2.550853e+03	0	1.314270e-03
6.300000e+08	1.123641e+14	0.000000e+00	8.208959e-01	1.260670e+15	1.399205e+15	7.305781e+13	1.191481e+04	4.417531e+03	2.547444e+03	0	1.308125e-03
6.400000e+08	1.108047e+14	0.000000e+00	8.208959e-01	1.245668e+15	1.383128e+15	7.270263e+13	1.188216e+04	4.411681e+03	2.544071e+03	0	1.302046e-03
6.500000e+08	1.092759e+14	0.000000e+00	8.208959e-01	1.230956e+15	1.367357e+15	7.234995e+13	1.184990e+04	4.405891e+03	2.540732e+03	0	1.296030e-03
6.600000e+08	1.077771e+14	0.000000e+00	8.208959e-01	1.216528e+15	1.351885e+15	7.199975e+13	1.181802e+04	4.400159e+03	2.537426e+03	0	1.290077e-03
6.700000e+08	1.063073e+14	0.000000e+00	8.208959e-01	1.202374e+15	1.336703e+15	7.165202e+13	1.178652e+04	4.394486e+03	2.534154e+03	0	1.284186e-03
6.800000e+08	1.048659e+14	0.000000e+00	8.208959e-01	1.188489e+15	1.321805e+15	7.130673e+13	1.175538e+04	4.388869e+03	2.530915e+03	0	1.278355e-03
6.900000e+08	1.034520e+14	0.000000e+00	8.208959e-01	1.174865e+15	1.307183e+15	7.096386e+13	1.172459e+04	4.383307e+03	2.527708e+03	0	1.272584e-03
7.000000e+08	1.020650e+14	0.000000e+00	8.208959e-01	1.161495e+15	1.292829e+15	7.062340e+13	1.169416e+04	4.377801e+03	2.524533e+03	0	1.266871e-03
7.100000e+08	1.007042e+14	0.000000e+00	8.208959e-01	1.148373e+15	1.278737e+15	7.028532e+13	1.166408e+04	4.372348e+03	2.521388e+03	0	1.261216e-03
7.200000e+08	9.936892e+13	0.000000e+00	8.208959e-01	1.135494e+15	1.264901e+15	6.994960e+13	1.163433e+04	4.366948e+03	2.518275e+03	0	1.255617e-03
7.300000e+08	9.805848e+13	0.000000e+00	8.208959e-01	1.122849e+15	1.251314e+15	6.961623e+13	1.160491e+04	4.361601e+03	2.515191e+03	0	1.250073e-03
7.400000e+08	9.677227e+13	0.000000e+00	8.208959e-01	1.110435e+15	1.237970e+15	6.928518e+13	1.157582e+04	4.356304e+03	2.512137e+03	0	1.244583e-03
7.500000e+08	9.550970e+13	0.000000e+00	8.208959e-01	1.098245e+15	1.224862e+15	6.895645e+13	1.154706e+04	4.351058e+03	2.509111e+03	0	1.239147e-03
7.600000e+08	9.427016e+13	0.000000e+00	8.208959e-01	1.086273e+15	1.211986e+15	6.863000e+13	1.151860e+04	4.345862e+03	2.506115e+03	0	1.233763e-03
7.700000e+08	9.305310e+13	0.000000e+00	8.208959e-01	1.074514e+15	1.199335e+15	6.830583e+13	1.149046e+04	4.340714e+03	2.503146e+03	0	1.228430e-03
7.800000e+08	9.185796e+13	0.000000e+00	8.208959e-01	1.062963e+15	1.186904e+15	6.798391e+13	1.146262e+04	4.335615e+03	2.500205e+03	0	1.223148e-03
7.900000e+08	9.068421e+13	0.000000e+00	8.208959e-01	1.051616e+15	1.174688e+15	6.766422e+13	1.143508e+04	4.330562e+03	2.497292e+03	0	1.217916e-03
8.000000e+08	8.953133e+13	0.000000e+00	8.208959e-01	1.040466e+15	1.162681e+15	6.734675e+13	1.140783e+04	4.325556e+03	2.494405e+03	0	1.212733e-03
8.100000e+08	8.839882e+13	0.000000e+00	8.208959e-01	1.029510e+15	1.150879e+15	6.703148e+13	1.138086e+04	4.320596e+03	2.491545e+03	0	1.207598e-03
8.200000e+08	8.728618e+13	0.000000e+00	8.208959e-01	1.018742e+15	1.139276e+15	6.671839e+13	1.135419e+04	4.315680e+03	2.488710e+03	0	1.202510e-03
8.300000e+08	8.619295e+13	0.000000e+00	8.208959e-01	1.008159e+15	1.127869e+15	6.640747e+13	1.132779e+04	4.310809e+03	2.485901e+03	0	1.197469e-03
8.400000e+08	8.511867e+13	0.000000e+00	8.208959e-01	9.977556e+14	1.116653e+15	6.609870e+13	1.130166e+04	4.305982e+03	2.483117e+03	0	1.192473e-03
8.500000e+08	8.406290e+13	0.000000e+00	8.208959e-01	9.875280e+14	1.105622e+15	6.579205e+13	1.127580e+04	4.301197e+03	2.480358e+03	0	1.187522e-03
8.600000e+08	8.302519e+13	0.000000e+00	8.208959e-01	9.774722e+14	1.094774e+15	6.548752e+13	1.125021e+04	4.296455e+03	2.477623e+03	0	1.182615e-03
8.700000e+08	8.200514e+13	0.000000e+00	8.208959e-01	9.675842e+14	1.084103e+15	6.518509e+13	1.122487e+04	4.291754e+03	2.474913e+03	0	1.177752e-03
8.800000e+08	8.100234e+13	0.000000e+00	8.208959e-01	9.578601e+14	1.073606e+15	6.488474e+13	1.119979e+04	4.287094e+03	2.472225e+03	0	1.172932e-03
8.900000e+08	8.001639e+13	0.000000e+00	8.208959e-01	9.482962e+14	1.063278e+15	6.458644e+13	1.117497e+04	4.282475e+03	2.469562e+03	0	1.168153e-03
9.000000e+08	7.904690e+13	0.000000e+00	8.208959e-01	9.388888e+14	1.053117e+15	6.429020e+13	1.115039e+04	4.277895e+03	2.466921e+03	0	1.163416e-03
9.100000e+08	7.809351e+13	0.000000e+00	8.208959e-01	9.296346e+14	1.043118e+15	6.399599e+13	1.112605e+04	4.273355e+03	2.464303e+03	0	1.158720e-03
9.200000e+08	7.715585e+13	0.000000e+00	8.208959e-01	9.205300e+14	1.033278e+15	6.370379e+13	1.110195e+04	4.268853e+03	2.461706e+03	0	1.154064e-03
9.300000e+08	7.623358e+13	0.000000e+00	8.208959e-01	9.115718e+14	1.023593e+15	6.341359e+13	1.107809e+04	4.264390e+03	2.459132e+03	0	1.149447e-03
9.400000e+08	7.532634e+13	0.000000e+00	8.208959e-01	9.027566e+14	1.014060e+15	6.312538e+13	1.105446e+04	4.259963e+03	2.456580e+03	0	1.144869e-03
9.500000e+08	7.443381e+13	0.000000e+00	8.208959e-01	8.940815e+14	1.004675e+15	6.283913e+13	1.103105e+04	4.255574e+03	2.454049e+03	0	1.140329e-03
9.600000e+08	7.355566e+13	0.000000e+00	8.208959e-01	8.855432e+14	9.954357e+14	6.255483e+13	1.100787e+04	4.251221e+03	2.451539e+03	0	1.135827e-03
9.700000e+08	7.269158e+13	0.000000e+00	8.208959e-01	8.771390e+14	9.863386e+14	6.227247e+13	1.098491e+04	4.246904e+03	2.449049e+03	0	1.131362e-03
9.800000e+08	7.184126e+13	0.000000e+00	8.208959e-01	8.688658e+14	9.773806e+14	6.199204e+13	1.096217e+04	4.242622e+03	2.446580e+03	0	1.126933e-03
9.900000e+08	7.100441e+13	0.000000e+00	8.208959e-01	8.607209e+14	9.685589e+14	6.171350e+13	1.093964e+04	4.238376e+03	2.444131e+03	0	1.122540e-03
1.000000e+09	7.018074e+13	0.000000e+00	8.208959e-01	8.527015e+14	9.598705e+14	6.143686e+13	1.091733e+04	4.234163e+03	2.441702e+03	0	1.118183e-03
1.010000e+09	6.936996e+13	0.000000e+00	8.208959e-01	8.448050e+14	9.513126e+14	6.116210e+13	1.089522e+04	4.229985e+03	2.439292e+03	0	1.113860e-03
1.020000e+09	6.857180e+13	0.000000e+00	8.208959e-01	8.370288e+14	9.428826e+14	6.088919e+13	1.087331e+04	4.225839e+03	2.436902e+03	0	1.109572e-03
1.030000e+09	6.778600e+13	0.000000e+00	8.208959e-01	8.293703e+14	9.345778e+14	6.061813e+13	1.085161e+04	4.221727e+03	2.434530e+03	0	1.105317e-03
1.040000e+09	6.701230e+13	0.000000e+00	8.208959e-01	8.218272e+14	9.263956e+14	6.034891e+13	1.083010e+04	4.217648e+03	2.432178e+03	0	1.101096e-03
1.050000e+09	6.625043e+13	0.000000e+00	8.208959e-01	8.143971e+14	9.183335e+14	6.008150e+13	1.080879e+04	4.213600e+03	2.429844e+03	0	1.096907e-03
1.060000e+09	6.550017e+13	0.000000e+00	8.208959e-01	8.070775e+14	9.103890e+14	5.981590e+13	1.078767e+04	4.209584e+03	2.427528e+03	0	1.092750e-03
1.070000e+09	6.476126e+13	0.000000e+00	8.208959e-01	7.998663e+14	9.025598e+14	5.955208e+13	1.076674e+04	4.205599e+03	2.425230e+03	0	1.088626e-03
1.080000e+09	6.403348e+13	0.000000e+00	8.208959e-01	7.927613e+14	8.948435e+14	5.929004e+13	1.074600e+04	4.201645e+03	2.422950e+03	0	1.084532e-03
1.090000e+09	6.331659e+13	0.000000e+00	8.208959e-01	7.857603e+14	8.872379e+14	5.902976e+13	1.072544e+04	4.197721e+03	2.420687e+03	0	1.080470e-03
1.100000e+09	6.261038e+13	0.000000e+00	8.208959e-01	7.788611e+14	8.797408e+14	5.877123e+13	1.070506e+04	4.193827e+03	2.418442e+03	0	1.076438e-03
1.110000e+09	6.191463e+13	0.000000e+00	8.208959e-01	7.720619e+14	8.723500e+14	5.851444e+13	1.068486e+04	4.189963e+03	2.416213e+03	0	1.072436e-03
1.120000e+09	6.122913e+13	0.000000e+00	8.208959e-01	7.653605e+14	8.650635e+14	5.825936e+13	1.066483e+04	4.186128e+03	2.414002e+03	0	1.068463e-03
1.130000e+09	6.055368e+13	0.000000e+00	8.208959e-01	7.587551e+14	8.578791e+14	5.800599e+13	1.064498e+04	4.182322e+03	2.411807e+03	0	1.064520e-03
1.140000e+09	5.988807e+13	0.000000e+00	8.208959e-01	7.522437e+14	8.507950e+14	5.775432e+13	1.062530e+04	4.178544e+03	2.409628e+03	0	1.060605e-03
1.150000e+09	5.923211e+13	0.000000e+00	8.208959e-01	7.458245e+14	8.438091e+14	5.750432e+13	1.060579e+04	4.174794e+03	2.407466e+03	0	1.056718e-03
1.160000e+09	5.858561e+13	0.000000e+00	8.208959e-01	7.394957e+14	8.369195e+14	5.725600e+13	1.058644e+04	4.171072e+03	2.405319e+03	0	1.052860e-03
1.170000e+09	5.794838e+13	0.000000e+00	8.208959e-01	7.332556e+14	8.301245e+14	5.700932e+13	1.056726e+04	4.167377e+03	2.403189e+03	0	1.049029e-03
1.180000e+09	5.732025e+13	0.000000e+00	8.208959e-01	7.271024e+14	8.234222e+14	5.676429e+13	1.054824e+04	4.163709e+03	2.401073e+03	0	1.045224e-03
1.190000e+09	5.670104e+13	0.000000e+00	8.208959e-01	7.210346e+14	8.168108e+14	5.652089e+13	1.052938e+04	4.160068e+03	2.398974e+03	0	1.041447e-03
1.200000e+09	5.609058e+13	0.000000e+00	8.208959e-01	7.150503e+14	8.102887e+14	5.627910e+13	1.051067e+04	4.156453e+03	2.396889e+03	0	1.037696e-03
1.210000e+09	5.548869e+13	0.000000e+00	8.208959e-01	7.091482e+14	8.038541e+14	5.603892e+13	1.049212e+04	4.152864e+03	2.394819e+03	0	1.033971e-03
1.220000e+09	5.489522e+13	0.000000e+00	8.208959e-01	7.033266e+14	7.975055e+14	5.580033e+13	1.047373e+04	4.149301e+03	2.392765e+03	0	1.030272e-03
1.230000e+09	5.431001e+13	0.000000e+00	8.208959e-01	6.975839e+14	7.912412e+14	5.556331e+13	1.045548e+04	4.145763e+03	2.390724e+03	0	1.026597e-03
1.240000e+09	5.373289e+13	0.000000e+00	8.208959e-01	6.919188e+14	7.850597e+14	5.532786e+13	1.043738e+04	4.142250e+03	2.388698e+03	0	1.022948e-03
1.250000e+09	5.316372e+13	0.000000e+00	8.208959e-01	6.863298e+14	7.789595e+14	5.509397e+13	1.041943e+04	4.138762e+03	2.386687e+03	0	1.019323e-03
1.260000e+09	5.260235e+13	0.000000e+00	8.208959e-01	6.808154e+14	7.729390e+14	5.486162e+13	1.040162e+04	4.135298e+03	2.384689e+03	0	1.015723e-03
1.270000e+09	5.204864e+13	0.000000e+00	8.208959e-01	6.753744e+14	7.669968e+14	5.463080e+13	1.038396e+04	4.131858e+03	2.382706e+03	0	1.012146e-03
1.280000e+09	5.150243e+13	0.000000e+00	8.208959e-01	6.700053e+14	7.611315e+14	5.440150e+13	1.036644e+04	4.128442e+03	2.380736e+03	0	1.008593e-03
1.290000e+09	5.096360e+13	0.000000e+00	8.208959e-01	6.647068e+14	7.553418e+14	5.417370e+13	1.034905e+04	4.125049e+03	2.378779e+03	0	1.005064e-03
1.300000e+09	5.043201e+13	0.000000e+00	8.208959e-01	6.594778e+14	7.496262e+14	5.394740e+13	1.033181e+04	4.121680e+03	2.376837e+03	0	1.001557e-03
1.310000e+09	4.990753e+13	0.000000e+00	8.208959e-01	6.543168e+14	7.439834e+14	5.372259e+13	1.031469e+04	4.118334e+03	2.374907e+03	0	9.980727e-04
1.320000e+09	4.939002e+13	0.000000e+00	8.208959e-01	6.492227e+14	7.384122e+14	5.349924e+13	1.029772e+04	4.115010e+03	2.372990e+03	0	9.946110e-04
1.330000e+09	4.887936e+13	0.000000e+00	8.208959e-01	6.441943e+14	7.329113e+14	5.327736e+13	1.028087e+04	4.111709e+03	2.371087e+03	0	9.911712e-04
1.340000e+09	4.837543e+13	0.000000e+00	8.208959e-01	6.392305e+14	7.274794e+14	5.305693e+13	1.026415e+04	4.108430e+03	2.369196e+03	0	9.877532e-04
1.350000e+09	4.787811e+13	0.000000e+00	8.208959e-01	6.343300e+14	7.221154e+14	5.283793e+13	1.024757e+04	4.105173e+03	2.367317e+03	0	9.843567e-04
1.360000e+09	4.738728e+13	0.000000e+00	8.208959e-01	6.294918e+14	7.168180e+14	5.262037e+13	1.023110e+04	4.101937e+03	2.365452e+03	0	9.809814e-04
