#t		Qconv[W]	Ri[Rp]		R*[Rp]		Qc[W]		Qm[W]		Qr[W]		Tcmb[K]		Tl[K]		Tup[K]		RiFlag		Bs[T]
0.000000e+00	3.802373e+14	0.000000e+00	8.208953e-01	3.721142e+15	1.829288e+15	1.175703e+14	1.631648e+04	4.549640e+03	2.589632e+03	0	1.954675e-03
1.000000e+07	3.769096e+14	0.000000e+00	8.208953e-01	3.690321e+15	2.218791e+15	1.169189e+14	1.623918e+04	4.702544e+03	2.676664e+03	0	1.948956e-03
2.000000e+07	3.725365e+14	0.000000e+00	8.208953e-01	3.650483e+15	2.554685e+15	1.162723e+14	1.616253e+04	4.821875e+03	2.744586e+03	0	1.941389e-03
3.000000e+07	3.674185e+14	0.000000e+00	8.208953e-01	3.604229e+15	2.824953e+15	1.156306e+14	1.608669e+04	4.912016e+03	2.795894e+03	0	1.932457e-03
4.000000e+07	3.618031e+14	0.000000e+00	8.208953e-01	3.553701e+15	3.029320e+15	1.149937e+14	1.601181e+04	4.978069e+03	2.833491e+03	0	1.922562e-03
5.000000e+07	3.558800e+14	0.000000e+00	8.208953e-01	3.500542e+15	3.174667e+15	1.143615e+14	1.593798e+04	5.025008e+03	2.860209e+03	0	1.912013e-03
6.000000e+07	3.497887e+14	0.000000e+00	8.208953e-01	3.445959e+15	3.270932e+15	1.137340e+14	1.586524e+04	5.057209e+03	2.878537e+03	0	1.901041e-03
7.000000e+07	3.436286e+14	0.000000e+00	8.208953e-01	3.390811e+15	3.328391e+15	1.131112e+14	1.579363e+04	5.078280e+03	2.890531e+03	0	1.889815e-03
8.000000e+07	3.374690e+14	0.000000e+00	8.208953e-01	3.335697e+15	3.356242e+15	1.124931e+14	1.572316e+04	5.091069e+03	2.897810e+03	0	1.878455e-03
9.000000e+07	3.313575e+14	0.000000e+00	8.208953e-01	3.281030e+15	3.362092e+15	1.118795e+14	1.565383e+04	5.097759e+03	2.901618e+03	0	1.867047e-03
1.000000e+08	3.253263e+14	0.000000e+00	8.208953e-01	3.227087e+15	3.351927e+15	1.112705e+14	1.558564e+04	5.099991e+03	2.902889e+03	0	1.855650e-03
1.100000e+08	3.193965e+14	0.000000e+00	8.208953e-01	3.174050e+15	3.330312e+15	1.106660e+14	1.551855e+04	5.098985e+03	2.902316e+03	0	1.844306e-03
1.200000e+08	3.135816e+14	0.000000e+00	8.208953e-01	3.122035e+15	3.300654e+15	1.100660e+14	1.545257e+04	5.095639e+03	2.900411e+03	0	1.833045e-03
1.300000e+08	3.078899e+14	0.000000e+00	8.208953e-01	3.071114e+15	3.265466e+15	1.094704e+14	1.538766e+04	5.090609e+03	2.897548e+03	0	1.821887e-03
1.400000e+08	3.023257e+14	0.000000e+00	8.208953e-01	3.021322e+15	3.226577e+15	1.088792e+14	1.532380e+04	5.084377e+03	2.894001e+03	0	1.810845e-03
1.500000e+08	2.968909e+14	0.000000e+00	8.208953e-01	2.972677e+15	3.185314e+15	1.082924e+14	1.526097e+04	5.077293e+03	2.889969e+03	0	1.799928e-03
1.600000e+08	2.915855e+14	0.000000e+00	8.208953e-01	2.925176e+15	3.142632e+15	1.077100e+14	1.519915e+04	5.069614e+03	2.885598e+03	0	1.789142e-03
1.700000e+08	2.864083e+14	0.000000e+00	8.208953e-01	2.878810e+15	3.099218e+15	1.071318e+14	1.513832e+04	5.061527e+03	2.880995e+03	0	1.778490e-03
1.800000e+08	2.813573e+14	0.000000e+00	8.208953e-01	2.833561e+15	3.055561e+15	1.065579e+14	1.507844e+04	5.053167e+03	2.876237e+03	0	1.767973e-03
1.900000e+08	2.764300e+14	0.000000e+00	8.208953e-01	2.789405e+15	3.012008e+15	1.059883e+14	1.501950e+04	5.044636e+03	2.871381e+03	0	1.757592e-03
2.000000e+08	2.716235e+14	0.000000e+00	8.208953e-01	2.746317e+15	2.968803e+15	1.054228e+14	1.496147e+04	5.036005e+03	2.866468e+03	0	1.747345e-03
2.100000e+08	2.669345e+14	0.000000e+00	8.208953e-01	2.704269e+15	2.926116e+15	1.048615e+14	1.490434e+04	5.027328e+03	2.861529e+03	0	1.737232e-03
2.200000e+08	2.623599e+14	0.000000e+00	8.208953e-01	2.663233e+15	2.884064e+15	1.043043e+14	1.484808e+04	5.018645e+03	2.856587e+03	0	1.727251e-03
2.300000e+08	2.578964e+14	0.000000e+00	8.208953e-01	2.623180e+15	2.842725e+15	1.037512e+14	1.479266e+04	5.009983e+03	2.851657e+03	0	1.717400e-03
2.400000e+08	2.535407e+14	0.000000e+00	8.208953e-01	2.584080e+15	2.802147e+15	1.032021e+14	1.473808e+04	5.001364e+03	2.846751e+03	0	1.707676e-03
2.500000e+08	2.492896e+14	0.000000e+00	8.208953e-01	2.545906e+15	2.762361e+15	1.026571e+14	1.468430e+04	4.992802e+03	2.841877e+03	0	1.698078e-03
2.600000e+08	2.451399e+14	0.000000e+00	8.208953e-01	2.508630e+15	2.723381e+15	1.021160e+14	1.463132e+04	4.984307e+03	2.837042e+03	0	1.688603e-03
2.700000e+08	2.410885e+14	0.000000e+00	8.208953e-01	2.472224e+15	2.685211e+15	1.015790e+14	1.457911e+04	4.975888e+03	2.832250e+03	0	1.679249e-03
2.800000e+08	2.371324e+14	0.000000e+00	8.208953e-01	2.436661e+15	2.647848e+15	1.010458e+14	1.452765e+04	4.967550e+03	2.827504e+03	0	1.670013e-03
2.900000e+08	2.332687e+14	0.000000e+00	8.208953e-01	2.401917e+15	2.611283e+15	1.005165e+14	1.447693e+04	4.959296e+03	2.822806e+03	0	1.660893e-03
3.000000e+08	2.294945e+14	0.000000e+00	8.208953e-01	2.367965e+15	2.575505e+15	9.999110e+13	1.442693e+04	4.951128e+03	2.818156e+03	0	1.651887e-03
3.100000e+08	2.258071e+14	0.000000e+00	8.208953e-01	2.334782e+15	2.540498e+15	9.946951e+13	1.437764e+04	4.943047e+03	2.813557e+03	0	1.642992e-03
3.200000e+08	2.222039e+14	0.000000e+00	8.208953e-01	2.302345e+15	2.506246e+15	9.895172e+13	1.432903e+04	4.935055e+03	2.809008e+03	0	1.634206e-03
3.300000e+08	2.186823e+14	0.000000e+00	8.208953e-01	2.270631e+15	2.472731e+15	9.843769e+13	1.428110e+04	4.927150e+03	2.804508e+03	0	1.625527e-03
3.400000e+08	2.152398e+14	0.000000e+00	8.208953e-01	2.239619e+15	2.439937e+15	9.792740e+13	1.423382e+04	4.919333e+03	2.800059e+03	0	1.616952e-03
3.500000e+08	2.118741e+14	0.000000e+00	8.208953e-01	2.209287e+15	2.407843e+15	9.742081e+13	1.418718e+04	4.911603e+03	2.795659e+03	0	1.608479e-03
3.600000e+08	2.085828e+14	0.000000e+00	8.208953e-01	2.179616e+15	2.376433e+15	9.691789e+13	1.414118e+04	4.903958e+03	2.791308e+03	0	1.600107e-03
3.700000e+08	2.053639e+14	0.000000e+00	8.208953e-01	2.150586e+15	2.345687e+15	9.641861e+13	1.409579e+04	4.896399e+03	2.787005e+03	0	1.591833e-03
3.800000e+08	2.022151e+14	0.000000e+00	8.208953e-01	2.122179e+15	2.315588e+15	9.592295e+13	1.405100e+04	4.888923e+03	2.782750e+03	0	1.583656e-03
3.900000e+08	1.991344e+14	0.000000e+00	8.208953e-01	2.094376e+15	2.286118e+15	9.543087e+13	1.400680e+04	4.881529e+03	2.778541e+03	0	1.575572e-03
4.000000e+08	1.961199e+14	0.000000e+00	8.208953e-01	2.067159e+15	2.257260e+15	9.494234e+13	1.396318e+04	4.874217e+03	2.774379e+03	0	1.567581e-03
4.100000e+08	1.931695e+14	0.000000e+00	8.208953e-01	2.040513e+15	2.228997e+15	9.445734e+13	1.392012e+04	4.866985e+03	2.770263e+03	0	1.559681e-03
4.200000e+08	1.902816e+14	0.000000e+00	8.208953e-01	2.014421e+15	2.201312e+15	9.397583e+13	1.387761e+04	4.859832e+03	2.766191e+03	0	1.551870e-03
4.300000e+08	1.874543e+14	0.000000e+00	8.208953e-01	1.988867e+15	2.174191e+15	9.349779e+13	1.383565e+04	4.852755e+03	2.762163e+03	0	1.544145e-03
4.400000e+08	1.846859e+14	0.000000e+00	8.208953e-01	1.963837e+15	2.147617e+15	9.302319e+13	1.379422e+04	4.845755e+03	2.758179e+03	0	1.536506e-03
4.500000e+08	1.819748e+14	0.000000e+00	8.208953e-01	1.939315e+15	2.121575e+15	9.255200e+13	1.375330e+04	4.838829e+03	2.754237e+03	0	1.528950e-03
4.600000e+08	1.793193e+14	0.000000e+00	8.208953e-01	1.915288e+15	2.096052e+15	9.208419e+13	1.371290e+04	4.831977e+03	2.750336e+03	0	1.521477e-03
4.700000e+08	1.767180e+14	0.000000e+00	8.208953e-01	1.891742e+15	2.071033e+15	9.161973e+13	1.367299e+04	4.825196e+03	2.746477e+03	0	1.514084e-03
4.800000e+08	1.741693e+14	0.000000e+00	8.208953e-01	1.868664e+15	2.046504e+15	9.115861e+13	1.363357e+04	4.818487e+03	2.742658e+03	0	1.506769e-03
4.900000e+08	1.716719e+14	0.000000e+00	8.208953e-01	1.846041e+15	2.022453e+15	9.070079e+13	1.359463e+04	4.811847e+03	2.738878e+03	0	1.499533e-03
5.000000e+08	1.692242e+14	0.000000e+00	8.208953e-01	1.823862e+15	1.998866e+15	9.024624e+13	1.355617e+04	4.805275e+03	2.735138e+03	0	1.492372e-03
5.100000e+08	1.668251e+14	0.000000e+00	8.208953e-01	1.802114e+15	1.975732e+15	8.979493e+13	1.351816e+04	4.798771e+03	2.731436e+03	0	1.485286e-03
5.200000e+08	1.644732e+14	0.000000e+00	8.208953e-01	1.780786e+15	1.953039e+15	8.934685e+13	1.348060e+04	4.792333e+03	2.727771e+03	0	1.478273e-03
5.300000e+08	1.621672e+14	0.000000e+00	8.208953e-01	1.759867e+15	1.930775e+15	8.890196e+13	1.344349e+04	4.785959e+03	2.724143e+03	0	1.471332e-03
5.400000e+08	1.599059e+14	0.000000e+00	8.208953e-01	1.739346e+15	1.908929e+15	8.846025e+13	1.340681e+04	4.779650e+03	2.720552e+03	0	1.464461e-03
5.500000e+08	1.576883e+14	0.000000e+00	8.208953e-01	1.719214e+15	1.887490e+15	8.802167e+13	1.337055e+04	4.773403e+03	2.716997e+03	0	1.457659e-03
5.600000e+08	1.555130e+14	0.000000e+00	8.208953e-01	1.699459e+15	1.866448e+15	8.758622e+13	1.333472e+04	4.767218e+03	2.713476e+03	0	1.450926e-03
5.700000e+08	1.533791e+14	0.000000e+00	8.208953e-01	1.680072e+15	1.845793e+15	8.715385e+13	1.329929e+04	4.761094e+03	2.709990e+03	0	1.444259e-03
5.800000e+08	1.512856e+14	0.000000e+00	8.208953e-01	1.661045e+15	1.825515e+15	8.672456e+13	1.326427e+04	4.755029e+03	2.706538e+03	0	1.437657e-03
5.900000e+08	1.492312e+14	0.000000e+00	8.208953e-01	1.642367e+15	1.805605e+15	8.629830e+13	1.322964e+04	4.749023e+03	2.703119e+03	0	1.431120e-03
6.000000e+08	1.472152e+14	0.000000e+00	8.208953e-01	1.624030e+15	1.786053e+15	8.587507e+13	1.319540e+04	4.743074e+03	2.699734e+03	0	1.424646e-03
6.100000e+08	1.452364e+14	0.000000e+00	8.208953e-01	1.606026e+15	1.766850e+15	8.545482e+13	1.316154e+04	4.737183e+03	2.696380e+03	0	1.418235e-03
6.200000e+08	1.432941e+14	0.000000e+00	8.208953e-01	1.588347e+15	1.747989e+15	8.503755e+13	1.312806e+04	4.731347e+03	2.693058e+03	0	1.411884e-03
6.300000e+08	1.413872e+14	0.000000e+00	8.208953e-01	1.570983e+15	1.729460e+15	8.462322e+13	1.309494e+04	4.725566e+03	2.689768e+03	0	1.405593e-03
6.400000e+08	1.395149e+14	0.000000e+00	8.208953e-01	1.553929e+15	1.711256e+15	8.421182e+13	1.306219e+04	4.719839e+03	2.686508e+03	0	1.399361e-03
6.500000e+08	1.376764e+14	0.000000e+00	8.208953e-01	1.537176e+15	1.693369e+15	8.380331e+13	1.302979e+04	4.714165e+03	2.683278e+03	0	1.393187e-03
6.600000e+08	1.358708e+14	0.000000e+00	8.208953e-01	1.520716e+15	1.675791e+15	8.339768e+13	1.299773e+04	4.708543e+03	2.680079e+03	0	1.387070e-03
6.700000e+08	1.340973e+14	0.000000e+00	8.208953e-01	1.504544e+15	1.658514e+15	8.299490e+13	1.296602e+04	4.702973e+03	2.676908e+03	0	1.381008e-03
6.800000e+08	1.323553e+14	0.000000e+00	8.208953e-01	1.488651e+15	1.641533e+15	8.259495e+13	1.293465e+04	4.697454e+03	2.673767e+03	0	1.375002e-03
6.900000e+08	1.306438e+14	0.000000e+00	8.208953e-01	1.473033e+15	1.624839e+15	8.219780e+13	1.290360e+04	4.691984e+03	2.670653e+03	0	1.369050e-03
7.000000e+08	1.289623e+14	0.000000e+00	8.208953e-01	1.457681e+15	1.608426e+15	8.180344e+13	1.287288e+04	4.686564e+03	2.667568e+03	0	1.363150e-03
7.100000e+08	1.273099e+14	0.000000e+00	8.208953e-01	1.442590e+15	1.592288e+15	8.141184e+13	1.284248e+04	4.681192e+03	2.664510e+03	0	1.357303e-03
7.200000e+08	1.256860e+14	0.000000e+00	8.208953e-01	1.427753e+15	1.576418e+15	8.102297e+13	1.281239e+04	4.675868e+03	2.661480e+03	0	1.351508e-03
7.300000e+08	1.240900e+14	0.000000e+00	8.208953e-01	1.413166e+15	1.560810e+15	8.063683e+13	1.278261e+04	4.670590e+03	2.658476e+03	0	1.345763e-03
7.400000e+08	1.225212e+14	0.000000e+00	8.208953e-01	1.398821e+15	1.545458e+15	8.025338e+13	1.275314e+04	4.665359e+03	2.655498e+03	0	1.340067e-03
7.500000e+08	1.209790e+14	0.000000e+00	8.208953e-01	1.384715e+15	1.530357e+15	7.987260e+13	1.272396e+04	4.660173e+03	2.652546e+03	0	1.334421e-03
7.600000e+08	1.194627e+14	0.000000e+00	8.208953e-01	1.370840e+15	1.515500e+15	7.949448e+13	1.269508e+04	4.655032e+03	2.649620e+03	0	1.328823e-03
7.700000e+08	1.179718e+14	0.000000e+00	8.208953e-01	1.357193e+15	1.500882e+15	7.911898e+13	1.266648e+04	4.649935e+03	2.646719e+03	0	1.323272e-03
7.800000e+08	1.165057e+14	0.000000e+00	8.208953e-01	1.343767e+15	1.486499e+15	7.874610e+13	1.263817e+04	4.644882e+03	2.643843e+03	0	1.317767e-03
7.900000e+08	1.150638e+14	0.000000e+00	8.208953e-01	1.330559e+15	1.472344e+15	7.837581e+13	1.261014e+04	4.639871e+03	2.640991e+03	0	1.312308e-03
8.000000e+08	1.136457e+14	0.000000e+00	8.208953e-01	1.317562e+15	1.458412e+15	7.800808e+13	1.258238e+04	4.634903e+03	2.638163e+03	0	1.306895e-03
8.100000e+08	1.122507e+14	0.000000e+00	8.208953e-01	1.304774e+15	1.444700e+15	7.764290e+13	1.255489e+04	4.629976e+03	2.635358e+03	0	1.301525e-03
8.200000e+08	1.108784e+14	0.000000e+00	8.208953e-01	1.292188e+15	1.431202e+15	7.728025e+13	1.252767e+04	4.625090e+03	2.632577e+03	0	1.296200e-03
8.300000e+08	1.095283e+14	0.000000e+00	8.208953e-01	1.279801e+15	1.417913e+15	7.692011e+13	1.250071e+04	4.620245e+03	2.629819e+03	0	1.290917e-03
8.400000e+08	1.081999e+14	0.000000e+00	8.208953e-01	1.267608e+15	1.404829e+15	7.656245e+13	1.247401e+04	4.615439e+03	2.627084e+03	0	1.285677e-03
8.500000e+08	1.068926e+14	0.000000e+00	8.208953e-01	1.255605e+15	1.391946e+15	7.620727e+13	1.244756e+04	4.610673e+03	2.624371e+03	0	1.280478e-03
8.600000e+08	1.056062e+14	0.000000e+00	8.208953e-01	1.243788e+15	1.379259e+15	7.585453e+13	1.242136e+04	4.605945e+03	2.621680e+03	0	1.275320e-03
8.700000e+08	1.043400e+14	0.000000e+00	8.208953e-01	1.232153e+15	1.366764e+15	7.550422e+13	1.239541e+04	4.601256e+03	2.619011e+03	0	1.270203e-03
8.800000e+08	1.030937e+14	0.000000e+00	8.208953e-01	1.220697e+15	1.354458e+15	7.515632e+13	1.236969e+04	4.596604e+03	2.616364e+03	0	1.265126e-03
8.900000e+08	1.018669e+14	0.000000e+00	8.208953e-01	1.209415e+15	1.342336e+15	7.481080e+13	1.234422e+04	4.591990e+03	2.613737e+03	0	1.260087e-03
9.000000e+08	1.006591e+14	0.000000e+00	8.208953e-01	1.198304e+15	1.330394e+15	7.446766e+13	1.231898e+04	4.587412e+03	2.611131e+03	0	1.255087e-03
9.100000e+08	9.946999e+13	0.000000e+00	8.208953e-01	1.187360e+15	1.318629e+15	7.412688e+13	1.229398e+04	4.582870e+03	2.608546e+03	0	1.250126e-03
9.200000e+08	9.829913e+13	0.000000e+00	8.208953e-01	1.176580e+15	1.307038e+15	7.378842e+13	1.226920e+04	4.578364e+03	2.605981e+03	0	1.245201e-03
9.300000e+08	9.714614e+13	0.000000e+00	8.208953e-01	1.165961e+15	1.295616e+15	7.345228e+13	1.224464e+04	4.573893e+03	2.603436e+03	0	1.240313e-03
9.400000e+08	9.601066e+13	0.000000e+00	8.208953e-01	1.155499e+15	1.284360e+15	7.311844e+13	1.222031e+04	4.569457e+03	2.600911e+03	0	1.235462e-03
9.500000e+08	9.489233e+13	0.000000e+00	8.208953e-01	1.145191e+15	1.273267e+15	7.278688e+13	1.219619e+04	4.565054e+03	2.598405e+03	0	1.230646e-03
9.600000e+08	9.379081e+13	0.000000e+00	8.208953e-01	1.135034e+15	1.262333e+15	7.245758e+13	1.217229e+04	4.560686e+03	2.595919e+03	0	1.225866e-03
9.700000e+08	9.270574e+13	0.000000e+00	8.208953e-01	1.125025e+15	1.251556e+15	7.213052e+13	1.214860e+04	4.556351e+03	2.593451e+03	0	1.221120e-03
9.800000e+08	9.163681e+13	0.000000e+00	8.208953e-01	1.115160e+15	1.240932e+15	7.180569e+13	1.212512e+04	4.552048e+03	2.591003e+03	0	1.216409e-03
9.900000e+08	9.058367e+13	0.000000e+00	8.208953e-01	1.105438e+15	1.230459e+15	7.148306e+13	1.210184e+04	4.547779e+03	2.588572e+03	0	1.211731e-03
1.000000e+09	8.954603e+13	0.000000e+00	8.208953e-01	1.095855e+15	1.220133e+15	7.116262e+13	1.207877e+04	4.543541e+03	2.586160e+03	0	1.207086e-03
1.010000e+09	8.852357e+13	0.000000e+00	8.208953e-01	1.086409e+15	1.209951e+15	7.084436e+13	1.205590e+04	4.539334e+03	2.583766e+03	0	1.202475e-03
1.020000e+09	8.751598e+13	0.000000e+00	8.208953e-01	1.077096e+15	1.199911e+15	7.052826e+13	1.203322e+04	4.535159e+03	2.581389e+03	0	1.197895e-03
1.030000e+09	8.652298e+13	0.000000e+00	8.208953e-01	1.067915e+15	1.190010e+15	7.021429e+13	1.201073e+04	4.531015e+03	2.579030e+03	0	1.193347e-03
1.040000e+09	8.554429e+13	0.000000e+00	8.208953e-01	1.058862e+15	1.180245e+15	6.990244e+13	1.198844e+04	4.526901e+03	2.576689e+03	0	1.188830e-03
1.050000e+09	8.457961e+13	0.000000e+00	8.208953e-01	1.049935e+15	1.170614e+15	6.959270e+13	1.196634e+04	4.522817e+03	2.574364e+03	0	1.184345e-03
1.060000e+09	8.362869e+13	0.000000e+00	8.208953e-01	1.041133e+15	1.161115e+15	6.928505e+13	1.194442e+04	4.518763e+03	2.572056e+03	0	1.179890e-03
1.070000e+09	8.269126e+13	0.000000e+00	8.208953e-01	1.032451e+15	1.151743e+15	6.897948e+13	1.192268e+04	4.514738e+03	2.569765e+03	0	1.175464e-03
1.080000e+09	8.176705e+13	0.000000e+00	8.208953e-01	1.023889e+15	1.142498e+15	6.867595e+13	1.190113e+04	4.510741e+03	2.567491e+03	0	1.171069e-03
1.090000e+09	8.085582e+13	0.000000e+00	8.208953e-01	1.015444e+15	1.133377e+15	6.837447e+13	1.187975e+04	4.506774e+03	2.565232e+03	0	1.166702e-03
1.100000e+09	7.995732e+13	0.000000e+00	8.208953e-01	1.007114e+15	1.124378e+15	6.807502e+13	1.185855e+04	4.502834e+03	2.562990e+03	0	1.162364e-03
1.110000e+09	7.907131e+13	0.000000e+00	8.208953e-01	9.988958e+14	1.115498e+15	6.777757e+13	1.183752e+04	4.498922e+03	2.560763e+03	0	1.158055e-03
1.120000e+09	7.819755e+13	0.000000e+00	8.208953e-01	9.907883e+14	1.106735e+15	6.748211e+13	1.181667e+04	4.495038e+03	2.558553e+03	0	1.153774e-03
1.130000e+09	7.733581e+13	0.000000e+00	8.208953e-01	9.827893e+14	1.098087e+15	6.718863e+13	1.179598e+04	4.491181e+03	2.556357e+03	0	1.149520e-03
1.140000e+09	7.648588e+13	0.000000e+00	8.208953e-01	9.748967e+14	1.089552e+15	6.689712e+13	1.177546e+04	4.487351e+03	2.554177e+03	0	1.145293e-03
1.150000e+09	7.564753e+13	0.000000e+00	8.208953e-01	9.671086e+14	1.081128e+15	6.660755e+13	1.175510e+04	4.483547e+03	2.552012e+03	0	1.141093e-03
1.160000e+09	7.482055e+13	0.000000e+00	8.208953e-01	9.594230e+14	1.072813e+15	6.631991e+13	1.173491e+04	4.479770e+03	2.549862e+03	0	1.136920e-03
1.170000e+09	7.400473e+13	0.000000e+00	8.208953e-01	9.518382e+14	1.064605e+15	6.603419e+13	1.171488e+04	4.476018e+03	2.547726e+03	0	1.132773e-03
1.180000e+09	7.319986e+13	0.000000e+00	8.208953e-01	9.443523e+14	1.056502e+15	6.575036e+13	1.169500e+04	4.472292e+03	2.545605e+03	0	1.128651e-03
1.190000e+09	7.240576e+13	0.000000e+00	8.208953e-01	9.369636e+14	1.048501e+15	6.546843e+13	1.167528e+04	4.468591e+03	2.543499e+03	0	1.124555e-03
1.200000e+09	7.162221e+13	0.000000e+00	8.208953e-01	9.296702e+14	1.040603e+15	6.518837e+13	1.165572e+04	4.464915e+03	2.541407e+03	0	1.120484e-03
1.210000e+09	7.084904e+13	0.000000e+00	8.208953e-01	9.224705e+14	1.032804e+15	6.491016e+13	1.163630e+04	4.461264e+03	2.539328e+03	0	1.116437e-03
1.220000e+09	7.008606e+13	0.000000e+00	8.208953e-01	9.153629e+14	1.025102e+15	6.463380e+13	1.161704e+04	4.457637e+03	2.537264e+03	0	1.112415e-03
1.230000e+09	6.933309e+13	0.000000e+00	8.208953e-01	9.083457e+14	1.017497e+15	6.435926e+13	1.159792e+04	4.454034e+03	2.535213e+03	0	1.108417e-03
1.240000e+09	6.858994e+13	0.000000e+00	8.208953e-01	9.014173e+14	1.009986e+15	6.408654e+13	1.157895e+04	4.450455e+03	2.533176e+03	0	1.104442e-03
1.250000e+09	6.785645e+13	0.000000e+00	8.208953e-01	8.945763e+14	1.002568e+15	6.381562e+13	1.156013e+04	4.446899e+03	2.531152e+03	0	1.100491e-03
1.260000e+09	6.713244e+13	0.000000e+00	8.208953e-01	8.878210e+14	9.952416e+14	6.354649e+13	1.154144e+04	4.443367e+03	2.529142e+03	0	1.096563e-03
1.270000e+09	6.641775e+13	0.000000e+00	8.208953e-01	8.811500e+14	9.880046e+14	6.327913e+13	1.152290e+04	4.439858e+03	2.527144e+03	0	1.092658e-03
1.280000e+09	6.571222e+13	0.000000e+00	8.208953e-01	8.745619e+14	9.808557e+14	6.301353e+13	1.150450e+04	4.436372e+03	2.525160e+03	0	1.088775e-03
1.290000e+09	6.501569e+13	0.000000e+00	8.208953e-01	8.680551e+14	9.737935e+14	6.274967e+13	1.148623e+04	4.432908e+03	2.523188e+03	0	1.084915e-03
1.300000e+09	6.432800e+13	0.000000e+00	8.208953e-01	8.616285e+14	9.668164e+14	6.248755e+13	1.146810e+04	4.429466e+03	2.521229e+03	0	1.081076e-03
1.310000e+09	6.364901e+13	0.000000e+00	8.208953e-01	8.552805e+14	9.599232e+14	6.222714e+13	1.145010e+04	4.426046e+03	2.519283e+03	0	1.077259e-03
1.320000e+09	6.297855e+13	0.000000e+00	8.208953e-01	8.490099e+14	9.531123e+14	6.196844e+13	1.143224e+04	4.422648e+03	2.517349e+03	0	1.073463e-03
1.330000e+09	6.231650e+13	0.000000e+00	8.208953e-01	8.428153e+14	9.463824e+14	6.171144e+13	1.141451e+04	4.419272e+03	2.515427e+03	0	1.069688e-03
1.340000e+09	6.166270e+13	0.000000e+00	8.208953e-01	8.366955e+14	9.397323e+14	6.145611e+13	1.139690e+04	4.415917e+03	2.513517e+03	0	1.065934e-03
1.350000e+09	6.101701e+13	0.000000e+00	8.208953e-01	8.306493e+14	9.331604e+14	6.120244e+13	1.137943e+04	4.412582e+03	2.511619e+03	0	1.062201e-03
1.360000e+09	6.037931e+13	0.000000e+00	8.208953e-01	8.246754e+14	9.266657e+14	6.095043e+13	1.136207e+04	4.409269e+03	2.509733e+03	0	1.058487e-03
