#t		Qconv[W]	Ri[Rp]		R*[Rp]		Qc[W]		Qm[W]		Qr[W]		Tcmb[K]		Tl[K]		Tup[K]		RiFlag		Bs[T]
0.000000e+00	1.415911e+11	0.000000e+00	3.668342e-01	9.384908e+12	1.256271e+15	9.930118e+13	4.166459e+03	2.981186e+03	2.022705e+03	0	2.403370e-04
1.000000e+07	1.407147e+11	0.000000e+00	3.668342e-01	9.327618e+12	1.064459e+15	9.875098e+13	4.157403e+03	2.880445e+03	1.954354e+03	0	2.398401e-04
2.000000e+07	1.384281e+11	0.000000e+00	3.668342e-01	9.178844e+12	9.179917e+14	9.820489e+13	4.148399e+03	2.795766e+03	1.896900e+03	0	2.385339e-04
3.000000e+07	1.354255e+11	0.000000e+00	3.668342e-01	8.983625e+12	8.034416e+14	9.766288e+13	4.139537e+03	2.723482e+03	1.847856e+03	0	2.367967e-04
4.000000e+07	1.320946e+11	0.000000e+00	3.668342e-01	8.767113e+12	7.120087e+14	9.712493e+13	4.130860e+03	2.660975e+03	1.805445e+03	0	2.348391e-04
5.000000e+07	1.286546e+11	0.000000e+00	3.668342e-01	8.543536e+12	6.377387e+14	9.659098e+13	4.122391e+03	2.606325e+03	1.768366e+03	0	2.327826e-04
6.000000e+07	1.252297e+11	0.000000e+00	3.668342e-01	8.320948e+12	5.764883e+14	9.606101e+13	4.114136e+03	2.558094e+03	1.735641e+03	0	2.306984e-04
7.000000e+07	1.218892e+11	0.000000e+00	3.668342e-01	8.103846e+12	5.253024e+14	9.553499e+13	4.106094e+03	2.515180e+03	1.706524e+03	0	2.286286e-04
8.000000e+07	1.186702e+11	0.000000e+00	3.668342e-01	7.894636e+12	4.820266e+14	9.501288e+13	4.098261e+03	2.476723e+03	1.680432e+03	0	2.265980e-04
9.000000e+07	1.155907e+11	0.000000e+00	3.668342e-01	7.694485e+12	4.450601e+14	9.449466e+13	4.090628e+03	2.442046e+03	1.656904e+03	0	2.246207e-04
1.000000e+08	1.126574e+11	0.000000e+00	3.668342e-01	7.503825e+12	4.131922e+14	9.398028e+13	4.083188e+03	2.410603e+03	1.635570e+03	0	2.227043e-04
1.100000e+08	1.098701e+11	0.000000e+00	3.668342e-01	7.322653e+12	3.854932e+14	9.346972e+13	4.075931e+03	2.381952e+03	1.616131e+03	0	2.208523e-04
1.200000e+08	1.072250e+11	0.000000e+00	3.668342e-01	7.150711e+12	3.612391e+14	9.296294e+13	4.068848e+03	2.355728e+03	1.598338e+03	0	2.190656e-04
1.300000e+08	1.047160e+11	0.000000e+00	3.668342e-01	6.987605e+12	3.398590e+14	9.245992e+13	4.061931e+03	2.331631e+03	1.581989e+03	0	2.173434e-04
1.400000e+08	1.023359e+11	0.000000e+00	3.668342e-01	6.832867e+12	3.208974e+14	9.196062e+13	4.055171e+03	2.309408e+03	1.566910e+03	0	2.156840e-04
1.500000e+08	1.000770e+11	0.000000e+00	3.668342e-01	6.686004e+12	3.039872e+14	9.146501e+13	4.048560e+03	2.288845e+03	1.552958e+03	0	2.140853e-04
1.600000e+08	9.793172e+10	0.000000e+00	3.668342e-01	6.546519e+12	2.888296e+14	9.097306e+13	4.042090e+03	2.269760e+03	1.540010e+03	0	2.125445e-04
1.700000e+08	9.589265e+10	0.000000e+00	3.668342e-01	6.413929e+12	2.751793e+14	9.048474e+13	4.035754e+03	2.252000e+03	1.527959e+03	0	2.110590e-04
1.800000e+08	9.395265e+10	0.000000e+00	3.668342e-01	6.287773e+12	2.628333e+14	9.000002e+13	4.029546e+03	2.235429e+03	1.516716e+03	0	2.096260e-04
1.900000e+08	9.210503e+10	0.000000e+00	3.668342e-01	6.167616e+12	2.516225e+14	8.951887e+13	4.023460e+03	2.219931e+03	1.506201e+03	0	2.082427e-04
2.000000e+08	9.034353e+10	0.000000e+00	3.668342e-01	6.053052e+12	2.414045e+14	8.904126e+13	4.017490e+03	2.205405e+03	1.496345e+03	0	2.069066e-04
2.100000e+08	8.866234e+10	0.000000e+00	3.668342e-01	5.943703e+12	2.320595e+14	8.856716e+13	4.011630e+03	2.191763e+03	1.487089e+03	0	2.056152e-04
2.200000e+08	8.705607e+10	0.000000e+00	3.668342e-01	5.839219e+12	2.234852e+14	8.809655e+13	4.005875e+03	2.178926e+03	1.478380e+03	0	2.043659e-04
2.300000e+08	8.551973e+10	0.000000e+00	3.668342e-01	5.739277e+12	2.155944e+14	8.762939e+13	4.000221e+03	2.166826e+03	1.470170e+03	0	2.031566e-04
2.400000e+08	8.404874e+10	0.000000e+00	3.668342e-01	5.643579e+12	2.083121e+14	8.716565e+13	3.994664e+03	2.155400e+03	1.462417e+03	0	2.019850e-04
2.500000e+08	8.263885e+10	0.000000e+00	3.668342e-01	5.551851e+12	2.015736e+14	8.670531e+13	3.989198e+03	2.144595e+03	1.455086e+03	0	2.008492e-04
2.600000e+08	8.128618e+10	0.000000e+00	3.668342e-01	5.463838e+12	1.953228e+14	8.624834e+13	3.983822e+03	2.134361e+03	1.448142e+03	0	1.997473e-04
2.700000e+08	7.998711e+10	0.000000e+00	3.668342e-01	5.379307e+12	1.895105e+14	8.579471e+13	3.978530e+03	2.124654e+03	1.441557e+03	0	1.986775e-04
2.800000e+08	7.873835e+10	0.000000e+00	3.668342e-01	5.298043e+12	1.840942e+14	8.534440e+13	3.973320e+03	2.115436e+03	1.435302e+03	0	1.976382e-04
2.900000e+08	7.753681e+10	0.000000e+00	3.668342e-01	5.219847e+12	1.790360e+14	8.489737e+13	3.968188e+03	2.106671e+03	1.429355e+03	0	1.966277e-04
3.000000e+08	7.637969e+10	0.000000e+00	3.668342e-01	5.144535e+12	1.743031e+14	8.445360e+13	3.963132e+03	2.098326e+03	1.423693e+03	0	1.956447e-04
3.100000e+08	7.526437e+10	0.000000e+00	3.668342e-01	5.071940e+12	1.698659e+14	8.401306e+13	3.958148e+03	2.090372e+03	1.418296e+03	0	1.946877e-04
3.200000e+08	7.418843e+10	0.000000e+00	3.668342e-01	5.001902e+12	1.656986e+14	8.357573e+13	3.953234e+03	2.082782e+03	1.413147e+03	0	1.937555e-04
3.300000e+08	7.314965e+10	0.000000e+00	3.668342e-01	4.934278e+12	1.617779e+14	8.314157e+13	3.948389e+03	2.075533e+03	1.408228e+03	0	1.928470e-04
3.400000e+08	7.214594e+10	0.000000e+00	3.668342e-01	4.868934e+12	1.580833e+14	8.271057e+13	3.943608e+03	2.068601e+03	1.403525e+03	0	1.919609e-04
3.500000e+08	7.117539e+10	0.000000e+00	3.668342e-01	4.805743e+12	1.545963e+14	8.228270e+13	3.938890e+03	2.061968e+03	1.399025e+03	0	1.910962e-04
3.600000e+08	7.023621e+10	0.000000e+00	3.668342e-01	4.744590e+12	1.513002e+14	8.185793e+13	3.934234e+03	2.055613e+03	1.394713e+03	0	1.902519e-04
3.700000e+08	6.932675e+10	0.000000e+00	3.668342e-01	4.685368e+12	1.481801e+14	8.143624e+13	3.929636e+03	2.049521e+03	1.390579e+03	0	1.894272e-04
3.800000e+08	6.844546e+10	0.000000e+00	3.668342e-01	4.627977e+12	1.452227e+14	8.101759e+13	3.925096e+03	2.043674e+03	1.386612e+03	0	1.886211e-04
3.900000e+08	6.759090e+10	0.000000e+00	3.668342e-01	4.572322e+12	1.424156e+14	8.060197e+13	3.920611e+03	2.038059e+03	1.382803e+03	0	1.878328e-04
4.000000e+08	6.676173e+10	0.000000e+00	3.668342e-01	4.518317e+12	1.397479e+14	8.018936e+13	3.916180e+03	2.032662e+03	1.379141e+03	0	1.870616e-04
4.100000e+08	6.595670e+10	0.000000e+00	3.668342e-01	4.465880e+12	1.372096e+14	7.977972e+13	3.911801e+03	2.027471e+03	1.375619e+03	0	1.863067e-04
4.200000e+08	6.517463e+10	0.000000e+00	3.668342e-01	4.414936e+12	1.347916e+14	7.937303e+13	3.907473e+03	2.022473e+03	1.372228e+03	0	1.855674e-04
4.300000e+08	6.441444e+10	0.000000e+00	3.668342e-01	4.365414e+12	1.324855e+14	7.896927e+13	3.903194e+03	2.017659e+03	1.368962e+03	0	1.848431e-04
4.400000e+08	6.367510e+10	0.000000e+00	3.668342e-01	4.317246e+12	1.302838e+14	7.856842e+13	3.898963e+03	2.013019e+03	1.365813e+03	0	1.841331e-04
4.500000e+08	6.295564e+10	0.000000e+00	3.668342e-01	4.270370e+12	1.281795e+14	7.817045e+13	3.894778e+03	2.008542e+03	1.362776e+03	0	1.834370e-04
4.600000e+08	6.225517e+10	0.000000e+00	3.668342e-01	4.224729e+12	1.261663e+14	7.777533e+13	3.890639e+03	2.004220e+03	1.359844e+03	0	1.827541e-04
4.700000e+08	6.157283e+10	0.000000e+00	3.668342e-01	4.180266e+12	1.242384e+14	7.738305e+13	3.886544e+03	2.000046e+03	1.357011e+03	0	1.820840e-04
4.800000e+08	6.090784e+10	0.000000e+00	3.668342e-01	4.136930e+12	1.223903e+14	7.699358e+13	3.882492e+03	1.996012e+03	1.354274e+03	0	1.814261e-04
4.900000e+08	6.025945e+10	0.000000e+00	3.668342e-01	4.094673e+12	1.206172e+14	7.660689e+13	3.878481e+03	1.992110e+03	1.351627e+03	0	1.807800e-04
5.000000e+08	5.962694e+10	0.000000e+00	3.668342e-01	4.053449e+12	1.189146e+14	7.622298e+13	3.874512e+03	1.988334e+03	1.349065e+03	0	1.801453e-04
5.100000e+08	5.900966e+10	0.000000e+00	3.668342e-01	4.013215e+12	1.172781e+14	7.584180e+13	3.870582e+03	1.984678e+03	1.346584e+03	0	1.795215e-04
5.200000e+08	5.840698e+10	0.000000e+00	3.668342e-01	3.973929e+12	1.157039e+14	7.546335e+13	3.866691e+03	1.981136e+03	1.344181e+03	0	1.789082e-04
5.300000e+08	5.781831e+10	0.000000e+00	3.668342e-01	3.935555e+12	1.141884e+14	7.508759e+13	3.862839e+03	1.977703e+03	1.341852e+03	0	1.783051e-04
5.400000e+08	5.724309e+10	0.000000e+00	3.668342e-01	3.898054e+12	1.127282e+14	7.471451e+13	3.859023e+03	1.974373e+03	1.339592e+03	0	1.777119e-04
5.500000e+08	5.668079e+10	0.000000e+00	3.668342e-01	3.861394e+12	1.113204e+14	7.434409e+13	3.855244e+03	1.971141e+03	1.337400e+03	0	1.771281e-04
5.600000e+08	5.613091e+10	0.000000e+00	3.668342e-01	3.825541e+12	1.099619e+14	7.397629e+13	3.851500e+03	1.968004e+03	1.335271e+03	0	1.765534e-04
5.700000e+08	5.559298e+10	0.000000e+00	3.668342e-01	3.790465e+12	1.086501e+14	7.361111e+13	3.847790e+03	1.964956e+03	1.333203e+03	0	1.759876e-04
5.800000e+08	5.506655e+10	0.000000e+00	3.668342e-01	3.756137e+12	1.073826e+14	7.324853e+13	3.844115e+03	1.961994e+03	1.331193e+03	0	1.754303e-04
5.900000e+08	5.455120e+10	0.000000e+00	3.668342e-01	3.722529e+12	1.061569e+14	7.288851e+13	3.840473e+03	1.959113e+03	1.329239e+03	0	1.748814e-04
6.000000e+08	5.404652e+10	0.000000e+00	3.668342e-01	3.689615e+12	1.049710e+14	7.253104e+13	3.836863e+03	1.956311e+03	1.327338e+03	0	1.743404e-04
6.100000e+08	5.355213e+10	0.000000e+00	3.668342e-01	3.657370e+12	1.038227e+14	7.217610e+13	3.833285e+03	1.953584e+03	1.325487e+03	0	1.738072e-04
6.200000e+08	5.306766e+10	0.000000e+00	3.668342e-01	3.625770e+12	1.027102e+14	7.182366e+13	3.829739e+03	1.950928e+03	1.323685e+03	0	1.732814e-04
6.300000e+08	5.259278e+10	0.000000e+00	3.668342e-01	3.594794e+12	1.016317e+14	7.147372e+13	3.826223e+03	1.948341e+03	1.321930e+03	0	1.727630e-04
6.400000e+08	5.212715e+10	0.000000e+00	3.668342e-01	3.564419e+12	1.005856e+14	7.112624e+13	3.822736e+03	1.945820e+03	1.320219e+03	0	1.722517e-04
6.500000e+08	5.167045e+10	0.000000e+00	3.668342e-01	3.534625e+12	9.957028e+13	7.078121e+13	3.819280e+03	1.943361e+03	1.318551e+03	0	1.717471e-04
6.600000e+08	5.122240e+10	0.000000e+00	3.668342e-01	3.505393e+12	9.858427e+13	7.043861e+13	3.815852e+03	1.940963e+03	1.316924e+03	0	1.712493e-04
6.700000e+08	5.078270e+10	0.000000e+00	3.668342e-01	3.476705e+12	9.762621e+13	7.009841e+13	3.812452e+03	1.938623e+03	1.315336e+03	0	1.707578e-04
6.800000e+08	5.035108e+10	0.000000e+00	3.668342e-01	3.448542e+12	9.669480e+13	6.976061e+13	3.809080e+03	1.936338e+03	1.313786e+03	0	1.702727e-04
6.900000e+08	4.992729e+10	0.000000e+00	3.668342e-01	3.420888e+12	9.578882e+13	6.942518e+13	3.805736e+03	1.934106e+03	1.312272e+03	0	1.697936e-04
7.000000e+08	4.951107e+10	0.000000e+00	3.668342e-01	3.393727e+12	9.490713e+13	6.909209e+13	3.802418e+03	1.931926e+03	1.310792e+03	0	1.693205e-04
7.100000e+08	4.910220e+10	0.000000e+00	3.668342e-01	3.367044e+12	9.404864e+13	6.876134e+13	3.799126e+03	1.929794e+03	1.309346e+03	0	1.688531e-04
7.200000e+08	4.870045e+10	0.000000e+00	3.668342e-01	3.340824e+12	9.321235e+13	6.843291e+13	3.795860e+03	1.927710e+03	1.307932e+03	0	1.683913e-04
7.300000e+08	4.830559e+10	0.000000e+00	3.668342e-01	3.315052e+12	9.239728e+13	6.810676e+13	3.792620e+03	1.925672e+03	1.306549e+03	0	1.679350e-04
7.400000e+08	4.791743e+10	0.000000e+00	3.668342e-01	3.289716e+12	9.160254e+13	6.778290e+13	3.789405e+03	1.923677e+03	1.305195e+03	0	1.674840e-04
7.500000e+08	4.753576e+10	0.000000e+00	3.668342e-01	3.264803e+12	9.082725e+13	6.746129e+13	3.786214e+03	1.921724e+03	1.303870e+03	0	1.670381e-04
7.600000e+08	4.716041e+10	0.000000e+00	3.668342e-01	3.240300e+12	9.007062e+13	6.714192e+13	3.783047e+03	1.919811e+03	1.302573e+03	0	1.665973e-04
7.700000e+08	4.679117e+10	0.000000e+00	3.668342e-01	3.216195e+12	8.933187e+13	6.682478e+13	3.779904e+03	1.917938e+03	1.301302e+03	0	1.661614e-04
7.800000e+08	4.642789e+10	0.000000e+00	3.668342e-01	3.192478e+12	8.861027e+13	6.650983e+13	3.776784e+03	1.916102e+03	1.300056e+03	0	1.657302e-04
7.900000e+08	4.607039e+10	0.000000e+00	3.668342e-01	3.169137e+12	8.790514e+13	6.619708e+13	3.773687e+03	1.914302e+03	1.298835e+03	0	1.653038e-04
8.000000e+08	4.571852e+10	0.000000e+00	3.668342e-01	3.146162e+12	8.721583e+13	6.588649e+13	3.770613e+03	1.912537e+03	1.297637e+03	0	1.648818e-04
8.100000e+08	4.537212e+10	0.000000e+00	3.668342e-01	3.123543e+12	8.654172e+13	6.557806e+13	3.767561e+03	1.910805e+03	1.296462e+03	0	1.644643e-04
8.200000e+08	4.503104e+10	0.000000e+00	3.668342e-01	3.101271e+12	8.588221e+13	6.527176e+13	3.764531e+03	1.909106e+03	1.295309e+03	0	1.640512e-04
8.300000e+08	4.469514e+10	0.000000e+00	3.668342e-01	3.079335e+12	8.523675e+13	6.496758e+13	3.761522e+03	1.907438e+03	1.294178e+03	0	1.636423e-04
8.400000e+08	4.436429e+10	0.000000e+00	3.668342e-01	3.057728e+12	8.460481e+13	6.466550e+13	3.758535e+03	1.905801e+03	1.293067e+03	0	1.632375e-04
8.500000e+08	4.403835e+10	0.000000e+00	3.668342e-01	3.036441e+12	8.398589e+13	6.436551e+13	3.755568e+03	1.904192e+03	1.291975e+03	0	1.628367e-04
8.600000e+08	4.371720e+10	0.000000e+00	3.668342e-01	3.015465e+12	8.337951e+13	6.406758e+13	3.752622e+03	1.902612e+03	1.290903e+03	0	1.624400e-04
8.700000e+08	4.340071e+10	0.000000e+00	3.668342e-01	2.994793e+12	8.278521e+13	6.377170e+13	3.749697e+03	1.901058e+03	1.289849e+03	0	1.620470e-04
8.800000e+08	4.308877e+10	0.000000e+00	3.668342e-01	2.974416e+12	8.220255e+13	6.347786e+13	3.746791e+03	1.899531e+03	1.288813e+03	0	1.616578e-04
8.900000e+08	4.278127e+10	0.000000e+00	3.668342e-01	2.954329e+12	8.163113e+13	6.318604e+13	3.743906e+03	1.898030e+03	1.287794e+03	0	1.612724e-04
9.000000e+08	4.247810e+10	0.000000e+00	3.668342e-01	2.934523e+12	8.107055e+13	6.289622e+13	3.741039e+03	1.896553e+03	1.286792e+03	0	1.608905e-04
9.100000e+08	4.217914e+10	0.000000e+00	3.668342e-01	2.914992e+12	8.052043e+13	6.260839e+13	3.738192e+03	1.895099e+03	1.285806e+03	0	1.605122e-04
9.200000e+08	4.188431e+10	0.000000e+00	3.668342e-01	2.895730e+12	7.998042e+13	6.232252e+13	3.735364e+03	1.893669e+03	1.284836e+03	0	1.601373e-04
9.300000e+08	4.159350e+10	0.000000e+00	3.668342e-01	2.876729e+12	7.945017e+13	6.203862e+13	3.732554e+03	1.892261e+03	1.283880e+03	0	1.597658e-04
9.400000e+08	4.130662e+10	0.000000e+00	3.668342e-01	2.857984e+12	7.892936e+13	6.175665e+13	3.729763e+03	1.890874e+03	1.282939e+03	0	1.593977e-04
9.500000e+08	4.102358e+10	0.000000e+00	3.668342e-01	2.839489e+12	7.841768e+13	6.147661e+13	3.726990e+03	1.889508e+03	1.282013e+03	0	1.590328e-04
9.600000e+08	4.074429e+10	0.000000e+00	3.668342e-01	2.821238e+12	7.791482e+13	6.119848e+13	3.724235e+03	1.888163e+03	1.281100e+03	0	1.586710e-04
9.700000e+08	4.046866e+10	0.000000e+00	3.668342e-01	2.803225e+12	7.742051e+13	6.092224e+13	3.721497e+03	1.886837e+03	1.280200e+03	0	1.583124e-04
9.800000e+08	4.019662e+10	0.000000e+00	3.668342e-01	2.785446e+12	7.693447e+13	6.064788e+13	3.718777e+03	1.885529e+03	1.279313e+03	0	1.579569e-04
9.900000e+08	3.992808e+10	0.000000e+00	3.668342e-01	2.767896e+12	7.645644e+13	6.037539e+13	3.716075e+03	1.884240e+03	1.278438e+03	0	1.576044e-04
1.000000e+09	3.966297e+10	0.000000e+00	3.668342e-01	2.750568e+12	7.598616e+13	6.010475e+13	3.713389e+03	1.882969e+03	1.277576e+03	0	1.572548e-04
1.010000e+09	3.940121e+10	0.000000e+00	3.668342e-01	2.733459e+12	7.552342e+13	5.983594e+13	3.710720e+03	1.881716e+03	1.276725e+03	0	1.569081e-04
1.020000e+09	3.914274e+10	0.000000e+00	3.668342e-01	2.716563e+12	7.506796e+13	5.956895e+13	3.708067e+03	1.880479e+03	1.275886e+03	0	1.565642e-04
1.030000e+09	3.888747e+10	0.000000e+00	3.668342e-01	2.699876e+12	7.461958e+13	5.930377e+13	3.705431e+03	1.879258e+03	1.275058e+03	0	1.562231e-04
1.040000e+09	3.863535e+10	0.000000e+00	3.668342e-01	2.683395e+12	7.417806e+13	5.904038e+13	3.702811e+03	1.878053e+03	1.274240e+03	0	1.558848e-04
1.050000e+09	3.838631e+10	0.000000e+00	3.668342e-01	2.667113e+12	7.374321e+13	5.877877e+13	3.700207e+03	1.876863e+03	1.273433e+03	0	1.555491e-04
1.060000e+09	3.814028e+10	0.000000e+00	3.668342e-01	2.651029e+12	7.331482e+13	5.851893e+13	3.697619e+03	1.875688e+03	1.272636e+03	0	1.552161e-04
1.070000e+09	3.789721e+10	0.000000e+00	3.668342e-01	2.635136e+12	7.289272e+13	5.826083e+13	3.695046e+03	1.874528e+03	1.271849e+03	0	1.548856e-04
1.080000e+09	3.765703e+10	0.000000e+00	3.668342e-01	2.619432e+12	7.247673e+13	5.800448e+13	3.692489e+03	1.873382e+03	1.271071e+03	0	1.545577e-04
1.090000e+09	3.741969e+10	0.000000e+00	3.668342e-01	2.603913e+12	7.206667e+13	5.774984e+13	3.689947e+03	1.872249e+03	1.270302e+03	0	1.542323e-04
1.100000e+09	3.718513e+10	0.000000e+00	3.668342e-01	2.588575e+12	7.166239e+13	5.749692e+13	3.687420e+03	1.871130e+03	1.269543e+03	0	1.539094e-04
1.110000e+09	3.695329e+10	0.000000e+00	3.668342e-01	2.573414e+12	7.126371e+13	5.724569e+13	3.684908e+03	1.870023e+03	1.268792e+03	0	1.535889e-04
1.120000e+09	3.672413e+10	0.000000e+00	3.668342e-01	2.558428e+12	7.087050e+13	5.699614e+13	3.682410e+03	1.868929e+03	1.268050e+03	0	1.532707e-04
1.130000e+09	3.649759e+10	0.000000e+00	3.668342e-01	2.543612e+12	7.048261e+13	5.674827e+13	3.679928e+03	1.867847e+03	1.267316e+03	0	1.529549e-04
1.140000e+09	3.627363e+10	0.000000e+00	3.668342e-01	2.528964e+12	7.009989e+13	5.650205e+13	3.677459e+03	1.866777e+03	1.266590e+03	0	1.526414e-04
1.150000e+09	3.605219e+10	0.000000e+00	3.668342e-01	2.514481e+12	6.972221e+13	5.625748e+13	3.675005e+03	1.865719e+03	1.265872e+03	0	1.523302e-04
1.160000e+09	3.583322e+10	0.000000e+00	3.668342e-01	2.500158e+12	6.934945e+13	5.601453e+13	3.672564e+03	1.864672e+03	1.265161e+03	0	1.520211e-04
1.170000e+09	3.561668e+10	0.000000e+00	3.668342e-01	2.485995e+12	6.898147e+13	5.577321e+13	3.670138e+03	1.863636e+03	1.264458e+03	0	1.517143e-04
1.180000e+09	3.540253e+10	0.000000e+00	3.668342e-01	2.471986e+12	6.861815e+13	5.553349e+13	3.667725e+03	1.862610e+03	1.263762e+03	0	1.514096e-04
1.190000e+09	3.519073e+10	0.000000e+00	3.668342e-01	2.458130e+12	6.825939e+13	5.529536e+13	3.665326e+03	1.861595e+03	1.263074e+03	0	1.511071e-04
1.200000e+09	3.498122e+10	0.000000e+00	3.668342e-01	2.444425e+12	6.790506e+13	5.505882e+13	3.662940e+03	1.860590e+03	1.262392e+03	0	1.508066e-04
1.210000e+09	3.477398e+10	0.000000e+00	3.668342e-01	2.430866e+12	6.755506e+13	5.482385e+13	3.660567e+03	1.859595e+03	1.261717e+03	0	1.505082e-04
1.220000e+09	3.456895e+10	0.000000e+00	3.668342e-01	2.417452e+12	6.720929e+13	5.459043e+13	3.658208e+03	1.858610e+03	1.261048e+03	0	1.502118e-04
1.230000e+09	3.436611e+10	0.000000e+00	3.668342e-01	2.404180e+12	6.686764e+13	5.435855e+13	3.655862e+03	1.857634e+03	1.260386e+03	0	1.499175e-04
1.240000e+09	3.416541e+10	0.000000e+00	3.668342e-01	2.391048e+12	6.653003e+13	5.412821e+13	3.653528e+03	1.856667e+03	1.259730e+03	0	1.496250e-04
1.250000e+09	3.396682e+10	0.000000e+00	3.668342e-01	2.378053e+12	6.619635e+13	5.389939e+13	3.651207e+03	1.855709e+03	1.259080e+03	0	1.493346e-04
1.260000e+09	3.377029e+10	0.000000e+00	3.668342e-01	2.365193e+12	6.586651e+13	5.367208e+13	3.648899e+03	1.854760e+03	1.258436e+03	0	1.490460e-04
1.270000e+09	3.357580e+10	0.000000e+00	3.668342e-01	2.352466e+12	6.554043e+13	5.344626e+13	3.646603e+03	1.853819e+03	1.257798e+03	0	1.487593e-04
1.280000e+09	3.338332e+10	0.000000e+00	3.668342e-01	2.339869e+12	6.521803e+13	5.322193e+13	3.644320e+03	1.852887e+03	1.257165e+03	0	1.484745e-04
1.290000e+09	3.319280e+10	0.000000e+00	3.668342e-01	2.327401e+12	6.489922e+13	5.299907e+13	3.642049e+03	1.851962e+03	1.256538e+03	0	1.481915e-04
1.300000e+09	3.300421e+10	0.000000e+00	3.668342e-01	2.315058e+12	6.458392e+13	5.277768e+13	3.639790e+03	1.851046e+03	1.255916e+03	0	1.479103e-04
1.310000e+09	3.281753e+10	0.000000e+00	3.668342e-01	2.302840e+12	6.427207e+13	5.255774e+13	3.637542e+03	1.850137e+03	1.255300e+03	0	1.476309e-04
1.320000e+09	3.263273e+10	0.000000e+00	3.668342e-01	2.290743e+12	6.396357e+13	5.233924e+13	3.635307e+03	1.849236e+03	1.254688e+03	0	1.473533e-04
1.330000e+09	3.244976e+10	0.000000e+00	3.668342e-01	2.278767e+12	6.365838e+13	5.212217e+13	3.633084e+03	1.848343e+03	1.254082e+03	0	1.470774e-04
1.340000e+09	3.226861e+10	0.000000e+00	3.668342e-01	2.266909e+12	6.335640e+13	5.190651e+13	3.630872e+03	1.847456e+03	1.253481e+03	0	1.468032e-04
1.350000e+09	3.208924e+10	0.000000e+00	3.668342e-01	2.255167e+12	6.305759e+13	5.169227e+13	3.628671e+03	1.846577e+03	1.252884e+03	0	1.465307e-04
1.360000e+09	3.191163e+10	0.000000e+00	3.668342e-01	2.243540e+12	6.276187e+13	5.147942e+13	3.626482e+03	1.845705e+03	1.252292e+03	0	1.462598e-04
