#t		Qconv[W]	Ri[Rp]		R*[Rp]		Qc[W]		Qm[W]		Qr[W]		Tcmb[K]		Tl[K]		Tup[K]		RiFlag		Bs[T]
0.000000e+00	3.101594e+11	0.000000e+00	3.618091e-01	1.716986e+13	1.656444e+15	1.325940e+14	4.833371e+03	3.290148e+03	2.084556e+03	0	3.084337e-04
1.000000e+07	3.039541e+11	0.000000e+00	3.618091e-01	1.683337e+13	1.418100e+15	1.318593e+14	4.820811e+03	3.187075e+03	2.019252e+03	0	3.063629e-04
2.000000e+07	2.962660e+11	0.000000e+00	3.618091e-01	1.641675e+13	1.233323e+15	1.311302e+14	4.808492e+03	3.099569e+03	1.963811e+03	0	3.037578e-04
3.000000e+07	2.879743e+11	0.000000e+00	3.618091e-01	1.596752e+13	1.086954e+15	1.304064e+14	4.796474e+03	3.024242e+03	1.916085e+03	0	3.008971e-04
4.000000e+07	2.795606e+11	0.000000e+00	3.618091e-01	1.551172e+13	9.688437e+14	1.296881e+14	4.784781e+03	2.958635e+03	1.874518e+03	0	2.979377e-04
5.000000e+07	2.712874e+11	0.000000e+00	3.618091e-01	1.506355e+13	8.720009e+14	1.289751e+14	4.773419e+03	2.900918e+03	1.837950e+03	0	2.949692e-04
6.000000e+07	2.632938e+11	0.000000e+00	3.618091e-01	1.463052e+13	7.914821e+14	1.282675e+14	4.762383e+03	2.849701e+03	1.805500e+03	0	2.920432e-04
7.000000e+07	2.556483e+11	0.000000e+00	3.618091e-01	1.421633e+13	7.237126e+14	1.275651e+14	4.751662e+03	2.803909e+03	1.776488e+03	0	2.891886e-04
8.000000e+07	2.483787e+11	0.000000e+00	3.618091e-01	1.382249e+13	6.660546e+14	1.268680e+14	4.741242e+03	2.762698e+03	1.750377e+03	0	2.864211e-04
9.000000e+07	2.414895e+11	0.000000e+00	3.618091e-01	1.344923e+13	6.165267e+14	1.261760e+14	4.731108e+03	2.725391e+03	1.726740e+03	0	2.837480e-04
1.000000e+08	2.349718e+11	0.000000e+00	3.618091e-01	1.309609e+13	5.736161e+14	1.254892e+14	4.721247e+03	2.691443e+03	1.705232e+03	0	2.811720e-04
1.100000e+08	2.288098e+11	0.000000e+00	3.618091e-01	1.276219e+13	5.361511e+14	1.248074e+14	4.711643e+03	2.660409e+03	1.685569e+03	0	2.786923e-04
1.200000e+08	2.229840e+11	0.000000e+00	3.618091e-01	1.244648e+13	5.032120e+14	1.241307e+14	4.702282e+03	2.631919e+03	1.667519e+03	0	2.763067e-04
1.300000e+08	2.174737e+11	0.000000e+00	3.618091e-01	1.214785e+13	4.740686e+14	1.234591e+14	4.693152e+03	2.605666e+03	1.650886e+03	0	2.740117e-04
1.400000e+08	2.122578e+11	0.000000e+00	3.618091e-01	1.186515e+13	4.481346e+14	1.227924e+14	4.684239e+03	2.581392e+03	1.635506e+03	0	2.718033e-04
1.500000e+08	2.073159e+11	0.000000e+00	3.618091e-01	1.159728e+13	4.249348e+14	1.221306e+14	4.675533e+03	2.558876e+03	1.621240e+03	0	2.696773e-04
1.600000e+08	2.026287e+11	0.000000e+00	3.618091e-01	1.134319e+13	4.040804e+14	1.214737e+14	4.667022e+03	2.537931e+03	1.607970e+03	0	2.676294e-04
1.700000e+08	1.981780e+11	0.000000e+00	3.618091e-01	1.110191e+13	3.852505e+14	1.208217e+14	4.658697e+03	2.518396e+03	1.595594e+03	0	2.656554e-04
1.800000e+08	1.939470e+11	0.000000e+00	3.618091e-01	1.087251e+13	3.681784e+14	1.201744e+14	4.650548e+03	2.500132e+03	1.584022e+03	0	2.637512e-04
1.900000e+08	1.899200e+11	0.000000e+00	3.618091e-01	1.065416e+13	3.526409e+14	1.195320e+14	4.642567e+03	2.483017e+03	1.573178e+03	0	2.619130e-04
2.000000e+08	1.860827e+11	0.000000e+00	3.618091e-01	1.044607e+13	3.384498e+14	1.188942e+14	4.634745e+03	2.466945e+03	1.562996e+03	0	2.601370e-04
2.100000e+08	1.824219e+11	0.000000e+00	3.618091e-01	1.024754e+13	3.254455e+14	1.182612e+14	4.627075e+03	2.451824e+03	1.553415e+03	0	2.584198e-04
2.200000e+08	1.789254e+11	0.000000e+00	3.618091e-01	1.005790e+13	3.134918e+14	1.176328e+14	4.619550e+03	2.437570e+03	1.544384e+03	0	2.567581e-04
2.300000e+08	1.755821e+11	0.000000e+00	3.618091e-01	9.876556e+12	3.024721e+14	1.170090e+14	4.612164e+03	2.424112e+03	1.535857e+03	0	2.551488e-04
2.400000e+08	1.723819e+11	0.000000e+00	3.618091e-01	9.702954e+12	2.922858e+14	1.163898e+14	4.604911e+03	2.411383e+03	1.527793e+03	0	2.535891e-04
2.500000e+08	1.693152e+11	0.000000e+00	3.618091e-01	9.536586e+12	2.828458e+14	1.157751e+14	4.597784e+03	2.399327e+03	1.520154e+03	0	2.520764e-04
2.600000e+08	1.663736e+11	0.000000e+00	3.618091e-01	9.376987e+12	2.740762e+14	1.151649e+14	4.590779e+03	2.387891e+03	1.512908e+03	0	2.506080e-04
2.700000e+08	1.635492e+11	0.000000e+00	3.618091e-01	9.223731e+12	2.659111e+14	1.145592e+14	4.583891e+03	2.377028e+03	1.506026e+03	0	2.491818e-04
2.800000e+08	1.608346e+11	0.000000e+00	3.618091e-01	9.076423e+12	2.582923e+14	1.139579e+14	4.577115e+03	2.366697e+03	1.499481e+03	0	2.477954e-04
2.900000e+08	1.582232e+11	0.000000e+00	3.618091e-01	8.934703e+12	2.511688e+14	1.133610e+14	4.570447e+03	2.356860e+03	1.493249e+03	0	2.464470e-04
3.000000e+08	1.557088e+11	0.000000e+00	3.618091e-01	8.798235e+12	2.444956e+14	1.127684e+14	4.563882e+03	2.347482e+03	1.487307e+03	0	2.451346e-04
3.100000e+08	1.532858e+11	0.000000e+00	3.618091e-01	8.666712e+12	2.382327e+14	1.121802e+14	4.557418e+03	2.338532e+03	1.481636e+03	0	2.438564e-04
3.200000e+08	1.509488e+11	0.000000e+00	3.618091e-01	8.539850e+12	2.323446e+14	1.115963e+14	4.551050e+03	2.329981e+03	1.476219e+03	0	2.426107e-04
3.300000e+08	1.486930e+11	0.000000e+00	3.618091e-01	8.417384e+12	2.267997e+14	1.110165e+14	4.544774e+03	2.321804e+03	1.471037e+03	0	2.413961e-04
3.400000e+08	1.465139e+11	0.000000e+00	3.618091e-01	8.299072e+12	2.215696e+14	1.104410e+14	4.538588e+03	2.313975e+03	1.466077e+03	0	2.402111e-04
3.500000e+08	1.444073e+11	0.000000e+00	3.618091e-01	8.184687e+12	2.166290e+14	1.098697e+14	4.532489e+03	2.306474e+03	1.461325e+03	0	2.390543e-04
3.600000e+08	1.423693e+11	0.000000e+00	3.618091e-01	8.074020e+12	2.119551e+14	1.093025e+14	4.526474e+03	2.299280e+03	1.456767e+03	0	2.379244e-04
3.700000e+08	1.403964e+11	0.000000e+00	3.618091e-01	7.966874e+12	2.075274e+14	1.087395e+14	4.520539e+03	2.292375e+03	1.452392e+03	0	2.368202e-04
3.800000e+08	1.384851e+11	0.000000e+00	3.618091e-01	7.863069e+12	2.033272e+14	1.081804e+14	4.514683e+03	2.285742e+03	1.448190e+03	0	2.357407e-04
3.900000e+08	1.366324e+11	0.000000e+00	3.618091e-01	7.762435e+12	1.993379e+14	1.076255e+14	4.508903e+03	2.279364e+03	1.444149e+03	0	2.346847e-04
4.000000e+08	1.348354e+11	0.000000e+00	3.618091e-01	7.664814e+12	1.955441e+14	1.070745e+14	4.503197e+03	2.273228e+03	1.440261e+03	0	2.336512e-04
4.100000e+08	1.330912e+11	0.000000e+00	3.618091e-01	7.570060e+12	1.919319e+14	1.065276e+14	4.497563e+03	2.267320e+03	1.436518e+03	0	2.326394e-04
4.200000e+08	1.313974e+11	0.000000e+00	3.618091e-01	7.478035e+12	1.884889e+14	1.059845e+14	4.491997e+03	2.261627e+03	1.432911e+03	0	2.316483e-04
4.300000e+08	1.297516e+11	0.000000e+00	3.618091e-01	7.388609e+12	1.852034e+14	1.054454e+14	4.486500e+03	2.256137e+03	1.429433e+03	0	2.306771e-04
4.400000e+08	1.281516e+11	0.000000e+00	3.618091e-01	7.301662e+12	1.820650e+14	1.049101e+14	4.481067e+03	2.250840e+03	1.426077e+03	0	2.297249e-04
4.500000e+08	1.265952e+11	0.000000e+00	3.618091e-01	7.217081e+12	1.790640e+14	1.043787e+14	4.475699e+03	2.245726e+03	1.422836e+03	0	2.287912e-04
4.600000e+08	1.250806e+11	0.000000e+00	3.618091e-01	7.134760e+12	1.761916e+14	1.038512e+14	4.470392e+03	2.240785e+03	1.419706e+03	0	2.278750e-04
4.700000e+08	1.236058e+11	0.000000e+00	3.618091e-01	7.054598e+12	1.734395e+14	1.033273e+14	4.465146e+03	2.236008e+03	1.416679e+03	0	2.269759e-04
4.800000e+08	1.221691e+11	0.000000e+00	3.618091e-01	6.976502e+12	1.708005e+14	1.028073e+14	4.459959e+03	2.231387e+03	1.413751e+03	0	2.260931e-04
4.900000e+08	1.207689e+11	0.000000e+00	3.618091e-01	6.900384e+12	1.682675e+14	1.022910e+14	4.454828e+03	2.226914e+03	1.410918e+03	0	2.252260e-04
5.000000e+08	1.194037e+11	0.000000e+00	3.618091e-01	6.826161e+12	1.658342e+14	1.017783e+14	4.449754e+03	2.222582e+03	1.408173e+03	0	2.243741e-04
5.100000e+08	1.180719e+11	0.000000e+00	3.618091e-01	6.753753e+12	1.634948e+14	1.012694e+14	4.444734e+03	2.218385e+03	1.405514e+03	0	2.235368e-04
5.200000e+08	1.167724e+11	0.000000e+00	3.618091e-01	6.683088e+12	1.612437e+14	1.007640e+14	4.439767e+03	2.214315e+03	1.402935e+03	0	2.227137e-04
5.300000e+08	1.155037e+11	0.000000e+00	3.618091e-01	6.614094e+12	1.590760e+14	1.002623e+14	4.434852e+03	2.210367e+03	1.400434e+03	0	2.219041e-04
5.400000e+08	1.142646e+11	0.000000e+00	3.618091e-01	6.546707e+12	1.569870e+14	9.976413e+13	4.429987e+03	2.206536e+03	1.398007e+03	0	2.211078e-04
5.500000e+08	1.130540e+11	0.000000e+00	3.618091e-01	6.480863e+12	1.549723e+14	9.926951e+13	4.425172e+03	2.202815e+03	1.395649e+03	0	2.203241e-04
5.600000e+08	1.118707e+11	0.000000e+00	3.618091e-01	6.416503e+12	1.530279e+14	9.877841e+13	4.420406e+03	2.199201e+03	1.393359e+03	0	2.195528e-04
5.700000e+08	1.107138e+11	0.000000e+00	3.618091e-01	6.353572e+12	1.511500e+14	9.829079e+13	4.415686e+03	2.195687e+03	1.391133e+03	0	2.187934e-04
5.800000e+08	1.095823e+11	0.000000e+00	3.618091e-01	6.292015e+12	1.493351e+14	9.780664e+13	4.411012e+03	2.192270e+03	1.388968e+03	0	2.180454e-04
5.900000e+08	1.084753e+11	0.000000e+00	3.618091e-01	6.231784e+12	1.475799e+14	9.732592e+13	4.406384e+03	2.188946e+03	1.386862e+03	0	2.173087e-04
6.000000e+08	1.073917e+11	0.000000e+00	3.618091e-01	6.172829e+12	1.458815e+14	9.684860e+13	4.401800e+03	2.185710e+03	1.384812e+03	0	2.165827e-04
6.100000e+08	1.063309e+11	0.000000e+00	3.618091e-01	6.115105e+12	1.442368e+14	9.637465e+13	4.397259e+03	2.182559e+03	1.382816e+03	0	2.158672e-04
6.200000e+08	1.052920e+11	0.000000e+00	3.618091e-01	6.058570e+12	1.426433e+14	9.590406e+13	4.392761e+03	2.179489e+03	1.380871e+03	0	2.151619e-04
6.300000e+08	1.042743e+11	0.000000e+00	3.618091e-01	6.003181e+12	1.410985e+14	9.543679e+13	4.388304e+03	2.176497e+03	1.378975e+03	0	2.144664e-04
6.400000e+08	1.032769e+11	0.000000e+00	3.618091e-01	5.948900e+12	1.395999e+14	9.497281e+13	4.383887e+03	2.173580e+03	1.377127e+03	0	2.137804e-04
6.500000e+08	1.022994e+11	0.000000e+00	3.618091e-01	5.895690e+12	1.381455e+14	9.451210e+13	4.379511e+03	2.170734e+03	1.375323e+03	0	2.131038e-04
6.600000e+08	1.013409e+11	0.000000e+00	3.618091e-01	5.843514e+12	1.367330e+14	9.405464e+13	4.375173e+03	2.167957e+03	1.373564e+03	0	2.124361e-04
6.700000e+08	1.004008e+11	0.000000e+00	3.618091e-01	5.792339e+12	1.353606e+14	9.360039e+13	4.370874e+03	2.165245e+03	1.371846e+03	0	2.117772e-04
6.800000e+08	9.947863e+10	0.000000e+00	3.618091e-01	5.742133e+12	1.340265e+14	9.314933e+13	4.366612e+03	2.162597e+03	1.370168e+03	0	2.111268e-04
6.900000e+08	9.857374e+10	0.000000e+00	3.618091e-01	5.692865e+12	1.327289e+14	9.270143e+13	4.362387e+03	2.160010e+03	1.368529e+03	0	2.104847e-04
7.000000e+08	9.768559e+10	0.000000e+00	3.618091e-01	5.644504e+12	1.314661e+14	9.225668e+13	4.358198e+03	2.157481e+03	1.366927e+03	0	2.098507e-04
7.100000e+08	9.681367e+10	0.000000e+00	3.618091e-01	5.597024e+12	1.302368e+14	9.181503e+13	4.354045e+03	2.155009e+03	1.365360e+03	0	2.092244e-04
7.200000e+08	9.595747e+10	0.000000e+00	3.618091e-01	5.550396e+12	1.290393e+14	9.137648e+13	4.349927e+03	2.152590e+03	1.363828e+03	0	2.086058e-04
7.300000e+08	9.511651e+10	0.000000e+00	3.618091e-01	5.504596e+12	1.278724e+14	9.094099e+13	4.345843e+03	2.150224e+03	1.362329e+03	0	2.079946e-04
7.400000e+08	9.429035e+10	0.000000e+00	3.618091e-01	5.459598e+12	1.267347e+14	9.050854e+13	4.341792e+03	2.147907e+03	1.360861e+03	0	2.073907e-04
7.500000e+08	9.347854e+10	0.000000e+00	3.618091e-01	5.415379e+12	1.256250e+14	9.007911e+13	4.337774e+03	2.145639e+03	1.359424e+03	0	2.067938e-04
7.600000e+08	9.268067e+10	0.000000e+00	3.618091e-01	5.371915e+12	1.245423e+14	8.965267e+13	4.333789e+03	2.143418e+03	1.358017e+03	0	2.062037e-04
7.700000e+08	9.189633e+10	0.000000e+00	3.618091e-01	5.329186e+12	1.234853e+14	8.922919e+13	4.329836e+03	2.141241e+03	1.356638e+03	0	2.056204e-04
7.800000e+08	9.112514e+10	0.000000e+00	3.618091e-01	5.287171e+12	1.224531e+14	8.880866e+13	4.325914e+03	2.139108e+03	1.355286e+03	0	2.050436e-04
7.900000e+08	9.036673e+10	0.000000e+00	3.618091e-01	5.245848e+12	1.214446e+14	8.839105e+13	4.322024e+03	2.137016e+03	1.353961e+03	0	2.044732e-04
8.000000e+08	8.962073e+10	0.000000e+00	3.618091e-01	5.205200e+12	1.204590e+14	8.797633e+13	4.318163e+03	2.134965e+03	1.352661e+03	0	2.039090e-04
8.100000e+08	8.888682e+10	0.000000e+00	3.618091e-01	5.165207e+12	1.194953e+14	8.756449e+13	4.314332e+03	2.132952e+03	1.351386e+03	0	2.033508e-04
8.200000e+08	8.816467e+10	0.000000e+00	3.618091e-01	5.125852e+12	1.185528e+14	8.715550e+13	4.310531e+03	2.130977e+03	1.350134e+03	0	2.027986e-04
8.300000e+08	8.745395e+10	0.000000e+00	3.618091e-01	5.087118e+12	1.176305e+14	8.674933e+13	4.306758e+03	2.129038e+03	1.348906e+03	0	2.022522e-04
8.400000e+08	8.675437e+10	0.000000e+00	3.618091e-01	5.048988e+12	1.167279e+14	8.634598e+13	4.303014e+03	2.127134e+03	1.347699e+03	0	2.017115e-04
8.500000e+08	8.606563e+10	0.000000e+00	3.618091e-01	5.011447e+12	1.158440e+14	8.594540e+13	4.299298e+03	2.125263e+03	1.346514e+03	0	2.011763e-04
8.600000e+08	8.538746e+10	0.000000e+00	3.618091e-01	4.974479e+12	1.149783e+14	8.554759e+13	4.295609e+03	2.123426e+03	1.345350e+03	0	2.006465e-04
8.700000e+08	8.471957e+10	0.000000e+00	3.618091e-01	4.938069e+12	1.141301e+14	8.515251e+13	4.291948e+03	2.121620e+03	1.344206e+03	0	2.001220e-04
8.800000e+08	8.406172e+10	0.000000e+00	3.618091e-01	4.902204e+12	1.132988e+14	8.476015e+13	4.288313e+03	2.119844e+03	1.343081e+03	0	1.996026e-04
8.900000e+08	8.341365e+10	0.000000e+00	3.618091e-01	4.866870e+12	1.124838e+14	8.437049e+13	4.284705e+03	2.118098e+03	1.341975e+03	0	1.990884e-04
9.000000e+08	8.277512e+10	0.000000e+00	3.618091e-01	4.832054e+12	1.116845e+14	8.398350e+13	4.281123e+03	2.116381e+03	1.340886e+03	0	1.985790e-04
9.100000e+08	8.214589e+10	0.000000e+00	3.618091e-01	4.797743e+12	1.109003e+14	8.359917e+13	4.277566e+03	2.114691e+03	1.339816e+03	0	1.980746e-04
9.200000e+08	8.152574e+10	0.000000e+00	3.618091e-01	4.763925e+12	1.101309e+14	8.321746e+13	4.274034e+03	2.113028e+03	1.338762e+03	0	1.975749e-04
9.300000e+08	8.091445e+10	0.000000e+00	3.618091e-01	4.730587e+12	1.093756e+14	8.283837e+13	4.270528e+03	2.111391e+03	1.337725e+03	0	1.970798e-04
9.400000e+08	8.031181e+10	0.000000e+00	3.618091e-01	4.697720e+12	1.086340e+14	8.246187e+13	4.267045e+03	2.109779e+03	1.336704e+03	0	1.965893e-04
9.500000e+08	7.971763e+10	0.000000e+00	3.618091e-01	4.665311e+12	1.079056e+14	8.208794e+13	4.263587e+03	2.108191e+03	1.335698e+03	0	1.961033e-04
9.600000e+08	7.913169e+10	0.000000e+00	3.618091e-01	4.633351e+12	1.071901e+14	8.171656e+13	4.260153e+03	2.106627e+03	1.334707e+03	0	1.956217e-04
9.700000e+08	7.855382e+10	0.000000e+00	3.618091e-01	4.601828e+12	1.064869e+14	8.134771e+13	4.256742e+03	2.105086e+03	1.333731e+03	0	1.951443e-04
9.800000e+08	7.798383e+10	0.000000e+00	3.618091e-01	4.570733e+12	1.057958e+14	8.098136e+13	4.253354e+03	2.103568e+03	1.332769e+03	0	1.946712e-04
9.900000e+08	7.742154e+10	0.000000e+00	3.618091e-01	4.540057e+12	1.051164e+14	8.061751e+13	4.249990e+03	2.102070e+03	1.331820e+03	0	1.942022e-04
1.000000e+09	7.686678e+10	0.000000e+00	3.618091e-01	4.509789e+12	1.044482e+14	8.025613e+13	4.246647e+03	2.100594e+03	1.330885e+03	0	1.937372e-04
1.010000e+09	7.631939e+10	0.000000e+00	3.618091e-01	4.479921e+12	1.037910e+14	7.989720e+13	4.243327e+03	2.099138e+03	1.329962e+03	0	1.932762e-04
1.020000e+09	7.577920e+10	0.000000e+00	3.618091e-01	4.450445e+12	1.031443e+14	7.954070e+13	4.240029e+03	2.097702e+03	1.329052e+03	0	1.928191e-04
1.030000e+09	7.524606e+10	0.000000e+00	3.618091e-01	4.421351e+12	1.025080e+14	7.918661e+13	4.236752e+03	2.096285e+03	1.328154e+03	0	1.923659e-04
1.040000e+09	7.471982e+10	0.000000e+00	3.618091e-01	4.392633e+12	1.018817e+14	7.883492e+13	4.233497e+03	2.094886e+03	1.327268e+03	0	1.919164e-04
1.050000e+09	7.420032e+10	0.000000e+00	3.618091e-01	4.364280e+12	1.012650e+14	7.848560e+13	4.230263e+03	2.093505e+03	1.326393e+03	0	1.914706e-04
1.060000e+09	7.368744e+10	0.000000e+00	3.618091e-01	4.336287e+12	1.006577e+14	7.813863e+13	4.227050e+03	2.092142e+03	1.325530e+03	0	1.910284e-04
1.070000e+09	7.318103e+10	0.000000e+00	3.618091e-01	4.308646e+12	1.000597e+14	7.779401e+13	4.223858e+03	2.090796e+03	1.324677e+03	0	1.905898e-04
1.080000e+09	7.268096e+10	0.000000e+00	3.618091e-01	4.281349e+12	9.947044e+13	7.745170e+13	4.220685e+03	2.089467e+03	1.323835e+03	0	1.901547e-04
1.090000e+09	7.218710e+10	0.000000e+00	3.618091e-01	4.254389e+12	9.888987e+13	7.711169e+13	4.217533e+03	2.088154e+03	1.323003e+03	0	1.897230e-04
1.100000e+09	7.169932e+10	0.000000e+00	3.618091e-01	4.227760e+12	9.831770e+13	7.677397e+13	4.214401e+03	2.086856e+03	1.322181e+03	0	1.892947e-04
1.110000e+09	7.121751e+10	0.000000e+00	3.618091e-01	4.201454e+12	9.775370e+13	7.643851e+13	4.211288e+03	2.085574e+03	1.321368e+03	0	1.888698e-04
1.120000e+09	7.074154e+10	0.000000e+00	3.618091e-01	4.175467e+12	9.719765e+13	7.610530e+13	4.208194e+03	2.084307e+03	1.320565e+03	0	1.884481e-04
1.130000e+09	7.027130e+10	0.000000e+00	3.618091e-01	4.149790e+12	9.664934e+13	7.577432e+13	4.205120e+03	2.083054e+03	1.319772e+03	0	1.880296e-04
1.140000e+09	6.980668e+10	0.000000e+00	3.618091e-01	4.124419e+12	9.610857e+13	7.544555e+13	4.202064e+03	2.081815e+03	1.318987e+03	0	1.876142e-04
1.150000e+09	6.934756e+10	0.000000e+00	3.618091e-01	4.099347e+12	9.557514e+13	7.511898e+13	4.199027e+03	2.080590e+03	1.318210e+03	0	1.872020e-04
1.160000e+09	6.889385e+10	0.000000e+00	3.618091e-01	4.074569e+12	9.504885e+13	7.479459e+13	4.196009e+03	2.079378e+03	1.317443e+03	0	1.867929e-04
1.170000e+09	6.844544e+10	0.000000e+00	3.618091e-01	4.050079e+12	9.452953e+13	7.447235e+13	4.193008e+03	2.078179e+03	1.316683e+03	0	1.863867e-04
1.180000e+09	6.800224e+10	0.000000e+00	3.618091e-01	4.025871e+12	9.401701e+13	7.415226e+13	4.190026e+03	2.076993e+03	1.315932e+03	0	1.859836e-04
1.190000e+09	6.756413e+10	0.000000e+00	3.618091e-01	4.001941e+12	9.351110e+13	7.383430e+13	4.187061e+03	2.075820e+03	1.315188e+03	0	1.855833e-04
1.200000e+09	6.713104e+10	0.000000e+00	3.618091e-01	3.978283e+12	9.301165e+13	7.351845e+13	4.184114e+03	2.074658e+03	1.314452e+03	0	1.851859e-04
1.210000e+09	6.670287e+10	0.000000e+00	3.618091e-01	3.954893e+12	9.251851e+13	7.320470e+13	4.181185e+03	2.073508e+03	1.313724e+03	0	1.847914e-04
1.220000e+09	6.627952e+10	0.000000e+00	3.618091e-01	3.931765e+12	9.203151e+13	7.289302e+13	4.178273e+03	2.072370e+03	1.313002e+03	0	1.843996e-04
1.230000e+09	6.586091e+10	0.000000e+00	3.618091e-01	3.908895e+12	9.155052e+13	7.258340e+13	4.175377e+03	2.071243e+03	1.312288e+03	0	1.840106e-04
1.240000e+09	6.544697e+10	0.000000e+00	3.618091e-01	3.886278e+12	9.107538e+13	7.227583e+13	4.172499e+03	2.070127e+03	1.311581e+03	0	1.836242e-04
1.250000e+09	6.503759e+10	0.000000e+00	3.618091e-01	3.863909e+12	9.060597e+13	7.197029e+13	4.169637e+03	2.069021e+03	1.310881e+03	0	1.832406e-04
1.260000e+09	6.463271e+10	0.000000e+00	3.618091e-01	3.841785e+12	9.014216e+13	7.166677e+13	4.166791e+03	2.067926e+03	1.310187e+03	0	1.828595e-04
1.270000e+09	6.423225e+10	0.000000e+00	3.618091e-01	3.819901e+12	8.968380e+13	7.136525e+13	4.163962e+03	2.066841e+03	1.309499e+03	0	1.824811e-04
1.280000e+09	6.383612e+10	0.000000e+00	3.618091e-01	3.798253e+12	8.923079e+13	7.106570e+13	4.161149e+03	2.065766e+03	1.308818e+03	0	1.821052e-04
1.290000e+09	6.344426e+10	0.000000e+00	3.618091e-01	3.776836e+12	8.878300e+13	7.076813e+13	4.158352e+03	2.064701e+03	1.308143e+03	0	1.817318e-04
1.300000e+09	6.305659e+10	0.000000e+00	3.618091e-01	3.755648e+12	8.834032e+13	7.047251e+13	4.155570e+03	2.063645e+03	1.307474e+03	0	1.813609e-04
1.310000e+09	6.267305e+10	0.000000e+00	3.618091e-01	3.734684e+12	8.790263e+13	7.017883e+13	4.152804e+03	2.062598e+03	1.306811e+03	0	1.809924e-04
1.320000e+09	6.229355e+10	0.000000e+00	3.618091e-01	3.713939e+12	8.746983e+13	6.988707e+13	4.150054e+03	2.061561e+03	1.306154e+03	0	1.806264e-04
1.330000e+09	6.191804e+10	0.000000e+00	3.618091e-01	3.693412e+12	8.704182e+13	6.959722e+13	4.147318e+03	2.060532e+03	1.305502e+03	0	1.802627e-04
1.340000e+09	6.154644e+10	0.000000e+00	3.618091e-01	3.673098e+12	8.661848e+13	6.930927e+13	4.144598e+03	2.059512e+03	1.304856e+03	0	1.799014e-04
1.350000e+09	6.117870e+10	0.000000e+00	3.618091e-01	3.652993e+12	8.619974e+13	6.902319e+13	4.141893e+03	2.058501e+03	1.304215e+03	0	1.795423e-04
1.360000e+09	6.081475e+10	0.000000e+00	3.618091e-01	3.633094e+12	8.578548e+13	6.873898e+13	4.139203e+03	2.057497e+03	1.303580e+03	0	1.791856e-04
