#t		Qconv[W]	Ri[Rp]		R*[Rp]		Qc[W]		Qm[W]		Qr[W]		Tcmb[K]		Tl[K]		Tup[K]		RiFlag		Bs[T]
0.000000e+00	4.232828e+11	0.000000e+00	3.618089e-01	2.153617e+13	1.846122e+15	1.491034e+14	5.126261e+03	3.428152e+03	2.111233e+03	0	3.390960e-04
1.000000e+07	4.134394e+11	0.000000e+00	3.618089e-01	2.104653e+13	1.588288e+15	1.482773e+14	5.112447e+03	3.324706e+03	2.047525e+03	0	3.364468e-04
2.000000e+07	4.021538e+11	0.000000e+00	3.618089e-01	2.048539e+13	1.386942e+15	1.474573e+14	5.098943e+03	3.236465e+03	1.993181e+03	0	3.333572e-04
3.000000e+07	3.903801e+11	0.000000e+00	3.618089e-01	1.990010e+13	1.226460e+15	1.466435e+14	5.085795e+03	3.160198e+03	1.946213e+03	0	3.300718e-04
4.000000e+07	3.786381e+11	0.000000e+00	3.618089e-01	1.931641e+13	1.096277e+15	1.458357e+14	5.073018e+03	3.093543e+03	1.905163e+03	0	3.267287e-04
5.000000e+07	3.672064e+11	0.000000e+00	3.618089e-01	1.874815e+13	9.890455e+14	1.450340e+14	5.060614e+03	3.034728e+03	1.868941e+03	0	3.234069e-04
6.000000e+07	3.562279e+11	0.000000e+00	3.618089e-01	1.820240e+13	8.995342e+14	1.442382e+14	5.048571e+03	2.982400e+03	1.836715e+03	0	3.201512e-04
7.000000e+07	3.457675e+11	0.000000e+00	3.618089e-01	1.768239e+13	8.239324e+14	1.434484e+14	5.036876e+03	2.935505e+03	1.807835e+03	0	3.169863e-04
8.000000e+07	3.358457e+11	0.000000e+00	3.618089e-01	1.718912e+13	7.594120e+14	1.426644e+14	5.025512e+03	2.893213e+03	1.781789e+03	0	3.139249e-04
9.000000e+07	3.264578e+11	0.000000e+00	3.618089e-01	1.672237e+13	7.038366e+14	1.418863e+14	5.014464e+03	2.854856e+03	1.758167e+03	0	3.109722e-04
1.000000e+08	3.175850e+11	0.000000e+00	3.618089e-01	1.628119e+13	6.555679e+14	1.411139e+14	5.003713e+03	2.819893e+03	1.736635e+03	0	3.081289e-04
1.100000e+08	3.092015e+11	0.000000e+00	3.618089e-01	1.586431e+13	6.133311e+14	1.403473e+14	4.993245e+03	2.787880e+03	1.716920e+03	0	3.053934e-04
1.200000e+08	3.012781e+11	0.000000e+00	3.618089e-01	1.547027e+13	5.761222e+14	1.395864e+14	4.983043e+03	2.758449e+03	1.698795e+03	0	3.027622e-04
1.300000e+08	2.937847e+11	0.000000e+00	3.618089e-01	1.509759e+13	5.431408e+14	1.388311e+14	4.973093e+03	2.731293e+03	1.682071e+03	0	3.002310e-04
1.400000e+08	2.866918e+11	0.000000e+00	3.618089e-01	1.474479e+13	5.137426e+14	1.380813e+14	4.963381e+03	2.706152e+03	1.666587e+03	0	2.977951e-04
1.500000e+08	2.799711e+11	0.000000e+00	3.618089e-01	1.441048e+13	4.874037e+14	1.373372e+14	4.953895e+03	2.682805e+03	1.652209e+03	0	2.954497e-04
1.600000e+08	2.735958e+11	0.000000e+00	3.618089e-01	1.409332e+13	4.636941e+14	1.365985e+14	4.944623e+03	2.661063e+03	1.638820e+03	0	2.931899e-04
1.700000e+08	2.675411e+11	0.000000e+00	3.618089e-01	1.379208e+13	4.422584e+14	1.358653e+14	4.935554e+03	2.640764e+03	1.626318e+03	0	2.910110e-04
1.800000e+08	2.617841e+11	0.000000e+00	3.618089e-01	1.350563e+13	4.228005e+14	1.351375e+14	4.926678e+03	2.621767e+03	1.614619e+03	0	2.889085e-04
1.900000e+08	2.563034e+11	0.000000e+00	3.618089e-01	1.323290e+13	4.050719e+14	1.344150e+14	4.917985e+03	2.603948e+03	1.603645e+03	0	2.868780e-04
2.000000e+08	2.510797e+11	0.000000e+00	3.618089e-01	1.297293e+13	3.888627e+14	1.336979e+14	4.909467e+03	2.587201e+03	1.593331e+03	0	2.849157e-04
2.100000e+08	2.460950e+11	0.000000e+00	3.618089e-01	1.272483e+13	3.739946e+14	1.329860e+14	4.901115e+03	2.571430e+03	1.583619e+03	0	2.830176e-04
2.200000e+08	2.413329e+11	0.000000e+00	3.618089e-01	1.248779e+13	3.603155e+14	1.322793e+14	4.892923e+03	2.556552e+03	1.574456e+03	0	2.811802e-04
2.300000e+08	2.367784e+11	0.000000e+00	3.618089e-01	1.226106e+13	3.476943e+14	1.315779e+14	4.884882e+03	2.542493e+03	1.565798e+03	0	2.794001e-04
2.400000e+08	2.324178e+11	0.000000e+00	3.618089e-01	1.204396e+13	3.360183e+14	1.308816e+14	4.876987e+03	2.529187e+03	1.557603e+03	0	2.776742e-04
2.500000e+08	2.282383e+11	0.000000e+00	3.618089e-01	1.183586e+13	3.251897e+14	1.301904e+14	4.869231e+03	2.516574e+03	1.549836e+03	0	2.759997e-04
2.600000e+08	2.242285e+11	0.000000e+00	3.618089e-01	1.163619e+13	3.151230e+14	1.295042e+14	4.861608e+03	2.504602e+03	1.542463e+03	0	2.743739e-04
2.700000e+08	2.203776e+11	0.000000e+00	3.618089e-01	1.144441e+13	3.057439e+14	1.288231e+14	4.854114e+03	2.493222e+03	1.535455e+03	0	2.727941e-04
2.800000e+08	2.166758e+11	0.000000e+00	3.618089e-01	1.126004e+13	2.969869e+14	1.281469e+14	4.846742e+03	2.482393e+03	1.528785e+03	0	2.712580e-04
2.900000e+08	2.131141e+11	0.000000e+00	3.618089e-01	1.108264e+13	2.887943e+14	1.274757e+14	4.839489e+03	2.472074e+03	1.522430e+03	0	2.697635e-04
3.000000e+08	2.096842e+11	0.000000e+00	3.618089e-01	1.091178e+13	2.811152e+14	1.268094e+14	4.832350e+03	2.462231e+03	1.516368e+03	0	2.683085e-04
3.100000e+08	2.063784e+11	0.000000e+00	3.618089e-01	1.074708e+13	2.739045e+14	1.261479e+14	4.825320e+03	2.452831e+03	1.510579e+03	0	2.668910e-04
3.200000e+08	2.031896e+11	0.000000e+00	3.618089e-01	1.058820e+13	2.671218e+14	1.254912e+14	4.818396e+03	2.443845e+03	1.505045e+03	0	2.655092e-04
3.300000e+08	2.001112e+11	0.000000e+00	3.618089e-01	1.043481e+13	2.607314e+14	1.248393e+14	4.811574e+03	2.435246e+03	1.499750e+03	0	2.641616e-04
3.400000e+08	1.971371e+11	0.000000e+00	3.618089e-01	1.028660e+13	2.547012e+14	1.241922e+14	4.804850e+03	2.427010e+03	1.494678e+03	0	2.628464e-04
3.500000e+08	1.942618e+11	0.000000e+00	3.618089e-01	1.014330e+13	2.490022e+14	1.235497e+14	4.798222e+03	2.419115e+03	1.489815e+03	0	2.615622e-04
3.600000e+08	1.914798e+11	0.000000e+00	3.618089e-01	1.000464e+13	2.436087e+14	1.229119e+14	4.791685e+03	2.411538e+03	1.485149e+03	0	2.603076e-04
3.700000e+08	1.887865e+11	0.000000e+00	3.618089e-01	9.870377e+12	2.384972e+14	1.222787e+14	4.785238e+03	2.404263e+03	1.480669e+03	0	2.590813e-04
3.800000e+08	1.861772e+11	0.000000e+00	3.618089e-01	9.740296e+12	2.336467e+14	1.216501e+14	4.778876e+03	2.397270e+03	1.476362e+03	0	2.578822e-04
3.900000e+08	1.836476e+11	0.000000e+00	3.618089e-01	9.614180e+12	2.290380e+14	1.210260e+14	4.772599e+03	2.390543e+03	1.472219e+03	0	2.567089e-04
4.000000e+08	1.811940e+11	0.000000e+00	3.618089e-01	9.491835e+12	2.246538e+14	1.204065e+14	4.766402e+03	2.384068e+03	1.468232e+03	0	2.555605e-04
4.100000e+08	1.788124e+11	0.000000e+00	3.618089e-01	9.373078e+12	2.204783e+14	1.197914e+14	4.760284e+03	2.377830e+03	1.464390e+03	0	2.544359e-04
4.200000e+08	1.764997e+11	0.000000e+00	3.618089e-01	9.257737e+12	2.164970e+14	1.191807e+14	4.754242e+03	2.371817e+03	1.460687e+03	0	2.533342e-04
4.300000e+08	1.742524e+11	0.000000e+00	3.618089e-01	9.145651e+12	2.126968e+14	1.185745e+14	4.748274e+03	2.366017e+03	1.457115e+03	0	2.522544e-04
4.400000e+08	1.720675e+11	0.000000e+00	3.618089e-01	9.036671e+12	2.090658e+14	1.179726e+14	4.742378e+03	2.360417e+03	1.453666e+03	0	2.511957e-04
4.500000e+08	1.699424e+11	0.000000e+00	3.618089e-01	8.930657e+12	2.055929e+14	1.173750e+14	4.736553e+03	2.355009e+03	1.450335e+03	0	2.501572e-04
4.600000e+08	1.678741e+11	0.000000e+00	3.618089e-01	8.827474e+12	2.022680e+14	1.167818e+14	4.730795e+03	2.349781e+03	1.447116e+03	0	2.491383e-04
4.700000e+08	1.658604e+11	0.000000e+00	3.618089e-01	8.727000e+12	1.990817e+14	1.161927e+14	4.725104e+03	2.344725e+03	1.444002e+03	0	2.481381e-04
4.800000e+08	1.638987e+11	0.000000e+00	3.618089e-01	8.629118e+12	1.960257e+14	1.156079e+14	4.719477e+03	2.339832e+03	1.440989e+03	0	2.471559e-04
4.900000e+08	1.619870e+11	0.000000e+00	3.618089e-01	8.533716e+12	1.930918e+14	1.150273e+14	4.713913e+03	2.335095e+03	1.438071e+03	0	2.461912e-04
5.000000e+08	1.601230e+11	0.000000e+00	3.618089e-01	8.440692e+12	1.902730e+14	1.144509e+14	4.708411e+03	2.330505e+03	1.435245e+03	0	2.452433e-04
5.100000e+08	1.583049e+11	0.000000e+00	3.618089e-01	8.349948e+12	1.875624e+14	1.138785e+14	4.702968e+03	2.326056e+03	1.432505e+03	0	2.443115e-04
5.200000e+08	1.565308e+11	0.000000e+00	3.618089e-01	8.261390e+12	1.849538e+14	1.133102e+14	4.697584e+03	2.321741e+03	1.429848e+03	0	2.433954e-04
5.300000e+08	1.547989e+11	0.000000e+00	3.618089e-01	8.174933e+12	1.824414e+14	1.127460e+14	4.692256e+03	2.317554e+03	1.427269e+03	0	2.424944e-04
5.400000e+08	1.531076e+11	0.000000e+00	3.618089e-01	8.090493e+12	1.800199e+14	1.121858e+14	4.686984e+03	2.313489e+03	1.424766e+03	0	2.416080e-04
5.500000e+08	1.514552e+11	0.000000e+00	3.618089e-01	8.007993e+12	1.776843e+14	1.116296e+14	4.681767e+03	2.309541e+03	1.422334e+03	0	2.407357e-04
5.600000e+08	1.498403e+11	0.000000e+00	3.618089e-01	7.927357e+12	1.754298e+14	1.110774e+14	4.676602e+03	2.305703e+03	1.419971e+03	0	2.398771e-04
5.700000e+08	1.482616e+11	0.000000e+00	3.618089e-01	7.848517e+12	1.732523e+14	1.105291e+14	4.671489e+03	2.301972e+03	1.417673e+03	0	2.390316e-04
5.800000e+08	1.467175e+11	0.000000e+00	3.618089e-01	7.771406e+12	1.711477e+14	1.099846e+14	4.666427e+03	2.298343e+03	1.415438e+03	0	2.381990e-04
5.900000e+08	1.452070e+11	0.000000e+00	3.618089e-01	7.695960e+12	1.691121e+14	1.094441e+14	4.661415e+03	2.294811e+03	1.413263e+03	0	2.373787e-04
6.000000e+08	1.437287e+11	0.000000e+00	3.618089e-01	7.622120e+12	1.671422e+14	1.089073e+14	4.656451e+03	2.291372e+03	1.411145e+03	0	2.365704e-04
6.100000e+08	1.422816e+11	0.000000e+00	3.618089e-01	7.549829e+12	1.652346e+14	1.083744e+14	4.651535e+03	2.288022e+03	1.409082e+03	0	2.357737e-04
6.200000e+08	1.408645e+11	0.000000e+00	3.618089e-01	7.479033e+12	1.633862e+14	1.078452e+14	4.646665e+03	2.284758e+03	1.407072e+03	0	2.349884e-04
6.300000e+08	1.394764e+11	0.000000e+00	3.618089e-01	7.409679e+12	1.615941e+14	1.073197e+14	4.641841e+03	2.281576e+03	1.405112e+03	0	2.342139e-04
6.400000e+08	1.381163e+11	0.000000e+00	3.618089e-01	7.341720e+12	1.598557e+14	1.067980e+14	4.637061e+03	2.278473e+03	1.403201e+03	0	2.334501e-04
6.500000e+08	1.367833e+11	0.000000e+00	3.618089e-01	7.275107e+12	1.581684e+14	1.062799e+14	4.632325e+03	2.275445e+03	1.401336e+03	0	2.326967e-04
6.600000e+08	1.354764e+11	0.000000e+00	3.618089e-01	7.209797e+12	1.565298e+14	1.057655e+14	4.627632e+03	2.272489e+03	1.399516e+03	0	2.319532e-04
6.700000e+08	1.341949e+11	0.000000e+00	3.618089e-01	7.145747e+12	1.549377e+14	1.052547e+14	4.622981e+03	2.269603e+03	1.397738e+03	0	2.312195e-04
6.800000e+08	1.329379e+11	0.000000e+00	3.618089e-01	7.082917e+12	1.533899e+14	1.047474e+14	4.618371e+03	2.266784e+03	1.396002e+03	0	2.304953e-04
6.900000e+08	1.317045e+11	0.000000e+00	3.618089e-01	7.021267e+12	1.518845e+14	1.042438e+14	4.613801e+03	2.264029e+03	1.394306e+03	0	2.297803e-04
7.000000e+08	1.304942e+11	0.000000e+00	3.618089e-01	6.960761e+12	1.504196e+14	1.037436e+14	4.609271e+03	2.261336e+03	1.392647e+03	0	2.290742e-04
7.100000e+08	1.293061e+11	0.000000e+00	3.618089e-01	6.901363e+12	1.489934e+14	1.032470e+14	4.604780e+03	2.258703e+03	1.391025e+03	0	2.283769e-04
7.200000e+08	1.281396e+11	0.000000e+00	3.618089e-01	6.843039e+12	1.476043e+14	1.027539e+14	4.600328e+03	2.256127e+03	1.389439e+03	0	2.276881e-04
7.300000e+08	1.269940e+11	0.000000e+00	3.618089e-01	6.785757e+12	1.462507e+14	1.022641e+14	4.595912e+03	2.253605e+03	1.387886e+03	0	2.270075e-04
7.400000e+08	1.258688e+11	0.000000e+00	3.618089e-01	6.729486e+12	1.449310e+14	1.017778e+14	4.591534e+03	2.251137e+03	1.386366e+03	0	2.263351e-04
7.500000e+08	1.247632e+11	0.000000e+00	3.618089e-01	6.674196e+12	1.436439e+14	1.012949e+14	4.587192e+03	2.248721e+03	1.384878e+03	0	2.256704e-04
7.600000e+08	1.236768e+11	0.000000e+00	3.618089e-01	6.619857e+12	1.423881e+14	1.008154e+14	4.582886e+03	2.246353e+03	1.383420e+03	0	2.250135e-04
7.700000e+08	1.226089e+11	0.000000e+00	3.618089e-01	6.566444e+12	1.411623e+14	1.003392e+14	4.578614e+03	2.244033e+03	1.381991e+03	0	2.243640e-04
7.800000e+08	1.215591e+11	0.000000e+00	3.618089e-01	6.513930e+12	1.399652e+14	9.986631e+13	4.574377e+03	2.241759e+03	1.380590e+03	0	2.237218e-04
7.900000e+08	1.205268e+11	0.000000e+00	3.618089e-01	6.462289e+12	1.387958e+14	9.939670e+13	4.570174e+03	2.239529e+03	1.379217e+03	0	2.230867e-04
8.000000e+08	1.195116e+11	0.000000e+00	3.618089e-01	6.411498e+12	1.376529e+14	9.893034e+13	4.566003e+03	2.237342e+03	1.377870e+03	0	2.224586e-04
8.100000e+08	1.185129e+11	0.000000e+00	3.618089e-01	6.361532e+12	1.365356e+14	9.846722e+13	4.561866e+03	2.235196e+03	1.376549e+03	0	2.218372e-04
8.200000e+08	1.175304e+11	0.000000e+00	3.618089e-01	6.312370e+12	1.354429e+14	9.800731e+13	4.557761e+03	2.233090e+03	1.375251e+03	0	2.212225e-04
8.300000e+08	1.165636e+11	0.000000e+00	3.618089e-01	6.263990e+12	1.343738e+14	9.755057e+13	4.553687e+03	2.231022e+03	1.373978e+03	0	2.206142e-04
8.400000e+08	1.156121e+11	0.000000e+00	3.618089e-01	6.216372e+12	1.333275e+14	9.709699e+13	4.549645e+03	2.228992e+03	1.372728e+03	0	2.200123e-04
8.500000e+08	1.146755e+11	0.000000e+00	3.618089e-01	6.169495e+12	1.323032e+14	9.664654e+13	4.545633e+03	2.226997e+03	1.371499e+03	0	2.194165e-04
8.600000e+08	1.137533e+11	0.000000e+00	3.618089e-01	6.123341e+12	1.313000e+14	9.619920e+13	4.541651e+03	2.225037e+03	1.370292e+03	0	2.188268e-04
8.700000e+08	1.128453e+11	0.000000e+00	3.618089e-01	6.077890e+12	1.303171e+14	9.575493e+13	4.537699e+03	2.223111e+03	1.369106e+03	0	2.182430e-04
8.800000e+08	1.119511e+11	0.000000e+00	3.618089e-01	6.033126e+12	1.293540e+14	9.531372e+13	4.533777e+03	2.221217e+03	1.367940e+03	0	2.176650e-04
8.900000e+08	1.110703e+11	0.000000e+00	3.618089e-01	5.989030e+12	1.284098e+14	9.487554e+13	4.529883e+03	2.219355e+03	1.366793e+03	0	2.170927e-04
9.000000e+08	1.102026e+11	0.000000e+00	3.618089e-01	5.945587e+12	1.274839e+14	9.444037e+13	4.526018e+03	2.217523e+03	1.365665e+03	0	2.165259e-04
9.100000e+08	1.093477e+11	0.000000e+00	3.618089e-01	5.902780e+12	1.265757e+14	9.400818e+13	4.522180e+03	2.215721e+03	1.364555e+03	0	2.159645e-04
9.200000e+08	1.085052e+11	0.000000e+00	3.618089e-01	5.860594e+12	1.256847e+14	9.357895e+13	4.518370e+03	2.213948e+03	1.363463e+03	0	2.154084e-04
9.300000e+08	1.076749e+11	0.000000e+00	3.618089e-01	5.819014e+12	1.248101e+14	9.315266e+13	4.514587e+03	2.212202e+03	1.362388e+03	0	2.148575e-04
9.400000e+08	1.068564e+11	0.000000e+00	3.618089e-01	5.778026e+12	1.239515e+14	9.272928e+13	4.510832e+03	2.210483e+03	1.361329e+03	0	2.143118e-04
9.500000e+08	1.060496e+11	0.000000e+00	3.618089e-01	5.737615e+12	1.231084e+14	9.230879e+13	4.507102e+03	2.208790e+03	1.360286e+03	0	2.137710e-04
9.600000e+08	1.052541e+11	0.000000e+00	3.618089e-01	5.697769e+12	1.222803e+14	9.189116e+13	4.503398e+03	2.207122e+03	1.359259e+03	0	2.132351e-04
9.700000e+08	1.044696e+11	0.000000e+00	3.618089e-01	5.658475e+12	1.214666e+14	9.147639e+13	4.499721e+03	2.205479e+03	1.358247e+03	0	2.127041e-04
9.800000e+08	1.036960e+11	0.000000e+00	3.618089e-01	5.619719e+12	1.206669e+14	9.106443e+13	4.496068e+03	2.203859e+03	1.357250e+03	0	2.121777e-04
9.900000e+08	1.029329e+11	0.000000e+00	3.618089e-01	5.581491e+12	1.198809e+14	9.065527e+13	4.492440e+03	2.202263e+03	1.356267e+03	0	2.116560e-04
1.000000e+09	1.021801e+11	0.000000e+00	3.618089e-01	5.543777e+12	1.191080e+14	9.024889e+13	4.488838e+03	2.200688e+03	1.355297e+03	0	2.111388e-04
1.010000e+09	1.014375e+11	0.000000e+00	3.618089e-01	5.506567e+12	1.183478e+14	8.984527e+13	4.485259e+03	2.199136e+03	1.354341e+03	0	2.106260e-04
1.020000e+09	1.007048e+11	0.000000e+00	3.618089e-01	5.469849e+12	1.176001e+14	8.944438e+13	4.481704e+03	2.197605e+03	1.353398e+03	0	2.101176e-04
1.030000e+09	9.998166e+10	0.000000e+00	3.618089e-01	5.433614e+12	1.168644e+14	8.904621e+13	4.478173e+03	2.196094e+03	1.352468e+03	0	2.096135e-04
1.040000e+09	9.926803e+10	0.000000e+00	3.618089e-01	5.397850e+12	1.161403e+14	8.865073e+13	4.474665e+03	2.194603e+03	1.351549e+03	0	2.091136e-04
1.050000e+09	9.856366e+10	0.000000e+00	3.618089e-01	5.362548e+12	1.154275e+14	8.825791e+13	4.471181e+03	2.193132e+03	1.350643e+03	0	2.086178e-04
1.060000e+09	9.786836e+10	0.000000e+00	3.618089e-01	5.327697e+12	1.147258e+14	8.786775e+13	4.467719e+03	2.191679e+03	1.349749e+03	0	2.081261e-04
1.070000e+09	9.718193e+10	0.000000e+00	3.618089e-01	5.293290e+12	1.140347e+14	8.748021e+13	4.464279e+03	2.190244e+03	1.348865e+03	0	2.076384e-04
1.080000e+09	9.650419e+10	0.000000e+00	3.618089e-01	5.259315e+12	1.133540e+14	8.709528e+13	4.460862e+03	2.188828e+03	1.347993e+03	0	2.071546e-04
1.090000e+09	9.583496e+10	0.000000e+00	3.618089e-01	5.225765e+12	1.126834e+14	8.671294e+13	4.457466e+03	2.187428e+03	1.347131e+03	0	2.066746e-04
1.100000e+09	9.517407e+10	0.000000e+00	3.618089e-01	5.192631e+12	1.120226e+14	8.633317e+13	4.454093e+03	2.186046e+03	1.346280e+03	0	2.061984e-04
1.110000e+09	9.452136e+10	0.000000e+00	3.618089e-01	5.159905e+12	1.113713e+14	8.595594e+13	4.450740e+03	2.184680e+03	1.345438e+03	0	2.057260e-04
1.120000e+09	9.387665e+10	0.000000e+00	3.618089e-01	5.127578e+12	1.107294e+14	8.558125e+13	4.447409e+03	2.183330e+03	1.344607e+03	0	2.052572e-04
1.130000e+09	9.323980e+10	0.000000e+00	3.618089e-01	5.095643e+12	1.100965e+14	8.520905e+13	4.444098e+03	2.181995e+03	1.343785e+03	0	2.047920e-04
1.140000e+09	9.261064e+10	0.000000e+00	3.618089e-01	5.064091e+12	1.094723e+14	8.483935e+13	4.440808e+03	2.180676e+03	1.342972e+03	0	2.043303e-04
1.150000e+09	9.198903e+10	0.000000e+00	3.618089e-01	5.032916e+12	1.088568e+14	8.447212e+13	4.437539e+03	2.179371e+03	1.342169e+03	0	2.038721e-04
1.160000e+09	9.137483e+10	0.000000e+00	3.618089e-01	5.002110e+12	1.082496e+14	8.410733e+13	4.434289e+03	2.178081e+03	1.341374e+03	0	2.034174e-04
1.170000e+09	9.076788e+10	0.000000e+00	3.618089e-01	4.971667e+12	1.076505e+14	8.374498e+13	4.431059e+03	2.176805e+03	1.340588e+03	0	2.029660e-04
1.180000e+09	9.016806e+10	0.000000e+00	3.618089e-01	4.941579e+12	1.070594e+14	8.338503e+13	4.427849e+03	2.175542e+03	1.339811e+03	0	2.025179e-04
1.190000e+09	8.957523e+10	0.000000e+00	3.618089e-01	4.911839e+12	1.064760e+14	8.302748e+13	4.424659e+03	2.174293e+03	1.339041e+03	0	2.020731e-04
1.200000e+09	8.898925e+10	0.000000e+00	3.618089e-01	4.882442e+12	1.059001e+14	8.267230e+13	4.421487e+03	2.173056e+03	1.338280e+03	0	2.016315e-04
1.210000e+09	8.841002e+10	0.000000e+00	3.618089e-01	4.853381e+12	1.053316e+14	8.231948e+13	4.418334e+03	2.171833e+03	1.337526e+03	0	2.011931e-04
1.220000e+09	8.783739e+10	0.000000e+00	3.618089e-01	4.824649e+12	1.047703e+14	8.196899e+13	4.415201e+03	2.170621e+03	1.336780e+03	0	2.007577e-04
1.230000e+09	8.727125e+10	0.000000e+00	3.618089e-01	4.796242e+12	1.042160e+14	8.162083e+13	4.412085e+03	2.169422e+03	1.336042e+03	0	2.003255e-04
1.240000e+09	8.671148e+10	0.000000e+00	3.618089e-01	4.768152e+12	1.036686e+14	8.127496e+13	4.408988e+03	2.168235e+03	1.335310e+03	0	1.998963e-04
1.250000e+09	8.615798e+10	0.000000e+00	3.618089e-01	4.740375e+12	1.031278e+14	8.093138e+13	4.405909e+03	2.167059e+03	1.334586e+03	0	1.994700e-04
1.260000e+09	8.561062e+10	0.000000e+00	3.618089e-01	4.712905e+12	1.025936e+14	8.059007e+13	4.402848e+03	2.165894e+03	1.333869e+03	0	1.990467e-04
1.270000e+09	8.506931e+10	0.000000e+00	3.618089e-01	4.685736e+12	1.020657e+14	8.025100e+13	4.399805e+03	2.164740e+03	1.333158e+03	0	1.986263e-04
1.280000e+09	8.453392e+10	0.000000e+00	3.618089e-01	4.658863e+12	1.015441e+14	7.991416e+13	4.396779e+03	2.163597e+03	1.332454e+03	0	1.982088e-04
1.290000e+09	8.400438e+10	0.000000e+00	3.618089e-01	4.632282e+12	1.010286e+14	7.957954e+13	4.393770e+03	2.162464e+03	1.331757e+03	0	1.977940e-04
1.300000e+09	8.348056e+10	0.000000e+00	3.618089e-01	4.605986e+12	1.005190e+14	7.924711e+13	4.390779e+03	2.161342e+03	1.331066e+03	0	1.973820e-04
1.310000e+09	8.296238e+10	0.000000e+00	3.618089e-01	4.579972e+12	1.000153e+14	7.891686e+13	4.387805e+03	2.160230e+03	1.330381e+03	0	1.969728e-04
1.320000e+09	8.244974e+10	0.000000e+00	3.618089e-01	4.554234e+12	9.951723e+13	7.858878e+13	4.384847e+03	2.159127e+03	1.329701e+03	0	1.965662e-04
1.330000e+09	8.194254e+10	0.000000e+00	3.618089e-01	4.528768e+12	9.902479e+13	7.826284e+13	4.381906e+03	2.158034e+03	1.329028e+03	0	1.961623e-04
1.340000e+09	8.144070e+10	0.000000e+00	3.618089e-01	4.503569e+12	9.853781e+13	7.793903e+13	4.378981e+03	2.156950e+03	1.328361e+03	0	1.957611e-04
1.350000e+09	8.094412e+10	0.000000e+00	3.618089e-01	4.478634e+12	9.805618e+13	7.761733e+13	4.376073e+03	2.155876e+03	1.327699e+03	0	1.953624e-04
1.360000e+09	8.045273e+10	0.000000e+00	3.618089e-01	4.453957e+12	9.757980e+13	7.729773e+13	4.373181e+03	2.154810e+03	1.327043e+03	0	1.949662e-04
