#t		Qconv[W]	Ri[Rp]		R*[Rp]		Qc[W]		Qm[W]		Qr[W]		Tcmb[K]		Tl[K]		Tup[K]		RiFlag		Bs[T]
0.000000e+00	9.216786e+11	0.000000e+00	3.618091e-01	3.780365e+13	2.364866e+15	1.984699e+14	6.029167e+03	3.854801e+03	2.187829e+03	0	4.314335e-04
1.000000e+07	8.946831e+11	0.000000e+00	3.618091e-01	3.672682e+13	2.063583e+15	1.973702e+14	6.011367e+03	3.751206e+03	2.129033e+03	0	4.271795e-04
2.000000e+07	8.669536e+11	0.000000e+00	3.618091e-01	3.562090e+13	1.823339e+15	1.962788e+14	5.994069e+03	3.661631e+03	2.078194e+03	0	4.227198e-04
3.000000e+07	8.395436e+11	0.000000e+00	3.618091e-01	3.452778e+13	1.628399e+15	1.951955e+14	5.977286e+03	3.583309e+03	2.033742e+03	0	4.182171e-04
4.000000e+07	8.130072e+11	0.000000e+00	3.618091e-01	3.346950e+13	1.467804e+15	1.941203e+14	5.961013e+03	3.514171e+03	1.994501e+03	0	4.137635e-04
5.000000e+07	7.876181e+11	0.000000e+00	3.618091e-01	3.245693e+13	1.333737e+15	1.930531e+14	5.945235e+03	3.452630e+03	1.959573e+03	0	4.094107e-04
6.000000e+07	7.634906e+11	0.000000e+00	3.618091e-01	3.149462e+13	1.220500e+15	1.919939e+14	5.929930e+03	3.397454e+03	1.928258e+03	0	4.051867e-04
7.000000e+07	7.406488e+11	0.000000e+00	3.618091e-01	3.058352e+13	1.123862e+15	1.909425e+14	5.915076e+03	3.347669e+03	1.900001e+03	0	4.011050e-04
8.000000e+07	7.190666e+11	0.000000e+00	3.618091e-01	2.972258e+13	1.040623e+15	1.898990e+14	5.900648e+03	3.302493e+03	1.874361e+03	0	3.971706e-04
9.000000e+07	6.986907e+11	0.000000e+00	3.618091e-01	2.890969e+13	9.683304e+14	1.888633e+14	5.886624e+03	3.261293e+03	1.850978e+03	0	3.933831e-04
1.000000e+08	6.794545e+11	0.000000e+00	3.618091e-01	2.814219e+13	9.050746e+14	1.878352e+14	5.872980e+03	3.223548e+03	1.829556e+03	0	3.897392e-04
1.100000e+08	6.612861e+11	0.000000e+00	3.618091e-01	2.741721e+13	8.493512e+14	1.868147e+14	5.859697e+03	3.188829e+03	1.809850e+03	0	3.862340e-04
1.200000e+08	6.441130e+11	0.000000e+00	3.618091e-01	2.673189e+13	7.999613e+14	1.858019e+14	5.846754e+03	3.156774e+03	1.791657e+03	0	3.828612e-04
1.300000e+08	6.278652e+11	0.000000e+00	3.618091e-01	2.608341e+13	7.559392e+14	1.847965e+14	5.834132e+03	3.127079e+03	1.774804e+03	0	3.796145e-04
1.400000e+08	6.124758e+11	0.000000e+00	3.618091e-01	2.546912e+13	7.164997e+14	1.837986e+14	5.821815e+03	3.099486e+03	1.759143e+03	0	3.764873e-04
1.500000e+08	5.978826e+11	0.000000e+00	3.618091e-01	2.488655e+13	6.809989e+14	1.828080e+14	5.809786e+03	3.073775e+03	1.744550e+03	0	3.734731e-04
1.600000e+08	5.840275e+11	0.000000e+00	3.618091e-01	2.433338e+13	6.489040e+14	1.818247e+14	5.798031e+03	3.049754e+03	1.730917e+03	0	3.705656e-04
1.700000e+08	5.708573e+11	0.000000e+00	3.618091e-01	2.380749e+13	6.197714e+14	1.808488e+14	5.786535e+03	3.027258e+03	1.718149e+03	0	3.677589e-04
1.800000e+08	5.583228e+11	0.000000e+00	3.618091e-01	2.330692e+13	5.932288e+14	1.798800e+14	5.775287e+03	3.006144e+03	1.706166e+03	0	3.650473e-04
1.900000e+08	5.463790e+11	0.000000e+00	3.618091e-01	2.282990e+13	5.689617e+14	1.789183e+14	5.764274e+03	2.986287e+03	1.694896e+03	0	3.624254e-04
2.000000e+08	5.349848e+11	0.000000e+00	3.618091e-01	2.237476e+13	5.467032e+14	1.779637e+14	5.753486e+03	2.967574e+03	1.684275e+03	0	3.598884e-04
2.100000e+08	5.241024e+11	0.000000e+00	3.618091e-01	2.194002e+13	5.262250e+14	1.770162e+14	5.742911e+03	2.949909e+03	1.674249e+03	0	3.574314e-04
2.200000e+08	5.136972e+11	0.000000e+00	3.618091e-01	2.152429e+13	5.073313e+14	1.760756e+14	5.732541e+03	2.933204e+03	1.664768e+03	0	3.550502e-04
2.300000e+08	5.037375e+11	0.000000e+00	3.618091e-01	2.112631e+13	4.898529e+14	1.751419e+14	5.722367e+03	2.917383e+03	1.655789e+03	0	3.527406e-04
2.400000e+08	4.941944e+11	0.000000e+00	3.618091e-01	2.074494e+13	4.736434e+14	1.742150e+14	5.712380e+03	2.902376e+03	1.647271e+03	0	3.504988e-04
2.500000e+08	4.850411e+11	0.000000e+00	3.618091e-01	2.037910e+13	4.585749e+14	1.732950e+14	5.702572e+03	2.888120e+03	1.639180e+03	0	3.483214e-04
2.600000e+08	4.762533e+11	0.000000e+00	3.618091e-01	2.002782e+13	4.445360e+14	1.723816e+14	5.692936e+03	2.874562e+03	1.631485e+03	0	3.462050e-04
2.700000e+08	4.678084e+11	0.000000e+00	3.618091e-01	1.969022e+13	4.314287e+14	1.714750e+14	5.683466e+03	2.861649e+03	1.624156e+03	0	3.441465e-04
2.800000e+08	4.596857e+11	0.000000e+00	3.618091e-01	1.936545e+13	4.191666e+14	1.705749e+14	5.674155e+03	2.849337e+03	1.617169e+03	0	3.421430e-04
2.900000e+08	4.518662e+11	0.000000e+00	3.618091e-01	1.905277e+13	4.076735e+14	1.696815e+14	5.664996e+03	2.837584e+03	1.610498e+03	0	3.401919e-04
3.000000e+08	4.443321e+11	0.000000e+00	3.618091e-01	1.875147e+13	3.968818e+14	1.687945e+14	5.655985e+03	2.826353e+03	1.604124e+03	0	3.382906e-04
3.100000e+08	4.370673e+11	0.000000e+00	3.618091e-01	1.846090e+13	3.867312e+14	1.679140e+14	5.647116e+03	2.815609e+03	1.598026e+03	0	3.364368e-04
3.200000e+08	4.300566e+11	0.000000e+00	3.618091e-01	1.818046e+13	3.771681e+14	1.670400e+14	5.638384e+03	2.805321e+03	1.592187e+03	0	3.346282e-04
3.300000e+08	4.232860e+11	0.000000e+00	3.618091e-01	1.790959e+13	3.681444e+14	1.661722e+14	5.629784e+03	2.795461e+03	1.586591e+03	0	3.328628e-04
3.400000e+08	4.167427e+11	0.000000e+00	3.618091e-01	1.764779e+13	3.596171e+14	1.653108e+14	5.621311e+03	2.786001e+03	1.581222e+03	0	3.311388e-04
3.500000e+08	4.104146e+11	0.000000e+00	3.618091e-01	1.739456e+13	3.515472e+14	1.644556e+14	5.612962e+03	2.776918e+03	1.576067e+03	0	3.294541e-04
3.600000e+08	4.042904e+11	0.000000e+00	3.618091e-01	1.714947e+13	3.438999e+14	1.636067e+14	5.604732e+03	2.768190e+03	1.571113e+03	0	3.278072e-04
3.700000e+08	3.983599e+11	0.000000e+00	3.618091e-01	1.691210e+13	3.366436e+14	1.627638e+14	5.596618e+03	2.759795e+03	1.566348e+03	0	3.261964e-04
3.800000e+08	3.926131e+11	0.000000e+00	3.618091e-01	1.668206e+13	3.297496e+14	1.619271e+14	5.588616e+03	2.751715e+03	1.561762e+03	0	3.246203e-04
3.900000e+08	3.870412e+11	0.000000e+00	3.618091e-01	1.645899e+13	3.231920e+14	1.610964e+14	5.580722e+03	2.743933e+03	1.557345e+03	0	3.230773e-04
4.000000e+08	3.816356e+11	0.000000e+00	3.618091e-01	1.624256e+13	3.169471e+14	1.602717e+14	5.572933e+03	2.736431e+03	1.553088e+03	0	3.215661e-04
4.100000e+08	3.763884e+11	0.000000e+00	3.618091e-01	1.603244e+13	3.109934e+14	1.594530e+14	5.565246e+03	2.729195e+03	1.548981e+03	0	3.200856e-04
4.200000e+08	3.712922e+11	0.000000e+00	3.618091e-01	1.582835e+13	3.053113e+14	1.586402e+14	5.557658e+03	2.722210e+03	1.545016e+03	0	3.186344e-04
4.300000e+08	3.663400e+11	0.000000e+00	3.618091e-01	1.563000e+13	2.998827e+14	1.578332e+14	5.550167e+03	2.715463e+03	1.541187e+03	0	3.172114e-04
4.400000e+08	3.615253e+11	0.000000e+00	3.618091e-01	1.543714e+13	2.946912e+14	1.570320e+14	5.542769e+03	2.708943e+03	1.537487e+03	0	3.158156e-04
4.500000e+08	3.568420e+11	0.000000e+00	3.618091e-01	1.524952e+13	2.897216e+14	1.562366e+14	5.535462e+03	2.702637e+03	1.533908e+03	0	3.144460e-04
4.600000e+08	3.522844e+11	0.000000e+00	3.618091e-01	1.506691e+13	2.849601e+14	1.554469e+14	5.528244e+03	2.696536e+03	1.530445e+03	0	3.131015e-04
4.700000e+08	3.478469e+11	0.000000e+00	3.618091e-01	1.488910e+13	2.803938e+14	1.546629e+14	5.521111e+03	2.690628e+03	1.527092e+03	0	3.117813e-04
4.800000e+08	3.435246e+11	0.000000e+00	3.618091e-01	1.471588e+13	2.760109e+14	1.538844e+14	5.514063e+03	2.684904e+03	1.523843e+03	0	3.104845e-04
4.900000e+08	3.393125e+11	0.000000e+00	3.618091e-01	1.454706e+13	2.718006e+14	1.531116e+14	5.507096e+03	2.679357e+03	1.520695e+03	0	3.092103e-04
5.000000e+08	3.352062e+11	0.000000e+00	3.618091e-01	1.438246e+13	2.677527e+14	1.523443e+14	5.500209e+03	2.673977e+03	1.517641e+03	0	3.079579e-04
5.100000e+08	3.312014e+11	0.000000e+00	3.618091e-01	1.422191e+13	2.638580e+14	1.515824e+14	5.493400e+03	2.668756e+03	1.514678e+03	0	3.067266e-04
5.200000e+08	3.272940e+11	0.000000e+00	3.618091e-01	1.406525e+13	2.601077e+14	1.508260e+14	5.486667e+03	2.663688e+03	1.511802e+03	0	3.055156e-04
5.300000e+08	3.234802e+11	0.000000e+00	3.618091e-01	1.391233e+13	2.564938e+14	1.500750e+14	5.480007e+03	2.658765e+03	1.509008e+03	0	3.043243e-04
5.400000e+08	3.197563e+11	0.000000e+00	3.618091e-01	1.376300e+13	2.530089e+14	1.493293e+14	5.473420e+03	2.653981e+03	1.506293e+03	0	3.031520e-04
5.500000e+08	3.161190e+11	0.000000e+00	3.618091e-01	1.361712e+13	2.496461e+14	1.485890e+14	5.466903e+03	2.649331e+03	1.503653e+03	0	3.019981e-04
5.600000e+08	3.125649e+11	0.000000e+00	3.618091e-01	1.347456e+13	2.463987e+14	1.478539e+14	5.460454e+03	2.644807e+03	1.501086e+03	0	3.008621e-04
5.700000e+08	3.090911e+11	0.000000e+00	3.618091e-01	1.333521e+13	2.432609e+14	1.471240e+14	5.454074e+03	2.640405e+03	1.498587e+03	0	2.997433e-04
5.800000e+08	3.056944e+11	0.000000e+00	3.618091e-01	1.319894e+13	2.402270e+14	1.463993e+14	5.447759e+03	2.636119e+03	1.496155e+03	0	2.986413e-04
5.900000e+08	3.023722e+11	0.000000e+00	3.618091e-01	1.306564e+13	2.372917e+14	1.456798e+14	5.441508e+03	2.631945e+03	1.493786e+03	0	2.975555e-04
6.000000e+08	2.991219e+11	0.000000e+00	3.618091e-01	1.293521e+13	2.344501e+14	1.449653e+14	5.435320e+03	2.627878e+03	1.491477e+03	0	2.964855e-04
6.100000e+08	2.959408e+11	0.000000e+00	3.618091e-01	1.280755e+13	2.316976e+14	1.442559e+14	5.429194e+03	2.623914e+03	1.489227e+03	0	2.954307e-04
6.200000e+08	2.928266e+11	0.000000e+00	3.618091e-01	1.268256e+13	2.290298e+14	1.435515e+14	5.423128e+03	2.620048e+03	1.487033e+03	0	2.943908e-04
6.300000e+08	2.897771e+11	0.000000e+00	3.618091e-01	1.256015e+13	2.264427e+14	1.428521e+14	5.417121e+03	2.616276e+03	1.484893e+03	0	2.933653e-04
6.400000e+08	2.867899e+11	0.000000e+00	3.618091e-01	1.244023e+13	2.239325e+14	1.421576e+14	5.411172e+03	2.612595e+03	1.482804e+03	0	2.923537e-04
6.500000e+08	2.838632e+11	0.000000e+00	3.618091e-01	1.232272e+13	2.214957e+14	1.414680e+14	5.405280e+03	2.609002e+03	1.480764e+03	0	2.913558e-04
6.600000e+08	2.809947e+11	0.000000e+00	3.618091e-01	1.220755e+13	2.191288e+14	1.407832e+14	5.399443e+03	2.605492e+03	1.478772e+03	0	2.903711e-04
6.700000e+08	2.781828e+11	0.000000e+00	3.618091e-01	1.209463e+13	2.168287e+14	1.401033e+14	5.393660e+03	2.602063e+03	1.476826e+03	0	2.893993e-04
6.800000e+08	2.754256e+11	0.000000e+00	3.618091e-01	1.198390e+13	2.145924e+14	1.394282e+14	5.387931e+03	2.598712e+03	1.474924e+03	0	2.884400e-04
6.900000e+08	2.727213e+11	0.000000e+00	3.618091e-01	1.187528e+13	2.124171e+14	1.387577e+14	5.382254e+03	2.595435e+03	1.473064e+03	0	2.874928e-04
7.000000e+08	2.700683e+11	0.000000e+00	3.618091e-01	1.176871e+13	2.103002e+14	1.380920e+14	5.376629e+03	2.592230e+03	1.471245e+03	0	2.865575e-04
7.100000e+08	2.674650e+11	0.000000e+00	3.618091e-01	1.166413e+13	2.082391e+14	1.374310e+14	5.371054e+03	2.589094e+03	1.469465e+03	0	2.856338e-04
7.200000e+08	2.649099e+11	0.000000e+00	3.618091e-01	1.156147e+13	2.062314e+14	1.367745e+14	5.365528e+03	2.586025e+03	1.467723e+03	0	2.847214e-04
7.300000e+08	2.624015e+11	0.000000e+00	3.618091e-01	1.146068e+13	2.042751e+14	1.361227e+14	5.360051e+03	2.583020e+03	1.466018e+03	0	2.838199e-04
7.400000e+08	2.599385e+11	0.000000e+00	3.618091e-01	1.136171e+13	2.023678e+14	1.354754e+14	5.354621e+03	2.580077e+03	1.464348e+03	0	2.829291e-04
7.500000e+08	2.575196e+11	0.000000e+00	3.618091e-01	1.126449e+13	2.005076e+14	1.348326e+14	5.349238e+03	2.577195e+03	1.462711e+03	0	2.820487e-04
7.600000e+08	2.551433e+11	0.000000e+00	3.618091e-01	1.116898e+13	1.986927e+14	1.341943e+14	5.343901e+03	2.574369e+03	1.461108e+03	0	2.811785e-04
7.700000e+08	2.528087e+11	0.000000e+00	3.618091e-01	1.107513e+13	1.969212e+14	1.335604e+14	5.338609e+03	2.571600e+03	1.459536e+03	0	2.803182e-04
7.800000e+08	2.505143e+11	0.000000e+00	3.618091e-01	1.098290e+13	1.951914e+14	1.329309e+14	5.333362e+03	2.568884e+03	1.457995e+03	0	2.794676e-04
7.900000e+08	2.482592e+11	0.000000e+00	3.618091e-01	1.089223e+13	1.935017e+14	1.323058e+14	5.328158e+03	2.566221e+03	1.456483e+03	0	2.786265e-04
8.000000e+08	2.460422e+11	0.000000e+00	3.618091e-01	1.080309e+13	1.918506e+14	1.316851e+14	5.322997e+03	2.563607e+03	1.455000e+03	0	2.777947e-04
8.100000e+08	2.438623e+11	0.000000e+00	3.618091e-01	1.071543e+13	1.902366e+14	1.310686e+14	5.317878e+03	2.561042e+03	1.453544e+03	0	2.769718e-04
8.200000e+08	2.417185e+11	0.000000e+00	3.618091e-01	1.062921e+13	1.886583e+14	1.304564e+14	5.312800e+03	2.558524e+03	1.452115e+03	0	2.761578e-04
8.300000e+08	2.396098e+11	0.000000e+00	3.618091e-01	1.054440e+13	1.871143e+14	1.298485e+14	5.307763e+03	2.556052e+03	1.450712e+03	0	2.753524e-04
8.400000e+08	2.375353e+11	0.000000e+00	3.618091e-01	1.046095e+13	1.856035e+14	1.292447e+14	5.302767e+03	2.553623e+03	1.449333e+03	0	2.745554e-04
8.500000e+08	2.354940e+11	0.000000e+00	3.618091e-01	1.037884e+13	1.841247e+14	1.286451e+14	5.297810e+03	2.551237e+03	1.447979e+03	0	2.737667e-04
8.600000e+08	2.334852e+11	0.000000e+00	3.618091e-01	1.029802e+13	1.826766e+14	1.280497e+14	5.292891e+03	2.548892e+03	1.446648e+03	0	2.729860e-04
8.700000e+08	2.315080e+11	0.000000e+00	3.618091e-01	1.021846e+13	1.812582e+14	1.274583e+14	5.288011e+03	2.546587e+03	1.445340e+03	0	2.722133e-04
8.800000e+08	2.295615e+11	0.000000e+00	3.618091e-01	1.014014e+13	1.798685e+14	1.268710e+14	5.283168e+03	2.544320e+03	1.444053e+03	0	2.714482e-04
8.900000e+08	2.276451e+11	0.000000e+00	3.618091e-01	1.006302e+13	1.785065e+14	1.262878e+14	5.278363e+03	2.542091e+03	1.442788e+03	0	2.706908e-04
9.000000e+08	2.257580e+11	0.000000e+00	3.618091e-01	9.987064e+12	1.771712e+14	1.257085e+14	5.273594e+03	2.539898e+03	1.441543e+03	0	2.699407e-04
9.100000e+08	2.238994e+11	0.000000e+00	3.618091e-01	9.912254e+12	1.758618e+14	1.251332e+14	5.268860e+03	2.537740e+03	1.440319e+03	0	2.691979e-04
9.200000e+08	2.220686e+11	0.000000e+00	3.618091e-01	9.838558e+12	1.745773e+14	1.245619e+14	5.264163e+03	2.535616e+03	1.439113e+03	0	2.684621e-04
9.300000e+08	2.202650e+11	0.000000e+00	3.618091e-01	9.765950e+12	1.733170e+14	1.239945e+14	5.259500e+03	2.533526e+03	1.437927e+03	0	2.677334e-04
9.400000e+08	2.184880e+11	0.000000e+00	3.618091e-01	9.694403e+12	1.720800e+14	1.234309e+14	5.254871e+03	2.531467e+03	1.436758e+03	0	2.670114e-04
9.500000e+08	2.167369e+11	0.000000e+00	3.618091e-01	9.623893e+12	1.708657e+14	1.228712e+14	5.250276e+03	2.529439e+03	1.435608e+03	0	2.662962e-04
9.600000e+08	2.150110e+11	0.000000e+00	3.618091e-01	9.554395e+12	1.696732e+14	1.223153e+14	5.245715e+03	2.527442e+03	1.434474e+03	0	2.655875e-04
9.700000e+08	2.133099e+11	0.000000e+00	3.618091e-01	9.485886e+12	1.685020e+14	1.217632e+14	5.241186e+03	2.525474e+03	1.433357e+03	0	2.648852e-04
9.800000e+08	2.116330e+11	0.000000e+00	3.618091e-01	9.418343e+12	1.673513e+14	1.212149e+14	5.236690e+03	2.523534e+03	1.432256e+03	0	2.641892e-04
9.900000e+08	2.099796e+11	0.000000e+00	3.618091e-01	9.351745e+12	1.662204e+14	1.206702e+14	5.232225e+03	2.521622e+03	1.431171e+03	0	2.634994e-04
1.000000e+09	2.083493e+11	0.000000e+00	3.618091e-01	9.286070e+12	1.651089e+14	1.201293e+14	5.227793e+03	2.519737e+03	1.430101e+03	0	2.628157e-04
1.010000e+09	2.067415e+11	0.000000e+00	3.618091e-01	9.221297e+12	1.640161e+14	1.195921e+14	5.223391e+03	2.517878e+03	1.429046e+03	0	2.621380e-04
1.020000e+09	2.051558e+11	0.000000e+00	3.618091e-01	9.157408e+12	1.629415e+14	1.190584e+14	5.219020e+03	2.516044e+03	1.428005e+03	0	2.614660e-04
1.030000e+09	2.035917e+11	0.000000e+00	3.618091e-01	9.094381e+12	1.618845e+14	1.185284e+14	5.214679e+03	2.514235e+03	1.426978e+03	0	2.607999e-04
1.040000e+09	2.020486e+11	0.000000e+00	3.618091e-01	9.032200e+12	1.608446e+14	1.180020e+14	5.210368e+03	2.512451e+03	1.425965e+03	0	2.601393e-04
1.050000e+09	2.005262e+11	0.000000e+00	3.618091e-01	8.970845e+12	1.598213e+14	1.174791e+14	5.206086e+03	2.510689e+03	1.424966e+03	0	2.594843e-04
1.060000e+09	1.990241e+11	0.000000e+00	3.618091e-01	8.910299e+12	1.588141e+14	1.169598e+14	5.201834e+03	2.508950e+03	1.423979e+03	0	2.588347e-04
1.070000e+09	1.975417e+11	0.000000e+00	3.618091e-01	8.850546e+12	1.578227e+14	1.164439e+14	5.197610e+03	2.507233e+03	1.423004e+03	0	2.581905e-04
1.080000e+09	1.960786e+11	0.000000e+00	3.618091e-01	8.791568e+12	1.568464e+14	1.159316e+14	5.193414e+03	2.505538e+03	1.422042e+03	0	2.575515e-04
1.090000e+09	1.946346e+11	0.000000e+00	3.618091e-01	8.733349e+12	1.558850e+14	1.154226e+14	5.189246e+03	2.503864e+03	1.421092e+03	0	2.569177e-04
1.100000e+09	1.932091e+11	0.000000e+00	3.618091e-01	8.675874e+12	1.549380e+14	1.149171e+14	5.185106e+03	2.502210e+03	1.420153e+03	0	2.562889e-04
1.110000e+09	1.918018e+11	0.000000e+00	3.618091e-01	8.619128e+12	1.540051e+14	1.144150e+14	5.180993e+03	2.500576e+03	1.419226e+03	0	2.556652e-04
1.120000e+09	1.904123e+11	0.000000e+00	3.618091e-01	8.563096e+12	1.530858e+14	1.139163e+14	5.176906e+03	2.498961e+03	1.418309e+03	0	2.550463e-04
1.130000e+09	1.890403e+11	0.000000e+00	3.618091e-01	8.507764e+12	1.521798e+14	1.134208e+14	5.172847e+03	2.497365e+03	1.417404e+03	0	2.544323e-04
1.140000e+09	1.876855e+11	0.000000e+00	3.618091e-01	8.453118e+12	1.512867e+14	1.129287e+14	5.168813e+03	2.495788e+03	1.416508e+03	0	2.538229e-04
1.150000e+09	1.863474e+11	0.000000e+00	3.618091e-01	8.399144e+12	1.504062e+14	1.124399e+14	5.164805e+03	2.494228e+03	1.415623e+03	0	2.532183e-04
1.160000e+09	1.850258e+11	0.000000e+00	3.618091e-01	8.345830e+12	1.495380e+14	1.119543e+14	5.160823e+03	2.492686e+03	1.414748e+03	0	2.526183e-04
1.170000e+09	1.837203e+11	0.000000e+00	3.618091e-01	8.293162e+12	1.486818e+14	1.114720e+14	5.156866e+03	2.491161e+03	1.413883e+03	0	2.520227e-04
1.180000e+09	1.824306e+11	0.000000e+00	3.618091e-01	8.241128e+12	1.478372e+14	1.109929e+14	5.152934e+03	2.489653e+03	1.413027e+03	0	2.514316e-04
1.190000e+09	1.811565e+11	0.000000e+00	3.618091e-01	8.189717e+12	1.470040e+14	1.105170e+14	5.149027e+03	2.488161e+03	1.412180e+03	0	2.508449e-04
1.200000e+09	1.798976e+11	0.000000e+00	3.618091e-01	8.138916e+12	1.461819e+14	1.100442e+14	5.145144e+03	2.486685e+03	1.411342e+03	0	2.502625e-04
1.210000e+09	1.786537e+11	0.000000e+00	3.618091e-01	8.088714e+12	1.453707e+14	1.095746e+14	5.141284e+03	2.485224e+03	1.410513e+03	0	2.496844e-04
1.220000e+09	1.774244e+11	0.000000e+00	3.618091e-01	8.039100e+12	1.445700e+14	1.091080e+14	5.137449e+03	2.483779e+03	1.409692e+03	0	2.491104e-04
1.230000e+09	1.762095e+11	0.000000e+00	3.618091e-01	7.990063e+12	1.437796e+14	1.086446e+14	5.133637e+03	2.482348e+03	1.408880e+03	0	2.485405e-04
1.240000e+09	1.750088e+11	0.000000e+00	3.618091e-01	7.941592e+12	1.429993e+14	1.081842e+14	5.129849e+03	2.480931e+03	1.408076e+03	0	2.479747e-04
1.250000e+09	1.738220e+11	0.000000e+00	3.618091e-01	7.893678e+12	1.422288e+14	1.077269e+14	5.126083e+03	2.479529e+03	1.407280e+03	0	2.474128e-04
1.260000e+09	1.726487e+11	0.000000e+00	3.618091e-01	7.846310e+12	1.414679e+14	1.072725e+14	5.122340e+03	2.478140e+03	1.406492e+03	0	2.468549e-04
1.270000e+09	1.714889e+11	0.000000e+00	3.618091e-01	7.799478e+12	1.407164e+14	1.068212e+14	5.118619e+03	2.476765e+03	1.405712e+03	0	2.463009e-04
1.280000e+09	1.703422e+11	0.000000e+00	3.618091e-01	7.753174e+12	1.399741e+14	1.063729e+14	5.114921e+03	2.475403e+03	1.404939e+03	0	2.457507e-04
1.290000e+09	1.692084e+11	0.000000e+00	3.618091e-01	7.707386e+12	1.392408e+14	1.059274e+14	5.111244e+03	2.474054e+03	1.404173e+03	0	2.452042e-04
1.300000e+09	1.680873e+11	0.000000e+00	3.618091e-01	7.662108e+12	1.385162e+14	1.054850e+14	5.107590e+03	2.472717e+03	1.403414e+03	0	2.446615e-04
1.310000e+09	1.669786e+11	0.000000e+00	3.618091e-01	7.617329e+12	1.378002e+14	1.050454e+14	5.103956e+03	2.471393e+03	1.402663e+03	0	2.441224e-04
1.320000e+09	1.658823e+11	0.000000e+00	3.618091e-01	7.573042e+12	1.370926e+14	1.046087e+14	5.100344e+03	2.470080e+03	1.401918e+03	0	2.435869e-04
1.330000e+09	1.647979e+11	0.000000e+00	3.618091e-01	7.529238e+12	1.363932e+14	1.041748e+14	5.096753e+03	2.468780e+03	1.401180e+03	0	2.430550e-04
1.340000e+09	1.637254e+11	0.000000e+00	3.618091e-01	7.485908e+12	1.357018e+14	1.037438e+14	5.093182e+03	2.467491e+03	1.400448e+03	0	2.425266e-04
1.350000e+09	1.626646e+11	0.000000e+00	3.618091e-01	7.443044e+12	1.350183e+14	1.033156e+14	5.089632e+03	2.466213e+03	1.399723e+03	0	2.420016e-04
1.360000e+09	1.616151e+11	0.000000e+00	3.618091e-01	7.400640e+12	1.343425e+14	1.028902e+14	5.086102e+03	2.464946e+03	1.399004e+03	0	2.414801e-04
