#t		Qconv[W]	Ri[Rp]		R*[Rp]		Qc[W]		Qm[W]		Qr[W]		Tcmb[K]		Tl[K]		Tup[K]		RiFlag		Bs[T]
0.000000e+00	1.279833e+14	0.000000e+00	3.417085e-01	1.663422e+15	3.257631e+15	1.652863e+15	2.877311e+04	1.518652e+04	3.147530e+03	0	2.128736e-03
1.000000e+07	1.256130e+14	0.000000e+00	3.417085e-01	1.639972e+15	3.247683e+15	1.643704e+15	2.870076e+04	1.518704e+04	3.147637e+03	0	2.115513e-03
2.000000e+07	1.232987e+14	0.000000e+00	3.417085e-01	1.617066e+15	3.237552e+15	1.634615e+15	2.862943e+04	1.518735e+04	3.147700e+03	0	2.102440e-03
3.000000e+07	1.210387e+14	0.000000e+00	3.417085e-01	1.594686e+15	3.227248e+15	1.625593e+15	2.855909e+04	1.518745e+04	3.147722e+03	0	2.089515e-03
4.000000e+07	1.188313e+14	0.000000e+00	3.417085e-01	1.572816e+15	3.216782e+15	1.616639e+15	2.848971e+04	1.518736e+04	3.147702e+03	0	2.076735e-03
5.000000e+07	1.166747e+14	0.000000e+00	3.417085e-01	1.551439e+15	3.206164e+15	1.607751e+15	2.842129e+04	1.518707e+04	3.147644e+03	0	2.064095e-03
6.000000e+07	1.145674e+14	0.000000e+00	3.417085e-01	1.530541e+15	3.195403e+15	1.598930e+15	2.835379e+04	1.518661e+04	3.147548e+03	0	2.051593e-03
7.000000e+07	1.125079e+14	0.000000e+00	3.417085e-01	1.510107e+15	3.184509e+15	1.590175e+15	2.828719e+04	1.518597e+04	3.147416e+03	0	2.039225e-03
8.000000e+07	1.104948e+14	0.000000e+00	3.417085e-01	1.490122e+15	3.173490e+15	1.581484e+15	2.822148e+04	1.518516e+04	3.147248e+03	0	2.026989e-03
9.000000e+07	1.085265e+14	0.000000e+00	3.417085e-01	1.470574e+15	3.162355e+15	1.572858e+15	2.815664e+04	1.518419e+04	3.147047e+03	0	2.014881e-03
1.000000e+08	1.066019e+14	0.000000e+00	3.417085e-01	1.451450e+15	3.151111e+15	1.564297e+15	2.809264e+04	1.518306e+04	3.146812e+03	0	2.002899e-03
1.100000e+08	1.047195e+14	0.000000e+00	3.417085e-01	1.432736e+15	3.139766e+15	1.555798e+15	2.802947e+04	1.518178e+04	3.146546e+03	0	1.991040e-03
1.200000e+08	1.028781e+14	0.000000e+00	3.417085e-01	1.414421e+15	3.128329e+15	1.547363e+15	2.796711e+04	1.518035e+04	3.146250e+03	0	1.979301e-03
1.300000e+08	1.010766e+14	0.000000e+00	3.417085e-01	1.396493e+15	3.116804e+15	1.538990e+15	2.790555e+04	1.517878e+04	3.145924e+03	0	1.967679e-03
1.400000e+08	9.931367e+13	0.000000e+00	3.417085e-01	1.378941e+15	3.105201e+15	1.530679e+15	2.784476e+04	1.517707e+04	3.145570e+03	0	1.956172e-03
1.500000e+08	9.758830e+13	0.000000e+00	3.417085e-01	1.361754e+15	3.093524e+15	1.522430e+15	2.778473e+04	1.517523e+04	3.145188e+03	0	1.944778e-03
1.600000e+08	9.589938e+13	0.000000e+00	3.417085e-01	1.344922e+15	3.081781e+15	1.514241e+15	2.772545e+04	1.517326e+04	3.144780e+03	0	1.933493e-03
1.700000e+08	9.424587e+13	0.000000e+00	3.417085e-01	1.328434e+15	3.069976e+15	1.506113e+15	2.766690e+04	1.517117e+04	3.144347e+03	0	1.922316e-03
1.800000e+08	9.262678e+13	0.000000e+00	3.417085e-01	1.312282e+15	3.058117e+15	1.498045e+15	2.760906e+04	1.516896e+04	3.143889e+03	0	1.911245e-03
1.900000e+08	9.104114e+13	0.000000e+00	3.417085e-01	1.296456e+15	3.046208e+15	1.490037e+15	2.755192e+04	1.516663e+04	3.143407e+03	0	1.900276e-03
2.000000e+08	8.948801e+13	0.000000e+00	3.417085e-01	1.280946e+15	3.034255e+15	1.482087e+15	2.749547e+04	1.516419e+04	3.142902e+03	0	1.889408e-03
2.100000e+08	8.796649e+13	0.000000e+00	3.417085e-01	1.265744e+15	3.022262e+15	1.474196e+15	2.743969e+04	1.516165e+04	3.142375e+03	0	1.878638e-03
2.200000e+08	8.647572e+13	0.000000e+00	3.417085e-01	1.250842e+15	3.010234e+15	1.466362e+15	2.738457e+04	1.515901e+04	3.141827e+03	0	1.867965e-03
2.300000e+08	8.501485e+13	0.000000e+00	3.417085e-01	1.236232e+15	2.998176e+15	1.458586e+15	2.733010e+04	1.515626e+04	3.141258e+03	0	1.857387e-03
2.400000e+08	8.358307e+13	0.000000e+00	3.417085e-01	1.221905e+15	2.986093e+15	1.450867e+15	2.727626e+04	1.515342e+04	3.140669e+03	0	1.846901e-03
2.500000e+08	8.217961e+13	0.000000e+00	3.417085e-01	1.207855e+15	2.973988e+15	1.443205e+15	2.722304e+04	1.515049e+04	3.140061e+03	0	1.836505e-03
2.600000e+08	8.080370e+13	0.000000e+00	3.417085e-01	1.194074e+15	2.961866e+15	1.435599e+15	2.717043e+04	1.514747e+04	3.139435e+03	0	1.826198e-03
2.700000e+08	7.945462e+13	0.000000e+00	3.417085e-01	1.180554e+15	2.949730e+15	1.428048e+15	2.711842e+04	1.514436e+04	3.138791e+03	0	1.815978e-03
2.800000e+08	7.813165e+13	0.000000e+00	3.417085e-01	1.167289e+15	2.937584e+15	1.420553e+15	2.706699e+04	1.514117e+04	3.138129e+03	0	1.805842e-03
2.900000e+08	7.683412e+13	0.000000e+00	3.417085e-01	1.154273e+15	2.925432e+15	1.413112e+15	2.701614e+04	1.513790e+04	3.137452e+03	0	1.795790e-03
3.000000e+08	7.556136e+13	0.000000e+00	3.417085e-01	1.141499e+15	2.913276e+15	1.405725e+15	2.696586e+04	1.513455e+04	3.136758e+03	0	1.785819e-03
3.100000e+08	7.431274e+13	0.000000e+00	3.417085e-01	1.128961e+15	2.901120e+15	1.398393e+15	2.691613e+04	1.513113e+04	3.136048e+03	0	1.775927e-03
3.200000e+08	7.308763e+13	0.000000e+00	3.417085e-01	1.116652e+15	2.888968e+15	1.391113e+15	2.686694e+04	1.512763e+04	3.135324e+03	0	1.766114e-03
3.300000e+08	7.188544e+13	0.000000e+00	3.417085e-01	1.104568e+15	2.876822e+15	1.383887e+15	2.681829e+04	1.512407e+04	3.134586e+03	0	1.756377e-03
3.400000e+08	7.070559e+13	0.000000e+00	3.417085e-01	1.092702e+15	2.864684e+15	1.376713e+15	2.677016e+04	1.512044e+04	3.133834e+03	0	1.746715e-03
3.500000e+08	6.954751e+13	0.000000e+00	3.417085e-01	1.081049e+15	2.852558e+15	1.369591e+15	2.672255e+04	1.511675e+04	3.133069e+03	0	1.737126e-03
3.600000e+08	6.841066e+13	0.000000e+00	3.417085e-01	1.069604e+15	2.840445e+15	1.362521e+15	2.667544e+04	1.511299e+04	3.132290e+03	0	1.727609e-03
3.700000e+08	6.729452e+13	0.000000e+00	3.417085e-01	1.058362e+15	2.828349e+15	1.355502e+15	2.662883e+04	1.510918e+04	3.131500e+03	0	1.718162e-03
3.800000e+08	6.619858e+13	0.000000e+00	3.417085e-01	1.047317e+15	2.816272e+15	1.348533e+15	2.658271e+04	1.510531e+04	3.130698e+03	0	1.708783e-03
3.900000e+08	6.512233e+13	0.000000e+00	3.417085e-01	1.036465e+15	2.804216e+15	1.341615e+15	2.653707e+04	1.510138e+04	3.129884e+03	0	1.699472e-03
4.000000e+08	6.406531e+13	0.000000e+00	3.417085e-01	1.025802e+15	2.792182e+15	1.334747e+15	2.649190e+04	1.509740e+04	3.129059e+03	0	1.690227e-03
4.100000e+08	6.302704e+13	0.000000e+00	3.417085e-01	1.015322e+15	2.780174e+15	1.327929e+15	2.644719e+04	1.509337e+04	3.128224e+03	0	1.681047e-03
4.200000e+08	6.200708e+13	0.000000e+00	3.417085e-01	1.005022e+15	2.768192e+15	1.321160e+15	2.640294e+04	1.508929e+04	3.127378e+03	0	1.671929e-03
4.300000e+08	6.100500e+13	0.000000e+00	3.417085e-01	9.948972e+14	2.756239e+15	1.314439e+15	2.635913e+04	1.508517e+04	3.126523e+03	0	1.662874e-03
4.400000e+08	6.002035e+13	0.000000e+00	3.417085e-01	9.849434e+14	2.744316e+15	1.307767e+15	2.631577e+04	1.508099e+04	3.125658e+03	0	1.653879e-03
4.500000e+08	5.905275e+13	0.000000e+00	3.417085e-01	9.751568e+14	2.732425e+15	1.301143e+15	2.627283e+04	1.507678e+04	3.124785e+03	0	1.644943e-03
4.600000e+08	5.810177e+13	0.000000e+00	3.417085e-01	9.655334e+14	2.720568e+15	1.294566e+15	2.623033e+04	1.507252e+04	3.123902e+03	0	1.636065e-03
4.700000e+08	5.716705e+13	0.000000e+00	3.417085e-01	9.560695e+14	2.708745e+15	1.288037e+15	2.618824e+04	1.506822e+04	3.123011e+03	0	1.627244e-03
4.800000e+08	5.624820e+13	0.000000e+00	3.417085e-01	9.467615e+14	2.696959e+15	1.281554e+15	2.614656e+04	1.506389e+04	3.122113e+03	0	1.618479e-03
4.900000e+08	5.534486e+13	0.000000e+00	3.417085e-01	9.376058e+14	2.685211e+15	1.275117e+15	2.610528e+04	1.505951e+04	3.121206e+03	0	1.609768e-03
5.000000e+08	5.445667e+13	0.000000e+00	3.417085e-01	9.285989e+14	2.673501e+15	1.268727e+15	2.606441e+04	1.505510e+04	3.120292e+03	0	1.601110e-03
5.100000e+08	5.358329e+13	0.000000e+00	3.417085e-01	9.197376e+14	2.661832e+15	1.262383e+15	2.602392e+04	1.505066e+04	3.119371e+03	0	1.592504e-03
5.200000e+08	5.272439e+13	0.000000e+00	3.417085e-01	9.110186e+14	2.650203e+15	1.256083e+15	2.598382e+04	1.504618e+04	3.118444e+03	0	1.583949e-03
5.300000e+08	5.187963e+13	0.000000e+00	3.417085e-01	9.024388e+14	2.638617e+15	1.249829e+15	2.594410e+04	1.504168e+04	3.117509e+03	0	1.575444e-03
5.400000e+08	5.104871e+13	0.000000e+00	3.417085e-01	8.939950e+14	2.627074e+15	1.243619e+15	2.590475e+04	1.503714e+04	3.116569e+03	0	1.566988e-03
5.500000e+08	5.023132e+13	0.000000e+00	3.417085e-01	8.856843e+14	2.615575e+15	1.237453e+15	2.586577e+04	1.503257e+04	3.115622e+03	0	1.558580e-03
5.600000e+08	4.942716e+13	0.000000e+00	3.417085e-01	8.775038e+14	2.604121e+15	1.231331e+15	2.582715e+04	1.502798e+04	3.114670e+03	0	1.550218e-03
5.700000e+08	4.863593e+13	0.000000e+00	3.417085e-01	8.694507e+14	2.592713e+15	1.225253e+15	2.578888e+04	1.502336e+04	3.113712e+03	0	1.541901e-03
5.800000e+08	4.785736e+13	0.000000e+00	3.417085e-01	8.615222e+14	2.581352e+15	1.219218e+15	2.575097e+04	1.501871e+04	3.112749e+03	0	1.533629e-03
5.900000e+08	4.709117e+13	0.000000e+00	3.417085e-01	8.537156e+14	2.570038e+15	1.213225e+15	2.571340e+04	1.501404e+04	3.111781e+03	0	1.525401e-03
6.000000e+08	4.633710e+13	0.000000e+00	3.417085e-01	8.460285e+14	2.558772e+15	1.207275e+15	2.567617e+04	1.500935e+04	3.110809e+03	0	1.517215e-03
6.100000e+08	4.559489e+13	0.000000e+00	3.417085e-01	8.384581e+14	2.547555e+15	1.201367e+15	2.563927e+04	1.500463e+04	3.109831e+03	0	1.509070e-03
6.200000e+08	4.486427e+13	0.000000e+00	3.417085e-01	8.310022e+14	2.536388e+15	1.195501e+15	2.560270e+04	1.499990e+04	3.108850e+03	0	1.500966e-03
6.300000e+08	4.414502e+13	0.000000e+00	3.417085e-01	8.236583e+14	2.525270e+15	1.189676e+15	2.556646e+04	1.499514e+04	3.107864e+03	0	1.492902e-03
6.400000e+08	4.343688e+13	0.000000e+00	3.417085e-01	8.164240e+14	2.514202e+15	1.183892e+15	2.553054e+04	1.499036e+04	3.106874e+03	0	1.484876e-03
6.500000e+08	4.273963e+13	0.000000e+00	3.417085e-01	8.092972e+14	2.503185e+15	1.178149e+15	2.549493e+04	1.498557e+04	3.105881e+03	0	1.476888e-03
6.600000e+08	4.205303e+13	0.000000e+00	3.417085e-01	8.022755e+14	2.492220e+15	1.172447e+15	2.545963e+04	1.498076e+04	3.104884e+03	0	1.468937e-03
6.700000e+08	4.137688e+13	0.000000e+00	3.417085e-01	7.953569e+14	2.481307e+15	1.166784e+15	2.542463e+04	1.497593e+04	3.103883e+03	0	1.461022e-03
6.800000e+08	4.071094e+13	0.000000e+00	3.417085e-01	7.885393e+14	2.470445e+15	1.161161e+15	2.538994e+04	1.497109e+04	3.102880e+03	0	1.453141e-03
6.900000e+08	4.005502e+13	0.000000e+00	3.417085e-01	7.818205e+14	2.459636e+15	1.155578e+15	2.535554e+04	1.496623e+04	3.101873e+03	0	1.445295e-03
7.000000e+08	3.940891e+13	0.000000e+00	3.417085e-01	7.751987e+14	2.448880e+15	1.150034e+15	2.532144e+04	1.496136e+04	3.100863e+03	0	1.437481e-03
7.100000e+08	3.877240e+13	0.000000e+00	3.417085e-01	7.686718e+14	2.438177e+15	1.144529e+15	2.528762e+04	1.495648e+04	3.099851e+03	0	1.429700e-03
7.200000e+08	3.814531e+13	0.000000e+00	3.417085e-01	7.622381e+14	2.427527e+15	1.139062e+15	2.525409e+04	1.495158e+04	3.098836e+03	0	1.421951e-03
7.300000e+08	3.752745e+13	0.000000e+00	3.417085e-01	7.558956e+14	2.416931e+15	1.133633e+15	2.522083e+04	1.494667e+04	3.097819e+03	0	1.414231e-03
7.400000e+08	3.691863e+13	0.000000e+00	3.417085e-01	7.496425e+14	2.406389e+15	1.128243e+15	2.518786e+04	1.494175e+04	3.096800e+03	0	1.406542e-03
7.500000e+08	3.631868e+13	0.000000e+00	3.417085e-01	7.434772e+14	2.395900e+15	1.122889e+15	2.515515e+04	1.493683e+04	3.095778e+03	0	1.398881e-03
7.600000e+08	3.572741e+13	0.000000e+00	3.417085e-01	7.373979e+14	2.385466e+15	1.117574e+15	2.512271e+04	1.493189e+04	3.094754e+03	0	1.391248e-03
7.700000e+08	3.514467e+13	0.000000e+00	3.417085e-01	7.314029e+14	2.375086e+15	1.112295e+15	2.509054e+04	1.492694e+04	3.093729e+03	0	1.383643e-03
7.800000e+08	3.457027e+13	0.000000e+00	3.417085e-01	7.254906e+14	2.364761e+15	1.107052e+15	2.505863e+04	1.492198e+04	3.092702e+03	0	1.376063e-03
7.900000e+08	3.400406e+13	0.000000e+00	3.417085e-01	7.196595e+14	2.354490e+15	1.101847e+15	2.502698e+04	1.491702e+04	3.091673e+03	0	1.368509e-03
8.000000e+08	3.344588e+13	0.000000e+00	3.417085e-01	7.139080e+14	2.344274e+15	1.096677e+15	2.499557e+04	1.491205e+04	3.090643e+03	0	1.360980e-03
8.100000e+08	3.289558e+13	0.000000e+00	3.417085e-01	7.082345e+14	2.334112e+15	1.091543e+15	2.496442e+04	1.490707e+04	3.089611e+03	0	1.353474e-03
8.200000e+08	3.235301e+13	0.000000e+00	3.417085e-01	7.026376e+14	2.324005e+15	1.086445e+15	2.493352e+04	1.490209e+04	3.088578e+03	0	1.345991e-03
8.300000e+08	3.181801e+13	0.000000e+00	3.417085e-01	6.971159e+14	2.313953e+15	1.081382e+15	2.490286e+04	1.489710e+04	3.087545e+03	0	1.338531e-03
8.400000e+08	3.129045e+13	0.000000e+00	3.417085e-01	6.916680e+14	2.303955e+15	1.076354e+15	2.487244e+04	1.489211e+04	3.086510e+03	0	1.331092e-03
8.500000e+08	3.077018e+13	0.000000e+00	3.417085e-01	6.862924e+14	2.294012e+15	1.071360e+15	2.484226e+04	1.488711e+04	3.085474e+03	0	1.323673e-03
8.600000e+08	3.025707e+13	0.000000e+00	3.417085e-01	6.809880e+14	2.284124e+15	1.066401e+15	2.481231e+04	1.488211e+04	3.084437e+03	0	1.316274e-03
8.700000e+08	2.975098e+13	0.000000e+00	3.417085e-01	6.757532e+14	2.274291e+15	1.061476e+15	2.478259e+04	1.487710e+04	3.083400e+03	0	1.308894e-03
8.800000e+08	2.925179e+13	0.000000e+00	3.417085e-01	6.705870e+14	2.264512e+15	1.056585e+15	2.475310e+04	1.487209e+04	3.082362e+03	0	1.301532e-03
8.900000e+08	2.875937e+13	0.000000e+00	3.417085e-01	6.654880e+14	2.254788e+15	1.051728e+15	2.472384e+04	1.486708e+04	3.081323e+03	0	1.294188e-03
9.000000e+08	2.827358e+13	0.000000e+00	3.417085e-01	6.604550e+14	2.245119e+15	1.046904e+15	2.469479e+04	1.486207e+04	3.080284e+03	0	1.286859e-03
9.100000e+08	2.779432e+13	0.000000e+00	3.417085e-01	6.554868e+14	2.235504e+15	1.042113e+15	2.466597e+04	1.485705e+04	3.079244e+03	0	1.279547e-03
9.200000e+08	2.732146e+13	0.000000e+00	3.417085e-01	6.505823e+14	2.225943e+15	1.037355e+15	2.463736e+04	1.485204e+04	3.078205e+03	0	1.272249e-03
9.300000e+08	2.685488e+13	0.000000e+00	3.417085e-01	6.457403e+14	2.216436e+15	1.032629e+15	2.460896e+04	1.484702e+04	3.077165e+03	0	1.264965e-03
9.400000e+08	2.639448e+13	0.000000e+00	3.417085e-01	6.409598e+14	2.206984e+15	1.027936e+15	2.458078e+04	1.484200e+04	3.076125e+03	0	1.257694e-03
9.500000e+08	2.594014e+13	0.000000e+00	3.417085e-01	6.362396e+14	2.197585e+15	1.023275e+15	2.455281e+04	1.483698e+04	3.075085e+03	0	1.250436e-03
9.600000e+08	2.549175e+13	0.000000e+00	3.417085e-01	6.315786e+14	2.188240e+15	1.018645e+15	2.452504e+04	1.483197e+04	3.074045e+03	0	1.243189e-03
9.700000e+08	2.504921e+13	0.000000e+00	3.417085e-01	6.269759e+14	2.178950e+15	1.014047e+15	2.449747e+04	1.482695e+04	3.073005e+03	0	1.235953e-03
9.800000e+08	2.461241e+13	0.000000e+00	3.417085e-01	6.224305e+14	2.169712e+15	1.009481e+15	2.447010e+04	1.482193e+04	3.071965e+03	0	1.228727e-03
9.900000e+08	2.418126e+13	0.000000e+00	3.417085e-01	6.179412e+14	2.160528e+15	1.004945e+15	2.444293e+04	1.481692e+04	3.070926e+03	0	1.221510e-03
1.000000e+09	2.375565e+13	0.000000e+00	3.417085e-01	6.135073e+14	2.151397e+15	1.000440e+15	2.441596e+04	1.481190e+04	3.069887e+03	0	1.214301e-03
1.010000e+09	2.333549e+13	0.000000e+00	3.417085e-01	6.091276e+14	2.142320e+15	9.959658e+14	2.438918e+04	1.480689e+04	3.068848e+03	0	1.207100e-03
1.020000e+09	2.292068e+13	0.000000e+00	3.417085e-01	6.048014e+14	2.133295e+15	9.915219e+14	2.436259e+04	1.480188e+04	3.067810e+03	0	1.199904e-03
1.030000e+09	2.251113e+13	0.000000e+00	3.417085e-01	6.005276e+14	2.124322e+15	9.871080e+14	2.433619e+04	1.479687e+04	3.066772e+03	0	1.192715e-03
1.040000e+09	2.210675e+13	0.000000e+00	3.417085e-01	5.963055e+14	2.115403e+15	9.827239e+14	2.430997e+04	1.479187e+04	3.065734e+03	0	1.185530e-03
1.050000e+09	2.170746e+13	0.000000e+00	3.417085e-01	5.921340e+14	2.106535e+15	9.783694e+14	2.428394e+04	1.478687e+04	3.064698e+03	0	1.178349e-03
1.060000e+09	2.131316e+13	0.000000e+00	3.417085e-01	5.880124e+14	2.097720e+15	9.740443e+14	2.425809e+04	1.478187e+04	3.063662e+03	0	1.171170e-03
1.070000e+09	2.092376e+13	0.000000e+00	3.417085e-01	5.839399e+14	2.088956e+15	9.697483e+14	2.423242e+04	1.477687e+04	3.062626e+03	0	1.163994e-03
1.080000e+09	2.053920e+13	0.000000e+00	3.417085e-01	5.799157e+14	2.080244e+15	9.654813e+14	2.420693e+04	1.477188e+04	3.061592e+03	0	1.156819e-03
1.090000e+09	2.015938e+13	0.000000e+00	3.417085e-01	5.759388e+14	2.071584e+15	9.612429e+14	2.418161e+04	1.476689e+04	3.060558e+03	0	1.149643e-03
1.100000e+09	1.978422e+13	0.000000e+00	3.417085e-01	5.720086e+14	2.062975e+15	9.570330e+14	2.415646e+04	1.476191e+04	3.059525e+03	0	1.142467e-03
1.110000e+09	1.941366e+13	0.000000e+00	3.417085e-01	5.681243e+14	2.054416e+15	9.528513e+14	2.413149e+04	1.475693e+04	3.058493e+03	0	1.135289e-03
1.120000e+09	1.904761e+13	0.000000e+00	3.417085e-01	5.642852e+14	2.045909e+15	9.486976e+14	2.410669e+04	1.475196e+04	3.057462e+03	0	1.128109e-03
1.130000e+09	1.868599e+13	0.000000e+00	3.417085e-01	5.604905e+14	2.037452e+15	9.445718e+14	2.408205e+04	1.474699e+04	3.056432e+03	0	1.120924e-03
1.140000e+09	1.832874e+13	0.000000e+00	3.417085e-01	5.567394e+14	2.029045e+15	9.404735e+14	2.405758e+04	1.474202e+04	3.055403e+03	0	1.113735e-03
1.150000e+09	1.797579e+13	0.000000e+00	3.417085e-01	5.530314e+14	2.020688e+15	9.364025e+14	2.403327e+04	1.473706e+04	3.054375e+03	0	1.106539e-03
1.160000e+09	1.762706e+13	0.000000e+00	3.417085e-01	5.493656e+14	2.012381e+15	9.323588e+14	2.400912e+04	1.473211e+04	3.053348e+03	0	1.099337e-03
1.170000e+09	1.728248e+13	0.000000e+00	3.417085e-01	5.457415e+14	2.004124e+15	9.283419e+14	2.398514e+04	1.472716e+04	3.052323e+03	0	1.092126e-03
1.180000e+09	1.694199e+13	0.000000e+00	3.417085e-01	5.421584e+14	1.995916e+15	9.243518e+14	2.396131e+04	1.472221e+04	3.051298e+03	0	1.084906e-03
1.190000e+09	1.660553e+13	0.000000e+00	3.417085e-01	5.386156e+14	1.987756e+15	9.203883e+14	2.393763e+04	1.471728e+04	3.050275e+03	0	1.077676e-03
1.200000e+09	1.627302e+13	0.000000e+00	3.417085e-01	5.351125e+14	1.979646e+15	9.164510e+14	2.391411e+04	1.471235e+04	3.049253e+03	0	1.070435e-03
1.210000e+09	1.594441e+13	0.000000e+00	3.417085e-01	5.316484e+14	1.971584e+15	9.125398e+14	2.389075e+04	1.470742e+04	3.048232e+03	0	1.063180e-03
1.220000e+09	1.561962e+13	0.000000e+00	3.417085e-01	5.282228e+14	1.963570e+15	9.086546e+14	2.386753e+04	1.470250e+04	3.047213e+03	0	1.055912e-03
1.230000e+09	1.529862e+13	0.000000e+00	3.417085e-01	5.248351e+14	1.955605e+15	9.047950e+14	2.384447e+04	1.469759e+04	3.046195e+03	0	1.048628e-03
1.240000e+09	1.498132e+13	0.000000e+00	3.417085e-01	5.214847e+14	1.947687e+15	9.009610e+14	2.382155e+04	1.469269e+04	3.045178e+03	0	1.041328e-03
1.250000e+09	1.466768e+13	0.000000e+00	3.417085e-01	5.181709e+14	1.939816e+15	8.971523e+14	2.379878e+04	1.468779e+04	3.044163e+03	0	1.034010e-03
1.260000e+09	1.435764e+13	0.000000e+00	3.417085e-01	5.148933e+14	1.931993e+15	8.933687e+14	2.377615e+04	1.468290e+04	3.043149e+03	0	1.026672e-03
1.270000e+09	1.405113e+13	0.000000e+00	3.417085e-01	5.116513e+14	1.924216e+15	8.896100e+14	2.375366e+04	1.467801e+04	3.042137e+03	0	1.019314e-03
1.280000e+09	1.374812e+13	0.000000e+00	3.417085e-01	5.084444e+14	1.916487e+15	8.858760e+14	2.373132e+04	1.467313e+04	3.041126e+03	0	1.011933e-03
1.290000e+09	1.344854e+13	0.000000e+00	3.417085e-01	5.052719e+14	1.908803e+15	8.821666e+14	2.370911e+04	1.466826e+04	3.040117e+03	0	1.004529e-03
1.300000e+09	1.315234e+13	0.000000e+00	3.417085e-01	5.021335e+14	1.901166e+15	8.784816e+14	2.368705e+04	1.466340e+04	3.039109e+03	0	9.970993e-04
1.310000e+09	1.285946e+13	0.000000e+00	3.417085e-01	4.990286e+14	1.893575e+15	8.748206e+14	2.366512e+04	1.465855e+04	3.038103e+03	0	9.896426e-04
1.320000e+09	1.256987e+13	0.000000e+00	3.417085e-01	4.959566e+14	1.886029e+15	8.711837e+14	2.364332e+04	1.465370e+04	3.037098e+03	0	9.821572e-04
1.330000e+09	1.228350e+13	0.000000e+00	3.417085e-01	4.929172e+14	1.878528e+15	8.675705e+14	2.362166e+04	1.464886e+04	3.036095e+03	0	9.746413e-04
1.340000e+09	1.200031e+13	0.000000e+00	3.417085e-01	4.899097e+14	1.871073e+15	8.639810e+14	2.360014e+04	1.464403e+04	3.035094e+03	0	9.670931e-04
1.350000e+09	1.172026e+13	0.000000e+00	3.417085e-01	4.869339e+14	1.863662e+15	8.604149e+14	2.357874e+04	1.463921e+04	3.034094e+03	0	9.595107e-04
1.360000e+09	1.144329e+13	0.000000e+00	3.417085e-01	4.839891e+14	1.856296e+15	8.568720e+14	2.355747e+04	1.463439e+04	3.033096e+03	0	9.518921e-04
