#t		Qconv[W]	Ri[Rp]		R*[Rp]		Qc[W]		Qm[W]		Qr[W]		Tcmb[K]		Tl[K]		Tup[K]		RiFlag		Bs[T]
0.000000e+00	4.565817e+12	0.000000e+00	3.517588e-01	1.259988e+14	3.811128e+15	3.811662e+14	9.100422e+03	5.323506e+03	2.405423e+03	0	7.214330e-04
1.000000e+07	4.417942e+12	0.000000e+00	3.517588e-01	1.221027e+14	3.461363e+15	3.790543e+14	9.070018e+03	5.228681e+03	2.362577e+03	0	7.135589e-04
2.000000e+07	4.276692e+12	0.000000e+00	3.517588e-01	1.183808e+14	3.165113e+15	3.769581e+14	9.040545e+03	5.143447e+03	2.324064e+03	0	7.058718e-04
3.000000e+07	4.142360e+12	0.000000e+00	3.517588e-01	1.148408e+14	2.911691e+15	3.748777e+14	9.011963e+03	5.066354e+03	2.289230e+03	0	6.984025e-04
4.000000e+07	4.014926e+12	0.000000e+00	3.517588e-01	1.114822e+14	2.692969e+15	3.728127e+14	8.984228e+03	4.996239e+03	2.257548e+03	0	6.911660e-04
5.000000e+07	3.894190e+12	0.000000e+00	3.517588e-01	1.082996e+14	2.502681e+15	3.707632e+14	8.957298e+03	4.932152e+03	2.228590e+03	0	6.841671e-04
6.000000e+07	3.779850e+12	0.000000e+00	3.517588e-01	1.052852e+14	2.335927e+15	3.687289e+14	8.931130e+03	4.873314e+03	2.202005e+03	0	6.774044e-04
7.000000e+07	3.671560e+12	0.000000e+00	3.517588e-01	1.024298e+14	2.188836e+15	3.667098e+14	8.905686e+03	4.819077e+03	2.177498e+03	0	6.708726e-04
8.000000e+07	3.568956e+12	0.000000e+00	3.517588e-01	9.972393e+13	2.058309e+15	3.647057e+14	8.880926e+03	4.768899e+03	2.154825e+03	0	6.645641e-04
9.000000e+07	3.471672e+12	0.000000e+00	3.517588e-01	9.715790e+13	1.941846e+15	3.627165e+14	8.856816e+03	4.722319e+03	2.133778e+03	0	6.584701e-04
1.000000e+08	3.379358e+12	0.000000e+00	3.517588e-01	9.472252e+13	1.837409e+15	3.607420e+14	8.833323e+03	4.678949e+03	2.114181e+03	0	6.525812e-04
1.100000e+08	3.291678e+12	0.000000e+00	3.517588e-01	9.240896e+13	1.743320e+15	3.587822e+14	8.810414e+03	4.638454e+03	2.095883e+03	0	6.468878e-04
1.200000e+08	3.208317e+12	0.000000e+00	3.517588e-01	9.020896e+13	1.658193e+15	3.568370e+14	8.788061e+03	4.600545e+03	2.078754e+03	0	6.413802e-04
1.300000e+08	3.128980e+12	0.000000e+00	3.517588e-01	8.811481e+13	1.580868e+15	3.549061e+14	8.766237e+03	4.564973e+03	2.062681e+03	0	6.360493e-04
1.400000e+08	3.053397e+12	0.000000e+00	3.517588e-01	8.611934e+13	1.510372e+15	3.529896e+14	8.744916e+03	4.531519e+03	2.047565e+03	0	6.308860e-04
1.500000e+08	2.981314e+12	0.000000e+00	3.517588e-01	8.421594e+13	1.445881e+15	3.510872e+14	8.724076e+03	4.499993e+03	2.033320e+03	0	6.258819e-04
1.600000e+08	2.912499e+12	0.000000e+00	3.517588e-01	8.239849e+13	1.386696e+15	3.491988e+14	8.703693e+03	4.470226e+03	2.019869e+03	0	6.210288e-04
1.700000e+08	2.846738e+12	0.000000e+00	3.517588e-01	8.066138e+13	1.332216e+15	3.473244e+14	8.683747e+03	4.442070e+03	2.007147e+03	0	6.163192e-04
1.800000e+08	2.783834e+12	0.000000e+00	3.517588e-01	7.899942e+13	1.281929e+15	3.454639e+14	8.664220e+03	4.415392e+03	1.995093e+03	0	6.117457e-04
1.900000e+08	2.723605e+12	0.000000e+00	3.517588e-01	7.740782e+13	1.235388e+15	3.436170e+14	8.645093e+03	4.390075e+03	1.983653e+03	0	6.073018e-04
2.000000e+08	2.665883e+12	0.000000e+00	3.517588e-01	7.588219e+13	1.192209e+15	3.417837e+14	8.626349e+03	4.366014e+03	1.972781e+03	0	6.029809e-04
2.100000e+08	2.610514e+12	0.000000e+00	3.517588e-01	7.441848e+13	1.152054e+15	3.399639e+14	8.607973e+03	4.343115e+03	1.962434e+03	0	5.987771e-04
2.200000e+08	2.557355e+12	0.000000e+00	3.517588e-01	7.301293e+13	1.114630e+15	3.381574e+14	8.589949e+03	4.321292e+03	1.952574e+03	0	5.946848e-04
2.300000e+08	2.506275e+12	0.000000e+00	3.517588e-01	7.166209e+13	1.079679e+15	3.363642e+14	8.572264e+03	4.300469e+03	1.943165e+03	0	5.906988e-04
2.400000e+08	2.457153e+12	0.000000e+00	3.517588e-01	7.036277e+13	1.046972e+15	3.345842e+14	8.554904e+03	4.280577e+03	1.934177e+03	0	5.868141e-04
2.500000e+08	2.409875e+12	0.000000e+00	3.517588e-01	6.911202e+13	1.016309e+15	3.328172e+14	8.537858e+03	4.261552e+03	1.925580e+03	0	5.830261e-04
2.600000e+08	2.364339e+12	0.000000e+00	3.517588e-01	6.790709e+13	9.875101e+14	3.310631e+14	8.521113e+03	4.243337e+03	1.917350e+03	0	5.793305e-04
2.700000e+08	2.320447e+12	0.000000e+00	3.517588e-01	6.674546e+13	9.604165e+14	3.293218e+14	8.504659e+03	4.225880e+03	1.909462e+03	0	5.757231e-04
2.800000e+08	2.278109e+12	0.000000e+00	3.517588e-01	6.562475e+13	9.348863e+14	3.275933e+14	8.488485e+03	4.209132e+03	1.901894e+03	0	5.722002e-04
2.900000e+08	2.237243e+12	0.000000e+00	3.517588e-01	6.454280e+13	9.107922e+14	3.258774e+14	8.472581e+03	4.193051e+03	1.894628e+03	0	5.687580e-04
3.000000e+08	2.197771e+12	0.000000e+00	3.517588e-01	6.349756e+13	8.880203e+14	3.241740e+14	8.456938e+03	4.177595e+03	1.887644e+03	0	5.653933e-04
3.100000e+08	2.159621e+12	0.000000e+00	3.517588e-01	6.248713e+13	8.664679e+14	3.224830e+14	8.441547e+03	4.162729e+03	1.880927e+03	0	5.621027e-04
3.200000e+08	2.122725e+12	0.000000e+00	3.517588e-01	6.150975e+13	8.460422e+14	3.208043e+14	8.426400e+03	4.148416e+03	1.874460e+03	0	5.588833e-04
3.300000e+08	2.087022e+12	0.000000e+00	3.517588e-01	6.056377e+13	8.266596e+14	3.191378e+14	8.411489e+03	4.134627e+03	1.868229e+03	0	5.557321e-04
3.400000e+08	2.052452e+12	0.000000e+00	3.517588e-01	5.964765e+13	8.082441e+14	3.174834e+14	8.396807e+03	4.121332e+03	1.862222e+03	0	5.526466e-04
3.500000e+08	2.018960e+12	0.000000e+00	3.517588e-01	5.875994e+13	7.907270e+14	3.158410e+14	8.382345e+03	4.108504e+03	1.856425e+03	0	5.496241e-04
3.600000e+08	1.986496e+12	0.000000e+00	3.517588e-01	5.789930e+13	7.740454e+14	3.142106e+14	8.368098e+03	4.096117e+03	1.850828e+03	0	5.466622e-04
3.700000e+08	1.955011e+12	0.000000e+00	3.517588e-01	5.706446e+13	7.581423e+14	3.125919e+14	8.354058e+03	4.084149e+03	1.845421e+03	0	5.437587e-04
3.800000e+08	1.924460e+12	0.000000e+00	3.517588e-01	5.625424e+13	7.429654e+14	3.109849e+14	8.340220e+03	4.072578e+03	1.840192e+03	0	5.409114e-04
3.900000e+08	1.894800e+12	0.000000e+00	3.517588e-01	5.546752e+13	7.284670e+14	3.093896e+14	8.326578e+03	4.061384e+03	1.835134e+03	0	5.381182e-04
4.000000e+08	1.865993e+12	0.000000e+00	3.517588e-01	5.470326e+13	7.146032e+14	3.078058e+14	8.313126e+03	4.050547e+03	1.830238e+03	0	5.353771e-04
4.100000e+08	1.837999e+12	0.000000e+00	3.517588e-01	5.396046e+13	7.013340e+14	3.062334e+14	8.299859e+03	4.040051e+03	1.825495e+03	0	5.326864e-04
4.200000e+08	1.810785e+12	0.000000e+00	3.517588e-01	5.323820e+13	6.886223e+14	3.046723e+14	8.286770e+03	4.029879e+03	1.820899e+03	0	5.300443e-04
4.300000e+08	1.784317e+12	0.000000e+00	3.517588e-01	5.253562e+13	6.764341e+14	3.031225e+14	8.273857e+03	4.020015e+03	1.816442e+03	0	5.274490e-04
4.400000e+08	1.758563e+12	0.000000e+00	3.517588e-01	5.185187e+13	6.647379e+14	3.015838e+14	8.261113e+03	4.010445e+03	1.812118e+03	0	5.248991e-04
4.500000e+08	1.733494e+12	0.000000e+00	3.517588e-01	5.118618e+13	6.535049e+14	3.000562e+14	8.248534e+03	4.001155e+03	1.807920e+03	0	5.223930e-04
4.600000e+08	1.709082e+12	0.000000e+00	3.517588e-01	5.053783e+13	6.427080e+14	2.985396e+14	8.236117e+03	3.992133e+03	1.803843e+03	0	5.199292e-04
4.700000e+08	1.685301e+12	0.000000e+00	3.517588e-01	4.990610e+13	6.323226e+14	2.970338e+14	8.223856e+03	3.983367e+03	1.799882e+03	0	5.175063e-04
4.800000e+08	1.662125e+12	0.000000e+00	3.517588e-01	4.929035e+13	6.223255e+14	2.955388e+14	8.211747e+03	3.974845e+03	1.796032e+03	0	5.151232e-04
4.900000e+08	1.639531e+12	0.000000e+00	3.517588e-01	4.868995e+13	6.126954e+14	2.940545e+14	8.199788e+03	3.966556e+03	1.792286e+03	0	5.127784e-04
5.000000e+08	1.617497e+12	0.000000e+00	3.517588e-01	4.810430e+13	6.034123e+14	2.925809e+14	8.187973e+03	3.958491e+03	1.788642e+03	0	5.104709e-04
5.100000e+08	1.596000e+12	0.000000e+00	3.517588e-01	4.753286e+13	5.944578e+14	2.911177e+14	8.176301e+03	3.950641e+03	1.785095e+03	0	5.081994e-04
5.200000e+08	1.575021e+12	0.000000e+00	3.517588e-01	4.697508e+13	5.858145e+14	2.896650e+14	8.164766e+03	3.942995e+03	1.781640e+03	0	5.059629e-04
5.300000e+08	1.554541e+12	0.000000e+00	3.517588e-01	4.643046e+13	5.774664e+14	2.882227e+14	8.153366e+03	3.935546e+03	1.778275e+03	0	5.037603e-04
5.400000e+08	1.534542e+12	0.000000e+00	3.517588e-01	4.589853e+13	5.693984e+14	2.867906e+14	8.142098e+03	3.928286e+03	1.774994e+03	0	5.015906e-04
5.500000e+08	1.515005e+12	0.000000e+00	3.517588e-01	4.537881e+13	5.615966e+14	2.853688e+14	8.130959e+03	3.921208e+03	1.771796e+03	0	4.994529e-04
5.600000e+08	1.495915e+12	0.000000e+00	3.517588e-01	4.487089e+13	5.540476e+14	2.839570e+14	8.119945e+03	3.914303e+03	1.768676e+03	0	4.973462e-04
5.700000e+08	1.477256e+12	0.000000e+00	3.517588e-01	4.437435e+13	5.467392e+14	2.825553e+14	8.109054e+03	3.907565e+03	1.765631e+03	0	4.952697e-04
5.800000e+08	1.459013e+12	0.000000e+00	3.517588e-01	4.388878e+13	5.396599e+14	2.811635e+14	8.098284e+03	3.900988e+03	1.762660e+03	0	4.932225e-04
5.900000e+08	1.441172e+12	0.000000e+00	3.517588e-01	4.341383e+13	5.327988e+14	2.797815e+14	8.087630e+03	3.894566e+03	1.759758e+03	0	4.912038e-04
6.000000e+08	1.423718e+12	0.000000e+00	3.517588e-01	4.294912e+13	5.261457e+14	2.784094e+14	8.077092e+03	3.888292e+03	1.756923e+03	0	4.892128e-04
6.100000e+08	1.406640e+12	0.000000e+00	3.517588e-01	4.249431e+13	5.196911e+14	2.770470e+14	8.066666e+03	3.882161e+03	1.754153e+03	0	4.872488e-04
6.200000e+08	1.389924e+12	0.000000e+00	3.517588e-01	4.204909e+13	5.134259e+14	2.756942e+14	8.056350e+03	3.876169e+03	1.751445e+03	0	4.853110e-04
6.300000e+08	1.373558e+12	0.000000e+00	3.517588e-01	4.161313e+13	5.073417e+14	2.743509e+14	8.046142e+03	3.870309e+03	1.748797e+03	0	4.833988e-04
6.400000e+08	1.357533e+12	0.000000e+00	3.517588e-01	4.118614e+13	5.014305e+14	2.730171e+14	8.036040e+03	3.864577e+03	1.746207e+03	0	4.815114e-04
6.500000e+08	1.341836e+12	0.000000e+00	3.517588e-01	4.076783e+13	4.956847e+14	2.716927e+14	8.026040e+03	3.858969e+03	1.743673e+03	0	4.796483e-04
6.600000e+08	1.326457e+12	0.000000e+00	3.517588e-01	4.035792e+13	4.900972e+14	2.703776e+14	8.016142e+03	3.853479e+03	1.741193e+03	0	4.778088e-04
6.700000e+08	1.311386e+12	0.000000e+00	3.517588e-01	3.995617e+13	4.846614e+14	2.690718e+14	8.006343e+03	3.848105e+03	1.738764e+03	0	4.759924e-04
6.800000e+08	1.296614e+12	0.000000e+00	3.517588e-01	3.956231e+13	4.793707e+14	2.677752e+14	7.996642e+03	3.842841e+03	1.736386e+03	0	4.741984e-04
6.900000e+08	1.282132e+12	0.000000e+00	3.517588e-01	3.917611e+13	4.742194e+14	2.664876e+14	7.987036e+03	3.837685e+03	1.734056e+03	0	4.724263e-04
7.000000e+08	1.267930e+12	0.000000e+00	3.517588e-01	3.879734e+13	4.692015e+14	2.652091e+14	7.977523e+03	3.832632e+03	1.731773e+03	0	4.706755e-04
7.100000e+08	1.254001e+12	0.000000e+00	3.517588e-01	3.842577e+13	4.643119e+14	2.639395e+14	7.968102e+03	3.827680e+03	1.729535e+03	0	4.689456e-04
7.200000e+08	1.240337e+12	0.000000e+00	3.517588e-01	3.806119e+13	4.595453e+14	2.626788e+14	7.958771e+03	3.822824e+03	1.727341e+03	0	4.672361e-04
7.300000e+08	1.226929e+12	0.000000e+00	3.517588e-01	3.770340e+13	4.548969e+14	2.614269e+14	7.949528e+03	3.818061e+03	1.725189e+03	0	4.655464e-04
7.400000e+08	1.213771e+12	0.000000e+00	3.517588e-01	3.735220e+13	4.503621e+14	2.601837e+14	7.940372e+03	3.813390e+03	1.723078e+03	0	4.638762e-04
7.500000e+08	1.200855e+12	0.000000e+00	3.517588e-01	3.700742e+13	4.459366e+14	2.589492e+14	7.931300e+03	3.808805e+03	1.721007e+03	0	4.622249e-04
7.600000e+08	1.188174e+12	0.000000e+00	3.517588e-01	3.666885e+13	4.416162e+14	2.577234e+14	7.922313e+03	3.804306e+03	1.718974e+03	0	4.605921e-04
7.700000e+08	1.175722e+12	0.000000e+00	3.517588e-01	3.633634e+13	4.373970e+14	2.565060e+14	7.913407e+03	3.799889e+03	1.716978e+03	0	4.589774e-04
7.800000e+08	1.163492e+12	0.000000e+00	3.517588e-01	3.600971e+13	4.332752e+14	2.552971e+14	7.904582e+03	3.795551e+03	1.715018e+03	0	4.573805e-04
7.900000e+08	1.151479e+12	0.000000e+00	3.517588e-01	3.568880e+13	4.292472e+14	2.540966e+14	7.895836e+03	3.791290e+03	1.713093e+03	0	4.558008e-04
8.000000e+08	1.139675e+12	0.000000e+00	3.517588e-01	3.537346e+13	4.253097e+14	2.529044e+14	7.887167e+03	3.787105e+03	1.711201e+03	0	4.542381e-04
8.100000e+08	1.128077e+12	0.000000e+00	3.517588e-01	3.506354e+13	4.214594e+14	2.517205e+14	7.878575e+03	3.782991e+03	1.709343e+03	0	4.526920e-04
8.200000e+08	1.116678e+12	0.000000e+00	3.517588e-01	3.475889e+13	4.176933e+14	2.505448e+14	7.870058e+03	3.778948e+03	1.707516e+03	0	4.511620e-04
8.300000e+08	1.105473e+12	0.000000e+00	3.517588e-01	3.445938e+13	4.140083e+14	2.493772e+14	7.861615e+03	3.774973e+03	1.705720e+03	0	4.496479e-04
8.400000e+08	1.094457e+12	0.000000e+00	3.517588e-01	3.416488e+13	4.104017e+14	2.482177e+14	7.853245e+03	3.771065e+03	1.703954e+03	0	4.481494e-04
8.500000e+08	1.083625e+12	0.000000e+00	3.517588e-01	3.387524e+13	4.068708e+14	2.470661e+14	7.844946e+03	3.767220e+03	1.702217e+03	0	4.466660e-04
8.600000e+08	1.072973e+12	0.000000e+00	3.517588e-01	3.359036e+13	4.034131e+14	2.459225e+14	7.836716e+03	3.763438e+03	1.700508e+03	0	4.451975e-04
8.700000e+08	1.062495e+12	0.000000e+00	3.517588e-01	3.331010e+13	4.000260e+14	2.447868e+14	7.828556e+03	3.759716e+03	1.698826e+03	0	4.437436e-04
8.800000e+08	1.052188e+12	0.000000e+00	3.517588e-01	3.303436e+13	3.967073e+14	2.436589e+14	7.820464e+03	3.756054e+03	1.697171e+03	0	4.423040e-04
8.900000e+08	1.042047e+12	0.000000e+00	3.517588e-01	3.276301e+13	3.934547e+14	2.425388e+14	7.812439e+03	3.752448e+03	1.695542e+03	0	4.408784e-04
9.000000e+08	1.032067e+12	0.000000e+00	3.517588e-01	3.249596e+13	3.902661e+14	2.414263e+14	7.804479e+03	3.748898e+03	1.693938e+03	0	4.394666e-04
9.100000e+08	1.022246e+12	0.000000e+00	3.517588e-01	3.223310e+13	3.871394e+14	2.403214e+14	7.796584e+03	3.745402e+03	1.692358e+03	0	4.380682e-04
9.200000e+08	1.012580e+12	0.000000e+00	3.517588e-01	3.197432e+13	3.840726e+14	2.392242e+14	7.788753e+03	3.741958e+03	1.690802e+03	0	4.366829e-04
9.300000e+08	1.003063e+12	0.000000e+00	3.517588e-01	3.171953e+13	3.810639e+14	2.381344e+14	7.780985e+03	3.738566e+03	1.689269e+03	0	4.353106e-04
9.400000e+08	9.936940e+11	0.000000e+00	3.517588e-01	3.146864e+13	3.781115e+14	2.370521e+14	7.773278e+03	3.735223e+03	1.687759e+03	0	4.339510e-04
9.500000e+08	9.844682e+11	0.000000e+00	3.517588e-01	3.122155e+13	3.752137e+14	2.359771e+14	7.765632e+03	3.731929e+03	1.686270e+03	0	4.326039e-04
9.600000e+08	9.753825e+11	0.000000e+00	3.517588e-01	3.097817e+13	3.723687e+14	2.349095e+14	7.758046e+03	3.728682e+03	1.684803e+03	0	4.312689e-04
9.700000e+08	9.664337e+11	0.000000e+00	3.517588e-01	3.073842e+13	3.695751e+14	2.338492e+14	7.750519e+03	3.725481e+03	1.683357e+03	0	4.299459e-04
9.800000e+08	9.576186e+11	0.000000e+00	3.517588e-01	3.050221e+13	3.668312e+14	2.327961e+14	7.743050e+03	3.722324e+03	1.681930e+03	0	4.286347e-04
9.900000e+08	9.489342e+11	0.000000e+00	3.517588e-01	3.026947e+13	3.641356e+14	2.317501e+14	7.735638e+03	3.719210e+03	1.680523e+03	0	4.273351e-04
1.000000e+09	9.403775e+11	0.000000e+00	3.517588e-01	3.004011e+13	3.614869e+14	2.307113e+14	7.728283e+03	3.716140e+03	1.679136e+03	0	4.260467e-04
1.010000e+09	9.319456e+11	0.000000e+00	3.517588e-01	2.981407e+13	3.588837e+14	2.296794e+14	7.720983e+03	3.713110e+03	1.677767e+03	0	4.247695e-04
1.020000e+09	9.236359e+11	0.000000e+00	3.517588e-01	2.959126e+13	3.563248e+14	2.286546e+14	7.713739e+03	3.710120e+03	1.676416e+03	0	4.235033e-04
1.030000e+09	9.154455e+11	0.000000e+00	3.517588e-01	2.937162e+13	3.538089e+14	2.276367e+14	7.706548e+03	3.707170e+03	1.675083e+03	0	4.222477e-04
1.040000e+09	9.073718e+11	0.000000e+00	3.517588e-01	2.915507e+13	3.513348e+14	2.266257e+14	7.699410e+03	3.704258e+03	1.673767e+03	0	4.210028e-04
1.050000e+09	8.994124e+11	0.000000e+00	3.517588e-01	2.894156e+13	3.489012e+14	2.256215e+14	7.692325e+03	3.701383e+03	1.672468e+03	0	4.197681e-04
1.060000e+09	8.915648e+11	0.000000e+00	3.517588e-01	2.873101e+13	3.465072e+14	2.246241e+14	7.685291e+03	3.698545e+03	1.671186e+03	0	4.185437e-04
1.070000e+09	8.838266e+11	0.000000e+00	3.517588e-01	2.852336e+13	3.441516e+14	2.236334e+14	7.678309e+03	3.695742e+03	1.669919e+03	0	4.173293e-04
1.080000e+09	8.761954e+11	0.000000e+00	3.517588e-01	2.831855e+13	3.418334e+14	2.226494e+14	7.671377e+03	3.692974e+03	1.668668e+03	0	4.161247e-04
1.090000e+09	8.686690e+11	0.000000e+00	3.517588e-01	2.811652e+13	3.395517e+14	2.216720e+14	7.664495e+03	3.690239e+03	1.667433e+03	0	4.149298e-04
1.100000e+09	8.612452e+11	0.000000e+00	3.517588e-01	2.791722e+13	3.373053e+14	2.207011e+14	7.657661e+03	3.687538e+03	1.666212e+03	0	4.137444e-04
1.110000e+09	8.539220e+11	0.000000e+00	3.517588e-01	2.772058e+13	3.350935e+14	2.197368e+14	7.650876e+03	3.684868e+03	1.665006e+03	0	4.125683e-04
1.120000e+09	8.466971e+11	0.000000e+00	3.517588e-01	2.752656e+13	3.329152e+14	2.187789e+14	7.644139e+03	3.682231e+03	1.663814e+03	0	4.114015e-04
1.130000e+09	8.395687e+11	0.000000e+00	3.517588e-01	2.733509e+13	3.307698e+14	2.178275e+14	7.637449e+03	3.679623e+03	1.662636e+03	0	4.102437e-04
1.140000e+09	8.325348e+11	0.000000e+00	3.517588e-01	2.714613e+13	3.286562e+14	2.168824e+14	7.630805e+03	3.677046e+03	1.661472e+03	0	4.090948e-04
1.150000e+09	8.255934e+11	0.000000e+00	3.517588e-01	2.695964e+13	3.265738e+14	2.159436e+14	7.624207e+03	3.674498e+03	1.660320e+03	0	4.079547e-04
1.160000e+09	8.187427e+11	0.000000e+00	3.517588e-01	2.677555e+13	3.245217e+14	2.150110e+14	7.617654e+03	3.671979e+03	1.659182e+03	0	4.068231e-04
1.170000e+09	8.119810e+11	0.000000e+00	3.517588e-01	2.659382e+13	3.224991e+14	2.140847e+14	7.611146e+03	3.669488e+03	1.658056e+03	0	4.057001e-04
1.180000e+09	8.053065e+11	0.000000e+00	3.517588e-01	2.641440e+13	3.205055e+14	2.131645e+14	7.604682e+03	3.667024e+03	1.656943e+03	0	4.045854e-04
1.190000e+09	7.987174e+11	0.000000e+00	3.517588e-01	2.623726e+13	3.185400e+14	2.122505e+14	7.598261e+03	3.664587e+03	1.655842e+03	0	4.034790e-04
1.200000e+09	7.922122e+11	0.000000e+00	3.517588e-01	2.606234e+13	3.166020e+14	2.113425e+14	7.591884e+03	3.662176e+03	1.654753e+03	0	4.023806e-04
1.210000e+09	7.857892e+11	0.000000e+00	3.517588e-01	2.588961e+13	3.146909e+14	2.104406e+14	7.585548e+03	3.659791e+03	1.653675e+03	0	4.012902e-04
1.220000e+09	7.794468e+11	0.000000e+00	3.517588e-01	2.571902e+13	3.128059e+14	2.095446e+14	7.579255e+03	3.657431e+03	1.652608e+03	0	4.002076e-04
1.230000e+09	7.731836e+11	0.000000e+00	3.517588e-01	2.555053e+13	3.109466e+14	2.086546e+14	7.573003e+03	3.655095e+03	1.651553e+03	0	3.991328e-04
1.240000e+09	7.669979e+11	0.000000e+00	3.517588e-01	2.538411e+13	3.091122e+14	2.077704e+14	7.566792e+03	3.652783e+03	1.650508e+03	0	3.980655e-04
1.250000e+09	7.608884e+11	0.000000e+00	3.517588e-01	2.521970e+13	3.073022e+14	2.068921e+14	7.560621e+03	3.650495e+03	1.649474e+03	0	3.970058e-04
1.260000e+09	7.548537e+11	0.000000e+00	3.517588e-01	2.505729e+13	3.055162e+14	2.060195e+14	7.554490e+03	3.648230e+03	1.648451e+03	0	3.959534e-04
1.270000e+09	7.488924e+11	0.000000e+00	3.517588e-01	2.489682e+13	3.037534e+14	2.051527e+14	7.548399e+03	3.645987e+03	1.647438e+03	0	3.949083e-04
1.280000e+09	7.430031e+11	0.000000e+00	3.517588e-01	2.473828e+13	3.020135e+14	2.042917e+14	7.542347e+03	3.643766e+03	1.646434e+03	0	3.938704e-04
1.290000e+09	7.371845e+11	0.000000e+00	3.517588e-01	2.458161e+13	3.002958e+14	2.034362e+14	7.536333e+03	3.641567e+03	1.645440e+03	0	3.928396e-04
1.300000e+09	7.314354e+11	0.000000e+00	3.517588e-01	2.442678e+13	2.986000e+14	2.025864e+14	7.530357e+03	3.639389e+03	1.644456e+03	0	3.918157e-04
1.310000e+09	7.257545e+11	0.000000e+00	3.517588e-01	2.427377e+13	2.969255e+14	2.017422e+14	7.524418e+03	3.637232e+03	1.643482e+03	0	3.907987e-04
1.320000e+09	7.201405e+11	0.000000e+00	3.517588e-01	2.412254e+13	2.952719e+14	2.009035e+14	7.518517e+03	3.635095e+03	1.642516e+03	0	3.897884e-04
1.330000e+09	7.145924e+11	0.000000e+00	3.517588e-01	2.397306e+13	2.936387e+14	2.000702e+14	7.512652e+03	3.632978e+03	1.641559e+03	0	3.887848e-04
1.340000e+09	7.091089e+11	0.000000e+00	3.517588e-01	2.382530e+13	2.920256e+14	1.992424e+14	7.506824e+03	3.630880e+03	1.640612e+03	0	3.877878e-04
1.350000e+09	7.036889e+11	0.000000e+00	3.517588e-01	2.367923e+13	2.904320e+14	1.984201e+14	7.501031e+03	3.628802e+03	1.639672e+03	0	3.867973e-04
1.360000e+09	6.983312e+11	0.000000e+00	3.517588e-01	2.353482e+13	2.888575e+14	1.976030e+14	7.495274e+03	3.626742e+03	1.638742e+03	0	3.858131e-04
