#t		Qconv[W]	Ri[Rp]		R*[Rp]		Qc[W]		Qm[W]		Qr[W]		Tcmb[K]		Tl[K]		Tup[K]		RiFlag		Bs[T]
0.000000e+00	5.607547e+12	0.000000e+00	3.517588e-01	1.461137e+14	3.998911e+15	4.141233e+14	9.604101e+03	5.568144e+03	2.436914e+03	0	7.690294e-04
1.000000e+07	5.429076e+12	0.000000e+00	3.517588e-01	1.416910e+14	3.652653e+15	4.118288e+14	9.572093e+03	5.475863e+03	2.396527e+03	0	7.607827e-04
2.000000e+07	5.258875e+12	0.000000e+00	3.517588e-01	1.374728e+14	3.356788e+15	4.095514e+14	9.541045e+03	5.392451e+03	2.360022e+03	0	7.527480e-04
3.000000e+07	5.097068e+12	0.000000e+00	3.517588e-01	1.334622e+14	3.101703e+15	4.072910e+14	9.510913e+03	5.316631e+03	2.326839e+03	0	7.449471e-04
4.000000e+07	4.943503e+12	0.000000e+00	3.517588e-01	1.296553e+14	2.879992e+15	4.050475e+14	9.481653e+03	5.247366e+03	2.296525e+03	0	7.373895e-04
5.000000e+07	4.797878e+12	0.000000e+00	3.517588e-01	1.260446e+14	2.685875e+15	4.028208e+14	9.453221e+03	5.183801e+03	2.268706e+03	0	7.300765e-04
6.000000e+07	4.659804e+12	0.000000e+00	3.517588e-01	1.226206e+14	2.514786e+15	4.006106e+14	9.425574e+03	5.125229e+03	2.243071e+03	0	7.230048e-04
7.000000e+07	4.528861e+12	0.000000e+00	3.517588e-01	1.193729e+14	2.363081e+15	3.984169e+14	9.398673e+03	5.071058e+03	2.219363e+03	0	7.161681e-04
8.000000e+07	4.404615e+12	0.000000e+00	3.517588e-01	1.162907e+14	2.227816e+15	3.962395e+14	9.372479e+03	5.020787e+03	2.197362e+03	0	7.095581e-04
9.000000e+07	4.286640e+12	0.000000e+00	3.517588e-01	1.133636e+14	2.106597e+15	3.940783e+14	9.346957e+03	4.973990e+03	2.176881e+03	0	7.031657e-04
1.000000e+08	4.174529e+12	0.000000e+00	3.517588e-01	1.105814e+14	1.997456e+15	3.919332e+14	9.322074e+03	4.930305e+03	2.157762e+03	0	6.969813e-04
1.100000e+08	4.067892e+12	0.000000e+00	3.517588e-01	1.079345e+14	1.898766e+15	3.898039e+14	9.297796e+03	4.889417e+03	2.139867e+03	0	6.909953e-04
1.200000e+08	3.966366e+12	0.000000e+00	3.517588e-01	1.054140e+14	1.809169e+15	3.876905e+14	9.274096e+03	4.851055e+03	2.123078e+03	0	6.851982e-04
1.300000e+08	3.869611e+12	0.000000e+00	3.517588e-01	1.030115e+14	1.727524e+15	3.855927e+14	9.250946e+03	4.814981e+03	2.107291e+03	0	6.795808e-04
1.400000e+08	3.777313e+12	0.000000e+00	3.517588e-01	1.007193e+14	1.652869e+15	3.835104e+14	9.228321e+03	4.780990e+03	2.092414e+03	0	6.741341e-04
1.500000e+08	3.689179e+12	0.000000e+00	3.517588e-01	9.852998e+13	1.584385e+15	3.814435e+14	9.206196e+03	4.748898e+03	2.078369e+03	0	6.688497e-04
1.600000e+08	3.604942e+12	0.000000e+00	3.517588e-01	9.643705e+13	1.521373e+15	3.793919e+14	9.184549e+03	4.718544e+03	2.065084e+03	0	6.637197e-04
1.700000e+08	3.524351e+12	0.000000e+00	3.517588e-01	9.443433e+13	1.463231e+15	3.773554e+14	9.163359e+03	4.689785e+03	2.052498e+03	0	6.587364e-04
1.800000e+08	3.447177e+12	0.000000e+00	3.517588e-01	9.251614e+13	1.409441e+15	3.753340e+14	9.142607e+03	4.662494e+03	2.040554e+03	0	6.538927e-04
1.900000e+08	3.373208e+12	0.000000e+00	3.517588e-01	9.067724e+13	1.359553e+15	3.733274e+14	9.122274e+03	4.636557e+03	2.029203e+03	0	6.491818e-04
2.000000e+08	3.302248e+12	0.000000e+00	3.517588e-01	8.891281e+13	1.313175e+15	3.713356e+14	9.102343e+03	4.611872e+03	2.018399e+03	0	6.445974e-04
2.100000e+08	3.234118e+12	0.000000e+00	3.517588e-01	8.721837e+13	1.269965e+15	3.693584e+14	9.082798e+03	4.588347e+03	2.008103e+03	0	6.401335e-04
2.200000e+08	3.168649e+12	0.000000e+00	3.517588e-01	8.558981e+13	1.229621e+15	3.673958e+14	9.063623e+03	4.565900e+03	1.998279e+03	0	6.357846e-04
2.300000e+08	3.105687e+12	0.000000e+00	3.517588e-01	8.402329e+13	1.191879e+15	3.654476e+14	9.044804e+03	4.544455e+03	1.988894e+03	0	6.315453e-04
2.400000e+08	3.045089e+12	0.000000e+00	3.517588e-01	8.251529e+13	1.156504e+15	3.635136e+14	9.026328e+03	4.523944e+03	1.979917e+03	0	6.274107e-04
2.500000e+08	2.986722e+12	0.000000e+00	3.517588e-01	8.106252e+13	1.123288e+15	3.615938e+14	9.008182e+03	4.504305e+03	1.971322e+03	0	6.233762e-04
2.600000e+08	2.930464e+12	0.000000e+00	3.517588e-01	7.966195e+13	1.092047e+15	3.596881e+14	8.990354e+03	4.485482e+03	1.963084e+03	0	6.194374e-04
2.700000e+08	2.876199e+12	0.000000e+00	3.517588e-01	7.831074e+13	1.062616e+15	3.577963e+14	8.972833e+03	4.467424e+03	1.955181e+03	0	6.155901e-04
2.800000e+08	2.823822e+12	0.000000e+00	3.517588e-01	7.700629e+13	1.034847e+15	3.559183e+14	8.955607e+03	4.450082e+03	1.947591e+03	0	6.118305e-04
2.900000e+08	2.773234e+12	0.000000e+00	3.517588e-01	7.574613e+13	1.008607e+15	3.540540e+14	8.938667e+03	4.433414e+03	1.940296e+03	0	6.081548e-04
3.000000e+08	2.724343e+12	0.000000e+00	3.517588e-01	7.452799e+13	9.837780e+14	3.522033e+14	8.922003e+03	4.417379e+03	1.933279e+03	0	6.045598e-04
3.100000e+08	2.677062e+12	0.000000e+00	3.517588e-01	7.334974e+13	9.602517e+14	3.503661e+14	8.905605e+03	4.401941e+03	1.926522e+03	0	6.010420e-04
3.200000e+08	2.631312e+12	0.000000e+00	3.517588e-01	7.220941e+13	9.379312e+14	3.485423e+14	8.889466e+03	4.387067e+03	1.920012e+03	0	5.975984e-04
3.300000e+08	2.587017e+12	0.000000e+00	3.517588e-01	7.110513e+13	9.167286e+14	3.467317e+14	8.873577e+03	4.372723e+03	1.913735e+03	0	5.942261e-04
3.400000e+08	2.544108e+12	0.000000e+00	3.517588e-01	7.003518e+13	8.965641e+14	3.449343e+14	8.857929e+03	4.358883e+03	1.907678e+03	0	5.909224e-04
3.500000e+08	2.502518e+12	0.000000e+00	3.517588e-01	6.899792e+13	8.773649e+14	3.431499e+14	8.842516e+03	4.345517e+03	1.901828e+03	0	5.876847e-04
3.600000e+08	2.462186e+12	0.000000e+00	3.517588e-01	6.799184e+13	8.590649e+14	3.413784e+14	8.827330e+03	4.332602e+03	1.896176e+03	0	5.845104e-04
3.700000e+08	2.423053e+12	0.000000e+00	3.517588e-01	6.701550e+13	8.416037e+14	3.396198e+14	8.812365e+03	4.320114e+03	1.890710e+03	0	5.813973e-04
3.800000e+08	2.385067e+12	0.000000e+00	3.517588e-01	6.606756e+13	8.249259e+14	3.378739e+14	8.797613e+03	4.308032e+03	1.885422e+03	0	5.783430e-04
3.900000e+08	2.348175e+12	0.000000e+00	3.517588e-01	6.514675e+13	8.089809e+14	3.361406e+14	8.783070e+03	4.296334e+03	1.880303e+03	0	5.753456e-04
4.000000e+08	2.312330e+12	0.000000e+00	3.517588e-01	6.425190e+13	7.937222e+14	3.344198e+14	8.768728e+03	4.285003e+03	1.875344e+03	0	5.724030e-04
4.100000e+08	2.277487e+12	0.000000e+00	3.517588e-01	6.338187e+13	7.791069e+14	3.327115e+14	8.754582e+03	4.274020e+03	1.870537e+03	0	5.695134e-04
4.200000e+08	2.243602e+12	0.000000e+00	3.517588e-01	6.253562e+13	7.650958e+14	3.310154e+14	8.740628e+03	4.263369e+03	1.865876e+03	0	5.666748e-04
4.300000e+08	2.210635e+12	0.000000e+00	3.517588e-01	6.171214e+13	7.516525e+14	3.293316e+14	8.726859e+03	4.253034e+03	1.861353e+03	0	5.638856e-04
4.400000e+08	2.178550e+12	0.000000e+00	3.517588e-01	6.091051e+13	7.387435e+14	3.276599e+14	8.713270e+03	4.243001e+03	1.856962e+03	0	5.611442e-04
4.500000e+08	2.147308e+12	0.000000e+00	3.517588e-01	6.012982e+13	7.263377e+14	3.260002e+14	8.699857e+03	4.233256e+03	1.852697e+03	0	5.584489e-04
4.600000e+08	2.116877e+12	0.000000e+00	3.517588e-01	5.936925e+13	7.144064e+14	3.243524e+14	8.686616e+03	4.223786e+03	1.848552e+03	0	5.557983e-04
4.700000e+08	2.087225e+12	0.000000e+00	3.517588e-01	5.862798e+13	7.029231e+14	3.227165e+14	8.673541e+03	4.214579e+03	1.844523e+03	0	5.531910e-04
4.800000e+08	2.058321e+12	0.000000e+00	3.517588e-01	5.790528e+13	6.918629e+14	3.210922e+14	8.660629e+03	4.205624e+03	1.840604e+03	0	5.506255e-04
4.900000e+08	2.030136e+12	0.000000e+00	3.517588e-01	5.720043e+13	6.812029e+14	3.194796e+14	8.647876e+03	4.196910e+03	1.836790e+03	0	5.481007e-04
5.000000e+08	2.002643e+12	0.000000e+00	3.517588e-01	5.651274e+13	6.709217e+14	3.178785e+14	8.635277e+03	4.188426e+03	1.833077e+03	0	5.456152e-04
5.100000e+08	1.975816e+12	0.000000e+00	3.517588e-01	5.584159e+13	6.609994e+14	3.162889e+14	8.622830e+03	4.180163e+03	1.829460e+03	0	5.431679e-04
5.200000e+08	1.949630e+12	0.000000e+00	3.517588e-01	5.518635e+13	6.514174e+14	3.147106e+14	8.610529e+03	4.172112e+03	1.825937e+03	0	5.407577e-04
5.300000e+08	1.924061e+12	0.000000e+00	3.517588e-01	5.454644e+13	6.421583e+14	3.131435e+14	8.598373e+03	4.164264e+03	1.822502e+03	0	5.383833e-04
5.400000e+08	1.899088e+12	0.000000e+00	3.517588e-01	5.392132e+13	6.332058e+14	3.115877e+14	8.586356e+03	4.156612e+03	1.819153e+03	0	5.360439e-04
5.500000e+08	1.874689e+12	0.000000e+00	3.517588e-01	5.331045e+13	6.245449e+14	3.100428e+14	8.574477e+03	4.149146e+03	1.815886e+03	0	5.337384e-04
5.600000e+08	1.850845e+12	0.000000e+00	3.517588e-01	5.271334e+13	6.161613e+14	3.085090e+14	8.562733e+03	4.141861e+03	1.812698e+03	0	5.314658e-04
5.700000e+08	1.827535e+12	0.000000e+00	3.517588e-01	5.212951e+13	6.080416e+14	3.069861e+14	8.551119e+03	4.134750e+03	1.809585e+03	0	5.292252e-04
5.800000e+08	1.804741e+12	0.000000e+00	3.517588e-01	5.155851e+13	6.001733e+14	3.054739e+14	8.539633e+03	4.127804e+03	1.806545e+03	0	5.270158e-04
5.900000e+08	1.782446e+12	0.000000e+00	3.517588e-01	5.099990e+13	5.925448e+14	3.039725e+14	8.528273e+03	4.121019e+03	1.803576e+03	0	5.248366e-04
6.000000e+08	1.760633e+12	0.000000e+00	3.517588e-01	5.045327e+13	5.851449e+14	3.024817e+14	8.517036e+03	4.114388e+03	1.800674e+03	0	5.226869e-04
6.100000e+08	1.739287e+12	0.000000e+00	3.517588e-01	4.991821e+13	5.779633e+14	3.010015e+14	8.505918e+03	4.107906e+03	1.797837e+03	0	5.205659e-04
6.200000e+08	1.718391e+12	0.000000e+00	3.517588e-01	4.939437e+13	5.709902e+14	2.995317e+14	8.494918e+03	4.101567e+03	1.795063e+03	0	5.184728e-04
6.300000e+08	1.697932e+12	0.000000e+00	3.517588e-01	4.888136e+13	5.642164e+14	2.980723e+14	8.484034e+03	4.095367e+03	1.792349e+03	0	5.164069e-04
6.400000e+08	1.677895e+12	0.000000e+00	3.517588e-01	4.837886e+13	5.576331e+14	2.966232e+14	8.473261e+03	4.089299e+03	1.789693e+03	0	5.143675e-04
6.500000e+08	1.658267e+12	0.000000e+00	3.517588e-01	4.788652e+13	5.512322e+14	2.951843e+14	8.462600e+03	4.083360e+03	1.787094e+03	0	5.123540e-04
6.600000e+08	1.639035e+12	0.000000e+00	3.517588e-01	4.740403e+13	5.450059e+14	2.937555e+14	8.452046e+03	4.077545e+03	1.784549e+03	0	5.103656e-04
6.700000e+08	1.620187e+12	0.000000e+00	3.517588e-01	4.693108e+13	5.389469e+14	2.923368e+14	8.441598e+03	4.071849e+03	1.782056e+03	0	5.084018e-04
6.800000e+08	1.601712e+12	0.000000e+00	3.517588e-01	4.646739e+13	5.330483e+14	2.909280e+14	8.431255e+03	4.066269e+03	1.779614e+03	0	5.064619e-04
6.900000e+08	1.583597e+12	0.000000e+00	3.517588e-01	4.601268e+13	5.273035e+14	2.895291e+14	8.421013e+03	4.060801e+03	1.777221e+03	0	5.045454e-04
7.000000e+08	1.565833e+12	0.000000e+00	3.517588e-01	4.556668e+13	5.217063e+14	2.881401e+14	8.410871e+03	4.055441e+03	1.774876e+03	0	5.026517e-04
7.100000e+08	1.548408e+12	0.000000e+00	3.517588e-01	4.512913e+13	5.162508e+14	2.867607e+14	8.400827e+03	4.050186e+03	1.772575e+03	0	5.007802e-04
7.200000e+08	1.531314e+12	0.000000e+00	3.517588e-01	4.469978e+13	5.109315e+14	2.853910e+14	8.390879e+03	4.045031e+03	1.770320e+03	0	4.989305e-04
7.300000e+08	1.514539e+12	0.000000e+00	3.517588e-01	4.427840e+13	5.057430e+14	2.840309e+14	8.381026e+03	4.039975e+03	1.768106e+03	0	4.971020e-04
7.400000e+08	1.498076e+12	0.000000e+00	3.517588e-01	4.386476e+13	5.006803e+14	2.826802e+14	8.371265e+03	4.035012e+03	1.765935e+03	0	4.952943e-04
7.500000e+08	1.481915e+12	0.000000e+00	3.517588e-01	4.345865e+13	4.957386e+14	2.813390e+14	8.361595e+03	4.030142e+03	1.763803e+03	0	4.935068e-04
7.600000e+08	1.466048e+12	0.000000e+00	3.517588e-01	4.305985e+13	4.909135e+14	2.800071e+14	8.352014e+03	4.025360e+03	1.761711e+03	0	4.917391e-04
7.700000e+08	1.450467e+12	0.000000e+00	3.517588e-01	4.266815e+13	4.862005e+14	2.786845e+14	8.342521e+03	4.020665e+03	1.759656e+03	0	4.899908e-04
7.800000e+08	1.435163e+12	0.000000e+00	3.517588e-01	4.228337e+13	4.815955e+14	2.773711e+14	8.333115e+03	4.016053e+03	1.757637e+03	0	4.882614e-04
7.900000e+08	1.420130e+12	0.000000e+00	3.517588e-01	4.190532e+13	4.770947e+14	2.760668e+14	8.323792e+03	4.011521e+03	1.755654e+03	0	4.865506e-04
8.000000e+08	1.405360e+12	0.000000e+00	3.517588e-01	4.153381e+13	4.726943e+14	2.747715e+14	8.314553e+03	4.007068e+03	1.753705e+03	0	4.848579e-04
8.100000e+08	1.390845e+12	0.000000e+00	3.517588e-01	4.116868e+13	4.683908e+14	2.734852e+14	8.305396e+03	4.002691e+03	1.751789e+03	0	4.831829e-04
8.200000e+08	1.376580e+12	0.000000e+00	3.517588e-01	4.080974e+13	4.641807e+14	2.722078e+14	8.296319e+03	3.998388e+03	1.749906e+03	0	4.815253e-04
8.300000e+08	1.362557e+12	0.000000e+00	3.517588e-01	4.045685e+13	4.600609e+14	2.709393e+14	8.287320e+03	3.994156e+03	1.748054e+03	0	4.798846e-04
8.400000e+08	1.348770e+12	0.000000e+00	3.517588e-01	4.010984e+13	4.560282e+14	2.696795e+14	8.278400e+03	3.989994e+03	1.746232e+03	0	4.782606e-04
8.500000e+08	1.335214e+12	0.000000e+00	3.517588e-01	3.976857e+13	4.520797e+14	2.684284e+14	8.269555e+03	3.985899e+03	1.744440e+03	0	4.766529e-04
8.600000e+08	1.321882e+12	0.000000e+00	3.517588e-01	3.943289e+13	4.482125e+14	2.671859e+14	8.260786e+03	3.981870e+03	1.742677e+03	0	4.750612e-04
8.700000e+08	1.308769e+12	0.000000e+00	3.517588e-01	3.910265e+13	4.444241e+14	2.659520e+14	8.252090e+03	3.977904e+03	1.740941e+03	0	4.734851e-04
8.800000e+08	1.295869e+12	0.000000e+00	3.517588e-01	3.877773e+13	4.407117e+14	2.647266e+14	8.243467e+03	3.974001e+03	1.739233e+03	0	4.719243e-04
8.900000e+08	1.283177e+12	0.000000e+00	3.517588e-01	3.845799e+13	4.370730e+14	2.635096e+14	8.234916e+03	3.970157e+03	1.737551e+03	0	4.703785e-04
9.000000e+08	1.270688e+12	0.000000e+00	3.517588e-01	3.814330e+13	4.335055e+14	2.623009e+14	8.226435e+03	3.966373e+03	1.735894e+03	0	4.688475e-04
9.100000e+08	1.258396e+12	0.000000e+00	3.517588e-01	3.783355e+13	4.300070e+14	2.611006e+14	8.218023e+03	3.962645e+03	1.734263e+03	0	4.673309e-04
9.200000e+08	1.246298e+12	0.000000e+00	3.517588e-01	3.752861e+13	4.265754e+14	2.599084e+14	8.209679e+03	3.958972e+03	1.732656e+03	0	4.658284e-04
9.300000e+08	1.234388e+12	0.000000e+00	3.517588e-01	3.722837e+13	4.232085e+14	2.587244e+14	8.201403e+03	3.955353e+03	1.731072e+03	0	4.643398e-04
9.400000e+08	1.222663e+12	0.000000e+00	3.517588e-01	3.693271e+13	4.199044e+14	2.575485e+14	8.193192e+03	3.951787e+03	1.729511e+03	0	4.628648e-04
9.500000e+08	1.211117e+12	0.000000e+00	3.517588e-01	3.664154e+13	4.166611e+14	2.563806e+14	8.185046e+03	3.948272e+03	1.727973e+03	0	4.614032e-04
9.600000e+08	1.199746e+12	0.000000e+00	3.517588e-01	3.635474e+13	4.134769e+14	2.552207e+14	8.176965e+03	3.944806e+03	1.726456e+03	0	4.599548e-04
9.700000e+08	1.188547e+12	0.000000e+00	3.517588e-01	3.607222e+13	4.103500e+14	2.540687e+14	8.168946e+03	3.941389e+03	1.724960e+03	0	4.585191e-04
9.800000e+08	1.177516e+12	0.000000e+00	3.517588e-01	3.579388e+13	4.072786e+14	2.529245e+14	8.160990e+03	3.938019e+03	1.723486e+03	0	4.570961e-04
9.900000e+08	1.166648e+12	0.000000e+00	3.517588e-01	3.551962e+13	4.042612e+14	2.517881e+14	8.153095e+03	3.934695e+03	1.722031e+03	0	4.556856e-04
1.000000e+09	1.155940e+12	0.000000e+00	3.517588e-01	3.524935e+13	4.012962e+14	2.506594e+14	8.145260e+03	3.931416e+03	1.720596e+03	0	4.542871e-04
1.010000e+09	1.145389e+12	0.000000e+00	3.517588e-01	3.498299e+13	3.983820e+14	2.495384e+14	8.137485e+03	3.928181e+03	1.719180e+03	0	4.529007e-04
1.020000e+09	1.134991e+12	0.000000e+00	3.517588e-01	3.472044e+13	3.955174e+14	2.484250e+14	8.129769e+03	3.924988e+03	1.717782e+03	0	4.515260e-04
1.030000e+09	1.124742e+12	0.000000e+00	3.517588e-01	3.446163e+13	3.927007e+14	2.473191e+14	8.122110e+03	3.921836e+03	1.716403e+03	0	4.501628e-04
1.040000e+09	1.114640e+12	0.000000e+00	3.517588e-01	3.420646e+13	3.899308e+14	2.462206e+14	8.114508e+03	3.918725e+03	1.715041e+03	0	4.488110e-04
1.050000e+09	1.104681e+12	0.000000e+00	3.517588e-01	3.395488e+13	3.872064e+14	2.451296e+14	8.106962e+03	3.915654e+03	1.713697e+03	0	4.474703e-04
1.060000e+09	1.094862e+12	0.000000e+00	3.517588e-01	3.370679e+13	3.845261e+14	2.440460e+14	8.099472e+03	3.912621e+03	1.712370e+03	0	4.461406e-04
1.070000e+09	1.085180e+12	0.000000e+00	3.517588e-01	3.346212e+13	3.818889e+14	2.429696e+14	8.092036e+03	3.909625e+03	1.711059e+03	0	4.448216e-04
1.080000e+09	1.075632e+12	0.000000e+00	3.517588e-01	3.322080e+13	3.792935e+14	2.419005e+14	8.084654e+03	3.906667e+03	1.709764e+03	0	4.435132e-04
1.090000e+09	1.066216e+12	0.000000e+00	3.517588e-01	3.298277e+13	3.767389e+14	2.408386e+14	8.077325e+03	3.903744e+03	1.708485e+03	0	4.422153e-04
1.100000e+09	1.056929e+12	0.000000e+00	3.517588e-01	3.274795e+13	3.742240e+14	2.397838e+14	8.070049e+03	3.900856e+03	1.707221e+03	0	4.409275e-04
1.110000e+09	1.047767e+12	0.000000e+00	3.517588e-01	3.251627e+13	3.717477e+14	2.387361e+14	8.062824e+03	3.898002e+03	1.705972e+03	0	4.396498e-04
1.120000e+09	1.038729e+12	0.000000e+00	3.517588e-01	3.228768e+13	3.693090e+14	2.376954e+14	8.055650e+03	3.895182e+03	1.704738e+03	0	4.383820e-04
1.130000e+09	1.029812e+12	0.000000e+00	3.517588e-01	3.206211e+13	3.669071e+14	2.366617e+14	8.048527e+03	3.892395e+03	1.703518e+03	0	4.371239e-04
1.140000e+09	1.021013e+12	0.000000e+00	3.517588e-01	3.183950e+13	3.645410e+14	2.356348e+14	8.041453e+03	3.889639e+03	1.702312e+03	0	4.358755e-04
1.150000e+09	1.012331e+12	0.000000e+00	3.517588e-01	3.161979e+13	3.622097e+14	2.346149e+14	8.034428e+03	3.886914e+03	1.701119e+03	0	4.346364e-04
1.160000e+09	1.003762e+12	0.000000e+00	3.517588e-01	3.140292e+13	3.599124e+14	2.336017e+14	8.027451e+03	3.884220e+03	1.699940e+03	0	4.334066e-04
1.170000e+09	9.953045e+11	0.000000e+00	3.517588e-01	3.118884e+13	3.576483e+14	2.325953e+14	8.020523e+03	3.881556e+03	1.698774e+03	0	4.321859e-04
1.180000e+09	9.869567e+11	0.000000e+00	3.517588e-01	3.097749e+13	3.554166e+14	2.315956e+14	8.013641e+03	3.878921e+03	1.697621e+03	0	4.309743e-04
1.190000e+09	9.787160e+11	0.000000e+00	3.517588e-01	3.076882e+13	3.532165e+14	2.306025e+14	8.006806e+03	3.876314e+03	1.696480e+03	0	4.297714e-04
1.200000e+09	9.705805e+11	0.000000e+00	3.517588e-01	3.056278e+13	3.510472e+14	2.296160e+14	8.000017e+03	3.873735e+03	1.695351e+03	0	4.285773e-04
1.210000e+09	9.625481e+11	0.000000e+00	3.517588e-01	3.035932e+13	3.489080e+14	2.286361e+14	7.993273e+03	3.871184e+03	1.694235e+03	0	4.273917e-04
1.220000e+09	9.546169e+11	0.000000e+00	3.517588e-01	3.015839e+13	3.467982e+14	2.276626e+14	7.986574e+03	3.868659e+03	1.693130e+03	0	4.262146e-04
1.230000e+09	9.467849e+11	0.000000e+00	3.517588e-01	2.995994e+13	3.447171e+14	2.266956e+14	7.979920e+03	3.866160e+03	1.692036e+03	0	4.250458e-04
1.240000e+09	9.390503e+11	0.000000e+00	3.517588e-01	2.976392e+13	3.426641e+14	2.257350e+14	7.973309e+03	3.863687e+03	1.690954e+03	0	4.238852e-04
1.250000e+09	9.314113e+11	0.000000e+00	3.517588e-01	2.957030e+13	3.406385e+14	2.247808e+14	7.966741e+03	3.861239e+03	1.689882e+03	0	4.227327e-04
1.260000e+09	9.238661e+11	0.000000e+00	3.517588e-01	2.937902e+13	3.386397e+14	2.238328e+14	7.960216e+03	3.858816e+03	1.688822e+03	0	4.215881e-04
1.270000e+09	9.164129e+11	0.000000e+00	3.517588e-01	2.919004e+13	3.366671e+14	2.228910e+14	7.953732e+03	3.856416e+03	1.687772e+03	0	4.204513e-04
1.280000e+09	9.090501e+11	0.000000e+00	3.517588e-01	2.900332e+13	3.347202e+14	2.219555e+14	7.947291e+03	3.854040e+03	1.686732e+03	0	4.193223e-04
1.290000e+09	9.017760e+11	0.000000e+00	3.517588e-01	2.881882e+13	3.327982e+14	2.210261e+14	7.940891e+03	3.851687e+03	1.685702e+03	0	4.182008e-04
1.300000e+09	8.945891e+11	0.000000e+00	3.517588e-01	2.863651e+13	3.309008e+14	2.201028e+14	7.934531e+03	3.849357e+03	1.684682e+03	0	4.170869e-04
1.310000e+09	8.874877e+11	0.000000e+00	3.517588e-01	2.845633e+13	3.290273e+14	2.191856e+14	7.928211e+03	3.847048e+03	1.683672e+03	0	4.159803e-04
1.320000e+09	8.804704e+11	0.000000e+00	3.517588e-01	2.827826e+13	3.271773e+14	2.182743e+14	7.921931e+03	3.844762e+03	1.682671e+03	0	4.148810e-04
1.330000e+09	8.735356e+11	0.000000e+00	3.517588e-01	2.810225e+13	3.253503e+14	2.173691e+14	7.915691e+03	3.842496e+03	1.681680e+03	0	4.137889e-04
1.340000e+09	8.666819e+11	0.000000e+00	3.517588e-01	2.792827e+13	3.235457e+14	2.164697e+14	7.909489e+03	3.840252e+03	1.680697e+03	0	4.127039e-04
1.350000e+09	8.599079e+11	0.000000e+00	3.517588e-01	2.775629e+13	3.217631e+14	2.155762e+14	7.903325e+03	3.838028e+03	1.679724e+03	0	4.116258e-04
1.360000e+09	8.532122e+11	0.000000e+00	3.517588e-01	2.758626e+13	3.200021e+14	2.146886e+14	7.897199e+03	3.835824e+03	1.678759e+03	0	4.105547e-04
