#t		Qconv[W]	Ri[Rp]		R*[Rp]		Qc[W]		Qm[W]		Qr[W]		Tcmb[K]		Tl[K]		Tup[K]		RiFlag		Bs[T]
0.000000e+00	1.594159e+13	0.000000e+00	3.517588e-01	3.115470e+14	4.744531e+15	6.280947e+14	1.285840e+04	7.162853e+03	2.615513e+03	0	1.068468e-03
1.000000e+07	1.549457e+13	0.000000e+00	3.517588e-01	3.034535e+14	4.465435e+15	6.246146e+14	1.281632e+04	7.089269e+03	2.588644e+03	0	1.058386e-03
2.000000e+07	1.506808e+13	0.000000e+00	3.517588e-01	2.957298e+14	4.215469e+15	6.211605e+14	1.277532e+04	7.020761e+03	2.563628e+03	0	1.048585e-03
3.000000e+07	1.466111e+13	0.000000e+00	3.517588e-01	2.883577e+14	3.990542e+15	6.177323e+14	1.273535e+04	6.956792e+03	2.540270e+03	0	1.039058e-03
4.000000e+07	1.427261e+13	0.000000e+00	3.517588e-01	2.813188e+14	3.787267e+15	6.143296e+14	1.269638e+04	6.896903e+03	2.518402e+03	0	1.029798e-03
5.000000e+07	1.390158e+13	0.000000e+00	3.517588e-01	2.745948e+14	3.602823e+15	6.109523e+14	1.265835e+04	6.840694e+03	2.497877e+03	0	1.020796e-03
6.000000e+07	1.354703e+13	0.000000e+00	3.517588e-01	2.681677e+14	3.434840e+15	6.076002e+14	1.262122e+04	6.787819e+03	2.478570e+03	0	1.012043e-03
7.000000e+07	1.320801e+13	0.000000e+00	3.517588e-01	2.620206e+14	3.281316e+15	6.042730e+14	1.258495e+04	6.737974e+03	2.460369e+03	0	1.003529e-03
8.000000e+07	1.288361e+13	0.000000e+00	3.517588e-01	2.561374e+14	3.140552e+15	6.009706e+14	1.254951e+04	6.690892e+03	2.443177e+03	0	9.952453e-04
9.000000e+07	1.257300e+13	0.000000e+00	3.517588e-01	2.505026e+14	3.011095e+15	5.976928e+14	1.251486e+04	6.646337e+03	2.426908e+03	0	9.871820e-04
1.000000e+08	1.227538e+13	0.000000e+00	3.517588e-01	2.451019e+14	2.891698e+15	5.944393e+14	1.248097e+04	6.604101e+03	2.411485e+03	0	9.793302e-04
1.100000e+08	1.198998e+13	0.000000e+00	3.517588e-01	2.399219e+14	2.781286e+15	5.912099e+14	1.244780e+04	6.563997e+03	2.396841e+03	0	9.716811e-04
1.200000e+08	1.171612e+13	0.000000e+00	3.517588e-01	2.349500e+14	2.678926e+15	5.880045e+14	1.241533e+04	6.525860e+03	2.382916e+03	0	9.642261e-04
1.300000e+08	1.145314e+13	0.000000e+00	3.517588e-01	2.301743e+14	2.583805e+15	5.848228e+14	1.238353e+04	6.489541e+03	2.369654e+03	0	9.569571e-04
1.400000e+08	1.120043e+13	0.000000e+00	3.517588e-01	2.255838e+14	2.495214e+15	5.816646e+14	1.235238e+04	6.454906e+03	2.357007e+03	0	9.498663e-04
1.500000e+08	1.095742e+13	0.000000e+00	3.517588e-01	2.211684e+14	2.412532e+15	5.785298e+14	1.232183e+04	6.421834e+03	2.344930e+03	0	9.429463e-04
1.600000e+08	1.072357e+13	0.000000e+00	3.517588e-01	2.169184e+14	2.335208e+15	5.754181e+14	1.229189e+04	6.390216e+03	2.333385e+03	0	9.361901e-04
1.700000e+08	1.049839e+13	0.000000e+00	3.517588e-01	2.128249e+14	2.262759e+15	5.723294e+14	1.226251e+04	6.359954e+03	2.322335e+03	0	9.295909e-04
1.800000e+08	1.028143e+13	0.000000e+00	3.517588e-01	2.088796e+14	2.194756e+15	5.692635e+14	1.223369e+04	6.330958e+03	2.311747e+03	0	9.231424e-04
1.900000e+08	1.007223e+13	0.000000e+00	3.517588e-01	2.050746e+14	2.130815e+15	5.662202e+14	1.220540e+04	6.303145e+03	2.301591e+03	0	9.168385e-04
2.000000e+08	9.870415e+12	0.000000e+00	3.517588e-01	2.014028e+14	2.070598e+15	5.631992e+14	1.217762e+04	6.276440e+03	2.291840e+03	0	9.106735e-04
2.100000e+08	9.675590e+12	0.000000e+00	3.517588e-01	1.978573e+14	2.013798e+15	5.602005e+14	1.215034e+04	6.250776e+03	2.282469e+03	0	9.046419e-04
2.200000e+08	9.487407e+12	0.000000e+00	3.517588e-01	1.944317e+14	1.960143e+15	5.572238e+14	1.212353e+04	6.226089e+03	2.273454e+03	0	8.987386e-04
2.300000e+08	9.305536e+12	0.000000e+00	3.517588e-01	1.911202e+14	1.909386e+15	5.542689e+14	1.209718e+04	6.202321e+03	2.264775e+03	0	8.929586e-04
2.400000e+08	9.129667e+12	0.000000e+00	3.517588e-01	1.879171e+14	1.861307e+15	5.513357e+14	1.207129e+04	6.179420e+03	2.256413e+03	0	8.872974e-04
2.500000e+08	8.959512e+12	0.000000e+00	3.517588e-01	1.848172e+14	1.815706e+15	5.484240e+14	1.204582e+04	6.157335e+03	2.248349e+03	0	8.817504e-04
2.600000e+08	8.794797e+12	0.000000e+00	3.517588e-01	1.818156e+14	1.772400e+15	5.455336e+14	1.202077e+04	6.136023e+03	2.240566e+03	0	8.763135e-04
2.700000e+08	8.635268e+12	0.000000e+00	3.517588e-01	1.789078e+14	1.731226e+15	5.426643e+14	1.199613e+04	6.115440e+03	2.233051e+03	0	8.709826e-04
2.800000e+08	8.480685e+12	0.000000e+00	3.517588e-01	1.760894e+14	1.692034e+15	5.398160e+14	1.197188e+04	6.095547e+03	2.225787e+03	0	8.657541e-04
2.900000e+08	8.330823e+12	0.000000e+00	3.517588e-01	1.733563e+14	1.654688e+15	5.369885e+14	1.194800e+04	6.076309e+03	2.218762e+03	0	8.606241e-04
3.000000e+08	8.185469e+12	0.000000e+00	3.517588e-01	1.707047e+14	1.619063e+15	5.341816e+14	1.192450e+04	6.057692e+03	2.211964e+03	0	8.555894e-04
3.100000e+08	8.044423e+12	0.000000e+00	3.517588e-01	1.681311e+14	1.585047e+15	5.313951e+14	1.190136e+04	6.039665e+03	2.205381e+03	0	8.506466e-04
3.200000e+08	7.907498e+12	0.000000e+00	3.517588e-01	1.656319e+14	1.552533e+15	5.286289e+14	1.187856e+04	6.022197e+03	2.199003e+03	0	8.457927e-04
3.300000e+08	7.774516e+12	0.000000e+00	3.517588e-01	1.632041e+14	1.521428e+15	5.258828e+14	1.185610e+04	6.005262e+03	2.192819e+03	0	8.410245e-04
3.400000e+08	7.645309e+12	0.000000e+00	3.517588e-01	1.608446e+14	1.491643e+15	5.231567e+14	1.183397e+04	5.988835e+03	2.186821e+03	0	8.363394e-04
3.500000e+08	7.519719e+12	0.000000e+00	3.517588e-01	1.585505e+14	1.463098e+15	5.204503e+14	1.181215e+04	5.972891e+03	2.180999e+03	0	8.317346e-04
3.600000e+08	7.397597e+12	0.000000e+00	3.517588e-01	1.563192e+14	1.435717e+15	5.177636e+14	1.179065e+04	5.957408e+03	2.175345e+03	0	8.272075e-04
3.700000e+08	7.278800e+12	0.000000e+00	3.517588e-01	1.541481e+14	1.409431e+15	5.150963e+14	1.176945e+04	5.942365e+03	2.169853e+03	0	8.227556e-04
3.800000e+08	7.163196e+12	0.000000e+00	3.517588e-01	1.520348e+14	1.384178e+15	5.124483e+14	1.174854e+04	5.927742e+03	2.164513e+03	0	8.183765e-04
3.900000e+08	7.050657e+12	0.000000e+00	3.517588e-01	1.499769e+14	1.359899e+15	5.098195e+14	1.172791e+04	5.913521e+03	2.159320e+03	0	8.140681e-04
4.000000e+08	6.941062e+12	0.000000e+00	3.517588e-01	1.479724e+14	1.336538e+15	5.072096e+14	1.170757e+04	5.899684e+03	2.154268e+03	0	8.098281e-04
4.100000e+08	6.834298e+12	0.000000e+00	3.517588e-01	1.460191e+14	1.314044e+15	5.046186e+14	1.168749e+04	5.886215e+03	2.149349e+03	0	8.056545e-04
4.200000e+08	6.730257e+12	0.000000e+00	3.517588e-01	1.441151e+14	1.292372e+15	5.020462e+14	1.166768e+04	5.873098e+03	2.144559e+03	0	8.015453e-04
4.300000e+08	6.628835e+12	0.000000e+00	3.517588e-01	1.422586e+14	1.271476e+15	4.994924e+14	1.164813e+04	5.860318e+03	2.139893e+03	0	7.974987e-04
4.400000e+08	6.529935e+12	0.000000e+00	3.517588e-01	1.404478e+14	1.251316e+15	4.969570e+14	1.162882e+04	5.847861e+03	2.135345e+03	0	7.935126e-04
4.500000e+08	6.433465e+12	0.000000e+00	3.517588e-01	1.386810e+14	1.231854e+15	4.944397e+14	1.160977e+04	5.835716e+03	2.130909e+03	0	7.895856e-04
4.600000e+08	6.339334e+12	0.000000e+00	3.517588e-01	1.369566e+14	1.213055e+15	4.919405e+14	1.159095e+04	5.823868e+03	2.126583e+03	0	7.857157e-04
4.700000e+08	6.247461e+12	0.000000e+00	3.517588e-01	1.352731e+14	1.194884e+15	4.894593e+14	1.157236e+04	5.812307e+03	2.122362e+03	0	7.819015e-04
4.800000e+08	6.157763e+12	0.000000e+00	3.517588e-01	1.336290e+14	1.177311e+15	4.869958e+14	1.155400e+04	5.801021e+03	2.118241e+03	0	7.781414e-04
4.900000e+08	6.070165e+12	0.000000e+00	3.517588e-01	1.320230e+14	1.160307e+15	4.845500e+14	1.153586e+04	5.789999e+03	2.114216e+03	0	7.744340e-04
5.000000e+08	5.984594e+12	0.000000e+00	3.517588e-01	1.304538e+14	1.143844e+15	4.821217e+14	1.151795e+04	5.779232e+03	2.110285e+03	0	7.707777e-04
5.100000e+08	5.900981e+12	0.000000e+00	3.517588e-01	1.289201e+14	1.127898e+15	4.797107e+14	1.150024e+04	5.768711e+03	2.106443e+03	0	7.671712e-04
5.200000e+08	5.819258e+12	0.000000e+00	3.517588e-01	1.274206e+14	1.112443e+15	4.773169e+14	1.148274e+04	5.758425e+03	2.102687e+03	0	7.636132e-04
5.300000e+08	5.739363e+12	0.000000e+00	3.517588e-01	1.259543e+14	1.097457e+15	4.749402e+14	1.146544e+04	5.748367e+03	2.099014e+03	0	7.601024e-04
5.400000e+08	5.661235e+12	0.000000e+00	3.517588e-01	1.245201e+14	1.082918e+15	4.725804e+14	1.144834e+04	5.738528e+03	2.095421e+03	0	7.566376e-04
5.500000e+08	5.584815e+12	0.000000e+00	3.517588e-01	1.231169e+14	1.068808e+15	4.702374e+14	1.143144e+04	5.728900e+03	2.091906e+03	0	7.532177e-04
5.600000e+08	5.510050e+12	0.000000e+00	3.517588e-01	1.217436e+14	1.055107e+15	4.679111e+14	1.141472e+04	5.719477e+03	2.088465e+03	0	7.498414e-04
5.700000e+08	5.436884e+12	0.000000e+00	3.517588e-01	1.203995e+14	1.041796e+15	4.656013e+14	1.139819e+04	5.710250e+03	2.085096e+03	0	7.465076e-04
5.800000e+08	5.365268e+12	0.000000e+00	3.517588e-01	1.190834e+14	1.028860e+15	4.633078e+14	1.138185e+04	5.701214e+03	2.081796e+03	0	7.432154e-04
5.900000e+08	5.295153e+12	0.000000e+00	3.517588e-01	1.177946e+14	1.016282e+15	4.610307e+14	1.136568e+04	5.692361e+03	2.078564e+03	0	7.399637e-04
6.000000e+08	5.226492e+12	0.000000e+00	3.517588e-01	1.165322e+14	1.004048e+15	4.587696e+14	1.134968e+04	5.683686e+03	2.075396e+03	0	7.367514e-04
6.100000e+08	5.159241e+12	0.000000e+00	3.517588e-01	1.152954e+14	9.921430e+14	4.565246e+14	1.133386e+04	5.675182e+03	2.072291e+03	0	7.335777e-04
6.200000e+08	5.093356e+12	0.000000e+00	3.517588e-01	1.140835e+14	9.805537e+14	4.542954e+14	1.131820e+04	5.666845e+03	2.069246e+03	0	7.304417e-04
6.300000e+08	5.028796e+12	0.000000e+00	3.517588e-01	1.128956e+14	9.692674e+14	4.520819e+14	1.130271e+04	5.658668e+03	2.066260e+03	0	7.273424e-04
6.400000e+08	4.965523e+12	0.000000e+00	3.517588e-01	1.117310e+14	9.582722e+14	4.498841e+14	1.128738e+04	5.650646e+03	2.063331e+03	0	7.242790e-04
6.500000e+08	4.903497e+12	0.000000e+00	3.517588e-01	1.105892e+14	9.475565e+14	4.477017e+14	1.127220e+04	5.642775e+03	2.060457e+03	0	7.212506e-04
6.600000e+08	4.842683e+12	0.000000e+00	3.517588e-01	1.094693e+14	9.371096e+14	4.455347e+14	1.125718e+04	5.635050e+03	2.057636e+03	0	7.182565e-04
6.700000e+08	4.783044e+12	0.000000e+00	3.517588e-01	1.083709e+14	9.269210e+14	4.433829e+14	1.124232e+04	5.627466e+03	2.054867e+03	0	7.152958e-04
6.800000e+08	4.724549e+12	0.000000e+00	3.517588e-01	1.072932e+14	9.169811e+14	4.412463e+14	1.122760e+04	5.620018e+03	2.052148e+03	0	7.123679e-04
6.900000e+08	4.667163e+12	0.000000e+00	3.517588e-01	1.062356e+14	9.072805e+14	4.391246e+14	1.121302e+04	5.612704e+03	2.049477e+03	0	7.094719e-04
7.000000e+08	4.610857e+12	0.000000e+00	3.517588e-01	1.051978e+14	8.978103e+14	4.370178e+14	1.119859e+04	5.605518e+03	2.046853e+03	0	7.066073e-04
7.100000e+08	4.555599e+12	0.000000e+00	3.517588e-01	1.041789e+14	8.885622e+14	4.349257e+14	1.118430e+04	5.598457e+03	2.044275e+03	0	7.037732e-04
7.200000e+08	4.501361e+12	0.000000e+00	3.517588e-01	1.031787e+14	8.795281e+14	4.328483e+14	1.117015e+04	5.591517e+03	2.041740e+03	0	7.009690e-04
7.300000e+08	4.448115e+12	0.000000e+00	3.517588e-01	1.021964e+14	8.707003e+14	4.307854e+14	1.115614e+04	5.584695e+03	2.039249e+03	0	6.981942e-04
7.400000e+08	4.395834e+12	0.000000e+00	3.517588e-01	1.012318e+14	8.620715e+14	4.287369e+14	1.114225e+04	5.577987e+03	2.036800e+03	0	6.954479e-04
7.500000e+08	4.344492e+12	0.000000e+00	3.517588e-01	1.002842e+14	8.536349e+14	4.267027e+14	1.112850e+04	5.571389e+03	2.034391e+03	0	6.927298e-04
7.600000e+08	4.294064e+12	0.000000e+00	3.517588e-01	9.935323e+13	8.453837e+14	4.246826e+14	1.111488e+04	5.564900e+03	2.032021e+03	0	6.900391e-04
7.700000e+08	4.244526e+12	0.000000e+00	3.517588e-01	9.843848e+13	8.373117e+14	4.226767e+14	1.110138e+04	5.558515e+03	2.029690e+03	0	6.873754e-04
7.800000e+08	4.195855e+12	0.000000e+00	3.517588e-01	9.753952e+13	8.294127e+14	4.206846e+14	1.108800e+04	5.552232e+03	2.027395e+03	0	6.847379e-04
7.900000e+08	4.148029e+12	0.000000e+00	3.517588e-01	9.665593e+13	8.216810e+14	4.187064e+14	1.107475e+04	5.546047e+03	2.025137e+03	0	6.821263e-04
8.000000e+08	4.101025e+12	0.000000e+00	3.517588e-01	9.578731e+13	8.141111e+14	4.167419e+14	1.106162e+04	5.539959e+03	2.022914e+03	0	6.795400e-04
8.100000e+08	4.054823e+12	0.000000e+00	3.517588e-01	9.493330e+13	8.066976e+14	4.147910e+14	1.104860e+04	5.533965e+03	2.020725e+03	0	6.769785e-04
8.200000e+08	4.009402e+12	0.000000e+00	3.517588e-01	9.409353e+13	7.994355e+14	4.128536e+14	1.103570e+04	5.528062e+03	2.018570e+03	0	6.744412e-04
8.300000e+08	3.964743e+12	0.000000e+00	3.517588e-01	9.326763e+13	7.923200e+14	4.109296e+14	1.102292e+04	5.522247e+03	2.016446e+03	0	6.719277e-04
8.400000e+08	3.920828e+12	0.000000e+00	3.517588e-01	9.245527e+13	7.853464e+14	4.090189e+14	1.101024e+04	5.516519e+03	2.014355e+03	0	6.694376e-04
8.500000e+08	3.877636e+12	0.000000e+00	3.517588e-01	9.165612e+13	7.785102e+14	4.071214e+14	1.099768e+04	5.510874e+03	2.012294e+03	0	6.669704e-04
8.600000e+08	3.835152e+12	0.000000e+00	3.517588e-01	9.086985e+13	7.718073e+14	4.052370e+14	1.098522e+04	5.505312e+03	2.010263e+03	0	6.645257e-04
8.700000e+08	3.793358e+12	0.000000e+00	3.517588e-01	9.009616e+13	7.652334e+14	4.033655e+14	1.097288e+04	5.499829e+03	2.008261e+03	0	6.621029e-04
8.800000e+08	3.752238e+12	0.000000e+00	3.517588e-01	8.933474e+13	7.587847e+14	4.015069e+14	1.096063e+04	5.494424e+03	2.006287e+03	0	6.597018e-04
8.900000e+08	3.711774e+12	0.000000e+00	3.517588e-01	8.858531e+13	7.524574e+14	3.996611e+14	1.094849e+04	5.489094e+03	2.004341e+03	0	6.573218e-04
9.000000e+08	3.671952e+12	0.000000e+00	3.517588e-01	8.784758e+13	7.462479e+14	3.978279e+14	1.093645e+04	5.483839e+03	2.002422e+03	0	6.549627e-04
9.100000e+08	3.632758e+12	0.000000e+00	3.517588e-01	8.712128e+13	7.401527e+14	3.960074e+14	1.092451e+04	5.478655e+03	2.000529e+03	0	6.526240e-04
9.200000e+08	3.594175e+12	0.000000e+00	3.517588e-01	8.640615e+13	7.341685e+14	3.941992e+14	1.091267e+04	5.473542e+03	1.998662e+03	0	6.503053e-04
9.300000e+08	3.556190e+12	0.000000e+00	3.517588e-01	8.570193e+13	7.282920e+14	3.924035e+14	1.090093e+04	5.468497e+03	1.996820e+03	0	6.480063e-04
9.400000e+08	3.518790e+12	0.000000e+00	3.517588e-01	8.500837e+13	7.225203e+14	3.906200e+14	1.088928e+04	5.463519e+03	1.995002e+03	0	6.457266e-04
9.500000e+08	3.481961e+12	0.000000e+00	3.517588e-01	8.432523e+13	7.168502e+14	3.888487e+14	1.087773e+04	5.458606e+03	1.993208e+03	0	6.434659e-04
9.600000e+08	3.445690e+12	0.000000e+00	3.517588e-01	8.365228e+13	7.112789e+14	3.870895e+14	1.086626e+04	5.453757e+03	1.991437e+03	0	6.412238e-04
9.700000e+08	3.409965e+12	0.000000e+00	3.517588e-01	8.298929e+13	7.058038e+14	3.853422e+14	1.085489e+04	5.448970e+03	1.989689e+03	0	6.390000e-04
9.800000e+08	3.374773e+12	0.000000e+00	3.517588e-01	8.233605e+13	7.004221e+14	3.836069e+14	1.084361e+04	5.444243e+03	1.987963e+03	0	6.367942e-04
9.900000e+08	3.340104e+12	0.000000e+00	3.517588e-01	8.169233e+13	6.951313e+14	3.818833e+14	1.083242e+04	5.439576e+03	1.986259e+03	0	6.346061e-04
1.000000e+09	3.305945e+12	0.000000e+00	3.517588e-01	8.105794e+13	6.899289e+14	3.801715e+14	1.082132e+04	5.434967e+03	1.984576e+03	0	6.324353e-04
1.010000e+09	3.272285e+12	0.000000e+00	3.517588e-01	8.043267e+13	6.848126e+14	3.784712e+14	1.081030e+04	5.430414e+03	1.982914e+03	0	6.302816e-04
1.020000e+09	3.239114e+12	0.000000e+00	3.517588e-01	7.981632e+13	6.797801e+14	3.767825e+14	1.079936e+04	5.425916e+03	1.981271e+03	0	6.281446e-04
1.030000e+09	3.206421e+12	0.000000e+00	3.517588e-01	7.920870e+13	6.748292e+14	3.751052e+14	1.078851e+04	5.421473e+03	1.979649e+03	0	6.260241e-04
1.040000e+09	3.174196e+12	0.000000e+00	3.517588e-01	7.860964e+13	6.699577e+14	3.734392e+14	1.077774e+04	5.417082e+03	1.978046e+03	0	6.239199e-04
1.050000e+09	3.142430e+12	0.000000e+00	3.517588e-01	7.801895e+13	6.651637e+14	3.717845e+14	1.076706e+04	5.412743e+03	1.976461e+03	0	6.218315e-04
1.060000e+09	3.111111e+12	0.000000e+00	3.517588e-01	7.743646e+13	6.604450e+14	3.701409e+14	1.075645e+04	5.408455e+03	1.974895e+03	0	6.197589e-04
1.070000e+09	3.080233e+12	0.000000e+00	3.517588e-01	7.686200e+13	6.557999e+14	3.685085e+14	1.074592e+04	5.404215e+03	1.973347e+03	0	6.177016e-04
1.080000e+09	3.049784e+12	0.000000e+00	3.517588e-01	7.629541e+13	6.512265e+14	3.668870e+14	1.073547e+04	5.400024e+03	1.971817e+03	0	6.156595e-04
1.090000e+09	3.019757e+12	0.000000e+00	3.517588e-01	7.573651e+13	6.467229e+14	3.652764e+14	1.072510e+04	5.395881e+03	1.970304e+03	0	6.136323e-04
1.100000e+09	2.990142e+12	0.000000e+00	3.517588e-01	7.518517e+13	6.422875e+14	3.636766e+14	1.071480e+04	5.391783e+03	1.968808e+03	0	6.116197e-04
1.110000e+09	2.960932e+12	0.000000e+00	3.517588e-01	7.464122e+13	6.379185e+14	3.620875e+14	1.070458e+04	5.387731e+03	1.967328e+03	0	6.096216e-04
1.120000e+09	2.932118e+12	0.000000e+00	3.517588e-01	7.410452e+13	6.336145e+14	3.605091e+14	1.069443e+04	5.383723e+03	1.965865e+03	0	6.076377e-04
1.130000e+09	2.903693e+12	0.000000e+00	3.517588e-01	7.357493e+13	6.293737e+14	3.589413e+14	1.068436e+04	5.379759e+03	1.964417e+03	0	6.056678e-04
1.140000e+09	2.875648e+12	0.000000e+00	3.517588e-01	7.305231e+13	6.251948e+14	3.573839e+14	1.067435e+04	5.375837e+03	1.962985e+03	0	6.037115e-04
1.150000e+09	2.847977e+12	0.000000e+00	3.517588e-01	7.253651e+13	6.210762e+14	3.558369e+14	1.066442e+04	5.371957e+03	1.961568e+03	0	6.017689e-04
1.160000e+09	2.820672e+12	0.000000e+00	3.517588e-01	7.202741e+13	6.170166e+14	3.543003e+14	1.065456e+04	5.368117e+03	1.960166e+03	0	5.998395e-04
1.170000e+09	2.793725e+12	0.000000e+00	3.517588e-01	7.152488e+13	6.130145e+14	3.527738e+14	1.064476e+04	5.364317e+03	1.958779e+03	0	5.979233e-04
1.180000e+09	2.767131e+12	0.000000e+00	3.517588e-01	7.102879e+13	6.090686e+14	3.512576e+14	1.063504e+04	5.360557e+03	1.957405e+03	0	5.960199e-04
1.190000e+09	2.740881e+12	0.000000e+00	3.517588e-01	7.053903e+13	6.051778e+14	3.497514e+14	1.062538e+04	5.356835e+03	1.956046e+03	0	5.941293e-04
1.200000e+09	2.714970e+12	0.000000e+00	3.517588e-01	7.005546e+13	6.013406e+14	3.482552e+14	1.061579e+04	5.353150e+03	1.954701e+03	0	5.922512e-04
1.210000e+09	2.689392e+12	0.000000e+00	3.517588e-01	6.957798e+13	5.975559e+14	3.467690e+14	1.060626e+04	5.349502e+03	1.953369e+03	0	5.903854e-04
1.220000e+09	2.664139e+12	0.000000e+00	3.517588e-01	6.910647e+13	5.938226e+14	3.452926e+14	1.059680e+04	5.345890e+03	1.952050e+03	0	5.885317e-04
1.230000e+09	2.639206e+12	0.000000e+00	3.517588e-01	6.864081e+13	5.901395e+14	3.438259e+14	1.058740e+04	5.342314e+03	1.950744e+03	0	5.866900e-04
1.240000e+09	2.614587e+12	0.000000e+00	3.517588e-01	6.818091e+13	5.865055e+14	3.423690e+14	1.057807e+04	5.338773e+03	1.949451e+03	0	5.848600e-04
1.250000e+09	2.590277e+12	0.000000e+00	3.517588e-01	6.772666e+13	5.829196e+14	3.409217e+14	1.056879e+04	5.335265e+03	1.948170e+03	0	5.830417e-04
1.260000e+09	2.566269e+12	0.000000e+00	3.517588e-01	6.727795e+13	5.793806e+14	3.394839e+14	1.055958e+04	5.331791e+03	1.946902e+03	0	5.812348e-04
1.270000e+09	2.542557e+12	0.000000e+00	3.517588e-01	6.683468e+13	5.758877e+14	3.380556e+14	1.055043e+04	5.328350e+03	1.945645e+03	0	5.794391e-04
1.280000e+09	2.519138e+12	0.000000e+00	3.517588e-01	6.639676e+13	5.724398e+14	3.366366e+14	1.054134e+04	5.324941e+03	1.944400e+03	0	5.776545e-04
1.290000e+09	2.496004e+12	0.000000e+00	3.517588e-01	6.596409e+13	5.690359e+14	3.352270e+14	1.053231e+04	5.321563e+03	1.943167e+03	0	5.758809e-04
1.300000e+09	2.473152e+12	0.000000e+00	3.517588e-01	6.553658e+13	5.656753e+14	3.338267e+14	1.052334e+04	5.318216e+03	1.941945e+03	0	5.741180e-04
1.310000e+09	2.450577e+12	0.000000e+00	3.517588e-01	6.511413e+13	5.623569e+14	3.324355e+14	1.051443e+04	5.314900e+03	1.940734e+03	0	5.723658e-04
1.320000e+09	2.428272e+12	0.000000e+00	3.517588e-01	6.469666e+13	5.590799e+14	3.310535e+14	1.050557e+04	5.311614e+03	1.939534e+03	0	5.706240e-04
1.330000e+09	2.406234e+12	0.000000e+00	3.517588e-01	6.428408e+13	5.558435e+14	3.296805e+14	1.049677e+04	5.308357e+03	1.938345e+03	0	5.688925e-04
1.340000e+09	2.384458e+12	0.000000e+00	3.517588e-01	6.387631e+13	5.526468e+14	3.283164e+14	1.048803e+04	5.305129e+03	1.937166e+03	0	5.671712e-04
1.350000e+09	2.362940e+12	0.000000e+00	3.517588e-01	6.347326e+13	5.494890e+14	3.269613e+14	1.047934e+04	5.301929e+03	1.935997e+03	0	5.654599e-04
1.360000e+09	2.341674e+12	0.000000e+00	3.517588e-01	6.307485e+13	5.463695e+14	3.256150e+14	1.047071e+04	5.298757e+03	1.934839e+03	0	5.637584e-04
