#t		Qconv[W]	Ri[Rp]		R*[Rp]		Qc[W]		Qm[W]		Qr[W]		Tcmb[K]		Tl[K]		Tup[K]		RiFlag		Bs[T]
0.000000e+00	1.772975e+13	0.000000e+00	3.467336e-01	3.459507e+14	4.788202e+15	6.626678e+14	1.350079e+04	7.472789e+03	2.643812e+03	0	1.116396e-03
1.000000e+07	1.723220e+13	0.000000e+00	3.467336e-01	3.369718e+14	4.524928e+15	6.589961e+14	1.345529e+04	7.402320e+03	2.618881e+03	0	1.105854e-03
2.000000e+07	1.675763e+13	0.000000e+00	3.467336e-01	3.284055e+14	4.287588e+15	6.553519e+14	1.341097e+04	7.336441e+03	2.595573e+03	0	1.095608e-03
3.000000e+07	1.630480e+13	0.000000e+00	3.467336e-01	3.202295e+14	4.072726e+15	6.517350e+14	1.336777e+04	7.274691e+03	2.573726e+03	0	1.085649e-03
4.000000e+07	1.587247e+13	0.000000e+00	3.467336e-01	3.124219e+14	3.877457e+15	6.481450e+14	1.332563e+04	7.216673e+03	2.553200e+03	0	1.075967e-03
5.000000e+07	1.545947e+13	0.000000e+00	3.467336e-01	3.049614e+14	3.699350e+15	6.445818e+14	1.328452e+04	7.162040e+03	2.533871e+03	0	1.066553e-03
6.000000e+07	1.506469e+13	0.000000e+00	3.467336e-01	2.978281e+14	3.536347e+15	6.410452e+14	1.324437e+04	7.110488e+03	2.515633e+03	0	1.057396e-03
7.000000e+07	1.468704e+13	0.000000e+00	3.467336e-01	2.910028e+14	3.386697e+15	6.375349e+14	1.320516e+04	7.061748e+03	2.498389e+03	0	1.048485e-03
8.000000e+07	1.432554e+13	0.000000e+00	3.467336e-01	2.844675e+14	3.248900e+15	6.340507e+14	1.316685e+04	7.015585e+03	2.482057e+03	0	1.039811e-03
9.000000e+07	1.397925e+13	0.000000e+00	3.467336e-01	2.782054e+14	3.121665e+15	6.305924e+14	1.312938e+04	6.971787e+03	2.466561e+03	0	1.031364e-03
1.000000e+08	1.364727e+13	0.000000e+00	3.467336e-01	2.722007e+14	3.003877e+15	6.271598e+14	1.309274e+04	6.930168e+03	2.451837e+03	0	1.023135e-03
1.100000e+08	1.332880e+13	0.000000e+00	3.467336e-01	2.664386e+14	2.894566e+15	6.237527e+14	1.305688e+04	6.890560e+03	2.437824e+03	0	1.015113e-03
1.200000e+08	1.302306e+13	0.000000e+00	3.467336e-01	2.609055e+14	2.792889e+15	6.203708e+14	1.302178e+04	6.852811e+03	2.424469e+03	0	1.007291e-03
1.300000e+08	1.272933e+13	0.000000e+00	3.467336e-01	2.555883e+14	2.698106e+15	6.170139e+14	1.298740e+04	6.816788e+03	2.411724e+03	0	9.996609e-04
1.400000e+08	1.244696e+13	0.000000e+00	3.467336e-01	2.504753e+14	2.609567e+15	6.136820e+14	1.295372e+04	6.782368e+03	2.399546e+03	0	9.922138e-04
1.500000e+08	1.217531e+13	0.000000e+00	3.467336e-01	2.455551e+14	2.526698e+15	6.103746e+14	1.292071e+04	6.749440e+03	2.387897e+03	0	9.849425e-04
1.600000e+08	1.191381e+13	0.000000e+00	3.467336e-01	2.408175e+14	2.448993e+15	6.070917e+14	1.288834e+04	6.717903e+03	2.376739e+03	0	9.778398e-04
1.700000e+08	1.166191e+13	0.000000e+00	3.467336e-01	2.362525e+14	2.376001e+15	6.038329e+14	1.285659e+04	6.687667e+03	2.366042e+03	0	9.708990e-04
1.800000e+08	1.141911e+13	0.000000e+00	3.467336e-01	2.318512e+14	2.307322e+15	6.005983e+14	1.282544e+04	6.658648e+03	2.355775e+03	0	9.641136e-04
1.900000e+08	1.118493e+13	0.000000e+00	3.467336e-01	2.276051e+14	2.242597e+15	5.973874e+14	1.279487e+04	6.630770e+03	2.345912e+03	0	9.574775e-04
2.000000e+08	1.095893e+13	0.000000e+00	3.467336e-01	2.235063e+14	2.181507e+15	5.942002e+14	1.276485e+04	6.603962e+03	2.336428e+03	0	9.509849e-04
2.100000e+08	1.074071e+13	0.000000e+00	3.467336e-01	2.195472e+14	2.123763e+15	5.910364e+14	1.273538e+04	6.578162e+03	2.327300e+03	0	9.446301e-04
2.200000e+08	1.052986e+13	0.000000e+00	3.467336e-01	2.157211e+14	2.069107e+15	5.878958e+14	1.270642e+04	6.553309e+03	2.318507e+03	0	9.384081e-04
2.300000e+08	1.032604e+13	0.000000e+00	3.467336e-01	2.120213e+14	2.017305e+15	5.847783e+14	1.267796e+04	6.529350e+03	2.310031e+03	0	9.323138e-04
2.400000e+08	1.012890e+13	0.000000e+00	3.467336e-01	2.084419e+14	1.968145e+15	5.816837e+14	1.264999e+04	6.506234e+03	2.301853e+03	0	9.263425e-04
2.500000e+08	9.938120e+12	0.000000e+00	3.467336e-01	2.049770e+14	1.921435e+15	5.786117e+14	1.262249e+04	6.483916e+03	2.293956e+03	0	9.204897e-04
2.600000e+08	9.753404e+12	0.000000e+00	3.467336e-01	2.016213e+14	1.877003e+15	5.755622e+14	1.259544e+04	6.462351e+03	2.286327e+03	0	9.147511e-04
2.700000e+08	9.574471e+12	0.000000e+00	3.467336e-01	1.983698e+14	1.834690e+15	5.725349e+14	1.256884e+04	6.441500e+03	2.278950e+03	0	9.091226e-04
2.800000e+08	9.401057e+12	0.000000e+00	3.467336e-01	1.952177e+14	1.794351e+15	5.695298e+14	1.254266e+04	6.421326e+03	2.271813e+03	0	9.036004e-04
2.900000e+08	9.232912e+12	0.000000e+00	3.467336e-01	1.921606e+14	1.755854e+15	5.665467e+14	1.251689e+04	6.401795e+03	2.264903e+03	0	8.981807e-04
3.000000e+08	9.069803e+12	0.000000e+00	3.467336e-01	1.891942e+14	1.719080e+15	5.635853e+14	1.249153e+04	6.382873e+03	2.258209e+03	0	8.928602e-04
3.100000e+08	8.911510e+12	0.000000e+00	3.467336e-01	1.863146e+14	1.683916e+15	5.606454e+14	1.246656e+04	6.364532e+03	2.251720e+03	0	8.876354e-04
3.200000e+08	8.757823e+12	0.000000e+00	3.467336e-01	1.835180e+14	1.650262e+15	5.577270e+14	1.244196e+04	6.346744e+03	2.245426e+03	0	8.825031e-04
3.300000e+08	8.608548e+12	0.000000e+00	3.467336e-01	1.808010e+14	1.618025e+15	5.548297e+14	1.241773e+04	6.329481e+03	2.239319e+03	0	8.774603e-04
3.400000e+08	8.463498e+12	0.000000e+00	3.467336e-01	1.781602e+14	1.587117e+15	5.519535e+14	1.239386e+04	6.312719e+03	2.233389e+03	0	8.725041e-04
3.500000e+08	8.322498e+12	0.000000e+00	3.467336e-01	1.755924e+14	1.557460e+15	5.490982e+14	1.237034e+04	6.296436e+03	2.227628e+03	0	8.676317e-04
3.600000e+08	8.185383e+12	0.000000e+00	3.467336e-01	1.730946e+14	1.528980e+15	5.462636e+14	1.234715e+04	6.280610e+03	2.222029e+03	0	8.628405e-04
3.700000e+08	8.051994e+12	0.000000e+00	3.467336e-01	1.706641e+14	1.501610e+15	5.434495e+14	1.232429e+04	6.265220e+03	2.216584e+03	0	8.581278e-04
3.800000e+08	7.922184e+12	0.000000e+00	3.467336e-01	1.682982e+14	1.475287e+15	5.406557e+14	1.230176e+04	6.250247e+03	2.211286e+03	0	8.534914e-04
3.900000e+08	7.795812e+12	0.000000e+00	3.467336e-01	1.659942e+14	1.449952e+15	5.378822e+14	1.227953e+04	6.235674e+03	2.206130e+03	0	8.489288e-04
4.000000e+08	7.672743e+12	0.000000e+00	3.467336e-01	1.637499e+14	1.425551e+15	5.351287e+14	1.225760e+04	6.221482e+03	2.201110e+03	0	8.444379e-04
4.100000e+08	7.552851e+12	0.000000e+00	3.467336e-01	1.615630e+14	1.402033e+15	5.323950e+14	1.223598e+04	6.207658e+03	2.196219e+03	0	8.400165e-04
4.200000e+08	7.436016e+12	0.000000e+00	3.467336e-01	1.594312e+14	1.379353e+15	5.296811e+14	1.221463e+04	6.194184e+03	2.191452e+03	0	8.356626e-04
4.300000e+08	7.322122e+12	0.000000e+00	3.467336e-01	1.573525e+14	1.357465e+15	5.269867e+14	1.219357e+04	6.181047e+03	2.186804e+03	0	8.313741e-04
4.400000e+08	7.211061e+12	0.000000e+00	3.467336e-01	1.553250e+14	1.336330e+15	5.243116e+14	1.217279e+04	6.168233e+03	2.182271e+03	0	8.271493e-04
4.500000e+08	7.102730e+12	0.000000e+00	3.467336e-01	1.533468e+14	1.315910e+15	5.216558e+14	1.215226e+04	6.155730e+03	2.177847e+03	0	8.229863e-04
4.600000e+08	6.997030e+12	0.000000e+00	3.467336e-01	1.514161e+14	1.296168e+15	5.190191e+14	1.213200e+04	6.143525e+03	2.173529e+03	0	8.188834e-04
4.700000e+08	6.893866e+12	0.000000e+00	3.467336e-01	1.495312e+14	1.277071e+15	5.164013e+14	1.211200e+04	6.131608e+03	2.169313e+03	0	8.148390e-04
4.800000e+08	6.793149e+12	0.000000e+00	3.467336e-01	1.476906e+14	1.258588e+15	5.138022e+14	1.209224e+04	6.119966e+03	2.165194e+03	0	8.108513e-04
4.900000e+08	6.694794e+12	0.000000e+00	3.467336e-01	1.458926e+14	1.240690e+15	5.112218e+14	1.207272e+04	6.108590e+03	2.161169e+03	0	8.069189e-04
5.000000e+08	6.598719e+12	0.000000e+00	3.467336e-01	1.441358e+14	1.223350e+15	5.086597e+14	1.205344e+04	6.097469e+03	2.157235e+03	0	8.030404e-04
5.100000e+08	6.504846e+12	0.000000e+00	3.467336e-01	1.424189e+14	1.206541e+15	5.061160e+14	1.203440e+04	6.086595e+03	2.153388e+03	0	7.992142e-04
5.200000e+08	6.413102e+12	0.000000e+00	3.467336e-01	1.407404e+14	1.190239e+15	5.035905e+14	1.201557e+04	6.075959e+03	2.149625e+03	0	7.954390e-04
5.300000e+08	6.323415e+12	0.000000e+00	3.467336e-01	1.390991e+14	1.174421e+15	5.010830e+14	1.199697e+04	6.065552e+03	2.145943e+03	0	7.917135e-04
5.400000e+08	6.235717e+12	0.000000e+00	3.467336e-01	1.374938e+14	1.159067e+15	4.985933e+14	1.197859e+04	6.055365e+03	2.142339e+03	0	7.880364e-04
5.500000e+08	6.149943e+12	0.000000e+00	3.467336e-01	1.359233e+14	1.144154e+15	4.961213e+14	1.196041e+04	6.045392e+03	2.138810e+03	0	7.844065e-04
5.600000e+08	6.066031e+12	0.000000e+00	3.467336e-01	1.343865e+14	1.129666e+15	4.936669e+14	1.194245e+04	6.035625e+03	2.135355e+03	0	7.808226e-04
5.700000e+08	5.983922e+12	0.000000e+00	3.467336e-01	1.328822e+14	1.115582e+15	4.912300e+14	1.192468e+04	6.026056e+03	2.131970e+03	0	7.772836e-04
5.800000e+08	5.903558e+12	0.000000e+00	3.467336e-01	1.314096e+14	1.101887e+15	4.888103e+14	1.190712e+04	6.016680e+03	2.128652e+03	0	7.737882e-04
5.900000e+08	5.824885e+12	0.000000e+00	3.467336e-01	1.299676e+14	1.088563e+15	4.864078e+14	1.188974e+04	6.007490e+03	2.125401e+03	0	7.703356e-04
6.000000e+08	5.747851e+12	0.000000e+00	3.467336e-01	1.285552e+14	1.075597e+15	4.840223e+14	1.187256e+04	5.998479e+03	2.122213e+03	0	7.669246e-04
6.100000e+08	5.672405e+12	0.000000e+00	3.467336e-01	1.271716e+14	1.062973e+15	4.816537e+14	1.185557e+04	5.989643e+03	2.119087e+03	0	7.635543e-04
6.200000e+08	5.598499e+12	0.000000e+00	3.467336e-01	1.258158e+14	1.050677e+15	4.793018e+14	1.183875e+04	5.980974e+03	2.116020e+03	0	7.602237e-04
6.300000e+08	5.526087e+12	0.000000e+00	3.467336e-01	1.244872e+14	1.038697e+15	4.769665e+14	1.182212e+04	5.972468e+03	2.113011e+03	0	7.569318e-04
6.400000e+08	5.455125e+12	0.000000e+00	3.467336e-01	1.231847e+14	1.027021e+15	4.746476e+14	1.180566e+04	5.964121e+03	2.110057e+03	0	7.536778e-04
6.500000e+08	5.385569e+12	0.000000e+00	3.467336e-01	1.219078e+14	1.015636e+15	4.723451e+14	1.178937e+04	5.955925e+03	2.107158e+03	0	7.504609e-04
6.600000e+08	5.317379e+12	0.000000e+00	3.467336e-01	1.206555e+14	1.004531e+15	4.700589e+14	1.177325e+04	5.947879e+03	2.104311e+03	0	7.472800e-04
6.700000e+08	5.250515e+12	0.000000e+00	3.467336e-01	1.194274e+14	9.936964e+14	4.677886e+14	1.175729e+04	5.939975e+03	2.101515e+03	0	7.441345e-04
6.800000e+08	5.184939e+12	0.000000e+00	3.467336e-01	1.182225e+14	9.831216e+14	4.655344e+14	1.174150e+04	5.932211e+03	2.098768e+03	0	7.410236e-04
6.900000e+08	5.120614e+12	0.000000e+00	3.467336e-01	1.170403e+14	9.727971e+14	4.632959e+14	1.172587e+04	5.924582e+03	2.096069e+03	0	7.379465e-04
7.000000e+08	5.057507e+12	0.000000e+00	3.467336e-01	1.158802e+14	9.627139e+14	4.610731e+14	1.171039e+04	5.917084e+03	2.093416e+03	0	7.349024e-04
7.100000e+08	4.995582e+12	0.000000e+00	3.467336e-01	1.147416e+14	9.528632e+14	4.588659e+14	1.169506e+04	5.909714e+03	2.090808e+03	0	7.318906e-04
7.200000e+08	4.934807e+12	0.000000e+00	3.467336e-01	1.136238e+14	9.432367e+14	4.566742e+14	1.167988e+04	5.902466e+03	2.088244e+03	0	7.289105e-04
7.300000e+08	4.875150e+12	0.000000e+00	3.467336e-01	1.125262e+14	9.338267e+14	4.544977e+14	1.166486e+04	5.895339e+03	2.085723e+03	0	7.259614e-04
7.400000e+08	4.816582e+12	0.000000e+00	3.467336e-01	1.114484e+14	9.246256e+14	4.523365e+14	1.164997e+04	5.888329e+03	2.083243e+03	0	7.230425e-04
7.500000e+08	4.759073e+12	0.000000e+00	3.467336e-01	1.103899e+14	9.156261e+14	4.501903e+14	1.163523e+04	5.881431e+03	2.080802e+03	0	7.201533e-04
7.600000e+08	4.702595e+12	0.000000e+00	3.467336e-01	1.093500e+14	9.068215e+14	4.480590e+14	1.162063e+04	5.874644e+03	2.078401e+03	0	7.172932e-04
7.700000e+08	4.647121e+12	0.000000e+00	3.467336e-01	1.083283e+14	8.982052e+14	4.459426e+14	1.160616e+04	5.867964e+03	2.076038e+03	0	7.144615e-04
7.800000e+08	4.592625e+12	0.000000e+00	3.467336e-01	1.073244e+14	8.897710e+14	4.438409e+14	1.159183e+04	5.861388e+03	2.073711e+03	0	7.116577e-04
7.900000e+08	4.539081e+12	0.000000e+00	3.467336e-01	1.063378e+14	8.815128e+14	4.417538e+14	1.157764e+04	5.854914e+03	2.071421e+03	0	7.088812e-04
8.000000e+08	4.486464e+12	0.000000e+00	3.467336e-01	1.053680e+14	8.734249e+14	4.396812e+14	1.156357e+04	5.848537e+03	2.069165e+03	0	7.061315e-04
8.100000e+08	4.434752e+12	0.000000e+00	3.467336e-01	1.044146e+14	8.655019e+14	4.376229e+14	1.154963e+04	5.842257e+03	2.066943e+03	0	7.034080e-04
8.200000e+08	4.383921e+12	0.000000e+00	3.467336e-01	1.034772e+14	8.577385e+14	4.355789e+14	1.153582e+04	5.836071e+03	2.064754e+03	0	7.007102e-04
8.300000e+08	4.333949e+12	0.000000e+00	3.467336e-01	1.025555e+14	8.501296e+14	4.335490e+14	1.152213e+04	5.829975e+03	2.062597e+03	0	6.980375e-04
8.400000e+08	4.284815e+12	0.000000e+00	3.467336e-01	1.016489e+14	8.426705e+14	4.315331e+14	1.150856e+04	5.823967e+03	2.060472e+03	0	6.953896e-04
8.500000e+08	4.236499e+12	0.000000e+00	3.467336e-01	1.007572e+14	8.353565e+14	4.295311e+14	1.149511e+04	5.818046e+03	2.058377e+03	0	6.927660e-04
8.600000e+08	4.188979e+12	0.000000e+00	3.467336e-01	9.988001e+13	8.281832e+14	4.275430e+14	1.148178e+04	5.812210e+03	2.056312e+03	0	6.901660e-04
8.700000e+08	4.142238e+12	0.000000e+00	3.467336e-01	9.901694e+13	8.211463e+14	4.255685e+14	1.146856e+04	5.806455e+03	2.054276e+03	0	6.875894e-04
8.800000e+08	4.096256e+12	0.000000e+00	3.467336e-01	9.816766e+13	8.142417e+14	4.236076e+14	1.145546e+04	5.800780e+03	2.052269e+03	0	6.850357e-04
8.900000e+08	4.051016e+12	0.000000e+00	3.467336e-01	9.733186e+13	8.074656e+14	4.216602e+14	1.144247e+04	5.795183e+03	2.050288e+03	0	6.825044e-04
9.000000e+08	4.006498e+12	0.000000e+00	3.467336e-01	9.650921e+13	8.008141e+14	4.197261e+14	1.142959e+04	5.789662e+03	2.048335e+03	0	6.799952e-04
9.100000e+08	3.962688e+12	0.000000e+00	3.467336e-01	9.569941e+13	7.942836e+14	4.178053e+14	1.141682e+04	5.784215e+03	2.046408e+03	0	6.775076e-04
9.200000e+08	3.919568e+12	0.000000e+00	3.467336e-01	9.490217e+13	7.878707e+14	4.158977e+14	1.140416e+04	5.778840e+03	2.044506e+03	0	6.750411e-04
9.300000e+08	3.877122e+12	0.000000e+00	3.467336e-01	9.411718e+13	7.815720e+14	4.140031e+14	1.139160e+04	5.773536e+03	2.042630e+03	0	6.725956e-04
9.400000e+08	3.835335e+12	0.000000e+00	3.467336e-01	9.334418e+13	7.753842e+14	4.121214e+14	1.137914e+04	5.768301e+03	2.040778e+03	0	6.701704e-04
9.500000e+08	3.794191e+12	0.000000e+00	3.467336e-01	9.258290e+13	7.693043e+14	4.102526e+14	1.136679e+04	5.763133e+03	2.038949e+03	0	6.677654e-04
9.600000e+08	3.753677e+12	0.000000e+00	3.467336e-01	9.183306e+13	7.633292e+14	4.083966e+14	1.135454e+04	5.758031e+03	2.037144e+03	0	6.653801e-04
9.700000e+08	3.713778e+12	0.000000e+00	3.467336e-01	9.109442e+13	7.574562e+14	4.065532e+14	1.134238e+04	5.752993e+03	2.035362e+03	0	6.630142e-04
9.800000e+08	3.674481e+12	0.000000e+00	3.467336e-01	9.036672e+13	7.516824e+14	4.047223e+14	1.133033e+04	5.748018e+03	2.033602e+03	0	6.606673e-04
9.900000e+08	3.635771e+12	0.000000e+00	3.467336e-01	8.964973e+13	7.460051e+14	4.029038e+14	1.131837e+04	5.743104e+03	2.031863e+03	0	6.583392e-04
1.000000e+09	3.597637e+12	0.000000e+00	3.467336e-01	8.894322e+13	7.404218e+14	4.010978e+14	1.130650e+04	5.738249e+03	2.030146e+03	0	6.560294e-04
1.010000e+09	3.560066e+12	0.000000e+00	3.467336e-01	8.824695e+13	7.349300e+14	3.993039e+14	1.129473e+04	5.733454e+03	2.028449e+03	0	6.537377e-04
1.020000e+09	3.523045e+12	0.000000e+00	3.467336e-01	8.756071e+13	7.295273e+14	3.975222e+14	1.128305e+04	5.728715e+03	2.026773e+03	0	6.514638e-04
1.030000e+09	3.486563e+12	0.000000e+00	3.467336e-01	8.688428e+13	7.242114e+14	3.957526e+14	1.127146e+04	5.724033e+03	2.025116e+03	0	6.492073e-04
1.040000e+09	3.450609e+12	0.000000e+00	3.467336e-01	8.621746e+13	7.189800e+14	3.939949e+14	1.125996e+04	5.719405e+03	2.023479e+03	0	6.469679e-04
1.050000e+09	3.415170e+12	0.000000e+00	3.467336e-01	8.556004e+13	7.138310e+14	3.922491e+14	1.124854e+04	5.714830e+03	2.021860e+03	0	6.447455e-04
1.060000e+09	3.380237e+12	0.000000e+00	3.467336e-01	8.491183e+13	7.087624e+14	3.905151e+14	1.123722e+04	5.710308e+03	2.020261e+03	0	6.425396e-04
1.070000e+09	3.345799e+12	0.000000e+00	3.467336e-01	8.427264e+13	7.037721e+14	3.887928e+14	1.122598e+04	5.705838e+03	2.018679e+03	0	6.403501e-04
1.080000e+09	3.311845e+12	0.000000e+00	3.467336e-01	8.364228e+13	6.988581e+14	3.870820e+14	1.121482e+04	5.701417e+03	2.017115e+03	0	6.381766e-04
1.090000e+09	3.278366e+12	0.000000e+00	3.467336e-01	8.302057e+13	6.940186e+14	3.853827e+14	1.120375e+04	5.697045e+03	2.015568e+03	0	6.360188e-04
1.100000e+09	3.245351e+12	0.000000e+00	3.467336e-01	8.240734e+13	6.892518e+14	3.836949e+14	1.119276e+04	5.692722e+03	2.014038e+03	0	6.338766e-04
1.110000e+09	3.212792e+12	0.000000e+00	3.467336e-01	8.180241e+13	6.845559e+14	3.820184e+14	1.118185e+04	5.688445e+03	2.012525e+03	0	6.317497e-04
1.120000e+09	3.180679e+12	0.000000e+00	3.467336e-01	8.120562e+13	6.799293e+14	3.803531e+14	1.117102e+04	5.684214e+03	2.011029e+03	0	6.296378e-04
1.130000e+09	3.149004e+12	0.000000e+00	3.467336e-01	8.061681e+13	6.753702e+14	3.786989e+14	1.116027e+04	5.680029e+03	2.009548e+03	0	6.275407e-04
1.140000e+09	3.117757e+12	0.000000e+00	3.467336e-01	8.003581e+13	6.708771e+14	3.770558e+14	1.114960e+04	5.675887e+03	2.008083e+03	0	6.254582e-04
1.150000e+09	3.086930e+12	0.000000e+00	3.467336e-01	7.946248e+13	6.664484e+14	3.754237e+14	1.113900e+04	5.671789e+03	2.006633e+03	0	6.233899e-04
1.160000e+09	3.056515e+12	0.000000e+00	3.467336e-01	7.889667e+13	6.620827e+14	3.738025e+14	1.112848e+04	5.667734e+03	2.005198e+03	0	6.213358e-04
1.170000e+09	3.026504e+12	0.000000e+00	3.467336e-01	7.833823e+13	6.577786e+14	3.721921e+14	1.111804e+04	5.663720e+03	2.003778e+03	0	6.192955e-04
1.180000e+09	2.996889e+12	0.000000e+00	3.467336e-01	7.778702e+13	6.535345e+14	3.705923e+14	1.110766e+04	5.659746e+03	2.002372e+03	0	6.172689e-04
1.190000e+09	2.967663e+12	0.000000e+00	3.467336e-01	7.724289e+13	6.493492e+14	3.690033e+14	1.109736e+04	5.655813e+03	2.000980e+03	0	6.152558e-04
1.200000e+09	2.938817e+12	0.000000e+00	3.467336e-01	7.670573e+13	6.452213e+14	3.674247e+14	1.108714e+04	5.651918e+03	1.999603e+03	0	6.132559e-04
1.210000e+09	2.910346e+12	0.000000e+00	3.467336e-01	7.617539e+13	6.411496e+14	3.658567e+14	1.107698e+04	5.648063e+03	1.998238e+03	0	6.112690e-04
1.220000e+09	2.882240e+12	0.000000e+00	3.467336e-01	7.565175e+13	6.371328e+14	3.642990e+14	1.106690e+04	5.644244e+03	1.996888e+03	0	6.092949e-04
1.230000e+09	2.854495e+12	0.000000e+00	3.467336e-01	7.513467e+13	6.331697e+14	3.627516e+14	1.105688e+04	5.640463e+03	1.995550e+03	0	6.073335e-04
1.240000e+09	2.827103e+12	0.000000e+00	3.467336e-01	7.462405e+13	6.292592e+14	3.612145e+14	1.104693e+04	5.636718e+03	1.994225e+03	0	6.053846e-04
1.250000e+09	2.800057e+12	0.000000e+00	3.467336e-01	7.411977e+13	6.254002e+14	3.596875e+14	1.103705e+04	5.633008e+03	1.992912e+03	0	6.034479e-04
1.260000e+09	2.773351e+12	0.000000e+00	3.467336e-01	7.362169e+13	6.215915e+14	3.581705e+14	1.102723e+04	5.629334e+03	1.991612e+03	0	6.015233e-04
1.270000e+09	2.746980e+12	0.000000e+00	3.467336e-01	7.312973e+13	6.178321e+14	3.566636e+14	1.101748e+04	5.625693e+03	1.990324e+03	0	5.996106e-04
1.280000e+09	2.720936e+12	0.000000e+00	3.467336e-01	7.264375e+13	6.141209e+14	3.551666e+14	1.100780e+04	5.622087e+03	1.989048e+03	0	5.977097e-04
1.290000e+09	2.695214e+12	0.000000e+00	3.467336e-01	7.216366e+13	6.104570e+14	3.536794e+14	1.099818e+04	5.618513e+03	1.987784e+03	0	5.958202e-04
1.300000e+09	2.669808e+12	0.000000e+00	3.467336e-01	7.168935e+13	6.068393e+14	3.522020e+14	1.098862e+04	5.614971e+03	1.986531e+03	0	5.939422e-04
1.310000e+09	2.644713e+12	0.000000e+00	3.467336e-01	7.122072e+13	6.032670e+14	3.507342e+14	1.097913e+04	5.611462e+03	1.985289e+03	0	5.920754e-04
1.320000e+09	2.619922e+12	0.000000e+00	3.467336e-01	7.075766e+13	5.997390e+14	3.492761e+14	1.096970e+04	5.607984e+03	1.984059e+03	0	5.902196e-04
1.330000e+09	2.595431e+12	0.000000e+00	3.467336e-01	7.030009e+13	5.962546e+14	3.478275e+14	1.096033e+04	5.604536e+03	1.982839e+03	0	5.883747e-04
1.340000e+09	2.571235e+12	0.000000e+00	3.467336e-01	6.984790e+13	5.928128e+14	3.463884e+14	1.095102e+04	5.601118e+03	1.981630e+03	0	5.865406e-04
1.350000e+09	2.547327e+12	0.000000e+00	3.467336e-01	6.940100e+13	5.894128e+14	3.449587e+14	1.094177e+04	5.597730e+03	1.980431e+03	0	5.847171e-04
1.360000e+09	2.523704e+12	0.000000e+00	3.467336e-01	6.895930e+13	5.860537e+14	3.435382e+14	1.093258e+04	5.594372e+03	1.979243e+03	0	5.829039e-04
