#t		Qconv[W]	Ri[Rp]		R*[Rp]		Qc[W]		Qm[W]		Qr[W]		Tcmb[K]		Tl[K]		Tup[K]		RiFlag		Bs[T]
0.000000e+00	2.359333e+13	0.000000e+00	3.467336e-01	4.276015e+14	4.875850e+15	7.450243e+14	1.472716e+04	8.081744e+03	2.700064e+03	0	1.222227e-03
1.000000e+07	2.296362e+13	0.000000e+00	3.467336e-01	4.171582e+14	4.645925e+15	7.408963e+14	1.467839e+04	8.018723e+03	2.679010e+03	0	1.211255e-03
2.000000e+07	2.236152e+13	0.000000e+00	3.467336e-01	4.071702e+14	4.435841e+15	7.367992e+14	1.463079e+04	7.959309e+03	2.659160e+03	0	1.200575e-03
3.000000e+07	2.178549e+13	0.000000e+00	3.467336e-01	3.976119e+14	4.243261e+15	7.327327e+14	1.458433e+04	7.903183e+03	2.640408e+03	0	1.190176e-03
4.000000e+07	2.123405e+13	0.000000e+00	3.467336e-01	3.884593e+14	4.066188e+15	7.286966e+14	1.453895e+04	7.850062e+03	2.622661e+03	0	1.180048e-03
5.000000e+07	2.070581e+13	0.000000e+00	3.467336e-01	3.796893e+14	3.902907e+15	7.246906e+14	1.449460e+04	7.799698e+03	2.605835e+03	0	1.170181e-03
6.000000e+07	2.019947e+13	0.000000e+00	3.467336e-01	3.712803e+14	3.751939e+15	7.207144e+14	1.445125e+04	7.751868e+03	2.589855e+03	0	1.160563e-03
7.000000e+07	1.971378e+13	0.000000e+00	3.467336e-01	3.632122e+14	3.612005e+15	7.167678e+14	1.440886e+04	7.706375e+03	2.574656e+03	0	1.151186e-03
8.000000e+07	1.924760e+13	0.000000e+00	3.467336e-01	3.554658e+14	3.481987e+15	7.128506e+14	1.436737e+04	7.663041e+03	2.560178e+03	0	1.142039e-03
9.000000e+07	1.879984e+13	0.000000e+00	3.467336e-01	3.480234e+14	3.360914e+15	7.089626e+14	1.432677e+04	7.621706e+03	2.546369e+03	0	1.133114e-03
1.000000e+08	1.836949e+13	0.000000e+00	3.467336e-01	3.408683e+14	3.247929e+15	7.051033e+14	1.428701e+04	7.582228e+03	2.533179e+03	0	1.124401e-03
1.100000e+08	1.795560e+13	0.000000e+00	3.467336e-01	3.339850e+14	3.142281e+15	7.012728e+14	1.424807e+04	7.544475e+03	2.520566e+03	0	1.115892e-03
1.200000e+08	1.755730e+13	0.000000e+00	3.467336e-01	3.273588e+14	3.043304e+15	6.974706e+14	1.420990e+04	7.508331e+03	2.508491e+03	0	1.107579e-03
1.300000e+08	1.717374e+13	0.000000e+00	3.467336e-01	3.209762e+14	2.950411e+15	6.936966e+14	1.417249e+04	7.473689e+03	2.496917e+03	0	1.099454e-03
1.400000e+08	1.680417e+13	0.000000e+00	3.467336e-01	3.148244e+14	2.863078e+15	6.899505e+14	1.413581e+04	7.440450e+03	2.485812e+03	0	1.091510e-03
1.500000e+08	1.644785e+13	0.000000e+00	3.467336e-01	3.088915e+14	2.780836e+15	6.862321e+14	1.409982e+04	7.408526e+03	2.475146e+03	0	1.083740e-03
1.600000e+08	1.610411e+13	0.000000e+00	3.467336e-01	3.031664e+14	2.703270e+15	6.825411e+14	1.406450e+04	7.377836e+03	2.464893e+03	0	1.076137e-03
1.700000e+08	1.577231e+13	0.000000e+00	3.467336e-01	2.976386e+14	2.630004e+15	6.788774e+14	1.402984e+04	7.348305e+03	2.455027e+03	0	1.068695e-03
1.800000e+08	1.545187e+13	0.000000e+00	3.467336e-01	2.922984e+14	2.560702e+15	6.752407e+14	1.399581e+04	7.319864e+03	2.445525e+03	0	1.061408e-03
1.900000e+08	1.514222e+13	0.000000e+00	3.467336e-01	2.871365e+14	2.495061e+15	6.716308e+14	1.396238e+04	7.292450e+03	2.436366e+03	0	1.054270e-03
2.000000e+08	1.484284e+13	0.000000e+00	3.467336e-01	2.821444e+14	2.432806e+15	6.680475e+14	1.392954e+04	7.266005e+03	2.427531e+03	0	1.047276e-03
2.100000e+08	1.455325e+13	0.000000e+00	3.467336e-01	2.773140e+14	2.373690e+15	6.644905e+14	1.389727e+04	7.240475e+03	2.419001e+03	0	1.040420e-03
2.200000e+08	1.427298e+13	0.000000e+00	3.467336e-01	2.726378e+14	2.317488e+15	6.609596e+14	1.386555e+04	7.215810e+03	2.410761e+03	0	1.033698e-03
2.300000e+08	1.400160e+13	0.000000e+00	3.467336e-01	2.681085e+14	2.263994e+15	6.574547e+14	1.383436e+04	7.191965e+03	2.402794e+03	0	1.027104e-03
2.400000e+08	1.373870e+13	0.000000e+00	3.467336e-01	2.637195e+14	2.213024e+15	6.539754e+14	1.380368e+04	7.168895e+03	2.395087e+03	0	1.020635e-03
2.500000e+08	1.348390e+13	0.000000e+00	3.467336e-01	2.594645e+14	2.164406e+15	6.505216e+14	1.377351e+04	7.146561e+03	2.387625e+03	0	1.014286e-03
2.600000e+08	1.323684e+13	0.000000e+00	3.467336e-01	2.553375e+14	2.117984e+15	6.470931e+14	1.374381e+04	7.124927e+03	2.380397e+03	0	1.008053e-03
2.700000e+08	1.299718e+13	0.000000e+00	3.467336e-01	2.513329e+14	2.073618e+15	6.436897e+14	1.371459e+04	7.103957e+03	2.373391e+03	0	1.001932e-03
2.800000e+08	1.276460e+13	0.000000e+00	3.467336e-01	2.474454e+14	2.031175e+15	6.403111e+14	1.368583e+04	7.083619e+03	2.366597e+03	0	9.959200e-04
2.900000e+08	1.253879e+13	0.000000e+00	3.467336e-01	2.436701e+14	1.990536e+15	6.369572e+14	1.365751e+04	7.063882e+03	2.360003e+03	0	9.900124e-04
3.000000e+08	1.231947e+13	0.000000e+00	3.467336e-01	2.400022e+14	1.951591e+15	6.336278e+14	1.362961e+04	7.044720e+03	2.353601e+03	0	9.842062e-04
3.100000e+08	1.210637e+13	0.000000e+00	3.467336e-01	2.364372e+14	1.914236e+15	6.303225e+14	1.360214e+04	7.026104e+03	2.347381e+03	0	9.784982e-04
3.200000e+08	1.189923e+13	0.000000e+00	3.467336e-01	2.329709e+14	1.878379e+15	6.270414e+14	1.357507e+04	7.008011e+03	2.341336e+03	0	9.728854e-04
3.300000e+08	1.169781e+13	0.000000e+00	3.467336e-01	2.295994e+14	1.843932e+15	6.237841e+14	1.354840e+04	6.990416e+03	2.335458e+03	0	9.673648e-04
3.400000e+08	1.150188e+13	0.000000e+00	3.467336e-01	2.263187e+14	1.810815e+15	6.205504e+14	1.352211e+04	6.973298e+03	2.329739e+03	0	9.619335e-04
3.500000e+08	1.131122e+13	0.000000e+00	3.467336e-01	2.231255e+14	1.778953e+15	6.173402e+14	1.349619e+04	6.956636e+03	2.324172e+03	0	9.565888e-04
3.600000e+08	1.112563e+13	0.000000e+00	3.467336e-01	2.200161e+14	1.748276e+15	6.141533e+14	1.347064e+04	6.940411e+03	2.318752e+03	0	9.513281e-04
3.700000e+08	1.094491e+13	0.000000e+00	3.467336e-01	2.169875e+14	1.718720e+15	6.109895e+14	1.344545e+04	6.924604e+03	2.313471e+03	0	9.461490e-04
3.800000e+08	1.076888e+13	0.000000e+00	3.467336e-01	2.140365e+14	1.690226e+15	6.078485e+14	1.342059e+04	6.909198e+03	2.308324e+03	0	9.410490e-04
3.900000e+08	1.059735e+13	0.000000e+00	3.467336e-01	2.111603e+14	1.662738e+15	6.047303e+14	1.339608e+04	6.894177e+03	2.303305e+03	0	9.360259e-04
4.000000e+08	1.043016e+13	0.000000e+00	3.467336e-01	2.083560e+14	1.636203e+15	6.016346e+14	1.337189e+04	6.879524e+03	2.298410e+03	0	9.310774e-04
4.100000e+08	1.026715e+13	0.000000e+00	3.467336e-01	2.056210e+14	1.610573e+15	5.985612e+14	1.334803e+04	6.865226e+03	2.293633e+03	0	9.262015e-04
4.200000e+08	1.010817e+13	0.000000e+00	3.467336e-01	2.029527e+14	1.585802e+15	5.955099e+14	1.332447e+04	6.851269e+03	2.288970e+03	0	9.213960e-04
4.300000e+08	9.953076e+12	0.000000e+00	3.467336e-01	2.003489e+14	1.561848e+15	5.924807e+14	1.330122e+04	6.837639e+03	2.284416e+03	0	9.166591e-04
4.400000e+08	9.801721e+12	0.000000e+00	3.467336e-01	1.978072e+14	1.538672e+15	5.894732e+14	1.327827e+04	6.824324e+03	2.279968e+03	0	9.119889e-04
4.500000e+08	9.653980e+12	0.000000e+00	3.467336e-01	1.953254e+14	1.516235e+15	5.864873e+14	1.325560e+04	6.811312e+03	2.275620e+03	0	9.073835e-04
4.600000e+08	9.509725e+12	0.000000e+00	3.467336e-01	1.929015e+14	1.494503e+15	5.835229e+14	1.323322e+04	6.798592e+03	2.271371e+03	0	9.028413e-04
4.700000e+08	9.368837e+12	0.000000e+00	3.467336e-01	1.905335e+14	1.473443e+15	5.805797e+14	1.321112e+04	6.786152e+03	2.267215e+03	0	8.983605e-04
4.800000e+08	9.231201e+12	0.000000e+00	3.467336e-01	1.882195e+14	1.453025e+15	5.776577e+14	1.318929e+04	6.773984e+03	2.263149e+03	0	8.939396e-04
4.900000e+08	9.096708e+12	0.000000e+00	3.467336e-01	1.859576e+14	1.433218e+15	5.747565e+14	1.316772e+04	6.762077e+03	2.259171e+03	0	8.895770e-04
5.000000e+08	8.965254e+12	0.000000e+00	3.467336e-01	1.837462e+14	1.413996e+15	5.718761e+14	1.314641e+04	6.750422e+03	2.255278e+03	0	8.852711e-04
5.100000e+08	8.836737e+12	0.000000e+00	3.467336e-01	1.815836e+14	1.395333e+15	5.690163e+14	1.312535e+04	6.739011e+03	2.251465e+03	0	8.810206e-04
5.200000e+08	8.711062e+12	0.000000e+00	3.467336e-01	1.794682e+14	1.377205e+15	5.661768e+14	1.310454e+04	6.727834e+03	2.247731e+03	0	8.768241e-04
5.300000e+08	8.588139e+12	0.000000e+00	3.467336e-01	1.773985e+14	1.359588e+15	5.633577e+14	1.308397e+04	6.716884e+03	2.244073e+03	0	8.726802e-04
5.400000e+08	8.467877e+12	0.000000e+00	3.467336e-01	1.753730e+14	1.342462e+15	5.605586e+14	1.306363e+04	6.706153e+03	2.240488e+03	0	8.685876e-04
5.500000e+08	8.350195e+12	0.000000e+00	3.467336e-01	1.733904e+14	1.325805e+15	5.577794e+14	1.304353e+04	6.695635e+03	2.236973e+03	0	8.645451e-04
5.600000e+08	8.235010e+12	0.000000e+00	3.467336e-01	1.714494e+14	1.309598e+15	5.550200e+14	1.302365e+04	6.685321e+03	2.233528e+03	0	8.605514e-04
5.700000e+08	8.122246e+12	0.000000e+00	3.467336e-01	1.695485e+14	1.293822e+15	5.522801e+14	1.300400e+04	6.675205e+03	2.230148e+03	0	8.566054e-04
5.800000e+08	8.011828e+12	0.000000e+00	3.467336e-01	1.676867e+14	1.278462e+15	5.495598e+14	1.298456e+04	6.665282e+03	2.226833e+03	0	8.527060e-04
5.900000e+08	7.903686e+12	0.000000e+00	3.467336e-01	1.658627e+14	1.263499e+15	5.468587e+14	1.296534e+04	6.655544e+03	2.223579e+03	0	8.488520e-04
6.000000e+08	7.797750e+12	0.000000e+00	3.467336e-01	1.640754e+14	1.248918e+15	5.441767e+14	1.294632e+04	6.645986e+03	2.220386e+03	0	8.450425e-04
6.100000e+08	7.693956e+12	0.000000e+00	3.467336e-01	1.623237e+14	1.234705e+15	5.415137e+14	1.292751e+04	6.636603e+03	2.217251e+03	0	8.412763e-04
6.200000e+08	7.592239e+12	0.000000e+00	3.467336e-01	1.606066e+14	1.220846e+15	5.388695e+14	1.290890e+04	6.627389e+03	2.214173e+03	0	8.375525e-04
6.300000e+08	7.492540e+12	0.000000e+00	3.467336e-01	1.589230e+14	1.207326e+15	5.362439e+14	1.289048e+04	6.618338e+03	2.211149e+03	0	8.338702e-04
6.400000e+08	7.394799e+12	0.000000e+00	3.467336e-01	1.572721e+14	1.194134e+15	5.336369e+14	1.287226e+04	6.609446e+03	2.208178e+03	0	8.302283e-04
6.500000e+08	7.298961e+12	0.000000e+00	3.467336e-01	1.556528e+14	1.181258e+15	5.310483e+14	1.285423e+04	6.600709e+03	2.205259e+03	0	8.266261e-04
6.600000e+08	7.204972e+12	0.000000e+00	3.467336e-01	1.540643e+14	1.168685e+15	5.284779e+14	1.283638e+04	6.592121e+03	2.202390e+03	0	8.230626e-04
6.700000e+08	7.112780e+12	0.000000e+00	3.467336e-01	1.525058e+14	1.156404e+15	5.259255e+14	1.281871e+04	6.583678e+03	2.199569e+03	0	8.195370e-04
6.800000e+08	7.022335e+12	0.000000e+00	3.467336e-01	1.509763e+14	1.144406e+15	5.233911e+14	1.280122e+04	6.575377e+03	2.196796e+03	0	8.160484e-04
6.900000e+08	6.933588e+12	0.000000e+00	3.467336e-01	1.494751e+14	1.132681e+15	5.208744e+14	1.278390e+04	6.567212e+03	2.194068e+03	0	8.125962e-04
7.000000e+08	6.846492e+12	0.000000e+00	3.467336e-01	1.480014e+14	1.121218e+15	5.183754e+14	1.276676e+04	6.559181e+03	2.191385e+03	0	8.091794e-04
7.100000e+08	6.761004e+12	0.000000e+00	3.467336e-01	1.465545e+14	1.110010e+15	5.158939e+14	1.274978e+04	6.551279e+03	2.188745e+03	0	8.057973e-04
7.200000e+08	6.677080e+12	0.000000e+00	3.467336e-01	1.451336e+14	1.099046e+15	5.134297e+14	1.273298e+04	6.543502e+03	2.186147e+03	0	8.024493e-04
7.300000e+08	6.594677e+12	0.000000e+00	3.467336e-01	1.437382e+14	1.088319e+15	5.109828e+14	1.271633e+04	6.535848e+03	2.183590e+03	0	7.991346e-04
7.400000e+08	6.513757e+12	0.000000e+00	3.467336e-01	1.423674e+14	1.077822e+15	5.085529e+14	1.269984e+04	6.528313e+03	2.181072e+03	0	7.958526e-04
7.500000e+08	6.434280e+12	0.000000e+00	3.467336e-01	1.410207e+14	1.067545e+15	5.061400e+14	1.268351e+04	6.520893e+03	2.178593e+03	0	7.926024e-04
7.600000e+08	6.356208e+12	0.000000e+00	3.467336e-01	1.396974e+14	1.057483e+15	5.037439e+14	1.266733e+04	6.513587e+03	2.176152e+03	0	7.893836e-04
7.700000e+08	6.279505e+12	0.000000e+00	3.467336e-01	1.383969e+14	1.047628e+15	5.013645e+14	1.265131e+04	6.506389e+03	2.173748e+03	0	7.861955e-04
7.800000e+08	6.204137e+12	0.000000e+00	3.467336e-01	1.371188e+14	1.037974e+15	4.990016e+14	1.263543e+04	6.499299e+03	2.171379e+03	0	7.830375e-04
7.900000e+08	6.130069e+12	0.000000e+00	3.467336e-01	1.358623e+14	1.028514e+15	4.966551e+14	1.261970e+04	6.492312e+03	2.169044e+03	0	7.799089e-04
8.000000e+08	6.057270e+12	0.000000e+00	3.467336e-01	1.346269e+14	1.019242e+15	4.943248e+14	1.260411e+04	6.485427e+03	2.166744e+03	0	7.768093e-04
8.100000e+08	5.985706e+12	0.000000e+00	3.467336e-01	1.334122e+14	1.010153e+15	4.920108e+14	1.258867e+04	6.478640e+03	2.164477e+03	0	7.737379e-04
8.200000e+08	5.915348e+12	0.000000e+00	3.467336e-01	1.322176e+14	1.001241e+15	4.897127e+14	1.257336e+04	6.471950e+03	2.162242e+03	0	7.706944e-04
8.300000e+08	5.846166e+12	0.000000e+00	3.467336e-01	1.310427e+14	9.924994e+14	4.874305e+14	1.255819e+04	6.465353e+03	2.160038e+03	0	7.676781e-04
8.400000e+08	5.778131e+12	0.000000e+00	3.467336e-01	1.298869e+14	9.839245e+14	4.851641e+14	1.254316e+04	6.458848e+03	2.157864e+03	0	7.646885e-04
8.500000e+08	5.711216e+12	0.000000e+00	3.467336e-01	1.287498e+14	9.755110e+14	4.829134e+14	1.252825e+04	6.452432e+03	2.155721e+03	0	7.617252e-04
8.600000e+08	5.645394e+12	0.000000e+00	3.467336e-01	1.276309e+14	9.672540e+14	4.806781e+14	1.251348e+04	6.446102e+03	2.153606e+03	0	7.587875e-04
8.700000e+08	5.580639e+12	0.000000e+00	3.467336e-01	1.265299e+14	9.591490e+14	4.784583e+14	1.249883e+04	6.439858e+03	2.151520e+03	0	7.558752e-04
8.800000e+08	5.516926e+12	0.000000e+00	3.467336e-01	1.254463e+14	9.511916e+14	4.762537e+14	1.248432e+04	6.433696e+03	2.149461e+03	0	7.529876e-04
8.900000e+08	5.454230e+12	0.000000e+00	3.467336e-01	1.243797e+14	9.433776e+14	4.740642e+14	1.246992e+04	6.427615e+03	2.147430e+03	0	7.501243e-04
9.000000e+08	5.392528e+12	0.000000e+00	3.467336e-01	1.233296e+14	9.357028e+14	4.718898e+14	1.245565e+04	6.421613e+03	2.145424e+03	0	7.472849e-04
9.100000e+08	5.331797e+12	0.000000e+00	3.467336e-01	1.222959e+14	9.281635e+14	4.697303e+14	1.244149e+04	6.415688e+03	2.143445e+03	0	7.444690e-04
9.200000e+08	5.272014e+12	0.000000e+00	3.467336e-01	1.212779e+14	9.207559e+14	4.675855e+14	1.242746e+04	6.409838e+03	2.141490e+03	0	7.416761e-04
9.300000e+08	5.213158e+12	0.000000e+00	3.467336e-01	1.202755e+14	9.134762e+14	4.654555e+14	1.241354e+04	6.404062e+03	2.139561e+03	0	7.389058e-04
9.400000e+08	5.155208e+12	0.000000e+00	3.467336e-01	1.192882e+14	9.063211e+14	4.633400e+14	1.239974e+04	6.398358e+03	2.137655e+03	0	7.361577e-04
9.500000e+08	5.098145e+12	0.000000e+00	3.467336e-01	1.183158e+14	8.992871e+14	4.612389e+14	1.238605e+04	6.392723e+03	2.135772e+03	0	7.334314e-04
9.600000e+08	5.041947e+12	0.000000e+00	3.467336e-01	1.173578e+14	8.923710e+14	4.591522e+14	1.237247e+04	6.387158e+03	2.133913e+03	0	7.307265e-04
9.700000e+08	4.986597e+12	0.000000e+00	3.467336e-01	1.164140e+14	8.855697e+14	4.570797e+14	1.235900e+04	6.381659e+03	2.132076e+03	0	7.280427e-04
9.800000e+08	4.932075e+12	0.000000e+00	3.467336e-01	1.154841e+14	8.788802e+14	4.550213e+14	1.234564e+04	6.376226e+03	2.130261e+03	0	7.253796e-04
9.900000e+08	4.878363e+12	0.000000e+00	3.467336e-01	1.145677e+14	8.722996e+14	4.529768e+14	1.233238e+04	6.370857e+03	2.128467e+03	0	7.227368e-04
1.000000e+09	4.825445e+12	0.000000e+00	3.467336e-01	1.136646e+14	8.658250e+14	4.509463e+14	1.231923e+04	6.365551e+03	2.126694e+03	0	7.201139e-04
1.010000e+09	4.773303e+12	0.000000e+00	3.467336e-01	1.127745e+14	8.594537e+14	4.489295e+14	1.230618e+04	6.360306e+03	2.124942e+03	0	7.175108e-04
1.020000e+09	4.721920e+12	0.000000e+00	3.467336e-01	1.118971e+14	8.531831e+14	4.469264e+14	1.229324e+04	6.355121e+03	2.123210e+03	0	7.149269e-04
1.030000e+09	4.671280e+12	0.000000e+00	3.467336e-01	1.110322e+14	8.470107e+14	4.449368e+14	1.228040e+04	6.349994e+03	2.121497e+03	0	7.123620e-04
1.040000e+09	4.621368e+12	0.000000e+00	3.467336e-01	1.101794e+14	8.409341e+14	4.429607e+14	1.226765e+04	6.344926e+03	2.119803e+03	0	7.098157e-04
1.050000e+09	4.572169e+12	0.000000e+00	3.467336e-01	1.093386e+14	8.349508e+14	4.409979e+14	1.225500e+04	6.339913e+03	2.118129e+03	0	7.072878e-04
1.060000e+09	4.523668e+12	0.000000e+00	3.467336e-01	1.085095e+14	8.290587e+14	4.390484e+14	1.224245e+04	6.334956e+03	2.116473e+03	0	7.047780e-04
1.070000e+09	4.475850e+12	0.000000e+00	3.467336e-01	1.076918e+14	8.232554e+14	4.371120e+14	1.222999e+04	6.330052e+03	2.114834e+03	0	7.022859e-04
1.080000e+09	4.428702e+12	0.000000e+00	3.467336e-01	1.068854e+14	8.175388e+14	4.351886e+14	1.221763e+04	6.325202e+03	2.113214e+03	0	6.998113e-04
1.090000e+09	4.382210e+12	0.000000e+00	3.467336e-01	1.060899e+14	8.119070e+14	4.332782e+14	1.220536e+04	6.320403e+03	2.111611e+03	0	6.973538e-04
1.100000e+09	4.336360e+12	0.000000e+00	3.467336e-01	1.053053e+14	8.063578e+14	4.313806e+14	1.219318e+04	6.315655e+03	2.110024e+03	0	6.949132e-04
1.110000e+09	4.291141e+12	0.000000e+00	3.467336e-01	1.045311e+14	8.008893e+14	4.294957e+14	1.218109e+04	6.310957e+03	2.108455e+03	0	6.924892e-04
1.120000e+09	4.246538e+12	0.000000e+00	3.467336e-01	1.037674e+14	7.954997e+14	4.276234e+14	1.216909e+04	6.306307e+03	2.106901e+03	0	6.900816e-04
1.130000e+09	4.202541e+12	0.000000e+00	3.467336e-01	1.030138e+14	7.901871e+14	4.257637e+14	1.215718e+04	6.301705e+03	2.105364e+03	0	6.876901e-04
1.140000e+09	4.159137e+12	0.000000e+00	3.467336e-01	1.022701e+14	7.849498e+14	4.239164e+14	1.214535e+04	6.297150e+03	2.103842e+03	0	6.853143e-04
1.150000e+09	4.116314e+12	0.000000e+00	3.467336e-01	1.015362e+14	7.797861e+14	4.220815e+14	1.213361e+04	6.292641e+03	2.102335e+03	0	6.829542e-04
1.160000e+09	4.074062e+12	0.000000e+00	3.467336e-01	1.008119e+14	7.746943e+14	4.202587e+14	1.212195e+04	6.288177e+03	2.100844e+03	0	6.806094e-04
1.170000e+09	4.032369e+12	0.000000e+00	3.467336e-01	1.000969e+14	7.696728e+14	4.184482e+14	1.211037e+04	6.283757e+03	2.099367e+03	0	6.782797e-04
1.180000e+09	3.991224e+12	0.000000e+00	3.467336e-01	9.939119e+13	7.647201e+14	4.166496e+14	1.209888e+04	6.279380e+03	2.097905e+03	0	6.759649e-04
1.190000e+09	3.950618e+12	0.000000e+00	3.467336e-01	9.869449e+13	7.598347e+14	4.148631e+14	1.208747e+04	6.275045e+03	2.096457e+03	0	6.736647e-04
1.200000e+09	3.910540e+12	0.000000e+00	3.467336e-01	9.800666e+13	7.550150e+14	4.130883e+14	1.207614e+04	6.270753e+03	2.095023e+03	0	6.713789e-04
1.210000e+09	3.870980e+12	0.000000e+00	3.467336e-01	9.732752e+13	7.502597e+14	4.113254e+14	1.206488e+04	6.266501e+03	2.093602e+03	0	6.691072e-04
1.220000e+09	3.831928e+12	0.000000e+00	3.467336e-01	9.665692e+13	7.455674e+14	4.095741e+14	1.205371e+04	6.262290e+03	2.092195e+03	0	6.668496e-04
1.230000e+09	3.793375e+12	0.000000e+00	3.467336e-01	9.599471e+13	7.409367e+14	4.078345e+14	1.204261e+04	6.258117e+03	2.090801e+03	0	6.646056e-04
1.240000e+09	3.755311e+12	0.000000e+00	3.467336e-01	9.534072e+13	7.363664e+14	4.061063e+14	1.203158e+04	6.253984e+03	2.089420e+03	0	6.623752e-04
1.250000e+09	3.717729e+12	0.000000e+00	3.467336e-01	9.469481e+13	7.318552e+14	4.043895e+14	1.202064e+04	6.249888e+03	2.088052e+03	0	6.601582e-04
1.260000e+09	3.680618e+12	0.000000e+00	3.467336e-01	9.405683e+13	7.274019e+14	4.026840e+14	1.200976e+04	6.245830e+03	2.086696e+03	0	6.579542e-04
1.270000e+09	3.643970e+12	0.000000e+00	3.467336e-01	9.342664e+13	7.230052e+14	4.009898e+14	1.199896e+04	6.241808e+03	2.085353e+03	0	6.557632e-04
1.280000e+09	3.607778e+12	0.000000e+00	3.467336e-01	9.280410e+13	7.186641e+14	3.993068e+14	1.198823e+04	6.237822e+03	2.084021e+03	0	6.535849e-04
1.290000e+09	3.572032e+12	0.000000e+00	3.467336e-01	9.218908e+13	7.143773e+14	3.976347e+14	1.197757e+04	6.233872e+03	2.082701e+03	0	6.514192e-04
1.300000e+09	3.536726e+12	0.000000e+00	3.467336e-01	9.158143e+13	7.101439e+14	3.959737e+14	1.196699e+04	6.229956e+03	2.081393e+03	0	6.492658e-04
1.310000e+09	3.501850e+12	0.000000e+00	3.467336e-01	9.098104e+13	7.059626e+14	3.943236e+14	1.195647e+04	6.226075e+03	2.080096e+03	0	6.471247e-04
1.320000e+09	3.467398e+12	0.000000e+00	3.467336e-01	9.038777e+13	7.018326e+14	3.926842e+14	1.194602e+04	6.222227e+03	2.078810e+03	0	6.449955e-04
1.330000e+09	3.433362e+12	0.000000e+00	3.467336e-01	8.980150e+13	6.977528e+14	3.910556e+14	1.193564e+04	6.218412e+03	2.077536e+03	0	6.428781e-04
1.340000e+09	3.399734e+12	0.000000e+00	3.467336e-01	8.922211e+13	6.937222e+14	3.894376e+14	1.192533e+04	6.214629e+03	2.076272e+03	0	6.407723e-04
1.350000e+09	3.366509e+12	0.000000e+00	3.467336e-01	8.864948e+13	6.897399e+14	3.878302e+14	1.191508e+04	6.210878e+03	2.075019e+03	0	6.386781e-04
1.360000e+09	3.333678e+12	0.000000e+00	3.467336e-01	8.808350e+13	6.858049e+14	3.862332e+14	1.190490e+04	6.207159e+03	2.073776e+03	0	6.365951e-04
