#t		Qconv[W]	Ri[Rp]		R*[Rp]		Qc[W]		Qm[W]		Qr[W]		Tcmb[K]		Tl[K]		Tup[K]		RiFlag		Bs[T]
0.000000e+00	3.027066e+13	0.000000e+00	3.467336e-01	5.135695e+14	4.910877e+15	8.277194e+14	1.590028e+04	8.669105e+03	2.751002e+03	0	1.322272e-03
1.000000e+07	2.949954e+13	0.000000e+00	3.467336e-01	5.017318e+14	4.712249e+15	8.231332e+14	1.584863e+04	8.613212e+03	2.733265e+03	0	1.310947e-03
2.000000e+07	2.876041e+13	0.000000e+00	3.467336e-01	4.903818e+14	4.528633e+15	8.185813e+14	1.579815e+04	8.560132e+03	2.716421e+03	0	1.299906e-03
3.000000e+07	2.805149e+13	0.000000e+00	3.467336e-01	4.794926e+14	4.358464e+15	8.140635e+14	1.574881e+04	8.509644e+03	2.700399e+03	0	1.289136e-03
4.000000e+07	2.737113e+13	0.000000e+00	3.467336e-01	4.690387e+14	4.200380e+15	8.095794e+14	1.570056e+04	8.461550e+03	2.685138e+03	0	1.278629e-03
5.000000e+07	2.671775e+13	0.000000e+00	3.467336e-01	4.589963e+14	4.053191e+15	8.051287e+14	1.565335e+04	8.415674e+03	2.670580e+03	0	1.268372e-03
6.000000e+07	2.608988e+13	0.000000e+00	3.467336e-01	4.493432e+14	3.915853e+15	8.007112e+14	1.560714e+04	8.371856e+03	2.656675e+03	0	1.258358e-03
7.000000e+07	2.548615e+13	0.000000e+00	3.467336e-01	4.400583e+14	3.787450e+15	7.963266e+14	1.556190e+04	8.329950e+03	2.643377e+03	0	1.248576e-03
8.000000e+07	2.490527e+13	0.000000e+00	3.467336e-01	4.311221e+14	3.667170e+15	7.919746e+14	1.551759e+04	8.289827e+03	2.630644e+03	0	1.239017e-03
9.000000e+07	2.434604e+13	0.000000e+00	3.467336e-01	4.225162e+14	3.554294e+15	7.876549e+14	1.547418e+04	8.251367e+03	2.618439e+03	0	1.229673e-03
1.000000e+08	2.380732e+13	0.000000e+00	3.467336e-01	4.142234e+14	3.448185e+15	7.833673e+14	1.543162e+04	8.214461e+03	2.606728e+03	0	1.220535e-03
1.100000e+08	2.328807e+13	0.000000e+00	3.467336e-01	4.062278e+14	3.348272e+15	7.791116e+14	1.538989e+04	8.179012e+03	2.595479e+03	0	1.211596e-03
1.200000e+08	2.278729e+13	0.000000e+00	3.467336e-01	3.985141e+14	3.254046e+15	7.748874e+14	1.534897e+04	8.144929e+03	2.584663e+03	0	1.202849e-03
1.300000e+08	2.230404e+13	0.000000e+00	3.467336e-01	3.910683e+14	3.165052e+15	7.706945e+14	1.530882e+04	8.112129e+03	2.574254e+03	0	1.194285e-03
1.400000e+08	2.183747e+13	0.000000e+00	3.467336e-01	3.838771e+14	3.080880e+15	7.665326e+14	1.526941e+04	8.080535e+03	2.564229e+03	0	1.185899e-03
1.500000e+08	2.138676e+13	0.000000e+00	3.467336e-01	3.769282e+14	3.001159e+15	7.624014e+14	1.523072e+04	8.050078e+03	2.554564e+03	0	1.177683e-03
1.600000e+08	2.095113e+13	0.000000e+00	3.467336e-01	3.702098e+14	2.925556e+15	7.583008e+14	1.519273e+04	8.020694e+03	2.545239e+03	0	1.169632e-03
1.700000e+08	2.052988e+13	0.000000e+00	3.467336e-01	3.637109e+14	2.853770e+15	7.542305e+14	1.515542e+04	7.992321e+03	2.536236e+03	0	1.161740e-03
1.800000e+08	2.012232e+13	0.000000e+00	3.467336e-01	3.574214e+14	2.785526e+15	7.501901e+14	1.511875e+04	7.964906e+03	2.527536e+03	0	1.154001e-03
1.900000e+08	1.972782e+13	0.000000e+00	3.467336e-01	3.513315e+14	2.720575e+15	7.461795e+14	1.508271e+04	7.938397e+03	2.519124e+03	0	1.146410e-03
2.000000e+08	1.934578e+13	0.000000e+00	3.467336e-01	3.454321e+14	2.658690e+15	7.421984e+14	1.504729e+04	7.912747e+03	2.510984e+03	0	1.138961e-03
2.100000e+08	1.897564e+13	0.000000e+00	3.467336e-01	3.397146e+14	2.599665e+15	7.382466e+14	1.501246e+04	7.887911e+03	2.503103e+03	0	1.131650e-03
2.200000e+08	1.861687e+13	0.000000e+00	3.467336e-01	3.341710e+14	2.543310e+15	7.343238e+14	1.497820e+04	7.863848e+03	2.495467e+03	0	1.124473e-03
2.300000e+08	1.826896e+13	0.000000e+00	3.467336e-01	3.287935e+14	2.489451e+15	7.304298e+14	1.494450e+04	7.840520e+03	2.488064e+03	0	1.117424e-03
2.400000e+08	1.793145e+13	0.000000e+00	3.467336e-01	3.235751e+14	2.437931e+15	7.265644e+14	1.491133e+04	7.817891e+03	2.480883e+03	0	1.110500e-03
2.500000e+08	1.760389e+13	0.000000e+00	3.467336e-01	3.185089e+14	2.388602e+15	7.227273e+14	1.487869e+04	7.795928e+03	2.473913e+03	0	1.103696e-03
2.600000e+08	1.728585e+13	0.000000e+00	3.467336e-01	3.135884e+14	2.341331e+15	7.189182e+14	1.484656e+04	7.774599e+03	2.467145e+03	0	1.097009e-03
2.700000e+08	1.697694e+13	0.000000e+00	3.467336e-01	3.088077e+14	2.295993e+15	7.151370e+14	1.481492e+04	7.753875e+03	2.460569e+03	0	1.090435e-03
2.800000e+08	1.667678e+13	0.000000e+00	3.467336e-01	3.041610e+14	2.252474e+15	7.113834e+14	1.478377e+04	7.733729e+03	2.454175e+03	0	1.083971e-03
2.900000e+08	1.638501e+13	0.000000e+00	3.467336e-01	2.996427e+14	2.210668e+15	7.076572e+14	1.475307e+04	7.714135e+03	2.447957e+03	0	1.077612e-03
3.000000e+08	1.610130e+13	0.000000e+00	3.467336e-01	2.952479e+14	2.170478e+15	7.039582e+14	1.472284e+04	7.695068e+03	2.441907e+03	0	1.071356e-03
3.100000e+08	1.582533e+13	0.000000e+00	3.467336e-01	2.909715e+14	2.131812e+15	7.002861e+14	1.469304e+04	7.676505e+03	2.436016e+03	0	1.065200e-03
3.200000e+08	1.555679e+13	0.000000e+00	3.467336e-01	2.868090e+14	2.094586e+15	6.966408e+14	1.466368e+04	7.658425e+03	2.430279e+03	0	1.059140e-03
3.300000e+08	1.529539e+13	0.000000e+00	3.467336e-01	2.827559e+14	2.058722e+15	6.930219e+14	1.463473e+04	7.640809e+03	2.424689e+03	0	1.053175e-03
3.400000e+08	1.504086e+13	0.000000e+00	3.467336e-01	2.788080e+14	2.024148e+15	6.894293e+14	1.460619e+04	7.623635e+03	2.419239e+03	0	1.047300e-03
3.500000e+08	1.479294e+13	0.000000e+00	3.467336e-01	2.749615e+14	1.990795e+15	6.858628e+14	1.457804e+04	7.606888e+03	2.413924e+03	0	1.041514e-03
3.600000e+08	1.455138e+13	0.000000e+00	3.467336e-01	2.712124e+14	1.958600e+15	6.823222e+14	1.455028e+04	7.590548e+03	2.408739e+03	0	1.035813e-03
3.700000e+08	1.431594e+13	0.000000e+00	3.467336e-01	2.675573e+14	1.927505e+15	6.788072e+14	1.452290e+04	7.574601e+03	2.403679e+03	0	1.030197e-03
3.800000e+08	1.408641e+13	0.000000e+00	3.467336e-01	2.639926e+14	1.897453e+15	6.753176e+14	1.449589e+04	7.559031e+03	2.398738e+03	0	1.024661e-03
3.900000e+08	1.386256e+13	0.000000e+00	3.467336e-01	2.605152e+14	1.868393e+15	6.718532e+14	1.446923e+04	7.543822e+03	2.393912e+03	0	1.019204e-03
4.000000e+08	1.364419e+13	0.000000e+00	3.467336e-01	2.571219e+14	1.840278e+15	6.684139e+14	1.444293e+04	7.528963e+03	2.389196e+03	0	1.013824e-03
4.100000e+08	1.343112e+13	0.000000e+00	3.467336e-01	2.538097e+14	1.813061e+15	6.649994e+14	1.441697e+04	7.514439e+03	2.384587e+03	0	1.008519e-03
4.200000e+08	1.322315e+13	0.000000e+00	3.467336e-01	2.505759e+14	1.786701e+15	6.616095e+14	1.439133e+04	7.500238e+03	2.380081e+03	0	1.003287e-03
4.300000e+08	1.302010e+13	0.000000e+00	3.467336e-01	2.474177e+14	1.761156e+15	6.582439e+14	1.436603e+04	7.486348e+03	2.375673e+03	0	9.981250e-04
4.400000e+08	1.282182e+13	0.000000e+00	3.467336e-01	2.443325e+14	1.736391e+15	6.549027e+14	1.434104e+04	7.472759e+03	2.371361e+03	0	9.930322e-04
4.500000e+08	1.262813e+13	0.000000e+00	3.467336e-01	2.413179e+14	1.712369e+15	6.515854e+14	1.431636e+04	7.459458e+03	2.367140e+03	0	9.880065e-04
4.600000e+08	1.243888e+13	0.000000e+00	3.467336e-01	2.383715e+14	1.689057e+15	6.482919e+14	1.429199e+04	7.446437e+03	2.363008e+03	0	9.830462e-04
4.700000e+08	1.225393e+13	0.000000e+00	3.467336e-01	2.354911e+14	1.666424e+15	6.450221e+14	1.426791e+04	7.433685e+03	2.358961e+03	0	9.781497e-04
4.800000e+08	1.207314e+13	0.000000e+00	3.467336e-01	2.326746e+14	1.644441e+15	6.417756e+14	1.424412e+04	7.421194e+03	2.354997e+03	0	9.733153e-04
4.900000e+08	1.189636e+13	0.000000e+00	3.467336e-01	2.299198e+14	1.623079e+15	6.385525e+14	1.422061e+04	7.408954e+03	2.351113e+03	0	9.685415e-04
5.000000e+08	1.172348e+13	0.000000e+00	3.467336e-01	2.272247e+14	1.602312e+15	6.353523e+14	1.419739e+04	7.396957e+03	2.347306e+03	0	9.638268e-04
5.100000e+08	1.155436e+13	0.000000e+00	3.467336e-01	2.245876e+14	1.582116e+15	6.321751e+14	1.417443e+04	7.385194e+03	2.343573e+03	0	9.591697e-04
5.200000e+08	1.138889e+13	0.000000e+00	3.467336e-01	2.220065e+14	1.562466e+15	6.290205e+14	1.415174e+04	7.373659e+03	2.339913e+03	0	9.545689e-04
5.300000e+08	1.122696e+13	0.000000e+00	3.467336e-01	2.194798e+14	1.543341e+15	6.258884e+14	1.412931e+04	7.362344e+03	2.336322e+03	0	9.500230e-04
5.400000e+08	1.106844e+13	0.000000e+00	3.467336e-01	2.170057e+14	1.524720e+15	6.227786e+14	1.410713e+04	7.351242e+03	2.332799e+03	0	9.455308e-04
5.500000e+08	1.091325e+13	0.000000e+00	3.467336e-01	2.145827e+14	1.506582e+15	6.196909e+14	1.408520e+04	7.340345e+03	2.329341e+03	0	9.410908e-04
5.600000e+08	1.076128e+13	0.000000e+00	3.467336e-01	2.122092e+14	1.488909e+15	6.166252e+14	1.406352e+04	7.329649e+03	2.325947e+03	0	9.367020e-04
5.700000e+08	1.061243e+13	0.000000e+00	3.467336e-01	2.098837e+14	1.471682e+15	6.135813e+14	1.404207e+04	7.319145e+03	2.322614e+03	0	9.323631e-04
5.800000e+08	1.046661e+13	0.000000e+00	3.467336e-01	2.076049e+14	1.454884e+15	6.105590e+14	1.402086e+04	7.308830e+03	2.319340e+03	0	9.280731e-04
5.900000e+08	1.032373e+13	0.000000e+00	3.467336e-01	2.053713e+14	1.438500e+15	6.075581e+14	1.399988e+04	7.298696e+03	2.316125e+03	0	9.238307e-04
6.000000e+08	1.018371e+13	0.000000e+00	3.467336e-01	2.031817e+14	1.422513e+15	6.045784e+14	1.397912e+04	7.288738e+03	2.312965e+03	0	9.196349e-04
6.100000e+08	1.004645e+13	0.000000e+00	3.467336e-01	2.010347e+14	1.406910e+15	6.016198e+14	1.395859e+04	7.278952e+03	2.309859e+03	0	9.154847e-04
6.200000e+08	9.911896e+12	0.000000e+00	3.467336e-01	1.989293e+14	1.391676e+15	5.986821e+14	1.393827e+04	7.269332e+03	2.306806e+03	0	9.113791e-04
6.300000e+08	9.779953e+12	0.000000e+00	3.467336e-01	1.968641e+14	1.376797e+15	5.957652e+14	1.391816e+04	7.259873e+03	2.303805e+03	0	9.073170e-04
6.400000e+08	9.650553e+12	0.000000e+00	3.467336e-01	1.948380e+14	1.362262e+15	5.928688e+14	1.389826e+04	7.250570e+03	2.300853e+03	0	9.032977e-04
6.500000e+08	9.523625e+12	0.000000e+00	3.467336e-01	1.928501e+14	1.348057e+15	5.899928e+14	1.387856e+04	7.241420e+03	2.297949e+03	0	8.993200e-04
6.600000e+08	9.399101e+12	0.000000e+00	3.467336e-01	1.908992e+14	1.334172e+15	5.871371e+14	1.385907e+04	7.232418e+03	2.295092e+03	0	8.953831e-04
6.700000e+08	9.276914e+12	0.000000e+00	3.467336e-01	1.889843e+14	1.320596e+15	5.843014e+14	1.383977e+04	7.223559e+03	2.292281e+03	0	8.914863e-04
6.800000e+08	9.157002e+12	0.000000e+00	3.467336e-01	1.871045e+14	1.307317e+15	5.814857e+14	1.382066e+04	7.214841e+03	2.289514e+03	0	8.876285e-04
6.900000e+08	9.039302e+12	0.000000e+00	3.467336e-01	1.852588e+14	1.294326e+15	5.786897e+14	1.380175e+04	7.206258e+03	2.286791e+03	0	8.838091e-04
7.000000e+08	8.923757e+12	0.000000e+00	3.467336e-01	1.834463e+14	1.281614e+15	5.759133e+14	1.378302e+04	7.197807e+03	2.284109e+03	0	8.800271e-04
7.100000e+08	8.810309e+12	0.000000e+00	3.467336e-01	1.816662e+14	1.269171e+15	5.731563e+14	1.376447e+04	7.189485e+03	2.281468e+03	0	8.762819e-04
7.200000e+08	8.698902e+12	0.000000e+00	3.467336e-01	1.799175e+14	1.256988e+15	5.704186e+14	1.374610e+04	7.181289e+03	2.278867e+03	0	8.725727e-04
7.300000e+08	8.589485e+12	0.000000e+00	3.467336e-01	1.781996e+14	1.245057e+15	5.677001e+14	1.372791e+04	7.173214e+03	2.276305e+03	0	8.688988e-04
7.400000e+08	8.482004e+12	0.000000e+00	3.467336e-01	1.765115e+14	1.233370e+15	5.650005e+14	1.370989e+04	7.165258e+03	2.273780e+03	0	8.652594e-04
7.500000e+08	8.376412e+12	0.000000e+00	3.467336e-01	1.748525e+14	1.221919e+15	5.623198e+14	1.369204e+04	7.157418e+03	2.271292e+03	0	8.616538e-04
7.600000e+08	8.272660e+12	0.000000e+00	3.467336e-01	1.732220e+14	1.210697e+15	5.596577e+14	1.367436e+04	7.149690e+03	2.268840e+03	0	8.580815e-04
7.700000e+08	8.170701e+12	0.000000e+00	3.467336e-01	1.716191e+14	1.199697e+15	5.570142e+14	1.365684e+04	7.142073e+03	2.266423e+03	0	8.545417e-04
7.800000e+08	8.070491e+12	0.000000e+00	3.467336e-01	1.700433e+14	1.188911e+15	5.543890e+14	1.363949e+04	7.134562e+03	2.264039e+03	0	8.510338e-04
7.900000e+08	7.971986e+12	0.000000e+00	3.467336e-01	1.684938e+14	1.178334e+15	5.517820e+14	1.362229e+04	7.127156e+03	2.261689e+03	0	8.475571e-04
8.000000e+08	7.875145e+12	0.000000e+00	3.467336e-01	1.669700e+14	1.167959e+15	5.491932e+14	1.360525e+04	7.119852e+03	2.259371e+03	0	8.441112e-04
8.100000e+08	7.779926e+12	0.000000e+00	3.467336e-01	1.654712e+14	1.157780e+15	5.466222e+14	1.358836e+04	7.112647e+03	2.257085e+03	0	8.406953e-04
8.200000e+08	7.686292e+12	0.000000e+00	3.467336e-01	1.639969e+14	1.147792e+15	5.440691e+14	1.357163e+04	7.105539e+03	2.254829e+03	0	8.373090e-04
8.300000e+08	7.594202e+12	0.000000e+00	3.467336e-01	1.625466e+14	1.137988e+15	5.415336e+14	1.355504e+04	7.098525e+03	2.252604e+03	0	8.339516e-04
8.400000e+08	7.503622e+12	0.000000e+00	3.467336e-01	1.611195e+14	1.128364e+15	5.390157e+14	1.353860e+04	7.091604e+03	2.250407e+03	0	8.306227e-04
8.500000e+08	7.414514e+12	0.000000e+00	3.467336e-01	1.597152e+14	1.118914e+15	5.365151e+14	1.352230e+04	7.084773e+03	2.248240e+03	0	8.273216e-04
8.600000e+08	7.326845e+12	0.000000e+00	3.467336e-01	1.583331e+14	1.109633e+15	5.340317e+14	1.350615e+04	7.078030e+03	2.246100e+03	0	8.240479e-04
8.700000e+08	7.240580e+12	0.000000e+00	3.467336e-01	1.569728e+14	1.100517e+15	5.315654e+14	1.349013e+04	7.071373e+03	2.243987e+03	0	8.208011e-04
8.800000e+08	7.155688e+12	0.000000e+00	3.467336e-01	1.556337e+14	1.091562e+15	5.291161e+14	1.347425e+04	7.064799e+03	2.241901e+03	0	8.175807e-04
8.900000e+08	7.072137e+12	0.000000e+00	3.467336e-01	1.543153e+14	1.082761e+15	5.266837e+14	1.345851e+04	7.058308e+03	2.239841e+03	0	8.143861e-04
9.000000e+08	6.989896e+12	0.000000e+00	3.467336e-01	1.530172e+14	1.074113e+15	5.242679e+14	1.344290e+04	7.051897e+03	2.237807e+03	0	8.112170e-04
9.100000e+08	6.908936e+12	0.000000e+00	3.467336e-01	1.517389e+14	1.065611e+15	5.218687e+14	1.342742e+04	7.045564e+03	2.235797e+03	0	8.080729e-04
9.200000e+08	6.829228e+12	0.000000e+00	3.467336e-01	1.504801e+14	1.057253e+15	5.194859e+14	1.341207e+04	7.039308e+03	2.233812e+03	0	8.049533e-04
9.300000e+08	6.750743e+12	0.000000e+00	3.467336e-01	1.492401e+14	1.049035e+15	5.171194e+14	1.339684e+04	7.033127e+03	2.231850e+03	0	8.018578e-04
9.400000e+08	6.673455e+12	0.000000e+00	3.467336e-01	1.480187e+14	1.040952e+15	5.147691e+14	1.338175e+04	7.027019e+03	2.229912e+03	0	7.987859e-04
9.500000e+08	6.597338e+12	0.000000e+00	3.467336e-01	1.468154e+14	1.033002e+15	5.124348e+14	1.336677e+04	7.020982e+03	2.227997e+03	0	7.957373e-04
9.600000e+08	6.522365e+12	0.000000e+00	3.467336e-01	1.456298e+14	1.025181e+15	5.101165e+14	1.335192e+04	7.015016e+03	2.226103e+03	0	7.927116e-04
9.700000e+08	6.448513e+12	0.000000e+00	3.467336e-01	1.444616e+14	1.017485e+15	5.078139e+14	1.333718e+04	7.009118e+03	2.224232e+03	0	7.897083e-04
9.800000e+08	6.375757e+12	0.000000e+00	3.467336e-01	1.433104e+14	1.009912e+15	5.055270e+14	1.332256e+04	7.003287e+03	2.222381e+03	0	7.867270e-04
9.900000e+08	6.304073e+12	0.000000e+00	3.467336e-01	1.421758e+14	1.002458e+15	5.032557e+14	1.330806e+04	6.997522e+03	2.220552e+03	0	7.837674e-04
1.000000e+09	6.233439e+12	0.000000e+00	3.467336e-01	1.410574e+14	9.951209e+14	5.009997e+14	1.329368e+04	6.991822e+03	2.218743e+03	0	7.808292e-04
1.010000e+09	6.163832e+12	0.000000e+00	3.467336e-01	1.399550e+14	9.878971e+14	4.987591e+14	1.327941e+04	6.986184e+03	2.216954e+03	0	7.779119e-04
1.020000e+09	6.095231e+12	0.000000e+00	3.467336e-01	1.388682e+14	9.807842e+14	4.965336e+14	1.326524e+04	6.980608e+03	2.215184e+03	0	7.750152e-04
1.030000e+09	6.027616e+12	0.000000e+00	3.467336e-01	1.377967e+14	9.737793e+14	4.943233e+14	1.325119e+04	6.975092e+03	2.213434e+03	0	7.721387e-04
1.040000e+09	5.960965e+12	0.000000e+00	3.467336e-01	1.367401e+14	9.668799e+14	4.921278e+14	1.323725e+04	6.969636e+03	2.211703e+03	0	7.692822e-04
1.050000e+09	5.895259e+12	0.000000e+00	3.467336e-01	1.356982e+14	9.600835e+14	4.899472e+14	1.322341e+04	6.964237e+03	2.209989e+03	0	7.664452e-04
1.060000e+09	5.830478e+12	0.000000e+00	3.467336e-01	1.346706e+14	9.533877e+14	4.877812e+14	1.320968e+04	6.958896e+03	2.208294e+03	0	7.636275e-04
1.070000e+09	5.766604e+12	0.000000e+00	3.467336e-01	1.336572e+14	9.467900e+14	4.856299e+14	1.319605e+04	6.953610e+03	2.206617e+03	0	7.608287e-04
1.080000e+09	5.703619e+12	0.000000e+00	3.467336e-01	1.326575e+14	9.402882e+14	4.834931e+14	1.318252e+04	6.948378e+03	2.204957e+03	0	7.580485e-04
1.090000e+09	5.641505e+12	0.000000e+00	3.467336e-01	1.316713e+14	9.338801e+14	4.813706e+14	1.316910e+04	6.943200e+03	2.203314e+03	0	7.552866e-04
1.100000e+09	5.580244e+12	0.000000e+00	3.467336e-01	1.306984e+14	9.275635e+14	4.792623e+14	1.315577e+04	6.938074e+03	2.201687e+03	0	7.525428e-04
1.110000e+09	5.519819e+12	0.000000e+00	3.467336e-01	1.297384e+14	9.213364e+14	4.771682e+14	1.314255e+04	6.933000e+03	2.200077e+03	0	7.498167e-04
1.120000e+09	5.460215e+12	0.000000e+00	3.467336e-01	1.287912e+14	9.151968e+14	4.750882e+14	1.312941e+04	6.927977e+03	2.198483e+03	0	7.471080e-04
1.130000e+09	5.401414e+12	0.000000e+00	3.467336e-01	1.278565e+14	9.091427e+14	4.730220e+14	1.311638e+04	6.923003e+03	2.196904e+03	0	7.444165e-04
1.140000e+09	5.343402e+12	0.000000e+00	3.467336e-01	1.269341e+14	9.031722e+14	4.709697e+14	1.310344e+04	6.918077e+03	2.195341e+03	0	7.417418e-04
1.150000e+09	5.286164e+12	0.000000e+00	3.467336e-01	1.260236e+14	8.972835e+14	4.689310e+14	1.309059e+04	6.913199e+03	2.193793e+03	0	7.390838e-04
1.160000e+09	5.229683e+12	0.000000e+00	3.467336e-01	1.251250e+14	8.914748e+14	4.669060e+14	1.307784e+04	6.908368e+03	2.192260e+03	0	7.364421e-04
1.170000e+09	5.173947e+12	0.000000e+00	3.467336e-01	1.242379e+14	8.857443e+14	4.648944e+14	1.306517e+04	6.903583e+03	2.190742e+03	0	7.338165e-04
1.180000e+09	5.118941e+12	0.000000e+00	3.467336e-01	1.233621e+14	8.800905e+14	4.628963e+14	1.305260e+04	6.898842e+03	2.189237e+03	0	7.312067e-04
1.190000e+09	5.064651e+12	0.000000e+00	3.467336e-01	1.224975e+14	8.745116e+14	4.609114e+14	1.304011e+04	6.894146e+03	2.187747e+03	0	7.286126e-04
1.200000e+09	5.011064e+12	0.000000e+00	3.467336e-01	1.216439e+14	8.690061e+14	4.589397e+14	1.302771e+04	6.889494e+03	2.186271e+03	0	7.260337e-04
1.210000e+09	4.958166e+12	0.000000e+00	3.467336e-01	1.208009e+14	8.635724e+14	4.569811e+14	1.301540e+04	6.884884e+03	2.184808e+03	0	7.234700e-04
1.220000e+09	4.905945e+12	0.000000e+00	3.467336e-01	1.199685e+14	8.582092e+14	4.550354e+14	1.300317e+04	6.880316e+03	2.183358e+03	0	7.209211e-04
1.230000e+09	4.854389e+12	0.000000e+00	3.467336e-01	1.191465e+14	8.529148e+14	4.531027e+14	1.299103e+04	6.875789e+03	2.181922e+03	0	7.183868e-04
1.240000e+09	4.803485e+12	0.000000e+00	3.467336e-01	1.183345e+14	8.476879e+14	4.511826e+14	1.297896e+04	6.871302e+03	2.180498e+03	0	7.158669e-04
1.250000e+09	4.753222e+12	0.000000e+00	3.467336e-01	1.175326e+14	8.425271e+14	4.492753e+14	1.296699e+04	6.866855e+03	2.179087e+03	0	7.133613e-04
1.260000e+09	4.703588e+12	0.000000e+00	3.467336e-01	1.167404e+14	8.374312e+14	4.473806e+14	1.295509e+04	6.862447e+03	2.177688e+03	0	7.108695e-04
1.270000e+09	4.654571e+12	0.000000e+00	3.467336e-01	1.159579e+14	8.323987e+14	4.454983e+14	1.294327e+04	6.858078e+03	2.176301e+03	0	7.083916e-04
1.280000e+09	4.606161e+12	0.000000e+00	3.467336e-01	1.151848e+14	8.274285e+14	4.436284e+14	1.293153e+04	6.853746e+03	2.174927e+03	0	7.059271e-04
1.290000e+09	4.558347e+12	0.000000e+00	3.467336e-01	1.144210e+14	8.225193e+14	4.417708e+14	1.291987e+04	6.849451e+03	2.173564e+03	0	7.034760e-04
1.300000e+09	4.511119e+12	0.000000e+00	3.467336e-01	1.136663e+14	8.176700e+14	4.399254e+14	1.290829e+04	6.845193e+03	2.172213e+03	0	7.010380e-04
1.310000e+09	4.464465e+12	0.000000e+00	3.467336e-01	1.129206e+14	8.128793e+14	4.380921e+14	1.289678e+04	6.840970e+03	2.170873e+03	0	6.986129e-04
1.320000e+09	4.418376e+12	0.000000e+00	3.467336e-01	1.121837e+14	8.081461e+14	4.362708e+14	1.288535e+04	6.836783e+03	2.169544e+03	0	6.962006e-04
1.330000e+09	4.372843e+12	0.000000e+00	3.467336e-01	1.114554e+14	8.034694e+14	4.344614e+14	1.287399e+04	6.832630e+03	2.168226e+03	0	6.938008e-04
1.340000e+09	4.327855e+12	0.000000e+00	3.467336e-01	1.107357e+14	7.988480e+14	4.326638e+14	1.286270e+04	6.828512e+03	2.166919e+03	0	6.914133e-04
1.350000e+09	4.283404e+12	0.000000e+00	3.467336e-01	1.100243e+14	7.942810e+14	4.308780e+14	1.285149e+04	6.824426e+03	2.165623e+03	0	6.890380e-04
1.360000e+09	4.239479e+12	0.000000e+00	3.467336e-01	1.093211e+14	7.897673e+14	4.291038e+14	1.284035e+04	6.820374e+03	2.164337e+03	0	6.866746e-04
