#t		Qconv[W]	Ri[Rp]		R*[Rp]		Qc[W]		Qm[W]		Qr[W]		Tcmb[K]		Tl[K]		Tup[K]		RiFlag		Bs[T]
0.000000e+00	4.599935e+13	0.000000e+00	3.417086e-01	7.201829e+14	4.735591e+15	9.944101e+14	1.863352e+04	1.002877e+04	2.852947e+03	0	1.528938e-03
1.000000e+07	4.489517e+13	0.000000e+00	3.417086e-01	7.048718e+14	4.600895e+15	9.889004e+14	1.857315e+04	9.987381e+03	2.841173e+03	0	1.516606e-03
2.000000e+07	4.383281e+13	0.000000e+00	3.417086e-01	6.901354e+14	4.473687e+15	9.834318e+14	1.851406e+04	9.947537e+03	2.829839e+03	0	1.504547e-03
3.000000e+07	4.281006e+13	0.000000e+00	3.417086e-01	6.759434e+14	4.353376e+15	9.780041e+14	1.845619e+04	9.909144e+03	2.818917e+03	0	1.492753e-03
4.000000e+07	4.182484e+13	0.000000e+00	3.417086e-01	6.622676e+14	4.239433e+15	9.726169e+14	1.839951e+04	9.872117e+03	2.808383e+03	0	1.481213e-03
5.000000e+07	4.087525e+13	0.000000e+00	3.417086e-01	6.490815e+14	4.131379e+15	9.672700e+14	1.834396e+04	9.836379e+03	2.798217e+03	0	1.469917e-03
6.000000e+07	3.995947e+13	0.000000e+00	3.417086e-01	6.363604e+14	4.028780e+15	9.619628e+14	1.828952e+04	9.801856e+03	2.788396e+03	0	1.458857e-03
7.000000e+07	3.907581e+13	0.000000e+00	3.417086e-01	6.240812e+14	3.931243e+15	9.566952e+14	1.823613e+04	9.768483e+03	2.778902e+03	0	1.448023e-03
8.000000e+07	3.822270e+13	0.000000e+00	3.417086e-01	6.122223e+14	3.838411e+15	9.514668e+14	1.818376e+04	9.736198e+03	2.769717e+03	0	1.437407e-03
9.000000e+07	3.739864e+13	0.000000e+00	3.417086e-01	6.007633e+14	3.749960e+15	9.462772e+14	1.813239e+04	9.704943e+03	2.760826e+03	0	1.427002e-03
1.000000e+08	3.660226e+13	0.000000e+00	3.417086e-01	5.896850e+14	3.665593e+15	9.411262e+14	1.808197e+04	9.674666e+03	2.752213e+03	0	1.416801e-03
1.100000e+08	3.583223e+13	0.000000e+00	3.417086e-01	5.789696e+14	3.585040e+15	9.360134e+14	1.803248e+04	9.645316e+03	2.743864e+03	0	1.406795e-03
1.200000e+08	3.508733e+13	0.000000e+00	3.417086e-01	5.686003e+14	3.508052e+15	9.309385e+14	1.798388e+04	9.616849e+03	2.735765e+03	0	1.396978e-03
1.300000e+08	3.436641e+13	0.000000e+00	3.417086e-01	5.585611e+14	3.434402e+15	9.259012e+14	1.793614e+04	9.589220e+03	2.727906e+03	0	1.387344e-03
1.400000e+08	3.366837e+13	0.000000e+00	3.417086e-01	5.488372e+14	3.363881e+15	9.209012e+14	1.788924e+04	9.562390e+03	2.720273e+03	0	1.377887e-03
1.500000e+08	3.299220e+13	0.000000e+00	3.417086e-01	5.394145e+14	3.296298e+15	9.159381e+14	1.784316e+04	9.536321e+03	2.712857e+03	0	1.368600e-03
1.600000e+08	3.233692e+13	0.000000e+00	3.417086e-01	5.302796e+14	3.231474e+15	9.110116e+14	1.779786e+04	9.510978e+03	2.705648e+03	0	1.359478e-03
1.700000e+08	3.170162e+13	0.000000e+00	3.417086e-01	5.214202e+14	3.169247e+15	9.061216e+14	1.775332e+04	9.486328e+03	2.698635e+03	0	1.350517e-03
1.800000e+08	3.108544e+13	0.000000e+00	3.417086e-01	5.128243e+14	3.109466e+15	9.012676e+14	1.770953e+04	9.462340e+03	2.691811e+03	0	1.341709e-03
1.900000e+08	3.048757e+13	0.000000e+00	3.417086e-01	5.044808e+14	3.051991e+15	8.964493e+14	1.766645e+04	9.438984e+03	2.685167e+03	0	1.333052e-03
2.000000e+08	2.990723e+13	0.000000e+00	3.417086e-01	4.963792e+14	2.996691e+15	8.916665e+14	1.762407e+04	9.416235e+03	2.678696e+03	0	1.324539e-03
2.100000e+08	2.934371e+13	0.000000e+00	3.417086e-01	4.885094e+14	2.943448e+15	8.869188e+14	1.758236e+04	9.394065e+03	2.672389e+03	0	1.316167e-03
2.200000e+08	2.879630e+13	0.000000e+00	3.417086e-01	4.808620e+14	2.892150e+15	8.822061e+14	1.754131e+04	9.372450e+03	2.666240e+03	0	1.307932e-03
2.300000e+08	2.826436e+13	0.000000e+00	3.417086e-01	4.734280e+14	2.842692e+15	8.775279e+14	1.750091e+04	9.351369e+03	2.660243e+03	0	1.299828e-03
2.400000e+08	2.774727e+13	0.000000e+00	3.417086e-01	4.661989e+14	2.794977e+15	8.728840e+14	1.746112e+04	9.330798e+03	2.654391e+03	0	1.291852e-03
2.500000e+08	2.724444e+13	0.000000e+00	3.417086e-01	4.591667e+14	2.748917e+15	8.682741e+14	1.742194e+04	9.310717e+03	2.648678e+03	0	1.284001e-03
2.600000e+08	2.675531e+13	0.000000e+00	3.417086e-01	4.523236e+14	2.704426e+15	8.636980e+14	1.738335e+04	9.291108e+03	2.643100e+03	0	1.276271e-03
2.700000e+08	2.627936e+13	0.000000e+00	3.417086e-01	4.456625e+14	2.661425e+15	8.591553e+14	1.734533e+04	9.271952e+03	2.637650e+03	0	1.268657e-03
2.800000e+08	2.581607e+13	0.000000e+00	3.417086e-01	4.391764e+14	2.619842e+15	8.546458e+14	1.730786e+04	9.253231e+03	2.632325e+03	0	1.261158e-03
2.900000e+08	2.536498e+13	0.000000e+00	3.417086e-01	4.328587e+14	2.579606e+15	8.501692e+14	1.727094e+04	9.234929e+03	2.627118e+03	0	1.253769e-03
3.000000e+08	2.492562e+13	0.000000e+00	3.417086e-01	4.267031e+14	2.540655e+15	8.457252e+14	1.723455e+04	9.217031e+03	2.622027e+03	0	1.246488e-03
3.100000e+08	2.449757e+13	0.000000e+00	3.417086e-01	4.207038e+14	2.502927e+15	8.413137e+14	1.719867e+04	9.199521e+03	2.617046e+03	0	1.239311e-03
3.200000e+08	2.408040e+13	0.000000e+00	3.417086e-01	4.148550e+14	2.466364e+15	8.369342e+14	1.716329e+04	9.182385e+03	2.612171e+03	0	1.232236e-03
3.300000e+08	2.367374e+13	0.000000e+00	3.417086e-01	4.091513e+14	2.430915e+15	8.325865e+14	1.712841e+04	9.165611e+03	2.607399e+03	0	1.225260e-03
3.400000e+08	2.327719e+13	0.000000e+00	3.417086e-01	4.035877e+14	2.396528e+15	8.282705e+14	1.709400e+04	9.149185e+03	2.602726e+03	0	1.218381e-03
3.500000e+08	2.289041e+13	0.000000e+00	3.417086e-01	3.981590e+14	2.363155e+15	8.239857e+14	1.706006e+04	9.133096e+03	2.598149e+03	0	1.211595e-03
3.600000e+08	2.251306e+13	0.000000e+00	3.417086e-01	3.928607e+14	2.330754e+15	8.197320e+14	1.702657e+04	9.117330e+03	2.593664e+03	0	1.204900e-03
3.700000e+08	2.214480e+13	0.000000e+00	3.417086e-01	3.876883e+14	2.299280e+15	8.155091e+14	1.699352e+04	9.101879e+03	2.589269e+03	0	1.198294e-03
3.800000e+08	2.178532e+13	0.000000e+00	3.417086e-01	3.826375e+14	2.268696e+15	8.113168e+14	1.696091e+04	9.086730e+03	2.584959e+03	0	1.191775e-03
3.900000e+08	2.143434e+13	0.000000e+00	3.417086e-01	3.777041e+14	2.238962e+15	8.071548e+14	1.692872e+04	9.071875e+03	2.580733e+03	0	1.185340e-03
4.000000e+08	2.109155e+13	0.000000e+00	3.417086e-01	3.728843e+14	2.210044e+15	8.030228e+14	1.689695e+04	9.057303e+03	2.576588e+03	0	1.178987e-03
4.100000e+08	2.075670e+13	0.000000e+00	3.417086e-01	3.681743e+14	2.181908e+15	7.989206e+14	1.686558e+04	9.043005e+03	2.572520e+03	0	1.172714e-03
4.200000e+08	2.042952e+13	0.000000e+00	3.417086e-01	3.635706e+14	2.154523e+15	7.948480e+14	1.683460e+04	9.028972e+03	2.568529e+03	0	1.166520e-03
4.300000e+08	2.010975e+13	0.000000e+00	3.417086e-01	3.590696e+14	2.127858e+15	7.908048e+14	1.680401e+04	9.015197e+03	2.564610e+03	0	1.160402e-03
4.400000e+08	1.979717e+13	0.000000e+00	3.417086e-01	3.546681e+14	2.101884e+15	7.867906e+14	1.677379e+04	9.001671e+03	2.560762e+03	0	1.154358e-03
4.500000e+08	1.949154e+13	0.000000e+00	3.417086e-01	3.503630e+14	2.076576e+15	7.828053e+14	1.674395e+04	8.988385e+03	2.556983e+03	0	1.148387e-03
4.600000e+08	1.919264e+13	0.000000e+00	3.417086e-01	3.461512e+14	2.051906e+15	7.788485e+14	1.671446e+04	8.975334e+03	2.553270e+03	0	1.142486e-03
4.700000e+08	1.890026e+13	0.000000e+00	3.417086e-01	3.420298e+14	2.027852e+15	7.749202e+14	1.668533e+04	8.962510e+03	2.549622e+03	0	1.136655e-03
4.800000e+08	1.861420e+13	0.000000e+00	3.417086e-01	3.379960e+14	2.004389e+15	7.710200e+14	1.665655e+04	8.949906e+03	2.546036e+03	0	1.130892e-03
4.900000e+08	1.833427e+13	0.000000e+00	3.417086e-01	3.340471e+14	1.981495e+15	7.671477e+14	1.662810e+04	8.937515e+03	2.542511e+03	0	1.125194e-03
5.000000e+08	1.806027e+13	0.000000e+00	3.417086e-01	3.301807e+14	1.959150e+15	7.633031e+14	1.659998e+04	8.925331e+03	2.539045e+03	0	1.119560e-03
5.100000e+08	1.779204e+13	0.000000e+00	3.417086e-01	3.263941e+14	1.937334e+15	7.594860e+14	1.657219e+04	8.913349e+03	2.535637e+03	0	1.113990e-03
5.200000e+08	1.752939e+13	0.000000e+00	3.417086e-01	3.226851e+14	1.916028e+15	7.556961e+14	1.654471e+04	8.901563e+03	2.532284e+03	0	1.108481e-03
5.300000e+08	1.727216e+13	0.000000e+00	3.417086e-01	3.190513e+14	1.895213e+15	7.519333e+14	1.651755e+04	8.889966e+03	2.528985e+03	0	1.103033e-03
5.400000e+08	1.702019e+13	0.000000e+00	3.417086e-01	3.154906e+14	1.874873e+15	7.481972e+14	1.649069e+04	8.878554e+03	2.525738e+03	0	1.097643e-03
5.500000e+08	1.677334e+13	0.000000e+00	3.417086e-01	3.120008e+14	1.854991e+15	7.444878e+14	1.646413e+04	8.867322e+03	2.522543e+03	0	1.092310e-03
5.600000e+08	1.653144e+13	0.000000e+00	3.417086e-01	3.085800e+14	1.835550e+15	7.408047e+14	1.643786e+04	8.856264e+03	2.519397e+03	0	1.087034e-03
5.700000e+08	1.629437e+13	0.000000e+00	3.417086e-01	3.052261e+14	1.816537e+15	7.371477e+14	1.641188e+04	8.845376e+03	2.516300e+03	0	1.081812e-03
5.800000e+08	1.606198e+13	0.000000e+00	3.417086e-01	3.019373e+14	1.797937e+15	7.335167e+14	1.638618e+04	8.834653e+03	2.513249e+03	0	1.076645e-03
5.900000e+08	1.583414e+13	0.000000e+00	3.417086e-01	2.987118e+14	1.779736e+15	7.299115e+14	1.636076e+04	8.824091e+03	2.510245e+03	0	1.071530e-03
6.000000e+08	1.561073e+13	0.000000e+00	3.417086e-01	2.955477e+14	1.761921e+15	7.263317e+14	1.633560e+04	8.813686e+03	2.507285e+03	0	1.066466e-03
6.100000e+08	1.539162e+13	0.000000e+00	3.417086e-01	2.924435e+14	1.744480e+15	7.227773e+14	1.631072e+04	8.803433e+03	2.504368e+03	0	1.061453e-03
6.200000e+08	1.517670e+13	0.000000e+00	3.417086e-01	2.893975e+14	1.727400e+15	7.192480e+14	1.628609e+04	8.793329e+03	2.501494e+03	0	1.056490e-03
6.300000e+08	1.496584e+13	0.000000e+00	3.417086e-01	2.864081e+14	1.710670e+15	7.157437e+14	1.626172e+04	8.783369e+03	2.498660e+03	0	1.051574e-03
6.400000e+08	1.475895e+13	0.000000e+00	3.417086e-01	2.834738e+14	1.694279e+15	7.122640e+14	1.623760e+04	8.773550e+03	2.495867e+03	0	1.046706e-03
6.500000e+08	1.455592e+13	0.000000e+00	3.417086e-01	2.805932e+14	1.678217e+15	7.088088e+14	1.621372e+04	8.763869e+03	2.493113e+03	0	1.041884e-03
6.600000e+08	1.435664e+13	0.000000e+00	3.417086e-01	2.777648e+14	1.662472e+15	7.053780e+14	1.619009e+04	8.754322e+03	2.490397e+03	0	1.037107e-03
6.700000e+08	1.416101e+13	0.000000e+00	3.417086e-01	2.749873e+14	1.647037e+15	7.019713e+14	1.616669e+04	8.744906e+03	2.487718e+03	0	1.032375e-03
6.800000e+08	1.396895e+13	0.000000e+00	3.417086e-01	2.722593e+14	1.631901e+15	6.985885e+14	1.614353e+04	8.735617e+03	2.485076e+03	0	1.027687e-03
6.900000e+08	1.378035e+13	0.000000e+00	3.417086e-01	2.695797e+14	1.617055e+15	6.952294e+14	1.612060e+04	8.726453e+03	2.482469e+03	0	1.023041e-03
7.000000e+08	1.359513e+13	0.000000e+00	3.417086e-01	2.669471e+14	1.602490e+15	6.918939e+14	1.609789e+04	8.717410e+03	2.479897e+03	0	1.018436e-03
7.100000e+08	1.341321e+13	0.000000e+00	3.417086e-01	2.643603e+14	1.588200e+15	6.885817e+14	1.607540e+04	8.708486e+03	2.477358e+03	0	1.013873e-03
7.200000e+08	1.323449e+13	0.000000e+00	3.417086e-01	2.618183e+14	1.574175e+15	6.852927e+14	1.605313e+04	8.699677e+03	2.474852e+03	0	1.009350e-03
7.300000e+08	1.305890e+13	0.000000e+00	3.417086e-01	2.593199e+14	1.560407e+15	6.820267e+14	1.603107e+04	8.690982e+03	2.472378e+03	0	1.004866e-03
7.400000e+08	1.288637e+13	0.000000e+00	3.417086e-01	2.568640e+14	1.546891e+15	6.787835e+14	1.600923e+04	8.682396e+03	2.469936e+03	0	1.000421e-03
7.500000e+08	1.271681e+13	0.000000e+00	3.417086e-01	2.544496e+14	1.533617e+15	6.755629e+14	1.598759e+04	8.673919e+03	2.467524e+03	0	9.960141e-04
7.600000e+08	1.255015e+13	0.000000e+00	3.417086e-01	2.520757e+14	1.520581e+15	6.723647e+14	1.596615e+04	8.665547e+03	2.465143e+03	0	9.916439e-04
7.700000e+08	1.238632e+13	0.000000e+00	3.417086e-01	2.497413e+14	1.507775e+15	6.691888e+14	1.594491e+04	8.657278e+03	2.462790e+03	0	9.873101e-04
7.800000e+08	1.222526e+13	0.000000e+00	3.417086e-01	2.474454e+14	1.495192e+15	6.660349e+14	1.592387e+04	8.649110e+03	2.460467e+03	0	9.830121e-04
7.900000e+08	1.206690e+13	0.000000e+00	3.417086e-01	2.451872e+14	1.482827e+15	6.629030e+14	1.590302e+04	8.641040e+03	2.458171e+03	0	9.787491e-04
8.000000e+08	1.191117e+13	0.000000e+00	3.417086e-01	2.429657e+14	1.470675e+15	6.597927e+14	1.588236e+04	8.633066e+03	2.455903e+03	0	9.745204e-04
8.100000e+08	1.175801e+13	0.000000e+00	3.417086e-01	2.407802e+14	1.458728e+15	6.567041e+14	1.586188e+04	8.625187e+03	2.453661e+03	0	9.703254e-04
8.200000e+08	1.160736e+13	0.000000e+00	3.417086e-01	2.386296e+14	1.446983e+15	6.536368e+14	1.584159e+04	8.617399e+03	2.451446e+03	0	9.661635e-04
8.300000e+08	1.145917e+13	0.000000e+00	3.417086e-01	2.365133e+14	1.435433e+15	6.505907e+14	1.582149e+04	8.609702e+03	2.449256e+03	0	9.620341e-04
8.400000e+08	1.131337e+13	0.000000e+00	3.417086e-01	2.344305e+14	1.424073e+15	6.475656e+14	1.580155e+04	8.602093e+03	2.447091e+03	0	9.579366e-04
8.500000e+08	1.116991e+13	0.000000e+00	3.417086e-01	2.323804e+14	1.412899e+15	6.445615e+14	1.578180e+04	8.594570e+03	2.444951e+03	0	9.538703e-04
8.600000e+08	1.102874e+13	0.000000e+00	3.417086e-01	2.303622e+14	1.401906e+15	6.415780e+14	1.576221e+04	8.587131e+03	2.442835e+03	0	9.498347e-04
8.700000e+08	1.088980e+13	0.000000e+00	3.417086e-01	2.283753e+14	1.391089e+15	6.386151e+14	1.574280e+04	8.579776e+03	2.440743e+03	0	9.458293e-04
8.800000e+08	1.075305e+13	0.000000e+00	3.417086e-01	2.264189e+14	1.380445e+15	6.356725e+14	1.572355e+04	8.572501e+03	2.438673e+03	0	9.418535e-04
8.900000e+08	1.061844e+13	0.000000e+00	3.417086e-01	2.244924e+14	1.369968e+15	6.327502e+14	1.570447e+04	8.565306e+03	2.436627e+03	0	9.379067e-04
9.000000e+08	1.048591e+13	0.000000e+00	3.417086e-01	2.225951e+14	1.359654e+15	6.298479e+14	1.568555e+04	8.558189e+03	2.434602e+03	0	9.339885e-04
9.100000e+08	1.035543e+13	0.000000e+00	3.417086e-01	2.207264e+14	1.349500e+15	6.269655e+14	1.566679e+04	8.551147e+03	2.432599e+03	0	9.300982e-04
9.200000e+08	1.022695e+13	0.000000e+00	3.417086e-01	2.188856e+14	1.339502e+15	6.241029e+14	1.564818e+04	8.544181e+03	2.430617e+03	0	9.262355e-04
9.300000e+08	1.010042e+13	0.000000e+00	3.417086e-01	2.170722e+14	1.329655e+15	6.212598e+14	1.562973e+04	8.537287e+03	2.428656e+03	0	9.223998e-04
9.400000e+08	9.975800e+12	0.000000e+00	3.417086e-01	2.152855e+14	1.319957e+15	6.184362e+14	1.561143e+04	8.530465e+03	2.426715e+03	0	9.185907e-04
9.500000e+08	9.853056e+12	0.000000e+00	3.417086e-01	2.135251e+14	1.310404e+15	6.156318e+14	1.559329e+04	8.523714e+03	2.424794e+03	0	9.148076e-04
9.600000e+08	9.732143e+12	0.000000e+00	3.417086e-01	2.117903e+14	1.300992e+15	6.128466e+14	1.557529e+04	8.517031e+03	2.422893e+03	0	9.110501e-04
9.700000e+08	9.613023e+12	0.000000e+00	3.417086e-01	2.100806e+14	1.291719e+15	6.100803e+14	1.555743e+04	8.510416e+03	2.421012e+03	0	9.073178e-04
9.800000e+08	9.495659e+12	0.000000e+00	3.417086e-01	2.083954e+14	1.282580e+15	6.073329e+14	1.553972e+04	8.503868e+03	2.419149e+03	0	9.036103e-04
9.900000e+08	9.380013e+12	0.000000e+00	3.417086e-01	2.067344e+14	1.273573e+15	6.046041e+14	1.552215e+04	8.497384e+03	2.417304e+03	0	8.999270e-04
1.000000e+09	9.266050e+12	0.000000e+00	3.417086e-01	2.050969e+14	1.264696e+15	6.018938e+14	1.550473e+04	8.490964e+03	2.415478e+03	0	8.962675e-04
1.010000e+09	9.153735e+12	0.000000e+00	3.417086e-01	2.034826e+14	1.255944e+15	5.992020e+14	1.548744e+04	8.484607e+03	2.413669e+03	0	8.926315e-04
1.020000e+09	9.043034e+12	0.000000e+00	3.417086e-01	2.018908e+14	1.247316e+15	5.965284e+14	1.547028e+04	8.478311e+03	2.411878e+03	0	8.890186e-04
1.030000e+09	8.933915e+12	0.000000e+00	3.417086e-01	2.003212e+14	1.238808e+15	5.938728e+14	1.545326e+04	8.472076e+03	2.410105e+03	0	8.854283e-04
1.040000e+09	8.826345e+12	0.000000e+00	3.417086e-01	1.987734e+14	1.230418e+15	5.912352e+14	1.543637e+04	8.465899e+03	2.408348e+03	0	8.818602e-04
1.050000e+09	8.720294e+12	0.000000e+00	3.417086e-01	1.972468e+14	1.222144e+15	5.886155e+14	1.541961e+04	8.459781e+03	2.406607e+03	0	8.783140e-04
1.060000e+09	8.615730e+12	0.000000e+00	3.417086e-01	1.957412e+14	1.213982e+15	5.860133e+14	1.540298e+04	8.453720e+03	2.404883e+03	0	8.747893e-04
1.070000e+09	8.512625e+12	0.000000e+00	3.417086e-01	1.942559e+14	1.205931e+15	5.834288e+14	1.538648e+04	8.447715e+03	2.403175e+03	0	8.712858e-04
1.080000e+09	8.410949e+12	0.000000e+00	3.417086e-01	1.927908e+14	1.197987e+15	5.808616e+14	1.537010e+04	8.441766e+03	2.401482e+03	0	8.678029e-04
1.090000e+09	8.310674e+12	0.000000e+00	3.417086e-01	1.913453e+14	1.190150e+15	5.783116e+14	1.535384e+04	8.435870e+03	2.399805e+03	0	8.643405e-04
1.100000e+09	8.211773e+12	0.000000e+00	3.417086e-01	1.899191e+14	1.182416e+15	5.757788e+14	1.533771e+04	8.430027e+03	2.398143e+03	0	8.608981e-04
1.110000e+09	8.114220e+12	0.000000e+00	3.417086e-01	1.885118e+14	1.174784e+15	5.732630e+14	1.532169e+04	8.424237e+03	2.396496e+03	0	8.574755e-04
1.120000e+09	8.017988e+12	0.000000e+00	3.417086e-01	1.871231e+14	1.167251e+15	5.707641e+14	1.530579e+04	8.418497e+03	2.394863e+03	0	8.540722e-04
1.130000e+09	7.923052e+12	0.000000e+00	3.417086e-01	1.857526e+14	1.159816e+15	5.682818e+14	1.529002e+04	8.412809e+03	2.393245e+03	0	8.506880e-04
1.140000e+09	7.829387e+12	0.000000e+00	3.417086e-01	1.843999e+14	1.152476e+15	5.658162e+14	1.527435e+04	8.407170e+03	2.391640e+03	0	8.473224e-04
1.150000e+09	7.736969e+12	0.000000e+00	3.417086e-01	1.830648e+14	1.145229e+15	5.633670e+14	1.525880e+04	8.401579e+03	2.390050e+03	0	8.439753e-04
1.160000e+09	7.645774e+12	0.000000e+00	3.417086e-01	1.817468e+14	1.138074e+15	5.609341e+14	1.524336e+04	8.396037e+03	2.388473e+03	0	8.406463e-04
1.170000e+09	7.555781e+12	0.000000e+00	3.417086e-01	1.804458e+14	1.131008e+15	5.585175e+14	1.522804e+04	8.390541e+03	2.386910e+03	0	8.373350e-04
1.180000e+09	7.466965e+12	0.000000e+00	3.417086e-01	1.791613e+14	1.124031e+15	5.561169e+14	1.521282e+04	8.385092e+03	2.385360e+03	0	8.340412e-04
1.190000e+09	7.379307e+12	0.000000e+00	3.417086e-01	1.778931e+14	1.117140e+15	5.537323e+14	1.519771e+04	8.379689e+03	2.383823e+03	0	8.307646e-04
1.200000e+09	7.292783e+12	0.000000e+00	3.417086e-01	1.766408e+14	1.110334e+15	5.513635e+14	1.518270e+04	8.374330e+03	2.382298e+03	0	8.275049e-04
1.210000e+09	7.207373e+12	0.000000e+00	3.417086e-01	1.754042e+14	1.103610e+15	5.490105e+14	1.516781e+04	8.369015e+03	2.380786e+03	0	8.242617e-04
1.220000e+09	7.123058e+12	0.000000e+00	3.417086e-01	1.741831e+14	1.096968e+15	5.466730e+14	1.515301e+04	8.363744e+03	2.379287e+03	0	8.210349e-04
1.230000e+09	7.039817e+12	0.000000e+00	3.417086e-01	1.729770e+14	1.090406e+15	5.443510e+14	1.513832e+04	8.358516e+03	2.377800e+03	0	8.178241e-04
1.240000e+09	6.957631e+12	0.000000e+00	3.417086e-01	1.717858e+14	1.083922e+15	5.420443e+14	1.512373e+04	8.353329e+03	2.376324e+03	0	8.146291e-04
1.250000e+09	6.876480e+12	0.000000e+00	3.417086e-01	1.706092e+14	1.077516e+15	5.397529e+14	1.510924e+04	8.348184e+03	2.374860e+03	0	8.114495e-04
1.260000e+09	6.796347e+12	0.000000e+00	3.417086e-01	1.694469e+14	1.071184e+15	5.374766e+14	1.509485e+04	8.343079e+03	2.373408e+03	0	8.082852e-04
1.270000e+09	6.717214e+12	0.000000e+00	3.417086e-01	1.682987e+14	1.064927e+15	5.352152e+14	1.508056e+04	8.338015e+03	2.371968e+03	0	8.051359e-04
1.280000e+09	6.639062e+12	0.000000e+00	3.417086e-01	1.671643e+14	1.058742e+15	5.329688e+14	1.506637e+04	8.332990e+03	2.370538e+03	0	8.020012e-04
1.290000e+09	6.561875e+12	0.000000e+00	3.417086e-01	1.660435e+14	1.052629e+15	5.307371e+14	1.505227e+04	8.328003e+03	2.369120e+03	0	7.988810e-04
1.300000e+09	6.485635e+12	0.000000e+00	3.417086e-01	1.649361e+14	1.046586e+15	5.285200e+14	1.503826e+04	8.323055e+03	2.367712e+03	0	7.957750e-04
1.310000e+09	6.410327e+12	0.000000e+00	3.417086e-01	1.638418e+14	1.040612e+15	5.263175e+14	1.502435e+04	8.318145e+03	2.366315e+03	0	7.926829e-04
1.320000e+09	6.335934e+12	0.000000e+00	3.417086e-01	1.627604e+14	1.034705e+15	5.241294e+14	1.501053e+04	8.313272e+03	2.364929e+03	0	7.896046e-04
1.330000e+09	6.262441e+12	0.000000e+00	3.417086e-01	1.616917e+14	1.028865e+15	5.219556e+14	1.499680e+04	8.308435e+03	2.363553e+03	0	7.865397e-04
1.340000e+09	6.189831e+12	0.000000e+00	3.417086e-01	1.606355e+14	1.023090e+15	5.197961e+14	1.498316e+04	8.303634e+03	2.362187e+03	0	7.834881e-04
1.350000e+09	6.118091e+12	0.000000e+00	3.417086e-01	1.595915e+14	1.017379e+15	5.176506e+14	1.496961e+04	8.298869e+03	2.360831e+03	0	7.804494e-04
1.360000e+09	6.047205e+12	0.000000e+00	3.417086e-01	1.585596e+14	1.011731e+15	5.155191e+14	1.495614e+04	8.294138e+03	2.359486e+03	0	7.774236e-04
