#t		Qconv[W]	Ri[Rp]		R*[Rp]		Qc[W]		Qm[W]		Qr[W]		Tcmb[K]		Tl[K]		Tup[K]		RiFlag		Bs[T]
0.000000e+00	5.143132e+13	0.000000e+00	3.417086e-01	7.846803e+14	4.656183e+15	1.044450e+15	1.940496e+04	1.041757e+04	2.880209e+03	0	1.585057e-03
1.000000e+07	5.022839e+13	0.000000e+00	3.417086e-01	7.685554e+14	4.537662e+15	1.038663e+15	1.934313e+04	1.038024e+04	2.869889e+03	0	1.572601e-03
2.000000e+07	4.906933e+13	0.000000e+00	3.417086e-01	7.530130e+14	4.425109e+15	1.032919e+15	1.928257e+04	1.034418e+04	2.859919e+03	0	1.560411e-03
3.000000e+07	4.795192e+13	0.000000e+00	3.417086e-01	7.380236e+14	4.318095e+15	1.027218e+15	1.922321e+04	1.030931e+04	2.850278e+03	0	1.548475e-03
4.000000e+07	4.687405e+13	0.000000e+00	3.417086e-01	7.235593e+14	4.216229e+15	1.021560e+15	1.916504e+04	1.027557e+04	2.840950e+03	0	1.536785e-03
5.000000e+07	4.583377e+13	0.000000e+00	3.417086e-01	7.095944e+14	4.119157e+15	1.015944e+15	1.910799e+04	1.024290e+04	2.831918e+03	0	1.525331e-03
6.000000e+07	4.482924e+13	0.000000e+00	3.417086e-01	6.961044e+14	4.026555e+15	1.010370e+15	1.905204e+04	1.021125e+04	2.823166e+03	0	1.514105e-03
7.000000e+07	4.385873e+13	0.000000e+00	3.417086e-01	6.830666e+14	3.938127e+15	1.004837e+15	1.899715e+04	1.018056e+04	2.814681e+03	0	1.503099e-03
8.000000e+07	4.292063e+13	0.000000e+00	3.417086e-01	6.704596e+14	3.853601e+15	9.993457e+14	1.894328e+04	1.015078e+04	2.806448e+03	0	1.492305e-03
9.000000e+07	4.201342e+13	0.000000e+00	3.417086e-01	6.582631e+14	3.772729e+15	9.938950e+14	1.889040e+04	1.012188e+04	2.798457e+03	0	1.481716e-03
1.000000e+08	4.113566e+13	0.000000e+00	3.417086e-01	6.464584e+14	3.695284e+15	9.884848e+14	1.883847e+04	1.009380e+04	2.790695e+03	0	1.471324e-03
1.100000e+08	4.028602e+13	0.000000e+00	3.417086e-01	6.350275e+14	3.621054e+15	9.831147e+14	1.878747e+04	1.006652e+04	2.783152e+03	0	1.461124e-03
1.200000e+08	3.946322e+13	0.000000e+00	3.417086e-01	6.239537e+14	3.549847e+15	9.777844e+14	1.873736e+04	1.003999e+04	2.775817e+03	0	1.451108e-03
1.300000e+08	3.866607e+13	0.000000e+00	3.417086e-01	6.132212e+14	3.481483e+15	9.724936e+14	1.868813e+04	1.001418e+04	2.768681e+03	0	1.441271e-03
1.400000e+08	3.789345e+13	0.000000e+00	3.417086e-01	6.028151e+14	3.415798e+15	9.672419e+14	1.863973e+04	9.989055e+03	2.761735e+03	0	1.431606e-03
1.500000e+08	3.714428e+13	0.000000e+00	3.417086e-01	5.927213e+14	3.352639e+15	9.620291e+14	1.859215e+04	9.964590e+03	2.754971e+03	0	1.422109e-03
1.600000e+08	3.641758e+13	0.000000e+00	3.417086e-01	5.829264e+14	3.291864e+15	9.568548e+14	1.854537e+04	9.940754e+03	2.748380e+03	0	1.412774e-03
1.700000e+08	3.571238e+13	0.000000e+00	3.417086e-01	5.734179e+14	3.233341e+15	9.517186e+14	1.849935e+04	9.917520e+03	2.741957e+03	0	1.403595e-03
1.800000e+08	3.502779e+13	0.000000e+00	3.417086e-01	5.641839e+14	3.176949e+15	9.466204e+14	1.845408e+04	9.894863e+03	2.735693e+03	0	1.394568e-03
1.900000e+08	3.436296e+13	0.000000e+00	3.417086e-01	5.552132e+14	3.122574e+15	9.415596e+14	1.840954e+04	9.872760e+03	2.729582e+03	0	1.385689e-03
2.000000e+08	3.371709e+13	0.000000e+00	3.417086e-01	5.464949e+14	3.070111e+15	9.365362e+14	1.836570e+04	9.851188e+03	2.723618e+03	0	1.376953e-03
2.100000e+08	3.308941e+13	0.000000e+00	3.417086e-01	5.380192e+14	3.019459e+15	9.315496e+14	1.832254e+04	9.830126e+03	2.717794e+03	0	1.368354e-03
2.200000e+08	3.247920e+13	0.000000e+00	3.417086e-01	5.297763e+14	2.970529e+15	9.265997e+14	1.828005e+04	9.809553e+03	2.712107e+03	0	1.359891e-03
2.300000e+08	3.188577e+13	0.000000e+00	3.417086e-01	5.217571e+14	2.923232e+15	9.216861e+14	1.823821e+04	9.789452e+03	2.706549e+03	0	1.351558e-03
2.400000e+08	3.130847e+13	0.000000e+00	3.417086e-01	5.139530e+14	2.877490e+15	9.168085e+14	1.819700e+04	9.769803e+03	2.701117e+03	0	1.343351e-03
2.500000e+08	3.074668e+13	0.000000e+00	3.417086e-01	5.063557e+14	2.833225e+15	9.119667e+14	1.815640e+04	9.750590e+03	2.695805e+03	0	1.335268e-03
2.600000e+08	3.019981e+13	0.000000e+00	3.417086e-01	4.989575e+14	2.790369e+15	9.071602e+14	1.811640e+04	9.731796e+03	2.690609e+03	0	1.327304e-03
2.700000e+08	2.966730e+13	0.000000e+00	3.417086e-01	4.917510e+14	2.748854e+15	9.023890e+14	1.807698e+04	9.713407e+03	2.685524e+03	0	1.319456e-03
2.800000e+08	2.914862e+13	0.000000e+00	3.417086e-01	4.847289e+14	2.708619e+15	8.976525e+14	1.803812e+04	9.695407e+03	2.680548e+03	0	1.311721e-03
2.900000e+08	2.864326e+13	0.000000e+00	3.417086e-01	4.778847e+14	2.669604e+15	8.929507e+14	1.799982e+04	9.677783e+03	2.675675e+03	0	1.304097e-03
3.000000e+08	2.815074e+13	0.000000e+00	3.417086e-01	4.712119e+14	2.631755e+15	8.882831e+14	1.796206e+04	9.660522e+03	2.670903e+03	0	1.296579e-03
3.100000e+08	2.767060e+13	0.000000e+00	3.417086e-01	4.647043e+14	2.595020e+15	8.836495e+14	1.792482e+04	9.643610e+03	2.666227e+03	0	1.289165e-03
3.200000e+08	2.720238e+13	0.000000e+00	3.417086e-01	4.583561e+14	2.559350e+15	8.790496e+14	1.788809e+04	9.627036e+03	2.661645e+03	0	1.281852e-03
3.300000e+08	2.674569e+13	0.000000e+00	3.417086e-01	4.521617e+14	2.524698e+15	8.744832e+14	1.785187e+04	9.610789e+03	2.657153e+03	0	1.274638e-03
3.400000e+08	2.630011e+13	0.000000e+00	3.417086e-01	4.461159e+14	2.491022e+15	8.699500e+14	1.781613e+04	9.594857e+03	2.652748e+03	0	1.267520e-03
3.500000e+08	2.586526e+13	0.000000e+00	3.417086e-01	4.402135e+14	2.458281e+15	8.654496e+14	1.778086e+04	9.579230e+03	2.648428e+03	0	1.260495e-03
3.600000e+08	2.544077e+13	0.000000e+00	3.417086e-01	4.344497e+14	2.426435e+15	8.609819e+14	1.774606e+04	9.563899e+03	2.644189e+03	0	1.253562e-03
3.700000e+08	2.502631e+13	0.000000e+00	3.417086e-01	4.288197e+14	2.395448e+15	8.565465e+14	1.771172e+04	9.548853e+03	2.640029e+03	0	1.246717e-03
3.800000e+08	2.462152e+13	0.000000e+00	3.417086e-01	4.233193e+14	2.365285e+15	8.521432e+14	1.767781e+04	9.534083e+03	2.635946e+03	0	1.239959e-03
3.900000e+08	2.422610e+13	0.000000e+00	3.417086e-01	4.179441e+14	2.335913e+15	8.477717e+14	1.764435e+04	9.519582e+03	2.631936e+03	0	1.233285e-03
4.000000e+08	2.383973e+13	0.000000e+00	3.417086e-01	4.126900e+14	2.307301e+15	8.434318e+14	1.761130e+04	9.505339e+03	2.627999e+03	0	1.226693e-03
4.100000e+08	2.346212e+13	0.000000e+00	3.417086e-01	4.075531e+14	2.279419e+15	8.391232e+14	1.757867e+04	9.491349e+03	2.624131e+03	0	1.220182e-03
4.200000e+08	2.309300e+13	0.000000e+00	3.417086e-01	4.025298e+14	2.252240e+15	8.348457e+14	1.754644e+04	9.477602e+03	2.620330e+03	0	1.213749e-03
4.300000e+08	2.273208e+13	0.000000e+00	3.417086e-01	3.976163e+14	2.225736e+15	8.305990e+14	1.751460e+04	9.464091e+03	2.616595e+03	0	1.207393e-03
4.400000e+08	2.237912e+13	0.000000e+00	3.417086e-01	3.928093e+14	2.199882e+15	8.263828e+14	1.748316e+04	9.450810e+03	2.612923e+03	0	1.201111e-03
4.500000e+08	2.203385e+13	0.000000e+00	3.417086e-01	3.881055e+14	2.174654e+15	8.221969e+14	1.745209e+04	9.437752e+03	2.609312e+03	0	1.194902e-03
4.600000e+08	2.169606e+13	0.000000e+00	3.417086e-01	3.835017e+14	2.150030e+15	8.180411e+14	1.742139e+04	9.424910e+03	2.605762e+03	0	1.188765e-03
4.700000e+08	2.136550e+13	0.000000e+00	3.417086e-01	3.789948e+14	2.125986e+15	8.139150e+14	1.739106e+04	9.412278e+03	2.602269e+03	0	1.182696e-03
4.800000e+08	2.104196e+13	0.000000e+00	3.417086e-01	3.745820e+14	2.102503e+15	8.098186e+14	1.736108e+04	9.399849e+03	2.598833e+03	0	1.176696e-03
4.900000e+08	2.072523e+13	0.000000e+00	3.417086e-01	3.702604e+14	2.079560e+15	8.057515e+14	1.733145e+04	9.387619e+03	2.595452e+03	0	1.170762e-03
5.000000e+08	2.041510e+13	0.000000e+00	3.417086e-01	3.660273e+14	2.057139e+15	8.017134e+14	1.730216e+04	9.375582e+03	2.592124e+03	0	1.164893e-03
5.100000e+08	2.011137e+13	0.000000e+00	3.417086e-01	3.618802e+14	2.035222e+15	7.977042e+14	1.727320e+04	9.363732e+03	2.588848e+03	0	1.159087e-03
5.200000e+08	1.981387e+13	0.000000e+00	3.417086e-01	3.578165e+14	2.013791e+15	7.937236e+14	1.724457e+04	9.352065e+03	2.585622e+03	0	1.153344e-03
5.300000e+08	1.952241e+13	0.000000e+00	3.417086e-01	3.538338e+14	1.992830e+15	7.897714e+14	1.721626e+04	9.340574e+03	2.582445e+03	0	1.147660e-03
5.400000e+08	1.923682e+13	0.000000e+00	3.417086e-01	3.499298e+14	1.972323e+15	7.858474e+14	1.718827e+04	9.329257e+03	2.579316e+03	0	1.142037e-03
5.500000e+08	1.895692e+13	0.000000e+00	3.417086e-01	3.461023e+14	1.952255e+15	7.819512e+14	1.716058e+04	9.318107e+03	2.576233e+03	0	1.136471e-03
5.600000e+08	1.868257e+13	0.000000e+00	3.417086e-01	3.423491e+14	1.932612e+15	7.780828e+14	1.713319e+04	9.307121e+03	2.573196e+03	0	1.130961e-03
5.700000e+08	1.841359e+13	0.000000e+00	3.417086e-01	3.386682e+14	1.913380e+15	7.742418e+14	1.710610e+04	9.296294e+03	2.570203e+03	0	1.125508e-03
5.800000e+08	1.814985e+13	0.000000e+00	3.417086e-01	3.350576e+14	1.894545e+15	7.704281e+14	1.707930e+04	9.285622e+03	2.567252e+03	0	1.120108e-03
5.900000e+08	1.789120e+13	0.000000e+00	3.417086e-01	3.315154e+14	1.876096e+15	7.666414e+14	1.705278e+04	9.275102e+03	2.564344e+03	0	1.114762e-03
6.000000e+08	1.763750e+13	0.000000e+00	3.417086e-01	3.280396e+14	1.858020e+15	7.628816e+14	1.702655e+04	9.264729e+03	2.561476e+03	0	1.109468e-03
6.100000e+08	1.738862e+13	0.000000e+00	3.417086e-01	3.246285e+14	1.840306e+15	7.591483e+14	1.700058e+04	9.254500e+03	2.558648e+03	0	1.104224e-03
6.200000e+08	1.714442e+13	0.000000e+00	3.417086e-01	3.212804e+14	1.822942e+15	7.554414e+14	1.697489e+04	9.244411e+03	2.555858e+03	0	1.099031e-03
6.300000e+08	1.690478e+13	0.000000e+00	3.417086e-01	3.179937e+14	1.805918e+15	7.517607e+14	1.694946e+04	9.234458e+03	2.553107e+03	0	1.093886e-03
6.400000e+08	1.666959e+13	0.000000e+00	3.417086e-01	3.147666e+14	1.789223e+15	7.481059e+14	1.692429e+04	9.224639e+03	2.550392e+03	0	1.088789e-03
6.500000e+08	1.643872e+13	0.000000e+00	3.417086e-01	3.115977e+14	1.772848e+15	7.444769e+14	1.689937e+04	9.214951e+03	2.547713e+03	0	1.083739e-03
6.600000e+08	1.621206e+13	0.000000e+00	3.417086e-01	3.084854e+14	1.756784e+15	7.408734e+14	1.687471e+04	9.205389e+03	2.545070e+03	0	1.078735e-03
6.700000e+08	1.598950e+13	0.000000e+00	3.417086e-01	3.054283e+14	1.741020e+15	7.372953e+14	1.685029e+04	9.195951e+03	2.542460e+03	0	1.073776e-03
6.800000e+08	1.577094e+13	0.000000e+00	3.417086e-01	3.024250e+14	1.725549e+15	7.337422e+14	1.682611e+04	9.186635e+03	2.539884e+03	0	1.068862e-03
6.900000e+08	1.555627e+13	0.000000e+00	3.417086e-01	2.994741e+14	1.710362e+15	7.302141e+14	1.680217e+04	9.177436e+03	2.537341e+03	0	1.063990e-03
7.000000e+08	1.534541e+13	0.000000e+00	3.417086e-01	2.965744e+14	1.695452e+15	7.267108e+14	1.677846e+04	9.168353e+03	2.534830e+03	0	1.059160e-03
7.100000e+08	1.513824e+13	0.000000e+00	3.417086e-01	2.937245e+14	1.680809e+15	7.232319e+14	1.675498e+04	9.159384e+03	2.532350e+03	0	1.054373e-03
7.200000e+08	1.493469e+13	0.000000e+00	3.417086e-01	2.909232e+14	1.666427e+15	7.197774e+14	1.673172e+04	9.150524e+03	2.529901e+03	0	1.049625e-03
7.300000e+08	1.473466e+13	0.000000e+00	3.417086e-01	2.881694e+14	1.652299e+15	7.163471e+14	1.670869e+04	9.141773e+03	2.527481e+03	0	1.044918e-03
7.400000e+08	1.453806e+13	0.000000e+00	3.417086e-01	2.854618e+14	1.638418e+15	7.129406e+14	1.668587e+04	9.133126e+03	2.525091e+03	0	1.040250e-03
7.500000e+08	1.434481e+13	0.000000e+00	3.417086e-01	2.827994e+14	1.624777e+15	7.095580e+14	1.666327e+04	9.124583e+03	2.522729e+03	0	1.035620e-03
7.600000e+08	1.415484e+13	0.000000e+00	3.417086e-01	2.801810e+14	1.611369e+15	7.061988e+14	1.664087e+04	9.116141e+03	2.520395e+03	0	1.031028e-03
7.700000e+08	1.396806e+13	0.000000e+00	3.417086e-01	2.776057e+14	1.598189e+15	7.028631e+14	1.661869e+04	9.107798e+03	2.518088e+03	0	1.026473e-03
7.800000e+08	1.378439e+13	0.000000e+00	3.417086e-01	2.750725e+14	1.585230e+15	6.995506e+14	1.659670e+04	9.099551e+03	2.515808e+03	0	1.021954e-03
7.900000e+08	1.360376e+13	0.000000e+00	3.417086e-01	2.725802e+14	1.572486e+15	6.962610e+14	1.657492e+04	9.091398e+03	2.513554e+03	0	1.017471e-03
8.000000e+08	1.342611e+13	0.000000e+00	3.417086e-01	2.701280e+14	1.559953e+15	6.929943e+14	1.655333e+04	9.083338e+03	2.511326e+03	0	1.013022e-03
8.100000e+08	1.325136e+13	0.000000e+00	3.417086e-01	2.677150e+14	1.547624e+15	6.897502e+14	1.653194e+04	9.075369e+03	2.509122e+03	0	1.008608e-03
8.200000e+08	1.307945e+13	0.000000e+00	3.417086e-01	2.653403e+14	1.535495e+15	6.865285e+14	1.651074e+04	9.067488e+03	2.506943e+03	0	1.004227e-03
8.300000e+08	1.291030e+13	0.000000e+00	3.417086e-01	2.630029e+14	1.523561e+15	6.833291e+14	1.648972e+04	9.059694e+03	2.504788e+03	0	9.998796e-04
8.400000e+08	1.274386e+13	0.000000e+00	3.417086e-01	2.607021e+14	1.511816e+15	6.801519e+14	1.646889e+04	9.051985e+03	2.502657e+03	0	9.955642e-04
8.500000e+08	1.258007e+13	0.000000e+00	3.417086e-01	2.584370e+14	1.500255e+15	6.769965e+14	1.644824e+04	9.044359e+03	2.500549e+03	0	9.912806e-04
8.600000e+08	1.241886e+13	0.000000e+00	3.417086e-01	2.562068e+14	1.488876e+15	6.738629e+14	1.642777e+04	9.036815e+03	2.498463e+03	0	9.870281e-04
8.700000e+08	1.226018e+13	0.000000e+00	3.417086e-01	2.540108e+14	1.477672e+15	6.707509e+14	1.640748e+04	9.029351e+03	2.496399e+03	0	9.828062e-04
8.800000e+08	1.210397e+13	0.000000e+00	3.417086e-01	2.518482e+14	1.466640e+15	6.676603e+14	1.638736e+04	9.021965e+03	2.494357e+03	0	9.786144e-04
8.900000e+08	1.195019e+13	0.000000e+00	3.417086e-01	2.497182e+14	1.455775e+15	6.645909e+14	1.636741e+04	9.014656e+03	2.492336e+03	0	9.744521e-04
9.000000e+08	1.179876e+13	0.000000e+00	3.417086e-01	2.476202e+14	1.445075e+15	6.615425e+14	1.634763e+04	9.007422e+03	2.490337e+03	0	9.703187e-04
9.100000e+08	1.164965e+13	0.000000e+00	3.417086e-01	2.455535e+14	1.434534e+15	6.585151e+14	1.632801e+04	9.000262e+03	2.488357e+03	0	9.662138e-04
9.200000e+08	1.150280e+13	0.000000e+00	3.417086e-01	2.435174e+14	1.424149e+15	6.555084e+14	1.630856e+04	8.993175e+03	2.486397e+03	0	9.621368e-04
9.300000e+08	1.135817e+13	0.000000e+00	3.417086e-01	2.415113e+14	1.413917e+15	6.525223e+14	1.628927e+04	8.986158e+03	2.484458e+03	0	9.580872e-04
9.400000e+08	1.121570e+13	0.000000e+00	3.417086e-01	2.395345e+14	1.403833e+15	6.495566e+14	1.627014e+04	8.979212e+03	2.482537e+03	0	9.540646e-04
9.500000e+08	1.107536e+13	0.000000e+00	3.417086e-01	2.375863e+14	1.393896e+15	6.466111e+14	1.625116e+04	8.972333e+03	2.480635e+03	0	9.500684e-04
9.600000e+08	1.093709e+13	0.000000e+00	3.417086e-01	2.356663e+14	1.384100e+15	6.436857e+14	1.623234e+04	8.965522e+03	2.478752e+03	0	9.460983e-04
9.700000e+08	1.080086e+13	0.000000e+00	3.417086e-01	2.337738e+14	1.374444e+15	6.407802e+14	1.621367e+04	8.958776e+03	2.476887e+03	0	9.421536e-04
9.800000e+08	1.066662e+13	0.000000e+00	3.417086e-01	2.319083e+14	1.364924e+15	6.378945e+14	1.619514e+04	8.952095e+03	2.475040e+03	0	9.382340e-04
9.900000e+08	1.053433e+13	0.000000e+00	3.417086e-01	2.300692e+14	1.355537e+15	6.350285e+14	1.617677e+04	8.945478e+03	2.473210e+03	0	9.343391e-04
1.000000e+09	1.040394e+13	0.000000e+00	3.417086e-01	2.282560e+14	1.346280e+15	6.321818e+14	1.615854e+04	8.938923e+03	2.471398e+03	0	9.304683e-04
1.010000e+09	1.027543e+13	0.000000e+00	3.417086e-01	2.264681e+14	1.337151e+15	6.293545e+14	1.614046e+04	8.932429e+03	2.469603e+03	0	9.266214e-04
1.020000e+09	1.014875e+13	0.000000e+00	3.417086e-01	2.247050e+14	1.328146e+15	6.265463e+14	1.612251e+04	8.925995e+03	2.467824e+03	0	9.227977e-04
1.030000e+09	1.002387e+13	0.000000e+00	3.417086e-01	2.229663e+14	1.319263e+15	6.237572e+14	1.610471e+04	8.919620e+03	2.466061e+03	0	9.189971e-04
1.040000e+09	9.900751e+12	0.000000e+00	3.417086e-01	2.212514e+14	1.310499e+15	6.209869e+14	1.608704e+04	8.913303e+03	2.464315e+03	0	9.152189e-04
1.050000e+09	9.779355e+12	0.000000e+00	3.417086e-01	2.195600e+14	1.301852e+15	6.182352e+14	1.606951e+04	8.907043e+03	2.462584e+03	0	9.114629e-04
1.060000e+09	9.659650e+12	0.000000e+00	3.417086e-01	2.178915e+14	1.293320e+15	6.155022e+14	1.605211e+04	8.900839e+03	2.460869e+03	0	9.077287e-04
1.070000e+09	9.541602e+12	0.000000e+00	3.417086e-01	2.162454e+14	1.284900e+15	6.127876e+14	1.603484e+04	8.894690e+03	2.459169e+03	0	9.040158e-04
1.080000e+09	9.425180e+12	0.000000e+00	3.417086e-01	2.146214e+14	1.276589e+15	6.100912e+14	1.601770e+04	8.888595e+03	2.457484e+03	0	9.003240e-04
1.090000e+09	9.310351e+12	0.000000e+00	3.417086e-01	2.130191e+14	1.268386e+15	6.074129e+14	1.600070e+04	8.882553e+03	2.455813e+03	0	8.966528e-04
1.100000e+09	9.197085e+12	0.000000e+00	3.417086e-01	2.114379e+14	1.260288e+15	6.047527e+14	1.598381e+04	8.876563e+03	2.454157e+03	0	8.930018e-04
1.110000e+09	9.085352e+12	0.000000e+00	3.417086e-01	2.098776e+14	1.252294e+15	6.021103e+14	1.596706e+04	8.870625e+03	2.452515e+03	0	8.893708e-04
1.120000e+09	8.975123e+12	0.000000e+00	3.417086e-01	2.083377e+14	1.244401e+15	5.994855e+14	1.595042e+04	8.864737e+03	2.450887e+03	0	8.857593e-04
1.130000e+09	8.866369e+12	0.000000e+00	3.417086e-01	2.068178e+14	1.236607e+15	5.968784e+14	1.593391e+04	8.858898e+03	2.449273e+03	0	8.821671e-04
1.140000e+09	8.759062e+12	0.000000e+00	3.417086e-01	2.053176e+14	1.228910e+15	5.942887e+14	1.591752e+04	8.853109e+03	2.447673e+03	0	8.785938e-04
1.150000e+09	8.653175e+12	0.000000e+00	3.417086e-01	2.038366e+14	1.221308e+15	5.917162e+14	1.590125e+04	8.847367e+03	2.446085e+03	0	8.750390e-04
1.160000e+09	8.548681e+12	0.000000e+00	3.417086e-01	2.023746e+14	1.213800e+15	5.891610e+14	1.588509e+04	8.841673e+03	2.444511e+03	0	8.715025e-04
1.170000e+09	8.445555e+12	0.000000e+00	3.417086e-01	2.009312e+14	1.206384e+15	5.866227e+14	1.586905e+04	8.836025e+03	2.442949e+03	0	8.679839e-04
1.180000e+09	8.343772e+12	0.000000e+00	3.417086e-01	1.995061e+14	1.199058e+15	5.841014e+14	1.585313e+04	8.830423e+03	2.441401e+03	0	8.644829e-04
1.190000e+09	8.243306e+12	0.000000e+00	3.417086e-01	1.980988e+14	1.191820e+15	5.815967e+14	1.583731e+04	8.824866e+03	2.439864e+03	0	8.609992e-04
1.200000e+09	8.144134e+12	0.000000e+00	3.417086e-01	1.967092e+14	1.184668e+15	5.791088e+14	1.582161e+04	8.819354e+03	2.438340e+03	0	8.575325e-04
1.210000e+09	8.046232e+12	0.000000e+00	3.417086e-01	1.953368e+14	1.177602e+15	5.766373e+14	1.580602e+04	8.813885e+03	2.436828e+03	0	8.540824e-04
1.220000e+09	7.949577e+12	0.000000e+00	3.417086e-01	1.939814e+14	1.170618e+15	5.741822e+14	1.579054e+04	8.808458e+03	2.435328e+03	0	8.506488e-04
1.230000e+09	7.854147e+12	0.000000e+00	3.417086e-01	1.926427e+14	1.163717e+15	5.717433e+14	1.577516e+04	8.803074e+03	2.433839e+03	0	8.472312e-04
1.240000e+09	7.759920e+12	0.000000e+00	3.417086e-01	1.913204e+14	1.156896e+15	5.693206e+14	1.575989e+04	8.797732e+03	2.432362e+03	0	8.438295e-04
1.250000e+09	7.666875e+12	0.000000e+00	3.417086e-01	1.900141e+14	1.150154e+15	5.669139e+14	1.574472e+04	8.792431e+03	2.430897e+03	0	8.404433e-04
1.260000e+09	7.574990e+12	0.000000e+00	3.417086e-01	1.887237e+14	1.143490e+15	5.645230e+14	1.572966e+04	8.787170e+03	2.429442e+03	0	8.370723e-04
1.270000e+09	7.484246e+12	0.000000e+00	3.417086e-01	1.874488e+14	1.136901e+15	5.621479e+14	1.571470e+04	8.781949e+03	2.427999e+03	0	8.337163e-04
1.280000e+09	7.394622e+12	0.000000e+00	3.417086e-01	1.861891e+14	1.130388e+15	5.597884e+14	1.569984e+04	8.776767e+03	2.426566e+03	0	8.303750e-04
1.290000e+09	7.306098e+12	0.000000e+00	3.417086e-01	1.849444e+14	1.123947e+15	5.574444e+14	1.568508e+04	8.771623e+03	2.425144e+03	0	8.270481e-04
1.300000e+09	7.218657e+12	0.000000e+00	3.417086e-01	1.837145e+14	1.117579e+15	5.551157e+14	1.567042e+04	8.766518e+03	2.423732e+03	0	8.237354e-04
1.310000e+09	7.132279e+12	0.000000e+00	3.417086e-01	1.824991e+14	1.111282e+15	5.528024e+14	1.565585e+04	8.761450e+03	2.422331e+03	0	8.204366e-04
1.320000e+09	7.046946e+12	0.000000e+00	3.417086e-01	1.812980e+14	1.105054e+15	5.505042e+14	1.564138e+04	8.756419e+03	2.420940e+03	0	8.171515e-04
1.330000e+09	6.962640e+12	0.000000e+00	3.417086e-01	1.801108e+14	1.098895e+15	5.482210e+14	1.562701e+04	8.751424e+03	2.419559e+03	0	8.138797e-04
1.340000e+09	6.879343e+12	0.000000e+00	3.417086e-01	1.789374e+14	1.092803e+15	5.459528e+14	1.561273e+04	8.746465e+03	2.418188e+03	0	8.106211e-04
1.350000e+09	6.797040e+12	0.000000e+00	3.417086e-01	1.777776e+14	1.086777e+15	5.436994e+14	1.559854e+04	8.741541e+03	2.416827e+03	0	8.073754e-04
1.360000e+09	6.715712e+12	0.000000e+00	3.417086e-01	1.766311e+14	1.080817e+15	5.414606e+14	1.558445e+04	8.736652e+03	2.415475e+03	0	8.041424e-04
