#t		Qconv[W]	Ri[Rp]		R*[Rp]		Qc[W]		Qm[W]		Qr[W]		Tcmb[K]		Tl[K]		Tup[K]		RiFlag		Bs[T]
0.000000e+00	5.481516e+13	0.000000e+00	3.417086e-01	8.232008e+14	4.623951e+15	1.077205e+15	1.983190e+04	1.063512e+04	2.895435e+03	0	1.616728e-03
1.000000e+07	5.355322e+13	0.000000e+00	3.417086e-01	8.066412e+14	4.513707e+15	1.071236e+15	1.976947e+04	1.060007e+04	2.885892e+03	0	1.604225e-03
2.000000e+07	5.233626e+13	0.000000e+00	3.417086e-01	7.906658e+14	4.408695e+15	1.065313e+15	1.970830e+04	1.056614e+04	2.876653e+03	0	1.591980e-03
3.000000e+07	5.116201e+13	0.000000e+00	3.417086e-01	7.752455e+14	4.308559e+15	1.059433e+15	1.964833e+04	1.053326e+04	2.867703e+03	0	1.579984e-03
4.000000e+07	5.002840e+13	0.000000e+00	3.417086e-01	7.603532e+14	4.212973e+15	1.053597e+15	1.958952e+04	1.050139e+04	2.859027e+03	0	1.568227e-03
5.000000e+07	4.893344e+13	0.000000e+00	3.417086e-01	7.459633e+14	4.121639e+15	1.047805e+15	1.953183e+04	1.047048e+04	2.850611e+03	0	1.556701e-03
6.000000e+07	4.787529e+13	0.000000e+00	3.417086e-01	7.320521e+14	4.034284e+15	1.042056e+15	1.947523e+04	1.044047e+04	2.842442e+03	0	1.545399e-03
7.000000e+07	4.685221e+13	0.000000e+00	3.417086e-01	7.185968e+14	3.950658e+15	1.036350e+15	1.941967e+04	1.041133e+04	2.834508e+03	0	1.534311e-03
8.000000e+07	4.586258e+13	0.000000e+00	3.417086e-01	7.055766e+14	3.870530e+15	1.030686e+15	1.936513e+04	1.038302e+04	2.826799e+03	0	1.523431e-03
9.000000e+07	4.490485e+13	0.000000e+00	3.417086e-01	6.929714e+14	3.793687e+15	1.025065e+15	1.931158e+04	1.035549e+04	2.819304e+03	0	1.512752e-03
1.000000e+08	4.397758e+13	0.000000e+00	3.417086e-01	6.807625e+14	3.719936e+15	1.019485e+15	1.925897e+04	1.032871e+04	2.812013e+03	0	1.502267e-03
1.100000e+08	4.307941e+13	0.000000e+00	3.417086e-01	6.689324e+14	3.649093e+15	1.013946e+15	1.920729e+04	1.030264e+04	2.804917e+03	0	1.491970e-03
1.200000e+08	4.220906e+13	0.000000e+00	3.417086e-01	6.574643e+14	3.580994e+15	1.008449e+15	1.915650e+04	1.027726e+04	2.798007e+03	0	1.481854e-03
1.300000e+08	4.136531e+13	0.000000e+00	3.417086e-01	6.463426e+14	3.515482e+15	1.002992e+15	1.910657e+04	1.025254e+04	2.791275e+03	0	1.471913e-03
1.400000e+08	4.054702e+13	0.000000e+00	3.417086e-01	6.355525e+14	3.452414e+15	9.975756e+14	1.905749e+04	1.022844e+04	2.784714e+03	0	1.462142e-03
1.500000e+08	3.975310e+13	0.000000e+00	3.417086e-01	6.250799e+14	3.391657e+15	9.921993e+14	1.900922e+04	1.020494e+04	2.778316e+03	0	1.452537e-03
1.600000e+08	3.898255e+13	0.000000e+00	3.417086e-01	6.149115e+14	3.333086e+15	9.868627e+14	1.896174e+04	1.018201e+04	2.772075e+03	0	1.443090e-03
1.700000e+08	3.823438e+13	0.000000e+00	3.417086e-01	6.050349e+14	3.276587e+15	9.815655e+14	1.891502e+04	1.015964e+04	2.765985e+03	0	1.433798e-03
1.800000e+08	3.750768e+13	0.000000e+00	3.417086e-01	5.954381e+14	3.222051e+15	9.763074e+14	1.886906e+04	1.013780e+04	2.760038e+03	0	1.424656e-03
1.900000e+08	3.680159e+13	0.000000e+00	3.417086e-01	5.861099e+14	3.169379e+15	9.710879e+14	1.882382e+04	1.011647e+04	2.754230e+03	0	1.415660e-03
2.000000e+08	3.611528e+13	0.000000e+00	3.417086e-01	5.770396e+14	3.118476e+15	9.659069e+14	1.877928e+04	1.009563e+04	2.748556e+03	0	1.406804e-03
2.100000e+08	3.544797e+13	0.000000e+00	3.417086e-01	5.682171e+14	3.069255e+15	9.607640e+14	1.873543e+04	1.007525e+04	2.743009e+03	0	1.398086e-03
2.200000e+08	3.479891e+13	0.000000e+00	3.417086e-01	5.596327e+14	3.021634e+15	9.556588e+14	1.869225e+04	1.005533e+04	2.737586e+03	0	1.389500e-03
2.300000e+08	3.416741e+13	0.000000e+00	3.417086e-01	5.512774e+14	2.975536e+15	9.505911e+14	1.864972e+04	1.003585e+04	2.732281e+03	0	1.381044e-03
2.400000e+08	3.355279e+13	0.000000e+00	3.417086e-01	5.431423e+14	2.930889e+15	9.455606e+14	1.860782e+04	1.001678e+04	2.727090e+03	0	1.372713e-03
2.500000e+08	3.295442e+13	0.000000e+00	3.417086e-01	5.352194e+14	2.887625e+15	9.405669e+14	1.856653e+04	9.998119e+03	2.722010e+03	0	1.364503e-03
2.600000e+08	3.237168e+13	0.000000e+00	3.417086e-01	5.275005e+14	2.845680e+15	9.356097e+14	1.852584e+04	9.979848e+03	2.717035e+03	0	1.356413e-03
2.700000e+08	3.180402e+13	0.000000e+00	3.417086e-01	5.199784e+14	2.804995e+15	9.306888e+14	1.848574e+04	9.961953e+03	2.712163e+03	0	1.348437e-03
2.800000e+08	3.125086e+13	0.000000e+00	3.417086e-01	5.126459e+14	2.765514e+15	9.258038e+14	1.844620e+04	9.944421e+03	2.707390e+03	0	1.340574e-03
2.900000e+08	3.071170e+13	0.000000e+00	3.417086e-01	5.054961e+14	2.727182e+15	9.209545e+14	1.840723e+04	9.927239e+03	2.702712e+03	0	1.332819e-03
3.000000e+08	3.018603e+13	0.000000e+00	3.417086e-01	4.985225e+14	2.689952e+15	9.161406e+14	1.836879e+04	9.910396e+03	2.698127e+03	0	1.325171e-03
3.100000e+08	2.967337e+13	0.000000e+00	3.417086e-01	4.917191e+14	2.653774e+15	9.113617e+14	1.833088e+04	9.893880e+03	2.693630e+03	0	1.317627e-03
3.200000e+08	2.917327e+13	0.000000e+00	3.417086e-01	4.850798e+14	2.618605e+15	9.066176e+14	1.829348e+04	9.877680e+03	2.689220e+03	0	1.310182e-03
3.300000e+08	2.868529e+13	0.000000e+00	3.417086e-01	4.785990e+14	2.584403e+15	9.019079e+14	1.825659e+04	9.861787e+03	2.684893e+03	0	1.302836e-03
3.400000e+08	2.820903e+13	0.000000e+00	3.417086e-01	4.722713e+14	2.551128e+15	8.972325e+14	1.822019e+04	9.846189e+03	2.680646e+03	0	1.295586e-03
3.500000e+08	2.774408e+13	0.000000e+00	3.417086e-01	4.660916e+14	2.518741e+15	8.925910e+14	1.818426e+04	9.830878e+03	2.676478e+03	0	1.288428e-03
3.600000e+08	2.729006e+13	0.000000e+00	3.417086e-01	4.600549e+14	2.487208e+15	8.879831e+14	1.814881e+04	9.815845e+03	2.672385e+03	0	1.281361e-03
3.700000e+08	2.684661e+13	0.000000e+00	3.417086e-01	4.541566e+14	2.456495e+15	8.834087e+14	1.811381e+04	9.801081e+03	2.668365e+03	0	1.274383e-03
3.800000e+08	2.641338e+13	0.000000e+00	3.417086e-01	4.483920e+14	2.426568e+15	8.788673e+14	1.807926e+04	9.786577e+03	2.664417e+03	0	1.267491e-03
3.900000e+08	2.599004e+13	0.000000e+00	3.417086e-01	4.427568e+14	2.397400e+15	8.743587e+14	1.804515e+04	9.772326e+03	2.660537e+03	0	1.260682e-03
4.000000e+08	2.557627e+13	0.000000e+00	3.417086e-01	4.372470e+14	2.368959e+15	8.698827e+14	1.801146e+04	9.758320e+03	2.656724e+03	0	1.253957e-03
4.100000e+08	2.517177e+13	0.000000e+00	3.417086e-01	4.318584e+14	2.341219e+15	8.654390e+14	1.797819e+04	9.744552e+03	2.652975e+03	0	1.247311e-03
4.200000e+08	2.477624e+13	0.000000e+00	3.417086e-01	4.265874e+14	2.314153e+15	8.610273e+14	1.794533e+04	9.731015e+03	2.649290e+03	0	1.240743e-03
4.300000e+08	2.438939e+13	0.000000e+00	3.417086e-01	4.214303e+14	2.287737e+15	8.566474e+14	1.791286e+04	9.717702e+03	2.645665e+03	0	1.234252e-03
4.400000e+08	2.401097e+13	0.000000e+00	3.417086e-01	4.163834e+14	2.261948e+15	8.522990e+14	1.788079e+04	9.704606e+03	2.642100e+03	0	1.227835e-03
4.500000e+08	2.364071e+13	0.000000e+00	3.417086e-01	4.114436e+14	2.236762e+15	8.479818e+14	1.784910e+04	9.691721e+03	2.638592e+03	0	1.221491e-03
4.600000e+08	2.327836e+13	0.000000e+00	3.417086e-01	4.066075e+14	2.212158e+15	8.436957e+14	1.781779e+04	9.679042e+03	2.635140e+03	0	1.215218e-03
4.700000e+08	2.292369e+13	0.000000e+00	3.417086e-01	4.018719e+14	2.188116e+15	8.394403e+14	1.778684e+04	9.666563e+03	2.631742e+03	0	1.209015e-03
4.800000e+08	2.257646e+13	0.000000e+00	3.417086e-01	3.972340e+14	2.164616e+15	8.352153e+14	1.775625e+04	9.654277e+03	2.628398e+03	0	1.202879e-03
4.900000e+08	2.223645e+13	0.000000e+00	3.417086e-01	3.926909e+14	2.141640e+15	8.310206e+14	1.772601e+04	9.642181e+03	2.625104e+03	0	1.196810e-03
5.000000e+08	2.190345e+13	0.000000e+00	3.417086e-01	3.882397e+14	2.119170e+15	8.268560e+14	1.769612e+04	9.630268e+03	2.621861e+03	0	1.190806e-03
5.100000e+08	2.157726e+13	0.000000e+00	3.417086e-01	3.838779e+14	2.097188e+15	8.227210e+14	1.766657e+04	9.618533e+03	2.618666e+03	0	1.184865e-03
5.200000e+08	2.125768e+13	0.000000e+00	3.417086e-01	3.796028e+14	2.075680e+15	8.186156e+14	1.763734e+04	9.606973e+03	2.615519e+03	0	1.178986e-03
5.300000e+08	2.094451e+13	0.000000e+00	3.417086e-01	3.754120e+14	2.054628e+15	8.145395e+14	1.760844e+04	9.595582e+03	2.612418e+03	0	1.173168e-03
5.400000e+08	2.063759e+13	0.000000e+00	3.417086e-01	3.713031e+14	2.034018e+15	8.104923e+14	1.757986e+04	9.584357e+03	2.609362e+03	0	1.167409e-03
5.500000e+08	2.033673e+13	0.000000e+00	3.417086e-01	3.672738e+14	2.013837e+15	8.064740e+14	1.755159e+04	9.573291e+03	2.606349e+03	0	1.161708e-03
5.600000e+08	2.004176e+13	0.000000e+00	3.417086e-01	3.633220e+14	1.994070e+15	8.024843e+14	1.752362e+04	9.562383e+03	2.603379e+03	0	1.156064e-03
5.700000e+08	1.975252e+13	0.000000e+00	3.417086e-01	3.594454e+14	1.974704e+15	7.985229e+14	1.749596e+04	9.551627e+03	2.600451e+03	0	1.150476e-03
5.800000e+08	1.946885e+13	0.000000e+00	3.417086e-01	3.556421e+14	1.955727e+15	7.945895e+14	1.746859e+04	9.541020e+03	2.597563e+03	0	1.144942e-03
5.900000e+08	1.919061e+13	0.000000e+00	3.417086e-01	3.519100e+14	1.937127e+15	7.906841e+14	1.744150e+04	9.530559e+03	2.594715e+03	0	1.139461e-03
6.000000e+08	1.891763e+13	0.000000e+00	3.417086e-01	3.482472e+14	1.918893e+15	7.868063e+14	1.741470e+04	9.520238e+03	2.591905e+03	0	1.134033e-03
6.100000e+08	1.864979e+13	0.000000e+00	3.417086e-01	3.446520e+14	1.901012e+15	7.829560e+14	1.738818e+04	9.510056e+03	2.589133e+03	0	1.128656e-03
6.200000e+08	1.838695e+13	0.000000e+00	3.417086e-01	3.411225e+14	1.883476e+15	7.791328e+14	1.736193e+04	9.500009e+03	2.586398e+03	0	1.123328e-03
6.300000e+08	1.812897e+13	0.000000e+00	3.417086e-01	3.376570e+14	1.866273e+15	7.753367e+14	1.733595e+04	9.490093e+03	2.583698e+03	0	1.118050e-03
6.400000e+08	1.787573e+13	0.000000e+00	3.417086e-01	3.342538e+14	1.849394e+15	7.715673e+14	1.731023e+04	9.480306e+03	2.581034e+03	0	1.112819e-03
6.500000e+08	1.762711e+13	0.000000e+00	3.417086e-01	3.309114e+14	1.832829e+15	7.678245e+14	1.728478e+04	9.470644e+03	2.578403e+03	0	1.107636e-03
6.600000e+08	1.738298e+13	0.000000e+00	3.417086e-01	3.276281e+14	1.816570e+15	7.641080e+14	1.725957e+04	9.461105e+03	2.575806e+03	0	1.102499e-03
6.700000e+08	1.714323e+13	0.000000e+00	3.417086e-01	3.244026e+14	1.800607e+15	7.604176e+14	1.723461e+04	9.451685e+03	2.573242e+03	0	1.097407e-03
6.800000e+08	1.690775e+13	0.000000e+00	3.417086e-01	3.212332e+14	1.784933e+15	7.567531e+14	1.720990e+04	9.442383e+03	2.570709e+03	0	1.092359e-03
6.900000e+08	1.667643e+13	0.000000e+00	3.417086e-01	3.181187e+14	1.769538e+15	7.531144e+14	1.718543e+04	9.433194e+03	2.568207e+03	0	1.087354e-03
7.000000e+08	1.644917e+13	0.000000e+00	3.417086e-01	3.150577e+14	1.754417e+15	7.495012e+14	1.716120e+04	9.424118e+03	2.565736e+03	0	1.082392e-03
7.100000e+08	1.622587e+13	0.000000e+00	3.417086e-01	3.120488e+14	1.739560e+15	7.459132e+14	1.713719e+04	9.415150e+03	2.563295e+03	0	1.077472e-03
7.200000e+08	1.600642e+13	0.000000e+00	3.417086e-01	3.090908e+14	1.724962e+15	7.423504e+14	1.711342e+04	9.406289e+03	2.560883e+03	0	1.072593e-03
7.300000e+08	1.579075e+13	0.000000e+00	3.417086e-01	3.061825e+14	1.710614e+15	7.388124e+14	1.708987e+04	9.397533e+03	2.558499e+03	0	1.067753e-03
7.400000e+08	1.557875e+13	0.000000e+00	3.417086e-01	3.033226e+14	1.696511e+15	7.352992e+14	1.706654e+04	9.388879e+03	2.556143e+03	0	1.062953e-03
7.500000e+08	1.537033e+13	0.000000e+00	3.417086e-01	3.005100e+14	1.682645e+15	7.318104e+14	1.704343e+04	9.380325e+03	2.553814e+03	0	1.058192e-03
7.600000e+08	1.516542e+13	0.000000e+00	3.417086e-01	2.977436e+14	1.669011e+15	7.283460e+14	1.702053e+04	9.371869e+03	2.551511e+03	0	1.053468e-03
7.700000e+08	1.496392e+13	0.000000e+00	3.417086e-01	2.950223e+14	1.655603e+15	7.249056e+14	1.699785e+04	9.363508e+03	2.549235e+03	0	1.048782e-03
7.800000e+08	1.476576e+13	0.000000e+00	3.417086e-01	2.923450e+14	1.642414e+15	7.214892e+14	1.697537e+04	9.355242e+03	2.546985e+03	0	1.044132e-03
7.900000e+08	1.457086e+13	0.000000e+00	3.417086e-01	2.897107e+14	1.629439e+15	7.180965e+14	1.695309e+04	9.347067e+03	2.544759e+03	0	1.039517e-03
8.000000e+08	1.437914e+13	0.000000e+00	3.417086e-01	2.871185e+14	1.616674e+15	7.147273e+14	1.693101e+04	9.338982e+03	2.542558e+03	0	1.034938e-03
8.100000e+08	1.419053e+13	0.000000e+00	3.417086e-01	2.845673e+14	1.604112e+15	7.113814e+14	1.690913e+04	9.330985e+03	2.540381e+03	0	1.030393e-03
8.200000e+08	1.400496e+13	0.000000e+00	3.417086e-01	2.820563e+14	1.591748e+15	7.080588e+14	1.688744e+04	9.323074e+03	2.538227e+03	0	1.025882e-03
8.300000e+08	1.382236e+13	0.000000e+00	3.417086e-01	2.795845e+14	1.579578e+15	7.047590e+14	1.686595e+04	9.315248e+03	2.536096e+03	0	1.021404e-03
8.400000e+08	1.364266e+13	0.000000e+00	3.417086e-01	2.771511e+14	1.567597e+15	7.014821e+14	1.684464e+04	9.307504e+03	2.533988e+03	0	1.016958e-03
8.500000e+08	1.346579e+13	0.000000e+00	3.417086e-01	2.747551e+14	1.555801e+15	6.982278e+14	1.682352e+04	9.299842e+03	2.531902e+03	0	1.012544e-03
8.600000e+08	1.329171e+13	0.000000e+00	3.417086e-01	2.723959e+14	1.544184e+15	6.949959e+14	1.680258e+04	9.292259e+03	2.529838e+03	0	1.008162e-03
8.700000e+08	1.312033e+13	0.000000e+00	3.417086e-01	2.700725e+14	1.532743e+15	6.917863e+14	1.678182e+04	9.284755e+03	2.527795e+03	0	1.003810e-03
8.800000e+08	1.295161e+13	0.000000e+00	3.417086e-01	2.677841e+14	1.521474e+15	6.885988e+14	1.676123e+04	9.277327e+03	2.525772e+03	0	9.994888e-04
8.900000e+08	1.278548e+13	0.000000e+00	3.417086e-01	2.655301e+14	1.510372e+15	6.854331e+14	1.674082e+04	9.269974e+03	2.523770e+03	0	9.951970e-04
9.000000e+08	1.262189e+13	0.000000e+00	3.417086e-01	2.633097e+14	1.499433e+15	6.822892e+14	1.672058e+04	9.262694e+03	2.521788e+03	0	9.909343e-04
9.100000e+08	1.246078e+13	0.000000e+00	3.417086e-01	2.611222e+14	1.488655e+15	6.791668e+14	1.670051e+04	9.255487e+03	2.519826e+03	0	9.867001e-04
9.200000e+08	1.230211e+13	0.000000e+00	3.417086e-01	2.589668e+14	1.478033e+15	6.760658e+14	1.668060e+04	9.248350e+03	2.517883e+03	0	9.824940e-04
9.300000e+08	1.214581e+13	0.000000e+00	3.417086e-01	2.568430e+14	1.467564e+15	6.729861e+14	1.666086e+04	9.241283e+03	2.515959e+03	0	9.783154e-04
9.400000e+08	1.199184e+13	0.000000e+00	3.417086e-01	2.547499e+14	1.457244e+15	6.699273e+14	1.664128e+04	9.234284e+03	2.514054e+03	0	9.741639e-04
9.500000e+08	1.184015e+13	0.000000e+00	3.417086e-01	2.526871e+14	1.447070e+15	6.668895e+14	1.662186e+04	9.227352e+03	2.512167e+03	0	9.700389e-04
9.600000e+08	1.169069e+13	0.000000e+00	3.417086e-01	2.506538e+14	1.437038e+15	6.638724e+14	1.660260e+04	9.220486e+03	2.510297e+03	0	9.659400e-04
9.700000e+08	1.154342e+13	0.000000e+00	3.417086e-01	2.486495e+14	1.427146e+15	6.608758e+14	1.658349e+04	9.213684e+03	2.508445e+03	0	9.618668e-04
9.800000e+08	1.139829e+13	0.000000e+00	3.417086e-01	2.466736e+14	1.417391e+15	6.578996e+14	1.656453e+04	9.206946e+03	2.506611e+03	0	9.578187e-04
9.900000e+08	1.125526e+13	0.000000e+00	3.417086e-01	2.447254e+14	1.407770e+15	6.549436e+14	1.654573e+04	9.200270e+03	2.504793e+03	0	9.537953e-04
1.000000e+09	1.111428e+13	0.000000e+00	3.417086e-01	2.428045e+14	1.398279e+15	6.520077e+14	1.652707e+04	9.193655e+03	2.502992e+03	0	9.497962e-04
1.010000e+09	1.097531e+13	0.000000e+00	3.417086e-01	2.409103e+14	1.388917e+15	6.490917e+14	1.650856e+04	9.187100e+03	2.501208e+03	0	9.458210e-04
1.020000e+09	1.083831e+13	0.000000e+00	3.417086e-01	2.390422e+14	1.379679e+15	6.461955e+14	1.649019e+04	9.180604e+03	2.499439e+03	0	9.418692e-04
1.030000e+09	1.070324e+13	0.000000e+00	3.417086e-01	2.371998e+14	1.370565e+15	6.433188e+14	1.647196e+04	9.174167e+03	2.497687e+03	0	9.379403e-04
1.040000e+09	1.057007e+13	0.000000e+00	3.417086e-01	2.353825e+14	1.361571e+15	6.404616e+14	1.645388e+04	9.167786e+03	2.495949e+03	0	9.340341e-04
1.050000e+09	1.043876e+13	0.000000e+00	3.417086e-01	2.335898e+14	1.352694e+15	6.376237e+14	1.643593e+04	9.161461e+03	2.494227e+03	0	9.301501e-04
1.060000e+09	1.030927e+13	0.000000e+00	3.417086e-01	2.318213e+14	1.343933e+15	6.348050e+14	1.641812e+04	9.155191e+03	2.492520e+03	0	9.262878e-04
1.070000e+09	1.018156e+13	0.000000e+00	3.417086e-01	2.300765e+14	1.335284e+15	6.320052e+14	1.640044e+04	9.148975e+03	2.490828e+03	0	9.224470e-04
1.080000e+09	1.005559e+13	0.000000e+00	3.417086e-01	2.283550e+14	1.326747e+15	6.292243e+14	1.638290e+04	9.142812e+03	2.489150e+03	0	9.186272e-04
1.090000e+09	9.931351e+12	0.000000e+00	3.417086e-01	2.266562e+14	1.318317e+15	6.264620e+14	1.636548e+04	9.136702e+03	2.487487e+03	0	9.148281e-04
1.100000e+09	9.808789e+12	0.000000e+00	3.417086e-01	2.249798e+14	1.309994e+15	6.237184e+14	1.634820e+04	9.130643e+03	2.485837e+03	0	9.110493e-04
1.110000e+09	9.687879e+12	0.000000e+00	3.417086e-01	2.233254e+14	1.301776e+15	6.209931e+14	1.633104e+04	9.124635e+03	2.484202e+03	0	9.072904e-04
1.120000e+09	9.568588e+12	0.000000e+00	3.417086e-01	2.216925e+14	1.293659e+15	6.182860e+14	1.631401e+04	9.118677e+03	2.482579e+03	0	9.035510e-04
1.130000e+09	9.450887e+12	0.000000e+00	3.417086e-01	2.200807e+14	1.285643e+15	6.155971e+14	1.629711e+04	9.112767e+03	2.480971e+03	0	8.998309e-04
1.140000e+09	9.334744e+12	0.000000e+00	3.417086e-01	2.184896e+14	1.277725e+15	6.129262e+14	1.628032e+04	9.106906e+03	2.479375e+03	0	8.961297e-04
1.150000e+09	9.220132e+12	0.000000e+00	3.417086e-01	2.169189e+14	1.269904e+15	6.102731e+14	1.626366e+04	9.101092e+03	2.477792e+03	0	8.924470e-04
1.160000e+09	9.107021e+12	0.000000e+00	3.417086e-01	2.153682e+14	1.262177e+15	6.076377e+14	1.624711e+04	9.095325e+03	2.476222e+03	0	8.887825e-04
1.170000e+09	8.995384e+12	0.000000e+00	3.417086e-01	2.138371e+14	1.254543e+15	6.050198e+14	1.623069e+04	9.089604e+03	2.474664e+03	0	8.851359e-04
1.180000e+09	8.885195e+12	0.000000e+00	3.417086e-01	2.123252e+14	1.247000e+15	6.024194e+14	1.621438e+04	9.083928e+03	2.473119e+03	0	8.815069e-04
1.190000e+09	8.776425e+12	0.000000e+00	3.417086e-01	2.108323e+14	1.239546e+15	5.998362e+14	1.619819e+04	9.078296e+03	2.471586e+03	0	8.778951e-04
1.200000e+09	8.669051e+12	0.000000e+00	3.417086e-01	2.093580e+14	1.232180e+15	5.972702e+14	1.618211e+04	9.072708e+03	2.470064e+03	0	8.743002e-04
1.210000e+09	8.563047e+12	0.000000e+00	3.417086e-01	2.079018e+14	1.224901e+15	5.947212e+14	1.616614e+04	9.067164e+03	2.468555e+03	0	8.707220e-04
1.220000e+09	8.458387e+12	0.000000e+00	3.417086e-01	2.064636e+14	1.217705e+15	5.921891e+14	1.615028e+04	9.061662e+03	2.467057e+03	0	8.671600e-04
1.230000e+09	8.355048e+12	0.000000e+00	3.417086e-01	2.050431e+14	1.210593e+15	5.896738e+14	1.613453e+04	9.056202e+03	2.465570e+03	0	8.636141e-04
1.240000e+09	8.253007e+12	0.000000e+00	3.417086e-01	2.036398e+14	1.203563e+15	5.871751e+14	1.611889e+04	9.050782e+03	2.464095e+03	0	8.600839e-04
1.250000e+09	8.152241e+12	0.000000e+00	3.417086e-01	2.022534e+14	1.196612e+15	5.846929e+14	1.610336e+04	9.045404e+03	2.462631e+03	0	8.565691e-04
1.260000e+09	8.052727e+12	0.000000e+00	3.417086e-01	2.008838e+14	1.189740e+15	5.822270e+14	1.608793e+04	9.040066e+03	2.461177e+03	0	8.530694e-04
1.270000e+09	7.954443e+12	0.000000e+00	3.417086e-01	1.995306e+14	1.182946e+15	5.797774e+14	1.607261e+04	9.034767e+03	2.459735e+03	0	8.495846e-04
1.280000e+09	7.857368e+12	0.000000e+00	3.417086e-01	1.981936e+14	1.176227e+15	5.773439e+14	1.605739e+04	9.029506e+03	2.458303e+03	0	8.461144e-04
1.290000e+09	7.761481e+12	0.000000e+00	3.417086e-01	1.968723e+14	1.169583e+15	5.749264e+14	1.604227e+04	9.024284e+03	2.456881e+03	0	8.426585e-04
1.300000e+09	7.666762e+12	0.000000e+00	3.417086e-01	1.955667e+14	1.163012e+15	5.725248e+14	1.602725e+04	9.019100e+03	2.455469e+03	0	8.392166e-04
1.310000e+09	7.573191e+12	0.000000e+00	3.417086e-01	1.942764e+14	1.156513e+15	5.701389e+14	1.601233e+04	9.013953e+03	2.454068e+03	0	8.357884e-04
1.320000e+09	7.480748e+12	0.000000e+00	3.417086e-01	1.930011e+14	1.150086e+15	5.677686e+14	1.599751e+04	9.008843e+03	2.452677e+03	0	8.323738e-04
1.330000e+09	7.389413e+12	0.000000e+00	3.417086e-01	1.917406e+14	1.143728e+15	5.654138e+14	1.598279e+04	9.003768e+03	2.451295e+03	0	8.289723e-04
1.340000e+09	7.299169e+12	0.000000e+00	3.417086e-01	1.904947e+14	1.137438e+15	5.630744e+14	1.596816e+04	8.998730e+03	2.449924e+03	0	8.255839e-04
1.350000e+09	7.209997e+12	0.000000e+00	3.417086e-01	1.892632e+14	1.131216e+15	5.607503e+14	1.595363e+04	8.993726e+03	2.448561e+03	0	8.222081e-04
1.360000e+09	7.121879e+12	0.000000e+00	3.417086e-01	1.880457e+14	1.125059e+15	5.584414e+14	1.593919e+04	8.988757e+03	2.447209e+03	0	8.188448e-04
