#t		Qconv[W]	Ri[Rp]		R*[Rp]		Qc[W]		Qm[W]		Qr[W]		Tcmb[K]		Tl[K]		Tup[K]		RiFlag		Bs[T]
0.000000e+00	6.053098e+13	0.000000e+00	3.417086e-01	8.895756e+14	4.531508e+15	1.126464e+15	2.059307e+04	1.101929e+04	2.920714e+03	0	1.669366e-03
1.000000e+07	5.917008e+13	0.000000e+00	3.417086e-01	8.722549e+14	4.435200e+15	1.120222e+15	2.052937e+04	1.098799e+04	2.912418e+03	0	1.656760e-03
2.000000e+07	5.785594e+13	0.000000e+00	3.417086e-01	8.555229e+14	4.343004e+15	1.114028e+15	2.046690e+04	1.095759e+04	2.904361e+03	0	1.644403e-03
3.000000e+07	5.658630e+13	0.000000e+00	3.417086e-01	8.393513e+14	4.254667e+15	1.107879e+15	2.040562e+04	1.092805e+04	2.896530e+03	0	1.632285e-03
4.000000e+07	5.535906e+13	0.000000e+00	3.417086e-01	8.237136e+14	4.169954e+15	1.101776e+15	2.034550e+04	1.089932e+04	2.888915e+03	0	1.620399e-03
5.000000e+07	5.417223e+13	0.000000e+00	3.417086e-01	8.085851e+14	4.088649e+15	1.095719e+15	2.028648e+04	1.087136e+04	2.881506e+03	0	1.608735e-03
6.000000e+07	5.302394e+13	0.000000e+00	3.417086e-01	7.939423e+14	4.010551e+15	1.089708e+15	2.022855e+04	1.084415e+04	2.874294e+03	0	1.597287e-03
7.000000e+07	5.191245e+13	0.000000e+00	3.417086e-01	7.797632e+14	3.935478e+15	1.083740e+15	2.017166e+04	1.081765e+04	2.867269e+03	0	1.586047e-03
8.000000e+07	5.083610e+13	0.000000e+00	3.417086e-01	7.660271e+14	3.863256e+15	1.077818e+15	2.011577e+04	1.079183e+04	2.860425e+03	0	1.575009e-03
9.000000e+07	4.979333e+13	0.000000e+00	3.417086e-01	7.527145e+14	3.793729e+15	1.071939e+15	2.006087e+04	1.076666e+04	2.853753e+03	0	1.564165e-03
1.000000e+08	4.878268e+13	0.000000e+00	3.417086e-01	7.398068e+14	3.726748e+15	1.066104e+15	2.000691e+04	1.074211e+04	2.847246e+03	0	1.553510e-03
1.100000e+08	4.780275e+13	0.000000e+00	3.417086e-01	7.272868e+14	3.662177e+15	1.060312e+15	1.995388e+04	1.071815e+04	2.840897e+03	0	1.543038e-03
1.200000e+08	4.685223e+13	0.000000e+00	3.417086e-01	7.151378e+14	3.599889e+15	1.054563e+15	1.990173e+04	1.069477e+04	2.834699e+03	0	1.532742e-03
1.300000e+08	4.592990e+13	0.000000e+00	3.417086e-01	7.033444e+14	3.539765e+15	1.048857e+15	1.985046e+04	1.067194e+04	2.828647e+03	0	1.522617e-03
1.400000e+08	4.503456e+13	0.000000e+00	3.417086e-01	6.918919e+14	3.481694e+15	1.043193e+15	1.980002e+04	1.064963e+04	2.822735e+03	0	1.512659e-03
1.500000e+08	4.416512e+13	0.000000e+00	3.417086e-01	6.807663e+14	3.425573e+15	1.037571e+15	1.975040e+04	1.062784e+04	2.816958e+03	0	1.502861e-03
1.600000e+08	4.332052e+13	0.000000e+00	3.417086e-01	6.699543e+14	3.371305e+15	1.031990e+15	1.970157e+04	1.060653e+04	2.811309e+03	0	1.493219e-03
1.700000e+08	4.249976e+13	0.000000e+00	3.417086e-01	6.594435e+14	3.318800e+15	1.026451e+15	1.965352e+04	1.058569e+04	2.805786e+03	0	1.483729e-03
1.800000e+08	4.170190e+13	0.000000e+00	3.417086e-01	6.492220e+14	3.267973e+15	1.020952e+15	1.960621e+04	1.056530e+04	2.800381e+03	0	1.474385e-03
1.900000e+08	4.092604e+13	0.000000e+00	3.417086e-01	6.392784e+14	3.218744e+15	1.015494e+15	1.955964e+04	1.054534e+04	2.795092e+03	0	1.465184e-03
2.000000e+08	4.017132e+13	0.000000e+00	3.417086e-01	6.296021e+14	3.171039e+15	1.010076e+15	1.951377e+04	1.052581e+04	2.789915e+03	0	1.456122e-03
2.100000e+08	3.943695e+13	0.000000e+00	3.417086e-01	6.201829e+14	3.124789e+15	1.004698e+15	1.946860e+04	1.050668e+04	2.784844e+03	0	1.447194e-03
2.200000e+08	3.872214e+13	0.000000e+00	3.417086e-01	6.110111e+14	3.079926e+15	9.993594e+14	1.942409e+04	1.048794e+04	2.779877e+03	0	1.438397e-03
2.300000e+08	3.802616e+13	0.000000e+00	3.417086e-01	6.020775e+14	3.036388e+15	9.940600e+14	1.938025e+04	1.046957e+04	2.775010e+03	0	1.429727e-03
2.400000e+08	3.734832e+13	0.000000e+00	3.417086e-01	5.933733e+14	2.994119e+15	9.887994e+14	1.933704e+04	1.045157e+04	2.770239e+03	0	1.421181e-03
2.500000e+08	3.668795e+13	0.000000e+00	3.417086e-01	5.848901e+14	2.953062e+15	9.835773e+14	1.929445e+04	1.043393e+04	2.765561e+03	0	1.412755e-03
2.600000e+08	3.604442e+13	0.000000e+00	3.417086e-01	5.766200e+14	2.913165e+15	9.783935e+14	1.925247e+04	1.041662e+04	2.760973e+03	0	1.404446e-03
2.700000e+08	3.541712e+13	0.000000e+00	3.417086e-01	5.685554e+14	2.874379e+15	9.732476e+14	1.921107e+04	1.039964e+04	2.756472e+03	0	1.396251e-03
2.800000e+08	3.480547e+13	0.000000e+00	3.417086e-01	5.606890e+14	2.836659e+15	9.681392e+14	1.917026e+04	1.038297e+04	2.752055e+03	0	1.388166e-03
2.900000e+08	3.420894e+13	0.000000e+00	3.417086e-01	5.530139e+14	2.799959e+15	9.630682e+14	1.913001e+04	1.036662e+04	2.747720e+03	0	1.380190e-03
3.000000e+08	3.362698e+13	0.000000e+00	3.417086e-01	5.455235e+14	2.764240e+15	9.580341e+14	1.909030e+04	1.035056e+04	2.743464e+03	0	1.372319e-03
3.100000e+08	3.305911e+13	0.000000e+00	3.417086e-01	5.382114e+14	2.729460e+15	9.530367e+14	1.905113e+04	1.033479e+04	2.739284e+03	0	1.364550e-03
3.200000e+08	3.250484e+13	0.000000e+00	3.417086e-01	5.310717e+14	2.695584e+15	9.480756e+14	1.901248e+04	1.031930e+04	2.735178e+03	0	1.356881e-03
3.300000e+08	3.196370e+13	0.000000e+00	3.417086e-01	5.240985e+14	2.662575e+15	9.431506e+14	1.897435e+04	1.030408e+04	2.731143e+03	0	1.349309e-03
3.400000e+08	3.143528e+13	0.000000e+00	3.417086e-01	5.172864e+14	2.630401e+15	9.382614e+14	1.893671e+04	1.028912e+04	2.727179e+03	0	1.341832e-03
3.500000e+08	3.091913e+13	0.000000e+00	3.417086e-01	5.106301e+14	2.599029e+15	9.334076e+14	1.889956e+04	1.027441e+04	2.723282e+03	0	1.334447e-03
3.600000e+08	3.041487e+13	0.000000e+00	3.417086e-01	5.041244e+14	2.568430e+15	9.285891e+14	1.886288e+04	1.025996e+04	2.719450e+03	0	1.327153e-03
3.700000e+08	2.992210e+13	0.000000e+00	3.417086e-01	4.977645e+14	2.538573e+15	9.238054e+14	1.882667e+04	1.024574e+04	2.715682e+03	0	1.319946e-03
3.800000e+08	2.944046e+13	0.000000e+00	3.417086e-01	4.915458e+14	2.509433e+15	9.190563e+14	1.879092e+04	1.023176e+04	2.711975e+03	0	1.312826e-03
3.900000e+08	2.896960e+13	0.000000e+00	3.417086e-01	4.854639e+14	2.480983e+15	9.143416e+14	1.875561e+04	1.021800e+04	2.708328e+03	0	1.305789e-03
4.000000e+08	2.850916e+13	0.000000e+00	3.417086e-01	4.795144e+14	2.453199e+15	9.096609e+14	1.872073e+04	1.020446e+04	2.704740e+03	0	1.298834e-03
4.100000e+08	2.805884e+13	0.000000e+00	3.417086e-01	4.736932e+14	2.426056e+15	9.050140e+14	1.868628e+04	1.019114e+04	2.701208e+03	0	1.291959e-03
4.200000e+08	2.761831e+13	0.000000e+00	3.417086e-01	4.679964e+14	2.399532e+15	9.004006e+14	1.865225e+04	1.017802e+04	2.697731e+03	0	1.285162e-03
4.300000e+08	2.718728e+13	0.000000e+00	3.417086e-01	4.624202e+14	2.373606e+15	8.958204e+14	1.861862e+04	1.016510e+04	2.694308e+03	0	1.278442e-03
4.400000e+08	2.676545e+13	0.000000e+00	3.417086e-01	4.569610e+14	2.348258e+15	8.912731e+14	1.858540e+04	1.015238e+04	2.690937e+03	0	1.271795e-03
4.500000e+08	2.635256e+13	0.000000e+00	3.417086e-01	4.516153e+14	2.323467e+15	8.867586e+14	1.855256e+04	1.013986e+04	2.687616e+03	0	1.265221e-03
4.600000e+08	2.594833e+13	0.000000e+00	3.417086e-01	4.463796e+14	2.299214e+15	8.822764e+14	1.852011e+04	1.012751e+04	2.684345e+03	0	1.258719e-03
4.700000e+08	2.555251e+13	0.000000e+00	3.417086e-01	4.412509e+14	2.275483e+15	8.778264e+14	1.848803e+04	1.011535e+04	2.681121e+03	0	1.252286e-03
4.800000e+08	2.516484e+13	0.000000e+00	3.417086e-01	4.362259e+14	2.252256e+15	8.734083e+14	1.845632e+04	1.010337e+04	2.677945e+03	0	1.245921e-03
4.900000e+08	2.478511e+13	0.000000e+00	3.417086e-01	4.313018e+14	2.229517e+15	8.690218e+14	1.842497e+04	1.009155e+04	2.674814e+03	0	1.239622e-03
5.000000e+08	2.441307e+13	0.000000e+00	3.417086e-01	4.264755e+14	2.207249e+15	8.646666e+14	1.839397e+04	1.007991e+04	2.671727e+03	0	1.233388e-03
5.100000e+08	2.404850e+13	0.000000e+00	3.417086e-01	4.217443e+14	2.185439e+15	8.603426e+14	1.836331e+04	1.006843e+04	2.668683e+03	0	1.227218e-03
5.200000e+08	2.369120e+13	0.000000e+00	3.417086e-01	4.171056e+14	2.164071e+15	8.560495e+14	1.833300e+04	1.005710e+04	2.665682e+03	0	1.221110e-03
5.300000e+08	2.334096e+13	0.000000e+00	3.417086e-01	4.125568e+14	2.143132e+15	8.517869e+14	1.830302e+04	1.004593e+04	2.662721e+03	0	1.215062e-03
5.400000e+08	2.299759e+13	0.000000e+00	3.417086e-01	4.080954e+14	2.122608e+15	8.475547e+14	1.827336e+04	1.003491e+04	2.659801e+03	0	1.209075e-03
5.500000e+08	2.266089e+13	0.000000e+00	3.417086e-01	4.037190e+14	2.102488e+15	8.433527e+14	1.824402e+04	1.002404e+04	2.656920e+03	0	1.203145e-03
5.600000e+08	2.233068e+13	0.000000e+00	3.417086e-01	3.994252e+14	2.082758e+15	8.391805e+14	1.821500e+04	1.001332e+04	2.654077e+03	0	1.197272e-03
5.700000e+08	2.200679e+13	0.000000e+00	3.417086e-01	3.952120e+14	2.063408e+15	8.350379e+14	1.818628e+04	1.000273e+04	2.651271e+03	0	1.191456e-03
5.800000e+08	2.168905e+13	0.000000e+00	3.417086e-01	3.910770e+14	2.044425e+15	8.309247e+14	1.815787e+04	9.992283e+03	2.648501e+03	0	1.185694e-03
5.900000e+08	2.137728e+13	0.000000e+00	3.417086e-01	3.870183e+14	2.025800e+15	8.268407e+14	1.812975e+04	9.981968e+03	2.645767e+03	0	1.179985e-03
6.000000e+08	2.107134e+13	0.000000e+00	3.417086e-01	3.830338e+14	2.007521e+15	8.227856e+14	1.810192e+04	9.971784e+03	2.643068e+03	0	1.174329e-03
6.100000e+08	2.077107e+13	0.000000e+00	3.417086e-01	3.791216e+14	1.989580e+15	8.187592e+14	1.807438e+04	9.961728e+03	2.640403e+03	0	1.168724e-03
6.200000e+08	2.047632e+13	0.000000e+00	3.417086e-01	3.752798e+14	1.971965e+15	8.147612e+14	1.804712e+04	9.951796e+03	2.637770e+03	0	1.163169e-03
6.300000e+08	2.018694e+13	0.000000e+00	3.417086e-01	3.715067e+14	1.954669e+15	8.107915e+14	1.802013e+04	9.941986e+03	2.635170e+03	0	1.157664e-03
6.400000e+08	1.990281e+13	0.000000e+00	3.417086e-01	3.678004e+14	1.937682e+15	8.068497e+14	1.799341e+04	9.932296e+03	2.632601e+03	0	1.152207e-03
6.500000e+08	1.962378e+13	0.000000e+00	3.417086e-01	3.641592e+14	1.920996e+15	8.029357e+14	1.796696e+04	9.922722e+03	2.630064e+03	0	1.146797e-03
6.600000e+08	1.934974e+13	0.000000e+00	3.417086e-01	3.605816e+14	1.904602e+15	7.990493e+14	1.794077e+04	9.913262e+03	2.627556e+03	0	1.141434e-03
6.700000e+08	1.908054e+13	0.000000e+00	3.417086e-01	3.570660e+14	1.888493e+15	7.951902e+14	1.791484e+04	9.903913e+03	2.625078e+03	0	1.136116e-03
6.800000e+08	1.881607e+13	0.000000e+00	3.417086e-01	3.536108e+14	1.872661e+15	7.913581e+14	1.788916e+04	9.894673e+03	2.622629e+03	0	1.130842e-03
6.900000e+08	1.855622e+13	0.000000e+00	3.417086e-01	3.502145e+14	1.857098e+15	7.875530e+14	1.786373e+04	9.885540e+03	2.620209e+03	0	1.125612e-03
7.000000e+08	1.830087e+13	0.000000e+00	3.417086e-01	3.468757e+14	1.841798e+15	7.837746e+14	1.783854e+04	9.876512e+03	2.617816e+03	0	1.120425e-03
7.100000e+08	1.804991e+13	0.000000e+00	3.417086e-01	3.435930e+14	1.826753e+15	7.800225e+14	1.781359e+04	9.867585e+03	2.615450e+03	0	1.115280e-03
7.200000e+08	1.780324e+13	0.000000e+00	3.417086e-01	3.403651e+14	1.811958e+15	7.762968e+14	1.778887e+04	9.858759e+03	2.613110e+03	0	1.110176e-03
7.300000e+08	1.756075e+13	0.000000e+00	3.417086e-01	3.371907e+14	1.797405e+15	7.725970e+14	1.776439e+04	9.850031e+03	2.610797e+03	0	1.105113e-03
7.400000e+08	1.732233e+13	0.000000e+00	3.417086e-01	3.340685e+14	1.783088e+15	7.689231e+14	1.774013e+04	9.841398e+03	2.608509e+03	0	1.100089e-03
7.500000e+08	1.708791e+13	0.000000e+00	3.417086e-01	3.309972e+14	1.769002e+15	7.652748e+14	1.771610e+04	9.832859e+03	2.606245e+03	0	1.095104e-03
7.600000e+08	1.685737e+13	0.000000e+00	3.417086e-01	3.279757e+14	1.755141e+15	7.616520e+14	1.769229e+04	9.824413e+03	2.604007e+03	0	1.090157e-03
7.700000e+08	1.663064e+13	0.000000e+00	3.417086e-01	3.250028e+14	1.741499e+15	7.580543e+14	1.766869e+04	9.816056e+03	2.601792e+03	0	1.085247e-03
7.800000e+08	1.640762e+13	0.000000e+00	3.417086e-01	3.220775e+14	1.728070e+15	7.544816e+14	1.764531e+04	9.807788e+03	2.599600e+03	0	1.080374e-03
7.900000e+08	1.618822e+13	0.000000e+00	3.417086e-01	3.191986e+14	1.714850e+15	7.509338e+14	1.762214e+04	9.799607e+03	2.597432e+03	0	1.075537e-03
8.000000e+08	1.597237e+13	0.000000e+00	3.417086e-01	3.163650e+14	1.701834e+15	7.474105e+14	1.759917e+04	9.791510e+03	2.595286e+03	0	1.070735e-03
8.100000e+08	1.575998e+13	0.000000e+00	3.417086e-01	3.135758e+14	1.689017e+15	7.439117e+14	1.757641e+04	9.783497e+03	2.593162e+03	0	1.065968e-03
8.200000e+08	1.555098e+13	0.000000e+00	3.417086e-01	3.108300e+14	1.676393e+15	7.404370e+14	1.755384e+04	9.775565e+03	2.591059e+03	0	1.061235e-03
8.300000e+08	1.534528e+13	0.000000e+00	3.417086e-01	3.081266e+14	1.663959e+15	7.369864e+14	1.753148e+04	9.767713e+03	2.588978e+03	0	1.056535e-03
8.400000e+08	1.514282e+13	0.000000e+00	3.417086e-01	3.054646e+14	1.651710e+15	7.335597e+14	1.750931e+04	9.759940e+03	2.586918e+03	0	1.051868e-03
8.500000e+08	1.494353e+13	0.000000e+00	3.417086e-01	3.028432e+14	1.639642e+15	7.301566e+14	1.748733e+04	9.752243e+03	2.584878e+03	0	1.047233e-03
8.600000e+08	1.474732e+13	0.000000e+00	3.417086e-01	3.002614e+14	1.627750e+15	7.267769e+14	1.746553e+04	9.744623e+03	2.582858e+03	0	1.042630e-03
8.700000e+08	1.455415e+13	0.000000e+00	3.417086e-01	2.977185e+14	1.616031e+15	7.234205e+14	1.744393e+04	9.737076e+03	2.580858e+03	0	1.038057e-03
8.800000e+08	1.436393e+13	0.000000e+00	3.417086e-01	2.952135e+14	1.604481e+15	7.200872e+14	1.742250e+04	9.729602e+03	2.578877e+03	0	1.033515e-03
8.900000e+08	1.417662e+13	0.000000e+00	3.417086e-01	2.927457e+14	1.593095e+15	7.167768e+14	1.740126e+04	9.722200e+03	2.576915e+03	0	1.029003e-03
9.000000e+08	1.399213e+13	0.000000e+00	3.417086e-01	2.903143e+14	1.581871e+15	7.134891e+14	1.738019e+04	9.714867e+03	2.574971e+03	0	1.024520e-03
9.100000e+08	1.381043e+13	0.000000e+00	3.417086e-01	2.879185e+14	1.570804e+15	7.102239e+14	1.735929e+04	9.707604e+03	2.573046e+03	0	1.020065e-03
9.200000e+08	1.363143e+13	0.000000e+00	3.417086e-01	2.855575e+14	1.559892e+15	7.069812e+14	1.733857e+04	9.700408e+03	2.571139e+03	0	1.015639e-03
9.300000e+08	1.345510e+13	0.000000e+00	3.417086e-01	2.832307e+14	1.549130e+15	7.037605e+14	1.731802e+04	9.693278e+03	2.569249e+03	0	1.011241e-03
9.400000e+08	1.328137e+13	0.000000e+00	3.417086e-01	2.809374e+14	1.538516e+15	7.005619e+14	1.729763e+04	9.686214e+03	2.567376e+03	0	1.006870e-03
9.500000e+08	1.311019e+13	0.000000e+00	3.417086e-01	2.786767e+14	1.528047e+15	6.973852e+14	1.727741e+04	9.679214e+03	2.565521e+03	0	1.002525e-03
9.600000e+08	1.294150e+13	0.000000e+00	3.417086e-01	2.764482e+14	1.517719e+15	6.942301e+14	1.725736e+04	9.672277e+03	2.563682e+03	0	9.982068e-04
9.700000e+08	1.277526e+13	0.000000e+00	3.417086e-01	2.742511e+14	1.507530e+15	6.910965e+14	1.723746e+04	9.665401e+03	2.561860e+03	0	9.939143e-04
9.800000e+08	1.261142e+13	0.000000e+00	3.417086e-01	2.720848e+14	1.497476e+15	6.879842e+14	1.721772e+04	9.658587e+03	2.560054e+03	0	9.896470e-04
9.900000e+08	1.244992e+13	0.000000e+00	3.417086e-01	2.699487e+14	1.487555e+15	6.848930e+14	1.719813e+04	9.651832e+03	2.558263e+03	0	9.854045e-04
1.000000e+09	1.229073e+13	0.000000e+00	3.417086e-01	2.678421e+14	1.477764e+15	6.818229e+14	1.717870e+04	9.645135e+03	2.556488e+03	0	9.811863e-04
1.010000e+09	1.213378e+13	0.000000e+00	3.417086e-01	2.657645e+14	1.468100e+15	6.787735e+14	1.715942e+04	9.638497e+03	2.554729e+03	0	9.769921e-04
1.020000e+09	1.197905e+13	0.000000e+00	3.417086e-01	2.637154e+14	1.458562e+15	6.757449e+14	1.714029e+04	9.631915e+03	2.552984e+03	0	9.728213e-04
1.030000e+09	1.182648e+13	0.000000e+00	3.417086e-01	2.616941e+14	1.449145e+15	6.727367e+14	1.712130e+04	9.625390e+03	2.551255e+03	0	9.686736e-04
1.040000e+09	1.167603e+13	0.000000e+00	3.417086e-01	2.597002e+14	1.439849e+15	6.697488e+14	1.710246e+04	9.618919e+03	2.549539e+03	0	9.645485e-04
1.050000e+09	1.152767e+13	0.000000e+00	3.417086e-01	2.577330e+14	1.430670e+15	6.667812e+14	1.708377e+04	9.612502e+03	2.547839e+03	0	9.604457e-04
1.060000e+09	1.138135e+13	0.000000e+00	3.417086e-01	2.557921e+14	1.421606e+15	6.638335e+14	1.706521e+04	9.606138e+03	2.546152e+03	0	9.563646e-04
1.070000e+09	1.123702e+13	0.000000e+00	3.417086e-01	2.538770e+14	1.412655e+15	6.609057e+14	1.704680e+04	9.599826e+03	2.544479e+03	0	9.523049e-04
1.080000e+09	1.109466e+13	0.000000e+00	3.417086e-01	2.519872e+14	1.403815e+15	6.579976e+14	1.702852e+04	9.593566e+03	2.542820e+03	0	9.482663e-04
1.090000e+09	1.095423e+13	0.000000e+00	3.417086e-01	2.501222e+14	1.395083e+15	6.551091e+14	1.701038e+04	9.587357e+03	2.541174e+03	0	9.442483e-04
1.100000e+09	1.081568e+13	0.000000e+00	3.417086e-01	2.482815e+14	1.386458e+15	6.522399e+14	1.699237e+04	9.581197e+03	2.539541e+03	0	9.402505e-04
1.110000e+09	1.067899e+13	0.000000e+00	3.417086e-01	2.464648e+14	1.377938e+15	6.493900e+14	1.697449e+04	9.575086e+03	2.537921e+03	0	9.362726e-04
1.120000e+09	1.054411e+13	0.000000e+00	3.417086e-01	2.446715e+14	1.369520e+15	6.465592e+14	1.695675e+04	9.569024e+03	2.536315e+03	0	9.323143e-04
1.130000e+09	1.041102e+13	0.000000e+00	3.417086e-01	2.429011e+14	1.361203e+15	6.437473e+14	1.693913e+04	9.563009e+03	2.534720e+03	0	9.283750e-04
1.140000e+09	1.027968e+13	0.000000e+00	3.417086e-01	2.411534e+14	1.352985e+15	6.409542e+14	1.692164e+04	9.557040e+03	2.533138e+03	0	9.244545e-04
1.150000e+09	1.015006e+13	0.000000e+00	3.417086e-01	2.394279e+14	1.344863e+15	6.381798e+14	1.690427e+04	9.551118e+03	2.531569e+03	0	9.205525e-04
1.160000e+09	1.002213e+13	0.000000e+00	3.417086e-01	2.377241e+14	1.336837e+15	6.354239e+14	1.688703e+04	9.545242e+03	2.530011e+03	0	9.166686e-04
1.170000e+09	9.895856e+12	0.000000e+00	3.417086e-01	2.360418e+14	1.328904e+15	6.326863e+14	1.686992e+04	9.539409e+03	2.528465e+03	0	9.128023e-04
1.180000e+09	9.771206e+12	0.000000e+00	3.417086e-01	2.343804e+14	1.321063e+15	6.299670e+14	1.685292e+04	9.533621e+03	2.526931e+03	0	9.089535e-04
1.190000e+09	9.648153e+12	0.000000e+00	3.417086e-01	2.327396e+14	1.313313e+15	6.272657e+14	1.683604e+04	9.527877e+03	2.525408e+03	0	9.051218e-04
1.200000e+09	9.526669e+12	0.000000e+00	3.417086e-01	2.311191e+14	1.305650e+15	6.245823e+14	1.681928e+04	9.522174e+03	2.523897e+03	0	9.013068e-04
1.210000e+09	9.406724e+12	0.000000e+00	3.417086e-01	2.295186e+14	1.298075e+15	6.219168e+14	1.680264e+04	9.516514e+03	2.522397e+03	0	8.975082e-04
1.220000e+09	9.288293e+12	0.000000e+00	3.417086e-01	2.279375e+14	1.290585e+15	6.192689e+14	1.678611e+04	9.510896e+03	2.520907e+03	0	8.937257e-04
1.230000e+09	9.171348e+12	0.000000e+00	3.417086e-01	2.263757e+14	1.283179e+15	6.166386e+14	1.676969e+04	9.505318e+03	2.519429e+03	0	8.899590e-04
1.240000e+09	9.055863e+12	0.000000e+00	3.417086e-01	2.248327e+14	1.275856e+15	6.140256e+14	1.675339e+04	9.499781e+03	2.517961e+03	0	8.862078e-04
1.250000e+09	8.941812e+12	0.000000e+00	3.417086e-01	2.233083e+14	1.268613e+15	6.114298e+14	1.673720e+04	9.494283e+03	2.516504e+03	0	8.824717e-04
1.260000e+09	8.829170e+12	0.000000e+00	3.417086e-01	2.218022e+14	1.261451e+15	6.088512e+14	1.672112e+04	9.488824e+03	2.515057e+03	0	8.787505e-04
1.270000e+09	8.717914e+12	0.000000e+00	3.417086e-01	2.203139e+14	1.254366e+15	6.062896e+14	1.670514e+04	9.483404e+03	2.513621e+03	0	8.750438e-04
1.280000e+09	8.608018e+12	0.000000e+00	3.417086e-01	2.188433e+14	1.247359e+15	6.037448e+14	1.668928e+04	9.478022e+03	2.512194e+03	0	8.713514e-04
1.290000e+09	8.499461e+12	0.000000e+00	3.417086e-01	2.173899e+14	1.240427e+15	6.012168e+14	1.667351e+04	9.472678e+03	2.510778e+03	0	8.676730e-04
1.300000e+09	8.392218e+12	0.000000e+00	3.417086e-01	2.159536e+14	1.233570e+15	5.987053e+14	1.665786e+04	9.467370e+03	2.509371e+03	0	8.640082e-04
1.310000e+09	8.286269e+12	0.000000e+00	3.417086e-01	2.145341e+14	1.226786e+15	5.962103e+14	1.664230e+04	9.462099e+03	2.507974e+03	0	8.603569e-04
1.320000e+09	8.181590e+12	0.000000e+00	3.417086e-01	2.131310e+14	1.220074e+15	5.937317e+14	1.662685e+04	9.456864e+03	2.506586e+03	0	8.567186e-04
1.330000e+09	8.078160e+12	0.000000e+00	3.417086e-01	2.117441e+14	1.213433e+15	5.912692e+14	1.661150e+04	9.451664e+03	2.505208e+03	0	8.530931e-04
1.340000e+09	7.975959e+12	0.000000e+00	3.417086e-01	2.103731e+14	1.206861e+15	5.888228e+14	1.659625e+04	9.446499e+03	2.503839e+03	0	8.494802e-04
1.350000e+09	7.874966e+12	0.000000e+00	3.417086e-01	2.090177e+14	1.200358e+15	5.863925e+14	1.658110e+04	9.441369e+03	2.502479e+03	0	8.458796e-04
1.360000e+09	7.775162e+12	0.000000e+00	3.417086e-01	2.076778e+14	1.193923e+15	5.839779e+14	1.656604e+04	9.436273e+03	2.501128e+03	0	8.422909e-04
