#t		Qconv[W]	Ri[Rp]		R*[Rp]		Qc[W]		Qm[W]		Qr[W]		Tcmb[K]		Tl[K]		Tup[K]		RiFlag		Bs[T]
0.000000e+00	6.443966e+13	0.000000e+00	3.417085e-01	9.345554e+14	4.464910e+15	1.159291e+15	2.110170e+04	1.127632e+04	2.937118e+03	0	1.703491e-03
1.000000e+07	6.301308e+13	0.000000e+00	3.417085e-01	9.167488e+14	4.377255e+15	1.152868e+15	2.103722e+04	1.124745e+04	2.929600e+03	0	1.690826e-03
2.000000e+07	6.163432e+13	0.000000e+00	3.417085e-01	8.995323e+14	4.293074e+15	1.146492e+15	2.097395e+04	1.121935e+04	2.922281e+03	0	1.678403e-03
3.000000e+07	6.030114e+13	0.000000e+00	3.417085e-01	8.828785e+14	4.212168e+15	1.140165e+15	2.091186e+04	1.119198e+04	2.915152e+03	0	1.666213e-03
4.000000e+07	5.901144e+13	0.000000e+00	3.417085e-01	8.667613e+14	4.134348e+15	1.133884e+15	2.085091e+04	1.116531e+04	2.908206e+03	0	1.654248e-03
5.000000e+07	5.776322e+13	0.000000e+00	3.417085e-01	8.511566e+14	4.059444e+15	1.127651e+15	2.079107e+04	1.113932e+04	2.901434e+03	0	1.642502e-03
6.000000e+07	5.655463e+13	0.000000e+00	3.417085e-01	8.360413e+14	3.987295e+15	1.121464e+15	2.073230e+04	1.111396e+04	2.894829e+03	0	1.630965e-03
7.000000e+07	5.538390e+13	0.000000e+00	3.417085e-01	8.213937e+14	3.917752e+15	1.115323e+15	2.067457e+04	1.108921e+04	2.888384e+03	0	1.619633e-03
8.000000e+07	5.424937e+13	0.000000e+00	3.417085e-01	8.071935e+14	3.850676e+15	1.109227e+15	2.061785e+04	1.106506e+04	2.882093e+03	0	1.608497e-03
9.000000e+07	5.314948e+13	0.000000e+00	3.417085e-01	7.934214e+14	3.785940e+15	1.103177e+15	2.056210e+04	1.104147e+04	2.875949e+03	0	1.597552e-03
1.000000e+08	5.208274e+13	0.000000e+00	3.417085e-01	7.800591e+14	3.723423e+15	1.097172e+15	2.050729e+04	1.101843e+04	2.869947e+03	0	1.586792e-03
1.100000e+08	5.104775e+13	0.000000e+00	3.417085e-01	7.670895e+14	3.663012e+15	1.091212e+15	2.045340e+04	1.099591e+04	2.864080e+03	0	1.576210e-03
1.200000e+08	5.004319e+13	0.000000e+00	3.417085e-01	7.544962e+14	3.604603e+15	1.085295e+15	2.040041e+04	1.097389e+04	2.858345e+03	0	1.565803e-03
1.300000e+08	4.906780e+13	0.000000e+00	3.417085e-01	7.422638e+14	3.548098e+15	1.079423e+15	2.034827e+04	1.095235e+04	2.852735e+03	0	1.555563e-03
1.400000e+08	4.812041e+13	0.000000e+00	3.417085e-01	7.303778e+14	3.493405e+15	1.073594e+15	2.029698e+04	1.093128e+04	2.847246e+03	0	1.545486e-03
1.500000e+08	4.719987e+13	0.000000e+00	3.417085e-01	7.188241e+14	3.440437e+15	1.067808e+15	2.024651e+04	1.091065e+04	2.841874e+03	0	1.535568e-03
1.600000e+08	4.630513e+13	0.000000e+00	3.417085e-01	7.075898e+14	3.389114e+15	1.062064e+15	2.019683e+04	1.089046e+04	2.836615e+03	0	1.525803e-03
1.700000e+08	4.543516e+13	0.000000e+00	3.417085e-01	6.966623e+14	3.339359e+15	1.056364e+15	2.014792e+04	1.087068e+04	2.831464e+03	0	1.516187e-03
1.800000e+08	4.458902e+13	0.000000e+00	3.417085e-01	6.860297e+14	3.291103e+15	1.050705e+15	2.009977e+04	1.085131e+04	2.826417e+03	0	1.506716e-03
1.900000e+08	4.376578e+13	0.000000e+00	3.417085e-01	6.756808e+14	3.244277e+15	1.045088e+15	2.005234e+04	1.083232e+04	2.821471e+03	0	1.497385e-03
2.000000e+08	4.296457e+13	0.000000e+00	3.417085e-01	6.656049e+14	3.198818e+15	1.039512e+15	2.000563e+04	1.081371e+04	2.816623e+03	0	1.488191e-03
2.100000e+08	4.218456e+13	0.000000e+00	3.417085e-01	6.557918e+14	3.154666e+15	1.033977e+15	1.995961e+04	1.079546e+04	2.811869e+03	0	1.479131e-03
2.200000e+08	4.142497e+13	0.000000e+00	3.417085e-01	6.462318e+14	3.111766e+15	1.028483e+15	1.991426e+04	1.077755e+04	2.807207e+03	0	1.470199e-03
2.300000e+08	4.068505e+13	0.000000e+00	3.417085e-01	6.369156e+14	3.070064e+15	1.023029e+15	1.986957e+04	1.075999e+04	2.802632e+03	0	1.461393e-03
2.400000e+08	3.996409e+13	0.000000e+00	3.417085e-01	6.278344e+14	3.029510e+15	1.017615e+15	1.982553e+04	1.074275e+04	2.798142e+03	0	1.452709e-03
2.500000e+08	3.926139e+13	0.000000e+00	3.417085e-01	6.189799e+14	2.990057e+15	1.012241e+15	1.978211e+04	1.072583e+04	2.793735e+03	0	1.444144e-03
2.600000e+08	3.857632e+13	0.000000e+00	3.417085e-01	6.103439e+14	2.951659e+15	1.006906e+15	1.973929e+04	1.070922e+04	2.789407e+03	0	1.435695e-03
2.700000e+08	3.790824e+13	0.000000e+00	3.417085e-01	6.019190e+14	2.914275e+15	1.001610e+15	1.969708e+04	1.069290e+04	2.785157e+03	0	1.427359e-03
2.800000e+08	3.725658e+13	0.000000e+00	3.417085e-01	5.936976e+14	2.877865e+15	9.963527e+14	1.965544e+04	1.067687e+04	2.780981e+03	0	1.419133e-03
2.900000e+08	3.662075e+13	0.000000e+00	3.417085e-01	5.856730e+14	2.842389e+15	9.911339e+14	1.961437e+04	1.066112e+04	2.776879e+03	0	1.411013e-03
3.000000e+08	3.600023e+13	0.000000e+00	3.417085e-01	5.778383e+14	2.807812e+15	9.859531e+14	1.957385e+04	1.064564e+04	2.772846e+03	0	1.402998e-03
3.100000e+08	3.539449e+13	0.000000e+00	3.417085e-01	5.701873e+14	2.774099e+15	9.808100e+14	1.953387e+04	1.063042e+04	2.768882e+03	0	1.395085e-03
3.200000e+08	3.480305e+13	0.000000e+00	3.417085e-01	5.627138e+14	2.741219e+15	9.757044e+14	1.949442e+04	1.061545e+04	2.764984e+03	0	1.387270e-03
3.300000e+08	3.422541e+13	0.000000e+00	3.417085e-01	5.554119e+14	2.709139e+15	9.706358e+14	1.945548e+04	1.060073e+04	2.761150e+03	0	1.379552e-03
3.400000e+08	3.366114e+13	0.000000e+00	3.417085e-01	5.482761e+14	2.677830e+15	9.656041e+14	1.941704e+04	1.058625e+04	2.757379e+03	0	1.371929e-03
3.500000e+08	3.310980e+13	0.000000e+00	3.417085e-01	5.413010e+14	2.647264e+15	9.606089e+14	1.937910e+04	1.057201e+04	2.753668e+03	0	1.364397e-03
3.600000e+08	3.257097e+13	0.000000e+00	3.417085e-01	5.344815e+14	2.617415e+15	9.556500e+14	1.934164e+04	1.055799e+04	2.750016e+03	0	1.356955e-03
3.700000e+08	3.204425e+13	0.000000e+00	3.417085e-01	5.278126e+14	2.588257e+15	9.507269e+14	1.930465e+04	1.054419e+04	2.746422e+03	0	1.349601e-03
3.800000e+08	3.152927e+13	0.000000e+00	3.417085e-01	5.212896e+14	2.559766e+15	9.458394e+14	1.926811e+04	1.053060e+04	2.742883e+03	0	1.342332e-03
3.900000e+08	3.102564e+13	0.000000e+00	3.417085e-01	5.149080e+14	2.531918e+15	9.409873e+14	1.923203e+04	1.051722e+04	2.739398e+03	0	1.335147e-03
4.000000e+08	3.053303e+13	0.000000e+00	3.417085e-01	5.086634e+14	2.504691e+15	9.361702e+14	1.919639e+04	1.050404e+04	2.735966e+03	0	1.328043e-03
4.100000e+08	3.005109e+13	0.000000e+00	3.417085e-01	5.025517e+14	2.478065e+15	9.313879e+14	1.916117e+04	1.049106e+04	2.732585e+03	0	1.321018e-03
4.200000e+08	2.957950e+13	0.000000e+00	3.417085e-01	4.965688e+14	2.452019e+15	9.266400e+14	1.912638e+04	1.047828e+04	2.729254e+03	0	1.314071e-03
4.300000e+08	2.911795e+13	0.000000e+00	3.417085e-01	4.907109e+14	2.426533e+15	9.219264e+14	1.909200e+04	1.046567e+04	2.725972e+03	0	1.307201e-03
4.400000e+08	2.866612e+13	0.000000e+00	3.417085e-01	4.849742e+14	2.401590e+15	9.172466e+14	1.905803e+04	1.045325e+04	2.722737e+03	0	1.300404e-03
4.500000e+08	2.822375e+13	0.000000e+00	3.417085e-01	4.793553e+14	2.377172e+15	9.126005e+14	1.902445e+04	1.044101e+04	2.719548e+03	0	1.293680e-03
4.600000e+08	2.779055e+13	0.000000e+00	3.417085e-01	4.738505e+14	2.353262e+15	9.079877e+14	1.899126e+04	1.042894e+04	2.716403e+03	0	1.287027e-03
4.700000e+08	2.736624e+13	0.000000e+00	3.417085e-01	4.684568e+14	2.329844e+15	9.034080e+14	1.895844e+04	1.041704e+04	2.713303e+03	0	1.280443e-03
4.800000e+08	2.695058e+13	0.000000e+00	3.417085e-01	4.631708e+14	2.306901e+15	8.988611e+14	1.892600e+04	1.040530e+04	2.710245e+03	0	1.273928e-03
4.900000e+08	2.654332e+13	0.000000e+00	3.417085e-01	4.579895e+14	2.284420e+15	8.943468e+14	1.889393e+04	1.039372e+04	2.707229e+03	0	1.267478e-03
5.000000e+08	2.614422e+13	0.000000e+00	3.417085e-01	4.529099e+14	2.262387e+15	8.898647e+14	1.886221e+04	1.038229e+04	2.704254e+03	0	1.261093e-03
5.100000e+08	2.575305e+13	0.000000e+00	3.417085e-01	4.479293e+14	2.240787e+15	8.854147e+14	1.883084e+04	1.037102e+04	2.701318e+03	0	1.254772e-03
5.200000e+08	2.536958e+13	0.000000e+00	3.417085e-01	4.430449e+14	2.219607e+15	8.809964e+14	1.879982e+04	1.035990e+04	2.698420e+03	0	1.248513e-03
5.300000e+08	2.499361e+13	0.000000e+00	3.417085e-01	4.382540e+14	2.198836e+15	8.766097e+14	1.876913e+04	1.034892e+04	2.695561e+03	0	1.242315e-03
5.400000e+08	2.462493e+13	0.000000e+00	3.417085e-01	4.335540e+14	2.178460e+15	8.722541e+14	1.873877e+04	1.033808e+04	2.692738e+03	0	1.236176e-03
5.500000e+08	2.426334e+13	0.000000e+00	3.417085e-01	4.289426e+14	2.158468e+15	8.679296e+14	1.870874e+04	1.032738e+04	2.689951e+03	0	1.230096e-03
5.600000e+08	2.390864e+13	0.000000e+00	3.417085e-01	4.244174e+14	2.138850e+15	8.636358e+14	1.867903e+04	1.031682e+04	2.687199e+03	0	1.224072e-03
5.700000e+08	2.356066e+13	0.000000e+00	3.417085e-01	4.199760e+14	2.119594e+15	8.593726e+14	1.864963e+04	1.030638e+04	2.684482e+03	0	1.218104e-03
5.800000e+08	2.321922e+13	0.000000e+00	3.417085e-01	4.156162e+14	2.100690e+15	8.551395e+14	1.862053e+04	1.029608e+04	2.681798e+03	0	1.212191e-03
5.900000e+08	2.288413e+13	0.000000e+00	3.417085e-01	4.113360e+14	2.082128e+15	8.509365e+14	1.859174e+04	1.028590e+04	2.679147e+03	0	1.206332e-03
6.000000e+08	2.255524e+13	0.000000e+00	3.417085e-01	4.071332e+14	2.063899e+15	8.467632e+14	1.856324e+04	1.027584e+04	2.676527e+03	0	1.200525e-03
6.100000e+08	2.223239e+13	0.000000e+00	3.417085e-01	4.030058e+14	2.045993e+15	8.426194e+14	1.853503e+04	1.026591e+04	2.673939e+03	0	1.194769e-03
6.200000e+08	2.191541e+13	0.000000e+00	3.417085e-01	3.989520e+14	2.028402e+15	8.385050e+14	1.850711e+04	1.025609e+04	2.671382e+03	0	1.189064e-03
6.300000e+08	2.160417e+13	0.000000e+00	3.417085e-01	3.949698e+14	2.011116e+15	8.344195e+14	1.847946e+04	1.024639e+04	2.668855e+03	0	1.183408e-03
6.400000e+08	2.129850e+13	0.000000e+00	3.417085e-01	3.910575e+14	1.994129e+15	8.303629e+14	1.845209e+04	1.023680e+04	2.666357e+03	0	1.177800e-03
6.500000e+08	2.099828e+13	0.000000e+00	3.417085e-01	3.872133e+14	1.977431e+15	8.263348e+14	1.842500e+04	1.022732e+04	2.663887e+03	0	1.172240e-03
6.600000e+08	2.070336e+13	0.000000e+00	3.417085e-01	3.834354e+14	1.961016e+15	8.223351e+14	1.839816e+04	1.021794e+04	2.661446e+03	0	1.166726e-03
6.700000e+08	2.041362e+13	0.000000e+00	3.417085e-01	3.797224e+14	1.944876e+15	8.183636e+14	1.837159e+04	1.020868e+04	2.659032e+03	0	1.161258e-03
6.800000e+08	2.012893e+13	0.000000e+00	3.417085e-01	3.760726e+14	1.929003e+15	8.144199e+14	1.834527e+04	1.019951e+04	2.656645e+03	0	1.155834e-03
6.900000e+08	1.984916e+13	0.000000e+00	3.417085e-01	3.724844e+14	1.913391e+15	8.105038e+14	1.831921e+04	1.019045e+04	2.654285e+03	0	1.150454e-03
7.000000e+08	1.957419e+13	0.000000e+00	3.417085e-01	3.689564e+14	1.898034e+15	8.066153e+14	1.829340e+04	1.018149e+04	2.651950e+03	0	1.145117e-03
7.100000e+08	1.930391e+13	0.000000e+00	3.417085e-01	3.654872e+14	1.882924e+15	8.027539e+14	1.826782e+04	1.017262e+04	2.649640e+03	0	1.139822e-03
7.200000e+08	1.903821e+13	0.000000e+00	3.417085e-01	3.620752e+14	1.868056e+15	7.989196e+14	1.824249e+04	1.016385e+04	2.647355e+03	0	1.134568e-03
7.300000e+08	1.877697e+13	0.000000e+00	3.417085e-01	3.587193e+14	1.853424e+15	7.951120e+14	1.821739e+04	1.015517e+04	2.645095e+03	0	1.129355e-03
7.400000e+08	1.852009e+13	0.000000e+00	3.417085e-01	3.554181e+14	1.839021e+15	7.913311e+14	1.819253e+04	1.014658e+04	2.642858e+03	0	1.124181e-03
7.500000e+08	1.826747e+13	0.000000e+00	3.417085e-01	3.521703e+14	1.824843e+15	7.875764e+14	1.816789e+04	1.013808e+04	2.640644e+03	0	1.119047e-03
7.600000e+08	1.801902e+13	0.000000e+00	3.417085e-01	3.489747e+14	1.810884e+15	7.838480e+14	1.814348e+04	1.012967e+04	2.638453e+03	0	1.113950e-03
7.700000e+08	1.777462e+13	0.000000e+00	3.417085e-01	3.458300e+14	1.797138e+15	7.801455e+14	1.811929e+04	1.012134e+04	2.636285e+03	0	1.108891e-03
7.800000e+08	1.753420e+13	0.000000e+00	3.417085e-01	3.427352e+14	1.783601e+15	7.764687e+14	1.809532e+04	1.011310e+04	2.634139e+03	0	1.103868e-03
7.900000e+08	1.729765e+13	0.000000e+00	3.417085e-01	3.396891e+14	1.770267e+15	7.728174e+14	1.807156e+04	1.010495e+04	2.632014e+03	0	1.098882e-03
8.000000e+08	1.706490e+13	0.000000e+00	3.417085e-01	3.366906e+14	1.757132e+15	7.691915e+14	1.804801e+04	1.009687e+04	2.629910e+03	0	1.093931e-03
8.100000e+08	1.683585e+13	0.000000e+00	3.417085e-01	3.337386e+14	1.744192e+15	7.655907e+14	1.802466e+04	1.008887e+04	2.627827e+03	0	1.089015e-03
8.200000e+08	1.661043e+13	0.000000e+00	3.417085e-01	3.308322e+14	1.731442e+15	7.620148e+14	1.800153e+04	1.008095e+04	2.625764e+03	0	1.084132e-03
8.300000e+08	1.638855e+13	0.000000e+00	3.417085e-01	3.279702e+14	1.718877e+15	7.584637e+14	1.797859e+04	1.007311e+04	2.623721e+03	0	1.079283e-03
8.400000e+08	1.617013e+13	0.000000e+00	3.417085e-01	3.251518e+14	1.706493e+15	7.549370e+14	1.795585e+04	1.006534e+04	2.621698e+03	0	1.074467e-03
8.500000e+08	1.595510e+13	0.000000e+00	3.417085e-01	3.223760e+14	1.694286e+15	7.514348e+14	1.793330e+04	1.005765e+04	2.619694e+03	0	1.069683e-03
8.600000e+08	1.574339e+13	0.000000e+00	3.417085e-01	3.196419e+14	1.682253e+15	7.479566e+14	1.791095e+04	1.005003e+04	2.617709e+03	0	1.064931e-03
8.700000e+08	1.553492e+13	0.000000e+00	3.417085e-01	3.169486e+14	1.670390e+15	7.445024e+14	1.788879e+04	1.004248e+04	2.615742e+03	0	1.060210e-03
8.800000e+08	1.532963e+13	0.000000e+00	3.417085e-01	3.142952e+14	1.658692e+15	7.410719e+14	1.786681e+04	1.003500e+04	2.613794e+03	0	1.055519e-03
8.900000e+08	1.512744e+13	0.000000e+00	3.417085e-01	3.116808e+14	1.647156e+15	7.376651e+14	1.784501e+04	1.002758e+04	2.611863e+03	0	1.050857e-03
9.000000e+08	1.492829e+13	0.000000e+00	3.417085e-01	3.091048e+14	1.635779e+15	7.342816e+14	1.782340e+04	1.002024e+04	2.609951e+03	0	1.046226e-03
9.100000e+08	1.473211e+13	0.000000e+00	3.417085e-01	3.065661e+14	1.624558e+15	7.309213e+14	1.780197e+04	1.001296e+04	2.608055e+03	0	1.041623e-03
9.200000e+08	1.453885e+13	0.000000e+00	3.417085e-01	3.040642e+14	1.613488e+15	7.275840e+14	1.778071e+04	1.000575e+04	2.606176e+03	0	1.037048e-03
9.300000e+08	1.434844e+13	0.000000e+00	3.417085e-01	3.015981e+14	1.602567e+15	7.242695e+14	1.775962e+04	9.998600e+03	2.604314e+03	0	1.032501e-03
9.400000e+08	1.416083e+13	0.000000e+00	3.417085e-01	2.991673e+14	1.591792e+15	7.209777e+14	1.773870e+04	9.991514e+03	2.602468e+03	0	1.027981e-03
9.500000e+08	1.397595e+13	0.000000e+00	3.417085e-01	2.967709e+14	1.581160e+15	7.177083e+14	1.771795e+04	9.984490e+03	2.600639e+03	0	1.023487e-03
9.600000e+08	1.379375e+13	0.000000e+00	3.417085e-01	2.944083e+14	1.570668e+15	7.144613e+14	1.769737e+04	9.977526e+03	2.598825e+03	0	1.019020e-03
9.700000e+08	1.361418e+13	0.000000e+00	3.417085e-01	2.920788e+14	1.560312e+15	7.112364e+14	1.767695e+04	9.970622e+03	2.597027e+03	0	1.014579e-03
9.800000e+08	1.343718e+13	0.000000e+00	3.417085e-01	2.897817e+14	1.550091e+15	7.080334e+14	1.765670e+04	9.963777e+03	2.595244e+03	0	1.010163e-03
9.900000e+08	1.326270e+13	0.000000e+00	3.417085e-01	2.875164e+14	1.540001e+15	7.048522e+14	1.763660e+04	9.956990e+03	2.593476e+03	0	1.005771e-03
1.000000e+09	1.309069e+13	0.000000e+00	3.417085e-01	2.852823e+14	1.530040e+15	7.016925e+14	1.761665e+04	9.950259e+03	2.591723e+03	0	1.001404e-03
1.010000e+09	1.292110e+13	0.000000e+00	3.417085e-01	2.830787e+14	1.520205e+15	6.985543e+14	1.759687e+04	9.943585e+03	2.589984e+03	0	9.970612e-04
1.020000e+09	1.275388e+13	0.000000e+00	3.417085e-01	2.809050e+14	1.510494e+15	6.954374e+14	1.757723e+04	9.936965e+03	2.588260e+03	0	9.927414e-04
1.030000e+09	1.258899e+13	0.000000e+00	3.417085e-01	2.787607e+14	1.500904e+15	6.923415e+14	1.755775e+04	9.930399e+03	2.586550e+03	0	9.884446e-04
1.040000e+09	1.242639e+13	0.000000e+00	3.417085e-01	2.766452e+14	1.491433e+15	6.892666e+14	1.753841e+04	9.923887e+03	2.584854e+03	0	9.841704e-04
1.050000e+09	1.226602e+13	0.000000e+00	3.417085e-01	2.745580e+14	1.482079e+15	6.862125e+14	1.751922e+04	9.917427e+03	2.583171e+03	0	9.799183e-04
1.060000e+09	1.210784e+13	0.000000e+00	3.417085e-01	2.724985e+14	1.472840e+15	6.831789e+14	1.750017e+04	9.911018e+03	2.581502e+03	0	9.756879e-04
1.070000e+09	1.195182e+13	0.000000e+00	3.417085e-01	2.704662e+14	1.463713e+15	6.801658e+14	1.748127e+04	9.904661e+03	2.579846e+03	0	9.714788e-04
1.080000e+09	1.179791e+13	0.000000e+00	3.417085e-01	2.684605e+14	1.454696e+15	6.771729e+14	1.746251e+04	9.898353e+03	2.578203e+03	0	9.672907e-04
1.090000e+09	1.164607e+13	0.000000e+00	3.417085e-01	2.664810e+14	1.445787e+15	6.742002e+14	1.744388e+04	9.892095e+03	2.576573e+03	0	9.631230e-04
1.100000e+09	1.149626e+13	0.000000e+00	3.417085e-01	2.645272e+14	1.436985e+15	6.712474e+14	1.742540e+04	9.885884e+03	2.574955e+03	0	9.589755e-04
1.110000e+09	1.134844e+13	0.000000e+00	3.417085e-01	2.625987e+14	1.428287e+15	6.683145e+14	1.740704e+04	9.879722e+03	2.573350e+03	0	9.548476e-04
1.120000e+09	1.120258e+13	0.000000e+00	3.417085e-01	2.606948e+14	1.419691e+15	6.654012e+14	1.738883e+04	9.873607e+03	2.571757e+03	0	9.507392e-04
1.130000e+09	1.105865e+13	0.000000e+00	3.417085e-01	2.588153e+14	1.411195e+15	6.625074e+14	1.737074e+04	9.867537e+03	2.570176e+03	0	9.466497e-04
1.140000e+09	1.091659e+13	0.000000e+00	3.417085e-01	2.569596e+14	1.402798e+15	6.596329e+14	1.735278e+04	9.861514e+03	2.568608e+03	0	9.425789e-04
1.150000e+09	1.077639e+13	0.000000e+00	3.417085e-01	2.551273e+14	1.394498e+15	6.567776e+14	1.733495e+04	9.855535e+03	2.567050e+03	0	9.385263e-04
1.160000e+09	1.063800e+13	0.000000e+00	3.417085e-01	2.533180e+14	1.386293e+15	6.539414e+14	1.731725e+04	9.849601e+03	2.565505e+03	0	9.344916e-04
1.170000e+09	1.050140e+13	0.000000e+00	3.417085e-01	2.515313e+14	1.378181e+15	6.511240e+14	1.729968e+04	9.843710e+03	2.563970e+03	0	9.304744e-04
1.180000e+09	1.036655e+13	0.000000e+00	3.417085e-01	2.497668e+14	1.370161e+15	6.483254e+14	1.728222e+04	9.837862e+03	2.562447e+03	0	9.264744e-04
1.190000e+09	1.023342e+13	0.000000e+00	3.417085e-01	2.480241e+14	1.362232e+15	6.455454e+14	1.726489e+04	9.832056e+03	2.560935e+03	0	9.224913e-04
1.200000e+09	1.010198e+13	0.000000e+00	3.417085e-01	2.463027e+14	1.354391e+15	6.427839e+14	1.724768e+04	9.826292e+03	2.559433e+03	0	9.185247e-04
1.210000e+09	9.972198e+12	0.000000e+00	3.417085e-01	2.446025e+14	1.346637e+15	6.400407e+14	1.723059e+04	9.820570e+03	2.557943e+03	0	9.145742e-04
1.220000e+09	9.844046e+12	0.000000e+00	3.417085e-01	2.429228e+14	1.338968e+15	6.373156e+14	1.721362e+04	9.814887e+03	2.556463e+03	0	9.106396e-04
1.230000e+09	9.717495e+12	0.000000e+00	3.417085e-01	2.412635e+14	1.331384e+15	6.346086e+14	1.719676e+04	9.809245e+03	2.554993e+03	0	9.067205e-04
1.240000e+09	9.592518e+12	0.000000e+00	3.417085e-01	2.396241e+14	1.323883e+15	6.319195e+14	1.718002e+04	9.803642e+03	2.553534e+03	0	9.028166e-04
1.250000e+09	9.469087e+12	0.000000e+00	3.417085e-01	2.380043e+14	1.316463e+15	6.292481e+14	1.716339e+04	9.798078e+03	2.552085e+03	0	8.989276e-04
1.260000e+09	9.347176e+12	0.000000e+00	3.417085e-01	2.364038e+14	1.309122e+15	6.265943e+14	1.714688e+04	9.792553e+03	2.550645e+03	0	8.950531e-04
1.270000e+09	9.226757e+12	0.000000e+00	3.417085e-01	2.348223e+14	1.301861e+15	6.239581e+14	1.713047e+04	9.787065e+03	2.549216e+03	0	8.911929e-04
1.280000e+09	9.107806e+12	0.000000e+00	3.417085e-01	2.332594e+14	1.294677e+15	6.213391e+14	1.711418e+04	9.781615e+03	2.547796e+03	0	8.873465e-04
1.290000e+09	8.990298e+12	0.000000e+00	3.417085e-01	2.317148e+14	1.287569e+15	6.187374e+14	1.709799e+04	9.776201e+03	2.546386e+03	0	8.835138e-04
1.300000e+09	8.874207e+12	0.000000e+00	3.417085e-01	2.301882e+14	1.280535e+15	6.161528e+14	1.708191e+04	9.770823e+03	2.544986e+03	0	8.796945e-04
1.310000e+09	8.759511e+12	0.000000e+00	3.417085e-01	2.286793e+14	1.273576e+15	6.135850e+14	1.706593e+04	9.765482e+03	2.543594e+03	0	8.758881e-04
1.320000e+09	8.646185e+12	0.000000e+00	3.417085e-01	2.271878e+14	1.266689e+15	6.110342e+14	1.705006e+04	9.760176e+03	2.542212e+03	0	8.720944e-04
1.330000e+09	8.534208e+12	0.000000e+00	3.417085e-01	2.257134e+14	1.259873e+15	6.084999e+14	1.703430e+04	9.754904e+03	2.540839e+03	0	8.683132e-04
1.340000e+09	8.423555e+12	0.000000e+00	3.417085e-01	2.242559e+14	1.253127e+15	6.059823e+14	1.701863e+04	9.749667e+03	2.539475e+03	0	8.645441e-04
1.350000e+09	8.314206e+12	0.000000e+00	3.417085e-01	2.228150e+14	1.246450e+15	6.034811e+14	1.700307e+04	9.744464e+03	2.538120e+03	0	8.607868e-04
1.360000e+09	8.206140e+12	0.000000e+00	3.417085e-01	2.213903e+14	1.239842e+15	6.009962e+14	1.698760e+04	9.739295e+03	2.536773e+03	0	8.570411e-04
