#t		Qconv[W]	Ri[Rp]		R*[Rp]		Qc[W]		Qm[W]		Qr[W]		Tcmb[K]		Tl[K]		Tup[K]		RiFlag		Bs[T]
0.000000e+00	1.057587e+14	0.000000e+00	3.417085e-01	1.402408e+15	3.694355e+15	1.488715e+15	2.612993e+04	1.383478e+04	3.082502e+03	0	1.999295e-03
1.000000e+07	1.037115e+14	0.000000e+00	3.417085e-01	1.380725e+15	3.667190e+15	1.480466e+15	2.606002e+04	1.382669e+04	3.080699e+03	0	1.986311e-03
2.000000e+07	1.017183e+14	0.000000e+00	3.417085e-01	1.359603e+15	3.640295e+15	1.472279e+15	2.599117e+04	1.381857e+04	3.078890e+03	0	1.973504e-03
3.000000e+07	9.977711e+13	0.000000e+00	3.417085e-01	1.339023e+15	3.613669e+15	1.464153e+15	2.592338e+04	1.381043e+04	3.077075e+03	0	1.960869e-03
4.000000e+07	9.788611e+13	0.000000e+00	3.417085e-01	1.318966e+15	3.587312e+15	1.456088e+15	2.585661e+04	1.380226e+04	3.075256e+03	0	1.948402e-03
5.000000e+07	9.604352e+13	0.000000e+00	3.417085e-01	1.299413e+15	3.561222e+15	1.448084e+15	2.579083e+04	1.379408e+04	3.073433e+03	0	1.936099e-03
6.000000e+07	9.424762e+13	0.000000e+00	3.417085e-01	1.280347e+15	3.535399e+15	1.440138e+15	2.572602e+04	1.378588e+04	3.071606e+03	0	1.923956e-03
7.000000e+07	9.249682e+13	0.000000e+00	3.417085e-01	1.261752e+15	3.509842e+15	1.432252e+15	2.566216e+04	1.377767e+04	3.069777e+03	0	1.911968e-03
8.000000e+07	9.078956e+13	0.000000e+00	3.417085e-01	1.243610e+15	3.484548e+15	1.424425e+15	2.559922e+04	1.376945e+04	3.067945e+03	0	1.900131e-03
9.000000e+07	8.912435e+13	0.000000e+00	3.417085e-01	1.225908e+15	3.459518e+15	1.416656e+15	2.553718e+04	1.376122e+04	3.066112e+03	0	1.888442e-03
1.000000e+08	8.749979e+13	0.000000e+00	3.417085e-01	1.208629e+15	3.434749e+15	1.408944e+15	2.547602e+04	1.375299e+04	3.064278e+03	0	1.876898e-03
1.100000e+08	8.591450e+13	0.000000e+00	3.417085e-01	1.191760e+15	3.410239e+15	1.401290e+15	2.541571e+04	1.374476e+04	3.062444e+03	0	1.865494e-03
1.200000e+08	8.436721e+13	0.000000e+00	3.417085e-01	1.175288e+15	3.385986e+15	1.393692e+15	2.535625e+04	1.373653e+04	3.060609e+03	0	1.854227e-03
1.300000e+08	8.285665e+13	0.000000e+00	3.417085e-01	1.159200e+15	3.361989e+15	1.386151e+15	2.529760e+04	1.372829e+04	3.058775e+03	0	1.843094e-03
1.400000e+08	8.138163e+13	0.000000e+00	3.417085e-01	1.143483e+15	3.338245e+15	1.378666e+15	2.523975e+04	1.372006e+04	3.056941e+03	0	1.832091e-03
1.500000e+08	7.994102e+13	0.000000e+00	3.417085e-01	1.128125e+15	3.314753e+15	1.371235e+15	2.518268e+04	1.371184e+04	3.055109e+03	0	1.821216e-03
1.600000e+08	7.853370e+13	0.000000e+00	3.417085e-01	1.113115e+15	3.291509e+15	1.363860e+15	2.512638e+04	1.370362e+04	3.053278e+03	0	1.810466e-03
1.700000e+08	7.715863e+13	0.000000e+00	3.417085e-01	1.098443e+15	3.268512e+15	1.356539e+15	2.507082e+04	1.369541e+04	3.051449e+03	0	1.799837e-03
1.800000e+08	7.581479e+13	0.000000e+00	3.417085e-01	1.084097e+15	3.245759e+15	1.349272e+15	2.501599e+04	1.368722e+04	3.049622e+03	0	1.789327e-03
1.900000e+08	7.450122e+13	0.000000e+00	3.417085e-01	1.070067e+15	3.223248e+15	1.342059e+15	2.496187e+04	1.367903e+04	3.047798e+03	0	1.778932e-03
2.000000e+08	7.321697e+13	0.000000e+00	3.417085e-01	1.056345e+15	3.200977e+15	1.334899e+15	2.490845e+04	1.367085e+04	3.045977e+03	0	1.768651e-03
2.100000e+08	7.196115e+13	0.000000e+00	3.417085e-01	1.042920e+15	3.178942e+15	1.327791e+15	2.485572e+04	1.366269e+04	3.044158e+03	0	1.758481e-03
2.200000e+08	7.073291e+13	0.000000e+00	3.417085e-01	1.029783e+15	3.157142e+15	1.320736e+15	2.480364e+04	1.365455e+04	3.042343e+03	0	1.748419e-03
2.300000e+08	6.953140e+13	0.000000e+00	3.417085e-01	1.016927e+15	3.135574e+15	1.313732e+15	2.475223e+04	1.364642e+04	3.040532e+03	0	1.738462e-03
2.400000e+08	6.835583e+13	0.000000e+00	3.417085e-01	1.004342e+15	3.114236e+15	1.306780e+15	2.470145e+04	1.363830e+04	3.038724e+03	0	1.728609e-03
2.500000e+08	6.720543e+13	0.000000e+00	3.417085e-01	9.920204e+14	3.093124e+15	1.299879e+15	2.465129e+04	1.363021e+04	3.036920e+03	0	1.718857e-03
2.600000e+08	6.607947e+13	0.000000e+00	3.417085e-01	9.799552e+14	3.072237e+15	1.293028e+15	2.460175e+04	1.362213e+04	3.035121e+03	0	1.709204e-03
2.700000e+08	6.497723e+13	0.000000e+00	3.417085e-01	9.681386e+14	3.051571e+15	1.286227e+15	2.455281e+04	1.361407e+04	3.033326e+03	0	1.699647e-03
2.800000e+08	6.389803e+13	0.000000e+00	3.417085e-01	9.565636e+14	3.031125e+15	1.279476e+15	2.450446e+04	1.360604e+04	3.031535e+03	0	1.690184e-03
2.900000e+08	6.284120e+13	0.000000e+00	3.417085e-01	9.452232e+14	3.010895e+15	1.272774e+15	2.445668e+04	1.359802e+04	3.029749e+03	0	1.680814e-03
3.000000e+08	6.180612e+13	0.000000e+00	3.417085e-01	9.341108e+14	2.990879e+15	1.266121e+15	2.440947e+04	1.359003e+04	3.027968e+03	0	1.671535e-03
3.100000e+08	6.079216e+13	0.000000e+00	3.417085e-01	9.232201e+14	2.971075e+15	1.259517e+15	2.436281e+04	1.358206e+04	3.026192e+03	0	1.662344e-03
3.200000e+08	5.979874e+13	0.000000e+00	3.417085e-01	9.125449e+14	2.951479e+15	1.252960e+15	2.431669e+04	1.357411e+04	3.024421e+03	0	1.653239e-03
3.300000e+08	5.882528e+13	0.000000e+00	3.417085e-01	9.020793e+14	2.932090e+15	1.246451e+15	2.427111e+04	1.356618e+04	3.022656e+03	0	1.644219e-03
3.400000e+08	5.787123e+13	0.000000e+00	3.417085e-01	8.918176e+14	2.912905e+15	1.239990e+15	2.422604e+04	1.355828e+04	3.020895e+03	0	1.635281e-03
3.500000e+08	5.693607e+13	0.000000e+00	3.417085e-01	8.817541e+14	2.893921e+15	1.233575e+15	2.418148e+04	1.355041e+04	3.019140e+03	0	1.626425e-03
3.600000e+08	5.601927e+13	0.000000e+00	3.417085e-01	8.718837e+14	2.875136e+15	1.227207e+15	2.413743e+04	1.354256e+04	3.017391e+03	0	1.617648e-03
3.700000e+08	5.512036e+13	0.000000e+00	3.417085e-01	8.622010e+14	2.856547e+15	1.220885e+15	2.409386e+04	1.353473e+04	3.015648e+03	0	1.608949e-03
3.800000e+08	5.423883e+13	0.000000e+00	3.417085e-01	8.527013e+14	2.838153e+15	1.214609e+15	2.405078e+04	1.352693e+04	3.013910e+03	0	1.600326e-03
3.900000e+08	5.337424e+13	0.000000e+00	3.417085e-01	8.433796e+14	2.819949e+15	1.208378e+15	2.400817e+04	1.351916e+04	3.012178e+03	0	1.591777e-03
4.000000e+08	5.252614e+13	0.000000e+00	3.417085e-01	8.342312e+14	2.801935e+15	1.202192e+15	2.396603e+04	1.351141e+04	3.010452e+03	0	1.583301e-03
4.100000e+08	5.169410e+13	0.000000e+00	3.417085e-01	8.252518e+14	2.784107e+15	1.196051e+15	2.392434e+04	1.350369e+04	3.008732e+03	0	1.574896e-03
4.200000e+08	5.087769e+13	0.000000e+00	3.417085e-01	8.164369e+14	2.766464e+15	1.189954e+15	2.388309e+04	1.349600e+04	3.007018e+03	0	1.566561e-03
4.300000e+08	5.007652e+13	0.000000e+00	3.417085e-01	8.077824e+14	2.749003e+15	1.183901e+15	2.384229e+04	1.348833e+04	3.005310e+03	0	1.558295e-03
4.400000e+08	4.929019e+13	0.000000e+00	3.417085e-01	7.992842e+14	2.731721e+15	1.177891e+15	2.380192e+04	1.348069e+04	3.003608e+03	0	1.550095e-03
4.500000e+08	4.851833e+13	0.000000e+00	3.417085e-01	7.909383e+14	2.714616e+15	1.171925e+15	2.376197e+04	1.347308e+04	3.001912e+03	0	1.541962e-03
4.600000e+08	4.776057e+13	0.000000e+00	3.417085e-01	7.827409e+14	2.697686e+15	1.166001e+15	2.372243e+04	1.346550e+04	3.000223e+03	0	1.533892e-03
4.700000e+08	4.701656e+13	0.000000e+00	3.417085e-01	7.746884e+14	2.680929e+15	1.160120e+15	2.368331e+04	1.345795e+04	2.998540e+03	0	1.525885e-03
4.800000e+08	4.628595e+13	0.000000e+00	3.417085e-01	7.667772e+14	2.664343e+15	1.154281e+15	2.364458e+04	1.345042e+04	2.996863e+03	0	1.517940e-03
4.900000e+08	4.556842e+13	0.000000e+00	3.417085e-01	7.590037e+14	2.647925e+15	1.148484e+15	2.360625e+04	1.344292e+04	2.995193e+03	0	1.510056e-03
5.000000e+08	4.486364e+13	0.000000e+00	3.417085e-01	7.513648e+14	2.631673e+15	1.142728e+15	2.356831e+04	1.343546e+04	2.993528e+03	0	1.502230e-03
5.100000e+08	4.417130e+13	0.000000e+00	3.417085e-01	7.438571e+14	2.615585e+15	1.137014e+15	2.353075e+04	1.342802e+04	2.991871e+03	0	1.494462e-03
5.200000e+08	4.349110e+13	0.000000e+00	3.417085e-01	7.364774e+14	2.599659e+15	1.131340e+15	2.349356e+04	1.342060e+04	2.990219e+03	0	1.486752e-03
5.300000e+08	4.282275e+13	0.000000e+00	3.417085e-01	7.292228e+14	2.583893e+15	1.125707e+15	2.345674e+04	1.341322e+04	2.988574e+03	0	1.479096e-03
5.400000e+08	4.216596e+13	0.000000e+00	3.417085e-01	7.220902e+14	2.568284e+15	1.120113e+15	2.342028e+04	1.340587e+04	2.986936e+03	0	1.471495e-03
5.500000e+08	4.152045e+13	0.000000e+00	3.417085e-01	7.150768e+14	2.552831e+15	1.114560e+15	2.338417e+04	1.339854e+04	2.985304e+03	0	1.463948e-03
5.600000e+08	4.088597e+13	0.000000e+00	3.417085e-01	7.081798e+14	2.537532e+15	1.109046e+15	2.334842e+04	1.339125e+04	2.983678e+03	0	1.456453e-03
5.700000e+08	4.026226e+13	0.000000e+00	3.417085e-01	7.013965e+14	2.522384e+15	1.103571e+15	2.331301e+04	1.338398e+04	2.982059e+03	0	1.449009e-03
5.800000e+08	3.964905e+13	0.000000e+00	3.417085e-01	6.947243e+14	2.507386e+15	1.098136e+15	2.327793e+04	1.337674e+04	2.980446e+03	0	1.441615e-03
5.900000e+08	3.904612e+13	0.000000e+00	3.417085e-01	6.881607e+14	2.492536e+15	1.092738e+15	2.324319e+04	1.336953e+04	2.978840e+03	0	1.434270e-03
6.000000e+08	3.845322e+13	0.000000e+00	3.417085e-01	6.817031e+14	2.477831e+15	1.087379e+15	2.320878e+04	1.336235e+04	2.977240e+03	0	1.426973e-03
6.100000e+08	3.787012e+13	0.000000e+00	3.417085e-01	6.753492e+14	2.463271e+15	1.082058e+15	2.317469e+04	1.335520e+04	2.975647e+03	0	1.419724e-03
6.200000e+08	3.729660e+13	0.000000e+00	3.417085e-01	6.690967e+14	2.448853e+15	1.076774e+15	2.314091e+04	1.334808e+04	2.974060e+03	0	1.412520e-03
6.300000e+08	3.673245e+13	0.000000e+00	3.417085e-01	6.629432e+14	2.434575e+15	1.071528e+15	2.310745e+04	1.334098e+04	2.972479e+03	0	1.405362e-03
6.400000e+08	3.617745e+13	0.000000e+00	3.417085e-01	6.568867e+14	2.420435e+15	1.066318e+15	2.307429e+04	1.333392e+04	2.970905e+03	0	1.398248e-03
6.500000e+08	3.563140e+13	0.000000e+00	3.417085e-01	6.509249e+14	2.406432e+15	1.061146e+15	2.304144e+04	1.332688e+04	2.969338e+03	0	1.391178e-03
6.600000e+08	3.509411e+13	0.000000e+00	3.417085e-01	6.450557e+14	2.392564e+15	1.056010e+15	2.300888e+04	1.331988e+04	2.967777e+03	0	1.384150e-03
6.700000e+08	3.456537e+13	0.000000e+00	3.417085e-01	6.392773e+14	2.378830e+15	1.050909e+15	2.297661e+04	1.331290e+04	2.966222e+03	0	1.377163e-03
6.800000e+08	3.404501e+13	0.000000e+00	3.417085e-01	6.335875e+14	2.365227e+15	1.045845e+15	2.294464e+04	1.330595e+04	2.964673e+03	0	1.370217e-03
6.900000e+08	3.353283e+13	0.000000e+00	3.417085e-01	6.279846e+14	2.351753e+15	1.040816e+15	2.291294e+04	1.329903e+04	2.963131e+03	0	1.363311e-03
7.000000e+08	3.302867e+13	0.000000e+00	3.417085e-01	6.224666e+14	2.338408e+15	1.035823e+15	2.288153e+04	1.329214e+04	2.961596e+03	0	1.356444e-03
7.100000e+08	3.253235e+13	0.000000e+00	3.417085e-01	6.170317e+14	2.325189e+15	1.030864e+15	2.285039e+04	1.328527e+04	2.960066e+03	0	1.349616e-03
7.200000e+08	3.204370e+13	0.000000e+00	3.417085e-01	6.116782e+14	2.312096e+15	1.025940e+15	2.281953e+04	1.327844e+04	2.958543e+03	0	1.342824e-03
7.300000e+08	3.156257e+13	0.000000e+00	3.417085e-01	6.064044e+14	2.299125e+15	1.021051e+15	2.278892e+04	1.327163e+04	2.957026e+03	0	1.336069e-03
7.400000e+08	3.108878e+13	0.000000e+00	3.417085e-01	6.012086e+14	2.286277e+15	1.016195e+15	2.275859e+04	1.326485e+04	2.955516e+03	0	1.329351e-03
7.500000e+08	3.062219e+13	0.000000e+00	3.417085e-01	5.960892e+14	2.273549e+15	1.011374e+15	2.272851e+04	1.325810e+04	2.954012e+03	0	1.322667e-03
7.600000e+08	3.016265e+13	0.000000e+00	3.417085e-01	5.910447e+14	2.260939e+15	1.006586e+15	2.269869e+04	1.325138e+04	2.952514e+03	0	1.316017e-03
7.700000e+08	2.971001e+13	0.000000e+00	3.417085e-01	5.860734e+14	2.248447e+15	1.001831e+15	2.266912e+04	1.324468e+04	2.951022e+03	0	1.309401e-03
7.800000e+08	2.926412e+13	0.000000e+00	3.417085e-01	5.811739e+14	2.236070e+15	9.971097e+14	2.263979e+04	1.323801e+04	2.949537e+03	0	1.302817e-03
7.900000e+08	2.882486e+13	0.000000e+00	3.417085e-01	5.763448e+14	2.223808e+15	9.924209e+14	2.261071e+04	1.323137e+04	2.948057e+03	0	1.296266e-03
8.000000e+08	2.839208e+13	0.000000e+00	3.417085e-01	5.715846e+14	2.211659e+15	9.877646e+14	2.258188e+04	1.322476e+04	2.946584e+03	0	1.289746e-03
8.100000e+08	2.796566e+13	0.000000e+00	3.417085e-01	5.668919e+14	2.199621e+15	9.831406e+14	2.255328e+04	1.321818e+04	2.945117e+03	0	1.283256e-03
8.200000e+08	2.754545e+13	0.000000e+00	3.417085e-01	5.622655e+14	2.187694e+15	9.785486e+14	2.252491e+04	1.321162e+04	2.943656e+03	0	1.276796e-03
8.300000e+08	2.713135e+13	0.000000e+00	3.417085e-01	5.577040e+14	2.175875e+15	9.739884e+14	2.249677e+04	1.320509e+04	2.942201e+03	0	1.270366e-03
8.400000e+08	2.672323e+13	0.000000e+00	3.417085e-01	5.532060e+14	2.164163e+15	9.694596e+14	2.246887e+04	1.319859e+04	2.940752e+03	0	1.263964e-03
8.500000e+08	2.632097e+13	0.000000e+00	3.417085e-01	5.487705e+14	2.152558e+15	9.649621e+14	2.244118e+04	1.319211e+04	2.939309e+03	0	1.257590e-03
8.600000e+08	2.592445e+13	0.000000e+00	3.417085e-01	5.443961e+14	2.141057e+15	9.604956e+14	2.241372e+04	1.318566e+04	2.937872e+03	0	1.251242e-03
8.700000e+08	2.553357e+13	0.000000e+00	3.417085e-01	5.400817e+14	2.129660e+15	9.560598e+14	2.238648e+04	1.317924e+04	2.936441e+03	0	1.244922e-03
8.800000e+08	2.514820e+13	0.000000e+00	3.417085e-01	5.358261e+14	2.118365e+15	9.516546e+14	2.235945e+04	1.317284e+04	2.935016e+03	0	1.238627e-03
8.900000e+08	2.476825e+13	0.000000e+00	3.417085e-01	5.316282e+14	2.107171e+15	9.472796e+14	2.233263e+04	1.316647e+04	2.933597e+03	0	1.232358e-03
9.000000e+08	2.439362e+13	0.000000e+00	3.417085e-01	5.274869e+14	2.096077e+15	9.429347e+14	2.230603e+04	1.316013e+04	2.932183e+03	0	1.226113e-03
9.100000e+08	2.402419e+13	0.000000e+00	3.417085e-01	5.234011e+14	2.085081e+15	9.386195e+14	2.227963e+04	1.315381e+04	2.930776e+03	0	1.219891e-03
9.200000e+08	2.365986e+13	0.000000e+00	3.417085e-01	5.193699e+14	2.074183e+15	9.343339e+14	2.225343e+04	1.314752e+04	2.929374e+03	0	1.213693e-03
9.300000e+08	2.330055e+13	0.000000e+00	3.417085e-01	5.153920e+14	2.063381e+15	9.300776e+14	2.222743e+04	1.314126e+04	2.927978e+03	0	1.207518e-03
9.400000e+08	2.294616e+13	0.000000e+00	3.417085e-01	5.114667e+14	2.052674e+15	9.258504e+14	2.220164e+04	1.313502e+04	2.926588e+03	0	1.201365e-03
9.500000e+08	2.259659e+13	0.000000e+00	3.417085e-01	5.075928e+14	2.042061e+15	9.216520e+14	2.217604e+04	1.312880e+04	2.925204e+03	0	1.195233e-03
9.600000e+08	2.225176e+13	0.000000e+00	3.417085e-01	5.037695e+14	2.031540e+15	9.174823e+14	2.215063e+04	1.312262e+04	2.923825e+03	0	1.189122e-03
9.700000e+08	2.191157e+13	0.000000e+00	3.417085e-01	4.999958e+14	2.021111e+15	9.133410e+14	2.212542e+04	1.311645e+04	2.922452e+03	0	1.183031e-03
9.800000e+08	2.157595e+13	0.000000e+00	3.417085e-01	4.962708e+14	2.010773e+15	9.092278e+14	2.210039e+04	1.311032e+04	2.921085e+03	0	1.176960e-03
9.900000e+08	2.124480e+13	0.000000e+00	3.417085e-01	4.925937e+14	2.000524e+15	9.051426e+14	2.207555e+04	1.310420e+04	2.919723e+03	0	1.170907e-03
1.000000e+09	2.091804e+13	0.000000e+00	3.417085e-01	4.889635e+14	1.990363e+15	9.010851e+14	2.205089e+04	1.309812e+04	2.918367e+03	0	1.164873e-03
1.010000e+09	2.059560e+13	0.000000e+00	3.417085e-01	4.853794e+14	1.980290e+15	8.970552e+14	2.202641e+04	1.309206e+04	2.917016e+03	0	1.158857e-03
1.020000e+09	2.027740e+13	0.000000e+00	3.417085e-01	4.818407e+14	1.970303e+15	8.930526e+14	2.200211e+04	1.308602e+04	2.915671e+03	0	1.152858e-03
1.030000e+09	1.996335e+13	0.000000e+00	3.417085e-01	4.783464e+14	1.960402e+15	8.890770e+14	2.197799e+04	1.308000e+04	2.914331e+03	0	1.146875e-03
1.040000e+09	1.965339e+13	0.000000e+00	3.417085e-01	4.748959e+14	1.950585e+15	8.851283e+14	2.195405e+04	1.307402e+04	2.912997e+03	0	1.140908e-03
1.050000e+09	1.934745e+13	0.000000e+00	3.417085e-01	4.714883e+14	1.940851e+15	8.812063e+14	2.193027e+04	1.306805e+04	2.911668e+03	0	1.134957e-03
1.060000e+09	1.904544e+13	0.000000e+00	3.417085e-01	4.681229e+14	1.931200e+15	8.773107e+14	2.190667e+04	1.306211e+04	2.910345e+03	0	1.129021e-03
1.070000e+09	1.874731e+13	0.000000e+00	3.417085e-01	4.647989e+14	1.921630e+15	8.734414e+14	2.188323e+04	1.305620e+04	2.909026e+03	0	1.123099e-03
1.080000e+09	1.845298e+13	0.000000e+00	3.417085e-01	4.615157e+14	1.912140e+15	8.695981e+14	2.185996e+04	1.305030e+04	2.907714e+03	0	1.117190e-03
1.090000e+09	1.816238e+13	0.000000e+00	3.417085e-01	4.582725e+14	1.902730e+15	8.657806e+14	2.183685e+04	1.304444e+04	2.906406e+03	0	1.111295e-03
1.100000e+09	1.787546e+13	0.000000e+00	3.417085e-01	4.550686e+14	1.893399e+15	8.619888e+14	2.181391e+04	1.303859e+04	2.905104e+03	0	1.105412e-03
1.110000e+09	1.759215e+13	0.000000e+00	3.417085e-01	4.519035e+14	1.884145e+15	8.582224e+14	2.179113e+04	1.303277e+04	2.903807e+03	0	1.099540e-03
1.120000e+09	1.731238e+13	0.000000e+00	3.417085e-01	4.487763e+14	1.874968e+15	8.544813e+14	2.176850e+04	1.302697e+04	2.902515e+03	0	1.093681e-03
1.130000e+09	1.703609e+13	0.000000e+00	3.417085e-01	4.456866e+14	1.865867e+15	8.507651e+14	2.174603e+04	1.302120e+04	2.901229e+03	0	1.087831e-03
1.140000e+09	1.676324e+13	0.000000e+00	3.417085e-01	4.426335e+14	1.856841e+15	8.470738e+14	2.172371e+04	1.301545e+04	2.899947e+03	0	1.081992e-03
1.150000e+09	1.649374e+13	0.000000e+00	3.417085e-01	4.396167e+14	1.847890e+15	8.434072e+14	2.170155e+04	1.300972e+04	2.898671e+03	0	1.076163e-03
1.160000e+09	1.622756e+13	0.000000e+00	3.417085e-01	4.366353e+14	1.839012e+15	8.397650e+14	2.167954e+04	1.300401e+04	2.897400e+03	0	1.070342e-03
1.170000e+09	1.596464e+13	0.000000e+00	3.417085e-01	4.336889e+14	1.830206e+15	8.361471e+14	2.165767e+04	1.299833e+04	2.896133e+03	0	1.064530e-03
1.180000e+09	1.570491e+13	0.000000e+00	3.417085e-01	4.307768e+14	1.821472e+15	8.325533e+14	2.163596e+04	1.299267e+04	2.894872e+03	0	1.058726e-03
1.190000e+09	1.544833e+13	0.000000e+00	3.417085e-01	4.278986e+14	1.812809e+15	8.289833e+14	2.161439e+04	1.298703e+04	2.893616e+03	0	1.052928e-03
1.200000e+09	1.519484e+13	0.000000e+00	3.417085e-01	4.250536e+14	1.804217e+15	8.254371e+14	2.159296e+04	1.298142e+04	2.892365e+03	0	1.047137e-03
1.210000e+09	1.494439e+13	0.000000e+00	3.417085e-01	4.222413e+14	1.795693e+15	8.219143e+14	2.157167e+04	1.297582e+04	2.891119e+03	0	1.041352e-03
1.220000e+09	1.469694e+13	0.000000e+00	3.417085e-01	4.194612e+14	1.787239e+15	8.184149e+14	2.155053e+04	1.297025e+04	2.889877e+03	0	1.035573e-03
1.230000e+09	1.445243e+13	0.000000e+00	3.417085e-01	4.167128e+14	1.778852e+15	8.149387e+14	2.152952e+04	1.296470e+04	2.888641e+03	0	1.029798e-03
1.240000e+09	1.421082e+13	0.000000e+00	3.417085e-01	4.139955e+14	1.770532e+15	8.114854e+14	2.150866e+04	1.295917e+04	2.887409e+03	0	1.024027e-03
1.250000e+09	1.397206e+13	0.000000e+00	3.417085e-01	4.113089e+14	1.762279e+15	8.080550e+14	2.148792e+04	1.295367e+04	2.886182e+03	0	1.018259e-03
1.260000e+09	1.373610e+13	0.000000e+00	3.417085e-01	4.086524e+14	1.754091e+15	8.046471e+14	2.146733e+04	1.294818e+04	2.884960e+03	0	1.012495e-03
1.270000e+09	1.350290e+13	0.000000e+00	3.417085e-01	4.060256e+14	1.745968e+15	8.012617e+14	2.144686e+04	1.294272e+04	2.883743e+03	0	1.006732e-03
1.280000e+09	1.327241e+13	0.000000e+00	3.417085e-01	4.034281e+14	1.737909e+15	7.978986e+14	2.142653e+04	1.293728e+04	2.882530e+03	0	1.000971e-03
1.290000e+09	1.304459e+13	0.000000e+00	3.417085e-01	4.008593e+14	1.729914e+15	7.945575e+14	2.140632e+04	1.293186e+04	2.881323e+03	0	9.952107e-04
1.300000e+09	1.281939e+13	0.000000e+00	3.417085e-01	3.983188e+14	1.721982e+15	7.912384e+14	2.138624e+04	1.292646e+04	2.880119e+03	0	9.894506e-04
1.310000e+09	1.259679e+13	0.000000e+00	3.417085e-01	3.958062e+14	1.714112e+15	7.879411e+14	2.136630e+04	1.292108e+04	2.878921e+03	0	9.836899e-04
1.320000e+09	1.237673e+13	0.000000e+00	3.417085e-01	3.933211e+14	1.706303e+15	7.846653e+14	2.134647e+04	1.291572e+04	2.877727e+03	0	9.779280e-04
1.330000e+09	1.215917e+13	0.000000e+00	3.417085e-01	3.908630e+14	1.698555e+15	7.814110e+14	2.132677e+04	1.291038e+04	2.876538e+03	0	9.721642e-04
1.340000e+09	1.194409e+13	0.000000e+00	3.417085e-01	3.884315e+14	1.690868e+15	7.781779e+14	2.130720e+04	1.290507e+04	2.875353e+03	0	9.663978e-04
1.350000e+09	1.173143e+13	0.000000e+00	3.417085e-01	3.860262e+14	1.683239e+15	7.749660e+14	2.128774e+04	1.289977e+04	2.874173e+03	0	9.606280e-04
1.360000e+09	1.152116e+13	0.000000e+00	3.417085e-01	3.836467e+14	1.675670e+15	7.717749e+14	2.126841e+04	1.289449e+04	2.872997e+03	0	9.548540e-04
