#t		Qconv[W]	Ri[Rp]		R*[Rp]		Qc[W]		Qm[W]		Qr[W]		Tcmb[K]		Tl[K]		Tup[K]		RiFlag		Bs[T]
0.000000e+00	1.574336e+14	0.000000e+00	7.087379e-01	4.267602e+15	1.243194e+15	3.538401e+13	1.566920e+04	3.150643e+03	2.194774e+03	0	1.753501e-03
1.000000e+07	1.290495e+14	0.000000e+00	7.087379e-01	3.498955e+15	2.673686e+15	3.518796e+13	1.463765e+04	3.719357e+03	2.590947e+03	0	1.641064e-03
2.000000e+07	1.068328e+14	0.000000e+00	7.087379e-01	2.897304e+15	2.994430e+15	3.499337e+13	1.378255e+04	3.864508e+03	2.692061e+03	0	1.540902e-03
3.000000e+07	8.983259e+13	0.000000e+00	7.087379e-01	2.436893e+15	2.793993e+15	3.480024e+13	1.306805e+04	3.853981e+03	2.684727e+03	0	1.454403e-03
4.000000e+07	7.662765e+13	0.000000e+00	7.087379e-01	2.079247e+15	2.480408e+15	3.460854e+13	1.246250e+04	3.797712e+03	2.645530e+03	0	1.379332e-03
5.000000e+07	6.618564e+13	0.000000e+00	7.087379e-01	1.796415e+15	2.180060e+15	3.441828e+13	1.194245e+04	3.731469e+03	2.599384e+03	0	1.313595e-03
6.000000e+07	5.779265e+13	0.000000e+00	7.087379e-01	1.569069e+15	1.920628e+15	3.422944e+13	1.149061e+04	3.666311e+03	2.553994e+03	0	1.255541e-03
7.000000e+07	5.094774e+13	0.000000e+00	7.087379e-01	1.383644e+15	1.702477e+15	3.404200e+13	1.109403e+04	3.605419e+03	2.511576e+03	0	1.203876e-03
8.000000e+07	4.529246e+13	0.000000e+00	7.087379e-01	1.230435e+15	1.519707e+15	3.385596e+13	1.074281e+04	3.549420e+03	2.472567e+03	0	1.157574e-03
9.000000e+07	4.056559e+13	0.000000e+00	7.087379e-01	1.102370e+15	1.365917e+15	3.367130e+13	1.042930e+04	3.498121e+03	2.436831e+03	0	1.115817e-03
1.000000e+08	3.657344e+13	0.000000e+00	7.087379e-01	9.942029e+14	1.235599e+15	3.348801e+13	1.014748e+04	3.451089e+03	2.404068e+03	0	1.077942e-03
1.100000e+08	3.317015e+13	0.000000e+00	7.087379e-01	9.019848e+14	1.124312e+15	3.330608e+13	9.892548e+03	3.407855e+03	2.373951e+03	0	1.043412e-03
1.200000e+08	3.024427e+13	0.000000e+00	7.087379e-01	8.226975e+14	1.028544e+15	3.312550e+13	9.660644e+03	3.367982e+03	2.346175e+03	0	1.011784e-03
1.300000e+08	2.770951e+13	0.000000e+00	7.087379e-01	7.540042e+14	9.455287e+14	3.294626e+13	9.448614e+03	3.331080e+03	2.320468e+03	0	9.826899e-04
1.400000e+08	2.549825e+13	0.000000e+00	7.087379e-01	6.940737e+14	8.730750e+14	3.276835e+13	9.253863e+03	3.296813e+03	2.296598e+03	0	9.558219e-04
1.500000e+08	2.355690e+13	0.000000e+00	7.087379e-01	6.414548e+14	8.094391e+14	3.259174e+13	9.074234e+03	3.264891e+03	2.274360e+03	0	9.309212e-04
1.600000e+08	2.184257e+13	0.000000e+00	7.087379e-01	5.949857e+14	7.532209e+14	3.241645e+13	8.907922e+03	3.235062e+03	2.253581e+03	0	9.077678e-04
1.700000e+08	2.032059e+13	0.000000e+00	7.087379e-01	5.537275e+14	7.032872e+14	3.224245e+13	8.753402e+03	3.207112e+03	2.234111e+03	0	8.861739e-04
1.800000e+08	1.896269e+13	0.000000e+00	7.087379e-01	5.169148e+14	6.587141e+14	3.206972e+13	8.609377e+03	3.180853e+03	2.215819e+03	0	8.659780e-04
1.900000e+08	1.774566e+13	0.000000e+00	7.087379e-01	4.839185e+14	6.187420e+14	3.189828e+13	8.474738e+03	3.156124e+03	2.198592e+03	0	8.470406e-04
2.000000e+08	1.665025e+13	0.000000e+00	7.087379e-01	4.542176e+14	5.827422e+14	3.172809e+13	8.348529e+03	3.132781e+03	2.182331e+03	0	8.292404e-04
2.100000e+08	1.566044e+13	0.000000e+00	7.087379e-01	4.273778e+14	5.501907e+14	3.155916e+13	8.229925e+03	3.110701e+03	2.166950e+03	0	8.124716e-04
2.200000e+08	1.476277e+13	0.000000e+00	7.087379e-01	4.030348e+14	5.206479e+14	3.139146e+13	8.118203e+03	3.089774e+03	2.152372e+03	0	7.966413e-04
2.300000e+08	1.394588e+13	0.000000e+00	7.087379e-01	3.808807e+14	4.937426e+14	3.122500e+13	8.012736e+03	3.069904e+03	2.138531e+03	0	7.816677e-04
2.400000e+08	1.320012e+13	0.000000e+00	7.087379e-01	3.606542e+14	4.691600e+14	3.105975e+13	7.912969e+03	3.051005e+03	2.125365e+03	0	7.674784e-04
2.500000e+08	1.251726e+13	0.000000e+00	7.087379e-01	3.421322e+14	4.466312e+14	3.089572e+13	7.818415e+03	3.033000e+03	2.112823e+03	0	7.540091e-04
2.600000e+08	1.189023e+13	0.000000e+00	7.087379e-01	3.251233e+14	4.259259e+14	3.073289e+13	7.728640e+03	3.015822e+03	2.100856e+03	0	7.412026e-04
2.700000e+08	1.131294e+13	0.000000e+00	7.087379e-01	3.094627e+14	4.068454e+14	3.057125e+13	7.643260e+03	2.999408e+03	2.089422e+03	0	7.290076e-04
2.800000e+08	1.078013e+13	0.000000e+00	7.087379e-01	2.950074e+14	3.892177e+14	3.041079e+13	7.561932e+03	2.983703e+03	2.078482e+03	0	7.173782e-04
2.900000e+08	1.028720e+13	0.000000e+00	7.087379e-01	2.816333e+14	3.728933e+14	3.025150e+13	7.484348e+03	2.968659e+03	2.068002e+03	0	7.062731e-04
3.000000e+08	9.830167e+12	0.000000e+00	7.087379e-01	2.692319e+14	3.577419e+14	3.009337e+13	7.410231e+03	2.954229e+03	2.057950e+03	0	6.956549e-04
3.100000e+08	9.405513e+12	0.000000e+00	7.087379e-01	2.577084e+14	3.436491e+14	2.993639e+13	7.339334e+03	2.940373e+03	2.048297e+03	0	6.854898e-04
3.200000e+08	9.010159e+12	0.000000e+00	7.087379e-01	2.469791e+14	3.305145e+14	2.978056e+13	7.271431e+03	2.927054e+03	2.039019e+03	0	6.757473e-04
3.300000e+08	8.641387e+12	0.000000e+00	7.087379e-01	2.369705e+14	3.182495e+14	2.962585e+13	7.206318e+03	2.914238e+03	2.030091e+03	0	6.663995e-04
3.400000e+08	8.296791e+12	0.000000e+00	7.087379e-01	2.276173e+14	3.067756e+14	2.947228e+13	7.143810e+03	2.901893e+03	2.021492e+03	0	6.574210e-04
3.500000e+08	7.974234e+12	0.000000e+00	7.087379e-01	2.188616e+14	2.960231e+14	2.931981e+13	7.083738e+03	2.889992e+03	2.013202e+03	0	6.487886e-04
3.600000e+08	7.671814e+12	0.000000e+00	7.087379e-01	2.106520e+14	2.859300e+14	2.916845e+13	7.025950e+03	2.878509e+03	2.005202e+03	0	6.404809e-04
3.700000e+08	7.387834e+12	0.000000e+00	7.087379e-01	2.029422e+14	2.764411e+14	2.901819e+13	6.970304e+03	2.867419e+03	1.997477e+03	0	6.324787e-04
3.800000e+08	7.120772e+12	0.000000e+00	7.087379e-01	1.956913e+14	2.675066e+14	2.886901e+13	6.916670e+03	2.856700e+03	1.990010e+03	0	6.247638e-04
3.900000e+08	6.869266e+12	0.000000e+00	7.087379e-01	1.888622e+14	2.590822e+14	2.872092e+13	6.864931e+03	2.846333e+03	1.982788e+03	0	6.173199e-04
4.000000e+08	6.632087e+12	0.000000e+00	7.087379e-01	1.824216e+14	2.511277e+14	2.857389e+13	6.814978e+03	2.836297e+03	1.975797e+03	0	6.101317e-04
4.100000e+08	6.408129e+12	0.000000e+00	7.087379e-01	1.763395e+14	2.436071e+14	2.842792e+13	6.766710e+03	2.826576e+03	1.969025e+03	0	6.031851e-04
4.200000e+08	6.196393e+12	0.000000e+00	7.087379e-01	1.705889e+14	2.364877e+14	2.828301e+13	6.720034e+03	2.817153e+03	1.962461e+03	0	5.964671e-04
4.300000e+08	5.995971e+12	0.000000e+00	7.087379e-01	1.651452e+14	2.297400e+14	2.813914e+13	6.674865e+03	2.808013e+03	1.956094e+03	0	5.899656e-04
4.400000e+08	5.806044e+12	0.000000e+00	7.087379e-01	1.599861e+14	2.233372e+14	2.799630e+13	6.631122e+03	2.799143e+03	1.949915e+03	0	5.836694e-04
4.500000e+08	5.625862e+12	0.000000e+00	7.087379e-01	1.550914e+14	2.172548e+14	2.785449e+13	6.588732e+03	2.790528e+03	1.943914e+03	0	5.775681e-04
4.600000e+08	5.454746e+12	0.000000e+00	7.087379e-01	1.504425e+14	2.114707e+14	2.771370e+13	6.547626e+03	2.782158e+03	1.938083e+03	0	5.716520e-04
4.700000e+08	5.292074e+12	0.000000e+00	7.087379e-01	1.460227e+14	2.059644e+14	2.757392e+13	6.507740e+03	2.774019e+03	1.932414e+03	0	5.659119e-04
4.800000e+08	5.137278e+12	0.000000e+00	7.087379e-01	1.418166e+14	2.007176e+14	2.743514e+13	6.469016e+03	2.766103e+03	1.926899e+03	0	5.603395e-04
4.900000e+08	4.989839e+12	0.000000e+00	7.087379e-01	1.378101e+14	1.957131e+14	2.729735e+13	6.431396e+03	2.758398e+03	1.921532e+03	0	5.549268e-04
5.000000e+08	4.849278e+12	0.000000e+00	7.087379e-01	1.339901e+14	1.909354e+14	2.716055e+13	6.394829e+03	2.750895e+03	1.916305e+03	0	5.496664e-04
5.100000e+08	4.715157e+12	0.000000e+00	7.087379e-01	1.303450e+14	1.863701e+14	2.702472e+13	6.359267e+03	2.743586e+03	1.911213e+03	0	5.445515e-04
5.200000e+08	4.587074e+12	0.000000e+00	7.087379e-01	1.268636e+14	1.820040e+14	2.688987e+13	6.324664e+03	2.736462e+03	1.906251e+03	0	5.395754e-04
5.300000e+08	4.464657e+12	0.000000e+00	7.087379e-01	1.235359e+14	1.778251e+14	2.675598e+13	6.290977e+03	2.729515e+03	1.901411e+03	0	5.347320e-04
5.400000e+08	4.347562e+12	0.000000e+00	7.087379e-01	1.203527e+14	1.738220e+14	2.662304e+13	6.258167e+03	2.722738e+03	1.896691e+03	0	5.300158e-04
5.500000e+08	4.235473e+12	0.000000e+00	7.087379e-01	1.173054e+14	1.699844e+14	2.649104e+13	6.226194e+03	2.716124e+03	1.892083e+03	0	5.254211e-04
5.600000e+08	4.128097e+12	0.000000e+00	7.087379e-01	1.143859e+14	1.663027e+14	2.635999e+13	6.195025e+03	2.709667e+03	1.887585e+03	0	5.209429e-04
5.700000e+08	4.025162e+12	0.000000e+00	7.087379e-01	1.115869e+14	1.627680e+14	2.622986e+13	6.164625e+03	2.703359e+03	1.883191e+03	0	5.165765e-04
5.800000e+08	3.926417e+12	0.000000e+00	7.087379e-01	1.089017e+14	1.593720e+14	2.610066e+13	6.134963e+03	2.697196e+03	1.878898e+03	0	5.123173e-04
5.900000e+08	3.831626e+12	0.000000e+00	7.087379e-01	1.063238e+14	1.561071e+14	2.597238e+13	6.106009e+03	2.691172e+03	1.874701e+03	0	5.081609e-04
6.000000e+08	3.740574e+12	0.000000e+00	7.087379e-01	1.038474e+14	1.529661e+14	2.584500e+13	6.077735e+03	2.685282e+03	1.870598e+03	0	5.041034e-04
6.100000e+08	3.653057e+12	0.000000e+00	7.087379e-01	1.014669e+14	1.499425e+14	2.571852e+13	6.050115e+03	2.679520e+03	1.866584e+03	0	5.001409e-04
6.200000e+08	3.568888e+12	0.000000e+00	7.087379e-01	9.917729e+13	1.470299e+14	2.559294e+13	6.023123e+03	2.673881e+03	1.862656e+03	0	4.962698e-04
6.300000e+08	3.487889e+12	0.000000e+00	7.087379e-01	9.697376e+13	1.442227e+14	2.546824e+13	5.996736e+03	2.668362e+03	1.858812e+03	0	4.924866e-04
6.400000e+08	3.409897e+12	0.000000e+00	7.087379e-01	9.485185e+13	1.415155e+14	2.534443e+13	5.970930e+03	2.662958e+03	1.855047e+03	0	4.887881e-04
6.500000e+08	3.334758e+12	0.000000e+00	7.087379e-01	9.280740e+13	1.389031e+14	2.522148e+13	5.945686e+03	2.657665e+03	1.851360e+03	0	4.851711e-04
6.600000e+08	3.262328e+12	0.000000e+00	7.087379e-01	9.083652e+13	1.363810e+14	2.509940e+13	5.920981e+03	2.652480e+03	1.847748e+03	0	4.816328e-04
6.700000e+08	3.192473e+12	0.000000e+00	7.087379e-01	8.893555e+13	1.339446e+14	2.497818e+13	5.896798e+03	2.647397e+03	1.844207e+03	0	4.781703e-04
6.800000e+08	3.125068e+12	0.000000e+00	7.087379e-01	8.710107e+13	1.315898e+14	2.485781e+13	5.873117e+03	2.642415e+03	1.840736e+03	0	4.747810e-04
6.900000e+08	3.059993e+12	0.000000e+00	7.087379e-01	8.532988e+13	1.293128e+14	2.473829e+13	5.849921e+03	2.637529e+03	1.837333e+03	0	4.714623e-04
7.000000e+08	2.997137e+12	0.000000e+00	7.087379e-01	8.361896e+13	1.271098e+14	2.461960e+13	5.827194e+03	2.632737e+03	1.833994e+03	0	4.682118e-04
7.100000e+08	2.936397e+12	0.000000e+00	7.087379e-01	8.196548e+13	1.249775e+14	2.450174e+13	5.804920e+03	2.628035e+03	1.830719e+03	0	4.650273e-04
7.200000e+08	2.877673e+12	0.000000e+00	7.087379e-01	8.036677e+13	1.229126e+14	2.438471e+13	5.783083e+03	2.623420e+03	1.827504e+03	0	4.619064e-04
7.300000e+08	2.820874e+12	0.000000e+00	7.087379e-01	7.882033e+13	1.209120e+14	2.426850e+13	5.761669e+03	2.618890e+03	1.824349e+03	0	4.588472e-04
7.400000e+08	2.765912e+12	0.000000e+00	7.087379e-01	7.732379e+13	1.189730e+14	2.415309e+13	5.740665e+03	2.614442e+03	1.821250e+03	0	4.558476e-04
7.500000e+08	2.712706e+12	0.000000e+00	7.087379e-01	7.587493e+13	1.170927e+14	2.403849e+13	5.720057e+03	2.610073e+03	1.818207e+03	0	4.529057e-04
7.600000e+08	2.661177e+12	0.000000e+00	7.087379e-01	7.447165e+13	1.152686e+14	2.392469e+13	5.699833e+03	2.605782e+03	1.815217e+03	0	4.500196e-04
7.700000e+08	2.611254e+12	0.000000e+00	7.087379e-01	7.311196e+13	1.134984e+14	2.381169e+13	5.679980e+03	2.601565e+03	1.812280e+03	0	4.471877e-04
7.800000e+08	2.562865e+12	0.000000e+00	7.087379e-01	7.179399e+13	1.117797e+14	2.369946e+13	5.660488e+03	2.597421e+03	1.809393e+03	0	4.444083e-04
7.900000e+08	2.515948e+12	0.000000e+00	7.087379e-01	7.051596e+13	1.101105e+14	2.358802e+13	5.641345e+03	2.593346e+03	1.806555e+03	0	4.416797e-04
8.000000e+08	2.470439e+12	0.000000e+00	7.087379e-01	6.927620e+13	1.084885e+14	2.347735e+13	5.622541e+03	2.589341e+03	1.803764e+03	0	4.390004e-04
8.100000e+08	2.426280e+12	0.000000e+00	7.087379e-01	6.807311e+13	1.069120e+14	2.336744e+13	5.604066e+03	2.585401e+03	1.801020e+03	0	4.363689e-04
8.200000e+08	2.383415e+12	0.000000e+00	7.087379e-01	6.690521e+13	1.053791e+14	2.325830e+13	5.585909e+03	2.581526e+03	1.798320e+03	0	4.337839e-04
8.300000e+08	2.341793e+12	0.000000e+00	7.087379e-01	6.577105e+13	1.038880e+14	2.314991e+13	5.568062e+03	2.577713e+03	1.795664e+03	0	4.312439e-04
8.400000e+08	2.301362e+12	0.000000e+00	7.087379e-01	6.466928e+13	1.024371e+14	2.304227e+13	5.550516e+03	2.573961e+03	1.793051e+03	0	4.287478e-04
8.500000e+08	2.262077e+12	0.000000e+00	7.087379e-01	6.359863e+13	1.010248e+14	2.293537e+13	5.533263e+03	2.570268e+03	1.790478e+03	0	4.262941e-04
8.600000e+08	2.223892e+12	0.000000e+00	7.087379e-01	6.255788e+13	9.964968e+13	2.282921e+13	5.516293e+03	2.566633e+03	1.787946e+03	0	4.238818e-04
8.700000e+08	2.186764e+12	0.000000e+00	7.087379e-01	6.154585e+13	9.831029e+13	2.272378e+13	5.499600e+03	2.563053e+03	1.785452e+03	0	4.215096e-04
8.800000e+08	2.150652e+12	0.000000e+00	7.087379e-01	6.056146e+13	9.700529e+13	2.261908e+13	5.483175e+03	2.559528e+03	1.782996e+03	0	4.191765e-04
8.900000e+08	2.115519e+12	0.000000e+00	7.087379e-01	5.960365e+13	9.573340e+13	2.251509e+13	5.467012e+03	2.556056e+03	1.780578e+03	0	4.168814e-04
9.000000e+08	2.081327e+12	0.000000e+00	7.087379e-01	5.867143e+13	9.449341e+13	2.241182e+13	5.451102e+03	2.552635e+03	1.778195e+03	0	4.146232e-04
9.100000e+08	2.048042e+12	0.000000e+00	7.087379e-01	5.776384e+13	9.328414e+13	2.230926e+13	5.435441e+03	2.549265e+03	1.775847e+03	0	4.124011e-04
9.200000e+08	2.015629e+12	0.000000e+00	7.087379e-01	5.687999e+13	9.210449e+13	2.220740e+13	5.420020e+03	2.545944e+03	1.773533e+03	0	4.102139e-04
9.300000e+08	1.984058e+12	0.000000e+00	7.087379e-01	5.601901e+13	9.095342e+13	2.210623e+13	5.404834e+03	2.542670e+03	1.771253e+03	0	4.080609e-04
9.400000e+08	1.953298e+12	0.000000e+00	7.087379e-01	5.518007e+13	8.982991e+13	2.200576e+13	5.389877e+03	2.539443e+03	1.769005e+03	0	4.059411e-04
9.500000e+08	1.923319e+12	0.000000e+00	7.087379e-01	5.436239e+13	8.873300e+13	2.190597e+13	5.375143e+03	2.536261e+03	1.766788e+03	0	4.038536e-04
9.600000e+08	1.894095e+12	0.000000e+00	7.087379e-01	5.356522e+13	8.766178e+13	2.180687e+13	5.360625e+03	2.533123e+03	1.764602e+03	0	4.017977e-04
9.700000e+08	1.865599e+12	0.000000e+00	7.087379e-01	5.278784e+13	8.661536e+13	2.170843e+13	5.346320e+03	2.530028e+03	1.762447e+03	0	3.997725e-04
9.800000e+08	1.837806e+12	0.000000e+00	7.087379e-01	5.202957e+13	8.559292e+13	2.161067e+13	5.332222e+03	2.526976e+03	1.760320e+03	0	3.977774e-04
9.900000e+08	1.810691e+12	0.000000e+00	7.087379e-01	5.128976e+13	8.459364e+13	2.151357e+13	5.318324e+03	2.523964e+03	1.758222e+03	0	3.958114e-04
1.000000e+09	1.784233e+12	0.000000e+00	7.087379e-01	5.056778e+13	8.361677e+13	2.141714e+13	5.304624e+03	2.520993e+03	1.756152e+03	0	3.938740e-04
1.010000e+09	1.758407e+12	0.000000e+00	7.087379e-01	4.986303e+13	8.266156e+13	2.132135e+13	5.291115e+03	2.518060e+03	1.754110e+03	0	3.919645e-04
1.020000e+09	1.733195e+12	0.000000e+00	7.087379e-01	4.917494e+13	8.172732e+13	2.122622e+13	5.277794e+03	2.515166e+03	1.752094e+03	0	3.900821e-04
1.030000e+09	1.708574e+12	0.000000e+00	7.087379e-01	4.850296e+13	8.081337e+13	2.113172e+13	5.264656e+03	2.512309e+03	1.750103e+03	0	3.882262e-04
1.040000e+09	1.684527e+12	0.000000e+00	7.087379e-01	4.784656e+13	7.991906e+13	2.103787e+13	5.251697e+03	2.509489e+03	1.748139e+03	0	3.863962e-04
1.050000e+09	1.661034e+12	0.000000e+00	7.087379e-01	4.720523e+13	7.904378e+13	2.094465e+13	5.238912e+03	2.506704e+03	1.746199e+03	0	3.845915e-04
1.060000e+09	1.638077e+12	0.000000e+00	7.087379e-01	4.657851e+13	7.818693e+13	2.085206e+13	5.226298e+03	2.503954e+03	1.744283e+03	0	3.828115e-04
1.070000e+09	1.615640e+12	0.000000e+00	7.087379e-01	4.596592e+13	7.734795e+13	2.076009e+13	5.213850e+03	2.501238e+03	1.742391e+03	0	3.810557e-04
1.080000e+09	1.593707e+12	0.000000e+00	7.087379e-01	4.536701e+13	7.652629e+13	2.066875e+13	5.201566e+03	2.498556e+03	1.740522e+03	0	3.793234e-04
1.090000e+09	1.572260e+12	0.000000e+00	7.087379e-01	4.478137e+13	7.572141e+13	2.057801e+13	5.189440e+03	2.495906e+03	1.738676e+03	0	3.776142e-04
1.100000e+09	1.551286e+12	0.000000e+00	7.087379e-01	4.420858e+13	7.493283e+13	2.048789e+13	5.177471e+03	2.493287e+03	1.736853e+03	0	3.759276e-04
1.110000e+09	1.530770e+12	0.000000e+00	7.087379e-01	4.364824e+13	7.416004e+13	2.039837e+13	5.165654e+03	2.490700e+03	1.735050e+03	0	3.742630e-04
1.120000e+09	1.510698e+12	0.000000e+00	7.087379e-01	4.309999e+13	7.340259e+13	2.030945e+13	5.153986e+03	2.488144e+03	1.733269e+03	0	3.726199e-04
1.130000e+09	1.491056e+12	0.000000e+00	7.087379e-01	4.256345e+13	7.266003e+13	2.022112e+13	5.142464e+03	2.485617e+03	1.731509e+03	0	3.709980e-04
1.140000e+09	1.471833e+12	0.000000e+00	7.087379e-01	4.203827e+13	7.193193e+13	2.013339e+13	5.131085e+03	2.483119e+03	1.729769e+03	0	3.693967e-04
1.150000e+09	1.453014e+12	0.000000e+00	7.087379e-01	4.152413e+13	7.121787e+13	2.004624e+13	5.119846e+03	2.480650e+03	1.728049e+03	0	3.678156e-04
1.160000e+09	1.434589e+12	0.000000e+00	7.087379e-01	4.102069e+13	7.051745e+13	1.995967e+13	5.108744e+03	2.478210e+03	1.726349e+03	0	3.662542e-04
1.170000e+09	1.416545e+12	0.000000e+00	7.087379e-01	4.052764e+13	6.983029e+13	1.987368e+13	5.097776e+03	2.475796e+03	1.724668e+03	0	3.647122e-04
1.180000e+09	1.398873e+12	0.000000e+00	7.087379e-01	4.004469e+13	6.915602e+13	1.978826e+13	5.086939e+03	2.473409e+03	1.723005e+03	0	3.631892e-04
1.190000e+09	1.381561e+12	0.000000e+00	7.087379e-01	3.957154e+13	6.849428e+13	1.970341e+13	5.076230e+03	2.471049e+03	1.721361e+03	0	3.616847e-04
1.200000e+09	1.364598e+12	0.000000e+00	7.087379e-01	3.910792e+13	6.784473e+13	1.961912e+13	5.065648e+03	2.468715e+03	1.719735e+03	0	3.601984e-04
1.210000e+09	1.347976e+12	0.000000e+00	7.087379e-01	3.865356e+13	6.720703e+13	1.953539e+13	5.055189e+03	2.466405e+03	1.718126e+03	0	3.587299e-04
1.220000e+09	1.331685e+12	0.000000e+00	7.087379e-01	3.820820e+13	6.658087e+13	1.945222e+13	5.044851e+03	2.464121e+03	1.716535e+03	0	3.572789e-04
1.230000e+09	1.315715e+12	0.000000e+00	7.087379e-01	3.777159e+13	6.596593e+13	1.936959e+13	5.034632e+03	2.461861e+03	1.714960e+03	0	3.558449e-04
1.240000e+09	1.300057e+12	0.000000e+00	7.087379e-01	3.734348e+13	6.536192e+13	1.928752e+13	5.024529e+03	2.459624e+03	1.713403e+03	0	3.544277e-04
1.250000e+09	1.284704e+12	0.000000e+00	7.087379e-01	3.692366e+13	6.476855e+13	1.920598e+13	5.014541e+03	2.457412e+03	1.711861e+03	0	3.530269e-04
1.260000e+09	1.269646e+12	0.000000e+00	7.087379e-01	3.651189e+13	6.418555e+13	1.912498e+13	5.004664e+03	2.455222e+03	1.710335e+03	0	3.516423e-04
1.270000e+09	1.254876e+12	0.000000e+00	7.087379e-01	3.610795e+13	6.361264e+13	1.904452e+13	4.994897e+03	2.453054e+03	1.708826e+03	0	3.502734e-04
1.280000e+09	1.240387e+12	0.000000e+00	7.087379e-01	3.571165e+13	6.304957e+13	1.896458e+13	4.985237e+03	2.450909e+03	1.707331e+03	0	3.489200e-04
1.290000e+09	1.226170e+12	0.000000e+00	7.087379e-01	3.532277e+13	6.249608e+13	1.888517e+13	4.975683e+03	2.448785e+03	1.705852e+03	0	3.475818e-04
1.300000e+09	1.212218e+12	0.000000e+00	7.087379e-01	3.494112e+13	6.195194e+13	1.880628e+13	4.966233e+03	2.446682e+03	1.704387e+03	0	3.462585e-04
1.310000e+09	1.198525e+12	0.000000e+00	7.087379e-01	3.456652e+13	6.141690e+13	1.872791e+13	4.956884e+03	2.444601e+03	1.702937e+03	0	3.449498e-04
1.320000e+09	1.185085e+12	0.000000e+00	7.087379e-01	3.419877e+13	6.089075e+13	1.865005e+13	4.947636e+03	2.442539e+03	1.701501e+03	0	3.436555e-04
1.330000e+09	1.171889e+12	0.000000e+00	7.087379e-01	3.383772e+13	6.037326e+13	1.857270e+13	4.938485e+03	2.440498e+03	1.700079e+03	0	3.423753e-04
1.340000e+09	1.158933e+12	0.000000e+00	7.087379e-01	3.348317e+13	5.986423e+13	1.849586e+13	4.929431e+03	2.438477e+03	1.698671e+03	0	3.411088e-04
1.350000e+09	1.146210e+12	0.000000e+00	7.087379e-01	3.313498e+13	5.936344e+13	1.841952e+13	4.920471e+03	2.436475e+03	1.697276e+03	0	3.398560e-04
1.360000e+09	1.133714e+12	0.000000e+00	7.087379e-01	3.279298e+13	5.887070e+13	1.834367e+13	4.911604e+03	2.434492e+03	1.695895e+03	0	3.386164e-04
