#t		Qconv[W]	Ri[Rp]		R*[Rp]		Qc[W]		Qm[W]		Qr[W]		Tcmb[K]		Tl[K]		Tup[K]		RiFlag		Bs[T]
0.000000e+00	3.205816e+14	0.000000e+00	7.087379e-01	6.640749e+15	1.663491e+15	5.263912e+13	1.834365e+04	3.419430e+03	2.328067e+03	0	2.169257e-03
1.000000e+07	2.715230e+14	0.000000e+00	7.087379e-01	5.626250e+15	3.909870e+15	5.234746e+13	1.730082e+04	4.078181e+03	2.776567e+03	0	2.052423e-03
2.000000e+07	2.305160e+14	0.000000e+00	7.087379e-01	4.778234e+15	4.673016e+15	5.205799e+13	1.640998e+04	4.285840e+03	2.917948e+03	0	1.943413e-03
3.000000e+07	1.977161e+14	0.000000e+00	7.087379e-01	4.099892e+15	4.530110e+15	5.177067e+13	1.564808e+04	4.304077e+03	2.930365e+03	0	1.846484e-03
4.000000e+07	1.714139e+14	0.000000e+00	7.087379e-01	3.555882e+15	4.119958e+15	5.148550e+13	1.499039e+04	4.259175e+03	2.899794e+03	0	1.760679e-03
5.000000e+07	1.500833e+14	0.000000e+00	7.087379e-01	3.114662e+15	3.682948e+15	5.120246e+13	1.441697e+04	4.196544e+03	2.857153e+03	0	1.684388e-03
6.000000e+07	1.325745e+14	0.000000e+00	7.087379e-01	2.752463e+15	3.286797e+15	5.092153e+13	1.391238e+04	4.131515e+03	2.812879e+03	0	1.616162e-03
7.000000e+07	1.180371e+14	0.000000e+00	7.087379e-01	2.451702e+15	2.943794e+15	5.064269e+13	1.346465e+04	4.069107e+03	2.770389e+03	0	1.554787e-03
8.000000e+07	1.058384e+14	0.000000e+00	7.087379e-01	2.199303e+15	2.650402e+15	5.036592e+13	1.306441e+04	4.010776e+03	2.730675e+03	0	1.499268e-03
9.000000e+07	9.550306e+13	0.000000e+00	7.087379e-01	1.985436e+15	2.399519e+15	5.009121e+13	1.270422e+04	3.956728e+03	2.693877e+03	0	1.448785e-03
1.000000e+08	8.666910e+13	0.000000e+00	7.087379e-01	1.802620e+15	2.184087e+15	4.981854e+13	1.237811e+04	3.906737e+03	2.659842e+03	0	1.402661e-03
1.100000e+08	7.905781e+13	0.000000e+00	7.087379e-01	1.645091e+15	1.998028e+15	4.954789e+13	1.208126e+04	3.860451e+03	2.628329e+03	0	1.360337e-03
1.200000e+08	7.245198e+13	0.000000e+00	7.087379e-01	1.508358e+15	1.836337e+15	4.927925e+13	1.180972e+04	3.817499e+03	2.599085e+03	0	1.321341e-03
1.300000e+08	6.668042e+13	0.000000e+00	7.087379e-01	1.388881e+15	1.694960e+15	4.901260e+13	1.156022e+04	3.777533e+03	2.571876e+03	0	1.285279e-03
1.400000e+08	6.160686e+13	0.000000e+00	7.087379e-01	1.283843e+15	1.570619e+15	4.874792e+13	1.133003e+04	3.740244e+03	2.546488e+03	0	1.251818e-03
1.500000e+08	5.712174e+13	0.000000e+00	7.087379e-01	1.190978e+15	1.460655e+15	4.848520e+13	1.111688e+04	3.705356e+03	2.522735e+03	0	1.220671e-03
1.600000e+08	5.313625e+13	0.000000e+00	7.087379e-01	1.108449e+15	1.362905e+15	4.822442e+13	1.091882e+04	3.672629e+03	2.500453e+03	0	1.191594e-03
1.700000e+08	4.957772e+13	0.000000e+00	7.087379e-01	1.034754e+15	1.275593e+15	4.796557e+13	1.073420e+04	3.641853e+03	2.479500e+03	0	1.164377e-03
1.800000e+08	4.638631e+13	0.000000e+00	7.087379e-01	9.686550e+14	1.197257e+15	4.770862e+13	1.056163e+04	3.612845e+03	2.459750e+03	0	1.138836e-03
1.900000e+08	4.351232e+13	0.000000e+00	7.087379e-01	9.091238e+14	1.126680e+15	4.745357e+13	1.039987e+04	3.585443e+03	2.441094e+03	0	1.114813e-03
2.000000e+08	4.091424e+13	0.000000e+00	7.087379e-01	8.553022e+14	1.062847e+15	4.720039e+13	1.024787e+04	3.559506e+03	2.423435e+03	0	1.092168e-03
2.100000e+08	3.855717e+13	0.000000e+00	7.087379e-01	8.064681e+14	1.004903e+15	4.694907e+13	1.010471e+04	3.534908e+03	2.406688e+03	0	1.070779e-03
2.200000e+08	3.641159e+13	0.000000e+00	7.087379e-01	7.620109e+14	9.521277e+14	4.669960e+13	9.969586e+03	3.511538e+03	2.390777e+03	0	1.050537e-03
2.300000e+08	3.445240e+13	0.000000e+00	7.087379e-01	7.214113e+14	9.039058e+14	4.645196e+13	9.841787e+03	3.489298e+03	2.375635e+03	0	1.031346e-03
2.400000e+08	3.265813e+13	0.000000e+00	7.087379e-01	6.842255e+14	8.597135e+14	4.620613e+13	9.720689e+03	3.468100e+03	2.361203e+03	0	1.013122e-03
2.500000e+08	3.101035e+13	0.000000e+00	7.087379e-01	6.500720e+14	8.191003e+14	4.596211e+13	9.605736e+03	3.447865e+03	2.347426e+03	0	9.957883e-04
2.600000e+08	2.949317e+13	0.000000e+00	7.087379e-01	6.186219e+14	7.816779e+14	4.571987e+13	9.496433e+03	3.428522e+03	2.334257e+03	0	9.792763e-04
2.700000e+08	2.809279e+13	0.000000e+00	7.087379e-01	5.895899e+14	7.471096e+14	4.547941e+13	9.392341e+03	3.410007e+03	2.321651e+03	0	9.635252e-04
2.800000e+08	2.679722e+13	0.000000e+00	7.087379e-01	5.627279e+14	7.151026e+14	4.524070e+13	9.293065e+03	3.392263e+03	2.309570e+03	0	9.484797e-04
2.900000e+08	2.559599e+13	0.000000e+00	7.087379e-01	5.378191e+14	6.854011e+14	4.500373e+13	9.198248e+03	3.375238e+03	2.297979e+03	0	9.340901e-04
3.000000e+08	2.447990e+13	0.000000e+00	7.087379e-01	5.146733e+14	6.577811e+14	4.476849e+13	9.107571e+03	3.358884e+03	2.286844e+03	0	9.203111e-04
3.100000e+08	2.344088e+13	0.000000e+00	7.087379e-01	4.931234e+14	6.320453e+14	4.453496e+13	9.020745e+03	3.343158e+03	2.276138e+03	0	9.071019e-04
3.200000e+08	2.247179e+13	0.000000e+00	7.087379e-01	4.730216e+14	6.080197e+14	4.430313e+13	8.937508e+03	3.328020e+03	2.265831e+03	0	8.944252e-04
3.300000e+08	2.156631e+13	0.000000e+00	7.087379e-01	4.542373e+14	5.855501e+14	4.407299e+13	8.857621e+03	3.313435e+03	2.255902e+03	0	8.822468e-04
3.400000e+08	2.071883e+13	0.000000e+00	7.087379e-01	4.366542e+14	5.644996e+14	4.384452e+13	8.780867e+03	3.299370e+03	2.246326e+03	0	8.705356e-04
3.500000e+08	1.992436e+13	0.000000e+00	7.087379e-01	4.201690e+14	5.447463e+14	4.361770e+13	8.707049e+03	3.285795e+03	2.237083e+03	0	8.592632e-04
3.600000e+08	1.917842e+13	0.000000e+00	7.087379e-01	4.046892e+14	5.261813e+14	4.339253e+13	8.635984e+03	3.272680e+03	2.228154e+03	0	8.484033e-04
3.700000e+08	1.847702e+13	0.000000e+00	7.087379e-01	3.901321e+14	5.087070e+14	4.316900e+13	8.567508e+03	3.260001e+03	2.219522e+03	0	8.379319e-04
3.800000e+08	1.781657e+13	0.000000e+00	7.087379e-01	3.764233e+14	4.922361e+14	4.294707e+13	8.501467e+03	3.247735e+03	2.211170e+03	0	8.278268e-04
3.900000e+08	1.719385e+13	0.000000e+00	7.087379e-01	3.634961e+14	4.766896e+14	4.272676e+13	8.437722e+03	3.235857e+03	2.203084e+03	0	8.180675e-04
4.000000e+08	1.660593e+13	0.000000e+00	7.087379e-01	3.512901e+14	4.619964e+14	4.250803e+13	8.376142e+03	3.224350e+03	2.195249e+03	0	8.086350e-04
4.100000e+08	1.605019e+13	0.000000e+00	7.087379e-01	3.397509e+14	4.480924e+14	4.229088e+13	8.316607e+03	3.213192e+03	2.187653e+03	0	7.995118e-04
4.200000e+08	1.552425e+13	0.000000e+00	7.087379e-01	3.288290e+14	4.349194e+14	4.207530e+13	8.259009e+03	3.202368e+03	2.180283e+03	0	7.906816e-04
4.300000e+08	1.502593e+13	0.000000e+00	7.087379e-01	3.184797e+14	4.224244e+14	4.186127e+13	8.203243e+03	3.191860e+03	2.173129e+03	0	7.821293e-04
4.400000e+08	1.455327e+13	0.000000e+00	7.087379e-01	3.086622e+14	4.105595e+14	4.164878e+13	8.149214e+03	3.181653e+03	2.166180e+03	0	7.738408e-04
4.500000e+08	1.410447e+13	0.000000e+00	7.087379e-01	2.993393e+14	3.992809e+14	4.143782e+13	8.096835e+03	3.171733e+03	2.159426e+03	0	7.658030e-04
4.600000e+08	1.367791e+13	0.000000e+00	7.087379e-01	2.904772e+14	3.885486e+14	4.122837e+13	8.046023e+03	3.162086e+03	2.152858e+03	0	7.580038e-04
4.700000e+08	1.327208e+13	0.000000e+00	7.087379e-01	2.820449e+14	3.783261e+14	4.102042e+13	7.996701e+03	3.152700e+03	2.146468e+03	0	7.504316e-04
4.800000e+08	1.288561e+13	0.000000e+00	7.087379e-01	2.740139e+14	3.685798e+14	4.081396e+13	7.948797e+03	3.143563e+03	2.140247e+03	0	7.430758e-04
4.900000e+08	1.251725e+13	0.000000e+00	7.087379e-01	2.663583e+14	3.592790e+14	4.060898e+13	7.902246e+03	3.134665e+03	2.134189e+03	0	7.359264e-04
5.000000e+08	1.216583e+13	0.000000e+00	7.087379e-01	2.590541e+14	3.503956e+14	4.040547e+13	7.856983e+03	3.125994e+03	2.128285e+03	0	7.289740e-04
5.100000e+08	1.183030e+13	0.000000e+00	7.087379e-01	2.520793e+14	3.419035e+14	4.020341e+13	7.812950e+03	3.117542e+03	2.122530e+03	0	7.222098e-04
5.200000e+08	1.150968e+13	0.000000e+00	7.087379e-01	2.454137e+14	3.337787e+14	4.000279e+13	7.770093e+03	3.109298e+03	2.116918e+03	0	7.156256e-04
5.300000e+08	1.120306e+13	0.000000e+00	7.087379e-01	2.390384e+14	3.259993e+14	3.980361e+13	7.728360e+03	3.101255e+03	2.111442e+03	0	7.092136e-04
5.400000e+08	1.090962e+13	0.000000e+00	7.087379e-01	2.329362e+14	3.185447e+14	3.960584e+13	7.687701e+03	3.093404e+03	2.106096e+03	0	7.029665e-04
5.500000e+08	1.062856e+13	0.000000e+00	7.087379e-01	2.270912e+14	3.113960e+14	3.940948e+13	7.648072e+03	3.085737e+03	2.100877e+03	0	6.968773e-04
5.600000e+08	1.035919e+13	0.000000e+00	7.087379e-01	2.214884e+14	3.045358e+14	3.921451e+13	7.609429e+03	3.078247e+03	2.095778e+03	0	6.909396e-04
5.700000e+08	1.010084e+13	0.000000e+00	7.087379e-01	2.161141e+14	2.979478e+14	3.902093e+13	7.571733e+03	3.070928e+03	2.090794e+03	0	6.851473e-04
5.800000e+08	9.852885e+12	0.000000e+00	7.087379e-01	2.109556e+14	2.916168e+14	3.882873e+13	7.534943e+03	3.063773e+03	2.085923e+03	0	6.794945e-04
5.900000e+08	9.614758e+12	0.000000e+00	7.087379e-01	2.060010e+14	2.855289e+14	3.863788e+13	7.499025e+03	3.056775e+03	2.081158e+03	0	6.739757e-04
6.000000e+08	9.385925e+12	0.000000e+00	7.087379e-01	2.012391e+14	2.796710e+14	3.844839e+13	7.463945e+03	3.049929e+03	2.076498e+03	0	6.685858e-04
6.100000e+08	9.165890e+12	0.000000e+00	7.087379e-01	1.966598e+14	2.740309e+14	3.826024e+13	7.429669e+03	3.043230e+03	2.071936e+03	0	6.633198e-04
6.200000e+08	8.954187e+12	0.000000e+00	7.087379e-01	1.922534e+14	2.685973e+14	3.807341e+13	7.396167e+03	3.036671e+03	2.067471e+03	0	6.581732e-04
6.300000e+08	8.750385e+12	0.000000e+00	7.087379e-01	1.880110e+14	2.633595e+14	3.788791e+13	7.363411e+03	3.030248e+03	2.063098e+03	0	6.531413e-04
6.400000e+08	8.554079e+12	0.000000e+00	7.087379e-01	1.839241e+14	2.583075e+14	3.770371e+13	7.331372e+03	3.023957e+03	2.058814e+03	0	6.482202e-04
6.500000e+08	8.364891e+12	0.000000e+00	7.087379e-01	1.799850e+14	2.534322e+14	3.752081e+13	7.300025e+03	3.017792e+03	2.054617e+03	0	6.434057e-04
6.600000e+08	8.182466e+12	0.000000e+00	7.087379e-01	1.761862e+14	2.487248e+14	3.733920e+13	7.269344e+03	3.011749e+03	2.050503e+03	0	6.386940e-04
6.700000e+08	8.006473e+12	0.000000e+00	7.087379e-01	1.725209e+14	2.441772e+14	3.715887e+13	7.239307e+03	3.005825e+03	2.046470e+03	0	6.340817e-04
6.800000e+08	7.836599e+12	0.000000e+00	7.087379e-01	1.689826e+14	2.397817e+14	3.697980e+13	7.209890e+03	3.000015e+03	2.042514e+03	0	6.295651e-04
6.900000e+08	7.672552e+12	0.000000e+00	7.087379e-01	1.655653e+14	2.355312e+14	3.680199e+13	7.181072e+03	2.994315e+03	2.038634e+03	0	6.251411e-04
7.000000e+08	7.514057e+12	0.000000e+00	7.087379e-01	1.622633e+14	2.314188e+14	3.662542e+13	7.152834e+03	2.988723e+03	2.034826e+03	0	6.208065e-04
7.100000e+08	7.360857e+12	0.000000e+00	7.087379e-01	1.590712e+14	2.274382e+14	3.645009e+13	7.125155e+03	2.983233e+03	2.031089e+03	0	6.165584e-04
7.200000e+08	7.212706e+12	0.000000e+00	7.087379e-01	1.559840e+14	2.235835e+14	3.627599e+13	7.098017e+03	2.977845e+03	2.027420e+03	0	6.123939e-04
7.300000e+08	7.069377e+12	0.000000e+00	7.087379e-01	1.529968e+14	2.198490e+14	3.610310e+13	7.071402e+03	2.972553e+03	2.023817e+03	0	6.083103e-04
7.400000e+08	6.930652e+12	0.000000e+00	7.087379e-01	1.501053e+14	2.162294e+14	3.593142e+13	7.045294e+03	2.967355e+03	2.020278e+03	0	6.043050e-04
7.500000e+08	6.796330e+12	0.000000e+00	7.087379e-01	1.473052e+14	2.127196e+14	3.576094e+13	7.019676e+03	2.962249e+03	2.016802e+03	0	6.003754e-04
7.600000e+08	6.666215e+12	0.000000e+00	7.087379e-01	1.445926e+14	2.093149e+14	3.559164e+13	6.994533e+03	2.957231e+03	2.013385e+03	0	5.965194e-04
7.700000e+08	6.540128e+12	0.000000e+00	7.087379e-01	1.419635e+14	2.060110e+14	3.542352e+13	6.969850e+03	2.952299e+03	2.010027e+03	0	5.927345e-04
7.800000e+08	6.417896e+12	0.000000e+00	7.087379e-01	1.394146e+14	2.028034e+14	3.525657e+13	6.945614e+03	2.947450e+03	2.006726e+03	0	5.890186e-04
7.900000e+08	6.299357e+12	0.000000e+00	7.087379e-01	1.369423e+14	1.996882e+14	3.509078e+13	6.921810e+03	2.942683e+03	2.003480e+03	0	5.853696e-04
8.000000e+08	6.184356e+12	0.000000e+00	7.087379e-01	1.345436e+14	1.966617e+14	3.492614e+13	6.898425e+03	2.937993e+03	2.000288e+03	0	5.817856e-04
8.100000e+08	6.072748e+12	0.000000e+00	7.087379e-01	1.322154e+14	1.937202e+14	3.476265e+13	6.875448e+03	2.933381e+03	1.997147e+03	0	5.782645e-04
8.200000e+08	5.964395e+12	0.000000e+00	7.087379e-01	1.299547e+14	1.908603e+14	3.460028e+13	6.852867e+03	2.928842e+03	1.994057e+03	0	5.748046e-04
8.300000e+08	5.859165e+12	0.000000e+00	7.087379e-01	1.277590e+14	1.880788e+14	3.443903e+13	6.830669e+03	2.924376e+03	1.991016e+03	0	5.714041e-04
8.400000e+08	5.756934e+12	0.000000e+00	7.087379e-01	1.256256e+14	1.853725e+14	3.427890e+13	6.808844e+03	2.919979e+03	1.988023e+03	0	5.680613e-04
8.500000e+08	5.657585e+12	0.000000e+00	7.087379e-01	1.235521e+14	1.827387e+14	3.411988e+13	6.787381e+03	2.915651e+03	1.985077e+03	0	5.647746e-04
8.600000e+08	5.561004e+12	0.000000e+00	7.087379e-01	1.215362e+14	1.801745e+14	3.396195e+13	6.766271e+03	2.911390e+03	1.982175e+03	0	5.615423e-04
8.700000e+08	5.467085e+12	0.000000e+00	7.087379e-01	1.195755e+14	1.776773e+14	3.380510e+13	6.745504e+03	2.907193e+03	1.979318e+03	0	5.583631e-04
8.800000e+08	5.375727e+12	0.000000e+00	7.087379e-01	1.176681e+14	1.752445e+14	3.364934e+13	6.725070e+03	2.903059e+03	1.976503e+03	0	5.552355e-04
8.900000e+08	5.286833e+12	0.000000e+00	7.087379e-01	1.158119e+14	1.728738e+14	3.349465e+13	6.704960e+03	2.898986e+03	1.973730e+03	0	5.521579e-04
9.000000e+08	5.200312e+12	0.000000e+00	7.087379e-01	1.140051e+14	1.705630e+14	3.334101e+13	6.685165e+03	2.894973e+03	1.970998e+03	0	5.491292e-04
9.100000e+08	5.116074e+12	0.000000e+00	7.087379e-01	1.122457e+14	1.683097e+14	3.318843e+13	6.665678e+03	2.891018e+03	1.968305e+03	0	5.461481e-04
9.200000e+08	5.034038e+12	0.000000e+00	7.087379e-01	1.105321e+14	1.661121e+14	3.303690e+13	6.646490e+03	2.887120e+03	1.965651e+03	0	5.432132e-04
9.300000e+08	4.954123e+12	0.000000e+00	7.087379e-01	1.088626e+14	1.639680e+14	3.288640e+13	6.627593e+03	2.883277e+03	1.963035e+03	0	5.403233e-04
9.400000e+08	4.876254e+12	0.000000e+00	7.087379e-01	1.072356e+14	1.618757e+14	3.273693e+13	6.608981e+03	2.879488e+03	1.960455e+03	0	5.374774e-04
9.500000e+08	4.800357e+12	0.000000e+00	7.087379e-01	1.056497e+14	1.598333e+14	3.258848e+13	6.590645e+03	2.875752e+03	1.957911e+03	0	5.346743e-04
9.600000e+08	4.726365e+12	0.000000e+00	7.087379e-01	1.041033e+14	1.578391e+14	3.244105e+13	6.572579e+03	2.872067e+03	1.955402e+03	0	5.319129e-04
9.700000e+08	4.654209e+12	0.000000e+00	7.087379e-01	1.025952e+14	1.558915e+14	3.229462e+13	6.554776e+03	2.868432e+03	1.952928e+03	0	5.291922e-04
9.800000e+08	4.583828e+12	0.000000e+00	7.087379e-01	1.011240e+14	1.539888e+14	3.214918e+13	6.537230e+03	2.864845e+03	1.950486e+03	0	5.265111e-04
9.900000e+08	4.515161e+12	0.000000e+00	7.087379e-01	9.968842e+13	1.521297e+14	3.200473e+13	6.519935e+03	2.861307e+03	1.948077e+03	0	5.238688e-04
1.000000e+09	4.448149e+12	0.000000e+00	7.087379e-01	9.828730e+13	1.503126e+14	3.186127e+13	6.502883e+03	2.857815e+03	1.945700e+03	0	5.212642e-04
1.010000e+09	4.382738e+12	0.000000e+00	7.087379e-01	9.691947e+13	1.485362e+14	3.171877e+13	6.486070e+03	2.854369e+03	1.943353e+03	0	5.186965e-04
1.020000e+09	4.318875e+12	0.000000e+00	7.087379e-01	9.558385e+13	1.467992e+14	3.157724e+13	6.469490e+03	2.850967e+03	1.941037e+03	0	5.161647e-04
1.030000e+09	4.256508e+12	0.000000e+00	7.087379e-01	9.427936e+13	1.451002e+14	3.143667e+13	6.453138e+03	2.847609e+03	1.938751e+03	0	5.136681e-04
1.040000e+09	4.195589e+12	0.000000e+00	7.087379e-01	9.300501e+13	1.434382e+14	3.129705e+13	6.437008e+03	2.844293e+03	1.936493e+03	0	5.112058e-04
1.050000e+09	4.136071e+12	0.000000e+00	7.087379e-01	9.175982e+13	1.418119e+14	3.115837e+13	6.421094e+03	2.841018e+03	1.934264e+03	0	5.087770e-04
1.060000e+09	4.077910e+12	0.000000e+00	7.087379e-01	9.054286e+13	1.402202e+14	3.102063e+13	6.405393e+03	2.837784e+03	1.932062e+03	0	5.063809e-04
1.070000e+09	4.021063e+12	0.000000e+00	7.087379e-01	8.935325e+13	1.386620e+14	3.088382e+13	6.389899e+03	2.834590e+03	1.929887e+03	0	5.040169e-04
1.080000e+09	3.965488e+12	0.000000e+00	7.087379e-01	8.819012e+13	1.371364e+14	3.074792e+13	6.374608e+03	2.831435e+03	1.927739e+03	0	5.016841e-04
1.090000e+09	3.911146e+12	0.000000e+00	7.087379e-01	8.705265e+13	1.356423e+14	3.061294e+13	6.359515e+03	2.828317e+03	1.925616e+03	0	4.993819e-04
1.100000e+09	3.857999e+12	0.000000e+00	7.087379e-01	8.594007e+13	1.341788e+14	3.047887e+13	6.344616e+03	2.825237e+03	1.923519e+03	0	4.971096e-04
1.110000e+09	3.806010e+12	0.000000e+00	7.087379e-01	8.485159e+13	1.327450e+14	3.034569e+13	6.329906e+03	2.822193e+03	1.921447e+03	0	4.948665e-04
1.120000e+09	3.755144e+12	0.000000e+00	7.087379e-01	8.378651e+13	1.313400e+14	3.021341e+13	6.315382e+03	2.819185e+03	1.919399e+03	0	4.926521e-04
1.130000e+09	3.705368e+12	0.000000e+00	7.087379e-01	8.274411e+13	1.299629e+14	3.008201e+13	6.301040e+03	2.816212e+03	1.917375e+03	0	4.904656e-04
1.140000e+09	3.656650e+12	0.000000e+00	7.087379e-01	8.172372e+13	1.286130e+14	2.995149e+13	6.286875e+03	2.813273e+03	1.915374e+03	0	4.883066e-04
1.150000e+09	3.608957e+12	0.000000e+00	7.087379e-01	8.072470e+13	1.272895e+14	2.982184e+13	6.272884e+03	2.810367e+03	1.913395e+03	0	4.861743e-04
1.160000e+09	3.562259e+12	0.000000e+00	7.087379e-01	7.974642e+13	1.259915e+14	2.969306e+13	6.259064e+03	2.807494e+03	1.911439e+03	0	4.840683e-04
1.170000e+09	3.516529e+12	0.000000e+00	7.087379e-01	7.878828e+13	1.247185e+14	2.956514e+13	6.245410e+03	2.804653e+03	1.909505e+03	0	4.819880e-04
1.180000e+09	3.471738e+12	0.000000e+00	7.087379e-01	7.784970e+13	1.234697e+14	2.943806e+13	6.231919e+03	2.801844e+03	1.907592e+03	0	4.799328e-04
1.190000e+09	3.427859e+12	0.000000e+00	7.087379e-01	7.693012e+13	1.222444e+14	2.931183e+13	6.218589e+03	2.799065e+03	1.905701e+03	0	4.779023e-04
1.200000e+09	3.384867e+12	0.000000e+00	7.087379e-01	7.602901e+13	1.210420e+14	2.918644e+13	6.205416e+03	2.796317e+03	1.903830e+03	0	4.758959e-04
1.210000e+09	3.342736e+12	0.000000e+00	7.087379e-01	7.514585e+13	1.198619e+14	2.906188e+13	6.192396e+03	2.793598e+03	1.901979e+03	0	4.739132e-04
1.220000e+09	3.301443e+12	0.000000e+00	7.087379e-01	7.428013e+13	1.187034e+14	2.893815e+13	6.179527e+03	2.790909e+03	1.900147e+03	0	4.719537e-04
1.230000e+09	3.260963e+12	0.000000e+00	7.087379e-01	7.343139e+13	1.175660e+14	2.881523e+13	6.166806e+03	2.788248e+03	1.898336e+03	0	4.700168e-04
1.240000e+09	3.221276e+12	0.000000e+00	7.087379e-01	7.259914e+13	1.164491e+14	2.869313e+13	6.154229e+03	2.785614e+03	1.896543e+03	0	4.681023e-04
1.250000e+09	3.182359e+12	0.000000e+00	7.087379e-01	7.178295e+13	1.153522e+14	2.857183e+13	6.141794e+03	2.783009e+03	1.894769e+03	0	4.662096e-04
1.260000e+09	3.144192e+12	0.000000e+00	7.087379e-01	7.098238e+13	1.142747e+14	2.845133e+13	6.129499e+03	2.780430e+03	1.893013e+03	0	4.643382e-04
1.270000e+09	3.106754e+12	0.000000e+00	7.087379e-01	7.019701e+13	1.132162e+14	2.833163e+13	6.117340e+03	2.777877e+03	1.891275e+03	0	4.624879e-04
1.280000e+09	3.070026e+12	0.000000e+00	7.087379e-01	6.942645e+13	1.121761e+14	2.821271e+13	6.105316e+03	2.775351e+03	1.889555e+03	0	4.606582e-04
1.290000e+09	3.033989e+12	0.000000e+00	7.087379e-01	6.867029e+13	1.111540e+14	2.809458e+13	6.093422e+03	2.772850e+03	1.887852e+03	0	4.588487e-04
1.300000e+09	2.998626e+12	0.000000e+00	7.087379e-01	6.792817e+13	1.101495e+14	2.797722e+13	6.081658e+03	2.770374e+03	1.886166e+03	0	4.570589e-04
1.310000e+09	2.963918e+12	0.000000e+00	7.087379e-01	6.719971e+13	1.091620e+14	2.786063e+13	6.070021e+03	2.767922e+03	1.884497e+03	0	4.552887e-04
1.320000e+09	2.929849e+12	0.000000e+00	7.087379e-01	6.648457e+13	1.081912e+14	2.774480e+13	6.058508e+03	2.765494e+03	1.882844e+03	0	4.535375e-04
1.330000e+09	2.896402e+12	0.000000e+00	7.087379e-01	6.578241e+13	1.072367e+14	2.762973e+13	6.047117e+03	2.763090e+03	1.881208e+03	0	4.518050e-04
1.340000e+09	2.863561e+12	0.000000e+00	7.087379e-01	6.509289e+13	1.062980e+14	2.751542e+13	6.035845e+03	2.760710e+03	1.879587e+03	0	4.500909e-04
1.350000e+09	2.831312e+12	0.000000e+00	7.087379e-01	6.441570e+13	1.053748e+14	2.740185e+13	6.024692e+03	2.758352e+03	1.877982e+03	0	4.483949e-04
1.360000e+09	2.799639e+12	0.000000e+00	7.087379e-01	6.375053e+13	1.044667e+14	2.728902e+13	6.013654e+03	2.756016e+03	1.876392e+03	0	4.467166e-04
