#t		Qconv[W]	Ri[Rp]		R*[Rp]		Qc[W]		Qm[W]		Qr[W]		Tcmb[K]		Tl[K]		Tup[K]		RiFlag		Bs[T]
0.000000e+00	3.294488e+13	0.000000e+00	6.960783e-01	5.277582e+14	8.859632e+14	9.358831e+13	1.079604e+04	3.254530e+03	2.559012e+03	0	1.002768e-03
1.000000e+07	3.202213e+13	0.000000e+00	6.960783e-01	5.137198e+14	8.425334e+14	9.306976e+13	1.074532e+04	3.231605e+03	2.540986e+03	0	9.933166e-04
2.000000e+07	3.115224e+13	0.000000e+00	6.960783e-01	5.004809e+14	8.046759e+14	9.255509e+13	1.069593e+04	3.211128e+03	2.524885e+03	0	9.842393e-04
3.000000e+07	3.032961e+13	0.000000e+00	6.960783e-01	4.879571e+14	7.713416e+14	9.204427e+13	1.064781e+04	3.192700e+03	2.510395e+03	0	9.754984e-04
4.000000e+07	2.954956e+13	0.000000e+00	6.960783e-01	4.760777e+14	7.417239e+14	9.153726e+13	1.060089e+04	3.176005e+03	2.497268e+03	0	9.670626e-04
5.000000e+07	2.880810e+13	0.000000e+00	6.960783e-01	4.647826e+14	7.151937e+14	9.103403e+13	1.055510e+04	3.160783e+03	2.485299e+03	0	9.589055e-04
6.000000e+07	2.810184e+13	0.000000e+00	6.960783e-01	4.540204e+14	6.912537e+14	9.053456e+13	1.051039e+04	3.146825e+03	2.474324e+03	0	9.510044e-04
7.000000e+07	2.742781e+13	0.000000e+00	6.960783e-01	4.437464e+14	6.695066e+14	9.003880e+13	1.046670e+04	3.133956e+03	2.464205e+03	0	9.433395e-04
8.000000e+07	2.678347e+13	0.000000e+00	6.960783e-01	4.339221e+14	6.496316e+14	8.954673e+13	1.042400e+04	3.122031e+03	2.454829e+03	0	9.358938e-04
9.000000e+07	2.616656e+13	0.000000e+00	6.960783e-01	4.245134e+14	6.313671e+14	8.905832e+13	1.038224e+04	3.110931e+03	2.446101e+03	0	9.286523e-04
1.000000e+08	2.557509e+13	0.000000e+00	6.960783e-01	4.154903e+14	6.144980e+14	8.857353e+13	1.034138e+04	3.100554e+03	2.437942e+03	0	9.216018e-04
1.100000e+08	2.500730e+13	0.000000e+00	6.960783e-01	4.068262e+14	5.988459e+14	8.809234e+13	1.030138e+04	3.090813e+03	2.430282e+03	0	9.147306e-04
1.200000e+08	2.446162e+13	0.000000e+00	6.960783e-01	3.984973e+14	5.842619e+14	8.761472e+13	1.026221e+04	3.081635e+03	2.423066e+03	0	9.080282e-04
1.300000e+08	2.393663e+13	0.000000e+00	6.960783e-01	3.904821e+14	5.706208e+14	8.714064e+13	1.022383e+04	3.072958e+03	2.416243e+03	0	9.014852e-04
1.400000e+08	2.343105e+13	0.000000e+00	6.960783e-01	3.827615e+14	5.578167e+14	8.667006e+13	1.018622e+04	3.064728e+03	2.409772e+03	0	8.950931e-04
1.500000e+08	2.294373e+13	0.000000e+00	6.960783e-01	3.753178e+14	5.457593e+14	8.620296e+13	1.014936e+04	3.056898e+03	2.403616e+03	0	8.888442e-04
1.600000e+08	2.247362e+13	0.000000e+00	6.960783e-01	3.681352e+14	5.343715e+14	8.573931e+13	1.011320e+04	3.049429e+03	2.397742e+03	0	8.827315e-04
1.700000e+08	2.201976e+13	0.000000e+00	6.960783e-01	3.611993e+14	5.235868e+14	8.527909e+13	1.007773e+04	3.042285e+03	2.392125e+03	0	8.767487e-04
1.800000e+08	2.158127e+13	0.000000e+00	6.960783e-01	3.544966e+14	5.133477e+14	8.482226e+13	1.004293e+04	3.035436e+03	2.386740e+03	0	8.708899e-04
1.900000e+08	2.115733e+13	0.000000e+00	6.960783e-01	3.480149e+14	5.036043e+14	8.436879e+13	1.000877e+04	3.028855e+03	2.381565e+03	0	8.651497e-04
2.000000e+08	2.074721e+13	0.000000e+00	6.960783e-01	3.417430e+14	4.943129e+14	8.391866e+13	9.975225e+03	3.022518e+03	2.376583e+03	0	8.595231e-04
2.100000e+08	2.035022e+13	0.000000e+00	6.960783e-01	3.356704e+14	4.854353e+14	8.347183e+13	9.942285e+03	3.016406e+03	2.371777e+03	0	8.540055e-04
2.200000e+08	1.996571e+13	0.000000e+00	6.960783e-01	3.297875e+14	4.769377e+14	8.302829e+13	9.909928e+03	3.010499e+03	2.367132e+03	0	8.485926e-04
2.300000e+08	1.959310e+13	0.000000e+00	6.960783e-01	3.240853e+14	4.687905e+14	8.258801e+13	9.878134e+03	3.004782e+03	2.362637e+03	0	8.432803e-04
2.400000e+08	1.923182e+13	0.000000e+00	6.960783e-01	3.185553e+14	4.609670e+14	8.215095e+13	9.846887e+03	2.999239e+03	2.358279e+03	0	8.380651e-04
2.500000e+08	1.888137e+13	0.000000e+00	6.960783e-01	3.131898e+14	4.534439e+14	8.171710e+13	9.816170e+03	2.993859e+03	2.354048e+03	0	8.329433e-04
2.600000e+08	1.854126e+13	0.000000e+00	6.960783e-01	3.079815e+14	4.462000e+14	8.128642e+13	9.785967e+03	2.988630e+03	2.349936e+03	0	8.279117e-04
2.700000e+08	1.821104e+13	0.000000e+00	6.960783e-01	3.029235e+14	4.392165e+14	8.085888e+13	9.756264e+03	2.983540e+03	2.345935e+03	0	8.229672e-04
2.800000e+08	1.789028e+13	0.000000e+00	6.960783e-01	2.980094e+14	4.324763e+14	8.043448e+13	9.727047e+03	2.978582e+03	2.342036e+03	0	8.181069e-04
2.900000e+08	1.757860e+13	0.000000e+00	6.960783e-01	2.932332e+14	4.259640e+14	8.001316e+13	9.698301e+03	2.973746e+03	2.338234e+03	0	8.133279e-04
3.000000e+08	1.727560e+13	0.000000e+00	6.960783e-01	2.885892e+14	4.196659e+14	7.959492e+13	9.670013e+03	2.969025e+03	2.334522e+03	0	8.086279e-04
3.100000e+08	1.698095e+13	0.000000e+00	6.960783e-01	2.840720e+14	4.135691e+14	7.917973e+13	9.642171e+03	2.964413e+03	2.330895e+03	0	8.040041e-04
3.200000e+08	1.669430e+13	0.000000e+00	6.960783e-01	2.796767e+14	4.076623e+14	7.876756e+13	9.614762e+03	2.959902e+03	2.327348e+03	0	7.994544e-04
3.300000e+08	1.641535e+13	0.000000e+00	6.960783e-01	2.753983e+14	4.019348e+14	7.835838e+13	9.587776e+03	2.955488e+03	2.323877e+03	0	7.949765e-04
3.400000e+08	1.614378e+13	0.000000e+00	6.960783e-01	2.712324e+14	3.963771e+14	7.795218e+13	9.561200e+03	2.951165e+03	2.320478e+03	0	7.905683e-04
3.500000e+08	1.587933e+13	0.000000e+00	6.960783e-01	2.671747e+14	3.909803e+14	7.754892e+13	9.535024e+03	2.946928e+03	2.317147e+03	0	7.862277e-04
3.600000e+08	1.562172e+13	0.000000e+00	6.960783e-01	2.632212e+14	3.857363e+14	7.714859e+13	9.509238e+03	2.942773e+03	2.313880e+03	0	7.819528e-04
3.700000e+08	1.537070e+13	0.000000e+00	6.960783e-01	2.593679e+14	3.806375e+14	7.675115e+13	9.483832e+03	2.938697e+03	2.310674e+03	0	7.777419e-04
3.800000e+08	1.512603e+13	0.000000e+00	6.960783e-01	2.556114e+14	3.756771e+14	7.635659e+13	9.458796e+03	2.934694e+03	2.307528e+03	0	7.735931e-04
3.900000e+08	1.488747e+13	0.000000e+00	6.960783e-01	2.519479e+14	3.708484e+14	7.596489e+13	9.434120e+03	2.930763e+03	2.304437e+03	0	7.695047e-04
4.000000e+08	1.465482e+13	0.000000e+00	6.960783e-01	2.483744e+14	3.661457e+14	7.557601e+13	9.409797e+03	2.926900e+03	2.301399e+03	0	7.654752e-04
4.100000e+08	1.442786e+13	0.000000e+00	6.960783e-01	2.448875e+14	3.615632e+14	7.518994e+13	9.385817e+03	2.923102e+03	2.298412e+03	0	7.615030e-04
4.200000e+08	1.420640e+13	0.000000e+00	6.960783e-01	2.414843e+14	3.570959e+14	7.480665e+13	9.362172e+03	2.919366e+03	2.295475e+03	0	7.575866e-04
4.300000e+08	1.399024e+13	0.000000e+00	6.960783e-01	2.381620e+14	3.527387e+14	7.442612e+13	9.338854e+03	2.915690e+03	2.292584e+03	0	7.537245e-04
4.400000e+08	1.377921e+13	0.000000e+00	6.960783e-01	2.349177e+14	3.484873e+14	7.404832e+13	9.315856e+03	2.912071e+03	2.289739e+03	0	7.499155e-04
4.500000e+08	1.357313e+13	0.000000e+00	6.960783e-01	2.317490e+14	3.443374e+14	7.367325e+13	9.293169e+03	2.908508e+03	2.286938e+03	0	7.461582e-04
4.600000e+08	1.337184e+13	0.000000e+00	6.960783e-01	2.286532e+14	3.402848e+14	7.330086e+13	9.270788e+03	2.904999e+03	2.284178e+03	0	7.424514e-04
4.700000e+08	1.317518e+13	0.000000e+00	6.960783e-01	2.256280e+14	3.363260e+14	7.293115e+13	9.248703e+03	2.901540e+03	2.281459e+03	0	7.387937e-04
4.800000e+08	1.298301e+13	0.000000e+00	6.960783e-01	2.226712e+14	3.324573e+14	7.256408e+13	9.226910e+03	2.898132e+03	2.278778e+03	0	7.351840e-04
4.900000e+08	1.279517e+13	0.000000e+00	6.960783e-01	2.197804e+14	3.286754e+14	7.219965e+13	9.205401e+03	2.894771e+03	2.276136e+03	0	7.316213e-04
5.000000e+08	1.261154e+13	0.000000e+00	6.960783e-01	2.169538e+14	3.249772e+14	7.183782e+13	9.184170e+03	2.891457e+03	2.273530e+03	0	7.281043e-04
5.100000e+08	1.243197e+13	0.000000e+00	6.960783e-01	2.141891e+14	3.213596e+14	7.147857e+13	9.163211e+03	2.888187e+03	2.270959e+03	0	7.246321e-04
5.200000e+08	1.225634e+13	0.000000e+00	6.960783e-01	2.114846e+14	3.178198e+14	7.112189e+13	9.142518e+03	2.884962e+03	2.268423e+03	0	7.212036e-04
5.300000e+08	1.208453e+13	0.000000e+00	6.960783e-01	2.088383e+14	3.143552e+14	7.076775e+13	9.122085e+03	2.881778e+03	2.265920e+03	0	7.178178e-04
5.400000e+08	1.191643e+13	0.000000e+00	6.960783e-01	2.062484e+14	3.109632e+14	7.041613e+13	9.101907e+03	2.878636e+03	2.263449e+03	0	7.144738e-04
5.500000e+08	1.175191e+13	0.000000e+00	6.960783e-01	2.037134e+14	3.076414e+14	7.006702e+13	9.081978e+03	2.875533e+03	2.261009e+03	0	7.111706e-04
5.600000e+08	1.159088e+13	0.000000e+00	6.960783e-01	2.012315e+14	3.043875e+14	6.972039e+13	9.062293e+03	2.872469e+03	2.258600e+03	0	7.079073e-04
5.700000e+08	1.143323e+13	0.000000e+00	6.960783e-01	1.988012e+14	3.011993e+14	6.937622e+13	9.042847e+03	2.869442e+03	2.256220e+03	0	7.046832e-04
5.800000e+08	1.127886e+13	0.000000e+00	6.960783e-01	1.964210e+14	2.980748e+14	6.903449e+13	9.023634e+03	2.866452e+03	2.253869e+03	0	7.014972e-04
5.900000e+08	1.112767e+13	0.000000e+00	6.960783e-01	1.940893e+14	2.950118e+14	6.869518e+13	9.004651e+03	2.863498e+03	2.251546e+03	0	6.983487e-04
6.000000e+08	1.097957e+13	0.000000e+00	6.960783e-01	1.918049e+14	2.920086e+14	6.835828e+13	8.985893e+03	2.860578e+03	2.249251e+03	0	6.952368e-04
6.100000e+08	1.083448e+13	0.000000e+00	6.960783e-01	1.895663e+14	2.890633e+14	6.802376e+13	8.967354e+03	2.857692e+03	2.246981e+03	0	6.921608e-04
6.200000e+08	1.069231e+13	0.000000e+00	6.960783e-01	1.873723e+14	2.861742e+14	6.769160e+13	8.949030e+03	2.854839e+03	2.244738e+03	0	6.891199e-04
6.300000e+08	1.055298e+13	0.000000e+00	6.960783e-01	1.852216e+14	2.833396e+14	6.736178e+13	8.930918e+03	2.852019e+03	2.242520e+03	0	6.861135e-04
6.400000e+08	1.041640e+13	0.000000e+00	6.960783e-01	1.831131e+14	2.805579e+14	6.703430e+13	8.913013e+03	2.849229e+03	2.240327e+03	0	6.831407e-04
6.500000e+08	1.028250e+13	0.000000e+00	6.960783e-01	1.810455e+14	2.778277e+14	6.670912e+13	8.895312e+03	2.846470e+03	2.238158e+03	0	6.802009e-04
6.600000e+08	1.015121e+13	0.000000e+00	6.960783e-01	1.790177e+14	2.751473e+14	6.638623e+13	8.877809e+03	2.843742e+03	2.236012e+03	0	6.772935e-04
6.700000e+08	1.002246e+13	0.000000e+00	6.960783e-01	1.770287e+14	2.725156e+14	6.606560e+13	8.860501e+03	2.841042e+03	2.233889e+03	0	6.744179e-04
6.800000e+08	9.896175e+12	0.000000e+00	6.960783e-01	1.750774e+14	2.699310e+14	6.574723e+13	8.843386e+03	2.838371e+03	2.231789e+03	0	6.715733e-04
6.900000e+08	9.772293e+12	0.000000e+00	6.960783e-01	1.731628e+14	2.673923e+14	6.543110e+13	8.826458e+03	2.835728e+03	2.229711e+03	0	6.687592e-04
7.000000e+08	9.650748e+12	0.000000e+00	6.960783e-01	1.712839e+14	2.648982e+14	6.511718e+13	8.809714e+03	2.833112e+03	2.227654e+03	0	6.659750e-04
7.100000e+08	9.531480e+12	0.000000e+00	6.960783e-01	1.694398e+14	2.624476e+14	6.480546e+13	8.793152e+03	2.830523e+03	2.225619e+03	0	6.632202e-04
7.200000e+08	9.414429e+12	0.000000e+00	6.960783e-01	1.676296e+14	2.600393e+14	6.449591e+13	8.776767e+03	2.827960e+03	2.223603e+03	0	6.604941e-04
7.300000e+08	9.299537e+12	0.000000e+00	6.960783e-01	1.658525e+14	2.576722e+14	6.418853e+13	8.760557e+03	2.825423e+03	2.221609e+03	0	6.577962e-04
7.400000e+08	9.186749e+12	0.000000e+00	6.960783e-01	1.641075e+14	2.553452e+14	6.388330e+13	8.744518e+03	2.822911e+03	2.219633e+03	0	6.551261e-04
7.500000e+08	9.076011e+12	0.000000e+00	6.960783e-01	1.623939e+14	2.530573e+14	6.358019e+13	8.728647e+03	2.820424e+03	2.217678e+03	0	6.524831e-04
7.600000e+08	8.967271e+12	0.000000e+00	6.960783e-01	1.607108e+14	2.508075e+14	6.327920e+13	8.712941e+03	2.817961e+03	2.215741e+03	0	6.498668e-04
7.700000e+08	8.860479e+12	0.000000e+00	6.960783e-01	1.590575e+14	2.485948e+14	6.298030e+13	8.697397e+03	2.815521e+03	2.213822e+03	0	6.472768e-04
7.800000e+08	8.755586e+12	0.000000e+00	6.960783e-01	1.574333e+14	2.464184e+14	6.268348e+13	8.682013e+03	2.813105e+03	2.211922e+03	0	6.447124e-04
7.900000e+08	8.652545e+12	0.000000e+00	6.960783e-01	1.558374e+14	2.442772e+14	6.238872e+13	8.666785e+03	2.810711e+03	2.210040e+03	0	6.421733e-04
8.000000e+08	8.551310e+12	0.000000e+00	6.960783e-01	1.542692e+14	2.421705e+14	6.209600e+13	8.651712e+03	2.808340e+03	2.208176e+03	0	6.396590e-04
8.100000e+08	8.451837e+12	0.000000e+00	6.960783e-01	1.527279e+14	2.400974e+14	6.180531e+13	8.636789e+03	2.805990e+03	2.206328e+03	0	6.371690e-04
8.200000e+08	8.354083e+12	0.000000e+00	6.960783e-01	1.512129e+14	2.380572e+14	6.151663e+13	8.622015e+03	2.803662e+03	2.204498e+03	0	6.347030e-04
8.300000e+08	8.258007e+12	0.000000e+00	6.960783e-01	1.497236e+14	2.360489e+14	6.122995e+13	8.607387e+03	2.801355e+03	2.202684e+03	0	6.322605e-04
8.400000e+08	8.163570e+12	0.000000e+00	6.960783e-01	1.482594e+14	2.340720e+14	6.094525e+13	8.592903e+03	2.799069e+03	2.200887e+03	0	6.298411e-04
8.500000e+08	8.070730e+12	0.000000e+00	6.960783e-01	1.468197e+14	2.321255e+14	6.066251e+13	8.578559e+03	2.796803e+03	2.199105e+03	0	6.274444e-04
8.600000e+08	7.979452e+12	0.000000e+00	6.960783e-01	1.454039e+14	2.302090e+14	6.038173e+13	8.564355e+03	2.794558e+03	2.197339e+03	0	6.250700e-04
8.700000e+08	7.889698e+12	0.000000e+00	6.960783e-01	1.440114e+14	2.283215e+14	6.010287e+13	8.550287e+03	2.792331e+03	2.195589e+03	0	6.227175e-04
8.800000e+08	7.801434e+12	0.000000e+00	6.960783e-01	1.426418e+14	2.264626e+14	5.982594e+13	8.536354e+03	2.790125e+03	2.193853e+03	0	6.203866e-04
8.900000e+08	7.714623e+12	0.000000e+00	6.960783e-01	1.412944e+14	2.246315e+14	5.955090e+13	8.522552e+03	2.787937e+03	2.192133e+03	0	6.180769e-04
9.000000e+08	7.629234e+12	0.000000e+00	6.960783e-01	1.399688e+14	2.228276e+14	5.927776e+13	8.508881e+03	2.785767e+03	2.190427e+03	0	6.157881e-04
9.100000e+08	7.545234e+12	0.000000e+00	6.960783e-01	1.386644e+14	2.210503e+14	5.900648e+13	8.495337e+03	2.783616e+03	2.188736e+03	0	6.135197e-04
9.200000e+08	7.462590e+12	0.000000e+00	6.960783e-01	1.373809e+14	2.192991e+14	5.873707e+13	8.481919e+03	2.781484e+03	2.187059e+03	0	6.112715e-04
9.300000e+08	7.381273e+12	0.000000e+00	6.960783e-01	1.361177e+14	2.175734e+14	5.846949e+13	8.468625e+03	2.779368e+03	2.185396e+03	0	6.090431e-04
9.400000e+08	7.301253e+12	0.000000e+00	6.960783e-01	1.348744e+14	2.158725e+14	5.820375e+13	8.455453e+03	2.777271e+03	2.183747e+03	0	6.068342e-04
9.500000e+08	7.222501e+12	0.000000e+00	6.960783e-01	1.336505e+14	2.141960e+14	5.793982e+13	8.442401e+03	2.775190e+03	2.182111e+03	0	6.046446e-04
9.600000e+08	7.144989e+12	0.000000e+00	6.960783e-01	1.324457e+14	2.125434e+14	5.767769e+13	8.429467e+03	2.773126e+03	2.180488e+03	0	6.024738e-04
9.700000e+08	7.068690e+12	0.000000e+00	6.960783e-01	1.312594e+14	2.109141e+14	5.741734e+13	8.416649e+03	2.771079e+03	2.178878e+03	0	6.003215e-04
9.800000e+08	6.993577e+12	0.000000e+00	6.960783e-01	1.300913e+14	2.093077e+14	5.715877e+13	8.403946e+03	2.769049e+03	2.177282e+03	0	5.981876e-04
9.900000e+08	6.919625e+12	0.000000e+00	6.960783e-01	1.289410e+14	2.077237e+14	5.690195e+13	8.391355e+03	2.767034e+03	2.175698e+03	0	5.960717e-04
1.000000e+09	6.846809e+12	0.000000e+00	6.960783e-01	1.278082e+14	2.061616e+14	5.664688e+13	8.378875e+03	2.765035e+03	2.174126e+03	0	5.939734e-04
1.010000e+09	6.775104e+12	0.000000e+00	6.960783e-01	1.266924e+14	2.046209e+14	5.639354e+13	8.366505e+03	2.763052e+03	2.172567e+03	0	5.918926e-04
1.020000e+09	6.704486e+12	0.000000e+00	6.960783e-01	1.255933e+14	2.031013e+14	5.614191e+13	8.354242e+03	2.761085e+03	2.171019e+03	0	5.898290e-04
1.030000e+09	6.634933e+12	0.000000e+00	6.960783e-01	1.245105e+14	2.016023e+14	5.589198e+13	8.342085e+03	2.759132e+03	2.169484e+03	0	5.877823e-04
1.040000e+09	6.566423e+12	0.000000e+00	6.960783e-01	1.234437e+14	2.001235e+14	5.564375e+13	8.330033e+03	2.757194e+03	2.167961e+03	0	5.857522e-04
1.050000e+09	6.498933e+12	0.000000e+00	6.960783e-01	1.223926e+14	1.986645e+14	5.539719e+13	8.318084e+03	2.755271e+03	2.166449e+03	0	5.837385e-04
1.060000e+09	6.432442e+12	0.000000e+00	6.960783e-01	1.213569e+14	1.972248e+14	5.515229e+13	8.306236e+03	2.753363e+03	2.164948e+03	0	5.817409e-04
1.070000e+09	6.366931e+12	0.000000e+00	6.960783e-01	1.203361e+14	1.958042e+14	5.490905e+13	8.294489e+03	2.751469e+03	2.163458e+03	0	5.797592e-04
1.080000e+09	6.302378e+12	0.000000e+00	6.960783e-01	1.193301e+14	1.944022e+14	5.466744e+13	8.282839e+03	2.749588e+03	2.161980e+03	0	5.777932e-04
1.090000e+09	6.238763e+12	0.000000e+00	6.960783e-01	1.183385e+14	1.930185e+14	5.442745e+13	8.271287e+03	2.747722e+03	2.160513e+03	0	5.758426e-04
1.100000e+09	6.176069e+12	0.000000e+00	6.960783e-01	1.173610e+14	1.916528e+14	5.418908e+13	8.259831e+03	2.745869e+03	2.159056e+03	0	5.739072e-04
1.110000e+09	6.114277e+12	0.000000e+00	6.960783e-01	1.163974e+14	1.903046e+14	5.395231e+13	8.248469e+03	2.744030e+03	2.157610e+03	0	5.719868e-04
1.120000e+09	6.053368e+12	0.000000e+00	6.960783e-01	1.154474e+14	1.889736e+14	5.371712e+13	8.237200e+03	2.742204e+03	2.156174e+03	0	5.700811e-04
1.130000e+09	5.993325e+12	0.000000e+00	6.960783e-01	1.145106e+14	1.876596e+14	5.348350e+13	8.226023e+03	2.740391e+03	2.154749e+03	0	5.681900e-04
1.140000e+09	5.934130e+12	0.000000e+00	6.960783e-01	1.135869e+14	1.863622e+14	5.325145e+13	8.214936e+03	2.738592e+03	2.153333e+03	0	5.663131e-04
1.150000e+09	5.875768e+12	0.000000e+00	6.960783e-01	1.126760e+14	1.850811e+14	5.302094e+13	8.203938e+03	2.736804e+03	2.151928e+03	0	5.644504e-04
1.160000e+09	5.818221e+12	0.000000e+00	6.960783e-01	1.117776e+14	1.838160e+14	5.279198e+13	8.193029e+03	2.735030e+03	2.150533e+03	0	5.626017e-04
1.170000e+09	5.761474e+12	0.000000e+00	6.960783e-01	1.108915e+14	1.825666e+14	5.256454e+13	8.182206e+03	2.733268e+03	2.149147e+03	0	5.607666e-04
1.180000e+09	5.705511e+12	0.000000e+00	6.960783e-01	1.100175e+14	1.813325e+14	5.233861e+13	8.171468e+03	2.731518e+03	2.147771e+03	0	5.589451e-04
1.190000e+09	5.650317e+12	0.000000e+00	6.960783e-01	1.091553e+14	1.801137e+14	5.211418e+13	8.160815e+03	2.729780e+03	2.146405e+03	0	5.571369e-04
1.200000e+09	5.595878e+12	0.000000e+00	6.960783e-01	1.083047e+14	1.789096e+14	5.189125e+13	8.150246e+03	2.728054e+03	2.145048e+03	0	5.553418e-04
1.210000e+09	5.542179e+12	0.000000e+00	6.960783e-01	1.074654e+14	1.777202e+14	5.166979e+13	8.139758e+03	2.726340e+03	2.143700e+03	0	5.535597e-04
1.220000e+09	5.489206e+12	0.000000e+00	6.960783e-01	1.066374e+14	1.765451e+14	5.144980e+13	8.129352e+03	2.724637e+03	2.142361e+03	0	5.517904e-04
1.230000e+09	5.436945e+12	0.000000e+00	6.960783e-01	1.058203e+14	1.753840e+14	5.123127e+13	8.119025e+03	2.722946e+03	2.141031e+03	0	5.500337e-04
1.240000e+09	5.385383e+12	0.000000e+00	6.960783e-01	1.050139e+14	1.742368e+14	5.101418e+13	8.108778e+03	2.721266e+03	2.139710e+03	0	5.482894e-04
1.250000e+09	5.334508e+12	0.000000e+00	6.960783e-01	1.042181e+14	1.731032e+14	5.079852e+13	8.098608e+03	2.719597e+03	2.138398e+03	0	5.465573e-04
1.260000e+09	5.284305e+12	0.000000e+00	6.960783e-01	1.034327e+14	1.719830e+14	5.058428e+13	8.088515e+03	2.717939e+03	2.137095e+03	0	5.448374e-04
1.270000e+09	5.234764e+12	0.000000e+00	6.960783e-01	1.026575e+14	1.708758e+14	5.037146e+13	8.078498e+03	2.716292e+03	2.135800e+03	0	5.431294e-04
1.280000e+09	5.185871e+12	0.000000e+00	6.960783e-01	1.018922e+14	1.697815e+14	5.016004e+13	8.068556e+03	2.714656e+03	2.134513e+03	0	5.414332e-04
1.290000e+09	5.137615e+12	0.000000e+00	6.960783e-01	1.011367e+14	1.686999e+14	4.995000e+13	8.058688e+03	2.713031e+03	2.133235e+03	0	5.397485e-04
1.300000e+09	5.089984e+12	0.000000e+00	6.960783e-01	1.003909e+14	1.676308e+14	4.974134e+13	8.048893e+03	2.711416e+03	2.131965e+03	0	5.380753e-04
1.310000e+09	5.042968e+12	0.000000e+00	6.960783e-01	9.965449e+13	1.665739e+14	4.953406e+13	8.039170e+03	2.709811e+03	2.130703e+03	0	5.364135e-04
1.320000e+09	4.996554e+12	0.000000e+00	6.960783e-01	9.892739e+13	1.655291e+14	4.932813e+13	8.029518e+03	2.708216e+03	2.129450e+03	0	5.347627e-04
1.330000e+09	4.950733e+12	0.000000e+00	6.960783e-01	9.820942e+13	1.644961e+14	4.912354e+13	8.019936e+03	2.706632e+03	2.128204e+03	0	5.331230e-04
1.340000e+09	4.905493e+12	0.000000e+00	6.960783e-01	9.750040e+13	1.634747e+14	4.892030e+13	8.010424e+03	2.705058e+03	2.126966e+03	0	5.314942e-04
1.350000e+09	4.860825e+12	0.000000e+00	6.960783e-01	9.680019e+13	1.624648e+14	4.871837e+13	8.000980e+03	2.703493e+03	2.125736e+03	0	5.298760e-04
1.360000e+09	4.816718e+12	0.000000e+00	6.960783e-01	9.610862e+13	1.614661e+14	4.851777e+13	7.991604e+03	2.701938e+03	2.124513e+03	0	5.282685e-04
