#t		Qconv[W]	Ri[Rp]		R*[Rp]		Qc[W]		Qm[W]		Qr[W]		Tcmb[K]		Tl[K]		Tup[K]		RiFlag		Bs[T]
0.000000e+00	3.298146e+13	0.000000e+00	7.029703e-01	4.913699e+14	8.383044e+14	1.040823e+14	1.123152e+04	3.338391e+03	2.630992e+03	0	9.939980e-04
1.000000e+07	3.222065e+13	0.000000e+00	7.029703e-01	4.809001e+14	8.042017e+14	1.035056e+14	1.119141e+04	3.319245e+03	2.615903e+03	0	9.862954e-04
2.000000e+07	3.149710e+13	0.000000e+00	7.029703e-01	4.709386e+14	7.739016e+14	1.029332e+14	1.115215e+04	3.301884e+03	2.602220e+03	0	9.788566e-04
3.000000e+07	3.080728e+13	0.000000e+00	7.029703e-01	4.614373e+14	7.467801e+14	1.023651e+14	1.111370e+04	3.286056e+03	2.589747e+03	0	9.716578e-04
4.000000e+07	3.014816e+13	0.000000e+00	7.029703e-01	4.523553e+14	7.223393e+14	1.018013e+14	1.107602e+04	3.271555e+03	2.578318e+03	0	9.646782e-04
5.000000e+07	2.951713e+13	0.000000e+00	7.029703e-01	4.436569e+14	7.001775e+14	1.012416e+14	1.103908e+04	3.258207e+03	2.567799e+03	0	9.579002e-04
6.000000e+07	2.891194e+13	0.000000e+00	7.029703e-01	4.353116e+14	6.799677e+14	1.006861e+14	1.100284e+04	3.245866e+03	2.558073e+03	0	9.513084e-04
7.000000e+07	2.833061e+13	0.000000e+00	7.029703e-01	4.272922e+14	6.614410e+14	1.001348e+14	1.096729e+04	3.234410e+03	2.549044e+03	0	9.448892e-04
8.000000e+07	2.777139e+13	0.000000e+00	7.029703e-01	4.195750e+14	6.443751e+14	9.958754e+13	1.093238e+04	3.223733e+03	2.540630e+03	0	9.386307e-04
9.000000e+07	2.723274e+13	0.000000e+00	7.029703e-01	4.121392e+14	6.285844e+14	9.904437e+13	1.089810e+04	3.213746e+03	2.532759e+03	0	9.325225e-04
1.000000e+08	2.671329e+13	0.000000e+00	7.029703e-01	4.049659e+14	6.139129e+14	9.850522e+13	1.086443e+04	3.204373e+03	2.525372e+03	0	9.265553e-04
1.100000e+08	2.621180e+13	0.000000e+00	7.029703e-01	3.980385e+14	6.002289e+14	9.797008e+13	1.083133e+04	3.195547e+03	2.518416e+03	0	9.207206e-04
1.200000e+08	2.572719e+13	0.000000e+00	7.029703e-01	3.913419e+14	5.874204e+14	9.743890e+13	1.079881e+04	3.187210e+03	2.511846e+03	0	9.150110e-04
1.300000e+08	2.525844e+13	0.000000e+00	7.029703e-01	3.848625e+14	5.753917e+14	9.691166e+13	1.076682e+04	3.179313e+03	2.505622e+03	0	9.094198e-04
1.400000e+08	2.480466e+13	0.000000e+00	7.029703e-01	3.785881e+14	5.640606e+14	9.638832e+13	1.073536e+04	3.171812e+03	2.499710e+03	0	9.039409e-04
1.500000e+08	2.436503e+13	0.000000e+00	7.029703e-01	3.725075e+14	5.533561e+14	9.586884e+13	1.070442e+04	3.164668e+03	2.494080e+03	0	8.985686e-04
1.600000e+08	2.393880e+13	0.000000e+00	7.029703e-01	3.666103e+14	5.432167e+14	9.535321e+13	1.067396e+04	3.157848e+03	2.488705e+03	0	8.932980e-04
1.700000e+08	2.352528e+13	0.000000e+00	7.029703e-01	3.608874e+14	5.335889e+14	9.484138e+13	1.064399e+04	3.151322e+03	2.483563e+03	0	8.881244e-04
1.800000e+08	2.312383e+13	0.000000e+00	7.029703e-01	3.553299e+14	5.244257e+14	9.433332e+13	1.061448e+04	3.145065e+03	2.478631e+03	0	8.830436e-04
1.900000e+08	2.273388e+13	0.000000e+00	7.029703e-01	3.499301e+14	5.156862e+14	9.382900e+13	1.058543e+04	3.139052e+03	2.473893e+03	0	8.780517e-04
2.000000e+08	2.235488e+13	0.000000e+00	7.029703e-01	3.446804e+14	5.073342e+14	9.332840e+13	1.055681e+04	3.133264e+03	2.469331e+03	0	8.731450e-04
2.100000e+08	2.198635e+13	0.000000e+00	7.029703e-01	3.395742e+14	4.993375e+14	9.283148e+13	1.052862e+04	3.127682e+03	2.464932e+03	0	8.683202e-04
2.200000e+08	2.162780e+13	0.000000e+00	7.029703e-01	3.346050e+14	4.916680e+14	9.233820e+13	1.050085e+04	3.122289e+03	2.460682e+03	0	8.635742e-04
2.300000e+08	2.127882e+13	0.000000e+00	7.029703e-01	3.297671e+14	4.843003e+14	9.184855e+13	1.047348e+04	3.117071e+03	2.456569e+03	0	8.589042e-04
2.400000e+08	2.093899e+13	0.000000e+00	7.029703e-01	3.250547e+14	4.772120e+14	9.136249e+13	1.044651e+04	3.112015e+03	2.452584e+03	0	8.543073e-04
2.500000e+08	2.060794e+13	0.000000e+00	7.029703e-01	3.204629e+14	4.703828e+14	9.087998e+13	1.041992e+04	3.107108e+03	2.448718e+03	0	8.497811e-04
2.600000e+08	2.028531e+13	0.000000e+00	7.029703e-01	3.159868e+14	4.637948e+14	9.040101e+13	1.039370e+04	3.102341e+03	2.444960e+03	0	8.453232e-04
2.700000e+08	1.997078e+13	0.000000e+00	7.029703e-01	3.116217e+14	4.574316e+14	8.992554e+13	1.036785e+04	3.097703e+03	2.441305e+03	0	8.409314e-04
2.800000e+08	1.966403e+13	0.000000e+00	7.029703e-01	3.073635e+14	4.512785e+14	8.945354e+13	1.034235e+04	3.093186e+03	2.437745e+03	0	8.366036e-04
2.900000e+08	1.936476e+13	0.000000e+00	7.029703e-01	3.032081e+14	4.453223e+14	8.898499e+13	1.031720e+04	3.088782e+03	2.434274e+03	0	8.323378e-04
3.000000e+08	1.907270e+13	0.000000e+00	7.029703e-01	2.991517e+14	4.395508e+14	8.851985e+13	1.029239e+04	3.084483e+03	2.430887e+03	0	8.281321e-04
3.100000e+08	1.878758e+13	0.000000e+00	7.029703e-01	2.951907e+14	4.339532e+14	8.805810e+13	1.026791e+04	3.080284e+03	2.427578e+03	0	8.239848e-04
3.200000e+08	1.850916e+13	0.000000e+00	7.029703e-01	2.913218e+14	4.285194e+14	8.759971e+13	1.024375e+04	3.076178e+03	2.424342e+03	0	8.198941e-04
3.300000e+08	1.823719e+13	0.000000e+00	7.029703e-01	2.875416e+14	4.232403e+14	8.714466e+13	1.021991e+04	3.072160e+03	2.421175e+03	0	8.158585e-04
3.400000e+08	1.797146e+13	0.000000e+00	7.029703e-01	2.838471e+14	4.181075e+14	8.669290e+13	1.019637e+04	3.068225e+03	2.418074e+03	0	8.118766e-04
3.500000e+08	1.771175e+13	0.000000e+00	7.029703e-01	2.802354e+14	4.131133e+14	8.624443e+13	1.017314e+04	3.064369e+03	2.415035e+03	0	8.079467e-04
3.600000e+08	1.745786e+13	0.000000e+00	7.029703e-01	2.767038e+14	4.082507e+14	8.579921e+13	1.015020e+04	3.060587e+03	2.412054e+03	0	8.040676e-04
3.700000e+08	1.720959e+13	0.000000e+00	7.029703e-01	2.732495e+14	4.035132e+14	8.535721e+13	1.012755e+04	3.056875e+03	2.409128e+03	0	8.002379e-04
3.800000e+08	1.696677e+13	0.000000e+00	7.029703e-01	2.698702e+14	3.988947e+14	8.491841e+13	1.010518e+04	3.053230e+03	2.406256e+03	0	7.964564e-04
3.900000e+08	1.672922e+13	0.000000e+00	7.029703e-01	2.665633e+14	3.943897e+14	8.448278e+13	1.008308e+04	3.049648e+03	2.403433e+03	0	7.927218e-04
4.000000e+08	1.649677e+13	0.000000e+00	7.029703e-01	2.633266e+14	3.899931e+14	8.405030e+13	1.006126e+04	3.046127e+03	2.400658e+03	0	7.890331e-04
4.100000e+08	1.626926e+13	0.000000e+00	7.029703e-01	2.601580e+14	3.857000e+14	8.362094e+13	1.003970e+04	3.042665e+03	2.397929e+03	0	7.853890e-04
4.200000e+08	1.604654e+13	0.000000e+00	7.029703e-01	2.570552e+14	3.815059e+14	8.319467e+13	1.001840e+04	3.039257e+03	2.395244e+03	0	7.817886e-04
4.300000e+08	1.582846e+13	0.000000e+00	7.029703e-01	2.540164e+14	3.774068e+14	8.277147e+13	9.997348e+03	3.035902e+03	2.392600e+03	0	7.782309e-04
4.400000e+08	1.561488e+13	0.000000e+00	7.029703e-01	2.510396e+14	3.733987e+14	8.235131e+13	9.976547e+03	3.032599e+03	2.389996e+03	0	7.747147e-04
4.500000e+08	1.540567e+13	0.000000e+00	7.029703e-01	2.481229e+14	3.694780e+14	8.193418e+13	9.955988e+03	3.029343e+03	2.387431e+03	0	7.712393e-04
4.600000e+08	1.520071e+13	0.000000e+00	7.029703e-01	2.452647e+14	3.656412e+14	8.152004e+13	9.935668e+03	3.026135e+03	2.384902e+03	0	7.678036e-04
4.700000e+08	1.499985e+13	0.000000e+00	7.029703e-01	2.424631e+14	3.618853e+14	8.110887e+13	9.915580e+03	3.022972e+03	2.382409e+03	0	7.644068e-04
4.800000e+08	1.480300e+13	0.000000e+00	7.029703e-01	2.397166e+14	3.582072e+14	8.070065e+13	9.895721e+03	3.019851e+03	2.379950e+03	0	7.610481e-04
4.900000e+08	1.461002e+13	0.000000e+00	7.029703e-01	2.370236e+14	3.546040e+14	8.029535e+13	9.876087e+03	3.016773e+03	2.377524e+03	0	7.577266e-04
5.000000e+08	1.442082e+13	0.000000e+00	7.029703e-01	2.343827e+14	3.510731e+14	7.989294e+13	9.856672e+03	3.013735e+03	2.375130e+03	0	7.544415e-04
5.100000e+08	1.423529e+13	0.000000e+00	7.029703e-01	2.317923e+14	3.476121e+14	7.949341e+13	9.837472e+03	3.010735e+03	2.372766e+03	0	7.511921e-04
5.200000e+08	1.405333e+13	0.000000e+00	7.029703e-01	2.292511e+14	3.442184e+14	7.909674e+13	9.818484e+03	3.007774e+03	2.370432e+03	0	7.479776e-04
5.300000e+08	1.387483e+13	0.000000e+00	7.029703e-01	2.267577e+14	3.408899e+14	7.870289e+13	9.799704e+03	3.004848e+03	2.368126e+03	0	7.447974e-04
5.400000e+08	1.369971e+13	0.000000e+00	7.029703e-01	2.243109e+14	3.376244e+14	7.831185e+13	9.781127e+03	3.001958e+03	2.365849e+03	0	7.416506e-04
5.500000e+08	1.352788e+13	0.000000e+00	7.029703e-01	2.219094e+14	3.344199e+14	7.792359e+13	9.762749e+03	2.999102e+03	2.363598e+03	0	7.385367e-04
5.600000e+08	1.335924e+13	0.000000e+00	7.029703e-01	2.195520e+14	3.312744e+14	7.753809e+13	9.744568e+03	2.996279e+03	2.361373e+03	0	7.354550e-04
5.700000e+08	1.319371e+13	0.000000e+00	7.029703e-01	2.172375e+14	3.281863e+14	7.715533e+13	9.726579e+03	2.993488e+03	2.359174e+03	0	7.324049e-04
5.800000e+08	1.303122e+13	0.000000e+00	7.029703e-01	2.149649e+14	3.251536e+14	7.677528e+13	9.708779e+03	2.990729e+03	2.356999e+03	0	7.293857e-04
5.900000e+08	1.287168e+13	0.000000e+00	7.029703e-01	2.127330e+14	3.221749e+14	7.639793e+13	9.691165e+03	2.988000e+03	2.354848e+03	0	7.263968e-04
6.000000e+08	1.271501e+13	0.000000e+00	7.029703e-01	2.105408e+14	3.192484e+14	7.602325e+13	9.673733e+03	2.985300e+03	2.352720e+03	0	7.234377e-04
6.100000e+08	1.256115e+13	0.000000e+00	7.029703e-01	2.083874e+14	3.163726e+14	7.565121e+13	9.656480e+03	2.982629e+03	2.350615e+03	0	7.205078e-04
6.200000e+08	1.241002e+13	0.000000e+00	7.029703e-01	2.062717e+14	3.135462e+14	7.528181e+13	9.639403e+03	2.979986e+03	2.348533e+03	0	7.176066e-04
6.300000e+08	1.226156e+13	0.000000e+00	7.029703e-01	2.041927e+14	3.107678e+14	7.491502e+13	9.622499e+03	2.977371e+03	2.346471e+03	0	7.147335e-04
6.400000e+08	1.211570e+13	0.000000e+00	7.029703e-01	2.021497e+14	3.080360e+14	7.455081e+13	9.605764e+03	2.974782e+03	2.344431e+03	0	7.118880e-04
6.500000e+08	1.197237e+13	0.000000e+00	7.029703e-01	2.001417e+14	3.053495e+14	7.418917e+13	9.589196e+03	2.972219e+03	2.342411e+03	0	7.090696e-04
6.600000e+08	1.183151e+13	0.000000e+00	7.029703e-01	1.981678e+14	3.027072e+14	7.383007e+13	9.572793e+03	2.969681e+03	2.340411e+03	0	7.062779e-04
6.700000e+08	1.169306e+13	0.000000e+00	7.029703e-01	1.962272e+14	3.001079e+14	7.347350e+13	9.556550e+03	2.967168e+03	2.338431e+03	0	7.035122e-04
6.800000e+08	1.155697e+13	0.000000e+00	7.029703e-01	1.943192e+14	2.975505e+14	7.311943e+13	9.540467e+03	2.964680e+03	2.336469e+03	0	7.007723e-04
6.900000e+08	1.142318e+13	0.000000e+00	7.029703e-01	1.924430e+14	2.950338e+14	7.276784e+13	9.524539e+03	2.962215e+03	2.334527e+03	0	6.980575e-04
7.000000e+08	1.129163e+13	0.000000e+00	7.029703e-01	1.905978e+14	2.925569e+14	7.241872e+13	9.508764e+03	2.959773e+03	2.332602e+03	0	6.953676e-04
7.100000e+08	1.116227e+13	0.000000e+00	7.029703e-01	1.887828e+14	2.901188e+14	7.207205e+13	9.493140e+03	2.957354e+03	2.330696e+03	0	6.927020e-04
7.200000e+08	1.103505e+13	0.000000e+00	7.029703e-01	1.869975e+14	2.877185e+14	7.172780e+13	9.477664e+03	2.954957e+03	2.328807e+03	0	6.900603e-04
7.300000e+08	1.090992e+13	0.000000e+00	7.029703e-01	1.852410e+14	2.853551e+14	7.138595e+13	9.462335e+03	2.952582e+03	2.326935e+03	0	6.874421e-04
7.400000e+08	1.078684e+13	0.000000e+00	7.029703e-01	1.835128e+14	2.830278e+14	7.104649e+13	9.447149e+03	2.950227e+03	2.325080e+03	0	6.848471e-04
7.500000e+08	1.066575e+13	0.000000e+00	7.029703e-01	1.818122e+14	2.807355e+14	7.070940e+13	9.432104e+03	2.947894e+03	2.323241e+03	0	6.822748e-04
7.600000e+08	1.054660e+13	0.000000e+00	7.029703e-01	1.801386e+14	2.784776e+14	7.037466e+13	9.417198e+03	2.945582e+03	2.321418e+03	0	6.797248e-04
7.700000e+08	1.042937e+13	0.000000e+00	7.029703e-01	1.784913e+14	2.762532e+14	7.004224e+13	9.402429e+03	2.943289e+03	2.319611e+03	0	6.771968e-04
7.800000e+08	1.031400e+13	0.000000e+00	7.029703e-01	1.768699e+14	2.740616e+14	6.971213e+13	9.387794e+03	2.941016e+03	2.317820e+03	0	6.746905e-04
7.900000e+08	1.020045e+13	0.000000e+00	7.029703e-01	1.752736e+14	2.719019e+14	6.938432e+13	9.373292e+03	2.938762e+03	2.316043e+03	0	6.722054e-04
8.000000e+08	1.008868e+13	0.000000e+00	7.029703e-01	1.737020e+14	2.697736e+14	6.905878e+13	9.358921e+03	2.936527e+03	2.314282e+03	0	6.697412e-04
8.100000e+08	9.978653e+12	0.000000e+00	7.029703e-01	1.721546e+14	2.676758e+14	6.873550e+13	9.344678e+03	2.934311e+03	2.312535e+03	0	6.672976e-04
8.200000e+08	9.870332e+12	0.000000e+00	7.029703e-01	1.706307e+14	2.656079e+14	6.841445e+13	9.330561e+03	2.932113e+03	2.310803e+03	0	6.648742e-04
8.300000e+08	9.763678e+12	0.000000e+00	7.029703e-01	1.691299e+14	2.635693e+14	6.809563e+13	9.316569e+03	2.929933e+03	2.309085e+03	0	6.624708e-04
8.400000e+08	9.658657e+12	0.000000e+00	7.029703e-01	1.676518e+14	2.615594e+14	6.777900e+13	9.302700e+03	2.927770e+03	2.307381e+03	0	6.600869e-04
8.500000e+08	9.555232e+12	0.000000e+00	7.029703e-01	1.661957e+14	2.595774e+14	6.746456e+13	9.288952e+03	2.925625e+03	2.305690e+03	0	6.577224e-04
8.600000e+08	9.453370e+12	0.000000e+00	7.029703e-01	1.647613e+14	2.576229e+14	6.715229e+13	9.275322e+03	2.923497e+03	2.304013e+03	0	6.553769e-04
8.700000e+08	9.353039e+12	0.000000e+00	7.029703e-01	1.633481e+14	2.556951e+14	6.684217e+13	9.261810e+03	2.921385e+03	2.302349e+03	0	6.530501e-04
8.800000e+08	9.254205e+12	0.000000e+00	7.029703e-01	1.619557e+14	2.537937e+14	6.653418e+13	9.248414e+03	2.919290e+03	2.300698e+03	0	6.507416e-04
8.900000e+08	9.156838e+12	0.000000e+00	7.029703e-01	1.605836e+14	2.519180e+14	6.622831e+13	9.235131e+03	2.917212e+03	2.299060e+03	0	6.484514e-04
9.000000e+08	9.060908e+12	0.000000e+00	7.029703e-01	1.592314e+14	2.500675e+14	6.592453e+13	9.221961e+03	2.915149e+03	2.297434e+03	0	6.461789e-04
9.100000e+08	8.966384e+12	0.000000e+00	7.029703e-01	1.578987e+14	2.482417e+14	6.562284e+13	9.208901e+03	2.913101e+03	2.295820e+03	0	6.439241e-04
9.200000e+08	8.873238e+12	0.000000e+00	7.029703e-01	1.565852e+14	2.464402e+14	6.532321e+13	9.195950e+03	2.911070e+03	2.294219e+03	0	6.416866e-04
9.300000e+08	8.781443e+12	0.000000e+00	7.029703e-01	1.552903e+14	2.446623e+14	6.502564e+13	9.183107e+03	2.909053e+03	2.292630e+03	0	6.394661e-04
9.400000e+08	8.690970e+12	0.000000e+00	7.029703e-01	1.540138e+14	2.429076e+14	6.473010e+13	9.170370e+03	2.907051e+03	2.291052e+03	0	6.372624e-04
9.500000e+08	8.601793e+12	0.000000e+00	7.029703e-01	1.527552e+14	2.411758e+14	6.443657e+13	9.157737e+03	2.905065e+03	2.289487e+03	0	6.350753e-04
9.600000e+08	8.513887e+12	0.000000e+00	7.029703e-01	1.515143e+14	2.394663e+14	6.414505e+13	9.145206e+03	2.903092e+03	2.287932e+03	0	6.329045e-04
9.700000e+08	8.427225e+12	0.000000e+00	7.029703e-01	1.502907e+14	2.377787e+14	6.385551e+13	9.132778e+03	2.901134e+03	2.286389e+03	0	6.307498e-04
9.800000e+08	8.341784e+12	0.000000e+00	7.029703e-01	1.490840e+14	2.361126e+14	6.356794e+13	9.120449e+03	2.899190e+03	2.284857e+03	0	6.286109e-04
9.900000e+08	8.257539e+12	0.000000e+00	7.029703e-01	1.478939e+14	2.344676e+14	6.328233e+13	9.108220e+03	2.897260e+03	2.283336e+03	0	6.264876e-04
1.000000e+09	8.174468e+12	0.000000e+00	7.029703e-01	1.467201e+14	2.328433e+14	6.299866e+13	9.096087e+03	2.895343e+03	2.281825e+03	0	6.243796e-04
1.010000e+09	8.092547e+12	0.000000e+00	7.029703e-01	1.455623e+14	2.312392e+14	6.271691e+13	9.084051e+03	2.893440e+03	2.280325e+03	0	6.222869e-04
1.020000e+09	8.011754e+12	0.000000e+00	7.029703e-01	1.444201e+14	2.296551e+14	6.243706e+13	9.072109e+03	2.891551e+03	2.278836e+03	0	6.202090e-04
1.030000e+09	7.932068e+12	0.000000e+00	7.029703e-01	1.432933e+14	2.280905e+14	6.215912e+13	9.060261e+03	2.889674e+03	2.277357e+03	0	6.181460e-04
1.040000e+09	7.853467e+12	0.000000e+00	7.029703e-01	1.421815e+14	2.265451e+14	6.188305e+13	9.048505e+03	2.887810e+03	2.275888e+03	0	6.160974e-04
1.050000e+09	7.775931e+12	0.000000e+00	7.029703e-01	1.410846e+14	2.250186e+14	6.160884e+13	9.036840e+03	2.885959e+03	2.274430e+03	0	6.140631e-04
1.060000e+09	7.699439e+12	0.000000e+00	7.029703e-01	1.400022e+14	2.235105e+14	6.133648e+13	9.025265e+03	2.884121e+03	2.272981e+03	0	6.120430e-04
1.070000e+09	7.623973e+12	0.000000e+00	7.029703e-01	1.389340e+14	2.220207e+14	6.106596e+13	9.013778e+03	2.882295e+03	2.271542e+03	0	6.100368e-04
1.080000e+09	7.549513e+12	0.000000e+00	7.029703e-01	1.378798e+14	2.205486e+14	6.079726e+13	9.002379e+03	2.880481e+03	2.270112e+03	0	6.080443e-04
1.090000e+09	7.476040e+12	0.000000e+00	7.029703e-01	1.368393e+14	2.190941e+14	6.053037e+13	8.991066e+03	2.878679e+03	2.268692e+03	0	6.060653e-04
1.100000e+09	7.403536e+12	0.000000e+00	7.029703e-01	1.358123e+14	2.176568e+14	6.026527e+13	8.979838e+03	2.876889e+03	2.267282e+03	0	6.040997e-04
1.110000e+09	7.331984e+12	0.000000e+00	7.029703e-01	1.347985e+14	2.162364e+14	6.000194e+13	8.968695e+03	2.875111e+03	2.265880e+03	0	6.021473e-04
1.120000e+09	7.261365e+12	0.000000e+00	7.029703e-01	1.337977e+14	2.148326e+14	5.974038e+13	8.957634e+03	2.873345e+03	2.264488e+03	0	6.002078e-04
1.130000e+09	7.191663e+12	0.000000e+00	7.029703e-01	1.328097e+14	2.134452e+14	5.948057e+13	8.946655e+03	2.871590e+03	2.263105e+03	0	5.982812e-04
1.140000e+09	7.122862e+12	0.000000e+00	7.029703e-01	1.318341e+14	2.120738e+14	5.922250e+13	8.935757e+03	2.869846e+03	2.261731e+03	0	5.963672e-04
1.150000e+09	7.054945e+12	0.000000e+00	7.029703e-01	1.308709e+14	2.107182e+14	5.896615e+13	8.924939e+03	2.868113e+03	2.260365e+03	0	5.944657e-04
1.160000e+09	6.987897e+12	0.000000e+00	7.029703e-01	1.299198e+14	2.093781e+14	5.871151e+13	8.914200e+03	2.866392e+03	2.259009e+03	0	5.925764e-04
1.170000e+09	6.921701e+12	0.000000e+00	7.029703e-01	1.289805e+14	2.080532e+14	5.845856e+13	8.903538e+03	2.864681e+03	2.257660e+03	0	5.906994e-04
1.180000e+09	6.856343e+12	0.000000e+00	7.029703e-01	1.280529e+14	2.067434e+14	5.820730e+13	8.892954e+03	2.862981e+03	2.256321e+03	0	5.888343e-04
1.190000e+09	6.791808e+12	0.000000e+00	7.029703e-01	1.271367e+14	2.054483e+14	5.795771e+13	8.882445e+03	2.861292e+03	2.254989e+03	0	5.869810e-04
1.200000e+09	6.728082e+12	0.000000e+00	7.029703e-01	1.262318e+14	2.041676e+14	5.770978e+13	8.872012e+03	2.859613e+03	2.253666e+03	0	5.851394e-04
1.210000e+09	6.665150e+12	0.000000e+00	7.029703e-01	1.253379e+14	2.029013e+14	5.746349e+13	8.861652e+03	2.857945e+03	2.252351e+03	0	5.833093e-04
1.220000e+09	6.602999e+12	0.000000e+00	7.029703e-01	1.244550e+14	2.016490e+14	5.721883e+13	8.851366e+03	2.856287e+03	2.251044e+03	0	5.814905e-04
1.230000e+09	6.541616e+12	0.000000e+00	7.029703e-01	1.235827e+14	2.004104e+14	5.697579e+13	8.841152e+03	2.854638e+03	2.249746e+03	0	5.796830e-04
1.240000e+09	6.480986e+12	0.000000e+00	7.029703e-01	1.227209e+14	1.991855e+14	5.673436e+13	8.831009e+03	2.853000e+03	2.248455e+03	0	5.778866e-04
1.250000e+09	6.421098e+12	0.000000e+00	7.029703e-01	1.218694e+14	1.979739e+14	5.649452e+13	8.820937e+03	2.851372e+03	2.247171e+03	0	5.761010e-04
1.260000e+09	6.361939e+12	0.000000e+00	7.029703e-01	1.210281e+14	1.967754e+14	5.625627e+13	8.810935e+03	2.849754e+03	2.245896e+03	0	5.743263e-04
1.270000e+09	6.303495e+12	0.000000e+00	7.029703e-01	1.201968e+14	1.955899e+14	5.601958e+13	8.801001e+03	2.848145e+03	2.244628e+03	0	5.725622e-04
1.280000e+09	6.245756e+12	0.000000e+00	7.029703e-01	1.193753e+14	1.944171e+14	5.578445e+13	8.791136e+03	2.846546e+03	2.243368e+03	0	5.708087e-04
1.290000e+09	6.188709e+12	0.000000e+00	7.029703e-01	1.185634e+14	1.932569e+14	5.555086e+13	8.781338e+03	2.844956e+03	2.242115e+03	0	5.690655e-04
1.300000e+09	6.132344e+12	0.000000e+00	7.029703e-01	1.177610e+14	1.921090e+14	5.531881e+13	8.771606e+03	2.843375e+03	2.240869e+03	0	5.673326e-04
1.310000e+09	6.076647e+12	0.000000e+00	7.029703e-01	1.169680e+14	1.909732e+14	5.508828e+13	8.761940e+03	2.841804e+03	2.239631e+03	0	5.656098e-04
1.320000e+09	6.021610e+12	0.000000e+00	7.029703e-01	1.161841e+14	1.898494e+14	5.485926e+13	8.752339e+03	2.840242e+03	2.238400e+03	0	5.638970e-04
1.330000e+09	5.967220e+12	0.000000e+00	7.029703e-01	1.154093e+14	1.887374e+14	5.463173e+13	8.742802e+03	2.838689e+03	2.237176e+03	0	5.621940e-04
1.340000e+09	5.913467e+12	0.000000e+00	7.029703e-01	1.146433e+14	1.876369e+14	5.440570e+13	8.733329e+03	2.837145e+03	2.235959e+03	0	5.605009e-04
1.350000e+09	5.860341e+12	0.000000e+00	7.029703e-01	1.138861e+14	1.865479e+14	5.418113e+13	8.723919e+03	2.835609e+03	2.234749e+03	0	5.588173e-04
1.360000e+09	5.807831e+12	0.000000e+00	7.029703e-01	1.131375e+14	1.854701e+14	5.395804e+13	8.714570e+03	2.834082e+03	2.233545e+03	0	5.571433e-04
