#t		Qconv[W]	Ri[Rp]		R*[Rp]		Qc[W]		Qm[W]		Qr[W]		Tcmb[K]		Tl[K]		Tup[K]		RiFlag		Bs[T]
0.000000e+00	4.146719e+13	0.000000e+00	7.029703e-01	5.864645e+14	8.818474e+14	1.149402e+14	1.195871e+04	3.421091e+03	2.669863e+03	0	1.066879e-03
1.000000e+07	4.057698e+13	0.000000e+00	7.029703e-01	5.749185e+14	8.562491e+14	1.143034e+14	1.191632e+04	3.408116e+03	2.659738e+03	0	1.059189e-03
2.000000e+07	3.972253e+13	0.000000e+00	7.029703e-01	5.638323e+14	8.328039e+14	1.136713e+14	1.187476e+04	3.396090e+03	2.650353e+03	0	1.051702e-03
3.000000e+07	3.890123e+13	0.000000e+00	7.029703e-01	5.531720e+14	8.112175e+14	1.130439e+14	1.183400e+04	3.384894e+03	2.641615e+03	0	1.044403e-03
4.000000e+07	3.811073e+13	0.000000e+00	7.029703e-01	5.429079e+14	7.912465e+14	1.124212e+14	1.179400e+04	3.374428e+03	2.633447e+03	0	1.037280e-03
5.000000e+07	3.734898e+13	0.000000e+00	7.029703e-01	5.330135e+14	7.726878e+14	1.118032e+14	1.175475e+04	3.364607e+03	2.625783e+03	0	1.030323e-03
6.000000e+07	3.661412e+13	0.000000e+00	7.029703e-01	5.234652e+14	7.553707e+14	1.111898e+14	1.171620e+04	3.355357e+03	2.618564e+03	0	1.023520e-03
7.000000e+07	3.590451e+13	0.000000e+00	7.029703e-01	5.142418e+14	7.391512e+14	1.105809e+14	1.167834e+04	3.346616e+03	2.611743e+03	0	1.016865e-03
8.000000e+07	3.521865e+13	0.000000e+00	7.029703e-01	5.053242e+14	7.239069e+14	1.099766e+14	1.164115e+04	3.338330e+03	2.605276e+03	0	1.010349e-03
9.000000e+07	3.455518e+13	0.000000e+00	7.029703e-01	4.966949e+14	7.095331e+14	1.093767e+14	1.160459e+04	3.330452e+03	2.599128e+03	0	1.003964e-03
1.000000e+08	3.391289e+13	0.000000e+00	7.029703e-01	4.883384e+14	6.959402e+14	1.087813e+14	1.156866e+04	3.322940e+03	2.593265e+03	0	9.977045e-04
1.100000e+08	3.329063e+13	0.000000e+00	7.029703e-01	4.802400e+14	6.830504e+14	1.081904e+14	1.153333e+04	3.315759e+03	2.587662e+03	0	9.915646e-04
1.200000e+08	3.268739e+13	0.000000e+00	7.029703e-01	4.723867e+14	6.707968e+14	1.076038e+14	1.149858e+04	3.308879e+03	2.582292e+03	0	9.855389e-04
1.300000e+08	3.210222e+13	0.000000e+00	7.029703e-01	4.647664e+14	6.591207e+14	1.070215e+14	1.146440e+04	3.302270e+03	2.577134e+03	0	9.796224e-04
1.400000e+08	3.153425e+13	0.000000e+00	7.029703e-01	4.573677e+14	6.479711e+14	1.064436e+14	1.143076e+04	3.295910e+03	2.572171e+03	0	9.738106e-04
1.500000e+08	3.098266e+13	0.000000e+00	7.029703e-01	4.501804e+14	6.373030e+14	1.058699e+14	1.139766e+04	3.289777e+03	2.567384e+03	0	9.680993e-04
1.600000e+08	3.044672e+13	0.000000e+00	7.029703e-01	4.431948e+14	6.270770e+14	1.053005e+14	1.136508e+04	3.283851e+03	2.562760e+03	0	9.624847e-04
1.700000e+08	2.992572e+13	0.000000e+00	7.029703e-01	4.364021e+14	6.172581e+14	1.047353e+14	1.133299e+04	3.278117e+03	2.558285e+03	0	9.569631e-04
1.800000e+08	2.941901e+13	0.000000e+00	7.029703e-01	4.297938e+14	6.078151e+14	1.041742e+14	1.130140e+04	3.272558e+03	2.553947e+03	0	9.515312e-04
1.900000e+08	2.892599e+13	0.000000e+00	7.029703e-01	4.233622e+14	5.987206e+14	1.036173e+14	1.127029e+04	3.267163e+03	2.549736e+03	0	9.461858e-04
2.000000e+08	2.844610e+13	0.000000e+00	7.029703e-01	4.171000e+14	5.899499e+14	1.030645e+14	1.123963e+04	3.261918e+03	2.545643e+03	0	9.409240e-04
2.100000e+08	2.797879e+13	0.000000e+00	7.029703e-01	4.110003e+14	5.814807e+14	1.025157e+14	1.120943e+04	3.256814e+03	2.541659e+03	0	9.357431e-04
2.200000e+08	2.752357e+13	0.000000e+00	7.029703e-01	4.050568e+14	5.732932e+14	1.019710e+14	1.117967e+04	3.251839e+03	2.537777e+03	0	9.306404e-04
2.300000e+08	2.707996e+13	0.000000e+00	7.029703e-01	3.992633e+14	5.653696e+14	1.014302e+14	1.115034e+04	3.246987e+03	2.533991e+03	0	9.256135e-04
2.400000e+08	2.664753e+13	0.000000e+00	7.029703e-01	3.936141e+14	5.576935e+14	1.008935e+14	1.112142e+04	3.242249e+03	2.530293e+03	0	9.206601e-04
2.500000e+08	2.622585e+13	0.000000e+00	7.029703e-01	3.881039e+14	5.502503e+14	1.003606e+14	1.109291e+04	3.237617e+03	2.526678e+03	0	9.157780e-04
2.600000e+08	2.581453e+13	0.000000e+00	7.029703e-01	3.827276e+14	5.430265e+14	9.983170e+13	1.106480e+04	3.233086e+03	2.523142e+03	0	9.109651e-04
2.700000e+08	2.541318e+13	0.000000e+00	7.029703e-01	3.774802e+14	5.360101e+14	9.930663e+13	1.103708e+04	3.228650e+03	2.519680e+03	0	9.062194e-04
2.800000e+08	2.502146e+13	0.000000e+00	7.029703e-01	3.723573e+14	5.291898e+14	9.878539e+13	1.100973e+04	3.224302e+03	2.516287e+03	0	9.015391e-04
2.900000e+08	2.463903e+13	0.000000e+00	7.029703e-01	3.673545e+14	5.225554e+14	9.826796e+13	1.098276e+04	3.220039e+03	2.512960e+03	0	8.969224e-04
3.000000e+08	2.426556e+13	0.000000e+00	7.029703e-01	3.624676e+14	5.160976e+14	9.775430e+13	1.095614e+04	3.215857e+03	2.509696e+03	0	8.923675e-04
3.100000e+08	2.390075e+13	0.000000e+00	7.029703e-01	3.576927e+14	5.098077e+14	9.724438e+13	1.092988e+04	3.211750e+03	2.506491e+03	0	8.878729e-04
3.200000e+08	2.354430e+13	0.000000e+00	7.029703e-01	3.530261e+14	5.036777e+14	9.673817e+13	1.090396e+04	3.207715e+03	2.503342e+03	0	8.834370e-04
3.300000e+08	2.319594e+13	0.000000e+00	7.029703e-01	3.484641e+14	4.977002e+14	9.623564e+13	1.087838e+04	3.203749e+03	2.500247e+03	0	8.790583e-04
3.400000e+08	2.285541e+13	0.000000e+00	7.029703e-01	3.440034e+14	4.918685e+14	9.573676e+13	1.085313e+04	3.199849e+03	2.497203e+03	0	8.747353e-04
3.500000e+08	2.252245e+13	0.000000e+00	7.029703e-01	3.396407e+14	4.861760e+14	9.524150e+13	1.082820e+04	3.196011e+03	2.494208e+03	0	8.704667e-04
3.600000e+08	2.219681e+13	0.000000e+00	7.029703e-01	3.353729e+14	4.806170e+14	9.474983e+13	1.080358e+04	3.192234e+03	2.491260e+03	0	8.662513e-04
3.700000e+08	2.187828e+13	0.000000e+00	7.029703e-01	3.311971e+14	4.751859e+14	9.426173e+13	1.077927e+04	3.188513e+03	2.488357e+03	0	8.620876e-04
3.800000e+08	2.156662e+13	0.000000e+00	7.029703e-01	3.271102e+14	4.698775e+14	9.377715e+13	1.075527e+04	3.184849e+03	2.485497e+03	0	8.579745e-04
3.900000e+08	2.126163e+13	0.000000e+00	7.029703e-01	3.231098e+14	4.646871e+14	9.329608e+13	1.073156e+04	3.181237e+03	2.482678e+03	0	8.539108e-04
4.000000e+08	2.096310e+13	0.000000e+00	7.029703e-01	3.191930e+14	4.596100e+14	9.281848e+13	1.070814e+04	3.177676e+03	2.479899e+03	0	8.498955e-04
4.100000e+08	2.067084e+13	0.000000e+00	7.029703e-01	3.153575e+14	4.546421e+14	9.234432e+13	1.068500e+04	3.174164e+03	2.477159e+03	0	8.459273e-04
4.200000e+08	2.038466e+13	0.000000e+00	7.029703e-01	3.116007e+14	4.497793e+14	9.187359e+13	1.066213e+04	3.170700e+03	2.474455e+03	0	8.420052e-04
4.300000e+08	2.010437e+13	0.000000e+00	7.029703e-01	3.079205e+14	4.450178e+14	9.140624e+13	1.063954e+04	3.167281e+03	2.471787e+03	0	8.381283e-04
4.400000e+08	1.982982e+13	0.000000e+00	7.029703e-01	3.043145e+14	4.403542e+14	9.094226e+13	1.061722e+04	3.163907e+03	2.469154e+03	0	8.342956e-04
4.500000e+08	1.956083e+13	0.000000e+00	7.029703e-01	3.007806e+14	4.357850e+14	9.048161e+13	1.059515e+04	3.160575e+03	2.466554e+03	0	8.305060e-04
4.600000e+08	1.929725e+13	0.000000e+00	7.029703e-01	2.973169e+14	4.313071e+14	9.002426e+13	1.057334e+04	3.157285e+03	2.463986e+03	0	8.267587e-04
4.700000e+08	1.903891e+13	0.000000e+00	7.029703e-01	2.939212e+14	4.269174e+14	8.957020e+13	1.055178e+04	3.154035e+03	2.461450e+03	0	8.230528e-04
4.800000e+08	1.878568e+13	0.000000e+00	7.029703e-01	2.905917e+14	4.226131e+14	8.911939e+13	1.053047e+04	3.150825e+03	2.458944e+03	0	8.193874e-04
4.900000e+08	1.853741e+13	0.000000e+00	7.029703e-01	2.873266e+14	4.183914e+14	8.867181e+13	1.050940e+04	3.147651e+03	2.456468e+03	0	8.157618e-04
5.000000e+08	1.829396e+13	0.000000e+00	7.029703e-01	2.841241e+14	4.142499e+14	8.822743e+13	1.048856e+04	3.144515e+03	2.454020e+03	0	8.121750e-04
5.100000e+08	1.805521e+13	0.000000e+00	7.029703e-01	2.809825e+14	4.101859e+14	8.778622e+13	1.046795e+04	3.141414e+03	2.451600e+03	0	8.086263e-04
5.200000e+08	1.782102e+13	0.000000e+00	7.029703e-01	2.779001e+14	4.061973e+14	8.734816e+13	1.044757e+04	3.138348e+03	2.449208e+03	0	8.051149e-04
5.300000e+08	1.759128e+13	0.000000e+00	7.029703e-01	2.748755e+14	4.022816e+14	8.691323e+13	1.042742e+04	3.135316e+03	2.446841e+03	0	8.016401e-04
5.400000e+08	1.736586e+13	0.000000e+00	7.029703e-01	2.719070e+14	3.984369e+14	8.648139e+13	1.040748e+04	3.132317e+03	2.444501e+03	0	7.982012e-04
5.500000e+08	1.714465e+13	0.000000e+00	7.029703e-01	2.689931e+14	3.946610e+14	8.605263e+13	1.038776e+04	3.129350e+03	2.442185e+03	0	7.947975e-04
5.600000e+08	1.692754e+13	0.000000e+00	7.029703e-01	2.661325e+14	3.909521e+14	8.562691e+13	1.036824e+04	3.126415e+03	2.439894e+03	0	7.914283e-04
5.700000e+08	1.671442e+13	0.000000e+00	7.029703e-01	2.633238e+14	3.873081e+14	8.520422e+13	1.034894e+04	3.123510e+03	2.437627e+03	0	7.880929e-04
5.800000e+08	1.650520e+13	0.000000e+00	7.029703e-01	2.605657e+14	3.837274e+14	8.478452e+13	1.032983e+04	3.120634e+03	2.435383e+03	0	7.847908e-04
5.900000e+08	1.629976e+13	0.000000e+00	7.029703e-01	2.578568e+14	3.802082e+14	8.436781e+13	1.031093e+04	3.117788e+03	2.433162e+03	0	7.815212e-04
6.000000e+08	1.609803e+13	0.000000e+00	7.029703e-01	2.551960e+14	3.767489e+14	8.395404e+13	1.029222e+04	3.114971e+03	2.430963e+03	0	7.782836e-04
6.100000e+08	1.589989e+13	0.000000e+00	7.029703e-01	2.525820e+14	3.733479e+14	8.354320e+13	1.027371e+04	3.112181e+03	2.428786e+03	0	7.750774e-04
6.200000e+08	1.570527e+13	0.000000e+00	7.029703e-01	2.500136e+14	3.700036e+14	8.313526e+13	1.025538e+04	3.109419e+03	2.426631e+03	0	7.719019e-04
6.300000e+08	1.551407e+13	0.000000e+00	7.029703e-01	2.474898e+14	3.667146e+14	8.273020e+13	1.023724e+04	3.106683e+03	2.424496e+03	0	7.687568e-04
6.400000e+08	1.532622e+13	0.000000e+00	7.029703e-01	2.450094e+14	3.634795e+14	8.232800e+13	1.021928e+04	3.103973e+03	2.422381e+03	0	7.656413e-04
6.500000e+08	1.514163e+13	0.000000e+00	7.029703e-01	2.425715e+14	3.602969e+14	8.192863e+13	1.020150e+04	3.101289e+03	2.420286e+03	0	7.625550e-04
6.600000e+08	1.496021e+13	0.000000e+00	7.029703e-01	2.401749e+14	3.571655e+14	8.153207e+13	1.018390e+04	3.098630e+03	2.418211e+03	0	7.594973e-04
6.700000e+08	1.478190e+13	0.000000e+00	7.029703e-01	2.378187e+14	3.540840e+14	8.113830e+13	1.016647e+04	3.095996e+03	2.416155e+03	0	7.564678e-04
6.800000e+08	1.460662e+13	0.000000e+00	7.029703e-01	2.355020e+14	3.510513e+14	8.074729e+13	1.014921e+04	3.093386e+03	2.414118e+03	0	7.534659e-04
6.900000e+08	1.443431e+13	0.000000e+00	7.029703e-01	2.332237e+14	3.480661e+14	8.035903e+13	1.013212e+04	3.090799e+03	2.412099e+03	0	7.504912e-04
7.000000e+08	1.426488e+13	0.000000e+00	7.029703e-01	2.309831e+14	3.451274e+14	7.997349e+13	1.011520e+04	3.088235e+03	2.410099e+03	0	7.475432e-04
7.100000e+08	1.409827e+13	0.000000e+00	7.029703e-01	2.287791e+14	3.422339e+14	7.959065e+13	1.009843e+04	3.085694e+03	2.408116e+03	0	7.446215e-04
7.200000e+08	1.393441e+13	0.000000e+00	7.029703e-01	2.266111e+14	3.393848e+14	7.921049e+13	1.008183e+04	3.083176e+03	2.406150e+03	0	7.417255e-04
7.300000e+08	1.377325e+13	0.000000e+00	7.029703e-01	2.244781e+14	3.365788e+14	7.883298e+13	1.006538e+04	3.080679e+03	2.404202e+03	0	7.388549e-04
7.400000e+08	1.361472e+13	0.000000e+00	7.029703e-01	2.223794e+14	3.338151e+14	7.845811e+13	1.004909e+04	3.078204e+03	2.402270e+03	0	7.360093e-04
7.500000e+08	1.345877e+13	0.000000e+00	7.029703e-01	2.203142e+14	3.310927e+14	7.808585e+13	1.003295e+04	3.075750e+03	2.400355e+03	0	7.331881e-04
7.600000e+08	1.330532e+13	0.000000e+00	7.029703e-01	2.182817e+14	3.284107e+14	7.771618e+13	1.001695e+04	3.073317e+03	2.398456e+03	0	7.303911e-04
7.700000e+08	1.315433e+13	0.000000e+00	7.029703e-01	2.162813e+14	3.257681e+14	7.734909e+13	1.000111e+04	3.070904e+03	2.396573e+03	0	7.276177e-04
7.800000e+08	1.300575e+13	0.000000e+00	7.029703e-01	2.143121e+14	3.231641e+14	7.698455e+13	9.985408e+03	3.068511e+03	2.394705e+03	0	7.248677e-04
7.900000e+08	1.285951e+13	0.000000e+00	7.029703e-01	2.123736e+14	3.205978e+14	7.662254e+13	9.969850e+03	3.066137e+03	2.392853e+03	0	7.221407e-04
8.000000e+08	1.271557e+13	0.000000e+00	7.029703e-01	2.104650e+14	3.180684e+14	7.626304e+13	9.954433e+03	3.063784e+03	2.391016e+03	0	7.194362e-04
8.100000e+08	1.257388e+13	0.000000e+00	7.029703e-01	2.085856e+14	3.155752e+14	7.590603e+13	9.939154e+03	3.061449e+03	2.389194e+03	0	7.167539e-04
8.200000e+08	1.243438e+13	0.000000e+00	7.029703e-01	2.067350e+14	3.131173e+14	7.555149e+13	9.924010e+03	3.059133e+03	2.387387e+03	0	7.140935e-04
8.300000e+08	1.229704e+13	0.000000e+00	7.029703e-01	2.049124e+14	3.106941e+14	7.519940e+13	9.909001e+03	3.056835e+03	2.385593e+03	0	7.114545e-04
8.400000e+08	1.216180e+13	0.000000e+00	7.029703e-01	2.031172e+14	3.083047e+14	7.484975e+13	9.894123e+03	3.054555e+03	2.383815e+03	0	7.088368e-04
8.500000e+08	1.202862e+13	0.000000e+00	7.029703e-01	2.013490e+14	3.059485e+14	7.450251e+13	9.879376e+03	3.052294e+03	2.382049e+03	0	7.062399e-04
8.600000e+08	1.189745e+13	0.000000e+00	7.029703e-01	1.996070e+14	3.036247e+14	7.415766e+13	9.864756e+03	3.050050e+03	2.380298e+03	0	7.036635e-04
8.700000e+08	1.176826e+13	0.000000e+00	7.029703e-01	1.978908e+14	3.013328e+14	7.381519e+13	9.850263e+03	3.047823e+03	2.378560e+03	0	7.011072e-04
8.800000e+08	1.164100e+13	0.000000e+00	7.029703e-01	1.961998e+14	2.990721e+14	7.347507e+13	9.835894e+03	3.045613e+03	2.376836e+03	0	6.985709e-04
8.900000e+08	1.151564e+13	0.000000e+00	7.029703e-01	1.945335e+14	2.968419e+14	7.313728e+13	9.821647e+03	3.043420e+03	2.375124e+03	0	6.960541e-04
9.000000e+08	1.139213e+13	0.000000e+00	7.029703e-01	1.928914e+14	2.946417e+14	7.280182e+13	9.807521e+03	3.041244e+03	2.373426e+03	0	6.935566e-04
9.100000e+08	1.127043e+13	0.000000e+00	7.029703e-01	1.912729e+14	2.924707e+14	7.246866e+13	9.793514e+03	3.039083e+03	2.371740e+03	0	6.910781e-04
9.200000e+08	1.115051e+13	0.000000e+00	7.029703e-01	1.896777e+14	2.903286e+14	7.213777e+13	9.779624e+03	3.036939e+03	2.370067e+03	0	6.886183e-04
9.300000e+08	1.103233e+13	0.000000e+00	7.029703e-01	1.881053e+14	2.882146e+14	7.180915e+13	9.765850e+03	3.034811e+03	2.368406e+03	0	6.861769e-04
9.400000e+08	1.091586e+13	0.000000e+00	7.029703e-01	1.865552e+14	2.861283e+14	7.148278e+13	9.752189e+03	3.032698e+03	2.366757e+03	0	6.837536e-04
9.500000e+08	1.080106e+13	0.000000e+00	7.029703e-01	1.850269e+14	2.840691e+14	7.115864e+13	9.738641e+03	3.030601e+03	2.365120e+03	0	6.813482e-04
9.600000e+08	1.068790e+13	0.000000e+00	7.029703e-01	1.835200e+14	2.820365e+14	7.083670e+13	9.725203e+03	3.028518e+03	2.363495e+03	0	6.789604e-04
9.700000e+08	1.057635e+13	0.000000e+00	7.029703e-01	1.820341e+14	2.800300e+14	7.051696e+13	9.711875e+03	3.026451e+03	2.361881e+03	0	6.765900e-04
9.800000e+08	1.046637e+13	0.000000e+00	7.029703e-01	1.805688e+14	2.780491e+14	7.019939e+13	9.698654e+03	3.024398e+03	2.360279e+03	0	6.742366e-04
9.900000e+08	1.035794e+13	0.000000e+00	7.029703e-01	1.791237e+14	2.760933e+14	6.988398e+13	9.685539e+03	3.022360e+03	2.358689e+03	0	6.719001e-04
1.000000e+09	1.025101e+13	0.000000e+00	7.029703e-01	1.776983e+14	2.741621e+14	6.957072e+13	9.672529e+03	3.020336e+03	2.357109e+03	0	6.695802e-04
1.010000e+09	1.014558e+13	0.000000e+00	7.029703e-01	1.762924e+14	2.722551e+14	6.925957e+13	9.659623e+03	3.018326e+03	2.355541e+03	0	6.672767e-04
1.020000e+09	1.004160e+13	0.000000e+00	7.029703e-01	1.749056e+14	2.703719e+14	6.895054e+13	9.646818e+03	3.016331e+03	2.353983e+03	0	6.649892e-04
1.030000e+09	9.939046e+12	0.000000e+00	7.029703e-01	1.735374e+14	2.685120e+14	6.864359e+13	9.634113e+03	3.014349e+03	2.352437e+03	0	6.627177e-04
1.040000e+09	9.837894e+12	0.000000e+00	7.029703e-01	1.721875e+14	2.666749e+14	6.833872e+13	9.621508e+03	3.012380e+03	2.350900e+03	0	6.604618e-04
1.050000e+09	9.738117e+12	0.000000e+00	7.029703e-01	1.708556e+14	2.648603e+14	6.803591e+13	9.609000e+03	3.010425e+03	2.349374e+03	0	6.582214e-04
1.060000e+09	9.639687e+12	0.000000e+00	7.029703e-01	1.695414e+14	2.630678e+14	6.773515e+13	9.596589e+03	3.008483e+03	2.347859e+03	0	6.559962e-04
1.070000e+09	9.542581e+12	0.000000e+00	7.029703e-01	1.682444e+14	2.612970e+14	6.743640e+13	9.584274e+03	3.006554e+03	2.346354e+03	0	6.537860e-04
1.080000e+09	9.446773e+12	0.000000e+00	7.029703e-01	1.669645e+14	2.595475e+14	6.713967e+13	9.572052e+03	3.004638e+03	2.344858e+03	0	6.515906e-04
1.090000e+09	9.352239e+12	0.000000e+00	7.029703e-01	1.657012e+14	2.578188e+14	6.684493e+13	9.559923e+03	3.002734e+03	2.343373e+03	0	6.494098e-04
1.100000e+09	9.258955e+12	0.000000e+00	7.029703e-01	1.644543e+14	2.561107e+14	6.655218e+13	9.547885e+03	3.000844e+03	2.341897e+03	0	6.472434e-04
1.110000e+09	9.166899e+12	0.000000e+00	7.029703e-01	1.632235e+14	2.544228e+14	6.626138e+13	9.535938e+03	2.998965e+03	2.340431e+03	0	6.450912e-04
1.120000e+09	9.076048e+12	0.000000e+00	7.029703e-01	1.620085e+14	2.527548e+14	6.597254e+13	9.524080e+03	2.997099e+03	2.338975e+03	0	6.429530e-04
1.130000e+09	8.986381e+12	0.000000e+00	7.029703e-01	1.608090e+14	2.511062e+14	6.568562e+13	9.512310e+03	2.995245e+03	2.337528e+03	0	6.408287e-04
1.140000e+09	8.897875e+12	0.000000e+00	7.029703e-01	1.596247e+14	2.494769e+14	6.540063e+13	9.500627e+03	2.993402e+03	2.336090e+03	0	6.387179e-04
1.150000e+09	8.810510e+12	0.000000e+00	7.029703e-01	1.584554e+14	2.478663e+14	6.511753e+13	9.489029e+03	2.991572e+03	2.334661e+03	0	6.366206e-04
1.160000e+09	8.724266e+12	0.000000e+00	7.029703e-01	1.573007e+14	2.462743e+14	6.483633e+13	9.477517e+03	2.989753e+03	2.333242e+03	0	6.345365e-04
1.170000e+09	8.639122e+12	0.000000e+00	7.029703e-01	1.561605e+14	2.447005e+14	6.455700e+13	9.466088e+03	2.987946e+03	2.331831e+03	0	6.324655e-04
1.180000e+09	8.555060e+12	0.000000e+00	7.029703e-01	1.550344e+14	2.431446e+14	6.427953e+13	9.454742e+03	2.986149e+03	2.330430e+03	0	6.304075e-04
1.190000e+09	8.472059e+12	0.000000e+00	7.029703e-01	1.539223e+14	2.416063e+14	6.400390e+13	9.443478e+03	2.984365e+03	2.329037e+03	0	6.283621e-04
1.200000e+09	8.390102e+12	0.000000e+00	7.029703e-01	1.528239e+14	2.400854e+14	6.373010e+13	9.432294e+03	2.982591e+03	2.327652e+03	0	6.263293e-04
1.210000e+09	8.309170e+12	0.000000e+00	7.029703e-01	1.517389e+14	2.385814e+14	6.345812e+13	9.421189e+03	2.980828e+03	2.326277e+03	0	6.243089e-04
1.220000e+09	8.229246e+12	0.000000e+00	7.029703e-01	1.506671e+14	2.370943e+14	6.318794e+13	9.410164e+03	2.979076e+03	2.324909e+03	0	6.223008e-04
1.230000e+09	8.150311e+12	0.000000e+00	7.029703e-01	1.496083e+14	2.356236e+14	6.291955e+13	9.399216e+03	2.977335e+03	2.323550e+03	0	6.203047e-04
1.240000e+09	8.072349e+12	0.000000e+00	7.029703e-01	1.485622e+14	2.341691e+14	6.265293e+13	9.388344e+03	2.975604e+03	2.322200e+03	0	6.183205e-04
1.250000e+09	7.995344e+12	0.000000e+00	7.029703e-01	1.475288e+14	2.327306e+14	6.238807e+13	9.377549e+03	2.973884e+03	2.320857e+03	0	6.163481e-04
1.260000e+09	7.919279e+12	0.000000e+00	7.029703e-01	1.465076e+14	2.313078e+14	6.212496e+13	9.366829e+03	2.972174e+03	2.319523e+03	0	6.143873e-04
1.270000e+09	7.844138e+12	0.000000e+00	7.029703e-01	1.454986e+14	2.299005e+14	6.186358e+13	9.356182e+03	2.970474e+03	2.318196e+03	0	6.124379e-04
1.280000e+09	7.769905e+12	0.000000e+00	7.029703e-01	1.445015e+14	2.285084e+14	6.160392e+13	9.345609e+03	2.968784e+03	2.316878e+03	0	6.104999e-04
1.290000e+09	7.696566e+12	0.000000e+00	7.029703e-01	1.435162e+14	2.271312e+14	6.134596e+13	9.335108e+03	2.967105e+03	2.315567e+03	0	6.085730e-04
1.300000e+09	7.624105e+12	0.000000e+00	7.029703e-01	1.425424e+14	2.257688e+14	6.108970e+13	9.324678e+03	2.965435e+03	2.314264e+03	0	6.066571e-04
1.310000e+09	7.552508e+12	0.000000e+00	7.029703e-01	1.415799e+14	2.244209e+14	6.083512e+13	9.314319e+03	2.963775e+03	2.312968e+03	0	6.047521e-04
1.320000e+09	7.481761e+12	0.000000e+00	7.029703e-01	1.406286e+14	2.230873e+14	6.058221e+13	9.304030e+03	2.962124e+03	2.311680e+03	0	6.028579e-04
1.330000e+09	7.411849e+12	0.000000e+00	7.029703e-01	1.396883e+14	2.217677e+14	6.033095e+13	9.293810e+03	2.960483e+03	2.310400e+03	0	6.009742e-04
1.340000e+09	7.342758e+12	0.000000e+00	7.029703e-01	1.387588e+14	2.204620e+14	6.008133e+13	9.283658e+03	2.958852e+03	2.309126e+03	0	5.991010e-04
1.350000e+09	7.274477e+12	0.000000e+00	7.029703e-01	1.378399e+14	2.191700e+14	5.983334e+13	9.273573e+03	2.957230e+03	2.307860e+03	0	5.972382e-04
1.360000e+09	7.206990e+12	0.000000e+00	7.029703e-01	1.369314e+14	2.178913e+14	5.958697e+13	9.263556e+03	2.955617e+03	2.306602e+03	0	5.953856e-04
