#t		Qconv[W]	Ri[Rp]		R*[Rp]		Qc[W]		Qm[W]		Qr[W]		Tcmb[K]		Tl[K]		Tup[K]		RiFlag		Bs[T]
0.000000e+00	4.251727e+13	0.000000e+00	7.100000e-01	5.876039e+14	8.417363e+14	1.170282e+14	1.229442e+04	3.457882e+03	2.703535e+03	0	1.070096e-03
1.000000e+07	4.169264e+13	0.000000e+00	7.100000e-01	5.772977e+14	8.226500e+14	1.163798e+14	1.225494e+04	3.448160e+03	2.695934e+03	0	1.063133e-03
2.000000e+07	4.089627e+13	0.000000e+00	7.100000e-01	5.673408e+14	8.048283e+14	1.157362e+14	1.221614e+04	3.439006e+03	2.688777e+03	0	1.056320e-03
3.000000e+07	4.012642e+13	0.000000e+00	7.100000e-01	5.577121e+14	7.881240e+14	1.150974e+14	1.217802e+04	3.430355e+03	2.682013e+03	0	1.049650e-03
4.000000e+07	3.938154e+13	0.000000e+00	7.100000e-01	5.483925e+14	7.724118e+14	1.144634e+14	1.214053e+04	3.422154e+03	2.675601e+03	0	1.043115e-03
5.000000e+07	3.866024e+13	0.000000e+00	7.100000e-01	5.393648e+14	7.575847e+14	1.138342e+14	1.210367e+04	3.414355e+03	2.669504e+03	0	1.036707e-03
6.000000e+07	3.796122e+13	0.000000e+00	7.100000e-01	5.306131e+14	7.435512e+14	1.132096e+14	1.206742e+04	3.406918e+03	2.663689e+03	0	1.030421e-03
7.000000e+07	3.728334e+13	0.000000e+00	7.100000e-01	5.221231e+14	7.302320e+14	1.125897e+14	1.203174e+04	3.399807e+03	2.658130e+03	0	1.024250e-03
8.000000e+07	3.662551e+13	0.000000e+00	7.100000e-01	5.138817e+14	7.175586e+14	1.119744e+14	1.199664e+04	3.392991e+03	2.652801e+03	0	1.018190e-03
9.000000e+07	3.598677e+13	0.000000e+00	7.100000e-01	5.058769e+14	7.054716e+14	1.113636e+14	1.196209e+04	3.386443e+03	2.647681e+03	0	1.012237e-03
1.000000e+08	3.536621e+13	0.000000e+00	7.100000e-01	4.980973e+14	6.939187e+14	1.107574e+14	1.192807e+04	3.380138e+03	2.642751e+03	0	1.006384e-03
1.100000e+08	3.476298e+13	0.000000e+00	7.100000e-01	4.905328e+14	6.828543e+14	1.101557e+14	1.189458e+04	3.374055e+03	2.637995e+03	0	1.000630e-03
1.200000e+08	3.417633e+13	0.000000e+00	7.100000e-01	4.831738e+14	6.722384e+14	1.095585e+14	1.186159e+04	3.368175e+03	2.633398e+03	0	9.949690e-04
1.300000e+08	3.360551e+13	0.000000e+00	7.100000e-01	4.760114e+14	6.620352e+14	1.089657e+14	1.182909e+04	3.362482e+03	2.628947e+03	0	9.893985e-04
1.400000e+08	3.304987e+13	0.000000e+00	7.100000e-01	4.690371e+14	6.522135e+14	1.083772e+14	1.179707e+04	3.356961e+03	2.624630e+03	0	9.839152e-04
1.500000e+08	3.250877e+13	0.000000e+00	7.100000e-01	4.622434e+14	6.427452e+14	1.077931e+14	1.176552e+04	3.351598e+03	2.620437e+03	0	9.785160e-04
1.600000e+08	3.198162e+13	0.000000e+00	7.100000e-01	4.556230e+14	6.336053e+14	1.072134e+14	1.173442e+04	3.346383e+03	2.616359e+03	0	9.731981e-04
1.700000e+08	3.146788e+13	0.000000e+00	7.100000e-01	4.491689e+14	6.247714e+14	1.066379e+14	1.170377e+04	3.341303e+03	2.612388e+03	0	9.679589e-04
1.800000e+08	3.096701e+13	0.000000e+00	7.100000e-01	4.428748e+14	6.162235e+14	1.060666e+14	1.167355e+04	3.336351e+03	2.608516e+03	0	9.627958e-04
1.900000e+08	3.047854e+13	0.000000e+00	7.100000e-01	4.367347e+14	6.079433e+14	1.054996e+14	1.164375e+04	3.331516e+03	2.604736e+03	0	9.577066e-04
2.000000e+08	3.000200e+13	0.000000e+00	7.100000e-01	4.307428e+14	5.999147e+14	1.049367e+14	1.161436e+04	3.326793e+03	2.601043e+03	0	9.526890e-04
2.100000e+08	2.953695e+13	0.000000e+00	7.100000e-01	4.248937e+14	5.921226e+14	1.043780e+14	1.158538e+04	3.322172e+03	2.597431e+03	0	9.477410e-04
2.200000e+08	2.908299e+13	0.000000e+00	7.100000e-01	4.191823e+14	5.845538e+14	1.038233e+14	1.155678e+04	3.317650e+03	2.593895e+03	0	9.428605e-04
2.300000e+08	2.863971e+13	0.000000e+00	7.100000e-01	4.136039e+14	5.771958e+14	1.032728e+14	1.152857e+04	3.313219e+03	2.590430e+03	0	9.380456e-04
2.400000e+08	2.820675e+13	0.000000e+00	7.100000e-01	4.081537e+14	5.700374e+14	1.027263e+14	1.150073e+04	3.308874e+03	2.587034e+03	0	9.332947e-04
2.500000e+08	2.778376e+13	0.000000e+00	7.100000e-01	4.028275e+14	5.630685e+14	1.021838e+14	1.147326e+04	3.304611e+03	2.583701e+03	0	9.286058e-04
2.600000e+08	2.737039e+13	0.000000e+00	7.100000e-01	3.976210e+14	5.562795e+14	1.016452e+14	1.144614e+04	3.300426e+03	2.580429e+03	0	9.239776e-04
2.700000e+08	2.696633e+13	0.000000e+00	7.100000e-01	3.925304e+14	5.496618e+14	1.011106e+14	1.141938e+04	3.296314e+03	2.577214e+03	0	9.194083e-04
2.800000e+08	2.657128e+13	0.000000e+00	7.100000e-01	3.875518e+14	5.432073e+14	1.005799e+14	1.139295e+04	3.292272e+03	2.574053e+03	0	9.148964e-04
2.900000e+08	2.618494e+13	0.000000e+00	7.100000e-01	3.826817e+14	5.369087e+14	1.000531e+14	1.136686e+04	3.288297e+03	2.570945e+03	0	9.104407e-04
3.000000e+08	2.580704e+13	0.000000e+00	7.100000e-01	3.779165e+14	5.307590e+14	9.953006e+13	1.134110e+04	3.284385e+03	2.567887e+03	0	9.060396e-04
3.100000e+08	2.543731e+13	0.000000e+00	7.100000e-01	3.732531e+14	5.247520e+14	9.901088e+13	1.131565e+04	3.280534e+03	2.564876e+03	0	9.016919e-04
3.200000e+08	2.507550e+13	0.000000e+00	7.100000e-01	3.686883e+14	5.188816e+14	9.849548e+13	1.129052e+04	3.276741e+03	2.561910e+03	0	8.973963e-04
3.300000e+08	2.472136e+13	0.000000e+00	7.100000e-01	3.642191e+14	5.131422e+14	9.798382e+13	1.126569e+04	3.273003e+03	2.558988e+03	0	8.931516e-04
3.400000e+08	2.437466e+13	0.000000e+00	7.100000e-01	3.598425e+14	5.075289e+14	9.747588e+13	1.124116e+04	3.269320e+03	2.556108e+03	0	8.889567e-04
3.500000e+08	2.403518e+13	0.000000e+00	7.100000e-01	3.555559e+14	5.020365e+14	9.697162e+13	1.121693e+04	3.265687e+03	2.553268e+03	0	8.848104e-04
3.600000e+08	2.370270e+13	0.000000e+00	7.100000e-01	3.513565e+14	4.966608e+14	9.647102e+13	1.119298e+04	3.262104e+03	2.550467e+03	0	8.807116e-04
3.700000e+08	2.337702e+13	0.000000e+00	7.100000e-01	3.472419e+14	4.913973e+14	9.597405e+13	1.116932e+04	3.258569e+03	2.547703e+03	0	8.766592e-04
3.800000e+08	2.305794e+13	0.000000e+00	7.100000e-01	3.432096e+14	4.862420e+14	9.548067e+13	1.114593e+04	3.255080e+03	2.544975e+03	0	8.726524e-04
3.900000e+08	2.274527e+13	0.000000e+00	7.100000e-01	3.392571e+14	4.811912e+14	9.499086e+13	1.112281e+04	3.251635e+03	2.542281e+03	0	8.686900e-04
4.000000e+08	2.243884e+13	0.000000e+00	7.100000e-01	3.353824e+14	4.762412e+14	9.450458e+13	1.109996e+04	3.248233e+03	2.539622e+03	0	8.647712e-04
4.100000e+08	2.213845e+13	0.000000e+00	7.100000e-01	3.315831e+14	4.713888e+14	9.402182e+13	1.107737e+04	3.244873e+03	2.536994e+03	0	8.608950e-04
4.200000e+08	2.184395e+13	0.000000e+00	7.100000e-01	3.278573e+14	4.666306e+14	9.354253e+13	1.105503e+04	3.241553e+03	2.534399e+03	0	8.570605e-04
4.300000e+08	2.155517e+13	0.000000e+00	7.100000e-01	3.242028e+14	4.619637e+14	9.306669e+13	1.103294e+04	3.238272e+03	2.531834e+03	0	8.532670e-04
4.400000e+08	2.127196e+13	0.000000e+00	7.100000e-01	3.206178e+14	4.573852e+14	9.259428e+13	1.101110e+04	3.235029e+03	2.529298e+03	0	8.495135e-04
4.500000e+08	2.099416e+13	0.000000e+00	7.100000e-01	3.171003e+14	4.528922e+14	9.212526e+13	1.098950e+04	3.231823e+03	2.526792e+03	0	8.457992e-04
4.600000e+08	2.072163e+13	0.000000e+00	7.100000e-01	3.136486e+14	4.484823e+14	9.165961e+13	1.096814e+04	3.228653e+03	2.524313e+03	0	8.421235e-04
4.700000e+08	2.045423e+13	0.000000e+00	7.100000e-01	3.102610e+14	4.441530e+14	9.119730e+13	1.094700e+04	3.225518e+03	2.521862e+03	0	8.384854e-04
4.800000e+08	2.019183e+13	0.000000e+00	7.100000e-01	3.069356e+14	4.399018e+14	9.073830e+13	1.092610e+04	3.222417e+03	2.519437e+03	0	8.348843e-04
4.900000e+08	1.993428e+13	0.000000e+00	7.100000e-01	3.036710e+14	4.357265e+14	9.028258e+13	1.090541e+04	3.219348e+03	2.517038e+03	0	8.313195e-04
5.000000e+08	1.968147e+13	0.000000e+00	7.100000e-01	3.004656e+14	4.316249e+14	8.983013e+13	1.088495e+04	3.216312e+03	2.514665e+03	0	8.277902e-04
5.100000e+08	1.943328e+13	0.000000e+00	7.100000e-01	2.973177e+14	4.275950e+14	8.938091e+13	1.086470e+04	3.213308e+03	2.512315e+03	0	8.242959e-04
5.200000e+08	1.918958e+13	0.000000e+00	7.100000e-01	2.942261e+14	4.236348e+14	8.893489e+13	1.084466e+04	3.210334e+03	2.509990e+03	0	8.208357e-04
5.300000e+08	1.895026e+13	0.000000e+00	7.100000e-01	2.911892e+14	4.197424e+14	8.849206e+13	1.082484e+04	3.207390e+03	2.507689e+03	0	8.174092e-04
5.400000e+08	1.871522e+13	0.000000e+00	7.100000e-01	2.882057e+14	4.159159e+14	8.805238e+13	1.080521e+04	3.204475e+03	2.505410e+03	0	8.140156e-04
5.500000e+08	1.848434e+13	0.000000e+00	7.100000e-01	2.852743e+14	4.121537e+14	8.761582e+13	1.078578e+04	3.201589e+03	2.503153e+03	0	8.106544e-04
5.600000e+08	1.825753e+13	0.000000e+00	7.100000e-01	2.823936e+14	4.084540e+14	8.718238e+13	1.076656e+04	3.198731e+03	2.500919e+03	0	8.073250e-04
5.700000e+08	1.803467e+13	0.000000e+00	7.100000e-01	2.795625e+14	4.048152e+14	8.675201e+13	1.074752e+04	3.195901e+03	2.498706e+03	0	8.040268e-04
5.800000e+08	1.781569e+13	0.000000e+00	7.100000e-01	2.767798e+14	4.012359e+14	8.632469e+13	1.072868e+04	3.193097e+03	2.496514e+03	0	8.007592e-04
5.900000e+08	1.760047e+13	0.000000e+00	7.100000e-01	2.740442e+14	3.977144e+14	8.590040e+13	1.071002e+04	3.190319e+03	2.494342e+03	0	7.975217e-04
6.000000e+08	1.738894e+13	0.000000e+00	7.100000e-01	2.713547e+14	3.942493e+14	8.547912e+13	1.069155e+04	3.187567e+03	2.492190e+03	0	7.943138e-04
6.100000e+08	1.718100e+13	0.000000e+00	7.100000e-01	2.687101e+14	3.908393e+14	8.506081e+13	1.067325e+04	3.184841e+03	2.490058e+03	0	7.911349e-04
6.200000e+08	1.697657e+13	0.000000e+00	7.100000e-01	2.661095e+14	3.874830e+14	8.464546e+13	1.065514e+04	3.182139e+03	2.487946e+03	0	7.879846e-04
6.300000e+08	1.677557e+13	0.000000e+00	7.100000e-01	2.635518e+14	3.841791e+14	8.423304e+13	1.063720e+04	3.179461e+03	2.485852e+03	0	7.848623e-04
6.400000e+08	1.657791e+13	0.000000e+00	7.100000e-01	2.610359e+14	3.809264e+14	8.382354e+13	1.061943e+04	3.176807e+03	2.483777e+03	0	7.817676e-04
6.500000e+08	1.638352e+13	0.000000e+00	7.100000e-01	2.585609e+14	3.777237e+14	8.341691e+13	1.060183e+04	3.174176e+03	2.481720e+03	0	7.787000e-04
6.600000e+08	1.619233e+13	0.000000e+00	7.100000e-01	2.561260e+14	3.745698e+14	8.301315e+13	1.058440e+04	3.171568e+03	2.479681e+03	0	7.756590e-04
6.700000e+08	1.600425e+13	0.000000e+00	7.100000e-01	2.537301e+14	3.714635e+14	8.261223e+13	1.056713e+04	3.168983e+03	2.477660e+03	0	7.726442e-04
6.800000e+08	1.581923e+13	0.000000e+00	7.100000e-01	2.513724e+14	3.684039e+14	8.221412e+13	1.055002e+04	3.166419e+03	2.475656e+03	0	7.696552e-04
6.900000e+08	1.563718e+13	0.000000e+00	7.100000e-01	2.490521e+14	3.653898e+14	8.181880e+13	1.053307e+04	3.163878e+03	2.473669e+03	0	7.666914e-04
7.000000e+08	1.545806e+13	0.000000e+00	7.100000e-01	2.467683e+14	3.624202e+14	8.142626e+13	1.051628e+04	3.161357e+03	2.471698e+03	0	7.637526e-04
7.100000e+08	1.528178e+13	0.000000e+00	7.100000e-01	2.445202e+14	3.594942e+14	8.103646e+13	1.049964e+04	3.158858e+03	2.469744e+03	0	7.608383e-04
7.200000e+08	1.510828e+13	0.000000e+00	7.100000e-01	2.423070e+14	3.566107e+14	8.064939e+13	1.048315e+04	3.156379e+03	2.467806e+03	0	7.579481e-04
7.300000e+08	1.493751e+13	0.000000e+00	7.100000e-01	2.401279e+14	3.537689e+14	8.026503e+13	1.046681e+04	3.153920e+03	2.465883e+03	0	7.550815e-04
7.400000e+08	1.476941e+13	0.000000e+00	7.100000e-01	2.379823e+14	3.509679e+14	7.988335e+13	1.045061e+04	3.151481e+03	2.463977e+03	0	7.522384e-04
7.500000e+08	1.460391e+13	0.000000e+00	7.100000e-01	2.358694e+14	3.482067e+14	7.950433e+13	1.043456e+04	3.149062e+03	2.462085e+03	0	7.494181e-04
7.600000e+08	1.444097e+13	0.000000e+00	7.100000e-01	2.337885e+14	3.454845e+14	7.912795e+13	1.041865e+04	3.146662e+03	2.460209e+03	0	7.466205e-04
7.700000e+08	1.428052e+13	0.000000e+00	7.100000e-01	2.317389e+14	3.428006e+14	7.875418e+13	1.040289e+04	3.144281e+03	2.458347e+03	0	7.438450e-04
7.800000e+08	1.412252e+13	0.000000e+00	7.100000e-01	2.297199e+14	3.401541e+14	7.838302e+13	1.038726e+04	3.141918e+03	2.456500e+03	0	7.410915e-04
7.900000e+08	1.396691e+13	0.000000e+00	7.100000e-01	2.277310e+14	3.375442e+14	7.801443e+13	1.037176e+04	3.139574e+03	2.454667e+03	0	7.383595e-04
8.000000e+08	1.381364e+13	0.000000e+00	7.100000e-01	2.257714e+14	3.349702e+14	7.764840e+13	1.035640e+04	3.137248e+03	2.452848e+03	0	7.356487e-04
8.100000e+08	1.366266e+13	0.000000e+00	7.100000e-01	2.238406e+14	3.324313e+14	7.728491e+13	1.034117e+04	3.134940e+03	2.451044e+03	0	7.329587e-04
8.200000e+08	1.351393e+13	0.000000e+00	7.100000e-01	2.219380e+14	3.299269e+14	7.692393e+13	1.032608e+04	3.132649e+03	2.449253e+03	0	7.302894e-04
8.300000e+08	1.336740e+13	0.000000e+00	7.100000e-01	2.200631e+14	3.274563e+14	7.656545e+13	1.031110e+04	3.130375e+03	2.447475e+03	0	7.276402e-04
8.400000e+08	1.322302e+13	0.000000e+00	7.100000e-01	2.182151e+14	3.250187e+14	7.620944e+13	1.029626e+04	3.128119e+03	2.445711e+03	0	7.250110e-04
8.500000e+08	1.308075e+13	0.000000e+00	7.100000e-01	2.163936e+14	3.226135e+14	7.585589e+13	1.028154e+04	3.125879e+03	2.443959e+03	0	7.224014e-04
8.600000e+08	1.294054e+13	0.000000e+00	7.100000e-01	2.145982e+14	3.202402e+14	7.550478e+13	1.026694e+04	3.123656e+03	2.442221e+03	0	7.198112e-04
8.700000e+08	1.280236e+13	0.000000e+00	7.100000e-01	2.128281e+14	3.178980e+14	7.515608e+13	1.025246e+04	3.121448e+03	2.440495e+03	0	7.172400e-04
8.800000e+08	1.266617e+13	0.000000e+00	7.100000e-01	2.110830e+14	3.155864e+14	7.480979e+13	1.023811e+04	3.119257e+03	2.438782e+03	0	7.146875e-04
8.900000e+08	1.253192e+13	0.000000e+00	7.100000e-01	2.093623e+14	3.133047e+14	7.446587e+13	1.022387e+04	3.117082e+03	2.437081e+03	0	7.121536e-04
9.000000e+08	1.239958e+13	0.000000e+00	7.100000e-01	2.076656e+14	3.110525e+14	7.412431e+13	1.020974e+04	3.114922e+03	2.435393e+03	0	7.096378e-04
9.100000e+08	1.226911e+13	0.000000e+00	7.100000e-01	2.059924e+14	3.088291e+14	7.378509e+13	1.019573e+04	3.112778e+03	2.433716e+03	0	7.071400e-04
9.200000e+08	1.214047e+13	0.000000e+00	7.100000e-01	2.043422e+14	3.066340e+14	7.344820e+13	1.018183e+04	3.110649e+03	2.432052e+03	0	7.046599e-04
9.300000e+08	1.201362e+13	0.000000e+00	7.100000e-01	2.027146e+14	3.044667e+14	7.311361e+13	1.016805e+04	3.108534e+03	2.430398e+03	0	7.021972e-04
9.400000e+08	1.188854e+13	0.000000e+00	7.100000e-01	2.011092e+14	3.023267e+14	7.278131e+13	1.015437e+04	3.106435e+03	2.428757e+03	0	6.997517e-04
9.500000e+08	1.176519e+13	0.000000e+00	7.100000e-01	1.995255e+14	3.002134e+14	7.245128e+13	1.014080e+04	3.104350e+03	2.427127e+03	0	6.973231e-04
9.600000e+08	1.164353e+13	0.000000e+00	7.100000e-01	1.979631e+14	2.981264e+14	7.212349e+13	1.012734e+04	3.102279e+03	2.425508e+03	0	6.949111e-04
9.700000e+08	1.152353e+13	0.000000e+00	7.100000e-01	1.964216e+14	2.960652e+14	7.179794e+13	1.011398e+04	3.100222e+03	2.423900e+03	0	6.925157e-04
9.800000e+08	1.140516e+13	0.000000e+00	7.100000e-01	1.949007e+14	2.940293e+14	7.147461e+13	1.010073e+04	3.098180e+03	2.422303e+03	0	6.901364e-04
9.900000e+08	1.128840e+13	0.000000e+00	7.100000e-01	1.933999e+14	2.920182e+14	7.115347e+13	1.008757e+04	3.096151e+03	2.420717e+03	0	6.877731e-04
1.000000e+09	1.117320e+13	0.000000e+00	7.100000e-01	1.919189e+14	2.900317e+14	7.083451e+13	1.007452e+04	3.094136e+03	2.419141e+03	0	6.854256e-04
1.010000e+09	1.105955e+13	0.000000e+00	7.100000e-01	1.904572e+14	2.880691e+14	7.051772e+13	1.006157e+04	3.092134e+03	2.417576e+03	0	6.830936e-04
1.020000e+09	1.094740e+13	0.000000e+00	7.100000e-01	1.890146e+14	2.861300e+14	7.020307e+13	1.004872e+04	3.090145e+03	2.416021e+03	0	6.807769e-04
1.030000e+09	1.083674e+13	0.000000e+00	7.100000e-01	1.875907e+14	2.842141e+14	6.989055e+13	1.003596e+04	3.088170e+03	2.414476e+03	0	6.784753e-04
1.040000e+09	1.072754e+13	0.000000e+00	7.100000e-01	1.861852e+14	2.823210e+14	6.958014e+13	1.002330e+04	3.086207e+03	2.412942e+03	0	6.761886e-04
1.050000e+09	1.061977e+13	0.000000e+00	7.100000e-01	1.847977e+14	2.804503e+14	6.927183e+13	1.001074e+04	3.084257e+03	2.411418e+03	0	6.739166e-04
1.060000e+09	1.051340e+13	0.000000e+00	7.100000e-01	1.834278e+14	2.786015e+14	6.896560e+13	9.998268e+03	3.082320e+03	2.409903e+03	0	6.716591e-04
1.070000e+09	1.040842e+13	0.000000e+00	7.100000e-01	1.820754e+14	2.767743e+14	6.866143e+13	9.985889e+03	3.080395e+03	2.408398e+03	0	6.694158e-04
1.080000e+09	1.030478e+13	0.000000e+00	7.100000e-01	1.807400e+14	2.749683e+14	6.835931e+13	9.973601e+03	3.078483e+03	2.406903e+03	0	6.671867e-04
1.090000e+09	1.020248e+13	0.000000e+00	7.100000e-01	1.794214e+14	2.731832e+14	6.805921e+13	9.961402e+03	3.076582e+03	2.405417e+03	0	6.649715e-04
1.100000e+09	1.010148e+13	0.000000e+00	7.100000e-01	1.781193e+14	2.714186e+14	6.776114e+13	9.949293e+03	3.074694e+03	2.403941e+03	0	6.627700e-04
1.110000e+09	1.000177e+13	0.000000e+00	7.100000e-01	1.768333e+14	2.696742e+14	6.746506e+13	9.937271e+03	3.072818e+03	2.402473e+03	0	6.605820e-04
1.120000e+09	9.903319e+12	0.000000e+00	7.100000e-01	1.755633e+14	2.679497e+14	6.717097e+13	9.925335e+03	3.070953e+03	2.401015e+03	0	6.584074e-04
1.130000e+09	9.806105e+12	0.000000e+00	7.100000e-01	1.743089e+14	2.662447e+14	6.687884e+13	9.913486e+03	3.069099e+03	2.399567e+03	0	6.562459e-04
1.140000e+09	9.710108e+12	0.000000e+00	7.100000e-01	1.730698e+14	2.645588e+14	6.658867e+13	9.901720e+03	3.067258e+03	2.398127e+03	0	6.540974e-04
1.150000e+09	9.615307e+12	0.000000e+00	7.100000e-01	1.718458e+14	2.628918e+14	6.630043e+13	9.890038e+03	3.065427e+03	2.396695e+03	0	6.519618e-04
1.160000e+09	9.521682e+12	0.000000e+00	7.100000e-01	1.706367e+14	2.612434e+14	6.601412e+13	9.878439e+03	3.063608e+03	2.395273e+03	0	6.498388e-04
1.170000e+09	9.429211e+12	0.000000e+00	7.100000e-01	1.694421e+14	2.596133e+14	6.572972e+13	9.866921e+03	3.061800e+03	2.393859e+03	0	6.477283e-04
1.180000e+09	9.337876e+12	0.000000e+00	7.100000e-01	1.682619e+14	2.580012e+14	6.544720e+13	9.855483e+03	3.060002e+03	2.392454e+03	0	6.456301e-04
1.190000e+09	9.247656e+12	0.000000e+00	7.100000e-01	1.670957e+14	2.564067e+14	6.516657e+13	9.844125e+03	3.058216e+03	2.391057e+03	0	6.435441e-04
1.200000e+09	9.158534e+12	0.000000e+00	7.100000e-01	1.659434e+14	2.548297e+14	6.488780e+13	9.832845e+03	3.056440e+03	2.389669e+03	0	6.414701e-04
1.210000e+09	9.070490e+12	0.000000e+00	7.100000e-01	1.648047e+14	2.532698e+14	6.461087e+13	9.821643e+03	3.054674e+03	2.388288e+03	0	6.394079e-04
1.220000e+09	8.983507e+12	0.000000e+00	7.100000e-01	1.636795e+14	2.517267e+14	6.433579e+13	9.810518e+03	3.052919e+03	2.386916e+03	0	6.373575e-04
1.230000e+09	8.897567e+12	0.000000e+00	7.100000e-01	1.625674e+14	2.502003e+14	6.406252e+13	9.799468e+03	3.051175e+03	2.385552e+03	0	6.353185e-04
1.240000e+09	8.812652e+12	0.000000e+00	7.100000e-01	1.614682e+14	2.486902e+14	6.379106e+13	9.788494e+03	3.049440e+03	2.384196e+03	0	6.332910e-04
1.250000e+09	8.728746e+12	0.000000e+00	7.100000e-01	1.603818e+14	2.471962e+14	6.352139e+13	9.777593e+03	3.047716e+03	2.382848e+03	0	6.312747e-04
1.260000e+09	8.645831e+12	0.000000e+00	7.100000e-01	1.593080e+14	2.457180e+14	6.325349e+13	9.766766e+03	3.046002e+03	2.381508e+03	0	6.292695e-04
1.270000e+09	8.563892e+12	0.000000e+00	7.100000e-01	1.582464e+14	2.442554e+14	6.298737e+13	9.756011e+03	3.044297e+03	2.380175e+03	0	6.272753e-04
1.280000e+09	8.482913e+12	0.000000e+00	7.100000e-01	1.571971e+14	2.428082e+14	6.272299e+13	9.745327e+03	3.042603e+03	2.378850e+03	0	6.252919e-04
1.290000e+09	8.402878e+12	0.000000e+00	7.100000e-01	1.561596e+14	2.413761e+14	6.246035e+13	9.734714e+03	3.040917e+03	2.377532e+03	0	6.233191e-04
1.300000e+09	8.323772e+12	0.000000e+00	7.100000e-01	1.551339e+14	2.399589e+14	6.219943e+13	9.724171e+03	3.039242e+03	2.376222e+03	0	6.213569e-04
1.310000e+09	8.245580e+12	0.000000e+00	7.100000e-01	1.541198e+14	2.385564e+14	6.194023e+13	9.713697e+03	3.037576e+03	2.374920e+03	0	6.194052e-04
1.320000e+09	8.168288e+12	0.000000e+00	7.100000e-01	1.531170e+14	2.371683e+14	6.168272e+13	9.703292e+03	3.035919e+03	2.373625e+03	0	6.174637e-04
1.330000e+09	8.091880e+12	0.000000e+00	7.100000e-01	1.521255e+14	2.357945e+14	6.142690e+13	9.692954e+03	3.034272e+03	2.372337e+03	0	6.155324e-04
1.340000e+09	8.016344e+12	0.000000e+00	7.100000e-01	1.511449e+14	2.344347e+14	6.117275e+13	9.682682e+03	3.032633e+03	2.371056e+03	0	6.136111e-04
1.350000e+09	7.941665e+12	0.000000e+00	7.100000e-01	1.501752e+14	2.330887e+14	6.092025e+13	9.672477e+03	3.031004e+03	2.369782e+03	0	6.116997e-04
1.360000e+09	7.867829e+12	0.000000e+00	7.100000e-01	1.492162e+14	2.317564e+14	6.066941e+13	9.662337e+03	3.029384e+03	2.368515e+03	0	6.097981e-04
