#t		Qconv[W]	Ri[Rp]		R*[Rp]		Qc[W]		Qm[W]		Qr[W]		Tcmb[K]		Tl[K]		Tup[K]		RiFlag		Bs[T]
0.000000e+00	2.914900e+15	0.000000e+00	7.029703e-01	3.388350e+16	2.992371e+15	1.325301e+14	3.463247e+04	4.387955e+03	2.712089e+03	0	4.350955e-03
1.000000e+07	2.527418e+15	0.000000e+00	7.029703e-01	2.939732e+16	1.742376e+16	1.317958e+14	3.274509e+04	6.115073e+03	3.779579e+03	0	4.148926e-03
2.000000e+07	2.179037e+15	0.000000e+00	7.029703e-01	2.536417e+16	2.416405e+16	1.310670e+14	3.109629e+04	6.642013e+03	4.105268e+03	0	3.948798e-03
3.000000e+07	1.892664e+15	0.000000e+00	7.029703e-01	2.204837e+16	2.392708e+16	1.303436e+14	2.966567e+04	6.697719e+03	4.139698e+03	0	3.767626e-03
4.000000e+07	1.657973e+15	0.000000e+00	7.029703e-01	1.933047e+16	2.179839e+16	1.296257e+14	2.841608e+04	6.622445e+03	4.093173e+03	0	3.604977e-03
5.000000e+07	1.463995e+15	0.000000e+00	7.029703e-01	1.708361e+16	1.949557e+16	1.289130e+14	2.731588e+04	6.517677e+03	4.028419e+03	0	3.458516e-03
6.000000e+07	1.302144e+15	0.000000e+00	7.029703e-01	1.520849e+16	1.742321e+16	1.282057e+14	2.633987e+04	6.411368e+03	3.962712e+03	0	3.326057e-03
7.000000e+07	1.165854e+15	0.000000e+00	7.029703e-01	1.362919e+16	1.563562e+16	1.275037e+14	2.546803e+04	6.310802e+03	3.900554e+03	0	3.205713e-03
8.000000e+07	1.050095e+15	0.000000e+00	7.029703e-01	1.228751e+16	1.410572e+16	1.268069e+14	2.468433e+04	6.217445e+03	3.842853e+03	0	3.095895e-03
9.000000e+07	9.509877e+14	0.000000e+00	7.029703e-01	1.113856e+16	1.279330e+16	1.261152e+14	2.397581e+04	6.131124e+03	3.789500e+03	0	2.995263e-03
1.000000e+08	8.655088e+14	0.000000e+00	7.029703e-01	1.014740e+16	1.166137e+16	1.254287e+14	2.333192e+04	6.051239e+03	3.740124e+03	0	2.902689e-03
1.100000e+08	7.912829e+14	0.000000e+00	7.029703e-01	9.286530e+15	1.067906e+16	1.247473e+14	2.274398e+04	5.977126e+03	3.694317e+03	0	2.817219e-03
1.200000e+08	7.264247e+14	0.000000e+00	7.029703e-01	8.534137e+15	9.821357e+15	1.240710e+14	2.220479e+04	5.908169e+03	3.651697e+03	0	2.738043e-03
1.300000e+08	6.694237e+14	0.000000e+00	7.029703e-01	7.872743e+15	9.068078e+15	1.233996e+14	2.170833e+04	5.843821e+03	3.611925e+03	0	2.664467e-03
1.400000e+08	6.190599e+14	0.000000e+00	7.029703e-01	7.288227e+15	8.402883e+15	1.227332e+14	2.124953e+04	5.783602e+03	3.574705e+03	0	2.595898e-03
1.500000e+08	5.743395e+14	0.000000e+00	7.029703e-01	6.769088e+15	7.812476e+15	1.220718e+14	2.082410e+04	5.727099e+03	3.539781e+03	0	2.531820e-03
1.600000e+08	5.344469e+14	0.000000e+00	7.029703e-01	6.305887e+15	7.285963e+15	1.214152e+14	2.042837e+04	5.673949e+03	3.506931e+03	0	2.471790e-03
1.700000e+08	4.987084e+14	0.000000e+00	7.029703e-01	5.890821e+15	6.814358e+15	1.207635e+14	2.005921e+04	5.623838e+03	3.475959e+03	0	2.415418e-03
1.800000e+08	4.665629e+14	0.000000e+00	7.029703e-01	5.517397e+15	6.390197e+15	1.201166e+14	1.971390e+04	5.576490e+03	3.446694e+03	0	2.362364e-03
1.900000e+08	4.375412e+14	0.000000e+00	7.029703e-01	5.180181e+15	6.007245e+15	1.194744e+14	1.939009e+04	5.531662e+03	3.418987e+03	0	2.312329e-03
2.000000e+08	4.112477e+14	0.000000e+00	7.029703e-01	4.874592e+15	5.660257e+15	1.188370e+14	1.908572e+04	5.489140e+03	3.392705e+03	0	2.265050e-03
2.100000e+08	3.873477e+14	0.000000e+00	7.029703e-01	4.596755e+15	5.344800e+15	1.182042e+14	1.879901e+04	5.448733e+03	3.367731e+03	0	2.220293e-03
2.200000e+08	3.655562e+14	0.000000e+00	7.029703e-01	4.343368e+15	5.057103e+15	1.175761e+14	1.852837e+04	5.410274e+03	3.343960e+03	0	2.177851e-03
2.300000e+08	3.456295e+14	0.000000e+00	7.029703e-01	4.111608e+15	4.793946e+15	1.169526e+14	1.827241e+04	5.373611e+03	3.321299e+03	0	2.137537e-03
2.400000e+08	3.273580e+14	0.000000e+00	7.029703e-01	3.899047e+15	4.552565e+15	1.163337e+14	1.802990e+04	5.338608e+03	3.299665e+03	0	2.099186e-03
2.500000e+08	3.105609e+14	0.000000e+00	7.029703e-01	3.703590e+15	4.330573e+15	1.157193e+14	1.779974e+04	5.305145e+03	3.278982e+03	0	2.062650e-03
2.600000e+08	2.950814e+14	0.000000e+00	7.029703e-01	3.523422e+15	4.125907e+15	1.151095e+14	1.758095e+04	5.273111e+03	3.259183e+03	0	2.027795e-03
2.700000e+08	2.807832e+14	0.000000e+00	7.029703e-01	3.356962e+15	3.936771e+15	1.145040e+14	1.737265e+04	5.242409e+03	3.240206e+03	0	1.994499e-03
2.800000e+08	2.675472e+14	0.000000e+00	7.029703e-01	3.202829e+15	3.761596e+15	1.139030e+14	1.717405e+04	5.212948e+03	3.221997e+03	0	1.962653e-03
2.900000e+08	2.552690e+14	0.000000e+00	7.029703e-01	3.059814e+15	3.599009e+15	1.133064e+14	1.698445e+04	5.184646e+03	3.204504e+03	0	1.932158e-03
3.000000e+08	2.438566e+14	0.000000e+00	7.029703e-01	2.926851e+15	3.447804e+15	1.127141e+14	1.680320e+04	5.157429e+03	3.187682e+03	0	1.902924e-03
3.100000e+08	2.332291e+14	0.000000e+00	7.029703e-01	2.803001e+15	3.306914e+15	1.121262e+14	1.662973e+04	5.131230e+03	3.171489e+03	0	1.874869e-03
3.200000e+08	2.233148e+14	0.000000e+00	7.029703e-01	2.687434e+15	3.175399e+15	1.115425e+14	1.646351e+04	5.105985e+03	3.155886e+03	0	1.847917e-03
3.300000e+08	2.140500e+14	0.000000e+00	7.029703e-01	2.579410e+15	3.052421e+15	1.109631e+14	1.630405e+04	5.081640e+03	3.140839e+03	0	1.822000e-03
3.400000e+08	2.053780e+14	0.000000e+00	7.029703e-01	2.478273e+15	2.937238e+15	1.103879e+14	1.615093e+04	5.058140e+03	3.126314e+03	0	1.797055e-03
3.500000e+08	1.972483e+14	0.000000e+00	7.029703e-01	2.383436e+15	2.829184e+15	1.098168e+14	1.600373e+04	5.035437e+03	3.112282e+03	0	1.773023e-03
3.600000e+08	1.896156e+14	0.000000e+00	7.029703e-01	2.294374e+15	2.727666e+15	1.092499e+14	1.586211e+04	5.013488e+03	3.098716e+03	0	1.749852e-03
3.700000e+08	1.824393e+14	0.000000e+00	7.029703e-01	2.210616e+15	2.632152e+15	1.086871e+14	1.572572e+04	4.992251e+03	3.085590e+03	0	1.727493e-03
3.800000e+08	1.756830e+14	0.000000e+00	7.029703e-01	2.131740e+15	2.542162e+15	1.081284e+14	1.559425e+04	4.971689e+03	3.072881e+03	0	1.705899e-03
3.900000e+08	1.693137e+14	0.000000e+00	7.029703e-01	2.057362e+15	2.457265e+15	1.075737e+14	1.546743e+04	4.951765e+03	3.060566e+03	0	1.685029e-03
4.000000e+08	1.633018e+14	0.000000e+00	7.029703e-01	1.987140e+15	2.377070e+15	1.070230e+14	1.534498e+04	4.932447e+03	3.048626e+03	0	1.664844e-03
4.100000e+08	1.576203e+14	0.000000e+00	7.029703e-01	1.920760e+15	2.301226e+15	1.064763e+14	1.522666e+04	4.913705e+03	3.037042e+03	0	1.645309e-03
4.200000e+08	1.522449e+14	0.000000e+00	7.029703e-01	1.857939e+15	2.229412e+15	1.059335e+14	1.511226e+04	4.895510e+03	3.025797e+03	0	1.626388e-03
4.300000e+08	1.471534e+14	0.000000e+00	7.029703e-01	1.798422e+15	2.161338e+15	1.053946e+14	1.500156e+04	4.877836e+03	3.014873e+03	0	1.608052e-03
4.400000e+08	1.423257e+14	0.000000e+00	7.029703e-01	1.741973e+15	2.096740e+15	1.048596e+14	1.489438e+04	4.860658e+03	3.004255e+03	0	1.590271e-03
4.500000e+08	1.377433e+14	0.000000e+00	7.029703e-01	1.688379e+15	2.035375e+15	1.043285e+14	1.479052e+04	4.843953e+03	2.993930e+03	0	1.573017e-03
4.600000e+08	1.333896e+14	0.000000e+00	7.029703e-01	1.637446e+15	1.977024e+15	1.038011e+14	1.468983e+04	4.827699e+03	2.983884e+03	0	1.556267e-03
4.700000e+08	1.292491e+14	0.000000e+00	7.029703e-01	1.588994e+15	1.921486e+15	1.032776e+14	1.459215e+04	4.811877e+03	2.974105e+03	0	1.539995e-03
4.800000e+08	1.253078e+14	0.000000e+00	7.029703e-01	1.542861e+15	1.868574e+15	1.027578e+14	1.449734e+04	4.796466e+03	2.964580e+03	0	1.524179e-03
4.900000e+08	1.215527e+14	0.000000e+00	7.029703e-01	1.498896e+15	1.818120e+15	1.022417e+14	1.440525e+04	4.781450e+03	2.955299e+03	0	1.508799e-03
5.000000e+08	1.179719e+14	0.000000e+00	7.029703e-01	1.456961e+15	1.769968e+15	1.017293e+14	1.431576e+04	4.766811e+03	2.946251e+03	0	1.493836e-03
5.100000e+08	1.145546e+14	0.000000e+00	7.029703e-01	1.416930e+15	1.723974e+15	1.012206e+14	1.422876e+04	4.752534e+03	2.937426e+03	0	1.479270e-03
5.200000e+08	1.112906e+14	0.000000e+00	7.029703e-01	1.378685e+15	1.680005e+15	1.007155e+14	1.414412e+04	4.738603e+03	2.928816e+03	0	1.465085e-03
5.300000e+08	1.081707e+14	0.000000e+00	7.029703e-01	1.342117e+15	1.637941e+15	1.002140e+14	1.406175e+04	4.725005e+03	2.920412e+03	0	1.451264e-03
5.400000e+08	1.051862e+14	0.000000e+00	7.029703e-01	1.307128e+15	1.597666e+15	9.971608e+13	1.398155e+04	4.711726e+03	2.912204e+03	0	1.437792e-03
5.500000e+08	1.023291e+14	0.000000e+00	7.029703e-01	1.273624e+15	1.559078e+15	9.922170e+13	1.390342e+04	4.698754e+03	2.904186e+03	0	1.424655e-03
5.600000e+08	9.959219e+13	0.000000e+00	7.029703e-01	1.241520e+15	1.522079e+15	9.873084e+13	1.382728e+04	4.686076e+03	2.896351e+03	0	1.411839e-03
5.700000e+08	9.696852e+13	0.000000e+00	7.029703e-01	1.210736e+15	1.486578e+15	9.824346e+13	1.375304e+04	4.673683e+03	2.888690e+03	0	1.399330e-03
5.800000e+08	9.445176e+13	0.000000e+00	7.029703e-01	1.181199e+15	1.452494e+15	9.775954e+13	1.368062e+04	4.661562e+03	2.881199e+03	0	1.387118e-03
5.900000e+08	9.203599e+13	0.000000e+00	7.029703e-01	1.152839e+15	1.419747e+15	9.727905e+13	1.360997e+04	4.649704e+03	2.873870e+03	0	1.375190e-03
6.000000e+08	8.971571e+13	0.000000e+00	7.029703e-01	1.125593e+15	1.388266e+15	9.680196e+13	1.354099e+04	4.638099e+03	2.866697e+03	0	1.363535e-03
6.100000e+08	8.748580e+13	0.000000e+00	7.029703e-01	1.099401e+15	1.357982e+15	9.632824e+13	1.347363e+04	4.626738e+03	2.859675e+03	0	1.352143e-03
6.200000e+08	8.534148e+13	0.000000e+00	7.029703e-01	1.074208e+15	1.328834e+15	9.585788e+13	1.340783e+04	4.615613e+03	2.852799e+03	0	1.341004e-03
6.300000e+08	8.327828e+13	0.000000e+00	7.029703e-01	1.049961e+15	1.300763e+15	9.539083e+13	1.334352e+04	4.604715e+03	2.846063e+03	0	1.330109e-03
6.400000e+08	8.129203e+13	0.000000e+00	7.029703e-01	1.026612e+15	1.273712e+15	9.492708e+13	1.328066e+04	4.594036e+03	2.839463e+03	0	1.319449e-03
6.500000e+08	7.937883e+13	0.000000e+00	7.029703e-01	1.004115e+15	1.247632e+15	9.446659e+13	1.321919e+04	4.583570e+03	2.832994e+03	0	1.309016e-03
6.600000e+08	7.753501e+13	0.000000e+00	7.029703e-01	9.824291e+14	1.222474e+15	9.400934e+13	1.315905e+04	4.573308e+03	2.826651e+03	0	1.298801e-03
6.700000e+08	7.575716e+13	0.000000e+00	7.029703e-01	9.615128e+14	1.198193e+15	9.355531e+13	1.310020e+04	4.563244e+03	2.820431e+03	0	1.288797e-03
6.800000e+08	7.404207e+13	0.000000e+00	7.029703e-01	9.413292e+14	1.174746e+15	9.310447e+13	1.304260e+04	4.553371e+03	2.814329e+03	0	1.278997e-03
6.900000e+08	7.238670e+13	0.000000e+00	7.029703e-01	9.218433e+14	1.152094e+15	9.265679e+13	1.298619e+04	4.543684e+03	2.808342e+03	0	1.269393e-03
7.000000e+08	7.078823e+13	0.000000e+00	7.029703e-01	9.030219e+14	1.130199e+15	9.221225e+13	1.293095e+04	4.534177e+03	2.802465e+03	0	1.259980e-03
7.100000e+08	6.924399e+13	0.000000e+00	7.029703e-01	8.848342e+14	1.109026e+15	9.177082e+13	1.287683e+04	4.524843e+03	2.796696e+03	0	1.250751e-03
7.200000e+08	6.775148e+13	0.000000e+00	7.029703e-01	8.672507e+14	1.088543e+15	9.133248e+13	1.282379e+04	4.515678e+03	2.791032e+03	0	1.241699e-03
7.300000e+08	6.630832e+13	0.000000e+00	7.029703e-01	8.502441e+14	1.068717e+15	9.089720e+13	1.277180e+04	4.506676e+03	2.785468e+03	0	1.232819e-03
7.400000e+08	6.491230e+13	0.000000e+00	7.029703e-01	8.337883e+14	1.049520e+15	9.046496e+13	1.272082e+04	4.497832e+03	2.780001e+03	0	1.224106e-03
7.500000e+08	6.356130e+13	0.000000e+00	7.029703e-01	8.178589e+14	1.030924e+15	9.003573e+13	1.267082e+04	4.489142e+03	2.774630e+03	0	1.215554e-03
7.600000e+08	6.225335e+13	0.000000e+00	7.029703e-01	8.024328e+14	1.012902e+15	8.960949e+13	1.262177e+04	4.480600e+03	2.769351e+03	0	1.207158e-03
7.700000e+08	6.098657e+13	0.000000e+00	7.029703e-01	7.874881e+14	9.954301e+14	8.918622e+13	1.257365e+04	4.472204e+03	2.764161e+03	0	1.198914e-03
7.800000e+08	5.975919e+13	0.000000e+00	7.029703e-01	7.730043e+14	9.784846e+14	8.876589e+13	1.252641e+04	4.463948e+03	2.759058e+03	0	1.190817e-03
7.900000e+08	5.856954e+13	0.000000e+00	7.029703e-01	7.589617e+14	9.620434e+14	8.834848e+13	1.248003e+04	4.455828e+03	2.754040e+03	0	1.182862e-03
8.000000e+08	5.741603e+13	0.000000e+00	7.029703e-01	7.453420e+14	9.460856e+14	8.793396e+13	1.243450e+04	4.447841e+03	2.749103e+03	0	1.175045e-03
8.100000e+08	5.629716e+13	0.000000e+00	7.029703e-01	7.321276e+14	9.305913e+14	8.752232e+13	1.238977e+04	4.439982e+03	2.744246e+03	0	1.167362e-03
8.200000e+08	5.521151e+13	0.000000e+00	7.029703e-01	7.193019e+14	9.155417e+14	8.711353e+13	1.234584e+04	4.432249e+03	2.739466e+03	0	1.159809e-03
8.300000e+08	5.415772e+13	0.000000e+00	7.029703e-01	7.068492e+14	9.009189e+14	8.670756e+13	1.230267e+04	4.424638e+03	2.734762e+03	0	1.152383e-03
8.400000e+08	5.313452e+13	0.000000e+00	7.029703e-01	6.947545e+14	8.867060e+14	8.630439e+13	1.226024e+04	4.417145e+03	2.730131e+03	0	1.145079e-03
8.500000e+08	5.214069e+13	0.000000e+00	7.029703e-01	6.830037e+14	8.728869e+14	8.590401e+13	1.221853e+04	4.409768e+03	2.725571e+03	0	1.137895e-03
8.600000e+08	5.117507e+13	0.000000e+00	7.029703e-01	6.715834e+14	8.594464e+14	8.550639e+13	1.217753e+04	4.402503e+03	2.721081e+03	0	1.130827e-03
8.700000e+08	5.023658e+13	0.000000e+00	7.029703e-01	6.604807e+14	8.463698e+14	8.511151e+13	1.213721e+04	4.395348e+03	2.716658e+03	0	1.123872e-03
8.800000e+08	4.932416e+13	0.000000e+00	7.029703e-01	6.496834e+14	8.336435e+14	8.471934e+13	1.209755e+04	4.388299e+03	2.712302e+03	0	1.117026e-03
8.900000e+08	4.843682e+13	0.000000e+00	7.029703e-01	6.391801e+14	8.212541e+14	8.432986e+13	1.205853e+04	4.381354e+03	2.708009e+03	0	1.110287e-03
9.000000e+08	4.757362e+13	0.000000e+00	7.029703e-01	6.289595e+14	8.091892e+14	8.394306e+13	1.202015e+04	4.374510e+03	2.703779e+03	0	1.103652e-03
9.100000e+08	4.673366e+13	0.000000e+00	7.029703e-01	6.190113e+14	7.974368e+14	8.355891e+13	1.198237e+04	4.367765e+03	2.699610e+03	0	1.097118e-03
9.200000e+08	4.591608e+13	0.000000e+00	7.029703e-01	6.093254e+14	7.859857e+14	8.317739e+13	1.194519e+04	4.361116e+03	2.695500e+03	0	1.090682e-03
9.300000e+08	4.512006e+13	0.000000e+00	7.029703e-01	5.998923e+14	7.748248e+14	8.279848e+13	1.190859e+04	4.354560e+03	2.691449e+03	0	1.084343e-03
9.400000e+08	4.434482e+13	0.000000e+00	7.029703e-01	5.907029e+14	7.639439e+14	8.242216e+13	1.187255e+04	4.348097e+03	2.687454e+03	0	1.078097e-03
9.500000e+08	4.358962e+13	0.000000e+00	7.029703e-01	5.817484e+14	7.533331e+14	8.204841e+13	1.183706e+04	4.341722e+03	2.683514e+03	0	1.071941e-03
9.600000e+08	4.285375e+13	0.000000e+00	7.029703e-01	5.730206e+14	7.429829e+14	8.167721e+13	1.180211e+04	4.335435e+03	2.679628e+03	0	1.065875e-03
9.700000e+08	4.213652e+13	0.000000e+00	7.029703e-01	5.645116e+14	7.328844e+14	8.130853e+13	1.176767e+04	4.329233e+03	2.675794e+03	0	1.059895e-03
9.800000e+08	4.143729e+13	0.000000e+00	7.029703e-01	5.562138e+14	7.230289e+14	8.094237e+13	1.173375e+04	4.323114e+03	2.672012e+03	0	1.054000e-03
9.900000e+08	4.075544e+13	0.000000e+00	7.029703e-01	5.481199e+14	7.134081e+14	8.057869e+13	1.170032e+04	4.317076e+03	2.668280e+03	0	1.048186e-03
1.000000e+09	4.009038e+13	0.000000e+00	7.029703e-01	5.402230e+14	7.040142e+14	8.021748e+13	1.166738e+04	4.311117e+03	2.664598e+03	0	1.042454e-03
1.010000e+09	3.944153e+13	0.000000e+00	7.029703e-01	5.325164e+14	6.948396e+14	7.985872e+13	1.163491e+04	4.305236e+03	2.660963e+03	0	1.036799e-03
1.020000e+09	3.880836e+13	0.000000e+00	7.029703e-01	5.249939e+14	6.858771e+14	7.950240e+13	1.160290e+04	4.299431e+03	2.657375e+03	0	1.031221e-03
1.030000e+09	3.819034e+13	0.000000e+00	7.029703e-01	5.176493e+14	6.771198e+14	7.914848e+13	1.157134e+04	4.293700e+03	2.653832e+03	0	1.025718e-03
1.040000e+09	3.758698e+13	0.000000e+00	7.029703e-01	5.104769e+14	6.685610e+14	7.879695e+13	1.154022e+04	4.288041e+03	2.650335e+03	0	1.020287e-03
1.050000e+09	3.699779e+13	0.000000e+00	7.029703e-01	5.034710e+14	6.601944e+14	7.844780e+13	1.150953e+04	4.282453e+03	2.646881e+03	0	1.014928e-03
1.060000e+09	3.642233e+13	0.000000e+00	7.029703e-01	4.966263e+14	6.520139e+14	7.810101e+13	1.147926e+04	4.276934e+03	2.643470e+03	0	1.009638e-03
1.070000e+09	3.586014e+13	0.000000e+00	7.029703e-01	4.899376e+14	6.440136e+14	7.775655e+13	1.144940e+04	4.271483e+03	2.640101e+03	0	1.004417e-03
1.080000e+09	3.531081e+13	0.000000e+00	7.029703e-01	4.834000e+14	6.361878e+14	7.741440e+13	1.141994e+04	4.266098e+03	2.636772e+03	0	9.992617e-04
1.090000e+09	3.477394e+13	0.000000e+00	7.029703e-01	4.770088e+14	6.285313e+14	7.707456e+13	1.139087e+04	4.260778e+03	2.633484e+03	0	9.941715e-04
1.100000e+09	3.424914e+13	0.000000e+00	7.029703e-01	4.707595e+14	6.210388e+14	7.673700e+13	1.136218e+04	4.255522e+03	2.630235e+03	0	9.891448e-04
1.110000e+09	3.373602e+13	0.000000e+00	7.029703e-01	4.646476e+14	6.137053e+14	7.640170e+13	1.133387e+04	4.250328e+03	2.627025e+03	0	9.841802e-04
1.120000e+09	3.323424e+13	0.000000e+00	7.029703e-01	4.586690e+14	6.065261e+14	7.606865e+13	1.130592e+04	4.245195e+03	2.623852e+03	0	9.792764e-04
1.130000e+09	3.274345e+13	0.000000e+00	7.029703e-01	4.528197e+14	5.994965e+14	7.573783e+13	1.127833e+04	4.240121e+03	2.620717e+03	0	9.744319e-04
1.140000e+09	3.226332e+13	0.000000e+00	7.029703e-01	4.470958e+14	5.926122e+14	7.540922e+13	1.125109e+04	4.235106e+03	2.617617e+03	0	9.696456e-04
1.150000e+09	3.179353e+13	0.000000e+00	7.029703e-01	4.414935e+14	5.858689e+14	7.508281e+13	1.122420e+04	4.230148e+03	2.614552e+03	0	9.649162e-04
1.160000e+09	3.133377e+13	0.000000e+00	7.029703e-01	4.360093e+14	5.792624e+14	7.475857e+13	1.119764e+04	4.225246e+03	2.611523e+03	0	9.602425e-04
1.170000e+09	3.088375e+13	0.000000e+00	7.029703e-01	4.306397e+14	5.727888e+14	7.443649e+13	1.117140e+04	4.220400e+03	2.608527e+03	0	9.556232e-04
1.180000e+09	3.044319e+13	0.000000e+00	7.029703e-01	4.253813e+14	5.664444e+14	7.411656e+13	1.114549e+04	4.215607e+03	2.605565e+03	0	9.510574e-04
1.190000e+09	3.001180e+13	0.000000e+00	7.029703e-01	4.202311e+14	5.602255e+14	7.379875e+13	1.111990e+04	4.210867e+03	2.602635e+03	0	9.465438e-04
1.200000e+09	2.958934e+13	0.000000e+00	7.029703e-01	4.151859e+14	5.541284e+14	7.348305e+13	1.109461e+04	4.206179e+03	2.599737e+03	0	9.420814e-04
1.210000e+09	2.917553e+13	0.000000e+00	7.029703e-01	4.102426e+14	5.481500e+14	7.316944e+13	1.106963e+04	4.201541e+03	2.596871e+03	0	9.376691e-04
1.220000e+09	2.877015e+13	0.000000e+00	7.029703e-01	4.053986e+14	5.422868e+14	7.285792e+13	1.104494e+04	4.196954e+03	2.594036e+03	0	9.333059e-04
1.230000e+09	2.837294e+13	0.000000e+00	7.029703e-01	4.006509e+14	5.365357e+14	7.254845e+13	1.102055e+04	4.192415e+03	2.591231e+03	0	9.289909e-04
1.240000e+09	2.798369e+13	0.000000e+00	7.029703e-01	3.959970e+14	5.308936e+14	7.224103e+13	1.099643e+04	4.187925e+03	2.588455e+03	0	9.247230e-04
1.250000e+09	2.760218e+13	0.000000e+00	7.029703e-01	3.914342e+14	5.253577e+14	7.193564e+13	1.097260e+04	4.183481e+03	2.585709e+03	0	9.205014e-04
1.260000e+09	2.722819e+13	0.000000e+00	7.029703e-01	3.869601e+14	5.199250e+14	7.163226e+13	1.094904e+04	4.179084e+03	2.582991e+03	0	9.163251e-04
1.270000e+09	2.686152e+13	0.000000e+00	7.029703e-01	3.825723e+14	5.145929e+14	7.133088e+13	1.092575e+04	4.174732e+03	2.580301e+03	0	9.121933e-04
1.280000e+09	2.650197e+13	0.000000e+00	7.029703e-01	3.782684e+14	5.093586e+14	7.103148e+13	1.090272e+04	4.170425e+03	2.577639e+03	0	9.081050e-04
1.290000e+09	2.614935e+13	0.000000e+00	7.029703e-01	3.740463e+14	5.042196e+14	7.073405e+13	1.087995e+04	4.166161e+03	2.575004e+03	0	9.040594e-04
1.300000e+09	2.580348e+13	0.000000e+00	7.029703e-01	3.699037e+14	4.991735e+14	7.043858e+13	1.085743e+04	4.161940e+03	2.572395e+03	0	9.000558e-04
1.310000e+09	2.546417e+13	0.000000e+00	7.029703e-01	3.658387e+14	4.942178e+14	7.014504e+13	1.083517e+04	4.157762e+03	2.569812e+03	0	8.960932e-04
1.320000e+09	2.513127e+13	0.000000e+00	7.029703e-01	3.618491e+14	4.893503e+14	6.985342e+13	1.081314e+04	4.153625e+03	2.567255e+03	0	8.921710e-04
1.330000e+09	2.480459e+13	0.000000e+00	7.029703e-01	3.579330e+14	4.845686e+14	6.956371e+13	1.079136e+04	4.149528e+03	2.564723e+03	0	8.882884e-04
1.340000e+09	2.448398e+13	0.000000e+00	7.029703e-01	3.540885e+14	4.798707e+14	6.927589e+13	1.076981e+04	4.145472e+03	2.562216e+03	0	8.844447e-04
1.350000e+09	2.416929e+13	0.000000e+00	7.029703e-01	3.503139e+14	4.752544e+14	6.898995e+13	1.074849e+04	4.141455e+03	2.559733e+03	0	8.806391e-04
1.360000e+09	2.386036e+13	0.000000e+00	7.029703e-01	3.466073e+14	4.707178e+14	6.870587e+13	1.072739e+04	4.137477e+03	2.557275e+03	0	8.768709e-04
