#t		Qconv[W]	Ri[Rp]		R*[Rp]		Qc[W]		Qm[W]		Qr[W]		Tcmb[K]		Tl[K]		Tup[K]		RiFlag		Bs[T]
0.000000e+00	3.522394e+15	0.000000e+00	7.029701e-01	3.805795e+16	2.945372e+15	1.494811e+14	3.687265e+04	4.535800e+03	2.777906e+03	0	4.615662e-03
1.000000e+07	3.101566e+15	0.000000e+00	7.029701e-01	3.353321e+16	1.825821e+16	1.486529e+14	3.503407e+04	6.337371e+03	3.881261e+03	0	4.423999e-03
2.000000e+07	2.707117e+15	0.000000e+00	7.029701e-01	2.929290e+16	2.687046e+16	1.478308e+14	3.340455e+04	6.956312e+03	4.260325e+03	0	4.227890e-03
3.000000e+07	2.374542e+15	0.000000e+00	7.029701e-01	2.571725e+16	2.737533e+16	1.470149e+14	3.197412e+04	7.054048e+03	4.320183e+03	0	4.047138e-03
4.000000e+07	2.097538e+15	0.000000e+00	7.029701e-01	2.273846e+16	2.533015e+16	1.462051e+14	3.071300e+04	6.995463e+03	4.284303e+03	0	3.883213e-03
5.000000e+07	1.865651e+15	0.000000e+00	7.029701e-01	2.024430e+16	2.288561e+16	1.454014e+14	2.959379e+04	6.897306e+03	4.224188e+03	0	3.734492e-03
6.000000e+07	1.670055e+15	0.000000e+00	7.029701e-01	1.814000e+16	2.061003e+16	1.446036e+14	2.859398e+04	6.793531e+03	4.160632e+03	0	3.599136e-03
7.000000e+07	1.503766e+15	0.000000e+00	7.029701e-01	1.635058e+16	1.861170e+16	1.438118e+14	2.769538e+04	6.693677e+03	4.099477e+03	0	3.475480e-03
8.000000e+07	1.361316e+15	0.000000e+00	7.029701e-01	1.481733e+16	1.688080e+16	1.430258e+14	2.688319e+04	6.600104e+03	4.042169e+03	0	3.362077e-03
9.000000e+07	1.238416e+15	0.000000e+00	7.029701e-01	1.349417e+16	1.538212e+16	1.422457e+14	2.614532e+04	6.513034e+03	3.988844e+03	0	3.257694e-03
1.000000e+08	1.131678e+15	0.000000e+00	7.029701e-01	1.234474e+16	1.407947e+16	1.414714e+14	2.547180e+04	6.432060e+03	3.939253e+03	0	3.161275e-03
1.100000e+08	1.038405e+15	0.000000e+00	7.029701e-01	1.134006e+16	1.294137e+16	1.407028e+14	2.485436e+04	6.356634e+03	3.893059e+03	0	3.071923e-03
1.200000e+08	9.564340e+14	0.000000e+00	7.029701e-01	1.045689e+16	1.194165e+16	1.399400e+14	2.428608e+04	6.286208e+03	3.849927e+03	0	2.988865e-03
1.300000e+08	8.840144e+14	0.000000e+00	7.029701e-01	9.676441e+15	1.105888e+16	1.391828e+14	2.376112e+04	6.220281e+03	3.809550e+03	0	2.911440e-03
1.400000e+08	8.197189e+14	0.000000e+00	7.029701e-01	8.983363e+15	1.027549e+16	1.384311e+14	2.327456e+04	6.158411e+03	3.771659e+03	0	2.839071e-03
1.500000e+08	7.623752e+14	0.000000e+00	7.029701e-01	8.365064e+15	9.577051e+15	1.376851e+14	2.282216e+04	6.100207e+03	3.736012e+03	0	2.771262e-03
1.600000e+08	7.110137e+14	0.000000e+00	7.029701e-01	7.811124e+15	8.951621e+15	1.369445e+14	2.240030e+04	6.045327e+03	3.702401e+03	0	2.707576e-03
1.700000e+08	6.648274e+14	0.000000e+00	7.029701e-01	7.312868e+15	8.389286e+15	1.362095e+14	2.200587e+04	5.993471e+03	3.670643e+03	0	2.647632e-03
1.800000e+08	6.231403e+14	0.000000e+00	7.029701e-01	6.863031e+15	7.881751e+15	1.354798e+14	2.163615e+04	5.944374e+03	3.640574e+03	0	2.591095e-03
1.900000e+08	5.853828e+14	0.000000e+00	7.029701e-01	6.455491e+15	7.422040e+15	1.347555e+14	2.128878e+04	5.897803e+03	3.612051e+03	0	2.537667e-03
2.000000e+08	5.510725e+14	0.000000e+00	7.029701e-01	6.085059e+15	7.004251e+15	1.340365e+14	2.096169e+04	5.853549e+03	3.584949e+03	0	2.487087e-03
2.100000e+08	5.197988e+14	0.000000e+00	7.029701e-01	5.747322e+15	6.623367e+15	1.333229e+14	2.065306e+04	5.811428e+03	3.559152e+03	0	2.439120e-03
2.200000e+08	4.912102e+14	0.000000e+00	7.029701e-01	5.438499e+15	6.275101e+15	1.326144e+14	2.036129e+04	5.771275e+03	3.534561e+03	0	2.393557e-03
2.300000e+08	4.650047e+14	0.000000e+00	7.029701e-01	5.155343e+15	5.955771e+15	1.319112e+14	2.008496e+04	5.732941e+03	3.511084e+03	0	2.350213e-03
2.400000e+08	4.409217e+14	0.000000e+00	7.029701e-01	4.895050e+15	5.662204e+15	1.312131e+14	1.982280e+04	5.696295e+03	3.488640e+03	0	2.308918e-03
2.500000e+08	4.187352e+14	0.000000e+00	7.029701e-01	4.655188e+15	5.391650e+15	1.305202e+14	1.957368e+04	5.661216e+03	3.467156e+03	0	2.269523e-03
2.600000e+08	3.982486e+14	0.000000e+00	7.029701e-01	4.433644e+15	5.141718e+15	1.298323e+14	1.933659e+04	5.627595e+03	3.446566e+03	0	2.231890e-03
2.700000e+08	3.792900e+14	0.000000e+00	7.029701e-01	4.228568e+15	4.910322e+15	1.291494e+14	1.911063e+04	5.595335e+03	3.426808e+03	0	2.195896e-03
2.800000e+08	3.617092e+14	0.000000e+00	7.029701e-01	4.038342e+15	4.695636e+15	1.284715e+14	1.889498e+04	5.564345e+03	3.407829e+03	0	2.161430e-03
2.900000e+08	3.453735e+14	0.000000e+00	7.029701e-01	3.861540e+15	4.496051e+15	1.277986e+14	1.868891e+04	5.534545e+03	3.389578e+03	0	2.128389e-03
3.000000e+08	3.301663e+14	0.000000e+00	7.029701e-01	3.696906e+15	4.310152e+15	1.271306e+14	1.849174e+04	5.505860e+03	3.372010e+03	0	2.096681e-03
3.100000e+08	3.159843e+14	0.000000e+00	7.029701e-01	3.543326e+15	4.136685e+15	1.264674e+14	1.830286e+04	5.478222e+03	3.355083e+03	0	2.066220e-03
3.200000e+08	3.027356e+14	0.000000e+00	7.029701e-01	3.399814e+15	3.974538e+15	1.258091e+14	1.812174e+04	5.451568e+03	3.338760e+03	0	2.036929e-03
3.300000e+08	2.903386e+14	0.000000e+00	7.029701e-01	3.265490e+15	3.822723e+15	1.251556e+14	1.794787e+04	5.425842e+03	3.323004e+03	0	2.008736e-03
3.400000e+08	2.787206e+14	0.000000e+00	7.029701e-01	3.139571e+15	3.680355e+15	1.245068e+14	1.778078e+04	5.400990e+03	3.307783e+03	0	1.981577e-03
3.500000e+08	2.678163e+14	0.000000e+00	7.029701e-01	3.021353e+15	3.546647e+15	1.238627e+14	1.762006e+04	5.376963e+03	3.293069e+03	0	1.955391e-03
3.600000e+08	2.575672e+14	0.000000e+00	7.029701e-01	2.910207e+15	3.420889e+15	1.232233e+14	1.746533e+04	5.353717e+03	3.278832e+03	0	1.930123e-03
3.700000e+08	2.479209e+14	0.000000e+00	7.029701e-01	2.805568e+15	3.302446e+15	1.225885e+14	1.731623e+04	5.331210e+03	3.265048e+03	0	1.905720e-03
3.800000e+08	2.388299e+14	0.000000e+00	7.029701e-01	2.706925e+15	3.190743e+15	1.219583e+14	1.717242e+04	5.309403e+03	3.251692e+03	0	1.882136e-03
3.900000e+08	2.302516e+14	0.000000e+00	7.029701e-01	2.613817e+15	3.085264e+15	1.213326e+14	1.703362e+04	5.288260e+03	3.238743e+03	0	1.859326e-03
4.000000e+08	2.221472e+14	0.000000e+00	7.029701e-01	2.525828e+15	2.985541e+15	1.207115e+14	1.689955e+04	5.267749e+03	3.226181e+03	0	1.837250e-03
4.100000e+08	2.144816e+14	0.000000e+00	7.029701e-01	2.442579e+15	2.891148e+15	1.200949e+14	1.676994e+04	5.247836e+03	3.213986e+03	0	1.815870e-03
4.200000e+08	2.072230e+14	0.000000e+00	7.029701e-01	2.363728e+15	2.801699e+15	1.194827e+14	1.664456e+04	5.228495e+03	3.202141e+03	0	1.795150e-03
4.300000e+08	2.003425e+14	0.000000e+00	7.029701e-01	2.288961e+15	2.716845e+15	1.188749e+14	1.652319e+04	5.209697e+03	3.190628e+03	0	1.775057e-03
4.400000e+08	1.938135e+14	0.000000e+00	7.029701e-01	2.217994e+15	2.636264e+15	1.182715e+14	1.640562e+04	5.191418e+03	3.179433e+03	0	1.755561e-03
4.500000e+08	1.876120e+14	0.000000e+00	7.029701e-01	2.150566e+15	2.559665e+15	1.176724e+14	1.629166e+04	5.173633e+03	3.168541e+03	0	1.736634e-03
4.600000e+08	1.817158e+14	0.000000e+00	7.029701e-01	2.086440e+15	2.486781e+15	1.170776e+14	1.618113e+04	5.156320e+03	3.157938e+03	0	1.718247e-03
4.700000e+08	1.761048e+14	0.000000e+00	7.029701e-01	2.025397e+15	2.417365e+15	1.164871e+14	1.607387e+04	5.139459e+03	3.147611e+03	0	1.700376e-03
4.800000e+08	1.707603e+14	0.000000e+00	7.029701e-01	1.967237e+15	2.351194e+15	1.159008e+14	1.596972e+04	5.123030e+03	3.137549e+03	0	1.682998e-03
4.900000e+08	1.656654e+14	0.000000e+00	7.029701e-01	1.911776e+15	2.288061e+15	1.153187e+14	1.586853e+04	5.107014e+03	3.127741e+03	0	1.666091e-03
5.000000e+08	1.608042e+14	0.000000e+00	7.029701e-01	1.858844e+15	2.227775e+15	1.147408e+14	1.577017e+04	5.091394e+03	3.118175e+03	0	1.649632e-03
5.100000e+08	1.561624e+14	0.000000e+00	7.029701e-01	1.808285e+15	2.170161e+15	1.141670e+14	1.567451e+04	5.076154e+03	3.108841e+03	0	1.633604e-03
5.200000e+08	1.517265e+14	0.000000e+00	7.029701e-01	1.759955e+15	2.115057e+15	1.135973e+14	1.558143e+04	5.061279e+03	3.099731e+03	0	1.617988e-03
5.300000e+08	1.474843e+14	0.000000e+00	7.029701e-01	1.713722e+15	2.062315e+15	1.130317e+14	1.549082e+04	5.046753e+03	3.090834e+03	0	1.602765e-03
5.400000e+08	1.434242e+14	0.000000e+00	7.029701e-01	1.669460e+15	2.011794e+15	1.124700e+14	1.540257e+04	5.032563e+03	3.082144e+03	0	1.587921e-03
5.500000e+08	1.395358e+14	0.000000e+00	7.029701e-01	1.627057e+15	1.963368e+15	1.119124e+14	1.531658e+04	5.018696e+03	3.073651e+03	0	1.573439e-03
5.600000e+08	1.358092e+14	0.000000e+00	7.029701e-01	1.586407e+15	1.916916e+15	1.113588e+14	1.523275e+04	5.005139e+03	3.065349e+03	0	1.559305e-03
5.700000e+08	1.322353e+14	0.000000e+00	7.029701e-01	1.547410e+15	1.872330e+15	1.108091e+14	1.515101e+04	4.991882e+03	3.057229e+03	0	1.545505e-03
5.800000e+08	1.288057e+14	0.000000e+00	7.029701e-01	1.509976e+15	1.829504e+15	1.102633e+14	1.507126e+04	4.978912e+03	3.049286e+03	0	1.532027e-03
5.900000e+08	1.255123e+14	0.000000e+00	7.029701e-01	1.474019e+15	1.788346e+15	1.097213e+14	1.499342e+04	4.966220e+03	3.041513e+03	0	1.518857e-03
6.000000e+08	1.223480e+14	0.000000e+00	7.029701e-01	1.439460e+15	1.748764e+15	1.091832e+14	1.491742e+04	4.953795e+03	3.033903e+03	0	1.505984e-03
6.100000e+08	1.193058e+14	0.000000e+00	7.029701e-01	1.406225e+15	1.710675e+15	1.086489e+14	1.484319e+04	4.941628e+03	3.026452e+03	0	1.493397e-03
6.200000e+08	1.163793e+14	0.000000e+00	7.029701e-01	1.374245e+15	1.674003e+15	1.081184e+14	1.477066e+04	4.929710e+03	3.019153e+03	0	1.481085e-03
6.300000e+08	1.135626e+14	0.000000e+00	7.029701e-01	1.343455e+15	1.638675e+15	1.075916e+14	1.469977e+04	4.918032e+03	3.012001e+03	0	1.469038e-03
6.400000e+08	1.108501e+14	0.000000e+00	7.029701e-01	1.313795e+15	1.604622e+15	1.070685e+14	1.463046e+04	4.906586e+03	3.004991e+03	0	1.457248e-03
6.500000e+08	1.082366e+14	0.000000e+00	7.029701e-01	1.285208e+15	1.571782e+15	1.065491e+14	1.456267e+04	4.895365e+03	2.998118e+03	0	1.445704e-03
6.600000e+08	1.057170e+14	0.000000e+00	7.029701e-01	1.257641e+15	1.540094e+15	1.060334e+14	1.449634e+04	4.884360e+03	2.991379e+03	0	1.434398e-03
6.700000e+08	1.032870e+14	0.000000e+00	7.029701e-01	1.231045e+15	1.509503e+15	1.055213e+14	1.443142e+04	4.873565e+03	2.984767e+03	0	1.423322e-03
6.800000e+08	1.009420e+14	0.000000e+00	7.029701e-01	1.205373e+15	1.479956e+15	1.050128e+14	1.436787e+04	4.862973e+03	2.978280e+03	0	1.412468e-03
6.900000e+08	9.867810e+13	0.000000e+00	7.029701e-01	1.180580e+15	1.451404e+15	1.045079e+14	1.430564e+04	4.852578e+03	2.971914e+03	0	1.401829e-03
7.000000e+08	9.649146e+13	0.000000e+00	7.029701e-01	1.156626e+15	1.423800e+15	1.040065e+14	1.424467e+04	4.842373e+03	2.965664e+03	0	1.391397e-03
7.100000e+08	9.437849e+13	0.000000e+00	7.029701e-01	1.133472e+15	1.397101e+15	1.035086e+14	1.418494e+04	4.832352e+03	2.959527e+03	0	1.381165e-03
7.200000e+08	9.233579e+13	0.000000e+00	7.029701e-01	1.111081e+15	1.371266e+15	1.030142e+14	1.412639e+04	4.822510e+03	2.953499e+03	0	1.371128e-03
7.300000e+08	9.036020e+13	0.000000e+00	7.029701e-01	1.089419e+15	1.346256e+15	1.025232e+14	1.406900e+04	4.812841e+03	2.947577e+03	0	1.361279e-03
7.400000e+08	8.844870e+13	0.000000e+00	7.029701e-01	1.068454e+15	1.322034e+15	1.020357e+14	1.401271e+04	4.803340e+03	2.941759e+03	0	1.351611e-03
7.500000e+08	8.659846e+13	0.000000e+00	7.029701e-01	1.048154e+15	1.298566e+15	1.015516e+14	1.395750e+04	4.794003e+03	2.936040e+03	0	1.342120e-03
7.600000e+08	8.480681e+13	0.000000e+00	7.029701e-01	1.028491e+15	1.275819e+15	1.010708e+14	1.390334e+04	4.784824e+03	2.930419e+03	0	1.332800e-03
7.700000e+08	8.307121e+13	0.000000e+00	7.029701e-01	1.009437e+15	1.253763e+15	1.005934e+14	1.385018e+04	4.775798e+03	2.924891e+03	0	1.323645e-03
7.800000e+08	8.138927e+13	0.000000e+00	7.029701e-01	9.909659e+14	1.232368e+15	1.001193e+14	1.379801e+04	4.766922e+03	2.919455e+03	0	1.314651e-03
7.900000e+08	7.975872e+13	0.000000e+00	7.029701e-01	9.730542e+14	1.211607e+15	9.964850e+13	1.374678e+04	4.758192e+03	2.914108e+03	0	1.305812e-03
8.000000e+08	7.817743e+13	0.000000e+00	7.029701e-01	9.556781e+14	1.191453e+15	9.918096e+13	1.369647e+04	4.749602e+03	2.908847e+03	0	1.297125e-03
8.100000e+08	7.664336e+13	0.000000e+00	7.029701e-01	9.388156e+14	1.171882e+15	9.871667e+13	1.364706e+04	4.741149e+03	2.903670e+03	0	1.288584e-03
8.200000e+08	7.515459e+13	0.000000e+00	7.029701e-01	9.224459e+14	1.152871e+15	9.825559e+13	1.359851e+04	4.732830e+03	2.898575e+03	0	1.280186e-03
8.300000e+08	7.370928e+13	0.000000e+00	7.029701e-01	9.065492e+14	1.134396e+15	9.779770e+13	1.355081e+04	4.724641e+03	2.893560e+03	0	1.271927e-03
8.400000e+08	7.230571e+13	0.000000e+00	7.029701e-01	8.911067e+14	1.116437e+15	9.734297e+13	1.350392e+04	4.716578e+03	2.888622e+03	0	1.263802e-03
8.500000e+08	7.094222e+13	0.000000e+00	7.029701e-01	8.761006e+14	1.098974e+15	9.689138e+13	1.345783e+04	4.708638e+03	2.883759e+03	0	1.255807e-03
8.600000e+08	6.961726e+13	0.000000e+00	7.029701e-01	8.615138e+14	1.081988e+15	9.644290e+13	1.341250e+04	4.700817e+03	2.878970e+03	0	1.247940e-03
8.700000e+08	6.832933e+13	0.000000e+00	7.029701e-01	8.473302e+14	1.065459e+15	9.599750e+13	1.336793e+04	4.693114e+03	2.874252e+03	0	1.240196e-03
8.800000e+08	6.707701e+13	0.000000e+00	7.029701e-01	8.335346e+14	1.049372e+15	9.555518e+13	1.332409e+04	4.685524e+03	2.869603e+03	0	1.232573e-03
8.900000e+08	6.585896e+13	0.000000e+00	7.029701e-01	8.201123e+14	1.033710e+15	9.511589e+13	1.328096e+04	4.678045e+03	2.865023e+03	0	1.225066e-03
9.000000e+08	6.467390e+13	0.000000e+00	7.029701e-01	8.070493e+14	1.018456e+15	9.467961e+13	1.323852e+04	4.670674e+03	2.860508e+03	0	1.217674e-03
9.100000e+08	6.352060e+13	0.000000e+00	7.029701e-01	7.943325e+14	1.003597e+15	9.424633e+13	1.319676e+04	4.663408e+03	2.856058e+03	0	1.210392e-03
9.200000e+08	6.239790e+13	0.000000e+00	7.029701e-01	7.819491e+14	9.891167e+14	9.381601e+13	1.315564e+04	4.656245e+03	2.851671e+03	0	1.203219e-03
9.300000e+08	6.130469e+13	0.000000e+00	7.029701e-01	7.698872e+14	9.750029e+14	9.338864e+13	1.311517e+04	4.649182e+03	2.847346e+03	0	1.196151e-03
9.400000e+08	6.023990e+13	0.000000e+00	7.029701e-01	7.581351e+14	9.612422e+14	9.296419e+13	1.307532e+04	4.642216e+03	2.843080e+03	0	1.189185e-03
9.500000e+08	5.920252e+13	0.000000e+00	7.029701e-01	7.466820e+14	9.478223e+14	9.254263e+13	1.303607e+04	4.635347e+03	2.838873e+03	0	1.182319e-03
9.600000e+08	5.819159e+13	0.000000e+00	7.029701e-01	7.355174e+14	9.347312e+14	9.212395e+13	1.299741e+04	4.628570e+03	2.834722e+03	0	1.175551e-03
9.700000e+08	5.720619e+13	0.000000e+00	7.029701e-01	7.246311e+14	9.219577e+14	9.170812e+13	1.295933e+04	4.621884e+03	2.830628e+03	0	1.168878e-03
9.800000e+08	5.624542e+13	0.000000e+00	7.029701e-01	7.140137e+14	9.094910e+14	9.129512e+13	1.292181e+04	4.615288e+03	2.826588e+03	0	1.162297e-03
9.900000e+08	5.530844e+13	0.000000e+00	7.029701e-01	7.036559e+14	8.973206e+14	9.088493e+13	1.288483e+04	4.608778e+03	2.822601e+03	0	1.155807e-03
1.000000e+09	5.439445e+13	0.000000e+00	7.029701e-01	6.935490e+14	8.854367e+14	9.047752e+13	1.284839e+04	4.602353e+03	2.818666e+03	0	1.149404e-03
1.010000e+09	5.350268e+13	0.000000e+00	7.029701e-01	6.836846e+14	8.738297e+14	9.007288e+13	1.281247e+04	4.596010e+03	2.814782e+03	0	1.143089e-03
1.020000e+09	5.263237e+13	0.000000e+00	7.029701e-01	6.740547e+14	8.624907e+14	8.967097e+13	1.277706e+04	4.589749e+03	2.810947e+03	0	1.136857e-03
1.030000e+09	5.178284e+13	0.000000e+00	7.029701e-01	6.646515e+14	8.514108e+14	8.927179e+13	1.274214e+04	4.583567e+03	2.807161e+03	0	1.130707e-03
1.040000e+09	5.095338e+13	0.000000e+00	7.029701e-01	6.554676e+14	8.405818e+14	8.887530e+13	1.270771e+04	4.577463e+03	2.803422e+03	0	1.124637e-03
1.050000e+09	5.014336e+13	0.000000e+00	7.029701e-01	6.464961e+14	8.299956e+14	8.848150e+13	1.267376e+04	4.571435e+03	2.799730e+03	0	1.118646e-03
1.060000e+09	4.935214e+13	0.000000e+00	7.029701e-01	6.377300e+14	8.196445e+14	8.809034e+13	1.264026e+04	4.565480e+03	2.796084e+03	0	1.112731e-03
1.070000e+09	4.857913e+13	0.000000e+00	7.029701e-01	6.291629e+14	8.095213e+14	8.770182e+13	1.260722e+04	4.559598e+03	2.792481e+03	0	1.106890e-03
1.080000e+09	4.782375e+13	0.000000e+00	7.029701e-01	6.207886e+14	7.996188e+14	8.731592e+13	1.257462e+04	4.553788e+03	2.788923e+03	0	1.101123e-03
1.090000e+09	4.708546e+13	0.000000e+00	7.029701e-01	6.126009e+14	7.899302e+14	8.693261e+13	1.254245e+04	4.548046e+03	2.785407e+03	0	1.095427e-03
1.100000e+09	4.636371e+13	0.000000e+00	7.029701e-01	6.045943e+14	7.804490e+14	8.655188e+13	1.251071e+04	4.542373e+03	2.781932e+03	0	1.089802e-03
1.110000e+09	4.565801e+13	0.000000e+00	7.029701e-01	5.967631e+14	7.711689e+14	8.617370e+13	1.247938e+04	4.536767e+03	2.778498e+03	0	1.084244e-03
1.120000e+09	4.496786e+13	0.000000e+00	7.029701e-01	5.891019e+14	7.620840e+14	8.579805e+13	1.244845e+04	4.531226e+03	2.775105e+03	0	1.078753e-03
1.130000e+09	4.429278e+13	0.000000e+00	7.029701e-01	5.816058e+14	7.531883e+14	8.542491e+13	1.241792e+04	4.525748e+03	2.771750e+03	0	1.073328e-03
1.140000e+09	4.363234e+13	0.000000e+00	7.029701e-01	5.742697e+14	7.444764e+14	8.505427e+13	1.238777e+04	4.520334e+03	2.768434e+03	0	1.067966e-03
1.150000e+09	4.298608e+13	0.000000e+00	7.029701e-01	5.670889e+14	7.359428e+14	8.468611e+13	1.235800e+04	4.514981e+03	2.765156e+03	0	1.062667e-03
1.160000e+09	4.235360e+13	0.000000e+00	7.029701e-01	5.600589e+14	7.275824e+14	8.432040e+13	1.232861e+04	4.509688e+03	2.761914e+03	0	1.057430e-03
1.170000e+09	4.173449e+13	0.000000e+00	7.029701e-01	5.531753e+14	7.193902e+14	8.395713e+13	1.229958e+04	4.504454e+03	2.758709e+03	0	1.052252e-03
1.180000e+09	4.112836e+13	0.000000e+00	7.029701e-01	5.464338e+14	7.113615e+14	8.359627e+13	1.227090e+04	4.499278e+03	2.755539e+03	0	1.047133e-03
1.190000e+09	4.053483e+13	0.000000e+00	7.029701e-01	5.398304e+14	7.034915e+14	8.323781e+13	1.224257e+04	4.494159e+03	2.752404e+03	0	1.042071e-03
1.200000e+09	3.995356e+13	0.000000e+00	7.029701e-01	5.333612e+14	6.957759e+14	8.288174e+13	1.221458e+04	4.489095e+03	2.749303e+03	0	1.037066e-03
1.210000e+09	3.938418e+13	0.000000e+00	7.029701e-01	5.270223e+14	6.882104e+14	8.252802e+13	1.218692e+04	4.484086e+03	2.746235e+03	0	1.032116e-03
1.220000e+09	3.882636e+13	0.000000e+00	7.029701e-01	5.208101e+14	6.807908e+14	8.217665e+13	1.215960e+04	4.479131e+03	2.743200e+03	0	1.027220e-03
1.230000e+09	3.827979e+13	0.000000e+00	7.029701e-01	5.147211e+14	6.735131e+14	8.182760e+13	1.213259e+04	4.474228e+03	2.740197e+03	0	1.022377e-03
1.240000e+09	3.774414e+13	0.000000e+00	7.029701e-01	5.087520e+14	6.663735e+14	8.148086e+13	1.210590e+04	4.469377e+03	2.737226e+03	0	1.017586e-03
1.250000e+09	3.721913e+13	0.000000e+00	7.029701e-01	5.028994e+14	6.593683e+14	8.113641e+13	1.207952e+04	4.464576e+03	2.734286e+03	0	1.012846e-03
1.260000e+09	3.670445e+13	0.000000e+00	7.029701e-01	4.971601e+14	6.524939e+14	8.079422e+13	1.205343e+04	4.459825e+03	2.731376e+03	0	1.008156e-03
1.270000e+09	3.619983e+13	0.000000e+00	7.029701e-01	4.915312e+14	6.457468e+14	8.045430e+13	1.202765e+04	4.455122e+03	2.728496e+03	0	1.003514e-03
1.280000e+09	3.570500e+13	0.000000e+00	7.029701e-01	4.860097e+14	6.391236e+14	8.011661e+13	1.200216e+04	4.450468e+03	2.725646e+03	0	9.989207e-04
1.290000e+09	3.521969e+13	0.000000e+00	7.029701e-01	4.805927e+14	6.326211e+14	7.978114e+13	1.197695e+04	4.445860e+03	2.722824e+03	0	9.943743e-04
1.300000e+09	3.474366e+13	0.000000e+00	7.029701e-01	4.752775e+14	6.262363e+14	7.944787e+13	1.195202e+04	4.441299e+03	2.720030e+03	0	9.898739e-04
1.310000e+09	3.427667e+13	0.000000e+00	7.029701e-01	4.700614e+14	6.199660e+14	7.911678e+13	1.192737e+04	4.436783e+03	2.717265e+03	0	9.854189e-04
1.320000e+09	3.381846e+13	0.000000e+00	7.029701e-01	4.649418e+14	6.138074e+14	7.878787e+13	1.190298e+04	4.432312e+03	2.714526e+03	0	9.810082e-04
1.330000e+09	3.336882e+13	0.000000e+00	7.029701e-01	4.599163e+14	6.077577e+14	7.846110e+13	1.187886e+04	4.427884e+03	2.711814e+03	0	9.766411e-04
1.340000e+09	3.292753e+13	0.000000e+00	7.029701e-01	4.549825e+14	6.018140e+14	7.813647e+13	1.185500e+04	4.423500e+03	2.709129e+03	0	9.723167e-04
1.350000e+09	3.249437e+13	0.000000e+00	7.029701e-01	4.501381e+14	5.959737e+14	7.781396e+13	1.183140e+04	4.419158e+03	2.706470e+03	0	9.680343e-04
1.360000e+09	3.206914e+13	0.000000e+00	7.029701e-01	4.453807e+14	5.902344e+14	7.749355e+13	1.180804e+04	4.414857e+03	2.703836e+03	0	9.637931e-04
