#t		Qconv[W]	Ri[Rp]		R*[Rp]		Qc[W]		Qm[W]		Qr[W]		Tcmb[K]		Tl[K]		Tup[K]		RiFlag		Bs[T]
0.000000e+00	4.345383e+15	0.000000e+00	7.029704e-01	4.541550e+16	3.143670e+15	1.584555e+14	3.915159e+04	4.619636e+03	2.792767e+03	0	4.933478e-03
1.000000e+07	3.806579e+15	0.000000e+00	7.029704e-01	3.981200e+16	2.255703e+16	1.575776e+14	3.712407e+04	6.643918e+03	4.016532e+03	0	4.720508e-03
2.000000e+07	3.309283e+15	0.000000e+00	7.029704e-01	3.464100e+16	3.256190e+16	1.567062e+14	3.533566e+04	7.276081e+03	4.398701e+03	0	4.505280e-03
3.000000e+07	2.895034e+15	0.000000e+00	7.029704e-01	3.033282e+16	3.262766e+16	1.558413e+14	3.377169e+04	7.353351e+03	4.445414e+03	0	4.308854e-03
4.000000e+07	2.551829e+15	0.000000e+00	7.029704e-01	2.676270e+16	2.991492e+16	1.549829e+14	3.239634e+04	7.277417e+03	4.399509e+03	0	4.131373e-03
5.000000e+07	2.265410e+15	0.000000e+00	7.029704e-01	2.378260e+16	2.688700e+16	1.541309e+14	3.117824e+04	7.166667e+03	4.332556e+03	0	3.970630e-03
6.000000e+07	2.024375e+15	0.000000e+00	7.029704e-01	2.127410e+16	2.413250e+16	1.532852e+14	3.009207e+04	7.053309e+03	4.264026e+03	0	3.824495e-03
7.000000e+07	1.819860e+15	0.000000e+00	7.029704e-01	1.914515e+16	2.173943e+16	1.524458e+14	2.911746e+04	6.945656e+03	4.198945e+03	0	3.691106e-03
8.000000e+07	1.644977e+15	0.000000e+00	7.029704e-01	1.732422e+16	1.967879e+16	1.516127e+14	2.823791e+04	6.845414e+03	4.138345e+03	0	3.568867e-03
9.000000e+07	1.494344e+15	0.000000e+00	7.029704e-01	1.575538e+16	1.790124e+16	1.507857e+14	2.743998e+04	6.752461e+03	4.082151e+03	0	3.456427e-03
1.000000e+08	1.363723e+15	0.000000e+00	7.029704e-01	1.439463e+16	1.636032e+16	1.499649e+14	2.671262e+04	6.666201e+03	4.030003e+03	0	3.352632e-03
1.100000e+08	1.249749e+15	0.000000e+00	7.029704e-01	1.320698e+16	1.501687e+16	1.491502e+14	2.604665e+04	6.585967e+03	3.981498e+03	0	3.256503e-03
1.200000e+08	1.149725e+15	0.000000e+00	7.029704e-01	1.216443e+16	1.383888e+16	1.483416e+14	2.543444e+04	6.511132e+03	3.936257e+03	0	3.167198e-03
1.300000e+08	1.061473e+15	0.000000e+00	7.029704e-01	1.124433e+16	1.280034e+16	1.475389e+14	2.486953e+04	6.441142e+03	3.893945e+03	0	3.083994e-03
1.400000e+08	9.832206e+14	0.000000e+00	7.029704e-01	1.042827e+16	1.188004e+16	1.467422e+14	2.434648e+04	6.375507e+03	3.854266e+03	0	3.006267e-03
1.500000e+08	9.135126e+14	0.000000e+00	7.029704e-01	9.701115e+15	1.106062e+16	1.459513e+14	2.386064e+04	6.313803e+03	3.816963e+03	0	2.933473e-03
1.600000e+08	8.511484e+14	0.000000e+00	7.029704e-01	9.050394e+15	1.032778e+16	1.451663e+14	2.340803e+04	6.255659e+03	3.781813e+03	0	2.865138e-03
1.700000e+08	7.951294e+14	0.000000e+00	7.029704e-01	8.465719e+15	9.669645e+15	1.443871e+14	2.298522e+04	6.200750e+03	3.748618e+03	0	2.800849e-03
1.800000e+08	7.446202e+14	0.000000e+00	7.029704e-01	7.938407e+15	9.076308e+15	1.436136e+14	2.258923e+04	6.148789e+03	3.717205e+03	0	2.740241e-03
1.900000e+08	6.989180e+14	0.000000e+00	7.029704e-01	7.461146e+15	8.539447e+15	1.428458e+14	2.221748e+04	6.099526e+03	3.687423e+03	0	2.682991e-03
2.000000e+08	6.574281e+14	0.000000e+00	7.029704e-01	7.027753e+15	8.052036e+15	1.420837e+14	2.186771e+04	6.052735e+03	3.659137e+03	0	2.628814e-03
2.100000e+08	6.196448e+14	0.000000e+00	7.029704e-01	6.632967e+15	7.608106e+15	1.413272e+14	2.153791e+04	6.008220e+03	3.632225e+03	0	2.577457e-03
2.200000e+08	5.851358e+14	0.000000e+00	7.029704e-01	6.272293e+15	7.202565e+15	1.405762e+14	2.122635e+04	5.965802e+03	3.606581e+03	0	2.528693e-03
2.300000e+08	5.535301e+14	0.000000e+00	7.029704e-01	5.941868e+15	6.831046e+15	1.398308e+14	2.093146e+04	5.925322e+03	3.582110e+03	0	2.482319e-03
2.400000e+08	5.245077e+14	0.000000e+00	7.029704e-01	5.638365e+15	6.489787e+15	1.390908e+14	2.065188e+04	5.886638e+03	3.558724e+03	0	2.438154e-03
2.500000e+08	4.977915e+14	0.000000e+00	7.029704e-01	5.358899e+15	6.175534e+15	1.383562e+14	2.038636e+04	5.849622e+03	3.536346e+03	0	2.396034e-03
2.600000e+08	4.731407e+14	0.000000e+00	7.029704e-01	5.100963e+15	5.885459e+15	1.376270e+14	2.013382e+04	5.814157e+03	3.514906e+03	0	2.355812e-03
2.700000e+08	4.503450e+14	0.000000e+00	7.029704e-01	4.862369e+15	5.617097e+15	1.369032e+14	1.989326e+04	5.780138e+03	3.494340e+03	0	2.317353e-03
2.800000e+08	4.292203e+14	0.000000e+00	7.029704e-01	4.641202e+15	5.368292e+15	1.361846e+14	1.966380e+04	5.747470e+03	3.474591e+03	0	2.280538e-03
2.900000e+08	4.096050e+14	0.000000e+00	7.029704e-01	4.435776e+15	5.137149e+15	1.354713e+14	1.944464e+04	5.716065e+03	3.455605e+03	0	2.245255e-03
3.000000e+08	3.913564e+14	0.000000e+00	7.029704e-01	4.244609e+15	4.921998e+15	1.347632e+14	1.923505e+04	5.685843e+03	3.437335e+03	0	2.211403e-03
3.100000e+08	3.743485e+14	0.000000e+00	7.029704e-01	4.066386e+15	4.721364e+15	1.340602e+14	1.903439e+04	5.656733e+03	3.419737e+03	0	2.178893e-03
3.200000e+08	3.584695e+14	0.000000e+00	7.029704e-01	3.899943e+15	4.533940e+15	1.333623e+14	1.884204e+04	5.628668e+03	3.402770e+03	0	2.147639e-03
3.300000e+08	3.436199e+14	0.000000e+00	7.029704e-01	3.744244e+15	4.358562e+15	1.326696e+14	1.865747e+04	5.601585e+03	3.386397e+03	0	2.117564e-03
3.400000e+08	3.297111e+14	0.000000e+00	7.029704e-01	3.598367e+15	4.194194e+15	1.319818e+14	1.848018e+04	5.575430e+03	3.370585e+03	0	2.088599e-03
3.500000e+08	3.166638e+14	0.000000e+00	7.029704e-01	3.461484e+15	4.039909e+15	1.312990e+14	1.830971e+04	5.550149e+03	3.355302e+03	0	2.060677e-03
3.600000e+08	3.044070e+14	0.000000e+00	7.029704e-01	3.332856e+15	3.894877e+15	1.306212e+14	1.814566e+04	5.525695e+03	3.340518e+03	0	2.033740e-03
3.700000e+08	2.928768e+14	0.000000e+00	7.029704e-01	3.211817e+15	3.758353e+15	1.299483e+14	1.798764e+04	5.502024e+03	3.326208e+03	0	2.007731e-03
3.800000e+08	2.820158e+14	0.000000e+00	7.029704e-01	3.097768e+15	3.629664e+15	1.292803e+14	1.783529e+04	5.479093e+03	3.312346e+03	0	1.982599e-03
3.900000e+08	2.717721e+14	0.000000e+00	7.029704e-01	2.990169e+15	3.508205e+15	1.286171e+14	1.768830e+04	5.456866e+03	3.298908e+03	0	1.958298e-03
4.000000e+08	2.620988e+14	0.000000e+00	7.029704e-01	2.888531e+15	3.393428e+15	1.279587e+14	1.754635e+04	5.435306e+03	3.285875e+03	0	1.934783e-03
4.100000e+08	2.529534e+14	0.000000e+00	7.029704e-01	2.792410e+15	3.284836e+15	1.273050e+14	1.740918e+04	5.414381e+03	3.273224e+03	0	1.912012e-03
4.200000e+08	2.442974e+14	0.000000e+00	7.029704e-01	2.701405e+15	3.181980e+15	1.266561e+14	1.727653e+04	5.394059e+03	3.260939e+03	0	1.889949e-03
4.300000e+08	2.360957e+14	0.000000e+00	7.029704e-01	2.615150e+15	3.084450e+15	1.260118e+14	1.714816e+04	5.374312e+03	3.249001e+03	0	1.868558e-03
4.400000e+08	2.283162e+14	0.000000e+00	7.029704e-01	2.533311e+15	2.991871e+15	1.253721e+14	1.702385e+04	5.355113e+03	3.237394e+03	0	1.847805e-03
4.500000e+08	2.209299e+14	0.000000e+00	7.029704e-01	2.455583e+15	2.903904e+15	1.247371e+14	1.690340e+04	5.336436e+03	3.226103e+03	0	1.827660e-03
4.600000e+08	2.139100e+14	0.000000e+00	7.029704e-01	2.381689e+15	2.820235e+15	1.241066e+14	1.678660e+04	5.318259e+03	3.215114e+03	0	1.808093e-03
4.700000e+08	2.072321e+14	0.000000e+00	7.029704e-01	2.311373e+15	2.740581e+15	1.234806e+14	1.667328e+04	5.300558e+03	3.204413e+03	0	1.789079e-03
4.800000e+08	2.008739e+14	0.000000e+00	7.029704e-01	2.244402e+15	2.664679e+15	1.228592e+14	1.656329e+04	5.283313e+03	3.193988e+03	0	1.770591e-03
4.900000e+08	1.948146e+14	0.000000e+00	7.029704e-01	2.180561e+15	2.592289e+15	1.222421e+14	1.645645e+04	5.266505e+03	3.183827e+03	0	1.752606e-03
5.000000e+08	1.890354e+14	0.000000e+00	7.029704e-01	2.119652e+15	2.523189e+15	1.216295e+14	1.635262e+04	5.250114e+03	3.173918e+03	0	1.735102e-03
5.100000e+08	1.835189e+14	0.000000e+00	7.029704e-01	2.061492e+15	2.457176e+15	1.210213e+14	1.625166e+04	5.234125e+03	3.164252e+03	0	1.718056e-03
5.200000e+08	1.782489e+14	0.000000e+00	7.029704e-01	2.005915e+15	2.394060e+15	1.204174e+14	1.615346e+04	5.218519e+03	3.154818e+03	0	1.701451e-03
5.300000e+08	1.732106e+14	0.000000e+00	7.029704e-01	1.952764e+15	2.333670e+15	1.198178e+14	1.605788e+04	5.203283e+03	3.145607e+03	0	1.685267e-03
5.400000e+08	1.683903e+14	0.000000e+00	7.029704e-01	1.901897e+15	2.275843e+15	1.192224e+14	1.596481e+04	5.188401e+03	3.136610e+03	0	1.669486e-03
5.500000e+08	1.637751e+14	0.000000e+00	7.029704e-01	1.853179e+15	2.220432e+15	1.186313e+14	1.587414e+04	5.173860e+03	3.127819e+03	0	1.654092e-03
5.600000e+08	1.593533e+14	0.000000e+00	7.029704e-01	1.806489e+15	2.167297e+15	1.180445e+14	1.578578e+04	5.159646e+03	3.119226e+03	0	1.639070e-03
5.700000e+08	1.551140e+14	0.000000e+00	7.029704e-01	1.761711e+15	2.116311e+15	1.174617e+14	1.569963e+04	5.145747e+03	3.110823e+03	0	1.624404e-03
5.800000e+08	1.510470e+14	0.000000e+00	7.029704e-01	1.718738e+15	2.067355e+15	1.168832e+14	1.561560e+04	5.132151e+03	3.102604e+03	0	1.610081e-03
5.900000e+08	1.471427e+14	0.000000e+00	7.029704e-01	1.677473e+15	2.020317e+15	1.163087e+14	1.553360e+04	5.118848e+03	3.094562e+03	0	1.596088e-03
6.000000e+08	1.433924e+14	0.000000e+00	7.029704e-01	1.637823e+15	1.975095e+15	1.157382e+14	1.545356e+04	5.105827e+03	3.086690e+03	0	1.582411e-03
6.100000e+08	1.397878e+14	0.000000e+00	7.029704e-01	1.599701e+15	1.931592e+15	1.151719e+14	1.537539e+04	5.093077e+03	3.078982e+03	0	1.569039e-03
6.200000e+08	1.363214e+14	0.000000e+00	7.029704e-01	1.563027e+15	1.889719e+15	1.146095e+14	1.529903e+04	5.080589e+03	3.071433e+03	0	1.555960e-03
6.300000e+08	1.329858e+14	0.000000e+00	7.029704e-01	1.527728e+15	1.849390e+15	1.140511e+14	1.522441e+04	5.068354e+03	3.064036e+03	0	1.543164e-03
6.400000e+08	1.297744e+14	0.000000e+00	7.029704e-01	1.493732e+15	1.810529e+15	1.134966e+14	1.515146e+04	5.056364e+03	3.056787e+03	0	1.530641e-03
6.500000e+08	1.266809e+14	0.000000e+00	7.029704e-01	1.460973e+15	1.773061e+15	1.129460e+14	1.508012e+04	5.044609e+03	3.049681e+03	0	1.518381e-03
6.600000e+08	1.236995e+14	0.000000e+00	7.029704e-01	1.429391e+15	1.736917e+15	1.123993e+14	1.501034e+04	5.033083e+03	3.042713e+03	0	1.506375e-03
6.700000e+08	1.208246e+14	0.000000e+00	7.029704e-01	1.398928e+15	1.702034e+15	1.118565e+14	1.494205e+04	5.021778e+03	3.035879e+03	0	1.494614e-03
6.800000e+08	1.180510e+14	0.000000e+00	7.029704e-01	1.369529e+15	1.668349e+15	1.113175e+14	1.487521e+04	5.010686e+03	3.029173e+03	0	1.483089e-03
6.900000e+08	1.153740e+14	0.000000e+00	7.029704e-01	1.341144e+15	1.635807e+15	1.107822e+14	1.480977e+04	4.999801e+03	3.022593e+03	0	1.471792e-03
7.000000e+08	1.127889e+14	0.000000e+00	7.029704e-01	1.313725e+15	1.604353e+15	1.102507e+14	1.474567e+04	4.989116e+03	3.016134e+03	0	1.460717e-03
7.100000e+08	1.102915e+14	0.000000e+00	7.029704e-01	1.287227e+15	1.573938e+15	1.097229e+14	1.468288e+04	4.978626e+03	3.009791e+03	0	1.449855e-03
7.200000e+08	1.078776e+14	0.000000e+00	7.029704e-01	1.261608e+15	1.544514e+15	1.091988e+14	1.462134e+04	4.968323e+03	3.003563e+03	0	1.439199e-03
7.300000e+08	1.055436e+14	0.000000e+00	7.029704e-01	1.236828e+15	1.516035e+15	1.086784e+14	1.456102e+04	4.958202e+03	2.997445e+03	0	1.428744e-03
7.400000e+08	1.032857e+14	0.000000e+00	7.029704e-01	1.212849e+15	1.488461e+15	1.081616e+14	1.450188e+04	4.948258e+03	2.991433e+03	0	1.418482e-03
7.500000e+08	1.011007e+14	0.000000e+00	7.029704e-01	1.189636e+15	1.461751e+15	1.076484e+14	1.444388e+04	4.938486e+03	2.985526e+03	0	1.408408e-03
7.600000e+08	9.898529e+13	0.000000e+00	7.029704e-01	1.167155e+15	1.435868e+15	1.071388e+14	1.438698e+04	4.928881e+03	2.979718e+03	0	1.398516e-03
7.700000e+08	9.693647e+13	0.000000e+00	7.029704e-01	1.145375e+15	1.410776e+15	1.066327e+14	1.433115e+04	4.919436e+03	2.974009e+03	0	1.388800e-03
7.800000e+08	9.495140e+13	0.000000e+00	7.029704e-01	1.124265e+15	1.386441e+15	1.061302e+14	1.427635e+04	4.910149e+03	2.968395e+03	0	1.379254e-03
7.900000e+08	9.302735e+13	0.000000e+00	7.029704e-01	1.103798e+15	1.362832e+15	1.056311e+14	1.422256e+04	4.901015e+03	2.962872e+03	0	1.369874e-03
8.000000e+08	9.116179e+13	0.000000e+00	7.029704e-01	1.083946e+15	1.339918e+15	1.051355e+14	1.416974e+04	4.892029e+03	2.957440e+03	0	1.360655e-03
8.100000e+08	8.935227e+13	0.000000e+00	7.029704e-01	1.064685e+15	1.317672e+15	1.046433e+14	1.411787e+04	4.883187e+03	2.952094e+03	0	1.351592e-03
8.200000e+08	8.759651e+13	0.000000e+00	7.029704e-01	1.045989e+15	1.296066e+15	1.041546e+14	1.406692e+04	4.874485e+03	2.946834e+03	0	1.342681e-03
8.300000e+08	8.589233e+13	0.000000e+00	7.029704e-01	1.027837e+15	1.275074e+15	1.036692e+14	1.401685e+04	4.865919e+03	2.941656e+03	0	1.333916e-03
8.400000e+08	8.423765e+13	0.000000e+00	7.029704e-01	1.010206e+15	1.254672e+15	1.031872e+14	1.396765e+04	4.857486e+03	2.936558e+03	0	1.325295e-03
8.500000e+08	8.263051e+13	0.000000e+00	7.029704e-01	9.930761e+14	1.234838e+15	1.027085e+14	1.391928e+04	4.849183e+03	2.931538e+03	0	1.316813e-03
8.600000e+08	8.106905e+13	0.000000e+00	7.029704e-01	9.764276e+14	1.215548e+15	1.022331e+14	1.387174e+04	4.841005e+03	2.926594e+03	0	1.308465e-03
8.700000e+08	7.955149e+13	0.000000e+00	7.029704e-01	9.602419e+14	1.196782e+15	1.017609e+14	1.382498e+04	4.832950e+03	2.921724e+03	0	1.300249e-03
8.800000e+08	7.807615e+13	0.000000e+00	7.029704e-01	9.445012e+14	1.178521e+15	1.012920e+14	1.377900e+04	4.825014e+03	2.916926e+03	0	1.292161e-03
8.900000e+08	7.664143e+13	0.000000e+00	7.029704e-01	9.291887e+14	1.160745e+15	1.008264e+14	1.373376e+04	4.817194e+03	2.912199e+03	0	1.284197e-03
9.000000e+08	7.524578e+13	0.000000e+00	7.029704e-01	9.142884e+14	1.143436e+15	1.003639e+14	1.368926e+04	4.809488e+03	2.907540e+03	0	1.276354e-03
9.100000e+08	7.388776e+13	0.000000e+00	7.029704e-01	8.997851e+14	1.126577e+15	9.990461e+13	1.364547e+04	4.801892e+03	2.902949e+03	0	1.268629e-03
9.200000e+08	7.256599e+13	0.000000e+00	7.029704e-01	8.856641e+14	1.110151e+15	9.944846e+13	1.360236e+04	4.794404e+03	2.898422e+03	0	1.261019e-03
9.300000e+08	7.127913e+13	0.000000e+00	7.029704e-01	8.719115e+14	1.094144e+15	9.899543e+13	1.355993e+04	4.787022e+03	2.893959e+03	0	1.253520e-03
9.400000e+08	7.002592e+13	0.000000e+00	7.029704e-01	8.585141e+14	1.078540e+15	9.854549e+13	1.351816e+04	4.779742e+03	2.889558e+03	0	1.246130e-03
9.500000e+08	6.880517e+13	0.000000e+00	7.029704e-01	8.454594e+14	1.063325e+15	9.809863e+13	1.347702e+04	4.772562e+03	2.885217e+03	0	1.238847e-03
9.600000e+08	6.761571e+13	0.000000e+00	7.029704e-01	8.327351e+14	1.048485e+15	9.765481e+13	1.343651e+04	4.765480e+03	2.880936e+03	0	1.231666e-03
9.700000e+08	6.645646e+13	0.000000e+00	7.029704e-01	8.203297e+14	1.034008e+15	9.721402e+13	1.339660e+04	4.758493e+03	2.876712e+03	0	1.224587e-03
9.800000e+08	6.532636e+13	0.000000e+00	7.029704e-01	8.082322e+14	1.019881e+15	9.677622e+13	1.335729e+04	4.751600e+03	2.872545e+03	0	1.217606e-03
9.900000e+08	6.422441e+13	0.000000e+00	7.029704e-01	7.964322e+14	1.006092e+15	9.634140e+13	1.331855e+04	4.744798e+03	2.868432e+03	0	1.210720e-03
1.000000e+09	6.314965e+13	0.000000e+00	7.029704e-01	7.849194e+14	9.926290e+14	9.590954e+13	1.328037e+04	4.738084e+03	2.864374e+03	0	1.203929e-03
1.010000e+09	6.210115e+13	0.000000e+00	7.029704e-01	7.736842e+14	9.794823e+14	9.548060e+13	1.324275e+04	4.731458e+03	2.860368e+03	0	1.197229e-03
1.020000e+09	6.107805e+13	0.000000e+00	7.029704e-01	7.627174e+14	9.666410e+14	9.505456e+13	1.320566e+04	4.724917e+03	2.856414e+03	0	1.190617e-03
1.030000e+09	6.007949e+13	0.000000e+00	7.029704e-01	7.520101e+14	9.540952e+14	9.463141e+13	1.316909e+04	4.718459e+03	2.852510e+03	0	1.184093e-03
1.040000e+09	5.910467e+13	0.000000e+00	7.029704e-01	7.415538e+14	9.418353e+14	9.421112e+13	1.313304e+04	4.712082e+03	2.848655e+03	0	1.177654e-03
1.050000e+09	5.815282e+13	0.000000e+00	7.029704e-01	7.313405e+14	9.298521e+14	9.379367e+13	1.309748e+04	4.705785e+03	2.844848e+03	0	1.171298e-03
1.060000e+09	5.722319e+13	0.000000e+00	7.029704e-01	7.213622e+14	9.181369e+14	9.337904e+13	1.306241e+04	4.699565e+03	2.841088e+03	0	1.165023e-03
1.070000e+09	5.631508e+13	0.000000e+00	7.029704e-01	7.116115e+14	9.066811e+14	9.296719e+13	1.302782e+04	4.693422e+03	2.837374e+03	0	1.158827e-03
1.080000e+09	5.542779e+13	0.000000e+00	7.029704e-01	7.020813e+14	8.954768e+14	9.255812e+13	1.299369e+04	4.687353e+03	2.833705e+03	0	1.152709e-03
1.090000e+09	5.456068e+13	0.000000e+00	7.029704e-01	6.927647e+14	8.845161e+14	9.215180e+13	1.296002e+04	4.681358e+03	2.830080e+03	0	1.146666e-03
1.100000e+09	5.371312e+13	0.000000e+00	7.029704e-01	6.836549e+14	8.737916e+14	9.174821e+13	1.292679e+04	4.675433e+03	2.826499e+03	0	1.140698e-03
1.110000e+09	5.288449e+13	0.000000e+00	7.029704e-01	6.747457e+14	8.632961e+14	9.134732e+13	1.289400e+04	4.669578e+03	2.822959e+03	0	1.134802e-03
1.120000e+09	5.207423e+13	0.000000e+00	7.029704e-01	6.660310e+14	8.530227e+14	9.094912e+13	1.286163e+04	4.663792e+03	2.819461e+03	0	1.128976e-03
1.130000e+09	5.128177e+13	0.000000e+00	7.029704e-01	6.575048e+14	8.429647e+14	9.055358e+13	1.282968e+04	4.658073e+03	2.816004e+03	0	1.123220e-03
1.140000e+09	5.050657e+13	0.000000e+00	7.029704e-01	6.491616e+14	8.331158e+14	9.016069e+13	1.279814e+04	4.652420e+03	2.812586e+03	0	1.117532e-03
1.150000e+09	4.974812e+13	0.000000e+00	7.029704e-01	6.409958e+14	8.234699e+14	8.977042e+13	1.276700e+04	4.646831e+03	2.809208e+03	0	1.111909e-03
1.160000e+09	4.900593e+13	0.000000e+00	7.029704e-01	6.330023e+14	8.140210e+14	8.938276e+13	1.273624e+04	4.641305e+03	2.805867e+03	0	1.106352e-03
1.170000e+09	4.827951e+13	0.000000e+00	7.029704e-01	6.251760e+14	8.047634e+14	8.899767e+13	1.270587e+04	4.635841e+03	2.802564e+03	0	1.100858e-03
1.180000e+09	4.756840e+13	0.000000e+00	7.029704e-01	6.175121e+14	7.956918e+14	8.861515e+13	1.267587e+04	4.630438e+03	2.799297e+03	0	1.095427e-03
1.190000e+09	4.687216e+13	0.000000e+00	7.029704e-01	6.100058e+14	7.868007e+14	8.823517e+13	1.264624e+04	4.625094e+03	2.796067e+03	0	1.090056e-03
1.200000e+09	4.619037e+13	0.000000e+00	7.029704e-01	6.026528e+14	7.780852e+14	8.785772e+13	1.261697e+04	4.619809e+03	2.792871e+03	0	1.084745e-03
1.210000e+09	4.552261e+13	0.000000e+00	7.029704e-01	5.954487e+14	7.695402e+14	8.748277e+13	1.258805e+04	4.614581e+03	2.789711e+03	0	1.079492e-03
1.220000e+09	4.486848e+13	0.000000e+00	7.029704e-01	5.883892e+14	7.611612e+14	8.711030e+13	1.255947e+04	4.609408e+03	2.786584e+03	0	1.074297e-03
1.230000e+09	4.422761e+13	0.000000e+00	7.029704e-01	5.814704e+14	7.529434e+14	8.674029e+13	1.253123e+04	4.604291e+03	2.783490e+03	0	1.069157e-03
1.240000e+09	4.359962e+13	0.000000e+00	7.029704e-01	5.746883e+14	7.448826e+14	8.637274e+13	1.250332e+04	4.599228e+03	2.780430e+03	0	1.064073e-03
1.250000e+09	4.298415e+13	0.000000e+00	7.029704e-01	5.680392e+14	7.369745e+14	8.600760e+13	1.247574e+04	4.594218e+03	2.777401e+03	0	1.059042e-03
1.260000e+09	4.238088e+13	0.000000e+00	7.029704e-01	5.615196e+14	7.292150e+14	8.564488e+13	1.244847e+04	4.589260e+03	2.774403e+03	0	1.054064e-03
1.270000e+09	4.178945e+13	0.000000e+00	7.029704e-01	5.551258e+14	7.216001e+14	8.528455e+13	1.242151e+04	4.584353e+03	2.771437e+03	0	1.049138e-03
1.280000e+09	4.120956e+13	0.000000e+00	7.029704e-01	5.488546e+14	7.141260e+14	8.492658e+13	1.239486e+04	4.579496e+03	2.768501e+03	0	1.044263e-03
1.290000e+09	4.064089e+13	0.000000e+00	7.029704e-01	5.427026e+14	7.067890e+14	8.457097e+13	1.236852e+04	4.574689e+03	2.765595e+03	0	1.039437e-03
1.300000e+09	4.008315e+13	0.000000e+00	7.029704e-01	5.366667e+14	6.995856e+14	8.421769e+13	1.234246e+04	4.569930e+03	2.762717e+03	0	1.034660e-03
1.310000e+09	3.953604e+13	0.000000e+00	7.029704e-01	5.307439e+14	6.925122e+14	8.386673e+13	1.231669e+04	4.565218e+03	2.759869e+03	0	1.029931e-03
1.320000e+09	3.899929e+13	0.000000e+00	7.029704e-01	5.249312e+14	6.855657e+14	8.351806e+13	1.229121e+04	4.560553e+03	2.757049e+03	0	1.025249e-03
1.330000e+09	3.847263e+13	0.000000e+00	7.029704e-01	5.192258e+14	6.787426e+14	8.317168e+13	1.226601e+04	4.555934e+03	2.754257e+03	0	1.020613e-03
1.340000e+09	3.795580e+13	0.000000e+00	7.029704e-01	5.136249e+14	6.720400e+14	8.282756e+13	1.224107e+04	4.551360e+03	2.751491e+03	0	1.016022e-03
1.350000e+09	3.744854e+13	0.000000e+00	7.029704e-01	5.081259e+14	6.654548e+14	8.248569e+13	1.221641e+04	4.546831e+03	2.748753e+03	0	1.011476e-03
1.360000e+09	3.695062e+13	0.000000e+00	7.029704e-01	5.027261e+14	6.589841e+14	8.214604e+13	1.219201e+04	4.542345e+03	2.746041e+03	0	1.006973e-03
