#t		Qconv[W]	Ri[Rp]		R*[Rp]		Qc[W]		Qm[W]		Qr[W]		Tcmb[K]		Tl[K]		Tup[K]		RiFlag		Bs[T]
0.000000e+00	4.811941e+15	0.000000e+00	7.029704e-01	4.845914e+16	3.094780e+15	1.688370e+14	4.053723e+04	4.702865e+03	2.828071e+03	0	5.094053e-03
1.000000e+07	4.248751e+15	0.000000e+00	7.029704e-01	4.281847e+16	2.316359e+16	1.679015e+14	3.853457e+04	6.779780e+03	4.077025e+03	0	4.887016e-03
2.000000e+07	3.717081e+15	0.000000e+00	7.029704e-01	3.749474e+16	3.457168e+16	1.669730e+14	3.675493e+04	7.469568e+03	4.491830e+03	0	4.674022e-03
3.000000e+07	3.268353e+15	0.000000e+00	7.029704e-01	3.300082e+16	3.515840e+16	1.660515e+14	3.518927e+04	7.571077e+03	4.552872e+03	0	4.477817e-03
4.000000e+07	2.893484e+15	0.000000e+00	7.029704e-01	2.924572e+16	3.249114e+16	1.651368e+14	3.380574e+04	7.504203e+03	4.512658e+03	0	4.299624e-03
5.000000e+07	2.578564e+15	0.000000e+00	7.029704e-01	2.609037e+16	2.935479e+16	1.642290e+14	3.257528e+04	7.396840e+03	4.448095e+03	0	4.137608e-03
6.000000e+07	2.312028e+15	0.000000e+00	7.029704e-01	2.341912e+16	2.645236e+16	1.633279e+14	3.147405e+04	7.284672e+03	4.380643e+03	0	3.989830e-03
7.000000e+07	2.084728e+15	0.000000e+00	7.029704e-01	2.114051e+16	2.390789e+16	1.624335e+14	3.048270e+04	7.177252e+03	4.316045e+03	0	3.854546e-03
8.000000e+07	1.889477e+15	0.000000e+00	7.029704e-01	1.918266e+16	2.170338e+16	1.615458e+14	2.958543e+04	7.076761e+03	4.255615e+03	0	3.730244e-03
9.000000e+07	1.720608e+15	0.000000e+00	7.029704e-01	1.748891e+16	1.979253e+16	1.606647e+14	2.876930e+04	6.983277e+03	4.199398e+03	0	3.615631e-03
1.000000e+08	1.573628e+15	0.000000e+00	7.029704e-01	1.601429e+16	1.812927e+16	1.597901e+14	2.802357e+04	6.896306e+03	4.147099e+03	0	3.509598e-03
1.100000e+08	1.444943e+15	0.000000e+00	7.029704e-01	1.472288e+16	1.667394e+16	1.589220e+14	2.733934e+04	6.815240e+03	4.098349e+03	0	3.411198e-03
1.200000e+08	1.331658e+15	0.000000e+00	7.029704e-01	1.358570e+16	1.539373e+16	1.580604e+14	2.670911e+04	6.739489e+03	4.052796e+03	0	3.319615e-03
1.300000e+08	1.231422e+15	0.000000e+00	7.029704e-01	1.257922e+16	1.426176e+16	1.572051e+14	2.612656e+04	6.668521e+03	4.010120e+03	0	3.234142e-03
1.400000e+08	1.142311e+15	0.000000e+00	7.029704e-01	1.168419e+16	1.325600e+16	1.563562e+14	2.558630e+04	6.601869e+03	3.970038e+03	0	3.154168e-03
1.500000e+08	1.062739e+15	0.000000e+00	7.029704e-01	1.088475e+16	1.235831e+16	1.555135e+14	2.508374e+04	6.539121e+03	3.932305e+03	0	3.079160e-03
1.600000e+08	9.913923e+14	0.000000e+00	7.029704e-01	1.016774e+16	1.155366e+16	1.546771e+14	2.461492e+04	6.479917e+03	3.896702e+03	0	3.008652e-03
1.700000e+08	9.271734e+14	0.000000e+00	7.029704e-01	9.522178e+15	1.082953e+16	1.538468e+14	2.417643e+04	6.423939e+03	3.863040e+03	0	2.942233e-03
1.800000e+08	8.691611e+14	0.000000e+00	7.029704e-01	8.938836e+15	1.017545e+16	1.530227e+14	2.376529e+04	6.370910e+03	3.831151e+03	0	2.879542e-03
1.900000e+08	8.165773e+14	0.000000e+00	7.029704e-01	8.409925e+15	9.582583e+15	1.522046e+14	2.337890e+04	6.320581e+03	3.800886e+03	0	2.820260e-03
2.000000e+08	7.687620e+14	0.000000e+00	7.029704e-01	7.928836e+15	9.043435e+15	1.513925e+14	2.301500e+04	6.272733e+03	3.772112e+03	0	2.764102e-03
2.100000e+08	7.251520e+14	0.000000e+00	7.029704e-01	7.489928e+15	8.551632e+15	1.505865e+14	2.267157e+04	6.227170e+03	3.744713e+03	0	2.710814e-03
2.200000e+08	6.852646e+14	0.000000e+00	7.029704e-01	7.088366e+15	8.101718e+15	1.497863e+14	2.234686e+04	6.183717e+03	3.718583e+03	0	2.660171e-03
2.300000e+08	6.486845e+14	0.000000e+00	7.029704e-01	6.719989e+15	7.688999e+15	1.489920e+14	2.203930e+04	6.142218e+03	3.693627e+03	0	2.611968e-03
2.400000e+08	6.150526e+14	0.000000e+00	7.029704e-01	6.381199e+15	7.309425e+15	1.482035e+14	2.174748e+04	6.102530e+03	3.669761e+03	0	2.566024e-03
2.500000e+08	5.840571e+14	0.000000e+00	7.029704e-01	6.068872e+15	6.959481e+15	1.474208e+14	2.147015e+04	6.064527e+03	3.646908e+03	0	2.522175e-03
2.600000e+08	5.554265e+14	0.000000e+00	7.029704e-01	5.780288e+15	6.636110e+15	1.466439e+14	2.120621e+04	6.028093e+03	3.624998e+03	0	2.480270e-03
2.700000e+08	5.289233e+14	0.000000e+00	7.029704e-01	5.513066e+15	6.336638e+15	1.458726e+14	2.095465e+04	5.993122e+03	3.603968e+03	0	2.440175e-03
2.800000e+08	5.043393e+14	0.000000e+00	7.029704e-01	5.265117e+15	6.058723e+15	1.451069e+14	2.071456e+04	5.959520e+03	3.583761e+03	0	2.401768e-03
2.900000e+08	4.814911e+14	0.000000e+00	7.029704e-01	5.034604e+15	5.800303e+15	1.443469e+14	2.048513e+04	5.927199e+03	3.564325e+03	0	2.364936e-03
3.000000e+08	4.602166e+14	0.000000e+00	7.029704e-01	4.819902e+15	5.559557e+15	1.435924e+14	2.026561e+04	5.896080e+03	3.545612e+03	0	2.329579e-03
3.100000e+08	4.403725e+14	0.000000e+00	7.029704e-01	4.619573e+15	5.334875e+15	1.428433e+14	2.005534e+04	5.866090e+03	3.527577e+03	0	2.295603e-03
3.200000e+08	4.218314e+14	0.000000e+00	7.029704e-01	4.432339e+15	5.124827e+15	1.420998e+14	1.985370e+04	5.837163e+03	3.510182e+03	0	2.262923e-03
3.300000e+08	4.044798e+14	0.000000e+00	7.029704e-01	4.257062e+15	4.928139e+15	1.413616e+14	1.966013e+04	5.809236e+03	3.493388e+03	0	2.231459e-03
3.400000e+08	3.882164e+14	0.000000e+00	7.029704e-01	4.092726e+15	4.743674e+15	1.406288e+14	1.947413e+04	5.782254e+03	3.477162e+03	0	2.201142e-03
3.500000e+08	3.729504e+14	0.000000e+00	7.029704e-01	3.938420e+15	4.570414e+15	1.399013e+14	1.929523e+04	5.756163e+03	3.461473e+03	0	2.171903e-03
3.600000e+08	3.586005e+14	0.000000e+00	7.029704e-01	3.793327e+15	4.407446e+15	1.391791e+14	1.912299e+04	5.730916e+03	3.446290e+03	0	2.143682e-03
3.700000e+08	3.450935e+14	0.000000e+00	7.029704e-01	3.656713e+15	4.253949e+15	1.384621e+14	1.895703e+04	5.706467e+03	3.431588e+03	0	2.116422e-03
3.800000e+08	3.323632e+14	0.000000e+00	7.029704e-01	3.527915e+15	4.109183e+15	1.377503e+14	1.879698e+04	5.682776e+03	3.417341e+03	0	2.090071e-03
3.900000e+08	3.203503e+14	0.000000e+00	7.029704e-01	3.406335e+15	3.972480e+15	1.370436e+14	1.864251e+04	5.659803e+03	3.403526e+03	0	2.064580e-03
4.000000e+08	3.090005e+14	0.000000e+00	7.029704e-01	3.291431e+15	3.843233e+15	1.363421e+14	1.849331e+04	5.637512e+03	3.390122e+03	0	2.039904e-03
4.100000e+08	2.982651e+14	0.000000e+00	7.029704e-01	3.182711e+15	3.720895e+15	1.356456e+14	1.834909e+04	5.615871e+03	3.377108e+03	0	2.016002e-03
4.200000e+08	2.880995e+14	0.000000e+00	7.029704e-01	3.079728e+15	3.604967e+15	1.349541e+14	1.820959e+04	5.594847e+03	3.364465e+03	0	1.992833e-03
4.300000e+08	2.784632e+14	0.000000e+00	7.029704e-01	2.982076e+15	3.494995e+15	1.342676e+14	1.807456e+04	5.574412e+03	3.352177e+03	0	1.970362e-03
4.400000e+08	2.693193e+14	0.000000e+00	7.029704e-01	2.889384e+15	3.390564e+15	1.335861e+14	1.794376e+04	5.554538e+03	3.340225e+03	0	1.948555e-03
4.500000e+08	2.606341e+14	0.000000e+00	7.029704e-01	2.801313e+15	3.291296e+15	1.329094e+14	1.781700e+04	5.535200e+03	3.328597e+03	0	1.927379e-03
4.600000e+08	2.523766e+14	0.000000e+00	7.029704e-01	2.717552e+15	3.196846e+15	1.322376e+14	1.769406e+04	5.516374e+03	3.317275e+03	0	1.906806e-03
4.700000e+08	2.445186e+14	0.000000e+00	7.029704e-01	2.637817e+15	3.106895e+15	1.315706e+14	1.757476e+04	5.498037e+03	3.306249e+03	0	1.886807e-03
4.800000e+08	2.370342e+14	0.000000e+00	7.029704e-01	2.561847e+15	3.021153e+15	1.309084e+14	1.745893e+04	5.480169e+03	3.295503e+03	0	1.867356e-03
4.900000e+08	2.298993e+14	0.000000e+00	7.029704e-01	2.489403e+15	2.939352e+15	1.302510e+14	1.734641e+04	5.462748e+03	3.285027e+03	0	1.848428e-03
5.000000e+08	2.230921e+14	0.000000e+00	7.029704e-01	2.420262e+15	2.861246e+15	1.295982e+14	1.723704e+04	5.445757e+03	3.274810e+03	0	1.830002e-03
5.100000e+08	2.165924e+14	0.000000e+00	7.029704e-01	2.354222e+15	2.786606e+15	1.289501e+14	1.713069e+04	5.429178e+03	3.264840e+03	0	1.812054e-03
5.200000e+08	2.103813e+14	0.000000e+00	7.029704e-01	2.291095e+15	2.715224e+15	1.283067e+14	1.702721e+04	5.412994e+03	3.255108e+03	0	1.794565e-03
5.300000e+08	2.044416e+14	0.000000e+00	7.029704e-01	2.230706e+15	2.646906e+15	1.276678e+14	1.692649e+04	5.397189e+03	3.245603e+03	0	1.777515e-03
5.400000e+08	1.987574e+14	0.000000e+00	7.029704e-01	2.172895e+15	2.581471e+15	1.270335e+14	1.682839e+04	5.381749e+03	3.236318e+03	0	1.760886e-03
5.500000e+08	1.933137e+14	0.000000e+00	7.029704e-01	2.117512e+15	2.518754e+15	1.264036e+14	1.673282e+04	5.366659e+03	3.227244e+03	0	1.744661e-03
5.600000e+08	1.880970e+14	0.000000e+00	7.029704e-01	2.064420e+15	2.458600e+15	1.257783e+14	1.663967e+04	5.351907e+03	3.218373e+03	0	1.728823e-03
5.700000e+08	1.830942e+14	0.000000e+00	7.029704e-01	2.013489e+15	2.400866e+15	1.251574e+14	1.654883e+04	5.337479e+03	3.209697e+03	0	1.713359e-03
5.800000e+08	1.782937e+14	0.000000e+00	7.029704e-01	1.964600e+15	2.345418e+15	1.245409e+14	1.646022e+04	5.323363e+03	3.201208e+03	0	1.698252e-03
5.900000e+08	1.736844e+14	0.000000e+00	7.029704e-01	1.917643e+15	2.292133e+15	1.239288e+14	1.637374e+04	5.309549e+03	3.192901e+03	0	1.683489e-03
6.000000e+08	1.692559e+14	0.000000e+00	7.029704e-01	1.872512e+15	2.240895e+15	1.233210e+14	1.628931e+04	5.296025e+03	3.184768e+03	0	1.669057e-03
6.100000e+08	1.649986e+14	0.000000e+00	7.029704e-01	1.829113e+15	2.191595e+15	1.227175e+14	1.620686e+04	5.282781e+03	3.176804e+03	0	1.654945e-03
6.200000e+08	1.609036e+14	0.000000e+00	7.029704e-01	1.787353e+15	2.144133e+15	1.221183e+14	1.612630e+04	5.269807e+03	3.169002e+03	0	1.641139e-03
6.300000e+08	1.569626e+14	0.000000e+00	7.029704e-01	1.747150e+15	2.098415e+15	1.215233e+14	1.604757e+04	5.257095e+03	3.161357e+03	0	1.627629e-03
6.400000e+08	1.531676e+14	0.000000e+00	7.029704e-01	1.708423e+15	2.054353e+15	1.209325e+14	1.597060e+04	5.244634e+03	3.153864e+03	0	1.614404e-03
6.500000e+08	1.495113e+14	0.000000e+00	7.029704e-01	1.671100e+15	2.011864e+15	1.203459e+14	1.589532e+04	5.232417e+03	3.146518e+03	0	1.601455e-03
6.600000e+08	1.459869e+14	0.000000e+00	7.029704e-01	1.635110e+15	1.970871e+15	1.197634e+14	1.582168e+04	5.220436e+03	3.139313e+03	0	1.588771e-03
6.700000e+08	1.425879e+14	0.000000e+00	7.029704e-01	1.600389e+15	1.931300e+15	1.191849e+14	1.574961e+04	5.208683e+03	3.132245e+03	0	1.576344e-03
6.800000e+08	1.393082e+14	0.000000e+00	7.029704e-01	1.566876e+15	1.893085e+15	1.186106e+14	1.567906e+04	5.197150e+03	3.125310e+03	0	1.564164e-03
6.900000e+08	1.361422e+14	0.000000e+00	7.029704e-01	1.534513e+15	1.856161e+15	1.180403e+14	1.560998e+04	5.185831e+03	3.118503e+03	0	1.552224e-03
7.000000e+08	1.330845e+14	0.000000e+00	7.029704e-01	1.503246e+15	1.820468e+15	1.174739e+14	1.554231e+04	5.174718e+03	3.111820e+03	0	1.540515e-03
7.100000e+08	1.301301e+14	0.000000e+00	7.029704e-01	1.473025e+15	1.785949e+15	1.169116e+14	1.547602e+04	5.163807e+03	3.105259e+03	0	1.529030e-03
7.200000e+08	1.272742e+14	0.000000e+00	7.029704e-01	1.443802e+15	1.752551e+15	1.163532e+14	1.541105e+04	5.153089e+03	3.098814e+03	0	1.517761e-03
7.300000e+08	1.245123e+14	0.000000e+00	7.029704e-01	1.415532e+15	1.720223e+15	1.157986e+14	1.534736e+04	5.142560e+03	3.092482e+03	0	1.506702e-03
7.400000e+08	1.218403e+14	0.000000e+00	7.029704e-01	1.388172e+15	1.688918e+15	1.152480e+14	1.528491e+04	5.132214e+03	3.086260e+03	0	1.495847e-03
7.500000e+08	1.192542e+14	0.000000e+00	7.029704e-01	1.361682e+15	1.658591e+15	1.147012e+14	1.522366e+04	5.122045e+03	3.080145e+03	0	1.485187e-03
7.600000e+08	1.167502e+14	0.000000e+00	7.029704e-01	1.336024e+15	1.629200e+15	1.141582e+14	1.516357e+04	5.112049e+03	3.074134e+03	0	1.474719e-03
7.700000e+08	1.143248e+14	0.000000e+00	7.029704e-01	1.311163e+15	1.600704e+15	1.136189e+14	1.510461e+04	5.102219e+03	3.068223e+03	0	1.464435e-03
7.800000e+08	1.119745e+14	0.000000e+00	7.029704e-01	1.287064e+15	1.573066e+15	1.130834e+14	1.504674e+04	5.092552e+03	3.062410e+03	0	1.454331e-03
7.900000e+08	1.096963e+14	0.000000e+00	7.029704e-01	1.263696e+15	1.546250e+15	1.125517e+14	1.498992e+04	5.083043e+03	3.056692e+03	0	1.444400e-03
8.000000e+08	1.074872e+14	0.000000e+00	7.029704e-01	1.241028e+15	1.520223e+15	1.120236e+14	1.493413e+04	5.073688e+03	3.051066e+03	0	1.434638e-03
8.100000e+08	1.053442e+14	0.000000e+00	7.029704e-01	1.219032e+15	1.494951e+15	1.114992e+14	1.487934e+04	5.064482e+03	3.045529e+03	0	1.425039e-03
8.200000e+08	1.032646e+14	0.000000e+00	7.029704e-01	1.197679e+15	1.470404e+15	1.109784e+14	1.482551e+04	5.055420e+03	3.040081e+03	0	1.415600e-03
8.300000e+08	1.012460e+14	0.000000e+00	7.029704e-01	1.176945e+15	1.446554e+15	1.104612e+14	1.477262e+04	5.046501e+03	3.034717e+03	0	1.406315e-03
8.400000e+08	9.928589e+13	0.000000e+00	7.029704e-01	1.156804e+15	1.423372e+15	1.099476e+14	1.472064e+04	5.037718e+03	3.029435e+03	0	1.397181e-03
8.500000e+08	9.738192e+13	0.000000e+00	7.029704e-01	1.137234e+15	1.400834e+15	1.094376e+14	1.466954e+04	5.029070e+03	3.024235e+03	0	1.388192e-03
8.600000e+08	9.553192e+13	0.000000e+00	7.029704e-01	1.118212e+15	1.378913e+15	1.089310e+14	1.461931e+04	5.020552e+03	3.019112e+03	0	1.379345e-03
8.700000e+08	9.373381e+13	0.000000e+00	7.029704e-01	1.099717e+15	1.357587e+15	1.084279e+14	1.456991e+04	5.012161e+03	3.014066e+03	0	1.370636e-03
8.800000e+08	9.198559e+13	0.000000e+00	7.029704e-01	1.081728e+15	1.336832e+15	1.079283e+14	1.452132e+04	5.003893e+03	3.009095e+03	0	1.362061e-03
8.900000e+08	9.028537e+13	0.000000e+00	7.029704e-01	1.064228e+15	1.316628e+15	1.074322e+14	1.447352e+04	4.995746e+03	3.004195e+03	0	1.353617e-03
9.000000e+08	8.863136e+13	0.000000e+00	7.029704e-01	1.047197e+15	1.296954e+15	1.069394e+14	1.442650e+04	4.987717e+03	2.999367e+03	0	1.345300e-03
9.100000e+08	8.702184e+13	0.000000e+00	7.029704e-01	1.030618e+15	1.277791e+15	1.064500e+14	1.438022e+04	4.979802e+03	2.994607e+03	0	1.337107e-03
9.200000e+08	8.545517e+13	0.000000e+00	7.029704e-01	1.014475e+15	1.259119e+15	1.059640e+14	1.433467e+04	4.971999e+03	2.989915e+03	0	1.329034e-03
9.300000e+08	8.392980e+13	0.000000e+00	7.029704e-01	9.987521e+14	1.240923e+15	1.054813e+14	1.428983e+04	4.964306e+03	2.985289e+03	0	1.321079e-03
9.400000e+08	8.244424e+13	0.000000e+00	7.029704e-01	9.834340e+14	1.223183e+15	1.050018e+14	1.424568e+04	4.956718e+03	2.980726e+03	0	1.313238e-03
9.500000e+08	8.099706e+13	0.000000e+00	7.029704e-01	9.685065e+14	1.205886e+15	1.045257e+14	1.420220e+04	4.949235e+03	2.976226e+03	0	1.305509e-03
9.600000e+08	7.958692e+13	0.000000e+00	7.029704e-01	9.539558e+14	1.189014e+15	1.040528e+14	1.415939e+04	4.941853e+03	2.971787e+03	0	1.297888e-03
9.700000e+08	7.821251e+13	0.000000e+00	7.029704e-01	9.397688e+14	1.172554e+15	1.035831e+14	1.411721e+04	4.934570e+03	2.967407e+03	0	1.290374e-03
9.800000e+08	7.687260e+13	0.000000e+00	7.029704e-01	9.259329e+14	1.156491e+15	1.031167e+14	1.407566e+04	4.927384e+03	2.963086e+03	0	1.282962e-03
9.900000e+08	7.556600e+13	0.000000e+00	7.029704e-01	9.124363e+14	1.140812e+15	1.026533e+14	1.403471e+04	4.920293e+03	2.958821e+03	0	1.275652e-03
1.000000e+09	7.429158e+13	0.000000e+00	7.029704e-01	8.992674e+14	1.125505e+15	1.021932e+14	1.399436e+04	4.913294e+03	2.954613e+03	0	1.268440e-03
1.010000e+09	7.304825e+13	0.000000e+00	7.029704e-01	8.864152e+14	1.110555e+15	1.017361e+14	1.395459e+04	4.906385e+03	2.950458e+03	0	1.261324e-03
1.020000e+09	7.183498e+13	0.000000e+00	7.029704e-01	8.738692e+14	1.095953e+15	1.012822e+14	1.391538e+04	4.899565e+03	2.946356e+03	0	1.254302e-03
1.030000e+09	7.065077e+13	0.000000e+00	7.029704e-01	8.616194e+14	1.081687e+15	1.008313e+14	1.387673e+04	4.892830e+03	2.942307e+03	0	1.247371e-03
1.040000e+09	6.949467e+13	0.000000e+00	7.029704e-01	8.496560e+14	1.067745e+15	1.003835e+14	1.383862e+04	4.886181e+03	2.938308e+03	0	1.240530e-03
1.050000e+09	6.836577e+13	0.000000e+00	7.029704e-01	8.379699e+14	1.054118e+15	9.993870e+13	1.380103e+04	4.879614e+03	2.934359e+03	0	1.233776e-03
1.060000e+09	6.726318e+13	0.000000e+00	7.029704e-01	8.265522e+14	1.040795e+15	9.949690e+13	1.376396e+04	4.873127e+03	2.930458e+03	0	1.227107e-03
1.070000e+09	6.618607e+13	0.000000e+00	7.029704e-01	8.153943e+14	1.027768e+15	9.905807e+13	1.372739e+04	4.866720e+03	2.926605e+03	0	1.220522e-03
1.080000e+09	6.513364e+13	0.000000e+00	7.029704e-01	8.044880e+14	1.015025e+15	9.862220e+13	1.369131e+04	4.860390e+03	2.922799e+03	0	1.214018e-03
1.090000e+09	6.410510e+13	0.000000e+00	7.029704e-01	7.938256e+14	1.002560e+15	9.818926e+13	1.365571e+04	4.854136e+03	2.919038e+03	0	1.207594e-03
1.100000e+09	6.309971e+13	0.000000e+00	7.029704e-01	7.833994e+14	9.903635e+14	9.775922e+13	1.362059e+04	4.847957e+03	2.915322e+03	0	1.201248e-03
1.110000e+09	6.211677e+13	0.000000e+00	7.029704e-01	7.732023e+14	9.784270e+14	9.733207e+13	1.358592e+04	4.841849e+03	2.911649e+03	0	1.194977e-03
1.120000e+09	6.115557e+13	0.000000e+00	7.029704e-01	7.632273e+14	9.667430e+14	9.690778e+13	1.355170e+04	4.835813e+03	2.908020e+03	0	1.188782e-03
1.130000e+09	6.021548e+13	0.000000e+00	7.029704e-01	7.534676e+14	9.553039e+14	9.648633e+13	1.351792e+04	4.829847e+03	2.904432e+03	0	1.182659e-03
1.140000e+09	5.929584e+13	0.000000e+00	7.029704e-01	7.439169e+14	9.441025e+14	9.606770e+13	1.348457e+04	4.823949e+03	2.900885e+03	0	1.176607e-03
1.150000e+09	5.839604e+13	0.000000e+00	7.029704e-01	7.345690e+14	9.331319e+14	9.565186e+13	1.345164e+04	4.818118e+03	2.897379e+03	0	1.170625e-03
1.160000e+09	5.751551e+13	0.000000e+00	7.029704e-01	7.254178e+14	9.223854e+14	9.523880e+13	1.341913e+04	4.812353e+03	2.893912e+03	0	1.164712e-03
1.170000e+09	5.665368e+13	0.000000e+00	7.029704e-01	7.164577e+14	9.118564e+14	9.482848e+13	1.338702e+04	4.806652e+03	2.890483e+03	0	1.158865e-03
1.180000e+09	5.580999e+13	0.000000e+00	7.029704e-01	7.076831e+14	9.015388e+14	9.442090e+13	1.335530e+04	4.801014e+03	2.887093e+03	0	1.153083e-03
1.190000e+09	5.498393e+13	0.000000e+00	7.029704e-01	6.990887e+14	8.914266e+14	9.401603e+13	1.332397e+04	4.795438e+03	2.883740e+03	0	1.147366e-03
1.200000e+09	5.417500e+13	0.000000e+00	7.029704e-01	6.906694e+14	8.815140e+14	9.361384e+13	1.329302e+04	4.789922e+03	2.880423e+03	0	1.141711e-03
1.210000e+09	5.338269e+13	0.000000e+00	7.029704e-01	6.824203e+14	8.717954e+14	9.321433e+13	1.326244e+04	4.784466e+03	2.877142e+03	0	1.136118e-03
1.220000e+09	5.260656e+13	0.000000e+00	7.029704e-01	6.743365e+14	8.622656e+14	9.281746e+13	1.323222e+04	4.779069e+03	2.873896e+03	0	1.130585e-03
1.230000e+09	5.184613e+13	0.000000e+00	7.029704e-01	6.664134e+14	8.529192e+14	9.242321e+13	1.320236e+04	4.773729e+03	2.870685e+03	0	1.125111e-03
1.240000e+09	5.110099e+13	0.000000e+00	7.029704e-01	6.586467e+14	8.437513e+14	9.203157e+13	1.317285e+04	4.768444e+03	2.867507e+03	0	1.119695e-03
1.250000e+09	5.037069e+13	0.000000e+00	7.029704e-01	6.510321e+14	8.347571e+14	9.164252e+13	1.314368e+04	4.763216e+03	2.864363e+03	0	1.114336e-03
1.260000e+09	4.965485e+13	0.000000e+00	7.029704e-01	6.435654e+14	8.259320e+14	9.125603e+13	1.311485e+04	4.758041e+03	2.861251e+03	0	1.109032e-03
1.270000e+09	4.895306e+13	0.000000e+00	7.029704e-01	6.362426e+14	8.172714e+14	9.087209e+13	1.308635e+04	4.752919e+03	2.858171e+03	0	1.103782e-03
1.280000e+09	4.826495e+13	0.000000e+00	7.029704e-01	6.290599e+14	8.087710e+14	9.049067e+13	1.305817e+04	4.747850e+03	2.855123e+03	0	1.098586e-03
1.290000e+09	4.759015e+13	0.000000e+00	7.029704e-01	6.220136e+14	8.004266e+14	9.011176e+13	1.303031e+04	4.742832e+03	2.852105e+03	0	1.093442e-03
1.300000e+09	4.692831e+13	0.000000e+00	7.029704e-01	6.151000e+14	7.922341e+14	8.973533e+13	1.300275e+04	4.737864e+03	2.849118e+03	0	1.088349e-03
1.310000e+09	4.627908e+13	0.000000e+00	7.029704e-01	6.083158e+14	7.841897e+14	8.936138e+13	1.297551e+04	4.732946e+03	2.846160e+03	0	1.083307e-03
1.320000e+09	4.564214e+13	0.000000e+00	7.029704e-01	6.016575e+14	7.762895e+14	8.898987e+13	1.294856e+04	4.728076e+03	2.843232e+03	0	1.078314e-03
1.330000e+09	4.501716e+13	0.000000e+00	7.029704e-01	5.951219e+14	7.685299e+14	8.862079e+13	1.292191e+04	4.723254e+03	2.840332e+03	0	1.073370e-03
1.340000e+09	4.440385e+13	0.000000e+00	7.029704e-01	5.887058e+14	7.609073e+14	8.825413e+13	1.289554e+04	4.718479e+03	2.837461e+03	0	1.068473e-03
1.350000e+09	4.380189e+13	0.000000e+00	7.029704e-01	5.824062e+14	7.534183e+14	8.788986e+13	1.286946e+04	4.713751e+03	2.834617e+03	0	1.063623e-03
1.360000e+09	4.321100e+13	0.000000e+00	7.029704e-01	5.762203e+14	7.460596e+14	8.752796e+13	1.284366e+04	4.709067e+03	2.831801e+03	0	1.058818e-03
