#t		Qconv[W]	Ri[Rp]		R*[Rp]		Qc[W]		Qm[W]		Qr[W]		Tcmb[K]		Tl[K]		Tup[K]		RiFlag		Bs[T]
0.000000e+00	1.845310e+14	0.000000e+00	6.969694e-01	2.007971e+15	9.655754e+14	2.090258e+14	1.927909e+04	4.064332e+03	2.969402e+03	0	1.727555e-03
1.000000e+07	1.825311e+14	0.000000e+00	6.969694e-01	1.988575e+15	1.051892e+15	2.078677e+14	1.920804e+04	4.116466e+03	3.007492e+03	0	1.721292e-03
2.000000e+07	1.804210e+14	0.000000e+00	6.969694e-01	1.968189e+15	1.134726e+15	2.067182e+14	1.913766e+04	4.164043e+03	3.042251e+03	0	1.714633e-03
3.000000e+07	1.782125e+14	0.000000e+00	6.969694e-01	1.946920e+15	1.213082e+15	2.055773e+14	1.906801e+04	4.207193e+03	3.073777e+03	0	1.707608e-03
4.000000e+07	1.759179e+14	0.000000e+00	6.969694e-01	1.924882e+15	1.286178e+15	2.044449e+14	1.899910e+04	4.246089e+03	3.102194e+03	0	1.700248e-03
5.000000e+07	1.735499e+14	0.000000e+00	6.969694e-01	1.902190e+15	1.353449e+15	2.033209e+14	1.893096e+04	4.280939e+03	3.127656e+03	0	1.692584e-03
6.000000e+07	1.711210e+14	0.000000e+00	6.969694e-01	1.878958e+15	1.414536e+15	2.022054e+14	1.886363e+04	4.311977e+03	3.150332e+03	0	1.684651e-03
7.000000e+07	1.686431e+14	0.000000e+00	6.969694e-01	1.855296e+15	1.469272e+15	2.010981e+14	1.879711e+04	4.339450e+03	3.170404e+03	0	1.676480e-03
8.000000e+07	1.661279e+14	0.000000e+00	6.969694e-01	1.831308e+15	1.517648e+15	1.999991e+14	1.873143e+04	4.363617e+03	3.188060e+03	0	1.668104e-03
9.000000e+07	1.635861e+14	0.000000e+00	6.969694e-01	1.807092e+15	1.559793e+15	1.989083e+14	1.866659e+04	4.384738e+03	3.203491e+03	0	1.659552e-03
1.000000e+08	1.610275e+14	0.000000e+00	6.969694e-01	1.782739e+15	1.595938e+15	1.978255e+14	1.860260e+04	4.403068e+03	3.216883e+03	0	1.650855e-03
1.100000e+08	1.584611e+14	0.000000e+00	6.969694e-01	1.758329e+15	1.626395e+15	1.967508e+14	1.853947e+04	4.418855e+03	3.228417e+03	0	1.642038e-03
1.200000e+08	1.558950e+14	0.000000e+00	6.969694e-01	1.733937e+15	1.651527e+15	1.956840e+14	1.847720e+04	4.432336e+03	3.238266e+03	0	1.633126e-03
1.300000e+08	1.533363e+14	0.000000e+00	6.969694e-01	1.709628e+15	1.671732e+15	1.946252e+14	1.841578e+04	4.443735e+03	3.246594e+03	0	1.624142e-03
1.400000e+08	1.507914e+14	0.000000e+00	6.969694e-01	1.685457e+15	1.687419e+15	1.935742e+14	1.835523e+04	4.453260e+03	3.253554e+03	0	1.615106e-03
1.500000e+08	1.482655e+14	0.000000e+00	6.969694e-01	1.661475e+15	1.699004e+15	1.925309e+14	1.829552e+04	4.461106e+03	3.259285e+03	0	1.606037e-03
1.600000e+08	1.457634e+14	0.000000e+00	6.969694e-01	1.637724e+15	1.706889e+15	1.914954e+14	1.823666e+04	4.467448e+03	3.263919e+03	0	1.596952e-03
1.700000e+08	1.432891e+14	0.000000e+00	6.969694e-01	1.614239e+15	1.711462e+15	1.904675e+14	1.817864e+04	4.472451e+03	3.267574e+03	0	1.587864e-03
1.800000e+08	1.408458e+14	0.000000e+00	6.969694e-01	1.591050e+15	1.713090e+15	1.894472e+14	1.812145e+04	4.476260e+03	3.270357e+03	0	1.578787e-03
1.900000e+08	1.384363e+14	0.000000e+00	6.969694e-01	1.568182e+15	1.712113e+15	1.884344e+14	1.806507e+04	4.479011e+03	3.272367e+03	0	1.569732e-03
2.000000e+08	1.360627e+14	0.000000e+00	6.969694e-01	1.545655e+15	1.708847e+15	1.874290e+14	1.800950e+04	4.480822e+03	3.273690e+03	0	1.560709e-03
2.100000e+08	1.337268e+14	0.000000e+00	6.969694e-01	1.523484e+15	1.703579e+15	1.864311e+14	1.795472e+04	4.481802e+03	3.274406e+03	0	1.551726e-03
2.200000e+08	1.314300e+14	0.000000e+00	6.969694e-01	1.501681e+15	1.696571e+15	1.854404e+14	1.790073e+04	4.482048e+03	3.274586e+03	0	1.542791e-03
2.300000e+08	1.291732e+14	0.000000e+00	6.969694e-01	1.480256e+15	1.688059e+15	1.844571e+14	1.784750e+04	4.481647e+03	3.274293e+03	0	1.533909e-03
2.400000e+08	1.269572e+14	0.000000e+00	6.969694e-01	1.459215e+15	1.678255e+15	1.834809e+14	1.779503e+04	4.480675e+03	3.273583e+03	0	1.525087e-03
2.500000e+08	1.247824e+14	0.000000e+00	6.969694e-01	1.438560e+15	1.667347e+15	1.825119e+14	1.774330e+04	4.479201e+03	3.272506e+03	0	1.516329e-03
2.600000e+08	1.226491e+14	0.000000e+00	6.969694e-01	1.418295e+15	1.655503e+15	1.815500e+14	1.769230e+04	4.477287e+03	3.271108e+03	0	1.507638e-03
2.700000e+08	1.205572e+14	0.000000e+00	6.969694e-01	1.398418e+15	1.642873e+15	1.805952e+14	1.764202e+04	4.474987e+03	3.269427e+03	0	1.499017e-03
2.800000e+08	1.185066e+14	0.000000e+00	6.969694e-01	1.378930e+15	1.629589e+15	1.796472e+14	1.759244e+04	4.472349e+03	3.267500e+03	0	1.490469e-03
2.900000e+08	1.164971e+14	0.000000e+00	6.969694e-01	1.359826e+15	1.615766e+15	1.787063e+14	1.754354e+04	4.469416e+03	3.265357e+03	0	1.481997e-03
3.000000e+08	1.145282e+14	0.000000e+00	6.969694e-01	1.341104e+15	1.601507e+15	1.777721e+14	1.749532e+04	4.466227e+03	3.263027e+03	0	1.473600e-03
3.100000e+08	1.125996e+14	0.000000e+00	6.969694e-01	1.322758e+15	1.586902e+15	1.768448e+14	1.744776e+04	4.462814e+03	3.260533e+03	0	1.465282e-03
3.200000e+08	1.107106e+14	0.000000e+00	6.969694e-01	1.304784e+15	1.572027e+15	1.759243e+14	1.740085e+04	4.459207e+03	3.257899e+03	0	1.457041e-03
3.300000e+08	1.088606e+14	0.000000e+00	6.969694e-01	1.287175e+15	1.556953e+15	1.750104e+14	1.735457e+04	4.455434e+03	3.255142e+03	0	1.448880e-03
3.400000e+08	1.070491e+14	0.000000e+00	6.969694e-01	1.269927e+15	1.541737e+15	1.741031e+14	1.730891e+04	4.451518e+03	3.252281e+03	0	1.440798e-03
3.500000e+08	1.052752e+14	0.000000e+00	6.969694e-01	1.253031e+15	1.526433e+15	1.732025e+14	1.726386e+04	4.447479e+03	3.249330e+03	0	1.432795e-03
3.600000e+08	1.035382e+14	0.000000e+00	6.969694e-01	1.236481e+15	1.511085e+15	1.723083e+14	1.721941e+04	4.443336e+03	3.246303e+03	0	1.424872e-03
3.700000e+08	1.018375e+14	0.000000e+00	6.969694e-01	1.220270e+15	1.495731e+15	1.714207e+14	1.717555e+04	4.439104e+03	3.243211e+03	0	1.417027e-03
3.800000e+08	1.001722e+14	0.000000e+00	6.969694e-01	1.204391e+15	1.480404e+15	1.705395e+14	1.713225e+04	4.434800e+03	3.240066e+03	0	1.409261e-03
3.900000e+08	9.854159e+13	0.000000e+00	6.969694e-01	1.188837e+15	1.465135e+15	1.696646e+14	1.708952e+04	4.430434e+03	3.236877e+03	0	1.401572e-03
4.000000e+08	9.694484e+13	0.000000e+00	6.969694e-01	1.173600e+15	1.449946e+15	1.687961e+14	1.704734e+04	4.426019e+03	3.233651e+03	0	1.393960e-03
4.100000e+08	9.538121e+13	0.000000e+00	6.969694e-01	1.158674e+15	1.434860e+15	1.679338e+14	1.700569e+04	4.421565e+03	3.230397e+03	0	1.386425e-03
4.200000e+08	9.384990e+13	0.000000e+00	6.969694e-01	1.144050e+15	1.419893e+15	1.670777e+14	1.696458e+04	4.417080e+03	3.227120e+03	0	1.378966e-03
4.300000e+08	9.235015e+13	0.000000e+00	6.969694e-01	1.129722e+15	1.405061e+15	1.662278e+14	1.692398e+04	4.412572e+03	3.223827e+03	0	1.371581e-03
4.400000e+08	9.088121e+13	0.000000e+00	6.969694e-01	1.115683e+15	1.390377e+15	1.653840e+14	1.688388e+04	4.408048e+03	3.220521e+03	0	1.364270e-03
4.500000e+08	8.944231e+13	0.000000e+00	6.969694e-01	1.101925e+15	1.375850e+15	1.645463e+14	1.684428e+04	4.403514e+03	3.217209e+03	0	1.357031e-03
4.600000e+08	8.803272e+13	0.000000e+00	6.969694e-01	1.088442e+15	1.361489e+15	1.637146e+14	1.680517e+04	4.398976e+03	3.213894e+03	0	1.349865e-03
4.700000e+08	8.665172e+13	0.000000e+00	6.969694e-01	1.075227e+15	1.347302e+15	1.628889e+14	1.676654e+04	4.394438e+03	3.210578e+03	0	1.342769e-03
4.800000e+08	8.529858e+13	0.000000e+00	6.969694e-01	1.062274e+15	1.333294e+15	1.620690e+14	1.672837e+04	4.389905e+03	3.207266e+03	0	1.335743e-03
4.900000e+08	8.397261e+13	0.000000e+00	6.969694e-01	1.049575e+15	1.319469e+15	1.612551e+14	1.669066e+04	4.385380e+03	3.203960e+03	0	1.328785e-03
5.000000e+08	8.267314e+13	0.000000e+00	6.969694e-01	1.037124e+15	1.305830e+15	1.604469e+14	1.665340e+04	4.380866e+03	3.200663e+03	0	1.321895e-03
5.100000e+08	8.139948e+13	0.000000e+00	6.969694e-01	1.024916e+15	1.292380e+15	1.596446e+14	1.661658e+04	4.376367e+03	3.197375e+03	0	1.315072e-03
5.200000e+08	8.015100e+13	0.000000e+00	6.969694e-01	1.012944e+15	1.279120e+15	1.588479e+14	1.658019e+04	4.371884e+03	3.194100e+03	0	1.308314e-03
5.300000e+08	7.892705e+13	0.000000e+00	6.969694e-01	1.001203e+15	1.266051e+15	1.580570e+14	1.654423e+04	4.367421e+03	3.190839e+03	0	1.301620e-03
5.400000e+08	7.772701e+13	0.000000e+00	6.969694e-01	9.896855e+14	1.253174e+15	1.572717e+14	1.650868e+04	4.362978e+03	3.187593e+03	0	1.294989e-03
5.500000e+08	7.655029e+13	0.000000e+00	6.969694e-01	9.783872e+14	1.240487e+15	1.564919e+14	1.647353e+04	4.358558e+03	3.184364e+03	0	1.288421e-03
5.600000e+08	7.539629e+13	0.000000e+00	6.969694e-01	9.673023e+14	1.227991e+15	1.557178e+14	1.643879e+04	4.354161e+03	3.181152e+03	0	1.281914e-03
5.700000e+08	7.426445e+13	0.000000e+00	6.969694e-01	9.564255e+14	1.215683e+15	1.549491e+14	1.640444e+04	4.349790e+03	3.177958e+03	0	1.275467e-03
5.800000e+08	7.315421e+13	0.000000e+00	6.969694e-01	9.457516e+14	1.203563e+15	1.541858e+14	1.637047e+04	4.345445e+03	3.174784e+03	0	1.269079e-03
5.900000e+08	7.206502e+13	0.000000e+00	6.969694e-01	9.352756e+14	1.191630e+15	1.534280e+14	1.633689e+04	4.341127e+03	3.171629e+03	0	1.262749e-03
6.000000e+08	7.099637e+13	0.000000e+00	6.969694e-01	9.249926e+14	1.179880e+15	1.526755e+14	1.630367e+04	4.336836e+03	3.168494e+03	0	1.256476e-03
6.100000e+08	6.994773e+13	0.000000e+00	6.969694e-01	9.148978e+14	1.168312e+15	1.519284e+14	1.627082e+04	4.332575e+03	3.165381e+03	0	1.250259e-03
6.200000e+08	6.891863e+13	0.000000e+00	6.969694e-01	9.049866e+14	1.156923e+15	1.511865e+14	1.623832e+04	4.328342e+03	3.162288e+03	0	1.244097e-03
6.300000e+08	6.790856e+13	0.000000e+00	6.969694e-01	8.952545e+14	1.145712e+15	1.504499e+14	1.620617e+04	4.324139e+03	3.159217e+03	0	1.237990e-03
6.400000e+08	6.691707e+13	0.000000e+00	6.969694e-01	8.856971e+14	1.134675e+15	1.497185e+14	1.617437e+04	4.319965e+03	3.156168e+03	0	1.231935e-03
6.500000e+08	6.594370e+13	0.000000e+00	6.969694e-01	8.763103e+14	1.123810e+15	1.489922e+14	1.614291e+04	4.315822e+03	3.153141e+03	0	1.225933e-03
6.600000e+08	6.498801e+13	0.000000e+00	6.969694e-01	8.670897e+14	1.113114e+15	1.482710e+14	1.611178e+04	4.311708e+03	3.150136e+03	0	1.219982e-03
6.700000e+08	6.404956e+13	0.000000e+00	6.969694e-01	8.580316e+14	1.102585e+15	1.475549e+14	1.608098e+04	4.307625e+03	3.147153e+03	0	1.214081e-03
6.800000e+08	6.312795e+13	0.000000e+00	6.969694e-01	8.491320e+14	1.092219e+15	1.468439e+14	1.605049e+04	4.303573e+03	3.144192e+03	0	1.208229e-03
6.900000e+08	6.222276e+13	0.000000e+00	6.969694e-01	8.403870e+14	1.082014e+15	1.461378e+14	1.602032e+04	4.299550e+03	3.141253e+03	0	1.202427e-03
7.000000e+08	6.133360e+13	0.000000e+00	6.969694e-01	8.317931e+14	1.071967e+15	1.454367e+14	1.599047e+04	4.295559e+03	3.138337e+03	0	1.196672e-03
7.100000e+08	6.046010e+13	0.000000e+00	6.969694e-01	8.233467e+14	1.062075e+15	1.447404e+14	1.596091e+04	4.291597e+03	3.135443e+03	0	1.190964e-03
7.200000e+08	5.960187e+13	0.000000e+00	6.969694e-01	8.150442e+14	1.052336e+15	1.440491e+14	1.593166e+04	4.287666e+03	3.132571e+03	0	1.185302e-03
7.300000e+08	5.875857e+13	0.000000e+00	6.969694e-01	8.068825e+14	1.042747e+15	1.433626e+14	1.590269e+04	4.283765e+03	3.129721e+03	0	1.179685e-03
7.400000e+08	5.792983e+13	0.000000e+00	6.969694e-01	7.988581e+14	1.033304e+15	1.426808e+14	1.587402e+04	4.279894e+03	3.126892e+03	0	1.174112e-03
7.500000e+08	5.711532e+13	0.000000e+00	6.969694e-01	7.909679e+14	1.024005e+15	1.420039e+14	1.584563e+04	4.276053e+03	3.124086e+03	0	1.168584e-03
7.600000e+08	5.631472e+13	0.000000e+00	6.969694e-01	7.832088e+14	1.014848e+15	1.413316e+14	1.581753e+04	4.272242e+03	3.121302e+03	0	1.163098e-03
7.700000e+08	5.552769e+13	0.000000e+00	6.969694e-01	7.755779e+14	1.005829e+15	1.406640e+14	1.578969e+04	4.268460e+03	3.118538e+03	0	1.157654e-03
7.800000e+08	5.475392e+13	0.000000e+00	6.969694e-01	7.680722e+14	9.969469e+14	1.400011e+14	1.576213e+04	4.264707e+03	3.115797e+03	0	1.152252e-03
7.900000e+08	5.399312e+13	0.000000e+00	6.969694e-01	7.606888e+14	9.881978e+14	1.393428e+14	1.573483e+04	4.260983e+03	3.113076e+03	0	1.146890e-03
8.000000e+08	5.324499e+13	0.000000e+00	6.969694e-01	7.534251e+14	9.795795e+14	1.386890e+14	1.570780e+04	4.257288e+03	3.110377e+03	0	1.141568e-03
8.100000e+08	5.250924e+13	0.000000e+00	6.969694e-01	7.462783e+14	9.710896e+14	1.380397e+14	1.568102e+04	4.253622e+03	3.107698e+03	0	1.136285e-03
8.200000e+08	5.178559e+13	0.000000e+00	6.969694e-01	7.392459e+14	9.627255e+14	1.373950e+14	1.565449e+04	4.249984e+03	3.105040e+03	0	1.131041e-03
8.300000e+08	5.107377e+13	0.000000e+00	6.969694e-01	7.323254e+14	9.544849e+14	1.367547e+14	1.562822e+04	4.246373e+03	3.102402e+03	0	1.125835e-03
8.400000e+08	5.037353e+13	0.000000e+00	6.969694e-01	7.255142e+14	9.463652e+14	1.361188e+14	1.560219e+04	4.242791e+03	3.099785e+03	0	1.120666e-03
8.500000e+08	4.968460e+13	0.000000e+00	6.969694e-01	7.188099e+14	9.383641e+14	1.354873e+14	1.557640e+04	4.239236e+03	3.097187e+03	0	1.115534e-03
8.600000e+08	4.900673e+13	0.000000e+00	6.969694e-01	7.122104e+14	9.304794e+14	1.348602e+14	1.555084e+04	4.235708e+03	3.094610e+03	0	1.110438e-03
8.700000e+08	4.833969e+13	0.000000e+00	6.969694e-01	7.057132e+14	9.227087e+14	1.342374e+14	1.552553e+04	4.232207e+03	3.092052e+03	0	1.105376e-03
8.800000e+08	4.768324e+13	0.000000e+00	6.969694e-01	6.993162e+14	9.150499e+14	1.336189e+14	1.550044e+04	4.228732e+03	3.089513e+03	0	1.100350e-03
8.900000e+08	4.703714e+13	0.000000e+00	6.969694e-01	6.930172e+14	9.075008e+14	1.330046e+14	1.547558e+04	4.225284e+03	3.086994e+03	0	1.095357e-03
9.000000e+08	4.640119e+13	0.000000e+00	6.969694e-01	6.868143e+14	9.000592e+14	1.323945e+14	1.545094e+04	4.221861e+03	3.084493e+03	0	1.090398e-03
9.100000e+08	4.577515e+13	0.000000e+00	6.969694e-01	6.807052e+14	8.927231e+14	1.317887e+14	1.542652e+04	4.218465e+03	3.082012e+03	0	1.085472e-03
9.200000e+08	4.515882e+13	0.000000e+00	6.969694e-01	6.746881e+14	8.854905e+14	1.311869e+14	1.540232e+04	4.215093e+03	3.079549e+03	0	1.080579e-03
9.300000e+08	4.455199e+13	0.000000e+00	6.969694e-01	6.687611e+14	8.783593e+14	1.305893e+14	1.537833e+04	4.211747e+03	3.077104e+03	0	1.075717e-03
9.400000e+08	4.395447e+13	0.000000e+00	6.969694e-01	6.629222e+14	8.713276e+14	1.299958e+14	1.535455e+04	4.208426e+03	3.074678e+03	0	1.070886e-03
9.500000e+08	4.336606e+13	0.000000e+00	6.969694e-01	6.571696e+14	8.643934e+14	1.294063e+14	1.533098e+04	4.205129e+03	3.072269e+03	0	1.066086e-03
9.600000e+08	4.278656e+13	0.000000e+00	6.969694e-01	6.515016e+14	8.575551e+14	1.288209e+14	1.530762e+04	4.201857e+03	3.069878e+03	0	1.061316e-03
9.700000e+08	4.221580e+13	0.000000e+00	6.969694e-01	6.459165e+14	8.508106e+14	1.282394e+14	1.528445e+04	4.198608e+03	3.067505e+03	0	1.056576e-03
9.800000e+08	4.165360e+13	0.000000e+00	6.969694e-01	6.404125e+14	8.441582e+14	1.276619e+14	1.526148e+04	4.195383e+03	3.065149e+03	0	1.051864e-03
9.900000e+08	4.109977e+13	0.000000e+00	6.969694e-01	6.349880e+14	8.375963e+14	1.270883e+14	1.523871e+04	4.192182e+03	3.062810e+03	0	1.047182e-03
1.000000e+09	4.055416e+13	0.000000e+00	6.969694e-01	6.296414e+14	8.311230e+14	1.265186e+14	1.521613e+04	4.189004e+03	3.060488e+03	0	1.042527e-03
1.010000e+09	4.001658e+13	0.000000e+00	6.969694e-01	6.243712e+14	8.247367e+14	1.259528e+14	1.519374e+04	4.185848e+03	3.058182e+03	0	1.037900e-03
1.020000e+09	3.948689e+13	0.000000e+00	6.969694e-01	6.191758e+14	8.184358e+14	1.253908e+14	1.517153e+04	4.182715e+03	3.055894e+03	0	1.033300e-03
1.030000e+09	3.896492e+13	0.000000e+00	6.969694e-01	6.140538e+14	8.122188e+14	1.248326e+14	1.514951e+04	4.179605e+03	3.053621e+03	0	1.028727e-03
1.040000e+09	3.845052e+13	0.000000e+00	6.969694e-01	6.090037e+14	8.060839e+14	1.242781e+14	1.512768e+04	4.176517e+03	3.051365e+03	0	1.024180e-03
1.050000e+09	3.794354e+13	0.000000e+00	6.969694e-01	6.040241e+14	8.000298e+14	1.237275e+14	1.510602e+04	4.173450e+03	3.049124e+03	0	1.019659e-03
1.060000e+09	3.744383e+13	0.000000e+00	6.969694e-01	5.991136e+14	7.940549e+14	1.231805e+14	1.508454e+04	4.170405e+03	3.046899e+03	0	1.015163e-03
1.070000e+09	3.695125e+13	0.000000e+00	6.969694e-01	5.942710e+14	7.881578e+14	1.226372e+14	1.506323e+04	4.167381e+03	3.044690e+03	0	1.010691e-03
1.080000e+09	3.646567e+13	0.000000e+00	6.969694e-01	5.894948e+14	7.823371e+14	1.220976e+14	1.504209e+04	4.164378e+03	3.042496e+03	0	1.006245e-03
1.090000e+09	3.598693e+13	0.000000e+00	6.969694e-01	5.847838e+14	7.765913e+14	1.215616e+14	1.502112e+04	4.161396e+03	3.040318e+03	0	1.001822e-03
1.100000e+09	3.551493e+13	0.000000e+00	6.969694e-01	5.801368e+14	7.709192e+14	1.210292e+14	1.500032e+04	4.158435e+03	3.038154e+03	0	9.974225e-04
1.110000e+09	3.504951e+13	0.000000e+00	6.969694e-01	5.755526e+14	7.653193e+14	1.205004e+14	1.497969e+04	4.155494e+03	3.036005e+03	0	9.930464e-04
1.120000e+09	3.459056e+13	0.000000e+00	6.969694e-01	5.710300e+14	7.597905e+14	1.199751e+14	1.495922e+04	4.152573e+03	3.033871e+03	0	9.886929e-04
1.130000e+09	3.413796e+13	0.000000e+00	6.969694e-01	5.665677e+14	7.543314e+14	1.194533e+14	1.493891e+04	4.149671e+03	3.031751e+03	0	9.843618e-04
1.140000e+09	3.369159e+13	0.000000e+00	6.969694e-01	5.621648e+14	7.489407e+14	1.189350e+14	1.491875e+04	4.146790e+03	3.029646e+03	0	9.800525e-04
1.150000e+09	3.325132e+13	0.000000e+00	6.969694e-01	5.578201e+14	7.436174e+14	1.184202e+14	1.489875e+04	4.143927e+03	3.027555e+03	0	9.757648e-04
1.160000e+09	3.281704e+13	0.000000e+00	6.969694e-01	5.535325e+14	7.383601e+14	1.179088e+14	1.487891e+04	4.141084e+03	3.025478e+03	0	9.714983e-04
1.170000e+09	3.238865e+13	0.000000e+00	6.969694e-01	5.493009e+14	7.331678e+14	1.174008e+14	1.485922e+04	4.138260e+03	3.023414e+03	0	9.672524e-04
1.180000e+09	3.196603e+13	0.000000e+00	6.969694e-01	5.451244e+14	7.280393e+14	1.168962e+14	1.483968e+04	4.135454e+03	3.021364e+03	0	9.630270e-04
1.190000e+09	3.154908e+13	0.000000e+00	6.969694e-01	5.410020e+14	7.229735e+14	1.163950e+14	1.482029e+04	4.132667e+03	3.019328e+03	0	9.588215e-04
1.200000e+09	3.113769e+13	0.000000e+00	6.969694e-01	5.369326e+14	7.179692e+14	1.158971e+14	1.480104e+04	4.129898e+03	3.017305e+03	0	9.546357e-04
1.210000e+09	3.073176e+13	0.000000e+00	6.969694e-01	5.329154e+14	7.130256e+14	1.154025e+14	1.478194e+04	4.127147e+03	3.015295e+03	0	9.504691e-04
1.220000e+09	3.033119e+13	0.000000e+00	6.969694e-01	5.289493e+14	7.081414e+14	1.149111e+14	1.476298e+04	4.124414e+03	3.013299e+03	0	9.463215e-04
1.230000e+09	2.993589e+13	0.000000e+00	6.969694e-01	5.250335e+14	7.033158e+14	1.144230e+14	1.474416e+04	4.121699e+03	3.011315e+03	0	9.421924e-04
1.240000e+09	2.954576e+13	0.000000e+00	6.969694e-01	5.211671e+14	6.985476e+14	1.139382e+14	1.472548e+04	4.119001e+03	3.009344e+03	0	9.380815e-04
1.250000e+09	2.916070e+13	0.000000e+00	6.969694e-01	5.173491e+14	6.938360e+14	1.134565e+14	1.470694e+04	4.116321e+03	3.007385e+03	0	9.339885e-04
1.260000e+09	2.878064e+13	0.000000e+00	6.969694e-01	5.135789e+14	6.891800e+14	1.129780e+14	1.468853e+04	4.113657e+03	3.005439e+03	0	9.299131e-04
1.270000e+09	2.840547e+13	0.000000e+00	6.969694e-01	5.098555e+14	6.845786e+14	1.125027e+14	1.467026e+04	4.111010e+03	3.003506e+03	0	9.258548e-04
1.280000e+09	2.803512e+13	0.000000e+00	6.969694e-01	5.061780e+14	6.800310e+14	1.120305e+14	1.465212e+04	4.108380e+03	3.001584e+03	0	9.218134e-04
1.290000e+09	2.766949e+13	0.000000e+00	6.969694e-01	5.025458e+14	6.755362e+14	1.115614e+14	1.463410e+04	4.105766e+03	2.999674e+03	0	9.177885e-04
1.300000e+09	2.730851e+13	0.000000e+00	6.969694e-01	4.989581e+14	6.710934e+14	1.110953e+14	1.461622e+04	4.103169e+03	2.997777e+03	0	9.137798e-04
1.310000e+09	2.695210e+13	0.000000e+00	6.969694e-01	4.954140e+14	6.667018e+14	1.106324e+14	1.459847e+04	4.100588e+03	2.995891e+03	0	9.097870e-04
1.320000e+09	2.660017e+13	0.000000e+00	6.969694e-01	4.919128e+14	6.623604e+14	1.101724e+14	1.458084e+04	4.098023e+03	2.994017e+03	0	9.058098e-04
1.330000e+09	2.625265e+13	0.000000e+00	6.969694e-01	4.884539e+14	6.580685e+14	1.097155e+14	1.456334e+04	4.095473e+03	2.992154e+03	0	9.018478e-04
1.340000e+09	2.590946e+13	0.000000e+00	6.969694e-01	4.850364e+14	6.538253e+14	1.092616e+14	1.454596e+04	4.092939e+03	2.990303e+03	0	8.979008e-04
1.350000e+09	2.557054e+13	0.000000e+00	6.969694e-01	4.816597e+14	6.496300e+14	1.088106e+14	1.452870e+04	4.090421e+03	2.988463e+03	0	8.939684e-04
1.360000e+09	2.523580e+13	0.000000e+00	6.969694e-01	4.783232e+14	6.454818e+14	1.083625e+14	1.451155e+04	4.087917e+03	2.986634e+03	0	8.900503e-04
