#t		Qconv[W]	Ri[Rp]		R*[Rp]		Qc[W]		Qm[W]		Qr[W]		Tcmb[K]		Tl[K]		Tup[K]		RiFlag		Bs[T]
0.000000e+00	2.326448e+14	0.000000e+00	6.969699e-01	2.441282e+15	9.149343e+14	2.386850e+14	2.113458e+04	4.218941e+03	3.037631e+03	0	1.858812e-03
1.000000e+07	2.307501e+14	0.000000e+00	6.969699e-01	2.423677e+15	1.019075e+15	2.373626e+14	2.106183e+04	4.284187e+03	3.084608e+03	0	1.853752e-03
2.000000e+07	2.286880e+14	0.000000e+00	6.969699e-01	2.404677e+15	1.122652e+15	2.360500e+14	2.098960e+04	4.344740e+03	3.128206e+03	0	1.848213e-03
3.000000e+07	2.264687e+14	0.000000e+00	6.969699e-01	2.384367e+15	1.224151e+15	2.347472e+14	2.091794e+04	4.400595e+03	3.168422e+03	0	1.842215e-03
4.000000e+07	2.241041e+14	0.000000e+00	6.969699e-01	2.362850e+15	1.322202e+15	2.334541e+14	2.084687e+04	4.451810e+03	3.205297e+03	0	1.835781e-03
5.000000e+07	2.216075e+14	0.000000e+00	6.969699e-01	2.340236e+15	1.415627e+15	2.321707e+14	2.077645e+04	4.498493e+03	3.238908e+03	0	1.828938e-03
6.000000e+07	2.189931e+14	0.000000e+00	6.969699e-01	2.316647e+15	1.503471e+15	2.308968e+14	2.070670e+04	4.540798e+03	3.269368e+03	0	1.821718e-03
7.000000e+07	2.162755e+14	0.000000e+00	6.969699e-01	2.292206e+15	1.585009e+15	2.296325e+14	2.063764e+04	4.578915e+03	3.296812e+03	0	1.814151e-03
8.000000e+07	2.134694e+14	0.000000e+00	6.969699e-01	2.267037e+15	1.659745e+15	2.283775e+14	2.056931e+04	4.613064e+03	3.321399e+03	0	1.806270e-03
9.000000e+07	2.105892e+14	0.000000e+00	6.969699e-01	2.241263e+15	1.727393e+15	2.271319e+14	2.050172e+04	4.643483e+03	3.343300e+03	0	1.798110e-03
1.000000e+08	2.076490e+14	0.000000e+00	6.969699e-01	2.215001e+15	1.787856e+15	2.258955e+14	2.043490e+04	4.670421e+03	3.362696e+03	0	1.789703e-03
1.100000e+08	2.046620e+14	0.000000e+00	6.969699e-01	2.188363e+15	1.841197e+15	2.246683e+14	2.036886e+04	4.694136e+03	3.379771e+03	0	1.781080e-03
1.200000e+08	2.016406e+14	0.000000e+00	6.969699e-01	2.161454e+15	1.887608e+15	2.234502e+14	2.030361e+04	4.714881e+03	3.394707e+03	0	1.772271e-03
1.300000e+08	1.985960e+14	0.000000e+00	6.969699e-01	2.134368e+15	1.927383e+15	2.222411e+14	2.023916e+04	4.732907e+03	3.407685e+03	0	1.763306e-03
1.400000e+08	1.955388e+14	0.000000e+00	6.969699e-01	2.107194e+15	1.960886e+15	2.210409e+14	2.017551e+04	4.748453e+03	3.418879e+03	0	1.754211e-03
1.500000e+08	1.924781e+14	0.000000e+00	6.969699e-01	2.080010e+15	1.988531e+15	2.198496e+14	2.011266e+04	4.761750e+03	3.428452e+03	0	1.745010e-03
1.600000e+08	1.894224e+14	0.000000e+00	6.969699e-01	2.052886e+15	2.010760e+15	2.186672e+14	2.005062e+04	4.773012e+03	3.436561e+03	0	1.735727e-03
1.700000e+08	1.863788e+14	0.000000e+00	6.969699e-01	2.025883e+15	2.028025e+15	2.174934e+14	1.998939e+04	4.782441e+03	3.443350e+03	0	1.726380e-03
1.800000e+08	1.833538e+14	0.000000e+00	6.969699e-01	1.999054e+15	2.040777e+15	2.163283e+14	1.992896e+04	4.790223e+03	3.448953e+03	0	1.716989e-03
1.900000e+08	1.803530e+14	0.000000e+00	6.969699e-01	1.972446e+15	2.049456e+15	2.151718e+14	1.986933e+04	4.796529e+03	3.453493e+03	0	1.707571e-03
2.000000e+08	1.773809e+14	0.000000e+00	6.969699e-01	1.946099e+15	2.054482e+15	2.140238e+14	1.981048e+04	4.801515e+03	3.457084e+03	0	1.698139e-03
2.100000e+08	1.744417e+14	0.000000e+00	6.969699e-01	1.920046e+15	2.056250e+15	2.128843e+14	1.975242e+04	4.805325e+03	3.459827e+03	0	1.688707e-03
2.200000e+08	1.715386e+14	0.000000e+00	6.969699e-01	1.894315e+15	2.055130e+15	2.117531e+14	1.969513e+04	4.808087e+03	3.461815e+03	0	1.679287e-03
2.300000e+08	1.686744e+14	0.000000e+00	6.969699e-01	1.868928e+15	2.051463e+15	2.106302e+14	1.963860e+04	4.809917e+03	3.463133e+03	0	1.669888e-03
2.400000e+08	1.658514e+14	0.000000e+00	6.969699e-01	1.843905e+15	2.045561e+15	2.095155e+14	1.958283e+04	4.810920e+03	3.463855e+03	0	1.660519e-03
2.500000e+08	1.630712e+14	0.000000e+00	6.969699e-01	1.819259e+15	2.037709e+15	2.084090e+14	1.952780e+04	4.811191e+03	3.464050e+03	0	1.651189e-03
2.600000e+08	1.603353e+14	0.000000e+00	6.969699e-01	1.795003e+15	2.028162e+15	2.073106e+14	1.947351e+04	4.810814e+03	3.463779e+03	0	1.641902e-03
2.700000e+08	1.576447e+14	0.000000e+00	6.969699e-01	1.771144e+15	2.017152e+15	2.062203e+14	1.941993e+04	4.809864e+03	3.463095e+03	0	1.632666e-03
2.800000e+08	1.550001e+14	0.000000e+00	6.969699e-01	1.747688e+15	2.004885e+15	2.051379e+14	1.936707e+04	4.808409e+03	3.462047e+03	0	1.623485e-03
2.900000e+08	1.524020e+14	0.000000e+00	6.969699e-01	1.724639e+15	1.991548e+15	2.040634e+14	1.931490e+04	4.806509e+03	3.460679e+03	0	1.614363e-03
3.000000e+08	1.498505e+14	0.000000e+00	6.969699e-01	1.701998e+15	1.977303e+15	2.029967e+14	1.926341e+04	4.804217e+03	3.459029e+03	0	1.605303e-03
3.100000e+08	1.473457e+14	0.000000e+00	6.969699e-01	1.679765e+15	1.962297e+15	2.019378e+14	1.921260e+04	4.801582e+03	3.457131e+03	0	1.596308e-03
3.200000e+08	1.448875e+14	0.000000e+00	6.969699e-01	1.657940e+15	1.946659e+15	2.008866e+14	1.916245e+04	4.798644e+03	3.455017e+03	0	1.587381e-03
3.300000e+08	1.424756e+14	0.000000e+00	6.969699e-01	1.636518e+15	1.930502e+15	1.998430e+14	1.911295e+04	4.795444e+03	3.452712e+03	0	1.578524e-03
3.400000e+08	1.401096e+14	0.000000e+00	6.969699e-01	1.615497e+15	1.913926e+15	1.988071e+14	1.906408e+04	4.792013e+03	3.450242e+03	0	1.569737e-03
3.500000e+08	1.377890e+14	0.000000e+00	6.969699e-01	1.594872e+15	1.897020e+15	1.977786e+14	1.901584e+04	4.788382e+03	3.447628e+03	0	1.561022e-03
3.600000e+08	1.355132e+14	0.000000e+00	6.969699e-01	1.574639e+15	1.879861e+15	1.967576e+14	1.896821e+04	4.784578e+03	3.444888e+03	0	1.552380e-03
3.700000e+08	1.332816e+14	0.000000e+00	6.969699e-01	1.554791e+15	1.862516e+15	1.957440e+14	1.892119e+04	4.780623e+03	3.442041e+03	0	1.543812e-03
3.800000e+08	1.310936e+14	0.000000e+00	6.969699e-01	1.535322e+15	1.845044e+15	1.947377e+14	1.887475e+04	4.776539e+03	3.439101e+03	0	1.535317e-03
3.900000e+08	1.289483e+14	0.000000e+00	6.969699e-01	1.516227e+15	1.827497e+15	1.937387e+14	1.882890e+04	4.772344e+03	3.436081e+03	0	1.526896e-03
4.000000e+08	1.268450e+14	0.000000e+00	6.969699e-01	1.497498e+15	1.809919e+15	1.927470e+14	1.878361e+04	4.768056e+03	3.432993e+03	0	1.518548e-03
4.100000e+08	1.247829e+14	0.000000e+00	6.969699e-01	1.479128e+15	1.792349e+15	1.917623e+14	1.873888e+04	4.763687e+03	3.429848e+03	0	1.510275e-03
4.200000e+08	1.227612e+14	0.000000e+00	6.969699e-01	1.461111e+15	1.774819e+15	1.907848e+14	1.869469e+04	4.759253e+03	3.426655e+03	0	1.502074e-03
4.300000e+08	1.207791e+14	0.000000e+00	6.969699e-01	1.443439e+15	1.757361e+15	1.898143e+14	1.865105e+04	4.754763e+03	3.423422e+03	0	1.493946e-03
4.400000e+08	1.188358e+14	0.000000e+00	6.969699e-01	1.426105e+15	1.739997e+15	1.888508e+14	1.860792e+04	4.750229e+03	3.420157e+03	0	1.485890e-03
4.500000e+08	1.169304e+14	0.000000e+00	6.969699e-01	1.409102e+15	1.722749e+15	1.878942e+14	1.856532e+04	4.745659e+03	3.416867e+03	0	1.477906e-03
4.600000e+08	1.150621e+14	0.000000e+00	6.969699e-01	1.392422e+15	1.705635e+15	1.869445e+14	1.852322e+04	4.741062e+03	3.413557e+03	0	1.469992e-03
4.700000e+08	1.132301e+14	0.000000e+00	6.969699e-01	1.376059e+15	1.688672e+15	1.860016e+14	1.848161e+04	4.736444e+03	3.410232e+03	0	1.462149e-03
4.800000e+08	1.114336e+14	0.000000e+00	6.969699e-01	1.360006e+15	1.671870e+15	1.850654e+14	1.844049e+04	4.731812e+03	3.406897e+03	0	1.454375e-03
4.900000e+08	1.096717e+14	0.000000e+00	6.969699e-01	1.344255e+15	1.655242e+15	1.841360e+14	1.839986e+04	4.727172e+03	3.403557e+03	0	1.446669e-03
5.000000e+08	1.079436e+14	0.000000e+00	6.969699e-01	1.328799e+15	1.638795e+15	1.832132e+14	1.835968e+04	4.722528e+03	3.400213e+03	0	1.439030e-03
5.100000e+08	1.062486e+14	0.000000e+00	6.969699e-01	1.313632e+15	1.622539e+15	1.822970e+14	1.831997e+04	4.717886e+03	3.396870e+03	0	1.431458e-03
5.200000e+08	1.045860e+14	0.000000e+00	6.969699e-01	1.298747e+15	1.606477e+15	1.813873e+14	1.828072e+04	4.713248e+03	3.393531e+03	0	1.423952e-03
5.300000e+08	1.029548e+14	0.000000e+00	6.969699e-01	1.284138e+15	1.590615e+15	1.804841e+14	1.824190e+04	4.708618e+03	3.390198e+03	0	1.416511e-03
5.400000e+08	1.013545e+14	0.000000e+00	6.969699e-01	1.269797e+15	1.574956e+15	1.795874e+14	1.820352e+04	4.704000e+03	3.386873e+03	0	1.409133e-03
5.500000e+08	9.978418e+13	0.000000e+00	6.969699e-01	1.255719e+15	1.559503e+15	1.786970e+14	1.816557e+04	4.699396e+03	3.383558e+03	0	1.401817e-03
5.600000e+08	9.824324e+13	0.000000e+00	6.969699e-01	1.241898e+15	1.544257e+15	1.778129e+14	1.812803e+04	4.694808e+03	3.380255e+03	0	1.394564e-03
5.700000e+08	9.673096e+13	0.000000e+00	6.969699e-01	1.228327e+15	1.529220e+15	1.769352e+14	1.809091e+04	4.690239e+03	3.376965e+03	0	1.387371e-03
5.800000e+08	9.524665e+13	0.000000e+00	6.969699e-01	1.215001e+15	1.514391e+15	1.760636e+14	1.805419e+04	4.685689e+03	3.373689e+03	0	1.380239e-03
5.900000e+08	9.378966e+13	0.000000e+00	6.969699e-01	1.201913e+15	1.499771e+15	1.751983e+14	1.801787e+04	4.681162e+03	3.370429e+03	0	1.373165e-03
6.000000e+08	9.235933e+13	0.000000e+00	6.969699e-01	1.189059e+15	1.485359e+15	1.743391e+14	1.798194e+04	4.676657e+03	3.367186e+03	0	1.366148e-03
6.100000e+08	9.095502e+13	0.000000e+00	6.969699e-01	1.176432e+15	1.471154e+15	1.734859e+14	1.794639e+04	4.672177e+03	3.363960e+03	0	1.359189e-03
6.200000e+08	8.957613e+13	0.000000e+00	6.969699e-01	1.164028e+15	1.457155e+15	1.726388e+14	1.791121e+04	4.667722e+03	3.360753e+03	0	1.352285e-03
6.300000e+08	8.822206e+13	0.000000e+00	6.969699e-01	1.151841e+15	1.443359e+15	1.717976e+14	1.787641e+04	4.663293e+03	3.357564e+03	0	1.345437e-03
6.400000e+08	8.689221e+13	0.000000e+00	6.969699e-01	1.139866e+15	1.429765e+15	1.709624e+14	1.784197e+04	4.658891e+03	3.354395e+03	0	1.338642e-03
6.500000e+08	8.558603e+13	0.000000e+00	6.969699e-01	1.128098e+15	1.416371e+15	1.701331e+14	1.780789e+04	4.654517e+03	3.351245e+03	0	1.331901e-03
6.600000e+08	8.430295e+13	0.000000e+00	6.969699e-01	1.116533e+15	1.403174e+15	1.693096e+14	1.777416e+04	4.650171e+03	3.348116e+03	0	1.325211e-03
6.700000e+08	8.304243e+13	0.000000e+00	6.969699e-01	1.105165e+15	1.390173e+15	1.684919e+14	1.774077e+04	4.645853e+03	3.345007e+03	0	1.318573e-03
6.800000e+08	8.180395e+13	0.000000e+00	6.969699e-01	1.093991e+15	1.377363e+15	1.676799e+14	1.770772e+04	4.641564e+03	3.341919e+03	0	1.311985e-03
6.900000e+08	8.058701e+13	0.000000e+00	6.969699e-01	1.083005e+15	1.364743e+15	1.668737e+14	1.767500e+04	4.637305e+03	3.338852e+03	0	1.305447e-03
7.000000e+08	7.939109e+13	0.000000e+00	6.969699e-01	1.072204e+15	1.352311e+15	1.660730e+14	1.764261e+04	4.633074e+03	3.335806e+03	0	1.298957e-03
7.100000e+08	7.821572e+13	0.000000e+00	6.969699e-01	1.061582e+15	1.340062e+15	1.652780e+14	1.761055e+04	4.628873e+03	3.332782e+03	0	1.292515e-03
7.200000e+08	7.706043e+13	0.000000e+00	6.969699e-01	1.051137e+15	1.327994e+15	1.644886e+14	1.757880e+04	4.624702e+03	3.329778e+03	0	1.286120e-03
7.300000e+08	7.592475e+13	0.000000e+00	6.969699e-01	1.040864e+15	1.316105e+15	1.637047e+14	1.754736e+04	4.620560e+03	3.326796e+03	0	1.279770e-03
7.400000e+08	7.480825e+13	0.000000e+00	6.969699e-01	1.030760e+15	1.304391e+15	1.629262e+14	1.751623e+04	4.616448e+03	3.323835e+03	0	1.273466e-03
7.500000e+08	7.371049e+13	0.000000e+00	6.969699e-01	1.020820e+15	1.292849e+15	1.621532e+14	1.748540e+04	4.612365e+03	3.320896e+03	0	1.267206e-03
7.600000e+08	7.263104e+13	0.000000e+00	6.969699e-01	1.011040e+15	1.281477e+15	1.613855e+14	1.745486e+04	4.608312e+03	3.317978e+03	0	1.260990e-03
7.700000e+08	7.156950e+13	0.000000e+00	6.969699e-01	1.001418e+15	1.270271e+15	1.606232e+14	1.742462e+04	4.604289e+03	3.315081e+03	0	1.254817e-03
7.800000e+08	7.052547e+13	0.000000e+00	6.969699e-01	9.919501e+14	1.259229e+15	1.598662e+14	1.739466e+04	4.600294e+03	3.312205e+03	0	1.248685e-03
7.900000e+08	6.949855e+13	0.000000e+00	6.969699e-01	9.826324e+14	1.248348e+15	1.591145e+14	1.736499e+04	4.596329e+03	3.309350e+03	0	1.242595e-03
8.000000e+08	6.848838e+13	0.000000e+00	6.969699e-01	9.734619e+14	1.237625e+15	1.583679e+14	1.733559e+04	4.592393e+03	3.306516e+03	0	1.236545e-03
8.100000e+08	6.749458e+13	0.000000e+00	6.969699e-01	9.644353e+14	1.227057e+15	1.576266e+14	1.730647e+04	4.588486e+03	3.303703e+03	0	1.230535e-03
8.200000e+08	6.651679e+13	0.000000e+00	6.969699e-01	9.555497e+14	1.216641e+15	1.568903e+14	1.727762e+04	4.584607e+03	3.300910e+03	0	1.224564e-03
8.300000e+08	6.555467e+13	0.000000e+00	6.969699e-01	9.468018e+14	1.206374e+15	1.561592e+14	1.724903e+04	4.580757e+03	3.298138e+03	0	1.218631e-03
8.400000e+08	6.460787e+13	0.000000e+00	6.969699e-01	9.381889e+14	1.196254e+15	1.554331e+14	1.722070e+04	4.576935e+03	3.295386e+03	0	1.212735e-03
8.500000e+08	6.367607e+13	0.000000e+00	6.969699e-01	9.297080e+14	1.186279e+15	1.547120e+14	1.719263e+04	4.573141e+03	3.292655e+03	0	1.206877e-03
8.600000e+08	6.275895e+13	0.000000e+00	6.969699e-01	9.213563e+14	1.176444e+15	1.539959e+14	1.716481e+04	4.569375e+03	3.289943e+03	0	1.201055e-03
8.700000e+08	6.185619e+13	0.000000e+00	6.969699e-01	9.131312e+14	1.166749e+15	1.532847e+14	1.713725e+04	4.565636e+03	3.287251e+03	0	1.195268e-03
8.800000e+08	6.096748e+13	0.000000e+00	6.969699e-01	9.050299e+14	1.157189e+15	1.525784e+14	1.710992e+04	4.561925e+03	3.284579e+03	0	1.189516e-03
8.900000e+08	6.009254e+13	0.000000e+00	6.969699e-01	8.970498e+14	1.147764e+15	1.518770e+14	1.708284e+04	4.558240e+03	3.281926e+03	0	1.183798e-03
9.000000e+08	5.923107e+13	0.000000e+00	6.969699e-01	8.891886e+14	1.138470e+15	1.511803e+14	1.705600e+04	4.554583e+03	3.279293e+03	0	1.178114e-03
9.100000e+08	5.838279e+13	0.000000e+00	6.969699e-01	8.814437e+14	1.129304e+15	1.504885e+14	1.702939e+04	4.550952e+03	3.276678e+03	0	1.172463e-03
9.200000e+08	5.754743e+13	0.000000e+00	6.969699e-01	8.738127e+14	1.120265e+15	1.498014e+14	1.700301e+04	4.547347e+03	3.274083e+03	0	1.166844e-03
9.300000e+08	5.672472e+13	0.000000e+00	6.969699e-01	8.662934e+14	1.111350e+15	1.491190e+14	1.697686e+04	4.543768e+03	3.271506e+03	0	1.161257e-03
9.400000e+08	5.591440e+13	0.000000e+00	6.969699e-01	8.588834e+14	1.102557e+15	1.484412e+14	1.695094e+04	4.540214e+03	3.268947e+03	0	1.155701e-03
9.500000e+08	5.511621e+13	0.000000e+00	6.969699e-01	8.515806e+14	1.093883e+15	1.477681e+14	1.692524e+04	4.536687e+03	3.266407e+03	0	1.150175e-03
9.600000e+08	5.432992e+13	0.000000e+00	6.969699e-01	8.443828e+14	1.085327e+15	1.470996e+14	1.689975e+04	4.533184e+03	3.263885e+03	0	1.144680e-03
9.700000e+08	5.355527e+13	0.000000e+00	6.969699e-01	8.372878e+14	1.076885e+15	1.464356e+14	1.687448e+04	4.529706e+03	3.261381e+03	0	1.139213e-03
9.800000e+08	5.279204e+13	0.000000e+00	6.969699e-01	8.302938e+14	1.068557e+15	1.457761e+14	1.684942e+04	4.526253e+03	3.258895e+03	0	1.133775e-03
9.900000e+08	5.203999e+13	0.000000e+00	6.969699e-01	8.233986e+14	1.060340e+15	1.451212e+14	1.682457e+04	4.522824e+03	3.256426e+03	0	1.128366e-03
1.000000e+09	5.129891e+13	0.000000e+00	6.969699e-01	8.166003e+14	1.052232e+15	1.444706e+14	1.679992e+04	4.519419e+03	3.253975e+03	0	1.122984e-03
1.010000e+09	5.056858e+13	0.000000e+00	6.969699e-01	8.098971e+14	1.044231e+15	1.438245e+14	1.677548e+04	4.516038e+03	3.251541e+03	0	1.117629e-03
1.020000e+09	4.984877e+13	0.000000e+00	6.969699e-01	8.032870e+14	1.036335e+15	1.431828e+14	1.675124e+04	4.512681e+03	3.249123e+03	0	1.112301e-03
1.030000e+09	4.913930e+13	0.000000e+00	6.969699e-01	7.967684e+14	1.028542e+15	1.425454e+14	1.672719e+04	4.509347e+03	3.246723e+03	0	1.106999e-03
1.040000e+09	4.843995e+13	0.000000e+00	6.969699e-01	7.903394e+14	1.020850e+15	1.419123e+14	1.670334e+04	4.506036e+03	3.244339e+03	0	1.101722e-03
1.050000e+09	4.775053e+13	0.000000e+00	6.969699e-01	7.839983e+14	1.013258e+15	1.412835e+14	1.667969e+04	4.502747e+03	3.241971e+03	0	1.096471e-03
1.060000e+09	4.707084e+13	0.000000e+00	6.969699e-01	7.777434e+14	1.005764e+15	1.406589e+14	1.665622e+04	4.499482e+03	3.239620e+03	0	1.091243e-03
1.070000e+09	4.640071e+13	0.000000e+00	6.969699e-01	7.715731e+14	9.983653e+14	1.400385e+14	1.663293e+04	4.496238e+03	3.237285e+03	0	1.086040e-03
1.080000e+09	4.573994e+13	0.000000e+00	6.969699e-01	7.654859e+14	9.910611e+14	1.394223e+14	1.660984e+04	4.493017e+03	3.234965e+03	0	1.080860e-03
1.090000e+09	4.508836e+13	0.000000e+00	6.969699e-01	7.594801e+14	9.838494e+14	1.388103e+14	1.658692e+04	4.489817e+03	3.232661e+03	0	1.075703e-03
1.100000e+09	4.444580e+13	0.000000e+00	6.969699e-01	7.535542e+14	9.767286e+14	1.382023e+14	1.656418e+04	4.486639e+03	3.230373e+03	0	1.070569e-03
1.110000e+09	4.381208e+13	0.000000e+00	6.969699e-01	7.477068e+14	9.696972e+14	1.375985e+14	1.654162e+04	4.483482e+03	3.228100e+03	0	1.065456e-03
1.120000e+09	4.318705e+13	0.000000e+00	6.969699e-01	7.419364e+14	9.627536e+14	1.369986e+14	1.651924e+04	4.480346e+03	3.225842e+03	0	1.060365e-03
1.130000e+09	4.257053e+13	0.000000e+00	6.969699e-01	7.362416e+14	9.558962e+14	1.364028e+14	1.649703e+04	4.477231e+03	3.223599e+03	0	1.055295e-03
1.140000e+09	4.196237e+13	0.000000e+00	6.969699e-01	7.306210e+14	9.491235e+14	1.358110e+14	1.647498e+04	4.474136e+03	3.221371e+03	0	1.050246e-03
1.150000e+09	4.136241e+13	0.000000e+00	6.969699e-01	7.250733e+14	9.424342e+14	1.352232e+14	1.645311e+04	4.471062e+03	3.219158e+03	0	1.045216e-03
1.160000e+09	4.077051e+13	0.000000e+00	6.969699e-01	7.195971e+14	9.358266e+14	1.346392e+14	1.643140e+04	4.468008e+03	3.216959e+03	0	1.040207e-03
1.170000e+09	4.018652e+13	0.000000e+00	6.969699e-01	7.141912e+14	9.292995e+14	1.340591e+14	1.640985e+04	4.464974e+03	3.214774e+03	0	1.035216e-03
1.180000e+09	3.961029e+13	0.000000e+00	6.969699e-01	7.088543e+14	9.228515e+14	1.334829e+14	1.638847e+04	4.461959e+03	3.212604e+03	0	1.030244e-03
1.190000e+09	3.904168e+13	0.000000e+00	6.969699e-01	7.035851e+14	9.164812e+14	1.329106e+14	1.636724e+04	4.458964e+03	3.210448e+03	0	1.025291e-03
1.200000e+09	3.848056e+13	0.000000e+00	6.969699e-01	6.983825e+14	9.101873e+14	1.323420e+14	1.634618e+04	4.455989e+03	3.208305e+03	0	1.020355e-03
1.210000e+09	3.792679e+13	0.000000e+00	6.969699e-01	6.932453e+14	9.039685e+14	1.317772e+14	1.632526e+04	4.453032e+03	3.206176e+03	0	1.015437e-03
1.220000e+09	3.738024e+13	0.000000e+00	6.969699e-01	6.881724e+14	8.978235e+14	1.312161e+14	1.630450e+04	4.450094e+03	3.204061e+03	0	1.010536e-03
1.230000e+09	3.684079e+13	0.000000e+00	6.969699e-01	6.831626e+14	8.917512e+14	1.306588e+14	1.628390e+04	4.447174e+03	3.201959e+03	0	1.005651e-03
1.240000e+09	3.630829e+13	0.000000e+00	6.969699e-01	6.782148e+14	8.857502e+14	1.301051e+14	1.626344e+04	4.444273e+03	3.199870e+03	0	1.000782e-03
1.250000e+09	3.578265e+13	0.000000e+00	6.969699e-01	6.733280e+14	8.798195e+14	1.295551e+14	1.624313e+04	4.441390e+03	3.197794e+03	0	9.959291e-04
1.260000e+09	3.526373e+13	0.000000e+00	6.969699e-01	6.685011e+14	8.739579e+14	1.290088e+14	1.622297e+04	4.438525e+03	3.195731e+03	0	9.910913e-04
1.270000e+09	3.475141e+13	0.000000e+00	6.969699e-01	6.637330e+14	8.681642e+14	1.284660e+14	1.620295e+04	4.435678e+03	3.193682e+03	0	9.862683e-04
1.280000e+09	3.424559e+13	0.000000e+00	6.969699e-01	6.590228e+14	8.624373e+14	1.279268e+14	1.618307e+04	4.432849e+03	3.191644e+03	0	9.814597e-04
1.290000e+09	3.374615e+13	0.000000e+00	6.969699e-01	6.543696e+14	8.567761e+14	1.273911e+14	1.616333e+04	4.430037e+03	3.189620e+03	0	9.766650e-04
1.300000e+09	3.325298e+13	0.000000e+00	6.969699e-01	6.497722e+14	8.511796e+14	1.268589e+14	1.614374e+04	4.427242e+03	3.187607e+03	0	9.718840e-04
1.310000e+09	3.276597e+13	0.000000e+00	6.969699e-01	6.452299e+14	8.456468e+14	1.263303e+14	1.612428e+04	4.424464e+03	3.185607e+03	0	9.671160e-04
1.320000e+09	3.228502e+13	0.000000e+00	6.969699e-01	6.407416e+14	8.401765e+14	1.258051e+14	1.610495e+04	4.421703e+03	3.183619e+03	0	9.623608e-04
1.330000e+09	3.181003e+13	0.000000e+00	6.969699e-01	6.363065e+14	8.347678e+14	1.252833e+14	1.608576e+04	4.418959e+03	3.181643e+03	0	9.576179e-04
1.340000e+09	3.134089e+13	0.000000e+00	6.969699e-01	6.319237e+14	8.294198e+14	1.247650e+14	1.606670e+04	4.416231e+03	3.179679e+03	0	9.528869e-04
1.350000e+09	3.087751e+13	0.000000e+00	6.969699e-01	6.275923e+14	8.241314e+14	1.242500e+14	1.604778e+04	4.413519e+03	3.177727e+03	0	9.481674e-04
1.360000e+09	3.041980e+13	0.000000e+00	6.969699e-01	6.233115e+14	8.189017e+14	1.237384e+14	1.602898e+04	4.410824e+03	3.175786e+03	0	9.434590e-04
