#t		Qconv[W]	Ri[Rp]		R*[Rp]		Qc[W]		Qm[W]		Qr[W]		Tcmb[K]		Tl[K]		Tup[K]		RiFlag		Bs[T]
0.000000e+00	3.814545e+12	0.000000e+00	5.838151e-01	9.149019e+13	1.198462e+15	1.072410e+14	5.572838e+03	3.266214e+03	2.147076e+03	0	5.284340e-04
1.000000e+07	3.722748e+12	0.000000e+00	5.838151e-01	8.945459e+13	1.047891e+15	1.066468e+14	5.557031e+03	3.184344e+03	2.093258e+03	0	5.241607e-04
2.000000e+07	3.629522e+12	0.000000e+00	5.838151e-01	8.738813e+13	9.285962e+14	1.060571e+14	5.541573e+03	3.114142e+03	2.047110e+03	0	5.197482e-04
3.000000e+07	3.537561e+12	0.000000e+00	5.838151e-01	8.534988e+13	8.323016e+14	1.054717e+14	5.526468e+03	3.053227e+03	2.007067e+03	0	5.153210e-04
4.000000e+07	3.448280e+12	0.000000e+00	5.838151e-01	8.337093e+13	7.533058e+14	1.048907e+14	5.511714e+03	2.999828e+03	1.971965e+03	0	5.109488e-04
5.000000e+07	3.362380e+12	0.000000e+00	5.838151e-01	8.146661e+13	6.875812e+14	1.043141e+14	5.497299e+03	2.952606e+03	1.940923e+03	0	5.066703e-04
6.000000e+07	3.280152e+12	0.000000e+00	5.838151e-01	7.964329e+13	6.322175e+14	1.037418e+14	5.483212e+03	2.910525e+03	1.913261e+03	0	5.025059e-04
7.000000e+07	3.201656e+12	0.000000e+00	5.838151e-01	7.790227e+13	5.850688e+14	1.031737e+14	5.469437e+03	2.872772e+03	1.888443e+03	0	4.984651e-04
8.000000e+07	3.126823e+12	0.000000e+00	5.838151e-01	7.624199e+13	5.445244e+14	1.026098e+14	5.455962e+03	2.838700e+03	1.866045e+03	0	4.945508e-04
9.000000e+07	3.055509e+12	0.000000e+00	5.838151e-01	7.465934e+13	5.093551e+14	1.020502e+14	5.442773e+03	2.807786e+03	1.845724e+03	0	4.907622e-04
1.000000e+08	2.987540e+12	0.000000e+00	5.838151e-01	7.315040e+13	4.786096e+14	1.014947e+14	5.429855e+03	2.779604e+03	1.827198e+03	0	4.870959e-04
1.100000e+08	2.922723e+12	0.000000e+00	5.838151e-01	7.171097e+13	4.515414e+14	1.009433e+14	5.417198e+03	2.753803e+03	1.810238e+03	0	4.835475e-04
1.200000e+08	2.860864e+12	0.000000e+00	5.838151e-01	7.033677e+13	4.275578e+14	1.003960e+14	5.404788e+03	2.730089e+03	1.794649e+03	0	4.801117e-04
1.300000e+08	2.801775e+12	0.000000e+00	5.838151e-01	6.902364e+13	4.061834e+14	9.985273e+13	5.392615e+03	2.708217e+03	1.780271e+03	0	4.767832e-04
1.400000e+08	2.745274e+12	0.000000e+00	5.838151e-01	6.776760e+13	3.870325e+14	9.931351e+13	5.380667e+03	2.687977e+03	1.766967e+03	0	4.735564e-04
1.500000e+08	2.691191e+12	0.000000e+00	5.838151e-01	6.656491e+13	3.697897e+14	9.877827e+13	5.368937e+03	2.669193e+03	1.754619e+03	0	4.704261e-04
1.600000e+08	2.639368e+12	0.000000e+00	5.838151e-01	6.541207e+13	3.541947e+14	9.824699e+13	5.357413e+03	2.651712e+03	1.743127e+03	0	4.673869e-04
1.700000e+08	2.589657e+12	0.000000e+00	5.838151e-01	6.430585e+13	3.400313e+14	9.771962e+13	5.346088e+03	2.635402e+03	1.732406e+03	0	4.644339e-04
1.800000e+08	2.541922e+12	0.000000e+00	5.838151e-01	6.324323e+13	3.271181e+14	9.719615e+13	5.334954e+03	2.620148e+03	1.722378e+03	0	4.615626e-04
1.900000e+08	2.496038e+12	0.000000e+00	5.838151e-01	6.222146e+13	3.153026e+14	9.667652e+13	5.324002e+03	2.605851e+03	1.712980e+03	0	4.587685e-04
2.000000e+08	2.451889e+12	0.000000e+00	5.838151e-01	6.123798e+13	3.044550e+14	9.616073e+13	5.313227e+03	2.592423e+03	1.704153e+03	0	4.560476e-04
2.100000e+08	2.409367e+12	0.000000e+00	5.838151e-01	6.029045e+13	2.944649e+14	9.564872e+13	5.302622e+03	2.579787e+03	1.695847e+03	0	4.533959e-04
2.200000e+08	2.368376e+12	0.000000e+00	5.838151e-01	5.937670e+13	2.852375e+14	9.514048e+13	5.292180e+03	2.567874e+03	1.688016e+03	0	4.508099e-04
2.300000e+08	2.328823e+12	0.000000e+00	5.838151e-01	5.849473e+13	2.766909e+14	9.463597e+13	5.281895e+03	2.556624e+03	1.680620e+03	0	4.482862e-04
2.400000e+08	2.290625e+12	0.000000e+00	5.838151e-01	5.764271e+13	2.687545e+14	9.413515e+13	5.271763e+03	2.545982e+03	1.673625e+03	0	4.458217e-04
2.500000e+08	2.253707e+12	0.000000e+00	5.838151e-01	5.681893e+13	2.613665e+14	9.363801e+13	5.261777e+03	2.535901e+03	1.666998e+03	0	4.434136e-04
2.600000e+08	2.217995e+12	0.000000e+00	5.838151e-01	5.602182e+13	2.544733e+14	9.314450e+13	5.251934e+03	2.526337e+03	1.660711e+03	0	4.410590e-04
2.700000e+08	2.183424e+12	0.000000e+00	5.838151e-01	5.524994e+13	2.480275e+14	9.265460e+13	5.242228e+03	2.517250e+03	1.654737e+03	0	4.387555e-04
2.800000e+08	2.149933e+12	0.000000e+00	5.838151e-01	5.450193e+13	2.419876e+14	9.216828e+13	5.232655e+03	2.508605e+03	1.649055e+03	0	4.365006e-04
2.900000e+08	2.117466e+12	0.000000e+00	5.838151e-01	5.377655e+13	2.363168e+14	9.168550e+13	5.223212e+03	2.500371e+03	1.643642e+03	0	4.342922e-04
3.000000e+08	2.085969e+12	0.000000e+00	5.838151e-01	5.307264e+13	2.309827e+14	9.120625e+13	5.213893e+03	2.492518e+03	1.638480e+03	0	4.321281e-04
3.100000e+08	2.055394e+12	0.000000e+00	5.838151e-01	5.238913e+13	2.259563e+14	9.073049e+13	5.204696e+03	2.485020e+03	1.633551e+03	0	4.300064e-04
3.200000e+08	2.025696e+12	0.000000e+00	5.838151e-01	5.172500e+13	2.212118e+14	9.025819e+13	5.195618e+03	2.477853e+03	1.628840e+03	0	4.279253e-04
3.300000e+08	1.996833e+12	0.000000e+00	5.838151e-01	5.107933e+13	2.167260e+14	8.978932e+13	5.186653e+03	2.470995e+03	1.624332e+03	0	4.258831e-04
3.400000e+08	1.968763e+12	0.000000e+00	5.838151e-01	5.045125e+13	2.124783e+14	8.932386e+13	5.177801e+03	2.464426e+03	1.620013e+03	0	4.238782e-04
3.500000e+08	1.941452e+12	0.000000e+00	5.838151e-01	4.983994e+13	2.084501e+14	8.886177e+13	5.169056e+03	2.458127e+03	1.615873e+03	0	4.219090e-04
3.600000e+08	1.914864e+12	0.000000e+00	5.838151e-01	4.924464e+13	2.046245e+14	8.840304e+13	5.160418e+03	2.452082e+03	1.611899e+03	0	4.199741e-04
3.700000e+08	1.888966e+12	0.000000e+00	5.838151e-01	4.866463e+13	2.009864e+14	8.794763e+13	5.151882e+03	2.446275e+03	1.608081e+03	0	4.180722e-04
3.800000e+08	1.863730e+12	0.000000e+00	5.838151e-01	4.809926e+13	1.975220e+14	8.749551e+13	5.143446e+03	2.440691e+03	1.604411e+03	0	4.162020e-04
3.900000e+08	1.839125e+12	0.000000e+00	5.838151e-01	4.754790e+13	1.942189e+14	8.704666e+13	5.135108e+03	2.435318e+03	1.600879e+03	0	4.143624e-04
4.000000e+08	1.815126e+12	0.000000e+00	5.838151e-01	4.700994e+13	1.910658e+14	8.660105e+13	5.126865e+03	2.430142e+03	1.597476e+03	0	4.125521e-04
4.100000e+08	1.791708e+12	0.000000e+00	5.838151e-01	4.648485e+13	1.880524e+14	8.615866e+13	5.118715e+03	2.425153e+03	1.594197e+03	0	4.107702e-04
4.200000e+08	1.768846e+12	0.000000e+00	5.838151e-01	4.597210e+13	1.851691e+14	8.571946e+13	5.110656e+03	2.420340e+03	1.591033e+03	0	4.090156e-04
4.300000e+08	1.746519e+12	0.000000e+00	5.838151e-01	4.547119e+13	1.824074e+14	8.528342e+13	5.102685e+03	2.415693e+03	1.587978e+03	0	4.072874e-04
4.400000e+08	1.724705e+12	0.000000e+00	5.838151e-01	4.498167e+13	1.797595e+14	8.485051e+13	5.094801e+03	2.411203e+03	1.585027e+03	0	4.055846e-04
4.500000e+08	1.703385e+12	0.000000e+00	5.838151e-01	4.450310e+13	1.772179e+14	8.442072e+13	5.087002e+03	2.406862e+03	1.582173e+03	0	4.039065e-04
4.600000e+08	1.682540e+12	0.000000e+00	5.838151e-01	4.403507e+13	1.747762e+14	8.399401e+13	5.079285e+03	2.402662e+03	1.579412e+03	0	4.022521e-04
4.700000e+08	1.662152e+12	0.000000e+00	5.838151e-01	4.357717e+13	1.724281e+14	8.357036e+13	5.071649e+03	2.398595e+03	1.576738e+03	0	4.006208e-04
4.800000e+08	1.642205e+12	0.000000e+00	5.838151e-01	4.312905e+13	1.701680e+14	8.314975e+13	5.064093e+03	2.394654e+03	1.574148e+03	0	3.990117e-04
4.900000e+08	1.622682e+12	0.000000e+00	5.838151e-01	4.269035e+13	1.679907e+14	8.273215e+13	5.056613e+03	2.390834e+03	1.571637e+03	0	3.974242e-04
5.000000e+08	1.603569e+12	0.000000e+00	5.838151e-01	4.226074e+13	1.658914e+14	8.231753e+13	5.049210e+03	2.387127e+03	1.569200e+03	0	3.958577e-04
5.100000e+08	1.584851e+12	0.000000e+00	5.838151e-01	4.183990e+13	1.638656e+14	8.190588e+13	5.041881e+03	2.383529e+03	1.566835e+03	0	3.943114e-04
5.200000e+08	1.566514e+12	0.000000e+00	5.838151e-01	4.142753e+13	1.619092e+14	8.149716e+13	5.034624e+03	2.380033e+03	1.564537e+03	0	3.927848e-04
5.300000e+08	1.548547e+12	0.000000e+00	5.838151e-01	4.102335e+13	1.600183e+14	8.109136e+13	5.027439e+03	2.376636e+03	1.562304e+03	0	3.912773e-04
5.400000e+08	1.530936e+12	0.000000e+00	5.838151e-01	4.062709e+13	1.581893e+14	8.068845e+13	5.020324e+03	2.373332e+03	1.560132e+03	0	3.897884e-04
5.500000e+08	1.513669e+12	0.000000e+00	5.838151e-01	4.023848e+13	1.564191e+14	8.028841e+13	5.013277e+03	2.370117e+03	1.558018e+03	0	3.883174e-04
5.600000e+08	1.496736e+12	0.000000e+00	5.838151e-01	3.985729e+13	1.547043e+14	7.989121e+13	5.006298e+03	2.366987e+03	1.555961e+03	0	3.868640e-04
5.700000e+08	1.480127e+12	0.000000e+00	5.838151e-01	3.948327e+13	1.530423e+14	7.949683e+13	4.999384e+03	2.363938e+03	1.553956e+03	0	3.854276e-04
5.800000e+08	1.463830e+12	0.000000e+00	5.838151e-01	3.911621e+13	1.514303e+14	7.910525e+13	4.992535e+03	2.360966e+03	1.552003e+03	0	3.840078e-04
5.900000e+08	1.447836e+12	0.000000e+00	5.838151e-01	3.875588e+13	1.498657e+14	7.871645e+13	4.985750e+03	2.358068e+03	1.550098e+03	0	3.826041e-04
6.000000e+08	1.432136e+12	0.000000e+00	5.838151e-01	3.840209e+13	1.483463e+14	7.833040e+13	4.979027e+03	2.355241e+03	1.548239e+03	0	3.812161e-04
6.100000e+08	1.416721e+12	0.000000e+00	5.838151e-01	3.805463e+13	1.468698e+14	7.794708e+13	4.972365e+03	2.352480e+03	1.546425e+03	0	3.798435e-04
6.200000e+08	1.401583e+12	0.000000e+00	5.838151e-01	3.771333e+13	1.454342e+14	7.756646e+13	4.965763e+03	2.349785e+03	1.544653e+03	0	3.784857e-04
6.300000e+08	1.386713e+12	0.000000e+00	5.838151e-01	3.737800e+13	1.440375e+14	7.718854e+13	4.959220e+03	2.347151e+03	1.542921e+03	0	3.771424e-04
6.400000e+08	1.372104e+12	0.000000e+00	5.838151e-01	3.704847e+13	1.426780e+14	7.681328e+13	4.952735e+03	2.344576e+03	1.541229e+03	0	3.758134e-04
6.500000e+08	1.357749e+12	0.000000e+00	5.838151e-01	3.672458e+13	1.413540e+14	7.644066e+13	4.946308e+03	2.342059e+03	1.539574e+03	0	3.744981e-04
6.600000e+08	1.343639e+12	0.000000e+00	5.838151e-01	3.640617e+13	1.400638e+14	7.607066e+13	4.939936e+03	2.339595e+03	1.537954e+03	0	3.731964e-04
6.700000e+08	1.329769e+12	0.000000e+00	5.838151e-01	3.609309e+13	1.388059e+14	7.570327e+13	4.933619e+03	2.337183e+03	1.536369e+03	0	3.719078e-04
6.800000e+08	1.316132e+12	0.000000e+00	5.838151e-01	3.578519e+13	1.375789e+14	7.533846e+13	4.927357e+03	2.334822e+03	1.534817e+03	0	3.706321e-04
6.900000e+08	1.302722e+12	0.000000e+00	5.838151e-01	3.548233e+13	1.363815e+14	7.497620e+13	4.921147e+03	2.332509e+03	1.533296e+03	0	3.693690e-04
7.000000e+08	1.289532e+12	0.000000e+00	5.838151e-01	3.518438e+13	1.352125e+14	7.461649e+13	4.914991e+03	2.330241e+03	1.531806e+03	0	3.681181e-04
7.100000e+08	1.276556e+12	0.000000e+00	5.838151e-01	3.489122e+13	1.340706e+14	7.425929e+13	4.908885e+03	2.328019e+03	1.530344e+03	0	3.668793e-04
7.200000e+08	1.263790e+12	0.000000e+00	5.838151e-01	3.460271e+13	1.329547e+14	7.390459e+13	4.902831e+03	2.325838e+03	1.528911e+03	0	3.656522e-04
7.300000e+08	1.251228e+12	0.000000e+00	5.838151e-01	3.431874e+13	1.318637e+14	7.355237e+13	4.896826e+03	2.323699e+03	1.527505e+03	0	3.644366e-04
7.400000e+08	1.238864e+12	0.000000e+00	5.838151e-01	3.403919e+13	1.307968e+14	7.320261e+13	4.890871e+03	2.321599e+03	1.526125e+03	0	3.632322e-04
7.500000e+08	1.226693e+12	0.000000e+00	5.838151e-01	3.376396e+13	1.297528e+14	7.285529e+13	4.884964e+03	2.319537e+03	1.524769e+03	0	3.620389e-04
7.600000e+08	1.214711e+12	0.000000e+00	5.838151e-01	3.349293e+13	1.287309e+14	7.251038e+13	4.879104e+03	2.317512e+03	1.523438e+03	0	3.608562e-04
7.700000e+08	1.202914e+12	0.000000e+00	5.838151e-01	3.322600e+13	1.277303e+14	7.216788e+13	4.873292e+03	2.315522e+03	1.522130e+03	0	3.596842e-04
7.800000e+08	1.191295e+12	0.000000e+00	5.838151e-01	3.296308e+13	1.267502e+14	7.182776e+13	4.867525e+03	2.313566e+03	1.520844e+03	0	3.585225e-04
7.900000e+08	1.179853e+12	0.000000e+00	5.838151e-01	3.270407e+13	1.257897e+14	7.149000e+13	4.861804e+03	2.311642e+03	1.519579e+03	0	3.573708e-04
8.000000e+08	1.168581e+12	0.000000e+00	5.838151e-01	3.244887e+13	1.248482e+14	7.115458e+13	4.856128e+03	2.309750e+03	1.518336e+03	0	3.562291e-04
8.100000e+08	1.157476e+12	0.000000e+00	5.838151e-01	3.219740e+13	1.239249e+14	7.082148e+13	4.850497e+03	2.307889e+03	1.517112e+03	0	3.550972e-04
8.200000e+08	1.146535e+12	0.000000e+00	5.838151e-01	3.194957e+13	1.230193e+14	7.049069e+13	4.844908e+03	2.306057e+03	1.515908e+03	0	3.539747e-04
8.300000e+08	1.135752e+12	0.000000e+00	5.838151e-01	3.170530e+13	1.221307e+14	7.016219e+13	4.839363e+03	2.304253e+03	1.514722e+03	0	3.528616e-04
8.400000e+08	1.125126e+12	0.000000e+00	5.838151e-01	3.146450e+13	1.212584e+14	6.983596e+13	4.833860e+03	2.302477e+03	1.513555e+03	0	3.517577e-04
8.500000e+08	1.114652e+12	0.000000e+00	5.838151e-01	3.122710e+13	1.204020e+14	6.951198e+13	4.828398e+03	2.300728e+03	1.512405e+03	0	3.506628e-04
8.600000e+08	1.104327e+12	0.000000e+00	5.838151e-01	3.099303e+13	1.195609e+14	6.919023e+13	4.822978e+03	2.299004e+03	1.511271e+03	0	3.495767e-04
8.700000e+08	1.094147e+12	0.000000e+00	5.838151e-01	3.076220e+13	1.187345e+14	6.887069e+13	4.817598e+03	2.297304e+03	1.510154e+03	0	3.484992e-04
8.800000e+08	1.084110e+12	0.000000e+00	5.838151e-01	3.053455e+13	1.179225e+14	6.855336e+13	4.812259e+03	2.295629e+03	1.509053e+03	0	3.474303e-04
8.900000e+08	1.074212e+12	0.000000e+00	5.838151e-01	3.031002e+13	1.171242e+14	6.823820e+13	4.806958e+03	2.293977e+03	1.507967e+03	0	3.463697e-04
9.000000e+08	1.064451e+12	0.000000e+00	5.838151e-01	3.008853e+13	1.163394e+14	6.792521e+13	4.801697e+03	2.292348e+03	1.506896e+03	0	3.453174e-04
9.100000e+08	1.054823e+12	0.000000e+00	5.838151e-01	2.987001e+13	1.155675e+14	6.761436e+13	4.796473e+03	2.290740e+03	1.505839e+03	0	3.442731e-04
9.200000e+08	1.045325e+12	0.000000e+00	5.838151e-01	2.965442e+13	1.148082e+14	6.730564e+13	4.791288e+03	2.289153e+03	1.504796e+03	0	3.432367e-04
9.300000e+08	1.035955e+12	0.000000e+00	5.838151e-01	2.944168e+13	1.140610e+14	6.699904e+13	4.786140e+03	2.287587e+03	1.503766e+03	0	3.422081e-04
9.400000e+08	1.026711e+12	0.000000e+00	5.838151e-01	2.923174e+13	1.133256e+14	6.669452e+13	4.781029e+03	2.286041e+03	1.502750e+03	0	3.411871e-04
9.500000e+08	1.017589e+12	0.000000e+00	5.838151e-01	2.902455e+13	1.126017e+14	6.639209e+13	4.775954e+03	2.284513e+03	1.501746e+03	0	3.401737e-04
9.600000e+08	1.008587e+12	0.000000e+00	5.838151e-01	2.882003e+13	1.118888e+14	6.609172e+13	4.770915e+03	2.283005e+03	1.500754e+03	0	3.391676e-04
9.700000e+08	9.997036e+11	0.000000e+00	5.838151e-01	2.861815e+13	1.111867e+14	6.579340e+13	4.765912e+03	2.281514e+03	1.499775e+03	0	3.381689e-04
9.800000e+08	9.909350e+11	0.000000e+00	5.838151e-01	2.841885e+13	1.104951e+14	6.549710e+13	4.760943e+03	2.280042e+03	1.498806e+03	0	3.371773e-04
9.900000e+08	9.822795e+11	0.000000e+00	5.838151e-01	2.822208e+13	1.098137e+14	6.520282e+13	4.756009e+03	2.278586e+03	1.497849e+03	0	3.361927e-04
1.000000e+09	9.737350e+11	0.000000e+00	5.838151e-01	2.802779e+13	1.091421e+14	6.491054e+13	4.751109e+03	2.277146e+03	1.496903e+03	0	3.352150e-04
1.010000e+09	9.652991e+11	0.000000e+00	5.838151e-01	2.783593e+13	1.084801e+14	6.462024e+13	4.746243e+03	2.275723e+03	1.495968e+03	0	3.342442e-04
1.020000e+09	9.569699e+11	0.000000e+00	5.838151e-01	2.764646e+13	1.078275e+14	6.433190e+13	4.741410e+03	2.274316e+03	1.495043e+03	0	3.332800e-04
1.030000e+09	9.487452e+11	0.000000e+00	5.838151e-01	2.745932e+13	1.071839e+14	6.404552e+13	4.736610e+03	2.272924e+03	1.494127e+03	0	3.323225e-04
1.040000e+09	9.406231e+11	0.000000e+00	5.838151e-01	2.727448e+13	1.065492e+14	6.376107e+13	4.731842e+03	2.271546e+03	1.493222e+03	0	3.313714e-04
1.050000e+09	9.326016e+11	0.000000e+00	5.838151e-01	2.709190e+13	1.059231e+14	6.347854e+13	4.727106e+03	2.270183e+03	1.492326e+03	0	3.304268e-04
1.060000e+09	9.246790e+11	0.000000e+00	5.838151e-01	2.691152e+13	1.053054e+14	6.319792e+13	4.722402e+03	2.268834e+03	1.491439e+03	0	3.294885e-04
1.070000e+09	9.168532e+11	0.000000e+00	5.838151e-01	2.673331e+13	1.046959e+14	6.291919e+13	4.717729e+03	2.267499e+03	1.490561e+03	0	3.285563e-04
1.080000e+09	9.091227e+11	0.000000e+00	5.838151e-01	2.655724e+13	1.040943e+14	6.264234e+13	4.713087e+03	2.266177e+03	1.489692e+03	0	3.276303e-04
1.090000e+09	9.014855e+11	0.000000e+00	5.838151e-01	2.638325e+13	1.035005e+14	6.236734e+13	4.708476e+03	2.264867e+03	1.488832e+03	0	3.267103e-04
1.100000e+09	8.939400e+11	0.000000e+00	5.838151e-01	2.621132e+13	1.029143e+14	6.209420e+13	4.703894e+03	2.263571e+03	1.487979e+03	0	3.257962e-04
1.110000e+09	8.864846e+11	0.000000e+00	5.838151e-01	2.604141e+13	1.023354e+14	6.182288e+13	4.699343e+03	2.262287e+03	1.487135e+03	0	3.248880e-04
1.120000e+09	8.791177e+11	0.000000e+00	5.838151e-01	2.587348e+13	1.017638e+14	6.155338e+13	4.694821e+03	2.261014e+03	1.486299e+03	0	3.239855e-04
1.130000e+09	8.718376e+11	0.000000e+00	5.838151e-01	2.570750e+13	1.011992e+14	6.128569e+13	4.690328e+03	2.259754e+03	1.485470e+03	0	3.230887e-04
1.140000e+09	8.646429e+11	0.000000e+00	5.838151e-01	2.554342e+13	1.006415e+14	6.101978e+13	4.685863e+03	2.258505e+03	1.484649e+03	0	3.221975e-04
1.150000e+09	8.575321e+11	0.000000e+00	5.838151e-01	2.538123e+13	1.000905e+14	6.075565e+13	4.681428e+03	2.257267e+03	1.483835e+03	0	3.213118e-04
1.160000e+09	8.505037e+11	0.000000e+00	5.838151e-01	2.522089e+13	9.954602e+13	6.049328e+13	4.677020e+03	2.256040e+03	1.483029e+03	0	3.204316e-04
1.170000e+09	8.435563e+11	0.000000e+00	5.838151e-01	2.506235e+13	9.900798e+13	6.023266e+13	4.672640e+03	2.254823e+03	1.482229e+03	0	3.195567e-04
1.180000e+09	8.366884e+11	0.000000e+00	5.838151e-01	2.490561e+13	9.847621e+13	5.997378e+13	4.668287e+03	2.253617e+03	1.481436e+03	0	3.186871e-04
1.190000e+09	8.298988e+11	0.000000e+00	5.838151e-01	2.475062e+13	9.795058e+13	5.971661e+13	4.663962e+03	2.252421e+03	1.480650e+03	0	3.178227e-04
1.200000e+09	8.231862e+11	0.000000e+00	5.838151e-01	2.459735e+13	9.743094e+13	5.946116e+13	4.659664e+03	2.251235e+03	1.479870e+03	0	3.169635e-04
1.210000e+09	8.165491e+11	0.000000e+00	5.838151e-01	2.444578e+13	9.691716e+13	5.920739e+13	4.655392e+03	2.250059e+03	1.479097e+03	0	3.161093e-04
1.220000e+09	8.099865e+11	0.000000e+00	5.838151e-01	2.429588e+13	9.640913e+13	5.895531e+13	4.651146e+03	2.248892e+03	1.478330e+03	0	3.152602e-04
1.230000e+09	8.034969e+11	0.000000e+00	5.838151e-01	2.414762e+13	9.590672e+13	5.870489e+13	4.646926e+03	2.247734e+03	1.477569e+03	0	3.144160e-04
1.240000e+09	7.970794e+11	0.000000e+00	5.838151e-01	2.400097e+13	9.540982e+13	5.845614e+13	4.642732e+03	2.246585e+03	1.476814e+03	0	3.135767e-04
1.250000e+09	7.907325e+11	0.000000e+00	5.838151e-01	2.385591e+13	9.491831e+13	5.820902e+13	4.638564e+03	2.245446e+03	1.476064e+03	0	3.127421e-04
1.260000e+09	7.844553e+11	0.000000e+00	5.838151e-01	2.371241e+13	9.443208e+13	5.796353e+13	4.634420e+03	2.244315e+03	1.475321e+03	0	3.119124e-04
1.270000e+09	7.782466e+11	0.000000e+00	5.838151e-01	2.357045e+13	9.395104e+13	5.771966e+13	4.630302e+03	2.243192e+03	1.474583e+03	0	3.110873e-04
1.280000e+09	7.721053e+11	0.000000e+00	5.838151e-01	2.343000e+13	9.347506e+13	5.747739e+13	4.626208e+03	2.242078e+03	1.473850e+03	0	3.102669e-04
1.290000e+09	7.660303e+11	0.000000e+00	5.838151e-01	2.329104e+13	9.300406e+13	5.723672e+13	4.622138e+03	2.240971e+03	1.473123e+03	0	3.094510e-04
1.300000e+09	7.600205e+11	0.000000e+00	5.838151e-01	2.315355e+13	9.253794e+13	5.699762e+13	4.618093e+03	2.239873e+03	1.472401e+03	0	3.086396e-04
1.310000e+09	7.540750e+11	0.000000e+00	5.838151e-01	2.301750e+13	9.207661e+13	5.676010e+13	4.614071e+03	2.238783e+03	1.471685e+03	0	3.078327e-04
1.320000e+09	7.481928e+11	0.000000e+00	5.838151e-01	2.288286e+13	9.161997e+13	5.652412e+13	4.610073e+03	2.237700e+03	1.470973e+03	0	3.070302e-04
1.330000e+09	7.423727e+11	0.000000e+00	5.838151e-01	2.274963e+13	9.116794e+13	5.628970e+13	4.606099e+03	2.236625e+03	1.470266e+03	0	3.062320e-04
1.340000e+09	7.366140e+11	0.000000e+00	5.838151e-01	2.261777e+13	9.072043e+13	5.605680e+13	4.602147e+03	2.235557e+03	1.469564e+03	0	3.054381e-04
1.350000e+09	7.309156e+11	0.000000e+00	5.838151e-01	2.248727e+13	9.027736e+13	5.582542e+13	4.598218e+03	2.234496e+03	1.468867e+03	0	3.046484e-04
1.360000e+09	7.252766e+11	0.000000e+00	5.838151e-01	2.235811e+13	8.983865e+13	5.559555e+13	4.594312e+03	2.233443e+03	1.468174e+03	0	3.038630e-04
