#t		Qconv[W]	Ri[Rp]		R*[Rp]		Qc[W]		Qm[W]		Qr[W]		Tcmb[K]		Tl[K]		Tup[K]		RiFlag		Bs[T]
0.000000e+00	4.169570e+13	0.000000e+00	5.664739e-01	6.189668e+14	2.519452e+15	2.818846e+14	1.037754e+04	4.924398e+03	2.474895e+03	0	1.136907e-03
1.000000e+07	4.050515e+13	0.000000e+00	5.664739e-01	6.038604e+14	2.342937e+15	2.803227e+14	1.034078e+04	4.865880e+03	2.445485e+03	0	1.125981e-03
2.000000e+07	3.937632e+13	0.000000e+00	5.664739e-01	5.895271e+14	2.190364e+15	2.787726e+14	1.030491e+04	4.813007e+03	2.418912e+03	0	1.115423e-03
3.000000e+07	3.830476e+13	0.000000e+00	5.664739e-01	5.759114e+14	2.057361e+15	2.772340e+14	1.026989e+04	4.764980e+03	2.394775e+03	0	1.105211e-03
4.000000e+07	3.728626e+13	0.000000e+00	5.664739e-01	5.629606e+14	1.940529e+15	2.757069e+14	1.023567e+04	4.721145e+03	2.372744e+03	0	1.095328e-03
5.000000e+07	3.631688e+13	0.000000e+00	5.664739e-01	5.506258e+14	1.837190e+15	2.741912e+14	1.020221e+04	4.680962e+03	2.352549e+03	0	1.085752e-03
6.000000e+07	3.539302e+13	0.000000e+00	5.664739e-01	5.388618e+14	1.745210e+15	2.726868e+14	1.016948e+04	4.643980e+03	2.333963e+03	0	1.076466e-03
7.000000e+07	3.451137e+13	0.000000e+00	5.664739e-01	5.276274e+14	1.662870e+15	2.711936e+14	1.013745e+04	4.609822e+03	2.316796e+03	0	1.067452e-03
8.000000e+07	3.366893e+13	0.000000e+00	5.664739e-01	5.168850e+14	1.588773e+15	2.697115e+14	1.010608e+04	4.578167e+03	2.300886e+03	0	1.058695e-03
9.000000e+07	3.286293e+13	0.000000e+00	5.664739e-01	5.066002e+14	1.521772e+15	2.682404e+14	1.007535e+04	4.548741e+03	2.286098e+03	0	1.050179e-03
1.000000e+08	3.209090e+13	0.000000e+00	5.664739e-01	4.967420e+14	1.460917e+15	2.667802e+14	1.004522e+04	4.521309e+03	2.272311e+03	0	1.041890e-03
1.100000e+08	3.135054e+13	0.000000e+00	5.664739e-01	4.872818e+14	1.405417e+15	2.653309e+14	1.001568e+04	4.495668e+03	2.259424e+03	0	1.033815e-03
1.200000e+08	3.063978e+13	0.000000e+00	5.664739e-01	4.781938e+14	1.354606e+15	2.638923e+14	9.986697e+03	4.471642e+03	2.247349e+03	0	1.025942e-03
1.300000e+08	2.995674e+13	0.000000e+00	5.664739e-01	4.694542e+14	1.307925e+15	2.624644e+14	9.958251e+03	4.449077e+03	2.236009e+03	0	1.018261e-03
1.400000e+08	2.929969e+13	0.000000e+00	5.664739e-01	4.610416e+14	1.264893e+15	2.610470e+14	9.930322e+03	4.427839e+03	2.225335e+03	0	1.010762e-03
1.500000e+08	2.866703e+13	0.000000e+00	5.664739e-01	4.529360e+14	1.225105e+15	2.596402e+14	9.902891e+03	4.407808e+03	2.215268e+03	0	1.003434e-03
1.600000e+08	2.805732e+13	0.000000e+00	5.664739e-01	4.451193e+14	1.188207e+15	2.582437e+14	9.875940e+03	4.388879e+03	2.205755e+03	0	9.962687e-04
1.700000e+08	2.746923e+13	0.000000e+00	5.664739e-01	4.375748e+14	1.153897e+15	2.568575e+14	9.849451e+03	4.370960e+03	2.196749e+03	0	9.892588e-04
1.800000e+08	2.690152e+13	0.000000e+00	5.664739e-01	4.302873e+14	1.121911e+15	2.554815e+14	9.823410e+03	4.353967e+03	2.188208e+03	0	9.823963e-04
1.900000e+08	2.635308e+13	0.000000e+00	5.664739e-01	4.232425e+14	1.092020e+15	2.541157e+14	9.797799e+03	4.337826e+03	2.180096e+03	0	9.756743e-04
2.000000e+08	2.582285e+13	0.000000e+00	5.664739e-01	4.164274e+14	1.064023e+15	2.527599e+14	9.772606e+03	4.322470e+03	2.172379e+03	0	9.690864e-04
2.100000e+08	2.530987e+13	0.000000e+00	5.664739e-01	4.098299e+14	1.037744e+15	2.514141e+14	9.747817e+03	4.307839e+03	2.165026e+03	0	9.626264e-04
2.200000e+08	2.481325e+13	0.000000e+00	5.664739e-01	4.034389e+14	1.013026e+15	2.500782e+14	9.723418e+03	4.293881e+03	2.158010e+03	0	9.562886e-04
2.300000e+08	2.433216e+13	0.000000e+00	5.664739e-01	3.972439e+14	9.897315e+14	2.487521e+14	9.699398e+03	4.280544e+03	2.151308e+03	0	9.500679e-04
2.400000e+08	2.386583e+13	0.000000e+00	5.664739e-01	3.912352e+14	9.677388e+14	2.474357e+14	9.675746e+03	4.267787e+03	2.144896e+03	0	9.439593e-04
2.500000e+08	2.341353e+13	0.000000e+00	5.664739e-01	3.854040e+14	9.469386e+14	2.461289e+14	9.652449e+03	4.255567e+03	2.138755e+03	0	9.379580e-04
2.600000e+08	2.297461e+13	0.000000e+00	5.664739e-01	3.797418e+14	9.272334e+14	2.448317e+14	9.629498e+03	4.243850e+03	2.132866e+03	0	9.320599e-04
2.700000e+08	2.254844e+13	0.000000e+00	5.664739e-01	3.742407e+14	9.085361e+14	2.435440e+14	9.606883e+03	4.232601e+03	2.127212e+03	0	9.262608e-04
2.800000e+08	2.213443e+13	0.000000e+00	5.664739e-01	3.688936e+14	8.907683e+14	2.422657e+14	9.584593e+03	4.221789e+03	2.121779e+03	0	9.205568e-04
2.900000e+08	2.173205e+13	0.000000e+00	5.664739e-01	3.636934e+14	8.738595e+14	2.409967e+14	9.562621e+03	4.211388e+03	2.116551e+03	0	9.149443e-04
3.000000e+08	2.134077e+13	0.000000e+00	5.664739e-01	3.586339e+14	8.577459e+14	2.397370e+14	9.540957e+03	4.201371e+03	2.111517e+03	0	9.094199e-04
3.100000e+08	2.096012e+13	0.000000e+00	5.664739e-01	3.537090e+14	8.423700e+14	2.384864e+14	9.519593e+03	4.191715e+03	2.106664e+03	0	9.039805e-04
3.200000e+08	2.058965e+13	0.000000e+00	5.664739e-01	3.489130e+14	8.276795e+14	2.372450e+14	9.498522e+03	4.182398e+03	2.101981e+03	0	8.986228e-04
3.300000e+08	2.022894e+13	0.000000e+00	5.664739e-01	3.442406e+14	8.136268e+14	2.360126e+14	9.477735e+03	4.173399e+03	2.097459e+03	0	8.933441e-04
3.400000e+08	1.987758e+13	0.000000e+00	5.664739e-01	3.396868e+14	8.001688e+14	2.347891e+14	9.457225e+03	4.164702e+03	2.093088e+03	0	8.881417e-04
3.500000e+08	1.953520e+13	0.000000e+00	5.664739e-01	3.352468e+14	7.872660e+14	2.335745e+14	9.436985e+03	4.156287e+03	2.088859e+03	0	8.830128e-04
3.600000e+08	1.920144e+13	0.000000e+00	5.664739e-01	3.309162e+14	7.748823e+14	2.323687e+14	9.417008e+03	4.148140e+03	2.084765e+03	0	8.779552e-04
3.700000e+08	1.887597e+13	0.000000e+00	5.664739e-01	3.266909e+14	7.629847e+14	2.311717e+14	9.397289e+03	4.140246e+03	2.080797e+03	0	8.729663e-04
3.800000e+08	1.855847e+13	0.000000e+00	5.664739e-01	3.225666e+14	7.515430e+14	2.299833e+14	9.377820e+03	4.132592e+03	2.076950e+03	0	8.680441e-04
3.900000e+08	1.824864e+13	0.000000e+00	5.664739e-01	3.185398e+14	7.405291e+14	2.288035e+14	9.358596e+03	4.125163e+03	2.073217e+03	0	8.631863e-04
4.000000e+08	1.794619e+13	0.000000e+00	5.664739e-01	3.146068e+14	7.299176e+14	2.276322e+14	9.339612e+03	4.117950e+03	2.069591e+03	0	8.583911e-04
4.100000e+08	1.765086e+13	0.000000e+00	5.664739e-01	3.107643e+14	7.196849e+14	2.264693e+14	9.320860e+03	4.110940e+03	2.066068e+03	0	8.536564e-04
4.200000e+08	1.736240e+13	0.000000e+00	5.664739e-01	3.070089e+14	7.098090e+14	2.253149e+14	9.302337e+03	4.104123e+03	2.062642e+03	0	8.489804e-04
4.300000e+08	1.708054e+13	0.000000e+00	5.664739e-01	3.033377e+14	7.002698e+14	2.241687e+14	9.284037e+03	4.097490e+03	2.059309e+03	0	8.443613e-04
4.400000e+08	1.680508e+13	0.000000e+00	5.664739e-01	2.997477e+14	6.910487e+14	2.230308e+14	9.265954e+03	4.091032e+03	2.056063e+03	0	8.397976e-04
4.500000e+08	1.653578e+13	0.000000e+00	5.664739e-01	2.962362e+14	6.821284e+14	2.219011e+14	9.248085e+03	4.084741e+03	2.052901e+03	0	8.352875e-04
4.600000e+08	1.627244e+13	0.000000e+00	5.664739e-01	2.928005e+14	6.734928e+14	2.207795e+14	9.230425e+03	4.078607e+03	2.049819e+03	0	8.308296e-04
4.700000e+08	1.601485e+13	0.000000e+00	5.664739e-01	2.894381e+14	6.651270e+14	2.196659e+14	9.212968e+03	4.072625e+03	2.046812e+03	0	8.264223e-04
4.800000e+08	1.576283e+13	0.000000e+00	5.664739e-01	2.861466e+14	6.570171e+14	2.185604e+14	9.195712e+03	4.066787e+03	2.043878e+03	0	8.220643e-04
4.900000e+08	1.551619e+13	0.000000e+00	5.664739e-01	2.829237e+14	6.491501e+14	2.174627e+14	9.178650e+03	4.061087e+03	2.041013e+03	0	8.177543e-04
5.000000e+08	1.527477e+13	0.000000e+00	5.664739e-01	2.797673e+14	6.415140e+14	2.163729e+14	9.161780e+03	4.055518e+03	2.038215e+03	0	8.134908e-04
5.100000e+08	1.503839e+13	0.000000e+00	5.664739e-01	2.766752e+14	6.340975e+14	2.152908e+14	9.145098e+03	4.050075e+03	2.035479e+03	0	8.092727e-04
5.200000e+08	1.480690e+13	0.000000e+00	5.664739e-01	2.736454e+14	6.268900e+14	2.142165e+14	9.128600e+03	4.044752e+03	2.032804e+03	0	8.050988e-04
5.300000e+08	1.458015e+13	0.000000e+00	5.664739e-01	2.706761e+14	6.198817e+14	2.131499e+14	9.112281e+03	4.039544e+03	2.030186e+03	0	8.009678e-04
5.400000e+08	1.435799e+13	0.000000e+00	5.664739e-01	2.677654e+14	6.130634e+14	2.120908e+14	9.096139e+03	4.034447e+03	2.027625e+03	0	7.968788e-04
5.500000e+08	1.414028e+13	0.000000e+00	5.664739e-01	2.649115e+14	6.064263e+14	2.110393e+14	9.080170e+03	4.029455e+03	2.025116e+03	0	7.928306e-04
5.600000e+08	1.392689e+13	0.000000e+00	5.664739e-01	2.621128e+14	5.999624e+14	2.099953e+14	9.064370e+03	4.024564e+03	2.022658e+03	0	7.888222e-04
5.700000e+08	1.371769e+13	0.000000e+00	5.664739e-01	2.593676e+14	5.936641e+14	2.089586e+14	9.048737e+03	4.019771e+03	2.020249e+03	0	7.848525e-04
5.800000e+08	1.351256e+13	0.000000e+00	5.664739e-01	2.566744e+14	5.875240e+14	2.079293e+14	9.033267e+03	4.015072e+03	2.017887e+03	0	7.809207e-04
5.900000e+08	1.331138e+13	0.000000e+00	5.664739e-01	2.540318e+14	5.815355e+14	2.069074e+14	9.017957e+03	4.010462e+03	2.015570e+03	0	7.770258e-04
6.000000e+08	1.311404e+13	0.000000e+00	5.664739e-01	2.514383e+14	5.756923e+14	2.058926e+14	9.002804e+03	4.005939e+03	2.013297e+03	0	7.731670e-04
6.100000e+08	1.292043e+13	0.000000e+00	5.664739e-01	2.488924e+14	5.699882e+14	2.048851e+14	8.987806e+03	4.001498e+03	2.011065e+03	0	7.693432e-04
6.200000e+08	1.273045e+13	0.000000e+00	5.664739e-01	2.463930e+14	5.644176e+14	2.038846e+14	8.972958e+03	3.997138e+03	2.008874e+03	0	7.655538e-04
6.300000e+08	1.254400e+13	0.000000e+00	5.664739e-01	2.439387e+14	5.589752e+14	2.028912e+14	8.958260e+03	3.992854e+03	2.006721e+03	0	7.617979e-04
6.400000e+08	1.236097e+13	0.000000e+00	5.664739e-01	2.415283e+14	5.536560e+14	2.019048e+14	8.943707e+03	3.988645e+03	2.004606e+03	0	7.580746e-04
6.500000e+08	1.218128e+13	0.000000e+00	5.664739e-01	2.391607e+14	5.484550e+14	2.009254e+14	8.929297e+03	3.984507e+03	2.002526e+03	0	7.543834e-04
6.600000e+08	1.200484e+13	0.000000e+00	5.664739e-01	2.368347e+14	5.433679e+14	1.999529e+14	8.915029e+03	3.980438e+03	2.000481e+03	0	7.507233e-04
6.700000e+08	1.183156e+13	0.000000e+00	5.664739e-01	2.345492e+14	5.383903e+14	1.989872e+14	8.900898e+03	3.976436e+03	1.998470e+03	0	7.470938e-04
6.800000e+08	1.166136e+13	0.000000e+00	5.664739e-01	2.323031e+14	5.335181e+14	1.980283e+14	8.886904e+03	3.972498e+03	1.996490e+03	0	7.434940e-04
6.900000e+08	1.149415e+13	0.000000e+00	5.664739e-01	2.300955e+14	5.287475e+14	1.970761e+14	8.873043e+03	3.968622e+03	1.994542e+03	0	7.399234e-04
7.000000e+08	1.132987e+13	0.000000e+00	5.664739e-01	2.279253e+14	5.240749e+14	1.961306e+14	8.859314e+03	3.964806e+03	1.992625e+03	0	7.363813e-04
7.100000e+08	1.116843e+13	0.000000e+00	5.664739e-01	2.257917e+14	5.194967e+14	1.951917e+14	8.845713e+03	3.961048e+03	1.990736e+03	0	7.328670e-04
7.200000e+08	1.100977e+13	0.000000e+00	5.664739e-01	2.236937e+14	5.150096e+14	1.942593e+14	8.832240e+03	3.957345e+03	1.988875e+03	0	7.293800e-04
7.300000e+08	1.085381e+13	0.000000e+00	5.664739e-01	2.216304e+14	5.106106e+14	1.933335e+14	8.818891e+03	3.953698e+03	1.987042e+03	0	7.259196e-04
7.400000e+08	1.070049e+13	0.000000e+00	5.664739e-01	2.196010e+14	5.062965e+14	1.924142e+14	8.805665e+03	3.950102e+03	1.985235e+03	0	7.224853e-04
7.500000e+08	1.054974e+13	0.000000e+00	5.664739e-01	2.176047e+14	5.020646e+14	1.915012e+14	8.792560e+03	3.946558e+03	1.983453e+03	0	7.190765e-04
7.600000e+08	1.040151e+13	0.000000e+00	5.664739e-01	2.156406e+14	4.979121e+14	1.905946e+14	8.779573e+03	3.943062e+03	1.981697e+03	0	7.156926e-04
7.700000e+08	1.025572e+13	0.000000e+00	5.664739e-01	2.137080e+14	4.938365e+14	1.896944e+14	8.766704e+03	3.939615e+03	1.979964e+03	0	7.123331e-04
7.800000e+08	1.011232e+13	0.000000e+00	5.664739e-01	2.118061e+14	4.898353e+14	1.888003e+14	8.753949e+03	3.936214e+03	1.978255e+03	0	7.089975e-04
7.900000e+08	9.971259e+12	0.000000e+00	5.664739e-01	2.099343e+14	4.859061e+14	1.879125e+14	8.741307e+03	3.932857e+03	1.976568e+03	0	7.056853e-04
8.000000e+08	9.832475e+12	0.000000e+00	5.664739e-01	2.080917e+14	4.820467e+14	1.870309e+14	8.728777e+03	3.929545e+03	1.974903e+03	0	7.023960e-04
8.100000e+08	9.695917e+12	0.000000e+00	5.664739e-01	2.062779e+14	4.782548e+14	1.861553e+14	8.716357e+03	3.926274e+03	1.973259e+03	0	6.991291e-04
8.200000e+08	9.561533e+12	0.000000e+00	5.664739e-01	2.044920e+14	4.745286e+14	1.852858e+14	8.704045e+03	3.923045e+03	1.971637e+03	0	6.958841e-04
8.300000e+08	9.429273e+12	0.000000e+00	5.664739e-01	2.027335e+14	4.708659e+14	1.844224e+14	8.691838e+03	3.919856e+03	1.970034e+03	0	6.926606e-04
8.400000e+08	9.299089e+12	0.000000e+00	5.664739e-01	2.010017e+14	4.672649e+14	1.835649e+14	8.679737e+03	3.916705e+03	1.968450e+03	0	6.894581e-04
8.500000e+08	9.170935e+12	0.000000e+00	5.664739e-01	1.992961e+14	4.637238e+14	1.827133e+14	8.667738e+03	3.913592e+03	1.966886e+03	0	6.862762e-04
8.600000e+08	9.044764e+12	0.000000e+00	5.664739e-01	1.976160e+14	4.602409e+14	1.818676e+14	8.655841e+03	3.910516e+03	1.965340e+03	0	6.831145e-04
8.700000e+08	8.920532e+12	0.000000e+00	5.664739e-01	1.959609e+14	4.568145e+14	1.810277e+14	8.644045e+03	3.907476e+03	1.963812e+03	0	6.799725e-04
8.800000e+08	8.798197e+12	0.000000e+00	5.664739e-01	1.943303e+14	4.534430e+14	1.801935e+14	8.632346e+03	3.904470e+03	1.962301e+03	0	6.768498e-04
8.900000e+08	8.677716e+12	0.000000e+00	5.664739e-01	1.927237e+14	4.501248e+14	1.793651e+14	8.620745e+03	3.901498e+03	1.960808e+03	0	6.737461e-04
9.000000e+08	8.559051e+12	0.000000e+00	5.664739e-01	1.911404e+14	4.468587e+14	1.785424e+14	8.609239e+03	3.898559e+03	1.959331e+03	0	6.706609e-04
9.100000e+08	8.442161e+12	0.000000e+00	5.664739e-01	1.895801e+14	4.436430e+14	1.777254e+14	8.597828e+03	3.895652e+03	1.957870e+03	0	6.675938e-04
9.200000e+08	8.327009e+12	0.000000e+00	5.664739e-01	1.880422e+14	4.404765e+14	1.769139e+14	8.586509e+03	3.892777e+03	1.956424e+03	0	6.645445e-04
9.300000e+08	8.213557e+12	0.000000e+00	5.664739e-01	1.865262e+14	4.373578e+14	1.761080e+14	8.575282e+03	3.889932e+03	1.954995e+03	0	6.615127e-04
9.400000e+08	8.101770e+12	0.000000e+00	5.664739e-01	1.850318e+14	4.342858e+14	1.753076e+14	8.564146e+03	3.887117e+03	1.953580e+03	0	6.584979e-04
9.500000e+08	7.991612e+12	0.000000e+00	5.664739e-01	1.835584e+14	4.312592e+14	1.745126e+14	8.553098e+03	3.884330e+03	1.952179e+03	0	6.554998e-04
9.600000e+08	7.883051e+12	0.000000e+00	5.664739e-01	1.821057e+14	4.282768e+14	1.737231e+14	8.542138e+03	3.881572e+03	1.950793e+03	0	6.525181e-04
9.700000e+08	7.776052e+12	0.000000e+00	5.664739e-01	1.806732e+14	4.253376e+14	1.729389e+14	8.531265e+03	3.878842e+03	1.949421e+03	0	6.495523e-04
9.800000e+08	7.670584e+12	0.000000e+00	5.664739e-01	1.792604e+14	4.224405e+14	1.721601e+14	8.520476e+03	3.876139e+03	1.948063e+03	0	6.466023e-04
9.900000e+08	7.566616e+12	0.000000e+00	5.664739e-01	1.778671e+14	4.195843e+14	1.713866e+14	8.509772e+03	3.873462e+03	1.946717e+03	0	6.436676e-04
1.000000e+09	7.464118e+12	0.000000e+00	5.664739e-01	1.764928e+14	4.167683e+14	1.706183e+14	8.499151e+03	3.870811e+03	1.945385e+03	0	6.407480e-04
1.010000e+09	7.363058e+12	0.000000e+00	5.664739e-01	1.751371e+14	4.139912e+14	1.698553e+14	8.488612e+03	3.868185e+03	1.944065e+03	0	6.378431e-04
1.020000e+09	7.263410e+12	0.000000e+00	5.664739e-01	1.737997e+14	4.112523e+14	1.690974e+14	8.478154e+03	3.865583e+03	1.942757e+03	0	6.349526e-04
1.030000e+09	7.165145e+12	0.000000e+00	5.664739e-01	1.724803e+14	4.085507e+14	1.683446e+14	8.467775e+03	3.863006e+03	1.941462e+03	0	6.320762e-04
1.040000e+09	7.068236e+12	0.000000e+00	5.664739e-01	1.711783e+14	4.058855e+14	1.675969e+14	8.457475e+03	3.860452e+03	1.940179e+03	0	6.292136e-04
1.050000e+09	6.972656e+12	0.000000e+00	5.664739e-01	1.698936e+14	4.032557e+14	1.668543e+14	8.447252e+03	3.857921e+03	1.938907e+03	0	6.263646e-04
1.060000e+09	6.878380e+12	0.000000e+00	5.664739e-01	1.686258e+14	4.006608e+14	1.661167e+14	8.437106e+03	3.855413e+03	1.937646e+03	0	6.235287e-04
1.070000e+09	6.785381e+12	0.000000e+00	5.664739e-01	1.673746e+14	3.980997e+14	1.653840e+14	8.427035e+03	3.852926e+03	1.936396e+03	0	6.207059e-04
1.080000e+09	6.693637e+12	0.000000e+00	5.664739e-01	1.661397e+14	3.955719e+14	1.646563e+14	8.417039e+03	3.850462e+03	1.935158e+03	0	6.178957e-04
1.090000e+09	6.603122e+12	0.000000e+00	5.664739e-01	1.649207e+14	3.930765e+14	1.639335e+14	8.407117e+03	3.848018e+03	1.933930e+03	0	6.150978e-04
1.100000e+09	6.513814e+12	0.000000e+00	5.664739e-01	1.637173e+14	3.906129e+14	1.632155e+14	8.397267e+03	3.845595e+03	1.932712e+03	0	6.123121e-04
1.110000e+09	6.425689e+12	0.000000e+00	5.664739e-01	1.625294e+14	3.881804e+14	1.625024e+14	8.387489e+03	3.843193e+03	1.931504e+03	0	6.095383e-04
1.120000e+09	6.338726e+12	0.000000e+00	5.664739e-01	1.613565e+14	3.857783e+14	1.617940e+14	8.377782e+03	3.840810e+03	1.930307e+03	0	6.067760e-04
1.130000e+09	6.252903e+12	0.000000e+00	5.664739e-01	1.601984e+14	3.834060e+14	1.610903e+14	8.368144e+03	3.838447e+03	1.929119e+03	0	6.040251e-04
1.140000e+09	6.168198e+12	0.000000e+00	5.664739e-01	1.590548e+14	3.810628e+14	1.603914e+14	8.358576e+03	3.836103e+03	1.927941e+03	0	6.012852e-04
1.150000e+09	6.084592e+12	0.000000e+00	5.664739e-01	1.579256e+14	3.787482e+14	1.596971e+14	8.349075e+03	3.833777e+03	1.926772e+03	0	5.985562e-04
1.160000e+09	6.002064e+12	0.000000e+00	5.664739e-01	1.568103e+14	3.764615e+14	1.590075e+14	8.339642e+03	3.831470e+03	1.925613e+03	0	5.958377e-04
1.170000e+09	5.920595e+12	0.000000e+00	5.664739e-01	1.557088e+14	3.742022e+14	1.583225e+14	8.330275e+03	3.829181e+03	1.924463e+03	0	5.931295e-04
1.180000e+09	5.840165e+12	0.000000e+00	5.664739e-01	1.546208e+14	3.719698e+14	1.576420e+14	8.320974e+03	3.826910e+03	1.923321e+03	0	5.904314e-04
1.190000e+09	5.760756e+12	0.000000e+00	5.664739e-01	1.535461e+14	3.697637e+14	1.569660e+14	8.311738e+03	3.824656e+03	1.922188e+03	0	5.877432e-04
1.200000e+09	5.682350e+12	0.000000e+00	5.664739e-01	1.524845e+14	3.675834e+14	1.562945e+14	8.302566e+03	3.822419e+03	1.921064e+03	0	5.850645e-04
1.210000e+09	5.604928e+12	0.000000e+00	5.664739e-01	1.514357e+14	3.654284e+14	1.556275e+14	8.293457e+03	3.820199e+03	1.919948e+03	0	5.823952e-04
1.220000e+09	5.528474e+12	0.000000e+00	5.664739e-01	1.503995e+14	3.632982e+14	1.549649e+14	8.284411e+03	3.817995e+03	1.918841e+03	0	5.797350e-04
1.230000e+09	5.452970e+12	0.000000e+00	5.664739e-01	1.493756e+14	3.611923e+14	1.543067e+14	8.275426e+03	3.815807e+03	1.917741e+03	0	5.770837e-04
1.240000e+09	5.378400e+12	0.000000e+00	5.664739e-01	1.483640e+14	3.591103e+14	1.536528e+14	8.266503e+03	3.813636e+03	1.916650e+03	0	5.744410e-04
1.250000e+09	5.304748e+12	0.000000e+00	5.664739e-01	1.473642e+14	3.570517e+14	1.530033e+14	8.257640e+03	3.811480e+03	1.915566e+03	0	5.718068e-04
1.260000e+09	5.231997e+12	0.000000e+00	5.664739e-01	1.463763e+14	3.550161e+14	1.523580e+14	8.248836e+03	3.809339e+03	1.914490e+03	0	5.691808e-04
1.270000e+09	5.160133e+12	0.000000e+00	5.664739e-01	1.453999e+14	3.530031e+14	1.517170e+14	8.240091e+03	3.807213e+03	1.913422e+03	0	5.665628e-04
1.280000e+09	5.089139e+12	0.000000e+00	5.664739e-01	1.444348e+14	3.510123e+14	1.510802e+14	8.231404e+03	3.805102e+03	1.912361e+03	0	5.639525e-04
1.290000e+09	5.019003e+12	0.000000e+00	5.664739e-01	1.434810e+14	3.490432e+14	1.504476e+14	8.222775e+03	3.803006e+03	1.911307e+03	0	5.613498e-04
1.300000e+09	4.949708e+12	0.000000e+00	5.664739e-01	1.425381e+14	3.470954e+14	1.498191e+14	8.214203e+03	3.800924e+03	1.910261e+03	0	5.587544e-04
1.310000e+09	4.881240e+12	0.000000e+00	5.664739e-01	1.416060e+14	3.451687e+14	1.491948e+14	8.205687e+03	3.798856e+03	1.909222e+03	0	5.561661e-04
1.320000e+09	4.813587e+12	0.000000e+00	5.664739e-01	1.406846e+14	3.432625e+14	1.485745e+14	8.197227e+03	3.796802e+03	1.908190e+03	0	5.535846e-04
1.330000e+09	4.746734e+12	0.000000e+00	5.664739e-01	1.397736e+14	3.413766e+14	1.479583e+14	8.188821e+03	3.794762e+03	1.907164e+03	0	5.510099e-04
1.340000e+09	4.680668e+12	0.000000e+00	5.664739e-01	1.388729e+14	3.395106e+14	1.473461e+14	8.180470e+03	3.792735e+03	1.906145e+03	0	5.484416e-04
1.350000e+09	4.615377e+12	0.000000e+00	5.664739e-01	1.379823e+14	3.376642e+14	1.467380e+14	8.172173e+03	3.790721e+03	1.905133e+03	0	5.458795e-04
1.360000e+09	4.550846e+12	0.000000e+00	5.664739e-01	1.371017e+14	3.358370e+14	1.461337e+14	8.163928e+03	3.788720e+03	1.904128e+03	0	5.433235e-04
