#t		Qconv[W]	Ri[Rp]		R*[Rp]		Qc[W]		Qm[W]		Qr[W]		Tcmb[K]		Tl[K]		Tup[K]		RiFlag		Bs[T]
0.000000e+00	1.788120e+13	0.000000e+00	5.606938e-01	3.651438e+14	2.393009e+15	3.589433e+14	1.046763e+04	5.041214e+03	2.588327e+03	0	8.565638e-04
1.000000e+07	1.735434e+13	0.000000e+00	5.606938e-01	3.591275e+14	2.257354e+15	3.569545e+14	1.045104e+04	4.993601e+03	2.563881e+03	0	8.480671e-04
2.000000e+07	1.685174e+13	0.000000e+00	5.606938e-01	3.533802e+14	2.136470e+15	3.549806e+14	1.043473e+04	4.949561e+03	2.541270e+03	0	8.397998e-04
3.000000e+07	1.637175e+13	0.000000e+00	5.606938e-01	3.478838e+14	2.028184e+15	3.530214e+14	1.041867e+04	4.908696e+03	2.520288e+03	0	8.317496e-04
4.000000e+07	1.591284e+13	0.000000e+00	5.606938e-01	3.426213e+14	1.930712e+15	3.510768e+14	1.040287e+04	4.870665e+03	2.500762e+03	0	8.239042e-04
5.000000e+07	1.547356e+13	0.000000e+00	5.606938e-01	3.375768e+14	1.842586e+15	3.491468e+14	1.038730e+04	4.835178e+03	2.482542e+03	0	8.162519e-04
6.000000e+07	1.505259e+13	0.000000e+00	5.606938e-01	3.327359e+14	1.762581e+15	3.472311e+14	1.037196e+04	4.801982e+03	2.465498e+03	0	8.087816e-04
7.000000e+07	1.464872e+13	0.000000e+00	5.606938e-01	3.280849e+14	1.689671e+15	3.453297e+14	1.035684e+04	4.770858e+03	2.449517e+03	0	8.014824e-04
8.000000e+07	1.426081e+13	0.000000e+00	5.606938e-01	3.236115e+14	1.622992e+15	3.434424e+14	1.034193e+04	4.741613e+03	2.434502e+03	0	7.943445e-04
9.000000e+07	1.388784e+13	0.000000e+00	5.606938e-01	3.193043e+14	1.561809e+15	3.415692e+14	1.032723e+04	4.714079e+03	2.420365e+03	0	7.873582e-04
1.000000e+08	1.352885e+13	0.000000e+00	5.606938e-01	3.151528e+14	1.505497e+15	3.397099e+14	1.031272e+04	4.688107e+03	2.407030e+03	0	7.805148e-04
1.100000e+08	1.318298e+13	0.000000e+00	5.606938e-01	3.111474e+14	1.453518e+15	3.378644e+14	1.029839e+04	4.663566e+03	2.394430e+03	0	7.738058e-04
1.200000e+08	1.284941e+13	0.000000e+00	5.606938e-01	3.072792e+14	1.405408e+15	3.360325e+14	1.028425e+04	4.640339e+03	2.382505e+03	0	7.672236e-04
1.300000e+08	1.252742e+13	0.000000e+00	5.606938e-01	3.035401e+14	1.360765e+15	3.342142e+14	1.027029e+04	4.618321e+03	2.371200e+03	0	7.607608e-04
1.400000e+08	1.221633e+13	0.000000e+00	5.606938e-01	2.999226e+14	1.319241e+15	3.324094e+14	1.025649e+04	4.597418e+03	2.360468e+03	0	7.544105e-04
1.500000e+08	1.191550e+13	0.000000e+00	5.606938e-01	2.964198e+14	1.280529e+15	3.306179e+14	1.024286e+04	4.577546e+03	2.350265e+03	0	7.481665e-04
1.600000e+08	1.162436e+13	0.000000e+00	5.606938e-01	2.930251e+14	1.244362e+15	3.288397e+14	1.022939e+04	4.558631e+03	2.340553e+03	0	7.420226e-04
1.700000e+08	1.134236e+13	0.000000e+00	5.606938e-01	2.897328e+14	1.210504e+15	3.270746e+14	1.021607e+04	4.540602e+03	2.331296e+03	0	7.359733e-04
1.800000e+08	1.106903e+13	0.000000e+00	5.606938e-01	2.865374e+14	1.178746e+15	3.253225e+14	1.020289e+04	4.523398e+03	2.322464e+03	0	7.300132e-04
1.900000e+08	1.080390e+13	0.000000e+00	5.606938e-01	2.834337e+14	1.148904e+15	3.235833e+14	1.018987e+04	4.506963e+03	2.314025e+03	0	7.241374e-04
2.000000e+08	1.054653e+13	0.000000e+00	5.606938e-01	2.804171e+14	1.120813e+15	3.218568e+14	1.017698e+04	4.491245e+03	2.305955e+03	0	7.183411e-04
2.100000e+08	1.029655e+13	0.000000e+00	5.606938e-01	2.774832e+14	1.094327e+15	3.201431e+14	1.016424e+04	4.476198e+03	2.298229e+03	0	7.126201e-04
2.200000e+08	1.005357e+13	0.000000e+00	5.606938e-01	2.746280e+14	1.069314e+15	3.184420e+14	1.015162e+04	4.461778e+03	2.290825e+03	0	7.069700e-04
2.300000e+08	9.817264e+12	0.000000e+00	5.606938e-01	2.718475e+14	1.045656e+15	3.167534e+14	1.013913e+04	4.447945e+03	2.283723e+03	0	7.013869e-04
2.400000e+08	9.587303e+12	0.000000e+00	5.606938e-01	2.691383e+14	1.023249e+15	3.150771e+14	1.012677e+04	4.434665e+03	2.276905e+03	0	6.958671e-04
2.500000e+08	9.363393e+12	0.000000e+00	5.606938e-01	2.664972e+14	1.001997e+15	3.134131e+14	1.011454e+04	4.421904e+03	2.270353e+03	0	6.904071e-04
2.600000e+08	9.145253e+12	0.000000e+00	5.606938e-01	2.639209e+14	9.818124e+14	3.117613e+14	1.010242e+04	4.409630e+03	2.264051e+03	0	6.850034e-04
2.700000e+08	8.932624e+12	0.000000e+00	5.606938e-01	2.614066e+14	9.626186e+14	3.101216e+14	1.009042e+04	4.397817e+03	2.257986e+03	0	6.796529e-04
2.800000e+08	8.725261e+12	0.000000e+00	5.606938e-01	2.589516e+14	9.443443e+14	3.084938e+14	1.007853e+04	4.386436e+03	2.252143e+03	0	6.743525e-04
2.900000e+08	8.522935e+12	0.000000e+00	5.606938e-01	2.565534e+14	9.269252e+14	3.068779e+14	1.006676e+04	4.375466e+03	2.246510e+03	0	6.690993e-04
3.000000e+08	8.325432e+12	0.000000e+00	5.606938e-01	2.542095e+14	9.103024e+14	3.052739e+14	1.005509e+04	4.364882e+03	2.241076e+03	0	6.638904e-04
3.100000e+08	8.132548e+12	0.000000e+00	5.606938e-01	2.519178e+14	8.944224e+14	3.036814e+14	1.004353e+04	4.354663e+03	2.235829e+03	0	6.587233e-04
3.200000e+08	7.944095e+12	0.000000e+00	5.606938e-01	2.496760e+14	8.792362e+14	3.021006e+14	1.003208e+04	4.344792e+03	2.230761e+03	0	6.535954e-04
3.300000e+08	7.759892e+12	0.000000e+00	5.606938e-01	2.474823e+14	8.646987e+14	3.005313e+14	1.002072e+04	4.335248e+03	2.225861e+03	0	6.485041e-04
3.400000e+08	7.579772e+12	0.000000e+00	5.606938e-01	2.453347e+14	8.507689e+14	2.989734e+14	1.000947e+04	4.326016e+03	2.221121e+03	0	6.434472e-04
3.500000e+08	7.403575e+12	0.000000e+00	5.606938e-01	2.432315e+14	8.374087e+14	2.974267e+14	9.998312e+03	4.317080e+03	2.216533e+03	0	6.384222e-04
3.600000e+08	7.231150e+12	0.000000e+00	5.606938e-01	2.411711e+14	8.245833e+14	2.958913e+14	9.987250e+03	4.308424e+03	2.212089e+03	0	6.334271e-04
3.700000e+08	7.062356e+12	0.000000e+00	5.606938e-01	2.391517e+14	8.122605e+14	2.943670e+14	9.976282e+03	4.300035e+03	2.207782e+03	0	6.284596e-04
3.800000e+08	6.897058e+12	0.000000e+00	5.606938e-01	2.371719e+14	8.004106e+14	2.928537e+14	9.965405e+03	4.291901e+03	2.203605e+03	0	6.235177e-04
3.900000e+08	6.735128e+12	0.000000e+00	5.606938e-01	2.352304e+14	7.890061e+14	2.913514e+14	9.954618e+03	4.284009e+03	2.199553e+03	0	6.185993e-04
4.000000e+08	6.576447e+12	0.000000e+00	5.606938e-01	2.333257e+14	7.780216e+14	2.898599e+14	9.943919e+03	4.276347e+03	2.195619e+03	0	6.137026e-04
4.100000e+08	6.420899e+12	0.000000e+00	5.606938e-01	2.314566e+14	7.674334e+14	2.883792e+14	9.933307e+03	4.268905e+03	2.191798e+03	0	6.088254e-04
4.200000e+08	6.268376e+12	0.000000e+00	5.606938e-01	2.296218e+14	7.572197e+14	2.869092e+14	9.922779e+03	4.261672e+03	2.188085e+03	0	6.039660e-04
4.300000e+08	6.118774e+12	0.000000e+00	5.606938e-01	2.278203e+14	7.473600e+14	2.854497e+14	9.912335e+03	4.254640e+03	2.184474e+03	0	5.991225e-04
4.400000e+08	5.971997e+12	0.000000e+00	5.606938e-01	2.260509e+14	7.378356e+14	2.840007e+14	9.901973e+03	4.247799e+03	2.180962e+03	0	5.942931e-04
4.500000e+08	5.827949e+12	0.000000e+00	5.606938e-01	2.243126e+14	7.286286e+14	2.825622e+14	9.891690e+03	4.241141e+03	2.177543e+03	0	5.894760e-04
4.600000e+08	5.686543e+12	0.000000e+00	5.606938e-01	2.226044e+14	7.197228e+14	2.811340e+14	9.881487e+03	4.234659e+03	2.174215e+03	0	5.846693e-04
4.700000e+08	5.547694e+12	0.000000e+00	5.606938e-01	2.209254e+14	7.111026e+14	2.797160e+14	9.871361e+03	4.228343e+03	2.170972e+03	0	5.798714e-04
4.800000e+08	5.411321e+12	0.000000e+00	5.606938e-01	2.192746e+14	7.027538e+14	2.783082e+14	9.861312e+03	4.222188e+03	2.167812e+03	0	5.750805e-04
4.900000e+08	5.277347e+12	0.000000e+00	5.606938e-01	2.176511e+14	6.946628e+14	2.769104e+14	9.851337e+03	4.216186e+03	2.164731e+03	0	5.702948e-04
5.000000e+08	5.145699e+12	0.000000e+00	5.606938e-01	2.160543e+14	6.868172e+14	2.755227e+14	9.841436e+03	4.210332e+03	2.161725e+03	0	5.655126e-04
5.100000e+08	5.016306e+12	0.000000e+00	5.606938e-01	2.144832e+14	6.792052e+14	2.741448e+14	9.831608e+03	4.204619e+03	2.158791e+03	0	5.607322e-04
5.200000e+08	4.889102e+12	0.000000e+00	5.606938e-01	2.129371e+14	6.718156e+14	2.727768e+14	9.821851e+03	4.199041e+03	2.155928e+03	0	5.559519e-04
5.300000e+08	4.764021e+12	0.000000e+00	5.606938e-01	2.114154e+14	6.646381e+14	2.714186e+14	9.812164e+03	4.193593e+03	2.153130e+03	0	5.511698e-04
5.400000e+08	4.641003e+12	0.000000e+00	5.606938e-01	2.099173e+14	6.576629e+14	2.700700e+14	9.802546e+03	4.188270e+03	2.150398e+03	0	5.463842e-04
5.500000e+08	4.519989e+12	0.000000e+00	5.606938e-01	2.084421e+14	6.508809e+14	2.687311e+14	9.792996e+03	4.183067e+03	2.147726e+03	0	5.415933e-04
5.600000e+08	4.400923e+12	0.000000e+00	5.606938e-01	2.069893e+14	6.442834e+14	2.674016e+14	9.783513e+03	4.177980e+03	2.145114e+03	0	5.367954e-04
5.700000e+08	4.283750e+12	0.000000e+00	5.606938e-01	2.055582e+14	6.378622e+14	2.660816e+14	9.774096e+03	4.173003e+03	2.142559e+03	0	5.319885e-04
5.800000e+08	4.168419e+12	0.000000e+00	5.606938e-01	2.041482e+14	6.316098e+14	2.647710e+14	9.764744e+03	4.168134e+03	2.140059e+03	0	5.271708e-04
5.900000e+08	4.054881e+12	0.000000e+00	5.606938e-01	2.027588e+14	6.255188e+14	2.634696e+14	9.755456e+03	4.163367e+03	2.137611e+03	0	5.223403e-04
6.000000e+08	3.943086e+12	0.000000e+00	5.606938e-01	2.013895e+14	6.195824e+14	2.621775e+14	9.746231e+03	4.158698e+03	2.135214e+03	0	5.174951e-04
6.100000e+08	3.832990e+12	0.000000e+00	5.606938e-01	2.000397e+14	6.137941e+14	2.608944e+14	9.737068e+03	4.154126e+03	2.132867e+03	0	5.126332e-04
6.200000e+08	3.724548e+12	0.000000e+00	5.606938e-01	1.987090e+14	6.081479e+14	2.596205e+14	9.727967e+03	4.149645e+03	2.130566e+03	0	5.077525e-04
6.300000e+08	3.617718e+12	0.000000e+00	5.606938e-01	1.973968e+14	6.026379e+14	2.583556e+14	9.718926e+03	4.145252e+03	2.128311e+03	0	5.028507e-04
6.400000e+08	3.512460e+12	0.000000e+00	5.606938e-01	1.961028e+14	5.972587e+14	2.570995e+14	9.709944e+03	4.140945e+03	2.126099e+03	0	4.979258e-04
6.500000e+08	3.408734e+12	0.000000e+00	5.606938e-01	1.948264e+14	5.920051e+14	2.558524e+14	9.701021e+03	4.136720e+03	2.123930e+03	0	4.929753e-04
6.600000e+08	3.306502e+12	0.000000e+00	5.606938e-01	1.935672e+14	5.868722e+14	2.546140e+14	9.692157e+03	4.132575e+03	2.121802e+03	0	4.879969e-04
6.700000e+08	3.205727e+12	0.000000e+00	5.606938e-01	1.923249e+14	5.818553e+14	2.533843e+14	9.683349e+03	4.128507e+03	2.119713e+03	0	4.829880e-04
6.800000e+08	3.106376e+12	0.000000e+00	5.606938e-01	1.910990e+14	5.769500e+14	2.521632e+14	9.674598e+03	4.124512e+03	2.117662e+03	0	4.779460e-04
6.900000e+08	3.008413e+12	0.000000e+00	5.606938e-01	1.898891e+14	5.721520e+14	2.509507e+14	9.665903e+03	4.120590e+03	2.115648e+03	0	4.728681e-04
7.000000e+08	2.911807e+12	0.000000e+00	5.606938e-01	1.886950e+14	5.674574e+14	2.497467e+14	9.657262e+03	4.116736e+03	2.113670e+03	0	4.677513e-04
7.100000e+08	2.816525e+12	0.000000e+00	5.606938e-01	1.875162e+14	5.628625e+14	2.485512e+14	9.648676e+03	4.112950e+03	2.111726e+03	0	4.625926e-04
7.200000e+08	2.722538e+12	0.000000e+00	5.606938e-01	1.863523e+14	5.583634e+14	2.473640e+14	9.640143e+03	4.109228e+03	2.109815e+03	0	4.573888e-04
7.300000e+08	2.629816e+12	0.000000e+00	5.606938e-01	1.852031e+14	5.539569e+14	2.461851e+14	9.631663e+03	4.105569e+03	2.107936e+03	0	4.521362e-04
7.400000e+08	2.538331e+12	0.000000e+00	5.606938e-01	1.840683e+14	5.496397e+14	2.450144e+14	9.623235e+03	4.101970e+03	2.106088e+03	0	4.468313e-04
7.500000e+08	2.448055e+12	0.000000e+00	5.606938e-01	1.829475e+14	5.454085e+14	2.438519e+14	9.614859e+03	4.098430e+03	2.104271e+03	0	4.414700e-04
7.600000e+08	2.358962e+12	0.000000e+00	5.606938e-01	1.818404e+14	5.412606e+14	2.426974e+14	9.606534e+03	4.094947e+03	2.102482e+03	0	4.360482e-04
7.700000e+08	2.271025e+12	0.000000e+00	5.606938e-01	1.807468e+14	5.371929e+14	2.415511e+14	9.598259e+03	4.091519e+03	2.100722e+03	0	4.305611e-04
7.800000e+08	2.184222e+12	0.000000e+00	5.606938e-01	1.796663e+14	5.332028e+14	2.404126e+14	9.590034e+03	4.088144e+03	2.098989e+03	0	4.250040e-04
7.900000e+08	2.098526e+12	0.000000e+00	5.606938e-01	1.785987e+14	5.292878e+14	2.392821e+14	9.581857e+03	4.084821e+03	2.097283e+03	0	4.193715e-04
8.000000e+08	2.013915e+12	0.000000e+00	5.606938e-01	1.775437e+14	5.254452e+14	2.381595e+14	9.573730e+03	4.081548e+03	2.095603e+03	0	4.136578e-04
8.100000e+08	1.930367e+12	0.000000e+00	5.606938e-01	1.765011e+14	5.216729e+14	2.370446e+14	9.565650e+03	4.078323e+03	2.093947e+03	0	4.078566e-04
8.200000e+08	1.847859e+12	0.000000e+00	5.606938e-01	1.754706e+14	5.179684e+14	2.359374e+14	9.557617e+03	4.075146e+03	2.092316e+03	0	4.019609e-04
8.300000e+08	1.766371e+12	0.000000e+00	5.606938e-01	1.744520e+14	5.143298e+14	2.348379e+14	9.549632e+03	4.072014e+03	2.090708e+03	0	3.959632e-04
8.400000e+08	1.685882e+12	0.000000e+00	5.606938e-01	1.734450e+14	5.107548e+14	2.337460e+14	9.541692e+03	4.068927e+03	2.089123e+03	0	3.898551e-04
8.500000e+08	1.606372e+12	0.000000e+00	5.606938e-01	1.724495e+14	5.072415e+14	2.326616e+14	9.533799e+03	4.065883e+03	2.087560e+03	0	3.836273e-04
8.600000e+08	1.527821e+12	0.000000e+00	5.606938e-01	1.714652e+14	5.037881e+14	2.315846e+14	9.525950e+03	4.062881e+03	2.086018e+03	0	3.772695e-04
8.700000e+08	1.450211e+12	0.000000e+00	5.606938e-01	1.704918e+14	5.003926e+14	2.305151e+14	9.518146e+03	4.059919e+03	2.084498e+03	0	3.707700e-04
8.800000e+08	1.373525e+12	0.000000e+00	5.606938e-01	1.695292e+14	4.970534e+14	2.294530e+14	9.510387e+03	4.056997e+03	2.082997e+03	0	3.641159e-04
8.900000e+08	1.297743e+12	0.000000e+00	5.606938e-01	1.685773e+14	4.937688e+14	2.283981e+14	9.502671e+03	4.054113e+03	2.081517e+03	0	3.572923e-04
9.000000e+08	1.222849e+12	0.000000e+00	5.606938e-01	1.676357e+14	4.905372e+14	2.273505e+14	9.494999e+03	4.051267e+03	2.080055e+03	0	3.502825e-04
9.100000e+08	1.148826e+12	0.000000e+00	5.606938e-01	1.667043e+14	4.873571e+14	2.263101e+14	9.487369e+03	4.048457e+03	2.078613e+03	0	3.430670e-04
9.200000e+08	1.075658e+12	0.000000e+00	5.606938e-01	1.657829e+14	4.842269e+14	2.252768e+14	9.479782e+03	4.045682e+03	2.077188e+03	0	3.356234e-04
9.300000e+08	1.003330e+12	0.000000e+00	5.606938e-01	1.648713e+14	4.811453e+14	2.242506e+14	9.472236e+03	4.042941e+03	2.075781e+03	0	3.279257e-04
9.400000e+08	9.318250e+11	0.000000e+00	5.606938e-01	1.639694e+14	4.781109e+14	2.232314e+14	9.464732e+03	4.040234e+03	2.074391e+03	0	3.199428e-04
9.500000e+08	8.611292e+11	0.000000e+00	5.606938e-01	1.630770e+14	4.751224e+14	2.222191e+14	9.457269e+03	4.037559e+03	2.073018e+03	0	3.116379e-04
9.600000e+08	7.912278e+11	0.000000e+00	5.606938e-01	1.621940e+14	4.721785e+14	2.212137e+14	9.449846e+03	4.034917e+03	2.071661e+03	0	3.029666e-04
9.700000e+08	7.221068e+11	0.000000e+00	5.606938e-01	1.613201e+14	4.692780e+14	2.202152e+14	9.442464e+03	4.032304e+03	2.070320e+03	0	2.938741e-04
9.800000e+08	6.537522e+11	0.000000e+00	5.606938e-01	1.604552e+14	4.664198e+14	2.192235e+14	9.435121e+03	4.029722e+03	2.068994e+03	0	2.842924e-04
9.900000e+08	5.861507e+11	0.000000e+00	5.606938e-01	1.595991e+14	4.636028e+14	2.182385e+14	9.427817e+03	4.027170e+03	2.067683e+03	0	2.741347e-04
1.000000e+09	5.192894e+11	0.000000e+00	5.606938e-01	1.587518e+14	4.608258e+14	2.172602e+14	9.420553e+03	4.024646e+03	2.066387e+03	0	2.632877e-04
1.010000e+09	4.531553e+11	0.000000e+00	5.606938e-01	1.579130e+14	4.580878e+14	2.162886e+14	9.413327e+03	4.022149e+03	2.065105e+03	0	2.515996e-04
1.020000e+09	3.877363e+11	0.000000e+00	5.606938e-01	1.570826e+14	4.553879e+14	2.153235e+14	9.406139e+03	4.019680e+03	2.063838e+03	0	2.388579e-04
1.030000e+09	3.230200e+11	0.000000e+00	5.606938e-01	1.562605e+14	4.527251e+14	2.143649e+14	9.398988e+03	4.017237e+03	2.062583e+03	0	2.247522e-04
1.040000e+09	2.589949e+11	0.000000e+00	5.606938e-01	1.554465e+14	4.500983e+14	2.134129e+14	9.391876e+03	4.014820e+03	2.061342e+03	0	2.087972e-04
1.050000e+09	1.956494e+11	0.000000e+00	5.606938e-01	1.546406e+14	4.475068e+14	2.124672e+14	9.384800e+03	4.012428e+03	2.060114e+03	0	1.901605e-04
1.060000e+09	1.329723e+11	0.000000e+00	5.606938e-01	1.538426e+14	4.449497e+14	2.115280e+14	9.377760e+03	4.010061e+03	2.058899e+03	0	1.671916e-04
1.070000e+09	7.095263e+10	0.000000e+00	5.606938e-01	1.530523e+14	4.424261e+14	2.105950e+14	9.370757e+03	4.007718e+03	2.057696e+03	0	1.356075e-04
1.080000e+09	9.579766e+09	0.000000e+00	5.606938e-01	1.522696e+14	4.399352e+14	2.096684e+14	9.363790e+03	4.005398e+03	2.056505e+03	0	6.956847e-05
1.090000e+09	-5.115672e+10	0.000000e+00	5.606938e-01	1.514945e+14	4.374763e+14	2.087480e+14	9.356859e+03	4.003101e+03	2.055325e+03	0	nan
