#t		Qconv[W]	Ri[Rp]		R*[Rp]		Qc[W]		Qm[W]		Qr[W]		Tcmb[K]		Tl[K]		Tup[K]		RiFlag		Bs[T]
0.000000e+00	5.205950e+13	0.000000e+00	5.606936e-01	7.961666e+14	2.774273e+15	4.145225e+14	1.253721e+04	5.663098e+03	2.642668e+03	0	1.212526e-03
1.000000e+07	5.073982e+13	0.000000e+00	5.606936e-01	7.823781e+14	2.648996e+15	4.122257e+14	1.250734e+04	5.622927e+03	2.623922e+03	0	1.202193e-03
2.000000e+07	4.947447e+13	0.000000e+00	5.606936e-01	7.691413e+14	2.535617e+15	4.099461e+14	1.247798e+04	5.585515e+03	2.606464e+03	0	1.192115e-03
3.000000e+07	4.825980e+13	0.000000e+00	5.606936e-01	7.564197e+14	2.432571e+15	4.076836e+14	1.244912e+04	5.550581e+03	2.590162e+03	0	1.182278e-03
4.000000e+07	4.709251e+13	0.000000e+00	5.606936e-01	7.441798e+14	2.338548e+15	4.054379e+14	1.242073e+04	5.517881e+03	2.574902e+03	0	1.172668e-03
5.000000e+07	4.596955e+13	0.000000e+00	5.606936e-01	7.323909e+14	2.252446e+15	4.032090e+14	1.239280e+04	5.487201e+03	2.560586e+03	0	1.163272e-03
6.000000e+07	4.488814e+13	0.000000e+00	5.606936e-01	7.210249e+14	2.173329e+15	4.009968e+14	1.236531e+04	5.458355e+03	2.547125e+03	0	1.154077e-03
7.000000e+07	4.384572e+13	0.000000e+00	5.606936e-01	7.100563e+14	2.100399e+15	3.988009e+14	1.233824e+04	5.431179e+03	2.534443e+03	0	1.145074e-03
8.000000e+07	4.283995e+13	0.000000e+00	5.606936e-01	6.994613e+14	2.032973e+15	3.966215e+14	1.231159e+04	5.405527e+03	2.522473e+03	0	1.136251e-03
9.000000e+07	4.186869e+13	0.000000e+00	5.606936e-01	6.892184e+14	1.970461e+15	3.944582e+14	1.228533e+04	5.381271e+03	2.511154e+03	0	1.127598e-03
1.000000e+08	4.092997e+13	0.000000e+00	5.606936e-01	6.793074e+14	1.912353e+15	3.923110e+14	1.225945e+04	5.358297e+03	2.500433e+03	0	1.119107e-03
1.100000e+08	4.002195e+13	0.000000e+00	5.606936e-01	6.697102e+14	1.858205e+15	3.901797e+14	1.223394e+04	5.336500e+03	2.490262e+03	0	1.110769e-03
1.200000e+08	3.914297e+13	0.000000e+00	5.606936e-01	6.604096e+14	1.807629e+15	3.880642e+14	1.220880e+04	5.315791e+03	2.480598e+03	0	1.102577e-03
1.300000e+08	3.829146e+13	0.000000e+00	5.606936e-01	6.513901e+14	1.760286e+15	3.859644e+14	1.218400e+04	5.296085e+03	2.471402e+03	0	1.094523e-03
1.400000e+08	3.746600e+13	0.000000e+00	5.606936e-01	6.426371e+14	1.715877e+15	3.838801e+14	1.215953e+04	5.277309e+03	2.462640e+03	0	1.086601e-03
1.500000e+08	3.666525e+13	0.000000e+00	5.606936e-01	6.341371e+14	1.674137e+15	3.818112e+14	1.213540e+04	5.259396e+03	2.454281e+03	0	1.078804e-03
1.600000e+08	3.588798e+13	0.000000e+00	5.606936e-01	6.258777e+14	1.634831e+15	3.797576e+14	1.211158e+04	5.242283e+03	2.446296e+03	0	1.071127e-03
1.700000e+08	3.513304e+13	0.000000e+00	5.606936e-01	6.178473e+14	1.597752e+15	3.777192e+14	1.208807e+04	5.225917e+03	2.438658e+03	0	1.063562e-03
1.800000e+08	3.439936e+13	0.000000e+00	5.606936e-01	6.100350e+14	1.562714e+15	3.756958e+14	1.206487e+04	5.210245e+03	2.431345e+03	0	1.056107e-03
1.900000e+08	3.368595e+13	0.000000e+00	5.606936e-01	6.024308e+14	1.529551e+15	3.736873e+14	1.204195e+04	5.195223e+03	2.424335e+03	0	1.048755e-03
2.000000e+08	3.299187e+13	0.000000e+00	5.606936e-01	5.950251e+14	1.498113e+15	3.716935e+14	1.201932e+04	5.180808e+03	2.417608e+03	0	1.041502e-03
2.100000e+08	3.231626e+13	0.000000e+00	5.606936e-01	5.878094e+14	1.468268e+15	3.697145e+14	1.199697e+04	5.166961e+03	2.411147e+03	0	1.034344e-03
2.200000e+08	3.165831e+13	0.000000e+00	5.606936e-01	5.807752e+14	1.439893e+15	3.677499e+14	1.197489e+04	5.153647e+03	2.404934e+03	0	1.027276e-03
2.300000e+08	3.101725e+13	0.000000e+00	5.606936e-01	5.739148e+14	1.412881e+15	3.657998e+14	1.195307e+04	5.140833e+03	2.398954e+03	0	1.020294e-03
2.400000e+08	3.039236e+13	0.000000e+00	5.606936e-01	5.672211e+14	1.387132e+15	3.638640e+14	1.193150e+04	5.128489e+03	2.393194e+03	0	1.013396e-03
2.500000e+08	2.978298e+13	0.000000e+00	5.606936e-01	5.606871e+14	1.362556e+15	3.619424e+14	1.191019e+04	5.116587e+03	2.387640e+03	0	1.006577e-03
2.600000e+08	2.918848e+13	0.000000e+00	5.606936e-01	5.543065e+14	1.339073e+15	3.600348e+14	1.188912e+04	5.105102e+03	2.382281e+03	0	9.998348e-04
2.700000e+08	2.860825e+13	0.000000e+00	5.606936e-01	5.480732e+14	1.316607e+15	3.581412e+14	1.186829e+04	5.094011e+03	2.377105e+03	0	9.931653e-04
2.800000e+08	2.804174e+13	0.000000e+00	5.606936e-01	5.419815e+14	1.295091e+15	3.562614e+14	1.184770e+04	5.083290e+03	2.372102e+03	0	9.865659e-04
2.900000e+08	2.748842e+13	0.000000e+00	5.606936e-01	5.360261e+14	1.274464e+15	3.543953e+14	1.182733e+04	5.072920e+03	2.367263e+03	0	9.800338e-04
3.000000e+08	2.694779e+13	0.000000e+00	5.606936e-01	5.302018e+14	1.254667e+15	3.525428e+14	1.180719e+04	5.062882e+03	2.362578e+03	0	9.735662e-04
3.100000e+08	2.641938e+13	0.000000e+00	5.606936e-01	5.245039e+14	1.235650e+15	3.507038e+14	1.178726e+04	5.053157e+03	2.358040e+03	0	9.671607e-04
3.200000e+08	2.590273e+13	0.000000e+00	5.606936e-01	5.189278e+14	1.217363e+15	3.488782e+14	1.176755e+04	5.043730e+03	2.353641e+03	0	9.608147e-04
3.300000e+08	2.539744e+13	0.000000e+00	5.606936e-01	5.134691e+14	1.199763e+15	3.470659e+14	1.174804e+04	5.034585e+03	2.349374e+03	0	9.545259e-04
3.400000e+08	2.490308e+13	0.000000e+00	5.606936e-01	5.081239e+14	1.182810e+15	3.452667e+14	1.172875e+04	5.025708e+03	2.345232e+03	0	9.482921e-04
3.500000e+08	2.441929e+13	0.000000e+00	5.606936e-01	5.028881e+14	1.166465e+15	3.434806e+14	1.170965e+04	5.017086e+03	2.341208e+03	0	9.421111e-04
3.600000e+08	2.394570e+13	0.000000e+00	5.606936e-01	4.977581e+14	1.150694e+15	3.417075e+14	1.169074e+04	5.008705e+03	2.337297e+03	0	9.359808e-04
3.700000e+08	2.348196e+13	0.000000e+00	5.606936e-01	4.927305e+14	1.135465e+15	3.399471e+14	1.167203e+04	5.000555e+03	2.333494e+03	0	9.298993e-04
3.800000e+08	2.302776e+13	0.000000e+00	5.606936e-01	4.878018e+14	1.120748e+15	3.381996e+14	1.165351e+04	4.992624e+03	2.329793e+03	0	9.238646e-04
3.900000e+08	2.258277e+13	0.000000e+00	5.606936e-01	4.829688e+14	1.106514e+15	3.364646e+14	1.163517e+04	4.984901e+03	2.326189e+03	0	9.178749e-04
4.000000e+08	2.214670e+13	0.000000e+00	5.606936e-01	4.782286e+14	1.092739e+15	3.347422e+14	1.161702e+04	4.977378e+03	2.322678e+03	0	9.119284e-04
4.100000e+08	2.171926e+13	0.000000e+00	5.606936e-01	4.735782e+14	1.079399e+15	3.330322e+14	1.159904e+04	4.970045e+03	2.319256e+03	0	9.060235e-04
4.200000e+08	2.130019e+13	0.000000e+00	5.606936e-01	4.690149e+14	1.066470e+15	3.313345e+14	1.158123e+04	4.962893e+03	2.315919e+03	0	9.001584e-04
4.300000e+08	2.088923e+13	0.000000e+00	5.606936e-01	4.645360e+14	1.053933e+15	3.296491e+14	1.156360e+04	4.955914e+03	2.312662e+03	0	8.943316e-04
4.400000e+08	2.048613e+13	0.000000e+00	5.606936e-01	4.601391e+14	1.041767e+15	3.279757e+14	1.154613e+04	4.949102e+03	2.309483e+03	0	8.885415e-04
4.500000e+08	2.009065e+13	0.000000e+00	5.606936e-01	4.558216e+14	1.029955e+15	3.263144e+14	1.152883e+04	4.942447e+03	2.306378e+03	0	8.827867e-04
4.600000e+08	1.970257e+13	0.000000e+00	5.606936e-01	4.515813e+14	1.018480e+15	3.246651e+14	1.151169e+04	4.935945e+03	2.303344e+03	0	8.770656e-04
4.700000e+08	1.932167e+13	0.000000e+00	5.606936e-01	4.474159e+14	1.007326e+15	3.230275e+14	1.149471e+04	4.929588e+03	2.300377e+03	0	8.713768e-04
4.800000e+08	1.894775e+13	0.000000e+00	5.606936e-01	4.433234e+14	9.964767e+14	3.214017e+14	1.147789e+04	4.923370e+03	2.297476e+03	0	8.657191e-04
4.900000e+08	1.858060e+13	0.000000e+00	5.606936e-01	4.393016e+14	9.859196e+14	3.197876e+14	1.146122e+04	4.917286e+03	2.294636e+03	0	8.600909e-04
5.000000e+08	1.822004e+13	0.000000e+00	5.606936e-01	4.353488e+14	9.756411e+14	3.181849e+14	1.144470e+04	4.911329e+03	2.291857e+03	0	8.544911e-04
5.100000e+08	1.786588e+13	0.000000e+00	5.606936e-01	4.314628e+14	9.656287e+14	3.165937e+14	1.142833e+04	4.905496e+03	2.289135e+03	0	8.489183e-04
5.200000e+08	1.751794e+13	0.000000e+00	5.606936e-01	4.276421e+14	9.558709e+14	3.150139e+14	1.141210e+04	4.899781e+03	2.286468e+03	0	8.433713e-04
5.300000e+08	1.717607e+13	0.000000e+00	5.606936e-01	4.238847e+14	9.463568e+14	3.134454e+14	1.139602e+04	4.894180e+03	2.283854e+03	0	8.378488e-04
5.400000e+08	1.684008e+13	0.000000e+00	5.606936e-01	4.201892e+14	9.370758e+14	3.118880e+14	1.138008e+04	4.888687e+03	2.281291e+03	0	8.323497e-04
5.500000e+08	1.650984e+13	0.000000e+00	5.606936e-01	4.165538e+14	9.280184e+14	3.103417e+14	1.136428e+04	4.883300e+03	2.278777e+03	0	8.268729e-04
5.600000e+08	1.618519e+13	0.000000e+00	5.606936e-01	4.129770e+14	9.191754e+14	3.088064e+14	1.134861e+04	4.878013e+03	2.276310e+03	0	8.214170e-04
5.700000e+08	1.586598e+13	0.000000e+00	5.606936e-01	4.094573e+14	9.105379e+14	3.072820e+14	1.133308e+04	4.872824e+03	2.273889e+03	0	8.159810e-04
5.800000e+08	1.555207e+13	0.000000e+00	5.606936e-01	4.059933e+14	9.020979e+14	3.057684e+14	1.131768e+04	4.867729e+03	2.271511e+03	0	8.105638e-04
5.900000e+08	1.524334e+13	0.000000e+00	5.606936e-01	4.025836e+14	8.938475e+14	3.042655e+14	1.130241e+04	4.862724e+03	2.269175e+03	0	8.051643e-04
6.000000e+08	1.493965e+13	0.000000e+00	5.606936e-01	3.992269e+14	8.857795e+14	3.027733e+14	1.128726e+04	4.857805e+03	2.266880e+03	0	7.997813e-04
6.100000e+08	1.464087e+13	0.000000e+00	5.606936e-01	3.959220e+14	8.778867e+14	3.012916e+14	1.127225e+04	4.852971e+03	2.264624e+03	0	7.944138e-04
6.200000e+08	1.434689e+13	0.000000e+00	5.606936e-01	3.926674e+14	8.701627e+14	2.998204e+14	1.125736e+04	4.848218e+03	2.262406e+03	0	7.890607e-04
6.300000e+08	1.405759e+13	0.000000e+00	5.606936e-01	3.894621e+14	8.626011e+14	2.983596e+14	1.124258e+04	4.843543e+03	2.260225e+03	0	7.837209e-04
6.400000e+08	1.377286e+13	0.000000e+00	5.606936e-01	3.863049e+14	8.551961e+14	2.969091e+14	1.122793e+04	4.838944e+03	2.258079e+03	0	7.783934e-04
6.500000e+08	1.349259e+13	0.000000e+00	5.606936e-01	3.831947e+14	8.479419e+14	2.954688e+14	1.121340e+04	4.834418e+03	2.255966e+03	0	7.730771e-04
6.600000e+08	1.321667e+13	0.000000e+00	5.606936e-01	3.801304e+14	8.408332e+14	2.940387e+14	1.119899e+04	4.829962e+03	2.253887e+03	0	7.677711e-04
6.700000e+08	1.294500e+13	0.000000e+00	5.606936e-01	3.771109e+14	8.338648e+14	2.926186e+14	1.118469e+04	4.825575e+03	2.251840e+03	0	7.624741e-04
6.800000e+08	1.267749e+13	0.000000e+00	5.606936e-01	3.741353e+14	8.270320e+14	2.912085e+14	1.117050e+04	4.821253e+03	2.249823e+03	0	7.571853e-04
6.900000e+08	1.241403e+13	0.000000e+00	5.606936e-01	3.712025e+14	8.203301e+14	2.898082e+14	1.115642e+04	4.816996e+03	2.247836e+03	0	7.519034e-04
7.000000e+08	1.215455e+13	0.000000e+00	5.606936e-01	3.683116e+14	8.137546e+14	2.884178e+14	1.114246e+04	4.812800e+03	2.245878e+03	0	7.466276e-04
7.100000e+08	1.189894e+13	0.000000e+00	5.606936e-01	3.654617e+14	8.073015e+14	2.870371e+14	1.112860e+04	4.808664e+03	2.243949e+03	0	7.413567e-04
7.200000e+08	1.164713e+13	0.000000e+00	5.606936e-01	3.626519e+14	8.009666e+14	2.856661e+14	1.111485e+04	4.804586e+03	2.242046e+03	0	7.360896e-04
7.300000e+08	1.139902e+13	0.000000e+00	5.606936e-01	3.598813e+14	7.947461e+14	2.843046e+14	1.110121e+04	4.800565e+03	2.240169e+03	0	7.308254e-04
7.400000e+08	1.115454e+13	0.000000e+00	5.606936e-01	3.571492e+14	7.886365e+14	2.829527e+14	1.108767e+04	4.796598e+03	2.238318e+03	0	7.255628e-04
7.500000e+08	1.091362e+13	0.000000e+00	5.606936e-01	3.544546e+14	7.826342e+14	2.816102e+14	1.107423e+04	4.792684e+03	2.236492e+03	0	7.203010e-04
7.600000e+08	1.067616e+13	0.000000e+00	5.606936e-01	3.517968e+14	7.767358e+14	2.802770e+14	1.106089e+04	4.788822e+03	2.234689e+03	0	7.150386e-04
7.700000e+08	1.044211e+13	0.000000e+00	5.606936e-01	3.491750e+14	7.709382e+14	2.789531e+14	1.104766e+04	4.785009e+03	2.232910e+03	0	7.097747e-04
7.800000e+08	1.021138e+13	0.000000e+00	5.606936e-01	3.465885e+14	7.652384e+14	2.776384e+14	1.103452e+04	4.781245e+03	2.231153e+03	0	7.045080e-04
7.900000e+08	9.983915e+12	0.000000e+00	5.606936e-01	3.440366e+14	7.596333e+14	2.763329e+14	1.102148e+04	4.777528e+03	2.229419e+03	0	6.992375e-04
8.000000e+08	9.759639e+12	0.000000e+00	5.606936e-01	3.415186e+14	7.541203e+14	2.750364e+14	1.100853e+04	4.773856e+03	2.227706e+03	0	6.939620e-04
8.100000e+08	9.538489e+12	0.000000e+00	5.606936e-01	3.390337e+14	7.486966e+14	2.737488e+14	1.099568e+04	4.770229e+03	2.226013e+03	0	6.886803e-04
8.200000e+08	9.320400e+12	0.000000e+00	5.606936e-01	3.365813e+14	7.433597e+14	2.724702e+14	1.098292e+04	4.766645e+03	2.224340e+03	0	6.833911e-04
8.300000e+08	9.105312e+12	0.000000e+00	5.606936e-01	3.341609e+14	7.381071e+14	2.712004e+14	1.097026e+04	4.763103e+03	2.222688e+03	0	6.780932e-04
8.400000e+08	8.893163e+12	0.000000e+00	5.606936e-01	3.317717e+14	7.329365e+14	2.699394e+14	1.095768e+04	4.759602e+03	2.221054e+03	0	6.727853e-04
8.500000e+08	8.683895e+12	0.000000e+00	5.606936e-01	3.294131e+14	7.278455e+14	2.686871e+14	1.094520e+04	4.756141e+03	2.219439e+03	0	6.674662e-04
8.600000e+08	8.477452e+12	0.000000e+00	5.606936e-01	3.270846e+14	7.228320e+14	2.674435e+14	1.093280e+04	4.752718e+03	2.217842e+03	0	6.621345e-04
8.700000e+08	8.273778e+12	0.000000e+00	5.606936e-01	3.247856e+14	7.178940e+14	2.662084e+14	1.092049e+04	4.749334e+03	2.216262e+03	0	6.567888e-04
8.800000e+08	8.072818e+12	0.000000e+00	5.606936e-01	3.225155e+14	7.130293e+14	2.649818e+14	1.090827e+04	4.745985e+03	2.214700e+03	0	6.514276e-04
8.900000e+08	7.874522e+12	0.000000e+00	5.606936e-01	3.202737e+14	7.082361e+14	2.637636e+14	1.089613e+04	4.742673e+03	2.213154e+03	0	6.460496e-04
9.000000e+08	7.678837e+12	0.000000e+00	5.606936e-01	3.180599e+14	7.035125e+14	2.625538e+14	1.088408e+04	4.739396e+03	2.211625e+03	0	6.406531e-04
9.100000e+08	7.485714e+12	0.000000e+00	5.606936e-01	3.158733e+14	6.988567e+14	2.613522e+14	1.087211e+04	4.736152e+03	2.210111e+03	0	6.352366e-04
9.200000e+08	7.295104e+12	0.000000e+00	5.606936e-01	3.137136e+14	6.942670e+14	2.601589e+14	1.086022e+04	4.732942e+03	2.208613e+03	0	6.297985e-04
9.300000e+08	7.106961e+12	0.000000e+00	5.606936e-01	3.115802e+14	6.897417e+14	2.589738e+14	1.084841e+04	4.729764e+03	2.207130e+03	0	6.243370e-04
9.400000e+08	6.921238e+12	0.000000e+00	5.606936e-01	3.094726e+14	6.852793e+14	2.577968e+14	1.083668e+04	4.726618e+03	2.205662e+03	0	6.188504e-04
9.500000e+08	6.737891e+12	0.000000e+00	5.606936e-01	3.073904e+14	6.808781e+14	2.566277e+14	1.082503e+04	4.723503e+03	2.204208e+03	0	6.133369e-04
9.600000e+08	6.556876e+12	0.000000e+00	5.606936e-01	3.053332e+14	6.765368e+14	2.554667e+14	1.081346e+04	4.720418e+03	2.202769e+03	0	6.077945e-04
9.700000e+08	6.378151e+12	0.000000e+00	5.606936e-01	3.033004e+14	6.722538e+14	2.543136e+14	1.080197e+04	4.717362e+03	2.201343e+03	0	6.022212e-04
9.800000e+08	6.201673e+12	0.000000e+00	5.606936e-01	3.012917e+14	6.680278e+14	2.531683e+14	1.079056e+04	4.714335e+03	2.199930e+03	0	5.966149e-04
9.900000e+08	6.027403e+12	0.000000e+00	5.606936e-01	2.993067e+14	6.638575e+14	2.520308e+14	1.077922e+04	4.711336e+03	2.198531e+03	0	5.909733e-04
1.000000e+09	5.855302e+12	0.000000e+00	5.606936e-01	2.973448e+14	6.597416e+14	2.509010e+14	1.076795e+04	4.708364e+03	2.197144e+03	0	5.852942e-04
1.010000e+09	5.685329e+12	0.000000e+00	5.606936e-01	2.954058e+14	6.556787e+14	2.497789e+14	1.075676e+04	4.705419e+03	2.195770e+03	0	5.795750e-04
1.020000e+09	5.517449e+12	0.000000e+00	5.606936e-01	2.934892e+14	6.516678e+14	2.486644e+14	1.074564e+04	4.702501e+03	2.194408e+03	0	5.738132e-04
1.030000e+09	5.351624e+12	0.000000e+00	5.606936e-01	2.915946e+14	6.477077e+14	2.475575e+14	1.073459e+04	4.699608e+03	2.193058e+03	0	5.680061e-04
1.040000e+09	5.187819e+12	0.000000e+00	5.606936e-01	2.897217e+14	6.437972e+14	2.464580e+14	1.072361e+04	4.696741e+03	2.191720e+03	0	5.621506e-04
1.050000e+09	5.025998e+12	0.000000e+00	5.606936e-01	2.878701e+14	6.399352e+14	2.453659e+14	1.071271e+04	4.693897e+03	2.190393e+03	0	5.562438e-04
1.060000e+09	4.866127e+12	0.000000e+00	5.606936e-01	2.860394e+14	6.361208e+14	2.442812e+14	1.070187e+04	4.691078e+03	2.189078e+03	0	5.502824e-04
1.070000e+09	4.708174e+12	0.000000e+00	5.606936e-01	2.842294e+14	6.323528e+14	2.432038e+14	1.069110e+04	4.688283e+03	2.187773e+03	0	5.442627e-04
1.080000e+09	4.552105e+12	0.000000e+00	5.606936e-01	2.824395e+14	6.286304e+14	2.421337e+14	1.068040e+04	4.685511e+03	2.186479e+03	0	5.381812e-04
1.090000e+09	4.397888e+12	0.000000e+00	5.606936e-01	2.806696e+14	6.249524e+14	2.410707e+14	1.066977e+04	4.682761e+03	2.185196e+03	0	5.320337e-04
1.100000e+09	4.245493e+12	0.000000e+00	5.606936e-01	2.789193e+14	6.213181e+14	2.400149e+14	1.065920e+04	4.680033e+03	2.183923e+03	0	5.258160e-04
1.110000e+09	4.094889e+12	0.000000e+00	5.606936e-01	2.771883e+14	6.177265e+14	2.389662e+14	1.064870e+04	4.677327e+03	2.182661e+03	0	5.195234e-04
1.120000e+09	3.946046e+12	0.000000e+00	5.606936e-01	2.754762e+14	6.141768e+14	2.379245e+14	1.063827e+04	4.674643e+03	2.181408e+03	0	5.131510e-04
1.130000e+09	3.798936e+12	0.000000e+00	5.606936e-01	2.737828e+14	6.106681e+14	2.368898e+14	1.062790e+04	4.671979e+03	2.180165e+03	0	5.066932e-04
1.140000e+09	3.653530e+12	0.000000e+00	5.606936e-01	2.721078e+14	6.071996e+14	2.358620e+14	1.061759e+04	4.669336e+03	2.178931e+03	0	5.001443e-04
1.150000e+09	3.509799e+12	0.000000e+00	5.606936e-01	2.704508e+14	6.037705e+14	2.348410e+14	1.060734e+04	4.666713e+03	2.177707e+03	0	4.934978e-04
1.160000e+09	3.367718e+12	0.000000e+00	5.606936e-01	2.688116e+14	6.003800e+14	2.338269e+14	1.059716e+04	4.664109e+03	2.176493e+03	0	4.867467e-04
1.170000e+09	3.227259e+12	0.000000e+00	5.606936e-01	2.671899e+14	5.970275e+14	2.328195e+14	1.058704e+04	4.661525e+03	2.175287e+03	0	4.798834e-04
1.180000e+09	3.088396e+12	0.000000e+00	5.606936e-01	2.655854e+14	5.937121e+14	2.318188e+14	1.057698e+04	4.658960e+03	2.174090e+03	0	4.728994e-04
1.190000e+09	2.951104e+12	0.000000e+00	5.606936e-01	2.639979e+14	5.904331e+14	2.308248e+14	1.056698e+04	4.656414e+03	2.172901e+03	0	4.657855e-04
1.200000e+09	2.815358e+12	0.000000e+00	5.606936e-01	2.624271e+14	5.871900e+14	2.298373e+14	1.055704e+04	4.653886e+03	2.171722e+03	0	4.585313e-04
1.210000e+09	2.681133e+12	0.000000e+00	5.606936e-01	2.608727e+14	5.839820e+14	2.288565e+14	1.054716e+04	4.651375e+03	2.170550e+03	0	4.511253e-04
1.220000e+09	2.548406e+12	0.000000e+00	5.606936e-01	2.593345e+14	5.808084e+14	2.278821e+14	1.053734e+04	4.648883e+03	2.169387e+03	0	4.435548e-04
1.230000e+09	2.417153e+12	0.000000e+00	5.606936e-01	2.578123e+14	5.776687e+14	2.269141e+14	1.052758e+04	4.646408e+03	2.168232e+03	0	4.358053e-04
1.240000e+09	2.287352e+12	0.000000e+00	5.606936e-01	2.563058e+14	5.745622e+14	2.259526e+14	1.051787e+04	4.643949e+03	2.167085e+03	0	4.278604e-04
1.250000e+09	2.158979e+12	0.000000e+00	5.606936e-01	2.548147e+14	5.714883e+14	2.249974e+14	1.050822e+04	4.641508e+03	2.165946e+03	0	4.197016e-04
1.260000e+09	2.032014e+12	0.000000e+00	5.606936e-01	2.533389e+14	5.684466e+14	2.240485e+14	1.049862e+04	4.639083e+03	2.164814e+03	0	4.113075e-04
1.270000e+09	1.906434e+12	0.000000e+00	5.606936e-01	2.518781e+14	5.654363e+14	2.231059e+14	1.048908e+04	4.636674e+03	2.163690e+03	0	4.026537e-04
1.280000e+09	1.782218e+12	0.000000e+00	5.606936e-01	2.504321e+14	5.624570e+14	2.221694e+14	1.047960e+04	4.634282e+03	2.162573e+03	0	3.937115e-04
1.290000e+09	1.659347e+12	0.000000e+00	5.606936e-01	2.490006e+14	5.595080e+14	2.212392e+14	1.047017e+04	4.631904e+03	2.161464e+03	0	3.844473e-04
1.300000e+09	1.537799e+12	0.000000e+00	5.606936e-01	2.475835e+14	5.565890e+14	2.203150e+14	1.046079e+04	4.629543e+03	2.160362e+03	0	3.748213e-04
1.310000e+09	1.417554e+12	0.000000e+00	5.606936e-01	2.461806e+14	5.536994e+14	2.193968e+14	1.045147e+04	4.627196e+03	2.159267e+03	0	3.647856e-04
1.320000e+09	1.298594e+12	0.000000e+00	5.606936e-01	2.447916e+14	5.508387e+14	2.184847e+14	1.044220e+04	4.624865e+03	2.158179e+03	0	3.542819e-04
1.330000e+09	1.180899e+12	0.000000e+00	5.606936e-01	2.434163e+14	5.480064e+14	2.175786e+14	1.043298e+04	4.622548e+03	2.157098e+03	0	3.432380e-04
1.340000e+09	1.064451e+12	0.000000e+00	5.606936e-01	2.420546e+14	5.452021e+14	2.166784e+14	1.042382e+04	4.620245e+03	2.156024e+03	0	3.315632e-04
1.350000e+09	9.492308e+11	0.000000e+00	5.606936e-01	2.407063e+14	5.424252e+14	2.157840e+14	1.041470e+04	4.617957e+03	2.154956e+03	0	3.191403e-04
1.360000e+09	8.352210e+11	0.000000e+00	5.606936e-01	2.393711e+14	5.396755e+14	2.148955e+14	1.040564e+04	4.615683e+03	2.153895e+03	0	3.058146e-04
