#t		Qconv[W]	Ri[Rp]		R*[Rp]		Qc[W]		Qm[W]		Qr[W]		Tcmb[K]		Tl[K]		Tup[K]		RiFlag		Bs[T]
0.000000e+00	5.845486e+13	0.000000e+00	5.606935e-01	8.916328e+14	2.841586e+15	4.365777e+14	1.305695e+04	5.824421e+03	2.665148e+03	0	1.257836e-03
1.000000e+07	5.698715e+13	0.000000e+00	5.606935e-01	8.766816e+14	2.723860e+15	4.341588e+14	1.302586e+04	5.787153e+03	2.648094e+03	0	1.247219e-03
2.000000e+07	5.557725e+13	0.000000e+00	5.606935e-01	8.623016e+14	2.616643e+15	4.317579e+14	1.299529e+04	5.752318e+03	2.632155e+03	0	1.236848e-03
3.000000e+07	5.422141e+13	0.000000e+00	5.606935e-01	8.484560e+14	2.518625e+15	4.293750e+14	1.296522e+04	5.719679e+03	2.617220e+03	0	1.226707e-03
4.000000e+07	5.291620e+13	0.000000e+00	5.606935e-01	8.351114e+14	2.428701e+15	4.270098e+14	1.293562e+04	5.689031e+03	2.603196e+03	0	1.216784e-03
5.000000e+07	5.165849e+13	0.000000e+00	5.606935e-01	8.222371e+14	2.345929e+15	4.246624e+14	1.290650e+04	5.660190e+03	2.589998e+03	0	1.207066e-03
6.000000e+07	5.044541e+13	0.000000e+00	5.606935e-01	8.098049e+14	2.269505e+15	4.223324e+14	1.287781e+04	5.632996e+03	2.577555e+03	0	1.197543e-03
7.000000e+07	4.927431e+13	0.000000e+00	5.606935e-01	7.977889e+14	2.198739e+15	4.200197e+14	1.284956e+04	5.607309e+03	2.565801e+03	0	1.188203e-03
8.000000e+07	4.814277e+13	0.000000e+00	5.606935e-01	7.861654e+14	2.133033e+15	4.177243e+14	1.282173e+04	5.583001e+03	2.554678e+03	0	1.179037e-03
9.000000e+07	4.704856e+13	0.000000e+00	5.606935e-01	7.749125e+14	2.071869e+15	4.154459e+14	1.279430e+04	5.559961e+03	2.544136e+03	0	1.170036e-03
1.000000e+08	4.598963e+13	0.000000e+00	5.606935e-01	7.640099e+14	2.014796e+15	4.131844e+14	1.276727e+04	5.538088e+03	2.534127e+03	0	1.161192e-03
1.100000e+08	4.496407e+13	0.000000e+00	5.606935e-01	7.534391e+14	1.961419e+15	4.109397e+14	1.274061e+04	5.517291e+03	2.524611e+03	0	1.152495e-03
1.200000e+08	4.397013e+13	0.000000e+00	5.606935e-01	7.431829e+14	1.911392e+15	4.087117e+14	1.271431e+04	5.497490e+03	2.515550e+03	0	1.143940e-03
1.300000e+08	4.300618e+13	0.000000e+00	5.606935e-01	7.332251e+14	1.864407e+15	4.065001e+14	1.268838e+04	5.478611e+03	2.506912e+03	0	1.135518e-03
1.400000e+08	4.207071e+13	0.000000e+00	5.606935e-01	7.235510e+14	1.820195e+15	4.043050e+14	1.266279e+04	5.460589e+03	2.498665e+03	0	1.127225e-03
1.500000e+08	4.116233e+13	0.000000e+00	5.606935e-01	7.141469e+14	1.778514e+15	4.021260e+14	1.263754e+04	5.443362e+03	2.490782e+03	0	1.119053e-03
1.600000e+08	4.027972e+13	0.000000e+00	5.606935e-01	7.049999e+14	1.739153e+15	3.999632e+14	1.261261e+04	5.426875e+03	2.483238e+03	0	1.110997e-03
1.700000e+08	3.942167e+13	0.000000e+00	5.606935e-01	6.960980e+14	1.701918e+15	3.978163e+14	1.258801e+04	5.411080e+03	2.476011e+03	0	1.103051e-03
1.800000e+08	3.858706e+13	0.000000e+00	5.606935e-01	6.874301e+14	1.666640e+15	3.956852e+14	1.256371e+04	5.395931e+03	2.469078e+03	0	1.095211e-03
1.900000e+08	3.777482e+13	0.000000e+00	5.606935e-01	6.789858e+14	1.633164e+15	3.935698e+14	1.253971e+04	5.381385e+03	2.462423e+03	0	1.087472e-03
2.000000e+08	3.698396e+13	0.000000e+00	5.606935e-01	6.707554e+14	1.601353e+15	3.914700e+14	1.251601e+04	5.367405e+03	2.456025e+03	0	1.079829e-03
2.100000e+08	3.621355e+13	0.000000e+00	5.606935e-01	6.627296e+14	1.571081e+15	3.893856e+14	1.249259e+04	5.353955e+03	2.449871e+03	0	1.072278e-03
2.200000e+08	3.546273e+13	0.000000e+00	5.606935e-01	6.548998e+14	1.542236e+15	3.873166e+14	1.246945e+04	5.341003e+03	2.443945e+03	0	1.064816e-03
2.300000e+08	3.473067e+13	0.000000e+00	5.606935e-01	6.472582e+14	1.514715e+15	3.852627e+14	1.244659e+04	5.328520e+03	2.438233e+03	0	1.057438e-03
2.400000e+08	3.401662e+13	0.000000e+00	5.606935e-01	6.397970e+14	1.488426e+15	3.832239e+14	1.242399e+04	5.316477e+03	2.432722e+03	0	1.050141e-03
2.500000e+08	3.331984e+13	0.000000e+00	5.606935e-01	6.325091e+14	1.463284e+15	3.812000e+14	1.240165e+04	5.304850e+03	2.427402e+03	0	1.042921e-03
2.600000e+08	3.263965e+13	0.000000e+00	5.606935e-01	6.253878e+14	1.439211e+15	3.791909e+14	1.237956e+04	5.293615e+03	2.422261e+03	0	1.035776e-03
2.700000e+08	3.197542e+13	0.000000e+00	5.606935e-01	6.184268e+14	1.416138e+15	3.771966e+14	1.235773e+04	5.282749e+03	2.417289e+03	0	1.028701e-03
2.800000e+08	3.132653e+13	0.000000e+00	5.606935e-01	6.116200e+14	1.394000e+15	3.752167e+14	1.233613e+04	5.272234e+03	2.412477e+03	0	1.021695e-03
2.900000e+08	3.069242e+13	0.000000e+00	5.606935e-01	6.049618e+14	1.372737e+15	3.732514e+14	1.231477e+04	5.262049e+03	2.407817e+03	0	1.014754e-03
3.000000e+08	3.007253e+13	0.000000e+00	5.606935e-01	5.984468e+14	1.352296e+15	3.713003e+14	1.229364e+04	5.252177e+03	2.403300e+03	0	1.007876e-03
3.100000e+08	2.946636e+13	0.000000e+00	5.606935e-01	5.920699e+14	1.332626e+15	3.693635e+14	1.227274e+04	5.242603e+03	2.398918e+03	0	1.001058e-03
3.200000e+08	2.887342e+13	0.000000e+00	5.606935e-01	5.858263e+14	1.313681e+15	3.674408e+14	1.225207e+04	5.233310e+03	2.394666e+03	0	9.942982e-04
3.300000e+08	2.829325e+13	0.000000e+00	5.606935e-01	5.797114e+14	1.295419e+15	3.655320e+14	1.223160e+04	5.224285e+03	2.390536e+03	0	9.875933e-04
3.400000e+08	2.772540e+13	0.000000e+00	5.606935e-01	5.737209e+14	1.277800e+15	3.636371e+14	1.221136e+04	5.215514e+03	2.386523e+03	0	9.809416e-04
3.500000e+08	2.716945e+13	0.000000e+00	5.606935e-01	5.678505e+14	1.260788e+15	3.617560e+14	1.219132e+04	5.206984e+03	2.382620e+03	0	9.743408e-04
3.600000e+08	2.662503e+13	0.000000e+00	5.606935e-01	5.620965e+14	1.244350e+15	3.598885e+14	1.217148e+04	5.198684e+03	2.378822e+03	0	9.677888e-04
3.700000e+08	2.609173e+13	0.000000e+00	5.606935e-01	5.564550e+14	1.228454e+15	3.580345e+14	1.215185e+04	5.190604e+03	2.375125e+03	0	9.612836e-04
3.800000e+08	2.556921e+13	0.000000e+00	5.606935e-01	5.509225e+14	1.213071e+15	3.561939e+14	1.213241e+04	5.182732e+03	2.371523e+03	0	9.548233e-04
3.900000e+08	2.505712e+13	0.000000e+00	5.606935e-01	5.454955e+14	1.198174e+15	3.543667e+14	1.211316e+04	5.175060e+03	2.368012e+03	0	9.484060e-04
4.000000e+08	2.455513e+13	0.000000e+00	5.606935e-01	5.401707e+14	1.183738e+15	3.525526e+14	1.209410e+04	5.167577e+03	2.364588e+03	0	9.420298e-04
4.100000e+08	2.406293e+13	0.000000e+00	5.606935e-01	5.349452e+14	1.169740e+15	3.507516e+14	1.207523e+04	5.160276e+03	2.361247e+03	0	9.356931e-04
4.200000e+08	2.358023e+13	0.000000e+00	5.606935e-01	5.298158e+14	1.156158e+15	3.489636e+14	1.205654e+04	5.153148e+03	2.357986e+03	0	9.293940e-04
4.300000e+08	2.310672e+13	0.000000e+00	5.606935e-01	5.247799e+14	1.142971e+15	3.471885e+14	1.203803e+04	5.146186e+03	2.354800e+03	0	9.231310e-04
4.400000e+08	2.264215e+13	0.000000e+00	5.606935e-01	5.198345e+14	1.130160e+15	3.454262e+14	1.201970e+04	5.139383e+03	2.351687e+03	0	9.169024e-04
4.500000e+08	2.218625e+13	0.000000e+00	5.606935e-01	5.149772e+14	1.117707e+15	3.436765e+14	1.200153e+04	5.132732e+03	2.348643e+03	0	9.107067e-04
4.600000e+08	2.173876e+13	0.000000e+00	5.606935e-01	5.102054e+14	1.105596e+15	3.419393e+14	1.198354e+04	5.126226e+03	2.345667e+03	0	9.045422e-04
4.700000e+08	2.129945e+13	0.000000e+00	5.606935e-01	5.055167e+14	1.093811e+15	3.402147e+14	1.196571e+04	5.119860e+03	2.342754e+03	0	8.984076e-04
4.800000e+08	2.086809e+13	0.000000e+00	5.606935e-01	5.009088e+14	1.082337e+15	3.385024e+14	1.194805e+04	5.113627e+03	2.339902e+03	0	8.923012e-04
4.900000e+08	2.044446e+13	0.000000e+00	5.606935e-01	4.963796e+14	1.071161e+15	3.368023e+14	1.193054e+04	5.107523e+03	2.337109e+03	0	8.862218e-04
5.000000e+08	2.002834e+13	0.000000e+00	5.606935e-01	4.919269e+14	1.060268e+15	3.351144e+14	1.191320e+04	5.101543e+03	2.334372e+03	0	8.801679e-04
5.100000e+08	1.961952e+13	0.000000e+00	5.606935e-01	4.875486e+14	1.049647e+15	3.334386e+14	1.189601e+04	5.095680e+03	2.331689e+03	0	8.741381e-04
5.200000e+08	1.921782e+13	0.000000e+00	5.606935e-01	4.832428e+14	1.039287e+15	3.317747e+14	1.187897e+04	5.089932e+03	2.329059e+03	0	8.681310e-04
5.300000e+08	1.882304e+13	0.000000e+00	5.606935e-01	4.790077e+14	1.029176e+15	3.301227e+14	1.186208e+04	5.084293e+03	2.326479e+03	0	8.621454e-04
5.400000e+08	1.843500e+13	0.000000e+00	5.606935e-01	4.748413e+14	1.019305e+15	3.284824e+14	1.184534e+04	5.078759e+03	2.323946e+03	0	8.561798e-04
5.500000e+08	1.805353e+13	0.000000e+00	5.606935e-01	4.707419e+14	1.009663e+15	3.268539e+14	1.182874e+04	5.073327e+03	2.321461e+03	0	8.502330e-04
5.600000e+08	1.767846e+13	0.000000e+00	5.606935e-01	4.667079e+14	1.000241e+15	3.252369e+14	1.181229e+04	5.067992e+03	2.319020e+03	0	8.443037e-04
5.700000e+08	1.730962e+13	0.000000e+00	5.606935e-01	4.627377e+14	9.910302e+14	3.236314e+14	1.179598e+04	5.062751e+03	2.316622e+03	0	8.383906e-04
5.800000e+08	1.694686e+13	0.000000e+00	5.606935e-01	4.588296e+14	9.820233e+14	3.220372e+14	1.177980e+04	5.057601e+03	2.314265e+03	0	8.324924e-04
5.900000e+08	1.659002e+13	0.000000e+00	5.606935e-01	4.549822e+14	9.732119e+14	3.204544e+14	1.176377e+04	5.052539e+03	2.311949e+03	0	8.266079e-04
6.000000e+08	1.623897e+13	0.000000e+00	5.606935e-01	4.511939e+14	9.645887e+14	3.188828e+14	1.174786e+04	5.047560e+03	2.309671e+03	0	8.207359e-04
6.100000e+08	1.589356e+13	0.000000e+00	5.606935e-01	4.474634e+14	9.561467e+14	3.173223e+14	1.173209e+04	5.042664e+03	2.307430e+03	0	8.148750e-04
6.200000e+08	1.555366e+13	0.000000e+00	5.606935e-01	4.437894e+14	9.478793e+14	3.157728e+14	1.171645e+04	5.037846e+03	2.305225e+03	0	8.090240e-04
6.300000e+08	1.521913e+13	0.000000e+00	5.606935e-01	4.401704e+14	9.397802e+14	3.142343e+14	1.170094e+04	5.033104e+03	2.303056e+03	0	8.031817e-04
6.400000e+08	1.488984e+13	0.000000e+00	5.606935e-01	4.366053e+14	9.318434e+14	3.127066e+14	1.168555e+04	5.028435e+03	2.300919e+03	0	7.973468e-04
6.500000e+08	1.456568e+13	0.000000e+00	5.606935e-01	4.330927e+14	9.240631e+14	3.111897e+14	1.167029e+04	5.023838e+03	2.298816e+03	0	7.915181e-04
6.600000e+08	1.424653e+13	0.000000e+00	5.606935e-01	4.296316e+14	9.164340e+14	3.096834e+14	1.165515e+04	5.019309e+03	2.296743e+03	0	7.856943e-04
6.700000e+08	1.393227e+13	0.000000e+00	5.606935e-01	4.262207e+14	9.089509e+14	3.081878e+14	1.164013e+04	5.014847e+03	2.294701e+03	0	7.798741e-04
6.800000e+08	1.362278e+13	0.000000e+00	5.606935e-01	4.228590e+14	9.016089e+14	3.067026e+14	1.162523e+04	5.010449e+03	2.292689e+03	0	7.740562e-04
6.900000e+08	1.331797e+13	0.000000e+00	5.606935e-01	4.195453e+14	8.944033e+14	3.052279e+14	1.161044e+04	5.006113e+03	2.290705e+03	0	7.682394e-04
7.000000e+08	1.301773e+13	0.000000e+00	5.606935e-01	4.162786e+14	8.873297e+14	3.037635e+14	1.159578e+04	5.001838e+03	2.288749e+03	0	7.624224e-04
7.100000e+08	1.272195e+13	0.000000e+00	5.606935e-01	4.130578e+14	8.803837e+14	3.023093e+14	1.158122e+04	4.997621e+03	2.286819e+03	0	7.566037e-04
7.200000e+08	1.243054e+13	0.000000e+00	5.606935e-01	4.098821e+14	8.735613e+14	3.008654e+14	1.156678e+04	4.993461e+03	2.284916e+03	0	7.507822e-04
7.300000e+08	1.214341e+13	0.000000e+00	5.606935e-01	4.067505e+14	8.668587e+14	2.994315e+14	1.155245e+04	4.989357e+03	2.283038e+03	0	7.449563e-04
7.400000e+08	1.186046e+13	0.000000e+00	5.606935e-01	4.036619e+14	8.602720e+14	2.980076e+14	1.153823e+04	4.985305e+03	2.281184e+03	0	7.391247e-04
7.500000e+08	1.158160e+13	0.000000e+00	5.606935e-01	4.006156e+14	8.537979e+14	2.965936e+14	1.152411e+04	4.981306e+03	2.279354e+03	0	7.332861e-04
7.600000e+08	1.130675e+13	0.000000e+00	5.606935e-01	3.976106e+14	8.474327e+14	2.951895e+14	1.151011e+04	4.977357e+03	2.277547e+03	0	7.274389e-04
7.700000e+08	1.103582e+13	0.000000e+00	5.606935e-01	3.946462e+14	8.411734e+14	2.937952e+14	1.149620e+04	4.973456e+03	2.275762e+03	0	7.215816e-04
7.800000e+08	1.076873e+13	0.000000e+00	5.606935e-01	3.917214e+14	8.350168e+14	2.924106e+14	1.148240e+04	4.969604e+03	2.273999e+03	0	7.157128e-04
7.900000e+08	1.050540e+13	0.000000e+00	5.606935e-01	3.888354e+14	8.289599e+14	2.910355e+14	1.146871e+04	4.965797e+03	2.272257e+03	0	7.098308e-04
8.000000e+08	1.024576e+13	0.000000e+00	5.606935e-01	3.859876e+14	8.229999e+14	2.896700e+14	1.145511e+04	4.962036e+03	2.270536e+03	0	7.039341e-04
8.100000e+08	9.989728e+12	0.000000e+00	5.606935e-01	3.831771e+14	8.171339e+14	2.883140e+14	1.144161e+04	4.958318e+03	2.268835e+03	0	6.980209e-04
8.200000e+08	9.737230e+12	0.000000e+00	5.606935e-01	3.804033e+14	8.113595e+14	2.869674e+14	1.142821e+04	4.954643e+03	2.267153e+03	0	6.920897e-04
8.300000e+08	9.488199e+12	0.000000e+00	5.606935e-01	3.776653e+14	8.056740e+14	2.856300e+14	1.141491e+04	4.951009e+03	2.265490e+03	0	6.861386e-04
8.400000e+08	9.242564e+12	0.000000e+00	5.606935e-01	3.749625e+14	8.000750e+14	2.843020e+14	1.140170e+04	4.947415e+03	2.263846e+03	0	6.801657e-04
8.500000e+08	9.000260e+12	0.000000e+00	5.606935e-01	3.722942e+14	7.945603e+14	2.829830e+14	1.138859e+04	4.943861e+03	2.262220e+03	0	6.741692e-04
8.600000e+08	8.761221e+12	0.000000e+00	5.606935e-01	3.696598e+14	7.891275e+14	2.816732e+14	1.137557e+04	4.940345e+03	2.260611e+03	0	6.681471e-04
8.700000e+08	8.525383e+12	0.000000e+00	5.606935e-01	3.670586e+14	7.837745e+14	2.803724e+14	1.136264e+04	4.936866e+03	2.259019e+03	0	6.620974e-04
8.800000e+08	8.292685e+12	0.000000e+00	5.606935e-01	3.644900e+14	7.784992e+14	2.790805e+14	1.134981e+04	4.933424e+03	2.257444e+03	0	6.560178e-04
8.900000e+08	8.063067e+12	0.000000e+00	5.606935e-01	3.619534e+14	7.732997e+14	2.777975e+14	1.133706e+04	4.930017e+03	2.255885e+03	0	6.499062e-04
9.000000e+08	7.836470e+12	0.000000e+00	5.606935e-01	3.594481e+14	7.681741e+14	2.765233e+14	1.132440e+04	4.926644e+03	2.254342e+03	0	6.437601e-04
9.100000e+08	7.612838e+12	0.000000e+00	5.606935e-01	3.569737e+14	7.631204e+14	2.752578e+14	1.131183e+04	4.923305e+03	2.252814e+03	0	6.375772e-04
9.200000e+08	7.392114e+12	0.000000e+00	5.606935e-01	3.545296e+14	7.581369e+14	2.740011e+14	1.129934e+04	4.919999e+03	2.251301e+03	0	6.313548e-04
9.300000e+08	7.174246e+12	0.000000e+00	5.606935e-01	3.521151e+14	7.532219e+14	2.727529e+14	1.128694e+04	4.916726e+03	2.249803e+03	0	6.250901e-04
9.400000e+08	6.959179e+12	0.000000e+00	5.606935e-01	3.497298e+14	7.483738e+14	2.715132e+14	1.127463e+04	4.913483e+03	2.248319e+03	0	6.187804e-04
9.500000e+08	6.746862e+12	0.000000e+00	5.606935e-01	3.473732e+14	7.435909e+14	2.702820e+14	1.126240e+04	4.910272e+03	2.246850e+03	0	6.124226e-04
9.600000e+08	6.537247e+12	0.000000e+00	5.606935e-01	3.450447e+14	7.388717e+14	2.690592e+14	1.125025e+04	4.907090e+03	2.245394e+03	0	6.060133e-04
9.700000e+08	6.330282e+12	0.000000e+00	5.606935e-01	3.427438e+14	7.342147e+14	2.678447e+14	1.123818e+04	4.903937e+03	2.243951e+03	0	5.995493e-04
9.800000e+08	6.125922e+12	0.000000e+00	5.606935e-01	3.404701e+14	7.296185e+14	2.666385e+14	1.122619e+04	4.900814e+03	2.242522e+03	0	5.930269e-04
9.900000e+08	5.924119e+12	0.000000e+00	5.606935e-01	3.382230e+14	7.250817e+14	2.654405e+14	1.121428e+04	4.897718e+03	2.241105e+03	0	5.864421e-04
1.000000e+09	5.724827e+12	0.000000e+00	5.606935e-01	3.360022e+14	7.206029e+14	2.642506e+14	1.120245e+04	4.894649e+03	2.239701e+03	0	5.797909e-04
1.010000e+09	5.528004e+12	0.000000e+00	5.606935e-01	3.338072e+14	7.161809e+14	2.630688e+14	1.119069e+04	4.891607e+03	2.238309e+03	0	5.730687e-04
1.020000e+09	5.333604e+12	0.000000e+00	5.606935e-01	3.316374e+14	7.118145e+14	2.618950e+14	1.117902e+04	4.888592e+03	2.236930e+03	0	5.662708e-04
1.030000e+09	5.141587e+12	0.000000e+00	5.606935e-01	3.294926e+14	7.075023e+14	2.607291e+14	1.116742e+04	4.885602e+03	2.235561e+03	0	5.593920e-04
1.040000e+09	4.951910e+12	0.000000e+00	5.606935e-01	3.273723e+14	7.032432e+14	2.595711e+14	1.115589e+04	4.882637e+03	2.234205e+03	0	5.524269e-04
1.050000e+09	4.764534e+12	0.000000e+00	5.606935e-01	3.252760e+14	6.990362e+14	2.584209e+14	1.114444e+04	4.879697e+03	2.232859e+03	0	5.453693e-04
1.060000e+09	4.579419e+12	0.000000e+00	5.606935e-01	3.232034e+14	6.948801e+14	2.572785e+14	1.113306e+04	4.876781e+03	2.231525e+03	0	5.382128e-04
1.070000e+09	4.396527e+12	0.000000e+00	5.606935e-01	3.211541e+14	6.907737e+14	2.561438e+14	1.112175e+04	4.873888e+03	2.230201e+03	0	5.309502e-04
1.080000e+09	4.215820e+12	0.000000e+00	5.606935e-01	3.191276e+14	6.867162e+14	2.550167e+14	1.111052e+04	4.871019e+03	2.228888e+03	0	5.235738e-04
1.090000e+09	4.037262e+12	0.000000e+00	5.606935e-01	3.171237e+14	6.827065e+14	2.538972e+14	1.109935e+04	4.868172e+03	2.227586e+03	0	5.160750e-04
1.100000e+09	3.860815e+12	0.000000e+00	5.606935e-01	3.151420e+14	6.787437e+14	2.527853e+14	1.108826e+04	4.865348e+03	2.226293e+03	0	5.084445e-04
1.110000e+09	3.686447e+12	0.000000e+00	5.606935e-01	3.131820e+14	6.748267e+14	2.516807e+14	1.107723e+04	4.862545e+03	2.225011e+03	0	5.006719e-04
1.120000e+09	3.514121e+12	0.000000e+00	5.606935e-01	3.112434e+14	6.709548e+14	2.505836e+14	1.106628e+04	4.859764e+03	2.223738e+03	0	4.927457e-04
1.130000e+09	3.343805e+12	0.000000e+00	5.606935e-01	3.093260e+14	6.671269e+14	2.494938e+14	1.105539e+04	4.857004e+03	2.222475e+03	0	4.846530e-04
1.140000e+09	3.175466e+12	0.000000e+00	5.606935e-01	3.074293e+14	6.633424e+14	2.484113e+14	1.104457e+04	4.854264e+03	2.221222e+03	0	4.763795e-04
1.150000e+09	3.009072e+12	0.000000e+00	5.606935e-01	3.055531e+14	6.596002e+14	2.473361e+14	1.103381e+04	4.851544e+03	2.219977e+03	0	4.679090e-04
1.160000e+09	2.844590e+12	0.000000e+00	5.606935e-01	3.036970e+14	6.558996e+14	2.462680e+14	1.102312e+04	4.848845e+03	2.218742e+03	0	4.592232e-04
1.170000e+09	2.681991e+12	0.000000e+00	5.606935e-01	3.018607e+14	6.522399e+14	2.452070e+14	1.101249e+04	4.846165e+03	2.217516e+03	0	4.503011e-04
1.180000e+09	2.521245e+12	0.000000e+00	5.606935e-01	3.000439e+14	6.486202e+14	2.441531e+14	1.100193e+04	4.843504e+03	2.216298e+03	0	4.411188e-04
1.190000e+09	2.362322e+12	0.000000e+00	5.606935e-01	2.982462e+14	6.450399e+14	2.431061e+14	1.099143e+04	4.840862e+03	2.215089e+03	0	4.316485e-04
1.200000e+09	2.205192e+12	0.000000e+00	5.606935e-01	2.964675e+14	6.414982e+14	2.420662e+14	1.098100e+04	4.838238e+03	2.213888e+03	0	4.218578e-04
1.210000e+09	2.049829e+12	0.000000e+00	5.606935e-01	2.947074e+14	6.379943e+14	2.410331e+14	1.097063e+04	4.835632e+03	2.212696e+03	0	4.117085e-04
1.220000e+09	1.896204e+12	0.000000e+00	5.606935e-01	2.929656e+14	6.345277e+14	2.400069e+14	1.096031e+04	4.833045e+03	2.211512e+03	0	4.011551e-04
1.230000e+09	1.744291e+12	0.000000e+00	5.606935e-01	2.912419e+14	6.310977e+14	2.389874e+14	1.095006e+04	4.830474e+03	2.210336e+03	0	3.901427e-04
1.240000e+09	1.594062e+12	0.000000e+00	5.606935e-01	2.895359e+14	6.277035e+14	2.379747e+14	1.093987e+04	4.827922e+03	2.209168e+03	0	3.786044e-04
1.250000e+09	1.445492e+12	0.000000e+00	5.606935e-01	2.878474e+14	6.243447e+14	2.369687e+14	1.092974e+04	4.825386e+03	2.208008e+03	0	3.664565e-04
1.260000e+09	1.298556e+12	0.000000e+00	5.606935e-01	2.861762e+14	6.210205e+14	2.359693e+14	1.091967e+04	4.822866e+03	2.206855e+03	0	3.535934e-04
1.270000e+09	1.153228e+12	0.000000e+00	5.606935e-01	2.845220e+14	6.177304e+14	2.349765e+14	1.090966e+04	4.820363e+03	2.205709e+03	0	3.398774e-04
1.280000e+09	1.009484e+12	0.000000e+00	5.606935e-01	2.828845e+14	6.144738e+14	2.339903e+14	1.089970e+04	4.817877e+03	2.204572e+03	0	3.251250e-04
1.290000e+09	8.673009e+11	0.000000e+00	5.606935e-01	2.812636e+14	6.112502e+14	2.330105e+14	1.088980e+04	4.815406e+03	2.203441e+03	0	3.090821e-04
1.300000e+09	7.266544e+11	0.000000e+00	5.606935e-01	2.796589e+14	6.080589e+14	2.320371e+14	1.087996e+04	4.812951e+03	2.202318e+03	0	2.913801e-04
1.310000e+09	5.875217e+11	0.000000e+00	5.606935e-01	2.780702e+14	6.048995e+14	2.310702e+14	1.087017e+04	4.810511e+03	2.201201e+03	0	2.714513e-04
1.320000e+09	4.498805e+11	0.000000e+00	5.606935e-01	2.764973e+14	6.017714e+14	2.301095e+14	1.086044e+04	4.808087e+03	2.200092e+03	0	2.483417e-04
1.330000e+09	3.137085e+11	0.000000e+00	5.606935e-01	2.749399e+14	5.986741e+14	2.291552e+14	1.085077e+04	4.805677e+03	2.198989e+03	0	2.202213e-04
1.340000e+09	1.789841e+11	0.000000e+00	5.606935e-01	2.733979e+14	5.956071e+14	2.282070e+14	1.084115e+04	4.803282e+03	2.197893e+03	0	1.826510e-04
1.350000e+09	4.568617e+10	0.000000e+00	5.606935e-01	2.718711e+14	5.925699e+14	2.272651e+14	1.083158e+04	4.800902e+03	2.196804e+03	0	1.158632e-04
1.360000e+09	-8.620614e+10	0.000000e+00	5.606935e-01	2.703591e+14	5.895621e+14	2.263293e+14	1.082206e+04	4.798536e+03	2.195721e+03	0	nan
