#t		Qconv[W]	Ri[Rp]		R*[Rp]		Qc[W]		Qm[W]		Qr[W]		Tcmb[K]		Tl[K]		Tup[K]		RiFlag		Bs[T]
0.000000e+00	5.996958e+13	0.000000e+00	5.606937e-01	9.229986e+14	2.850417e+15	4.471949e+14	1.327588e+04	5.894393e+03	2.677240e+03	0	1.267648e-03
1.000000e+07	5.847026e+13	0.000000e+00	5.606937e-01	9.078929e+14	2.737615e+15	4.447171e+14	1.324476e+04	5.858668e+03	2.661014e+03	0	1.256994e-03
2.000000e+07	5.702847e+13	0.000000e+00	5.606937e-01	8.933488e+14	2.634540e+15	4.422579e+14	1.321414e+04	5.825207e+03	2.645816e+03	0	1.246576e-03
3.000000e+07	5.564057e+13	0.000000e+00	5.606937e-01	8.793308e+14	2.540016e+15	4.398170e+14	1.318402e+04	5.793795e+03	2.631549e+03	0	1.236380e-03
4.000000e+07	5.430321e+13	0.000000e+00	5.606937e-01	8.658067e+14	2.453045e+15	4.373943e+14	1.315436e+04	5.764245e+03	2.618127e+03	0	1.226394e-03
5.000000e+07	5.301333e+13	0.000000e+00	5.606937e-01	8.527469e+14	2.372774e+15	4.349897e+14	1.312516e+04	5.736391e+03	2.605476e+03	0	1.216606e-03
6.000000e+07	5.176812e+13	0.000000e+00	5.606937e-01	8.401242e+14	2.298471e+15	4.326031e+14	1.309640e+04	5.710086e+03	2.593528e+03	0	1.207005e-03
7.000000e+07	5.056500e+13	0.000000e+00	5.606937e-01	8.279136e+14	2.229504e+15	4.302342e+14	1.306806e+04	5.685201e+03	2.582225e+03	0	1.197581e-03
8.000000e+07	4.940158e+13	0.000000e+00	5.606937e-01	8.160920e+14	2.165324e+15	4.278829e+14	1.304014e+04	5.661619e+03	2.571514e+03	0	1.188325e-03
9.000000e+07	4.827568e+13	0.000000e+00	5.606937e-01	8.046384e+14	2.105453e+15	4.255491e+14	1.301261e+04	5.639236e+03	2.561348e+03	0	1.179228e-03
1.000000e+08	4.718527e+13	0.000000e+00	5.606937e-01	7.935329e+14	2.049475e+15	4.232327e+14	1.298546e+04	5.617960e+03	2.551684e+03	0	1.170282e-03
1.100000e+08	4.612848e+13	0.000000e+00	5.606937e-01	7.827577e+14	1.997022e+15	4.209334e+14	1.295869e+04	5.597706e+03	2.542485e+03	0	1.161479e-03
1.200000e+08	4.510359e+13	0.000000e+00	5.606937e-01	7.722958e+14	1.947771e+15	4.186512e+14	1.293228e+04	5.578399e+03	2.533716e+03	0	1.152812e-03
1.300000e+08	4.410898e+13	0.000000e+00	5.606937e-01	7.621316e+14	1.901436e+15	4.163858e+14	1.290622e+04	5.559971e+03	2.525346e+03	0	1.144275e-03
1.400000e+08	4.314316e+13	0.000000e+00	5.606937e-01	7.522508e+14	1.857765e+15	4.141373e+14	1.288050e+04	5.542360e+03	2.517346e+03	0	1.135862e-03
1.500000e+08	4.220475e+13	0.000000e+00	5.606937e-01	7.426398e+14	1.816530e+15	4.119053e+14	1.285512e+04	5.525509e+03	2.509693e+03	0	1.127566e-03
1.600000e+08	4.129245e+13	0.000000e+00	5.606937e-01	7.332861e+14	1.777531e+15	4.096899e+14	1.283005e+04	5.509366e+03	2.502361e+03	0	1.119382e-03
1.700000e+08	4.040506e+13	0.000000e+00	5.606937e-01	7.241780e+14	1.740587e+15	4.074908e+14	1.280531e+04	5.493886e+03	2.495330e+03	0	1.111306e-03
1.800000e+08	3.954145e+13	0.000000e+00	5.606937e-01	7.153045e+14	1.705537e+15	4.053079e+14	1.278086e+04	5.479025e+03	2.488580e+03	0	1.103331e-03
1.900000e+08	3.870057e+13	0.000000e+00	5.606937e-01	7.066553e+14	1.672235e+15	4.031411e+14	1.275672e+04	5.464744e+03	2.482093e+03	0	1.095454e-03
2.000000e+08	3.788142e+13	0.000000e+00	5.606937e-01	6.982210e+14	1.640548e+15	4.009902e+14	1.273287e+04	5.451006e+03	2.475853e+03	0	1.087670e-03
2.100000e+08	3.708309e+13	0.000000e+00	5.606937e-01	6.899924e+14	1.610360e+15	3.988551e+14	1.270930e+04	5.437779e+03	2.469845e+03	0	1.079975e-03
2.200000e+08	3.630471e+13	0.000000e+00	5.606937e-01	6.819611e+14	1.581561e+15	3.967358e+14	1.268601e+04	5.425031e+03	2.464055e+03	0	1.072365e-03
2.300000e+08	3.554545e+13	0.000000e+00	5.606937e-01	6.741192e+14	1.554054e+15	3.946319e+14	1.266299e+04	5.412735e+03	2.458471e+03	0	1.064836e-03
2.400000e+08	3.480456e+13	0.000000e+00	5.606937e-01	6.664592e+14	1.527751e+15	3.925435e+14	1.264023e+04	5.400864e+03	2.453079e+03	0	1.057386e-03
2.500000e+08	3.408130e+13	0.000000e+00	5.606937e-01	6.589740e+14	1.502569e+15	3.904704e+14	1.261773e+04	5.389395e+03	2.447869e+03	0	1.050010e-03
2.600000e+08	3.337499e+13	0.000000e+00	5.606937e-01	6.516569e+14	1.478435e+15	3.884125e+14	1.259548e+04	5.378304e+03	2.442832e+03	0	1.042706e-03
2.700000e+08	3.268500e+13	0.000000e+00	5.606937e-01	6.445017e+14	1.455281e+15	3.863696e+14	1.257348e+04	5.367571e+03	2.437957e+03	0	1.035470e-03
2.800000e+08	3.201070e+13	0.000000e+00	5.606937e-01	6.375023e+14	1.433045e+15	3.843417e+14	1.255172e+04	5.357177e+03	2.433236e+03	0	1.028300e-03
2.900000e+08	3.135152e+13	0.000000e+00	5.606937e-01	6.306533e+14	1.411670e+15	3.823285e+14	1.253019e+04	5.347103e+03	2.428661e+03	0	1.021193e-03
3.000000e+08	3.070691e+13	0.000000e+00	5.606937e-01	6.239492e+14	1.391102e+15	3.803300e+14	1.250890e+04	5.337334e+03	2.424223e+03	0	1.014146e-03
3.100000e+08	3.007636e+13	0.000000e+00	5.606937e-01	6.173849e+14	1.371295e+15	3.783461e+14	1.248783e+04	5.327852e+03	2.419917e+03	0	1.007156e-03
3.200000e+08	2.945938e+13	0.000000e+00	5.606937e-01	6.109557e+14	1.352203e+15	3.763766e+14	1.246698e+04	5.318644e+03	2.415734e+03	0	1.000221e-03
3.300000e+08	2.885550e+13	0.000000e+00	5.606937e-01	6.046571e+14	1.333784e+15	3.744214e+14	1.244635e+04	5.309696e+03	2.411670e+03	0	9.933396e-04
3.400000e+08	2.826427e+13	0.000000e+00	5.606937e-01	5.984845e+14	1.316002e+15	3.724805e+14	1.242593e+04	5.300995e+03	2.407718e+03	0	9.865084e-04
3.500000e+08	2.768527e+13	0.000000e+00	5.606937e-01	5.924340e+14	1.298820e+15	3.705536e+14	1.240572e+04	5.292529e+03	2.403873e+03	0	9.797257e-04
3.600000e+08	2.711811e+13	0.000000e+00	5.606937e-01	5.865016e+14	1.282205e+15	3.686406e+14	1.238571e+04	5.284287e+03	2.400129e+03	0	9.729892e-04
3.700000e+08	2.656240e+13	0.000000e+00	5.606937e-01	5.806835e+14	1.266128e+15	3.667416e+14	1.236590e+04	5.276258e+03	2.396483e+03	0	9.662970e-04
3.800000e+08	2.601777e+13	0.000000e+00	5.606937e-01	5.749762e+14	1.250560e+15	3.648562e+14	1.234628e+04	5.268433e+03	2.392928e+03	0	9.596471e-04
3.900000e+08	2.548387e+13	0.000000e+00	5.606937e-01	5.693763e+14	1.235474e+15	3.629845e+14	1.232686e+04	5.260802e+03	2.389462e+03	0	9.530376e-04
4.000000e+08	2.496038e+13	0.000000e+00	5.606937e-01	5.638804e+14	1.220846e+15	3.611264e+14	1.230763e+04	5.253356e+03	2.386080e+03	0	9.464666e-04
4.100000e+08	2.444697e+13	0.000000e+00	5.606937e-01	5.584856e+14	1.206653e+15	3.592816e+14	1.228858e+04	5.246087e+03	2.382779e+03	0	9.399323e-04
4.200000e+08	2.394335e+13	0.000000e+00	5.606937e-01	5.531886e+14	1.192874e+15	3.574501e+14	1.226972e+04	5.238988e+03	2.379555e+03	0	9.334331e-04
4.300000e+08	2.344922e+13	0.000000e+00	5.606937e-01	5.479869e+14	1.179488e+15	3.556318e+14	1.225103e+04	5.232051e+03	2.376404e+03	0	9.269672e-04
4.400000e+08	2.296430e+13	0.000000e+00	5.606937e-01	5.428775e+14	1.166477e+15	3.538266e+14	1.223252e+04	5.225269e+03	2.373323e+03	0	9.205329e-04
4.500000e+08	2.248833e+13	0.000000e+00	5.606937e-01	5.378579e+14	1.153823e+15	3.520344e+14	1.221418e+04	5.218636e+03	2.370311e+03	0	9.141286e-04
4.600000e+08	2.202105e+13	0.000000e+00	5.606937e-01	5.329256e+14	1.141511e+15	3.502550e+14	1.219601e+04	5.212145e+03	2.367362e+03	0	9.077527e-04
4.700000e+08	2.156221e+13	0.000000e+00	5.606937e-01	5.280781e+14	1.129523e+15	3.484884e+14	1.217800e+04	5.205791e+03	2.364476e+03	0	9.014037e-04
4.800000e+08	2.111159e+13	0.000000e+00	5.606937e-01	5.233132e+14	1.117847e+15	3.467344e+14	1.216016e+04	5.199568e+03	2.361650e+03	0	8.950800e-04
4.900000e+08	2.066895e+13	0.000000e+00	5.606937e-01	5.186285e+14	1.106467e+15	3.449930e+14	1.214248e+04	5.193470e+03	2.358880e+03	0	8.887802e-04
5.000000e+08	2.023408e+13	0.000000e+00	5.606937e-01	5.140221e+14	1.095372e+15	3.432641e+14	1.212496e+04	5.187494e+03	2.356166e+03	0	8.825027e-04
5.100000e+08	1.980677e+13	0.000000e+00	5.606937e-01	5.094917e+14	1.084549e+15	3.415475e+14	1.210759e+04	5.181633e+03	2.353504e+03	0	8.762461e-04
5.200000e+08	1.938681e+13	0.000000e+00	5.606937e-01	5.050355e+14	1.073987e+15	3.398431e+14	1.209037e+04	5.175885e+03	2.350893e+03	0	8.700089e-04
5.300000e+08	1.897402e+13	0.000000e+00	5.606937e-01	5.006515e+14	1.063675e+15	3.381510e+14	1.207331e+04	5.170243e+03	2.348331e+03	0	8.637897e-04
5.400000e+08	1.856822e+13	0.000000e+00	5.606937e-01	4.963379e+14	1.053603e+15	3.364708e+14	1.205639e+04	5.164705e+03	2.345815e+03	0	8.575872e-04
5.500000e+08	1.816921e+13	0.000000e+00	5.606937e-01	4.920929e+14	1.043761e+15	3.348026e+14	1.203962e+04	5.159267e+03	2.343345e+03	0	8.513998e-04
5.600000e+08	1.777683e+13	0.000000e+00	5.606937e-01	4.879149e+14	1.034140e+15	3.331463e+14	1.202299e+04	5.153925e+03	2.340919e+03	0	8.452263e-04
5.700000e+08	1.739091e+13	0.000000e+00	5.606937e-01	4.838021e+14	1.024732e+15	3.315018e+14	1.200650e+04	5.148675e+03	2.338534e+03	0	8.390651e-04
5.800000e+08	1.701129e+13	0.000000e+00	5.606937e-01	4.797531e+14	1.015528e+15	3.298689e+14	1.199015e+04	5.143515e+03	2.336190e+03	0	8.329150e-04
5.900000e+08	1.663783e+13	0.000000e+00	5.606937e-01	4.757662e+14	1.006521e+15	3.282476e+14	1.197394e+04	5.138440e+03	2.333886e+03	0	8.267745e-04
6.000000e+08	1.627035e+13	0.000000e+00	5.606937e-01	4.718399e+14	9.977035e+14	3.266377e+14	1.195786e+04	5.133449e+03	2.331619e+03	0	8.206423e-04
6.100000e+08	1.590873e+13	0.000000e+00	5.606937e-01	4.679730e+14	9.890682e+14	3.250393e+14	1.194191e+04	5.128538e+03	2.329388e+03	0	8.145169e-04
6.200000e+08	1.555283e+13	0.000000e+00	5.606937e-01	4.641639e+14	9.806086e+14	3.234521e+14	1.192610e+04	5.123704e+03	2.327192e+03	0	8.083969e-04
6.300000e+08	1.520250e+13	0.000000e+00	5.606937e-01	4.604113e+14	9.723187e+14	3.218762e+14	1.191041e+04	5.118945e+03	2.325031e+03	0	8.022811e-04
6.400000e+08	1.485762e+13	0.000000e+00	5.606937e-01	4.567140e+14	9.641923e+14	3.203113e+14	1.189485e+04	5.114259e+03	2.322902e+03	0	7.961678e-04
6.500000e+08	1.451806e+13	0.000000e+00	5.606937e-01	4.530707e+14	9.562239e+14	3.187575e+14	1.187941e+04	5.109642e+03	2.320806e+03	0	7.900558e-04
6.600000e+08	1.418371e+13	0.000000e+00	5.606937e-01	4.494802e+14	9.484080e+14	3.172146e+14	1.186410e+04	5.105094e+03	2.318740e+03	0	7.839435e-04
6.700000e+08	1.385443e+13	0.000000e+00	5.606937e-01	4.459412e+14	9.407396e+14	3.156826e+14	1.184891e+04	5.100611e+03	2.316703e+03	0	7.778296e-04
6.800000e+08	1.353012e+13	0.000000e+00	5.606937e-01	4.424528e+14	9.332136e+14	3.141613e+14	1.183383e+04	5.096191e+03	2.314696e+03	0	7.717124e-04
6.900000e+08	1.321068e+13	0.000000e+00	5.606937e-01	4.390138e+14	9.258254e+14	3.126507e+14	1.181888e+04	5.091834e+03	2.312717e+03	0	7.655905e-04
7.000000e+08	1.289598e+13	0.000000e+00	5.606937e-01	4.356230e+14	9.185707e+14	3.111507e+14	1.180404e+04	5.087536e+03	2.310765e+03	0	7.594624e-04
7.100000e+08	1.258592e+13	0.000000e+00	5.606937e-01	4.322796e+14	9.114450e+14	3.096612e+14	1.178931e+04	5.083295e+03	2.308839e+03	0	7.533265e-04
7.200000e+08	1.228042e+13	0.000000e+00	5.606937e-01	4.289824e+14	9.044445e+14	3.081821e+14	1.177470e+04	5.079111e+03	2.306938e+03	0	7.471812e-04
7.300000e+08	1.197936e+13	0.000000e+00	5.606937e-01	4.257306e+14	8.975651e+14	3.067134e+14	1.176020e+04	5.074981e+03	2.305063e+03	0	7.410248e-04
7.400000e+08	1.168265e+13	0.000000e+00	5.606937e-01	4.225231e+14	8.908032e+14	3.052549e+14	1.174580e+04	5.070904e+03	2.303211e+03	0	7.348556e-04
7.500000e+08	1.139020e+13	0.000000e+00	5.606937e-01	4.193591e+14	8.841552e+14	3.038065e+14	1.173152e+04	5.066879e+03	2.301382e+03	0	7.286719e-04
7.600000e+08	1.110193e+13	0.000000e+00	5.606937e-01	4.162376e+14	8.776177e+14	3.023683e+14	1.171734e+04	5.062903e+03	2.299577e+03	0	7.224720e-04
7.700000e+08	1.081774e+13	0.000000e+00	5.606937e-01	4.131578e+14	8.711874e+14	3.009400e+14	1.170327e+04	5.058976e+03	2.297793e+03	0	7.162540e-04
7.800000e+08	1.053755e+13	0.000000e+00	5.606937e-01	4.101189e+14	8.648614e+14	2.995217e+14	1.168930e+04	5.055096e+03	2.296031e+03	0	7.100159e-04
7.900000e+08	1.026128e+13	0.000000e+00	5.606937e-01	4.071200e+14	8.586365e+14	2.981132e+14	1.167544e+04	5.051261e+03	2.294289e+03	0	7.037559e-04
8.000000e+08	9.988846e+12	0.000000e+00	5.606937e-01	4.041604e+14	8.525099e+14	2.967146e+14	1.166167e+04	5.047472e+03	2.292568e+03	0	6.974718e-04
8.100000e+08	9.720176e+12	0.000000e+00	5.606937e-01	4.012392e+14	8.464788e+14	2.953255e+14	1.164801e+04	5.043725e+03	2.290866e+03	0	6.911616e-04
8.200000e+08	9.455192e+12	0.000000e+00	5.606937e-01	3.983558e+14	8.405407e+14	2.939462e+14	1.163444e+04	5.040021e+03	2.289183e+03	0	6.848230e-04
8.300000e+08	9.193822e+12	0.000000e+00	5.606937e-01	3.955093e+14	8.346929e+14	2.925763e+14	1.162097e+04	5.036357e+03	2.287519e+03	0	6.784538e-04
8.400000e+08	8.935995e+12	0.000000e+00	5.606937e-01	3.926992e+14	8.289330e+14	2.912159e+14	1.160760e+04	5.032734e+03	2.285874e+03	0	6.720515e-04
8.500000e+08	8.681640e+12	0.000000e+00	5.606937e-01	3.899246e+14	8.232588e+14	2.898649e+14	1.159432e+04	5.029150e+03	2.284246e+03	0	6.656135e-04
8.600000e+08	8.430692e+12	0.000000e+00	5.606937e-01	3.871850e+14	8.176679e+14	2.885232e+14	1.158114e+04	5.025603e+03	2.282635e+03	0	6.591374e-04
8.700000e+08	8.183083e+12	0.000000e+00	5.606937e-01	3.844796e+14	8.121583e+14	2.871908e+14	1.156805e+04	5.022094e+03	2.281041e+03	0	6.526203e-04
8.800000e+08	7.938752e+12	0.000000e+00	5.606937e-01	3.818078e+14	8.067277e+14	2.858675e+14	1.155505e+04	5.018621e+03	2.279463e+03	0	6.460592e-04
8.900000e+08	7.697634e+12	0.000000e+00	5.606937e-01	3.791691e+14	8.013743e+14	2.845533e+14	1.154214e+04	5.015183e+03	2.277902e+03	0	6.394511e-04
9.000000e+08	7.459670e+12	0.000000e+00	5.606937e-01	3.765627e+14	7.960960e+14	2.832481e+14	1.152931e+04	5.011779e+03	2.276356e+03	0	6.327927e-04
9.100000e+08	7.224801e+12	0.000000e+00	5.606937e-01	3.739882e+14	7.908910e+14	2.819519e+14	1.151658e+04	5.008409e+03	2.274825e+03	0	6.260805e-04
9.200000e+08	6.992969e+12	0.000000e+00	5.606937e-01	3.714449e+14	7.857576e+14	2.806645e+14	1.150393e+04	5.005071e+03	2.273309e+03	0	6.193109e-04
9.300000e+08	6.764118e+12	0.000000e+00	5.606937e-01	3.689323e+14	7.806940e+14	2.793860e+14	1.149137e+04	5.001766e+03	2.271808e+03	0	6.124801e-04
9.400000e+08	6.538194e+12	0.000000e+00	5.606937e-01	3.664497e+14	7.756985e+14	2.781161e+14	1.147890e+04	4.998491e+03	2.270321e+03	0	6.055837e-04
9.500000e+08	6.315143e+12	0.000000e+00	5.606937e-01	3.639968e+14	7.707696e+14	2.768550e+14	1.146650e+04	4.995247e+03	2.268847e+03	0	5.986173e-04
9.600000e+08	6.094913e+12	0.000000e+00	5.606937e-01	3.615729e+14	7.659056e+14	2.756024e+14	1.145419e+04	4.992033e+03	2.267387e+03	0	5.915762e-04
9.700000e+08	5.877454e+12	0.000000e+00	5.606937e-01	3.591776e+14	7.611051e+14	2.743584e+14	1.144197e+04	4.988848e+03	2.265941e+03	0	5.844553e-04
9.800000e+08	5.662716e+12	0.000000e+00	5.606937e-01	3.568104e+14	7.563667e+14	2.731229e+14	1.142982e+04	4.985692e+03	2.264507e+03	0	5.772489e-04
9.900000e+08	5.450651e+12	0.000000e+00	5.606937e-01	3.544707e+14	7.516888e+14	2.718957e+14	1.141775e+04	4.982564e+03	2.263086e+03	0	5.699512e-04
1.000000e+09	5.241211e+12	0.000000e+00	5.606937e-01	3.521581e+14	7.470703e+14	2.706769e+14	1.140576e+04	4.979462e+03	2.261678e+03	0	5.625556e-04
1.010000e+09	5.034352e+12	0.000000e+00	5.606937e-01	3.498722e+14	7.425097e+14	2.694664e+14	1.139385e+04	4.976388e+03	2.260281e+03	0	5.550551e-04
1.020000e+09	4.830027e+12	0.000000e+00	5.606937e-01	3.476125e+14	7.380059e+14	2.682640e+14	1.138202e+04	4.973339e+03	2.258897e+03	0	5.474419e-04
1.030000e+09	4.628193e+12	0.000000e+00	5.606937e-01	3.453785e+14	7.335576e+14	2.670698e+14	1.137026e+04	4.970316e+03	2.257524e+03	0	5.397078e-04
1.040000e+09	4.428808e+12	0.000000e+00	5.606937e-01	3.431698e+14	7.291635e+14	2.658836e+14	1.135858e+04	4.967319e+03	2.256162e+03	0	5.318435e-04
1.050000e+09	4.231828e+12	0.000000e+00	5.606937e-01	3.409860e+14	7.248226e+14	2.647055e+14	1.134698e+04	4.964345e+03	2.254811e+03	0	5.238387e-04
1.060000e+09	4.037215e+12	0.000000e+00	5.606937e-01	3.388267e+14	7.205338e+14	2.635353e+14	1.133544e+04	4.961396e+03	2.253472e+03	0	5.156822e-04
1.070000e+09	3.844926e+12	0.000000e+00	5.606937e-01	3.366915e+14	7.162959e+14	2.623730e+14	1.132398e+04	4.958470e+03	2.252143e+03	0	5.073616e-04
1.080000e+09	3.654925e+12	0.000000e+00	5.606937e-01	3.345800e+14	7.121080e+14	2.612185e+14	1.131259e+04	4.955568e+03	2.250825e+03	0	4.988627e-04
1.090000e+09	3.467171e+12	0.000000e+00	5.606937e-01	3.324917e+14	7.079690e+14	2.600718e+14	1.130128e+04	4.952688e+03	2.249517e+03	0	4.901699e-04
1.100000e+09	3.281629e+12	0.000000e+00	5.606937e-01	3.304265e+14	7.038780e+14	2.589328e+14	1.129003e+04	4.949830e+03	2.248219e+03	0	4.812655e-04
1.110000e+09	3.098261e+12	0.000000e+00	5.606937e-01	3.283837e+14	6.998339e+14	2.578014e+14	1.127885e+04	4.946994e+03	2.246931e+03	0	4.721292e-04
1.120000e+09	2.917032e+12	0.000000e+00	5.606937e-01	3.263632e+14	6.958359e+14	2.566776e+14	1.126775e+04	4.944180e+03	2.245652e+03	0	4.627381e-04
1.130000e+09	2.737906e+12	0.000000e+00	5.606937e-01	3.243645e+14	6.918831e+14	2.555613e+14	1.125671e+04	4.941386e+03	2.244383e+03	0	4.530656e-04
1.140000e+09	2.560851e+12	0.000000e+00	5.606937e-01	3.223873e+14	6.879746e+14	2.544525e+14	1.124573e+04	4.938613e+03	2.243124e+03	0	4.430809e-04
1.150000e+09	2.385832e+12	0.000000e+00	5.606937e-01	3.204313e+14	6.841096e+14	2.533510e+14	1.123483e+04	4.935860e+03	2.241874e+03	0	4.327478e-04
1.160000e+09	2.212817e+12	0.000000e+00	5.606937e-01	3.184961e+14	6.802872e+14	2.522570e+14	1.122399e+04	4.933127e+03	2.240632e+03	0	4.220236e-04
1.170000e+09	2.041774e+12	0.000000e+00	5.606937e-01	3.165814e+14	6.765067e+14	2.511702e+14	1.121322e+04	4.930414e+03	2.239400e+03	0	4.108571e-04
1.180000e+09	1.872671e+12	0.000000e+00	5.606937e-01	3.146869e+14	6.727672e+14	2.500906e+14	1.120251e+04	4.927720e+03	2.238176e+03	0	3.991860e-04
1.190000e+09	1.705478e+12	0.000000e+00	5.606937e-01	3.128123e+14	6.690681e+14	2.490183e+14	1.119186e+04	4.925044e+03	2.236961e+03	0	3.869340e-04
1.200000e+09	1.540164e+12	0.000000e+00	5.606937e-01	3.109573e+14	6.654085e+14	2.479530e+14	1.118128e+04	4.922387e+03	2.235754e+03	0	3.740048e-04
1.210000e+09	1.376701e+12	0.000000e+00	5.606937e-01	3.091216e+14	6.617878e+14	2.468948e+14	1.117076e+04	4.919748e+03	2.234555e+03	0	3.602756e-04
1.220000e+09	1.215060e+12	0.000000e+00	5.606937e-01	3.073049e+14	6.582054e+14	2.458436e+14	1.116030e+04	4.917127e+03	2.233365e+03	0	3.455844e-04
1.230000e+09	1.055213e+12	0.000000e+00	5.606937e-01	3.055068e+14	6.546604e+14	2.447994e+14	1.114991e+04	4.914524e+03	2.232183e+03	0	3.297121e-04
1.240000e+09	8.971309e+11	0.000000e+00	5.606937e-01	3.037272e+14	6.511523e+14	2.437621e+14	1.113957e+04	4.911938e+03	2.231008e+03	0	3.123490e-04
1.250000e+09	7.407881e+11	0.000000e+00	5.606937e-01	3.019658e+14	6.476804e+14	2.427316e+14	1.112929e+04	4.909369e+03	2.229841e+03	0	2.930350e-04
1.260000e+09	5.861577e+11	0.000000e+00	5.606937e-01	3.002223e+14	6.442441e+14	2.417079e+14	1.111908e+04	4.906816e+03	2.228682e+03	0	2.710356e-04
1.270000e+09	4.332138e+11	0.000000e+00	5.606937e-01	2.984963e+14	6.408428e+14	2.406910e+14	1.110892e+04	4.904280e+03	2.227530e+03	0	2.450505e-04
1.280000e+09	2.819309e+11	0.000000e+00	5.606937e-01	2.967878e+14	6.374760e+14	2.396807e+14	1.109882e+04	4.901761e+03	2.226385e+03	0	2.123582e-04
1.290000e+09	1.322841e+11	0.000000e+00	5.606937e-01	2.950963e+14	6.341429e+14	2.386771e+14	1.108878e+04	4.899257e+03	2.225248e+03	0	1.650153e-04
1.300000e+09	-1.575095e+10	0.000000e+00	5.606937e-01	2.934217e+14	6.308431e+14	2.376801e+14	1.107880e+04	4.896769e+03	2.224118e+03	0	nan
