#t		Qconv[W]	Ri[Rp]		R*[Rp]		Qc[W]		Qm[W]		Qr[W]		Tcmb[K]		Tl[K]		Tup[K]		RiFlag		Bs[T]
0.000000e+00	6.688300e+13	0.000000e+00	5.606935e-01	1.208339e+15	2.849361e+15	5.424862e+14	1.520279e+04	6.501311e+03	2.778199e+03	0	1.307420e-03
1.000000e+07	6.519720e+13	0.000000e+00	5.606935e-01	1.192595e+15	2.778972e+15	5.394805e+14	1.517192e+04	6.478755e+03	2.768560e+03	0	1.296342e-03
2.000000e+07	6.356075e+13	0.000000e+00	5.606935e-01	1.177291e+15	2.712806e+15	5.364972e+14	1.514144e+04	6.457248e+03	2.759370e+03	0	1.285404e-03
3.000000e+07	6.197120e+13	0.000000e+00	5.606935e-01	1.162406e+15	2.650490e+15	5.335362e+14	1.511136e+04	6.436713e+03	2.750595e+03	0	1.274598e-03
4.000000e+07	6.042630e+13	0.000000e+00	5.606935e-01	1.147919e+15	2.591693e+15	5.305973e+14	1.508165e+04	6.417083e+03	2.742206e+03	0	1.263917e-03
5.000000e+07	5.892395e+13	0.000000e+00	5.606935e-01	1.133813e+15	2.536118e+15	5.276803e+14	1.505231e+04	6.398295e+03	2.734177e+03	0	1.253354e-03
6.000000e+07	5.746217e+13	0.000000e+00	5.606935e-01	1.120069e+15	2.483503e+15	5.247851e+14	1.502333e+04	6.380291e+03	2.726484e+03	0	1.242903e-03
7.000000e+07	5.603915e+13	0.000000e+00	5.606935e-01	1.106672e+15	2.433610e+15	5.219114e+14	1.499471e+04	6.363021e+03	2.719104e+03	0	1.232557e-03
8.000000e+07	5.465316e+13	0.000000e+00	5.606935e-01	1.093607e+15	2.386227e+15	5.190591e+14	1.496642e+04	6.346436e+03	2.712017e+03	0	1.222311e-03
9.000000e+07	5.330260e+13	0.000000e+00	5.606935e-01	1.080860e+15	2.341162e+15	5.162280e+14	1.493846e+04	6.330493e+03	2.705204e+03	0	1.212158e-03
1.000000e+08	5.198598e+13	0.000000e+00	5.606935e-01	1.068417e+15	2.298243e+15	5.134180e+14	1.491083e+04	6.315152e+03	2.698648e+03	0	1.202095e-03
1.100000e+08	5.070187e+13	0.000000e+00	5.606935e-01	1.056267e+15	2.257314e+15	5.106288e+14	1.488352e+04	6.300376e+03	2.692334e+03	0	1.192114e-03
1.200000e+08	4.944896e+13	0.000000e+00	5.606935e-01	1.044396e+15	2.218232e+15	5.078602e+14	1.485652e+04	6.286131e+03	2.686246e+03	0	1.182213e-03
1.300000e+08	4.822599e+13	0.000000e+00	5.606935e-01	1.032795e+15	2.180868e+15	5.051122e+14	1.482982e+04	6.272385e+03	2.680372e+03	0	1.172385e-03
1.400000e+08	4.703179e+13	0.000000e+00	5.606935e-01	1.021453e+15	2.145106e+15	5.023845e+14	1.480341e+04	6.259110e+03	2.674699e+03	0	1.162627e-03
1.500000e+08	4.586525e+13	0.000000e+00	5.606935e-01	1.010361e+15	2.110838e+15	4.996769e+14	1.477730e+04	6.246278e+03	2.669216e+03	0	1.152934e-03
1.600000e+08	4.472533e+13	0.000000e+00	5.606935e-01	9.995081e+14	2.077966e+15	4.969894e+14	1.475146e+04	6.233866e+03	2.663912e+03	0	1.143302e-03
1.700000e+08	4.361103e+13	0.000000e+00	5.606935e-01	9.888868e+14	2.046401e+15	4.943217e+14	1.472591e+04	6.221849e+03	2.658777e+03	0	1.133728e-03
1.800000e+08	4.252143e+13	0.000000e+00	5.606935e-01	9.784884e+14	2.016060e+15	4.916736e+14	1.470062e+04	6.210206e+03	2.653801e+03	0	1.124206e-03
1.900000e+08	4.145563e+13	0.000000e+00	5.606935e-01	9.683052e+14	1.986868e+15	4.890451e+14	1.467560e+04	6.198918e+03	2.648978e+03	0	1.114734e-03
2.000000e+08	4.041280e+13	0.000000e+00	5.606935e-01	9.583298e+14	1.958755e+15	4.864359e+14	1.465084e+04	6.187965e+03	2.644297e+03	0	1.105307e-03
2.100000e+08	3.939214e+13	0.000000e+00	5.606935e-01	9.485551e+14	1.931657e+15	4.838459e+14	1.462633e+04	6.177331e+03	2.639753e+03	0	1.095922e-03
2.200000e+08	3.839289e+13	0.000000e+00	5.606935e-01	9.389744e+14	1.905516e+15	4.812749e+14	1.460207e+04	6.166999e+03	2.635338e+03	0	1.086576e-03
2.300000e+08	3.741434e+13	0.000000e+00	5.606935e-01	9.295813e+14	1.880276e+15	4.787228e+14	1.457806e+04	6.156954e+03	2.631045e+03	0	1.077265e-03
2.400000e+08	3.645581e+13	0.000000e+00	5.606935e-01	9.203699e+14	1.855887e+15	4.761894e+14	1.455428e+04	6.147181e+03	2.626869e+03	0	1.067986e-03
2.500000e+08	3.551663e+13	0.000000e+00	5.606935e-01	9.113342e+14	1.832302e+15	4.736745e+14	1.453074e+04	6.137669e+03	2.622804e+03	0	1.058735e-03
2.600000e+08	3.459619e+13	0.000000e+00	5.606935e-01	9.024689e+14	1.809477e+15	4.711781e+14	1.450743e+04	6.128403e+03	2.618845e+03	0	1.049509e-03
2.700000e+08	3.369391e+13	0.000000e+00	5.606935e-01	8.937686e+14	1.787373e+15	4.686999e+14	1.448435e+04	6.119372e+03	2.614986e+03	0	1.040304e-03
2.800000e+08	3.280921e+13	0.000000e+00	5.606935e-01	8.852284e+14	1.765951e+15	4.662398e+14	1.446149e+04	6.110566e+03	2.611223e+03	0	1.031118e-03
2.900000e+08	3.194156e+13	0.000000e+00	5.606935e-01	8.768435e+14	1.745176e+15	4.637977e+14	1.443884e+04	6.101975e+03	2.607551e+03	0	1.021948e-03
3.000000e+08	3.109044e+13	0.000000e+00	5.606935e-01	8.686092e+14	1.725016e+15	4.613733e+14	1.441641e+04	6.093587e+03	2.603967e+03	0	1.012789e-03
3.100000e+08	3.025536e+13	0.000000e+00	5.606935e-01	8.605212e+14	1.705441e+15	4.589666e+14	1.439419e+04	6.085395e+03	2.600466e+03	0	1.003639e-03
3.200000e+08	2.943585e+13	0.000000e+00	5.606935e-01	8.525753e+14	1.686421e+15	4.565775e+14	1.437218e+04	6.077390e+03	2.597045e+03	0	9.944939e-04
3.300000e+08	2.863146e+13	0.000000e+00	5.606935e-01	8.447675e+14	1.667931e+15	4.542057e+14	1.435037e+04	6.069563e+03	2.593700e+03	0	9.853512e-04
3.400000e+08	2.784175e+13	0.000000e+00	5.606935e-01	8.370940e+14	1.649945e+15	4.518511e+14	1.432876e+04	6.061907e+03	2.590429e+03	0	9.762074e-04
3.500000e+08	2.706632e+13	0.000000e+00	5.606935e-01	8.295510e+14	1.632439e+15	4.495136e+14	1.430734e+04	6.054415e+03	2.587227e+03	0	9.670590e-04
3.600000e+08	2.630476e+13	0.000000e+00	5.606935e-01	8.221350e+14	1.615393e+15	4.471931e+14	1.428612e+04	6.047079e+03	2.584093e+03	0	9.579026e-04
3.700000e+08	2.555669e+13	0.000000e+00	5.606935e-01	8.148425e+14	1.598785e+15	4.448894e+14	1.426508e+04	6.039894e+03	2.581022e+03	0	9.487347e-04
3.800000e+08	2.482175e+13	0.000000e+00	5.606935e-01	8.076704e+14	1.582596e+15	4.426023e+14	1.424424e+04	6.032854e+03	2.578014e+03	0	9.395517e-04
3.900000e+08	2.409958e+13	0.000000e+00	5.606935e-01	8.006155e+14	1.566808e+15	4.403318e+14	1.422357e+04	6.025952e+03	2.575064e+03	0	9.303501e-04
4.000000e+08	2.338985e+13	0.000000e+00	5.606935e-01	7.936746e+14	1.551404e+15	4.380776e+14	1.420309e+04	6.019183e+03	2.572172e+03	0	9.211260e-04
4.100000e+08	2.269223e+13	0.000000e+00	5.606935e-01	7.868450e+14	1.536368e+15	4.358397e+14	1.418278e+04	6.012542e+03	2.569334e+03	0	9.118756e-04
4.200000e+08	2.200640e+13	0.000000e+00	5.606935e-01	7.801239e+14	1.521683e+15	4.336180e+14	1.416264e+04	6.006024e+03	2.566548e+03	0	9.025949e-04
4.300000e+08	2.133206e+13	0.000000e+00	5.606935e-01	7.735084e+14	1.507337e+15	4.314123e+14	1.414268e+04	5.999624e+03	2.563814e+03	0	8.932798e-04
4.400000e+08	2.066893e+13	0.000000e+00	5.606935e-01	7.669960e+14	1.493315e+15	4.292224e+14	1.412289e+04	5.993338e+03	2.561128e+03	0	8.839260e-04
4.500000e+08	2.001672e+13	0.000000e+00	5.606935e-01	7.605843e+14	1.479605e+15	4.270482e+14	1.410326e+04	5.987162e+03	2.558488e+03	0	8.745290e-04
4.600000e+08	1.937517e+13	0.000000e+00	5.606935e-01	7.542706e+14	1.466194e+15	4.248897e+14	1.408380e+04	5.981091e+03	2.555894e+03	0	8.650842e-04
4.700000e+08	1.874400e+13	0.000000e+00	5.606935e-01	7.480529e+14	1.453072e+15	4.227466e+14	1.406449e+04	5.975122e+03	2.553343e+03	0	8.555866e-04
4.800000e+08	1.812297e+13	0.000000e+00	5.606935e-01	7.419286e+14	1.440226e+15	4.206189e+14	1.404535e+04	5.969252e+03	2.550835e+03	0	8.460312e-04
4.900000e+08	1.751184e+13	0.000000e+00	5.606935e-01	7.358958e+14	1.427647e+15	4.185065e+14	1.402636e+04	5.963476e+03	2.548366e+03	0	8.364125e-04
5.000000e+08	1.691038e+13	0.000000e+00	5.606935e-01	7.299522e+14	1.415325e+15	4.164091e+14	1.400753e+04	5.957791e+03	2.545937e+03	0	8.267248e-04
5.100000e+08	1.631834e+13	0.000000e+00	5.606935e-01	7.240959e+14	1.403251e+15	4.143267e+14	1.398885e+04	5.952195e+03	2.543546e+03	0	8.169621e-04
5.200000e+08	1.573552e+13	0.000000e+00	5.606935e-01	7.183248e+14	1.391416e+15	4.122592e+14	1.397031e+04	5.946684e+03	2.541191e+03	0	8.071178e-04
5.300000e+08	1.516170e+13	0.000000e+00	5.606935e-01	7.126370e+14	1.379812e+15	4.102065e+14	1.395193e+04	5.941255e+03	2.538871e+03	0	7.971852e-04
5.400000e+08	1.459668e+13	0.000000e+00	5.606935e-01	7.070308e+14	1.368430e+15	4.081683e+14	1.393369e+04	5.935907e+03	2.536585e+03	0	7.871569e-04
5.500000e+08	1.404026e+13	0.000000e+00	5.606935e-01	7.015042e+14	1.357263e+15	4.061447e+14	1.391559e+04	5.930635e+03	2.534333e+03	0	7.770250e-04
5.600000e+08	1.349225e+13	0.000000e+00	5.606935e-01	6.960556e+14	1.346304e+15	4.041354e+14	1.389763e+04	5.925438e+03	2.532112e+03	0	7.667810e-04
5.700000e+08	1.295245e+13	0.000000e+00	5.606935e-01	6.906833e+14	1.335546e+15	4.021404e+14	1.387982e+04	5.920313e+03	2.529922e+03	0	7.564158e-04
5.800000e+08	1.242070e+13	0.000000e+00	5.606935e-01	6.853857e+14	1.324982e+15	4.001596e+14	1.386214e+04	5.915259e+03	2.527762e+03	0	7.459194e-04
5.900000e+08	1.189680e+13	0.000000e+00	5.606935e-01	6.801611e+14	1.314607e+15	3.981928e+14	1.384459e+04	5.910272e+03	2.525631e+03	0	7.352810e-04
6.000000e+08	1.138060e+13	0.000000e+00	5.606935e-01	6.750081e+14	1.304413e+15	3.962399e+14	1.382718e+04	5.905351e+03	2.523528e+03	0	7.244888e-04
6.100000e+08	1.087193e+13	0.000000e+00	5.606935e-01	6.699251e+14	1.294396e+15	3.943008e+14	1.380990e+04	5.900493e+03	2.521452e+03	0	7.135299e-04
6.200000e+08	1.037063e+13	0.000000e+00	5.606935e-01	6.649107e+14	1.284550e+15	3.923755e+14	1.379275e+04	5.895698e+03	2.519403e+03	0	7.023900e-04
6.300000e+08	9.876550e+12	0.000000e+00	5.606935e-01	6.599635e+14	1.274870e+15	3.904637e+14	1.377573e+04	5.890962e+03	2.517379e+03	0	6.910535e-04
6.400000e+08	9.389529e+12	0.000000e+00	5.606935e-01	6.550822e+14	1.265351e+15	3.885654e+14	1.375884e+04	5.886285e+03	2.515381e+03	0	6.795027e-04
6.500000e+08	8.909427e+12	0.000000e+00	5.606935e-01	6.502654e+14	1.255987e+15	3.866805e+14	1.374207e+04	5.881665e+03	2.513406e+03	0	6.677181e-04
6.600000e+08	8.436100e+12	0.000000e+00	5.606935e-01	6.455118e+14	1.246776e+15	3.848089e+14	1.372542e+04	5.877099e+03	2.511455e+03	0	6.556778e-04
6.700000e+08	7.969412e+12	0.000000e+00	5.606935e-01	6.408203e+14	1.237711e+15	3.829504e+14	1.370889e+04	5.872587e+03	2.509527e+03	0	6.433570e-04
6.800000e+08	7.509229e+12	0.000000e+00	5.606935e-01	6.361895e+14	1.228789e+15	3.811050e+14	1.369249e+04	5.868127e+03	2.507621e+03	0	6.307274e-04
6.900000e+08	7.055419e+12	0.000000e+00	5.606935e-01	6.316182e+14	1.220006e+15	3.792725e+14	1.367620e+04	5.863717e+03	2.505737e+03	0	6.177567e-04
7.000000e+08	6.607856e+12	0.000000e+00	5.606935e-01	6.271055e+14	1.211358e+15	3.774528e+14	1.366003e+04	5.859357e+03	2.503873e+03	0	6.044078e-04
7.100000e+08	6.166418e+12	0.000000e+00	5.606935e-01	6.226500e+14	1.202842e+15	3.756459e+14	1.364397e+04	5.855044e+03	2.502030e+03	0	5.906373e-04
7.200000e+08	5.730983e+12	0.000000e+00	5.606935e-01	6.182508e+14	1.194453e+15	3.738517e+14	1.362803e+04	5.850778e+03	2.500207e+03	0	5.763942e-04
7.300000e+08	5.301437e+12	0.000000e+00	5.606935e-01	6.139068e+14	1.186189e+15	3.720699e+14	1.361220e+04	5.846558e+03	2.498404e+03	0	5.616181e-04
7.400000e+08	4.877664e+12	0.000000e+00	5.606935e-01	6.096168e+14	1.178046e+15	3.703006e+14	1.359648e+04	5.842381e+03	2.496619e+03	0	5.462363e-04
7.500000e+08	4.459554e+12	0.000000e+00	5.606935e-01	6.053801e+14	1.170021e+15	3.685437e+14	1.358087e+04	5.838248e+03	2.494853e+03	0	5.301601e-04
7.600000e+08	4.047001e+12	0.000000e+00	5.606935e-01	6.011955e+14	1.162111e+15	3.667990e+14	1.356537e+04	5.834157e+03	2.493105e+03	0	5.132800e-04
7.700000e+08	3.639898e+12	0.000000e+00	5.606935e-01	5.970621e+14	1.154313e+15	3.650664e+14	1.354998e+04	5.830106e+03	2.491374e+03	0	4.954574e-04
7.800000e+08	3.238144e+12	0.000000e+00	5.606935e-01	5.929789e+14	1.146625e+15	3.633458e+14	1.353469e+04	5.826096e+03	2.489660e+03	0	4.765136e-04
7.900000e+08	2.841640e+12	0.000000e+00	5.606935e-01	5.889451e+14	1.139043e+15	3.616372e+14	1.351951e+04	5.822125e+03	2.487963e+03	0	4.562115e-04
8.000000e+08	2.450288e+12	0.000000e+00	5.606935e-01	5.849598e+14	1.131565e+15	3.599405e+14	1.350442e+04	5.818192e+03	2.486282e+03	0	4.342258e-04
8.100000e+08	2.063993e+12	0.000000e+00	5.606935e-01	5.810222e+14	1.124188e+15	3.582555e+14	1.348945e+04	5.814296e+03	2.484617e+03	0	4.100901e-04
8.200000e+08	1.682664e+12	0.000000e+00	5.606935e-01	5.771313e+14	1.116910e+15	3.565822e+14	1.347457e+04	5.810436e+03	2.482968e+03	0	3.830972e-04
8.300000e+08	1.306210e+12	0.000000e+00	5.606935e-01	5.732863e+14	1.109729e+15	3.549205e+14	1.345979e+04	5.806611e+03	2.481334e+03	0	3.520850e-04
8.400000e+08	9.345437e+11	0.000000e+00	5.606935e-01	5.694865e+14	1.102643e+15	3.532702e+14	1.344511e+04	5.802822e+03	2.479714e+03	0	3.149027e-04
8.500000e+08	5.675798e+11	0.000000e+00	5.606935e-01	5.657311e+14	1.095648e+15	3.516313e+14	1.343052e+04	5.799066e+03	2.478109e+03	0	2.666770e-04
8.600000e+08	2.052346e+11	0.000000e+00	5.606935e-01	5.620193e+14	1.088744e+15	3.500037e+14	1.341603e+04	5.795343e+03	2.476519e+03	0	1.899883e-04
8.700000e+08	-1.525736e+11	0.000000e+00	5.606935e-01	5.583503e+14	1.081928e+15	3.483873e+14	1.340164e+04	5.791653e+03	2.474942e+03	0	nan
