#t		Qconv[W]	Ri[Rp]		R*[Rp]		Qc[W]		Qm[W]		Qr[W]		Tcmb[K]		Tl[K]		Tup[K]		RiFlag		Bs[T]
0.000000e+00	1.202842e+14	0.000000e+00	5.606935e-01	1.808218e+15	3.018489e+15	5.752298e+14	1.682340e+04	6.957517e+03	2.808901e+03	0	1.588505e-03
1.000000e+07	1.175497e+14	0.000000e+00	5.606935e-01	1.783466e+15	2.972798e+15	5.720426e+14	1.678103e+04	6.944895e+03	2.803805e+03	0	1.576375e-03
2.000000e+07	1.148843e+14	0.000000e+00	5.606935e-01	1.759316e+15	2.928731e+15	5.688792e+14	1.673925e+04	6.932621e+03	2.798850e+03	0	1.564369e-03
3.000000e+07	1.122854e+14	0.000000e+00	5.606935e-01	1.735746e+15	2.886190e+15	5.657395e+14	1.669802e+04	6.920677e+03	2.794027e+03	0	1.552482e-03
4.000000e+07	1.097506e+14	0.000000e+00	5.606935e-01	1.712735e+15	2.845084e+15	5.626232e+14	1.665735e+04	6.909043e+03	2.789331e+03	0	1.540711e-03
5.000000e+07	1.072775e+14	0.000000e+00	5.606935e-01	1.690262e+15	2.805333e+15	5.595302e+14	1.661722e+04	6.897704e+03	2.784753e+03	0	1.529051e-03
6.000000e+07	1.048641e+14	0.000000e+00	5.606935e-01	1.668310e+15	2.766859e+15	5.564602e+14	1.657760e+04	6.886644e+03	2.780288e+03	0	1.517497e-03
7.000000e+07	1.025082e+14	0.000000e+00	5.606935e-01	1.646860e+15	2.729593e+15	5.534131e+14	1.653850e+04	6.875848e+03	2.775929e+03	0	1.506047e-03
8.000000e+07	1.002077e+14	0.000000e+00	5.606935e-01	1.625895e+15	2.693469e+15	5.503887e+14	1.649991e+04	6.865303e+03	2.771672e+03	0	1.494695e-03
9.000000e+07	9.796086e+13	0.000000e+00	5.606935e-01	1.605399e+15	2.658428e+15	5.473867e+14	1.646180e+04	6.854997e+03	2.767511e+03	0	1.483439e-03
1.000000e+08	9.576581e+13	0.000000e+00	5.606935e-01	1.585356e+15	2.624414e+15	5.444070e+14	1.642417e+04	6.844919e+03	2.763442e+03	0	1.472275e-03
1.100000e+08	9.362083e+13	0.000000e+00	5.606935e-01	1.565752e+15	2.591376e+15	5.414494e+14	1.638700e+04	6.835056e+03	2.759461e+03	0	1.461200e-03
1.200000e+08	9.152428e+13	0.000000e+00	5.606935e-01	1.546571e+15	2.559265e+15	5.385138e+14	1.635030e+04	6.825400e+03	2.755562e+03	0	1.450210e-03
1.300000e+08	8.947458e+13	0.000000e+00	5.606935e-01	1.527802e+15	2.528036e+15	5.355999e+14	1.631404e+04	6.815941e+03	2.751743e+03	0	1.439303e-03
1.400000e+08	8.747024e+13	0.000000e+00	5.606935e-01	1.509430e+15	2.497649e+15	5.327075e+14	1.627822e+04	6.806670e+03	2.748000e+03	0	1.428474e-03
1.500000e+08	8.550981e+13	0.000000e+00	5.606935e-01	1.491444e+15	2.468063e+15	5.298366e+14	1.624283e+04	6.797578e+03	2.744330e+03	0	1.417721e-03
1.600000e+08	8.359192e+13	0.000000e+00	5.606935e-01	1.473831e+15	2.439243e+15	5.269868e+14	1.620786e+04	6.788659e+03	2.740729e+03	0	1.407042e-03
1.700000e+08	8.171525e+13	0.000000e+00	5.606935e-01	1.456581e+15	2.411155e+15	5.241581e+14	1.617330e+04	6.779904e+03	2.737195e+03	0	1.396433e-03
1.800000e+08	7.987854e+13	0.000000e+00	5.606935e-01	1.439681e+15	2.383766e+15	5.213502e+14	1.613915e+04	6.771308e+03	2.733724e+03	0	1.385891e-03
1.900000e+08	7.808059e+13	0.000000e+00	5.606935e-01	1.423123e+15	2.357047e+15	5.185630e+14	1.610539e+04	6.762863e+03	2.730314e+03	0	1.375413e-03
2.000000e+08	7.632022e+13	0.000000e+00	5.606935e-01	1.406895e+15	2.330970e+15	5.157964e+14	1.607201e+04	6.754563e+03	2.726964e+03	0	1.364998e-03
2.100000e+08	7.459632e+13	0.000000e+00	5.606935e-01	1.390989e+15	2.305507e+15	5.130500e+14	1.603902e+04	6.746403e+03	2.723669e+03	0	1.354643e-03
2.200000e+08	7.290784e+13	0.000000e+00	5.606935e-01	1.375395e+15	2.280636e+15	5.103239e+14	1.600639e+04	6.738377e+03	2.720429e+03	0	1.344344e-03
2.300000e+08	7.125373e+13	0.000000e+00	5.606935e-01	1.360103e+15	2.256331e+15	5.076177e+14	1.597413e+04	6.730481e+03	2.717241e+03	0	1.334099e-03
2.400000e+08	6.963301e+13	0.000000e+00	5.606935e-01	1.345107e+15	2.232570e+15	5.049314e+14	1.594223e+04	6.722709e+03	2.714104e+03	0	1.323906e-03
2.500000e+08	6.804473e+13	0.000000e+00	5.606935e-01	1.330396e+15	2.209334e+15	5.022647e+14	1.591068e+04	6.715057e+03	2.711015e+03	0	1.313763e-03
2.600000e+08	6.648797e+13	0.000000e+00	5.606935e-01	1.315964e+15	2.186602e+15	4.996176e+14	1.587947e+04	6.707521e+03	2.707972e+03	0	1.303667e-03
2.700000e+08	6.496187e+13	0.000000e+00	5.606935e-01	1.301803e+15	2.164356e+15	4.969898e+14	1.584860e+04	6.700097e+03	2.704975e+03	0	1.293615e-03
2.800000e+08	6.346556e+13	0.000000e+00	5.606935e-01	1.287905e+15	2.142578e+15	4.943812e+14	1.581806e+04	6.692781e+03	2.702021e+03	0	1.283606e-03
2.900000e+08	6.199823e+13	0.000000e+00	5.606935e-01	1.274264e+15	2.121251e+15	4.917917e+14	1.578785e+04	6.685568e+03	2.699109e+03	0	1.273636e-03
3.000000e+08	6.055910e+13	0.000000e+00	5.606935e-01	1.260872e+15	2.100359e+15	4.892210e+14	1.575795e+04	6.678457e+03	2.696238e+03	0	1.263704e-03
3.100000e+08	5.914741e+13	0.000000e+00	5.606935e-01	1.247723e+15	2.079888e+15	4.866691e+14	1.572837e+04	6.671442e+03	2.693406e+03	0	1.253807e-03
3.200000e+08	5.776243e+13	0.000000e+00	5.606935e-01	1.234811e+15	2.059823e+15	4.841357e+14	1.569910e+04	6.664522e+03	2.690612e+03	0	1.243944e-03
3.300000e+08	5.640344e+13	0.000000e+00	5.606935e-01	1.222129e+15	2.040150e+15	4.816208e+14	1.567013e+04	6.657694e+03	2.687856e+03	0	1.234111e-03
3.400000e+08	5.506978e+13	0.000000e+00	5.606935e-01	1.209672e+15	2.020857e+15	4.791241e+14	1.564145e+04	6.650954e+03	2.685135e+03	0	1.224306e-03
3.500000e+08	5.376079e+13	0.000000e+00	5.606935e-01	1.197434e+15	2.001931e+15	4.766455e+14	1.561306e+04	6.644300e+03	2.682448e+03	0	1.214528e-03
3.600000e+08	5.247582e+13	0.000000e+00	5.606935e-01	1.185409e+15	1.983361e+15	4.741849e+14	1.558497e+04	6.637729e+03	2.679795e+03	0	1.204773e-03
3.700000e+08	5.121426e+13	0.000000e+00	5.606935e-01	1.173592e+15	1.965135e+15	4.717421e+14	1.555715e+04	6.631239e+03	2.677175e+03	0	1.195040e-03
3.800000e+08	4.997553e+13	0.000000e+00	5.606935e-01	1.161978e+15	1.947243e+15	4.693170e+14	1.552961e+04	6.624827e+03	2.674587e+03	0	1.185327e-03
3.900000e+08	4.875905e+13	0.000000e+00	5.606935e-01	1.150562e+15	1.929674e+15	4.669094e+14	1.550234e+04	6.618492e+03	2.672029e+03	0	1.175630e-03
4.000000e+08	4.756427e+13	0.000000e+00	5.606935e-01	1.139339e+15	1.912419e+15	4.645192e+14	1.547533e+04	6.612231e+03	2.669501e+03	0	1.165948e-03
4.100000e+08	4.639064e+13	0.000000e+00	5.606935e-01	1.128304e+15	1.895469e+15	4.621463e+14	1.544860e+04	6.606042e+03	2.667003e+03	0	1.156278e-03
4.200000e+08	4.523766e+13	0.000000e+00	5.606935e-01	1.117453e+15	1.878814e+15	4.597904e+14	1.542211e+04	6.599923e+03	2.664532e+03	0	1.146619e-03
4.300000e+08	4.410481e+13	0.000000e+00	5.606935e-01	1.106782e+15	1.862446e+15	4.574516e+14	1.539589e+04	6.593873e+03	2.662090e+03	0	1.136966e-03
4.400000e+08	4.299161e+13	0.000000e+00	5.606935e-01	1.096286e+15	1.846358e+15	4.551295e+14	1.536991e+04	6.587889e+03	2.659674e+03	0	1.127319e-03
4.500000e+08	4.189760e+13	0.000000e+00	5.606935e-01	1.085961e+15	1.830540e+15	4.528241e+14	1.534417e+04	6.581969e+03	2.657284e+03	0	1.117674e-03
4.600000e+08	4.082231e+13	0.000000e+00	5.606935e-01	1.075803e+15	1.814986e+15	4.505353e+14	1.531868e+04	6.576113e+03	2.654920e+03	0	1.108030e-03
4.700000e+08	3.976530e+13	0.000000e+00	5.606935e-01	1.065808e+15	1.799688e+15	4.482629e+14	1.529343e+04	6.570319e+03	2.652580e+03	0	1.098383e-03
4.800000e+08	3.872614e+13	0.000000e+00	5.606935e-01	1.055973e+15	1.784640e+15	4.460068e+14	1.526841e+04	6.564584e+03	2.650265e+03	0	1.088730e-03
4.900000e+08	3.770443e+13	0.000000e+00	5.606935e-01	1.046294e+15	1.769835e+15	4.437668e+14	1.524362e+04	6.558909e+03	2.647974e+03	0	1.079070e-03
5.000000e+08	3.669975e+13	0.000000e+00	5.606935e-01	1.036768e+15	1.755266e+15	4.415429e+14	1.521906e+04	6.553290e+03	2.645706e+03	0	1.069399e-03
5.100000e+08	3.571172e+13	0.000000e+00	5.606935e-01	1.027390e+15	1.740927e+15	4.393348e+14	1.519472e+04	6.547728e+03	2.643460e+03	0	1.059715e-03
5.200000e+08	3.473995e+13	0.000000e+00	5.606935e-01	1.018158e+15	1.726813e+15	4.371425e+14	1.517060e+04	6.542220e+03	2.641236e+03	0	1.050015e-03
5.300000e+08	3.378409e+13	0.000000e+00	5.606935e-01	1.009069e+15	1.712918e+15	4.349658e+14	1.514669e+04	6.536765e+03	2.639034e+03	0	1.040295e-03
5.400000e+08	3.284376e+13	0.000000e+00	5.606935e-01	1.000118e+15	1.699235e+15	4.328047e+14	1.512300e+04	6.531362e+03	2.636853e+03	0	1.030552e-03
5.500000e+08	3.191863e+13	0.000000e+00	5.606935e-01	9.913045e+14	1.685761e+15	4.306589e+14	1.509952e+04	6.526011e+03	2.634692e+03	0	1.020784e-03
5.600000e+08	3.100836e+13	0.000000e+00	5.606935e-01	9.826239e+14	1.672490e+15	4.285283e+14	1.507625e+04	6.520709e+03	2.632552e+03	0	1.010986e-03
5.700000e+08	3.011261e+13	0.000000e+00	5.606935e-01	9.740738e+14	1.659416e+15	4.264129e+14	1.505317e+04	6.515457e+03	2.630431e+03	0	1.001156e-03
5.800000e+08	2.923109e+13	0.000000e+00	5.606935e-01	9.656514e+14	1.646536e+15	4.243125e+14	1.503030e+04	6.510252e+03	2.628330e+03	0	9.912896e-04
5.900000e+08	2.836346e+13	0.000000e+00	5.606935e-01	9.573540e+14	1.633845e+15	4.222270e+14	1.500763e+04	6.505094e+03	2.626248e+03	0	9.813833e-04
6.000000e+08	2.750944e+13	0.000000e+00	5.606935e-01	9.491790e+14	1.621337e+15	4.201563e+14	1.498515e+04	6.499982e+03	2.624184e+03	0	9.714330e-04
6.100000e+08	2.666874e+13	0.000000e+00	5.606935e-01	9.411237e+14	1.609010e+15	4.181002e+14	1.496286e+04	6.494914e+03	2.622138e+03	0	9.614346e-04
6.200000e+08	2.584106e+13	0.000000e+00	5.606935e-01	9.331857e+14	1.596859e+15	4.160586e+14	1.494076e+04	6.489891e+03	2.620110e+03	0	9.513836e-04
6.300000e+08	2.502614e+13	0.000000e+00	5.606935e-01	9.253626e+14	1.584879e+15	4.140315e+14	1.491884e+04	6.484911e+03	2.618099e+03	0	9.412757e-04
6.400000e+08	2.422370e+13	0.000000e+00	5.606935e-01	9.176521e+14	1.573068e+15	4.120186e+14	1.489711e+04	6.479973e+03	2.616106e+03	0	9.311059e-04
6.500000e+08	2.343348e+13	0.000000e+00	5.606935e-01	9.100517e+14	1.561421e+15	4.100199e+14	1.487556e+04	6.475077e+03	2.614129e+03	0	9.208690e-04
6.600000e+08	2.265524e+13	0.000000e+00	5.606935e-01	9.025594e+14	1.549934e+15	4.080353e+14	1.485419e+04	6.470221e+03	2.612169e+03	0	9.105598e-04
6.700000e+08	2.188872e+13	0.000000e+00	5.606935e-01	8.951728e+14	1.538605e+15	4.060646e+14	1.483299e+04	6.465405e+03	2.610225e+03	0	9.001724e-04
6.800000e+08	2.113368e+13	0.000000e+00	5.606935e-01	8.878900e+14	1.527429e+15	4.041078e+14	1.481196e+04	6.460629e+03	2.608296e+03	0	8.897008e-04
6.900000e+08	2.038989e+13	0.000000e+00	5.606935e-01	8.807088e+14	1.516404e+15	4.021647e+14	1.479111e+04	6.455891e+03	2.606383e+03	0	8.791383e-04
7.000000e+08	1.965712e+13	0.000000e+00	5.606935e-01	8.736272e+14	1.505527e+15	4.002352e+14	1.477042e+04	6.451191e+03	2.604486e+03	0	8.684782e-04
7.100000e+08	1.893515e+13	0.000000e+00	5.606935e-01	8.666433e+14	1.494793e+15	3.983193e+14	1.474990e+04	6.446528e+03	2.602603e+03	0	8.577127e-04
7.200000e+08	1.822376e+13	0.000000e+00	5.606935e-01	8.597552e+14	1.484201e+15	3.964167e+14	1.472955e+04	6.441901e+03	2.600735e+03	0	8.468339e-04
7.300000e+08	1.752274e+13	0.000000e+00	5.606935e-01	8.529610e+14	1.473748e+15	3.945274e+14	1.470935e+04	6.437310e+03	2.598882e+03	0	8.358332e-04
7.400000e+08	1.683189e+13	0.000000e+00	5.606935e-01	8.462588e+14	1.463430e+15	3.926513e+14	1.468932e+04	6.432755e+03	2.597043e+03	0	8.247010e-04
7.500000e+08	1.615100e+13	0.000000e+00	5.606935e-01	8.396470e+14	1.453244e+15	3.907883e+14	1.466944e+04	6.428234e+03	2.595218e+03	0	8.134273e-04
7.600000e+08	1.547988e+13	0.000000e+00	5.606935e-01	8.331238e+14	1.443189e+15	3.889383e+14	1.464971e+04	6.423747e+03	2.593406e+03	0	8.020008e-04
7.700000e+08	1.481835e+13	0.000000e+00	5.606935e-01	8.266875e+14	1.433262e+15	3.871012e+14	1.463014e+04	6.419294e+03	2.591608e+03	0	7.904095e-04
7.800000e+08	1.416620e+13	0.000000e+00	5.606935e-01	8.203365e+14	1.423459e+15	3.852768e+14	1.461072e+04	6.414873e+03	2.589824e+03	0	7.786400e-04
7.900000e+08	1.352327e+13	0.000000e+00	5.606935e-01	8.140692e+14	1.413779e+15	3.834651e+14	1.459145e+04	6.410485e+03	2.588052e+03	0	7.666777e-04
8.000000e+08	1.288938e+13	0.000000e+00	5.606935e-01	8.078841e+14	1.404220e+15	3.816659e+14	1.457233e+04	6.406129e+03	2.586293e+03	0	7.545064e-04
8.100000e+08	1.226435e+13	0.000000e+00	5.606935e-01	8.017795e+14	1.394778e+15	3.798792e+14	1.455335e+04	6.401804e+03	2.584547e+03	0	7.421080e-04
8.200000e+08	1.164802e+13	0.000000e+00	5.606935e-01	7.957541e+14	1.385452e+15	3.781049e+14	1.453451e+04	6.397511e+03	2.582814e+03	0	7.294625e-04
8.300000e+08	1.104022e+13	0.000000e+00	5.606935e-01	7.898063e+14	1.376240e+15	3.763428e+14	1.451582e+04	6.393247e+03	2.581093e+03	0	7.165473e-04
8.400000e+08	1.044080e+13	0.000000e+00	5.606935e-01	7.839348e+14	1.367139e+15	3.745930e+14	1.449726e+04	6.389013e+03	2.579383e+03	0	7.033370e-04
8.500000e+08	9.849591e+12	0.000000e+00	5.606935e-01	7.781381e+14	1.358147e+15	3.728552e+14	1.447884e+04	6.384809e+03	2.577686e+03	0	6.898028e-04
8.600000e+08	9.266450e+12	0.000000e+00	5.606935e-01	7.724150e+14	1.349263e+15	3.711293e+14	1.446056e+04	6.380634e+03	2.576001e+03	0	6.759118e-04
8.700000e+08	8.691224e+12	0.000000e+00	5.606935e-01	7.667641e+14	1.340484e+15	3.694154e+14	1.444241e+04	6.376488e+03	2.574327e+03	0	6.616260e-04
8.800000e+08	8.123771e+12	0.000000e+00	5.606935e-01	7.611841e+14	1.331809e+15	3.677132e+14	1.442439e+04	6.372370e+03	2.572664e+03	0	6.469015e-04
8.900000e+08	7.563946e+12	0.000000e+00	5.606935e-01	7.556738e+14	1.323235e+15	3.660228e+14	1.440651e+04	6.368279e+03	2.571013e+03	0	6.316867e-04
9.000000e+08	7.011613e+12	0.000000e+00	5.606935e-01	7.502320e+14	1.314761e+15	3.643439e+14	1.438875e+04	6.364216e+03	2.569372e+03	0	6.159208e-04
9.100000e+08	6.466635e+12	0.000000e+00	5.606935e-01	7.448573e+14	1.306386e+15	3.626765e+14	1.437113e+04	6.360180e+03	2.567743e+03	0	5.995311e-04
9.200000e+08	5.928882e+12	0.000000e+00	5.606935e-01	7.395487e+14	1.298106e+15	3.610206e+14	1.435362e+04	6.356171e+03	2.566124e+03	0	5.824292e-04
9.300000e+08	5.398222e+12	0.000000e+00	5.606935e-01	7.343051e+14	1.289921e+15	3.593760e+14	1.433624e+04	6.352187e+03	2.564516e+03	0	5.645068e-04
9.400000e+08	4.874531e+12	0.000000e+00	5.606935e-01	7.291252e+14	1.281829e+15	3.577426e+14	1.431899e+04	6.348230e+03	2.562918e+03	0	5.456278e-04
9.500000e+08	4.357685e+12	0.000000e+00	5.606935e-01	7.240080e+14	1.273829e+15	3.561204e+14	1.430186e+04	6.344298e+03	2.561331e+03	0	5.256188e-04
9.600000e+08	3.847563e+12	0.000000e+00	5.606935e-01	7.189525e+14	1.265918e+15	3.545093e+14	1.428484e+04	6.340391e+03	2.559754e+03	0	5.042519e-04
9.700000e+08	3.344049e+12	0.000000e+00	5.606935e-01	7.139575e+14	1.258096e+15	3.529091e+14	1.426795e+04	6.336509e+03	2.558186e+03	0	4.812194e-04
9.800000e+08	2.847025e+12	0.000000e+00	5.606935e-01	7.090221e+14	1.250360e+15	3.513198e+14	1.425117e+04	6.332652e+03	2.556629e+03	0	4.560888e-04
9.900000e+08	2.356381e+12	0.000000e+00	5.606935e-01	7.041452e+14	1.242710e+15	3.497413e+14	1.423451e+04	6.328819e+03	2.555082e+03	0	4.282205e-04
1.000000e+09	1.872006e+12	0.000000e+00	5.606935e-01	6.993259e+14	1.235144e+15	3.481735e+14	1.421796e+04	6.325009e+03	2.553544e+03	0	3.966018e-04
1.010000e+09	1.393791e+12	0.000000e+00	5.606935e-01	6.945632e+14	1.227660e+15	3.466164e+14	1.420152e+04	6.321223e+03	2.552015e+03	0	3.594608e-04
1.020000e+09	9.216330e+11	0.000000e+00	5.606935e-01	6.898562e+14	1.220258e+15	3.450698e+14	1.418520e+04	6.317461e+03	2.550496e+03	0	3.131638e-04
1.030000e+09	4.554274e+11	0.000000e+00	5.606935e-01	6.852040e+14	1.212935e+15	3.435336e+14	1.416899e+04	6.313721e+03	2.548986e+03	0	2.475856e-04
1.040000e+09	-4.926250e+09	0.000000e+00	5.606935e-01	6.806056e+14	1.205691e+15	3.420079e+14	1.415288e+04	6.310004e+03	2.547486e+03	0	nan
