#t		Qconv[W]	Ri[Rp]		R*[Rp]		Qc[W]		Qm[W]		Qr[W]		Tcmb[K]		Tl[K]		Tup[K]		RiFlag		Bs[T]
0.000000e+00	1.209144e+14	0.000000e+00	5.606937e-01	1.891936e+15	2.992256e+15	5.963712e+14	1.725595e+04	7.088830e+03	2.828817e+03	0	1.589953e-03
1.000000e+07	1.181753e+14	0.000000e+00	5.606937e-01	1.867384e+15	2.955440e+15	5.930669e+14	1.721396e+04	7.079108e+03	2.824938e+03	0	1.577855e-03
2.000000e+07	1.154995e+14	0.000000e+00	5.606937e-01	1.843379e+15	2.919559e+15	5.897873e+14	1.717252e+04	7.069556e+03	2.821126e+03	0	1.565855e-03
3.000000e+07	1.128852e+14	0.000000e+00	5.606937e-01	1.819902e+15	2.884572e+15	5.865322e+14	1.713161e+04	7.060168e+03	2.817380e+03	0	1.553951e-03
4.000000e+07	1.103304e+14	0.000000e+00	5.606937e-01	1.796938e+15	2.850442e+15	5.833014e+14	1.709122e+04	7.050936e+03	2.813696e+03	0	1.542138e-03
5.000000e+07	1.078331e+14	0.000000e+00	5.606937e-01	1.774470e+15	2.817133e+15	5.800946e+14	1.705133e+04	7.041855e+03	2.810072e+03	0	1.530414e-03
6.000000e+07	1.053915e+14	0.000000e+00	5.606937e-01	1.752483e+15	2.784614e+15	5.769118e+14	1.701195e+04	7.032920e+03	2.806506e+03	0	1.518775e-03
7.000000e+07	1.030040e+14	0.000000e+00	5.606937e-01	1.730962e+15	2.752852e+15	5.737527e+14	1.697304e+04	7.024124e+03	2.802996e+03	0	1.507219e-03
8.000000e+07	1.006688e+14	0.000000e+00	5.606937e-01	1.709893e+15	2.721818e+15	5.706171e+14	1.693462e+04	7.015463e+03	2.799540e+03	0	1.495741e-03
9.000000e+07	9.838436e+13	0.000000e+00	5.606937e-01	1.689263e+15	2.691484e+15	5.675048e+14	1.689666e+04	7.006932e+03	2.796136e+03	0	1.484341e-03
1.000000e+08	9.614915e+13	0.000000e+00	5.606937e-01	1.669058e+15	2.661825e+15	5.644156e+14	1.685915e+04	6.998527e+03	2.792782e+03	0	1.473014e-03
1.100000e+08	9.396169e+13	0.000000e+00	5.606937e-01	1.649267e+15	2.632815e+15	5.613494e+14	1.682210e+04	6.990243e+03	2.789476e+03	0	1.461757e-03
1.200000e+08	9.182056e+13	0.000000e+00	5.606937e-01	1.629876e+15	2.604431e+15	5.583058e+14	1.678548e+04	6.982076e+03	2.786217e+03	0	1.450569e-03
1.300000e+08	8.972442e+13	0.000000e+00	5.606937e-01	1.610875e+15	2.576651e+15	5.552848e+14	1.674929e+04	6.974022e+03	2.783003e+03	0	1.439445e-03
1.400000e+08	8.767194e+13	0.000000e+00	5.606937e-01	1.592252e+15	2.549454e+15	5.522862e+14	1.671352e+04	6.966078e+03	2.779833e+03	0	1.428385e-03
1.500000e+08	8.566188e+13	0.000000e+00	5.606937e-01	1.573997e+15	2.522819e+15	5.493097e+14	1.667816e+04	6.958240e+03	2.776705e+03	0	1.417384e-03
1.600000e+08	8.369302e+13	0.000000e+00	5.606937e-01	1.556099e+15	2.496728e+15	5.463552e+14	1.664321e+04	6.950505e+03	2.773619e+03	0	1.406440e-03
1.700000e+08	8.176419e+13	0.000000e+00	5.606937e-01	1.538549e+15	2.471162e+15	5.434225e+14	1.660865e+04	6.942871e+03	2.770572e+03	0	1.395552e-03
1.800000e+08	7.987427e+13	0.000000e+00	5.606937e-01	1.521336e+15	2.446105e+15	5.405114e+14	1.657448e+04	6.935333e+03	2.767564e+03	0	1.384716e-03
1.900000e+08	7.802219e+13	0.000000e+00	5.606937e-01	1.504452e+15	2.421540e+15	5.376218e+14	1.654069e+04	6.927889e+03	2.764593e+03	0	1.373929e-03
2.000000e+08	7.620689e+13	0.000000e+00	5.606937e-01	1.487888e+15	2.397451e+15	5.347535e+14	1.650727e+04	6.920536e+03	2.761659e+03	0	1.363190e-03
2.100000e+08	7.442737e+13	0.000000e+00	5.606937e-01	1.471635e+15	2.373824e+15	5.319062e+14	1.647422e+04	6.913273e+03	2.758761e+03	0	1.352495e-03
2.200000e+08	7.268266e+13	0.000000e+00	5.606937e-01	1.455685e+15	2.350644e+15	5.290798e+14	1.644153e+04	6.906096e+03	2.755897e+03	0	1.341844e-03
2.300000e+08	7.097183e+13	0.000000e+00	5.606937e-01	1.440030e+15	2.327897e+15	5.262742e+14	1.640920e+04	6.899003e+03	2.753066e+03	0	1.331232e-03
2.400000e+08	6.929397e+13	0.000000e+00	5.606937e-01	1.424662e+15	2.305571e+15	5.234891e+14	1.637721e+04	6.891992e+03	2.750269e+03	0	1.320657e-03
2.500000e+08	6.764821e+13	0.000000e+00	5.606937e-01	1.409573e+15	2.283654e+15	5.207245e+14	1.634556e+04	6.885060e+03	2.747503e+03	0	1.310118e-03
2.600000e+08	6.603370e+13	0.000000e+00	5.606937e-01	1.394758e+15	2.262132e+15	5.179801e+14	1.631424e+04	6.878206e+03	2.744768e+03	0	1.299611e-03
2.700000e+08	6.444963e+13	0.000000e+00	5.606937e-01	1.380208e+15	2.240995e+15	5.152557e+14	1.628326e+04	6.871428e+03	2.742063e+03	0	1.289135e-03
2.800000e+08	6.289522e+13	0.000000e+00	5.606937e-01	1.365916e+15	2.220232e+15	5.125513e+14	1.625259e+04	6.864724e+03	2.739387e+03	0	1.278687e-03
2.900000e+08	6.136971e+13	0.000000e+00	5.606937e-01	1.351877e+15	2.199833e+15	5.098665e+14	1.622224e+04	6.858092e+03	2.736741e+03	0	1.268264e-03
3.000000e+08	5.987235e+13	0.000000e+00	5.606937e-01	1.338084e+15	2.179786e+15	5.072014e+14	1.619220e+04	6.851530e+03	2.734122e+03	0	1.257864e-03
3.100000e+08	5.840244e+13	0.000000e+00	5.606937e-01	1.324531e+15	2.160084e+15	5.045557e+14	1.616247e+04	6.845037e+03	2.731531e+03	0	1.247485e-03
3.200000e+08	5.695929e+13	0.000000e+00	5.606937e-01	1.311213e+15	2.140716e+15	5.019292e+14	1.613304e+04	6.838610e+03	2.728967e+03	0	1.237124e-03
3.300000e+08	5.554223e+13	0.000000e+00	5.606937e-01	1.298122e+15	2.121673e+15	4.993218e+14	1.610390e+04	6.832249e+03	2.726428e+03	0	1.226778e-03
3.400000e+08	5.415062e+13	0.000000e+00	5.606937e-01	1.285255e+15	2.102947e+15	4.967334e+14	1.607505e+04	6.825953e+03	2.723916e+03	0	1.216446e-03
3.500000e+08	5.278384e+13	0.000000e+00	5.606937e-01	1.272604e+15	2.084529e+15	4.941637e+14	1.604649e+04	6.819718e+03	2.721428e+03	0	1.206124e-03
3.600000e+08	5.144127e+13	0.000000e+00	5.606937e-01	1.260167e+15	2.066413e+15	4.916127e+14	1.601821e+04	6.813545e+03	2.718964e+03	0	1.195810e-03
3.700000e+08	5.012234e+13	0.000000e+00	5.606937e-01	1.247936e+15	2.048589e+15	4.890801e+14	1.599020e+04	6.807432e+03	2.716525e+03	0	1.185501e-03
3.800000e+08	4.882648e+13	0.000000e+00	5.606937e-01	1.235908e+15	2.031050e+15	4.865658e+14	1.596247e+04	6.801378e+03	2.714109e+03	0	1.175195e-03
3.900000e+08	4.755313e+13	0.000000e+00	5.606937e-01	1.224077e+15	2.013791e+15	4.840698e+14	1.593500e+04	6.795381e+03	2.711716e+03	0	1.164889e-03
4.000000e+08	4.630176e+13	0.000000e+00	5.606937e-01	1.212440e+15	1.996802e+15	4.815917e+14	1.590779e+04	6.789440e+03	2.709345e+03	0	1.154580e-03
4.100000e+08	4.507187e+13	0.000000e+00	5.606937e-01	1.200991e+15	1.980079e+15	4.791316e+14	1.588084e+04	6.783554e+03	2.706996e+03	0	1.144265e-03
4.200000e+08	4.386293e+13	0.000000e+00	5.606937e-01	1.189727e+15	1.963614e+15	4.766891e+14	1.585414e+04	6.777722e+03	2.704669e+03	0	1.133942e-03
4.300000e+08	4.267448e+13	0.000000e+00	5.606937e-01	1.178643e+15	1.947401e+15	4.742643e+14	1.582770e+04	6.771943e+03	2.702363e+03	0	1.123607e-03
4.400000e+08	4.150603e+13	0.000000e+00	5.606937e-01	1.167735e+15	1.931435e+15	4.718569e+14	1.580150e+04	6.766216e+03	2.700077e+03	0	1.113257e-03
4.500000e+08	4.035713e+13	0.000000e+00	5.606937e-01	1.156999e+15	1.915709e+15	4.694668e+14	1.577554e+04	6.760539e+03	2.697812e+03	0	1.102889e-03
4.600000e+08	3.922733e+13	0.000000e+00	5.606937e-01	1.146432e+15	1.900219e+15	4.670939e+14	1.574982e+04	6.754913e+03	2.695567e+03	0	1.092499e-03
4.700000e+08	3.811620e+13	0.000000e+00	5.606937e-01	1.136029e+15	1.884958e+15	4.647379e+14	1.572433e+04	6.749335e+03	2.693341e+03	0	1.082085e-03
4.800000e+08	3.702333e+13	0.000000e+00	5.606937e-01	1.125787e+15	1.869921e+15	4.623989e+14	1.569907e+04	6.743806e+03	2.691135e+03	0	1.071643e-03
4.900000e+08	3.594831e+13	0.000000e+00	5.606937e-01	1.115703e+15	1.855104e+15	4.600766e+14	1.567404e+04	6.738323e+03	2.688947e+03	0	1.061169e-03
5.000000e+08	3.489073e+13	0.000000e+00	5.606937e-01	1.105772e+15	1.840501e+15	4.577709e+14	1.564924e+04	6.732887e+03	2.686777e+03	0	1.050659e-03
5.100000e+08	3.385022e+13	0.000000e+00	5.606937e-01	1.095993e+15	1.826108e+15	4.554817e+14	1.562465e+04	6.727496e+03	2.684626e+03	0	1.040109e-03
5.200000e+08	3.282640e+13	0.000000e+00	5.606937e-01	1.086361e+15	1.811919e+15	4.532088e+14	1.560028e+04	6.722150e+03	2.682493e+03	0	1.029515e-03
5.300000e+08	3.181891e+13	0.000000e+00	5.606937e-01	1.076874e+15	1.797932e+15	4.509521e+14	1.557613e+04	6.716848e+03	2.680377e+03	0	1.018873e-03
5.400000e+08	3.082739e+13	0.000000e+00	5.606937e-01	1.067528e+15	1.784141e+15	4.487115e+14	1.555218e+04	6.711589e+03	2.678278e+03	0	1.008178e-03
5.500000e+08	2.985151e+13	0.000000e+00	5.606937e-01	1.058320e+15	1.770541e+15	4.464869e+14	1.552845e+04	6.706372e+03	2.676196e+03	0	9.974252e-04
5.600000e+08	2.889092e+13	0.000000e+00	5.606937e-01	1.049248e+15	1.757130e+15	4.442781e+14	1.550491e+04	6.701197e+03	2.674131e+03	0	9.866097e-04
5.700000e+08	2.794531e+13	0.000000e+00	5.606937e-01	1.040308e+15	1.743903e+15	4.420849e+14	1.548158e+04	6.696062e+03	2.672082e+03	0	9.757261e-04
5.800000e+08	2.701436e+13	0.000000e+00	5.606937e-01	1.031499e+15	1.730856e+15	4.399073e+14	1.545845e+04	6.690968e+03	2.670050e+03	0	9.647685e-04
5.900000e+08	2.609775e+13	0.000000e+00	5.606937e-01	1.022817e+15	1.717986e+15	4.377452e+14	1.543551e+04	6.685914e+03	2.668033e+03	0	9.537312e-04
6.000000e+08	2.519520e+13	0.000000e+00	5.606937e-01	1.014260e+15	1.705289e+15	4.355983e+14	1.541276e+04	6.680899e+03	2.666031e+03	0	9.426075e-04
6.100000e+08	2.430641e+13	0.000000e+00	5.606937e-01	1.005824e+15	1.692761e+15	4.334666e+14	1.539021e+04	6.675921e+03	2.664045e+03	0	9.313906e-04
6.200000e+08	2.343109e+13	0.000000e+00	5.606937e-01	9.975091e+14	1.680399e+15	4.313500e+14	1.536784e+04	6.670982e+03	2.662074e+03	0	9.200733e-04
6.300000e+08	2.256898e+13	0.000000e+00	5.606937e-01	9.893112e+14	1.668199e+15	4.292484e+14	1.534565e+04	6.666080e+03	2.660118e+03	0	9.086477e-04
6.400000e+08	2.171979e+13	0.000000e+00	5.606937e-01	9.812282e+14	1.656160e+15	4.271615e+14	1.532365e+04	6.661214e+03	2.658176e+03	0	8.971054e-04
6.500000e+08	2.088327e+13	0.000000e+00	5.606937e-01	9.732581e+14	1.644276e+15	4.250894e+14	1.530182e+04	6.656384e+03	2.656249e+03	0	8.854372e-04
6.600000e+08	2.005917e+13	0.000000e+00	5.606937e-01	9.653985e+14	1.632546e+15	4.230318e+14	1.528018e+04	6.651590e+03	2.654336e+03	0	8.736334e-04
6.700000e+08	1.924723e+13	0.000000e+00	5.606937e-01	9.576473e+14	1.620966e+15	4.209887e+14	1.525870e+04	6.646831e+03	2.652436e+03	0	8.616833e-04
6.800000e+08	1.844721e+13	0.000000e+00	5.606937e-01	9.500024e+14	1.609533e+15	4.189600e+14	1.523740e+04	6.642106e+03	2.650551e+03	0	8.495752e-04
6.900000e+08	1.765888e+13	0.000000e+00	5.606937e-01	9.424617e+14	1.598245e+15	4.169455e+14	1.521627e+04	6.637415e+03	2.648679e+03	0	8.372966e-04
7.000000e+08	1.688201e+13	0.000000e+00	5.606937e-01	9.350233e+14	1.587099e+15	4.149451e+14	1.519531e+04	6.632757e+03	2.646820e+03	0	8.248335e-04
7.100000e+08	1.611637e+13	0.000000e+00	5.606937e-01	9.276852e+14	1.576092e+15	4.129587e+14	1.517451e+04	6.628132e+03	2.644975e+03	0	8.121707e-04
7.200000e+08	1.536174e+13	0.000000e+00	5.606937e-01	9.204455e+14	1.565222e+15	4.109862e+14	1.515387e+04	6.623539e+03	2.643142e+03	0	7.992912e-04
7.300000e+08	1.461791e+13	0.000000e+00	5.606937e-01	9.133023e+14	1.554485e+15	4.090275e+14	1.513340e+04	6.618979e+03	2.641322e+03	0	7.861764e-04
7.400000e+08	1.388467e+13	0.000000e+00	5.606937e-01	9.062538e+14	1.543881e+15	4.070825e+14	1.511308e+04	6.614450e+03	2.639515e+03	0	7.728053e-04
7.500000e+08	1.316182e+13	0.000000e+00	5.606937e-01	8.992983e+14	1.533405e+15	4.051510e+14	1.509292e+04	6.609952e+03	2.637720e+03	0	7.591546e-04
7.600000e+08	1.244916e+13	0.000000e+00	5.606937e-01	8.924341e+14	1.523056e+15	4.032330e+14	1.507291e+04	6.605485e+03	2.635937e+03	0	7.451978e-04
7.700000e+08	1.174650e+13	0.000000e+00	5.606937e-01	8.856594e+14	1.512832e+15	4.013283e+14	1.505306e+04	6.601047e+03	2.634166e+03	0	7.309052e-04
7.800000e+08	1.105364e+13	0.000000e+00	5.606937e-01	8.789726e+14	1.502730e+15	3.994369e+14	1.503336e+04	6.596640e+03	2.632408e+03	0	7.162424e-04
7.900000e+08	1.037041e+13	0.000000e+00	5.606937e-01	8.723721e+14	1.492748e+15	3.975586e+14	1.501380e+04	6.592262e+03	2.630661e+03	0	7.011703e-04
8.000000e+08	9.696619e+12	0.000000e+00	5.606937e-01	8.658563e+14	1.482885e+15	3.956933e+14	1.499439e+04	6.587913e+03	2.628925e+03	0	6.856435e-04
8.100000e+08	9.032100e+12	0.000000e+00	5.606937e-01	8.594238e+14	1.473137e+15	3.938409e+14	1.497513e+04	6.583592e+03	2.627201e+03	0	6.696088e-04
8.200000e+08	8.376678e+12	0.000000e+00	5.606937e-01	8.530730e+14	1.463503e+15	3.920014e+14	1.495601e+04	6.579300e+03	2.625488e+03	0	6.530035e-04
8.300000e+08	7.730186e+12	0.000000e+00	5.606937e-01	8.468024e+14	1.453981e+15	3.901746e+14	1.493703e+04	6.575036e+03	2.623787e+03	0	6.357527e-04
8.400000e+08	7.092461e+12	0.000000e+00	5.606937e-01	8.406107e+14	1.444569e+15	3.883604e+14	1.491818e+04	6.570799e+03	2.622096e+03	0	6.177659e-04
8.500000e+08	6.463342e+12	0.000000e+00	5.606937e-01	8.344964e+14	1.435265e+15	3.865587e+14	1.489948e+04	6.566589e+03	2.620416e+03	0	5.989317e-04
8.600000e+08	5.842675e+12	0.000000e+00	5.606937e-01	8.284581e+14	1.426068e+15	3.847695e+14	1.488091e+04	6.562406e+03	2.618747e+03	0	5.791115e-04
8.700000e+08	5.230306e+12	0.000000e+00	5.606937e-01	8.224946e+14	1.416975e+15	3.829925e+14	1.486248e+04	6.558250e+03	2.617088e+03	0	5.581282e-04
8.800000e+08	4.626087e+12	0.000000e+00	5.606937e-01	8.166046e+14	1.407985e+15	3.812278e+14	1.484418e+04	6.554119e+03	2.615440e+03	0	5.357508e-04
8.900000e+08	4.029873e+12	0.000000e+00	5.606937e-01	8.107867e+14	1.399096e+15	3.794752e+14	1.482601e+04	6.550015e+03	2.613802e+03	0	5.116685e-04
9.000000e+08	3.441521e+12	0.000000e+00	5.606937e-01	8.050398e+14	1.390306e+15	3.777347e+14	1.480796e+04	6.545936e+03	2.612174e+03	0	4.854469e-04
9.100000e+08	2.860892e+12	0.000000e+00	5.606937e-01	7.993625e+14	1.381614e+15	3.760060e+14	1.479005e+04	6.541882e+03	2.610556e+03	0	4.564488e-04
9.200000e+08	2.287851e+12	0.000000e+00	5.606937e-01	7.937538e+14	1.373018e+15	3.742892e+14	1.477226e+04	6.537853e+03	2.608948e+03	0	4.236763e-04
9.300000e+08	1.722264e+12	0.000000e+00	5.606937e-01	7.882124e+14	1.364517e+15	3.725842e+14	1.475460e+04	6.533848e+03	2.607350e+03	0	3.854117e-04
9.400000e+08	1.164002e+12	0.000000e+00	5.606937e-01	7.827372e+14	1.356109e+15	3.708908e+14	1.473706e+04	6.529868e+03	2.605762e+03	0	3.382280e-04
9.500000e+08	6.129382e+11	0.000000e+00	5.606937e-01	7.773272e+14	1.347792e+15	3.692089e+14	1.471964e+04	6.525911e+03	2.604183e+03	0	2.731265e-04
9.600000e+08	6.894781e+10	0.000000e+00	5.606937e-01	7.719811e+14	1.339565e+15	3.675386e+14	1.470234e+04	6.521978e+03	2.602614e+03	0	1.318454e-04
9.700000e+08	-4.680905e+11	0.000000e+00	5.606937e-01	7.666980e+14	1.331427e+15	3.658796e+14	1.468516e+04	6.518069e+03	2.601054e+03	0	nan
