#t		Qconv[W]	Ri[Rp]		R*[Rp]		Qc[W]		Qm[W]		Qr[W]		Tcmb[K]		Tl[K]		Tup[K]		RiFlag		Bs[T]
0.000000e+00	1.381977e+14	0.000000e+00	6.478873e-01	3.012970e+15	1.800209e+15	7.288067e+13	1.253327e+04	3.950554e+03	2.183258e+03	0	1.683602e-03
1.000000e+07	1.202843e+14	0.000000e+00	6.478873e-01	2.623669e+15	2.093242e+15	7.247686e+13	1.203693e+04	4.102942e+03	2.267475e+03	0	1.607467e-03
2.000000e+07	1.055294e+14	0.000000e+00	6.478873e-01	2.302982e+15	2.187758e+15	7.207607e+13	1.160242e+04	4.173740e+03	2.306601e+03	0	1.538852e-03
3.000000e+07	9.334786e+13	0.000000e+00	6.478873e-01	2.038199e+15	2.159131e+15	7.167827e+13	1.121923e+04	4.195729e+03	2.318753e+03	0	1.477205e-03
4.000000e+07	8.321303e+13	0.000000e+00	6.478873e-01	1.817880e+15	2.066638e+15	7.128344e+13	1.087869e+04	4.189896e+03	2.315529e+03	0	1.421684e-03
5.000000e+07	7.470203e+13	0.000000e+00	6.478873e-01	1.632840e+15	1.946732e+15	7.089156e+13	1.057385e+04	4.168759e+03	2.303848e+03	0	1.371461e-03
6.000000e+07	6.748770e+13	0.000000e+00	6.478873e-01	1.475973e+15	1.819398e+15	7.050260e+13	1.029914e+04	4.139582e+03	2.287724e+03	0	1.325808e-03
7.000000e+07	6.131860e+13	0.000000e+00	6.478873e-01	1.341818e+15	1.694773e+15	7.011653e+13	1.005010e+04	4.106537e+03	2.269462e+03	0	1.284113e-03
8.000000e+07	5.600053e+13	0.000000e+00	6.478873e-01	1.226156e+15	1.577547e+15	6.973334e+13	9.823105e+03	4.072014e+03	2.250382e+03	0	1.245862e-03
9.000000e+07	5.138211e+13	0.000000e+00	6.478873e-01	1.125699e+15	1.469526e+15	6.935299e+13	9.615182e+03	4.037372e+03	2.231238e+03	0	1.210626e-03
1.000000e+08	4.734417e+13	0.000000e+00	6.478873e-01	1.037857e+15	1.371048e+15	6.897547e+13	9.423884e+03	4.003374e+03	2.212449e+03	0	1.178044e-03
1.100000e+08	4.379188e+13	0.000000e+00	6.478873e-01	9.605712e+14	1.281737e+15	6.860076e+13	9.247169e+03	3.970432e+03	2.194244e+03	0	1.147811e-03
1.200000e+08	4.064907e+13	0.000000e+00	6.478873e-01	8.921859e+14	1.200903e+15	6.822881e+13	9.083320e+03	3.938752e+03	2.176736e+03	0	1.119668e-03
1.300000e+08	3.785401e+13	0.000000e+00	6.478873e-01	8.313600e+14	1.127750e+15	6.785963e+13	8.930888e+03	3.908420e+03	2.159973e+03	0	1.093394e-03
1.400000e+08	3.535625e+13	0.000000e+00	6.478873e-01	7.769971e+14	1.061481e+15	6.749317e+13	8.788634e+03	3.879449e+03	2.143962e+03	0	1.068795e-03
1.500000e+08	3.311420e+13	0.000000e+00	6.478873e-01	7.281936e+14	1.001345e+15	6.712943e+13	8.655498e+03	3.851811e+03	2.128688e+03	0	1.045708e-03
1.600000e+08	3.109335e+13	0.000000e+00	6.478873e-01	6.841998e+14	9.466600e+14	6.676837e+13	8.530564e+03	3.825457e+03	2.114123e+03	0	1.023988e-03
1.700000e+08	2.926489e+13	0.000000e+00	6.478873e-01	6.443892e+14	8.968150e+14	6.640997e+13	8.413038e+03	3.800323e+03	2.100234e+03	0	1.003510e-03
1.800000e+08	2.760456e+13	0.000000e+00	6.478873e-01	6.082348e+14	8.512710e+14	6.605422e+13	8.302228e+03	3.776344e+03	2.086982e+03	0	9.841609e-04
1.900000e+08	2.609185e+13	0.000000e+00	6.478873e-01	5.752909e+14	8.095543e+14	6.570109e+13	8.197527e+03	3.753452e+03	2.074330e+03	0	9.658452e-04
2.000000e+08	2.470933e+13	0.000000e+00	6.478873e-01	5.451784e+14	7.712493e+14	6.535055e+13	8.098403e+03	3.731578e+03	2.062242e+03	0	9.484757e-04
2.100000e+08	2.344209e+13	0.000000e+00	6.478873e-01	5.175731e+14	7.359926e+14	6.500260e+13	8.004382e+03	3.710660e+03	2.050682e+03	0	9.319758e-04
2.200000e+08	2.227729e+13	0.000000e+00	6.478873e-01	4.921963e+14	7.034654e+14	6.465719e+13	7.915047e+03	3.690638e+03	2.039616e+03	0	9.162767e-04
2.300000e+08	2.120389e+13	0.000000e+00	6.478873e-01	4.688077e+14	6.733887e+14	6.431433e+13	7.830024e+03	3.671454e+03	2.029014e+03	0	9.013173e-04
2.400000e+08	2.021228e+13	0.000000e+00	6.478873e-01	4.471987e+14	6.455169e+14	6.397398e+13	7.748982e+03	3.653055e+03	2.018847e+03	0	8.870423e-04
2.500000e+08	1.929413e+13	0.000000e+00	6.478873e-01	4.271877e+14	6.196344e+14	6.363612e+13	7.671621e+03	3.635393e+03	2.009086e+03	0	8.734021e-04
2.600000e+08	1.844212e+13	0.000000e+00	6.478873e-01	4.086161e+14	5.955509e+14	6.330073e+13	7.597672e+03	3.618423e+03	1.999707e+03	0	8.603520e-04
2.700000e+08	1.764987e+13	0.000000e+00	6.478873e-01	3.913447e+14	5.730979e+14	6.296780e+13	7.526894e+03	3.602102e+03	1.990687e+03	0	8.478514e-04
2.800000e+08	1.691174e+13	0.000000e+00	6.478873e-01	3.752510e+14	5.521266e+14	6.263729e+13	7.459068e+03	3.586390e+03	1.982005e+03	0	8.358633e-04
2.900000e+08	1.622274e+13	0.000000e+00	6.478873e-01	3.602267e+14	5.325045e+14	6.230920e+13	7.393994e+03	3.571254e+03	1.973639e+03	0	8.243544e-04
3.000000e+08	1.557847e+13	0.000000e+00	6.478873e-01	3.461760e+14	5.141137e+14	6.198350e+13	7.331493e+03	3.556658e+03	1.965573e+03	0	8.132939e-04
3.100000e+08	1.497502e+13	0.000000e+00	6.478873e-01	3.330137e+14	4.968489e+14	6.166018e+13	7.271399e+03	3.542572e+03	1.957789e+03	0	8.026539e-04
3.200000e+08	1.440889e+13	0.000000e+00	6.478873e-01	3.206637e+14	4.806161e+14	6.133920e+13	7.213561e+03	3.528968e+03	1.950271e+03	0	7.924089e-04
3.300000e+08	1.387695e+13	0.000000e+00	6.478873e-01	3.090584e+14	4.653309e+14	6.102056e+13	7.157844e+03	3.515820e+03	1.943004e+03	0	7.825353e-04
3.400000e+08	1.337643e+13	0.000000e+00	6.478873e-01	2.981367e+14	4.509174e+14	6.070424e+13	7.104119e+03	3.503102e+03	1.935976e+03	0	7.730114e-04
3.500000e+08	1.290479e+13	0.000000e+00	6.478873e-01	2.878441e+14	4.373073e+14	6.039020e+13	7.052271e+03	3.490792e+03	1.929172e+03	0	7.638174e-04
3.600000e+08	1.245979e+13	0.000000e+00	6.478873e-01	2.781315e+14	4.244390e+14	6.007845e+13	7.002194e+03	3.478869e+03	1.922583e+03	0	7.549347e-04
3.700000e+08	1.203937e+13	0.000000e+00	6.478873e-01	2.689544e+14	4.122566e+14	5.976895e+13	6.953787e+03	3.467312e+03	1.916197e+03	0	7.463465e-04
3.800000e+08	1.164171e+13	0.000000e+00	6.478873e-01	2.602726e+14	4.007098e+14	5.946170e+13	6.906961e+03	3.456105e+03	1.910003e+03	0	7.380370e-04
3.900000e+08	1.126512e+13	0.000000e+00	6.478873e-01	2.520498e+14	3.897524e+14	5.915666e+13	6.861630e+03	3.445228e+03	1.903992e+03	0	7.299914e-04
4.000000e+08	1.090808e+13	0.000000e+00	6.478873e-01	2.442530e+14	3.793429e+14	5.885383e+13	6.817717e+03	3.434667e+03	1.898155e+03	0	7.221964e-04
4.100000e+08	1.056921e+13	0.000000e+00	6.478873e-01	2.368521e+14	3.694432e+14	5.855318e+13	6.775148e+03	3.424407e+03	1.892485e+03	0	7.146391e-04
4.200000e+08	1.024726e+13	0.000000e+00	6.478873e-01	2.298196e+14	3.600185e+14	5.825469e+13	6.733857e+03	3.414432e+03	1.886973e+03	0	7.073079e-04
4.300000e+08	9.941074e+12	0.000000e+00	6.478873e-01	2.231305e+14	3.510371e+14	5.795836e+13	6.693779e+03	3.404731e+03	1.881611e+03	0	7.001917e-04
4.400000e+08	9.649596e+12	0.000000e+00	6.478873e-01	2.167619e+14	3.424699e+14	5.766416e+13	6.654857e+03	3.395291e+03	1.876394e+03	0	6.932804e-04
4.500000e+08	9.371863e+12	0.000000e+00	6.478873e-01	2.106929e+14	3.342902e+14	5.737207e+13	6.617036e+03	3.386100e+03	1.871315e+03	0	6.865643e-04
4.600000e+08	9.106991e+12	0.000000e+00	6.478873e-01	2.049041e+14	3.264734e+14	5.708208e+13	6.580263e+03	3.377147e+03	1.866367e+03	0	6.800343e-04
4.700000e+08	8.854166e+12	0.000000e+00	6.478873e-01	1.993778e+14	3.189970e+14	5.679417e+13	6.544492e+03	3.368423e+03	1.861546e+03	0	6.736822e-04
4.800000e+08	8.612639e+12	0.000000e+00	6.478873e-01	1.940978e+14	3.118402e+14	5.650833e+13	6.509677e+03	3.359917e+03	1.856845e+03	0	6.675000e-04
4.900000e+08	8.381720e+12	0.000000e+00	6.478873e-01	1.890490e+14	3.049837e+14	5.622453e+13	6.475776e+03	3.351620e+03	1.852260e+03	0	6.614803e-04
5.000000e+08	8.160770e+12	0.000000e+00	6.478873e-01	1.842176e+14	2.984098e+14	5.594276e+13	6.442750e+03	3.343525e+03	1.847786e+03	0	6.556161e-04
5.100000e+08	7.949201e+12	0.000000e+00	6.478873e-01	1.795906e+14	2.921022e+14	5.566300e+13	6.410560e+03	3.335622e+03	1.843418e+03	0	6.499007e-04
5.200000e+08	7.746467e+12	0.000000e+00	6.478873e-01	1.751563e+14	2.860455e+14	5.538524e+13	6.379172e+03	3.327904e+03	1.839153e+03	0	6.443281e-04
5.300000e+08	7.552062e+12	0.000000e+00	6.478873e-01	1.709035e+14	2.802257e+14	5.510946e+13	6.348553e+03	3.320363e+03	1.834986e+03	0	6.388924e-04
5.400000e+08	7.365516e+12	0.000000e+00	6.478873e-01	1.668222e+14	2.746297e+14	5.483564e+13	6.318671e+03	3.312994e+03	1.830913e+03	0	6.335880e-04
5.500000e+08	7.186395e+12	0.000000e+00	6.478873e-01	1.629027e+14	2.692452e+14	5.456377e+13	6.289497e+03	3.305789e+03	1.826931e+03	0	6.284097e-04
5.600000e+08	7.014292e+12	0.000000e+00	6.478873e-01	1.591363e+14	2.640609e+14	5.429384e+13	6.261003e+03	3.298743e+03	1.823037e+03	0	6.233527e-04
5.700000e+08	6.848830e+12	0.000000e+00	6.478873e-01	1.555148e+14	2.590663e+14	5.402582e+13	6.233163e+03	3.291849e+03	1.819227e+03	0	6.184121e-04
5.800000e+08	6.689657e+12	0.000000e+00	6.478873e-01	1.520304e+14	2.542515e+14	5.375970e+13	6.205952e+03	3.285101e+03	1.815498e+03	0	6.135837e-04
5.900000e+08	6.536444e+12	0.000000e+00	6.478873e-01	1.486760e+14	2.496072e+14	5.349547e+13	6.179345e+03	3.278495e+03	1.811848e+03	0	6.088632e-04
6.000000e+08	6.388884e+12	0.000000e+00	6.478873e-01	1.454450e+14	2.451248e+14	5.323311e+13	6.153322e+03	3.272026e+03	1.808272e+03	0	6.042466e-04
6.100000e+08	6.246691e+12	0.000000e+00	6.478873e-01	1.423310e+14	2.407964e+14	5.297261e+13	6.127860e+03	3.265689e+03	1.804770e+03	0	5.997301e-04
6.200000e+08	6.109596e+12	0.000000e+00	6.478873e-01	1.393283e+14	2.366143e+14	5.271394e+13	6.102939e+03	3.259479e+03	1.801338e+03	0	5.953103e-04
6.300000e+08	5.977347e+12	0.000000e+00	6.478873e-01	1.364313e+14	2.325714e+14	5.245711e+13	6.078540e+03	3.253391e+03	1.797974e+03	0	5.909835e-04
6.400000e+08	5.849708e+12	0.000000e+00	6.478873e-01	1.336350e+14	2.286611e+14	5.220208e+13	6.054645e+03	3.247423e+03	1.794675e+03	0	5.867466e-04
6.500000e+08	5.726459e+12	0.000000e+00	6.478873e-01	1.309344e+14	2.248773e+14	5.194885e+13	6.031237e+03	3.241569e+03	1.791440e+03	0	5.825966e-04
6.600000e+08	5.607391e+12	0.000000e+00	6.478873e-01	1.283251e+14	2.212139e+14	5.169740e+13	6.008298e+03	3.235826e+03	1.788267e+03	0	5.785303e-04
6.700000e+08	5.492308e+12	0.000000e+00	6.478873e-01	1.258027e+14	2.176655e+14	5.144772e+13	5.985813e+03	3.230191e+03	1.785152e+03	0	5.745452e-04
6.800000e+08	5.381027e+12	0.000000e+00	6.478873e-01	1.233634e+14	2.142269e+14	5.119980e+13	5.963768e+03	3.224660e+03	1.782096e+03	0	5.706383e-04
6.900000e+08	5.273374e+12	0.000000e+00	6.478873e-01	1.210033e+14	2.108933e+14	5.095361e+13	5.942147e+03	3.219229e+03	1.779094e+03	0	5.668072e-04
7.000000e+08	5.169186e+12	0.000000e+00	6.478873e-01	1.187188e+14	2.076599e+14	5.070915e+13	5.920937e+03	3.213896e+03	1.776147e+03	0	5.630495e-04
7.100000e+08	5.068310e+12	0.000000e+00	6.478873e-01	1.165066e+14	2.045224e+14	5.046640e+13	5.900125e+03	3.208658e+03	1.773252e+03	0	5.593628e-04
7.200000e+08	4.970599e+12	0.000000e+00	6.478873e-01	1.143636e+14	2.014768e+14	5.022535e+13	5.879698e+03	3.203511e+03	1.770408e+03	0	5.557449e-04
7.300000e+08	4.875917e+12	0.000000e+00	6.478873e-01	1.122867e+14	1.985191e+14	4.998598e+13	5.859645e+03	3.198453e+03	1.767612e+03	0	5.521935e-04
7.400000e+08	4.784135e+12	0.000000e+00	6.478873e-01	1.102731e+14	1.956457e+14	4.974828e+13	5.839953e+03	3.193481e+03	1.764865e+03	0	5.487068e-04
7.500000e+08	4.695128e+12	0.000000e+00	6.478873e-01	1.083201e+14	1.928530e+14	4.951224e+13	5.820613e+03	3.188593e+03	1.762163e+03	0	5.452827e-04
7.600000e+08	4.608782e+12	0.000000e+00	6.478873e-01	1.064253e+14	1.901379e+14	4.927785e+13	5.801613e+03	3.183786e+03	1.759507e+03	0	5.419193e-04
7.700000e+08	4.524986e+12	0.000000e+00	6.478873e-01	1.045862e+14	1.874971e+14	4.904508e+13	5.782944e+03	3.179059e+03	1.756894e+03	0	5.386148e-04
7.800000e+08	4.443636e+12	0.000000e+00	6.478873e-01	1.028005e+14	1.849276e+14	4.881394e+13	5.764595e+03	3.174407e+03	1.754324e+03	0	5.353675e-04
7.900000e+08	4.364634e+12	0.000000e+00	6.478873e-01	1.010661e+14	1.824268e+14	4.858439e+13	5.746558e+03	3.169831e+03	1.751794e+03	0	5.321758e-04
8.000000e+08	4.287885e+12	0.000000e+00	6.478873e-01	9.938090e+13	1.799919e+14	4.835644e+13	5.728823e+03	3.165326e+03	1.749305e+03	0	5.290381e-04
8.100000e+08	4.213301e+12	0.000000e+00	6.478873e-01	9.774304e+13	1.776204e+14	4.813007e+13	5.711382e+03	3.160892e+03	1.746855e+03	0	5.259527e-04
8.200000e+08	4.140798e+12	0.000000e+00	6.478873e-01	9.615063e+13	1.753099e+14	4.790527e+13	5.694227e+03	3.156527e+03	1.744442e+03	0	5.229183e-04
8.300000e+08	4.070294e+12	0.000000e+00	6.478873e-01	9.460194e+13	1.730580e+14	4.768202e+13	5.677351e+03	3.152228e+03	1.742067e+03	0	5.199335e-04
8.400000e+08	4.001713e+12	0.000000e+00	6.478873e-01	9.309529e+13	1.708627e+14	4.746031e+13	5.660744e+03	3.147994e+03	1.739727e+03	0	5.169968e-04
8.500000e+08	3.934984e+12	0.000000e+00	6.478873e-01	9.162909e+13	1.687218e+14	4.724014e+13	5.644400e+03	3.143824e+03	1.737422e+03	0	5.141070e-04
8.600000e+08	3.870036e+12	0.000000e+00	6.478873e-01	9.020184e+13	1.666334e+14	4.702148e+13	5.628313e+03	3.139714e+03	1.735151e+03	0	5.112628e-04
8.700000e+08	3.806803e+12	0.000000e+00	6.478873e-01	8.881210e+13	1.645955e+14	4.680432e+13	5.612475e+03	3.135665e+03	1.732913e+03	0	5.084630e-04
8.800000e+08	3.745223e+12	0.000000e+00	6.478873e-01	8.745849e+13	1.626064e+14	4.658866e+13	5.596879e+03	3.131674e+03	1.730707e+03	0	5.057064e-04
8.900000e+08	3.685237e+12	0.000000e+00	6.478873e-01	8.613971e+13	1.606644e+14	4.637448e+13	5.581520e+03	3.127740e+03	1.728533e+03	0	5.029919e-04
9.000000e+08	3.626786e+12	0.000000e+00	6.478873e-01	8.485452e+13	1.587678e+14	4.616177e+13	5.566392e+03	3.123861e+03	1.726389e+03	0	5.003184e-04
9.100000e+08	3.569816e+12	0.000000e+00	6.478873e-01	8.360172e+13	1.569151e+14	4.595052e+13	5.551488e+03	3.120036e+03	1.724276e+03	0	4.976849e-04
9.200000e+08	3.514276e+12	0.000000e+00	6.478873e-01	8.238018e+13	1.551047e+14	4.574072e+13	5.536803e+03	3.116264e+03	1.722191e+03	0	4.950904e-04
9.300000e+08	3.460115e+12	0.000000e+00	6.478873e-01	8.118882e+13	1.533353e+14	4.553235e+13	5.522331e+03	3.112543e+03	1.720135e+03	0	4.925338e-04
9.400000e+08	3.407286e+12	0.000000e+00	6.478873e-01	8.002658e+13	1.516054e+14	4.532541e+13	5.508068e+03	3.108873e+03	1.718106e+03	0	4.900143e-04
9.500000e+08	3.355743e+12	0.000000e+00	6.478873e-01	7.889249e+13	1.499139e+14	4.511987e+13	5.494007e+03	3.105251e+03	1.716105e+03	0	4.875309e-04
9.600000e+08	3.305443e+12	0.000000e+00	6.478873e-01	7.778559e+13	1.482593e+14	4.491574e+13	5.480146e+03	3.101677e+03	1.714130e+03	0	4.850827e-04
9.700000e+08	3.256345e+12	0.000000e+00	6.478873e-01	7.670498e+13	1.466406e+14	4.471300e+13	5.466477e+03	3.098150e+03	1.712181e+03	0	4.826689e-04
9.800000e+08	3.208408e+12	0.000000e+00	6.478873e-01	7.564978e+13	1.450565e+14	4.451164e+13	5.452998e+03	3.094669e+03	1.710256e+03	0	4.802888e-04
9.900000e+08	3.161595e+12	0.000000e+00	6.478873e-01	7.461917e+13	1.435061e+14	4.431165e+13	5.439703e+03	3.091232e+03	1.708357e+03	0	4.779414e-04
1.000000e+09	3.115868e+12	0.000000e+00	6.478873e-01	7.361233e+13	1.419881e+14	4.411301e+13	5.426589e+03	3.087838e+03	1.706482e+03	0	4.756260e-04
1.010000e+09	3.071193e+12	0.000000e+00	6.478873e-01	7.262852e+13	1.405017e+14	4.391573e+13	5.413650e+03	3.084487e+03	1.704630e+03	0	4.733419e-04
1.020000e+09	3.027536e+12	0.000000e+00	6.478873e-01	7.166699e+13	1.390458e+14	4.371977e+13	5.400884e+03	3.081178e+03	1.702801e+03	0	4.710883e-04
1.030000e+09	2.984865e+12	0.000000e+00	6.478873e-01	7.072704e+13	1.376195e+14	4.352515e+13	5.388286e+03	3.077909e+03	1.700994e+03	0	4.688646e-04
1.040000e+09	2.943149e+12	0.000000e+00	6.478873e-01	6.980800e+13	1.362219e+14	4.333184e+13	5.375852e+03	3.074679e+03	1.699209e+03	0	4.666701e-04
1.050000e+09	2.902358e+12	0.000000e+00	6.478873e-01	6.890921e+13	1.348522e+14	4.313983e+13	5.363580e+03	3.071489e+03	1.697446e+03	0	4.645041e-04
1.060000e+09	2.862463e+12	0.000000e+00	6.478873e-01	6.803006e+13	1.335095e+14	4.294913e+13	5.351464e+03	3.068337e+03	1.695704e+03	0	4.623660e-04
1.070000e+09	2.823438e+12	0.000000e+00	6.478873e-01	6.716994e+13	1.321931e+14	4.275970e+13	5.339503e+03	3.065221e+03	1.693983e+03	0	4.602551e-04
1.080000e+09	2.785256e+12	0.000000e+00	6.478873e-01	6.632828e+13	1.309021e+14	4.257155e+13	5.327692e+03	3.062143e+03	1.692281e+03	0	4.581710e-04
1.090000e+09	2.747892e+12	0.000000e+00	6.478873e-01	6.550452e+13	1.296359e+14	4.238467e+13	5.316029e+03	3.059099e+03	1.690599e+03	0	4.561130e-04
1.100000e+09	2.711320e+12	0.000000e+00	6.478873e-01	6.469814e+13	1.283937e+14	4.219904e+13	5.304509e+03	3.056091e+03	1.688937e+03	0	4.540805e-04
1.110000e+09	2.675519e+12	0.000000e+00	6.478873e-01	6.390862e+13	1.271749e+14	4.201465e+13	5.293131e+03	3.053117e+03	1.687293e+03	0	4.520730e-04
1.120000e+09	2.640465e+12	0.000000e+00	6.478873e-01	6.313547e+13	1.259788e+14	4.183150e+13	5.281891e+03	3.050176e+03	1.685668e+03	0	4.500900e-04
1.130000e+09	2.606136e+12	0.000000e+00	6.478873e-01	6.237822e+13	1.248047e+14	4.164958e+13	5.270787e+03	3.047268e+03	1.684061e+03	0	4.481309e-04
1.140000e+09	2.572512e+12	0.000000e+00	6.478873e-01	6.163641e+13	1.236521e+14	4.146887e+13	5.259815e+03	3.044392e+03	1.682471e+03	0	4.461953e-04
1.150000e+09	2.539573e+12	0.000000e+00	6.478873e-01	6.090959e+13	1.225204e+14	4.128937e+13	5.248973e+03	3.041547e+03	1.680899e+03	0	4.442827e-04
1.160000e+09	2.507299e+12	0.000000e+00	6.478873e-01	6.019735e+13	1.214089e+14	4.111106e+13	5.238259e+03	3.038733e+03	1.679344e+03	0	4.423926e-04
1.170000e+09	2.475671e+12	0.000000e+00	6.478873e-01	5.949928e+13	1.203173e+14	4.093394e+13	5.227669e+03	3.035950e+03	1.677806e+03	0	4.405246e-04
1.180000e+09	2.444671e+12	0.000000e+00	6.478873e-01	5.881498e+13	1.192449e+14	4.075801e+13	5.217202e+03	3.033196e+03	1.676284e+03	0	4.386782e-04
1.190000e+09	2.414283e+12	0.000000e+00	6.478873e-01	5.814407e+13	1.181912e+14	4.058324e+13	5.206854e+03	3.030470e+03	1.674778e+03	0	4.368529e-04
1.200000e+09	2.384489e+12	0.000000e+00	6.478873e-01	5.748618e+13	1.171557e+14	4.040963e+13	5.196624e+03	3.027774e+03	1.673287e+03	0	4.350484e-04
1.210000e+09	2.355272e+12	0.000000e+00	6.478873e-01	5.684097e+13	1.161380e+14	4.023717e+13	5.186510e+03	3.025105e+03	1.671812e+03	0	4.332643e-04
1.220000e+09	2.326619e+12	0.000000e+00	6.478873e-01	5.620809e+13	1.151377e+14	4.006586e+13	5.176508e+03	3.022464e+03	1.670353e+03	0	4.315001e-04
1.230000e+09	2.298512e+12	0.000000e+00	6.478873e-01	5.558721e+13	1.141542e+14	3.989568e+13	5.166617e+03	3.019849e+03	1.668908e+03	0	4.297555e-04
1.240000e+09	2.270939e+12	0.000000e+00	6.478873e-01	5.497802e+13	1.131871e+14	3.972662e+13	5.156836e+03	3.017261e+03	1.667477e+03	0	4.280301e-04
1.250000e+09	2.243884e+12	0.000000e+00	6.478873e-01	5.438019e+13	1.122361e+14	3.955868e+13	5.147161e+03	3.014698e+03	1.666061e+03	0	4.263236e-04
1.260000e+09	2.217334e+12	0.000000e+00	6.478873e-01	5.379345e+13	1.113007e+14	3.939185e+13	5.137590e+03	3.012161e+03	1.664659e+03	0	4.246354e-04
1.270000e+09	2.191276e+12	0.000000e+00	6.478873e-01	5.321750e+13	1.103805e+14	3.922611e+13	5.128123e+03	3.009649e+03	1.663271e+03	0	4.229655e-04
1.280000e+09	2.165698e+12	0.000000e+00	6.478873e-01	5.265205e+13	1.094753e+14	3.906147e+13	5.118757e+03	3.007161e+03	1.661896e+03	0	4.213133e-04
1.290000e+09	2.140586e+12	0.000000e+00	6.478873e-01	5.209686e+13	1.085845e+14	3.889791e+13	5.109490e+03	3.004698e+03	1.660534e+03	0	4.196785e-04
1.300000e+09	2.115930e+12	0.000000e+00	6.478873e-01	5.155164e+13	1.077079e+14	3.873542e+13	5.100320e+03	3.002257e+03	1.659186e+03	0	4.180610e-04
1.310000e+09	2.091717e+12	0.000000e+00	6.478873e-01	5.101616e+13	1.068451e+14	3.857400e+13	5.091246e+03	2.999840e+03	1.657850e+03	0	4.164602e-04
1.320000e+09	2.067936e+12	0.000000e+00	6.478873e-01	5.049017e+13	1.059958e+14	3.841363e+13	5.082265e+03	2.997446e+03	1.656527e+03	0	4.148759e-04
1.330000e+09	2.044578e+12	0.000000e+00	6.478873e-01	4.997343e+13	1.051597e+14	3.825431e+13	5.073377e+03	2.995074e+03	1.655216e+03	0	4.133079e-04
1.340000e+09	2.021630e+12	0.000000e+00	6.478873e-01	4.946571e+13	1.043365e+14	3.809604e+13	5.064580e+03	2.992724e+03	1.653917e+03	0	4.117558e-04
1.350000e+09	1.999084e+12	0.000000e+00	6.478873e-01	4.896680e+13	1.035258e+14	3.793879e+13	5.055872e+03	2.990396e+03	1.652630e+03	0	4.102194e-04
1.360000e+09	1.976929e+12	0.000000e+00	6.478873e-01	4.847648e+13	1.027274e+14	3.778258e+13	5.047251e+03	2.988088e+03	1.651355e+03	0	4.086984e-04
