#t		Qconv[W]	Ri[Rp]		R*[Rp]		Qc[W]		Qm[W]		Qr[W]		Tcmb[K]		Tl[K]		Tup[K]		RiFlag		Bs[T]
0.000000e+00	3.964110e+13	0.000000e+00	6.453901e-01	6.929628e+14	1.434548e+15	1.082616e+14	9.287848e+03	3.593394e+03	2.314910e+03	0	1.088484e-03
1.000000e+07	3.789153e+13	0.000000e+00	6.453901e-01	6.632064e+14	1.309619e+15	1.076618e+14	9.210635e+03	3.542426e+03	2.282076e+03	0	1.072229e-03
2.000000e+07	3.628447e+13	0.000000e+00	6.453901e-01	6.358664e+14	1.207798e+15	1.070664e+14	9.136697e+03	3.498828e+03	2.253990e+03	0	1.056851e-03
3.000000e+07	3.480175e+13	0.000000e+00	6.453901e-01	6.106349e+14	1.123201e+15	1.064755e+14	9.065771e+03	3.461031e+03	2.229640e+03	0	1.042255e-03
4.000000e+07	3.342832e+13	0.000000e+00	6.453901e-01	5.872571e+14	1.051749e+15	1.058890e+14	8.997626e+03	3.427878e+03	2.208283e+03	0	1.028360e-03
5.000000e+07	3.215165e+13	0.000000e+00	6.453901e-01	5.655208e+14	9.905393e+14	1.053068e+14	8.932061e+03	3.398497e+03	2.189355e+03	0	1.015098e-03
6.000000e+07	3.096119e+13	0.000000e+00	6.453901e-01	5.452473e+14	9.374527e+14	1.047291e+14	8.868896e+03	3.372220e+03	2.172427e+03	0	1.002412e-03
7.000000e+07	2.984798e+13	0.000000e+00	6.453901e-01	5.262847e+14	8.909113e+14	1.041556e+14	8.807972e+03	3.348526e+03	2.157163e+03	0	9.902511e-04
8.000000e+07	2.880437e+13	0.000000e+00	6.453901e-01	5.085034e+14	8.497175e+14	1.035864e+14	8.749143e+03	3.327003e+03	2.143298e+03	0	9.785728e-04
9.000000e+07	2.782375e+13	0.000000e+00	6.453901e-01	4.917914e+14	8.129481e+14	1.030214e+14	8.692282e+03	3.307323e+03	2.130619e+03	0	9.673394e-04
1.000000e+08	2.690038e+13	0.000000e+00	6.453901e-01	4.760515e+14	7.798806e+14	1.024606e+14	8.637272e+03	3.289219e+03	2.118957e+03	0	9.565180e-04
1.100000e+08	2.602926e+13	0.000000e+00	6.453901e-01	4.611987e+14	7.499423e+14	1.019039e+14	8.584004e+03	3.272475e+03	2.108170e+03	0	9.460794e-04
1.200000e+08	2.520597e+13	0.000000e+00	6.453901e-01	4.471583e+14	7.226735e+14	1.013514e+14	8.532382e+03	3.256911e+03	2.098143e+03	0	9.359977e-04
1.300000e+08	2.442662e+13	0.000000e+00	6.453901e-01	4.338643e+14	6.977016e+14	1.008030e+14	8.482317e+03	3.242379e+03	2.088782e+03	0	9.262497e-04
1.400000e+08	2.368775e+13	0.000000e+00	6.453901e-01	4.212580e+14	6.747214e+14	1.002587e+14	8.433727e+03	3.228755e+03	2.080005e+03	0	9.168147e-04
1.500000e+08	2.298627e+13	0.000000e+00	6.453901e-01	4.092870e+14	6.534806e+14	9.971834e+13	8.386536e+03	3.215934e+03	2.071745e+03	0	9.076738e-04
1.600000e+08	2.231942e+13	0.000000e+00	6.453901e-01	3.979044e+14	6.337687e+14	9.918200e+13	8.340673e+03	3.203827e+03	2.063946e+03	0	8.988101e-04
1.700000e+08	2.168470e+13	0.000000e+00	6.453901e-01	3.870681e+14	6.154092e+14	9.864961e+13	8.296075e+03	3.192358e+03	2.056558e+03	0	8.902080e-04
1.800000e+08	2.107988e+13	0.000000e+00	6.453901e-01	3.767398e+14	5.982524e+14	9.812115e+13	8.252682e+03	3.181464e+03	2.049539e+03	0	8.818533e-04
1.900000e+08	2.050291e+13	0.000000e+00	6.453901e-01	3.668851e+14	5.821709e+14	9.759659e+13	8.210436e+03	3.171087e+03	2.042854e+03	0	8.737332e-04
2.000000e+08	1.995195e+13	0.000000e+00	6.453901e-01	3.574726e+14	5.670555e+14	9.707588e+13	8.169286e+03	3.161178e+03	2.036471e+03	0	8.658356e-04
2.100000e+08	1.942531e+13	0.000000e+00	6.453901e-01	3.484736e+14	5.528120e+14	9.655901e+13	8.129183e+03	3.151697e+03	2.030363e+03	0	8.581495e-04
2.200000e+08	1.892145e+13	0.000000e+00	6.453901e-01	3.398622e+14	5.393586e+14	9.604593e+13	8.090082e+03	3.142605e+03	2.024506e+03	0	8.506649e-04
2.300000e+08	1.843897e+13	0.000000e+00	6.453901e-01	3.316143e+14	5.266241e+14	9.553661e+13	8.051939e+03	3.133870e+03	2.018879e+03	0	8.433721e-04
2.400000e+08	1.797657e+13	0.000000e+00	6.453901e-01	3.237081e+14	5.145459e+14	9.503103e+13	8.014715e+03	3.125463e+03	2.013463e+03	0	8.362625e-04
2.500000e+08	1.753306e+13	0.000000e+00	6.453901e-01	3.161232e+14	5.030691e+14	9.452915e+13	7.978372e+03	3.117360e+03	2.008243e+03	0	8.293279e-04
2.600000e+08	1.710735e+13	0.000000e+00	6.453901e-01	3.088412e+14	4.921450e+14	9.403095e+13	7.942873e+03	3.109537e+03	2.003203e+03	0	8.225606e-04
2.700000e+08	1.669842e+13	0.000000e+00	6.453901e-01	3.018448e+14	4.817305e+14	9.353638e+13	7.908186e+03	3.101974e+03	1.998331e+03	0	8.159535e-04
2.800000e+08	1.630533e+13	0.000000e+00	6.453901e-01	2.951181e+14	4.717871e+14	9.304543e+13	7.874280e+03	3.094654e+03	1.993615e+03	0	8.095000e-04
2.900000e+08	1.592722e+13	0.000000e+00	6.453901e-01	2.886463e+14	4.622804e+14	9.255807e+13	7.841123e+03	3.087559e+03	1.989045e+03	0	8.031938e-04
3.000000e+08	1.556328e+13	0.000000e+00	6.453901e-01	2.824158e+14	4.531793e+14	9.207425e+13	7.808689e+03	3.080676e+03	1.984610e+03	0	7.970289e-04
3.100000e+08	1.521277e+13	0.000000e+00	6.453901e-01	2.764138e+14	4.444559e+14	9.159396e+13	7.776949e+03	3.073991e+03	1.980304e+03	0	7.909999e-04
3.200000e+08	1.487498e+13	0.000000e+00	6.453901e-01	2.706285e+14	4.360852e+14	9.111717e+13	7.745880e+03	3.067492e+03	1.976117e+03	0	7.851014e-04
3.300000e+08	1.454926e+13	0.000000e+00	6.453901e-01	2.650489e+14	4.280443e+14	9.064384e+13	7.715456e+03	3.061168e+03	1.972043e+03	0	7.793287e-04
3.400000e+08	1.423501e+13	0.000000e+00	6.453901e-01	2.596645e+14	4.203123e+14	9.017395e+13	7.685656e+03	3.055010e+03	1.968076e+03	0	7.736769e-04
3.500000e+08	1.393167e+13	0.000000e+00	6.453901e-01	2.544659e+14	4.128703e+14	8.970747e+13	7.656457e+03	3.049008e+03	1.964210e+03	0	7.681417e-04
3.600000e+08	1.363869e+13	0.000000e+00	6.453901e-01	2.494440e+14	4.057010e+14	8.924437e+13	7.627838e+03	3.043155e+03	1.960439e+03	0	7.627189e-04
3.700000e+08	1.335558e+13	0.000000e+00	6.453901e-01	2.445902e+14	3.987886e+14	8.878462e+13	7.599781e+03	3.037441e+03	1.956758e+03	0	7.574046e-04
3.800000e+08	1.308188e+13	0.000000e+00	6.453901e-01	2.398968e+14	3.921184e+14	8.832820e+13	7.572266e+03	3.031861e+03	1.953164e+03	0	7.521949e-04
3.900000e+08	1.281715e+13	0.000000e+00	6.453901e-01	2.353562e+14	3.856770e+14	8.787508e+13	7.545276e+03	3.026408e+03	1.949651e+03	0	7.470864e-04
4.000000e+08	1.256097e+13	0.000000e+00	6.453901e-01	2.309615e+14	3.794521e+14	8.742523e+13	7.518793e+03	3.021076e+03	1.946216e+03	0	7.420755e-04
4.100000e+08	1.231297e+13	0.000000e+00	6.453901e-01	2.267060e+14	3.734321e+14	8.697863e+13	7.492802e+03	3.015859e+03	1.942855e+03	0	7.371591e-04
4.200000e+08	1.207277e+13	0.000000e+00	6.453901e-01	2.225836e+14	3.676066e+14	8.653524e+13	7.467287e+03	3.010753e+03	1.939565e+03	0	7.323341e-04
4.300000e+08	1.184003e+13	0.000000e+00	6.453901e-01	2.185885e+14	3.619656e+14	8.609505e+13	7.442233e+03	3.005751e+03	1.936343e+03	0	7.275976e-04
4.400000e+08	1.161443e+13	0.000000e+00	6.453901e-01	2.147150e+14	3.565000e+14	8.565803e+13	7.417627e+03	3.000851e+03	1.933186e+03	0	7.229467e-04
4.500000e+08	1.139566e+13	0.000000e+00	6.453901e-01	2.109581e+14	3.512013e+14	8.522414e+13	7.393453e+03	2.996048e+03	1.930092e+03	0	7.183787e-04
4.600000e+08	1.118343e+13	0.000000e+00	6.453901e-01	2.073128e+14	3.460616e+14	8.479337e+13	7.369701e+03	2.991337e+03	1.927057e+03	0	7.138911e-04
4.700000e+08	1.097747e+13	0.000000e+00	6.453901e-01	2.037744e+14	3.410733e+14	8.436569e+13	7.346356e+03	2.986715e+03	1.924080e+03	0	7.094815e-04
4.800000e+08	1.077752e+13	0.000000e+00	6.453901e-01	2.003386e+14	3.362297e+14	8.394108e+13	7.323407e+03	2.982179e+03	1.921158e+03	0	7.051475e-04
4.900000e+08	1.058334e+13	0.000000e+00	6.453901e-01	1.970012e+14	3.315242e+14	8.351950e+13	7.300844e+03	2.977726e+03	1.918289e+03	0	7.008869e-04
5.000000e+08	1.039469e+13	0.000000e+00	6.453901e-01	1.937582e+14	3.269506e+14	8.310094e+13	7.278654e+03	2.973352e+03	1.915471e+03	0	6.966974e-04
5.100000e+08	1.021136e+13	0.000000e+00	6.453901e-01	1.906059e+14	3.225034e+14	8.268537e+13	7.256827e+03	2.969055e+03	1.912703e+03	0	6.925772e-04
5.200000e+08	1.003313e+13	0.000000e+00	6.453901e-01	1.875408e+14	3.181770e+14	8.227277e+13	7.235354e+03	2.964832e+03	1.909982e+03	0	6.885241e-04
5.300000e+08	9.859805e+12	0.000000e+00	6.453901e-01	1.845594e+14	3.139664e+14	8.186311e+13	7.214224e+03	2.960680e+03	1.907307e+03	0	6.845362e-04
5.400000e+08	9.691200e+12	0.000000e+00	6.453901e-01	1.816586e+14	3.098669e+14	8.145636e+13	7.193428e+03	2.956597e+03	1.904677e+03	0	6.806119e-04
5.500000e+08	9.527133e+12	0.000000e+00	6.453901e-01	1.788352e+14	3.058739e+14	8.105251e+13	7.172958e+03	2.952580e+03	1.902090e+03	0	6.767492e-04
5.600000e+08	9.367435e+12	0.000000e+00	6.453901e-01	1.760865e+14	3.019833e+14	8.065153e+13	7.152803e+03	2.948628e+03	1.899544e+03	0	6.729465e-04
5.700000e+08	9.211944e+12	0.000000e+00	6.453901e-01	1.734096e+14	2.981908e+14	8.025340e+13	7.132958e+03	2.944739e+03	1.897038e+03	0	6.692023e-04
5.800000e+08	9.060504e+12	0.000000e+00	6.453901e-01	1.708020e+14	2.944929e+14	7.985809e+13	7.113412e+03	2.940910e+03	1.894571e+03	0	6.655149e-04
5.900000e+08	8.912968e+12	0.000000e+00	6.453901e-01	1.682610e+14	2.908857e+14	7.946559e+13	7.094158e+03	2.937140e+03	1.892143e+03	0	6.618828e-04
6.000000e+08	8.769197e+12	0.000000e+00	6.453901e-01	1.657844e+14	2.873660e+14	7.907586e+13	7.075190e+03	2.933426e+03	1.889750e+03	0	6.583047e-04
6.100000e+08	8.629056e+12	0.000000e+00	6.453901e-01	1.633698e+14	2.839305e+14	7.868889e+13	7.056500e+03	2.929768e+03	1.887393e+03	0	6.547790e-04
6.200000e+08	8.492418e+12	0.000000e+00	6.453901e-01	1.610150e+14	2.805762e+14	7.830466e+13	7.038080e+03	2.926163e+03	1.885071e+03	0	6.513045e-04
6.300000e+08	8.359160e+12	0.000000e+00	6.453901e-01	1.587181e+14	2.773000e+14	7.792314e+13	7.019925e+03	2.922610e+03	1.882782e+03	0	6.478799e-04
6.400000e+08	8.229166e+12	0.000000e+00	6.453901e-01	1.564769e+14	2.740992e+14	7.754430e+13	7.002027e+03	2.919107e+03	1.880526e+03	0	6.445040e-04
6.500000e+08	8.102324e+12	0.000000e+00	6.453901e-01	1.542896e+14	2.709711e+14	7.716814e+13	6.984381e+03	2.915654e+03	1.878301e+03	0	6.411754e-04
6.600000e+08	7.978528e+12	0.000000e+00	6.453901e-01	1.521544e+14	2.679133e+14	7.679462e+13	6.966981e+03	2.912248e+03	1.876107e+03	0	6.378931e-04
6.700000e+08	7.857676e+12	0.000000e+00	6.453901e-01	1.500696e+14	2.649233e+14	7.642373e+13	6.949820e+03	2.908889e+03	1.873943e+03	0	6.346560e-04
6.800000e+08	7.739671e+12	0.000000e+00	6.453901e-01	1.480334e+14	2.619989e+14	7.605545e+13	6.932893e+03	2.905575e+03	1.871808e+03	0	6.314629e-04
6.900000e+08	7.624418e+12	0.000000e+00	6.453901e-01	1.460443e+14	2.591378e+14	7.568975e+13	6.916195e+03	2.902305e+03	1.869702e+03	0	6.283128e-04
7.000000e+08	7.511829e+12	0.000000e+00	6.453901e-01	1.441008e+14	2.563379e+14	7.532661e+13	6.899720e+03	2.899078e+03	1.867623e+03	0	6.252047e-04
7.100000e+08	7.401817e+12	0.000000e+00	6.453901e-01	1.422014e+14	2.535974e+14	7.496601e+13	6.883463e+03	2.895893e+03	1.865571e+03	0	6.221376e-04
7.200000e+08	7.294300e+12	0.000000e+00	6.453901e-01	1.403447e+14	2.509141e+14	7.460794e+13	6.867420e+03	2.892748e+03	1.863545e+03	0	6.191105e-04
7.300000e+08	7.189200e+12	0.000000e+00	6.453901e-01	1.385293e+14	2.482865e+14	7.425236e+13	6.851585e+03	2.889644e+03	1.861545e+03	0	6.161226e-04
7.400000e+08	7.086440e+12	0.000000e+00	6.453901e-01	1.367539e+14	2.457126e+14	7.389927e+13	6.835955e+03	2.886577e+03	1.859570e+03	0	6.131730e-04
7.500000e+08	6.985948e+12	0.000000e+00	6.453901e-01	1.350174e+14	2.431908e+14	7.354865e+13	6.820523e+03	2.883549e+03	1.857619e+03	0	6.102608e-04
7.600000e+08	6.887654e+12	0.000000e+00	6.453901e-01	1.333186e+14	2.407195e+14	7.320046e+13	6.805287e+03	2.880558e+03	1.855692e+03	0	6.073851e-04
7.700000e+08	6.791492e+12	0.000000e+00	6.453901e-01	1.316562e+14	2.382972e+14	7.285470e+13	6.790242e+03	2.877602e+03	1.853788e+03	0	6.045451e-04
7.800000e+08	6.697396e+12	0.000000e+00	6.453901e-01	1.300292e+14	2.359223e+14	7.251134e+13	6.775384e+03	2.874682e+03	1.851907e+03	0	6.017401e-04
7.900000e+08	6.605305e+12	0.000000e+00	6.453901e-01	1.284365e+14	2.335936e+14	7.217036e+13	6.760708e+03	2.871796e+03	1.850047e+03	0	5.989694e-04
8.000000e+08	6.515159e+12	0.000000e+00	6.453901e-01	1.268772e+14	2.313096e+14	7.183175e+13	6.746212e+03	2.868944e+03	1.848210e+03	0	5.962321e-04
8.100000e+08	6.426901e+12	0.000000e+00	6.453901e-01	1.253502e+14	2.290690e+14	7.149548e+13	6.731890e+03	2.866124e+03	1.846394e+03	0	5.935275e-04
8.200000e+08	6.340476e+12	0.000000e+00	6.453901e-01	1.238545e+14	2.268706e+14	7.116155e+13	6.717741e+03	2.863337e+03	1.844598e+03	0	5.908550e-04
8.300000e+08	6.255831e+12	0.000000e+00	6.453901e-01	1.223894e+14	2.247131e+14	7.082992e+13	6.703759e+03	2.860581e+03	1.842822e+03	0	5.882139e-04
8.400000e+08	6.172914e+12	0.000000e+00	6.453901e-01	1.209539e+14	2.225955e+14	7.050058e+13	6.689942e+03	2.857855e+03	1.841067e+03	0	5.856036e-04
8.500000e+08	6.091676e+12	0.000000e+00	6.453901e-01	1.195472e+14	2.205165e+14	7.017352e+13	6.676287e+03	2.855160e+03	1.839330e+03	0	5.830233e-04
8.600000e+08	6.012070e+12	0.000000e+00	6.453901e-01	1.181684e+14	2.184752e+14	6.984871e+13	6.662790e+03	2.852494e+03	1.837613e+03	0	5.804725e-04
8.700000e+08	5.934051e+12	0.000000e+00	6.453901e-01	1.168169e+14	2.164705e+14	6.952613e+13	6.649448e+03	2.849857e+03	1.835914e+03	0	5.779506e-04
8.800000e+08	5.857574e+12	0.000000e+00	6.453901e-01	1.154917e+14	2.145013e+14	6.920577e+13	6.636258e+03	2.847248e+03	1.834233e+03	0	5.754570e-04
8.900000e+08	5.782596e+12	0.000000e+00	6.453901e-01	1.141923e+14	2.125668e+14	6.888762e+13	6.623217e+03	2.844666e+03	1.832570e+03	0	5.729912e-04
9.000000e+08	5.709077e+12	0.000000e+00	6.453901e-01	1.129179e+14	2.106660e+14	6.857165e+13	6.610322e+03	2.842112e+03	1.830924e+03	0	5.705525e-04
9.100000e+08	5.636976e+12	0.000000e+00	6.453901e-01	1.116678e+14	2.087980e+14	6.825784e+13	6.597571e+03	2.839584e+03	1.829296e+03	0	5.681405e-04
9.200000e+08	5.566257e+12	0.000000e+00	6.453901e-01	1.104414e+14	2.069620e+14	6.794619e+13	6.584960e+03	2.837082e+03	1.827684e+03	0	5.657546e-04
9.300000e+08	5.496881e+12	0.000000e+00	6.453901e-01	1.092381e+14	2.051571e+14	6.763666e+13	6.572487e+03	2.834605e+03	1.826088e+03	0	5.633943e-04
9.400000e+08	5.428814e+12	0.000000e+00	6.453901e-01	1.080572e+14	2.033825e+14	6.732925e+13	6.560150e+03	2.832153e+03	1.824509e+03	0	5.610591e-04
9.500000e+08	5.362021e+12	0.000000e+00	6.453901e-01	1.068982e+14	2.016375e+14	6.702394e+13	6.547945e+03	2.829726e+03	1.822945e+03	0	5.587486e-04
9.600000e+08	5.296468e+12	0.000000e+00	6.453901e-01	1.057604e+14	1.999213e+14	6.672071e+13	6.535871e+03	2.827322e+03	1.821397e+03	0	5.564623e-04
9.700000e+08	5.232123e+12	0.000000e+00	6.453901e-01	1.046434e+14	1.982333e+14	6.641955e+13	6.523925e+03	2.824943e+03	1.819864e+03	0	5.541997e-04
9.800000e+08	5.168956e+12	0.000000e+00	6.453901e-01	1.035466e+14	1.965726e+14	6.612043e+13	6.512104e+03	2.822586e+03	1.818345e+03	0	5.519604e-04
9.900000e+08	5.106936e+12	0.000000e+00	6.453901e-01	1.024695e+14	1.949386e+14	6.582335e+13	6.500408e+03	2.820251e+03	1.816842e+03	0	5.497440e-04
1.000000e+09	5.046035e+12	0.000000e+00	6.453901e-01	1.014116e+14	1.933307e+14	6.552829e+13	6.488832e+03	2.817939e+03	1.815352e+03	0	5.475499e-04
1.010000e+09	4.986223e+12	0.000000e+00	6.453901e-01	1.003724e+14	1.917483e+14	6.523522e+13	6.477375e+03	2.815649e+03	1.813877e+03	0	5.453779e-04
1.020000e+09	4.927474e+12	0.000000e+00	6.453901e-01	9.935142e+13	1.901906e+14	6.494414e+13	6.466036e+03	2.813380e+03	1.812415e+03	0	5.432275e-04
1.030000e+09	4.869762e+12	0.000000e+00	6.453901e-01	9.834827e+13	1.886573e+14	6.465504e+13	6.454811e+03	2.811132e+03	1.810967e+03	0	5.410984e-04
1.040000e+09	4.813061e+12	0.000000e+00	6.453901e-01	9.736249e+13	1.871476e+14	6.436788e+13	6.443699e+03	2.808905e+03	1.809532e+03	0	5.389901e-04
1.050000e+09	4.757346e+12	0.000000e+00	6.453901e-01	9.639365e+13	1.856610e+14	6.408267e+13	6.432699e+03	2.806698e+03	1.808111e+03	0	5.369023e-04
1.060000e+09	4.702593e+12	0.000000e+00	6.453901e-01	9.544134e+13	1.841970e+14	6.379937e+13	6.421807e+03	2.804511e+03	1.806702e+03	0	5.348345e-04
1.070000e+09	4.648779e+12	0.000000e+00	6.453901e-01	9.450516e+13	1.827550e+14	6.351799e+13	6.411023e+03	2.802343e+03	1.805305e+03	0	5.327866e-04
1.080000e+09	4.595882e+12	0.000000e+00	6.453901e-01	9.358474e+13	1.813347e+14	6.323850e+13	6.400344e+03	2.800195e+03	1.803921e+03	0	5.307581e-04
1.090000e+09	4.543880e+12	0.000000e+00	6.453901e-01	9.267970e+13	1.799353e+14	6.296089e+13	6.389769e+03	2.798066e+03	1.802549e+03	0	5.287487e-04
1.100000e+09	4.492751e+12	0.000000e+00	6.453901e-01	9.178967e+13	1.785566e+14	6.268514e+13	6.379295e+03	2.795955e+03	1.801189e+03	0	5.267580e-04
1.110000e+09	4.442476e+12	0.000000e+00	6.453901e-01	9.091431e+13	1.771981e+14	6.241124e+13	6.368922e+03	2.793862e+03	1.799841e+03	0	5.247857e-04
1.120000e+09	4.393034e+12	0.000000e+00	6.453901e-01	9.005328e+13	1.758592e+14	6.213918e+13	6.358648e+03	2.791787e+03	1.798505e+03	0	5.228316e-04
1.130000e+09	4.344406e+12	0.000000e+00	6.453901e-01	8.920624e+13	1.745396e+14	6.186894e+13	6.348470e+03	2.789730e+03	1.797179e+03	0	5.208953e-04
1.140000e+09	4.296574e+12	0.000000e+00	6.453901e-01	8.837288e+13	1.732388e+14	6.160050e+13	6.338388e+03	2.787690e+03	1.795865e+03	0	5.189766e-04
1.150000e+09	4.249518e+12	0.000000e+00	6.453901e-01	8.755289e+13	1.719565e+14	6.133386e+13	6.328400e+03	2.785667e+03	1.794562e+03	0	5.170750e-04
1.160000e+09	4.203222e+12	0.000000e+00	6.453901e-01	8.674596e+13	1.706922e+14	6.106899e+13	6.318504e+03	2.783662e+03	1.793270e+03	0	5.151904e-04
1.170000e+09	4.157669e+12	0.000000e+00	6.453901e-01	8.595181e+13	1.694456e+14	6.080589e+13	6.308700e+03	2.781672e+03	1.791988e+03	0	5.133225e-04
1.180000e+09	4.112841e+12	0.000000e+00	6.453901e-01	8.517014e+13	1.682163e+14	6.054454e+13	6.298984e+03	2.779699e+03	1.790717e+03	0	5.114710e-04
1.190000e+09	4.068723e+12	0.000000e+00	6.453901e-01	8.440068e+13	1.670039e+14	6.028493e+13	6.289357e+03	2.777742e+03	1.789456e+03	0	5.096355e-04
1.200000e+09	4.025299e+12	0.000000e+00	6.453901e-01	8.364317e+13	1.658080e+14	6.002704e+13	6.279816e+03	2.775800e+03	1.788206e+03	0	5.078160e-04
1.210000e+09	3.982554e+12	0.000000e+00	6.453901e-01	8.289734e+13	1.646284e+14	5.977086e+13	6.270361e+03	2.773874e+03	1.786965e+03	0	5.060121e-04
1.220000e+09	3.940473e+12	0.000000e+00	6.453901e-01	8.216293e+13	1.634647e+14	5.951638e+13	6.260990e+03	2.771963e+03	1.785734e+03	0	5.042235e-04
1.230000e+09	3.899041e+12	0.000000e+00	6.453901e-01	8.143971e+13	1.623166e+14	5.926359e+13	6.251702e+03	2.770067e+03	1.784513e+03	0	5.024501e-04
1.240000e+09	3.858245e+12	0.000000e+00	6.453901e-01	8.072743e+13	1.611837e+14	5.901246e+13	6.242495e+03	2.768186e+03	1.783301e+03	0	5.006915e-04
1.250000e+09	3.818070e+12	0.000000e+00	6.453901e-01	8.002585e+13	1.600658e+14	5.876299e+13	6.233368e+03	2.766320e+03	1.782098e+03	0	4.989476e-04
1.260000e+09	3.778505e+12	0.000000e+00	6.453901e-01	7.933476e+13	1.589625e+14	5.851517e+13	6.224321e+03	2.764468e+03	1.780905e+03	0	4.972182e-04
1.270000e+09	3.739535e+12	0.000000e+00	6.453901e-01	7.865393e+13	1.578736e+14	5.826897e+13	6.215351e+03	2.762630e+03	1.779721e+03	0	4.955029e-04
1.280000e+09	3.701148e+12	0.000000e+00	6.453901e-01	7.798315e+13	1.567988e+14	5.802440e+13	6.206458e+03	2.760806e+03	1.778546e+03	0	4.938016e-04
1.290000e+09	3.663333e+12	0.000000e+00	6.453901e-01	7.732221e+13	1.557377e+14	5.778144e+13	6.197641e+03	2.758995e+03	1.777380e+03	0	4.921141e-04
1.300000e+09	3.626076e+12	0.000000e+00	6.453901e-01	7.667090e+13	1.546903e+14	5.754007e+13	6.188898e+03	2.757199e+03	1.776222e+03	0	4.904401e-04
1.310000e+09	3.589368e+12	0.000000e+00	6.453901e-01	7.602903e+13	1.536561e+14	5.730028e+13	6.180229e+03	2.755415e+03	1.775073e+03	0	4.887795e-04
1.320000e+09	3.553195e+12	0.000000e+00	6.453901e-01	7.539640e+13	1.526349e+14	5.706206e+13	6.171632e+03	2.753644e+03	1.773933e+03	0	4.871320e-04
1.330000e+09	3.517549e+12	0.000000e+00	6.453901e-01	7.477283e+13	1.516265e+14	5.682540e+13	6.163107e+03	2.751887e+03	1.772800e+03	0	4.854975e-04
1.340000e+09	3.482417e+12	0.000000e+00	6.453901e-01	7.415814e+13	1.506307e+14	5.659029e+13	6.154651e+03	2.750142e+03	1.771676e+03	0	4.838758e-04
1.350000e+09	3.447789e+12	0.000000e+00	6.453901e-01	7.355214e+13	1.496472e+14	5.635671e+13	6.146265e+03	2.748410e+03	1.770561e+03	0	4.822666e-04
1.360000e+09	3.413656e+12	0.000000e+00	6.453901e-01	7.295466e+13	1.486757e+14	5.612465e+13	6.137948e+03	2.746690e+03	1.769453e+03	0	4.806699e-04
