#t		Qconv[W]	Ri[Rp]		R*[Rp]		Qc[W]		Qm[W]		Qr[W]		Tcmb[K]		Tl[K]		Tup[K]		RiFlag		Bs[T]
0.000000e+00	5.058237e+13	0.000000e+00	6.453901e-01	8.205327e+14	1.566683e+15	1.224169e+14	9.914138e+03	3.729503e+03	2.359459e+03	0	1.172896e-03
1.000000e+07	4.846176e+13	0.000000e+00	6.453901e-01	7.872242e+14	1.447076e+15	1.217387e+14	9.835221e+03	3.684544e+03	2.331016e+03	0	1.156271e-03
2.000000e+07	4.650346e+13	0.000000e+00	6.453901e-01	7.564558e+14	1.347584e+15	1.210655e+14	9.759471e+03	3.645574e+03	2.306362e+03	0	1.140482e-03
3.000000e+07	4.468785e+13	0.000000e+00	6.453901e-01	7.279208e+14	1.263450e+15	1.203973e+14	9.686647e+03	3.611394e+03	2.284738e+03	0	1.125442e-03
4.000000e+07	4.299859e+13	0.000000e+00	6.453901e-01	7.013640e+14	1.191285e+15	1.197341e+14	9.616540e+03	3.581101e+03	2.265573e+03	0	1.111078e-03
5.000000e+07	4.142196e+13	0.000000e+00	6.453901e-01	6.765710e+14	1.128616e+15	1.190758e+14	9.548964e+03	3.554002e+03	2.248429e+03	0	1.097329e-03
6.000000e+07	3.994635e+13	0.000000e+00	6.453901e-01	6.533601e+14	1.073602e+15	1.184225e+14	9.483750e+03	3.529559e+03	2.232965e+03	0	1.084141e-03
7.000000e+07	3.856179e+13	0.000000e+00	6.453901e-01	6.315757e+14	1.024843e+15	1.177740e+14	9.420751e+03	3.507347e+03	2.218913e+03	0	1.071467e-03
8.000000e+07	3.725973e+13	0.000000e+00	6.453901e-01	6.110836e+14	9.812635e+14	1.171304e+14	9.359831e+03	3.487025e+03	2.206056e+03	0	1.059270e-03
9.000000e+07	3.603270e+13	0.000000e+00	6.453901e-01	5.917676e+14	9.420182e+14	1.164915e+14	9.300869e+03	3.468320e+03	2.194223e+03	0	1.047512e-03
1.000000e+08	3.487421e+13	0.000000e+00	6.453901e-01	5.735257e+14	9.064388e+14	1.158574e+14	9.243752e+03	3.451008e+03	2.183270e+03	0	1.036163e-03
1.100000e+08	3.377853e+13	0.000000e+00	6.453901e-01	5.562685e+14	8.739888e+14	1.152280e+14	9.188379e+03	3.434904e+03	2.173082e+03	0	1.025196e-03
1.200000e+08	3.274059e+13	0.000000e+00	6.453901e-01	5.399166e+14	8.442329e+14	1.146033e+14	9.134656e+03	3.419855e+03	2.163562e+03	0	1.014586e-03
1.300000e+08	3.175591e+13	0.000000e+00	6.453901e-01	5.243999e+14	8.168147e+14	1.139831e+14	9.082499e+03	3.405735e+03	2.154628e+03	0	1.004311e-03
1.400000e+08	3.082045e+13	0.000000e+00	6.453901e-01	5.096553e+14	7.914397e+14	1.133676e+14	9.031827e+03	3.392435e+03	2.146214e+03	0	9.943507e-04
1.500000e+08	2.993063e+13	0.000000e+00	6.453901e-01	4.956264e+14	7.678622e+14	1.127566e+14	8.982567e+03	3.379864e+03	2.138261e+03	0	9.846878e-04
1.600000e+08	2.908319e+13	0.000000e+00	6.453901e-01	4.822626e+14	7.458757e+14	1.121502e+14	8.934651e+03	3.367946e+03	2.130721e+03	0	9.753054e-04
1.700000e+08	2.827521e+13	0.000000e+00	6.453901e-01	4.695179e+14	7.253058e+14	1.115482e+14	8.888016e+03	3.356613e+03	2.123551e+03	0	9.661886e-04
1.800000e+08	2.750403e+13	0.000000e+00	6.453901e-01	4.573508e+14	7.060034e+14	1.109506e+14	8.842604e+03	3.345808e+03	2.116716e+03	0	9.573235e-04
1.900000e+08	2.676724e+13	0.000000e+00	6.453901e-01	4.457234e+14	6.878409e+14	1.103575e+14	8.798358e+03	3.335482e+03	2.110183e+03	0	9.486976e-04
2.000000e+08	2.606263e+13	0.000000e+00	6.453901e-01	4.346012e+14	6.707082e+14	1.097687e+14	8.755229e+03	3.325591e+03	2.103925e+03	0	9.402990e-04
2.100000e+08	2.538819e+13	0.000000e+00	6.453901e-01	4.239528e+14	6.545097e+14	1.091842e+14	8.713167e+03	3.316097e+03	2.097919e+03	0	9.321171e-04
2.200000e+08	2.474207e+13	0.000000e+00	6.453901e-01	4.137491e+14	6.391621e+14	1.086041e+14	8.672127e+03	3.306969e+03	2.092144e+03	0	9.241417e-04
2.300000e+08	2.412258e+13	0.000000e+00	6.453901e-01	4.039636e+14	6.245921e+14	1.080281e+14	8.632068e+03	3.298176e+03	2.086581e+03	0	9.163636e-04
2.400000e+08	2.352816e+13	0.000000e+00	6.453901e-01	3.945719e+14	6.107355e+14	1.074565e+14	8.592949e+03	3.289692e+03	2.081214e+03	0	9.087740e-04
2.500000e+08	2.295736e+13	0.000000e+00	6.453901e-01	3.855514e+14	5.975353e+14	1.068890e+14	8.554733e+03	3.281495e+03	2.076028e+03	0	9.013648e-04
2.600000e+08	2.240887e+13	0.000000e+00	6.453901e-01	3.768813e+14	5.849408e+14	1.063256e+14	8.517384e+03	3.273564e+03	2.071011e+03	0	8.941284e-04
2.700000e+08	2.188144e+13	0.000000e+00	6.453901e-01	3.685422e+14	5.729068e+14	1.057664e+14	8.480868e+03	3.265881e+03	2.066150e+03	0	8.870577e-04
2.800000e+08	2.137393e+13	0.000000e+00	6.453901e-01	3.605163e+14	5.613931e+14	1.052112e+14	8.445155e+03	3.258429e+03	2.061436e+03	0	8.801461e-04
2.900000e+08	2.088529e+13	0.000000e+00	6.453901e-01	3.527868e+14	5.503631e+14	1.046601e+14	8.410215e+03	3.251194e+03	2.056858e+03	0	8.733871e-04
3.000000e+08	2.041452e+13	0.000000e+00	6.453901e-01	3.453384e+14	5.397841e+14	1.041131e+14	8.376018e+03	3.244162e+03	2.052410e+03	0	8.667749e-04
3.100000e+08	1.996071e+13	0.000000e+00	6.453901e-01	3.381565e+14	5.296264e+14	1.035700e+14	8.342538e+03	3.237321e+03	2.048082e+03	0	8.603039e-04
3.200000e+08	1.952299e+13	0.000000e+00	6.453901e-01	3.312278e+14	5.198633e+14	1.030309e+14	8.309750e+03	3.230660e+03	2.043868e+03	0	8.539689e-04
3.300000e+08	1.910057e+13	0.000000e+00	6.453901e-01	3.245397e+14	5.104701e+14	1.024956e+14	8.277629e+03	3.224169e+03	2.039761e+03	0	8.477648e-04
3.400000e+08	1.869270e+13	0.000000e+00	6.453901e-01	3.180803e+14	5.014245e+14	1.019643e+14	8.246152e+03	3.217839e+03	2.035756e+03	0	8.416869e-04
3.500000e+08	1.829866e+13	0.000000e+00	6.453901e-01	3.118387e+14	4.927061e+14	1.014368e+14	8.215298e+03	3.211661e+03	2.031848e+03	0	8.357307e-04
3.600000e+08	1.791782e+13	0.000000e+00	6.453901e-01	3.058046e+14	4.842961e+14	1.009132e+14	8.185045e+03	3.205628e+03	2.028031e+03	0	8.298921e-04
3.700000e+08	1.754954e+13	0.000000e+00	6.453901e-01	2.999683e+14	4.761772e+14	1.003933e+14	8.155375e+03	3.199732e+03	2.024301e+03	0	8.241668e-04
3.800000e+08	1.719324e+13	0.000000e+00	6.453901e-01	2.943207e+14	4.683337e+14	9.987722e+13	8.126266e+03	3.193968e+03	2.020654e+03	0	8.185512e-04
3.900000e+08	1.684840e+13	0.000000e+00	6.453901e-01	2.888531e+14	4.607507e+14	9.936486e+13	8.097703e+03	3.188328e+03	2.017086e+03	0	8.130416e-04
4.000000e+08	1.651448e+13	0.000000e+00	6.453901e-01	2.835576e+14	4.534147e+14	9.885619e+13	8.069667e+03	3.182807e+03	2.013594e+03	0	8.076345e-04
4.100000e+08	1.619100e+13	0.000000e+00	6.453901e-01	2.784266e+14	4.463132e+14	9.835119e+13	8.042142e+03	3.177400e+03	2.010173e+03	0	8.023265e-04
4.200000e+08	1.587751e+13	0.000000e+00	6.453901e-01	2.734528e+14	4.394344e+14	9.784983e+13	8.015112e+03	3.172103e+03	2.006822e+03	0	7.971146e-04
4.300000e+08	1.557358e+13	0.000000e+00	6.453901e-01	2.686296e+14	4.327675e+14	9.735209e+13	7.988561e+03	3.166910e+03	2.003536e+03	0	7.919956e-04
4.400000e+08	1.527881e+13	0.000000e+00	6.453901e-01	2.639505e+14	4.263023e+14	9.685792e+13	7.962477e+03	3.161817e+03	2.000315e+03	0	7.869668e-04
4.500000e+08	1.499280e+13	0.000000e+00	6.453901e-01	2.594096e+14	4.200293e+14	9.636731e+13	7.936844e+03	3.156821e+03	1.997154e+03	0	7.820253e-04
4.600000e+08	1.471519e+13	0.000000e+00	6.453901e-01	2.550011e+14	4.139398e+14	9.588021e+13	7.911650e+03	3.151918e+03	1.994052e+03	0	7.771686e-04
4.700000e+08	1.444565e+13	0.000000e+00	6.453901e-01	2.507195e+14	4.080254e+14	9.539661e+13	7.886882e+03	3.147103e+03	1.991006e+03	0	7.723941e-04
4.800000e+08	1.418383e+13	0.000000e+00	6.453901e-01	2.465599e+14	4.022783e+14	9.491648e+13	7.862527e+03	3.142375e+03	1.988014e+03	0	7.676993e-04
4.900000e+08	1.392945e+13	0.000000e+00	6.453901e-01	2.425172e+14	3.966913e+14	9.443978e+13	7.838574e+03	3.137729e+03	1.985075e+03	0	7.630820e-04
5.000000e+08	1.368219e+13	0.000000e+00	6.453901e-01	2.385870e+14	3.912575e+14	9.396649e+13	7.815011e+03	3.133163e+03	1.982187e+03	0	7.585399e-04
5.100000e+08	1.344179e+13	0.000000e+00	6.453901e-01	2.347648e+14	3.859705e+14	9.349659e+13	7.791829e+03	3.128674e+03	1.979347e+03	0	7.540710e-04
5.200000e+08	1.320797e+13	0.000000e+00	6.453901e-01	2.310465e+14	3.808241e+14	9.303003e+13	7.769015e+03	3.124260e+03	1.976554e+03	0	7.496731e-04
5.300000e+08	1.298049e+13	0.000000e+00	6.453901e-01	2.274281e+14	3.758127e+14	9.256681e+13	7.746562e+03	3.119918e+03	1.973807e+03	0	7.453443e-04
5.400000e+08	1.275911e+13	0.000000e+00	6.453901e-01	2.239059e+14	3.709309e+14	9.210688e+13	7.724458e+03	3.115645e+03	1.971104e+03	0	7.410827e-04
5.500000e+08	1.254359e+13	0.000000e+00	6.453901e-01	2.204763e+14	3.661735e+14	9.165023e+13	7.702694e+03	3.111440e+03	1.968443e+03	0	7.368865e-04
5.600000e+08	1.233373e+13	0.000000e+00	6.453901e-01	2.171359e+14	3.615357e+14	9.119682e+13	7.681263e+03	3.107300e+03	1.965824e+03	0	7.327539e-04
5.700000e+08	1.212932e+13	0.000000e+00	6.453901e-01	2.138814e+14	3.570129e+14	9.074663e+13	7.660154e+03	3.103223e+03	1.963245e+03	0	7.286832e-04
5.800000e+08	1.193016e+13	0.000000e+00	6.453901e-01	2.107098e+14	3.526008e+14	9.029964e+13	7.639360e+03	3.099208e+03	1.960705e+03	0	7.246729e-04
5.900000e+08	1.173606e+13	0.000000e+00	6.453901e-01	2.076180e+14	3.482953e+14	8.985581e+13	7.618873e+03	3.095253e+03	1.958203e+03	0	7.207213e-04
6.000000e+08	1.154684e+13	0.000000e+00	6.453901e-01	2.046034e+14	3.440924e+14	8.941513e+13	7.598685e+03	3.091355e+03	1.955737e+03	0	7.168270e-04
6.100000e+08	1.136234e+13	0.000000e+00	6.453901e-01	2.016631e+14	3.399884e+14	8.897756e+13	7.578789e+03	3.087513e+03	1.953307e+03	0	7.129884e-04
6.200000e+08	1.118238e+13	0.000000e+00	6.453901e-01	1.987947e+14	3.359798e+14	8.854309e+13	7.559177e+03	3.083727e+03	1.950911e+03	0	7.092043e-04
6.300000e+08	1.100682e+13	0.000000e+00	6.453901e-01	1.959956e+14	3.320633e+14	8.811168e+13	7.539843e+03	3.079993e+03	1.948549e+03	0	7.054732e-04
6.400000e+08	1.083550e+13	0.000000e+00	6.453901e-01	1.932636e+14	3.282356e+14	8.768332e+13	7.520780e+03	3.076311e+03	1.946219e+03	0	7.017938e-04
6.500000e+08	1.066828e+13	0.000000e+00	6.453901e-01	1.905963e+14	3.244936e+14	8.725797e+13	7.501982e+03	3.072679e+03	1.943921e+03	0	6.981650e-04
6.600000e+08	1.050503e+13	0.000000e+00	6.453901e-01	1.879917e+14	3.208346e+14	8.683562e+13	7.483442e+03	3.069096e+03	1.941655e+03	0	6.945854e-04
6.700000e+08	1.034560e+13	0.000000e+00	6.453901e-01	1.854476e+14	3.172556e+14	8.641623e+13	7.465154e+03	3.065561e+03	1.939418e+03	0	6.910538e-04
6.800000e+08	1.018989e+13	0.000000e+00	6.453901e-01	1.829621e+14	3.137541e+14	8.599979e+13	7.447112e+03	3.062072e+03	1.937211e+03	0	6.875692e-04
6.900000e+08	1.003777e+13	0.000000e+00	6.453901e-01	1.805333e+14	3.103274e+14	8.558627e+13	7.429311e+03	3.058628e+03	1.935032e+03	0	6.841305e-04
7.000000e+08	9.889114e+12	0.000000e+00	6.453901e-01	1.781594e+14	3.069733e+14	8.517565e+13	7.411745e+03	3.055228e+03	1.932881e+03	0	6.807365e-04
7.100000e+08	9.743825e+12	0.000000e+00	6.453901e-01	1.758387e+14	3.036894e+14	8.476791e+13	7.394410e+03	3.051872e+03	1.930758e+03	0	6.773863e-04
7.200000e+08	9.601793e+12	0.000000e+00	6.453901e-01	1.735695e+14	3.004733e+14	8.436302e+13	7.377299e+03	3.048557e+03	1.928661e+03	0	6.740788e-04
7.300000e+08	9.462915e+12	0.000000e+00	6.453901e-01	1.713501e+14	2.973232e+14	8.396095e+13	7.360408e+03	3.045283e+03	1.926589e+03	0	6.708132e-04
7.400000e+08	9.327095e+12	0.000000e+00	6.453901e-01	1.691791e+14	2.942368e+14	8.356170e+13	7.343732e+03	3.042049e+03	1.924544e+03	0	6.675883e-04
7.500000e+08	9.194240e+12	0.000000e+00	6.453901e-01	1.670550e+14	2.912123e+14	8.316522e+13	7.327266e+03	3.038854e+03	1.922522e+03	0	6.644034e-04
7.600000e+08	9.064258e+12	0.000000e+00	6.453901e-01	1.649763e+14	2.882477e+14	8.277151e+13	7.311006e+03	3.035698e+03	1.920525e+03	0	6.612576e-04
7.700000e+08	8.937063e+12	0.000000e+00	6.453901e-01	1.629418e+14	2.853414e+14	8.238054e+13	7.294948e+03	3.032578e+03	1.918552e+03	0	6.581500e-04
7.800000e+08	8.812572e+12	0.000000e+00	6.453901e-01	1.609500e+14	2.824915e+14	8.199228e+13	7.279087e+03	3.029495e+03	1.916601e+03	0	6.550797e-04
7.900000e+08	8.690706e+12	0.000000e+00	6.453901e-01	1.589998e+14	2.796964e+14	8.160673e+13	7.263419e+03	3.026447e+03	1.914673e+03	0	6.520461e-04
8.000000e+08	8.571387e+12	0.000000e+00	6.453901e-01	1.570898e+14	2.769545e+14	8.122384e+13	7.247940e+03	3.023434e+03	1.912767e+03	0	6.490482e-04
8.100000e+08	8.454540e+12	0.000000e+00	6.453901e-01	1.552190e+14	2.742643e+14	8.084361e+13	7.232647e+03	3.020456e+03	1.910883e+03	0	6.460854e-04
8.200000e+08	8.340095e+12	0.000000e+00	6.453901e-01	1.533863e+14	2.716244e+14	8.046601e+13	7.217534e+03	3.017510e+03	1.909019e+03	0	6.431569e-04
8.300000e+08	8.227983e+12	0.000000e+00	6.453901e-01	1.515904e+14	2.690333e+14	8.009102e+13	7.202600e+03	3.014597e+03	1.907176e+03	0	6.402620e-04
8.400000e+08	8.118138e+12	0.000000e+00	6.453901e-01	1.498305e+14	2.664896e+14	7.971862e+13	7.187839e+03	3.011716e+03	1.905353e+03	0	6.374000e-04
8.500000e+08	8.010496e+12	0.000000e+00	6.453901e-01	1.481055e+14	2.639920e+14	7.934879e+13	7.173250e+03	3.008866e+03	1.903550e+03	0	6.345703e-04
8.600000e+08	7.904994e+12	0.000000e+00	6.453901e-01	1.464143e+14	2.615394e+14	7.898151e+13	7.158827e+03	3.006047e+03	1.901767e+03	0	6.317721e-04
8.700000e+08	7.801575e+12	0.000000e+00	6.453901e-01	1.447562e+14	2.591304e+14	7.861676e+13	7.144569e+03	3.003257e+03	1.900002e+03	0	6.290049e-04
8.800000e+08	7.700181e+12	0.000000e+00	6.453901e-01	1.431301e+14	2.567639e+14	7.825452e+13	7.130472e+03	3.000497e+03	1.898256e+03	0	6.262680e-04
8.900000e+08	7.600756e+12	0.000000e+00	6.453901e-01	1.415352e+14	2.544388e+14	7.789476e+13	7.116532e+03	2.997765e+03	1.896528e+03	0	6.235609e-04
9.000000e+08	7.503248e+12	0.000000e+00	6.453901e-01	1.399708e+14	2.521540e+14	7.753748e+13	7.102747e+03	2.995062e+03	1.894817e+03	0	6.208829e-04
9.100000e+08	7.407604e+12	0.000000e+00	6.453901e-01	1.384358e+14	2.499084e+14	7.718264e+13	7.089114e+03	2.992386e+03	1.893125e+03	0	6.182335e-04
9.200000e+08	7.313776e+12	0.000000e+00	6.453901e-01	1.369297e+14	2.477010e+14	7.683023e+13	7.075630e+03	2.989738e+03	1.891449e+03	0	6.156121e-04
9.300000e+08	7.221715e+12	0.000000e+00	6.453901e-01	1.354515e+14	2.455308e+14	7.648024e+13	7.062292e+03	2.987115e+03	1.889790e+03	0	6.130182e-04
9.400000e+08	7.131374e+12	0.000000e+00	6.453901e-01	1.340007e+14	2.433970e+14	7.613264e+13	7.049097e+03	2.984519e+03	1.888147e+03	0	6.104513e-04
9.500000e+08	7.042710e+12	0.000000e+00	6.453901e-01	1.325764e+14	2.412985e+14	7.578740e+13	7.036043e+03	2.981948e+03	1.886521e+03	0	6.079108e-04
9.600000e+08	6.955678e+12	0.000000e+00	6.453901e-01	1.311780e+14	2.392345e+14	7.544453e+13	7.023128e+03	2.979403e+03	1.884910e+03	0	6.053963e-04
9.700000e+08	6.870238e+12	0.000000e+00	6.453901e-01	1.298049e+14	2.372042e+14	7.510399e+13	7.010348e+03	2.976881e+03	1.883315e+03	0	6.029073e-04
9.800000e+08	6.786347e+12	0.000000e+00	6.453901e-01	1.284564e+14	2.352066e+14	7.476576e+13	6.997702e+03	2.974384e+03	1.881736e+03	0	6.004432e-04
9.900000e+08	6.703968e+12	0.000000e+00	6.453901e-01	1.271318e+14	2.332411e+14	7.442984e+13	6.985186e+03	2.971911e+03	1.880171e+03	0	5.980037e-04
1.000000e+09	6.623062e+12	0.000000e+00	6.453901e-01	1.258306e+14	2.313069e+14	7.409619e+13	6.972799e+03	2.969461e+03	1.878621e+03	0	5.955883e-04
1.010000e+09	6.543592e+12	0.000000e+00	6.453901e-01	1.245522e+14	2.294031e+14	7.376481e+13	6.960539e+03	2.967033e+03	1.877085e+03	0	5.931966e-04
1.020000e+09	6.465524e+12	0.000000e+00	6.453901e-01	1.232961e+14	2.275291e+14	7.343567e+13	6.948402e+03	2.964628e+03	1.875563e+03	0	5.908281e-04
1.030000e+09	6.388822e+12	0.000000e+00	6.453901e-01	1.220616e+14	2.256842e+14	7.310876e+13	6.936388e+03	2.962245e+03	1.874056e+03	0	5.884824e-04
1.040000e+09	6.313453e+12	0.000000e+00	6.453901e-01	1.208483e+14	2.238677e+14	7.278406e+13	6.924493e+03	2.959884e+03	1.872562e+03	0	5.861592e-04
1.050000e+09	6.239385e+12	0.000000e+00	6.453901e-01	1.196557e+14	2.220790e+14	7.246155e+13	6.912716e+03	2.957544e+03	1.871081e+03	0	5.838579e-04
1.060000e+09	6.166587e+12	0.000000e+00	6.453901e-01	1.184832e+14	2.203173e+14	7.214122e+13	6.901055e+03	2.955224e+03	1.869614e+03	0	5.815783e-04
1.070000e+09	6.095028e+12	0.000000e+00	6.453901e-01	1.173305e+14	2.185821e+14	7.182305e+13	6.889508e+03	2.952925e+03	1.868160e+03	0	5.793199e-04
1.080000e+09	6.024679e+12	0.000000e+00	6.453901e-01	1.161969e+14	2.168728e+14	7.150701e+13	6.878073e+03	2.950647e+03	1.866718e+03	0	5.770825e-04
1.090000e+09	5.955511e+12	0.000000e+00	6.453901e-01	1.150821e+14	2.151889e+14	7.119310e+13	6.866748e+03	2.948388e+03	1.865289e+03	0	5.748655e-04
1.100000e+09	5.887497e+12	0.000000e+00	6.453901e-01	1.139857e+14	2.135296e+14	7.088130e+13	6.855532e+03	2.946148e+03	1.863872e+03	0	5.726688e-04
1.110000e+09	5.820610e+12	0.000000e+00	6.453901e-01	1.129072e+14	2.118946e+14	7.057159e+13	6.844422e+03	2.943928e+03	1.862468e+03	0	5.704918e-04
1.120000e+09	5.754824e+12	0.000000e+00	6.453901e-01	1.118461e+14	2.102832e+14	7.026396e+13	6.833416e+03	2.941727e+03	1.861075e+03	0	5.683344e-04
1.130000e+09	5.690114e+12	0.000000e+00	6.453901e-01	1.108022e+14	2.086950e+14	6.995838e+13	6.822514e+03	2.939544e+03	1.859694e+03	0	5.661961e-04
1.140000e+09	5.626455e+12	0.000000e+00	6.453901e-01	1.097749e+14	2.071294e+14	6.965485e+13	6.811713e+03	2.937379e+03	1.858325e+03	0	5.640767e-04
1.150000e+09	5.563823e+12	0.000000e+00	6.453901e-01	1.087641e+14	2.055860e+14	6.935334e+13	6.801012e+03	2.935233e+03	1.856966e+03	0	5.619759e-04
1.160000e+09	5.502195e+12	0.000000e+00	6.453901e-01	1.077691e+14	2.040643e+14	6.905384e+13	6.790410e+03	2.933104e+03	1.855619e+03	0	5.598933e-04
1.170000e+09	5.441549e+12	0.000000e+00	6.453901e-01	1.067898e+14	2.025638e+14	6.875634e+13	6.779904e+03	2.930992e+03	1.854284e+03	0	5.578286e-04
1.180000e+09	5.381864e+12	0.000000e+00	6.453901e-01	1.058258e+14	2.010842e+14	6.846082e+13	6.769493e+03	2.928897e+03	1.852958e+03	0	5.557816e-04
1.190000e+09	5.323117e+12	0.000000e+00	6.453901e-01	1.048767e+14	1.996248e+14	6.816726e+13	6.759175e+03	2.926819e+03	1.851644e+03	0	5.537519e-04
1.200000e+09	5.265288e+12	0.000000e+00	6.453901e-01	1.039422e+14	1.981855e+14	6.787565e+13	6.748951e+03	2.924758e+03	1.850340e+03	0	5.517394e-04
1.210000e+09	5.208357e+12	0.000000e+00	6.453901e-01	1.030220e+14	1.967656e+14	6.758598e+13	6.738816e+03	2.922713e+03	1.849046e+03	0	5.497436e-04
1.220000e+09	5.152306e+12	0.000000e+00	6.453901e-01	1.021158e+14	1.953649e+14	6.729822e+13	6.728772e+03	2.920685e+03	1.847763e+03	0	5.477644e-04
1.230000e+09	5.097114e+12	0.000000e+00	6.453901e-01	1.012233e+14	1.939829e+14	6.701237e+13	6.718815e+03	2.918672e+03	1.846489e+03	0	5.458015e-04
1.240000e+09	5.042764e+12	0.000000e+00	6.453901e-01	1.003442e+14	1.926193e+14	6.672841e+13	6.708945e+03	2.916674e+03	1.845225e+03	0	5.438546e-04
1.250000e+09	4.989237e+12	0.000000e+00	6.453901e-01	9.947818e+13	1.912737e+14	6.644632e+13	6.699161e+03	2.914692e+03	1.843971e+03	0	5.419235e-04
1.260000e+09	4.936516e+12	0.000000e+00	6.453901e-01	9.862502e+13	1.899458e+14	6.616610e+13	6.689461e+03	2.912725e+03	1.842727e+03	0	5.400079e-04
1.270000e+09	4.884585e+12	0.000000e+00	6.453901e-01	9.778442e+13	1.886351e+14	6.588771e+13	6.679844e+03	2.910773e+03	1.841492e+03	0	5.381076e-04
1.280000e+09	4.833426e+12	0.000000e+00	6.453901e-01	9.695614e+13	1.873415e+14	6.561116e+13	6.670308e+03	2.908836e+03	1.840266e+03	0	5.362224e-04
1.290000e+09	4.783025e+12	0.000000e+00	6.453901e-01	9.613991e+13	1.860644e+14	6.533643e+13	6.660853e+03	2.906913e+03	1.839050e+03	0	5.343520e-04
1.300000e+09	4.733364e+12	0.000000e+00	6.453901e-01	9.533549e+13	1.848037e+14	6.506350e+13	6.651478e+03	2.905004e+03	1.837842e+03	0	5.324963e-04
1.310000e+09	4.684430e+12	0.000000e+00	6.453901e-01	9.454264e+13	1.835589e+14	6.479236e+13	6.642180e+03	2.903109e+03	1.836644e+03	0	5.306549e-04
1.320000e+09	4.636206e+12	0.000000e+00	6.453901e-01	9.376113e+13	1.823299e+14	6.452300e+13	6.632960e+03	2.901228e+03	1.835454e+03	0	5.288277e-04
1.330000e+09	4.588680e+12	0.000000e+00	6.453901e-01	9.299072e+13	1.811162e+14	6.425539e+13	6.623816e+03	2.899361e+03	1.834273e+03	0	5.270144e-04
1.340000e+09	4.541836e+12	0.000000e+00	6.453901e-01	9.223119e+13	1.799177e+14	6.398954e+13	6.614747e+03	2.897508e+03	1.833100e+03	0	5.252149e-04
1.350000e+09	4.495661e+12	0.000000e+00	6.453901e-01	9.148234e+13	1.787340e+14	6.372542e+13	6.605751e+03	2.895667e+03	1.831936e+03	0	5.234290e-04
1.360000e+09	4.450142e+12	0.000000e+00	6.453901e-01	9.074394e+13	1.775648e+14	6.346302e+13	6.596829e+03	2.893840e+03	1.830780e+03	0	5.216564e-04
