#t		Qconv[W]	Ri[Rp]		R*[Rp]		Qc[W]		Qm[W]		Qr[W]		Tcmb[K]		Tl[K]		Tup[K]		RiFlag		Bs[T]
0.000000e+00	6.820398e+13	0.000000e+00	6.453900e-01	1.008220e+15	1.729875e+15	1.435473e+14	1.080432e+04	3.919877e+03	2.421573e+03	0	1.285519e-03
1.000000e+07	6.557288e+13	0.000000e+00	6.453900e-01	9.708676e+14	1.623567e+15	1.427520e+14	1.072439e+04	3.883717e+03	2.399235e+03	0	1.268771e-03
2.000000e+07	6.312255e+13	0.000000e+00	6.453900e-01	9.360699e+14	1.532374e+15	1.419626e+14	1.064739e+04	3.851706e+03	2.379459e+03	0	1.252766e-03
3.000000e+07	6.083335e+13	0.000000e+00	6.453900e-01	9.035499e+14	1.453152e+15	1.411791e+14	1.057312e+04	3.823094e+03	2.361784e+03	0	1.237435e-03
4.000000e+07	5.868871e+13	0.000000e+00	6.453900e-01	8.730736e+14	1.383566e+15	1.404014e+14	1.050140e+04	3.797301e+03	2.345850e+03	0	1.222719e-03
5.000000e+07	5.667445e+13	0.000000e+00	6.453900e-01	8.444412e+14	1.321847e+15	1.396295e+14	1.043208e+04	3.773869e+03	2.331374e+03	0	1.208567e-03
6.000000e+07	5.477838e+13	0.000000e+00	6.453900e-01	8.174805e+14	1.266632e+15	1.388634e+14	1.036501e+04	3.752433e+03	2.318132e+03	0	1.194937e-03
7.000000e+07	5.298991e+13	0.000000e+00	6.453900e-01	7.920422e+14	1.216859e+15	1.381030e+14	1.030006e+04	3.732700e+03	2.305941e+03	0	1.181788e-03
8.000000e+07	5.129981e+13	0.000000e+00	6.453900e-01	7.679957e+14	1.171685e+15	1.373483e+14	1.023711e+04	3.714431e+03	2.294655e+03	0	1.169088e-03
9.000000e+07	4.969994e+13	0.000000e+00	6.453900e-01	7.452263e+14	1.130436e+15	1.365992e+14	1.017605e+04	3.697429e+03	2.284152e+03	0	1.156806e-03
1.000000e+08	4.818311e+13	0.000000e+00	6.453900e-01	7.236324e+14	1.092566e+15	1.358556e+14	1.011679e+04	3.681532e+03	2.274331e+03	0	1.144915e-03
1.100000e+08	4.674292e+13	0.000000e+00	6.453900e-01	7.031237e+14	1.057627e+15	1.351175e+14	1.005923e+04	3.666605e+03	2.265110e+03	0	1.133393e-03
1.200000e+08	4.537367e+13	0.000000e+00	6.453900e-01	6.836196e+14	1.025250e+15	1.343849e+14	1.000329e+04	3.652535e+03	2.256418e+03	0	1.122216e-03
1.300000e+08	4.407022e+13	0.000000e+00	6.453900e-01	6.650476e+14	9.951283e+14	1.336578e+14	9.948883e+03	3.639225e+03	2.248195e+03	0	1.111365e-03
1.400000e+08	4.282797e+13	0.000000e+00	6.453900e-01	6.473426e+14	9.670038e+14	1.329360e+14	9.895944e+03	3.626593e+03	2.240392e+03	0	1.100823e-03
1.500000e+08	4.164275e+13	0.000000e+00	6.453900e-01	6.304455e+14	9.406582e+14	1.322196e+14	9.844402e+03	3.614570e+03	2.232965e+03	0	1.090573e-03
1.600000e+08	4.051075e+13	0.000000e+00	6.453900e-01	6.143028e+14	9.159057e+14	1.315084e+14	9.794194e+03	3.603097e+03	2.225876e+03	0	1.080601e-03
1.700000e+08	3.942854e+13	0.000000e+00	6.453900e-01	5.988659e+14	8.925869e+14	1.308025e+14	9.745262e+03	3.592120e+03	2.219096e+03	0	1.070891e-03
1.800000e+08	3.839297e+13	0.000000e+00	6.453900e-01	5.840902e+14	8.705645e+14	1.301018e+14	9.697550e+03	3.581596e+03	2.212594e+03	0	1.061432e-03
1.900000e+08	3.740117e+13	0.000000e+00	6.453900e-01	5.699350e+14	8.497192e+14	1.294063e+14	9.651005e+03	3.571484e+03	2.206347e+03	0	1.052213e-03
2.000000e+08	3.645049e+13	0.000000e+00	6.453900e-01	5.563630e+14	8.299471e+14	1.287159e+14	9.605580e+03	3.561750e+03	2.200334e+03	0	1.043221e-03
2.100000e+08	3.553850e+13	0.000000e+00	6.453900e-01	5.433399e+14	8.111570e+14	1.280305e+14	9.561228e+03	3.552365e+03	2.194536e+03	0	1.034447e-03
2.200000e+08	3.466297e+13	0.000000e+00	6.453900e-01	5.308340e+14	7.932686e+14	1.273502e+14	9.517907e+03	3.543301e+03	2.188937e+03	0	1.025881e-03
2.300000e+08	3.382184e+13	0.000000e+00	6.453900e-01	5.188161e+14	7.762110e+14	1.266749e+14	9.475576e+03	3.534534e+03	2.183521e+03	0	1.017515e-03
2.400000e+08	3.301318e+13	0.000000e+00	6.453900e-01	5.072592e+14	7.599208e+14	1.260045e+14	9.434196e+03	3.526044e+03	2.178276e+03	0	1.009340e-03
2.500000e+08	3.223523e+13	0.000000e+00	6.453900e-01	4.961381e+14	7.443417e+14	1.253391e+14	9.393731e+03	3.517811e+03	2.173190e+03	0	1.001349e-03
2.600000e+08	3.148635e+13	0.000000e+00	6.453900e-01	4.854296e+14	7.294233e+14	1.246785e+14	9.354147e+03	3.509819e+03	2.168253e+03	0	9.935336e-04
2.700000e+08	3.076500e+13	0.000000e+00	6.453900e-01	4.751121e+14	7.151201e+14	1.240227e+14	9.315411e+03	3.502052e+03	2.163455e+03	0	9.858877e-04
2.800000e+08	3.006977e+13	0.000000e+00	6.453900e-01	4.651654e+14	7.013911e+14	1.233718e+14	9.277493e+03	3.494497e+03	2.158787e+03	0	9.784046e-04
2.900000e+08	2.939933e+13	0.000000e+00	6.453900e-01	4.555708e+14	6.881993e+14	1.227255e+14	9.240364e+03	3.487141e+03	2.154243e+03	0	9.710783e-04
3.000000e+08	2.875242e+13	0.000000e+00	6.453900e-01	4.463106e+14	6.755108e+14	1.220840e+14	9.203995e+03	3.479972e+03	2.149814e+03	0	9.639029e-04
3.100000e+08	2.812791e+13	0.000000e+00	6.453900e-01	4.373685e+14	6.632950e+14	1.214472e+14	9.168361e+03	3.472981e+03	2.145495e+03	0	9.568730e-04
3.200000e+08	2.752470e+13	0.000000e+00	6.453900e-01	4.287291e+14	6.515239e+14	1.208150e+14	9.133436e+03	3.466157e+03	2.141280e+03	0	9.499834e-04
3.300000e+08	2.694178e+13	0.000000e+00	6.453900e-01	4.203781e+14	6.401718e+14	1.201874e+14	9.099196e+03	3.459493e+03	2.137163e+03	0	9.432292e-04
3.400000e+08	2.637819e+13	0.000000e+00	6.453900e-01	4.123018e+14	6.292151e+14	1.195644e+14	9.065619e+03	3.452981e+03	2.133140e+03	0	9.366057e-04
3.500000e+08	2.583304e+13	0.000000e+00	6.453900e-01	4.044877e+14	6.186320e+14	1.189458e+14	9.032683e+03	3.446612e+03	2.129205e+03	0	9.301085e-04
3.600000e+08	2.530548e+13	0.000000e+00	6.453900e-01	3.969237e+14	6.084027e+14	1.183318e+14	9.000368e+03	3.440381e+03	2.125356e+03	0	9.237334e-04
3.700000e+08	2.479473e+13	0.000000e+00	6.453900e-01	3.895987e+14	5.985085e+14	1.177222e+14	8.968653e+03	3.434281e+03	2.121587e+03	0	9.174764e-04
3.800000e+08	2.430004e+13	0.000000e+00	6.453900e-01	3.825021e+14	5.889323e+14	1.171170e+14	8.937520e+03	3.428306e+03	2.117896e+03	0	9.113337e-04
3.900000e+08	2.382070e+13	0.000000e+00	6.453900e-01	3.756240e+14	5.796582e+14	1.165162e+14	8.906951e+03	3.422451e+03	2.114279e+03	0	9.053016e-04
4.000000e+08	2.335604e+13	0.000000e+00	6.453900e-01	3.689548e+14	5.706714e+14	1.159198e+14	8.876928e+03	3.416711e+03	2.110733e+03	0	8.993766e-04
4.100000e+08	2.290546e+13	0.000000e+00	6.453900e-01	3.624857e+14	5.619582e+14	1.153276e+14	8.847435e+03	3.411081e+03	2.107256e+03	0	8.935553e-04
4.200000e+08	2.246834e+13	0.000000e+00	6.453900e-01	3.562084e+14	5.535056e+14	1.147397e+14	8.818456e+03	3.405557e+03	2.103843e+03	0	8.878347e-04
4.300000e+08	2.204414e+13	0.000000e+00	6.453900e-01	3.501148e+14	5.453017e+14	1.141560e+14	8.789976e+03	3.400135e+03	2.100493e+03	0	8.822117e-04
4.400000e+08	2.163231e+13	0.000000e+00	6.453900e-01	3.441975e+14	5.373352e+14	1.135766e+14	8.761981e+03	3.394811e+03	2.097204e+03	0	8.766833e-04
4.500000e+08	2.123236e+13	0.000000e+00	6.453900e-01	3.384493e+14	5.295956e+14	1.130013e+14	8.734456e+03	3.389582e+03	2.093974e+03	0	8.712468e-04
4.600000e+08	2.084381e+13	0.000000e+00	6.453900e-01	3.328635e+14	5.220729e+14	1.124301e+14	8.707389e+03	3.384443e+03	2.090799e+03	0	8.658996e-04
4.700000e+08	2.046621e+13	0.000000e+00	6.453900e-01	3.274336e+14	5.147579e+14	1.118630e+14	8.680765e+03	3.379392e+03	2.087679e+03	0	8.606389e-04
4.800000e+08	2.009914e+13	0.000000e+00	6.453900e-01	3.221536e+14	5.076419e+14	1.113000e+14	8.654574e+03	3.374425e+03	2.084611e+03	0	8.554624e-04
4.900000e+08	1.974217e+13	0.000000e+00	6.453900e-01	3.170177e+14	5.007165e+14	1.107410e+14	8.628803e+03	3.369541e+03	2.081593e+03	0	8.503677e-04
5.000000e+08	1.939493e+13	0.000000e+00	6.453900e-01	3.120203e+14	4.939741e+14	1.101861e+14	8.603440e+03	3.364736e+03	2.078625e+03	0	8.453526e-04
5.100000e+08	1.905705e+13	0.000000e+00	6.453900e-01	3.071563e+14	4.874073e+14	1.096350e+14	8.578475e+03	3.360008e+03	2.075704e+03	0	8.404148e-04
5.200000e+08	1.872818e+13	0.000000e+00	6.453900e-01	3.024208e+14	4.810091e+14	1.090880e+14	8.553898e+03	3.355353e+03	2.072829e+03	0	8.355523e-04
5.300000e+08	1.840798e+13	0.000000e+00	6.453900e-01	2.978088e+14	4.747730e+14	1.085448e+14	8.529697e+03	3.350771e+03	2.069998e+03	0	8.307631e-04
5.400000e+08	1.809614e+13	0.000000e+00	6.453900e-01	2.933161e+14	4.686928e+14	1.080055e+14	8.505863e+03	3.346258e+03	2.067210e+03	0	8.260451e-04
5.500000e+08	1.779235e+13	0.000000e+00	6.453900e-01	2.889381e+14	4.627625e+14	1.074700e+14	8.482388e+03	3.341814e+03	2.064464e+03	0	8.213966e-04
5.600000e+08	1.749632e+13	0.000000e+00	6.453900e-01	2.846709e+14	4.569767e+14	1.069383e+14	8.459261e+03	3.337434e+03	2.061759e+03	0	8.168156e-04
5.700000e+08	1.720779e+13	0.000000e+00	6.453900e-01	2.805106e+14	4.513300e+14	1.064104e+14	8.436474e+03	3.333119e+03	2.059093e+03	0	8.123006e-04
5.800000e+08	1.692647e+13	0.000000e+00	6.453900e-01	2.764533e+14	4.458174e+14	1.058863e+14	8.414018e+03	3.328865e+03	2.056465e+03	0	8.078498e-04
5.900000e+08	1.665214e+13	0.000000e+00	6.453900e-01	2.724956e+14	4.404340e+14	1.053658e+14	8.391885e+03	3.324672e+03	2.053875e+03	0	8.034616e-04
6.000000e+08	1.638454e+13	0.000000e+00	6.453900e-01	2.686339e+14	4.351754e+14	1.048491e+14	8.370068e+03	3.320537e+03	2.051320e+03	0	7.991344e-04
6.100000e+08	1.612344e+13	0.000000e+00	6.453900e-01	2.648651e+14	4.300371e+14	1.043360e+14	8.348559e+03	3.316459e+03	2.048801e+03	0	7.948668e-04
6.200000e+08	1.586863e+13	0.000000e+00	6.453900e-01	2.611861e+14	4.250151e+14	1.038265e+14	8.327350e+03	3.312437e+03	2.046316e+03	0	7.906572e-04
6.300000e+08	1.561989e+13	0.000000e+00	6.453900e-01	2.575938e+14	4.201053e+14	1.033206e+14	8.306434e+03	3.308468e+03	2.043865e+03	0	7.865043e-04
6.400000e+08	1.537703e+13	0.000000e+00	6.453900e-01	2.540853e+14	4.153041e+14	1.028183e+14	8.285804e+03	3.304553e+03	2.041446e+03	0	7.824067e-04
6.500000e+08	1.513985e+13	0.000000e+00	6.453900e-01	2.506581e+14	4.106078e+14	1.023196e+14	8.265455e+03	3.300688e+03	2.039058e+03	0	7.783632e-04
6.600000e+08	1.490816e+13	0.000000e+00	6.453900e-01	2.473093e+14	4.060130e+14	1.018243e+14	8.245378e+03	3.296873e+03	2.036702e+03	0	7.743723e-04
6.700000e+08	1.468180e+13	0.000000e+00	6.453900e-01	2.440365e+14	4.015163e+14	1.013325e+14	8.225569e+03	3.293107e+03	2.034375e+03	0	7.704330e-04
6.800000e+08	1.446058e+13	0.000000e+00	6.453900e-01	2.408374e+14	3.971148e+14	1.008442e+14	8.206020e+03	3.289389e+03	2.032078e+03	0	7.665439e-04
6.900000e+08	1.424436e+13	0.000000e+00	6.453900e-01	2.377095e+14	3.928052e+14	1.003593e+14	8.186727e+03	3.285717e+03	2.029810e+03	0	7.627041e-04
7.000000e+08	1.403296e+13	0.000000e+00	6.453900e-01	2.346507e+14	3.885849e+14	9.987783e+13	8.167683e+03	3.282090e+03	2.027569e+03	0	7.589123e-04
7.100000e+08	1.382625e+13	0.000000e+00	6.453900e-01	2.316588e+14	3.844509e+14	9.939971e+13	8.148883e+03	3.278508e+03	2.025356e+03	0	7.551674e-04
7.200000e+08	1.362407e+13	0.000000e+00	6.453900e-01	2.287318e+14	3.804007e+14	9.892492e+13	8.130322e+03	3.274968e+03	2.023169e+03	0	7.514685e-04
7.300000e+08	1.342629e+13	0.000000e+00	6.453900e-01	2.258677e+14	3.764318e+14	9.845346e+13	8.111994e+03	3.271471e+03	2.021009e+03	0	7.478145e-04
7.400000e+08	1.323278e+13	0.000000e+00	6.453900e-01	2.230646e+14	3.725416e+14	9.798529e+13	8.093895e+03	3.268015e+03	2.018874e+03	0	7.442044e-04
7.500000e+08	1.304341e+13	0.000000e+00	6.453900e-01	2.203207e+14	3.687278e+14	9.752038e+13	8.076020e+03	3.264599e+03	2.016764e+03	0	7.406372e-04
7.600000e+08	1.285806e+13	0.000000e+00	6.453900e-01	2.176343e+14	3.649883e+14	9.705871e+13	8.058363e+03	3.261223e+03	2.014678e+03	0	7.371122e-04
7.700000e+08	1.267660e+13	0.000000e+00	6.453900e-01	2.150036e+14	3.613208e+14	9.660025e+13	8.040921e+03	3.257885e+03	2.012616e+03	0	7.336282e-04
7.800000e+08	1.249892e+13	0.000000e+00	6.453900e-01	2.124271e+14	3.577233e+14	9.614498e+13	8.023689e+03	3.254585e+03	2.010577e+03	0	7.301846e-04
7.900000e+08	1.232492e+13	0.000000e+00	6.453900e-01	2.099032e+14	3.541938e+14	9.569287e+13	8.006663e+03	3.251322e+03	2.008561e+03	0	7.267803e-04
8.000000e+08	1.215449e+13	0.000000e+00	6.453900e-01	2.074303e+14	3.507303e+14	9.524389e+13	7.989838e+03	3.248094e+03	2.006567e+03	0	7.234147e-04
8.100000e+08	1.198752e+13	0.000000e+00	6.453900e-01	2.050071e+14	3.473310e+14	9.479803e+13	7.973211e+03	3.244902e+03	2.004596e+03	0	7.200869e-04
8.200000e+08	1.182392e+13	0.000000e+00	6.453900e-01	2.026321e+14	3.439942e+14	9.435525e+13	7.956777e+03	3.241745e+03	2.002645e+03	0	7.167961e-04
8.300000e+08	1.166360e+13	0.000000e+00	6.453900e-01	2.003041e+14	3.407181e+14	9.391554e+13	7.940532e+03	3.238622e+03	2.000715e+03	0	7.135417e-04
8.400000e+08	1.150646e+13	0.000000e+00	6.453900e-01	1.980216e+14	3.375011e+14	9.347886e+13	7.924474e+03	3.235531e+03	1.998806e+03	0	7.103227e-04
8.500000e+08	1.135242e+13	0.000000e+00	6.453900e-01	1.957835e+14	3.343415e+14	9.304519e+13	7.908598e+03	3.232473e+03	1.996917e+03	0	7.071386e-04
8.600000e+08	1.120138e+13	0.000000e+00	6.453900e-01	1.935885e+14	3.312379e+14	9.261452e+13	7.892901e+03	3.229448e+03	1.995048e+03	0	7.039886e-04
8.700000e+08	1.105328e+13	0.000000e+00	6.453900e-01	1.914355e+14	3.281888e+14	9.218680e+13	7.877379e+03	3.226453e+03	1.993198e+03	0	7.008722e-04
8.800000e+08	1.090802e+13	0.000000e+00	6.453900e-01	1.893233e+14	3.251927e+14	9.176203e+13	7.862028e+03	3.223489e+03	1.991367e+03	0	6.977885e-04
8.900000e+08	1.076554e+13	0.000000e+00	6.453900e-01	1.872509e+14	3.222483e+14	9.134018e+13	7.846847e+03	3.220555e+03	1.989554e+03	0	6.947370e-04
9.000000e+08	1.062576e+13	0.000000e+00	6.453900e-01	1.852173e+14	3.193542e+14	9.092123e+13	7.831831e+03	3.217650e+03	1.987760e+03	0	6.917170e-04
9.100000e+08	1.048861e+13	0.000000e+00	6.453900e-01	1.832213e+14	3.165092e+14	9.050514e+13	7.816978e+03	3.214774e+03	1.985983e+03	0	6.887280e-04
9.200000e+08	1.035402e+13	0.000000e+00	6.453900e-01	1.812620e+14	3.137119e+14	9.009191e+13	7.802284e+03	3.211927e+03	1.984224e+03	0	6.857694e-04
9.300000e+08	1.022192e+13	0.000000e+00	6.453900e-01	1.793386e+14	3.109613e+14	8.968150e+13	7.787747e+03	3.209107e+03	1.982482e+03	0	6.828405e-04
9.400000e+08	1.009225e+13	0.000000e+00	6.453900e-01	1.774500e+14	3.082562e+14	8.927390e+13	7.773364e+03	3.206315e+03	1.980757e+03	0	6.799409e-04
9.500000e+08	9.964954e+12	0.000000e+00	6.453900e-01	1.755953e+14	3.055954e+14	8.886907e+13	7.759131e+03	3.203549e+03	1.979049e+03	0	6.770700e-04
9.600000e+08	9.839962e+12	0.000000e+00	6.453900e-01	1.737738e+14	3.029778e+14	8.846701e+13	7.745047e+03	3.200810e+03	1.977357e+03	0	6.742272e-04
9.700000e+08	9.717219e+12	0.000000e+00	6.453900e-01	1.719846e+14	3.004024e+14	8.806769e+13	7.731108e+03	3.198096e+03	1.975680e+03	0	6.714120e-04
9.800000e+08	9.596670e+12	0.000000e+00	6.453900e-01	1.702268e+14	2.978683e+14	8.767109e+13	7.717312e+03	3.195408e+03	1.974020e+03	0	6.686240e-04
9.900000e+08	9.478259e+12	0.000000e+00	6.453900e-01	1.684998e+14	2.953743e+14	8.727718e+13	7.703657e+03	3.192745e+03	1.972374e+03	0	6.658627e-04
1.000000e+09	9.361935e+12	0.000000e+00	6.453900e-01	1.668027e+14	2.929195e+14	8.688594e+13	7.690140e+03	3.190106e+03	1.970744e+03	0	6.631274e-04
1.010000e+09	9.247645e+12	0.000000e+00	6.453900e-01	1.651348e+14	2.905031e+14	8.649736e+13	7.676759e+03	3.187491e+03	1.969129e+03	0	6.604179e-04
1.020000e+09	9.135340e+12	0.000000e+00	6.453900e-01	1.634955e+14	2.881242e+14	8.611141e+13	7.663511e+03	3.184900e+03	1.967528e+03	0	6.577336e-04
1.030000e+09	9.024973e+12	0.000000e+00	6.453900e-01	1.618840e+14	2.857818e+14	8.572807e+13	7.650394e+03	3.182332e+03	1.965942e+03	0	6.550741e-04
1.040000e+09	8.916497e+12	0.000000e+00	6.453900e-01	1.602996e+14	2.834751e+14	8.534732e+13	7.637405e+03	3.179787e+03	1.964369e+03	0	6.524390e-04
1.050000e+09	8.809867e+12	0.000000e+00	6.453900e-01	1.587418e+14	2.812034e+14	8.496915e+13	7.624544e+03	3.177264e+03	1.962811e+03	0	6.498277e-04
1.060000e+09	8.705040e+12	0.000000e+00	6.453900e-01	1.572099e+14	2.789658e+14	8.459352e+13	7.611807e+03	3.174764e+03	1.961266e+03	0	6.472400e-04
1.070000e+09	8.601972e+12	0.000000e+00	6.453900e-01	1.557033e+14	2.767615e+14	8.422043e+13	7.599193e+03	3.172285e+03	1.959735e+03	0	6.446754e-04
1.080000e+09	8.500623e+12	0.000000e+00	6.453900e-01	1.542215e+14	2.745899e+14	8.384984e+13	7.586699e+03	3.169827e+03	1.958216e+03	0	6.421336e-04
1.090000e+09	8.400953e+12	0.000000e+00	6.453900e-01	1.527637e+14	2.724502e+14	8.348175e+13	7.574323e+03	3.167390e+03	1.956711e+03	0	6.396140e-04
1.100000e+09	8.302923e+12	0.000000e+00	6.453900e-01	1.513296e+14	2.703417e+14	8.311613e+13	7.562065e+03	3.164974e+03	1.955219e+03	0	6.371164e-04
1.110000e+09	8.206496e+12	0.000000e+00	6.453900e-01	1.499185e+14	2.682638e+14	8.275296e+13	7.549921e+03	3.162579e+03	1.953739e+03	0	6.346404e-04
1.120000e+09	8.111636e+12	0.000000e+00	6.453900e-01	1.485299e+14	2.662156e+14	8.239222e+13	7.537890e+03	3.160203e+03	1.952271e+03	0	6.321856e-04
1.130000e+09	8.018306e+12	0.000000e+00	6.453900e-01	1.471634e+14	2.641968e+14	8.203390e+13	7.525970e+03	3.157846e+03	1.950815e+03	0	6.297517e-04
1.140000e+09	7.926474e+12	0.000000e+00	6.453900e-01	1.458184e+14	2.622065e+14	8.167797e+13	7.514159e+03	3.155510e+03	1.949372e+03	0	6.273383e-04
1.150000e+09	7.836104e+12	0.000000e+00	6.453900e-01	1.444945e+14	2.602442e+14	8.132442e+13	7.502456e+03	3.153192e+03	1.947940e+03	0	6.249451e-04
1.160000e+09	7.747165e+12	0.000000e+00	6.453900e-01	1.431912e+14	2.583094e+14	8.097323e+13	7.490858e+03	3.150893e+03	1.946519e+03	0	6.225717e-04
1.170000e+09	7.659626e+12	0.000000e+00	6.453900e-01	1.419080e+14	2.564014e+14	8.062438e+13	7.479366e+03	3.148612e+03	1.945111e+03	0	6.202179e-04
1.180000e+09	7.573455e+12	0.000000e+00	6.453900e-01	1.406445e+14	2.545197e+14	8.027785e+13	7.467975e+03	3.146350e+03	1.943713e+03	0	6.178833e-04
1.190000e+09	7.488624e+12	0.000000e+00	6.453900e-01	1.394004e+14	2.526637e+14	7.993362e+13	7.456686e+03	3.144105e+03	1.942326e+03	0	6.155677e-04
1.200000e+09	7.405102e+12	0.000000e+00	6.453900e-01	1.381750e+14	2.508330e+14	7.959168e+13	7.445497e+03	3.141878e+03	1.940951e+03	0	6.132706e-04
1.210000e+09	7.322862e+12	0.000000e+00	6.453900e-01	1.369682e+14	2.490270e+14	7.925200e+13	7.434405e+03	3.139669e+03	1.939586e+03	0	6.109918e-04
1.220000e+09	7.241877e+12	0.000000e+00	6.453900e-01	1.357794e+14	2.472452e+14	7.891458e+13	7.423410e+03	3.137476e+03	1.938231e+03	0	6.087311e-04
1.230000e+09	7.162120e+12	0.000000e+00	6.453900e-01	1.346084e+14	2.454871e+14	7.857938e+13	7.412511e+03	3.135301e+03	1.936887e+03	0	6.064882e-04
1.240000e+09	7.083565e+12	0.000000e+00	6.453900e-01	1.334546e+14	2.437523e+14	7.824641e+13	7.401704e+03	3.133142e+03	1.935553e+03	0	6.042626e-04
1.250000e+09	7.006186e+12	0.000000e+00	6.453900e-01	1.323179e+14	2.420403e+14	7.791563e+13	7.390991e+03	3.130999e+03	1.934230e+03	0	6.020543e-04
1.260000e+09	6.929960e+12	0.000000e+00	6.453900e-01	1.311977e+14	2.403506e+14	7.758703e+13	7.380368e+03	3.128872e+03	1.932916e+03	0	5.998630e-04
1.270000e+09	6.854863e+12	0.000000e+00	6.453900e-01	1.300938e+14	2.386829e+14	7.726060e+13	7.369835e+03	3.126762e+03	1.931612e+03	0	5.976883e-04
1.280000e+09	6.780871e+12	0.000000e+00	6.453900e-01	1.290059e+14	2.370367e+14	7.693631e+13	7.359390e+03	3.124667e+03	1.930318e+03	0	5.955300e-04
1.290000e+09	6.707961e+12	0.000000e+00	6.453900e-01	1.279336e+14	2.354116e+14	7.661416e+13	7.349033e+03	3.122587e+03	1.929033e+03	0	5.933878e-04
1.300000e+09	6.636112e+12	0.000000e+00	6.453900e-01	1.268765e+14	2.338072e+14	7.629412e+13	7.338761e+03	3.120523e+03	1.927758e+03	0	5.912616e-04
1.310000e+09	6.565303e+12	0.000000e+00	6.453900e-01	1.258345e+14	2.322230e+14	7.597618e+13	7.328574e+03	3.118473e+03	1.926492e+03	0	5.891511e-04
1.320000e+09	6.495511e+12	0.000000e+00	6.453900e-01	1.248072e+14	2.306588e+14	7.566032e+13	7.318471e+03	3.116439e+03	1.925235e+03	0	5.870560e-04
1.330000e+09	6.426717e+12	0.000000e+00	6.453900e-01	1.237943e+14	2.291141e+14	7.534652e+13	7.308449e+03	3.114419e+03	1.923987e+03	0	5.849762e-04
1.340000e+09	6.358902e+12	0.000000e+00	6.453900e-01	1.227955e+14	2.275886e+14	7.503478e+13	7.298509e+03	3.112413e+03	1.922748e+03	0	5.829113e-04
1.350000e+09	6.292045e+12	0.000000e+00	6.453900e-01	1.218105e+14	2.260819e+14	7.472507e+13	7.288649e+03	3.110422e+03	1.921518e+03	0	5.808612e-04
1.360000e+09	6.226128e+12	0.000000e+00	6.453900e-01	1.208391e+14	2.245937e+14	7.441738e+13	7.278867e+03	3.108444e+03	1.920296e+03	0	5.788257e-04
