#t		Qconv[W]	Ri[Rp]		R*[Rp]		Qc[W]		Qm[W]		Qr[W]		Tcmb[K]		Tl[K]		Tup[K]		RiFlag		Bs[T]
0.000000e+00	8.853246e+13	0.000000e+00	6.453900e-01	1.212297e+15	1.870267e+15	1.648058e+14	1.168510e+04	4.101020e+03	2.477712e+03	0	1.393189e-03
1.000000e+07	8.538157e+13	0.000000e+00	6.453900e-01	1.171224e+15	1.781659e+15	1.638926e+14	1.160409e+04	4.073719e+03	2.461218e+03	0	1.376461e-03
2.000000e+07	8.242221e+13	0.000000e+00	6.453900e-01	1.132634e+15	1.703045e+15	1.629863e+14	1.152580e+04	4.048933e+03	2.446243e+03	0	1.360371e-03
3.000000e+07	7.963643e+13	0.000000e+00	6.453900e-01	1.096295e+15	1.632675e+15	1.620868e+14	1.145006e+04	4.026263e+03	2.432547e+03	0	1.344869e-03
4.000000e+07	7.700869e+13	0.000000e+00	6.453900e-01	1.062006e+15	1.569185e+15	1.611939e+14	1.137673e+04	4.005392e+03	2.419936e+03	0	1.329911e-03
5.000000e+07	7.452540e+13	0.000000e+00	6.453900e-01	1.029591e+15	1.511503e+15	1.603078e+14	1.130567e+04	3.986059e+03	2.408256e+03	0	1.315459e-03
6.000000e+07	7.217464e+13	0.000000e+00	6.453900e-01	9.988962e+14	1.458771e+15	1.594282e+14	1.123676e+04	3.968055e+03	2.397379e+03	0	1.301480e-03
7.000000e+07	6.994589e+13	0.000000e+00	6.453900e-01	9.697845e+14	1.410298e+15	1.585552e+14	1.116989e+04	3.951207e+03	2.387200e+03	0	1.287943e-03
8.000000e+07	6.782975e+13	0.000000e+00	6.453900e-01	9.421349e+14	1.365519e+15	1.576887e+14	1.110495e+04	3.935369e+03	2.377631e+03	0	1.274822e-03
9.000000e+07	6.581788e+13	0.000000e+00	6.453900e-01	9.158391e+14	1.323969e+15	1.568286e+14	1.104184e+04	3.920422e+03	2.368600e+03	0	1.262091e-03
1.000000e+08	6.390276e+13	0.000000e+00	6.453900e-01	8.907999e+14	1.285261e+15	1.559749e+14	1.098048e+04	3.906265e+03	2.360047e+03	0	1.249729e-03
1.100000e+08	6.207762e+13	0.000000e+00	6.453900e-01	8.669297e+14	1.249072e+15	1.551276e+14	1.092078e+04	3.892811e+03	2.351919e+03	0	1.237716e-03
1.200000e+08	6.033635e+13	0.000000e+00	6.453900e-01	8.441492e+14	1.215128e+15	1.542865e+14	1.086266e+04	3.879988e+03	2.344171e+03	0	1.226033e-03
1.300000e+08	5.867339e+13	0.000000e+00	6.453900e-01	8.223864e+14	1.183197e+15	1.534516e+14	1.080607e+04	3.867733e+03	2.336767e+03	0	1.214665e-03
1.400000e+08	5.708369e+13	0.000000e+00	6.453900e-01	8.015759e+14	1.153079e+15	1.526230e+14	1.075091e+04	3.855993e+03	2.329674e+03	0	1.203594e-03
1.500000e+08	5.556264e+13	0.000000e+00	6.453900e-01	7.816578e+14	1.124602e+15	1.518004e+14	1.069715e+04	3.844720e+03	2.322864e+03	0	1.192807e-03
1.600000e+08	5.410601e+13	0.000000e+00	6.453900e-01	7.625774e+14	1.097618e+15	1.509840e+14	1.064471e+04	3.833874e+03	2.316311e+03	0	1.182291e-03
1.700000e+08	5.270992e+13	0.000000e+00	6.453900e-01	7.442844e+14	1.071996e+15	1.501735e+14	1.059354e+04	3.823420e+03	2.309995e+03	0	1.172034e-03
1.800000e+08	5.137081e+13	0.000000e+00	6.453900e-01	7.267327e+14	1.047623e+15	1.493690e+14	1.054358e+04	3.813327e+03	2.303897e+03	0	1.162023e-03
1.900000e+08	5.008539e+13	0.000000e+00	6.453900e-01	7.098794e+14	1.024399e+15	1.485705e+14	1.049480e+04	3.803567e+03	2.298000e+03	0	1.152249e-03
2.000000e+08	4.885062e+13	0.000000e+00	6.453900e-01	6.936853e+14	1.002234e+15	1.477778e+14	1.044714e+04	3.794115e+03	2.292289e+03	0	1.142701e-03
2.100000e+08	4.766369e+13	0.000000e+00	6.453900e-01	6.781140e+14	9.810495e+14	1.469910e+14	1.040056e+04	3.784950e+03	2.286753e+03	0	1.133370e-03
2.200000e+08	4.652200e+13	0.000000e+00	6.453900e-01	6.631315e+14	9.607748e+14	1.462099e+14	1.035502e+04	3.776054e+03	2.281378e+03	0	1.124248e-03
2.300000e+08	4.542312e+13	0.000000e+00	6.453900e-01	6.487065e+14	9.413465e+14	1.454346e+14	1.031047e+04	3.767408e+03	2.276154e+03	0	1.115326e-03
2.400000e+08	4.436481e+13	0.000000e+00	6.453900e-01	6.348097e+14	9.227077e+14	1.446650e+14	1.026689e+04	3.758997e+03	2.271072e+03	0	1.106595e-03
2.500000e+08	4.334497e+13	0.000000e+00	6.453900e-01	6.214141e+14	9.048067e+14	1.439010e+14	1.022424e+04	3.750807e+03	2.266124e+03	0	1.098050e-03
2.600000e+08	4.236165e+13	0.000000e+00	6.453900e-01	6.084942e+14	8.875971e+14	1.431426e+14	1.018248e+04	3.742825e+03	2.261302e+03	0	1.089683e-03
2.700000e+08	4.141302e+13	0.000000e+00	6.453900e-01	5.960263e+14	8.710361e+14	1.423897e+14	1.014158e+04	3.735040e+03	2.256598e+03	0	1.081488e-03
2.800000e+08	4.049736e+13	0.000000e+00	6.453900e-01	5.839883e+14	8.550852e+14	1.416423e+14	1.010151e+04	3.727441e+03	2.252007e+03	0	1.073458e-03
2.900000e+08	3.961310e+13	0.000000e+00	6.453900e-01	5.723593e+14	8.397088e+14	1.409004e+14	1.006225e+04	3.720019e+03	2.247523e+03	0	1.065587e-03
3.000000e+08	3.875872e+13	0.000000e+00	6.453900e-01	5.611199e+14	8.248744e+14	1.401639e+14	1.002376e+04	3.712764e+03	2.243140e+03	0	1.057870e-03
3.100000e+08	3.793281e+13	0.000000e+00	6.453900e-01	5.502519e+14	8.105522e+14	1.394328e+14	9.986031e+03	3.705670e+03	2.238854e+03	0	1.050302e-03
3.200000e+08	3.713407e+13	0.000000e+00	6.453900e-01	5.397381e+14	7.967146e+14	1.387069e+14	9.949023e+03	3.698727e+03	2.234659e+03	0	1.042878e-03
3.300000e+08	3.636125e+13	0.000000e+00	6.453900e-01	5.295624e+14	7.833361e+14	1.379864e+14	9.912718e+03	3.691930e+03	2.230553e+03	0	1.035593e-03
3.400000e+08	3.561317e+13	0.000000e+00	6.453900e-01	5.197096e+14	7.703931e+14	1.372711e+14	9.877093e+03	3.685272e+03	2.226530e+03	0	1.028441e-03
3.500000e+08	3.488875e+13	0.000000e+00	6.453900e-01	5.101653e+14	7.578638e+14	1.365610e+14	9.842127e+03	3.678747e+03	2.222588e+03	0	1.021420e-03
3.600000e+08	3.418693e+13	0.000000e+00	6.453900e-01	5.009161e+14	7.457278e+14	1.358560e+14	9.807800e+03	3.672350e+03	2.218723e+03	0	1.014525e-03
3.700000e+08	3.350674e+13	0.000000e+00	6.453900e-01	4.919493e+14	7.339662e+14	1.351561e+14	9.774090e+03	3.666075e+03	2.214931e+03	0	1.007751e-03
3.800000e+08	3.284727e+13	0.000000e+00	6.453900e-01	4.832528e+14	7.225614e+14	1.344613e+14	9.740981e+03	3.659917e+03	2.211211e+03	0	1.001096e-03
3.900000e+08	3.220762e+13	0.000000e+00	6.453900e-01	4.748153e+14	7.114968e+14	1.337715e+14	9.708454e+03	3.653873e+03	2.207559e+03	0	9.945551e-04
4.000000e+08	3.158698e+13	0.000000e+00	6.453900e-01	4.666260e+14	7.007570e+14	1.330867e+14	9.676492e+03	3.647937e+03	2.203973e+03	0	9.881252e-04
4.100000e+08	3.098456e+13	0.000000e+00	6.453900e-01	4.586747e+14	6.903275e+14	1.324069e+14	9.645077e+03	3.642107e+03	2.200451e+03	0	9.818031e-04
4.200000e+08	3.039962e+13	0.000000e+00	6.453900e-01	4.509517e+14	6.801948e+14	1.317319e+14	9.614195e+03	3.636377e+03	2.196989e+03	0	9.755855e-04
4.300000e+08	2.983146e+13	0.000000e+00	6.453900e-01	4.434480e+14	6.703461e+14	1.310618e+14	9.583830e+03	3.630746e+03	2.193587e+03	0	9.694694e-04
4.400000e+08	2.927940e+13	0.000000e+00	6.453900e-01	4.361549e+14	6.607693e+14	1.303965e+14	9.553968e+03	3.625209e+03	2.190241e+03	0	9.634519e-04
4.500000e+08	2.874283e+13	0.000000e+00	6.453900e-01	4.290641e+14	6.514532e+14	1.297360e+14	9.524594e+03	3.619763e+03	2.186951e+03	0	9.575302e-04
4.600000e+08	2.822113e+13	0.000000e+00	6.453900e-01	4.221677e+14	6.423870e+14	1.290803e+14	9.495695e+03	3.614405e+03	2.183714e+03	0	9.517016e-04
4.700000e+08	2.771374e+13	0.000000e+00	6.453900e-01	4.154585e+14	6.335608e+14	1.284292e+14	9.467258e+03	3.609133e+03	2.180529e+03	0	9.459635e-04
4.800000e+08	2.722011e+13	0.000000e+00	6.453900e-01	4.089292e+14	6.249650e+14	1.277828e+14	9.439271e+03	3.603943e+03	2.177393e+03	0	9.403134e-04
4.900000e+08	2.673973e+13	0.000000e+00	6.453900e-01	4.025732e+14	6.165906e+14	1.271411e+14	9.411721e+03	3.598834e+03	2.174307e+03	0	9.347489e-04
5.000000e+08	2.627210e+13	0.000000e+00	6.453900e-01	3.963840e+14	6.084290e+14	1.265039e+14	9.384598e+03	3.593803e+03	2.171267e+03	0	9.292678e-04
5.100000e+08	2.581675e+13	0.000000e+00	6.453900e-01	3.903555e+14	6.004722e+14	1.258713e+14	9.357889e+03	3.588847e+03	2.168273e+03	0	9.238678e-04
5.200000e+08	2.537324e+13	0.000000e+00	6.453900e-01	3.844820e+14	5.927125e+14	1.252432e+14	9.331584e+03	3.583964e+03	2.165323e+03	0	9.185468e-04
5.300000e+08	2.494115e+13	0.000000e+00	6.453900e-01	3.787579e+14	5.851427e+14	1.246195e+14	9.305673e+03	3.579153e+03	2.162416e+03	0	9.133028e-04
5.400000e+08	2.452005e+13	0.000000e+00	6.453900e-01	3.731778e+14	5.777557e+14	1.240004e+14	9.280146e+03	3.574411e+03	2.159551e+03	0	9.081337e-04
5.500000e+08	2.410958e+13	0.000000e+00	6.453900e-01	3.677367e+14	5.705451e+14	1.233856e+14	9.254994e+03	3.569737e+03	2.156727e+03	0	9.030376e-04
5.600000e+08	2.370935e+13	0.000000e+00	6.453900e-01	3.624299e+14	5.635045e+14	1.227752e+14	9.230206e+03	3.565127e+03	2.153942e+03	0	8.980127e-04
5.700000e+08	2.331901e+13	0.000000e+00	6.453900e-01	3.572526e+14	5.566281e+14	1.221691e+14	9.205774e+03	3.560582e+03	2.151196e+03	0	8.930573e-04
5.800000e+08	2.293822e+13	0.000000e+00	6.453900e-01	3.522004e+14	5.499100e+14	1.215673e+14	9.181690e+03	3.556099e+03	2.148487e+03	0	8.881696e-04
5.900000e+08	2.256667e+13	0.000000e+00	6.453900e-01	3.472692e+14	5.433450e+14	1.209698e+14	9.157944e+03	3.551676e+03	2.145815e+03	0	8.833479e-04
6.000000e+08	2.220403e+13	0.000000e+00	6.453900e-01	3.424550e+14	5.369277e+14	1.203766e+14	9.134530e+03	3.547312e+03	2.143179e+03	0	8.785907e-04
6.100000e+08	2.185002e+13	0.000000e+00	6.453900e-01	3.377537e+14	5.306534e+14	1.197875e+14	9.111439e+03	3.543005e+03	2.140577e+03	0	8.738963e-04
6.200000e+08	2.150434e+13	0.000000e+00	6.453900e-01	3.331618e+14	5.245172e+14	1.192026e+14	9.088663e+03	3.538755e+03	2.138009e+03	0	8.692634e-04
6.300000e+08	2.116674e+13	0.000000e+00	6.453900e-01	3.286756e+14	5.185146e+14	1.186218e+14	9.066195e+03	3.534559e+03	2.135473e+03	0	8.646904e-04
6.400000e+08	2.083694e+13	0.000000e+00	6.453900e-01	3.242919e+14	5.126414e+14	1.180451e+14	9.044029e+03	3.530416e+03	2.132971e+03	0	8.601759e-04
6.500000e+08	2.051470e+13	0.000000e+00	6.453900e-01	3.200072e+14	5.068934e+14	1.174724e+14	9.022157e+03	3.526325e+03	2.130499e+03	0	8.557187e-04
6.600000e+08	2.019977e+13	0.000000e+00	6.453900e-01	3.158186e+14	5.012667e+14	1.169038e+14	9.000573e+03	3.522285e+03	2.128058e+03	0	8.513173e-04
6.700000e+08	1.989193e+13	0.000000e+00	6.453900e-01	3.117229e+14	4.957574e+14	1.163392e+14	8.979270e+03	3.518295e+03	2.125647e+03	0	8.469705e-04
6.800000e+08	1.959096e+13	0.000000e+00	6.453900e-01	3.077174e+14	4.903620e+14	1.157786e+14	8.958242e+03	3.514353e+03	2.123266e+03	0	8.426771e-04
6.900000e+08	1.929664e+13	0.000000e+00	6.453900e-01	3.037991e+14	4.850769e+14	1.152219e+14	8.937483e+03	3.510458e+03	2.120913e+03	0	8.384359e-04
7.000000e+08	1.900877e+13	0.000000e+00	6.453900e-01	2.999656e+14	4.798988e+14	1.146691e+14	8.916987e+03	3.506610e+03	2.118587e+03	0	8.342457e-04
7.100000e+08	1.872715e+13	0.000000e+00	6.453900e-01	2.962142e+14	4.748245e+14	1.141202e+14	8.896749e+03	3.502806e+03	2.116290e+03	0	8.301053e-04
7.200000e+08	1.845160e+13	0.000000e+00	6.453900e-01	2.925425e+14	4.698509e+14	1.135751e+14	8.876763e+03	3.499047e+03	2.114019e+03	0	8.260138e-04
7.300000e+08	1.818194e+13	0.000000e+00	6.453900e-01	2.889480e+14	4.649751e+14	1.130338e+14	8.857024e+03	3.495332e+03	2.111774e+03	0	8.219701e-04
7.400000e+08	1.791798e+13	0.000000e+00	6.453900e-01	2.854286e+14	4.601942e+14	1.124963e+14	8.837526e+03	3.491658e+03	2.109554e+03	0	8.179731e-04
7.500000e+08	1.765957e+13	0.000000e+00	6.453900e-01	2.819820e+14	4.555055e+14	1.119625e+14	8.818265e+03	3.488026e+03	2.107360e+03	0	8.140218e-04
7.600000e+08	1.740654e+13	0.000000e+00	6.453900e-01	2.786062e+14	4.509064e+14	1.114325e+14	8.799235e+03	3.484434e+03	2.105190e+03	0	8.101153e-04
7.700000e+08	1.715874e+13	0.000000e+00	6.453900e-01	2.752991e+14	4.463942e+14	1.109061e+14	8.780432e+03	3.480882e+03	2.103044e+03	0	8.062526e-04
7.800000e+08	1.691601e+13	0.000000e+00	6.453900e-01	2.720587e+14	4.419667e+14	1.103834e+14	8.761852e+03	3.477369e+03	2.100921e+03	0	8.024328e-04
7.900000e+08	1.667822e+13	0.000000e+00	6.453900e-01	2.688832e+14	4.376214e+14	1.098644e+14	8.743489e+03	3.473894e+03	2.098822e+03	0	7.986550e-04
8.000000e+08	1.644522e+13	0.000000e+00	6.453900e-01	2.657707e+14	4.333561e+14	1.093489e+14	8.725340e+03	3.470457e+03	2.096745e+03	0	7.949184e-04
8.100000e+08	1.621689e+13	0.000000e+00	6.453900e-01	2.627195e+14	4.291686e+14	1.088370e+14	8.707401e+03	3.467055e+03	2.094690e+03	0	7.912222e-04
8.200000e+08	1.599308e+13	0.000000e+00	6.453900e-01	2.597280e+14	4.250568e+14	1.083287e+14	8.689666e+03	3.463690e+03	2.092657e+03	0	7.875655e-04
8.300000e+08	1.577368e+13	0.000000e+00	6.453900e-01	2.567944e+14	4.210186e+14	1.078238e+14	8.672133e+03	3.460360e+03	2.090645e+03	0	7.839475e-04
8.400000e+08	1.555856e+13	0.000000e+00	6.453900e-01	2.539172e+14	4.170522e+14	1.073225e+14	8.654796e+03	3.457064e+03	2.088653e+03	0	7.803674e-04
8.500000e+08	1.534762e+13	0.000000e+00	6.453900e-01	2.510949e+14	4.131556e+14	1.068246e+14	8.637654e+03	3.453801e+03	2.086682e+03	0	7.768246e-04
8.600000e+08	1.514073e+13	0.000000e+00	6.453900e-01	2.483261e+14	4.093271e+14	1.063301e+14	8.620701e+03	3.450572e+03	2.084731e+03	0	7.733182e-04
8.700000e+08	1.493779e+13	0.000000e+00	6.453900e-01	2.456092e+14	4.055648e+14	1.058391e+14	8.603934e+03	3.447376e+03	2.082800e+03	0	7.698476e-04
8.800000e+08	1.473870e+13	0.000000e+00	6.453900e-01	2.429430e+14	4.018671e+14	1.053514e+14	8.587351e+03	3.444211e+03	2.080888e+03	0	7.664121e-04
8.900000e+08	1.454335e+13	0.000000e+00	6.453900e-01	2.403261e+14	3.982323e+14	1.048671e+14	8.570946e+03	3.441077e+03	2.078995e+03	0	7.630110e-04
9.000000e+08	1.435165e+13	0.000000e+00	6.453900e-01	2.377573e+14	3.946589e+14	1.043861e+14	8.554718e+03	3.437974e+03	2.077120e+03	0	7.596437e-04
9.100000e+08	1.416350e+13	0.000000e+00	6.453900e-01	2.352353e+14	3.911452e+14	1.039084e+14	8.538662e+03	3.434901e+03	2.075264e+03	0	7.563095e-04
9.200000e+08	1.397881e+13	0.000000e+00	6.453900e-01	2.327589e+14	3.876899e+14	1.034339e+14	8.522776e+03	3.431858e+03	2.073425e+03	0	7.530077e-04
9.300000e+08	1.379750e+13	0.000000e+00	6.453900e-01	2.303269e+14	3.842915e+14	1.029627e+14	8.507057e+03	3.428844e+03	2.071604e+03	0	7.497378e-04
9.400000e+08	1.361947e+13	0.000000e+00	6.453900e-01	2.279383e+14	3.809486e+14	1.024948e+14	8.491502e+03	3.425858e+03	2.069800e+03	0	7.464993e-04
9.500000e+08	1.344465e+13	0.000000e+00	6.453900e-01	2.255920e+14	3.776599e+14	1.020300e+14	8.476107e+03	3.422900e+03	2.068013e+03	0	7.432914e-04
9.600000e+08	1.327295e+13	0.000000e+00	6.453900e-01	2.232868e+14	3.744240e+14	1.015684e+14	8.460870e+03	3.419970e+03	2.066242e+03	0	7.401137e-04
9.700000e+08	1.310430e+13	0.000000e+00	6.453900e-01	2.210219e+14	3.712398e+14	1.011099e+14	8.445788e+03	3.417067e+03	2.064488e+03	0	7.369656e-04
9.800000e+08	1.293862e+13	0.000000e+00	6.453900e-01	2.187961e+14	3.681059e+14	1.006546e+14	8.430859e+03	3.414190e+03	2.062750e+03	0	7.338466e-04
9.900000e+08	1.277584e+13	0.000000e+00	6.453900e-01	2.166087e+14	3.650213e+14	1.002024e+14	8.416080e+03	3.411339e+03	2.061028e+03	0	7.307561e-04
1.000000e+09	1.261589e+13	0.000000e+00	6.453900e-01	2.144586e+14	3.619847e+14	9.975319e+13	8.401448e+03	3.408514e+03	2.059321e+03	0	7.276937e-04
1.010000e+09	1.245870e+13	0.000000e+00	6.453900e-01	2.123449e+14	3.589951e+14	9.930706e+13	8.386960e+03	3.405714e+03	2.057630e+03	0	7.246588e-04
1.020000e+09	1.230421e+13	0.000000e+00	6.453900e-01	2.102668e+14	3.560513e+14	9.886395e+13	8.372615e+03	3.402939e+03	2.055953e+03	0	7.216509e-04
1.030000e+09	1.215234e+13	0.000000e+00	6.453900e-01	2.082234e+14	3.531524e+14	9.842384e+13	8.358410e+03	3.400189e+03	2.054291e+03	0	7.186697e-04
1.040000e+09	1.200305e+13	0.000000e+00	6.453900e-01	2.062140e+14	3.502974e+14	9.798671e+13	8.344343e+03	3.397462e+03	2.052644e+03	0	7.157145e-04
1.050000e+09	1.185626e+13	0.000000e+00	6.453900e-01	2.042377e+14	3.474852e+14	9.755253e+13	8.330411e+03	3.394759e+03	2.051011e+03	0	7.127850e-04
1.060000e+09	1.171193e+13	0.000000e+00	6.453900e-01	2.022938e+14	3.447149e+14	9.712127e+13	8.316611e+03	3.392079e+03	2.049391e+03	0	7.098808e-04
1.070000e+09	1.156998e+13	0.000000e+00	6.453900e-01	2.003815e+14	3.419856e+14	9.669293e+13	8.302943e+03	3.389422e+03	2.047786e+03	0	7.070013e-04
1.080000e+09	1.143038e+13	0.000000e+00	6.453900e-01	1.985001e+14	3.392963e+14	9.626746e+13	8.289404e+03	3.386787e+03	2.046194e+03	0	7.041462e-04
1.090000e+09	1.129306e+13	0.000000e+00	6.453900e-01	1.966490e+14	3.366463e+14	9.584486e+13	8.275991e+03	3.384174e+03	2.044616e+03	0	7.013151e-04
1.100000e+09	1.115797e+13	0.000000e+00	6.453900e-01	1.948273e+14	3.340346e+14	9.542509e+13	8.262703e+03	3.381583e+03	2.043050e+03	0	6.985075e-04
1.110000e+09	1.102507e+13	0.000000e+00	6.453900e-01	1.930345e+14	3.314604e+14	9.500814e+13	8.249538e+03	3.379014e+03	2.041498e+03	0	6.957231e-04
1.120000e+09	1.089430e+13	0.000000e+00	6.453900e-01	1.912699e+14	3.289231e+14	9.459398e+13	8.236493e+03	3.376465e+03	2.039958e+03	0	6.929614e-04
1.130000e+09	1.076562e+13	0.000000e+00	6.453900e-01	1.895330e+14	3.264216e+14	9.418259e+13	8.223568e+03	3.373938e+03	2.038431e+03	0	6.902222e-04
1.140000e+09	1.063897e+13	0.000000e+00	6.453900e-01	1.878230e+14	3.239554e+14	9.377395e+13	8.210759e+03	3.371430e+03	2.036916e+03	0	6.875050e-04
1.150000e+09	1.051432e+13	0.000000e+00	6.453900e-01	1.861394e+14	3.215237e+14	9.336804e+13	8.198066e+03	3.368943e+03	2.035413e+03	0	6.848094e-04
1.160000e+09	1.039163e+13	0.000000e+00	6.453900e-01	1.844817e+14	3.191257e+14	9.296484e+13	8.185486e+03	3.366476e+03	2.033923e+03	0	6.821352e-04
1.170000e+09	1.027084e+13	0.000000e+00	6.453900e-01	1.828492e+14	3.167608e+14	9.256432e+13	8.173017e+03	3.364028e+03	2.032444e+03	0	6.794820e-04
1.180000e+09	1.015192e+13	0.000000e+00	6.453900e-01	1.812415e+14	3.144283e+14	9.216647e+13	8.160659e+03	3.361599e+03	2.030976e+03	0	6.768493e-04
1.190000e+09	1.003483e+13	0.000000e+00	6.453900e-01	1.796580e+14	3.121275e+14	9.177127e+13	8.148409e+03	3.359189e+03	2.029521e+03	0	6.742370e-04
1.200000e+09	9.919523e+12	0.000000e+00	6.453900e-01	1.780981e+14	3.098578e+14	9.137869e+13	8.136266e+03	3.356798e+03	2.028076e+03	0	6.716447e-04
1.210000e+09	9.805972e+12	0.000000e+00	6.453900e-01	1.765615e+14	3.076186e+14	9.098871e+13	8.124228e+03	3.354425e+03	2.026642e+03	0	6.690720e-04
1.220000e+09	9.694134e+12	0.000000e+00	6.453900e-01	1.750476e+14	3.054093e+14	9.060131e+13	8.112293e+03	3.352071e+03	2.025220e+03	0	6.665187e-04
1.230000e+09	9.583975e+12	0.000000e+00	6.453900e-01	1.735559e+14	3.032293e+14	9.021648e+13	8.100461e+03	3.349734e+03	2.023808e+03	0	6.639844e-04
1.240000e+09	9.475459e+12	0.000000e+00	6.453900e-01	1.720860e+14	3.010780e+14	8.983419e+13	8.088729e+03	3.347414e+03	2.022407e+03	0	6.614688e-04
1.250000e+09	9.368552e+12	0.000000e+00	6.453900e-01	1.706374e+14	2.989548e+14	8.945443e+13	8.077096e+03	3.345113e+03	2.021016e+03	0	6.589718e-04
1.260000e+09	9.263222e+12	0.000000e+00	6.453900e-01	1.692098e+14	2.968592e+14	8.907717e+13	8.065561e+03	3.342828e+03	2.019635e+03	0	6.564928e-04
1.270000e+09	9.159435e+12	0.000000e+00	6.453900e-01	1.678026e+14	2.947908e+14	8.870239e+13	8.054122e+03	3.340560e+03	2.018265e+03	0	6.540318e-04
1.280000e+09	9.057162e+12	0.000000e+00	6.453900e-01	1.664155e+14	2.927488e+14	8.833008e+13	8.042778e+03	3.338308e+03	2.016905e+03	0	6.515884e-04
1.290000e+09	8.956370e+12	0.000000e+00	6.453900e-01	1.650480e+14	2.907330e+14	8.796022e+13	8.031527e+03	3.336073e+03	2.015555e+03	0	6.491623e-04
1.300000e+09	8.857030e+12	0.000000e+00	6.453900e-01	1.636998e+14	2.887427e+14	8.759278e+13	8.020369e+03	3.333854e+03	2.014214e+03	0	6.467533e-04
1.310000e+09	8.759114e+12	0.000000e+00	6.453900e-01	1.623705e+14	2.867775e+14	8.722775e+13	8.009301e+03	3.331652e+03	2.012883e+03	0	6.443612e-04
1.320000e+09	8.662593e+12	0.000000e+00	6.453900e-01	1.610597e+14	2.848369e+14	8.686512e+13	7.998323e+03	3.329464e+03	2.011562e+03	0	6.419856e-04
1.330000e+09	8.567439e+12	0.000000e+00	6.453900e-01	1.597671e+14	2.829204e+14	8.650485e+13	7.987434e+03	3.327293e+03	2.010250e+03	0	6.396263e-04
1.340000e+09	8.473626e+12	0.000000e+00	6.453900e-01	1.584923e+14	2.810277e+14	8.614694e+13	7.976631e+03	3.325136e+03	2.008947e+03	0	6.372831e-04
1.350000e+09	8.381127e+12	0.000000e+00	6.453900e-01	1.572349e+14	2.791583e+14	8.579137e+13	7.965915e+03	3.322995e+03	2.007653e+03	0	6.349557e-04
1.360000e+09	8.289916e+12	0.000000e+00	6.453900e-01	1.559947e+14	2.773117e+14	8.543811e+13	7.955283e+03	3.320868e+03	2.006368e+03	0	6.326439e-04
