#t		Qconv[W]	Ri[Rp]		R*[Rp]		Qc[W]		Qm[W]		Qr[W]		Tcmb[K]		Tl[K]		Tup[K]		RiFlag		Bs[T]
0.000000e+00	7.509153e+14	0.000000e+00	6.428571e-01	7.879608e+15	3.138497e+15	2.495268e+14	2.046312e+04	5.362575e+03	2.665631e+03	0	2.801732e-03
1.000000e+07	7.157072e+14	0.000000e+00	6.428571e-01	7.520099e+15	3.839615e+15	2.481443e+14	2.015421e+04	5.560675e+03	2.764103e+03	0	2.757241e-03
2.000000e+07	6.811806e+14	0.000000e+00	6.428571e-01	7.167669e+15	4.432273e+15	2.467720e+14	1.985914e+04	5.715092e+03	2.840860e+03	0	2.712171e-03
3.000000e+07	6.477945e+14	0.000000e+00	6.428571e-01	6.826940e+15	4.892835e+15	2.454101e+14	1.957766e+04	5.831440e+03	2.898694e+03	0	2.667117e-03
4.000000e+07	6.158622e+14	0.000000e+00	6.428571e-01	6.501061e+15	5.220754e+15	2.440583e+14	1.930934e+04	5.916031e+03	2.940743e+03	0	2.622552e-03
5.000000e+07	5.855656e+14	0.000000e+00	6.428571e-01	6.191858e+15	5.429737e+15	2.427166e+14	1.905363e+04	5.974998e+03	2.970055e+03	0	2.578823e-03
6.000000e+07	5.569836e+14	0.000000e+00	6.428571e-01	5.900115e+15	5.539828e+15	2.413849e+14	1.880989e+04	6.013798e+03	2.989341e+03	0	2.536163e-03
7.000000e+07	5.301217e+14	0.000000e+00	6.428571e-01	5.625879e+15	5.572051e+15	2.400631e+14	1.857747e+04	6.037011e+03	3.000880e+03	0	2.494718e-03
8.000000e+07	5.049371e+14	0.000000e+00	6.428571e-01	5.368707e+15	5.545517e+15	2.387511e+14	1.835569e+04	6.048346e+03	3.006514e+03	0	2.454570e-03
9.000000e+07	4.813574e+14	0.000000e+00	6.428571e-01	5.127862e+15	5.476250e+15	2.374489e+14	1.814390e+04	6.050724e+03	3.007696e+03	0	2.415751e-03
1.000000e+08	4.592943e+14	0.000000e+00	6.428571e-01	4.902441e+15	5.377030e+15	2.361563e+14	1.794148e+04	6.046410e+03	3.005552e+03	0	2.378264e-03
1.100000e+08	4.386519e+14	0.000000e+00	6.428571e-01	4.691470e+15	5.257698e+15	2.348734e+14	1.774785e+04	6.037143e+03	3.000945e+03	0	2.342087e-03
1.200000e+08	4.193330e+14	0.000000e+00	6.428571e-01	4.493962e+15	5.125654e+15	2.335999e+14	1.756243e+04	6.024244e+03	2.994534e+03	0	2.307186e-03
1.300000e+08	4.012424e+14	0.000000e+00	6.428571e-01	4.308949e+15	4.986356e+15	2.323359e+14	1.738472e+04	6.008717e+03	2.986816e+03	0	2.273519e-03
1.400000e+08	3.842890e+14	0.000000e+00	6.428571e-01	4.135507e+15	4.843762e+15	2.310813e+14	1.721423e+04	5.991322e+03	2.978169e+03	0	2.241037e-03
1.500000e+08	3.683873e+14	0.000000e+00	6.428571e-01	3.972765e+15	4.700700e+15	2.298359e+14	1.705052e+04	5.972633e+03	2.968879e+03	0	2.209689e-03
1.600000e+08	3.534573e+14	0.000000e+00	6.428571e-01	3.819913e+15	4.559152e+15	2.285997e+14	1.689317e+04	5.953081e+03	2.959160e+03	0	2.179425e-03
1.700000e+08	3.394252e+14	0.000000e+00	6.428571e-01	3.676200e+15	4.420477e+15	2.273726e+14	1.674181e+04	5.932993e+03	2.949175e+03	0	2.150194e-03
1.800000e+08	3.262229e+14	0.000000e+00	6.428571e-01	3.540935e+15	4.285580e+15	2.261546e+14	1.659607e+04	5.912616e+03	2.939046e+03	0	2.121947e-03
1.900000e+08	3.137879e+14	0.000000e+00	6.428571e-01	3.413482e+15	4.155031e+15	2.249456e+14	1.645564e+04	5.892134e+03	2.928864e+03	0	2.094635e-03
2.000000e+08	3.020629e+14	0.000000e+00	6.428571e-01	3.293261e+15	4.029164e+15	2.237454e+14	1.632021e+04	5.871685e+03	2.918700e+03	0	2.068214e-03
2.100000e+08	2.909954e+14	0.000000e+00	6.428571e-01	3.179737e+15	3.908139e+15	2.225541e+14	1.618949e+04	5.851372e+03	2.908603e+03	0	2.042639e-03
2.200000e+08	2.805374e+14	0.000000e+00	6.428571e-01	3.072424e+15	3.791995e+15	2.213715e+14	1.606323e+04	5.831272e+03	2.898611e+03	0	2.017870e-03
2.300000e+08	2.706451e+14	0.000000e+00	6.428571e-01	2.970875e+15	3.680687e+15	2.201976e+14	1.594119e+04	5.811439e+03	2.888752e+03	0	1.993868e-03
2.400000e+08	2.612782e+14	0.000000e+00	6.428571e-01	2.874682e+15	3.574111e+15	2.190323e+14	1.582314e+04	5.791913e+03	2.879046e+03	0	1.970595e-03
2.500000e+08	2.524000e+14	0.000000e+00	6.428571e-01	2.783471e+15	3.472124e+15	2.178756e+14	1.570888e+04	5.772722e+03	2.869507e+03	0	1.948017e-03
2.600000e+08	2.439767e+14	0.000000e+00	6.428571e-01	2.696899e+15	3.374560e+15	2.167273e+14	1.559820e+04	5.753884e+03	2.860143e+03	0	1.926101e-03
2.700000e+08	2.359774e+14	0.000000e+00	6.428571e-01	2.614652e+15	3.281236e+15	2.155874e+14	1.549093e+04	5.735411e+03	2.850961e+03	0	1.904816e-03
2.800000e+08	2.283737e+14	0.000000e+00	6.428571e-01	2.536441e+15	3.191964e+15	2.144558e+14	1.538691e+04	5.717309e+03	2.841962e+03	0	1.884134e-03
2.900000e+08	2.211396e+14	0.000000e+00	6.428571e-01	2.462001e+15	3.106553e+15	2.133325e+14	1.528596e+04	5.699579e+03	2.833149e+03	0	1.864025e-03
3.000000e+08	2.142510e+14	0.000000e+00	6.428571e-01	2.391088e+15	3.024816e+15	2.122174e+14	1.518796e+04	5.682220e+03	2.824520e+03	0	1.844466e-03
3.100000e+08	2.076860e+14	0.000000e+00	6.428571e-01	2.323478e+15	2.946567e+15	2.111104e+14	1.509275e+04	5.665229e+03	2.816075e+03	0	1.825431e-03
3.200000e+08	2.014241e+14	0.000000e+00	6.428571e-01	2.258963e+15	2.871628e+15	2.100115e+14	1.500020e+04	5.648601e+03	2.807809e+03	0	1.806897e-03
3.300000e+08	1.954466e+14	0.000000e+00	6.428571e-01	2.197353e+15	2.799828e+15	2.089205e+14	1.491021e+04	5.632328e+03	2.799720e+03	0	1.788844e-03
3.400000e+08	1.897362e+14	0.000000e+00	6.428571e-01	2.138472e+15	2.731003e+15	2.078375e+14	1.482265e+04	5.616403e+03	2.791804e+03	0	1.771249e-03
3.500000e+08	1.842767e+14	0.000000e+00	6.428571e-01	2.082155e+15	2.664997e+15	2.067623e+14	1.473741e+04	5.600819e+03	2.784057e+03	0	1.754095e-03
3.600000e+08	1.790534e+14	0.000000e+00	6.428571e-01	2.028251e+15	2.601664e+15	2.056949e+14	1.465440e+04	5.585566e+03	2.776475e+03	0	1.737363e-03
3.700000e+08	1.740524e+14	0.000000e+00	6.428571e-01	1.976621e+15	2.540863e+15	2.046353e+14	1.457352e+04	5.570636e+03	2.769054e+03	0	1.721035e-03
3.800000e+08	1.692611e+14	0.000000e+00	6.428571e-01	1.927135e+15	2.482462e+15	2.035833e+14	1.449469e+04	5.556019e+03	2.761788e+03	0	1.705096e-03
3.900000e+08	1.646676e+14	0.000000e+00	6.428571e-01	1.879671e+15	2.426337e+15	2.025389e+14	1.441781e+04	5.541708e+03	2.754674e+03	0	1.689529e-03
4.000000e+08	1.602607e+14	0.000000e+00	6.428571e-01	1.834118e+15	2.372371e+15	2.015021e+14	1.434281e+04	5.527692e+03	2.747707e+03	0	1.674321e-03
4.100000e+08	1.560304e+14	0.000000e+00	6.428571e-01	1.790371e+15	2.320454e+15	2.004728e+14	1.426961e+04	5.513963e+03	2.740883e+03	0	1.659457e-03
4.200000e+08	1.519669e+14	0.000000e+00	6.428571e-01	1.748332e+15	2.270482e+15	1.994508e+14	1.419815e+04	5.500514e+03	2.734198e+03	0	1.644925e-03
4.300000e+08	1.480615e+14	0.000000e+00	6.428571e-01	1.707911e+15	2.222356e+15	1.984362e+14	1.412835e+04	5.487334e+03	2.727646e+03	0	1.630711e-03
4.400000e+08	1.443057e+14	0.000000e+00	6.428571e-01	1.669022e+15	2.175985e+15	1.974290e+14	1.406016e+04	5.474416e+03	2.721225e+03	0	1.616805e-03
4.500000e+08	1.406919e+14	0.000000e+00	6.428571e-01	1.631587e+15	2.131283e+15	1.964289e+14	1.399350e+04	5.461752e+03	2.714930e+03	0	1.603194e-03
4.600000e+08	1.372127e+14	0.000000e+00	6.428571e-01	1.595531e+15	2.088168e+15	1.954361e+14	1.392834e+04	5.449335e+03	2.708758e+03	0	1.589868e-03
4.700000e+08	1.338613e+14	0.000000e+00	6.428571e-01	1.560786e+15	2.046563e+15	1.944503e+14	1.386460e+04	5.437156e+03	2.702704e+03	0	1.576817e-03
4.800000e+08	1.306313e+14	0.000000e+00	6.428571e-01	1.527285e+15	2.006396e+15	1.934717e+14	1.380223e+04	5.425209e+03	2.696765e+03	0	1.564031e-03
4.900000e+08	1.275169e+14	0.000000e+00	6.428571e-01	1.494968e+15	1.967600e+15	1.925000e+14	1.374120e+04	5.413486e+03	2.690938e+03	0	1.551502e-03
5.000000e+08	1.245123e+14	0.000000e+00	6.428571e-01	1.463778e+15	1.930110e+15	1.915353e+14	1.368145e+04	5.401980e+03	2.685219e+03	0	1.539219e-03
5.100000e+08	1.216123e+14	0.000000e+00	6.428571e-01	1.433661e+15	1.893865e+15	1.905774e+14	1.362294e+04	5.390686e+03	2.679605e+03	0	1.527175e-03
5.200000e+08	1.188120e+14	0.000000e+00	6.428571e-01	1.404567e+15	1.858809e+15	1.896264e+14	1.356563e+04	5.379597e+03	2.674092e+03	0	1.515362e-03
5.300000e+08	1.161066e+14	0.000000e+00	6.428571e-01	1.376447e+15	1.824888e+15	1.886822e+14	1.350947e+04	5.368707e+03	2.668679e+03	0	1.503772e-03
5.400000e+08	1.134919e+14	0.000000e+00	6.428571e-01	1.349257e+15	1.792052e+15	1.877448e+14	1.345443e+04	5.358009e+03	2.663361e+03	0	1.492398e-03
5.500000e+08	1.109636e+14	0.000000e+00	6.428571e-01	1.322956e+15	1.760251e+15	1.868139e+14	1.340046e+04	5.347499e+03	2.658137e+03	0	1.481232e-03
5.600000e+08	1.085180e+14	0.000000e+00	6.428571e-01	1.297502e+15	1.729442e+15	1.858897e+14	1.334755e+04	5.337171e+03	2.653003e+03	0	1.470269e-03
5.700000e+08	1.061512e+14	0.000000e+00	6.428571e-01	1.272860e+15	1.699581e+15	1.849721e+14	1.329564e+04	5.327019e+03	2.647957e+03	0	1.459502e-03
5.800000e+08	1.038599e+14	0.000000e+00	6.428571e-01	1.248992e+15	1.670627e+15	1.840610e+14	1.324472e+04	5.317039e+03	2.642996e+03	0	1.448924e-03
5.900000e+08	1.016407e+14	0.000000e+00	6.428571e-01	1.225866e+15	1.642543e+15	1.831563e+14	1.319474e+04	5.307226e+03	2.638118e+03	0	1.438530e-03
6.000000e+08	9.949059e+13	0.000000e+00	6.428571e-01	1.203450e+15	1.615291e+15	1.822581e+14	1.314568e+04	5.297575e+03	2.633321e+03	0	1.428314e-03
6.100000e+08	9.740663e+13	0.000000e+00	6.428571e-01	1.181714e+15	1.588838e+15	1.813662e+14	1.309752e+04	5.288081e+03	2.628602e+03	0	1.418271e-03
6.200000e+08	9.538602e+13	0.000000e+00	6.428571e-01	1.160630e+15	1.563150e+15	1.804805e+14	1.305022e+04	5.278741e+03	2.623959e+03	0	1.408395e-03
6.300000e+08	9.342614e+13	0.000000e+00	6.428571e-01	1.140170e+15	1.538198e+15	1.796012e+14	1.300376e+04	5.269550e+03	2.619390e+03	0	1.398682e-03
6.400000e+08	9.152449e+13	0.000000e+00	6.428571e-01	1.120310e+15	1.513950e+15	1.787280e+14	1.295811e+04	5.260504e+03	2.614893e+03	0	1.389127e-03
6.500000e+08	8.967873e+13	0.000000e+00	6.428571e-01	1.101025e+15	1.490380e+15	1.778610e+14	1.291326e+04	5.251599e+03	2.610467e+03	0	1.379726e-03
6.600000e+08	8.788660e+13	0.000000e+00	6.428571e-01	1.082292e+15	1.467462e+15	1.770001e+14	1.286917e+04	5.242831e+03	2.606109e+03	0	1.370473e-03
6.700000e+08	8.614597e+13	0.000000e+00	6.428571e-01	1.064090e+15	1.445168e+15	1.761453e+14	1.282583e+04	5.234198e+03	2.601817e+03	0	1.361365e-03
6.800000e+08	8.445483e+13	0.000000e+00	6.428571e-01	1.046397e+15	1.423477e+15	1.752965e+14	1.278321e+04	5.225695e+03	2.597590e+03	0	1.352398e-03
6.900000e+08	8.281125e+13	0.000000e+00	6.428571e-01	1.029194e+15	1.402365e+15	1.744536e+14	1.274130e+04	5.217318e+03	2.593427e+03	0	1.343567e-03
7.000000e+08	8.121340e+13	0.000000e+00	6.428571e-01	1.012463e+15	1.381809e+15	1.736166e+14	1.270007e+04	5.209066e+03	2.589325e+03	0	1.334870e-03
7.100000e+08	7.965955e+13	0.000000e+00	6.428571e-01	9.961849e+14	1.361791e+15	1.727855e+14	1.265951e+04	5.200934e+03	2.585282e+03	0	1.326302e-03
7.200000e+08	7.814803e+13	0.000000e+00	6.428571e-01	9.803436e+14	1.342289e+15	1.719602e+14	1.261960e+04	5.192919e+03	2.581299e+03	0	1.317859e-03
7.300000e+08	7.667727e+13	0.000000e+00	6.428571e-01	9.649226e+14	1.323285e+15	1.711406e+14	1.258032e+04	5.185020e+03	2.577372e+03	0	1.309539e-03
7.400000e+08	7.524577e+13	0.000000e+00	6.428571e-01	9.499067e+14	1.304761e+15	1.703268e+14	1.254165e+04	5.177232e+03	2.573501e+03	0	1.301339e-03
7.500000e+08	7.385209e+13	0.000000e+00	6.428571e-01	9.352810e+14	1.286700e+15	1.695187e+14	1.250359e+04	5.169553e+03	2.569684e+03	0	1.293254e-03
7.600000e+08	7.249487e+13	0.000000e+00	6.428571e-01	9.210316e+14	1.269085e+15	1.687161e+14	1.246610e+04	5.161981e+03	2.565920e+03	0	1.285283e-03
7.700000e+08	7.117280e+13	0.000000e+00	6.428571e-01	9.071451e+14	1.251902e+15	1.679192e+14	1.242919e+04	5.154512e+03	2.562207e+03	0	1.277422e-03
7.800000e+08	6.988464e+13	0.000000e+00	6.428571e-01	8.936088e+14	1.235134e+15	1.671278e+14	1.239283e+04	5.147145e+03	2.558545e+03	0	1.269668e-03
7.900000e+08	6.862919e+13	0.000000e+00	6.428571e-01	8.804103e+14	1.218769e+15	1.663419e+14	1.235701e+04	5.139878e+03	2.554933e+03	0	1.262019e-03
8.000000e+08	6.740532e+13	0.000000e+00	6.428571e-01	8.675381e+14	1.202791e+15	1.655615e+14	1.232171e+04	5.132706e+03	2.551368e+03	0	1.254472e-03
8.100000e+08	6.621193e+13	0.000000e+00	6.428571e-01	8.549810e+14	1.187189e+15	1.647864e+14	1.228693e+04	5.125630e+03	2.547850e+03	0	1.247025e-03
8.200000e+08	6.504800e+13	0.000000e+00	6.428571e-01	8.427283e+14	1.171950e+15	1.640167e+14	1.225265e+04	5.118645e+03	2.544378e+03	0	1.239674e-03
8.300000e+08	6.391252e+13	0.000000e+00	6.428571e-01	8.307698e+14	1.157061e+15	1.632524e+14	1.221886e+04	5.111751e+03	2.540951e+03	0	1.232419e-03
8.400000e+08	6.280454e+13	0.000000e+00	6.428571e-01	8.190957e+14	1.142511e+15	1.624933e+14	1.218554e+04	5.104945e+03	2.537568e+03	0	1.225256e-03
8.500000e+08	6.172316e+13	0.000000e+00	6.428571e-01	8.076967e+14	1.128290e+15	1.617395e+14	1.215270e+04	5.098226e+03	2.534228e+03	0	1.218183e-03
8.600000e+08	6.066748e+13	0.000000e+00	6.428571e-01	7.965638e+14	1.114386e+15	1.609908e+14	1.212030e+04	5.091590e+03	2.530930e+03	0	1.211198e-03
8.700000e+08	5.963669e+13	0.000000e+00	6.428571e-01	7.856883e+14	1.100791e+15	1.602474e+14	1.208835e+04	5.085038e+03	2.527673e+03	0	1.204299e-03
8.800000e+08	5.862996e+13	0.000000e+00	6.428571e-01	7.750620e+14	1.087493e+15	1.595090e+14	1.205684e+04	5.078565e+03	2.524455e+03	0	1.197483e-03
8.900000e+08	5.764654e+13	0.000000e+00	6.428571e-01	7.646771e+14	1.074483e+15	1.587757e+14	1.202575e+04	5.072172e+03	2.521277e+03	0	1.190750e-03
9.000000e+08	5.668568e+13	0.000000e+00	6.428571e-01	7.545259e+14	1.061754e+15	1.580474e+14	1.199507e+04	5.065856e+03	2.518138e+03	0	1.184097e-03
9.100000e+08	5.574668e+13	0.000000e+00	6.428571e-01	7.446010e+14	1.049296e+15	1.573241e+14	1.196480e+04	5.059616e+03	2.515036e+03	0	1.177523e-03
9.200000e+08	5.482885e+13	0.000000e+00	6.428571e-01	7.348956e+14	1.037101e+15	1.566058e+14	1.193493e+04	5.053449e+03	2.511971e+03	0	1.171025e-03
9.300000e+08	5.393153e+13	0.000000e+00	6.428571e-01	7.254029e+14	1.025160e+15	1.558924e+14	1.190544e+04	5.047356e+03	2.508942e+03	0	1.164601e-03
9.400000e+08	5.305411e+13	0.000000e+00	6.428571e-01	7.161164e+14	1.013468e+15	1.551839e+14	1.187634e+04	5.041333e+03	2.505948e+03	0	1.158251e-03
9.500000e+08	5.219597e+13	0.000000e+00	6.428571e-01	7.070298e+14	1.002015e+15	1.544802e+14	1.184760e+04	5.035379e+03	2.502988e+03	0	1.151972e-03
9.600000e+08	5.135653e+13	0.000000e+00	6.428571e-01	6.981373e+14	9.907957e+14	1.537813e+14	1.181923e+04	5.029494e+03	2.500063e+03	0	1.145763e-03
9.700000e+08	5.053523e+13	0.000000e+00	6.428571e-01	6.894331e+14	9.798026e+14	1.530871e+14	1.179121e+04	5.023676e+03	2.497171e+03	0	1.139623e-03
9.800000e+08	4.973155e+13	0.000000e+00	6.428571e-01	6.809115e+14	9.690293e+14	1.523977e+14	1.176354e+04	5.017922e+03	2.494311e+03	0	1.133549e-03
9.900000e+08	4.894495e+13	0.000000e+00	6.428571e-01	6.725674e+14	9.584695e+14	1.517130e+14	1.173622e+04	5.012233e+03	2.491483e+03	0	1.127541e-03
1.000000e+09	4.817493e+13	0.000000e+00	6.428571e-01	6.643956e+14	9.481172e+14	1.510329e+14	1.170922e+04	5.006607e+03	2.488686e+03	0	1.121597e-03
1.010000e+09	4.742103e+13	0.000000e+00	6.428571e-01	6.563910e+14	9.379665e+14	1.503575e+14	1.168255e+04	5.001043e+03	2.485920e+03	0	1.115715e-03
1.020000e+09	4.668278e+13	0.000000e+00	6.428571e-01	6.485491e+14	9.280119e+14	1.496866e+14	1.165620e+04	4.995538e+03	2.483184e+03	0	1.109895e-03
1.030000e+09	4.595973e+13	0.000000e+00	6.428571e-01	6.408651e+14	9.182479e+14	1.490202e+14	1.163017e+04	4.990094e+03	2.480478e+03	0	1.104135e-03
1.040000e+09	4.525144e+13	0.000000e+00	6.428571e-01	6.333346e+14	9.086692e+14	1.483584e+14	1.160444e+04	4.984707e+03	2.477800e+03	0	1.098434e-03
1.050000e+09	4.455752e+13	0.000000e+00	6.428571e-01	6.259535e+14	8.992710e+14	1.477010e+14	1.157901e+04	4.979377e+03	2.475151e+03	0	1.092790e-03
1.060000e+09	4.387756e+13	0.000000e+00	6.428571e-01	6.187175e+14	8.900482e+14	1.470480e+14	1.155388e+04	4.974103e+03	2.472529e+03	0	1.087203e-03
1.070000e+09	4.321116e+13	0.000000e+00	6.428571e-01	6.116227e+14	8.809962e+14	1.463995e+14	1.152904e+04	4.968884e+03	2.469935e+03	0	1.081670e-03
1.080000e+09	4.255797e+13	0.000000e+00	6.428571e-01	6.046653e+14	8.721104e+14	1.457553e+14	1.150448e+04	4.963719e+03	2.467368e+03	0	1.076193e-03
1.090000e+09	4.191762e+13	0.000000e+00	6.428571e-01	5.978415e+14	8.633866e+14	1.451155e+14	1.148020e+04	4.958607e+03	2.464826e+03	0	1.070768e-03
1.100000e+09	4.128977e+13	0.000000e+00	6.428571e-01	5.911478e+14	8.548204e+14	1.444799e+14	1.145620e+04	4.953547e+03	2.462311e+03	0	1.065395e-03
1.110000e+09	4.067408e+13	0.000000e+00	6.428571e-01	5.845808e+14	8.464077e+14	1.438486e+14	1.143246e+04	4.948537e+03	2.459821e+03	0	1.060072e-03
1.120000e+09	4.007022e+13	0.000000e+00	6.428571e-01	5.781370e+14	8.381446e+14	1.432215e+14	1.140898e+04	4.943578e+03	2.457356e+03	0	1.054800e-03
1.130000e+09	3.947789e+13	0.000000e+00	6.428571e-01	5.718134e+14	8.300274e+14	1.425987e+14	1.138576e+04	4.938668e+03	2.454915e+03	0	1.049577e-03
1.140000e+09	3.889678e+13	0.000000e+00	6.428571e-01	5.656066e+14	8.220522e+14	1.419800e+14	1.136280e+04	4.933806e+03	2.452498e+03	0	1.044402e-03
1.150000e+09	3.832661e+13	0.000000e+00	6.428571e-01	5.595139e+14	8.142156e+14	1.413654e+14	1.134008e+04	4.928992e+03	2.450105e+03	0	1.039273e-03
1.160000e+09	3.776708e+13	0.000000e+00	6.428571e-01	5.535321e+14	8.065140e+14	1.407549e+14	1.131761e+04	4.924224e+03	2.447735e+03	0	1.034191e-03
1.170000e+09	3.721793e+13	0.000000e+00	6.428571e-01	5.476586e+14	7.989442e+14	1.401485e+14	1.129537e+04	4.919502e+03	2.445388e+03	0	1.029154e-03
1.180000e+09	3.667889e+13	0.000000e+00	6.428571e-01	5.418906e+14	7.915028e+14	1.395461e+14	1.127338e+04	4.914826e+03	2.443064e+03	0	1.024161e-03
1.190000e+09	3.614970e+13	0.000000e+00	6.428571e-01	5.362254e+14	7.841868e+14	1.389478e+14	1.125161e+04	4.910193e+03	2.440761e+03	0	1.019212e-03
1.200000e+09	3.563012e+13	0.000000e+00	6.428571e-01	5.306605e+14	7.769931e+14	1.383534e+14	1.123007e+04	4.905604e+03	2.438480e+03	0	1.014305e-03
1.210000e+09	3.511992e+13	0.000000e+00	6.428571e-01	5.251934e+14	7.699187e+14	1.377629e+14	1.120875e+04	4.901058e+03	2.436220e+03	0	1.009441e-03
1.220000e+09	3.461884e+13	0.000000e+00	6.428571e-01	5.198217e+14	7.629609e+14	1.371764e+14	1.118765e+04	4.896553e+03	2.433981e+03	0	1.004617e-03
1.230000e+09	3.412668e+13	0.000000e+00	6.428571e-01	5.145431e+14	7.561168e+14	1.365937e+14	1.116677e+04	4.892090e+03	2.431762e+03	0	9.998335e-04
1.240000e+09	3.364322e+13	0.000000e+00	6.428571e-01	5.093553e+14	7.493838e+14	1.360149e+14	1.114609e+04	4.887668e+03	2.429564e+03	0	9.950896e-04
1.250000e+09	3.316824e+13	0.000000e+00	6.428571e-01	5.042563e+14	7.427593e+14	1.354399e+14	1.112563e+04	4.883286e+03	2.427386e+03	0	9.903844e-04
1.260000e+09	3.270154e+13	0.000000e+00	6.428571e-01	4.992437e+14	7.362408e+14	1.348687e+14	1.110537e+04	4.878943e+03	2.425227e+03	0	9.857173e-04
1.270000e+09	3.224291e+13	0.000000e+00	6.428571e-01	4.943157e+14	7.298257e+14	1.343013e+14	1.108531e+04	4.874639e+03	2.423088e+03	0	9.810875e-04
1.280000e+09	3.179218e+13	0.000000e+00	6.428571e-01	4.894701e+14	7.235119e+14	1.337376e+14	1.106544e+04	4.870373e+03	2.420967e+03	0	9.764944e-04
1.290000e+09	3.134915e+13	0.000000e+00	6.428571e-01	4.847052e+14	7.172969e+14	1.331776e+14	1.104577e+04	4.866145e+03	2.418865e+03	0	9.719373e-04
1.300000e+09	3.091364e+13	0.000000e+00	6.428571e-01	4.800189e+14	7.111785e+14	1.326213e+14	1.102630e+04	4.861953e+03	2.416782e+03	0	9.674155e-04
1.310000e+09	3.048548e+13	0.000000e+00	6.428571e-01	4.754096e+14	7.051545e+14	1.320686e+14	1.100701e+04	4.857798e+03	2.414716e+03	0	9.629284e-04
1.320000e+09	3.006449e+13	0.000000e+00	6.428571e-01	4.708754e+14	6.992230e+14	1.315195e+14	1.098790e+04	4.853678e+03	2.412668e+03	0	9.584753e-04
1.330000e+09	2.965051e+13	0.000000e+00	6.428571e-01	4.664146e+14	6.933817e+14	1.309741e+14	1.096898e+04	4.849594e+03	2.410638e+03	0	9.540557e-04
1.340000e+09	2.924339e+13	0.000000e+00	6.428571e-01	4.620256e+14	6.876288e+14	1.304322e+14	1.095023e+04	4.845544e+03	2.408625e+03	0	9.496689e-04
1.350000e+09	2.884296e+13	0.000000e+00	6.428571e-01	4.577067e+14	6.819623e+14	1.298938e+14	1.093166e+04	4.841528e+03	2.406629e+03	0	9.453144e-04
1.360000e+09	2.844907e+13	0.000000e+00	6.428571e-01	4.534564e+14	6.763803e+14	1.293589e+14	1.091327e+04	4.837546e+03	2.404650e+03	0	9.409915e-04
