#t		Qconv[W]	Ri[Rp]		R*[Rp]		Qc[W]		Qm[W]		Qr[W]		Tcmb[K]		Tl[K]		Tup[K]		RiFlag		Bs[T]
0.000000e+00	2.708203e+14	0.000000e+00	6.402880e-01	2.923816e+15	2.343499e+15	2.710490e+14	1.670267e+04	4.922185e+03	2.707750e+03	0	1.993796e-03
1.000000e+07	2.636378e+14	0.000000e+00	6.402880e-01	2.852263e+15	2.415416e+15	2.695472e+14	1.659576e+04	4.952631e+03	2.724499e+03	0	1.976012e-03
2.000000e+07	2.565976e+14	0.000000e+00	6.402880e-01	2.782137e+15	2.472535e+15	2.680566e+14	1.649144e+04	4.977867e+03	2.738381e+03	0	1.958264e-03
3.000000e+07	2.497160e+14	0.000000e+00	6.402880e-01	2.713593e+15	2.516070e+15	2.665772e+14	1.638966e+04	4.998486e+03	2.749724e+03	0	1.940599e-03
4.000000e+07	2.430049e+14	0.000000e+00	6.402880e-01	2.646748e+15	2.547353e+15	2.651088e+14	1.629037e+04	5.015040e+03	2.758830e+03	0	1.923056e-03
5.000000e+07	2.364732e+14	0.000000e+00	6.402880e-01	2.581684e+15	2.567750e+15	2.636513e+14	1.619350e+04	5.028034e+03	2.765979e+03	0	1.905670e-03
6.000000e+07	2.301265e+14	0.000000e+00	6.402880e-01	2.518457e+15	2.578604e+15	2.622047e+14	1.609899e+04	5.037924e+03	2.771419e+03	0	1.888466e-03
7.000000e+07	2.239681e+14	0.000000e+00	6.402880e-01	2.457097e+15	2.581188e+15	2.607689e+14	1.600678e+04	5.045119e+03	2.775377e+03	0	1.871468e-03
8.000000e+07	2.179991e+14	0.000000e+00	6.402880e-01	2.397613e+15	2.576685e+15	2.593438e+14	1.591680e+04	5.049981e+03	2.778052e+03	0	1.854692e-03
9.000000e+07	2.122190e+14	0.000000e+00	6.402880e-01	2.340000e+15	2.566168e+15	2.579293e+14	1.582897e+04	5.052830e+03	2.779619e+03	0	1.838153e-03
1.000000e+08	2.066259e+14	0.000000e+00	6.402880e-01	2.284237e+15	2.550601e+15	2.565253e+14	1.574324e+04	5.053948e+03	2.780234e+03	0	1.821861e-03
1.100000e+08	2.012168e+14	0.000000e+00	6.402880e-01	2.230294e+15	2.530836e+15	2.551316e+14	1.565954e+04	5.053579e+03	2.780031e+03	0	1.805823e-03
1.200000e+08	1.959879e+14	0.000000e+00	6.402880e-01	2.178134e+15	2.507621e+15	2.537484e+14	1.557780e+04	5.051939e+03	2.779129e+03	0	1.790043e-03
1.300000e+08	1.909349e+14	0.000000e+00	6.402880e-01	2.127712e+15	2.481605e+15	2.523753e+14	1.549795e+04	5.049213e+03	2.777630e+03	0	1.774525e-03
1.400000e+08	1.860527e+14	0.000000e+00	6.402880e-01	2.078980e+15	2.453350e+15	2.510125e+14	1.541994e+04	5.045564e+03	2.775622e+03	0	1.759269e-03
1.500000e+08	1.813363e+14	0.000000e+00	6.402880e-01	2.031888e+15	2.423337e+15	2.496597e+14	1.534370e+04	5.041131e+03	2.773183e+03	0	1.744276e-03
1.600000e+08	1.767803e+14	0.000000e+00	6.402880e-01	1.986381e+15	2.391976e+15	2.483168e+14	1.526917e+04	5.036035e+03	2.770380e+03	0	1.729544e-03
1.700000e+08	1.723792e+14	0.000000e+00	6.402880e-01	1.942406e+15	2.359618e+15	2.469839e+14	1.519631e+04	5.030380e+03	2.767269e+03	0	1.715071e-03
1.800000e+08	1.681275e+14	0.000000e+00	6.402880e-01	1.899908e+15	2.326558e+15	2.456609e+14	1.512504e+04	5.024258e+03	2.763901e+03	0	1.700852e-03
1.900000e+08	1.640197e+14	0.000000e+00	6.402880e-01	1.858832e+15	2.293042e+15	2.443475e+14	1.505532e+04	5.017746e+03	2.760319e+03	0	1.686886e-03
2.000000e+08	1.600504e+14	0.000000e+00	6.402880e-01	1.819126e+15	2.259281e+15	2.430439e+14	1.498710e+04	5.010911e+03	2.756559e+03	0	1.673167e-03
2.100000e+08	1.562141e+14	0.000000e+00	6.402880e-01	1.780737e+15	2.225446e+15	2.417498e+14	1.492032e+04	5.003812e+03	2.752654e+03	0	1.659691e-03
2.200000e+08	1.525059e+14	0.000000e+00	6.402880e-01	1.743614e+15	2.191683e+15	2.404652e+14	1.485495e+04	4.996498e+03	2.748630e+03	0	1.646452e-03
2.300000e+08	1.489205e+14	0.000000e+00	6.402880e-01	1.707706e+15	2.158108e+15	2.391901e+14	1.479093e+04	4.989012e+03	2.744512e+03	0	1.633447e-03
2.400000e+08	1.454530e+14	0.000000e+00	6.402880e-01	1.672965e+15	2.124821e+15	2.379243e+14	1.472822e+04	4.981392e+03	2.740320e+03	0	1.620670e-03
2.500000e+08	1.420989e+14	0.000000e+00	6.402880e-01	1.639345e+15	2.091899e+15	2.366678e+14	1.466677e+04	4.973670e+03	2.736072e+03	0	1.608115e-03
2.600000e+08	1.388534e+14	0.000000e+00	6.402880e-01	1.606801e+15	2.059407e+15	2.354204e+14	1.460655e+04	4.965872e+03	2.731783e+03	0	1.595778e-03
2.700000e+08	1.357123e+14	0.000000e+00	6.402880e-01	1.575290e+15	2.027393e+15	2.341822e+14	1.454752e+04	4.958023e+03	2.727465e+03	0	1.583653e-03
2.800000e+08	1.326712e+14	0.000000e+00	6.402880e-01	1.544770e+15	1.995899e+15	2.329531e+14	1.448964e+04	4.950143e+03	2.723130e+03	0	1.571735e-03
2.900000e+08	1.297263e+14	0.000000e+00	6.402880e-01	1.515202e+15	1.964953e+15	2.317329e+14	1.443288e+04	4.942249e+03	2.718787e+03	0	1.560018e-03
3.000000e+08	1.268735e+14	0.000000e+00	6.402880e-01	1.486547e+15	1.934578e+15	2.305216e+14	1.437719e+04	4.934357e+03	2.714446e+03	0	1.548498e-03
3.100000e+08	1.241092e+14	0.000000e+00	6.402880e-01	1.458768e+15	1.904790e+15	2.293191e+14	1.432255e+04	4.926478e+03	2.710112e+03	0	1.537169e-03
3.200000e+08	1.214299e+14	0.000000e+00	6.402880e-01	1.431832e+15	1.875600e+15	2.281254e+14	1.426893e+04	4.918624e+03	2.705791e+03	0	1.526027e-03
3.300000e+08	1.188322e+14	0.000000e+00	6.402880e-01	1.405704e+15	1.847012e+15	2.269403e+14	1.421629e+04	4.910805e+03	2.701490e+03	0	1.515067e-03
3.400000e+08	1.163129e+14	0.000000e+00	6.402880e-01	1.380353e+15	1.819029e+15	2.257639e+14	1.416461e+04	4.903028e+03	2.697211e+03	0	1.504283e-03
3.500000e+08	1.138688e+14	0.000000e+00	6.402880e-01	1.355749e+15	1.791650e+15	2.245960e+14	1.411385e+04	4.895299e+03	2.692960e+03	0	1.493672e-03
3.600000e+08	1.114970e+14	0.000000e+00	6.402880e-01	1.331861e+15	1.764871e+15	2.234365e+14	1.406399e+04	4.887625e+03	2.688738e+03	0	1.483228e-03
3.700000e+08	1.091947e+14	0.000000e+00	6.402880e-01	1.308664e+15	1.738686e+15	2.222855e+14	1.401500e+04	4.880010e+03	2.684549e+03	0	1.472948e-03
3.800000e+08	1.069593e+14	0.000000e+00	6.402880e-01	1.286129e+15	1.713088e+15	2.211428e+14	1.396687e+04	4.872458e+03	2.680394e+03	0	1.462827e-03
3.900000e+08	1.047880e+14	0.000000e+00	6.402880e-01	1.264232e+15	1.688068e+15	2.200083e+14	1.391955e+04	4.864972e+03	2.676276e+03	0	1.452862e-03
4.000000e+08	1.026786e+14	0.000000e+00	6.402880e-01	1.242948e+15	1.663615e+15	2.188820e+14	1.387304e+04	4.857555e+03	2.672196e+03	0	1.443047e-03
4.100000e+08	1.006287e+14	0.000000e+00	6.402880e-01	1.222255e+15	1.639720e+15	2.177639e+14	1.382731e+04	4.850208e+03	2.668155e+03	0	1.433379e-03
4.200000e+08	9.863593e+13	0.000000e+00	6.402880e-01	1.202130e+15	1.616370e+15	2.166538e+14	1.378233e+04	4.842935e+03	2.664153e+03	0	1.423854e-03
4.300000e+08	9.669830e+13	0.000000e+00	6.402880e-01	1.182553e+15	1.593555e+15	2.155517e+14	1.373810e+04	4.835734e+03	2.660192e+03	0	1.414468e-03
4.400000e+08	9.481372e+13	0.000000e+00	6.402880e-01	1.163503e+15	1.571261e+15	2.144576e+14	1.369457e+04	4.828609e+03	2.656273e+03	0	1.405219e-03
4.500000e+08	9.298025e+13	0.000000e+00	6.402880e-01	1.144961e+15	1.549476e+15	2.133713e+14	1.365175e+04	4.821559e+03	2.652394e+03	0	1.396102e-03
4.600000e+08	9.119603e+13	0.000000e+00	6.402880e-01	1.126908e+15	1.528188e+15	2.122928e+14	1.360960e+04	4.814585e+03	2.648558e+03	0	1.387114e-03
4.700000e+08	8.945928e+13	0.000000e+00	6.402880e-01	1.109328e+15	1.507385e+15	2.112220e+14	1.356812e+04	4.807686e+03	2.644763e+03	0	1.378253e-03
4.800000e+08	8.776830e+13	0.000000e+00	6.402880e-01	1.092203e+15	1.487053e+15	2.101590e+14	1.352728e+04	4.800863e+03	2.641009e+03	0	1.369513e-03
4.900000e+08	8.612148e+13	0.000000e+00	6.402880e-01	1.075517e+15	1.467180e+15	2.091035e+14	1.348706e+04	4.794116e+03	2.637297e+03	0	1.360894e-03
5.000000e+08	8.451724e+13	0.000000e+00	6.402880e-01	1.059255e+15	1.447754e+15	2.080555e+14	1.344746e+04	4.787444e+03	2.633627e+03	0	1.352390e-03
5.100000e+08	8.295411e+13	0.000000e+00	6.402880e-01	1.043403e+15	1.428764e+15	2.070151e+14	1.340845e+04	4.780846e+03	2.629998e+03	0	1.344001e-03
5.200000e+08	8.143067e+13	0.000000e+00	6.402880e-01	1.027945e+15	1.410196e+15	2.059821e+14	1.337003e+04	4.774323e+03	2.626409e+03	0	1.335723e-03
5.300000e+08	7.994554e+13	0.000000e+00	6.402880e-01	1.012870e+15	1.392040e+15	2.049564e+14	1.333217e+04	4.767874e+03	2.622861e+03	0	1.327553e-03
5.400000e+08	7.849743e+13	0.000000e+00	6.402880e-01	9.981626e+14	1.374284e+15	2.039381e+14	1.329486e+04	4.761497e+03	2.619353e+03	0	1.319488e-03
5.500000e+08	7.708508e+13	0.000000e+00	6.402880e-01	9.838120e+14	1.356917e+15	2.029270e+14	1.325809e+04	4.755192e+03	2.615885e+03	0	1.311527e-03
5.600000e+08	7.570730e+13	0.000000e+00	6.402880e-01	9.698060e+14	1.339928e+15	2.019231e+14	1.322185e+04	4.748959e+03	2.612456e+03	0	1.303666e-03
5.700000e+08	7.436293e+13	0.000000e+00	6.402880e-01	9.561332e+14	1.323306e+15	2.009263e+14	1.318613e+04	4.742796e+03	2.609066e+03	0	1.295903e-03
5.800000e+08	7.305089e+13	0.000000e+00	6.402880e-01	9.427827e+14	1.307042e+15	1.999366e+14	1.315090e+04	4.736702e+03	2.605714e+03	0	1.288236e-03
5.900000e+08	7.177011e+13	0.000000e+00	6.402880e-01	9.297441e+14	1.291125e+15	1.989539e+14	1.311616e+04	4.730677e+03	2.602399e+03	0	1.280663e-03
6.000000e+08	7.051958e+13	0.000000e+00	6.402880e-01	9.170073e+14	1.275545e+15	1.979782e+14	1.308190e+04	4.724719e+03	2.599122e+03	0	1.273181e-03
6.100000e+08	6.929832e+13	0.000000e+00	6.402880e-01	9.045627e+14	1.260293e+15	1.970093e+14	1.304811e+04	4.718828e+03	2.595881e+03	0	1.265789e-03
6.200000e+08	6.810541e+13	0.000000e+00	6.402880e-01	8.924012e+14	1.245360e+15	1.960473e+14	1.301478e+04	4.713003e+03	2.592676e+03	0	1.258484e-03
6.300000e+08	6.693995e+13	0.000000e+00	6.402880e-01	8.805138e+14	1.230736e+15	1.950921e+14	1.298189e+04	4.707242e+03	2.589507e+03	0	1.251264e-03
6.400000e+08	6.580108e+13	0.000000e+00	6.402880e-01	8.688919e+14	1.216414e+15	1.941437e+14	1.294944e+04	4.701545e+03	2.586373e+03	0	1.244127e-03
6.500000e+08	6.468798e+13	0.000000e+00	6.402880e-01	8.575275e+14	1.202385e+15	1.932019e+14	1.291741e+04	4.695910e+03	2.583274e+03	0	1.237072e-03
6.600000e+08	6.359984e+13	0.000000e+00	6.402880e-01	8.464126e+14	1.188640e+15	1.922667e+14	1.288580e+04	4.690338e+03	2.580208e+03	0	1.230096e-03
6.700000e+08	6.253590e+13	0.000000e+00	6.402880e-01	8.355398e+14	1.175172e+15	1.913382e+14	1.285460e+04	4.684825e+03	2.577176e+03	0	1.223198e-03
6.800000e+08	6.149544e+13	0.000000e+00	6.402880e-01	8.249016e+14	1.161974e+15	1.904161e+14	1.282380e+04	4.679373e+03	2.574176e+03	0	1.216376e-03
6.900000e+08	6.047774e+13	0.000000e+00	6.402880e-01	8.144911e+14	1.149038e+15	1.895005e+14	1.279339e+04	4.673979e+03	2.571209e+03	0	1.209629e-03
7.000000e+08	5.948212e+13	0.000000e+00	6.402880e-01	8.043015e+14	1.136356e+15	1.885913e+14	1.276336e+04	4.668643e+03	2.568274e+03	0	1.202954e-03
7.100000e+08	5.850793e+13	0.000000e+00	6.402880e-01	7.943264e+14	1.123922e+15	1.876885e+14	1.273370e+04	4.663364e+03	2.565370e+03	0	1.196351e-03
7.200000e+08	5.755454e+13	0.000000e+00	6.402880e-01	7.845595e+14	1.111729e+15	1.867920e+14	1.270442e+04	4.658141e+03	2.562496e+03	0	1.189817e-03
7.300000e+08	5.662134e+13	0.000000e+00	6.402880e-01	7.749948e+14	1.099771e+15	1.859018e+14	1.267549e+04	4.652972e+03	2.559653e+03	0	1.183351e-03
7.400000e+08	5.570775e+13	0.000000e+00	6.402880e-01	7.656265e+14	1.088042e+15	1.850178e+14	1.264691e+04	4.647858e+03	2.556839e+03	0	1.176952e-03
7.500000e+08	5.481320e+13	0.000000e+00	6.402880e-01	7.564490e+14	1.076534e+15	1.841400e+14	1.261867e+04	4.642797e+03	2.554055e+03	0	1.170619e-03
7.600000e+08	5.393716e+13	0.000000e+00	6.402880e-01	7.474570e+14	1.065244e+15	1.832682e+14	1.259078e+04	4.637788e+03	2.551300e+03	0	1.164349e-03
7.700000e+08	5.307909e+13	0.000000e+00	6.402880e-01	7.386451e+14	1.054164e+15	1.824025e+14	1.256321e+04	4.632830e+03	2.548573e+03	0	1.158141e-03
7.800000e+08	5.223850e+13	0.000000e+00	6.402880e-01	7.300085e+14	1.043289e+15	1.815429e+14	1.253596e+04	4.627923e+03	2.545873e+03	0	1.151995e-03
7.900000e+08	5.141489e+13	0.000000e+00	6.402880e-01	7.215422e+14	1.032614e+15	1.806892e+14	1.250904e+04	4.623066e+03	2.543201e+03	0	1.145909e-03
8.000000e+08	5.060781e+13	0.000000e+00	6.402880e-01	7.132416e+14	1.022135e+15	1.798414e+14	1.248242e+04	4.618257e+03	2.540556e+03	0	1.139881e-03
8.100000e+08	4.981678e+13	0.000000e+00	6.402880e-01	7.051023e+14	1.011845e+15	1.789996e+14	1.245611e+04	4.613496e+03	2.537937e+03	0	1.133911e-03
8.200000e+08	4.904139e+13	0.000000e+00	6.402880e-01	6.971198e+14	1.001740e+15	1.781635e+14	1.243010e+04	4.608783e+03	2.535344e+03	0	1.127997e-03
8.300000e+08	4.828119e+13	0.000000e+00	6.402880e-01	6.892899e+14	9.918149e+14	1.773332e+14	1.240438e+04	4.604116e+03	2.532777e+03	0	1.122138e-03
8.400000e+08	4.753579e+13	0.000000e+00	6.402880e-01	6.816087e+14	9.820659e+14	1.765087e+14	1.237896e+04	4.599495e+03	2.530234e+03	0	1.116333e-03
8.500000e+08	4.680480e+13	0.000000e+00	6.402880e-01	6.740721e+14	9.724883e+14	1.756898e+14	1.235381e+04	4.594918e+03	2.527717e+03	0	1.110582e-03
8.600000e+08	4.608782e+13	0.000000e+00	6.402880e-01	6.666764e+14	9.630778e+14	1.748766e+14	1.232894e+04	4.590386e+03	2.525224e+03	0	1.104882e-03
8.700000e+08	4.538450e+13	0.000000e+00	6.402880e-01	6.594180e+14	9.538303e+14	1.740690e+14	1.230434e+04	4.585897e+03	2.522754e+03	0	1.099232e-03
8.800000e+08	4.469447e+13	0.000000e+00	6.402880e-01	6.522932e+14	9.447417e+14	1.732669e+14	1.228001e+04	4.581451e+03	2.520308e+03	0	1.093633e-03
8.900000e+08	4.401739e+13	0.000000e+00	6.402880e-01	6.452987e+14	9.358083e+14	1.724704e+14	1.225594e+04	4.577047e+03	2.517886e+03	0	1.088082e-03
9.000000e+08	4.335293e+13	0.000000e+00	6.402880e-01	6.384311e+14	9.270262e+14	1.716793e+14	1.223213e+04	4.572685e+03	2.515486e+03	0	1.082580e-03
9.100000e+08	4.270077e+13	0.000000e+00	6.402880e-01	6.316873e+14	9.183917e+14	1.708936e+14	1.220857e+04	4.568363e+03	2.513108e+03	0	1.077124e-03
9.200000e+08	4.206059e+13	0.000000e+00	6.402880e-01	6.250641e+14	9.099015e+14	1.701134e+14	1.218525e+04	4.564081e+03	2.510753e+03	0	1.071714e-03
9.300000e+08	4.143209e+13	0.000000e+00	6.402880e-01	6.185585e+14	9.015519e+14	1.693384e+14	1.216218e+04	4.559838e+03	2.508419e+03	0	1.066349e-03
9.400000e+08	4.081499e+13	0.000000e+00	6.402880e-01	6.121677e+14	8.933398e+14	1.685688e+14	1.213936e+04	4.555634e+03	2.506106e+03	0	1.061028e-03
9.500000e+08	4.020899e+13	0.000000e+00	6.402880e-01	6.058887e+14	8.852618e+14	1.678044e+14	1.211676e+04	4.551468e+03	2.503814e+03	0	1.055751e-03
9.600000e+08	3.961383e+13	0.000000e+00	6.402880e-01	5.997189e+14	8.773149e+14	1.670452e+14	1.209440e+04	4.547340e+03	2.501543e+03	0	1.050516e-03
9.700000e+08	3.902923e+13	0.000000e+00	6.402880e-01	5.936556e+14	8.694960e+14	1.662912e+14	1.207226e+04	4.543249e+03	2.499293e+03	0	1.045323e-03
9.800000e+08	3.845494e+13	0.000000e+00	6.402880e-01	5.876963e+14	8.618022e+14	1.655423e+14	1.205035e+04	4.539194e+03	2.497062e+03	0	1.040170e-03
9.900000e+08	3.789072e+13	0.000000e+00	6.402880e-01	5.818384e+14	8.542306e+14	1.647985e+14	1.202866e+04	4.535175e+03	2.494851e+03	0	1.035058e-03
1.000000e+09	3.733631e+13	0.000000e+00	6.402880e-01	5.760796e+14	8.467784e+14	1.640598e+14	1.200718e+04	4.531191e+03	2.492660e+03	0	1.029985e-03
1.010000e+09	3.679149e+13	0.000000e+00	6.402880e-01	5.704176e+14	8.394429e+14	1.633261e+14	1.198591e+04	4.527242e+03	2.490487e+03	0	1.024950e-03
1.020000e+09	3.625603e+13	0.000000e+00	6.402880e-01	5.648499e+14	8.322216e+14	1.625973e+14	1.196485e+04	4.523327e+03	2.488333e+03	0	1.019954e-03
1.030000e+09	3.572971e+13	0.000000e+00	6.402880e-01	5.593746e+14	8.251118e+14	1.618735e+14	1.194400e+04	4.519445e+03	2.486198e+03	0	1.014994e-03
1.040000e+09	3.521231e+13	0.000000e+00	6.402880e-01	5.539894e+14	8.181111e+14	1.611545e+14	1.192335e+04	4.515597e+03	2.484081e+03	0	1.010071e-03
1.050000e+09	3.470363e+13	0.000000e+00	6.402880e-01	5.486922e+14	8.112171e+14	1.604405e+14	1.190289e+04	4.511781e+03	2.481982e+03	0	1.005183e-03
1.060000e+09	3.420346e+13	0.000000e+00	6.402880e-01	5.434810e+14	8.044275e+14	1.597312e+14	1.188264e+04	4.507997e+03	2.479901e+03	0	1.000331e-03
1.070000e+09	3.371161e+13	0.000000e+00	6.402880e-01	5.383540e+14	7.977400e+14	1.590267e+14	1.186257e+04	4.504245e+03	2.477836e+03	0	9.955127e-04
1.080000e+09	3.322789e+13	0.000000e+00	6.402880e-01	5.333092e+14	7.911523e+14	1.583270e+14	1.184269e+04	4.500524e+03	2.475790e+03	0	9.907283e-04
1.090000e+09	3.275212e+13	0.000000e+00	6.402880e-01	5.283447e+14	7.846624e+14	1.576319e+14	1.182300e+04	4.496834e+03	2.473760e+03	0	9.859770e-04
1.100000e+09	3.228411e+13	0.000000e+00	6.402880e-01	5.234588e+14	7.782682e+14	1.569416e+14	1.180349e+04	4.493174e+03	2.471746e+03	0	9.812581e-04
1.110000e+09	3.182370e+13	0.000000e+00	6.402880e-01	5.186497e+14	7.719676e+14	1.562558e+14	1.178416e+04	4.489544e+03	2.469749e+03	0	9.765711e-04
1.120000e+09	3.137071e+13	0.000000e+00	6.402880e-01	5.139157e+14	7.657586e+14	1.555747e+14	1.176501e+04	4.485944e+03	2.467768e+03	0	9.719153e-04
1.130000e+09	3.092498e+13	0.000000e+00	6.402880e-01	5.092553e+14	7.596394e+14	1.548981e+14	1.174603e+04	4.482372e+03	2.465804e+03	0	9.672902e-04
1.140000e+09	3.048635e+13	0.000000e+00	6.402880e-01	5.046668e+14	7.536081e+14	1.542260e+14	1.172722e+04	4.478828e+03	2.463854e+03	0	9.626952e-04
1.150000e+09	3.005466e+13	0.000000e+00	6.402880e-01	5.001486e+14	7.476628e+14	1.535584e+14	1.170858e+04	4.475313e+03	2.461921e+03	0	9.581297e-04
1.160000e+09	2.962977e+13	0.000000e+00	6.402880e-01	4.956993e+14	7.418018e+14	1.528953e+14	1.169011e+04	4.471826e+03	2.460002e+03	0	9.535931e-04
1.170000e+09	2.921153e+13	0.000000e+00	6.402880e-01	4.913173e+14	7.360234e+14	1.522366e+14	1.167180e+04	4.468366e+03	2.458099e+03	0	9.490850e-04
1.180000e+09	2.879979e+13	0.000000e+00	6.402880e-01	4.870013e+14	7.303259e+14	1.515823e+14	1.165366e+04	4.464932e+03	2.456210e+03	0	9.446047e-04
1.190000e+09	2.839442e+13	0.000000e+00	6.402880e-01	4.827499e+14	7.247076e+14	1.509323e+14	1.163567e+04	4.461526e+03	2.454336e+03	0	9.401518e-04
1.200000e+09	2.799528e+13	0.000000e+00	6.402880e-01	4.785617e+14	7.191670e+14	1.502866e+14	1.161784e+04	4.458145e+03	2.452476e+03	0	9.357258e-04
1.210000e+09	2.760224e+13	0.000000e+00	6.402880e-01	4.744353e+14	7.137026e+14	1.496452e+14	1.160016e+04	4.454790e+03	2.450631e+03	0	9.313261e-04
1.220000e+09	2.721517e+13	0.000000e+00	6.402880e-01	4.703696e+14	7.083127e+14	1.490081e+14	1.158264e+04	4.451461e+03	2.448799e+03	0	9.269522e-04
1.230000e+09	2.683395e+13	0.000000e+00	6.402880e-01	4.663633e+14	7.029960e+14	1.483752e+14	1.156526e+04	4.448157e+03	2.446982e+03	0	9.226037e-04
1.240000e+09	2.645845e+13	0.000000e+00	6.402880e-01	4.624151e+14	6.977510e+14	1.477464e+14	1.154803e+04	4.444878e+03	2.445178e+03	0	9.182800e-04
1.250000e+09	2.608857e+13	0.000000e+00	6.402880e-01	4.585239e+14	6.925763e+14	1.471219e+14	1.153095e+04	4.441623e+03	2.443387e+03	0	9.139808e-04
1.260000e+09	2.572417e+13	0.000000e+00	6.402880e-01	4.546886e+14	6.874705e+14	1.465014e+14	1.151401e+04	4.438392e+03	2.441610e+03	0	9.097055e-04
1.270000e+09	2.536516e+13	0.000000e+00	6.402880e-01	4.509079e+14	6.824324e+14	1.458850e+14	1.149722e+04	4.435185e+03	2.439845e+03	0	9.054537e-04
1.280000e+09	2.501143e+13	0.000000e+00	6.402880e-01	4.471809e+14	6.774607e+14	1.452727e+14	1.148056e+04	4.432001e+03	2.438094e+03	0	9.012248e-04
1.290000e+09	2.466286e+13	0.000000e+00	6.402880e-01	4.435064e+14	6.725540e+14	1.446644e+14	1.146404e+04	4.428840e+03	2.436355e+03	0	8.970186e-04
1.300000e+09	2.431935e+13	0.000000e+00	6.402880e-01	4.398834e+14	6.677111e+14	1.440601e+14	1.144765e+04	4.425703e+03	2.434629e+03	0	8.928345e-04
1.310000e+09	2.398080e+13	0.000000e+00	6.402880e-01	4.363109e+14	6.629309e+14	1.434598e+14	1.143140e+04	4.422588e+03	2.432916e+03	0	8.886722e-04
1.320000e+09	2.364712e+13	0.000000e+00	6.402880e-01	4.327879e+14	6.582122e+14	1.428633e+14	1.141528e+04	4.419495e+03	2.431214e+03	0	8.845311e-04
1.330000e+09	2.331821e+13	0.000000e+00	6.402880e-01	4.293135e+14	6.535538e+14	1.422708e+14	1.139929e+04	4.416424e+03	2.429525e+03	0	8.804109e-04
1.340000e+09	2.299397e+13	0.000000e+00	6.402880e-01	4.258867e+14	6.489546e+14	1.416822e+14	1.138343e+04	4.413374e+03	2.427847e+03	0	8.763111e-04
1.350000e+09	2.267432e+13	0.000000e+00	6.402880e-01	4.225066e+14	6.444136e+14	1.410974e+14	1.136769e+04	4.410346e+03	2.426182e+03	0	8.722315e-04
1.360000e+09	2.235916e+13	0.000000e+00	6.402880e-01	4.191723e+14	6.399296e+14	1.405164e+14	1.135208e+04	4.407340e+03	2.424528e+03	0	8.681714e-04
