#t		Qconv[W]	Ri[Rp]		R*[Rp]		Qc[W]		Qm[W]		Qr[W]		Tcmb[K]		Tl[K]		Tup[K]		RiFlag		Bs[T]
0.000000e+00	2.916509e+14	0.000000e+00	6.402879e-01	3.093475e+15	2.340877e+15	2.849668e+14	1.723507e+04	5.014766e+03	2.734164e+03	0	2.040483e-03
1.000000e+07	2.843631e+14	0.000000e+00	6.402879e-01	3.022667e+15	2.428239e+15	2.833879e+14	1.712932e+04	5.050300e+03	2.753538e+03	0	2.023344e-03
2.000000e+07	2.771813e+14	0.000000e+00	6.402879e-01	2.952906e+15	2.500528e+15	2.818208e+14	1.702596e+04	5.080327e+03	2.769910e+03	0	2.006165e-03
3.000000e+07	2.701257e+14	0.000000e+00	6.402879e-01	2.884382e+15	2.558633e+15	2.802654e+14	1.692497e+04	5.105416e+03	2.783589e+03	0	1.988996e-03
4.000000e+07	2.632128e+14	0.000000e+00	6.402879e-01	2.817250e+15	2.603649e+15	2.787216e+14	1.682630e+04	5.126108e+03	2.794870e+03	0	1.971882e-03
5.000000e+07	2.564553e+14	0.000000e+00	6.402879e-01	2.751628e+15	2.636788e+15	2.771893e+14	1.672991e+04	5.142907e+03	2.804029e+03	0	1.954861e-03
6.000000e+07	2.498628e+14	0.000000e+00	6.402879e-01	2.687605e+15	2.659301e+15	2.756684e+14	1.663575e+04	5.156276e+03	2.811319e+03	0	1.937964e-03
7.000000e+07	2.434418e+14	0.000000e+00	6.402879e-01	2.625243e+15	2.672427e+15	2.741589e+14	1.654376e+04	5.166637e+03	2.816967e+03	0	1.921220e-03
8.000000e+07	2.371968e+14	0.000000e+00	6.402879e-01	2.564582e+15	2.677350e+15	2.726606e+14	1.645389e+04	5.174369e+03	2.821183e+03	0	1.904649e-03
9.000000e+07	2.311299e+14	0.000000e+00	6.402879e-01	2.505641e+15	2.675178e+15	2.711734e+14	1.636607e+04	5.179811e+03	2.824150e+03	0	1.888270e-03
1.000000e+08	2.252418e+14	0.000000e+00	6.402879e-01	2.448424e+15	2.666929e+15	2.696973e+14	1.628026e+04	5.183265e+03	2.826033e+03	0	1.872097e-03
1.100000e+08	2.195315e+14	0.000000e+00	6.402879e-01	2.392924e+15	2.653521e+15	2.682322e+14	1.619640e+04	5.184996e+03	2.826978e+03	0	1.856141e-03
1.200000e+08	2.139972e+14	0.000000e+00	6.402879e-01	2.339120e+15	2.635776e+15	2.667778e+14	1.611441e+04	5.185240e+03	2.827111e+03	0	1.840410e-03
1.300000e+08	2.086361e+14	0.000000e+00	6.402879e-01	2.286984e+15	2.614419e+15	2.653343e+14	1.603426e+04	5.184202e+03	2.826545e+03	0	1.824912e-03
1.400000e+08	2.034448e+14	0.000000e+00	6.402879e-01	2.236485e+15	2.590088e+15	2.639015e+14	1.595589e+04	5.182062e+03	2.825377e+03	0	1.809648e-03
1.500000e+08	1.984191e+14	0.000000e+00	6.402879e-01	2.187581e+15	2.563337e+15	2.624792e+14	1.587923e+04	5.178976e+03	2.823695e+03	0	1.794623e-03
1.600000e+08	1.935548e+14	0.000000e+00	6.402879e-01	2.140232e+15	2.534647e+15	2.610674e+14	1.580423e+04	5.175082e+03	2.821572e+03	0	1.779836e-03
1.700000e+08	1.888473e+14	0.000000e+00	6.402879e-01	2.094392e+15	2.504433e+15	2.596661e+14	1.573085e+04	5.170498e+03	2.819073e+03	0	1.765288e-03
1.800000e+08	1.842916e+14	0.000000e+00	6.402879e-01	2.050015e+15	2.473048e+15	2.582751e+14	1.565902e+04	5.165329e+03	2.816254e+03	0	1.750977e-03
1.900000e+08	1.798829e+14	0.000000e+00	6.402879e-01	2.007053e+15	2.440797e+15	2.568943e+14	1.558871e+04	5.159663e+03	2.813165e+03	0	1.736902e-03
2.000000e+08	1.756162e+14	0.000000e+00	6.402879e-01	1.965460e+15	2.407935e+15	2.555237e+14	1.551986e+04	5.153580e+03	2.809849e+03	0	1.723059e-03
2.100000e+08	1.714866e+14	0.000000e+00	6.402879e-01	1.925188e+15	2.374681e+15	2.541632e+14	1.545243e+04	5.147146e+03	2.806341e+03	0	1.709446e-03
2.200000e+08	1.674893e+14	0.000000e+00	6.402879e-01	1.886189e+15	2.341219e+15	2.528126e+14	1.538637e+04	5.140422e+03	2.802674e+03	0	1.696059e-03
2.300000e+08	1.636194e+14	0.000000e+00	6.402879e-01	1.848417e+15	2.307703e+15	2.514720e+14	1.532164e+04	5.133456e+03	2.798877e+03	0	1.682894e-03
2.400000e+08	1.598721e+14	0.000000e+00	6.402879e-01	1.811828e+15	2.274261e+15	2.501412e+14	1.525820e+04	5.126294e+03	2.794972e+03	0	1.669948e-03
2.500000e+08	1.562430e+14	0.000000e+00	6.402879e-01	1.776377e+15	2.241001e+15	2.488202e+14	1.519601e+04	5.118974e+03	2.790981e+03	0	1.657215e-03
2.600000e+08	1.527275e+14	0.000000e+00	6.402879e-01	1.742022e+15	2.208010e+15	2.475088e+14	1.513502e+04	5.111529e+03	2.786922e+03	0	1.644691e-03
2.700000e+08	1.493214e+14	0.000000e+00	6.402879e-01	1.708721e+15	2.175361e+15	2.462070e+14	1.507521e+04	5.103988e+03	2.782810e+03	0	1.632373e-03
2.800000e+08	1.460205e+14	0.000000e+00	6.402879e-01	1.676434e+15	2.143112e+15	2.449147e+14	1.501653e+04	5.096375e+03	2.778659e+03	0	1.620254e-03
2.900000e+08	1.428207e+14	0.000000e+00	6.402879e-01	1.645122e+15	2.111310e+15	2.436319e+14	1.495896e+04	5.088713e+03	2.774481e+03	0	1.608332e-03
3.000000e+08	1.397181e+14	0.000000e+00	6.402879e-01	1.614749e+15	2.079994e+15	2.423584e+14	1.490245e+04	5.081019e+03	2.770286e+03	0	1.596600e-03
3.100000e+08	1.367092e+14	0.000000e+00	6.402879e-01	1.585277e+15	2.049191e+15	2.410942e+14	1.484698e+04	5.073309e+03	2.766083e+03	0	1.585056e-03
3.200000e+08	1.337901e+14	0.000000e+00	6.402879e-01	1.556675e+15	2.018923e+15	2.398391e+14	1.479252e+04	5.065598e+03	2.761879e+03	0	1.573693e-03
3.300000e+08	1.309577e+14	0.000000e+00	6.402879e-01	1.528907e+15	1.989207e+15	2.385932e+14	1.473904e+04	5.057896e+03	2.757680e+03	0	1.562508e-03
3.400000e+08	1.282084e+14	0.000000e+00	6.402879e-01	1.501943e+15	1.960053e+15	2.373564e+14	1.468650e+04	5.050216e+03	2.753492e+03	0	1.551496e-03
3.500000e+08	1.255392e+14	0.000000e+00	6.402879e-01	1.475752e+15	1.931467e+15	2.361285e+14	1.463488e+04	5.042564e+03	2.749320e+03	0	1.540654e-03
3.600000e+08	1.229471e+14	0.000000e+00	6.402879e-01	1.450305e+15	1.903454e+15	2.349095e+14	1.458416e+04	5.034949e+03	2.745168e+03	0	1.529976e-03
3.700000e+08	1.204291e+14	0.000000e+00	6.402879e-01	1.425575e+15	1.876012e+15	2.336994e+14	1.453431e+04	5.027378e+03	2.741040e+03	0	1.519460e-03
3.800000e+08	1.179826e+14	0.000000e+00	6.402879e-01	1.401534e+15	1.849141e+15	2.324980e+14	1.448530e+04	5.019854e+03	2.736938e+03	0	1.509100e-03
3.900000e+08	1.156047e+14	0.000000e+00	6.402879e-01	1.378157e+15	1.822835e+15	2.313053e+14	1.443712e+04	5.012384e+03	2.732865e+03	0	1.498892e-03
4.000000e+08	1.132930e+14	0.000000e+00	6.402879e-01	1.355421e+15	1.797088e+15	2.301212e+14	1.438974e+04	5.004970e+03	2.728823e+03	0	1.488834e-03
4.100000e+08	1.110451e+14	0.000000e+00	6.402879e-01	1.333301e+15	1.771894e+15	2.289457e+14	1.434313e+04	4.997617e+03	2.724814e+03	0	1.478921e-03
4.200000e+08	1.088586e+14	0.000000e+00	6.402879e-01	1.311775e+15	1.747244e+15	2.277786e+14	1.429728e+04	4.990326e+03	2.720839e+03	0	1.469150e-03
4.300000e+08	1.067313e+14	0.000000e+00	6.402879e-01	1.290821e+15	1.723129e+15	2.266199e+14	1.425216e+04	4.983101e+03	2.716899e+03	0	1.459517e-03
4.400000e+08	1.046611e+14	0.000000e+00	6.402879e-01	1.270420e+15	1.699539e+15	2.254696e+14	1.420777e+04	4.975941e+03	2.712996e+03	0	1.450019e-03
4.500000e+08	1.026459e+14	0.000000e+00	6.402879e-01	1.250552e+15	1.676462e+15	2.243275e+14	1.416407e+04	4.968850e+03	2.709130e+03	0	1.440652e-03
4.600000e+08	1.006838e+14	0.000000e+00	6.402879e-01	1.231197e+15	1.653890e+15	2.231936e+14	1.412105e+04	4.961828e+03	2.705301e+03	0	1.431414e-03
4.700000e+08	9.877288e+13	0.000000e+00	6.402879e-01	1.212339e+15	1.631810e+15	2.220679e+14	1.407869e+04	4.954875e+03	2.701510e+03	0	1.422300e-03
4.800000e+08	9.691139e+13	0.000000e+00	6.402879e-01	1.193959e+15	1.610211e+15	2.209502e+14	1.403698e+04	4.947993e+03	2.697758e+03	0	1.413308e-03
4.900000e+08	9.509760e+13	0.000000e+00	6.402879e-01	1.176041e+15	1.589082e+15	2.198405e+14	1.399590e+04	4.941181e+03	2.694044e+03	0	1.404436e-03
5.000000e+08	9.332987e+13	0.000000e+00	6.402879e-01	1.158570e+15	1.568412e+15	2.187388e+14	1.395543e+04	4.934440e+03	2.690368e+03	0	1.395679e-03
5.100000e+08	9.160663e+13	0.000000e+00	6.402879e-01	1.141530e+15	1.548189e+15	2.176449e+14	1.391556e+04	4.927770e+03	2.686732e+03	0	1.387036e-03
5.200000e+08	8.992638e+13	0.000000e+00	6.402879e-01	1.124907e+15	1.528403e+15	2.165589e+14	1.387627e+04	4.921170e+03	2.683133e+03	0	1.378503e-03
5.300000e+08	8.828765e+13	0.000000e+00	6.402879e-01	1.108687e+15	1.509041e+15	2.154805e+14	1.383756e+04	4.914640e+03	2.679573e+03	0	1.370078e-03
5.400000e+08	8.668908e+13	0.000000e+00	6.402879e-01	1.092856e+15	1.490093e+15	2.144099e+14	1.379939e+04	4.908180e+03	2.676051e+03	0	1.361759e-03
5.500000e+08	8.512933e+13	0.000000e+00	6.402879e-01	1.077403e+15	1.471548e+15	2.133469e+14	1.376178e+04	4.901789e+03	2.672566e+03	0	1.353542e-03
5.600000e+08	8.360713e+13	0.000000e+00	6.402879e-01	1.062313e+15	1.453396e+15	2.122914e+14	1.372469e+04	4.895466e+03	2.669119e+03	0	1.345426e-03
5.700000e+08	8.212126e+13	0.000000e+00	6.402879e-01	1.047577e+15	1.435627e+15	2.112435e+14	1.368811e+04	4.889212e+03	2.665709e+03	0	1.337408e-03
5.800000e+08	8.067053e+13	0.000000e+00	6.402879e-01	1.033181e+15	1.418229e+15	2.102029e+14	1.365205e+04	4.883025e+03	2.662336e+03	0	1.329486e-03
5.900000e+08	7.925383e+13	0.000000e+00	6.402879e-01	1.019117e+15	1.401194e+15	2.091698e+14	1.361647e+04	4.876905e+03	2.658999e+03	0	1.321657e-03
6.000000e+08	7.787007e+13	0.000000e+00	6.402879e-01	1.005372e+15	1.384511e+15	2.081439e+14	1.358138e+04	4.870851e+03	2.655698e+03	0	1.313920e-03
6.100000e+08	7.651822e+13	0.000000e+00	6.402879e-01	9.919378e+14	1.368171e+15	2.071254e+14	1.354676e+04	4.864862e+03	2.652433e+03	0	1.306272e-03
6.200000e+08	7.519726e+13	0.000000e+00	6.402879e-01	9.788040e+14	1.352165e+15	2.061140e+14	1.351260e+04	4.858936e+03	2.649202e+03	0	1.298711e-03
6.300000e+08	7.390626e+13	0.000000e+00	6.402879e-01	9.659614e+14	1.336484e+15	2.051097e+14	1.347889e+04	4.853075e+03	2.646006e+03	0	1.291236e-03
6.400000e+08	7.264428e+13	0.000000e+00	6.402879e-01	9.534012e+14	1.321120e+15	2.041126e+14	1.344562e+04	4.847276e+03	2.642844e+03	0	1.283845e-03
6.500000e+08	7.141043e+13	0.000000e+00	6.402879e-01	9.411148e+14	1.306062e+15	2.031224e+14	1.341278e+04	4.841538e+03	2.639716e+03	0	1.276534e-03
6.600000e+08	7.020386e+13	0.000000e+00	6.402879e-01	9.290940e+14	1.291305e+15	2.021393e+14	1.338036e+04	4.835861e+03	2.636621e+03	0	1.269304e-03
6.700000e+08	6.902376e+13	0.000000e+00	6.402879e-01	9.173308e+14	1.276839e+15	2.011630e+14	1.334836e+04	4.830245e+03	2.633559e+03	0	1.262152e-03
6.800000e+08	6.786932e+13	0.000000e+00	6.402879e-01	9.058177e+14	1.262657e+15	2.001936e+14	1.331676e+04	4.824687e+03	2.630528e+03	0	1.255075e-03
6.900000e+08	6.673980e+13	0.000000e+00	6.402879e-01	8.945473e+14	1.248751e+15	1.992310e+14	1.328555e+04	4.819187e+03	2.627530e+03	0	1.248074e-03
7.000000e+08	6.563446e+13	0.000000e+00	6.402879e-01	8.835125e+14	1.235114e+15	1.982751e+14	1.325473e+04	4.813745e+03	2.624563e+03	0	1.241145e-03
7.100000e+08	6.455259e+13	0.000000e+00	6.402879e-01	8.727065e+14	1.221739e+15	1.973260e+14	1.322429e+04	4.808359e+03	2.621626e+03	0	1.234288e-03
7.200000e+08	6.349351e+13	0.000000e+00	6.402879e-01	8.621228e+14	1.208618e+15	1.963834e+14	1.319422e+04	4.803028e+03	2.618720e+03	0	1.227501e-03
7.300000e+08	6.245657e+13	0.000000e+00	6.402879e-01	8.517550e+14	1.195747e+15	1.954475e+14	1.316451e+04	4.797752e+03	2.615843e+03	0	1.220782e-03
7.400000e+08	6.144113e+13	0.000000e+00	6.402879e-01	8.415971e+14	1.183117e+15	1.945181e+14	1.313516e+04	4.792530e+03	2.612996e+03	0	1.214130e-03
7.500000e+08	6.044660e+13	0.000000e+00	6.402879e-01	8.316431e+14	1.170722e+15	1.935952e+14	1.310616e+04	4.787361e+03	2.610178e+03	0	1.207543e-03
7.600000e+08	5.947238e+13	0.000000e+00	6.402879e-01	8.218874e+14	1.158558e+15	1.926787e+14	1.307750e+04	4.782244e+03	2.607388e+03	0	1.201020e-03
7.700000e+08	5.851790e+13	0.000000e+00	6.402879e-01	8.123245e+14	1.146617e+15	1.917686e+14	1.304917e+04	4.777178e+03	2.604626e+03	0	1.194561e-03
7.800000e+08	5.758262e+13	0.000000e+00	6.402879e-01	8.029492e+14	1.134893e+15	1.908648e+14	1.302117e+04	4.772162e+03	2.601891e+03	0	1.188162e-03
7.900000e+08	5.666601e+13	0.000000e+00	6.402879e-01	7.937562e+14	1.123383e+15	1.899672e+14	1.299350e+04	4.767197e+03	2.599184e+03	0	1.181824e-03
8.000000e+08	5.576757e+13	0.000000e+00	6.402879e-01	7.847408e+14	1.112079e+15	1.890760e+14	1.296614e+04	4.762280e+03	2.596503e+03	0	1.175545e-03
8.100000e+08	5.488679e+13	0.000000e+00	6.402879e-01	7.758981e+14	1.100977e+15	1.881908e+14	1.293909e+04	4.757411e+03	2.593848e+03	0	1.169323e-03
8.200000e+08	5.402321e+13	0.000000e+00	6.402879e-01	7.672236e+14	1.090072e+15	1.873118e+14	1.291234e+04	4.752589e+03	2.591219e+03	0	1.163158e-03
8.300000e+08	5.317637e+13	0.000000e+00	6.402879e-01	7.587128e+14	1.079359e+15	1.864389e+14	1.288589e+04	4.747814e+03	2.588616e+03	0	1.157048e-03
8.400000e+08	5.234582e+13	0.000000e+00	6.402879e-01	7.503614e+14	1.068833e+15	1.855720e+14	1.285973e+04	4.743085e+03	2.586037e+03	0	1.150993e-03
8.500000e+08	5.153114e+13	0.000000e+00	6.402879e-01	7.421652e+14	1.058490e+15	1.847111e+14	1.283386e+04	4.738401e+03	2.583484e+03	0	1.144990e-03
8.600000e+08	5.073190e+13	0.000000e+00	6.402879e-01	7.341204e+14	1.048325e+15	1.838562e+14	1.280827e+04	4.733761e+03	2.580954e+03	0	1.139040e-03
8.700000e+08	4.994772e+13	0.000000e+00	6.402879e-01	7.262229e+14	1.038334e+15	1.830071e+14	1.278296e+04	4.729165e+03	2.578448e+03	0	1.133141e-03
8.800000e+08	4.917819e+13	0.000000e+00	6.402879e-01	7.184690e+14	1.028512e+15	1.821638e+14	1.275792e+04	4.724612e+03	2.575966e+03	0	1.127291e-03
8.900000e+08	4.842296e+13	0.000000e+00	6.402879e-01	7.108552e+14	1.018856e+15	1.813264e+14	1.273315e+04	4.720101e+03	2.573506e+03	0	1.121491e-03
9.000000e+08	4.768165e+13	0.000000e+00	6.402879e-01	7.033778e+14	1.009361e+15	1.804947e+14	1.270864e+04	4.715632e+03	2.571069e+03	0	1.115738e-03
9.100000e+08	4.695391e+13	0.000000e+00	6.402879e-01	6.960335e+14	1.000025e+15	1.796687e+14	1.268438e+04	4.711204e+03	2.568655e+03	0	1.110033e-03
9.200000e+08	4.623940e+13	0.000000e+00	6.402879e-01	6.888189e+14	9.908422e+14	1.788483e+14	1.266038e+04	4.706816e+03	2.566263e+03	0	1.104374e-03
9.300000e+08	4.553780e+13	0.000000e+00	6.402879e-01	6.817310e+14	9.818101e+14	1.780336e+14	1.263662e+04	4.702467e+03	2.563892e+03	0	1.098760e-03
9.400000e+08	4.484879e+13	0.000000e+00	6.402879e-01	6.747665e+14	9.729250e+14	1.772245e+14	1.261311e+04	4.698158e+03	2.561542e+03	0	1.093190e-03
9.500000e+08	4.417205e+13	0.000000e+00	6.402879e-01	6.679226e+14	9.641834e+14	1.764208e+14	1.258984e+04	4.693887e+03	2.559214e+03	0	1.087663e-03
9.600000e+08	4.350728e+13	0.000000e+00	6.402879e-01	6.611962e+14	9.555821e+14	1.756226e+14	1.256680e+04	4.689654e+03	2.556906e+03	0	1.082179e-03
9.700000e+08	4.285420e+13	0.000000e+00	6.402879e-01	6.545846e+14	9.471179e+14	1.748299e+14	1.254400e+04	4.685459e+03	2.554618e+03	0	1.076737e-03
9.800000e+08	4.221253e+13	0.000000e+00	6.402879e-01	6.480851e+14	9.387877e+14	1.740426e+14	1.252142e+04	4.681300e+03	2.552351e+03	0	1.071336e-03
9.900000e+08	4.158199e+13	0.000000e+00	6.402879e-01	6.416949e+14	9.305884e+14	1.732606e+14	1.249906e+04	4.677177e+03	2.550103e+03	0	1.065975e-03
1.000000e+09	4.096232e+13	0.000000e+00	6.402879e-01	6.354116e+14	9.225171e+14	1.724839e+14	1.247693e+04	4.673090e+03	2.547874e+03	0	1.060653e-03
1.010000e+09	4.035326e+13	0.000000e+00	6.402879e-01	6.292327e+14	9.145710e+14	1.717125e+14	1.245501e+04	4.669038e+03	2.545665e+03	0	1.055370e-03
1.020000e+09	3.975456e+13	0.000000e+00	6.402879e-01	6.231556e+14	9.067472e+14	1.709464e+14	1.243330e+04	4.665020e+03	2.543475e+03	0	1.050125e-03
1.030000e+09	3.916599e+13	0.000000e+00	6.402879e-01	6.171782e+14	8.990432e+14	1.701854e+14	1.241180e+04	4.661037e+03	2.541303e+03	0	1.044917e-03
1.040000e+09	3.858730e+13	0.000000e+00	6.402879e-01	6.112980e+14	8.914563e+14	1.694295e+14	1.239051e+04	4.657087e+03	2.539149e+03	0	1.039745e-03
1.050000e+09	3.801827e+13	0.000000e+00	6.402879e-01	6.055130e+14	8.839838e+14	1.686788e+14	1.236942e+04	4.653169e+03	2.537013e+03	0	1.034609e-03
1.060000e+09	3.745869e+13	0.000000e+00	6.402879e-01	5.998209e+14	8.766235e+14	1.679331e+14	1.234853e+04	4.649285e+03	2.534895e+03	0	1.029507e-03
1.070000e+09	3.690832e+13	0.000000e+00	6.402879e-01	5.942196e+14	8.693728e+14	1.671924e+14	1.232783e+04	4.645432e+03	2.532795e+03	0	1.024440e-03
1.080000e+09	3.636698e+13	0.000000e+00	6.402879e-01	5.887072e+14	8.622294e+14	1.664567e+14	1.230733e+04	4.641611e+03	2.530712e+03	0	1.019407e-03
1.090000e+09	3.583444e+13	0.000000e+00	6.402879e-01	5.832817e+14	8.551911e+14	1.657260e+14	1.228702e+04	4.637822e+03	2.528645e+03	0	1.014407e-03
1.100000e+09	3.531053e+13	0.000000e+00	6.402879e-01	5.779411e+14	8.482556e+14	1.650002e+14	1.226689e+04	4.634062e+03	2.526596e+03	0	1.009439e-03
1.110000e+09	3.479504e+13	0.000000e+00	6.402879e-01	5.726837e+14	8.414208e+14	1.642792e+14	1.224695e+04	4.630334e+03	2.524563e+03	0	1.004503e-03
1.120000e+09	3.428779e+13	0.000000e+00	6.402879e-01	5.675075e+14	8.346845e+14	1.635631e+14	1.222719e+04	4.626634e+03	2.522546e+03	0	9.995975e-04
1.130000e+09	3.378861e+13	0.000000e+00	6.402879e-01	5.624109e+14	8.280448e+14	1.628518e+14	1.220760e+04	4.622965e+03	2.520545e+03	0	9.947228e-04
1.140000e+09	3.329731e+13	0.000000e+00	6.402879e-01	5.573921e+14	8.214996e+14	1.621452e+14	1.218819e+04	4.619324e+03	2.518560e+03	0	9.898780e-04
1.150000e+09	3.281372e+13	0.000000e+00	6.402879e-01	5.524494e+14	8.150471e+14	1.614433e+14	1.216896e+04	4.615711e+03	2.516590e+03	0	9.850625e-04
1.160000e+09	3.233768e+13	0.000000e+00	6.402879e-01	5.475813e+14	8.086853e+14	1.607462e+14	1.214989e+04	4.612127e+03	2.514636e+03	0	9.802758e-04
1.170000e+09	3.186903e+13	0.000000e+00	6.402879e-01	5.427863e+14	8.024124e+14	1.600536e+14	1.213100e+04	4.608571e+03	2.512697e+03	0	9.755172e-04
1.180000e+09	3.140762e+13	0.000000e+00	6.402879e-01	5.380626e+14	7.962266e+14	1.593657e+14	1.211226e+04	4.605042e+03	2.510773e+03	0	9.707863e-04
1.190000e+09	3.095327e+13	0.000000e+00	6.402879e-01	5.334089e+14	7.901262e+14	1.586824e+14	1.209369e+04	4.601540e+03	2.508864e+03	0	9.660824e-04
1.200000e+09	3.050586e+13	0.000000e+00	6.402879e-01	5.288238e+14	7.841095e+14	1.580035e+14	1.207528e+04	4.598064e+03	2.506969e+03	0	9.614051e-04
1.210000e+09	3.006524e+13	0.000000e+00	6.402879e-01	5.243057e+14	7.781749e+14	1.573292e+14	1.205703e+04	4.594615e+03	2.505088e+03	0	9.567538e-04
1.220000e+09	2.963125e+13	0.000000e+00	6.402879e-01	5.198534e+14	7.723206e+14	1.566594e+14	1.203893e+04	4.591191e+03	2.503221e+03	0	9.521279e-04
1.230000e+09	2.920378e+13	0.000000e+00	6.402879e-01	5.154655e+14	7.665452e+14	1.559940e+14	1.202099e+04	4.587793e+03	2.501369e+03	0	9.475271e-04
1.240000e+09	2.878268e+13	0.000000e+00	6.402879e-01	5.111407e+14	7.608472e+14	1.553329e+14	1.200319e+04	4.584421e+03	2.499530e+03	0	9.429508e-04
1.250000e+09	2.836782e+13	0.000000e+00	6.402879e-01	5.068776e+14	7.552249e+14	1.546763e+14	1.198555e+04	4.581073e+03	2.497705e+03	0	9.383984e-04
1.260000e+09	2.795907e+13	0.000000e+00	6.402879e-01	5.026752e+14	7.496771e+14	1.540240e+14	1.196805e+04	4.577750e+03	2.495893e+03	0	9.338696e-04
1.270000e+09	2.755632e+13	0.000000e+00	6.402879e-01	4.985322e+14	7.442023e+14	1.533759e+14	1.195070e+04	4.574450e+03	2.494094e+03	0	9.293637e-04
1.280000e+09	2.715944e+13	0.000000e+00	6.402879e-01	4.944473e+14	7.387990e+14	1.527322e+14	1.193349e+04	4.571175e+03	2.492308e+03	0	9.248804e-04
1.290000e+09	2.676832e+13	0.000000e+00	6.402879e-01	4.904195e+14	7.334659e+14	1.520926e+14	1.191642e+04	4.567923e+03	2.490535e+03	0	9.204192e-04
1.300000e+09	2.638284e+13	0.000000e+00	6.402879e-01	4.864477e+14	7.282018e+14	1.514573e+14	1.189949e+04	4.564695e+03	2.488775e+03	0	9.159796e-04
1.310000e+09	2.600289e+13	0.000000e+00	6.402879e-01	4.825307e+14	7.230054e+14	1.508261e+14	1.188270e+04	4.561489e+03	2.487027e+03	0	9.115612e-04
1.320000e+09	2.562836e+13	0.000000e+00	6.402879e-01	4.786675e+14	7.178753e+14	1.501991e+14	1.186604e+04	4.558307e+03	2.485292e+03	0	9.071635e-04
1.330000e+09	2.525914e+13	0.000000e+00	6.402879e-01	4.748571e+14	7.128104e+14	1.495762e+14	1.184951e+04	4.555146e+03	2.483569e+03	0	9.027860e-04
1.340000e+09	2.489514e+13	0.000000e+00	6.402879e-01	4.710984e+14	7.078094e+14	1.489573e+14	1.183312e+04	4.552008e+03	2.481858e+03	0	8.984284e-04
1.350000e+09	2.453625e+13	0.000000e+00	6.402879e-01	4.673905e+14	7.028713e+14	1.483425e+14	1.181685e+04	4.548891e+03	2.480158e+03	0	8.940902e-04
1.360000e+09	2.418237e+13	0.000000e+00	6.402879e-01	4.637324e+14	6.979948e+14	1.477316e+14	1.180071e+04	4.545796e+03	2.478471e+03	0	8.897710e-04
