#t		Qconv[W]	Ri[Rp]		R*[Rp]		Qc[W]		Qm[W]		Qr[W]		Tcmb[K]		Tl[K]		Tup[K]		RiFlag		Bs[T]
0.000000e+00	4.104146e+14	0.000000e+00	6.402879e-01	4.106493e+15	2.380056e+15	3.429576e+14	1.959923e+04	5.392195e+03	2.825211e+03	0	2.272949e-03
1.000000e+07	4.021158e+14	0.000000e+00	6.402879e-01	4.032307e+15	2.542042e+15	3.410573e+14	1.949095e+04	5.452621e+03	2.856871e+03	0	2.257524e-03
2.000000e+07	3.937526e+14	0.000000e+00	6.402879e-01	3.957632e+15	2.688726e+15	3.391713e+14	1.938462e+04	5.505993e+03	2.884835e+03	0	2.241764e-03
3.000000e+07	3.853654e+14	0.000000e+00	6.402879e-01	3.882810e+15	2.819242e+15	3.372994e+14	1.928023e+04	5.552780e+03	2.909349e+03	0	2.225732e-03
4.000000e+07	3.769906e+14	0.000000e+00	6.402879e-01	3.808155e+15	2.933312e+15	3.354414e+14	1.917781e+04	5.593478e+03	2.930673e+03	0	2.209491e-03
5.000000e+07	3.686606e+14	0.000000e+00	6.402879e-01	3.733943e+15	3.031139e+15	3.335973e+14	1.907734e+04	5.628596e+03	2.949073e+03	0	2.193096e-03
6.000000e+07	3.604037e+14	0.000000e+00	6.402879e-01	3.660415e+15	3.113308e+15	3.317670e+14	1.897881e+04	5.658637e+03	2.964812e+03	0	2.176599e-03
7.000000e+07	3.522442e+14	0.000000e+00	6.402879e-01	3.587777e+15	3.180679e+15	3.299503e+14	1.888220e+04	5.684089e+03	2.978148e+03	0	2.160048e-03
8.000000e+07	3.442022e+14	0.000000e+00	6.402879e-01	3.516201e+15	3.234296e+15	3.281470e+14	1.878750e+04	5.705418e+03	2.989323e+03	0	2.143483e-03
9.000000e+07	3.362945e+14	0.000000e+00	6.402879e-01	3.445829e+15	3.275311e+15	3.263572e+14	1.869468e+04	5.723061e+03	2.998567e+03	0	2.126940e-03
1.000000e+08	3.285343e+14	0.000000e+00	6.402879e-01	3.376773e+15	3.304923e+15	3.245807e+14	1.860370e+04	5.737423e+03	3.006092e+03	0	2.110453e-03
1.100000e+08	3.209320e+14	0.000000e+00	6.402879e-01	3.309122e+15	3.324325e+15	3.228174e+14	1.851453e+04	5.748876e+03	3.012093e+03	0	2.094047e-03
1.200000e+08	3.134954e+14	0.000000e+00	6.402879e-01	3.242940e+15	3.334676e+15	3.210671e+14	1.842713e+04	5.757759e+03	3.016747e+03	0	2.077746e-03
1.300000e+08	3.062301e+14	0.000000e+00	6.402879e-01	3.178274e+15	3.337073e+15	3.193298e+14	1.834147e+04	5.764378e+03	3.020215e+03	0	2.061570e-03
1.400000e+08	2.991398e+14	0.000000e+00	6.402879e-01	3.115153e+15	3.332536e+15	3.176054e+14	1.825750e+04	5.769006e+03	3.022640e+03	0	2.045534e-03
1.500000e+08	2.922264e+14	0.000000e+00	6.402879e-01	3.053594e+15	3.322003e+15	3.158937e+14	1.817519e+04	5.771889e+03	3.024151e+03	0	2.029653e-03
1.600000e+08	2.854906e+14	0.000000e+00	6.402879e-01	2.993602e+15	3.306323e+15	3.141947e+14	1.809450e+04	5.773247e+03	3.024862e+03	0	2.013937e-03
1.700000e+08	2.789318e+14	0.000000e+00	6.402879e-01	2.935169e+15	3.286260e+15	3.125081e+14	1.801538e+04	5.773273e+03	3.024876e+03	0	1.998395e-03
1.800000e+08	2.725488e+14	0.000000e+00	6.402879e-01	2.878284e+15	3.262494e+15	3.108341e+14	1.793780e+04	5.772139e+03	3.024282e+03	0	1.983034e-03
1.900000e+08	2.663393e+14	0.000000e+00	6.402879e-01	2.822927e+15	3.235630e+15	3.091723e+14	1.786171e+04	5.769997e+03	3.023159e+03	0	1.967858e-03
2.000000e+08	2.603005e+14	0.000000e+00	6.402879e-01	2.769072e+15	3.206197e+15	3.075228e+14	1.778707e+04	5.766979e+03	3.021578e+03	0	1.952872e-03
2.100000e+08	2.544292e+14	0.000000e+00	6.402879e-01	2.716690e+15	3.174661e+15	3.058854e+14	1.771385e+04	5.763205e+03	3.019600e+03	0	1.938077e-03
2.200000e+08	2.487218e+14	0.000000e+00	6.402879e-01	2.665750e+15	3.141427e+15	3.042600e+14	1.764201e+04	5.758776e+03	3.017280e+03	0	1.923476e-03
2.300000e+08	2.431744e+14	0.000000e+00	6.402879e-01	2.616218e+15	3.106847e+15	3.026466e+14	1.757150e+04	5.753785e+03	3.014665e+03	0	1.909068e-03
2.400000e+08	2.377829e+14	0.000000e+00	6.402879e-01	2.568057e+15	3.071226e+15	3.010450e+14	1.750230e+04	5.748310e+03	3.011796e+03	0	1.894853e-03
2.500000e+08	2.325432e+14	0.000000e+00	6.402879e-01	2.521230e+15	3.034828e+15	2.994551e+14	1.743436e+04	5.742422e+03	3.008711e+03	0	1.880832e-03
2.600000e+08	2.274509e+14	0.000000e+00	6.402879e-01	2.475700e+15	2.997878e+15	2.978769e+14	1.736765e+04	5.736181e+03	3.005441e+03	0	1.867001e-03
2.700000e+08	2.225017e+14	0.000000e+00	6.402879e-01	2.431429e+15	2.960569e+15	2.963102e+14	1.730214e+04	5.729643e+03	3.002015e+03	0	1.853360e-03
2.800000e+08	2.176913e+14	0.000000e+00	6.402879e-01	2.388378e+15	2.923068e+15	2.947549e+14	1.723780e+04	5.722852e+03	2.998458e+03	0	1.839906e-03
2.900000e+08	2.130153e+14	0.000000e+00	6.402879e-01	2.346511e+15	2.885514e+15	2.932110e+14	1.717459e+04	5.715852e+03	2.994790e+03	0	1.826637e-03
3.000000e+08	2.084697e+14	0.000000e+00	6.402879e-01	2.305789e+15	2.848028e+15	2.916783e+14	1.711248e+04	5.708678e+03	2.991031e+03	0	1.813551e-03
3.100000e+08	2.040500e+14	0.000000e+00	6.402879e-01	2.266177e+15	2.810708e+15	2.901568e+14	1.705144e+04	5.701362e+03	2.987198e+03	0	1.800643e-03
3.200000e+08	1.997524e+14	0.000000e+00	6.402879e-01	2.227638e+15	2.773640e+15	2.886464e+14	1.699144e+04	5.693930e+03	2.983304e+03	0	1.787912e-03
3.300000e+08	1.955727e+14	0.000000e+00	6.402879e-01	2.190138e+15	2.736894e+15	2.871470e+14	1.693246e+04	5.686409e+03	2.979363e+03	0	1.775353e-03
3.400000e+08	1.915071e+14	0.000000e+00	6.402879e-01	2.153643e+15	2.700529e+15	2.856584e+14	1.687447e+04	5.678818e+03	2.975386e+03	0	1.762965e-03
3.500000e+08	1.875518e+14	0.000000e+00	6.402879e-01	2.118118e+15	2.664591e+15	2.841807e+14	1.681744e+04	5.671176e+03	2.971382e+03	0	1.750743e-03
3.600000e+08	1.837031e+14	0.000000e+00	6.402879e-01	2.083532e+15	2.629120e+15	2.827136e+14	1.676134e+04	5.663500e+03	2.967360e+03	0	1.738685e-03
3.700000e+08	1.799574e+14	0.000000e+00	6.402879e-01	2.049854e+15	2.594148e+15	2.812572e+14	1.670616e+04	5.655803e+03	2.963328e+03	0	1.726786e-03
3.800000e+08	1.763113e+14	0.000000e+00	6.402879e-01	2.017054e+15	2.559698e+15	2.798114e+14	1.665186e+04	5.648098e+03	2.959291e+03	0	1.715045e-03
3.900000e+08	1.727615e+14	0.000000e+00	6.402879e-01	1.985102e+15	2.525790e+15	2.783759e+14	1.659843e+04	5.640395e+03	2.955255e+03	0	1.703456e-03
4.000000e+08	1.693046e+14	0.000000e+00	6.402879e-01	1.953970e+15	2.492437e+15	2.769509e+14	1.654583e+04	5.632705e+03	2.951225e+03	0	1.692018e-03
4.100000e+08	1.659378e+14	0.000000e+00	6.402879e-01	1.923632e+15	2.459650e+15	2.755361e+14	1.649406e+04	5.625034e+03	2.947206e+03	0	1.680727e-03
4.200000e+08	1.626578e+14	0.000000e+00	6.402879e-01	1.894060e+15	2.427435e+15	2.741315e+14	1.644309e+04	5.617391e+03	2.943202e+03	0	1.669579e-03
4.300000e+08	1.594618e+14	0.000000e+00	6.402879e-01	1.865229e+15	2.395796e+15	2.727371e+14	1.639290e+04	5.609780e+03	2.939214e+03	0	1.658572e-03
4.400000e+08	1.563471e+14	0.000000e+00	6.402879e-01	1.837115e+15	2.364732e+15	2.713526e+14	1.634347e+04	5.602208e+03	2.935247e+03	0	1.647702e-03
4.500000e+08	1.533110e+14	0.000000e+00	6.402879e-01	1.809695e+15	2.334243e+15	2.699781e+14	1.629478e+04	5.594679e+03	2.931302e+03	0	1.636966e-03
4.600000e+08	1.503508e+14	0.000000e+00	6.402879e-01	1.782946e+15	2.304326e+15	2.686135e+14	1.624681e+04	5.587196e+03	2.927381e+03	0	1.626362e-03
4.700000e+08	1.474641e+14	0.000000e+00	6.402879e-01	1.756846e+15	2.274976e+15	2.672587e+14	1.619955e+04	5.579764e+03	2.923487e+03	0	1.615886e-03
4.800000e+08	1.446485e+14	0.000000e+00	6.402879e-01	1.731374e+15	2.246187e+15	2.659136e+14	1.615298e+04	5.572384e+03	2.919621e+03	0	1.605536e-03
4.900000e+08	1.419017e+14	0.000000e+00	6.402879e-01	1.706511e+15	2.217953e+15	2.645781e+14	1.610708e+04	5.565059e+03	2.915783e+03	0	1.595308e-03
5.000000e+08	1.392215e+14	0.000000e+00	6.402879e-01	1.682235e+15	2.190265e+15	2.632521e+14	1.606183e+04	5.557792e+03	2.911975e+03	0	1.585200e-03
5.100000e+08	1.366057e+14	0.000000e+00	6.402879e-01	1.658530e+15	2.163114e+15	2.619357e+14	1.601723e+04	5.550583e+03	2.908198e+03	0	1.575209e-03
5.200000e+08	1.340523e+14	0.000000e+00	6.402879e-01	1.635377e+15	2.136493e+15	2.606286e+14	1.597325e+04	5.543434e+03	2.904453e+03	0	1.565333e-03
5.300000e+08	1.315593e+14	0.000000e+00	6.402879e-01	1.612758e+15	2.110392e+15	2.593308e+14	1.592988e+04	5.536347e+03	2.900739e+03	0	1.555569e-03
5.400000e+08	1.291248e+14	0.000000e+00	6.402879e-01	1.590657e+15	2.084800e+15	2.580423e+14	1.588712e+04	5.529321e+03	2.897058e+03	0	1.545914e-03
5.500000e+08	1.267470e+14	0.000000e+00	6.402879e-01	1.569058e+15	2.059708e+15	2.567630e+14	1.584493e+04	5.522358e+03	2.893410e+03	0	1.536366e-03
5.600000e+08	1.244241e+14	0.000000e+00	6.402879e-01	1.547946e+15	2.035106e+15	2.554927e+14	1.580331e+04	5.515457e+03	2.889794e+03	0	1.526922e-03
5.700000e+08	1.221544e+14	0.000000e+00	6.402879e-01	1.527305e+15	2.010983e+15	2.542315e+14	1.576225e+04	5.508620e+03	2.886212e+03	0	1.517581e-03
5.800000e+08	1.199364e+14	0.000000e+00	6.402879e-01	1.507121e+15	1.987330e+15	2.529792e+14	1.572174e+04	5.501846e+03	2.882663e+03	0	1.508339e-03
5.900000e+08	1.177683e+14	0.000000e+00	6.402879e-01	1.487381e+15	1.964135e+15	2.517358e+14	1.568176e+04	5.495135e+03	2.879146e+03	0	1.499195e-03
6.000000e+08	1.156488e+14	0.000000e+00	6.402879e-01	1.468071e+15	1.941389e+15	2.505012e+14	1.564230e+04	5.488487e+03	2.875663e+03	0	1.490147e-03
6.100000e+08	1.135764e+14	0.000000e+00	6.402879e-01	1.449179e+15	1.919082e+15	2.492754e+14	1.560335e+04	5.481902e+03	2.872213e+03	0	1.481192e-03
6.200000e+08	1.115495e+14	0.000000e+00	6.402879e-01	1.430692e+15	1.897203e+15	2.480582e+14	1.556490e+04	5.475380e+03	2.868796e+03	0	1.472328e-03
6.300000e+08	1.095670e+14	0.000000e+00	6.402879e-01	1.412598e+15	1.875743e+15	2.468496e+14	1.552694e+04	5.468920e+03	2.865412e+03	0	1.463554e-03
6.400000e+08	1.076275e+14	0.000000e+00	6.402879e-01	1.394885e+15	1.854691e+15	2.456495e+14	1.548946e+04	5.462522e+03	2.862059e+03	0	1.454866e-03
6.500000e+08	1.057297e+14	0.000000e+00	6.402879e-01	1.377544e+15	1.834038e+15	2.444578e+14	1.545244e+04	5.456186e+03	2.858739e+03	0	1.446264e-03
6.600000e+08	1.038724e+14	0.000000e+00	6.402879e-01	1.360563e+15	1.813775e+15	2.432746e+14	1.541589e+04	5.449910e+03	2.855451e+03	0	1.437746e-03
6.700000e+08	1.020545e+14	0.000000e+00	6.402879e-01	1.343931e+15	1.793893e+15	2.420997e+14	1.537978e+04	5.443694e+03	2.852195e+03	0	1.429309e-03
6.800000e+08	1.002749e+14	0.000000e+00	6.402879e-01	1.327640e+15	1.774381e+15	2.409330e+14	1.534411e+04	5.437539e+03	2.848969e+03	0	1.420952e-03
6.900000e+08	9.853235e+13	0.000000e+00	6.402879e-01	1.311679e+15	1.755232e+15	2.397745e+14	1.530887e+04	5.431442e+03	2.845775e+03	0	1.412673e-03
7.000000e+08	9.682593e+13	0.000000e+00	6.402879e-01	1.296039e+15	1.736437e+15	2.386241e+14	1.527406e+04	5.425404e+03	2.842611e+03	0	1.404470e-03
7.100000e+08	9.515459e+13	0.000000e+00	6.402879e-01	1.280711e+15	1.717987e+15	2.374818e+14	1.523966e+04	5.419423e+03	2.839478e+03	0	1.396343e-03
7.200000e+08	9.351737e+13	0.000000e+00	6.402879e-01	1.265687e+15	1.699874e+15	2.363475e+14	1.520566e+04	5.413500e+03	2.836374e+03	0	1.388288e-03
7.300000e+08	9.191333e+13	0.000000e+00	6.402879e-01	1.250959e+15	1.682089e+15	2.352211e+14	1.517206e+04	5.407633e+03	2.833300e+03	0	1.380304e-03
7.400000e+08	9.034154e+13	0.000000e+00	6.402879e-01	1.236518e+15	1.664626e+15	2.341025e+14	1.513885e+04	5.401821e+03	2.830255e+03	0	1.372391e-03
7.500000e+08	8.880113e+13	0.000000e+00	6.402879e-01	1.222356e+15	1.647475e+15	2.329918e+14	1.510602e+04	5.396065e+03	2.827239e+03	0	1.364546e-03
7.600000e+08	8.729125e+13	0.000000e+00	6.402879e-01	1.208467e+15	1.630630e+15	2.318888e+14	1.507357e+04	5.390363e+03	2.824252e+03	0	1.356768e-03
7.700000e+08	8.581109e+13	0.000000e+00	6.402879e-01	1.194843e+15	1.614084e+15	2.307935e+14	1.504148e+04	5.384715e+03	2.821292e+03	0	1.349056e-03
7.800000e+08	8.435984e+13	0.000000e+00	6.402879e-01	1.181477e+15	1.597829e+15	2.297057e+14	1.500976e+04	5.379119e+03	2.818361e+03	0	1.341407e-03
7.900000e+08	8.293675e+13	0.000000e+00	6.402879e-01	1.168362e+15	1.581858e+15	2.286256e+14	1.497838e+04	5.373576e+03	2.815456e+03	0	1.333822e-03
8.000000e+08	8.154107e+13	0.000000e+00	6.402879e-01	1.155492e+15	1.566165e+15	2.275529e+14	1.494736e+04	5.368084e+03	2.812579e+03	0	1.326297e-03
8.100000e+08	8.017208e+13	0.000000e+00	6.402879e-01	1.142860e+15	1.550743e+15	2.264877e+14	1.491667e+04	5.362643e+03	2.809728e+03	0	1.318833e-03
8.200000e+08	7.882910e+13	0.000000e+00	6.402879e-01	1.130460e+15	1.535585e+15	2.254298e+14	1.488632e+04	5.357252e+03	2.806903e+03	0	1.311427e-03
8.300000e+08	7.751145e+13	0.000000e+00	6.402879e-01	1.118287e+15	1.520686e+15	2.243793e+14	1.485630e+04	5.351910e+03	2.804104e+03	0	1.304079e-03
8.400000e+08	7.621848e+13	0.000000e+00	6.402879e-01	1.106335e+15	1.506039e+15	2.233360e+14	1.482660e+04	5.346616e+03	2.801331e+03	0	1.296788e-03
8.500000e+08	7.494957e+13	0.000000e+00	6.402879e-01	1.094597e+15	1.491639e+15	2.222999e+14	1.479722e+04	5.341371e+03	2.798583e+03	0	1.289551e-03
8.600000e+08	7.370410e+13	0.000000e+00	6.402879e-01	1.083070e+15	1.477479e+15	2.212709e+14	1.476814e+04	5.336173e+03	2.795859e+03	0	1.282368e-03
8.700000e+08	7.248149e+13	0.000000e+00	6.402879e-01	1.071747e+15	1.463555e+15	2.202490e+14	1.473937e+04	5.331021e+03	2.793160e+03	0	1.275238e-03
8.800000e+08	7.128117e+13	0.000000e+00	6.402879e-01	1.060623e+15	1.449860e+15	2.192342e+14	1.471091e+04	5.325916e+03	2.790485e+03	0	1.268159e-03
8.900000e+08	7.010258e+13	0.000000e+00	6.402879e-01	1.049694e+15	1.436390e+15	2.182263e+14	1.468273e+04	5.320856e+03	2.787834e+03	0	1.261131e-03
9.000000e+08	6.894519e+13	0.000000e+00	6.402879e-01	1.038955e+15	1.423139e+15	2.172254e+14	1.465485e+04	5.315840e+03	2.785206e+03	0	1.254152e-03
9.100000e+08	6.780849e+13	0.000000e+00	6.402879e-01	1.028401e+15	1.410103e+15	2.162313e+14	1.462725e+04	5.310868e+03	2.782601e+03	0	1.247221e-03
9.200000e+08	6.669197e+13	0.000000e+00	6.402879e-01	1.018028e+15	1.397277e+15	2.152440e+14	1.459993e+04	5.305940e+03	2.780019e+03	0	1.240338e-03
9.300000e+08	6.559514e+13	0.000000e+00	6.402879e-01	1.007832e+15	1.384655e+15	2.142635e+14	1.457288e+04	5.301054e+03	2.777459e+03	0	1.233500e-03
9.400000e+08	6.451752e+13	0.000000e+00	6.402879e-01	9.978084e+14	1.372234e+15	2.132896e+14	1.454610e+04	5.296211e+03	2.774921e+03	0	1.226708e-03
9.500000e+08	6.345867e+13	0.000000e+00	6.402879e-01	9.879529e+14	1.360009e+15	2.123224e+14	1.451959e+04	5.291409e+03	2.772405e+03	0	1.219960e-03
9.600000e+08	6.241814e+13	0.000000e+00	6.402879e-01	9.782618e+14	1.347975e+15	2.113619e+14	1.449334e+04	5.286647e+03	2.769911e+03	0	1.213256e-03
9.700000e+08	6.139550e+13	0.000000e+00	6.402879e-01	9.687314e+14	1.336128e+15	2.104078e+14	1.446735e+04	5.281927e+03	2.767437e+03	0	1.206593e-03
9.800000e+08	6.039032e+13	0.000000e+00	6.402879e-01	9.593578e+14	1.324465e+15	2.094603e+14	1.444161e+04	5.277245e+03	2.764984e+03	0	1.199972e-03
9.900000e+08	5.940221e+13	0.000000e+00	6.402879e-01	9.501376e+14	1.312981e+15	2.085191e+14	1.441612e+04	5.272604e+03	2.762552e+03	0	1.193391e-03
1.000000e+09	5.843076e+13	0.000000e+00	6.402879e-01	9.410672e+14	1.301673e+15	2.075844e+14	1.439087e+04	5.268000e+03	2.760141e+03	0	1.186850e-03
1.010000e+09	5.747560e+13	0.000000e+00	6.402879e-01	9.321433e+14	1.290536e+15	2.066560e+14	1.436586e+04	5.263435e+03	2.757749e+03	0	1.180348e-03
1.020000e+09	5.653636e+13	0.000000e+00	6.402879e-01	9.233624e+14	1.279567e+15	2.057339e+14	1.434109e+04	5.258907e+03	2.755376e+03	0	1.173883e-03
1.030000e+09	5.561266e+13	0.000000e+00	6.402879e-01	9.147216e+14	1.268763e+15	2.048181e+14	1.431655e+04	5.254417e+03	2.753024e+03	0	1.167454e-03
1.040000e+09	5.470418e+13	0.000000e+00	6.402879e-01	9.062176e+14	1.258119e+15	2.039084e+14	1.429224e+04	5.249963e+03	2.750690e+03	0	1.161062e-03
1.050000e+09	5.381055e+13	0.000000e+00	6.402879e-01	8.978474e+14	1.247633e+15	2.030049e+14	1.426816e+04	5.245544e+03	2.748375e+03	0	1.154705e-03
1.060000e+09	5.293146e+13	0.000000e+00	6.402879e-01	8.896081e+14	1.237301e+15	2.021075e+14	1.424429e+04	5.241162e+03	2.746079e+03	0	1.148383e-03
1.070000e+09	5.206657e+13	0.000000e+00	6.402879e-01	8.814968e+14	1.227120e+15	2.012161e+14	1.422065e+04	5.236814e+03	2.743801e+03	0	1.142094e-03
1.080000e+09	5.121559e+13	0.000000e+00	6.402879e-01	8.735109e+14	1.217087e+15	2.003307e+14	1.419722e+04	5.232501e+03	2.741541e+03	0	1.135837e-03
1.090000e+09	5.037819e+13	0.000000e+00	6.402879e-01	8.656474e+14	1.207199e+15	1.994513e+14	1.417400e+04	5.228222e+03	2.739299e+03	0	1.129613e-03
1.100000e+09	4.955410e+13	0.000000e+00	6.402879e-01	8.579040e+14	1.197453e+15	1.985777e+14	1.415099e+04	5.223976e+03	2.737074e+03	0	1.123419e-03
1.110000e+09	4.874302e+13	0.000000e+00	6.402879e-01	8.502779e+14	1.187846e+15	1.977101e+14	1.412819e+04	5.219763e+03	2.734867e+03	0	1.117256e-03
1.120000e+09	4.794467e+13	0.000000e+00	6.402879e-01	8.427668e+14	1.178375e+15	1.968482e+14	1.410558e+04	5.215584e+03	2.732677e+03	0	1.111123e-03
1.130000e+09	4.715877e+13	0.000000e+00	6.402879e-01	8.353681e+14	1.169037e+15	1.959921e+14	1.408318e+04	5.211436e+03	2.730504e+03	0	1.105019e-03
1.140000e+09	4.638508e+13	0.000000e+00	6.402879e-01	8.280797e+14	1.159830e+15	1.951418e+14	1.406097e+04	5.207320e+03	2.728347e+03	0	1.098942e-03
1.150000e+09	4.562332e+13	0.000000e+00	6.402879e-01	8.208990e+14	1.150751e+15	1.942971e+14	1.403896e+04	5.203235e+03	2.726207e+03	0	1.092893e-03
1.160000e+09	4.487325e+13	0.000000e+00	6.402879e-01	8.138240e+14	1.141798e+15	1.934580e+14	1.401714e+04	5.199182e+03	2.724083e+03	0	1.086871e-03
1.170000e+09	4.413462e+13	0.000000e+00	6.402879e-01	8.068525e+14	1.132968e+15	1.926245e+14	1.399550e+04	5.195158e+03	2.721975e+03	0	1.080874e-03
1.180000e+09	4.340719e+13	0.000000e+00	6.402879e-01	7.999824e+14	1.124259e+15	1.917966e+14	1.397405e+04	5.191165e+03	2.719883e+03	0	1.074903e-03
1.190000e+09	4.269074e+13	0.000000e+00	6.402879e-01	7.932115e+14	1.115668e+15	1.909742e+14	1.395278e+04	5.187202e+03	2.717807e+03	0	1.068956e-03
1.200000e+09	4.198504e+13	0.000000e+00	6.402879e-01	7.865379e+14	1.107194e+15	1.901573e+14	1.393169e+04	5.183268e+03	2.715745e+03	0	1.063033e-03
1.210000e+09	4.128987e+13	0.000000e+00	6.402879e-01	7.799597e+14	1.098833e+15	1.893457e+14	1.391078e+04	5.179363e+03	2.713699e+03	0	1.057134e-03
1.220000e+09	4.060502e+13	0.000000e+00	6.402879e-01	7.734749e+14	1.090584e+15	1.885396e+14	1.389004e+04	5.175486e+03	2.711668e+03	0	1.051256e-03
1.230000e+09	3.993027e+13	0.000000e+00	6.402879e-01	7.670817e+14	1.082444e+15	1.877387e+14	1.386947e+04	5.171637e+03	2.709652e+03	0	1.045401e-03
1.240000e+09	3.926543e+13	0.000000e+00	6.402879e-01	7.607783e+14	1.074412e+15	1.869432e+14	1.384908e+04	5.167817e+03	2.707650e+03	0	1.039566e-03
1.250000e+09	3.861029e+13	0.000000e+00	6.402879e-01	7.545629e+14	1.066485e+15	1.861529e+14	1.382885e+04	5.164024e+03	2.705662e+03	0	1.033752e-03
1.260000e+09	3.796467e+13	0.000000e+00	6.402879e-01	7.484338e+14	1.058662e+15	1.853678e+14	1.380878e+04	5.160257e+03	2.703689e+03	0	1.027958e-03
1.270000e+09	3.732838e+13	0.000000e+00	6.402879e-01	7.423893e+14	1.050940e+15	1.845879e+14	1.378888e+04	5.156518e+03	2.701730e+03	0	1.022182e-03
1.280000e+09	3.670123e+13	0.000000e+00	6.402879e-01	7.364279e+14	1.043318e+15	1.838132e+14	1.376914e+04	5.152805e+03	2.699785e+03	0	1.016426e-03
1.290000e+09	3.608304e+13	0.000000e+00	6.402879e-01	7.305478e+14	1.035794e+15	1.830435e+14	1.374956e+04	5.149118e+03	2.697853e+03	0	1.010686e-03
1.300000e+09	3.547364e+13	0.000000e+00	6.402879e-01	7.247476e+14	1.028366e+15	1.822789e+14	1.373013e+04	5.145457e+03	2.695935e+03	0	1.004964e-03
1.310000e+09	3.487287e+13	0.000000e+00	6.402879e-01	7.190257e+14	1.021032e+15	1.815192e+14	1.371085e+04	5.141821e+03	2.694030e+03	0	9.992587e-04
1.320000e+09	3.428055e+13	0.000000e+00	6.402879e-01	7.133806e+14	1.013791e+15	1.807646e+14	1.369173e+04	5.138211e+03	2.692138e+03	0	9.935689e-04
1.330000e+09	3.369652e+13	0.000000e+00	6.402879e-01	7.078110e+14	1.006640e+15	1.800149e+14	1.367276e+04	5.134625e+03	2.690259e+03	0	9.878941e-04
1.340000e+09	3.312063e+13	0.000000e+00	6.402879e-01	7.023154e+14	9.995791e+14	1.792701e+14	1.365393e+04	5.131064e+03	2.688393e+03	0	9.822339e-04
1.350000e+09	3.255271e+13	0.000000e+00	6.402879e-01	6.968924e+14	9.926057e+14	1.785302e+14	1.363525e+04	5.127527e+03	2.686540e+03	0	9.765874e-04
1.360000e+09	3.199263e+13	0.000000e+00	6.402879e-01	6.915407e+14	9.857184e+14	1.777950e+14	1.361672e+04	5.124013e+03	2.684699e+03	0	9.709541e-04
