#t		Qconv[W]	Ri[Rp]		R*[Rp]		Qc[W]		Qm[W]		Qr[W]		Tcmb[K]		Tl[K]		Tup[K]		RiFlag		Bs[T]
0.000000e+00	9.053556e+14	0.000000e+00	6.376812e-01	8.307058e+15	2.716079e+15	3.778066e+14	2.394413e+04	5.874882e+03	2.880982e+03	0	2.961476e-03
1.000000e+07	8.845190e+14	0.000000e+00	6.376812e-01	8.129304e+15	3.224018e+15	3.757133e+14	2.375020e+04	6.037625e+03	2.960790e+03	0	2.938580e-03
2.000000e+07	8.629455e+14	0.000000e+00	6.376812e-01	7.945676e+15	3.716803e+15	3.736356e+14	2.356038e+04	6.180852e+03	3.031027e+03	0	2.914492e-03
3.000000e+07	8.408526e+14	0.000000e+00	6.376812e-01	7.757958e+15	4.177381e+15	3.715735e+14	2.337479e+04	6.305080e+03	3.091947e+03	0	2.889405e-03
4.000000e+07	8.184545e+14	0.000000e+00	6.376812e-01	7.567907e+15	4.593084e+15	3.695267e+14	2.319354e+04	6.411306e+03	3.144039e+03	0	2.863518e-03
5.000000e+07	7.959503e+14	0.000000e+00	6.376812e-01	7.377152e+15	4.955984e+15	3.674952e+14	2.301669e+04	6.500873e+03	3.187962e+03	0	2.837029e-03
6.000000e+07	7.735163e+14	0.000000e+00	6.376812e-01	7.187139e+15	5.262524e+15	3.654789e+14	2.284424e+04	6.575337e+03	3.224478e+03	0	2.810120e-03
7.000000e+07	7.513025e+14	0.000000e+00	6.376812e-01	6.999092e+15	5.512739e+15	3.634776e+14	2.267620e+04	6.636342e+03	3.254394e+03	0	2.782958e-03
8.000000e+07	7.294317e+14	0.000000e+00	6.376812e-01	6.814015e+15	5.709294e+15	3.614911e+14	2.251251e+04	6.685526e+03	3.278514e+03	0	2.755688e-03
9.000000e+07	7.080006e+14	0.000000e+00	6.376812e-01	6.632696e+15	5.856568e+15	3.595195e+14	2.235311e+04	6.724456e+03	3.297605e+03	0	2.728431e-03
1.000000e+08	6.870825e+14	0.000000e+00	6.376812e-01	6.455732e+15	5.959877e+15	3.575624e+14	2.219790e+04	6.754577e+03	3.312376e+03	0	2.701291e-03
1.100000e+08	6.667303e+14	0.000000e+00	6.376812e-01	6.283551e+15	6.024872e+15	3.556199e+14	2.204680e+04	6.777196e+03	3.323468e+03	0	2.674352e-03
1.200000e+08	6.469796e+14	0.000000e+00	6.376812e-01	6.116443e+15	6.057128e+15	3.536918e+14	2.189970e+04	6.793469e+03	3.331448e+03	0	2.647679e-03
1.300000e+08	6.278525e+14	0.000000e+00	6.376812e-01	5.954580e+15	6.061876e+15	3.517780e+14	2.175647e+04	6.804405e+03	3.336811e+03	0	2.621326e-03
1.400000e+08	6.093593e+14	0.000000e+00	6.376812e-01	5.798045e+15	6.043861e+15	3.498783e+14	2.161700e+04	6.810872e+03	3.339982e+03	0	2.595332e-03
1.500000e+08	5.915018e+14	0.000000e+00	6.376812e-01	5.646847e+15	6.007272e+15	3.479927e+14	2.148116e+04	6.813616e+03	3.341328e+03	0	2.569728e-03
1.600000e+08	5.742748e+14	0.000000e+00	6.376812e-01	5.500940e+15	5.955742e+15	3.461210e+14	2.134884e+04	6.813269e+03	3.341158e+03	0	2.544535e-03
1.700000e+08	5.576682e+14	0.000000e+00	6.376812e-01	5.360236e+15	5.892373e+15	3.442631e+14	2.121990e+04	6.810365e+03	3.339734e+03	0	2.519767e-03
1.800000e+08	5.416678e+14	0.000000e+00	6.376812e-01	5.224614e+15	5.819780e+15	3.424189e+14	2.109424e+04	6.805354e+03	3.337276e+03	0	2.495434e-03
1.900000e+08	5.262570e+14	0.000000e+00	6.376812e-01	5.093933e+15	5.740150e+15	3.405883e+14	2.097173e+04	6.798612e+03	3.333970e+03	0	2.471541e-03
2.000000e+08	5.114171e+14	0.000000e+00	6.376812e-01	4.968037e+15	5.655294e+15	3.387712e+14	2.085226e+04	6.790457e+03	3.329971e+03	0	2.448087e-03
2.100000e+08	4.971284e+14	0.000000e+00	6.376812e-01	4.846761e+15	5.566703e+15	3.369674e+14	2.073572e+04	6.781153e+03	3.325408e+03	0	2.425072e-03
2.200000e+08	4.833704e+14	0.000000e+00	6.376812e-01	4.729933e+15	5.475595e+15	3.351769e+14	2.062200e+04	6.770921e+03	3.320391e+03	0	2.402491e-03
2.300000e+08	4.701225e+14	0.000000e+00	6.376812e-01	4.617379e+15	5.382961e+15	3.333995e+14	2.051101e+04	6.759944e+03	3.315008e+03	0	2.380339e-03
2.400000e+08	4.573639e+14	0.000000e+00	6.376812e-01	4.508928e+15	5.289600e+15	3.316351e+14	2.040263e+04	6.748378e+03	3.309336e+03	0	2.358608e-03
2.500000e+08	4.450745e+14	0.000000e+00	6.376812e-01	4.404409e+15	5.196156e+15	3.298837e+14	2.029678e+04	6.736351e+03	3.303438e+03	0	2.337290e-03
2.600000e+08	4.332341e+14	0.000000e+00	6.376812e-01	4.303656e+15	5.103140e+15	3.281451e+14	2.019336e+04	6.723969e+03	3.297366e+03	0	2.316377e-03
2.700000e+08	4.218235e+14	0.000000e+00	6.376812e-01	4.206507e+15	5.010955e+15	3.264192e+14	2.009230e+04	6.711322e+03	3.291164e+03	0	2.295860e-03
2.800000e+08	4.108238e+14	0.000000e+00	6.376812e-01	4.112805e+15	4.919918e+15	3.247059e+14	1.999350e+04	6.698484e+03	3.284868e+03	0	2.275728e-03
2.900000e+08	4.002171e+14	0.000000e+00	6.376812e-01	4.022400e+15	4.830273e+15	3.230051e+14	1.989688e+04	6.685518e+03	3.278510e+03	0	2.255972e-03
3.000000e+08	3.899860e+14	0.000000e+00	6.376812e-01	3.935147e+15	4.742205e+15	3.213167e+14	1.980238e+04	6.672473e+03	3.272113e+03	0	2.236582e-03
3.100000e+08	3.801139e+14	0.000000e+00	6.376812e-01	3.850907e+15	4.655850e+15	3.196406e+14	1.970991e+04	6.659395e+03	3.265699e+03	0	2.217548e-03
3.200000e+08	3.705849e+14	0.000000e+00	6.376812e-01	3.769548e+15	4.571307e+15	3.179767e+14	1.961940e+04	6.646317e+03	3.259286e+03	0	2.198860e-03
3.300000e+08	3.613838e+14	0.000000e+00	6.376812e-01	3.690943e+15	4.488642e+15	3.163249e+14	1.953080e+04	6.633269e+03	3.252887e+03	0	2.180510e-03
3.400000e+08	3.524962e+14	0.000000e+00	6.376812e-01	3.614973e+15	4.407897e+15	3.146851e+14	1.944403e+04	6.620275e+03	3.246516e+03	0	2.162486e-03
3.500000e+08	3.439084e+14	0.000000e+00	6.376812e-01	3.541521e+15	4.329093e+15	3.130572e+14	1.935903e+04	6.607356e+03	3.240180e+03	0	2.144780e-03
3.600000e+08	3.356073e+14	0.000000e+00	6.376812e-01	3.470479e+15	4.252233e+15	3.114411e+14	1.927575e+04	6.594527e+03	3.233889e+03	0	2.127383e-03
3.700000e+08	3.275804e+14	0.000000e+00	6.376812e-01	3.401743e+15	4.177309e+15	3.098367e+14	1.919413e+04	6.581802e+03	3.227649e+03	0	2.110285e-03
3.800000e+08	3.198159e+14	0.000000e+00	6.376812e-01	3.335214e+15	4.104302e+15	3.082439e+14	1.911412e+04	6.569192e+03	3.221465e+03	0	2.093478e-03
3.900000e+08	3.123026e+14	0.000000e+00	6.376812e-01	3.270798e+15	4.033185e+15	3.066626e+14	1.903566e+04	6.556704e+03	3.215341e+03	0	2.076955e-03
4.000000e+08	3.050297e+14	0.000000e+00	6.376812e-01	3.208406e+15	3.963926e+15	3.050927e+14	1.895871e+04	6.544347e+03	3.209281e+03	0	2.060705e-03
4.100000e+08	2.979872e+14	0.000000e+00	6.376812e-01	3.147953e+15	3.896487e+15	3.035342e+14	1.888322e+04	6.532124e+03	3.203287e+03	0	2.044722e-03
4.200000e+08	2.911653e+14	0.000000e+00	6.376812e-01	3.089358e+15	3.830826e+15	3.019869e+14	1.880914e+04	6.520041e+03	3.197362e+03	0	2.028998e-03
4.300000e+08	2.845550e+14	0.000000e+00	6.376812e-01	3.032546e+15	3.766900e+15	3.004508e+14	1.873643e+04	6.508099e+03	3.191505e+03	0	2.013526e-03
4.400000e+08	2.781474e+14	0.000000e+00	6.376812e-01	2.977442e+15	3.704664e+15	2.989256e+14	1.866505e+04	6.496301e+03	3.185720e+03	0	1.998297e-03
4.500000e+08	2.719343e+14	0.000000e+00	6.376812e-01	2.923978e+15	3.644071e+15	2.974115e+14	1.859496e+04	6.484647e+03	3.180005e+03	0	1.983306e-03
4.600000e+08	2.659079e+14	0.000000e+00	6.376812e-01	2.872088e+15	3.585075e+15	2.959082e+14	1.852612e+04	6.473140e+03	3.174362e+03	0	1.968546e-03
4.700000e+08	2.600607e+14	0.000000e+00	6.376812e-01	2.821710e+15	3.527629e+15	2.944157e+14	1.845850e+04	6.461777e+03	3.168790e+03	0	1.954009e-03
4.800000e+08	2.543854e+14	0.000000e+00	6.376812e-01	2.772783e+15	3.471687e+15	2.929339e+14	1.839205e+04	6.450560e+03	3.163289e+03	0	1.939691e-03
4.900000e+08	2.488755e+14	0.000000e+00	6.376812e-01	2.725251e+15	3.417201e+15	2.914627e+14	1.832676e+04	6.439487e+03	3.157859e+03	0	1.925584e-03
5.000000e+08	2.435243e+14	0.000000e+00	6.376812e-01	2.679060e+15	3.364128e+15	2.900020e+14	1.826257e+04	6.428558e+03	3.152499e+03	0	1.911683e-03
5.100000e+08	2.383258e+14	0.000000e+00	6.376812e-01	2.634159e+15	3.312423e+15	2.885518e+14	1.819947e+04	6.417770e+03	3.147209e+03	0	1.897982e-03
5.200000e+08	2.332741e+14	0.000000e+00	6.376812e-01	2.590498e+15	3.262041e+15	2.871119e+14	1.813742e+04	6.407123e+03	3.141988e+03	0	1.884476e-03
5.300000e+08	2.283636e+14	0.000000e+00	6.376812e-01	2.548031e+15	3.212942e+15	2.856823e+14	1.807639e+04	6.396614e+03	3.136834e+03	0	1.871159e-03
5.400000e+08	2.235891e+14	0.000000e+00	6.376812e-01	2.506714e+15	3.165084e+15	2.842628e+14	1.801636e+04	6.386242e+03	3.131748e+03	0	1.858027e-03
5.500000e+08	2.189454e+14	0.000000e+00	6.376812e-01	2.466503e+15	3.118426e+15	2.828535e+14	1.795729e+04	6.376004e+03	3.126728e+03	0	1.845074e-03
5.600000e+08	2.144277e+14	0.000000e+00	6.376812e-01	2.427359e+15	3.072930e+15	2.814542e+14	1.789917e+04	6.365900e+03	3.121772e+03	0	1.832295e-03
5.700000e+08	2.100314e+14	0.000000e+00	6.376812e-01	2.389242e+15	3.028559e+15	2.800648e+14	1.784196e+04	6.355926e+03	3.116881e+03	0	1.819686e-03
5.800000e+08	2.057521e+14	0.000000e+00	6.376812e-01	2.352117e+15	2.985276e+15	2.786853e+14	1.778565e+04	6.346080e+03	3.112053e+03	0	1.807243e-03
5.900000e+08	2.015857e+14	0.000000e+00	6.376812e-01	2.315947e+15	2.943046e+15	2.773155e+14	1.773021e+04	6.336361e+03	3.107287e+03	0	1.794961e-03
6.000000e+08	1.975280e+14	0.000000e+00	6.376812e-01	2.280698e+15	2.901835e+15	2.759555e+14	1.767562e+04	6.326766e+03	3.102582e+03	0	1.782836e-03
6.100000e+08	1.935753e+14	0.000000e+00	6.376812e-01	2.246340e+15	2.861611e+15	2.746051e+14	1.762186e+04	6.317293e+03	3.097936e+03	0	1.770863e-03
6.200000e+08	1.897238e+14	0.000000e+00	6.376812e-01	2.212840e+15	2.822342e+15	2.732642e+14	1.756890e+04	6.307939e+03	3.093349e+03	0	1.759040e-03
6.300000e+08	1.859701e+14	0.000000e+00	6.376812e-01	2.180169e+15	2.783998e+15	2.719328e+14	1.751673e+04	6.298704e+03	3.088820e+03	0	1.747362e-03
6.400000e+08	1.823108e+14	0.000000e+00	6.376812e-01	2.148300e+15	2.746549e+15	2.706107e+14	1.746532e+04	6.289583e+03	3.084348e+03	0	1.735825e-03
6.500000e+08	1.787427e+14	0.000000e+00	6.376812e-01	2.117205e+15	2.709967e+15	2.692980e+14	1.741466e+04	6.280576e+03	3.079930e+03	0	1.724426e-03
6.600000e+08	1.752627e+14	0.000000e+00	6.376812e-01	2.086858e+15	2.674225e+15	2.679945e+14	1.736473e+04	6.271680e+03	3.075568e+03	0	1.713161e-03
6.700000e+08	1.718679e+14	0.000000e+00	6.376812e-01	2.057234e+15	2.639296e+15	2.667002e+14	1.731552e+04	6.262892e+03	3.071259e+03	0	1.702028e-03
6.800000e+08	1.685554e+14	0.000000e+00	6.376812e-01	2.028311e+15	2.605156e+15	2.654150e+14	1.726700e+04	6.254212e+03	3.067002e+03	0	1.691022e-03
6.900000e+08	1.653225e+14	0.000000e+00	6.376812e-01	2.000064e+15	2.571780e+15	2.641388e+14	1.721915e+04	6.245637e+03	3.062797e+03	0	1.680141e-03
7.000000e+08	1.621667e+14	0.000000e+00	6.376812e-01	1.972473e+15	2.539145e+15	2.628715e+14	1.717198e+04	6.237164e+03	3.058642e+03	0	1.669382e-03
7.100000e+08	1.590855e+14	0.000000e+00	6.376812e-01	1.945516e+15	2.507227e+15	2.616131e+14	1.712545e+04	6.228793e+03	3.054536e+03	0	1.658741e-03
7.200000e+08	1.560764e+14	0.000000e+00	6.376812e-01	1.919173e+15	2.476006e+15	2.603635e+14	1.707955e+04	6.220520e+03	3.050480e+03	0	1.648216e-03
7.300000e+08	1.531372e+14	0.000000e+00	6.376812e-01	1.893424e+15	2.445460e+15	2.591227e+14	1.703427e+04	6.212344e+03	3.046470e+03	0	1.637804e-03
7.400000e+08	1.502656e+14	0.000000e+00	6.376812e-01	1.868253e+15	2.415570e+15	2.578905e+14	1.698960e+04	6.204264e+03	3.042508e+03	0	1.627502e-03
7.500000e+08	1.474596e+14	0.000000e+00	6.376812e-01	1.843639e+15	2.386315e+15	2.566669e+14	1.694551e+04	6.196277e+03	3.038591e+03	0	1.617308e-03
7.600000e+08	1.447171e+14	0.000000e+00	6.376812e-01	1.819567e+15	2.357677e+15	2.554518e+14	1.690201e+04	6.188382e+03	3.034720e+03	0	1.607219e-03
7.700000e+08	1.420362e+14	0.000000e+00	6.376812e-01	1.796021e+15	2.329638e+15	2.542451e+14	1.685907e+04	6.180577e+03	3.030892e+03	0	1.597233e-03
7.800000e+08	1.394150e+14	0.000000e+00	6.376812e-01	1.772983e+15	2.302180e+15	2.530469e+14	1.681669e+04	6.172859e+03	3.027107e+03	0	1.587346e-03
7.900000e+08	1.368517e+14	0.000000e+00	6.376812e-01	1.750439e+15	2.275287e+15	2.518570e+14	1.677484e+04	6.165229e+03	3.023365e+03	0	1.577557e-03
8.000000e+08	1.343445e+14	0.000000e+00	6.376812e-01	1.728375e+15	2.248943e+15	2.506753e+14	1.673353e+04	6.157683e+03	3.019665e+03	0	1.567864e-03
8.100000e+08	1.318918e+14	0.000000e+00	6.376812e-01	1.706775e+15	2.223131e+15	2.495018e+14	1.669273e+04	6.150221e+03	3.016006e+03	0	1.558264e-03
8.200000e+08	1.294920e+14	0.000000e+00	6.376812e-01	1.685628e+15	2.197838e+15	2.483365e+14	1.665245e+04	6.142840e+03	3.012386e+03	0	1.548755e-03
8.300000e+08	1.271435e+14	0.000000e+00	6.376812e-01	1.664919e+15	2.173047e+15	2.471792e+14	1.661265e+04	6.135540e+03	3.008806e+03	0	1.539335e-03
8.400000e+08	1.248449e+14	0.000000e+00	6.376812e-01	1.644636e+15	2.148746e+15	2.460298e+14	1.657335e+04	6.128318e+03	3.005265e+03	0	1.530002e-03
8.500000e+08	1.225947e+14	0.000000e+00	6.376812e-01	1.624767e+15	2.124921e+15	2.448885e+14	1.653452e+04	6.121174e+03	3.001761e+03	0	1.520754e-03
8.600000e+08	1.203914e+14	0.000000e+00	6.376812e-01	1.605300e+15	2.101558e+15	2.437550e+14	1.649617e+04	6.114106e+03	2.998295e+03	0	1.511589e-03
8.700000e+08	1.182339e+14	0.000000e+00	6.376812e-01	1.586224e+15	2.078646e+15	2.426293e+14	1.645826e+04	6.107112e+03	2.994865e+03	0	1.502504e-03
8.800000e+08	1.161207e+14	0.000000e+00	6.376812e-01	1.567528e+15	2.056171e+15	2.415113e+14	1.642081e+04	6.100191e+03	2.991472e+03	0	1.493499e-03
8.900000e+08	1.140507e+14	0.000000e+00	6.376812e-01	1.549202e+15	2.034123e+15	2.404010e+14	1.638380e+04	6.093342e+03	2.988113e+03	0	1.484571e-03
9.000000e+08	1.120227e+14	0.000000e+00	6.376812e-01	1.531235e+15	2.012489e+15	2.392983e+14	1.634722e+04	6.086564e+03	2.984789e+03	0	1.475719e-03
9.100000e+08	1.100354e+14	0.000000e+00	6.376812e-01	1.513618e+15	1.991259e+15	2.382032e+14	1.631106e+04	6.079855e+03	2.981499e+03	0	1.466941e-03
9.200000e+08	1.080878e+14	0.000000e+00	6.376812e-01	1.496341e+15	1.970423e+15	2.371156e+14	1.627531e+04	6.073215e+03	2.978243e+03	0	1.458235e-03
9.300000e+08	1.061789e+14	0.000000e+00	6.376812e-01	1.479395e+15	1.949969e+15	2.360355e+14	1.623997e+04	6.066641e+03	2.975019e+03	0	1.449599e-03
9.400000e+08	1.043075e+14	0.000000e+00	6.376812e-01	1.462771e+15	1.929888e+15	2.349627e+14	1.620503e+04	6.060133e+03	2.971827e+03	0	1.441032e-03
9.500000e+08	1.024726e+14	0.000000e+00	6.376812e-01	1.446461e+15	1.910171e+15	2.338972e+14	1.617048e+04	6.053689e+03	2.968668e+03	0	1.432532e-03
9.600000e+08	1.006734e+14	0.000000e+00	6.376812e-01	1.430457e+15	1.890808e+15	2.328390e+14	1.613632e+04	6.047309e+03	2.965539e+03	0	1.424098e-03
9.700000e+08	9.890879e+13	0.000000e+00	6.376812e-01	1.414750e+15	1.871789e+15	2.317880e+14	1.610253e+04	6.040991e+03	2.962441e+03	0	1.415729e-03
9.800000e+08	9.717794e+13	0.000000e+00	6.376812e-01	1.399334e+15	1.853108e+15	2.307442e+14	1.606911e+04	6.034735e+03	2.959373e+03	0	1.407422e-03
9.900000e+08	9.547996e+13	0.000000e+00	6.376812e-01	1.384200e+15	1.834754e+15	2.297075e+14	1.603606e+04	6.028539e+03	2.956334e+03	0	1.399177e-03
1.000000e+09	9.381400e+13	0.000000e+00	6.376812e-01	1.369341e+15	1.816720e+15	2.286778e+14	1.600336e+04	6.022402e+03	2.953325e+03	0	1.390991e-03
1.010000e+09	9.217924e+13	0.000000e+00	6.376812e-01	1.354751e+15	1.798999e+15	2.276550e+14	1.597101e+04	6.016323e+03	2.950344e+03	0	1.382864e-03
1.020000e+09	9.057488e+13	0.000000e+00	6.376812e-01	1.340422e+15	1.781581e+15	2.266392e+14	1.593900e+04	6.010302e+03	2.947391e+03	0	1.374794e-03
1.030000e+09	8.900016e+13	0.000000e+00	6.376812e-01	1.326349e+15	1.764461e+15	2.256303e+14	1.590733e+04	6.004337e+03	2.944466e+03	0	1.366780e-03
1.040000e+09	8.745434e+13	0.000000e+00	6.376812e-01	1.312524e+15	1.747630e+15	2.246282e+14	1.587600e+04	5.998427e+03	2.941568e+03	0	1.358821e-03
1.050000e+09	8.593668e+13	0.000000e+00	6.376812e-01	1.298942e+15	1.731082e+15	2.236329e+14	1.584498e+04	5.992572e+03	2.938696e+03	0	1.350915e-03
1.060000e+09	8.444650e+13	0.000000e+00	6.376812e-01	1.285597e+15	1.714810e+15	2.226443e+14	1.581429e+04	5.986771e+03	2.935851e+03	0	1.343061e-03
1.070000e+09	8.298311e+13	0.000000e+00	6.376812e-01	1.272483e+15	1.698808e+15	2.216623e+14	1.578391e+04	5.981022e+03	2.933032e+03	0	1.335258e-03
1.080000e+09	8.154587e+13	0.000000e+00	6.376812e-01	1.259594e+15	1.683069e+15	2.206870e+14	1.575384e+04	5.975325e+03	2.930239e+03	0	1.327504e-03
1.090000e+09	8.013414e+13	0.000000e+00	6.376812e-01	1.246925e+15	1.667587e+15	2.197182e+14	1.572408e+04	5.969679e+03	2.927470e+03	0	1.319799e-03
1.100000e+09	7.874731e+13	0.000000e+00	6.376812e-01	1.234472e+15	1.652356e+15	2.187559e+14	1.569461e+04	5.964084e+03	2.924726e+03	0	1.312141e-03
1.110000e+09	7.738476e+13	0.000000e+00	6.376812e-01	1.222228e+15	1.637371e+15	2.178000e+14	1.566544e+04	5.958538e+03	2.922006e+03	0	1.304529e-03
1.120000e+09	7.604594e+13	0.000000e+00	6.376812e-01	1.210189e+15	1.622625e+15	2.168506e+14	1.563655e+04	5.953041e+03	2.919311e+03	0	1.296962e-03
1.130000e+09	7.473028e+13	0.000000e+00	6.376812e-01	1.198350e+15	1.608113e+15	2.159075e+14	1.560795e+04	5.947591e+03	2.916638e+03	0	1.289439e-03
1.140000e+09	7.343722e+13	0.000000e+00	6.376812e-01	1.186706e+15	1.593830e+15	2.149707e+14	1.557963e+04	5.942189e+03	2.913989e+03	0	1.281958e-03
1.150000e+09	7.216626e+13	0.000000e+00	6.376812e-01	1.175254e+15	1.579772e+15	2.140402e+14	1.555158e+04	5.936834e+03	2.911363e+03	0	1.274520e-03
1.160000e+09	7.091686e+13	0.000000e+00	6.376812e-01	1.163988e+15	1.565932e+15	2.131159e+14	1.552380e+04	5.931524e+03	2.908759e+03	0	1.267122e-03
1.170000e+09	6.968854e+13	0.000000e+00	6.376812e-01	1.152905e+15	1.552306e+15	2.121978e+14	1.549629e+04	5.926259e+03	2.906177e+03	0	1.259763e-03
1.180000e+09	6.848081e+13	0.000000e+00	6.376812e-01	1.142000e+15	1.538889e+15	2.112857e+14	1.546904e+04	5.921038e+03	2.903617e+03	0	1.252443e-03
1.190000e+09	6.729321e+13	0.000000e+00	6.376812e-01	1.131269e+15	1.525677e+15	2.103797e+14	1.544204e+04	5.915861e+03	2.901078e+03	0	1.245161e-03
1.200000e+09	6.612527e+13	0.000000e+00	6.376812e-01	1.120709e+15	1.512665e+15	2.094798e+14	1.541530e+04	5.910728e+03	2.898561e+03	0	1.237915e-03
1.210000e+09	6.497656e+13	0.000000e+00	6.376812e-01	1.110315e+15	1.499850e+15	2.085858e+14	1.538880e+04	5.905636e+03	2.896064e+03	0	1.230705e-03
1.220000e+09	6.384665e+13	0.000000e+00	6.376812e-01	1.100084e+15	1.487226e+15	2.076977e+14	1.536256e+04	5.900587e+03	2.893588e+03	0	1.223530e-03
1.230000e+09	6.273511e+13	0.000000e+00	6.376812e-01	1.090013e+15	1.474789e+15	2.068155e+14	1.533655e+04	5.895579e+03	2.891132e+03	0	1.216388e-03
1.240000e+09	6.164155e+13	0.000000e+00	6.376812e-01	1.080097e+15	1.462537e+15	2.059391e+14	1.531078e+04	5.890611e+03	2.888696e+03	0	1.209278e-03
1.250000e+09	6.056556e+13	0.000000e+00	6.376812e-01	1.070334e+15	1.450464e+15	2.050685e+14	1.528524e+04	5.885683e+03	2.886279e+03	0	1.202201e-03
1.260000e+09	5.950677e+13	0.000000e+00	6.376812e-01	1.060721e+15	1.438567e+15	2.042037e+14	1.525994e+04	5.880795e+03	2.883882e+03	0	1.195154e-03
1.270000e+09	5.846479e+13	0.000000e+00	6.376812e-01	1.051253e+15	1.426843e+15	2.033445e+14	1.523486e+04	5.875946e+03	2.881504e+03	0	1.188137e-03
1.280000e+09	5.743928e+13	0.000000e+00	6.376812e-01	1.041929e+15	1.415287e+15	2.024910e+14	1.521000e+04	5.871134e+03	2.879145e+03	0	1.181149e-03
1.290000e+09	5.642987e+13	0.000000e+00	6.376812e-01	1.032745e+15	1.403897e+15	2.016431e+14	1.518536e+04	5.866361e+03	2.876804e+03	0	1.174189e-03
1.300000e+09	5.543622e+13	0.000000e+00	6.376812e-01	1.023697e+15	1.392669e+15	2.008008e+14	1.516094e+04	5.861625e+03	2.874481e+03	0	1.167257e-03
1.310000e+09	5.445800e+13	0.000000e+00	6.376812e-01	1.014784e+15	1.381599e+15	1.999640e+14	1.513674e+04	5.856925e+03	2.872177e+03	0	1.160350e-03
1.320000e+09	5.349489e+13	0.000000e+00	6.376812e-01	1.006003e+15	1.370685e+15	1.991327e+14	1.511274e+04	5.852262e+03	2.869890e+03	0	1.153469e-03
1.330000e+09	5.254655e+13	0.000000e+00	6.376812e-01	9.973500e+14	1.359924e+15	1.983068e+14	1.508895e+04	5.847635e+03	2.867621e+03	0	1.146612e-03
1.340000e+09	5.161270e+13	0.000000e+00	6.376812e-01	9.888233e+14	1.349311e+15	1.974863e+14	1.506537e+04	5.843042e+03	2.865369e+03	0	1.139779e-03
1.350000e+09	5.069303e+13	0.000000e+00	6.376812e-01	9.804202e+14	1.338846e+15	1.966712e+14	1.504198e+04	5.838485e+03	2.863134e+03	0	1.132969e-03
1.360000e+09	4.978724e+13	0.000000e+00	6.376812e-01	9.721381e+14	1.328523e+15	1.958614e+14	1.501880e+04	5.833962e+03	2.860915e+03	0	1.126180e-03
