#t		Qconv[W]	Ri[Rp]		R*[Rp]		Qc[W]		Qm[W]		Qr[W]		Tcmb[K]		Tl[K]		Tup[K]		RiFlag		Bs[T]
0.000000e+00	1.059523e+15	0.000000e+00	6.376810e-01	9.478076e+15	2.557277e+15	4.270891e+14	2.593797e+04	6.161999e+03	2.950885e+03	0	3.112493e-03
1.000000e+07	1.040157e+15	0.000000e+00	6.376810e-01	9.319402e+15	3.088175e+15	4.247227e+14	2.575308e+04	6.342317e+03	3.037237e+03	0	3.093413e-03
2.000000e+07	1.019645e+15	0.000000e+00	6.376810e-01	9.152039e+15	3.624958e+15	4.223740e+14	2.557124e+04	6.504837e+03	3.115065e+03	0	3.072943e-03
3.000000e+07	9.981809e+14	0.000000e+00	6.376810e-01	8.977499e+15	4.149166e+15	4.200428e+14	2.539265e+04	6.649422e+03	3.184304e+03	0	3.051228e-03
4.000000e+07	9.759744e+14	0.000000e+00	6.376810e-01	8.797402e+15	4.644774e+15	4.177291e+14	2.521742e+04	6.776419e+03	3.245121e+03	0	3.028431e-03
5.000000e+07	9.532365e+14	0.000000e+00	6.376810e-01	8.613382e+15	5.099304e+15	4.154326e+14	2.504568e+04	6.886586e+03	3.297878e+03	0	3.004727e-03
6.000000e+07	9.301690e+14	0.000000e+00	6.376810e-01	8.426999e+15	5.504266e+15	4.131533e+14	2.487749e+04	6.980988e+03	3.343086e+03	0	2.980292e-03
7.000000e+07	9.069567e+14	0.000000e+00	6.376810e-01	8.239681e+15	5.855029e+15	4.108909e+14	2.471292e+04	7.060902e+03	3.381356e+03	0	2.955292e-03
8.000000e+07	8.837631e+14	0.000000e+00	6.376810e-01	8.052690e+15	6.150293e+15	4.086453e+14	2.455197e+04	7.127713e+03	3.413350e+03	0	2.929882e-03
9.000000e+07	8.607279e+14	0.000000e+00	6.376810e-01	7.867103e+15	6.391378e+15	4.064165e+14	2.439463e+04	7.182840e+03	3.439750e+03	0	2.904202e-03
1.000000e+08	8.379668e+14	0.000000e+00	6.376810e-01	7.683811e+15	6.581464e+15	4.042042e+14	2.424090e+04	7.227669e+03	3.461218e+03	0	2.878373e-03
1.100000e+08	8.155732e+14	0.000000e+00	6.376810e-01	7.503532e+15	6.724912e+15	4.020083e+14	2.409071e+04	7.263510e+03	3.478381e+03	0	2.852501e-03
1.200000e+08	7.936201e+14	0.000000e+00	6.376810e-01	7.326827e+15	6.826691e+15	3.998286e+14	2.394402e+04	7.291573e+03	3.491820e+03	0	2.826674e-03
1.300000e+08	7.721627e+14	0.000000e+00	6.376810e-01	7.154117e+15	6.891955e+15	3.976652e+14	2.380076e+04	7.312952e+03	3.502058e+03	0	2.800966e-03
1.400000e+08	7.512408e+14	0.000000e+00	6.376810e-01	6.985707e+15	6.925741e+15	3.955177e+14	2.366084e+04	7.328618e+03	3.509560e+03	0	2.775436e-03
1.500000e+08	7.308818e+14	0.000000e+00	6.376810e-01	6.821802e+15	6.932775e+15	3.933861e+14	2.352420e+04	7.339427e+03	3.514737e+03	0	2.750134e-03
1.600000e+08	7.111023e+14	0.000000e+00	6.376810e-01	6.662527e+15	6.917365e+15	3.912703e+14	2.339073e+04	7.346124e+03	3.517944e+03	0	2.725099e-03
1.700000e+08	6.919106e+14	0.000000e+00	6.376810e-01	6.507942e+15	6.883351e+15	3.891700e+14	2.326036e+04	7.349351e+03	3.519489e+03	0	2.700359e-03
1.800000e+08	6.733082e+14	0.000000e+00	6.376810e-01	6.358052e+15	6.834099e+15	3.870853e+14	2.313299e+04	7.349662e+03	3.519638e+03	0	2.675939e-03
1.900000e+08	6.552914e+14	0.000000e+00	6.376810e-01	6.212826e+15	6.772520e+15	3.850159e+14	2.300853e+04	7.347527e+03	3.518616e+03	0	2.651855e-03
2.000000e+08	6.378524e+14	0.000000e+00	6.376810e-01	6.072198e+15	6.701104e+15	3.829617e+14	2.288689e+04	7.343350e+03	3.516616e+03	0	2.628118e-03
2.100000e+08	6.209801e+14	0.000000e+00	6.376810e-01	5.936079e+15	6.621964e+15	3.809226e+14	2.276798e+04	7.337472e+03	3.513801e+03	0	2.604738e-03
2.200000e+08	6.046613e+14	0.000000e+00	6.376810e-01	5.804362e+15	6.536878e+15	3.788986e+14	2.265172e+04	7.330182e+03	3.510310e+03	0	2.581719e-03
2.300000e+08	5.888813e+14	0.000000e+00	6.376810e-01	5.676929e+15	6.447333e+15	3.768893e+14	2.253803e+04	7.321726e+03	3.506260e+03	0	2.559062e-03
2.400000e+08	5.736239e+14	0.000000e+00	6.376810e-01	5.553652e+15	6.354567e+15	3.748948e+14	2.242681e+04	7.312310e+03	3.501751e+03	0	2.536767e-03
2.500000e+08	5.588724e+14	0.000000e+00	6.376810e-01	5.434398e+15	6.259603e+15	3.729149e+14	2.231799e+04	7.302111e+03	3.496867e+03	0	2.514833e-03
2.600000e+08	5.446099e+14	0.000000e+00	6.376810e-01	5.319032e+15	6.163285e+15	3.709495e+14	2.221149e+04	7.291274e+03	3.491677e+03	0	2.493255e-03
2.700000e+08	5.308190e+14	0.000000e+00	6.376810e-01	5.207416e+15	6.066305e+15	3.689985e+14	2.210723e+04	7.279927e+03	3.486243e+03	0	2.472030e-03
2.800000e+08	5.174825e+14	0.000000e+00	6.376810e-01	5.099415e+15	5.969223e+15	3.670617e+14	2.200515e+04	7.268172e+03	3.480614e+03	0	2.451151e-03
2.900000e+08	5.045836e+14	0.000000e+00	6.376810e-01	4.994895e+15	5.872498e+15	3.651390e+14	2.190517e+04	7.256101e+03	3.474833e+03	0	2.430613e-03
3.000000e+08	4.921055e+14	0.000000e+00	6.376810e-01	4.893723e+15	5.776494e+15	3.632304e+14	2.180723e+04	7.243786e+03	3.468936e+03	0	2.410410e-03
3.100000e+08	4.800321e+14	0.000000e+00	6.376810e-01	4.795771e+15	5.681504e+15	3.613357e+14	2.171126e+04	7.231292e+03	3.462953e+03	0	2.390534e-03
3.200000e+08	4.683476e+14	0.000000e+00	6.376810e-01	4.700915e+15	5.587760e+15	3.594547e+14	2.161720e+04	7.218672e+03	3.456909e+03	0	2.370979e-03
3.300000e+08	4.570368e+14	0.000000e+00	6.376810e-01	4.609033e+15	5.495440e+15	3.575875e+14	2.152498e+04	7.205970e+03	3.450826e+03	0	2.351736e-03
3.400000e+08	4.460848e+14	0.000000e+00	6.376810e-01	4.520010e+15	5.404682e+15	3.557338e+14	2.143456e+04	7.193225e+03	3.444723e+03	0	2.332799e-03
3.500000e+08	4.354775e+14	0.000000e+00	6.376810e-01	4.433733e+15	5.315589e+15	3.538935e+14	2.134587e+04	7.180467e+03	3.438613e+03	0	2.314160e-03
3.600000e+08	4.252013e+14	0.000000e+00	6.376810e-01	4.350094e+15	5.228235e+15	3.520666e+14	2.125887e+04	7.167723e+03	3.432510e+03	0	2.295812e-03
3.700000e+08	4.152431e+14	0.000000e+00	6.376810e-01	4.268990e+15	5.142671e+15	3.502529e+14	2.117350e+04	7.155015e+03	3.426425e+03	0	2.277748e-03
3.800000e+08	4.055903e+14	0.000000e+00	6.376810e-01	4.190321e+15	5.058927e+15	3.484523e+14	2.108971e+04	7.142363e+03	3.420366e+03	0	2.259960e-03
3.900000e+08	3.962309e+14	0.000000e+00	6.376810e-01	4.113992e+15	4.977019e+15	3.466648e+14	2.100745e+04	7.129781e+03	3.414341e+03	0	2.242441e-03
4.000000e+08	3.871535e+14	0.000000e+00	6.376810e-01	4.039913e+15	4.896951e+15	3.448901e+14	2.092669e+04	7.117283e+03	3.408355e+03	0	2.225184e-03
4.100000e+08	3.783469e+14	0.000000e+00	6.376810e-01	3.967996e+15	4.818714e+15	3.431283e+14	2.084737e+04	7.104878e+03	3.402415e+03	0	2.208182e-03
4.200000e+08	3.698007e+14	0.000000e+00	6.376810e-01	3.898157e+15	4.742294e+15	3.413792e+14	2.076945e+04	7.092575e+03	3.396523e+03	0	2.191429e-03
4.300000e+08	3.615048e+14	0.000000e+00	6.376810e-01	3.830318e+15	4.667667e+15	3.396426e+14	2.069290e+04	7.080382e+03	3.390684e+03	0	2.174918e-03
4.400000e+08	3.534496e+14	0.000000e+00	6.376810e-01	3.764402e+15	4.594807e+15	3.379186e+14	2.061767e+04	7.068303e+03	3.384900e+03	0	2.158642e-03
4.500000e+08	3.456259e+14	0.000000e+00	6.376810e-01	3.700337e+15	4.523682e+15	3.362069e+14	2.054373e+04	7.056344e+03	3.379173e+03	0	2.142596e-03
4.600000e+08	3.380250e+14	0.000000e+00	6.376810e-01	3.638053e+15	4.454257e+15	3.345075e+14	2.047105e+04	7.044508e+03	3.373505e+03	0	2.126773e-03
4.700000e+08	3.306384e+14	0.000000e+00	6.376810e-01	3.577483e+15	4.386496e+15	3.328204e+14	2.039957e+04	7.032797e+03	3.367896e+03	0	2.111167e-03
4.800000e+08	3.234583e+14	0.000000e+00	6.376810e-01	3.518565e+15	4.320361e+15	3.311453e+14	2.032929e+04	7.021212e+03	3.362349e+03	0	2.095773e-03
4.900000e+08	3.164768e+14	0.000000e+00	6.376810e-01	3.461237e+15	4.255811e+15	3.294822e+14	2.026015e+04	7.009756e+03	3.356863e+03	0	2.080585e-03
5.000000e+08	3.096867e+14	0.000000e+00	6.376810e-01	3.405442e+15	4.192808e+15	3.278309e+14	2.019214e+04	6.998430e+03	3.351438e+03	0	2.065598e-03
5.100000e+08	3.030811e+14	0.000000e+00	6.376810e-01	3.351124e+15	4.131310e+15	3.261915e+14	2.012521e+04	6.987232e+03	3.346076e+03	0	2.050806e-03
5.200000e+08	2.966532e+14	0.000000e+00	6.376810e-01	3.298231e+15	4.071276e+15	3.245638e+14	2.005935e+04	6.976163e+03	3.340775e+03	0	2.036204e-03
5.300000e+08	2.903967e+14	0.000000e+00	6.376810e-01	3.246711e+15	4.012668e+15	3.229477e+14	1.999452e+04	6.965223e+03	3.335536e+03	0	2.021787e-03
5.400000e+08	2.843054e+14	0.000000e+00	6.376810e-01	3.196516e+15	3.955445e+15	3.213431e+14	1.993070e+04	6.954411e+03	3.330359e+03	0	2.007551e-03
5.500000e+08	2.783735e+14	0.000000e+00	6.376810e-01	3.147601e+15	3.899567e+15	3.197499e+14	1.986786e+04	6.943726e+03	3.325242e+03	0	1.993490e-03
5.600000e+08	2.725955e+14	0.000000e+00	6.376810e-01	3.099920e+15	3.844997e+15	3.181681e+14	1.980598e+04	6.933167e+03	3.320185e+03	0	1.979601e-03
5.700000e+08	2.669659e+14	0.000000e+00	6.376810e-01	3.053432e+15	3.791697e+15	3.165975e+14	1.974503e+04	6.922732e+03	3.315188e+03	0	1.965879e-03
5.800000e+08	2.614797e+14	0.000000e+00	6.376810e-01	3.008095e+15	3.739629e+15	3.150380e+14	1.968499e+04	6.912420e+03	3.310250e+03	0	1.952319e-03
5.900000e+08	2.561320e+14	0.000000e+00	6.376810e-01	2.963870e+15	3.688758e+15	3.134896e+14	1.962584e+04	6.902231e+03	3.305370e+03	0	1.938918e-03
6.000000e+08	2.509180e+14	0.000000e+00	6.376810e-01	2.920721e+15	3.639049e+15	3.119521e+14	1.956755e+04	6.892161e+03	3.300548e+03	0	1.925671e-03
6.100000e+08	2.458333e+14	0.000000e+00	6.376810e-01	2.878611e+15	3.590467e+15	3.104255e+14	1.951011e+04	6.882210e+03	3.295783e+03	0	1.912575e-03
6.200000e+08	2.408735e+14	0.000000e+00	6.376810e-01	2.837507e+15	3.542980e+15	3.089097e+14	1.945349e+04	6.872376e+03	3.291073e+03	0	1.899625e-03
6.300000e+08	2.360346e+14	0.000000e+00	6.376810e-01	2.797374e+15	3.496555e+15	3.074046e+14	1.939768e+04	6.862656e+03	3.286419e+03	0	1.886818e-03
6.400000e+08	2.313125e+14	0.000000e+00	6.376810e-01	2.758183e+15	3.451161e+15	3.059102e+14	1.934265e+04	6.853050e+03	3.281819e+03	0	1.874151e-03
6.500000e+08	2.267035e+14	0.000000e+00	6.376810e-01	2.719903e+15	3.406768e+15	3.044262e+14	1.928839e+04	6.843556e+03	3.277272e+03	0	1.861620e-03
6.600000e+08	2.222039e+14	0.000000e+00	6.376810e-01	2.682504e+15	3.363346e+15	3.029527e+14	1.923488e+04	6.834171e+03	3.272777e+03	0	1.849221e-03
6.700000e+08	2.178102e+14	0.000000e+00	6.376810e-01	2.645958e+15	3.320868e+15	3.014895e+14	1.918210e+04	6.824894e+03	3.268335e+03	0	1.836951e-03
6.800000e+08	2.135191e+14	0.000000e+00	6.376810e-01	2.610240e+15	3.279306e+15	3.000367e+14	1.913004e+04	6.815723e+03	3.263943e+03	0	1.824808e-03
6.900000e+08	2.093272e+14	0.000000e+00	6.376810e-01	2.575323e+15	3.238633e+15	2.985940e+14	1.907868e+04	6.806656e+03	3.259601e+03	0	1.812787e-03
7.000000e+08	2.052316e+14	0.000000e+00	6.376810e-01	2.541183e+15	3.198823e+15	2.971614e+14	1.902800e+04	6.797693e+03	3.255309e+03	0	1.800886e-03
7.100000e+08	2.012292e+14	0.000000e+00	6.376810e-01	2.507795e+15	3.159852e+15	2.957389e+14	1.897799e+04	6.788830e+03	3.251064e+03	0	1.789102e-03
7.200000e+08	1.973172e+14	0.000000e+00	6.376810e-01	2.475137e+15	3.121696e+15	2.943263e+14	1.892864e+04	6.780066e+03	3.246867e+03	0	1.777433e-03
7.300000e+08	1.934928e+14	0.000000e+00	6.376810e-01	2.443187e+15	3.084332e+15	2.929236e+14	1.887992e+04	6.771399e+03	3.242717e+03	0	1.765874e-03
7.400000e+08	1.897534e+14	0.000000e+00	6.376810e-01	2.411924e+15	3.047736e+15	2.915306e+14	1.883183e+04	6.762828e+03	3.238613e+03	0	1.754425e-03
7.500000e+08	1.860963e+14	0.000000e+00	6.376810e-01	2.381327e+15	3.011889e+15	2.901474e+14	1.878436e+04	6.754352e+03	3.234553e+03	0	1.743081e-03
7.600000e+08	1.825192e+14	0.000000e+00	6.376810e-01	2.351378e+15	2.976767e+15	2.887738e+14	1.873748e+04	6.745967e+03	3.230538e+03	0	1.731840e-03
7.700000e+08	1.790198e+14	0.000000e+00	6.376810e-01	2.322056e+15	2.942353e+15	2.874098e+14	1.869119e+04	6.737674e+03	3.226567e+03	0	1.720700e-03
7.800000e+08	1.755956e+14	0.000000e+00	6.376810e-01	2.293344e+15	2.908625e+15	2.860552e+14	1.864548e+04	6.729469e+03	3.222638e+03	0	1.709659e-03
7.900000e+08	1.722445e+14	0.000000e+00	6.376810e-01	2.265225e+15	2.875564e+15	2.847101e+14	1.860033e+04	6.721352e+03	3.218751e+03	0	1.698713e-03
8.000000e+08	1.689645e+14	0.000000e+00	6.376810e-01	2.237681e+15	2.843154e+15	2.833743e+14	1.855573e+04	6.713322e+03	3.214905e+03	0	1.687861e-03
8.100000e+08	1.657535e+14	0.000000e+00	6.376810e-01	2.210696e+15	2.811375e+15	2.820477e+14	1.851167e+04	6.705376e+03	3.211100e+03	0	1.677100e-03
8.200000e+08	1.626094e+14	0.000000e+00	6.376810e-01	2.184255e+15	2.780212e+15	2.807304e+14	1.846814e+04	6.697513e+03	3.207334e+03	0	1.666429e-03
8.300000e+08	1.595305e+14	0.000000e+00	6.376810e-01	2.158342e+15	2.749646e+15	2.794221e+14	1.842513e+04	6.689732e+03	3.203608e+03	0	1.655844e-03
8.400000e+08	1.565149e+14	0.000000e+00	6.376810e-01	2.132943e+15	2.719664e+15	2.781229e+14	1.838262e+04	6.682031e+03	3.199920e+03	0	1.645344e-03
8.500000e+08	1.535609e+14	0.000000e+00	6.376810e-01	2.108044e+15	2.690248e+15	2.768326e+14	1.834062e+04	6.674409e+03	3.196270e+03	0	1.634927e-03
8.600000e+08	1.506666e+14	0.000000e+00	6.376810e-01	2.083630e+15	2.661384e+15	2.755512e+14	1.829910e+04	6.666864e+03	3.192657e+03	0	1.624590e-03
8.700000e+08	1.478306e+14	0.000000e+00	6.376810e-01	2.059690e+15	2.633058e+15	2.742787e+14	1.825807e+04	6.659396e+03	3.189080e+03	0	1.614332e-03
8.800000e+08	1.450512e+14	0.000000e+00	6.376810e-01	2.036210e+15	2.605255e+15	2.730149e+14	1.821750e+04	6.652002e+03	3.185540e+03	0	1.604151e-03
8.900000e+08	1.423269e+14	0.000000e+00	6.376810e-01	2.013179e+15	2.577963e+15	2.717598e+14	1.817739e+04	6.644682e+03	3.182035e+03	0	1.594045e-03
9.000000e+08	1.396562e+14	0.000000e+00	6.376810e-01	1.990583e+15	2.551167e+15	2.705133e+14	1.813774e+04	6.637435e+03	3.178564e+03	0	1.584011e-03
9.100000e+08	1.370377e+14	0.000000e+00	6.376810e-01	1.968413e+15	2.524856e+15	2.692753e+14	1.809852e+04	6.630259e+03	3.175127e+03	0	1.574049e-03
9.200000e+08	1.344699e+14	0.000000e+00	6.376810e-01	1.946656e+15	2.499017e+15	2.680458e+14	1.805975e+04	6.623152e+03	3.171724e+03	0	1.564156e-03
9.300000e+08	1.319517e+14	0.000000e+00	6.376810e-01	1.925302e+15	2.473639e+15	2.668248e+14	1.802140e+04	6.616115e+03	3.168354e+03	0	1.554330e-03
9.400000e+08	1.294816e+14	0.000000e+00	6.376810e-01	1.904341e+15	2.448709e+15	2.656121e+14	1.798347e+04	6.609145e+03	3.165016e+03	0	1.544570e-03
9.500000e+08	1.270585e+14	0.000000e+00	6.376810e-01	1.883762e+15	2.424217e+15	2.644076e+14	1.794595e+04	6.602242e+03	3.161710e+03	0	1.534874e-03
9.600000e+08	1.246811e+14	0.000000e+00	6.376810e-01	1.863557e+15	2.400151e+15	2.632114e+14	1.790884e+04	6.595404e+03	3.158436e+03	0	1.525241e-03
9.700000e+08	1.223482e+14	0.000000e+00	6.376810e-01	1.843715e+15	2.376502e+15	2.620233e+14	1.787212e+04	6.588630e+03	3.155192e+03	0	1.515668e-03
9.800000e+08	1.200588e+14	0.000000e+00	6.376810e-01	1.824228e+15	2.353259e+15	2.608433e+14	1.783579e+04	6.581920e+03	3.151979e+03	0	1.506154e-03
9.900000e+08	1.178117e+14	0.000000e+00	6.376810e-01	1.805086e+15	2.330413e+15	2.596713e+14	1.779984e+04	6.575272e+03	3.148795e+03	0	1.496698e-03
1.000000e+09	1.156059e+14	0.000000e+00	6.376810e-01	1.786282e+15	2.307953e+15	2.585073e+14	1.776427e+04	6.568686e+03	3.145641e+03	0	1.487299e-03
1.010000e+09	1.134403e+14	0.000000e+00	6.376810e-01	1.767807e+15	2.285872e+15	2.573512e+14	1.772907e+04	6.562159e+03	3.142515e+03	0	1.477953e-03
1.020000e+09	1.113140e+14	0.000000e+00	6.376810e-01	1.749653e+15	2.264158e+15	2.562029e+14	1.769424e+04	6.555692e+03	3.139418e+03	0	1.468661e-03
1.030000e+09	1.092260e+14	0.000000e+00	6.376810e-01	1.731812e+15	2.242805e+15	2.550624e+14	1.765975e+04	6.549284e+03	3.136349e+03	0	1.459419e-03
1.040000e+09	1.071753e+14	0.000000e+00	6.376810e-01	1.714277e+15	2.221804e+15	2.539295e+14	1.762562e+04	6.542932e+03	3.133308e+03	0	1.450228e-03
1.050000e+09	1.051611e+14	0.000000e+00	6.376810e-01	1.697040e+15	2.201146e+15	2.528044e+14	1.759184e+04	6.536638e+03	3.130294e+03	0	1.441086e-03
1.060000e+09	1.031824e+14	0.000000e+00	6.376810e-01	1.680095e+15	2.180824e+15	2.516868e+14	1.755839e+04	6.530399e+03	3.127306e+03	0	1.431991e-03
1.070000e+09	1.012385e+14	0.000000e+00	6.376810e-01	1.663435e+15	2.160829e+15	2.505767e+14	1.752527e+04	6.524215e+03	3.124344e+03	0	1.422941e-03
1.080000e+09	9.932854e+13	0.000000e+00	6.376810e-01	1.647052e+15	2.141155e+15	2.494742e+14	1.749249e+04	6.518085e+03	3.121409e+03	0	1.413935e-03
1.090000e+09	9.745164e+13	0.000000e+00	6.376810e-01	1.630941e+15	2.121794e+15	2.483790e+14	1.746002e+04	6.512008e+03	3.118499e+03	0	1.404973e-03
1.100000e+09	9.560708e+13	0.000000e+00	6.376810e-01	1.615096e+15	2.102740e+15	2.472912e+14	1.742787e+04	6.505983e+03	3.115614e+03	0	1.396052e-03
1.110000e+09	9.379408e+13	0.000000e+00	6.376810e-01	1.599509e+15	2.083984e+15	2.462107e+14	1.739603e+04	6.500010e+03	3.112753e+03	0	1.387171e-03
1.120000e+09	9.201193e+13	0.000000e+00	6.376810e-01	1.584176e+15	2.065521e+15	2.451374e+14	1.736450e+04	6.494088e+03	3.109917e+03	0	1.378329e-03
1.130000e+09	9.025991e+13	0.000000e+00	6.376810e-01	1.569090e+15	2.047344e+15	2.440713e+14	1.733327e+04	6.488215e+03	3.107105e+03	0	1.369525e-03
1.140000e+09	8.853734e+13	0.000000e+00	6.376810e-01	1.554247e+15	2.029447e+15	2.430123e+14	1.730234e+04	6.482392e+03	3.104316e+03	0	1.360756e-03
1.150000e+09	8.684354e+13	0.000000e+00	6.376810e-01	1.539640e+15	2.011824e+15	2.419604e+14	1.727170e+04	6.476618e+03	3.101551e+03	0	1.352023e-03
1.160000e+09	8.517787e+13	0.000000e+00	6.376810e-01	1.525264e+15	1.994468e+15	2.409155e+14	1.724134e+04	6.470891e+03	3.098809e+03	0	1.343323e-03
1.170000e+09	8.353969e+13	0.000000e+00	6.376810e-01	1.511115e+15	1.977375e+15	2.398776e+14	1.721127e+04	6.465212e+03	3.096089e+03	0	1.334655e-03
1.180000e+09	8.192840e+13	0.000000e+00	6.376810e-01	1.497187e+15	1.960538e+15	2.388466e+14	1.718148e+04	6.459578e+03	3.093391e+03	0	1.326019e-03
1.190000e+09	8.034339e+13	0.000000e+00	6.376810e-01	1.483476e+15	1.943952e+15	2.378224e+14	1.715196e+04	6.453991e+03	3.090715e+03	0	1.317412e-03
1.200000e+09	7.878408e+13	0.000000e+00	6.376810e-01	1.469976e+15	1.927612e+15	2.368050e+14	1.712270e+04	6.448449e+03	3.088061e+03	0	1.308833e-03
1.210000e+09	7.724992e+13	0.000000e+00	6.376810e-01	1.456684e+15	1.911512e+15	2.357944e+14	1.709372e+04	6.442951e+03	3.085428e+03	0	1.300282e-03
1.220000e+09	7.574034e+13	0.000000e+00	6.376810e-01	1.443594e+15	1.895648e+15	2.347905e+14	1.706499e+04	6.437497e+03	3.082816e+03	0	1.291756e-03
1.230000e+09	7.425483e+13	0.000000e+00	6.376810e-01	1.430703e+15	1.880015e+15	2.337932e+14	1.703653e+04	6.432086e+03	3.080225e+03	0	1.283255e-03
1.240000e+09	7.279287e+13	0.000000e+00	6.376810e-01	1.418007e+15	1.864607e+15	2.328025e+14	1.700831e+04	6.426717e+03	3.077654e+03	0	1.274778e-03
1.250000e+09	7.135394e+13	0.000000e+00	6.376810e-01	1.405500e+15	1.849421e+15	2.318184e+14	1.698035e+04	6.421391e+03	3.075104e+03	0	1.266322e-03
1.260000e+09	6.993756e+13	0.000000e+00	6.376810e-01	1.393180e+15	1.834451e+15	2.308407e+14	1.695263e+04	6.416106e+03	3.072573e+03	0	1.257887e-03
1.270000e+09	6.854325e+13	0.000000e+00	6.376810e-01	1.381043e+15	1.819694e+15	2.298695e+14	1.692516e+04	6.410862e+03	3.070062e+03	0	1.249472e-03
1.280000e+09	6.717055e+13	0.000000e+00	6.376810e-01	1.369084e+15	1.805145e+15	2.289047e+14	1.689792e+04	6.405658e+03	3.067570e+03	0	1.241074e-03
1.290000e+09	6.581900e+13	0.000000e+00	6.376810e-01	1.357300e+15	1.790800e+15	2.279462e+14	1.687092e+04	6.400494e+03	3.065097e+03	0	1.232694e-03
1.300000e+09	6.448817e+13	0.000000e+00	6.376810e-01	1.345687e+15	1.776654e+15	2.269940e+14	1.684415e+04	6.395369e+03	3.062642e+03	0	1.224329e-03
1.310000e+09	6.317762e+13	0.000000e+00	6.376810e-01	1.334243e+15	1.762705e+15	2.260480e+14	1.681761e+04	6.390283e+03	3.060207e+03	0	1.215979e-03
1.320000e+09	6.188694e+13	0.000000e+00	6.376810e-01	1.322963e+15	1.748948e+15	2.251083e+14	1.679129e+04	6.385235e+03	3.057789e+03	0	1.207641e-03
1.330000e+09	6.061572e+13	0.000000e+00	6.376810e-01	1.311844e+15	1.735378e+15	2.241747e+14	1.676520e+04	6.380224e+03	3.055390e+03	0	1.199315e-03
1.340000e+09	5.936357e+13	0.000000e+00	6.376810e-01	1.300883e+15	1.721994e+15	2.232471e+14	1.673932e+04	6.375251e+03	3.053008e+03	0	1.190999e-03
1.350000e+09	5.813010e+13	0.000000e+00	6.376810e-01	1.290078e+15	1.708791e+15	2.223257e+14	1.671366e+04	6.370314e+03	3.050644e+03	0	1.182693e-03
1.360000e+09	5.691493e+13	0.000000e+00	6.376810e-01	1.279424e+15	1.695765e+15	2.214102e+14	1.668821e+04	6.365414e+03	3.048297e+03	0	1.174393e-03
