#t		Qconv[W]	Ri[Rp]		R*[Rp]		Qc[W]		Qm[W]		Qr[W]		Tcmb[K]		Tl[K]		Tup[K]		RiFlag		Bs[T]
0.000000e+00	7.892389e+14	0.000000e+00	6.350364e-01	7.349962e+15	2.311809e+15	4.500605e+14	2.497818e+04	6.031172e+03	2.975999e+03	0	2.823586e-03
1.000000e+07	7.775564e+14	0.000000e+00	6.350364e-01	7.254021e+15	2.653429e+15	4.475668e+14	2.484151e+04	6.157888e+03	3.038525e+03	0	2.809585e-03
2.000000e+07	7.652343e+14	0.000000e+00	6.350364e-01	7.153336e+15	2.994495e+15	4.450918e+14	2.470661e+04	6.274073e+03	3.095855e+03	0	2.794665e-03
3.000000e+07	7.523531e+14	0.000000e+00	6.350364e-01	7.048524e+15	3.327710e+15	4.426353e+14	2.457357e+04	6.379716e+03	3.147983e+03	0	2.778895e-03
4.000000e+07	7.389999e+14	0.000000e+00	6.350364e-01	6.940246e+15	3.646620e+15	4.401971e+14	2.444247e+04	6.474983e+03	3.194991e+03	0	2.762356e-03
5.000000e+07	7.252639e+14	0.000000e+00	6.350364e-01	6.829183e+15	3.945906e+15	4.377771e+14	2.431336e+04	6.560200e+03	3.237040e+03	0	2.745134e-03
6.000000e+07	7.112338e+14	0.000000e+00	6.350364e-01	6.716006e+15	4.221528e+15	4.353752e+14	2.418630e+04	6.635820e+03	3.274354e+03	0	2.727318e-03
7.000000e+07	6.969949e+14	0.000000e+00	6.350364e-01	6.601365e+15	4.470743e+15	4.329911e+14	2.406133e+04	6.702395e+03	3.307205e+03	0	2.708994e-03
8.000000e+07	6.826269e+14	0.000000e+00	6.350364e-01	6.485863e+15	4.692024e+15	4.306248e+14	2.393848e+04	6.760543e+03	3.335897e+03	0	2.690250e-03
9.000000e+07	6.682028e+14	0.000000e+00	6.350364e-01	6.370055e+15	4.884902e+15	4.282760e+14	2.381776e+04	6.810920e+03	3.360755e+03	0	2.671167e-03
1.000000e+08	6.537878e+14	0.000000e+00	6.350364e-01	6.254434e+15	5.049783e+15	4.259447e+14	2.369918e+04	6.854195e+03	3.382108e+03	0	2.651819e-03
1.100000e+08	6.394394e+14	0.000000e+00	6.350364e-01	6.139434e+15	5.187745e+15	4.236307e+14	2.358274e+04	6.891033e+03	3.400285e+03	0	2.632276e-03
1.200000e+08	6.252069e+14	0.000000e+00	6.350364e-01	6.025429e+15	5.300351e+15	4.213339e+14	2.346843e+04	6.922074e+03	3.415602e+03	0	2.612600e-03
1.300000e+08	6.111322e+14	0.000000e+00	6.350364e-01	5.912734e+15	5.389478e+15	4.190540e+14	2.335622e+04	6.947930e+03	3.428360e+03	0	2.592846e-03
1.400000e+08	5.972501e+14	0.000000e+00	6.350364e-01	5.801612e+15	5.457182e+15	4.167911e+14	2.324610e+04	6.969169e+03	3.438841e+03	0	2.573062e-03
1.500000e+08	5.835890e+14	0.000000e+00	6.350364e-01	5.692275e+15	5.505582e+15	4.145448e+14	2.313803e+04	6.986318e+03	3.447302e+03	0	2.553293e-03
1.600000e+08	5.701716e+14	0.000000e+00	6.350364e-01	5.584894e+15	5.536778e+15	4.123152e+14	2.303198e+04	6.999856e+03	3.453983e+03	0	2.533573e-03
1.700000e+08	5.570153e+14	0.000000e+00	6.350364e-01	5.479599e+15	5.552792e+15	4.101020e+14	2.292793e+04	7.010220e+03	3.459096e+03	0	2.513935e-03
1.800000e+08	5.441336e+14	0.000000e+00	6.350364e-01	5.376488e+15	5.555525e+15	4.079051e+14	2.282582e+04	7.017798e+03	3.462836e+03	0	2.494404e-03
1.900000e+08	5.315357e+14	0.000000e+00	6.350364e-01	5.275631e+15	5.546737e+15	4.057244e+14	2.272562e+04	7.022942e+03	3.465374e+03	0	2.475003e-03
2.000000e+08	5.192280e+14	0.000000e+00	6.350364e-01	5.177073e+15	5.528032e+15	4.035597e+14	2.262729e+04	7.025961e+03	3.466864e+03	0	2.455751e-03
2.100000e+08	5.072140e+14	0.000000e+00	6.350364e-01	5.080837e+15	5.500858e+15	4.014110e+14	2.253078e+04	7.027131e+03	3.467441e+03	0	2.436662e-03
2.200000e+08	4.954949e+14	0.000000e+00	6.350364e-01	4.986932e+15	5.466506e+15	3.992780e+14	2.243606e+04	7.026695e+03	3.467226e+03	0	2.417750e-03
2.300000e+08	4.840702e+14	0.000000e+00	6.350364e-01	4.895351e+15	5.426124e+15	3.971607e+14	2.234308e+04	7.024866e+03	3.466324e+03	0	2.399023e-03
2.400000e+08	4.729377e+14	0.000000e+00	6.350364e-01	4.806074e+15	5.380720e+15	3.950589e+14	2.225179e+04	7.021833e+03	3.464827e+03	0	2.380489e-03
2.500000e+08	4.620941e+14	0.000000e+00	6.350364e-01	4.719075e+15	5.331178e+15	3.929726e+14	2.216216e+04	7.017760e+03	3.462817e+03	0	2.362155e-03
2.600000e+08	4.515350e+14	0.000000e+00	6.350364e-01	4.634318e+15	5.278269e+15	3.909014e+14	2.207414e+04	7.012792e+03	3.460366e+03	0	2.344024e-03
2.700000e+08	4.412555e+14	0.000000e+00	6.350364e-01	4.551762e+15	5.222662e+15	3.888455e+14	2.198769e+04	7.007054e+03	3.457534e+03	0	2.326099e-03
2.800000e+08	4.312496e+14	0.000000e+00	6.350364e-01	4.471362e+15	5.164933e+15	3.868045e+14	2.190278e+04	7.000658e+03	3.454378e+03	0	2.308383e-03
2.900000e+08	4.215113e+14	0.000000e+00	6.350364e-01	4.393070e+15	5.105582e+15	3.847784e+14	2.181935e+04	6.993699e+03	3.450945e+03	0	2.290875e-03
3.000000e+08	4.120342e+14	0.000000e+00	6.350364e-01	4.316833e+15	5.045034e+15	3.827672e+14	2.173738e+04	6.986262e+03	3.447275e+03	0	2.273575e-03
3.100000e+08	4.028113e+14	0.000000e+00	6.350364e-01	4.242599e+15	4.983657e+15	3.807705e+14	2.165682e+04	6.978420e+03	3.443405e+03	0	2.256483e-03
3.200000e+08	3.938360e+14	0.000000e+00	6.350364e-01	4.170313e+15	4.921761e+15	3.787884e+14	2.157764e+04	6.970238e+03	3.439368e+03	0	2.239598e-03
3.300000e+08	3.851013e+14	0.000000e+00	6.350364e-01	4.099923e+15	4.859612e+15	3.768207e+14	2.149981e+04	6.961771e+03	3.435190e+03	0	2.222917e-03
3.400000e+08	3.766002e+14	0.000000e+00	6.350364e-01	4.031372e+15	4.797434e+15	3.748673e+14	2.142327e+04	6.953068e+03	3.430896e+03	0	2.206438e-03
3.500000e+08	3.683259e+14	0.000000e+00	6.350364e-01	3.964608e+15	4.735417e+15	3.729281e+14	2.134802e+04	6.944171e+03	3.426506e+03	0	2.190159e-03
3.600000e+08	3.602714e+14	0.000000e+00	6.350364e-01	3.899576e+15	4.673719e+15	3.710029e+14	2.127400e+04	6.935118e+03	3.422039e+03	0	2.174077e-03
3.700000e+08	3.524302e+14	0.000000e+00	6.350364e-01	3.836224e+15	4.612474e+15	3.690916e+14	2.120118e+04	6.925941e+03	3.417510e+03	0	2.158188e-03
3.800000e+08	3.447955e+14	0.000000e+00	6.350364e-01	3.774500e+15	4.551790e+15	3.671942e+14	2.112955e+04	6.916668e+03	3.412935e+03	0	2.142490e-03
3.900000e+08	3.373610e+14	0.000000e+00	6.350364e-01	3.714353e+15	4.491760e+15	3.653105e+14	2.105906e+04	6.907324e+03	3.408324e+03	0	2.126979e-03
4.000000e+08	3.301202e+14	0.000000e+00	6.350364e-01	3.655735e+15	4.432456e+15	3.634404e+14	2.098969e+04	6.897929e+03	3.403688e+03	0	2.111652e-03
4.100000e+08	3.230671e+14	0.000000e+00	6.350364e-01	3.598596e+15	4.373939e+15	3.615838e+14	2.092141e+04	6.888503e+03	3.399037e+03	0	2.096505e-03
4.200000e+08	3.161956e+14	0.000000e+00	6.350364e-01	3.542891e+15	4.316256e+15	3.597406e+14	2.085419e+04	6.879062e+03	3.394378e+03	0	2.081534e-03
4.300000e+08	3.095000e+14	0.000000e+00	6.350364e-01	3.488574e+15	4.259444e+15	3.579107e+14	2.078800e+04	6.869619e+03	3.389719e+03	0	2.066737e-03
4.400000e+08	3.029746e+14	0.000000e+00	6.350364e-01	3.435600e+15	4.203532e+15	3.560939e+14	2.072283e+04	6.860187e+03	3.385065e+03	0	2.052109e-03
4.500000e+08	2.966140e+14	0.000000e+00	6.350364e-01	3.383928e+15	4.148540e+15	3.542902e+14	2.065864e+04	6.850776e+03	3.380421e+03	0	2.037646e-03
4.600000e+08	2.904129e+14	0.000000e+00	6.350364e-01	3.333515e+15	4.094481e+15	3.524994e+14	2.059541e+04	6.841395e+03	3.375792e+03	0	2.023346e-03
4.700000e+08	2.843662e+14	0.000000e+00	6.350364e-01	3.284323e+15	4.041364e+15	3.507215e+14	2.053312e+04	6.832053e+03	3.371183e+03	0	2.009205e-03
4.800000e+08	2.784690e+14	0.000000e+00	6.350364e-01	3.236313e+15	3.989194e+15	3.489563e+14	2.047174e+04	6.822756e+03	3.366595e+03	0	1.995219e-03
4.900000e+08	2.727165e+14	0.000000e+00	6.350364e-01	3.189447e+15	3.937969e+15	3.472037e+14	2.041126e+04	6.813509e+03	3.362032e+03	0	1.981384e-03
5.000000e+08	2.671042e+14	0.000000e+00	6.350364e-01	3.143689e+15	3.887687e+15	3.454637e+14	2.035165e+04	6.804318e+03	3.357497e+03	0	1.967698e-03
5.100000e+08	2.616276e+14	0.000000e+00	6.350364e-01	3.099006e+15	3.838341e+15	3.437361e+14	2.029289e+04	6.795187e+03	3.352992e+03	0	1.954157e-03
5.200000e+08	2.562825e+14	0.000000e+00	6.350364e-01	3.055363e+15	3.789923e+15	3.420208e+14	2.023496e+04	6.786119e+03	3.348517e+03	0	1.940757e-03
5.300000e+08	2.510646e+14	0.000000e+00	6.350364e-01	3.012728e+15	3.742423e+15	3.403178e+14	2.017784e+04	6.777118e+03	3.344076e+03	0	1.927496e-03
5.400000e+08	2.459702e+14	0.000000e+00	6.350364e-01	2.971071e+15	3.695828e+15	3.386269e+14	2.012152e+04	6.768186e+03	3.339668e+03	0	1.914369e-03
5.500000e+08	2.409952e+14	0.000000e+00	6.350364e-01	2.930361e+15	3.650125e+15	3.369480e+14	2.006597e+04	6.759324e+03	3.335296e+03	0	1.901375e-03
5.600000e+08	2.361362e+14	0.000000e+00	6.350364e-01	2.890569e+15	3.605301e+15	3.352811e+14	2.001118e+04	6.750535e+03	3.330959e+03	0	1.888509e-03
5.700000e+08	2.313894e+14	0.000000e+00	6.350364e-01	2.851668e+15	3.561339e+15	3.336260e+14	1.995713e+04	6.741820e+03	3.326658e+03	0	1.875769e-03
5.800000e+08	2.267515e+14	0.000000e+00	6.350364e-01	2.813631e+15	3.518225e+15	3.319827e+14	1.990380e+04	6.733180e+03	3.322395e+03	0	1.863152e-03
5.900000e+08	2.222191e+14	0.000000e+00	6.350364e-01	2.776432e+15	3.475942e+15	3.303510e+14	1.985118e+04	6.724615e+03	3.318169e+03	0	1.850655e-03
6.000000e+08	2.177891e+14	0.000000e+00	6.350364e-01	2.740045e+15	3.434474e+15	3.287308e+14	1.979926e+04	6.716127e+03	3.313981e+03	0	1.838274e-03
6.100000e+08	2.134585e+14	0.000000e+00	6.350364e-01	2.704448e+15	3.393804e+15	3.271221e+14	1.974801e+04	6.707715e+03	3.309830e+03	0	1.826008e-03
6.200000e+08	2.092241e+14	0.000000e+00	6.350364e-01	2.669616e+15	3.353916e+15	3.255248e+14	1.969743e+04	6.699380e+03	3.305717e+03	0	1.813853e-03
6.300000e+08	2.050833e+14	0.000000e+00	6.350364e-01	2.635527e+15	3.314792e+15	3.239387e+14	1.964749e+04	6.691122e+03	3.301642e+03	0	1.801807e-03
6.400000e+08	2.010333e+14	0.000000e+00	6.350364e-01	2.602161e+15	3.276416e+15	3.223639e+14	1.959819e+04	6.682940e+03	3.297605e+03	0	1.789868e-03
6.500000e+08	1.970713e+14	0.000000e+00	6.350364e-01	2.569495e+15	3.238772e+15	3.208001e+14	1.954951e+04	6.674834e+03	3.293605e+03	0	1.778031e-03
6.600000e+08	1.931949e+14	0.000000e+00	6.350364e-01	2.537510e+15	3.201842e+15	3.192473e+14	1.950144e+04	6.666805e+03	3.289643e+03	0	1.766296e-03
6.700000e+08	1.894016e+14	0.000000e+00	6.350364e-01	2.506187e+15	3.165611e+15	3.177055e+14	1.945397e+04	6.658851e+03	3.285718e+03	0	1.754659e-03
6.800000e+08	1.856889e+14	0.000000e+00	6.350364e-01	2.475506e+15	3.130063e+15	3.161745e+14	1.940708e+04	6.650971e+03	3.281830e+03	0	1.743118e-03
6.900000e+08	1.820547e+14	0.000000e+00	6.350364e-01	2.445450e+15	3.095181e+15	3.146542e+14	1.936076e+04	6.643167e+03	3.277979e+03	0	1.731671e-03
7.000000e+08	1.784966e+14	0.000000e+00	6.350364e-01	2.416002e+15	3.060950e+15	3.131446e+14	1.931500e+04	6.635436e+03	3.274165e+03	0	1.720316e-03
7.100000e+08	1.750125e+14	0.000000e+00	6.350364e-01	2.387144e+15	3.027355e+15	3.116455e+14	1.926979e+04	6.627778e+03	3.270386e+03	0	1.709050e-03
7.200000e+08	1.716005e+14	0.000000e+00	6.350364e-01	2.358860e+15	2.994380e+15	3.101569e+14	1.922512e+04	6.620193e+03	3.266643e+03	0	1.697870e-03
7.300000e+08	1.682584e+14	0.000000e+00	6.350364e-01	2.331135e+15	2.962012e+15	3.086788e+14	1.918097e+04	6.612679e+03	3.262936e+03	0	1.686775e-03
7.400000e+08	1.649844e+14	0.000000e+00	6.350364e-01	2.303954e+15	2.930236e+15	3.072109e+14	1.913734e+04	6.605236e+03	3.259263e+03	0	1.675763e-03
7.500000e+08	1.617766e+14	0.000000e+00	6.350364e-01	2.277301e+15	2.899037e+15	3.057533e+14	1.909422e+04	6.597864e+03	3.255625e+03	0	1.664831e-03
7.600000e+08	1.586331e+14	0.000000e+00	6.350364e-01	2.251164e+15	2.868402e+15	3.043058e+14	1.905160e+04	6.590560e+03	3.252021e+03	0	1.653977e-03
7.700000e+08	1.555524e+14	0.000000e+00	6.350364e-01	2.225527e+15	2.838318e+15	3.028684e+14	1.900946e+04	6.583325e+03	3.248451e+03	0	1.643200e-03
7.800000e+08	1.525326e+14	0.000000e+00	6.350364e-01	2.200378e+15	2.808771e+15	3.014410e+14	1.896780e+04	6.576158e+03	3.244915e+03	0	1.632497e-03
7.900000e+08	1.495721e+14	0.000000e+00	6.350364e-01	2.175704e+15	2.779750e+15	3.000235e+14	1.892661e+04	6.569057e+03	3.241411e+03	0	1.621867e-03
8.000000e+08	1.466695e+14	0.000000e+00	6.350364e-01	2.151492e+15	2.751240e+15	2.986159e+14	1.888588e+04	6.562023e+03	3.237940e+03	0	1.611306e-03
8.100000e+08	1.438231e+14	0.000000e+00	6.350364e-01	2.127732e+15	2.723231e+15	2.972180e+14	1.884561e+04	6.555053e+03	3.234501e+03	0	1.600815e-03
8.200000e+08	1.410315e+14	0.000000e+00	6.350364e-01	2.104410e+15	2.695711e+15	2.958298e+14	1.880577e+04	6.548147e+03	3.231093e+03	0	1.590390e-03
8.300000e+08	1.382933e+14	0.000000e+00	6.350364e-01	2.081517e+15	2.668668e+15	2.944511e+14	1.876637e+04	6.541305e+03	3.227717e+03	0	1.580030e-03
8.400000e+08	1.356071e+14	0.000000e+00	6.350364e-01	2.059040e+15	2.642090e+15	2.930820e+14	1.872740e+04	6.534525e+03	3.224372e+03	0	1.569733e-03
8.500000e+08	1.329716e+14	0.000000e+00	6.350364e-01	2.036970e+15	2.615968e+15	2.917224e+14	1.868885e+04	6.527807e+03	3.221057e+03	0	1.559497e-03
8.600000e+08	1.303854e+14	0.000000e+00	6.350364e-01	2.015297e+15	2.590290e+15	2.903721e+14	1.865071e+04	6.521150e+03	3.217772e+03	0	1.549321e-03
8.700000e+08	1.278474e+14	0.000000e+00	6.350364e-01	1.994010e+15	2.565046e+15	2.890311e+14	1.861297e+04	6.514552e+03	3.214516e+03	0	1.539202e-03
8.800000e+08	1.253564e+14	0.000000e+00	6.350364e-01	1.973100e+15	2.540226e+15	2.876993e+14	1.857563e+04	6.508014e+03	3.211290e+03	0	1.529139e-03
8.900000e+08	1.229111e+14	0.000000e+00	6.350364e-01	1.952558e+15	2.515821e+15	2.863767e+14	1.853868e+04	6.501534e+03	3.208092e+03	0	1.519131e-03
9.000000e+08	1.205104e+14	0.000000e+00	6.350364e-01	1.932375e+15	2.491820e+15	2.850631e+14	1.850211e+04	6.495111e+03	3.204923e+03	0	1.509176e-03
9.100000e+08	1.181533e+14	0.000000e+00	6.350364e-01	1.912542e+15	2.468215e+15	2.837586e+14	1.846593e+04	6.488745e+03	3.201782e+03	0	1.499271e-03
9.200000e+08	1.158386e+14	0.000000e+00	6.350364e-01	1.893051e+15	2.444997e+15	2.824630e+14	1.843011e+04	6.482434e+03	3.198668e+03	0	1.489416e-03
9.300000e+08	1.135654e+14	0.000000e+00	6.350364e-01	1.873893e+15	2.422157e+15	2.811762e+14	1.839465e+04	6.476179e+03	3.195582e+03	0	1.479609e-03
9.400000e+08	1.113326e+14	0.000000e+00	6.350364e-01	1.855062e+15	2.399686e+15	2.798983e+14	1.835955e+04	6.469978e+03	3.192522e+03	0	1.469848e-03
9.500000e+08	1.091392e+14	0.000000e+00	6.350364e-01	1.836548e+15	2.377576e+15	2.786291e+14	1.832481e+04	6.463831e+03	3.189488e+03	0	1.460131e-03
9.600000e+08	1.069844e+14	0.000000e+00	6.350364e-01	1.818345e+15	2.355819e+15	2.773685e+14	1.829041e+04	6.457736e+03	3.186481e+03	0	1.450458e-03
9.700000e+08	1.048672e+14	0.000000e+00	6.350364e-01	1.800445e+15	2.334408e+15	2.761165e+14	1.825635e+04	6.451693e+03	3.183499e+03	0	1.440826e-03
9.800000e+08	1.027867e+14	0.000000e+00	6.350364e-01	1.782841e+15	2.313334e+15	2.748730e+14	1.822262e+04	6.445702e+03	3.180543e+03	0	1.431234e-03
9.900000e+08	1.007421e+14	0.000000e+00	6.350364e-01	1.765527e+15	2.292590e+15	2.736380e+14	1.818922e+04	6.439761e+03	3.177611e+03	0	1.421680e-03
1.000000e+09	9.873257e+13	0.000000e+00	6.350364e-01	1.748496e+15	2.272170e+15	2.724114e+14	1.815615e+04	6.433869e+03	3.174704e+03	0	1.412164e-03
1.010000e+09	9.675723e+13	0.000000e+00	6.350364e-01	1.731742e+15	2.252065e+15	2.711931e+14	1.812339e+04	6.428027e+03	3.171822e+03	0	1.402683e-03
1.020000e+09	9.481532e+13	0.000000e+00	6.350364e-01	1.715258e+15	2.232270e+15	2.699830e+14	1.809095e+04	6.422234e+03	3.168963e+03	0	1.393235e-03
1.030000e+09	9.290609e+13	0.000000e+00	6.350364e-01	1.699038e+15	2.212777e+15	2.687812e+14	1.805881e+04	6.416488e+03	3.166128e+03	0	1.383820e-03
1.040000e+09	9.102879e+13	0.000000e+00	6.350364e-01	1.683076e+15	2.193580e+15	2.675874e+14	1.802698e+04	6.410789e+03	3.163316e+03	0	1.374436e-03
1.050000e+09	8.918270e+13	0.000000e+00	6.350364e-01	1.667367e+15	2.174674e+15	2.664017e+14	1.799544e+04	6.405137e+03	3.160527e+03	0	1.365081e-03
1.060000e+09	8.736713e+13	0.000000e+00	6.350364e-01	1.651905e+15	2.156050e+15	2.652240e+14	1.796420e+04	6.399530e+03	3.157760e+03	0	1.355754e-03
1.070000e+09	8.558139e+13	0.000000e+00	6.350364e-01	1.636685e+15	2.137705e+15	2.640543e+14	1.793325e+04	6.393969e+03	3.155016e+03	0	1.346454e-03
1.080000e+09	8.382482e+13	0.000000e+00	6.350364e-01	1.621701e+15	2.119631e+15	2.628924e+14	1.790258e+04	6.388452e+03	3.152294e+03	0	1.337178e-03
1.090000e+09	8.209678e+13	0.000000e+00	6.350364e-01	1.606949e+15	2.101824e+15	2.617383e+14	1.787219e+04	6.382979e+03	3.149593e+03	0	1.327925e-03
1.100000e+09	8.039665e+13	0.000000e+00	6.350364e-01	1.592423e+15	2.084277e+15	2.605920e+14	1.784208e+04	6.377549e+03	3.146914e+03	0	1.318695e-03
1.110000e+09	7.872381e+13	0.000000e+00	6.350364e-01	1.578118e+15	2.066985e+15	2.594534e+14	1.781224e+04	6.372162e+03	3.144256e+03	0	1.309484e-03
1.120000e+09	7.707768e+13	0.000000e+00	6.350364e-01	1.564031e+15	2.049944e+15	2.583224e+14	1.778267e+04	6.366817e+03	3.141619e+03	0	1.300293e-03
1.130000e+09	7.545768e+13	0.000000e+00	6.350364e-01	1.550155e+15	2.033148e+15	2.571989e+14	1.775336e+04	6.361514e+03	3.139002e+03	0	1.291118e-03
1.140000e+09	7.386325e+13	0.000000e+00	6.350364e-01	1.536487e+15	2.016591e+15	2.560830e+14	1.772431e+04	6.356252e+03	3.136405e+03	0	1.281960e-03
1.150000e+09	7.229385e+13	0.000000e+00	6.350364e-01	1.523023e+15	2.000270e+15	2.549745e+14	1.769551e+04	6.351030e+03	3.133829e+03	0	1.272815e-03
1.160000e+09	7.074895e+13	0.000000e+00	6.350364e-01	1.509758e+15	1.984180e+15	2.538734e+14	1.766697e+04	6.345848e+03	3.131272e+03	0	1.263683e-03
1.170000e+09	6.922803e+13	0.000000e+00	6.350364e-01	1.496689e+15	1.968315e+15	2.527797e+14	1.763867e+04	6.340706e+03	3.128734e+03	0	1.254562e-03
1.180000e+09	6.773059e+13	0.000000e+00	6.350364e-01	1.483810e+15	1.952672e+15	2.516932e+14	1.761062e+04	6.335602e+03	3.126216e+03	0	1.245451e-03
1.190000e+09	6.625614e+13	0.000000e+00	6.350364e-01	1.471119e+15	1.937246e+15	2.506139e+14	1.758281e+04	6.330537e+03	3.123716e+03	0	1.236347e-03
1.200000e+09	6.480421e+13	0.000000e+00	6.350364e-01	1.458611e+15	1.922033e+15	2.495419e+14	1.755523e+04	6.325509e+03	3.121236e+03	0	1.227249e-03
1.210000e+09	6.337434e+13	0.000000e+00	6.350364e-01	1.446283e+15	1.907028e+15	2.484769e+14	1.752789e+04	6.320519e+03	3.118773e+03	0	1.218156e-03
1.220000e+09	6.196607e+13	0.000000e+00	6.350364e-01	1.434131e+15	1.892228e+15	2.474190e+14	1.750078e+04	6.315566e+03	3.116329e+03	0	1.209065e-03
1.230000e+09	6.057896e+13	0.000000e+00	6.350364e-01	1.422152e+15	1.877629e+15	2.463680e+14	1.747390e+04	6.310649e+03	3.113903e+03	0	1.199975e-03
1.240000e+09	5.921259e+13	0.000000e+00	6.350364e-01	1.410342e+15	1.863226e+15	2.453241e+14	1.744724e+04	6.305768e+03	3.111495e+03	0	1.190884e-03
1.250000e+09	5.786653e+13	0.000000e+00	6.350364e-01	1.398698e+15	1.849017e+15	2.442870e+14	1.742080e+04	6.300923e+03	3.109104e+03	0	1.181791e-03
1.260000e+09	5.654038e+13	0.000000e+00	6.350364e-01	1.387216e+15	1.834997e+15	2.432567e+14	1.739458e+04	6.296112e+03	3.106730e+03	0	1.172693e-03
1.270000e+09	5.523375e+13	0.000000e+00	6.350364e-01	1.375894e+15	1.821163e+15	2.422333e+14	1.736857e+04	6.291336e+03	3.104373e+03	0	1.163589e-03
1.280000e+09	5.394624e+13	0.000000e+00	6.350364e-01	1.364729e+15	1.807511e+15	2.412166e+14	1.734278e+04	6.286594e+03	3.102033e+03	0	1.154477e-03
1.290000e+09	5.267749e+13	0.000000e+00	6.350364e-01	1.353717e+15	1.794038e+15	2.402065e+14	1.731719e+04	6.281886e+03	3.099710e+03	0	1.145355e-03
1.300000e+09	5.142712e+13	0.000000e+00	6.350364e-01	1.342855e+15	1.780741e+15	2.392031e+14	1.729182e+04	6.277211e+03	3.097403e+03	0	1.136220e-03
1.310000e+09	5.019477e+13	0.000000e+00	6.350364e-01	1.332141e+15	1.767616e+15	2.382063e+14	1.726664e+04	6.272569e+03	3.095113e+03	0	1.127070e-03
1.320000e+09	4.898010e+13	0.000000e+00	6.350364e-01	1.321572e+15	1.754660e+15	2.372160e+14	1.724166e+04	6.267959e+03	3.092838e+03	0	1.117905e-03
1.330000e+09	4.778276e+13	0.000000e+00	6.350364e-01	1.311145e+15	1.741871e+15	2.362321e+14	1.721688e+04	6.263381e+03	3.090579e+03	0	1.108720e-03
1.340000e+09	4.660242e+13	0.000000e+00	6.350364e-01	1.300857e+15	1.729245e+15	2.352547e+14	1.719230e+04	6.258835e+03	3.088336e+03	0	1.099515e-03
1.350000e+09	4.543876e+13	0.000000e+00	6.350364e-01	1.290706e+15	1.716778e+15	2.342837e+14	1.716791e+04	6.254320e+03	3.086108e+03	0	1.090286e-03
1.360000e+09	4.429145e+13	0.000000e+00	6.350364e-01	1.280690e+15	1.704469e+15	2.333190e+14	1.714371e+04	6.249836e+03	3.083896e+03	0	1.081031e-03
