#t		Qconv[W]	Ri[Rp]		R*[Rp]		Qc[W]		Qm[W]		Qr[W]		Tcmb[K]		Tl[K]		Tup[K]		RiFlag		Bs[T]
0.000000e+00	8.496222e+14	0.000000e+00	6.350367e-01	7.962263e+15	2.186062e+15	4.855071e+14	2.629441e+04	6.215384e+03	3.020460e+03	0	2.889882e-03
1.000000e+07	8.391696e+14	0.000000e+00	6.350367e-01	7.877013e+15	2.531774e+15	4.828171e+14	2.616254e+04	6.350782e+03	3.086259e+03	0	2.877982e-03
2.000000e+07	8.279529e+14	0.000000e+00	6.350367e-01	7.786262e+15	2.884221e+15	4.801471e+14	2.603208e+04	6.476423e+03	3.147316e+03	0	2.865102e-03
3.000000e+07	8.160391e+14	0.000000e+00	6.350367e-01	7.690509e+15	3.236203e+15	4.774971e+14	2.590310e+04	6.592113e+03	3.203538e+03	0	2.851293e-03
4.000000e+07	8.035050e+14	0.000000e+00	6.350367e-01	7.590319e+15	3.580880e+15	4.748669e+14	2.577570e+04	6.697828e+03	3.254911e+03	0	2.836619e-03
5.000000e+07	7.904334e+14	0.000000e+00	6.350367e-01	7.486305e+15	3.912146e+15	4.722563e+14	2.564995e+04	6.793700e+03	3.301502e+03	0	2.821153e-03
6.000000e+07	7.769106e+14	0.000000e+00	6.350367e-01	7.379101e+15	4.224879e+15	4.696652e+14	2.552591e+04	6.880003e+03	3.343442e+03	0	2.804972e-03
7.000000e+07	7.630229e+14	0.000000e+00	6.350367e-01	7.269344e+15	4.515085e+15	4.670934e+14	2.540363e+04	6.957125e+03	3.380921e+03	0	2.788158e-03
8.000000e+07	7.488544e+14	0.000000e+00	6.350367e-01	7.157650e+15	4.779932e+15	4.645406e+14	2.528316e+04	7.025547e+03	3.414171e+03	0	2.770792e-03
9.000000e+07	7.344849e+14	0.000000e+00	6.350367e-01	7.044608e+15	5.017695e+15	4.620069e+14	2.516452e+04	7.085812e+03	3.443458e+03	0	2.752955e-03
1.000000e+08	7.199885e+14	0.000000e+00	6.350367e-01	6.930761e+15	5.227642e+15	4.594920e+14	2.504775e+04	7.138504e+03	3.469065e+03	0	2.734723e-03
1.100000e+08	7.054328e+14	0.000000e+00	6.350367e-01	6.816603e+15	5.409877e+15	4.569957e+14	2.493285e+04	7.184229e+03	3.491285e+03	0	2.716169e-03
1.200000e+08	6.908779e+14	0.000000e+00	6.350367e-01	6.702576e+15	5.565176e+15	4.545180e+14	2.481983e+04	7.223590e+03	3.510413e+03	0	2.697358e-03
1.300000e+08	6.763770e+14	0.000000e+00	6.350367e-01	6.589069e+15	5.694815e+15	4.520586e+14	2.470869e+04	7.257179e+03	3.526737e+03	0	2.678353e-03
1.400000e+08	6.619760e+14	0.000000e+00	6.350367e-01	6.476417e+15	5.800424e+15	4.496174e+14	2.459942e+04	7.285564e+03	3.540530e+03	0	2.659208e-03
1.500000e+08	6.477142e+14	0.000000e+00	6.350367e-01	6.364907e+15	5.883848e+15	4.471942e+14	2.449201e+04	7.309280e+03	3.552056e+03	0	2.639972e-03
1.600000e+08	6.336244e+14	0.000000e+00	6.350367e-01	6.254778e+15	5.947046e+15	4.447890e+14	2.438643e+04	7.328827e+03	3.561555e+03	0	2.620689e-03
1.700000e+08	6.197339e+14	0.000000e+00	6.350367e-01	6.146228e+15	5.992001e+15	4.424015e+14	2.428267e+04	7.344667e+03	3.569252e+03	0	2.601397e-03
1.800000e+08	6.060648e+14	0.000000e+00	6.350367e-01	6.039417e+15	6.020661e+15	4.400316e+14	2.418070e+04	7.357219e+03	3.575353e+03	0	2.582129e-03
1.900000e+08	5.926346e+14	0.000000e+00	6.350367e-01	5.934471e+15	6.034887e+15	4.376791e+14	2.408049e+04	7.366868e+03	3.580041e+03	0	2.562913e-03
2.000000e+08	5.794569e+14	0.000000e+00	6.350367e-01	5.831489e+15	6.036430e+15	4.353440e+14	2.398201e+04	7.373956e+03	3.583486e+03	0	2.543774e-03
2.100000e+08	5.665419e+14	0.000000e+00	6.350367e-01	5.730541e+15	6.026909e+15	4.330260e+14	2.388523e+04	7.378794e+03	3.585837e+03	0	2.524733e-03
2.200000e+08	5.538966e+14	0.000000e+00	6.350367e-01	5.631679e+15	6.007804e+15	4.307250e+14	2.379012e+04	7.381657e+03	3.587229e+03	0	2.505808e-03
2.300000e+08	5.415258e+14	0.000000e+00	6.350367e-01	5.534934e+15	5.980455e+15	4.284410e+14	2.369663e+04	7.382792e+03	3.587780e+03	0	2.487012e-03
2.400000e+08	5.294320e+14	0.000000e+00	6.350367e-01	5.440322e+15	5.946063e+15	4.261737e+14	2.360474e+04	7.382416e+03	3.587597e+03	0	2.468358e-03
2.500000e+08	5.176159e+14	0.000000e+00	6.350367e-01	5.347846e+15	5.905700e+15	4.239230e+14	2.351442e+04	7.380721e+03	3.586774e+03	0	2.449857e-03
2.600000e+08	5.060766e+14	0.000000e+00	6.350367e-01	5.257497e+15	5.860317e+15	4.216887e+14	2.342562e+04	7.377880e+03	3.585393e+03	0	2.431515e-03
2.700000e+08	4.948123e+14	0.000000e+00	6.350367e-01	5.169261e+15	5.810748e+15	4.194708e+14	2.333831e+04	7.374041e+03	3.583527e+03	0	2.413339e-03
2.800000e+08	4.838199e+14	0.000000e+00	6.350367e-01	5.083111e+15	5.757728e+15	4.172691e+14	2.325246e+04	7.369337e+03	3.581241e+03	0	2.395334e-03
2.900000e+08	4.730957e+14	0.000000e+00	6.350367e-01	4.999017e+15	5.701900e+15	4.150835e+14	2.316804e+04	7.363886e+03	3.578592e+03	0	2.377503e-03
3.000000e+08	4.626350e+14	0.000000e+00	6.350367e-01	4.916946e+15	5.643822e+15	4.129138e+14	2.308500e+04	7.357788e+03	3.575629e+03	0	2.359850e-03
3.100000e+08	4.524331e+14	0.000000e+00	6.350367e-01	4.836858e+15	5.583979e+15	4.107599e+14	2.300332e+04	7.351135e+03	3.572396e+03	0	2.342374e-03
3.200000e+08	4.424845e+14	0.000000e+00	6.350367e-01	4.758712e+15	5.522792e+15	4.086217e+14	2.292296e+04	7.344005e+03	3.568931e+03	0	2.325078e-03
3.300000e+08	4.327836e+14	0.000000e+00	6.350367e-01	4.682465e+15	5.460622e+15	4.064990e+14	2.284389e+04	7.336468e+03	3.565268e+03	0	2.307961e-03
3.400000e+08	4.233246e+14	0.000000e+00	6.350367e-01	4.608071e+15	5.397783e+15	4.043917e+14	2.276609e+04	7.328584e+03	3.561437e+03	0	2.291022e-03
3.500000e+08	4.141014e+14	0.000000e+00	6.350367e-01	4.535485e+15	5.334540e+15	4.022997e+14	2.268951e+04	7.320408e+03	3.557463e+03	0	2.274261e-03
3.600000e+08	4.051080e+14	0.000000e+00	6.350367e-01	4.464661e+15	5.271124e+15	4.002229e+14	2.261413e+04	7.311985e+03	3.553370e+03	0	2.257677e-03
3.700000e+08	3.963384e+14	0.000000e+00	6.350367e-01	4.395552e+15	5.207730e+15	3.981612e+14	2.253993e+04	7.303358e+03	3.549178e+03	0	2.241267e-03
3.800000e+08	3.877863e+14	0.000000e+00	6.350367e-01	4.328112e+15	5.144522e+15	3.961143e+14	2.246687e+04	7.294561e+03	3.544903e+03	0	2.225029e-03
3.900000e+08	3.794459e+14	0.000000e+00	6.350367e-01	4.262295e+15	5.081642e+15	3.940823e+14	2.239492e+04	7.285627e+03	3.540561e+03	0	2.208961e-03
4.000000e+08	3.713112e+14	0.000000e+00	6.350367e-01	4.198055e+15	5.019207e+15	3.920649e+14	2.232406e+04	7.276584e+03	3.536167e+03	0	2.193062e-03
4.100000e+08	3.633761e+14	0.000000e+00	6.350367e-01	4.135348e+15	4.957315e+15	3.900621e+14	2.225427e+04	7.267456e+03	3.531730e+03	0	2.177327e-03
4.200000e+08	3.556351e+14	0.000000e+00	6.350367e-01	4.074129e+15	4.896050e+15	3.880737e+14	2.218551e+04	7.258263e+03	3.527263e+03	0	2.161754e-03
4.300000e+08	3.480824e+14	0.000000e+00	6.350367e-01	4.014355e+15	4.835478e+15	3.860996e+14	2.211776e+04	7.249025e+03	3.522774e+03	0	2.146342e-03
4.400000e+08	3.407124e+14	0.000000e+00	6.350367e-01	3.955985e+15	4.775655e+15	3.841397e+14	2.205101e+04	7.239758e+03	3.518270e+03	0	2.131085e-03
4.500000e+08	3.335199e+14	0.000000e+00	6.350367e-01	3.898978e+15	4.716625e+15	3.821940e+14	2.198522e+04	7.230476e+03	3.513760e+03	0	2.115982e-03
4.600000e+08	3.264995e+14	0.000000e+00	6.350367e-01	3.843293e+15	4.658423e+15	3.802621e+14	2.192037e+04	7.221192e+03	3.509248e+03	0	2.101030e-03
4.700000e+08	3.196461e+14	0.000000e+00	6.350367e-01	3.788892e+15	4.601077e+15	3.783442e+14	2.185645e+04	7.211916e+03	3.504740e+03	0	2.086226e-03
4.800000e+08	3.129547e+14	0.000000e+00	6.350367e-01	3.735736e+15	4.544608e+15	3.764400e+14	2.179342e+04	7.202658e+03	3.500241e+03	0	2.071566e-03
4.900000e+08	3.064206e+14	0.000000e+00	6.350367e-01	3.683790e+15	4.489028e+15	3.745494e+14	2.173128e+04	7.193427e+03	3.495755e+03	0	2.057047e-03
5.000000e+08	3.000391e+14	0.000000e+00	6.350367e-01	3.633018e+15	4.434349e+15	3.726723e+14	2.167000e+04	7.184228e+03	3.491285e+03	0	2.042666e-03
5.100000e+08	2.938056e+14	0.000000e+00	6.350367e-01	3.583384e+15	4.380575e+15	3.708086e+14	2.160955e+04	7.175070e+03	3.486834e+03	0	2.028421e-03
5.200000e+08	2.877157e+14	0.000000e+00	6.350367e-01	3.534857e+15	4.327709e+15	3.689583e+14	2.154993e+04	7.165956e+03	3.482405e+03	0	2.014309e-03
5.300000e+08	2.817652e+14	0.000000e+00	6.350367e-01	3.487403e+15	4.275747e+15	3.671211e+14	2.149112e+04	7.156892e+03	3.478001e+03	0	2.000325e-03
5.400000e+08	2.759500e+14	0.000000e+00	6.350367e-01	3.440991e+15	4.224687e+15	3.652971e+14	2.143309e+04	7.147882e+03	3.473622e+03	0	1.986468e-03
5.500000e+08	2.702660e+14	0.000000e+00	6.350367e-01	3.395591e+15	4.174522e+15	3.634860e+14	2.137583e+04	7.138928e+03	3.469271e+03	0	1.972735e-03
5.600000e+08	2.647095e+14	0.000000e+00	6.350367e-01	3.351174e+15	4.125244e+15	3.616877e+14	2.131932e+04	7.130035e+03	3.464949e+03	0	1.959121e-03
5.700000e+08	2.592768e+14	0.000000e+00	6.350367e-01	3.307712e+15	4.076843e+15	3.599023e+14	2.126355e+04	7.121203e+03	3.460657e+03	0	1.945626e-03
5.800000e+08	2.539641e+14	0.000000e+00	6.350367e-01	3.265176e+15	4.029307e+15	3.581295e+14	2.120849e+04	7.112436e+03	3.456396e+03	0	1.932245e-03
5.900000e+08	2.487682e+14	0.000000e+00	6.350367e-01	3.223541e+15	3.982626e+15	3.563693e+14	2.115415e+04	7.103735e+03	3.452168e+03	0	1.918977e-03
6.000000e+08	2.436855e+14	0.000000e+00	6.350367e-01	3.182781e+15	3.936786e+15	3.546215e+14	2.110049e+04	7.095101e+03	3.447972e+03	0	1.905818e-03
6.100000e+08	2.387128e+14	0.000000e+00	6.350367e-01	3.142871e+15	3.891773e+15	3.528861e+14	2.104751e+04	7.086536e+03	3.443810e+03	0	1.892765e-03
6.200000e+08	2.338471e+14	0.000000e+00	6.350367e-01	3.103788e+15	3.847574e+15	3.511630e+14	2.099519e+04	7.078039e+03	3.439681e+03	0	1.879817e-03
6.300000e+08	2.290853e+14	0.000000e+00	6.350367e-01	3.065508e+15	3.804173e+15	3.494520e+14	2.094352e+04	7.069613e+03	3.435586e+03	0	1.866970e-03
6.400000e+08	2.244244e+14	0.000000e+00	6.350367e-01	3.028009e+15	3.761556e+15	3.477531e+14	2.089248e+04	7.061257e+03	3.431525e+03	0	1.854221e-03
6.500000e+08	2.198616e+14	0.000000e+00	6.350367e-01	2.991269e+15	3.719709e+15	3.460662e+14	2.084206e+04	7.052972e+03	3.427499e+03	0	1.841569e-03
6.600000e+08	2.153942e+14	0.000000e+00	6.350367e-01	2.955268e+15	3.678615e+15	3.443912e+14	2.079226e+04	7.044757e+03	3.423507e+03	0	1.829010e-03
6.700000e+08	2.110196e+14	0.000000e+00	6.350367e-01	2.919985e+15	3.638260e+15	3.427279e+14	2.074305e+04	7.036613e+03	3.419549e+03	0	1.816543e-03
6.800000e+08	2.067351e+14	0.000000e+00	6.350367e-01	2.885402e+15	3.598629e+15	3.410763e+14	2.069442e+04	7.028540e+03	3.415626e+03	0	1.804165e-03
6.900000e+08	2.025384e+14	0.000000e+00	6.350367e-01	2.851498e+15	3.559707e+15	3.394362e+14	2.064637e+04	7.020537e+03	3.411737e+03	0	1.791873e-03
7.000000e+08	1.984269e+14	0.000000e+00	6.350367e-01	2.818256e+15	3.521479e+15	3.378077e+14	2.059889e+04	7.012605e+03	3.407882e+03	0	1.779665e-03
7.100000e+08	1.943985e+14	0.000000e+00	6.350367e-01	2.785658e+15	3.483929e+15	3.361906e+14	2.055195e+04	7.004742e+03	3.404061e+03	0	1.767540e-03
7.200000e+08	1.904508e+14	0.000000e+00	6.350367e-01	2.753687e+15	3.447044e+15	3.345848e+14	2.050556e+04	6.996949e+03	3.400274e+03	0	1.755493e-03
7.300000e+08	1.865818e+14	0.000000e+00	6.350367e-01	2.722327e+15	3.410809e+15	3.329902e+14	2.045969e+04	6.989225e+03	3.396520e+03	0	1.743524e-03
7.400000e+08	1.827893e+14	0.000000e+00	6.350367e-01	2.691562e+15	3.375209e+15	3.314067e+14	2.041435e+04	6.981569e+03	3.392799e+03	0	1.731630e-03
7.500000e+08	1.790713e+14	0.000000e+00	6.350367e-01	2.661375e+15	3.340231e+15	3.298343e+14	2.036951e+04	6.973981e+03	3.389112e+03	0	1.719809e-03
7.600000e+08	1.754259e+14	0.000000e+00	6.350367e-01	2.631753e+15	3.305861e+15	3.282729e+14	2.032518e+04	6.966460e+03	3.385457e+03	0	1.708058e-03
7.700000e+08	1.718511e+14	0.000000e+00	6.350367e-01	2.602681e+15	3.272086e+15	3.267223e+14	2.028134e+04	6.959005e+03	3.381834e+03	0	1.696377e-03
7.800000e+08	1.683452e+14	0.000000e+00	6.350367e-01	2.574145e+15	3.238892e+15	3.251824e+14	2.023798e+04	6.951617e+03	3.378244e+03	0	1.684761e-03
7.900000e+08	1.649063e+14	0.000000e+00	6.350367e-01	2.546130e+15	3.206266e+15	3.236533e+14	2.019510e+04	6.944294e+03	3.374685e+03	0	1.673210e-03
8.000000e+08	1.615327e+14	0.000000e+00	6.350367e-01	2.518625e+15	3.174197e+15	3.221348e+14	2.015268e+04	6.937035e+03	3.371158e+03	0	1.661722e-03
8.100000e+08	1.582228e+14	0.000000e+00	6.350367e-01	2.491616e+15	3.142670e+15	3.206268e+14	2.011071e+04	6.929841e+03	3.367661e+03	0	1.650294e-03
8.200000e+08	1.549750e+14	0.000000e+00	6.350367e-01	2.465092e+15	3.111675e+15	3.191292e+14	2.006920e+04	6.922709e+03	3.364196e+03	0	1.638924e-03
8.300000e+08	1.517877e+14	0.000000e+00	6.350367e-01	2.439039e+15	3.081200e+15	3.176420e+14	2.002812e+04	6.915640e+03	3.360760e+03	0	1.627610e-03
8.400000e+08	1.486593e+14	0.000000e+00	6.350367e-01	2.413446e+15	3.051232e+15	3.161651e+14	1.998748e+04	6.908632e+03	3.357355e+03	0	1.616351e-03
8.500000e+08	1.455885e+14	0.000000e+00	6.350367e-01	2.388303e+15	3.021761e+15	3.146983e+14	1.994727e+04	6.901685e+03	3.353979e+03	0	1.605144e-03
8.600000e+08	1.425739e+14	0.000000e+00	6.350367e-01	2.363599e+15	2.992775e+15	3.132417e+14	1.990747e+04	6.894798e+03	3.350632e+03	0	1.593987e-03
8.700000e+08	1.396139e+14	0.000000e+00	6.350367e-01	2.339322e+15	2.964265e+15	3.117951e+14	1.986808e+04	6.887971e+03	3.347314e+03	0	1.582879e-03
8.800000e+08	1.367074e+14	0.000000e+00	6.350367e-01	2.315463e+15	2.936218e+15	3.103584e+14	1.982909e+04	6.881202e+03	3.344025e+03	0	1.571818e-03
8.900000e+08	1.338529e+14	0.000000e+00	6.350367e-01	2.292011e+15	2.908626e+15	3.089316e+14	1.979050e+04	6.874492e+03	3.340764e+03	0	1.560801e-03
9.000000e+08	1.310493e+14	0.000000e+00	6.350367e-01	2.268958e+15	2.881478e+15	3.075146e+14	1.975230e+04	6.867838e+03	3.337530e+03	0	1.549827e-03
9.100000e+08	1.282954e+14	0.000000e+00	6.350367e-01	2.246293e+15	2.854765e+15	3.061073e+14	1.971449e+04	6.861241e+03	3.334324e+03	0	1.538893e-03
9.200000e+08	1.255899e+14	0.000000e+00	6.350367e-01	2.224008e+15	2.828477e+15	3.047097e+14	1.967705e+04	6.854699e+03	3.331145e+03	0	1.527999e-03
9.300000e+08	1.229317e+14	0.000000e+00	6.350367e-01	2.202094e+15	2.802604e+15	3.033216e+14	1.963998e+04	6.848213e+03	3.327993e+03	0	1.517142e-03
9.400000e+08	1.203197e+14	0.000000e+00	6.350367e-01	2.180542e+15	2.777139e+15	3.019430e+14	1.960327e+04	6.841780e+03	3.324867e+03	0	1.506320e-03
9.500000e+08	1.177529e+14	0.000000e+00	6.350367e-01	2.159344e+15	2.752071e+15	3.005738e+14	1.956692e+04	6.835401e+03	3.321767e+03	0	1.495531e-03
9.600000e+08	1.152301e+14	0.000000e+00	6.350367e-01	2.138492e+15	2.727393e+15	2.992140e+14	1.953093e+04	6.829075e+03	3.318693e+03	0	1.484773e-03
9.700000e+08	1.127504e+14	0.000000e+00	6.350367e-01	2.117978e+15	2.703096e+15	2.978634e+14	1.949528e+04	6.822801e+03	3.315644e+03	0	1.474046e-03
9.800000e+08	1.103128e+14	0.000000e+00	6.350367e-01	2.097795e+15	2.679172e+15	2.965220e+14	1.945997e+04	6.816578e+03	3.312620e+03	0	1.463345e-03
9.900000e+08	1.079163e+14	0.000000e+00	6.350367e-01	2.077935e+15	2.655613e+15	2.951897e+14	1.942500e+04	6.810406e+03	3.309621e+03	0	1.452671e-03
1.000000e+09	1.055599e+14	0.000000e+00	6.350367e-01	2.058391e+15	2.632411e+15	2.938664e+14	1.939035e+04	6.804285e+03	3.306646e+03	0	1.442020e-03
1.010000e+09	1.032429e+14	0.000000e+00	6.350367e-01	2.039156e+15	2.609560e+15	2.925522e+14	1.935604e+04	6.798212e+03	3.303694e+03	0	1.431391e-03
1.020000e+09	1.009642e+14	0.000000e+00	6.350367e-01	2.020223e+15	2.587051e+15	2.912468e+14	1.932204e+04	6.792188e+03	3.300767e+03	0	1.420782e-03
1.030000e+09	9.872311e+13	0.000000e+00	6.350367e-01	2.001586e+15	2.564878e+15	2.899503e+14	1.928835e+04	6.786213e+03	3.297863e+03	0	1.410190e-03
1.040000e+09	9.651871e+13	0.000000e+00	6.350367e-01	1.983238e+15	2.543033e+15	2.886625e+14	1.925498e+04	6.780284e+03	3.294982e+03	0	1.399615e-03
1.050000e+09	9.435021e+13	0.000000e+00	6.350367e-01	1.965173e+15	2.521510e+15	2.873834e+14	1.922191e+04	6.774403e+03	3.292124e+03	0	1.389054e-03
1.060000e+09	9.221684e+13	0.000000e+00	6.350367e-01	1.947385e+15	2.500302e+15	2.861130e+14	1.918914e+04	6.768568e+03	3.289288e+03	0	1.378505e-03
1.070000e+09	9.011782e+13	0.000000e+00	6.350367e-01	1.929869e+15	2.479403e+15	2.848511e+14	1.915667e+04	6.762778e+03	3.286475e+03	0	1.367965e-03
1.080000e+09	8.805242e+13	0.000000e+00	6.350367e-01	1.912617e+15	2.458806e+15	2.835977e+14	1.912449e+04	6.757033e+03	3.283683e+03	0	1.357434e-03
1.090000e+09	8.601990e+13	0.000000e+00	6.350367e-01	1.895626e+15	2.438506e+15	2.823527e+14	1.909259e+04	6.751333e+03	3.280913e+03	0	1.346908e-03
1.100000e+09	8.401957e+13	0.000000e+00	6.350367e-01	1.878888e+15	2.418496e+15	2.811161e+14	1.906098e+04	6.745677e+03	3.278164e+03	0	1.336385e-03
1.110000e+09	8.205074e+13	0.000000e+00	6.350367e-01	1.862400e+15	2.398770e+15	2.798878e+14	1.902965e+04	6.740063e+03	3.275436e+03	0	1.325864e-03
1.120000e+09	8.011275e+13	0.000000e+00	6.350367e-01	1.846156e+15	2.379324e+15	2.786677e+14	1.899859e+04	6.734493e+03	3.272729e+03	0	1.315342e-03
1.130000e+09	7.820495e+13	0.000000e+00	6.350367e-01	1.830150e+15	2.360151e+15	2.774558e+14	1.896780e+04	6.728964e+03	3.270043e+03	0	1.304817e-03
1.140000e+09	7.632671e+13	0.000000e+00	6.350367e-01	1.814379e+15	2.341246e+15	2.762520e+14	1.893728e+04	6.723478e+03	3.267376e+03	0	1.294286e-03
1.150000e+09	7.447740e+13	0.000000e+00	6.350367e-01	1.798836e+15	2.322603e+15	2.750562e+14	1.890702e+04	6.718032e+03	3.264730e+03	0	1.283748e-03
1.160000e+09	7.265644e+13	0.000000e+00	6.350367e-01	1.783519e+15	2.304219e+15	2.738684e+14	1.887701e+04	6.712626e+03	3.262103e+03	0	1.273199e-03
1.170000e+09	7.086324e+13	0.000000e+00	6.350367e-01	1.768421e+15	2.286087e+15	2.726885e+14	1.884727e+04	6.707261e+03	3.259495e+03	0	1.262637e-03
1.180000e+09	6.909723e+13	0.000000e+00	6.350367e-01	1.753539e+15	2.268202e+15	2.715165e+14	1.881777e+04	6.701935e+03	3.256907e+03	0	1.252060e-03
1.190000e+09	6.735786e+13	0.000000e+00	6.350367e-01	1.738868e+15	2.250561e+15	2.703522e+14	1.878852e+04	6.696648e+03	3.254338e+03	0	1.241464e-03
1.200000e+09	6.564459e+13	0.000000e+00	6.350367e-01	1.724405e+15	2.233158e+15	2.691957e+14	1.875951e+04	6.691400e+03	3.251787e+03	0	1.230848e-03
1.210000e+09	6.395690e+13	0.000000e+00	6.350367e-01	1.710145e+15	2.215989e+15	2.680469e+14	1.873075e+04	6.686189e+03	3.249255e+03	0	1.220208e-03
1.220000e+09	6.229427e+13	0.000000e+00	6.350367e-01	1.696084e+15	2.199049e+15	2.669056e+14	1.870222e+04	6.681016e+03	3.246741e+03	0	1.209542e-03
1.230000e+09	6.065620e+13	0.000000e+00	6.350367e-01	1.682218e+15	2.182334e+15	2.657719e+14	1.867393e+04	6.675880e+03	3.244245e+03	0	1.198846e-03
1.240000e+09	5.904220e+13	0.000000e+00	6.350367e-01	1.668544e+15	2.165840e+15	2.646457e+14	1.864587e+04	6.670781e+03	3.241767e+03	0	1.188116e-03
1.250000e+09	5.745181e+13	0.000000e+00	6.350367e-01	1.655057e+15	2.149563e+15	2.635270e+14	1.861803e+04	6.665717e+03	3.239307e+03	0	1.177351e-03
1.260000e+09	5.588456e+13	0.000000e+00	6.350367e-01	1.641755e+15	2.133499e+15	2.624156e+14	1.859042e+04	6.660690e+03	3.236863e+03	0	1.166547e-03
1.270000e+09	5.433999e+13	0.000000e+00	6.350367e-01	1.628634e+15	2.117643e+15	2.613115e+14	1.856303e+04	6.655697e+03	3.234437e+03	0	1.155699e-03
1.280000e+09	5.281767e+13	0.000000e+00	6.350367e-01	1.615690e+15	2.101992e+15	2.602147e+14	1.853586e+04	6.650740e+03	3.232028e+03	0	1.144804e-03
1.290000e+09	5.131718e+13	0.000000e+00	6.350367e-01	1.602920e+15	2.086543e+15	2.591251e+14	1.850891e+04	6.645816e+03	3.229635e+03	0	1.133859e-03
1.300000e+09	4.983807e+13	0.000000e+00	6.350367e-01	1.590320e+15	2.071291e+15	2.580427e+14	1.848216e+04	6.640927e+03	3.227259e+03	0	1.122859e-03
1.310000e+09	4.837996e+13	0.000000e+00	6.350367e-01	1.577888e+15	2.056234e+15	2.569673e+14	1.845563e+04	6.636071e+03	3.224900e+03	0	1.111800e-03
1.320000e+09	4.694244e+13	0.000000e+00	6.350367e-01	1.565621e+15	2.041366e+15	2.558990e+14	1.842930e+04	6.631248e+03	3.222556e+03	0	1.100677e-03
1.330000e+09	4.552513e+13	0.000000e+00	6.350367e-01	1.553515e+15	2.026686e+15	2.548377e+14	1.840318e+04	6.626459e+03	3.220228e+03	0	1.089487e-03
1.340000e+09	4.412763e+13	0.000000e+00	6.350367e-01	1.541567e+15	2.012190e+15	2.537833e+14	1.837726e+04	6.621701e+03	3.217916e+03	0	1.078222e-03
1.350000e+09	4.274958e+13	0.000000e+00	6.350367e-01	1.529775e+15	1.997874e+15	2.527358e+14	1.835154e+04	6.616975e+03	3.215620e+03	0	1.066880e-03
1.360000e+09	4.139063e+13	0.000000e+00	6.350367e-01	1.518136e+15	1.983736e+15	2.516951e+14	1.832601e+04	6.612281e+03	3.213339e+03	0	1.055453e-03
