#t		Qconv[W]	Ri[Rp]		R*[Rp]		Qc[W]		Qm[W]		Qr[W]		Tcmb[K]		Tl[K]		Tup[K]		RiFlag		Bs[T]
0.000000e+00	2.727247e+14	0.000000e+00	7.391304e-01	3.730701e+15	1.977289e+15	8.836061e+13	1.409972e+04	4.166460e+03	2.329562e+03	0	1.905833e-03
1.000000e+07	2.574219e+14	0.000000e+00	7.391304e-01	3.523738e+15	2.440944e+15	8.787102e+13	1.384800e+04	4.347055e+03	2.430537e+03	0	1.869499e-03
2.000000e+07	2.426706e+14	0.000000e+00	7.391304e-01	3.324253e+15	2.739521e+15	8.738510e+13	1.360999e+04	4.459912e+03	2.493638e+03	0	1.833085e-03
3.000000e+07	2.287962e+14	0.000000e+00	7.391304e-01	3.136623e+15	2.893671e+15	8.690281e+13	1.338523e+04	4.524120e+03	2.529538e+03	0	1.797462e-03
4.000000e+07	2.159071e+14	0.000000e+00	7.391304e-01	2.962302e+15	2.942468e+15	8.642412e+13	1.317294e+04	4.555518e+03	2.547093e+03	0	1.763055e-03
5.000000e+07	2.039998e+14	0.000000e+00	7.391304e-01	2.801240e+15	2.922298e+15	8.594901e+13	1.297226e+04	4.565624e+03	2.552743e+03	0	1.730029e-03
6.000000e+07	1.930214e+14	0.000000e+00	7.391304e-01	2.652721e+15	2.860390e+15	8.547743e+13	1.278231e+04	4.562255e+03	2.550860e+03	0	1.698421e-03
7.000000e+07	1.829009e+14	0.000000e+00	7.391304e-01	2.515786e+15	2.775123e+15	8.500936e+13	1.260228e+04	4.550524e+03	2.544301e+03	0	1.668202e-03
8.000000e+07	1.735636e+14	0.000000e+00	7.391304e-01	2.389427e+15	2.678217e+15	8.454478e+13	1.243141e+04	4.533719e+03	2.534905e+03	0	1.639317e-03
9.000000e+07	1.649377e+14	0.000000e+00	7.391304e-01	2.272675e+15	2.576882e+15	8.408365e+13	1.226899e+04	4.513937e+03	2.523844e+03	0	1.611697e-03
1.000000e+08	1.569566e+14	0.000000e+00	7.391304e-01	2.164631e+15	2.475422e+15	8.362594e+13	1.211440e+04	4.492513e+03	2.511866e+03	0	1.585270e-03
1.100000e+08	1.495597e+14	0.000000e+00	7.391304e-01	2.064479e+15	2.376325e+15	8.317163e+13	1.196705e+04	4.470296e+03	2.499443e+03	0	1.559965e-03
1.200000e+08	1.426926e+14	0.000000e+00	7.391304e-01	1.971483e+15	2.280954e+15	8.272069e+13	1.182642e+04	4.447824e+03	2.486879e+03	0	1.535715e-03
1.300000e+08	1.363064e+14	0.000000e+00	7.391304e-01	1.884983e+15	2.189993e+15	8.227309e+13	1.169205e+04	4.425439e+03	2.474363e+03	0	1.512454e-03
1.400000e+08	1.303573e+14	0.000000e+00	7.391304e-01	1.804390e+15	2.103708e+15	8.182880e+13	1.156350e+04	4.403351e+03	2.462013e+03	0	1.490122e-03
1.500000e+08	1.248063e+14	0.000000e+00	7.391304e-01	1.729176e+15	2.022125e+15	8.138779e+13	1.144037e+04	4.381692e+03	2.449903e+03	0	1.468664e-03
1.600000e+08	1.196186e+14	0.000000e+00	7.391304e-01	1.658870e+15	1.945125e+15	8.095004e+13	1.132231e+04	4.360538e+03	2.438075e+03	0	1.448026e-03
1.700000e+08	1.147627e+14	0.000000e+00	7.391304e-01	1.593049e+15	1.872513e+15	8.051552e+13	1.120899e+04	4.339930e+03	2.426553e+03	0	1.428160e-03
1.800000e+08	1.102107e+14	0.000000e+00	7.391304e-01	1.531336e+15	1.804054e+15	8.008421e+13	1.110012e+04	4.319886e+03	2.415346e+03	0	1.409023e-03
1.900000e+08	1.059374e+14	0.000000e+00	7.391304e-01	1.473391e+15	1.739497e+15	7.965607e+13	1.099541e+04	4.300410e+03	2.404456e+03	0	1.390571e-03
2.000000e+08	1.019203e+14	0.000000e+00	7.391304e-01	1.418908e+15	1.678592e+15	7.923108e+13	1.089462e+04	4.281496e+03	2.393881e+03	0	1.372767e-03
2.100000e+08	9.813878e+13	0.000000e+00	7.391304e-01	1.367612e+15	1.621092e+15	7.880922e+13	1.079751e+04	4.263131e+03	2.383613e+03	0	1.355575e-03
2.200000e+08	9.457461e+13	0.000000e+00	7.391304e-01	1.319255e+15	1.566765e+15	7.839046e+13	1.070388e+04	4.245301e+03	2.373644e+03	0	1.338962e-03
2.300000e+08	9.121111e+13	0.000000e+00	7.391304e-01	1.273611e+15	1.515392e+15	7.797477e+13	1.061352e+04	4.227987e+03	2.363963e+03	0	1.322897e-03
2.400000e+08	8.803320e+13	0.000000e+00	7.391304e-01	1.230477e+15	1.466767e+15	7.756212e+13	1.052626e+04	4.211171e+03	2.354560e+03	0	1.307351e-03
2.500000e+08	8.502721e+13	0.000000e+00	7.391304e-01	1.189669e+15	1.420700e+15	7.715250e+13	1.044192e+04	4.194832e+03	2.345425e+03	0	1.292298e-03
2.600000e+08	8.218069e+13	0.000000e+00	7.391304e-01	1.151019e+15	1.377016e+15	7.674588e+13	1.036035e+04	4.178952e+03	2.336547e+03	0	1.277713e-03
2.700000e+08	7.948232e+13	0.000000e+00	7.391304e-01	1.114373e+15	1.335553e+15	7.634223e+13	1.028140e+04	4.163513e+03	2.327914e+03	0	1.263573e-03
2.800000e+08	7.692176e+13	0.000000e+00	7.391304e-01	1.079592e+15	1.296160e+15	7.594152e+13	1.020495e+04	4.148495e+03	2.319517e+03	0	1.249856e-03
2.900000e+08	7.448959e+13	0.000000e+00	7.391304e-01	1.046548e+15	1.258700e+15	7.554375e+13	1.013085e+04	4.133881e+03	2.311346e+03	0	1.236541e-03
3.000000e+08	7.217715e+13	0.000000e+00	7.391304e-01	1.015125e+15	1.223047e+15	7.514887e+13	1.005900e+04	4.119654e+03	2.303391e+03	0	1.223611e-03
3.100000e+08	6.997654e+13	0.000000e+00	7.391304e-01	9.852152e+14	1.189082e+15	7.475687e+13	9.989293e+03	4.105798e+03	2.295644e+03	0	1.211047e-03
3.200000e+08	6.788047e+13	0.000000e+00	7.391304e-01	9.567210e+14	1.156699e+15	7.436772e+13	9.921618e+03	4.092298e+03	2.288096e+03	0	1.198832e-03
3.300000e+08	6.588227e+13	0.000000e+00	7.391304e-01	9.295518e+14	1.125798e+15	7.398140e+13	9.855882e+03	4.079139e+03	2.280738e+03	0	1.186951e-03
3.400000e+08	6.397578e+13	0.000000e+00	7.391304e-01	9.036246e+14	1.096286e+15	7.359788e+13	9.791997e+03	4.066307e+03	2.273564e+03	0	1.175390e-03
3.500000e+08	6.215533e+13	0.000000e+00	7.391304e-01	8.788625e+14	1.068080e+15	7.321715e+13	9.729878e+03	4.053788e+03	2.266565e+03	0	1.164134e-03
3.600000e+08	6.041569e+13	0.000000e+00	7.391304e-01	8.551950e+14	1.041101e+15	7.283918e+13	9.669446e+03	4.041572e+03	2.259734e+03	0	1.153170e-03
3.700000e+08	5.875202e+13	0.000000e+00	7.391304e-01	8.325564e+14	1.015275e+15	7.246395e+13	9.610628e+03	4.029644e+03	2.253065e+03	0	1.142486e-03
3.800000e+08	5.715984e+13	0.000000e+00	7.391304e-01	8.108863e+14	9.905367e+14	7.209143e+13	9.553355e+03	4.017996e+03	2.246552e+03	0	1.132071e-03
3.900000e+08	5.563500e+13	0.000000e+00	7.391304e-01	7.901286e+14	9.668223e+14	7.172160e+13	9.497560e+03	4.006614e+03	2.240188e+03	0	1.121914e-03
4.000000e+08	5.417365e+13	0.000000e+00	7.391304e-01	7.702312e+14	9.440742e+14	7.135445e+13	9.443182e+03	3.995490e+03	2.233969e+03	0	1.112003e-03
4.100000e+08	5.277221e+13	0.000000e+00	7.391304e-01	7.511458e+14	9.222384e+14	7.098994e+13	9.390162e+03	3.984614e+03	2.227888e+03	0	1.102331e-03
4.200000e+08	5.142737e+13	0.000000e+00	7.391304e-01	7.328274e+14	9.012647e+14	7.062806e+13	9.338446e+03	3.973977e+03	2.221940e+03	0	1.092886e-03
4.300000e+08	5.013602e+13	0.000000e+00	7.391304e-01	7.152342e+14	8.811066e+14	7.026878e+13	9.287982e+03	3.963570e+03	2.216121e+03	0	1.083661e-03
4.400000e+08	4.889529e+13	0.000000e+00	7.391304e-01	6.983272e+14	8.617203e+14	6.991209e+13	9.238719e+03	3.953384e+03	2.210426e+03	0	1.074647e-03
4.500000e+08	4.770249e+13	0.000000e+00	7.391304e-01	6.820700e+14	8.430652e+14	6.955797e+13	9.190613e+03	3.943412e+03	2.204851e+03	0	1.065836e-03
4.600000e+08	4.655511e+13	0.000000e+00	7.391304e-01	6.664287e+14	8.251035e+14	6.920638e+13	9.143618e+03	3.933646e+03	2.199390e+03	0	1.057221e-03
4.700000e+08	4.545080e+13	0.000000e+00	7.391304e-01	6.513715e+14	8.077995e+14	6.885732e+13	9.097693e+03	3.924080e+03	2.194042e+03	0	1.048795e-03
4.800000e+08	4.438737e+13	0.000000e+00	7.391304e-01	6.368687e+14	7.911200e+14	6.851076e+13	9.052799e+03	3.914706e+03	2.188800e+03	0	1.040551e-03
4.900000e+08	4.336276e+13	0.000000e+00	7.391304e-01	6.228925e+14	7.750340e+14	6.816668e+13	9.008897e+03	3.905518e+03	2.183663e+03	0	1.032482e-03
5.000000e+08	4.237505e+13	0.000000e+00	7.391304e-01	6.094169e+14	7.595123e+14	6.782506e+13	8.965951e+03	3.896509e+03	2.178626e+03	0	1.024582e-03
5.100000e+08	4.142244e+13	0.000000e+00	7.391304e-01	5.964175e+14	7.445275e+14	6.748588e+13	8.923928e+03	3.887674e+03	2.173686e+03	0	1.016846e-03
5.200000e+08	4.050322e+13	0.000000e+00	7.391304e-01	5.838713e+14	7.300539e+14	6.714912e+13	8.882796e+03	3.879008e+03	2.168841e+03	0	1.009268e-03
5.300000e+08	3.961581e+13	0.000000e+00	7.391304e-01	5.717567e+14	7.160673e+14	6.681477e+13	8.842523e+03	3.870504e+03	2.164086e+03	0	1.001843e-03
5.400000e+08	3.875871e+13	0.000000e+00	7.391304e-01	5.600535e+14	7.025451e+14	6.648279e+13	8.803080e+03	3.862158e+03	2.159420e+03	0	9.945651e-04
5.500000e+08	3.793051e+13	0.000000e+00	7.391304e-01	5.487426e+14	6.894658e+14	6.615318e+13	8.764439e+03	3.853964e+03	2.154838e+03	0	9.874300e-04
5.600000e+08	3.712988e+13	0.000000e+00	7.391304e-01	5.378060e+14	6.768094e+14	6.582591e+13	8.726574e+03	3.845919e+03	2.150340e+03	0	9.804331e-04
5.700000e+08	3.635558e+13	0.000000e+00	7.391304e-01	5.272268e+14	6.645568e+14	6.550096e+13	8.689458e+03	3.838017e+03	2.145922e+03	0	9.735699e-04
5.800000e+08	3.560642e+13	0.000000e+00	7.391304e-01	5.169891e+14	6.526901e+14	6.517832e+13	8.653068e+03	3.830253e+03	2.141581e+03	0	9.668362e-04
5.900000e+08	3.488130e+13	0.000000e+00	7.391304e-01	5.070777e+14	6.411925e+14	6.485797e+13	8.617380e+03	3.822625e+03	2.137316e+03	0	9.602279e-04
6.000000e+08	3.417915e+13	0.000000e+00	7.391304e-01	4.974785e+14	6.300479e+14	6.453988e+13	8.582372e+03	3.815128e+03	2.133124e+03	0	9.537412e-04
6.100000e+08	3.349899e+13	0.000000e+00	7.391304e-01	4.881779e+14	6.192412e+14	6.422405e+13	8.548023e+03	3.807758e+03	2.129003e+03	0	9.473723e-04
6.200000e+08	3.283988e+13	0.000000e+00	7.391304e-01	4.791633e+14	6.087582e+14	6.391044e+13	8.514312e+03	3.800511e+03	2.124952e+03	0	9.411178e-04
6.300000e+08	3.220093e+13	0.000000e+00	7.391304e-01	4.704227e+14	5.985854e+14	6.359905e+13	8.481220e+03	3.793385e+03	2.120967e+03	0	9.349741e-04
6.400000e+08	3.158130e+13	0.000000e+00	7.391304e-01	4.619445e+14	5.887099e+14	6.328986e+13	8.448728e+03	3.786375e+03	2.117047e+03	0	9.289381e-04
6.500000e+08	3.098019e+13	0.000000e+00	7.391304e-01	4.537180e+14	5.791196e+14	6.298284e+13	8.416818e+03	3.779478e+03	2.113191e+03	0	9.230066e-04
6.600000e+08	3.039684e+13	0.000000e+00	7.391304e-01	4.457329e+14	5.698030e+14	6.267799e+13	8.385473e+03	3.772691e+03	2.109397e+03	0	9.171765e-04
6.700000e+08	2.983054e+13	0.000000e+00	7.391304e-01	4.379796e+14	5.607492e+14	6.237528e+13	8.354677e+03	3.766012e+03	2.105662e+03	0	9.114450e-04
6.800000e+08	2.928061e+13	0.000000e+00	7.391304e-01	4.304488e+14	5.519478e+14	6.207469e+13	8.324413e+03	3.759437e+03	2.101986e+03	0	9.058094e-04
6.900000e+08	2.874639e+13	0.000000e+00	7.391304e-01	4.231318e+14	5.433889e+14	6.177621e+13	8.294667e+03	3.752963e+03	2.098366e+03	0	9.002668e-04
7.000000e+08	2.822728e+13	0.000000e+00	7.391304e-01	4.160201e+14	5.350633e+14	6.147983e+13	8.265423e+03	3.746588e+03	2.094802e+03	0	8.948148e-04
7.100000e+08	2.772270e+13	0.000000e+00	7.391304e-01	4.091060e+14	5.269619e+14	6.118552e+13	8.236669e+03	3.740309e+03	2.091291e+03	0	8.894508e-04
7.200000e+08	2.723207e+13	0.000000e+00	7.391304e-01	4.023818e+14	5.190764e+14	6.089327e+13	8.208390e+03	3.734124e+03	2.087833e+03	0	8.841725e-04
7.300000e+08	2.675489e+13	0.000000e+00	7.391304e-01	3.958403e+14	5.113986e+14	6.060306e+13	8.180573e+03	3.728031e+03	2.084426e+03	0	8.789776e-04
7.400000e+08	2.629063e+13	0.000000e+00	7.391304e-01	3.894749e+14	5.039209e+14	6.031487e+13	8.153206e+03	3.722026e+03	2.081069e+03	0	8.738639e-04
7.500000e+08	2.583883e+13	0.000000e+00	7.391304e-01	3.832788e+14	4.966359e+14	6.002870e+13	8.126276e+03	3.716108e+03	2.077760e+03	0	8.688292e-04
7.600000e+08	2.539903e+13	0.000000e+00	7.391304e-01	3.772460e+14	4.895367e+14	5.974452e+13	8.099773e+03	3.710275e+03	2.074498e+03	0	8.638715e-04
7.700000e+08	2.497078e+13	0.000000e+00	7.391304e-01	3.713706e+14	4.826166e+14	5.946231e+13	8.073685e+03	3.704524e+03	2.071283e+03	0	8.589888e-04
7.800000e+08	2.455368e+13	0.000000e+00	7.391304e-01	3.656468e+14	4.758692e+14	5.918207e+13	8.048001e+03	3.698854e+03	2.068113e+03	0	8.541791e-04
7.900000e+08	2.414732e+13	0.000000e+00	7.391304e-01	3.600693e+14	4.692885e+14	5.890377e+13	8.022712e+03	3.693262e+03	2.064986e+03	0	8.494407e-04
8.000000e+08	2.375133e+13	0.000000e+00	7.391304e-01	3.546329e+14	4.628687e+14	5.862741e+13	7.997805e+03	3.687747e+03	2.061903e+03	0	8.447718e-04
8.100000e+08	2.336534e+13	0.000000e+00	7.391304e-01	3.493327e+14	4.566043e+14	5.835296e+13	7.973274e+03	3.682307e+03	2.058861e+03	0	8.401706e-04
8.200000e+08	2.298901e+13	0.000000e+00	7.391304e-01	3.441641e+14	4.504898e+14	5.808040e+13	7.949107e+03	3.676940e+03	2.055860e+03	0	8.356355e-04
8.300000e+08	2.262201e+13	0.000000e+00	7.391304e-01	3.391224e+14	4.445204e+14	5.780974e+13	7.925295e+03	3.671644e+03	2.052899e+03	0	8.311648e-04
8.400000e+08	2.226401e+13	0.000000e+00	7.391304e-01	3.342035e+14	4.386910e+14	5.754094e+13	7.901831e+03	3.666419e+03	2.049977e+03	0	8.267571e-04
8.500000e+08	2.191472e+13	0.000000e+00	7.391304e-01	3.294032e+14	4.329972e+14	5.727400e+13	7.878706e+03	3.661261e+03	2.047093e+03	0	8.224107e-04
8.600000e+08	2.157384e+13	0.000000e+00	7.391304e-01	3.247175e+14	4.274343e+14	5.700889e+13	7.855911e+03	3.656170e+03	2.044247e+03	0	8.181243e-04
8.700000e+08	2.124111e+13	0.000000e+00	7.391304e-01	3.201427e+14	4.219983e+14	5.674561e+13	7.833439e+03	3.651144e+03	2.041437e+03	0	8.138964e-04
8.800000e+08	2.091624e+13	0.000000e+00	7.391304e-01	3.156752e+14	4.166849e+14	5.648415e+13	7.811282e+03	3.646181e+03	2.038662e+03	0	8.097258e-04
8.900000e+08	2.059898e+13	0.000000e+00	7.391304e-01	3.113114e+14	4.114903e+14	5.622448e+13	7.789433e+03	3.641281e+03	2.035922e+03	0	8.056109e-04
9.000000e+08	2.028910e+13	0.000000e+00	7.391304e-01	3.070481e+14	4.064107e+14	5.596659e+13	7.767885e+03	3.636442e+03	2.033217e+03	0	8.015507e-04
9.100000e+08	1.998634e+13	0.000000e+00	7.391304e-01	3.028820e+14	4.014425e+14	5.571047e+13	7.746630e+03	3.631662e+03	2.030544e+03	0	7.975438e-04
9.200000e+08	1.969050e+13	0.000000e+00	7.391304e-01	2.988102e+14	3.965822e+14	5.545610e+13	7.725663e+03	3.626941e+03	2.027904e+03	0	7.935891e-04
9.300000e+08	1.940135e+13	0.000000e+00	7.391304e-01	2.948296e+14	3.918266e+14	5.520347e+13	7.704976e+03	3.622276e+03	2.025296e+03	0	7.896854e-04
9.400000e+08	1.911868e+13	0.000000e+00	7.391304e-01	2.909374e+14	3.871724e+14	5.495257e+13	7.684563e+03	3.617668e+03	2.022720e+03	0	7.858315e-04
9.500000e+08	1.884230e+13	0.000000e+00	7.391304e-01	2.871309e+14	3.826166e+14	5.470339e+13	7.664419e+03	3.613114e+03	2.020174e+03	0	7.820264e-04
9.600000e+08	1.857201e+13	0.000000e+00	7.391304e-01	2.834076e+14	3.781562e+14	5.445590e+13	7.644537e+03	3.608614e+03	2.017657e+03	0	7.782690e-04
9.700000e+08	1.830762e+13	0.000000e+00	7.391304e-01	2.797648e+14	3.737884e+14	5.421009e+13	7.624912e+03	3.604166e+03	2.015171e+03	0	7.745583e-04
9.800000e+08	1.804897e+13	0.000000e+00	7.391304e-01	2.762002e+14	3.695104e+14	5.396596e+13	7.605538e+03	3.599770e+03	2.012712e+03	0	7.708932e-04
9.900000e+08	1.779587e+13	0.000000e+00	7.391304e-01	2.727115e+14	3.653197e+14	5.372349e+13	7.586410e+03	3.595424e+03	2.010282e+03	0	7.672729e-04
1.000000e+09	1.754817e+13	0.000000e+00	7.391304e-01	2.692964e+14	3.612136e+14	5.348267e+13	7.567523e+03	3.591127e+03	2.007880e+03	0	7.636964e-04
1.010000e+09	1.730571e+13	0.000000e+00	7.391304e-01	2.659528e+14	3.571899e+14	5.324348e+13	7.548871e+03	3.586878e+03	2.005505e+03	0	7.601627e-04
1.020000e+09	1.706833e+13	0.000000e+00	7.391304e-01	2.626785e+14	3.532460e+14	5.300590e+13	7.530449e+03	3.582677e+03	2.003156e+03	0	7.566710e-04
1.030000e+09	1.683588e+13	0.000000e+00	7.391304e-01	2.594717e+14	3.493798e+14	5.276994e+13	7.512254e+03	3.578523e+03	2.000833e+03	0	7.532204e-04
1.040000e+09	1.660824e+13	0.000000e+00	7.391304e-01	2.563304e+14	3.455891e+14	5.253557e+13	7.494280e+03	3.574413e+03	1.998535e+03	0	7.498101e-04
1.050000e+09	1.638525e+13	0.000000e+00	7.391304e-01	2.532527e+14	3.418718e+14	5.230278e+13	7.476522e+03	3.570349e+03	1.996263e+03	0	7.464392e-04
1.060000e+09	1.616679e+13	0.000000e+00	7.391304e-01	2.502369e+14	3.382259e+14	5.207157e+13	7.458977e+03	3.566328e+03	1.994015e+03	0	7.431070e-04
1.070000e+09	1.595273e+13	0.000000e+00	7.391304e-01	2.472812e+14	3.346494e+14	5.184191e+13	7.441640e+03	3.562351e+03	1.991791e+03	0	7.398127e-04
1.080000e+09	1.574296e+13	0.000000e+00	7.391304e-01	2.443840e+14	3.311404e+14	5.161380e+13	7.424507e+03	3.558415e+03	1.989590e+03	0	7.365556e-04
1.090000e+09	1.553734e+13	0.000000e+00	7.391304e-01	2.415436e+14	3.276972e+14	5.138722e+13	7.407574e+03	3.554521e+03	1.987413e+03	0	7.333349e-04
1.100000e+09	1.533577e+13	0.000000e+00	7.391304e-01	2.387586e+14	3.243179e+14	5.116216e+13	7.390837e+03	3.550667e+03	1.985258e+03	0	7.301499e-04
1.110000e+09	1.513814e+13	0.000000e+00	7.391304e-01	2.360273e+14	3.210008e+14	5.093861e+13	7.374292e+03	3.546854e+03	1.983126e+03	0	7.269999e-04
1.120000e+09	1.494435e+13	0.000000e+00	7.391304e-01	2.333485e+14	3.177444e+14	5.071656e+13	7.357936e+03	3.543079e+03	1.981015e+03	0	7.238842e-04
1.130000e+09	1.475428e+13	0.000000e+00	7.391304e-01	2.307207e+14	3.145471e+14	5.049599e+13	7.341765e+03	3.539343e+03	1.978926e+03	0	7.208022e-04
1.140000e+09	1.456785e+13	0.000000e+00	7.391304e-01	2.281424e+14	3.114073e+14	5.027690e+13	7.325775e+03	3.535645e+03	1.976859e+03	0	7.177533e-04
1.150000e+09	1.438495e+13	0.000000e+00	7.391304e-01	2.256126e+14	3.083235e+14	5.005927e+13	7.309963e+03	3.531983e+03	1.974811e+03	0	7.147369e-04
1.160000e+09	1.420549e+13	0.000000e+00	7.391304e-01	2.231298e+14	3.052943e+14	4.984310e+13	7.294326e+03	3.528358e+03	1.972785e+03	0	7.117522e-04
1.170000e+09	1.402939e+13	0.000000e+00	7.391304e-01	2.206929e+14	3.023184e+14	4.962836e+13	7.278860e+03	3.524769e+03	1.970778e+03	0	7.087988e-04
1.180000e+09	1.385655e+13	0.000000e+00	7.391304e-01	2.183006e+14	2.993944e+14	4.941505e+13	7.263563e+03	3.521215e+03	1.968791e+03	0	7.058761e-04
1.190000e+09	1.368690e+13	0.000000e+00	7.391304e-01	2.159520e+14	2.965210e+14	4.920316e+13	7.248430e+03	3.517695e+03	1.966823e+03	0	7.029835e-04
1.200000e+09	1.352035e+13	0.000000e+00	7.391304e-01	2.136457e+14	2.936969e+14	4.899268e+13	7.233460e+03	3.514209e+03	1.964874e+03	0	7.001204e-04
1.210000e+09	1.335682e+13	0.000000e+00	7.391304e-01	2.113809e+14	2.909210e+14	4.878359e+13	7.218650e+03	3.510757e+03	1.962943e+03	0	6.972863e-04
1.220000e+09	1.319624e+13	0.000000e+00	7.391304e-01	2.091564e+14	2.881920e+14	4.857589e+13	7.203996e+03	3.507337e+03	1.961031e+03	0	6.944808e-04
1.230000e+09	1.303854e+13	0.000000e+00	7.391304e-01	2.069713e+14	2.855089e+14	4.836956e+13	7.189495e+03	3.503950e+03	1.959137e+03	0	6.917032e-04
1.240000e+09	1.288365e+13	0.000000e+00	7.391304e-01	2.048245e+14	2.828705e+14	4.816460e+13	7.175145e+03	3.500594e+03	1.957261e+03	0	6.889532e-04
1.250000e+09	1.273149e+13	0.000000e+00	7.391304e-01	2.027153e+14	2.802758e+14	4.796099e+13	7.160944e+03	3.497270e+03	1.955402e+03	0	6.862302e-04
1.260000e+09	1.258199e+13	0.000000e+00	7.391304e-01	2.006425e+14	2.777237e+14	4.775872e+13	7.146889e+03	3.493976e+03	1.953561e+03	0	6.835337e-04
1.270000e+09	1.243511e+13	0.000000e+00	7.391304e-01	1.986054e+14	2.752132e+14	4.755778e+13	7.132976e+03	3.490712e+03	1.951736e+03	0	6.808633e-04
1.280000e+09	1.229076e+13	0.000000e+00	7.391304e-01	1.966032e+14	2.727434e+14	4.735817e+13	7.119205e+03	3.487478e+03	1.949927e+03	0	6.782186e-04
1.290000e+09	1.214889e+13	0.000000e+00	7.391304e-01	1.946349e+14	2.703132e+14	4.715987e+13	7.105572e+03	3.484273e+03	1.948135e+03	0	6.755990e-04
1.300000e+09	1.200945e+13	0.000000e+00	7.391304e-01	1.926998e+14	2.679219e+14	4.696287e+13	7.092075e+03	3.481096e+03	1.946359e+03	0	6.730043e-04
1.310000e+09	1.187237e+13	0.000000e+00	7.391304e-01	1.907971e+14	2.655685e+14	4.676716e+13	7.078711e+03	3.477948e+03	1.944599e+03	0	6.704339e-04
1.320000e+09	1.173761e+13	0.000000e+00	7.391304e-01	1.889260e+14	2.632521e+14	4.657273e+13	7.065479e+03	3.474828e+03	1.942854e+03	0	6.678874e-04
1.330000e+09	1.160509e+13	0.000000e+00	7.391304e-01	1.870859e+14	2.609720e+14	4.637957e+13	7.052377e+03	3.471735e+03	1.941125e+03	0	6.653645e-04
1.340000e+09	1.147479e+13	0.000000e+00	7.391304e-01	1.852760e+14	2.587272e+14	4.618768e+13	7.039402e+03	3.468668e+03	1.939411e+03	0	6.628648e-04
1.350000e+09	1.134663e+13	0.000000e+00	7.391304e-01	1.834956e+14	2.565170e+14	4.599704e+13	7.026551e+03	3.465629e+03	1.937711e+03	0	6.603879e-04
1.360000e+09	1.122058e+13	0.000000e+00	7.391304e-01	1.817440e+14	2.543407e+14	4.580764e+13	7.013824e+03	3.462615e+03	1.936026e+03	0	6.579333e-04
