#t		Qconv[W]	Ri[Rp]		R*[Rp]		Qc[W]		Qm[W]		Qr[W]		Tcmb[K]		Tl[K]		Tup[K]		RiFlag		Bs[T]
0.000000e+00	8.698112e+13	0.000000e+00	7.318841e-01	1.139813e+15	1.513566e+15	1.069706e+14	1.082956e+04	3.818079e+03	2.394537e+03	0	1.300034e-03
1.000000e+07	8.443750e+13	0.000000e+00	7.318841e-01	1.108010e+15	1.452856e+15	1.063779e+14	1.076371e+04	3.796278e+03	2.380865e+03	0	1.287236e-03
2.000000e+07	8.202441e+13	0.000000e+00	7.318841e-01	1.077830e+15	1.399124e+15	1.057897e+14	1.069968e+04	3.776736e+03	2.368608e+03	0	1.274855e-03
3.000000e+07	7.973034e+13	0.000000e+00	7.318841e-01	1.049129e+15	1.351011e+15	1.052058e+14	1.063739e+04	3.759029e+03	2.357503e+03	0	1.262858e-03
4.000000e+07	7.754544e+13	0.000000e+00	7.318841e-01	1.021786e+15	1.307488e+15	1.046263e+14	1.057673e+04	3.742831e+03	2.347345e+03	0	1.251215e-03
5.000000e+07	7.546115e+13	0.000000e+00	7.318841e-01	9.956948e+14	1.267769e+15	1.040511e+14	1.051765e+04	3.727884e+03	2.337971e+03	0	1.239903e-03
6.000000e+07	7.347000e+13	0.000000e+00	7.318841e-01	9.707625e+14	1.231241e+15	1.034802e+14	1.046006e+04	3.713987e+03	2.329255e+03	0	1.228900e-03
7.000000e+07	7.156540e+13	0.000000e+00	7.318841e-01	9.469074e+14	1.197420e+15	1.029136e+14	1.040391e+04	3.700978e+03	2.321096e+03	0	1.218188e-03
8.000000e+07	6.974149e+13	0.000000e+00	7.318841e-01	9.240568e+14	1.165924e+15	1.023511e+14	1.034912e+04	3.688725e+03	2.313412e+03	0	1.207750e-03
9.000000e+07	6.799302e+13	0.000000e+00	7.318841e-01	9.021455e+14	1.136444e+15	1.017929e+14	1.029565e+04	3.677124e+03	2.306136e+03	0	1.197571e-03
1.000000e+08	6.631527e+13	0.000000e+00	7.318841e-01	8.811149e+14	1.108728e+15	1.012388e+14	1.024343e+04	3.666088e+03	2.299215e+03	0	1.187639e-03
1.100000e+08	6.470396e+13	0.000000e+00	7.318841e-01	8.609119e+14	1.082571e+15	1.006888e+14	1.019243e+04	3.655546e+03	2.292604e+03	0	1.177941e-03
1.200000e+08	6.315519e+13	0.000000e+00	7.318841e-01	8.414881e+14	1.057801e+15	1.001429e+14	1.014258e+04	3.645442e+03	2.286266e+03	0	1.168466e-03
1.300000e+08	6.166541e+13	0.000000e+00	7.318841e-01	8.227993e+14	1.034276e+15	9.960098e+13	1.009385e+04	3.635724e+03	2.280172e+03	0	1.159205e-03
1.400000e+08	6.023135e+13	0.000000e+00	7.318841e-01	8.048050e+14	1.011875e+15	9.906311e+13	1.004620e+04	3.626354e+03	2.274295e+03	0	1.150149e-03
1.500000e+08	5.885000e+13	0.000000e+00	7.318841e-01	7.874677e+14	9.904955e+14	9.852922e+13	9.999580e+03	3.617296e+03	2.268615e+03	0	1.141288e-03
1.600000e+08	5.751859e+13	0.000000e+00	7.318841e-01	7.707530e+14	9.700506e+14	9.799928e+13	9.953958e+03	3.608522e+03	2.263112e+03	0	1.132616e-03
1.700000e+08	5.623453e+13	0.000000e+00	7.318841e-01	7.546288e+14	9.504640e+14	9.747325e+13	9.909299e+03	3.600006e+03	2.257771e+03	0	1.124124e-03
1.800000e+08	5.499545e+13	0.000000e+00	7.318841e-01	7.390654e+14	9.316698e+14	9.695109e+13	9.865567e+03	3.591728e+03	2.252580e+03	0	1.115806e-03
1.900000e+08	5.379912e+13	0.000000e+00	7.318841e-01	7.240353e+14	9.136102e+14	9.643278e+13	9.822731e+03	3.583670e+03	2.247526e+03	0	1.107656e-03
2.000000e+08	5.264346e+13	0.000000e+00	7.318841e-01	7.095125e+14	8.962344e+14	9.591828e+13	9.780761e+03	3.575814e+03	2.242599e+03	0	1.099667e-03
2.100000e+08	5.152653e+13	0.000000e+00	7.318841e-01	6.954729e+14	8.794971e+14	9.540757e+13	9.739628e+03	3.568148e+03	2.237791e+03	0	1.091834e-03
2.200000e+08	5.044651e+13	0.000000e+00	7.318841e-01	6.818940e+14	8.633579e+14	9.490061e+13	9.699303e+03	3.560660e+03	2.233095e+03	0	1.084152e-03
2.300000e+08	4.940171e+13	0.000000e+00	7.318841e-01	6.687546e+14	8.477807e+14	9.439737e+13	9.659761e+03	3.553337e+03	2.228502e+03	0	1.076615e-03
2.400000e+08	4.839052e+13	0.000000e+00	7.318841e-01	6.560348e+14	8.327328e+14	9.389781e+13	9.620976e+03	3.546172e+03	2.224009e+03	0	1.069219e-03
2.500000e+08	4.741145e+13	0.000000e+00	7.318841e-01	6.437160e+14	8.181844e+14	9.340192e+13	9.582924e+03	3.539156e+03	2.219608e+03	0	1.061959e-03
2.600000e+08	4.646307e+13	0.000000e+00	7.318841e-01	6.317804e+14	8.041088e+14	9.290966e+13	9.545583e+03	3.532280e+03	2.215296e+03	0	1.054830e-03
2.700000e+08	4.554406e+13	0.000000e+00	7.318841e-01	6.202115e+14	7.904810e+14	9.242099e+13	9.508930e+03	3.525538e+03	2.211068e+03	0	1.047829e-03
2.800000e+08	4.465316e+13	0.000000e+00	7.318841e-01	6.089937e+14	7.772786e+14	9.193590e+13	9.472944e+03	3.518924e+03	2.206920e+03	0	1.040952e-03
2.900000e+08	4.378917e+13	0.000000e+00	7.318841e-01	5.981121e+14	7.644805e+14	9.145434e+13	9.437605e+03	3.512433e+03	2.202849e+03	0	1.034194e-03
3.000000e+08	4.295098e+13	0.000000e+00	7.318841e-01	5.875528e+14	7.520675e+14	9.097630e+13	9.402894e+03	3.506058e+03	2.198851e+03	0	1.027553e-03
3.100000e+08	4.213752e+13	0.000000e+00	7.318841e-01	5.773026e+14	7.400217e+14	9.050173e+13	9.368792e+03	3.499796e+03	2.194923e+03	0	1.021024e-03
3.200000e+08	4.134778e+13	0.000000e+00	7.318841e-01	5.673488e+14	7.283264e+14	9.003062e+13	9.335282e+03	3.493641e+03	2.191064e+03	0	1.014606e-03
3.300000e+08	4.058082e+13	0.000000e+00	7.318841e-01	5.576797e+14	7.169660e+14	8.956294e+13	9.302347e+03	3.487591e+03	2.187269e+03	0	1.008293e-03
3.400000e+08	3.983573e+13	0.000000e+00	7.318841e-01	5.482840e+14	7.059261e+14	8.909865e+13	9.269970e+03	3.481640e+03	2.183537e+03	0	1.002084e-03
3.500000e+08	3.911165e+13	0.000000e+00	7.318841e-01	5.391510e+14	6.951931e+14	8.863773e+13	9.238135e+03	3.475787e+03	2.179866e+03	0	9.959752e-04
3.600000e+08	3.840776e+13	0.000000e+00	7.318841e-01	5.302704e+14	6.847541e+14	8.818015e+13	9.206828e+03	3.470026e+03	2.176253e+03	0	9.899641e-04
3.700000e+08	3.772329e+13	0.000000e+00	7.318841e-01	5.216328e+14	6.745973e+14	8.772589e+13	9.176033e+03	3.464357e+03	2.172697e+03	0	9.840481e-04
3.800000e+08	3.705750e+13	0.000000e+00	7.318841e-01	5.132288e+14	6.647112e+14	8.727491e+13	9.145738e+03	3.458774e+03	2.169196e+03	0	9.782245e-04
3.900000e+08	3.640970e+13	0.000000e+00	7.318841e-01	5.050498e+14	6.550853e+14	8.682720e+13	9.115928e+03	3.453276e+03	2.165748e+03	0	9.724908e-04
4.000000e+08	3.577920e+13	0.000000e+00	7.318841e-01	4.970874e+14	6.457094e+14	8.638271e+13	9.086591e+03	3.447861e+03	2.162352e+03	0	9.668447e-04
4.100000e+08	3.516539e+13	0.000000e+00	7.318841e-01	4.893336e+14	6.365740e+14	8.594143e+13	9.057714e+03	3.442525e+03	2.159006e+03	0	9.612838e-04
4.200000e+08	3.456765e+13	0.000000e+00	7.318841e-01	4.817810e+14	6.276701e+14	8.550334e+13	9.029285e+03	3.437267e+03	2.155708e+03	0	9.558060e-04
4.300000e+08	3.398539e+13	0.000000e+00	7.318841e-01	4.744224e+14	6.189892e+14	8.506839e+13	9.001293e+03	3.432085e+03	2.152458e+03	0	9.504091e-04
4.400000e+08	3.341808e+13	0.000000e+00	7.318841e-01	4.672507e+14	6.105231e+14	8.463658e+13	8.973727e+03	3.426975e+03	2.149254e+03	0	9.450911e-04
4.500000e+08	3.286518e+13	0.000000e+00	7.318841e-01	4.602595e+14	6.022640e+14	8.420787e+13	8.946574e+03	3.421937e+03	2.146094e+03	0	9.398499e-04
4.600000e+08	3.232620e+13	0.000000e+00	7.318841e-01	4.534426e+14	5.942047e+14	8.378224e+13	8.919827e+03	3.416969e+03	2.142978e+03	0	9.346837e-04
4.700000e+08	3.180064e+13	0.000000e+00	7.318841e-01	4.467938e+14	5.863381e+14	8.335966e+13	8.893473e+03	3.412068e+03	2.139904e+03	0	9.295907e-04
4.800000e+08	3.128805e+13	0.000000e+00	7.318841e-01	4.403074e+14	5.786575e+14	8.294011e+13	8.867504e+03	3.407232e+03	2.136872e+03	0	9.245690e-04
4.900000e+08	3.078799e+13	0.000000e+00	7.318841e-01	4.339780e+14	5.711567e+14	8.252356e+13	8.841911e+03	3.402462e+03	2.133880e+03	0	9.196169e-04
5.000000e+08	3.030004e+13	0.000000e+00	7.318841e-01	4.278004e+14	5.638295e+14	8.210999e+13	8.816683e+03	3.397753e+03	2.130927e+03	0	9.147327e-04
5.100000e+08	2.982379e+13	0.000000e+00	7.318841e-01	4.217694e+14	5.566701e+14	8.169937e+13	8.791813e+03	3.393106e+03	2.128012e+03	0	9.099149e-04
5.200000e+08	2.935886e+13	0.000000e+00	7.318841e-01	4.158802e+14	5.496730e+14	8.129169e+13	8.767292e+03	3.388519e+03	2.125135e+03	0	9.051618e-04
5.300000e+08	2.890488e+13	0.000000e+00	7.318841e-01	4.101284e+14	5.428329e+14	8.088691e+13	8.743112e+03	3.383990e+03	2.122295e+03	0	9.004720e-04
5.400000e+08	2.846150e+13	0.000000e+00	7.318841e-01	4.045093e+14	5.361448e+14	8.048502e+13	8.719265e+03	3.379518e+03	2.119490e+03	0	8.958440e-04
5.500000e+08	2.802837e+13	0.000000e+00	7.318841e-01	3.990188e+14	5.296037e+14	8.008598e+13	8.695743e+03	3.375101e+03	2.116720e+03	0	8.912764e-04
5.600000e+08	2.760517e+13	0.000000e+00	7.318841e-01	3.936529e+14	5.232051e+14	7.968979e+13	8.672538e+03	3.370739e+03	2.113985e+03	0	8.867679e-04
5.700000e+08	2.719158e+13	0.000000e+00	7.318841e-01	3.884075e+14	5.169445e+14	7.929640e+13	8.649645e+03	3.366430e+03	2.111282e+03	0	8.823170e-04
5.800000e+08	2.678731e+13	0.000000e+00	7.318841e-01	3.832790e+14	5.108175e+14	7.890581e+13	8.627055e+03	3.362173e+03	2.108612e+03	0	8.779225e-04
5.900000e+08	2.639207e+13	0.000000e+00	7.318841e-01	3.782637e+14	5.048201e+14	7.851799e+13	8.604762e+03	3.357966e+03	2.105974e+03	0	8.735832e-04
6.000000e+08	2.600557e+13	0.000000e+00	7.318841e-01	3.733582e+14	4.989484e+14	7.813291e+13	8.582760e+03	3.353810e+03	2.103367e+03	0	8.692979e-04
6.100000e+08	2.562756e+13	0.000000e+00	7.318841e-01	3.685591e+14	4.931986e+14	7.775055e+13	8.561042e+03	3.349702e+03	2.100791e+03	0	8.650653e-04
6.200000e+08	2.525777e+13	0.000000e+00	7.318841e-01	3.638633e+14	4.875671e+14	7.737090e+13	8.539602e+03	3.345641e+03	2.098244e+03	0	8.608844e-04
6.300000e+08	2.489597e+13	0.000000e+00	7.318841e-01	3.592677e+14	4.820503e+14	7.699393e+13	8.518434e+03	3.341628e+03	2.095727e+03	0	8.567540e-04
6.400000e+08	2.454190e+13	0.000000e+00	7.318841e-01	3.547693e+14	4.766449e+14	7.661961e+13	8.497532e+03	3.337660e+03	2.093238e+03	0	8.526731e-04
6.500000e+08	2.419535e+13	0.000000e+00	7.318841e-01	3.503652e+14	4.713477e+14	7.624793e+13	8.476891e+03	3.333736e+03	2.090778e+03	0	8.486406e-04
6.600000e+08	2.385610e+13	0.000000e+00	7.318841e-01	3.460528e+14	4.661555e+14	7.587887e+13	8.456505e+03	3.329856e+03	2.088345e+03	0	8.446555e-04
6.700000e+08	2.352393e+13	0.000000e+00	7.318841e-01	3.418293e+14	4.610655e+14	7.551240e+13	8.436368e+03	3.326020e+03	2.085938e+03	0	8.407169e-04
6.800000e+08	2.319864e+13	0.000000e+00	7.318841e-01	3.376923e+14	4.560746e+14	7.514851e+13	8.416477e+03	3.322225e+03	2.083559e+03	0	8.368238e-04
6.900000e+08	2.288004e+13	0.000000e+00	7.318841e-01	3.336393e+14	4.511802e+14	7.478717e+13	8.396825e+03	3.318471e+03	2.081205e+03	0	8.329752e-04
7.000000e+08	2.256793e+13	0.000000e+00	7.318841e-01	3.296678e+14	4.463795e+14	7.442836e+13	8.377409e+03	3.314758e+03	2.078876e+03	0	8.291702e-04
7.100000e+08	2.226213e+13	0.000000e+00	7.318841e-01	3.257757e+14	4.416700e+14	7.407206e+13	8.358222e+03	3.311085e+03	2.076572e+03	0	8.254080e-04
7.200000e+08	2.196246e+13	0.000000e+00	7.318841e-01	3.219607e+14	4.370492e+14	7.371826e+13	8.339262e+03	3.307450e+03	2.074293e+03	0	8.216878e-04
7.300000e+08	2.166877e+13	0.000000e+00	7.318841e-01	3.182207e+14	4.325147e+14	7.336693e+13	8.320522e+03	3.303854e+03	2.072037e+03	0	8.180086e-04
7.400000e+08	2.138088e+13	0.000000e+00	7.318841e-01	3.145537e+14	4.280642e+14	7.301805e+13	8.301999e+03	3.300295e+03	2.069805e+03	0	8.143698e-04
7.500000e+08	2.109863e+13	0.000000e+00	7.318841e-01	3.109577e+14	4.236954e+14	7.267160e+13	8.283689e+03	3.296772e+03	2.067596e+03	0	8.107704e-04
7.600000e+08	2.082188e+13	0.000000e+00	7.318841e-01	3.074308e+14	4.194062e+14	7.232757e+13	8.265588e+03	3.293286e+03	2.065409e+03	0	8.072098e-04
7.700000e+08	2.055047e+13	0.000000e+00	7.318841e-01	3.039711e+14	4.151945e+14	7.198593e+13	8.247691e+03	3.289835e+03	2.063245e+03	0	8.036872e-04
7.800000e+08	2.028426e+13	0.000000e+00	7.318841e-01	3.005768e+14	4.110583e+14	7.164666e+13	8.229994e+03	3.286419e+03	2.061102e+03	0	8.002019e-04
7.900000e+08	2.002312e+13	0.000000e+00	7.318841e-01	2.972463e+14	4.069956e+14	7.130975e+13	8.212495e+03	3.283036e+03	2.058981e+03	0	7.967531e-04
8.000000e+08	1.976692e+13	0.000000e+00	7.318841e-01	2.939779e+14	4.030047e+14	7.097518e+13	8.195189e+03	3.279687e+03	2.056881e+03	0	7.933402e-04
8.100000e+08	1.951551e+13	0.000000e+00	7.318841e-01	2.907699e+14	3.990835e+14	7.064292e+13	8.178072e+03	3.276371e+03	2.054801e+03	0	7.899625e-04
8.200000e+08	1.926879e+13	0.000000e+00	7.318841e-01	2.876209e+14	3.952305e+14	7.031297e+13	8.161141e+03	3.273088e+03	2.052742e+03	0	7.866194e-04
8.300000e+08	1.902663e+13	0.000000e+00	7.318841e-01	2.845292e+14	3.914439e+14	6.998529e+13	8.144393e+03	3.269836e+03	2.050702e+03	0	7.833101e-04
8.400000e+08	1.878891e+13	0.000000e+00	7.318841e-01	2.814935e+14	3.877221e+14	6.965988e+13	8.127825e+03	3.266615e+03	2.048682e+03	0	7.800342e-04
8.500000e+08	1.855552e+13	0.000000e+00	7.318841e-01	2.785124e+14	3.840634e+14	6.933672e+13	8.111433e+03	3.263425e+03	2.046681e+03	0	7.767910e-04
8.600000e+08	1.832636e+13	0.000000e+00	7.318841e-01	2.755844e+14	3.804663e+14	6.901578e+13	8.095213e+03	3.260264e+03	2.044700e+03	0	7.735799e-04
8.700000e+08	1.810131e+13	0.000000e+00	7.318841e-01	2.727083e+14	3.769294e+14	6.869705e+13	8.079164e+03	3.257134e+03	2.042736e+03	0	7.704003e-04
8.800000e+08	1.788027e+13	0.000000e+00	7.318841e-01	2.698828e+14	3.734511e+14	6.838052e+13	8.063282e+03	3.254032e+03	2.040791e+03	0	7.672517e-04
8.900000e+08	1.766316e+13	0.000000e+00	7.318841e-01	2.671066e+14	3.700301e+14	6.806616e+13	8.047563e+03	3.250959e+03	2.038864e+03	0	7.641335e-04
9.000000e+08	1.744986e+13	0.000000e+00	7.318841e-01	2.643786e+14	3.666651e+14	6.775395e+13	8.032006e+03	3.247914e+03	2.036954e+03	0	7.610452e-04
9.100000e+08	1.724029e+13	0.000000e+00	7.318841e-01	2.616975e+14	3.633546e+14	6.744389e+13	8.016607e+03	3.244897e+03	2.035062e+03	0	7.579863e-04
9.200000e+08	1.703436e+13	0.000000e+00	7.318841e-01	2.590623e+14	3.600975e+14	6.713595e+13	8.001363e+03	3.241907e+03	2.033187e+03	0	7.549562e-04
9.300000e+08	1.683198e+13	0.000000e+00	7.318841e-01	2.564719e+14	3.568925e+14	6.683011e+13	7.986273e+03	3.238944e+03	2.031328e+03	0	7.519545e-04
9.400000e+08	1.663307e+13	0.000000e+00	7.318841e-01	2.539252e+14	3.537384e+14	6.652637e+13	7.971333e+03	3.236007e+03	2.029486e+03	0	7.489806e-04
9.500000e+08	1.643754e+13	0.000000e+00	7.318841e-01	2.514212e+14	3.506341e+14	6.622470e+13	7.956541e+03	3.233095e+03	2.027660e+03	0	7.460342e-04
9.600000e+08	1.624531e+13	0.000000e+00	7.318841e-01	2.489588e+14	3.475783e+14	6.592509e+13	7.941894e+03	3.230210e+03	2.025851e+03	0	7.431146e-04
9.700000e+08	1.605631e+13	0.000000e+00	7.318841e-01	2.465372e+14	3.445701e+14	6.562752e+13	7.927390e+03	3.227349e+03	2.024056e+03	0	7.402216e-04
9.800000e+08	1.587047e+13	0.000000e+00	7.318841e-01	2.441554e+14	3.416083e+14	6.533197e+13	7.913027e+03	3.224513e+03	2.022278e+03	0	7.373546e-04
9.900000e+08	1.568771e+13	0.000000e+00	7.318841e-01	2.418124e+14	3.386919e+14	6.503843e+13	7.898803e+03	3.221701e+03	2.020514e+03	0	7.345132e-04
1.000000e+09	1.550795e+13	0.000000e+00	7.318841e-01	2.395074e+14	3.358199e+14	6.474688e+13	7.884714e+03	3.218913e+03	2.018766e+03	0	7.316970e-04
1.010000e+09	1.533114e+13	0.000000e+00	7.318841e-01	2.372395e+14	3.329914e+14	6.445731e+13	7.870759e+03	3.216149e+03	2.017032e+03	0	7.289056e-04
1.020000e+09	1.515720e+13	0.000000e+00	7.318841e-01	2.350080e+14	3.302054e+14	6.416971e+13	7.856936e+03	3.213408e+03	2.015313e+03	0	7.261385e-04
1.030000e+09	1.498607e+13	0.000000e+00	7.318841e-01	2.328119e+14	3.274609e+14	6.388404e+13	7.843242e+03	3.210690e+03	2.013608e+03	0	7.233954e-04
1.040000e+09	1.481769e+13	0.000000e+00	7.318841e-01	2.306505e+14	3.247571e+14	6.360031e+13	7.829676e+03	3.207994e+03	2.011918e+03	0	7.206759e-04
1.050000e+09	1.465200e+13	0.000000e+00	7.318841e-01	2.285231e+14	3.220931e+14	6.331850e+13	7.816236e+03	3.205320e+03	2.010241e+03	0	7.179796e-04
1.060000e+09	1.448893e+13	0.000000e+00	7.318841e-01	2.264288e+14	3.194681e+14	6.303859e+13	7.802919e+03	3.202668e+03	2.008578e+03	0	7.153062e-04
1.070000e+09	1.432844e+13	0.000000e+00	7.318841e-01	2.243670e+14	3.168813e+14	6.276056e+13	7.789724e+03	3.200038e+03	2.006928e+03	0	7.126552e-04
1.080000e+09	1.417046e+13	0.000000e+00	7.318841e-01	2.223370e+14	3.143317e+14	6.248440e+13	7.776649e+03	3.197428e+03	2.005291e+03	0	7.100263e-04
1.090000e+09	1.401494e+13	0.000000e+00	7.318841e-01	2.203381e+14	3.118188e+14	6.221010e+13	7.763691e+03	3.194840e+03	2.003668e+03	0	7.074192e-04
1.100000e+09	1.386182e+13	0.000000e+00	7.318841e-01	2.183696e+14	3.093417e+14	6.193764e+13	7.750850e+03	3.192272e+03	2.002058e+03	0	7.048336e-04
1.110000e+09	1.371106e+13	0.000000e+00	7.318841e-01	2.164308e+14	3.068996e+14	6.166701e+13	7.738123e+03	3.189724e+03	2.000460e+03	0	7.022690e-04
1.120000e+09	1.356261e+13	0.000000e+00	7.318841e-01	2.145212e+14	3.044919e+14	6.139819e+13	7.725509e+03	3.187197e+03	1.998874e+03	0	6.997253e-04
1.130000e+09	1.341641e+13	0.000000e+00	7.318841e-01	2.126402e+14	3.021179e+14	6.113117e+13	7.713006e+03	3.184688e+03	1.997302e+03	0	6.972019e-04
1.140000e+09	1.327242e+13	0.000000e+00	7.318841e-01	2.107870e+14	2.997768e+14	6.086594e+13	7.700612e+03	3.182200e+03	1.995741e+03	0	6.946988e-04
1.150000e+09	1.313060e+13	0.000000e+00	7.318841e-01	2.089613e+14	2.974681e+14	6.060247e+13	7.688326e+03	3.179730e+03	1.994192e+03	0	6.922155e-04
1.160000e+09	1.299089e+13	0.000000e+00	7.318841e-01	2.071623e+14	2.951911e+14	6.034077e+13	7.676146e+03	3.177280e+03	1.992655e+03	0	6.897517e-04
1.170000e+09	1.285326e+13	0.000000e+00	7.318841e-01	2.053896e+14	2.929451e+14	6.008080e+13	7.664070e+03	3.174847e+03	1.991130e+03	0	6.873072e-04
1.180000e+09	1.271766e+13	0.000000e+00	7.318841e-01	2.036426e+14	2.907295e+14	5.982257e+13	7.652098e+03	3.172434e+03	1.989616e+03	0	6.848816e-04
1.190000e+09	1.258405e+13	0.000000e+00	7.318841e-01	2.019208e+14	2.885438e+14	5.956605e+13	7.640227e+03	3.170038e+03	1.988113e+03	0	6.824748e-04
1.200000e+09	1.245239e+13	0.000000e+00	7.318841e-01	2.002237e+14	2.863874e+14	5.931124e+13	7.628456e+03	3.167660e+03	1.986622e+03	0	6.800863e-04
1.210000e+09	1.232264e+13	0.000000e+00	7.318841e-01	1.985508e+14	2.842597e+14	5.905812e+13	7.616784e+03	3.165300e+03	1.985142e+03	0	6.777160e-04
1.220000e+09	1.219476e+13	0.000000e+00	7.318841e-01	1.969015e+14	2.821601e+14	5.880667e+13	7.605209e+03	3.162957e+03	1.983672e+03	0	6.753635e-04
1.230000e+09	1.206872e+13	0.000000e+00	7.318841e-01	1.952756e+14	2.800882e+14	5.855689e+13	7.593730e+03	3.160631e+03	1.982213e+03	0	6.730287e-04
1.240000e+09	1.194448e+13	0.000000e+00	7.318841e-01	1.936724e+14	2.780434e+14	5.830875e+13	7.582345e+03	3.158322e+03	1.980765e+03	0	6.707112e-04
1.250000e+09	1.182200e+13	0.000000e+00	7.318841e-01	1.920915e+14	2.760251e+14	5.806226e+13	7.571054e+03	3.156029e+03	1.979328e+03	0	6.684108e-04
1.260000e+09	1.170125e+13	0.000000e+00	7.318841e-01	1.905325e+14	2.740329e+14	5.781739e+13	7.559854e+03	3.153753e+03	1.977900e+03	0	6.661273e-04
1.270000e+09	1.158219e+13	0.000000e+00	7.318841e-01	1.889950e+14	2.720663e+14	5.757413e+13	7.548746e+03	3.151494e+03	1.976483e+03	0	6.638604e-04
1.280000e+09	1.146480e+13	0.000000e+00	7.318841e-01	1.874786e+14	2.701249e+14	5.733248e+13	7.537726e+03	3.149250e+03	1.975076e+03	0	6.616098e-04
1.290000e+09	1.134904e+13	0.000000e+00	7.318841e-01	1.859829e+14	2.682081e+14	5.709241e+13	7.526795e+03	3.147022e+03	1.973679e+03	0	6.593755e-04
1.300000e+09	1.123487e+13	0.000000e+00	7.318841e-01	1.845074e+14	2.663155e+14	5.685392e+13	7.515951e+03	3.144810e+03	1.972291e+03	0	6.571570e-04
1.310000e+09	1.112227e+13	0.000000e+00	7.318841e-01	1.830518e+14	2.644467e+14	5.661699e+13	7.505192e+03	3.142613e+03	1.970914e+03	0	6.549543e-04
1.320000e+09	1.101122e+13	0.000000e+00	7.318841e-01	1.816157e+14	2.626012e+14	5.638161e+13	7.494519e+03	3.140431e+03	1.969545e+03	0	6.527671e-04
1.330000e+09	1.090167e+13	0.000000e+00	7.318841e-01	1.801987e+14	2.607786e+14	5.614778e+13	7.483928e+03	3.138265e+03	1.968187e+03	0	6.505951e-04
1.340000e+09	1.079360e+13	0.000000e+00	7.318841e-01	1.788005e+14	2.589786e+14	5.591547e+13	7.473421e+03	3.136113e+03	1.966837e+03	0	6.484382e-04
1.350000e+09	1.068699e+13	0.000000e+00	7.318841e-01	1.774208e+14	2.572006e+14	5.568467e+13	7.462994e+03	3.133976e+03	1.965497e+03	0	6.462961e-04
1.360000e+09	1.058180e+13	0.000000e+00	7.318841e-01	1.760592e+14	2.554444e+14	5.545538e+13	7.452648e+03	3.131853e+03	1.964165e+03	0	6.441687e-04
