#t		Qconv[W]	Ri[Rp]		R*[Rp]		Qc[W]		Qm[W]		Qr[W]		Tcmb[K]		Tl[K]		Tup[K]		RiFlag		Bs[T]
0.000000e+00	8.106866e+13	0.000000e+00	7.372263e-01	9.712613e+14	1.506337e+15	1.444676e+14	1.145650e+04	4.013155e+03	2.534341e+03	0	1.247518e-03
1.000000e+07	7.942559e+13	0.000000e+00	7.372263e-01	9.540625e+14	1.446048e+15	1.436672e+14	1.142013e+04	3.989002e+03	2.519088e+03	0	1.239032e-03
2.000000e+07	7.785726e+13	0.000000e+00	7.372263e-01	9.376332e+14	1.393138e+15	1.428727e+14	1.138441e+04	3.967419e+03	2.505459e+03	0	1.230823e-03
3.000000e+07	7.635625e+13	0.000000e+00	7.372263e-01	9.218974e+14	1.346297e+15	1.420842e+14	1.134929e+04	3.948012e+03	2.493203e+03	0	1.222862e-03
4.000000e+07	7.491628e+13	0.000000e+00	7.372263e-01	9.067908e+14	1.304495e+15	1.413015e+14	1.131476e+04	3.930457e+03	2.482117e+03	0	1.215126e-03
5.000000e+07	7.353197e+13	0.000000e+00	7.372263e-01	8.922583e+14	1.266914e+15	1.405247e+14	1.128079e+04	3.914489e+03	2.472033e+03	0	1.207595e-03
6.000000e+07	7.219868e+13	0.000000e+00	7.372263e-01	8.782525e+14	1.232899e+15	1.397537e+14	1.124737e+04	3.899887e+03	2.462812e+03	0	1.200251e-03
7.000000e+07	7.091240e+13	0.000000e+00	7.372263e-01	8.647321e+14	1.201916e+15	1.389884e+14	1.121447e+04	3.886468e+03	2.454337e+03	0	1.193081e-03
8.000000e+07	6.966961e+13	0.000000e+00	7.372263e-01	8.516612e+14	1.173532e+15	1.382289e+14	1.118207e+04	3.874076e+03	2.446511e+03	0	1.186070e-03
9.000000e+07	6.846725e+13	0.000000e+00	7.372263e-01	8.390082e+14	1.147387e+15	1.374749e+14	1.115016e+04	3.862581e+03	2.439252e+03	0	1.179207e-03
1.000000e+08	6.730261e+13	0.000000e+00	7.372263e-01	8.267455e+14	1.123183e+15	1.367266e+14	1.111872e+04	3.851872e+03	2.432489e+03	0	1.172483e-03
1.100000e+08	6.617327e+13	0.000000e+00	7.372263e-01	8.148482e+14	1.100673e+15	1.359838e+14	1.108774e+04	3.841854e+03	2.426163e+03	0	1.165888e-03
1.200000e+08	6.507710e+13	0.000000e+00	7.372263e-01	8.032944e+14	1.079648e+15	1.352465e+14	1.105720e+04	3.832446e+03	2.420222e+03	0	1.159414e-03
1.300000e+08	6.401218e+13	0.000000e+00	7.372263e-01	7.920643e+14	1.059930e+15	1.345147e+14	1.102710e+04	3.823579e+03	2.414622e+03	0	1.153055e-03
1.400000e+08	6.297677e+13	0.000000e+00	7.372263e-01	7.811403e+14	1.041370e+15	1.337883e+14	1.099741e+04	3.815192e+03	2.409326e+03	0	1.146804e-03
1.500000e+08	6.196931e+13	0.000000e+00	7.372263e-01	7.705062e+14	1.023839e+15	1.330672e+14	1.096813e+04	3.807233e+03	2.404300e+03	0	1.140656e-03
1.600000e+08	6.098840e+13	0.000000e+00	7.372263e-01	7.601474e+14	1.007229e+15	1.323515e+14	1.093925e+04	3.799657e+03	2.399516e+03	0	1.134605e-03
1.700000e+08	6.003273e+13	0.000000e+00	7.372263e-01	7.500507e+14	9.914439e+14	1.316411e+14	1.091075e+04	3.792425e+03	2.394948e+03	0	1.128648e-03
1.800000e+08	5.910113e+13	0.000000e+00	7.372263e-01	7.402040e+14	9.764023e+14	1.309359e+14	1.088263e+04	3.785501e+03	2.390576e+03	0	1.122779e-03
1.900000e+08	5.819250e+13	0.000000e+00	7.372263e-01	7.305960e+14	9.620332e+14	1.302359e+14	1.085488e+04	3.778856e+03	2.386379e+03	0	1.116996e-03
2.000000e+08	5.730587e+13	0.000000e+00	7.372263e-01	7.212165e+14	9.482746e+14	1.295411e+14	1.082749e+04	3.772463e+03	2.382342e+03	0	1.111294e-03
2.100000e+08	5.644028e+13	0.000000e+00	7.372263e-01	7.120560e+14	9.350725e+14	1.288513e+14	1.080045e+04	3.766299e+03	2.378449e+03	0	1.105670e-03
2.200000e+08	5.559491e+13	0.000000e+00	7.372263e-01	7.031056e+14	9.223793e+14	1.281667e+14	1.077375e+04	3.760343e+03	2.374688e+03	0	1.100122e-03
2.300000e+08	5.476893e+13	0.000000e+00	7.372263e-01	6.943571e+14	9.101532e+14	1.274870e+14	1.074738e+04	3.754577e+03	2.371047e+03	0	1.094646e-03
2.400000e+08	5.396163e+13	0.000000e+00	7.372263e-01	6.858029e+14	8.983574e+14	1.268124e+14	1.072134e+04	3.748985e+03	2.367516e+03	0	1.089241e-03
2.500000e+08	5.317229e+13	0.000000e+00	7.372263e-01	6.774358e+14	8.869590e+14	1.261426e+14	1.069562e+04	3.743553e+03	2.364085e+03	0	1.083904e-03
2.600000e+08	5.240027e+13	0.000000e+00	7.372263e-01	6.692491e+14	8.759290e+14	1.254778e+14	1.067022e+04	3.738268e+03	2.360747e+03	0	1.078633e-03
2.700000e+08	5.164496e+13	0.000000e+00	7.372263e-01	6.612365e+14	8.652415e+14	1.248179e+14	1.064511e+04	3.733117e+03	2.357495e+03	0	1.073425e-03
2.800000e+08	5.090578e+13	0.000000e+00	7.372263e-01	6.533920e+14	8.548734e+14	1.241627e+14	1.062031e+04	3.728093e+03	2.354322e+03	0	1.068279e-03
2.900000e+08	5.018219e+13	0.000000e+00	7.372263e-01	6.457100e+14	8.448037e+14	1.235124e+14	1.059580e+04	3.723184e+03	2.351222e+03	0	1.063194e-03
3.000000e+08	4.947368e+13	0.000000e+00	7.372263e-01	6.381852e+14	8.350139e+14	1.228667e+14	1.057158e+04	3.718383e+03	2.348190e+03	0	1.058166e-03
3.100000e+08	4.877976e+13	0.000000e+00	7.372263e-01	6.308127e+14	8.254872e+14	1.222258e+14	1.054764e+04	3.713683e+03	2.345222e+03	0	1.053196e-03
3.200000e+08	4.809996e+13	0.000000e+00	7.372263e-01	6.235875e+14	8.162082e+14	1.215896e+14	1.052398e+04	3.709077e+03	2.342314e+03	0	1.048280e-03
3.300000e+08	4.743386e+13	0.000000e+00	7.372263e-01	6.165053e+14	8.071632e+14	1.209580e+14	1.050058e+04	3.704560e+03	2.339461e+03	0	1.043419e-03
3.400000e+08	4.678103e+13	0.000000e+00	7.372263e-01	6.095616e+14	7.983397e+14	1.203309e+14	1.047745e+04	3.700125e+03	2.336660e+03	0	1.038610e-03
3.500000e+08	4.614108e+13	0.000000e+00	7.372263e-01	6.027524e+14	7.897262e+14	1.197084e+14	1.045458e+04	3.695768e+03	2.333908e+03	0	1.033852e-03
3.600000e+08	4.551363e+13	0.000000e+00	7.372263e-01	5.960737e+14	7.813123e+14	1.190905e+14	1.043197e+04	3.691484e+03	2.331203e+03	0	1.029144e-03
3.700000e+08	4.489831e+13	0.000000e+00	7.372263e-01	5.895219e+14	7.730884e+14	1.184770e+14	1.040960e+04	3.687270e+03	2.328542e+03	0	1.024485e-03
3.800000e+08	4.429478e+13	0.000000e+00	7.372263e-01	5.830932e+14	7.650457e+14	1.178679e+14	1.038748e+04	3.683122e+03	2.325922e+03	0	1.019874e-03
3.900000e+08	4.370271e+13	0.000000e+00	7.372263e-01	5.767843e+14	7.571761e+14	1.172632e+14	1.036560e+04	3.679036e+03	2.323342e+03	0	1.015310e-03
4.000000e+08	4.312178e+13	0.000000e+00	7.372263e-01	5.705918e+14	7.494722e+14	1.166629e+14	1.034395e+04	3.675009e+03	2.320799e+03	0	1.010791e-03
4.100000e+08	4.255168e+13	0.000000e+00	7.372263e-01	5.645126e+14	7.419271e+14	1.160670e+14	1.032254e+04	3.671040e+03	2.318293e+03	0	1.006317e-03
4.200000e+08	4.199212e+13	0.000000e+00	7.372263e-01	5.585438e+14	7.345343e+14	1.154753e+14	1.030135e+04	3.667124e+03	2.315820e+03	0	1.001886e-03
4.300000e+08	4.144283e+13	0.000000e+00	7.372263e-01	5.526822e+14	7.272880e+14	1.148879e+14	1.028039e+04	3.663260e+03	2.313380e+03	0	9.974985e-04
4.400000e+08	4.090352e+13	0.000000e+00	7.372263e-01	5.469252e+14	7.201825e+14	1.143047e+14	1.025965e+04	3.659446e+03	2.310971e+03	0	9.931527e-04
4.500000e+08	4.037394e+13	0.000000e+00	7.372263e-01	5.412701e+14	7.132127e+14	1.137257e+14	1.023912e+04	3.655679e+03	2.308592e+03	0	9.888479e-04
4.600000e+08	3.985384e+13	0.000000e+00	7.372263e-01	5.357141e+14	7.063738e+14	1.131509e+14	1.021880e+04	3.651959e+03	2.306243e+03	0	9.845834e-04
4.700000e+08	3.934297e+13	0.000000e+00	7.372263e-01	5.302549e+14	6.996613e+14	1.125802e+14	1.019869e+04	3.648282e+03	2.303921e+03	0	9.803583e-04
4.800000e+08	3.884111e+13	0.000000e+00	7.372263e-01	5.248900e+14	6.930708e+14	1.120136e+14	1.017879e+04	3.644647e+03	2.301626e+03	0	9.761720e-04
4.900000e+08	3.834802e+13	0.000000e+00	7.372263e-01	5.196170e+14	6.865984e+14	1.114510e+14	1.015909e+04	3.641054e+03	2.299356e+03	0	9.720236e-04
5.000000e+08	3.786350e+13	0.000000e+00	7.372263e-01	5.144338e+14	6.802403e+14	1.108925e+14	1.013958e+04	3.637500e+03	2.297112e+03	0	9.679124e-04
5.100000e+08	3.738732e+13	0.000000e+00	7.372263e-01	5.093380e+14	6.739930e+14	1.103379e+14	1.012027e+04	3.633985e+03	2.294892e+03	0	9.638377e-04
5.200000e+08	3.691930e+13	0.000000e+00	7.372263e-01	5.043277e+14	6.678531e+14	1.097873e+14	1.010114e+04	3.630507e+03	2.292696e+03	0	9.597989e-04
5.300000e+08	3.645922e+13	0.000000e+00	7.372263e-01	4.994007e+14	6.618173e+14	1.092407e+14	1.008221e+04	3.627065e+03	2.290522e+03	0	9.557953e-04
5.400000e+08	3.600690e+13	0.000000e+00	7.372263e-01	4.945552e+14	6.558827e+14	1.086979e+14	1.006346e+04	3.623658e+03	2.288371e+03	0	9.518263e-04
5.500000e+08	3.556216e+13	0.000000e+00	7.372263e-01	4.897891e+14	6.500464e+14	1.081590e+14	1.004489e+04	3.620285e+03	2.286240e+03	0	9.478912e-04
5.600000e+08	3.512482e+13	0.000000e+00	7.372263e-01	4.851007e+14	6.443057e+14	1.076239e+14	1.002650e+04	3.616945e+03	2.284131e+03	0	9.439895e-04
5.700000e+08	3.469471e+13	0.000000e+00	7.372263e-01	4.804881e+14	6.386579e+14	1.070926e+14	1.000829e+04	3.613637e+03	2.282042e+03	0	9.401205e-04
5.800000e+08	3.427166e+13	0.000000e+00	7.372263e-01	4.759496e+14	6.331006e+14	1.065651e+14	9.990244e+03	3.610361e+03	2.279974e+03	0	9.362838e-04
5.900000e+08	3.385550e+13	0.000000e+00	7.372263e-01	4.714836e+14	6.276313e+14	1.060413e+14	9.972371e+03	3.607116e+03	2.277924e+03	0	9.324786e-04
6.000000e+08	3.344609e+13	0.000000e+00	7.372263e-01	4.670883e+14	6.222479e+14	1.055213e+14	9.954666e+03	3.603900e+03	2.275893e+03	0	9.287046e-04
6.100000e+08	3.304327e+13	0.000000e+00	7.372263e-01	4.627623e+14	6.169481e+14	1.050049e+14	9.937126e+03	3.600714e+03	2.273881e+03	0	9.249611e-04
6.200000e+08	3.264689e+13	0.000000e+00	7.372263e-01	4.585039e+14	6.117298e+14	1.044922e+14	9.919747e+03	3.597556e+03	2.271887e+03	0	9.212476e-04
6.300000e+08	3.225680e+13	0.000000e+00	7.372263e-01	4.543117e+14	6.065910e+14	1.039831e+14	9.902528e+03	3.594426e+03	2.269910e+03	0	9.175637e-04
6.400000e+08	3.187288e+13	0.000000e+00	7.372263e-01	4.501842e+14	6.015299e+14	1.034775e+14	9.885466e+03	3.591323e+03	2.267951e+03	0	9.139089e-04
6.500000e+08	3.149498e+13	0.000000e+00	7.372263e-01	4.461201e+14	5.965446e+14	1.029756e+14	9.868558e+03	3.588247e+03	2.266008e+03	0	9.102826e-04
6.600000e+08	3.112297e+13	0.000000e+00	7.372263e-01	4.421180e+14	5.916332e+14	1.024771e+14	9.851803e+03	3.585198e+03	2.264083e+03	0	9.066844e-04
6.700000e+08	3.075673e+13	0.000000e+00	7.372263e-01	4.381764e+14	5.867942e+14	1.019822e+14	9.835197e+03	3.582174e+03	2.262173e+03	0	9.031139e-04
6.800000e+08	3.039613e+13	0.000000e+00	7.372263e-01	4.342942e+14	5.820257e+14	1.014908e+14	9.818739e+03	3.579175e+03	2.260279e+03	0	8.995705e-04
6.900000e+08	3.004105e+13	0.000000e+00	7.372263e-01	4.304701e+14	5.773263e+14	1.010027e+14	9.802427e+03	3.576201e+03	2.258401e+03	0	8.960540e-04
7.000000e+08	2.969138e+13	0.000000e+00	7.372263e-01	4.267029e+14	5.726944e+14	1.005182e+14	9.786257e+03	3.573251e+03	2.256538e+03	0	8.925638e-04
7.100000e+08	2.934700e+13	0.000000e+00	7.372263e-01	4.229914e+14	5.681285e+14	1.000370e+14	9.770229e+03	3.570325e+03	2.254690e+03	0	8.890995e-04
7.200000e+08	2.900779e+13	0.000000e+00	7.372263e-01	4.193344e+14	5.636272e+14	9.955915e+13	9.754340e+03	3.567422e+03	2.252857e+03	0	8.856607e-04
7.300000e+08	2.867366e+13	0.000000e+00	7.372263e-01	4.157307e+14	5.591890e+14	9.908466e+13	9.738588e+03	3.564542e+03	2.251039e+03	0	8.822470e-04
7.400000e+08	2.834450e+13	0.000000e+00	7.372263e-01	4.121794e+14	5.548127e+14	9.861349e+13	9.722971e+03	3.561685e+03	2.249234e+03	0	8.788580e-04
7.500000e+08	2.802020e+13	0.000000e+00	7.372263e-01	4.086794e+14	5.504969e+14	9.814560e+13	9.707486e+03	3.558850e+03	2.247444e+03	0	8.754934e-04
7.600000e+08	2.770067e+13	0.000000e+00	7.372263e-01	4.052296e+14	5.462404e+14	9.768097e+13	9.692133e+03	3.556037e+03	2.245667e+03	0	8.721527e-04
7.700000e+08	2.738580e+13	0.000000e+00	7.372263e-01	4.018289e+14	5.420420e+14	9.721957e+13	9.676909e+03	3.553245e+03	2.243904e+03	0	8.688356e-04
7.800000e+08	2.707552e+13	0.000000e+00	7.372263e-01	3.984765e+14	5.379004e+14	9.676138e+13	9.661813e+03	3.550475e+03	2.242155e+03	0	8.655418e-04
7.900000e+08	2.676971e+13	0.000000e+00	7.372263e-01	3.951714e+14	5.338145e+14	9.630637e+13	9.646842e+03	3.547725e+03	2.240418e+03	0	8.622708e-04
8.000000e+08	2.646830e+13	0.000000e+00	7.372263e-01	3.919126e+14	5.297833e+14	9.585452e+13	9.631995e+03	3.544995e+03	2.238694e+03	0	8.590224e-04
8.100000e+08	2.617119e+13	0.000000e+00	7.372263e-01	3.886992e+14	5.258056e+14	9.540580e+13	9.617270e+03	3.542286e+03	2.236983e+03	0	8.557961e-04
8.200000e+08	2.587831e+13	0.000000e+00	7.372263e-01	3.855303e+14	5.218803e+14	9.496018e+13	9.602666e+03	3.539597e+03	2.235285e+03	0	8.525917e-04
8.300000e+08	2.558957e+13	0.000000e+00	7.372263e-01	3.824051e+14	5.180064e+14	9.451765e+13	9.588180e+03	3.536927e+03	2.233599e+03	0	8.494089e-04
8.400000e+08	2.530489e+13	0.000000e+00	7.372263e-01	3.793228e+14	5.141831e+14	9.407817e+13	9.573811e+03	3.534276e+03	2.231925e+03	0	8.462472e-04
8.500000e+08	2.502418e+13	0.000000e+00	7.372263e-01	3.762824e+14	5.104091e+14	9.364172e+13	9.559558e+03	3.531644e+03	2.230263e+03	0	8.431065e-04
8.600000e+08	2.474738e+13	0.000000e+00	7.372263e-01	3.732833e+14	5.066838e+14	9.320828e+13	9.545419e+03	3.529031e+03	2.228613e+03	0	8.399863e-04
8.700000e+08	2.447441e+13	0.000000e+00	7.372263e-01	3.703246e+14	5.030060e+14	9.277783e+13	9.531392e+03	3.526437e+03	2.226974e+03	0	8.368864e-04
8.800000e+08	2.420519e+13	0.000000e+00	7.372263e-01	3.674055e+14	4.993749e+14	9.235034e+13	9.517476e+03	3.523860e+03	2.225347e+03	0	8.338066e-04
8.900000e+08	2.393966e+13	0.000000e+00	7.372263e-01	3.645254e+14	4.957897e+14	9.192578e+13	9.503670e+03	3.521302e+03	2.223732e+03	0	8.307464e-04
9.000000e+08	2.367775e+13	0.000000e+00	7.372263e-01	3.616835e+14	4.922496e+14	9.150414e+13	9.489971e+03	3.518761e+03	2.222127e+03	0	8.277056e-04
9.100000e+08	2.341938e+13	0.000000e+00	7.372263e-01	3.588791e+14	4.887535e+14	9.108539e+13	9.476379e+03	3.516237e+03	2.220533e+03	0	8.246840e-04
9.200000e+08	2.316449e+13	0.000000e+00	7.372263e-01	3.561114e+14	4.853009e+14	9.066950e+13	9.462892e+03	3.513731e+03	2.218951e+03	0	8.216812e-04
9.300000e+08	2.291302e+13	0.000000e+00	7.372263e-01	3.533799e+14	4.818909e+14	9.025646e+13	9.449509e+03	3.511242e+03	2.217379e+03	0	8.186971e-04
9.400000e+08	2.266490e+13	0.000000e+00	7.372263e-01	3.506839e+14	4.785227e+14	8.984625e+13	9.436228e+03	3.508769e+03	2.215817e+03	0	8.157312e-04
9.500000e+08	2.242008e+13	0.000000e+00	7.372263e-01	3.480226e+14	4.751955e+14	8.943883e+13	9.423048e+03	3.506313e+03	2.214266e+03	0	8.127834e-04
9.600000e+08	2.217849e+13	0.000000e+00	7.372263e-01	3.453956e+14	4.719088e+14	8.903419e+13	9.409969e+03	3.503873e+03	2.212725e+03	0	8.098534e-04
9.700000e+08	2.194007e+13	0.000000e+00	7.372263e-01	3.428021e+14	4.686616e+14	8.863231e+13	9.396987e+03	3.501450e+03	2.211195e+03	0	8.069410e-04
9.800000e+08	2.170476e+13	0.000000e+00	7.372263e-01	3.402417e+14	4.654534e+14	8.823316e+13	9.384103e+03	3.499042e+03	2.209674e+03	0	8.040458e-04
9.900000e+08	2.147252e+13	0.000000e+00	7.372263e-01	3.377136e+14	4.622835e+14	8.783673e+13	9.371315e+03	3.496650e+03	2.208164e+03	0	8.011678e-04
1.000000e+09	2.124328e+13	0.000000e+00	7.372263e-01	3.352173e+14	4.591512e+14	8.744298e+13	9.358621e+03	3.494273e+03	2.206663e+03	0	7.983065e-04
1.010000e+09	2.101700e+13	0.000000e+00	7.372263e-01	3.327523e+14	4.560559e+14	8.705191e+13	9.346021e+03	3.491912e+03	2.205172e+03	0	7.954619e-04
1.020000e+09	2.079361e+13	0.000000e+00	7.372263e-01	3.303180e+14	4.529969e+14	8.666348e+13	9.333514e+03	3.489566e+03	2.203690e+03	0	7.926335e-04
1.030000e+09	2.057308e+13	0.000000e+00	7.372263e-01	3.279138e+14	4.499736e+14	8.627769e+13	9.321098e+03	3.487235e+03	2.202218e+03	0	7.898214e-04
1.040000e+09	2.035534e+13	0.000000e+00	7.372263e-01	3.255394e+14	4.469855e+14	8.589450e+13	9.308772e+03	3.484918e+03	2.200755e+03	0	7.870251e-04
1.050000e+09	2.014035e+13	0.000000e+00	7.372263e-01	3.231940e+14	4.440318e+14	8.551390e+13	9.296535e+03	3.482616e+03	2.199302e+03	0	7.842445e-04
1.060000e+09	1.992806e+13	0.000000e+00	7.372263e-01	3.208773e+14	4.411122e+14	8.513587e+13	9.284386e+03	3.480329e+03	2.197857e+03	0	7.814793e-04
1.070000e+09	1.971843e+13	0.000000e+00	7.372263e-01	3.185888e+14	4.382259e+14	8.476038e+13	9.272324e+03	3.478056e+03	2.196421e+03	0	7.787294e-04
1.080000e+09	1.951141e+13	0.000000e+00	7.372263e-01	3.163279e+14	4.353724e+14	8.438742e+13	9.260347e+03	3.475796e+03	2.194995e+03	0	7.759946e-04
1.090000e+09	1.930696e+13	0.000000e+00	7.372263e-01	3.140942e+14	4.325513e+14	8.401697e+13	9.248456e+03	3.473551e+03	2.193577e+03	0	7.732746e-04
1.100000e+09	1.910502e+13	0.000000e+00	7.372263e-01	3.118873e+14	4.297620e+14	8.364900e+13	9.236648e+03	3.471320e+03	2.192168e+03	0	7.705692e-04
1.110000e+09	1.890557e+13	0.000000e+00	7.372263e-01	3.097067e+14	4.270039e+14	8.328350e+13	9.224923e+03	3.469102e+03	2.190767e+03	0	7.678782e-04
1.120000e+09	1.870855e+13	0.000000e+00	7.372263e-01	3.075520e+14	4.242766e+14	8.292045e+13	9.213280e+03	3.466897e+03	2.189375e+03	0	7.652015e-04
1.130000e+09	1.851392e+13	0.000000e+00	7.372263e-01	3.054227e+14	4.215795e+14	8.255983e+13	9.201718e+03	3.464706e+03	2.187991e+03	0	7.625388e-04
1.140000e+09	1.832166e+13	0.000000e+00	7.372263e-01	3.033184e+14	4.189122e+14	8.220163e+13	9.190235e+03	3.462528e+03	2.186616e+03	0	7.598900e-04
1.150000e+09	1.813171e+13	0.000000e+00	7.372263e-01	3.012387e+14	4.162743e+14	8.184581e+13	9.178832e+03	3.460363e+03	2.185248e+03	0	7.572548e-04
1.160000e+09	1.794404e+13	0.000000e+00	7.372263e-01	2.991832e+14	4.136652e+14	8.149236e+13	9.167506e+03	3.458210e+03	2.183889e+03	0	7.546331e-04
1.170000e+09	1.775861e+13	0.000000e+00	7.372263e-01	2.971515e+14	4.110845e+14	8.114127e+13	9.156258e+03	3.456071e+03	2.182538e+03	0	7.520247e-04
1.180000e+09	1.757538e+13	0.000000e+00	7.372263e-01	2.951432e+14	4.085318e+14	8.079252e+13	9.145086e+03	3.453944e+03	2.181195e+03	0	7.494294e-04
1.190000e+09	1.739432e+13	0.000000e+00	7.372263e-01	2.931580e+14	4.060065e+14	8.044609e+13	9.133989e+03	3.451829e+03	2.179859e+03	0	7.468470e-04
1.200000e+09	1.721540e+13	0.000000e+00	7.372263e-01	2.911954e+14	4.035084e+14	8.010195e+13	9.122966e+03	3.449727e+03	2.178532e+03	0	7.442774e-04
1.210000e+09	1.703857e+13	0.000000e+00	7.372263e-01	2.892552e+14	4.010370e+14	7.976010e+13	9.112017e+03	3.447637e+03	2.177212e+03	0	7.417204e-04
1.220000e+09	1.686381e+13	0.000000e+00	7.372263e-01	2.873369e+14	3.985919e+14	7.942051e+13	9.101141e+03	3.445559e+03	2.175899e+03	0	7.391758e-04
1.230000e+09	1.669108e+13	0.000000e+00	7.372263e-01	2.854402e+14	3.961726e+14	7.908317e+13	9.090337e+03	3.443492e+03	2.174595e+03	0	7.366434e-04
1.240000e+09	1.652035e+13	0.000000e+00	7.372263e-01	2.835648e+14	3.937788e+14	7.874806e+13	9.079605e+03	3.441438e+03	2.173297e+03	0	7.341231e-04
1.250000e+09	1.635159e+13	0.000000e+00	7.372263e-01	2.817104e+14	3.914101e+14	7.841516e+13	9.068942e+03	3.439395e+03	2.172007e+03	0	7.316148e-04
1.260000e+09	1.618477e+13	0.000000e+00	7.372263e-01	2.798765e+14	3.890661e+14	7.808445e+13	9.058349e+03	3.437364e+03	2.170724e+03	0	7.291182e-04
1.270000e+09	1.601985e+13	0.000000e+00	7.372263e-01	2.780629e+14	3.867465e+14	7.775593e+13	9.047825e+03	3.435344e+03	2.169449e+03	0	7.266332e-04
1.280000e+09	1.585680e+13	0.000000e+00	7.372263e-01	2.762693e+14	3.844509e+14	7.742956e+13	9.037369e+03	3.433335e+03	2.168180e+03	0	7.241597e-04
1.290000e+09	1.569560e+13	0.000000e+00	7.372263e-01	2.744954e+14	3.821790e+14	7.710534e+13	9.026980e+03	3.431338e+03	2.166919e+03	0	7.216974e-04
1.300000e+09	1.553623e+13	0.000000e+00	7.372263e-01	2.727408e+14	3.799303e+14	7.678325e+13	9.016658e+03	3.429352e+03	2.165665e+03	0	7.192463e-04
1.310000e+09	1.537864e+13	0.000000e+00	7.372263e-01	2.710053e+14	3.777046e+14	7.646327e+13	9.006402e+03	3.427376e+03	2.164417e+03	0	7.168062e-04
1.320000e+09	1.522281e+13	0.000000e+00	7.372263e-01	2.692886e+14	3.755015e+14	7.614539e+13	8.996210e+03	3.425412e+03	2.163176e+03	0	7.143769e-04
1.330000e+09	1.506872e+13	0.000000e+00	7.372263e-01	2.675904e+14	3.733207e+14	7.582958e+13	8.986084e+03	3.423458e+03	2.161943e+03	0	7.119583e-04
1.340000e+09	1.491633e+13	0.000000e+00	7.372263e-01	2.659104e+14	3.711618e+14	7.551584e+13	8.976020e+03	3.421515e+03	2.160715e+03	0	7.095502e-04
1.350000e+09	1.476563e+13	0.000000e+00	7.372263e-01	2.642483e+14	3.690247e+14	7.520414e+13	8.966020e+03	3.419582e+03	2.159495e+03	0	7.071526e-04
1.360000e+09	1.461659e+13	0.000000e+00	7.372263e-01	2.626039e+14	3.669088e+14	7.489448e+13	8.956083e+03	3.417660e+03	2.158281e+03	0	7.047652e-04
