#t		Qconv[W]	Ri[Rp]		R*[Rp]		Qc[W]		Qm[W]		Qr[W]		Tcmb[K]		Tl[K]		Tup[K]		RiFlag		Bs[T]
0.000000e+00	2.090745e+14	0.000000e+00	7.333332e-01	2.369329e+15	1.775260e+15	2.466863e+14	1.668445e+04	4.845510e+03	2.791267e+03	0	1.686742e-03
1.000000e+07	2.070683e+14	0.000000e+00	7.333332e-01	2.351595e+15	1.848092e+15	2.453195e+14	1.664192e+04	4.877927e+03	2.809940e+03	0	1.681329e-03
2.000000e+07	2.049589e+14	0.000000e+00	7.333332e-01	2.333056e+15	1.913763e+15	2.439629e+14	1.659970e+04	4.906761e+03	2.826550e+03	0	1.675601e-03
3.000000e+07	2.027614e+14	0.000000e+00	7.333332e-01	2.313831e+15	1.972317e+15	2.426164e+14	1.655782e+04	4.932270e+03	2.841245e+03	0	1.669591e-03
4.000000e+07	2.004898e+14	0.000000e+00	7.333332e-01	2.294032e+15	2.023926e+15	2.412800e+14	1.651627e+04	4.954712e+03	2.854173e+03	0	1.663332e-03
5.000000e+07	1.981571e+14	0.000000e+00	7.333332e-01	2.273763e+15	2.068860e+15	2.399535e+14	1.647509e+04	4.974341e+03	2.865480e+03	0	1.656856e-03
6.000000e+07	1.957751e+14	0.000000e+00	7.333332e-01	2.253119e+15	2.107465e+15	2.386370e+14	1.643426e+04	4.991403e+03	2.875308e+03	0	1.650190e-03
7.000000e+07	1.933546e+14	0.000000e+00	7.333332e-01	2.232185e+15	2.140135e+15	2.373302e+14	1.639381e+04	5.006131e+03	2.883792e+03	0	1.643361e-03
8.000000e+07	1.909053e+14	0.000000e+00	7.333332e-01	2.211038e+15	2.167295e+15	2.360332e+14	1.635373e+04	5.018746e+03	2.891059e+03	0	1.636393e-03
9.000000e+07	1.884358e+14	0.000000e+00	7.333332e-01	2.189747e+15	2.189383e+15	2.347458e+14	1.631403e+04	5.029454e+03	2.897228e+03	0	1.629306e-03
1.000000e+08	1.859538e+14	0.000000e+00	7.333332e-01	2.168373e+15	2.206837e+15	2.334680e+14	1.627471e+04	5.038448e+03	2.902409e+03	0	1.622121e-03
1.100000e+08	1.834661e+14	0.000000e+00	7.333332e-01	2.146970e+15	2.220087e+15	2.321996e+14	1.623577e+04	5.045903e+03	2.906703e+03	0	1.614855e-03
1.200000e+08	1.809786e+14	0.000000e+00	7.333332e-01	2.125584e+15	2.229544e+15	2.309407e+14	1.619721e+04	5.051981e+03	2.910204e+03	0	1.607524e-03
1.300000e+08	1.784965e+14	0.000000e+00	7.333332e-01	2.104258e+15	2.235599e+15	2.296911e+14	1.615904e+04	5.056829e+03	2.912997e+03	0	1.600141e-03
1.400000e+08	1.760241e+14	0.000000e+00	7.333332e-01	2.083025e+15	2.238617e+15	2.284507e+14	1.612125e+04	5.060580e+03	2.915158e+03	0	1.592718e-03
1.500000e+08	1.735655e+14	0.000000e+00	7.333332e-01	2.061917e+15	2.238936e+15	2.272195e+14	1.608384e+04	5.063355e+03	2.916756e+03	0	1.585268e-03
1.600000e+08	1.711237e+14	0.000000e+00	7.333332e-01	2.040960e+15	2.236866e+15	2.259974e+14	1.604680e+04	5.065262e+03	2.917855e+03	0	1.577799e-03
1.700000e+08	1.687018e+14	0.000000e+00	7.333332e-01	2.020176e+15	2.232693e+15	2.247843e+14	1.601015e+04	5.066399e+03	2.918510e+03	0	1.570320e-03
1.800000e+08	1.663020e+14	0.000000e+00	7.333332e-01	1.999583e+15	2.226673e+15	2.235801e+14	1.597386e+04	5.066854e+03	2.918772e+03	0	1.562838e-03
1.900000e+08	1.639263e+14	0.000000e+00	7.333332e-01	1.979197e+15	2.219040e+15	2.223849e+14	1.593794e+04	5.066704e+03	2.918685e+03	0	1.555361e-03
2.000000e+08	1.615763e+14	0.000000e+00	7.333332e-01	1.959031e+15	2.210002e+15	2.211984e+14	1.590239e+04	5.066019e+03	2.918291e+03	0	1.547893e-03
2.100000e+08	1.592534e+14	0.000000e+00	7.333332e-01	1.939096e+15	2.199748e+15	2.200206e+14	1.586720e+04	5.064862e+03	2.917625e+03	0	1.540439e-03
2.200000e+08	1.569587e+14	0.000000e+00	7.333332e-01	1.919399e+15	2.188445e+15	2.188515e+14	1.583236e+04	5.063289e+03	2.916718e+03	0	1.533004e-03
2.300000e+08	1.546930e+14	0.000000e+00	7.333332e-01	1.899947e+15	2.176242e+15	2.176910e+14	1.579788e+04	5.061348e+03	2.915600e+03	0	1.525592e-03
2.400000e+08	1.524569e+14	0.000000e+00	7.333332e-01	1.880746e+15	2.163272e+15	2.165389e+14	1.576375e+04	5.059085e+03	2.914297e+03	0	1.518206e-03
2.500000e+08	1.502510e+14	0.000000e+00	7.333332e-01	1.861799e+15	2.149652e+15	2.153954e+14	1.572996e+04	5.056538e+03	2.912829e+03	0	1.510848e-03
2.600000e+08	1.480756e+14	0.000000e+00	7.333332e-01	1.843108e+15	2.135487e+15	2.142601e+14	1.569650e+04	5.053741e+03	2.911218e+03	0	1.503521e-03
2.700000e+08	1.459309e+14	0.000000e+00	7.333332e-01	1.824675e+15	2.120869e+15	2.131332e+14	1.566339e+04	5.050727e+03	2.909482e+03	0	1.496227e-03
2.800000e+08	1.438170e+14	0.000000e+00	7.333332e-01	1.806501e+15	2.105879e+15	2.120145e+14	1.563060e+04	5.047522e+03	2.907636e+03	0	1.488967e-03
2.900000e+08	1.417339e+14	0.000000e+00	7.333332e-01	1.788585e+15	2.090587e+15	2.109040e+14	1.559814e+04	5.044150e+03	2.905694e+03	0	1.481743e-03
3.000000e+08	1.396815e+14	0.000000e+00	7.333332e-01	1.770926e+15	2.075058e+15	2.098016e+14	1.556600e+04	5.040635e+03	2.903668e+03	0	1.474556e-03
3.100000e+08	1.376597e+14	0.000000e+00	7.333332e-01	1.753524e+15	2.059346e+15	2.087072e+14	1.553418e+04	5.036994e+03	2.901571e+03	0	1.467407e-03
3.200000e+08	1.356683e+14	0.000000e+00	7.333332e-01	1.736376e+15	2.043500e+15	2.076208e+14	1.550267e+04	5.033244e+03	2.899411e+03	0	1.460297e-03
3.300000e+08	1.337070e+14	0.000000e+00	7.333332e-01	1.719480e+15	2.027562e+15	2.065422e+14	1.547146e+04	5.029402e+03	2.897198e+03	0	1.453225e-03
3.400000e+08	1.317755e+14	0.000000e+00	7.333332e-01	1.702834e+15	2.011569e+15	2.054715e+14	1.544056e+04	5.025481e+03	2.894939e+03	0	1.446194e-03
3.500000e+08	1.298735e+14	0.000000e+00	7.333332e-01	1.686435e+15	1.995553e+15	2.044086e+14	1.540996e+04	5.021492e+03	2.892641e+03	0	1.439202e-03
3.600000e+08	1.280007e+14	0.000000e+00	7.333332e-01	1.670279e+15	1.979543e+15	2.033534e+14	1.537965e+04	5.017446e+03	2.890310e+03	0	1.432251e-03
3.700000e+08	1.261566e+14	0.000000e+00	7.333332e-01	1.654364e+15	1.963562e+15	2.023058e+14	1.534962e+04	5.013352e+03	2.887952e+03	0	1.425339e-03
3.800000e+08	1.243408e+14	0.000000e+00	7.333332e-01	1.638686e+15	1.947633e+15	2.012658e+14	1.531989e+04	5.009220e+03	2.885572e+03	0	1.418468e-03
3.900000e+08	1.225530e+14	0.000000e+00	7.333332e-01	1.623242e+15	1.931774e+15	2.002333e+14	1.529044e+04	5.005056e+03	2.883173e+03	0	1.411637e-03
4.000000e+08	1.207927e+14	0.000000e+00	7.333332e-01	1.608028e+15	1.916000e+15	1.992083e+14	1.526126e+04	5.000867e+03	2.880760e+03	0	1.404845e-03
4.100000e+08	1.190595e+14	0.000000e+00	7.333332e-01	1.593040e+15	1.900325e+15	1.981906e+14	1.523235e+04	4.996658e+03	2.878336e+03	0	1.398094e-03
4.200000e+08	1.173529e+14	0.000000e+00	7.333332e-01	1.578276e+15	1.884761e+15	1.971803e+14	1.520372e+04	4.992436e+03	2.875903e+03	0	1.391382e-03
4.300000e+08	1.156725e+14	0.000000e+00	7.333332e-01	1.563730e+15	1.869317e+15	1.961773e+14	1.517534e+04	4.988205e+03	2.873466e+03	0	1.384708e-03
4.400000e+08	1.140179e+14	0.000000e+00	7.333332e-01	1.549400e+15	1.854003e+15	1.951815e+14	1.514723e+04	4.983968e+03	2.871025e+03	0	1.378074e-03
4.500000e+08	1.123886e+14	0.000000e+00	7.333332e-01	1.535282e+15	1.838824e+15	1.941928e+14	1.511938e+04	4.979729e+03	2.868584e+03	0	1.371478e-03
4.600000e+08	1.107841e+14	0.000000e+00	7.333332e-01	1.521372e+15	1.823788e+15	1.932113e+14	1.509178e+04	4.975492e+03	2.866143e+03	0	1.364921e-03
4.700000e+08	1.092040e+14	0.000000e+00	7.333332e-01	1.507666e+15	1.808898e+15	1.922368e+14	1.506443e+04	4.971260e+03	2.863705e+03	0	1.358400e-03
4.800000e+08	1.076479e+14	0.000000e+00	7.333332e-01	1.494161e+15	1.794159e+15	1.912692e+14	1.503732e+04	4.967034e+03	2.861271e+03	0	1.351917e-03
4.900000e+08	1.061153e+14	0.000000e+00	7.333332e-01	1.480853e+15	1.779574e+15	1.903086e+14	1.501046e+04	4.962818e+03	2.858842e+03	0	1.345471e-03
5.000000e+08	1.046058e+14	0.000000e+00	7.333332e-01	1.467738e+15	1.765145e+15	1.893549e+14	1.498383e+04	4.958612e+03	2.856419e+03	0	1.339060e-03
5.100000e+08	1.031190e+14	0.000000e+00	7.333332e-01	1.454814e+15	1.750875e+15	1.884080e+14	1.495744e+04	4.954420e+03	2.854004e+03	0	1.332686e-03
5.200000e+08	1.016544e+14	0.000000e+00	7.333332e-01	1.442075e+15	1.736763e+15	1.874678e+14	1.493128e+04	4.950242e+03	2.851597e+03	0	1.326347e-03
5.300000e+08	1.002117e+14	0.000000e+00	7.333332e-01	1.429520e+15	1.722812e+15	1.865343e+14	1.490535e+04	4.946079e+03	2.849199e+03	0	1.320042e-03
5.400000e+08	9.879041e+13	0.000000e+00	7.333332e-01	1.417145e+15	1.709022e+15	1.856075e+14	1.487965e+04	4.941933e+03	2.846811e+03	0	1.313772e-03
5.500000e+08	9.739013e+13	0.000000e+00	7.333332e-01	1.404946e+15	1.695393e+15	1.846873e+14	1.485416e+04	4.937806e+03	2.844433e+03	0	1.307535e-03
5.600000e+08	9.601048e+13	0.000000e+00	7.333332e-01	1.392920e+15	1.681923e+15	1.837736e+14	1.482890e+04	4.933696e+03	2.842066e+03	0	1.301331e-03
5.700000e+08	9.465107e+13	0.000000e+00	7.333332e-01	1.381064e+15	1.668614e+15	1.828664e+14	1.480385e+04	4.929607e+03	2.839710e+03	0	1.295160e-03
5.800000e+08	9.331153e+13	0.000000e+00	7.333332e-01	1.369374e+15	1.655464e+15	1.819657e+14	1.477901e+04	4.925537e+03	2.837366e+03	0	1.289021e-03
5.900000e+08	9.199146e+13	0.000000e+00	7.333332e-01	1.357848e+15	1.642472e+15	1.810713e+14	1.475439e+04	4.921488e+03	2.835034e+03	0	1.282914e-03
6.000000e+08	9.069052e+13	0.000000e+00	7.333332e-01	1.346483e+15	1.629637e+15	1.801833e+14	1.472997e+04	4.917460e+03	2.832714e+03	0	1.276837e-03
6.100000e+08	8.940834e+13	0.000000e+00	7.333332e-01	1.335275e+15	1.616958e+15	1.793015e+14	1.470575e+04	4.913454e+03	2.830406e+03	0	1.270791e-03
6.200000e+08	8.814456e+13	0.000000e+00	7.333332e-01	1.324222e+15	1.604433e+15	1.784260e+14	1.468174e+04	4.909470e+03	2.828111e+03	0	1.264775e-03
6.300000e+08	8.689885e+13	0.000000e+00	7.333332e-01	1.313320e+15	1.592061e+15	1.775567e+14	1.465792e+04	4.905508e+03	2.825828e+03	0	1.258789e-03
6.400000e+08	8.567086e+13	0.000000e+00	7.333332e-01	1.302568e+15	1.579840e+15	1.766935e+14	1.463430e+04	4.901569e+03	2.823559e+03	0	1.252831e-03
6.500000e+08	8.446026e+13	0.000000e+00	7.333332e-01	1.291962e+15	1.567768e+15	1.758363e+14	1.461087e+04	4.897652e+03	2.821303e+03	0	1.246902e-03
6.600000e+08	8.326674e+13	0.000000e+00	7.333332e-01	1.281500e+15	1.555844e+15	1.749852e+14	1.458763e+04	4.893757e+03	2.819059e+03	0	1.241001e-03
6.700000e+08	8.208996e+13	0.000000e+00	7.333332e-01	1.271178e+15	1.544066e+15	1.741401e+14	1.456458e+04	4.889886e+03	2.816829e+03	0	1.235127e-03
6.800000e+08	8.092963e+13	0.000000e+00	7.333332e-01	1.260995e+15	1.532432e+15	1.733009e+14	1.454172e+04	4.886038e+03	2.814612e+03	0	1.229280e-03
6.900000e+08	7.978543e+13	0.000000e+00	7.333332e-01	1.250948e+15	1.520941e+15	1.724676e+14	1.451903e+04	4.882212e+03	2.812409e+03	0	1.223459e-03
7.000000e+08	7.865707e+13	0.000000e+00	7.333332e-01	1.241034e+15	1.509589e+15	1.716402e+14	1.449653e+04	4.878409e+03	2.810218e+03	0	1.217664e-03
7.100000e+08	7.754426e+13	0.000000e+00	7.333332e-01	1.231251e+15	1.498376e+15	1.708185e+14	1.447421e+04	4.874630e+03	2.808041e+03	0	1.211894e-03
7.200000e+08	7.644671e+13	0.000000e+00	7.333332e-01	1.221597e+15	1.487300e+15	1.700026e+14	1.445206e+04	4.870873e+03	2.805877e+03	0	1.206150e-03
7.300000e+08	7.536415e+13	0.000000e+00	7.333332e-01	1.212069e+15	1.476357e+15	1.691924e+14	1.443008e+04	4.867139e+03	2.803725e+03	0	1.200429e-03
7.400000e+08	7.429630e+13	0.000000e+00	7.333332e-01	1.202665e+15	1.465548e+15	1.683878e+14	1.440828e+04	4.863427e+03	2.801588e+03	0	1.194732e-03
7.500000e+08	7.324290e+13	0.000000e+00	7.333332e-01	1.193383e+15	1.454869e+15	1.675889e+14	1.438664e+04	4.859738e+03	2.799463e+03	0	1.189059e-03
7.600000e+08	7.220368e+13	0.000000e+00	7.333332e-01	1.184220e+15	1.444319e+15	1.667955e+14	1.436517e+04	4.856072e+03	2.797351e+03	0	1.183409e-03
7.700000e+08	7.117839e+13	0.000000e+00	7.333332e-01	1.175176e+15	1.433895e+15	1.660077e+14	1.434387e+04	4.852428e+03	2.795252e+03	0	1.177780e-03
7.800000e+08	7.016679e+13	0.000000e+00	7.333332e-01	1.166246e+15	1.423597e+15	1.652253e+14	1.432273e+04	4.848807e+03	2.793166e+03	0	1.172174e-03
7.900000e+08	6.916862e+13	0.000000e+00	7.333332e-01	1.157431e+15	1.413421e+15	1.644483e+14	1.430174e+04	4.845208e+03	2.791092e+03	0	1.166589e-03
8.000000e+08	6.818364e+13	0.000000e+00	7.333332e-01	1.148726e+15	1.403367e+15	1.636768e+14	1.428092e+04	4.841630e+03	2.789031e+03	0	1.161025e-03
8.100000e+08	6.721164e+13	0.000000e+00	7.333332e-01	1.140131e+15	1.393432e+15	1.629105e+14	1.426025e+04	4.838075e+03	2.786983e+03	0	1.155482e-03
8.200000e+08	6.625236e+13	0.000000e+00	7.333332e-01	1.131644e+15	1.383614e+15	1.621496e+14	1.423974e+04	4.834541e+03	2.784948e+03	0	1.149958e-03
8.300000e+08	6.530560e+13	0.000000e+00	7.333332e-01	1.123263e+15	1.373912e+15	1.613940e+14	1.421938e+04	4.831029e+03	2.782924e+03	0	1.144454e-03
8.400000e+08	6.437113e+13	0.000000e+00	7.333332e-01	1.114986e+15	1.364324e+15	1.606435e+14	1.419917e+04	4.827538e+03	2.780913e+03	0	1.138969e-03
8.500000e+08	6.344874e+13	0.000000e+00	7.333332e-01	1.106810e+15	1.354849e+15	1.598983e+14	1.417910e+04	4.824068e+03	2.778915e+03	0	1.133503e-03
8.600000e+08	6.253821e+13	0.000000e+00	7.333332e-01	1.098736e+15	1.345483e+15	1.591582e+14	1.415919e+04	4.820619e+03	2.776928e+03	0	1.128054e-03
8.700000e+08	6.163936e+13	0.000000e+00	7.333332e-01	1.090760e+15	1.336227e+15	1.584231e+14	1.413942e+04	4.817192e+03	2.774953e+03	0	1.122624e-03
8.800000e+08	6.075196e+13	0.000000e+00	7.333332e-01	1.082881e+15	1.327077e+15	1.576932e+14	1.411979e+04	4.813785e+03	2.772991e+03	0	1.117211e-03
8.900000e+08	5.987583e+13	0.000000e+00	7.333332e-01	1.075097e+15	1.318033e+15	1.569682e+14	1.410030e+04	4.810398e+03	2.771040e+03	0	1.111814e-03
9.000000e+08	5.901077e+13	0.000000e+00	7.333332e-01	1.067408e+15	1.309093e+15	1.562482e+14	1.408096e+04	4.807032e+03	2.769101e+03	0	1.106434e-03
9.100000e+08	5.815660e+13	0.000000e+00	7.333332e-01	1.059811e+15	1.300255e+15	1.555332e+14	1.406175e+04	4.803686e+03	2.767173e+03	0	1.101069e-03
9.200000e+08	5.731314e+13	0.000000e+00	7.333332e-01	1.052304e+15	1.291517e+15	1.548231e+14	1.404268e+04	4.800359e+03	2.765257e+03	0	1.095720e-03
9.300000e+08	5.648019e+13	0.000000e+00	7.333332e-01	1.044887e+15	1.282879e+15	1.541178e+14	1.402374e+04	4.797053e+03	2.763353e+03	0	1.090386e-03
9.400000e+08	5.565759e+13	0.000000e+00	7.333332e-01	1.037557e+15	1.274338e+15	1.534173e+14	1.400494e+04	4.793766e+03	2.761459e+03	0	1.085067e-03
9.500000e+08	5.484516e+13	0.000000e+00	7.333332e-01	1.030314e+15	1.265893e+15	1.527216e+14	1.398627e+04	4.790499e+03	2.759577e+03	0	1.079761e-03
9.600000e+08	5.404273e+13	0.000000e+00	7.333332e-01	1.023156e+15	1.257543e+15	1.520307e+14	1.396772e+04	4.787251e+03	2.757706e+03	0	1.074469e-03
9.700000e+08	5.325014e+13	0.000000e+00	7.333332e-01	1.016081e+15	1.249285e+15	1.513444e+14	1.394931e+04	4.784022e+03	2.755846e+03	0	1.069191e-03
9.800000e+08	5.246723e+13	0.000000e+00	7.333332e-01	1.009089e+15	1.241120e+15	1.506629e+14	1.393102e+04	4.780812e+03	2.753997e+03	0	1.063925e-03
9.900000e+08	5.169383e+13	0.000000e+00	7.333332e-01	1.002177e+15	1.233045e+15	1.499859e+14	1.391286e+04	4.777620e+03	2.752158e+03	0	1.058671e-03
1.000000e+09	5.092979e+13	0.000000e+00	7.333332e-01	9.953449e+14	1.225059e+15	1.493136e+14	1.389482e+04	4.774447e+03	2.750331e+03	0	1.053430e-03
1.010000e+09	5.017496e+13	0.000000e+00	7.333332e-01	9.885912e+14	1.217160e+15	1.486458e+14	1.387691e+04	4.771293e+03	2.748513e+03	0	1.048199e-03
1.020000e+09	4.942918e+13	0.000000e+00	7.333332e-01	9.819145e+14	1.209348e+15	1.479826e+14	1.385912e+04	4.768156e+03	2.746707e+03	0	1.042980e-03
1.030000e+09	4.869232e+13	0.000000e+00	7.333332e-01	9.753137e+14	1.201620e+15	1.473238e+14	1.384144e+04	4.765038e+03	2.744910e+03	0	1.037772e-03
1.040000e+09	4.796423e+13	0.000000e+00	7.333332e-01	9.687875e+14	1.193977e+15	1.466695e+14	1.382389e+04	4.761938e+03	2.743124e+03	0	1.032573e-03
1.050000e+09	4.724476e+13	0.000000e+00	7.333332e-01	9.623348e+14	1.186415e+15	1.460196e+14	1.380645e+04	4.758855e+03	2.741348e+03	0	1.027384e-03
1.060000e+09	4.653379e+13	0.000000e+00	7.333332e-01	9.559544e+14	1.178935e+15	1.453741e+14	1.378913e+04	4.755789e+03	2.739583e+03	0	1.022204e-03
1.070000e+09	4.583117e+13	0.000000e+00	7.333332e-01	9.496452e+14	1.171535e+15	1.447329e+14	1.377192e+04	4.752741e+03	2.737827e+03	0	1.017033e-03
1.080000e+09	4.513677e+13	0.000000e+00	7.333332e-01	9.434061e+14	1.164214e+15	1.440961e+14	1.375483e+04	4.749711e+03	2.736081e+03	0	1.011871e-03
1.090000e+09	4.445047e+13	0.000000e+00	7.333332e-01	9.372360e+14	1.156971e+15	1.434635e+14	1.373785e+04	4.746697e+03	2.734345e+03	0	1.006716e-03
1.100000e+09	4.377213e+13	0.000000e+00	7.333332e-01	9.311338e+14	1.149804e+15	1.428352e+14	1.372098e+04	4.743700e+03	2.732618e+03	0	1.001569e-03
1.110000e+09	4.310163e+13	0.000000e+00	7.333332e-01	9.250986e+14	1.142712e+15	1.422111e+14	1.370422e+04	4.740720e+03	2.730902e+03	0	9.964285e-04
1.120000e+09	4.243886e+13	0.000000e+00	7.333332e-01	9.191292e+14	1.135695e+15	1.415911e+14	1.368757e+04	4.737756e+03	2.729194e+03	0	9.912948e-04
1.130000e+09	4.178368e+13	0.000000e+00	7.333332e-01	9.132248e+14	1.128751e+15	1.409754e+14	1.367102e+04	4.734809e+03	2.727497e+03	0	9.861671e-04
1.140000e+09	4.113599e+13	0.000000e+00	7.333332e-01	9.073842e+14	1.121879e+15	1.403637e+14	1.365458e+04	4.731877e+03	2.725808e+03	0	9.810449e-04
1.150000e+09	4.049566e+13	0.000000e+00	7.333332e-01	9.016066e+14	1.115078e+15	1.397561e+14	1.363825e+04	4.728962e+03	2.724129e+03	0	9.759280e-04
1.160000e+09	3.986259e+13	0.000000e+00	7.333332e-01	8.958910e+14	1.108347e+15	1.391526e+14	1.362202e+04	4.726063e+03	2.722459e+03	0	9.708157e-04
1.170000e+09	3.923667e+13	0.000000e+00	7.333332e-01	8.902365e+14	1.101686e+15	1.385531e+14	1.360589e+04	4.723180e+03	2.720798e+03	0	9.657076e-04
1.180000e+09	3.861778e+13	0.000000e+00	7.333332e-01	8.846421e+14	1.095092e+15	1.379576e+14	1.358986e+04	4.720312e+03	2.719146e+03	0	9.606032e-04
1.190000e+09	3.800582e+13	0.000000e+00	7.333332e-01	8.791071e+14	1.088566e+15	1.373660e+14	1.357394e+04	4.717460e+03	2.717503e+03	0	9.555020e-04
1.200000e+09	3.740068e+13	0.000000e+00	7.333332e-01	8.736304e+14	1.082106e+15	1.367784e+14	1.355811e+04	4.714623e+03	2.715868e+03	0	9.504036e-04
1.210000e+09	3.680227e+13	0.000000e+00	7.333332e-01	8.682113e+14	1.075711e+15	1.361947e+14	1.354238e+04	4.711801e+03	2.714243e+03	0	9.453075e-04
1.220000e+09	3.621048e+13	0.000000e+00	7.333332e-01	8.628488e+14	1.069380e+15	1.356148e+14	1.352675e+04	4.708994e+03	2.712626e+03	0	9.402132e-04
1.230000e+09	3.562521e+13	0.000000e+00	7.333332e-01	8.575423e+14	1.063113e+15	1.350388e+14	1.351122e+04	4.706202e+03	2.711018e+03	0	9.351201e-04
1.240000e+09	3.504636e+13	0.000000e+00	7.333332e-01	8.522908e+14	1.056908e+15	1.344666e+14	1.349578e+04	4.703425e+03	2.709418e+03	0	9.300278e-04
1.250000e+09	3.447385e+13	0.000000e+00	7.333332e-01	8.470936e+14	1.050765e+15	1.338981e+14	1.348043e+04	4.700663e+03	2.707827e+03	0	9.249357e-04
1.260000e+09	3.390758e+13	0.000000e+00	7.333332e-01	8.419499e+14	1.044682e+15	1.333334e+14	1.346518e+04	4.697915e+03	2.706244e+03	0	9.198433e-04
1.270000e+09	3.334745e+13	0.000000e+00	7.333332e-01	8.368589e+14	1.038660e+15	1.327724e+14	1.345002e+04	4.695181e+03	2.704669e+03	0	9.147501e-04
1.280000e+09	3.279339e+13	0.000000e+00	7.333332e-01	8.318199e+14	1.032697e+15	1.322152e+14	1.343496e+04	4.692462e+03	2.703102e+03	0	9.096556e-04
1.290000e+09	3.224529e+13	0.000000e+00	7.333332e-01	8.268321e+14	1.026792e+15	1.316615e+14	1.341998e+04	4.689756e+03	2.701544e+03	0	9.045592e-04
1.300000e+09	3.170307e+13	0.000000e+00	7.333332e-01	8.218948e+14	1.020944e+15	1.311115e+14	1.340509e+04	4.687065e+03	2.699994e+03	0	8.994603e-04
1.310000e+09	3.116665e+13	0.000000e+00	7.333332e-01	8.170073e+14	1.015154e+15	1.305652e+14	1.339029e+04	4.684388e+03	2.698451e+03	0	8.943585e-04
1.320000e+09	3.063594e+13	0.000000e+00	7.333332e-01	8.121689e+14	1.009419e+15	1.300224e+14	1.337558e+04	4.681724e+03	2.696917e+03	0	8.892530e-04
1.330000e+09	3.011087e+13	0.000000e+00	7.333332e-01	8.073789e+14	1.003739e+15	1.294831e+14	1.336096e+04	4.679074e+03	2.695390e+03	0	8.841434e-04
1.340000e+09	2.959135e+13	0.000000e+00	7.333332e-01	8.026367e+14	9.981142e+14	1.289474e+14	1.334642e+04	4.676437e+03	2.693871e+03	0	8.790289e-04
1.350000e+09	2.907730e+13	0.000000e+00	7.333332e-01	7.979415e+14	9.925429e+14	1.284151e+14	1.333197e+04	4.673814e+03	2.692360e+03	0	8.739091e-04
1.360000e+09	2.856865e+13	0.000000e+00	7.333332e-01	7.932927e+14	9.870246e+14	1.278864e+14	1.331760e+04	4.671203e+03	2.690857e+03	0	8.687833e-04
