#t		Qconv[W]	Ri[Rp]		R*[Rp]		Qc[W]		Qm[W]		Qr[W]		Tcmb[K]		Tl[K]		Tup[K]		RiFlag		Bs[T]
0.000000e+00	2.072321e+14	0.000000e+00	7.333335e-01	2.532674e+15	1.708912e+15	2.716453e+14	1.762070e+04	5.008227e+03	2.845977e+03	0	1.678161e-03
1.000000e+07	2.057350e+14	0.000000e+00	7.333335e-01	2.519128e+15	1.794167e+15	2.701402e+14	1.758157e+04	5.047043e+03	2.868035e+03	0	1.674111e-03
2.000000e+07	2.041029e+14	0.000000e+00	7.333335e-01	2.504561e+15	1.873419e+15	2.686463e+14	1.754265e+04	5.082255e+03	2.888044e+03	0	1.669672e-03
3.000000e+07	2.023499e+14	0.000000e+00	7.333335e-01	2.489082e+15	1.946397e+15	2.671636e+14	1.750396e+04	5.114053e+03	2.906114e+03	0	1.664878e-03
4.000000e+07	2.004898e+14	0.000000e+00	7.333335e-01	2.472797e+15	2.012969e+15	2.656920e+14	1.746550e+04	5.142640e+03	2.922358e+03	0	1.659761e-03
5.000000e+07	1.985356e+14	0.000000e+00	7.333335e-01	2.455808e+15	2.073132e+15	2.642314e+14	1.742730e+04	5.168222e+03	2.936896e+03	0	1.654351e-03
6.000000e+07	1.965000e+14	0.000000e+00	7.333335e-01	2.438210e+15	2.126988e+15	2.627816e+14	1.738935e+04	5.191010e+03	2.949846e+03	0	1.648677e-03
7.000000e+07	1.943946e+14	0.000000e+00	7.333335e-01	2.420094e+15	2.174725e+15	2.613426e+14	1.735168e+04	5.211213e+03	2.961326e+03	0	1.642768e-03
8.000000e+07	1.922302e+14	0.000000e+00	7.333335e-01	2.401542e+15	2.216596e+15	2.599144e+14	1.731429e+04	5.229034e+03	2.971453e+03	0	1.636648e-03
9.000000e+07	1.900169e+14	0.000000e+00	7.333335e-01	2.382631e+15	2.252903e+15	2.584967e+14	1.727718e+04	5.244668e+03	2.980337e+03	0	1.630342e-03
1.000000e+08	1.877637e+14	0.000000e+00	7.333335e-01	2.363432e+15	2.283982e+15	2.570896e+14	1.724036e+04	5.258303e+03	2.988085e+03	0	1.623873e-03
1.100000e+08	1.854792e+14	0.000000e+00	7.333335e-01	2.344009e+15	2.310185e+15	2.556929e+14	1.720384e+04	5.270116e+03	2.994798e+03	0	1.617260e-03
1.200000e+08	1.831706e+14	0.000000e+00	7.333335e-01	2.324418e+15	2.331877e+15	2.543066e+14	1.716762e+04	5.280273e+03	3.000570e+03	0	1.610522e-03
1.300000e+08	1.808448e+14	0.000000e+00	7.333335e-01	2.304712e+15	2.349419e+15	2.529306e+14	1.713170e+04	5.288928e+03	3.005489e+03	0	1.603676e-03
1.400000e+08	1.785077e+14	0.000000e+00	7.333335e-01	2.284937e+15	2.363165e+15	2.515647e+14	1.709608e+04	5.296226e+03	3.009635e+03	0	1.596738e-03
1.500000e+08	1.761648e+14	0.000000e+00	7.333335e-01	2.265132e+15	2.373457e+15	2.502089e+14	1.706077e+04	5.302297e+03	3.013085e+03	0	1.589722e-03
1.600000e+08	1.738207e+14	0.000000e+00	7.333335e-01	2.245336e+15	2.380621e+15	2.488631e+14	1.702577e+04	5.307263e+03	3.015907e+03	0	1.582639e-03
1.700000e+08	1.714796e+14	0.000000e+00	7.333335e-01	2.225579e+15	2.384964e+15	2.475273e+14	1.699106e+04	5.311235e+03	3.018164e+03	0	1.575502e-03
1.800000e+08	1.691452e+14	0.000000e+00	7.333335e-01	2.205889e+15	2.386773e+15	2.462013e+14	1.695667e+04	5.314314e+03	3.019914e+03	0	1.568320e-03
1.900000e+08	1.668206e+14	0.000000e+00	7.333335e-01	2.186291e+15	2.386313e+15	2.448851e+14	1.692257e+04	5.316592e+03	3.021209e+03	0	1.561102e-03
2.000000e+08	1.645087e+14	0.000000e+00	7.333335e-01	2.166806e+15	2.383831e+15	2.435786e+14	1.688878e+04	5.318152e+03	3.022095e+03	0	1.553857e-03
2.100000e+08	1.622118e+14	0.000000e+00	7.333335e-01	2.147451e+15	2.379550e+15	2.422817e+14	1.685529e+04	5.319069e+03	3.022616e+03	0	1.546591e-03
2.200000e+08	1.599320e+14	0.000000e+00	7.333335e-01	2.128243e+15	2.373676e+15	2.409943e+14	1.682210e+04	5.319411e+03	3.022811e+03	0	1.539311e-03
2.300000e+08	1.576710e+14	0.000000e+00	7.333335e-01	2.109196e+15	2.366396e+15	2.397163e+14	1.678920e+04	5.319240e+03	3.022713e+03	0	1.532023e-03
2.400000e+08	1.554303e+14	0.000000e+00	7.333335e-01	2.090319e+15	2.357878e+15	2.384477e+14	1.675660e+04	5.318611e+03	3.022356e+03	0	1.524731e-03
2.500000e+08	1.532113e+14	0.000000e+00	7.333335e-01	2.071623e+15	2.348275e+15	2.371884e+14	1.672428e+04	5.317573e+03	3.021766e+03	0	1.517440e-03
2.600000e+08	1.510149e+14	0.000000e+00	7.333335e-01	2.053115e+15	2.337726e+15	2.359384e+14	1.669226e+04	5.316171e+03	3.020969e+03	0	1.510154e-03
2.700000e+08	1.488419e+14	0.000000e+00	7.333335e-01	2.034803e+15	2.326352e+15	2.346974e+14	1.666052e+04	5.314445e+03	3.019988e+03	0	1.502876e-03
2.800000e+08	1.466932e+14	0.000000e+00	7.333335e-01	2.016690e+15	2.314266e+15	2.334655e+14	1.662906e+04	5.312431e+03	3.018844e+03	0	1.495609e-03
2.900000e+08	1.445693e+14	0.000000e+00	7.333335e-01	1.998782e+15	2.301566e+15	2.322427e+14	1.659788e+04	5.310162e+03	3.017555e+03	0	1.488356e-03
3.000000e+08	1.424705e+14	0.000000e+00	7.333335e-01	1.981081e+15	2.288341e+15	2.310287e+14	1.656698e+04	5.307666e+03	3.016136e+03	0	1.481118e-03
3.100000e+08	1.403972e+14	0.000000e+00	7.333335e-01	1.963589e+15	2.274670e+15	2.298236e+14	1.653635e+04	5.304969e+03	3.014604e+03	0	1.473898e-03
3.200000e+08	1.383496e+14	0.000000e+00	7.333335e-01	1.946309e+15	2.260625e+15	2.286272e+14	1.650599e+04	5.302095e+03	3.012971e+03	0	1.466698e-03
3.300000e+08	1.363279e+14	0.000000e+00	7.333335e-01	1.929240e+15	2.246267e+15	2.274396e+14	1.647590e+04	5.299065e+03	3.011249e+03	0	1.459519e-03
3.400000e+08	1.343322e+14	0.000000e+00	7.333335e-01	1.912384e+15	2.231653e+15	2.262605e+14	1.644607e+04	5.295896e+03	3.009448e+03	0	1.452362e-03
3.500000e+08	1.323623e+14	0.000000e+00	7.333335e-01	1.895740e+15	2.216832e+15	2.250901e+14	1.641650e+04	5.292606e+03	3.007578e+03	0	1.445227e-03
3.600000e+08	1.304183e+14	0.000000e+00	7.333335e-01	1.879307e+15	2.201848e+15	2.239281e+14	1.638719e+04	5.289210e+03	3.005649e+03	0	1.438117e-03
3.700000e+08	1.285001e+14	0.000000e+00	7.333335e-01	1.863085e+15	2.186741e+15	2.227745e+14	1.635813e+04	5.285721e+03	3.003666e+03	0	1.431032e-03
3.800000e+08	1.266075e+14	0.000000e+00	7.333335e-01	1.847072e+15	2.171544e+15	2.216293e+14	1.632932e+04	5.282152e+03	3.001637e+03	0	1.423971e-03
3.900000e+08	1.247404e+14	0.000000e+00	7.333335e-01	1.831267e+15	2.156289e+15	2.204923e+14	1.630075e+04	5.278512e+03	2.999569e+03	0	1.416937e-03
4.000000e+08	1.228984e+14	0.000000e+00	7.333335e-01	1.815668e+15	2.141002e+15	2.193636e+14	1.627243e+04	5.274812e+03	2.997467e+03	0	1.409928e-03
4.100000e+08	1.210815e+14	0.000000e+00	7.333335e-01	1.800272e+15	2.125707e+15	2.182430e+14	1.624435e+04	5.271060e+03	2.995335e+03	0	1.402945e-03
4.200000e+08	1.192893e+14	0.000000e+00	7.333335e-01	1.785079e+15	2.110424e+15	2.171305e+14	1.621651e+04	5.267264e+03	2.993178e+03	0	1.395989e-03
4.300000e+08	1.175216e+14	0.000000e+00	7.333335e-01	1.770085e+15	2.095173e+15	2.160260e+14	1.618891e+04	5.263432e+03	2.991000e+03	0	1.389059e-03
4.400000e+08	1.157781e+14	0.000000e+00	7.333335e-01	1.755288e+15	2.079968e+15	2.149294e+14	1.616153e+04	5.259568e+03	2.988804e+03	0	1.382155e-03
4.500000e+08	1.140584e+14	0.000000e+00	7.333335e-01	1.740686e+15	2.064825e+15	2.138407e+14	1.613438e+04	5.255679e+03	2.986594e+03	0	1.375278e-03
4.600000e+08	1.123623e+14	0.000000e+00	7.333335e-01	1.726276e+15	2.049756e+15	2.127598e+14	1.610746e+04	5.251770e+03	2.984373e+03	0	1.368427e-03
4.700000e+08	1.106894e+14	0.000000e+00	7.333335e-01	1.712056e+15	2.034770e+15	2.116867e+14	1.608076e+04	5.247845e+03	2.982142e+03	0	1.361602e-03
4.800000e+08	1.090395e+14	0.000000e+00	7.333335e-01	1.698022e+15	2.019878e+15	2.106213e+14	1.605428e+04	5.243908e+03	2.979905e+03	0	1.354803e-03
4.900000e+08	1.074121e+14	0.000000e+00	7.333335e-01	1.684173e+15	2.005088e+15	2.095635e+14	1.602801e+04	5.239963e+03	2.977663e+03	0	1.348029e-03
5.000000e+08	1.058070e+14	0.000000e+00	7.333335e-01	1.670505e+15	1.990405e+15	2.085133e+14	1.600196e+04	5.236013e+03	2.975419e+03	0	1.341280e-03
5.100000e+08	1.042238e+14	0.000000e+00	7.333335e-01	1.657017e+15	1.975837e+15	2.074705e+14	1.597612e+04	5.232061e+03	2.973173e+03	0	1.334557e-03
5.200000e+08	1.026622e+14	0.000000e+00	7.333335e-01	1.643704e+15	1.961388e+15	2.064352e+14	1.595049e+04	5.228109e+03	2.970927e+03	0	1.327858e-03
5.300000e+08	1.011219e+14	0.000000e+00	7.333335e-01	1.630564e+15	1.947063e+15	2.054073e+14	1.592507e+04	5.224159e+03	2.968683e+03	0	1.321183e-03
5.400000e+08	9.960239e+13	0.000000e+00	7.333335e-01	1.617596e+15	1.932864e+15	2.043867e+14	1.589984e+04	5.220215e+03	2.966441e+03	0	1.314533e-03
5.500000e+08	9.810351e+13	0.000000e+00	7.333335e-01	1.604795e+15	1.918795e+15	2.033734e+14	1.587482e+04	5.216277e+03	2.964203e+03	0	1.307905e-03
5.600000e+08	9.662488e+13	0.000000e+00	7.333335e-01	1.592160e+15	1.904859e+15	2.023673e+14	1.584999e+04	5.212347e+03	2.961970e+03	0	1.301301e-03
5.700000e+08	9.516616e+13	0.000000e+00	7.333335e-01	1.579687e+15	1.891056e+15	2.013683e+14	1.582536e+04	5.208426e+03	2.959742e+03	0	1.294719e-03
5.800000e+08	9.372704e+13	0.000000e+00	7.333335e-01	1.567375e+15	1.877388e+15	2.003764e+14	1.580092e+04	5.204517e+03	2.957521e+03	0	1.288160e-03
5.900000e+08	9.230718e+13	0.000000e+00	7.333335e-01	1.555220e+15	1.863857e+15	1.993916e+14	1.577668e+04	5.200620e+03	2.955306e+03	0	1.281622e-03
6.000000e+08	9.090628e+13	0.000000e+00	7.333335e-01	1.543219e+15	1.850463e+15	1.984137e+14	1.575261e+04	5.196735e+03	2.953099e+03	0	1.275105e-03
6.100000e+08	8.952401e+13	0.000000e+00	7.333335e-01	1.531372e+15	1.837206e+15	1.974427e+14	1.572874e+04	5.192864e+03	2.950899e+03	0	1.268609e-03
6.200000e+08	8.816007e+13	0.000000e+00	7.333335e-01	1.519674e+15	1.824087e+15	1.964786e+14	1.570505e+04	5.189009e+03	2.948708e+03	0	1.262134e-03
6.300000e+08	8.681415e+13	0.000000e+00	7.333335e-01	1.508123e+15	1.811106e+15	1.955213e+14	1.568153e+04	5.185168e+03	2.946526e+03	0	1.255678e-03
6.400000e+08	8.548596e+13	0.000000e+00	7.333335e-01	1.496718e+15	1.798261e+15	1.945708e+14	1.565820e+04	5.181344e+03	2.944352e+03	0	1.249241e-03
6.500000e+08	8.417519e+13	0.000000e+00	7.333335e-01	1.485455e+15	1.785554e+15	1.936269e+14	1.563504e+04	5.177536e+03	2.942188e+03	0	1.242823e-03
6.600000e+08	8.288155e+13	0.000000e+00	7.333335e-01	1.474332e+15	1.772982e+15	1.926897e+14	1.561206e+04	5.173745e+03	2.940034e+03	0	1.236424e-03
6.700000e+08	8.160476e+13	0.000000e+00	7.333335e-01	1.463348e+15	1.760546e+15	1.917591e+14	1.558925e+04	5.169971e+03	2.937890e+03	0	1.230042e-03
6.800000e+08	8.034453e+13	0.000000e+00	7.333335e-01	1.452499e+15	1.748244e+15	1.908350e+14	1.556660e+04	5.166215e+03	2.935756e+03	0	1.223677e-03
6.900000e+08	7.910059e+13	0.000000e+00	7.333335e-01	1.441783e+15	1.736075e+15	1.899174e+14	1.554413e+04	5.162478e+03	2.933632e+03	0	1.217329e-03
7.000000e+08	7.787267e+13	0.000000e+00	7.333335e-01	1.431199e+15	1.724039e+15	1.890062e+14	1.552182e+04	5.158758e+03	2.931518e+03	0	1.210997e-03
7.100000e+08	7.666049e+13	0.000000e+00	7.333335e-01	1.420744e+15	1.712134e+15	1.881014e+14	1.549967e+04	5.155057e+03	2.929415e+03	0	1.204681e-03
7.200000e+08	7.546380e+13	0.000000e+00	7.333335e-01	1.410416e+15	1.700359e+15	1.872030e+14	1.547768e+04	5.151375e+03	2.927322e+03	0	1.198379e-03
7.300000e+08	7.428234e+13	0.000000e+00	7.333335e-01	1.400213e+15	1.688712e+15	1.863108e+14	1.545586e+04	5.147711e+03	2.925240e+03	0	1.192092e-03
7.400000e+08	7.311584e+13	0.000000e+00	7.333335e-01	1.390133e+15	1.677193e+15	1.854248e+14	1.543419e+04	5.144067e+03	2.923169e+03	0	1.185819e-03
7.500000e+08	7.196408e+13	0.000000e+00	7.333335e-01	1.380173e+15	1.665800e+15	1.845451e+14	1.541268e+04	5.140441e+03	2.921109e+03	0	1.179560e-03
7.600000e+08	7.082679e+13	0.000000e+00	7.333335e-01	1.370333e+15	1.654531e+15	1.836714e+14	1.539132e+04	5.136835e+03	2.919060e+03	0	1.173313e-03
7.700000e+08	6.970375e+13	0.000000e+00	7.333335e-01	1.360610e+15	1.643385e+15	1.828038e+14	1.537011e+04	5.133247e+03	2.917021e+03	0	1.167079e-03
7.800000e+08	6.859471e+13	0.000000e+00	7.333335e-01	1.351001e+15	1.632361e+15	1.819423e+14	1.534906e+04	5.129679e+03	2.914993e+03	0	1.160856e-03
7.900000e+08	6.749945e+13	0.000000e+00	7.333335e-01	1.341506e+15	1.621457e+15	1.810867e+14	1.532815e+04	5.126129e+03	2.912976e+03	0	1.154644e-03
8.000000e+08	6.641775e+13	0.000000e+00	7.333335e-01	1.332123e+15	1.610672e+15	1.802371e+14	1.530738e+04	5.122599e+03	2.910970e+03	0	1.148443e-03
8.100000e+08	6.534937e+13	0.000000e+00	7.333335e-01	1.322849e+15	1.600004e+15	1.793934e+14	1.528677e+04	5.119088e+03	2.908975e+03	0	1.142252e-03
8.200000e+08	6.429411e+13	0.000000e+00	7.333335e-01	1.313683e+15	1.589452e+15	1.785555e+14	1.526629e+04	5.115595e+03	2.906990e+03	0	1.136070e-03
8.300000e+08	6.325174e+13	0.000000e+00	7.333335e-01	1.304623e+15	1.579014e+15	1.777233e+14	1.524596e+04	5.112122e+03	2.905016e+03	0	1.129897e-03
8.400000e+08	6.222207e+13	0.000000e+00	7.333335e-01	1.295668e+15	1.568689e+15	1.768970e+14	1.522577e+04	5.108668e+03	2.903053e+03	0	1.123732e-03
8.500000e+08	6.120488e+13	0.000000e+00	7.333335e-01	1.286815e+15	1.558475e+15	1.760763e+14	1.520572e+04	5.105232e+03	2.901101e+03	0	1.117575e-03
8.600000e+08	6.019997e+13	0.000000e+00	7.333335e-01	1.278064e+15	1.548371e+15	1.752613e+14	1.518580e+04	5.101815e+03	2.899159e+03	0	1.111425e-03
8.700000e+08	5.920716e+13	0.000000e+00	7.333335e-01	1.269413e+15	1.538375e+15	1.744519e+14	1.516602e+04	5.098417e+03	2.897228e+03	0	1.105281e-03
8.800000e+08	5.822623e+13	0.000000e+00	7.333335e-01	1.260859e+15	1.528487e+15	1.736481e+14	1.514637e+04	5.095037e+03	2.895307e+03	0	1.099143e-03
8.900000e+08	5.725702e+13	0.000000e+00	7.333335e-01	1.252402e+15	1.518703e+15	1.728498e+14	1.512685e+04	5.091675e+03	2.893397e+03	0	1.093010e-03
9.000000e+08	5.629932e+13	0.000000e+00	7.333335e-01	1.244040e+15	1.509024e+15	1.720570e+14	1.510746e+04	5.088332e+03	2.891497e+03	0	1.086882e-03
9.100000e+08	5.535295e+13	0.000000e+00	7.333335e-01	1.235772e+15	1.499448e+15	1.712696e+14	1.508821e+04	5.085007e+03	2.889608e+03	0	1.080758e-03
9.200000e+08	5.441775e+13	0.000000e+00	7.333335e-01	1.227596e+15	1.489972e+15	1.704876e+14	1.506908e+04	5.081700e+03	2.887729e+03	0	1.074637e-03
9.300000e+08	5.349353e+13	0.000000e+00	7.333335e-01	1.219510e+15	1.480597e+15	1.697110e+14	1.505008e+04	5.078411e+03	2.885860e+03	0	1.068518e-03
9.400000e+08	5.258012e+13	0.000000e+00	7.333335e-01	1.211514e+15	1.471319e+15	1.689396e+14	1.503120e+04	5.075140e+03	2.884001e+03	0	1.062401e-03
9.500000e+08	5.167735e+13	0.000000e+00	7.333335e-01	1.203606e+15	1.462139e+15	1.681736e+14	1.501244e+04	5.071886e+03	2.882152e+03	0	1.056286e-03
9.600000e+08	5.078506e+13	0.000000e+00	7.333335e-01	1.195784e+15	1.453055e+15	1.674127e+14	1.499381e+04	5.068650e+03	2.880313e+03	0	1.050171e-03
9.700000e+08	4.990308e+13	0.000000e+00	7.333335e-01	1.188048e+15	1.444066e+15	1.666570e+14	1.497530e+04	5.065432e+03	2.878484e+03	0	1.044056e-03
9.800000e+08	4.903126e+13	0.000000e+00	7.333335e-01	1.180396e+15	1.435169e+15	1.659065e+14	1.495691e+04	5.062231e+03	2.876665e+03	0	1.037940e-03
9.900000e+08	4.816943e+13	0.000000e+00	7.333335e-01	1.172827e+15	1.426364e+15	1.651611e+14	1.493864e+04	5.059046e+03	2.874856e+03	0	1.031823e-03
1.000000e+09	4.731746e+13	0.000000e+00	7.333335e-01	1.165339e+15	1.417650e+15	1.644207e+14	1.492048e+04	5.055879e+03	2.873056e+03	0	1.025704e-03
1.010000e+09	4.647518e+13	0.000000e+00	7.333335e-01	1.157931e+15	1.409025e+15	1.636854e+14	1.490244e+04	5.052729e+03	2.871266e+03	0	1.019581e-03
1.020000e+09	4.564244e+13	0.000000e+00	7.333335e-01	1.150603e+15	1.400489e+15	1.629550e+14	1.488451e+04	5.049596e+03	2.869485e+03	0	1.013455e-03
1.030000e+09	4.481911e+13	0.000000e+00	7.333335e-01	1.143352e+15	1.392039e+15	1.622296e+14	1.486670e+04	5.046479e+03	2.867714e+03	0	1.007324e-03
1.040000e+09	4.400505e+13	0.000000e+00	7.333335e-01	1.136178e+15	1.383675e+15	1.615091e+14	1.484900e+04	5.043379e+03	2.865953e+03	0	1.001188e-03
1.050000e+09	4.320010e+13	0.000000e+00	7.333335e-01	1.129080e+15	1.375395e+15	1.607934e+14	1.483141e+04	5.040295e+03	2.864200e+03	0	9.950456e-04
1.060000e+09	4.240414e+13	0.000000e+00	7.333335e-01	1.122057e+15	1.367199e+15	1.600826e+14	1.481393e+04	5.037228e+03	2.862457e+03	0	9.888965e-04
1.070000e+09	4.161704e+13	0.000000e+00	7.333335e-01	1.115107e+15	1.359085e+15	1.593766e+14	1.479655e+04	5.034176e+03	2.860723e+03	0	9.827396e-04
1.080000e+09	4.083865e+13	0.000000e+00	7.333335e-01	1.108229e+15	1.351053e+15	1.586753e+14	1.477929e+04	5.031141e+03	2.858998e+03	0	9.765741e-04
1.090000e+09	4.006885e+13	0.000000e+00	7.333335e-01	1.101423e+15	1.343100e+15	1.579787e+14	1.476213e+04	5.028121e+03	2.857282e+03	0	9.703991e-04
1.100000e+09	3.930752e+13	0.000000e+00	7.333335e-01	1.094687e+15	1.335226e+15	1.572868e+14	1.474508e+04	5.025117e+03	2.855575e+03	0	9.642137e-04
1.110000e+09	3.855453e+13	0.000000e+00	7.333335e-01	1.088021e+15	1.327430e+15	1.565996e+14	1.472813e+04	5.022129e+03	2.853877e+03	0	9.580170e-04
1.120000e+09	3.780976e+13	0.000000e+00	7.333335e-01	1.081423e+15	1.319711e+15	1.559169e+14	1.471128e+04	5.019156e+03	2.852187e+03	0	9.518081e-04
1.130000e+09	3.707309e+13	0.000000e+00	7.333335e-01	1.074892e+15	1.312068e+15	1.552388e+14	1.469454e+04	5.016198e+03	2.850507e+03	0	9.455859e-04
1.140000e+09	3.634439e+13	0.000000e+00	7.333335e-01	1.068427e+15	1.304499e+15	1.545653e+14	1.467789e+04	5.013256e+03	2.848835e+03	0	9.393495e-04
1.150000e+09	3.562356e+13	0.000000e+00	7.333335e-01	1.062028e+15	1.297004e+15	1.538962e+14	1.466135e+04	5.010328e+03	2.847171e+03	0	9.330978e-04
1.160000e+09	3.491048e+13	0.000000e+00	7.333335e-01	1.055694e+15	1.289582e+15	1.532317e+14	1.464490e+04	5.007416e+03	2.845516e+03	0	9.268299e-04
1.170000e+09	3.420504e+13	0.000000e+00	7.333335e-01	1.049423e+15	1.282231e+15	1.525715e+14	1.462856e+04	5.004518e+03	2.843869e+03	0	9.205445e-04
1.180000e+09	3.350713e+13	0.000000e+00	7.333335e-01	1.043215e+15	1.274952e+15	1.519157e+14	1.461231e+04	5.001635e+03	2.842231e+03	0	9.142406e-04
1.190000e+09	3.281665e+13	0.000000e+00	7.333335e-01	1.037069e+15	1.267742e+15	1.512643e+14	1.459615e+04	4.998767e+03	2.840601e+03	0	9.079170e-04
1.200000e+09	3.213348e+13	0.000000e+00	7.333335e-01	1.030984e+15	1.260601e+15	1.506172e+14	1.458009e+04	4.995913e+03	2.838979e+03	0	9.015725e-04
1.210000e+09	3.145753e+13	0.000000e+00	7.333335e-01	1.024959e+15	1.253529e+15	1.499744e+14	1.456413e+04	4.993073e+03	2.837366e+03	0	8.952059e-04
1.220000e+09	3.078868e+13	0.000000e+00	7.333335e-01	1.018994e+15	1.246523e+15	1.493359e+14	1.454826e+04	4.990248e+03	2.835760e+03	0	8.888158e-04
1.230000e+09	3.012685e+13	0.000000e+00	7.333335e-01	1.013087e+15	1.239584e+15	1.487016e+14	1.453248e+04	4.987436e+03	2.834162e+03	0	8.824010e-04
1.240000e+09	2.947194e+13	0.000000e+00	7.333335e-01	1.007238e+15	1.232710e+15	1.480715e+14	1.451679e+04	4.984639e+03	2.832573e+03	0	8.759600e-04
1.250000e+09	2.882384e+13	0.000000e+00	7.333335e-01	1.001445e+15	1.225900e+15	1.474455e+14	1.450119e+04	4.981855e+03	2.830991e+03	0	8.694915e-04
1.260000e+09	2.818246e+13	0.000000e+00	7.333335e-01	9.957093e+14	1.219155e+15	1.468237e+14	1.448568e+04	4.979085e+03	2.829417e+03	0	8.629938e-04
1.270000e+09	2.754771e+13	0.000000e+00	7.333335e-01	9.900287e+14	1.212472e+15	1.462060e+14	1.447026e+04	4.976328e+03	2.827850e+03	0	8.564656e-04
1.280000e+09	2.691950e+13	0.000000e+00	7.333335e-01	9.844027e+14	1.205851e+15	1.455923e+14	1.445493e+04	4.973586e+03	2.826292e+03	0	8.499050e-04
1.290000e+09	2.629774e+13	0.000000e+00	7.333335e-01	9.788307e+14	1.199292e+15	1.449827e+14	1.443969e+04	4.970856e+03	2.824741e+03	0	8.433105e-04
1.300000e+09	2.568233e+13	0.000000e+00	7.333335e-01	9.733119e+14	1.192793e+15	1.443770e+14	1.442453e+04	4.968140e+03	2.823197e+03	0	8.366803e-04
1.310000e+09	2.507320e+13	0.000000e+00	7.333335e-01	9.678456e+14	1.186353e+15	1.437754e+14	1.440946e+04	4.965437e+03	2.821661e+03	0	8.300126e-04
1.320000e+09	2.447026e+13	0.000000e+00	7.333335e-01	9.624312e+14	1.179973e+15	1.431776e+14	1.439447e+04	4.962747e+03	2.820132e+03	0	8.233053e-04
1.330000e+09	2.387342e+13	0.000000e+00	7.333335e-01	9.570679e+14	1.173651e+15	1.425838e+14	1.437956e+04	4.960069e+03	2.818611e+03	0	8.165565e-04
1.340000e+09	2.328259e+13	0.000000e+00	7.333335e-01	9.517551e+14	1.167386e+15	1.419939e+14	1.436474e+04	4.957405e+03	2.817097e+03	0	8.097641e-04
1.350000e+09	2.269771e+13	0.000000e+00	7.333335e-01	9.464920e+14	1.161178e+15	1.414078e+14	1.435000e+04	4.954754e+03	2.815590e+03	0	8.029258e-04
1.360000e+09	2.211869e+13	0.000000e+00	7.333335e-01	9.412782e+14	1.155026e+15	1.408255e+14	1.433534e+04	4.952115e+03	2.814090e+03	0	7.960394e-04
