#t		Qconv[W]	Ri[Rp]		R*[Rp]		Qc[W]		Qm[W]		Qr[W]		Tcmb[K]		Tl[K]		Tup[K]		RiFlag		Bs[T]
0.000000e+00	2.065489e+15	0.000000e+00	7.205880e-01	1.726053e+16	2.944382e+15	2.963166e+14	2.810840e+04	6.134465e+03	2.867832e+03	0	3.640716e-03
1.000000e+07	2.037430e+15	0.000000e+00	7.205880e-01	1.703309e+16	4.849322e+15	2.946748e+14	2.784944e+04	6.637905e+03	3.103188e+03	0	3.624155e-03
2.000000e+07	1.998681e+15	0.000000e+00	7.205880e-01	1.672481e+16	6.960397e+15	2.930453e+14	2.759383e+04	7.057810e+03	3.299491e+03	0	3.601032e-03
3.000000e+07	1.951944e+15	0.000000e+00	7.205880e-01	1.635626e+16	8.979544e+15	2.914279e+14	2.734280e+04	7.389111e+03	3.454373e+03	0	3.572741e-03
4.000000e+07	1.900069e+15	0.000000e+00	7.205880e-01	1.594909e+16	1.068715e+16	2.898227e+14	2.709725e+04	7.637363e+03	3.570430e+03	0	3.540807e-03
5.000000e+07	1.845482e+15	0.000000e+00	7.205880e-01	1.552171e+16	1.198728e+16	2.882294e+14	2.685774e+04	7.814795e+03	3.653378e+03	0	3.506569e-03
6.000000e+07	1.789979e+15	0.000000e+00	7.205880e-01	1.508776e+16	1.288450e+16	2.866479e+14	2.662460e+04	7.935891e+03	3.709990e+03	0	3.471058e-03
7.000000e+07	1.734768e+15	0.000000e+00	7.205880e-01	1.465639e+16	1.343782e+16	2.850783e+14	2.639791e+04	8.014334e+03	3.746662e+03	0	3.434997e-03
8.000000e+07	1.680612e+15	0.000000e+00	7.205880e-01	1.423337e+16	1.372287e+16	2.835203e+14	2.617764e+04	8.061562e+03	3.768741e+03	0	3.398873e-03
9.000000e+07	1.627960e+15	0.000000e+00	7.205880e-01	1.382212e+16	1.381081e+16	2.819739e+14	2.596367e+04	8.086467e+03	3.780384e+03	0	3.363002e-03
1.000000e+08	1.577063e+15	0.000000e+00	7.205880e-01	1.342451e+16	1.375999e+16	2.804390e+14	2.575583e+04	8.095658e+03	3.784680e+03	0	3.327582e-03
1.100000e+08	1.528037e+15	0.000000e+00	7.205880e-01	1.304144e+16	1.361484e+16	2.789155e+14	2.555392e+04	8.093911e+03	3.783864e+03	0	3.292738e-03
1.200000e+08	1.480922e+15	0.000000e+00	7.205880e-01	1.267316e+16	1.340768e+16	2.774032e+14	2.535772e+04	8.084622e+03	3.779521e+03	0	3.258541e-03
1.300000e+08	1.435703e+15	0.000000e+00	7.205880e-01	1.231956e+16	1.316140e+16	2.759022e+14	2.516702e+04	8.070183e+03	3.772771e+03	0	3.225032e-03
1.400000e+08	1.392337e+15	0.000000e+00	7.205880e-01	1.198031e+16	1.289193e+16	2.744123e+14	2.498159e+04	8.052268e+03	3.764395e+03	0	3.192228e-03
1.500000e+08	1.350762e+15	0.000000e+00	7.205880e-01	1.165493e+16	1.261015e+16	2.729334e+14	2.480123e+04	8.032049e+03	3.754943e+03	0	3.160133e-03
1.600000e+08	1.310907e+15	0.000000e+00	7.205880e-01	1.134286e+16	1.232348e+16	2.714654e+14	2.462573e+04	8.010346e+03	3.744797e+03	0	3.128742e-03
1.700000e+08	1.272697e+15	0.000000e+00	7.205880e-01	1.104352e+16	1.203688e+16	2.700082e+14	2.445489e+04	7.987731e+03	3.734225e+03	0	3.098044e-03
1.800000e+08	1.236055e+15	0.000000e+00	7.205880e-01	1.075632e+16	1.175361e+16	2.685618e+14	2.428852e+04	7.964604e+03	3.723413e+03	0	3.068022e-03
1.900000e+08	1.200904e+15	0.000000e+00	7.205880e-01	1.048066e+16	1.147581e+16	2.671261e+14	2.412645e+04	7.941247e+03	3.712494e+03	0	3.038659e-03
2.000000e+08	1.167171e+15	0.000000e+00	7.205880e-01	1.021599e+16	1.120481e+16	2.657009e+14	2.396850e+04	7.917855e+03	3.701558e+03	0	3.009937e-03
2.100000e+08	1.134785e+15	0.000000e+00	7.205880e-01	9.961749e+15	1.094138e+16	2.642861e+14	2.381450e+04	7.894564e+03	3.690670e+03	0	2.981836e-03
2.200000e+08	1.103677e+15	0.000000e+00	7.205880e-01	9.717413e+15	1.068596e+16	2.628818e+14	2.366431e+04	7.871468e+03	3.679872e+03	0	2.954336e-03
2.300000e+08	1.073783e+15	0.000000e+00	7.205880e-01	9.482486e+15	1.043871e+16	2.614878e+14	2.351778e+04	7.848631e+03	3.669197e+03	0	2.927418e-03
2.400000e+08	1.045042e+15	0.000000e+00	7.205880e-01	9.256497e+15	1.019962e+16	2.601040e+14	2.337477e+04	7.826098e+03	3.658662e+03	0	2.901063e-03
2.500000e+08	1.017396e+15	0.000000e+00	7.205880e-01	9.038999e+15	9.968602e+15	2.587303e+14	2.323514e+04	7.803896e+03	3.648283e+03	0	2.875252e-03
2.600000e+08	9.907908e+14	0.000000e+00	7.205880e-01	8.829574e+15	9.745455e+15	2.573667e+14	2.309877e+04	7.782042e+03	3.638066e+03	0	2.849967e-03
2.700000e+08	9.651744e+14	0.000000e+00	7.205880e-01	8.627823e+15	9.529954e+15	2.560131e+14	2.296553e+04	7.760546e+03	3.628017e+03	0	2.825191e-03
2.800000e+08	9.404987e+14	0.000000e+00	7.205880e-01	8.433375e+15	9.321842e+15	2.546693e+14	2.283532e+04	7.739412e+03	3.618137e+03	0	2.800906e-03
2.900000e+08	9.167181e+14	0.000000e+00	7.205880e-01	8.245877e+15	9.120849e+15	2.533354e+14	2.270802e+04	7.718641e+03	3.608426e+03	0	2.777097e-03
3.000000e+08	8.937897e+14	0.000000e+00	7.205880e-01	8.064998e+15	8.926699e+15	2.520112e+14	2.258354e+04	7.698228e+03	3.598884e+03	0	2.753749e-03
3.100000e+08	8.716730e+14	0.000000e+00	7.205880e-01	7.890425e+15	8.739115e+15	2.506966e+14	2.246177e+04	7.678172e+03	3.589507e+03	0	2.730845e-03
3.200000e+08	8.503299e+14	0.000000e+00	7.205880e-01	7.721865e+15	8.557827e+15	2.493916e+14	2.234261e+04	7.658464e+03	3.580294e+03	0	2.708372e-03
3.300000e+08	8.297245e+14	0.000000e+00	7.205880e-01	7.559039e+15	8.382571e+15	2.480961e+14	2.222599e+04	7.639099e+03	3.571241e+03	0	2.686316e-03
3.400000e+08	8.098228e+14	0.000000e+00	7.205880e-01	7.401687e+15	8.213092e+15	2.468100e+14	2.211181e+04	7.620069e+03	3.562345e+03	0	2.664664e-03
3.500000e+08	7.905928e+14	0.000000e+00	7.205880e-01	7.249560e+15	8.049145e+15	2.455332e+14	2.199999e+04	7.601367e+03	3.553602e+03	0	2.643403e-03
3.600000e+08	7.720044e+14	0.000000e+00	7.205880e-01	7.102426e+15	7.890494e+15	2.442657e+14	2.189045e+04	7.582984e+03	3.545008e+03	0	2.622522e-03
3.700000e+08	7.540289e+14	0.000000e+00	7.205880e-01	6.960064e+15	7.736914e+15	2.430073e+14	2.178313e+04	7.564913e+03	3.536560e+03	0	2.602007e-03
3.800000e+08	7.366396e+14	0.000000e+00	7.205880e-01	6.822265e+15	7.588192e+15	2.417581e+14	2.167794e+04	7.547146e+03	3.528254e+03	0	2.581849e-03
3.900000e+08	7.198108e+14	0.000000e+00	7.205880e-01	6.688833e+15	7.444124e+15	2.405179e+14	2.157482e+04	7.529675e+03	3.520086e+03	0	2.562036e-03
4.000000e+08	7.035184e+14	0.000000e+00	7.205880e-01	6.559580e+15	7.304514e+15	2.392866e+14	2.147371e+04	7.512492e+03	3.512053e+03	0	2.542559e-03
4.100000e+08	6.877396e+14	0.000000e+00	7.205880e-01	6.434331e+15	7.169178e+15	2.380642e+14	2.137454e+04	7.495590e+03	3.504151e+03	0	2.523406e-03
4.200000e+08	6.724527e+14	0.000000e+00	7.205880e-01	6.312918e+15	7.037940e+15	2.368507e+14	2.127725e+04	7.478961e+03	3.496378e+03	0	2.504569e-03
4.300000e+08	6.576373e+14	0.000000e+00	7.205880e-01	6.195182e+15	6.910633e+15	2.356459e+14	2.118179e+04	7.462599e+03	3.488728e+03	0	2.486039e-03
4.400000e+08	6.432739e+14	0.000000e+00	7.205880e-01	6.080972e+15	6.787097e+15	2.344497e+14	2.108809e+04	7.446496e+03	3.481200e+03	0	2.467807e-03
4.500000e+08	6.293440e+14	0.000000e+00	7.205880e-01	5.970147e+15	6.667183e+15	2.332621e+14	2.099612e+04	7.430646e+03	3.473790e+03	0	2.449863e-03
4.600000e+08	6.158302e+14	0.000000e+00	7.205880e-01	5.862569e+15	6.550745e+15	2.320831e+14	2.090581e+04	7.415041e+03	3.466495e+03	0	2.432201e-03
4.700000e+08	6.027158e+14	0.000000e+00	7.205880e-01	5.758112e+15	6.437647e+15	2.309125e+14	2.081712e+04	7.399677e+03	3.459312e+03	0	2.414812e-03
4.800000e+08	5.899850e+14	0.000000e+00	7.205880e-01	5.656651e+15	6.327759e+15	2.297503e+14	2.073000e+04	7.384546e+03	3.452239e+03	0	2.397689e-03
4.900000e+08	5.776228e+14	0.000000e+00	7.205880e-01	5.558070e+15	6.220958e+15	2.285965e+14	2.064441e+04	7.369643e+03	3.445272e+03	0	2.380824e-03
5.000000e+08	5.656149e+14	0.000000e+00	7.205880e-01	5.462259e+15	6.117124e+15	2.274508e+14	2.056030e+04	7.354962e+03	3.438409e+03	0	2.364210e-03
5.100000e+08	5.539476e+14	0.000000e+00	7.205880e-01	5.369113e+15	6.016146e+15	2.263134e+14	2.047764e+04	7.340498e+03	3.431647e+03	0	2.347841e-03
5.200000e+08	5.426080e+14	0.000000e+00	7.205880e-01	5.278530e+15	5.917917e+15	2.251841e+14	2.039637e+04	7.326245e+03	3.424983e+03	0	2.331710e-03
5.300000e+08	5.315838e+14	0.000000e+00	7.205880e-01	5.190415e+15	5.822334e+15	2.240628e+14	2.031648e+04	7.312197e+03	3.418416e+03	0	2.315811e-03
5.400000e+08	5.208633e+14	0.000000e+00	7.205880e-01	5.104678e+15	5.729300e+15	2.229496e+14	2.023790e+04	7.298351e+03	3.411943e+03	0	2.300137e-03
5.500000e+08	5.104351e+14	0.000000e+00	7.205880e-01	5.021229e+15	5.638722e+15	2.218442e+14	2.016062e+04	7.284701e+03	3.405562e+03	0	2.284683e-03
5.600000e+08	5.002887e+14	0.000000e+00	7.205880e-01	4.939988e+15	5.550513e+15	2.207467e+14	2.008460e+04	7.271242e+03	3.399270e+03	0	2.269444e-03
5.700000e+08	4.904137e+14	0.000000e+00	7.205880e-01	4.860874e+15	5.464586e+15	2.196570e+14	2.000980e+04	7.257971e+03	3.393065e+03	0	2.254412e-03
5.800000e+08	4.808005e+14	0.000000e+00	7.205880e-01	4.783812e+15	5.380861e+15	2.185750e+14	1.993619e+04	7.244881e+03	3.386946e+03	0	2.239585e-03
5.900000e+08	4.714397e+14	0.000000e+00	7.205880e-01	4.708729e+15	5.299261e+15	2.175007e+14	1.986374e+04	7.231970e+03	3.380911e+03	0	2.224955e-03
6.000000e+08	4.623224e+14	0.000000e+00	7.205880e-01	4.635557e+15	5.219712e+15	2.164340e+14	1.979243e+04	7.219234e+03	3.374956e+03	0	2.210518e-03
6.100000e+08	4.534402e+14	0.000000e+00	7.205880e-01	4.564228e+15	5.142143e+15	2.153749e+14	1.972221e+04	7.206667e+03	3.369081e+03	0	2.196270e-03
6.200000e+08	4.447848e+14	0.000000e+00	7.205880e-01	4.494681e+15	5.066487e+15	2.143232e+14	1.965308e+04	7.194267e+03	3.363284e+03	0	2.182206e-03
6.300000e+08	4.363486e+14	0.000000e+00	7.205880e-01	4.426854e+15	4.992679e+15	2.132790e+14	1.958499e+04	7.182030e+03	3.357563e+03	0	2.168322e-03
6.400000e+08	4.281240e+14	0.000000e+00	7.205880e-01	4.360689e+15	4.920657e+15	2.122421e+14	1.951792e+04	7.169951e+03	3.351917e+03	0	2.154612e-03
6.500000e+08	4.201039e+14	0.000000e+00	7.205880e-01	4.296132e+15	4.850361e+15	2.112125e+14	1.945185e+04	7.158028e+03	3.346343e+03	0	2.141073e-03
6.600000e+08	4.122815e+14	0.000000e+00	7.205880e-01	4.233128e+15	4.781736e+15	2.101902e+14	1.938676e+04	7.146257e+03	3.340840e+03	0	2.127700e-03
6.700000e+08	4.046502e+14	0.000000e+00	7.205880e-01	4.171627e+15	4.714726e+15	2.091750e+14	1.932261e+04	7.134635e+03	3.335406e+03	0	2.114491e-03
6.800000e+08	3.972039e+14	0.000000e+00	7.205880e-01	4.111580e+15	4.649279e+15	2.081670e+14	1.925939e+04	7.123158e+03	3.330041e+03	0	2.101440e-03
6.900000e+08	3.899363e+14	0.000000e+00	7.205880e-01	4.052941e+15	4.585344e+15	2.071661e+14	1.919708e+04	7.111824e+03	3.324742e+03	0	2.088544e-03
7.000000e+08	3.828418e+14	0.000000e+00	7.205880e-01	3.995663e+15	4.522875e+15	2.061722e+14	1.913566e+04	7.100629e+03	3.319509e+03	0	2.075801e-03
7.100000e+08	3.759148e+14	0.000000e+00	7.205880e-01	3.939704e+15	4.461825e+15	2.051852e+14	1.907509e+04	7.089571e+03	3.314339e+03	0	2.063205e-03
7.200000e+08	3.691500e+14	0.000000e+00	7.205880e-01	3.885023e+15	4.402148e+15	2.042051e+14	1.901538e+04	7.078646e+03	3.309232e+03	0	2.050754e-03
7.300000e+08	3.625424e+14	0.000000e+00	7.205880e-01	3.831580e+15	4.343804e+15	2.032319e+14	1.895648e+04	7.067852e+03	3.304186e+03	0	2.038444e-03
7.400000e+08	3.560869e+14	0.000000e+00	7.205880e-01	3.779336e+15	4.286750e+15	2.022655e+14	1.889840e+04	7.057187e+03	3.299200e+03	0	2.026272e-03
7.500000e+08	3.497789e+14	0.000000e+00	7.205880e-01	3.728254e+15	4.230947e+15	2.013058e+14	1.884110e+04	7.046647e+03	3.294273e+03	0	2.014236e-03
7.600000e+08	3.436138e+14	0.000000e+00	7.205880e-01	3.678300e+15	4.176358e+15	2.003528e+14	1.878457e+04	7.036230e+03	3.289403e+03	0	2.002332e-03
7.700000e+08	3.375873e+14	0.000000e+00	7.205880e-01	3.629440e+15	4.122947e+15	1.994064e+14	1.872880e+04	7.025934e+03	3.284590e+03	0	1.990557e-03
7.800000e+08	3.316952e+14	0.000000e+00	7.205880e-01	3.581640e+15	4.070677e+15	1.984666e+14	1.867377e+04	7.015756e+03	3.279831e+03	0	1.978908e-03
7.900000e+08	3.259334e+14	0.000000e+00	7.205880e-01	3.534869e+15	4.019516e+15	1.975334e+14	1.861946e+04	7.005694e+03	3.275128e+03	0	1.967382e-03
8.000000e+08	3.202981e+14	0.000000e+00	7.205880e-01	3.489097e+15	3.969431e+15	1.966066e+14	1.856585e+04	6.995746e+03	3.270477e+03	0	1.955978e-03
8.100000e+08	3.147856e+14	0.000000e+00	7.205880e-01	3.444295e+15	3.920391e+15	1.956862e+14	1.851293e+04	6.985909e+03	3.265878e+03	0	1.944692e-03
8.200000e+08	3.093922e+14	0.000000e+00	7.205880e-01	3.400434e+15	3.872366e+15	1.947722e+14	1.846070e+04	6.976182e+03	3.261331e+03	0	1.933521e-03
8.300000e+08	3.041144e+14	0.000000e+00	7.205880e-01	3.357488e+15	3.825326e+15	1.938645e+14	1.840912e+04	6.966561e+03	3.256833e+03	0	1.922464e-03
8.400000e+08	2.989490e+14	0.000000e+00	7.205880e-01	3.315430e+15	3.779244e+15	1.929631e+14	1.835819e+04	6.957046e+03	3.252385e+03	0	1.911517e-03
8.500000e+08	2.938928e+14	0.000000e+00	7.205880e-01	3.274236e+15	3.734093e+15	1.920679e+14	1.830790e+04	6.947634e+03	3.247985e+03	0	1.900679e-03
8.600000e+08	2.889425e+14	0.000000e+00	7.205880e-01	3.233880e+15	3.689847e+15	1.911789e+14	1.825823e+04	6.938324e+03	3.243632e+03	0	1.889947e-03
8.700000e+08	2.840952e+14	0.000000e+00	7.205880e-01	3.194340e+15	3.646480e+15	1.902960e+14	1.820917e+04	6.929112e+03	3.239326e+03	0	1.879319e-03
8.800000e+08	2.793481e+14	0.000000e+00	7.205880e-01	3.155593e+15	3.603969e+15	1.894192e+14	1.816071e+04	6.919999e+03	3.235065e+03	0	1.868792e-03
8.900000e+08	2.746983e+14	0.000000e+00	7.205880e-01	3.117617e+15	3.562290e+15	1.885484e+14	1.811284e+04	6.910981e+03	3.230850e+03	0	1.858366e-03
9.000000e+08	2.701432e+14	0.000000e+00	7.205880e-01	3.080392e+15	3.521421e+15	1.876835e+14	1.806553e+04	6.902057e+03	3.226678e+03	0	1.848036e-03
9.100000e+08	2.656801e+14	0.000000e+00	7.205880e-01	3.043896e+15	3.481339e+15	1.868246e+14	1.801879e+04	6.893226e+03	3.222549e+03	0	1.837803e-03
9.200000e+08	2.613066e+14	0.000000e+00	7.205880e-01	3.008111e+15	3.442024e+15	1.859716e+14	1.797261e+04	6.884485e+03	3.218463e+03	0	1.827662e-03
9.300000e+08	2.570203e+14	0.000000e+00	7.205880e-01	2.973016e+15	3.403456e+15	1.851244e+14	1.792696e+04	6.875834e+03	3.214418e+03	0	1.817614e-03
9.400000e+08	2.528187e+14	0.000000e+00	7.205880e-01	2.938595e+15	3.365615e+15	1.842831e+14	1.788184e+04	6.867270e+03	3.210415e+03	0	1.807655e-03
9.500000e+08	2.486997e+14	0.000000e+00	7.205880e-01	2.904829e+15	3.328482e+15	1.834474e+14	1.783725e+04	6.858792e+03	3.206451e+03	0	1.797784e-03
9.600000e+08	2.446610e+14	0.000000e+00	7.205880e-01	2.871701e+15	3.292038e+15	1.826175e+14	1.779316e+04	6.850398e+03	3.202527e+03	0	1.788000e-03
9.700000e+08	2.407005e+14	0.000000e+00	7.205880e-01	2.839195e+15	3.256266e+15	1.817932e+14	1.774958e+04	6.842088e+03	3.198642e+03	0	1.778299e-03
9.800000e+08	2.368163e+14	0.000000e+00	7.205880e-01	2.807294e+15	3.221148e+15	1.809745e+14	1.770649e+04	6.833859e+03	3.194795e+03	0	1.768682e-03
9.900000e+08	2.330062e+14	0.000000e+00	7.205880e-01	2.775984e+15	3.186669e+15	1.801613e+14	1.766388e+04	6.825711e+03	3.190986e+03	0	1.759145e-03
1.000000e+09	2.292685e+14	0.000000e+00	7.205880e-01	2.745248e+15	3.152811e+15	1.793537e+14	1.762174e+04	6.817641e+03	3.187214e+03	0	1.749688e-03
1.010000e+09	2.256013e+14	0.000000e+00	7.205880e-01	2.715073e+15	3.119560e+15	1.785516e+14	1.758007e+04	6.809649e+03	3.183478e+03	0	1.740309e-03
1.020000e+09	2.220027e+14	0.000000e+00	7.205880e-01	2.685445e+15	3.086900e+15	1.777549e+14	1.753885e+04	6.801734e+03	3.179777e+03	0	1.731006e-03
1.030000e+09	2.184711e+14	0.000000e+00	7.205880e-01	2.656349e+15	3.054817e+15	1.769636e+14	1.749808e+04	6.793893e+03	3.176112e+03	0	1.721778e-03
1.040000e+09	2.150047e+14	0.000000e+00	7.205880e-01	2.627774e+15	3.023297e+15	1.761777e+14	1.745776e+04	6.786126e+03	3.172481e+03	0	1.712623e-03
1.050000e+09	2.116020e+14	0.000000e+00	7.205880e-01	2.599705e+15	2.992325e+15	1.753970e+14	1.741786e+04	6.778432e+03	3.168884e+03	0	1.703540e-03
1.060000e+09	2.082613e+14	0.000000e+00	7.205880e-01	2.572131e+15	2.961888e+15	1.746216e+14	1.737839e+04	6.770810e+03	3.165320e+03	0	1.694528e-03
1.070000e+09	2.049812e+14	0.000000e+00	7.205880e-01	2.545039e+15	2.931975e+15	1.738515e+14	1.733934e+04	6.763257e+03	3.161789e+03	0	1.685584e-03
1.080000e+09	2.017601e+14	0.000000e+00	7.205880e-01	2.518419e+15	2.902572e+15	1.730865e+14	1.730070e+04	6.755774e+03	3.158291e+03	0	1.676709e-03
1.090000e+09	1.985967e+14	0.000000e+00	7.205880e-01	2.492258e+15	2.873666e+15	1.723267e+14	1.726246e+04	6.748359e+03	3.154824e+03	0	1.667899e-03
1.100000e+09	1.954895e+14	0.000000e+00	7.205880e-01	2.466547e+15	2.845247e+15	1.715719e+14	1.722461e+04	6.741010e+03	3.151389e+03	0	1.659155e-03
1.110000e+09	1.924371e+14	0.000000e+00	7.205880e-01	2.441273e+15	2.817304e+15	1.708223e+14	1.718716e+04	6.733728e+03	3.147985e+03	0	1.650474e-03
1.120000e+09	1.894384e+14	0.000000e+00	7.205880e-01	2.416427e+15	2.789824e+15	1.700776e+14	1.715009e+04	6.726510e+03	3.144610e+03	0	1.641856e-03
1.130000e+09	1.864920e+14	0.000000e+00	7.205880e-01	2.392000e+15	2.762797e+15	1.693379e+14	1.711339e+04	6.719357e+03	3.141266e+03	0	1.633300e-03
1.140000e+09	1.835967e+14	0.000000e+00	7.205880e-01	2.367980e+15	2.736213e+15	1.686032e+14	1.707706e+04	6.712266e+03	3.137951e+03	0	1.624803e-03
1.150000e+09	1.807512e+14	0.000000e+00	7.205880e-01	2.344360e+15	2.710062e+15	1.678734e+14	1.704110e+04	6.705238e+03	3.134666e+03	0	1.616366e-03
1.160000e+09	1.779545e+14	0.000000e+00	7.205880e-01	2.321129e+15	2.684334e+15	1.671485e+14	1.700549e+04	6.698270e+03	3.131408e+03	0	1.607986e-03
1.170000e+09	1.752054e+14	0.000000e+00	7.205880e-01	2.298280e+15	2.659020e+15	1.664283e+14	1.697024e+04	6.691362e+03	3.128179e+03	0	1.599663e-03
1.180000e+09	1.725029e+14	0.000000e+00	7.205880e-01	2.275802e+15	2.634109e+15	1.657130e+14	1.693533e+04	6.684514e+03	3.124977e+03	0	1.591395e-03
1.190000e+09	1.698458e+14	0.000000e+00	7.205880e-01	2.253689e+15	2.609594e+15	1.650024e+14	1.690077e+04	6.677724e+03	3.121803e+03	0	1.583182e-03
1.200000e+09	1.672331e+14	0.000000e+00	7.205880e-01	2.231931e+15	2.585465e+15	1.642966e+14	1.686653e+04	6.670991e+03	3.118655e+03	0	1.575022e-03
1.210000e+09	1.646638e+14	0.000000e+00	7.205880e-01	2.210521e+15	2.561714e+15	1.635954e+14	1.683263e+04	6.664315e+03	3.115534e+03	0	1.566914e-03
1.220000e+09	1.621370e+14	0.000000e+00	7.205880e-01	2.189452e+15	2.538333e+15	1.628989e+14	1.679905e+04	6.657695e+03	3.112440e+03	0	1.558858e-03
1.230000e+09	1.596517e+14	0.000000e+00	7.205880e-01	2.168715e+15	2.515314e+15	1.622070e+14	1.676579e+04	6.651130e+03	3.109370e+03	0	1.550852e-03
1.240000e+09	1.572070e+14	0.000000e+00	7.205880e-01	2.148304e+15	2.492648e+15	1.615196e+14	1.673285e+04	6.644618e+03	3.106326e+03	0	1.542895e-03
1.250000e+09	1.548020e+14	0.000000e+00	7.205880e-01	2.128212e+15	2.470329e+15	1.608368e+14	1.670021e+04	6.638161e+03	3.103307e+03	0	1.534987e-03
1.260000e+09	1.524358e+14	0.000000e+00	7.205880e-01	2.108431e+15	2.448349e+15	1.601585e+14	1.666788e+04	6.631755e+03	3.100313e+03	0	1.527126e-03
1.270000e+09	1.501076e+14	0.000000e+00	7.205880e-01	2.088955e+15	2.426700e+15	1.594847e+14	1.663584e+04	6.625402e+03	3.097343e+03	0	1.519311e-03
1.280000e+09	1.478166e+14	0.000000e+00	7.205880e-01	2.069778e+15	2.405377e+15	1.588153e+14	1.660411e+04	6.619100e+03	3.094397e+03	0	1.511542e-03
1.290000e+09	1.455619e+14	0.000000e+00	7.205880e-01	2.050893e+15	2.384371e+15	1.581503e+14	1.657266e+04	6.612848e+03	3.091474e+03	0	1.503817e-03
1.300000e+09	1.433428e+14	0.000000e+00	7.205880e-01	2.032294e+15	2.363677e+15	1.574896e+14	1.654150e+04	6.606646e+03	3.088574e+03	0	1.496136e-03
1.310000e+09	1.411586e+14	0.000000e+00	7.205880e-01	2.013974e+15	2.343287e+15	1.568333e+14	1.651062e+04	6.600493e+03	3.085698e+03	0	1.488498e-03
1.320000e+09	1.390084e+14	0.000000e+00	7.205880e-01	1.995930e+15	2.323196e+15	1.561813e+14	1.648002e+04	6.594388e+03	3.082844e+03	0	1.480902e-03
1.330000e+09	1.368917e+14	0.000000e+00	7.205880e-01	1.978153e+15	2.303398e+15	1.555336e+14	1.644969e+04	6.588331e+03	3.080012e+03	0	1.473346e-03
1.340000e+09	1.348076e+14	0.000000e+00	7.205880e-01	1.960640e+15	2.283887e+15	1.548900e+14	1.641963e+04	6.582321e+03	3.077203e+03	0	1.465831e-03
1.350000e+09	1.327554e+14	0.000000e+00	7.205880e-01	1.943385e+15	2.264656e+15	1.542507e+14	1.638984e+04	6.576358e+03	3.074415e+03	0	1.458355e-03
1.360000e+09	1.307347e+14	0.000000e+00	7.205880e-01	1.926382e+15	2.245700e+15	1.536156e+14	1.636030e+04	6.570440e+03	3.071648e+03	0	1.450918e-03
