#t		Qconv[W]	Ri[Rp]		R*[Rp]		Qc[W]		Qm[W]		Qr[W]		Tcmb[K]		Tl[K]		Tup[K]		RiFlag		Bs[T]
0.000000e+00	2.187725e+15	0.000000e+00	7.205882e-01	1.815903e+16	2.879764e+15	3.121973e+14	2.898797e+04	6.250977e+03	2.897181e+03	0	3.707119e-03
1.000000e+07	2.163578e+15	0.000000e+00	7.205882e-01	1.796311e+16	4.781283e+15	3.104675e+14	2.873736e+04	6.764982e+03	3.135410e+03	0	3.693430e-03
2.000000e+07	2.127988e+15	0.000000e+00	7.205882e-01	1.768227e+16	6.938894e+15	3.087507e+14	2.848940e+04	7.199853e+03	3.336963e+03	0	3.673066e-03
3.000000e+07	2.083473e+15	0.000000e+00	7.205882e-01	1.733530e+16	9.059465e+15	3.070466e+14	2.824528e+04	7.548701e+03	3.498646e+03	0	3.647273e-03
4.000000e+07	2.032863e+15	0.000000e+00	7.205882e-01	1.694331e+16	1.090660e+16	3.053553e+14	2.800590e+04	7.814918e+03	3.622031e+03	0	3.617499e-03
5.000000e+07	1.978694e+15	0.000000e+00	7.205882e-01	1.652519e+16	1.235892e+16	3.036766e+14	2.777188e+04	8.009018e+03	3.711992e+03	0	3.585077e-03
6.000000e+07	1.922922e+15	0.000000e+00	7.205882e-01	1.609554e+16	1.339975e+16	3.020104e+14	2.754359e+04	8.144535e+03	3.774800e+03	0	3.551073e-03
7.000000e+07	1.866921e+15	0.000000e+00	7.205882e-01	1.566456e+16	1.407597e+16	3.003567e+14	2.732118e+04	8.234861e+03	3.816665e+03	0	3.516260e-03
8.000000e+07	1.811589e+15	0.000000e+00	7.205882e-01	1.523894e+16	1.445924e+16	2.987152e+14	2.710467e+04	8.291570e+03	3.842948e+03	0	3.481173e-03
9.000000e+07	1.757486e+15	0.000000e+00	7.205882e-01	1.482283e+16	1.462173e+16	2.970859e+14	2.689399e+04	8.323887e+03	3.857926e+03	0	3.446167e-03
1.000000e+08	1.704939e+15	0.000000e+00	7.205882e-01	1.441868e+16	1.462516e+16	2.954687e+14	2.668902e+04	8.338804e+03	3.864840e+03	0	3.411473e-03
1.100000e+08	1.654126e+15	0.000000e+00	7.205882e-01	1.402778e+16	1.451789e+16	2.938636e+14	2.648959e+04	8.341456e+03	3.866069e+03	0	3.377239e-03
1.200000e+08	1.605126e+15	0.000000e+00	7.205882e-01	1.365071e+16	1.433593e+16	2.922703e+14	2.629553e+04	8.335544e+03	3.863329e+03	0	3.343557e-03
1.300000e+08	1.557959e+15	0.000000e+00	7.205882e-01	1.328761e+16	1.410524e+16	2.906888e+14	2.610664e+04	8.323702e+03	3.857840e+03	0	3.310480e-03
1.400000e+08	1.512603e+15	0.000000e+00	7.205882e-01	1.293831e+16	1.384418e+16	2.891190e+14	2.592273e+04	8.307794e+03	3.850467e+03	0	3.278038e-03
1.500000e+08	1.469014e+15	0.000000e+00	7.205882e-01	1.260247e+16	1.356552e+16	2.875609e+14	2.574362e+04	8.289136e+03	3.841820e+03	0	3.246243e-03
1.600000e+08	1.427136e+15	0.000000e+00	7.205882e-01	1.227964e+16	1.327805e+16	2.860142e+14	2.556913e+04	8.268655e+03	3.832327e+03	0	3.215097e-03
1.700000e+08	1.386901e+15	0.000000e+00	7.205882e-01	1.196932e+16	1.298780e+16	2.844789e+14	2.539907e+04	8.247003e+03	3.822292e+03	0	3.184594e-03
1.800000e+08	1.348240e+15	0.000000e+00	7.205882e-01	1.167100e+16	1.269879e+16	2.829550e+14	2.523327e+04	8.224642e+03	3.811928e+03	0	3.154724e-03
1.900000e+08	1.311084e+15	0.000000e+00	7.205882e-01	1.138412e+16	1.241372e+16	2.814423e+14	2.507158e+04	8.201897e+03	3.801386e+03	0	3.125473e-03
2.000000e+08	1.275362e+15	0.000000e+00	7.205882e-01	1.110818e+16	1.213435e+16	2.799407e+14	2.491384e+04	8.178996e+03	3.790773e+03	0	3.096826e-03
2.100000e+08	1.241008e+15	0.000000e+00	7.205882e-01	1.084265e+16	1.186176e+16	2.784502e+14	2.475989e+04	8.156102e+03	3.780162e+03	0	3.068766e-03
2.200000e+08	1.207956e+15	0.000000e+00	7.205882e-01	1.058704e+16	1.159660e+16	2.769706e+14	2.460959e+04	8.133327e+03	3.769606e+03	0	3.041277e-03
2.300000e+08	1.176143e+15	0.000000e+00	7.205882e-01	1.034089e+16	1.133923e+16	2.755019e+14	2.446281e+04	8.110749e+03	3.759142e+03	0	3.014341e-03
2.400000e+08	1.145511e+15	0.000000e+00	7.205882e-01	1.010372e+16	1.108976e+16	2.740439e+14	2.431942e+04	8.088424e+03	3.748795e+03	0	2.987941e-03
2.500000e+08	1.116002e+15	0.000000e+00	7.205882e-01	9.875132e+15	1.084818e+16	2.725966e+14	2.417930e+04	8.066387e+03	3.738581e+03	0	2.962061e-03
2.600000e+08	1.087563e+15	0.000000e+00	7.205882e-01	9.654703e+15	1.061438e+16	2.711600e+14	2.404233e+04	8.044663e+03	3.728512e+03	0	2.936683e-03
2.700000e+08	1.060144e+15	0.000000e+00	7.205882e-01	9.442053e+15	1.038818e+16	2.697338e+14	2.390839e+04	8.023266e+03	3.718596e+03	0	2.911793e-03
2.800000e+08	1.033695e+15	0.000000e+00	7.205882e-01	9.236818e+15	1.016939e+16	2.683180e+14	2.377739e+04	8.002205e+03	3.708834e+03	0	2.887375e-03
2.900000e+08	1.008173e+15	0.000000e+00	7.205882e-01	9.038656e+15	9.957744e+15	2.669126e+14	2.364921e+04	7.981482e+03	3.699230e+03	0	2.863413e-03
3.000000e+08	9.835348e+14	0.000000e+00	7.205882e-01	8.847241e+15	9.753008e+15	2.655174e+14	2.352376e+04	7.961099e+03	3.689782e+03	0	2.839895e-03
3.100000e+08	9.597391e+14	0.000000e+00	7.205882e-01	8.662267e+15	9.554921e+15	2.641324e+14	2.340096e+04	7.941052e+03	3.680491e+03	0	2.816804e-03
3.200000e+08	9.367481e+14	0.000000e+00	7.205882e-01	8.483444e+15	9.363229e+15	2.627574e+14	2.328071e+04	7.921338e+03	3.671354e+03	0	2.794130e-03
3.300000e+08	9.145257e+14	0.000000e+00	7.205882e-01	8.310498e+15	9.177680e+15	2.613924e+14	2.316292e+04	7.901951e+03	3.662369e+03	0	2.771858e-03
3.400000e+08	8.930379e+14	0.000000e+00	7.205882e-01	8.143171e+15	8.998028e+15	2.600374e+14	2.304752e+04	7.882886e+03	3.653533e+03	0	2.749976e-03
3.500000e+08	8.722523e+14	0.000000e+00	7.205882e-01	7.981216e+15	8.824035e+15	2.586922e+14	2.293443e+04	7.864136e+03	3.644842e+03	0	2.728473e-03
3.600000e+08	8.521384e+14	0.000000e+00	7.205882e-01	7.824403e+15	8.655471e+15	2.573567e+14	2.282357e+04	7.845694e+03	3.636295e+03	0	2.707337e-03
3.700000e+08	8.326673e+14	0.000000e+00	7.205882e-01	7.672512e+15	8.492117e+15	2.560310e+14	2.271488e+04	7.827553e+03	3.627887e+03	0	2.686558e-03
3.800000e+08	8.138116e+14	0.000000e+00	7.205882e-01	7.525335e+15	8.333759e+15	2.547148e+14	2.260829e+04	7.809706e+03	3.619615e+03	0	2.666124e-03
3.900000e+08	7.955455e+14	0.000000e+00	7.205882e-01	7.382674e+15	8.180198e+15	2.534081e+14	2.250373e+04	7.792145e+03	3.611476e+03	0	2.646025e-03
4.000000e+08	7.778443e+14	0.000000e+00	7.205882e-01	7.244343e+15	8.031239e+15	2.521109e+14	2.240114e+04	7.774865e+03	3.603467e+03	0	2.626253e-03
4.100000e+08	7.606846e+14	0.000000e+00	7.205882e-01	7.110165e+15	7.886698e+15	2.508230e+14	2.230047e+04	7.757857e+03	3.595584e+03	0	2.606797e-03
4.200000e+08	7.440445e+14	0.000000e+00	7.205882e-01	6.979971e+15	7.746400e+15	2.495444e+14	2.220164e+04	7.741115e+03	3.587825e+03	0	2.587649e-03
4.300000e+08	7.279029e+14	0.000000e+00	7.205882e-01	6.853601e+15	7.610177e+15	2.482750e+14	2.210462e+04	7.724633e+03	3.580186e+03	0	2.568799e-03
4.400000e+08	7.122398e+14	0.000000e+00	7.205882e-01	6.730905e+15	7.477870e+15	2.470147e+14	2.200934e+04	7.708403e+03	3.572664e+03	0	2.550240e-03
4.500000e+08	6.970363e+14	0.000000e+00	7.205882e-01	6.611737e+15	7.349327e+15	2.457635e+14	2.191576e+04	7.692420e+03	3.565256e+03	0	2.531964e-03
4.600000e+08	6.822743e+14	0.000000e+00	7.205882e-01	6.495960e+15	7.224403e+15	2.445213e+14	2.182383e+04	7.676677e+03	3.557960e+03	0	2.513962e-03
4.700000e+08	6.679368e+14	0.000000e+00	7.205882e-01	6.383444e+15	7.102961e+15	2.432880e+14	2.173350e+04	7.661169e+03	3.550772e+03	0	2.496227e-03
4.800000e+08	6.540073e+14	0.000000e+00	7.205882e-01	6.274064e+15	6.984867e+15	2.420635e+14	2.164472e+04	7.645890e+03	3.543690e+03	0	2.478753e-03
4.900000e+08	6.404704e+14	0.000000e+00	7.205882e-01	6.167702e+15	6.869998e+15	2.408478e+14	2.155746e+04	7.630834e+03	3.536712e+03	0	2.461531e-03
5.000000e+08	6.273112e+14	0.000000e+00	7.205882e-01	6.064246e+15	6.758232e+15	2.396408e+14	2.147167e+04	7.615995e+03	3.529835e+03	0	2.444556e-03
5.100000e+08	6.145157e+14	0.000000e+00	7.205882e-01	5.963587e+15	6.649457e+15	2.384424e+14	2.138731e+04	7.601369e+03	3.523056e+03	0	2.427821e-03
5.200000e+08	6.020703e+14	0.000000e+00	7.205882e-01	5.865624e+15	6.543563e+15	2.372525e+14	2.130434e+04	7.586950e+03	3.516373e+03	0	2.411319e-03
5.300000e+08	5.899623e+14	0.000000e+00	7.205882e-01	5.770257e+15	6.440445e+15	2.360712e+14	2.122274e+04	7.572733e+03	3.509784e+03	0	2.395045e-03
5.400000e+08	5.781794e+14	0.000000e+00	7.205882e-01	5.677395e+15	6.340006e+15	2.348982e+14	2.114245e+04	7.558715e+03	3.503287e+03	0	2.378993e-03
5.500000e+08	5.667099e+14	0.000000e+00	7.205882e-01	5.586947e+15	6.242149e+15	2.337336e+14	2.106344e+04	7.544889e+03	3.496879e+03	0	2.363157e-03
5.600000e+08	5.555427e+14	0.000000e+00	7.205882e-01	5.498828e+15	6.146784e+15	2.325773e+14	2.098569e+04	7.531252e+03	3.490558e+03	0	2.347532e-03
5.700000e+08	5.446670e+14	0.000000e+00	7.205882e-01	5.412958e+15	6.053825e+15	2.314292e+14	2.090916e+04	7.517799e+03	3.484323e+03	0	2.332112e-03
5.800000e+08	5.340726e+14	0.000000e+00	7.205882e-01	5.329257e+15	5.963188e+15	2.302893e+14	2.083382e+04	7.504526e+03	3.478171e+03	0	2.316892e-03
5.900000e+08	5.237499e+14	0.000000e+00	7.205882e-01	5.247652e+15	5.874793e+15	2.291574e+14	2.075964e+04	7.491429e+03	3.472101e+03	0	2.301867e-03
6.000000e+08	5.136894e+14	0.000000e+00	7.205882e-01	5.168071e+15	5.788566e+15	2.280335e+14	2.068658e+04	7.478503e+03	3.466111e+03	0	2.287033e-03
6.100000e+08	5.038822e+14	0.000000e+00	7.205882e-01	5.090446e+15	5.704433e+15	2.269176e+14	2.061464e+04	7.465747e+03	3.460198e+03	0	2.272385e-03
6.200000e+08	4.943199e+14	0.000000e+00	7.205882e-01	5.014712e+15	5.622324e+15	2.258096e+14	2.054376e+04	7.453154e+03	3.454362e+03	0	2.257919e-03
6.300000e+08	4.849941e+14	0.000000e+00	7.205882e-01	4.940805e+15	5.542173e+15	2.247094e+14	2.047394e+04	7.440722e+03	3.448600e+03	0	2.243629e-03
6.400000e+08	4.758970e+14	0.000000e+00	7.205882e-01	4.868666e+15	5.463916e+15	2.236169e+14	2.040514e+04	7.428448e+03	3.442911e+03	0	2.229513e-03
6.500000e+08	4.670211e+14	0.000000e+00	7.205882e-01	4.798238e+15	5.387491e+15	2.225322e+14	2.033734e+04	7.416328e+03	3.437294e+03	0	2.215565e-03
6.600000e+08	4.583593e+14	0.000000e+00	7.205882e-01	4.729464e+15	5.312839e+15	2.214550e+14	2.027052e+04	7.404358e+03	3.431746e+03	0	2.201782e-03
6.700000e+08	4.499044e+14	0.000000e+00	7.205882e-01	4.662293e+15	5.239905e+15	2.203855e+14	2.020465e+04	7.392536e+03	3.426267e+03	0	2.188160e-03
6.800000e+08	4.416500e+14	0.000000e+00	7.205882e-01	4.596672e+15	5.168633e+15	2.193235e+14	2.013971e+04	7.380858e+03	3.420855e+03	0	2.174695e-03
6.900000e+08	4.335896e+14	0.000000e+00	7.205882e-01	4.532555e+15	5.098972e+15	2.182689e+14	2.007568e+04	7.369322e+03	3.415508e+03	0	2.161384e-03
7.000000e+08	4.257172e+14	0.000000e+00	7.205882e-01	4.469892e+15	5.030871e+15	2.172217e+14	2.001254e+04	7.357924e+03	3.410225e+03	0	2.148223e-03
7.100000e+08	4.180267e+14	0.000000e+00	7.205882e-01	4.408640e+15	4.964283e+15	2.161818e+14	1.995027e+04	7.346662e+03	3.405005e+03	0	2.135209e-03
7.200000e+08	4.105127e+14	0.000000e+00	7.205882e-01	4.348755e+15	4.899161e+15	2.151492e+14	1.988885e+04	7.335533e+03	3.399847e+03	0	2.122338e-03
7.300000e+08	4.031696e+14	0.000000e+00	7.205882e-01	4.290196e+15	4.835461e+15	2.141238e+14	1.982826e+04	7.324534e+03	3.394749e+03	0	2.109607e-03
7.400000e+08	3.959922e+14	0.000000e+00	7.205882e-01	4.232922e+15	4.773141e+15	2.131056e+14	1.976848e+04	7.313663e+03	3.389711e+03	0	2.097013e-03
7.500000e+08	3.889755e+14	0.000000e+00	7.205882e-01	4.176895e+15	4.712158e+15	2.120945e+14	1.970950e+04	7.302916e+03	3.384730e+03	0	2.084554e-03
7.600000e+08	3.821147e+14	0.000000e+00	7.205882e-01	4.122077e+15	4.652474e+15	2.110904e+14	1.965130e+04	7.292293e+03	3.379806e+03	0	2.072225e-03
7.700000e+08	3.754050e+14	0.000000e+00	7.205882e-01	4.068434e+15	4.594050e+15	2.100933e+14	1.959385e+04	7.281789e+03	3.374938e+03	0	2.060024e-03
7.800000e+08	3.688422e+14	0.000000e+00	7.205882e-01	4.015931e+15	4.536850e+15	2.091032e+14	1.953715e+04	7.271403e+03	3.370125e+03	0	2.047949e-03
7.900000e+08	3.624217e+14	0.000000e+00	7.205882e-01	3.964534e+15	4.480838e+15	2.081199e+14	1.948118e+04	7.261133e+03	3.365365e+03	0	2.035997e-03
8.000000e+08	3.561395e+14	0.000000e+00	7.205882e-01	3.914213e+15	4.425981e+15	2.071434e+14	1.942592e+04	7.250977e+03	3.360657e+03	0	2.024164e-03
8.100000e+08	3.499916e+14	0.000000e+00	7.205882e-01	3.864935e+15	4.372245e+15	2.061737e+14	1.937136e+04	7.240932e+03	3.356002e+03	0	2.012449e-03
8.200000e+08	3.439741e+14	0.000000e+00	7.205882e-01	3.816672e+15	4.319599e+15	2.052108e+14	1.931749e+04	7.230996e+03	3.351397e+03	0	2.000849e-03
8.300000e+08	3.380833e+14	0.000000e+00	7.205882e-01	3.769394e+15	4.268013e+15	2.042544e+14	1.926429e+04	7.221167e+03	3.346841e+03	0	1.989361e-03
8.400000e+08	3.323156e+14	0.000000e+00	7.205882e-01	3.723075e+15	4.217456e+15	2.033047e+14	1.921174e+04	7.211443e+03	3.342334e+03	0	1.977983e-03
8.500000e+08	3.266675e+14	0.000000e+00	7.205882e-01	3.677688e+15	4.167901e+15	2.023615e+14	1.915983e+04	7.201822e+03	3.337875e+03	0	1.966713e-03
8.600000e+08	3.211357e+14	0.000000e+00	7.205882e-01	3.633207e+15	4.119320e+15	2.014249e+14	1.910856e+04	7.192303e+03	3.333464e+03	0	1.955548e-03
8.700000e+08	3.157171e+14	0.000000e+00	7.205882e-01	3.589607e+15	4.071687e+15	2.004947e+14	1.905790e+04	7.182883e+03	3.329098e+03	0	1.944487e-03
8.800000e+08	3.104084e+14	0.000000e+00	7.205882e-01	3.546865e+15	4.024976e+15	1.995708e+14	1.900785e+04	7.173561e+03	3.324777e+03	0	1.933527e-03
8.900000e+08	3.052067e+14	0.000000e+00	7.205882e-01	3.504957e+15	3.979162e+15	1.986534e+14	1.895839e+04	7.164335e+03	3.320501e+03	0	1.922665e-03
9.000000e+08	3.001091e+14	0.000000e+00	7.205882e-01	3.463861e+15	3.934222e+15	1.977422e+14	1.890952e+04	7.155204e+03	3.316269e+03	0	1.911901e-03
9.100000e+08	2.951128e+14	0.000000e+00	7.205882e-01	3.423555e+15	3.890133e+15	1.968373e+14	1.886121e+04	7.146165e+03	3.312079e+03	0	1.901231e-03
9.200000e+08	2.902150e+14	0.000000e+00	7.205882e-01	3.384019e+15	3.846872e+15	1.959385e+14	1.881347e+04	7.137216e+03	3.307932e+03	0	1.890655e-03
9.300000e+08	2.854133e+14	0.000000e+00	7.205882e-01	3.345233e+15	3.804418e+15	1.950459e+14	1.876627e+04	7.128358e+03	3.303826e+03	0	1.880170e-03
9.400000e+08	2.807049e+14	0.000000e+00	7.205882e-01	3.307177e+15	3.762750e+15	1.941595e+14	1.871962e+04	7.119587e+03	3.299761e+03	0	1.869773e-03
9.500000e+08	2.760875e+14	0.000000e+00	7.205882e-01	3.269831e+15	3.721847e+15	1.932790e+14	1.867349e+04	7.110903e+03	3.295736e+03	0	1.859465e-03
9.600000e+08	2.715588e+14	0.000000e+00	7.205882e-01	3.233179e+15	3.681691e+15	1.924046e+14	1.862788e+04	7.102303e+03	3.291751e+03	0	1.849241e-03
9.700000e+08	2.671164e+14	0.000000e+00	7.205882e-01	3.197202e+15	3.642263e+15	1.915361e+14	1.858278e+04	7.093787e+03	3.287804e+03	0	1.839102e-03
9.800000e+08	2.627581e+14	0.000000e+00	7.205882e-01	3.161883e+15	3.603543e+15	1.906735e+14	1.853818e+04	7.085353e+03	3.283895e+03	0	1.829045e-03
9.900000e+08	2.584818e+14	0.000000e+00	7.205882e-01	3.127206e+15	3.565516e+15	1.898168e+14	1.849408e+04	7.077000e+03	3.280023e+03	0	1.819068e-03
1.000000e+09	2.542854e+14	0.000000e+00	7.205882e-01	3.093154e+15	3.528162e+15	1.889660e+14	1.845045e+04	7.068726e+03	3.276188e+03	0	1.809170e-03
1.010000e+09	2.501669e+14	0.000000e+00	7.205882e-01	3.059713e+15	3.491467e+15	1.881208e+14	1.840730e+04	7.060530e+03	3.272390e+03	0	1.799350e-03
1.020000e+09	2.461244e+14	0.000000e+00	7.205882e-01	3.026867e+15	3.455413e+15	1.872814e+14	1.836461e+04	7.052411e+03	3.268627e+03	0	1.789605e-03
1.030000e+09	2.421559e+14	0.000000e+00	7.205882e-01	2.994601e+15	3.419985e+15	1.864477e+14	1.832238e+04	7.044367e+03	3.264899e+03	0	1.779934e-03
1.040000e+09	2.382597e+14	0.000000e+00	7.205882e-01	2.962902e+15	3.385169e+15	1.856197e+14	1.828060e+04	7.036398e+03	3.261205e+03	0	1.770337e-03
1.050000e+09	2.344339e+14	0.000000e+00	7.205882e-01	2.931756e+15	3.350949e+15	1.847972e+14	1.823926e+04	7.028502e+03	3.257546e+03	0	1.760810e-03
1.060000e+09	2.306769e+14	0.000000e+00	7.205882e-01	2.901149e+15	3.317312e+15	1.839802e+14	1.819835e+04	7.020678e+03	3.253919e+03	0	1.751353e-03
1.070000e+09	2.269871e+14	0.000000e+00	7.205882e-01	2.871070e+15	3.284243e+15	1.831688e+14	1.815787e+04	7.012925e+03	3.250326e+03	0	1.741965e-03
1.080000e+09	2.233626e+14	0.000000e+00	7.205882e-01	2.841504e+15	3.251729e+15	1.823628e+14	1.811780e+04	7.005241e+03	3.246765e+03	0	1.732643e-03
1.090000e+09	2.198022e+14	0.000000e+00	7.205882e-01	2.812441e+15	3.219757e+15	1.815623e+14	1.807815e+04	6.997626e+03	3.243235e+03	0	1.723388e-03
1.100000e+09	2.163041e+14	0.000000e+00	7.205882e-01	2.783868e+15	3.188316e+15	1.807671e+14	1.803890e+04	6.990079e+03	3.239738e+03	0	1.714196e-03
1.110000e+09	2.128670e+14	0.000000e+00	7.205882e-01	2.755774e+15	3.157391e+15	1.799772e+14	1.800005e+04	6.982598e+03	3.236270e+03	0	1.705068e-03
1.120000e+09	2.094893e+14	0.000000e+00	7.205882e-01	2.728149e+15	3.126973e+15	1.791927e+14	1.796159e+04	6.975183e+03	3.232834e+03	0	1.696002e-03
1.130000e+09	2.061698e+14	0.000000e+00	7.205882e-01	2.700980e+15	3.097049e+15	1.784134e+14	1.792351e+04	6.967833e+03	3.229427e+03	0	1.686996e-03
1.140000e+09	2.029071e+14	0.000000e+00	7.205882e-01	2.674259e+15	3.067607e+15	1.776393e+14	1.788581e+04	6.960545e+03	3.226049e+03	0	1.678049e-03
1.150000e+09	1.996998e+14	0.000000e+00	7.205882e-01	2.647974e+15	3.038638e+15	1.768704e+14	1.784849e+04	6.953321e+03	3.222701e+03	0	1.669161e-03
1.160000e+09	1.965468e+14	0.000000e+00	7.205882e-01	2.622116e+15	3.010131e+15	1.761066e+14	1.781153e+04	6.946158e+03	3.219381e+03	0	1.660330e-03
1.170000e+09	1.934467e+14	0.000000e+00	7.205882e-01	2.596676e+15	2.982075e+15	1.753478e+14	1.777493e+04	6.939056e+03	3.216089e+03	0	1.651554e-03
1.180000e+09	1.903984e+14	0.000000e+00	7.205882e-01	2.571644e+15	2.954461e+15	1.745942e+14	1.773868e+04	6.932014e+03	3.212825e+03	0	1.642833e-03
1.190000e+09	1.874007e+14	0.000000e+00	7.205882e-01	2.547011e+15	2.927278e+15	1.738455e+14	1.770278e+04	6.925030e+03	3.209589e+03	0	1.634166e-03
1.200000e+09	1.844525e+14	0.000000e+00	7.205882e-01	2.522768e+15	2.900518e+15	1.731018e+14	1.766722e+04	6.918105e+03	3.206379e+03	0	1.625551e-03
1.210000e+09	1.815527e+14	0.000000e+00	7.205882e-01	2.498907e+15	2.874171e+15	1.723631e+14	1.763201e+04	6.911237e+03	3.203196e+03	0	1.616987e-03
1.220000e+09	1.787002e+14	0.000000e+00	7.205882e-01	2.475420e+15	2.848229e+15	1.716292e+14	1.759712e+04	6.904426e+03	3.200039e+03	0	1.608474e-03
1.230000e+09	1.758939e+14	0.000000e+00	7.205882e-01	2.452298e+15	2.822682e+15	1.709002e+14	1.756256e+04	6.897670e+03	3.196908e+03	0	1.600010e-03
1.240000e+09	1.731330e+14	0.000000e+00	7.205882e-01	2.429533e+15	2.797523e+15	1.701761e+14	1.752832e+04	6.890969e+03	3.193802e+03	0	1.591594e-03
1.250000e+09	1.704163e+14	0.000000e+00	7.205882e-01	2.407119e+15	2.772743e+15	1.694567e+14	1.749440e+04	6.884322e+03	3.190722e+03	0	1.583225e-03
1.260000e+09	1.677430e+14	0.000000e+00	7.205882e-01	2.385047e+15	2.748335e+15	1.687420e+14	1.746079e+04	6.877729e+03	3.187666e+03	0	1.574903e-03
1.270000e+09	1.651120e+14	0.000000e+00	7.205882e-01	2.363311e+15	2.724290e+15	1.680320e+14	1.742749e+04	6.871188e+03	3.184634e+03	0	1.566626e-03
1.280000e+09	1.625226e+14	0.000000e+00	7.205882e-01	2.341903e+15	2.700600e+15	1.673268e+14	1.739449e+04	6.864698e+03	3.181626e+03	0	1.558393e-03
1.290000e+09	1.599738e+14	0.000000e+00	7.205882e-01	2.320817e+15	2.677260e+15	1.666261e+14	1.736179e+04	6.858260e+03	3.178643e+03	0	1.550203e-03
1.300000e+09	1.574647e+14	0.000000e+00	7.205882e-01	2.300045e+15	2.654261e+15	1.659301e+14	1.732939e+04	6.851873e+03	3.175682e+03	0	1.542056e-03
1.310000e+09	1.549946e+14	0.000000e+00	7.205882e-01	2.279582e+15	2.631596e+15	1.652386e+14	1.729727e+04	6.845535e+03	3.172745e+03	0	1.533950e-03
1.320000e+09	1.525626e+14	0.000000e+00	7.205882e-01	2.259421e+15	2.609259e+15	1.645516e+14	1.726544e+04	6.839246e+03	3.169830e+03	0	1.525884e-03
1.330000e+09	1.501679e+14	0.000000e+00	7.205882e-01	2.239555e+15	2.587244e+15	1.638692e+14	1.723388e+04	6.833006e+03	3.166938e+03	0	1.517859e-03
1.340000e+09	1.478098e+14	0.000000e+00	7.205882e-01	2.219980e+15	2.565543e+15	1.631912e+14	1.720261e+04	6.826813e+03	3.164067e+03	0	1.509872e-03
1.350000e+09	1.454874e+14	0.000000e+00	7.205882e-01	2.200689e+15	2.544150e+15	1.625176e+14	1.717160e+04	6.820667e+03	3.161219e+03	0	1.501922e-03
1.360000e+09	1.432002e+14	0.000000e+00	7.205882e-01	2.181676e+15	2.523060e+15	1.618484e+14	1.714087e+04	6.814568e+03	3.158392e+03	0	1.494010e-03
