#t		Qconv[W]	Ri[Rp]		R*[Rp]		Qc[W]		Qm[W]		Qr[W]		Tcmb[K]		Tl[K]		Tup[K]		RiFlag		Bs[T]
0.000000e+00	3.196570e+14	0.000000e+00	7.185185e-01	3.968556e+15	1.789604e+15	3.427022e+14	2.088551e+04	5.461819e+03	2.941369e+03	0	1.952059e-03
1.000000e+07	3.186702e+14	0.000000e+00	7.185185e-01	3.957529e+15	1.956541e+15	3.408034e+14	2.083652e+04	5.534910e+03	2.980732e+03	0	1.950048e-03
2.000000e+07	3.173329e+14	0.000000e+00	7.185185e-01	3.943976e+15	2.120241e+15	3.389187e+14	2.078766e+04	5.602642e+03	3.017207e+03	0	1.947316e-03
3.000000e+07	3.156666e+14	0.000000e+00	7.185185e-01	3.928053e+15	2.278785e+15	3.370482e+14	2.073896e+04	5.665064e+03	3.050824e+03	0	1.943902e-03
4.000000e+07	3.136949e+14	0.000000e+00	7.185185e-01	3.909933e+15	2.430519e+15	3.351916e+14	2.069046e+04	5.722286e+03	3.081639e+03	0	1.939846e-03
5.000000e+07	3.114426e+14	0.000000e+00	7.185185e-01	3.889798e+15	2.574084e+15	3.333489e+14	2.064219e+04	5.774467e+03	3.109740e+03	0	1.935192e-03
6.000000e+07	3.089353e+14	0.000000e+00	7.185185e-01	3.867836e+15	2.708436e+15	3.315199e+14	2.059416e+04	5.821808e+03	3.135235e+03	0	1.929985e-03
7.000000e+07	3.061989e+14	0.000000e+00	7.185185e-01	3.844236e+15	2.832835e+15	3.297045e+14	2.054641e+04	5.864544e+03	3.158250e+03	0	1.924270e-03
8.000000e+07	3.032587e+14	0.000000e+00	7.185185e-01	3.819183e+15	2.946830e+15	3.279027e+14	2.049894e+04	5.902933e+03	3.178924e+03	0	1.918091e-03
9.000000e+07	3.001392e+14	0.000000e+00	7.185185e-01	3.792856e+15	3.050228e+15	3.261142e+14	2.045178e+04	5.937247e+03	3.197403e+03	0	1.911491e-03
1.000000e+08	2.968638e+14	0.000000e+00	7.185185e-01	3.765426e+15	3.143059e+15	3.243390e+14	2.040495e+04	5.967766e+03	3.213839e+03	0	1.904513e-03
1.100000e+08	2.934547e+14	0.000000e+00	7.185185e-01	3.737053e+15	3.225536e+15	3.225770e+14	2.035845e+04	5.994774e+03	3.228383e+03	0	1.897194e-03
1.200000e+08	2.899323e+14	0.000000e+00	7.185185e-01	3.707888e+15	3.298019e+15	3.208280e+14	2.031230e+04	6.018547e+03	3.241186e+03	0	1.889573e-03
1.300000e+08	2.863156e+14	0.000000e+00	7.185185e-01	3.678067e+15	3.360977e+15	3.190920e+14	2.026652e+04	6.039357e+03	3.252392e+03	0	1.881683e-03
1.400000e+08	2.826219e+14	0.000000e+00	7.185185e-01	3.647719e+15	3.414957e+15	3.173689e+14	2.022109e+04	6.057462e+03	3.262143e+03	0	1.873556e-03
1.500000e+08	2.788670e+14	0.000000e+00	7.185185e-01	3.616956e+15	3.460555e+15	3.156585e+14	2.017605e+04	6.073108e+03	3.270569e+03	0	1.865222e-03
1.600000e+08	2.750649e+14	0.000000e+00	7.185185e-01	3.585882e+15	3.498392e+15	3.139607e+14	2.013138e+04	6.086526e+03	3.277795e+03	0	1.856706e-03
1.700000e+08	2.712285e+14	0.000000e+00	7.185185e-01	3.554590e+15	3.529096e+15	3.122754e+14	2.008709e+04	6.097932e+03	3.283937e+03	0	1.848034e-03
1.800000e+08	2.673690e+14	0.000000e+00	7.185185e-01	3.523160e+15	3.553288e+15	3.106026e+14	2.004319e+04	6.107523e+03	3.289102e+03	0	1.839226e-03
1.900000e+08	2.634963e+14	0.000000e+00	7.185185e-01	3.491666e+15	3.571567e+15	3.089421e+14	1.999967e+04	6.115483e+03	3.293389e+03	0	1.830303e-03
2.000000e+08	2.596194e+14	0.000000e+00	7.185185e-01	3.460172e+15	3.584508e+15	3.072938e+14	1.995655e+04	6.121980e+03	3.296888e+03	0	1.821282e-03
2.100000e+08	2.557460e+14	0.000000e+00	7.185185e-01	3.428734e+15	3.592651e+15	3.056576e+14	1.991381e+04	6.127166e+03	3.299681e+03	0	1.812179e-03
2.200000e+08	2.518828e+14	0.000000e+00	7.185185e-01	3.397401e+15	3.596500e+15	3.040334e+14	1.987146e+04	6.131180e+03	3.301842e+03	0	1.803008e-03
2.300000e+08	2.480357e+14	0.000000e+00	7.185185e-01	3.366215e+15	3.596523e+15	3.024212e+14	1.982949e+04	6.134148e+03	3.303441e+03	0	1.793781e-03
2.400000e+08	2.442097e+14	0.000000e+00	7.185185e-01	3.335212e+15	3.593149e+15	3.008208e+14	1.978791e+04	6.136183e+03	3.304537e+03	0	1.784510e-03
2.500000e+08	2.404093e+14	0.000000e+00	7.185185e-01	3.304424e+15	3.586770e+15	2.992321e+14	1.974671e+04	6.137387e+03	3.305185e+03	0	1.775205e-03
2.600000e+08	2.366381e+14	0.000000e+00	7.185185e-01	3.273878e+15	3.577745e+15	2.976550e+14	1.970588e+04	6.137852e+03	3.305436e+03	0	1.765874e-03
2.700000e+08	2.328992e+14	0.000000e+00	7.185185e-01	3.243597e+15	3.566395e+15	2.960895e+14	1.966544e+04	6.137661e+03	3.305332e+03	0	1.756524e-03
2.800000e+08	2.291955e+14	0.000000e+00	7.185185e-01	3.213599e+15	3.553011e+15	2.945354e+14	1.962537e+04	6.136886e+03	3.304915e+03	0	1.747163e-03
2.900000e+08	2.255290e+14	0.000000e+00	7.185185e-01	3.183899e+15	3.537856e+15	2.929926e+14	1.958566e+04	6.135594e+03	3.304219e+03	0	1.737796e-03
3.000000e+08	2.219015e+14	0.000000e+00	7.185185e-01	3.154513e+15	3.521164e+15	2.914611e+14	1.954633e+04	6.133844e+03	3.303277e+03	0	1.728429e-03
3.100000e+08	2.183147e+14	0.000000e+00	7.185185e-01	3.125448e+15	3.503145e+15	2.899408e+14	1.950735e+04	6.131689e+03	3.302116e+03	0	1.719066e-03
3.200000e+08	2.147697e+14	0.000000e+00	7.185185e-01	3.096715e+15	3.483985e+15	2.884315e+14	1.946873e+04	6.129175e+03	3.300763e+03	0	1.709710e-03
3.300000e+08	2.112675e+14	0.000000e+00	7.185185e-01	3.068320e+15	3.463853e+15	2.869331e+14	1.943047e+04	6.126346e+03	3.299239e+03	0	1.700366e-03
3.400000e+08	2.078086e+14	0.000000e+00	7.185185e-01	3.040267e+15	3.442894e+15	2.854457e+14	1.939256e+04	6.123238e+03	3.297565e+03	0	1.691035e-03
3.500000e+08	2.043938e+14	0.000000e+00	7.185185e-01	3.012559e+15	3.421242e+15	2.839690e+14	1.935499e+04	6.119884e+03	3.295759e+03	0	1.681721e-03
3.600000e+08	2.010232e+14	0.000000e+00	7.185185e-01	2.985200e+15	3.399012e+15	2.825031e+14	1.931776e+04	6.116315e+03	3.293837e+03	0	1.672426e-03
3.700000e+08	1.976971e+14	0.000000e+00	7.185185e-01	2.958189e+15	3.376307e+15	2.810478e+14	1.928087e+04	6.112557e+03	3.291813e+03	0	1.663150e-03
3.800000e+08	1.944156e+14	0.000000e+00	7.185185e-01	2.931528e+15	3.353219e+15	2.796030e+14	1.924431e+04	6.108634e+03	3.289701e+03	0	1.653897e-03
3.900000e+08	1.911786e+14	0.000000e+00	7.185185e-01	2.905214e+15	3.329827e+15	2.781686e+14	1.920809e+04	6.104567e+03	3.287510e+03	0	1.644666e-03
4.000000e+08	1.879859e+14	0.000000e+00	7.185185e-01	2.879248e+15	3.306203e+15	2.767446e+14	1.917218e+04	6.100374e+03	3.285252e+03	0	1.635460e-03
4.100000e+08	1.848374e+14	0.000000e+00	7.185185e-01	2.853627e+15	3.282410e+15	2.753309e+14	1.913660e+04	6.096073e+03	3.282936e+03	0	1.626278e-03
4.200000e+08	1.817328e+14	0.000000e+00	7.185185e-01	2.828348e+15	3.258501e+15	2.739274e+14	1.910133e+04	6.091678e+03	3.280569e+03	0	1.617121e-03
4.300000e+08	1.786716e+14	0.000000e+00	7.185185e-01	2.803409e+15	3.234525e+15	2.725339e+14	1.906637e+04	6.087202e+03	3.278159e+03	0	1.607990e-03
4.400000e+08	1.756535e+14	0.000000e+00	7.185185e-01	2.778807e+15	3.210525e+15	2.711505e+14	1.903172e+04	6.082659e+03	3.275712e+03	0	1.598884e-03
4.500000e+08	1.726780e+14	0.000000e+00	7.185185e-01	2.754537e+15	3.186537e+15	2.697771e+14	1.899738e+04	6.078057e+03	3.273234e+03	0	1.589805e-03
4.600000e+08	1.697447e+14	0.000000e+00	7.185185e-01	2.730596e+15	3.162593e+15	2.684135e+14	1.896333e+04	6.073406e+03	3.270729e+03	0	1.580751e-03
4.700000e+08	1.668530e+14	0.000000e+00	7.185185e-01	2.706980e+15	3.138722e+15	2.670597e+14	1.892958e+04	6.068716e+03	3.268203e+03	0	1.571723e-03
4.800000e+08	1.640025e+14	0.000000e+00	7.185185e-01	2.683685e+15	3.114949e+15	2.657155e+14	1.889612e+04	6.063992e+03	3.265660e+03	0	1.562721e-03
4.900000e+08	1.611925e+14	0.000000e+00	7.185185e-01	2.660706e+15	3.091294e+15	2.643810e+14	1.886294e+04	6.059243e+03	3.263102e+03	0	1.553745e-03
5.000000e+08	1.584224e+14	0.000000e+00	7.185185e-01	2.638040e+15	3.067775e+15	2.630561e+14	1.883005e+04	6.054473e+03	3.260533e+03	0	1.544793e-03
5.100000e+08	1.556918e+14	0.000000e+00	7.185185e-01	2.615681e+15	3.044410e+15	2.617406e+14	1.879744e+04	6.049689e+03	3.257957e+03	0	1.535866e-03
5.200000e+08	1.530000e+14	0.000000e+00	7.185185e-01	2.593625e+15	3.021210e+15	2.604345e+14	1.876511e+04	6.044895e+03	3.255375e+03	0	1.526963e-03
5.300000e+08	1.503465e+14	0.000000e+00	7.185185e-01	2.571867e+15	2.998189e+15	2.591377e+14	1.873304e+04	6.040094e+03	3.252790e+03	0	1.518084e-03
5.400000e+08	1.477305e+14	0.000000e+00	7.185185e-01	2.550403e+15	2.975355e+15	2.578502e+14	1.870125e+04	6.035292e+03	3.250203e+03	0	1.509228e-03
5.500000e+08	1.451516e+14	0.000000e+00	7.185185e-01	2.529228e+15	2.952717e+15	2.565718e+14	1.866972e+04	6.030490e+03	3.247618e+03	0	1.500394e-03
5.600000e+08	1.426091e+14	0.000000e+00	7.185185e-01	2.508338e+15	2.930282e+15	2.553025e+14	1.863845e+04	6.025693e+03	3.245034e+03	0	1.491582e-03
5.700000e+08	1.401025e+14	0.000000e+00	7.185185e-01	2.487728e+15	2.908056e+15	2.540422e+14	1.860744e+04	6.020902e+03	3.242454e+03	0	1.482791e-03
5.800000e+08	1.376311e+14	0.000000e+00	7.185185e-01	2.467393e+15	2.886043e+15	2.527908e+14	1.857668e+04	6.016121e+03	3.239879e+03	0	1.474021e-03
5.900000e+08	1.351943e+14	0.000000e+00	7.185185e-01	2.447329e+15	2.864247e+15	2.515484e+14	1.854617e+04	6.011350e+03	3.237310e+03	0	1.465270e-03
6.000000e+08	1.327916e+14	0.000000e+00	7.185185e-01	2.427531e+15	2.842670e+15	2.503147e+14	1.851591e+04	6.006592e+03	3.234748e+03	0	1.456537e-03
6.100000e+08	1.304224e+14	0.000000e+00	7.185185e-01	2.407995e+15	2.821316e+15	2.490897e+14	1.848590e+04	6.001849e+03	3.232193e+03	0	1.447823e-03
6.200000e+08	1.280862e+14	0.000000e+00	7.185185e-01	2.388717e+15	2.800184e+15	2.478734e+14	1.845612e+04	5.997121e+03	3.229647e+03	0	1.439126e-03
6.300000e+08	1.257823e+14	0.000000e+00	7.185185e-01	2.369692e+15	2.779278e+15	2.466657e+14	1.842658e+04	5.992411e+03	3.227111e+03	0	1.430445e-03
6.400000e+08	1.235102e+14	0.000000e+00	7.185185e-01	2.350916e+15	2.758595e+15	2.454665e+14	1.839728e+04	5.987719e+03	3.224584e+03	0	1.421780e-03
6.500000e+08	1.212693e+14	0.000000e+00	7.185185e-01	2.332384e+15	2.738138e+15	2.442758e+14	1.836821e+04	5.983046e+03	3.222067e+03	0	1.413129e-03
6.600000e+08	1.190592e+14	0.000000e+00	7.185185e-01	2.314093e+15	2.717905e+15	2.430934e+14	1.833937e+04	5.978393e+03	3.219562e+03	0	1.404491e-03
6.700000e+08	1.168793e+14	0.000000e+00	7.185185e-01	2.296039e+15	2.697895e+15	2.419194e+14	1.831075e+04	5.973761e+03	3.217067e+03	0	1.395867e-03
6.800000e+08	1.147290e+14	0.000000e+00	7.185185e-01	2.278217e+15	2.678108e+15	2.407536e+14	1.828236e+04	5.969150e+03	3.214584e+03	0	1.387253e-03
6.900000e+08	1.126079e+14	0.000000e+00	7.185185e-01	2.260624e+15	2.658542e+15	2.395959e+14	1.825419e+04	5.964562e+03	3.212113e+03	0	1.378651e-03
7.000000e+08	1.105154e+14	0.000000e+00	7.185185e-01	2.243255e+15	2.639196e+15	2.384464e+14	1.822623e+04	5.959995e+03	3.209654e+03	0	1.370058e-03
7.100000e+08	1.084510e+14	0.000000e+00	7.185185e-01	2.226107e+15	2.620068e+15	2.373050e+14	1.819849e+04	5.955452e+03	3.207207e+03	0	1.361474e-03
7.200000e+08	1.064144e+14	0.000000e+00	7.185185e-01	2.209176e+15	2.601157e+15	2.361715e+14	1.817096e+04	5.950931e+03	3.204772e+03	0	1.352897e-03
7.300000e+08	1.044049e+14	0.000000e+00	7.185185e-01	2.192459e+15	2.582459e+15	2.350459e+14	1.814363e+04	5.946434e+03	3.202351e+03	0	1.344327e-03
7.400000e+08	1.024221e+14	0.000000e+00	7.185185e-01	2.175951e+15	2.563974e+15	2.339282e+14	1.811652e+04	5.941961e+03	3.199942e+03	0	1.335763e-03
7.500000e+08	1.004656e+14	0.000000e+00	7.185185e-01	2.159650e+15	2.545699e+15	2.328183e+14	1.808960e+04	5.937511e+03	3.197545e+03	0	1.327202e-03
7.600000e+08	9.853484e+13	0.000000e+00	7.185185e-01	2.143552e+15	2.527632e+15	2.317161e+14	1.806289e+04	5.933085e+03	3.195162e+03	0	1.318645e-03
7.700000e+08	9.662947e+13	0.000000e+00	7.185185e-01	2.127652e+15	2.509770e+15	2.306216e+14	1.803638e+04	5.928684e+03	3.192791e+03	0	1.310090e-03
7.800000e+08	9.474903e+13	0.000000e+00	7.185185e-01	2.111949e+15	2.492112e+15	2.295347e+14	1.801006e+04	5.924306e+03	3.190434e+03	0	1.301536e-03
7.900000e+08	9.289308e+13	0.000000e+00	7.185185e-01	2.096439e+15	2.474654e+15	2.284553e+14	1.798394e+04	5.919953e+03	3.188090e+03	0	1.292982e-03
8.000000e+08	9.106121e+13	0.000000e+00	7.185185e-01	2.081118e+15	2.457394e+15	2.273835e+14	1.795801e+04	5.915624e+03	3.185758e+03	0	1.284426e-03
8.100000e+08	8.925302e+13	0.000000e+00	7.185185e-01	2.065984e+15	2.440329e+15	2.263190e+14	1.793227e+04	5.911319e+03	3.183440e+03	0	1.275868e-03
8.200000e+08	8.746809e+13	0.000000e+00	7.185185e-01	2.051033e+15	2.423458e+15	2.252619e+14	1.790671e+04	5.907038e+03	3.181134e+03	0	1.267305e-03
8.300000e+08	8.570603e+13	0.000000e+00	7.185185e-01	2.036262e+15	2.406778e+15	2.242122e+14	1.788134e+04	5.902781e+03	3.178842e+03	0	1.258738e-03
8.400000e+08	8.396647e+13	0.000000e+00	7.185185e-01	2.021669e+15	2.390285e+15	2.231696e+14	1.785615e+04	5.898548e+03	3.176562e+03	0	1.250163e-03
8.500000e+08	8.224902e+13	0.000000e+00	7.185185e-01	2.007250e+15	2.373978e+15	2.221343e+14	1.783115e+04	5.894339e+03	3.174296e+03	0	1.241581e-03
8.600000e+08	8.055331e+13	0.000000e+00	7.185185e-01	1.993002e+15	2.357855e+15	2.211061e+14	1.780632e+04	5.890154e+03	3.172042e+03	0	1.232989e-03
8.700000e+08	7.887898e+13	0.000000e+00	7.185185e-01	1.978924e+15	2.341911e+15	2.200850e+14	1.778166e+04	5.885992e+03	3.169801e+03	0	1.224386e-03
8.800000e+08	7.722567e+13	0.000000e+00	7.185185e-01	1.965011e+15	2.326146e+15	2.190709e+14	1.775718e+04	5.881854e+03	3.167572e+03	0	1.215772e-03
8.900000e+08	7.559304e+13	0.000000e+00	7.185185e-01	1.951262e+15	2.310557e+15	2.180638e+14	1.773287e+04	5.877740e+03	3.165356e+03	0	1.207143e-03
9.000000e+08	7.398073e+13	0.000000e+00	7.185185e-01	1.937673e+15	2.295140e+15	2.170636e+14	1.770873e+04	5.873648e+03	3.163153e+03	0	1.198499e-03
9.100000e+08	7.238843e+13	0.000000e+00	7.185185e-01	1.924243e+15	2.279894e+15	2.160702e+14	1.768476e+04	5.869580e+03	3.160962e+03	0	1.189838e-03
9.200000e+08	7.081580e+13	0.000000e+00	7.185185e-01	1.910968e+15	2.264817e+15	2.150837e+14	1.766095e+04	5.865536e+03	3.158784e+03	0	1.181158e-03
9.300000e+08	6.926251e+13	0.000000e+00	7.185185e-01	1.897846e+15	2.249905e+15	2.141039e+14	1.763731e+04	5.861513e+03	3.156618e+03	0	1.172459e-03
9.400000e+08	6.772826e+13	0.000000e+00	7.185185e-01	1.884875e+15	2.235157e+15	2.131308e+14	1.761383e+04	5.857514e+03	3.154464e+03	0	1.163737e-03
9.500000e+08	6.621273e+13	0.000000e+00	7.185185e-01	1.872052e+15	2.220570e+15	2.121643e+14	1.759051e+04	5.853537e+03	3.152323e+03	0	1.154991e-03
9.600000e+08	6.471562e+13	0.000000e+00	7.185185e-01	1.859375e+15	2.206142e+15	2.112045e+14	1.756735e+04	5.849583e+03	3.150193e+03	0	1.146220e-03
9.700000e+08	6.323664e+13	0.000000e+00	7.185185e-01	1.846842e+15	2.191870e+15	2.102511e+14	1.754434e+04	5.845651e+03	3.148075e+03	0	1.137420e-03
9.800000e+08	6.177549e+13	0.000000e+00	7.185185e-01	1.834450e+15	2.177753e+15	2.093043e+14	1.752149e+04	5.841741e+03	3.145970e+03	0	1.128592e-03
9.900000e+08	6.033189e+13	0.000000e+00	7.185185e-01	1.822197e+15	2.163788e+15	2.083639e+14	1.749880e+04	5.837852e+03	3.143876e+03	0	1.119731e-03
1.000000e+09	5.890556e+13	0.000000e+00	7.185185e-01	1.810082e+15	2.149973e+15	2.074298e+14	1.747625e+04	5.833986e+03	3.141794e+03	0	1.110837e-03
1.010000e+09	5.749622e+13	0.000000e+00	7.185185e-01	1.798101e+15	2.136306e+15	2.065021e+14	1.745385e+04	5.830141e+03	3.139723e+03	0	1.101906e-03
1.020000e+09	5.610361e+13	0.000000e+00	7.185185e-01	1.786254e+15	2.122785e+15	2.055807e+14	1.743160e+04	5.826317e+03	3.137664e+03	0	1.092937e-03
1.030000e+09	5.472746e+13	0.000000e+00	7.185185e-01	1.774537e+15	2.109407e+15	2.046656e+14	1.740950e+04	5.822515e+03	3.135616e+03	0	1.083927e-03
1.040000e+09	5.336752e+13	0.000000e+00	7.185185e-01	1.762949e+15	2.096170e+15	2.037566e+14	1.738754e+04	5.818733e+03	3.133579e+03	0	1.074873e-03
1.050000e+09	5.202353e+13	0.000000e+00	7.185185e-01	1.751487e+15	2.083074e+15	2.028537e+14	1.736573e+04	5.814973e+03	3.131554e+03	0	1.065773e-03
1.060000e+09	5.069524e+13	0.000000e+00	7.185185e-01	1.740151e+15	2.070114e+15	2.019570e+14	1.734406e+04	5.811233e+03	3.129540e+03	0	1.056624e-03
1.070000e+09	4.938241e+13	0.000000e+00	7.185185e-01	1.728938e+15	2.057291e+15	2.010662e+14	1.732252e+04	5.807513e+03	3.127537e+03	0	1.047423e-03
1.080000e+09	4.808480e+13	0.000000e+00	7.185185e-01	1.717846e+15	2.044601e+15	2.001815e+14	1.730113e+04	5.803814e+03	3.125545e+03	0	1.038167e-03
1.090000e+09	4.680218e+13	0.000000e+00	7.185185e-01	1.706873e+15	2.032043e+15	1.993027e+14	1.727987e+04	5.800135e+03	3.123564e+03	0	1.028853e-03
1.100000e+09	4.553432e+13	0.000000e+00	7.185185e-01	1.696018e+15	2.019614e+15	1.984299e+14	1.725875e+04	5.796475e+03	3.121593e+03	0	1.019478e-03
1.110000e+09	4.428098e+13	0.000000e+00	7.185185e-01	1.685279e+15	2.007314e+15	1.975628e+14	1.723776e+04	5.792836e+03	3.119633e+03	0	1.010037e-03
1.120000e+09	4.304196e+13	0.000000e+00	7.185185e-01	1.674654e+15	1.995140e+15	1.967016e+14	1.721691e+04	5.789216e+03	3.117684e+03	0	1.000527e-03
1.130000e+09	4.181702e+13	0.000000e+00	7.185185e-01	1.664141e+15	1.983091e+15	1.958462e+14	1.719618e+04	5.785616e+03	3.115745e+03	0	9.909441e-04
1.140000e+09	4.060597e+13	0.000000e+00	7.185185e-01	1.653739e+15	1.971164e+15	1.949964e+14	1.717559e+04	5.782035e+03	3.113816e+03	0	9.812840e-04
1.150000e+09	3.940859e+13	0.000000e+00	7.185185e-01	1.643447e+15	1.959358e+15	1.941524e+14	1.715512e+04	5.778473e+03	3.111898e+03	0	9.715424e-04
1.160000e+09	3.822468e+13	0.000000e+00	7.185185e-01	1.633262e+15	1.947672e+15	1.933139e+14	1.713478e+04	5.774930e+03	3.109990e+03	0	9.617142e-04
1.170000e+09	3.705403e+13	0.000000e+00	7.185185e-01	1.623183e+15	1.936103e+15	1.924811e+14	1.711457e+04	5.771405e+03	3.108092e+03	0	9.517946e-04
1.180000e+09	3.589646e+13	0.000000e+00	7.185185e-01	1.613208e+15	1.924650e+15	1.916538e+14	1.709448e+04	5.767899e+03	3.106204e+03	0	9.417782e-04
1.190000e+09	3.475175e+13	0.000000e+00	7.185185e-01	1.603337e+15	1.913312e+15	1.908320e+14	1.707451e+04	5.764412e+03	3.104326e+03	0	9.316590e-04
1.200000e+09	3.361973e+13	0.000000e+00	7.185185e-01	1.593567e+15	1.902086e+15	1.900156e+14	1.705467e+04	5.760943e+03	3.102458e+03	0	9.214311e-04
1.210000e+09	3.250021e+13	0.000000e+00	7.185185e-01	1.583897e+15	1.890972e+15	1.892047e+14	1.703495e+04	5.757492e+03	3.100599e+03	0	9.110876e-04
1.220000e+09	3.139301e+13	0.000000e+00	7.185185e-01	1.574326e+15	1.879968e+15	1.883992e+14	1.701534e+04	5.754059e+03	3.098750e+03	0	9.006217e-04
1.230000e+09	3.029794e+13	0.000000e+00	7.185185e-01	1.564852e+15	1.869072e+15	1.875989e+14	1.699586e+04	5.750644e+03	3.096911e+03	0	8.900255e-04
1.240000e+09	2.921482e+13	0.000000e+00	7.185185e-01	1.555474e+15	1.858283e+15	1.868040e+14	1.697649e+04	5.747246e+03	3.095081e+03	0	8.792908e-04
1.250000e+09	2.814350e+13	0.000000e+00	7.185185e-01	1.546190e+15	1.847599e+15	1.860143e+14	1.695724e+04	5.743866e+03	3.093261e+03	0	8.684086e-04
1.260000e+09	2.708379e+13	0.000000e+00	7.185185e-01	1.537000e+15	1.837019e+15	1.852298e+14	1.693810e+04	5.740503e+03	3.091450e+03	0	8.573692e-04
1.270000e+09	2.603553e+13	0.000000e+00	7.185185e-01	1.527902e+15	1.826541e+15	1.844505e+14	1.691908e+04	5.737157e+03	3.089648e+03	0	8.461621e-04
1.280000e+09	2.499855e+13	0.000000e+00	7.185185e-01	1.518894e+15	1.816165e+15	1.836763e+14	1.690017e+04	5.733829e+03	3.087856e+03	0	8.347755e-04
1.290000e+09	2.397270e+13	0.000000e+00	7.185185e-01	1.509975e+15	1.805888e+15	1.829072e+14	1.688137e+04	5.730517e+03	3.086072e+03	0	8.231969e-04
1.300000e+09	2.295781e+13	0.000000e+00	7.185185e-01	1.501145e+15	1.795710e+15	1.821431e+14	1.686267e+04	5.727222e+03	3.084298e+03	0	8.114123e-04
1.310000e+09	2.195373e+13	0.000000e+00	7.185185e-01	1.492402e+15	1.785629e+15	1.813841e+14	1.684409e+04	5.723943e+03	3.082532e+03	0	7.994063e-04
1.320000e+09	2.096031e+13	0.000000e+00	7.185185e-01	1.483744e+15	1.775644e+15	1.806300e+14	1.682562e+04	5.720681e+03	3.080775e+03	0	7.871618e-04
1.330000e+09	1.997740e+13	0.000000e+00	7.185185e-01	1.475171e+15	1.765754e+15	1.798808e+14	1.680725e+04	5.717435e+03	3.079027e+03	0	7.746599e-04
1.340000e+09	1.900485e+13	0.000000e+00	7.185185e-01	1.466682e+15	1.755957e+15	1.791366e+14	1.678899e+04	5.714206e+03	3.077288e+03	0	7.618794e-04
1.350000e+09	1.804251e+13	0.000000e+00	7.185185e-01	1.458274e+15	1.746252e+15	1.783972e+14	1.677084e+04	5.710992e+03	3.075557e+03	0	7.487964e-04
1.360000e+09	1.709024e+13	0.000000e+00	7.185185e-01	1.449948e+15	1.736637e+15	1.776626e+14	1.675279e+04	5.707795e+03	3.073835e+03	0	7.353840e-04
