#t		Qconv[W]	Ri[Rp]		R*[Rp]		Qc[W]		Qm[W]		Qr[W]		Tcmb[K]		Tl[K]		Tup[K]		RiFlag		Bs[T]
0.000000e+00	3.069347e+14	0.000000e+00	7.185185e-01	4.017962e+15	1.741212e+15	3.532676e+14	2.124096e+04	5.519674e+03	2.960179e+03	0	1.924976e-03
1.000000e+07	3.063049e+14	0.000000e+00	7.185185e-01	4.009411e+15	1.906320e+15	3.513102e+14	2.119379e+04	5.593896e+03	2.999984e+03	0	1.923659e-03
2.000000e+07	3.053257e+14	0.000000e+00	7.185185e-01	3.998363e+15	2.069323e+15	3.493675e+14	2.114673e+04	5.663017e+03	3.037054e+03	0	1.921607e-03
3.000000e+07	3.040155e+14	0.000000e+00	7.185185e-01	3.984951e+15	2.228343e+15	3.474393e+14	2.109979e+04	5.727054e+03	3.071397e+03	0	1.918854e-03
4.000000e+07	3.023949e+14	0.000000e+00	7.185185e-01	3.969326e+15	2.381714e+15	3.455255e+14	2.105301e+04	5.786079e+03	3.103051e+03	0	1.915439e-03
5.000000e+07	3.004865e+14	0.000000e+00	7.185185e-01	3.951651e+15	2.528020e+15	3.436259e+14	2.100642e+04	5.840213e+03	3.132083e+03	0	1.911401e-03
6.000000e+07	2.983135e+14	0.000000e+00	7.185185e-01	3.932097e+15	2.666120e+15	3.417405e+14	2.096003e+04	5.889620e+03	3.158580e+03	0	1.906782e-03
7.000000e+07	2.959000e+14	0.000000e+00	7.185185e-01	3.910837e+15	2.795154e+15	3.398692e+14	2.091387e+04	5.934498e+03	3.182647e+03	0	1.901626e-03
8.000000e+07	2.932699e+14	0.000000e+00	7.185185e-01	3.888044e+15	2.914530e+15	3.380118e+14	2.086796e+04	5.975071e+03	3.204407e+03	0	1.895975e-03
9.000000e+07	2.904467e+14	0.000000e+00	7.185185e-01	3.863888e+15	3.023909e+15	3.361682e+14	2.082231e+04	6.011583e+03	3.223988e+03	0	1.889871e-03
1.000000e+08	2.874529e+14	0.000000e+00	7.185185e-01	3.838533e+15	3.123173e+15	3.343383e+14	2.077695e+04	6.044288e+03	3.241528e+03	0	1.883356e-03
1.100000e+08	2.843102e+14	0.000000e+00	7.185185e-01	3.812136e+15	3.212395e+15	3.325219e+14	2.073188e+04	6.073447e+03	3.257165e+03	0	1.876467e-03
1.200000e+08	2.810390e+14	0.000000e+00	7.185185e-01	3.784843e+15	3.291806e+15	3.307191e+14	2.068713e+04	6.099319e+03	3.271041e+03	0	1.869242e-03
1.300000e+08	2.776583e+14	0.000000e+00	7.185185e-01	3.756791e+15	3.361759e+15	3.289295e+14	2.064269e+04	6.122161e+03	3.283291e+03	0	1.861717e-03
1.400000e+08	2.741855e+14	0.000000e+00	7.185185e-01	3.728107e+15	3.422703e+15	3.271532e+14	2.059858e+04	6.142221e+03	3.294049e+03	0	1.853922e-03
1.500000e+08	2.706367e+14	0.000000e+00	7.185185e-01	3.698907e+15	3.475151e+15	3.253901e+14	2.055481e+04	6.159736e+03	3.303442e+03	0	1.845889e-03
1.600000e+08	2.670267e+14	0.000000e+00	7.185185e-01	3.669296e+15	3.519657e+15	3.236400e+14	2.051138e+04	6.174933e+03	3.311592e+03	0	1.837645e-03
1.700000e+08	2.633686e+14	0.000000e+00	7.185185e-01	3.639371e+15	3.556796e+15	3.219028e+14	2.046829e+04	6.188023e+03	3.318612e+03	0	1.829215e-03
1.800000e+08	2.596744e+14	0.000000e+00	7.185185e-01	3.609216e+15	3.587151e+15	3.201783e+14	2.042556e+04	6.199204e+03	3.324609e+03	0	1.820622e-03
1.900000e+08	2.559547e+14	0.000000e+00	7.185185e-01	3.578908e+15	3.611293e+15	3.184666e+14	2.038317e+04	6.208661e+03	3.329680e+03	0	1.811887e-03
2.000000e+08	2.522190e+14	0.000000e+00	7.185185e-01	3.548517e+15	3.629779e+15	3.167675e+14	2.034115e+04	6.216561e+03	3.333917e+03	0	1.803029e-03
2.100000e+08	2.484757e+14	0.000000e+00	7.185185e-01	3.518100e+15	3.643141e+15	3.150809e+14	2.029948e+04	6.223062e+03	3.337403e+03	0	1.794065e-03
2.200000e+08	2.447322e+14	0.000000e+00	7.185185e-01	3.487713e+15	3.651881e+15	3.134067e+14	2.025816e+04	6.228304e+03	3.340215e+03	0	1.785009e-03
2.300000e+08	2.409950e+14	0.000000e+00	7.185185e-01	3.457402e+15	3.656468e+15	3.117447e+14	2.021720e+04	6.232417e+03	3.342421e+03	0	1.775877e-03
2.400000e+08	2.372698e+14	0.000000e+00	7.185185e-01	3.427207e+15	3.657340e+15	3.100950e+14	2.017660e+04	6.235519e+03	3.344084e+03	0	1.766679e-03
2.500000e+08	2.335615e+14	0.000000e+00	7.185185e-01	3.397163e+15	3.654900e+15	3.084573e+14	2.013635e+04	6.237716e+03	3.345262e+03	0	1.757427e-03
2.600000e+08	2.298744e+14	0.000000e+00	7.185185e-01	3.367302e+15	3.649517e+15	3.068316e+14	2.009645e+04	6.239104e+03	3.346007e+03	0	1.748130e-03
2.700000e+08	2.262123e+14	0.000000e+00	7.185185e-01	3.337650e+15	3.641529e+15	3.052178e+14	2.005690e+04	6.239770e+03	3.346364e+03	0	1.738797e-03
2.800000e+08	2.225782e+14	0.000000e+00	7.185185e-01	3.308228e+15	3.631241e+15	3.036158e+14	2.001769e+04	6.239792e+03	3.346376e+03	0	1.729435e-03
2.900000e+08	2.189749e+14	0.000000e+00	7.185185e-01	3.279057e+15	3.618931e+15	3.020255e+14	1.997884e+04	6.239240e+03	3.346080e+03	0	1.720052e-03
3.000000e+08	2.154046e+14	0.000000e+00	7.185185e-01	3.250151e+15	3.604849e+15	3.004467e+14	1.994032e+04	6.238178e+03	3.345510e+03	0	1.710652e-03
3.100000e+08	2.118692e+14	0.000000e+00	7.185185e-01	3.221526e+15	3.589220e+15	2.988795e+14	1.990214e+04	6.236661e+03	3.344696e+03	0	1.701242e-03
3.200000e+08	2.083704e+14	0.000000e+00	7.185185e-01	3.193191e+15	3.572247e+15	2.973237e+14	1.986430e+04	6.234740e+03	3.343666e+03	0	1.691825e-03
3.300000e+08	2.049094e+14	0.000000e+00	7.185185e-01	3.165156e+15	3.554111e+15	2.957792e+14	1.982679e+04	6.232461e+03	3.342444e+03	0	1.682406e-03
3.400000e+08	2.014872e+14	0.000000e+00	7.185185e-01	3.137427e+15	3.534973e+15	2.942459e+14	1.978961e+04	6.229865e+03	3.341052e+03	0	1.672987e-03
3.500000e+08	1.981047e+14	0.000000e+00	7.185185e-01	3.110011e+15	3.514978e+15	2.927237e+14	1.975275e+04	6.226988e+03	3.339509e+03	0	1.663572e-03
3.600000e+08	1.947626e+14	0.000000e+00	7.185185e-01	3.082912e+15	3.494256e+15	2.912126e+14	1.971621e+04	6.223862e+03	3.337833e+03	0	1.654164e-03
3.700000e+08	1.914611e+14	0.000000e+00	7.185185e-01	3.056132e+15	3.472919e+15	2.897124e+14	1.967999e+04	6.220517e+03	3.336038e+03	0	1.644764e-03
3.800000e+08	1.882008e+14	0.000000e+00	7.185185e-01	3.029673e+15	3.451072e+15	2.882230e+14	1.964409e+04	6.216978e+03	3.334141e+03	0	1.635375e-03
3.900000e+08	1.849817e+14	0.000000e+00	7.185185e-01	3.003537e+15	3.428803e+15	2.867445e+14	1.960849e+04	6.213270e+03	3.332152e+03	0	1.625997e-03
4.000000e+08	1.818039e+14	0.000000e+00	7.185185e-01	2.977723e+15	3.406194e+15	2.852766e+14	1.957321e+04	6.209412e+03	3.330083e+03	0	1.616632e-03
4.100000e+08	1.786673e+14	0.000000e+00	7.185185e-01	2.952231e+15	3.383314e+15	2.838193e+14	1.953822e+04	6.205423e+03	3.327944e+03	0	1.607281e-03
4.200000e+08	1.755720e+14	0.000000e+00	7.185185e-01	2.927061e+15	3.360228e+15	2.823725e+14	1.950353e+04	6.201321e+03	3.325744e+03	0	1.597945e-03
4.300000e+08	1.725176e+14	0.000000e+00	7.185185e-01	2.902209e+15	3.336990e+15	2.809361e+14	1.946914e+04	6.197119e+03	3.323490e+03	0	1.588624e-03
4.400000e+08	1.695040e+14	0.000000e+00	7.185185e-01	2.877674e+15	3.313649e+15	2.795100e+14	1.943504e+04	6.192832e+03	3.321191e+03	0	1.579320e-03
4.500000e+08	1.665308e+14	0.000000e+00	7.185185e-01	2.853455e+15	3.290249e+15	2.780942e+14	1.940122e+04	6.188471e+03	3.318852e+03	0	1.570031e-03
4.600000e+08	1.635976e+14	0.000000e+00	7.185185e-01	2.829546e+15	3.266828e+15	2.766886e+14	1.936769e+04	6.184046e+03	3.316480e+03	0	1.560759e-03
4.700000e+08	1.607042e+14	0.000000e+00	7.185185e-01	2.805947e+15	3.243419e+15	2.752930e+14	1.933444e+04	6.179568e+03	3.314078e+03	0	1.551502e-03
4.800000e+08	1.578500e+14	0.000000e+00	7.185185e-01	2.782653e+15	3.220051e+15	2.739075e+14	1.930147e+04	6.175045e+03	3.311652e+03	0	1.542262e-03
4.900000e+08	1.550347e+14	0.000000e+00	7.185185e-01	2.759661e+15	3.196751e+15	2.725318e+14	1.926877e+04	6.170484e+03	3.309206e+03	0	1.533038e-03
5.000000e+08	1.522577e+14	0.000000e+00	7.185185e-01	2.736967e+15	3.173539e+15	2.711660e+14	1.923634e+04	6.165892e+03	3.306743e+03	0	1.523830e-03
5.100000e+08	1.495186e+14	0.000000e+00	7.185185e-01	2.714568e+15	3.150437e+15	2.698100e+14	1.920417e+04	6.161275e+03	3.304268e+03	0	1.514637e-03
5.200000e+08	1.468169e+14	0.000000e+00	7.185185e-01	2.692459e+15	3.127460e+15	2.684636e+14	1.917227e+04	6.156639e+03	3.301781e+03	0	1.505459e-03
5.300000e+08	1.441521e+14	0.000000e+00	7.185185e-01	2.670637e+15	3.104625e+15	2.671268e+14	1.914062e+04	6.151989e+03	3.299287e+03	0	1.496295e-03
5.400000e+08	1.415236e+14	0.000000e+00	7.185185e-01	2.649097e+15	3.081942e+15	2.657996e+14	1.910924e+04	6.147328e+03	3.296788e+03	0	1.487144e-03
5.500000e+08	1.389310e+14	0.000000e+00	7.185185e-01	2.627836e+15	3.059424e+15	2.644818e+14	1.907810e+04	6.142661e+03	3.294285e+03	0	1.478007e-03
5.600000e+08	1.363736e+14	0.000000e+00	7.185185e-01	2.606850e+15	3.037079e+15	2.631734e+14	1.904722e+04	6.137992e+03	3.291781e+03	0	1.468882e-03
5.700000e+08	1.338511e+14	0.000000e+00	7.185185e-01	2.586134e+15	3.014915e+15	2.618742e+14	1.901658e+04	6.133322e+03	3.289276e+03	0	1.459769e-03
5.800000e+08	1.313627e+14	0.000000e+00	7.185185e-01	2.565685e+15	2.992940e+15	2.605843e+14	1.898618e+04	6.128656e+03	3.286774e+03	0	1.450666e-03
5.900000e+08	1.289080e+14	0.000000e+00	7.185185e-01	2.545497e+15	2.971158e+15	2.593035e+14	1.895602e+04	6.123995e+03	3.284274e+03	0	1.441573e-03
6.000000e+08	1.264866e+14	0.000000e+00	7.185185e-01	2.525568e+15	2.949574e+15	2.580318e+14	1.892610e+04	6.119342e+03	3.281779e+03	0	1.432490e-03
6.100000e+08	1.240977e+14	0.000000e+00	7.185185e-01	2.505894e+15	2.928192e+15	2.567691e+14	1.889641e+04	6.114698e+03	3.279288e+03	0	1.423414e-03
6.200000e+08	1.217410e+14	0.000000e+00	7.185185e-01	2.486469e+15	2.907015e+15	2.555153e+14	1.886696e+04	6.110066e+03	3.276804e+03	0	1.414346e-03
6.300000e+08	1.194159e+14	0.000000e+00	7.185185e-01	2.467290e+15	2.886045e+15	2.542704e+14	1.883773e+04	6.105446e+03	3.274327e+03	0	1.405284e-03
6.400000e+08	1.171219e+14	0.000000e+00	7.185185e-01	2.448354e+15	2.865283e+15	2.530342e+14	1.880873e+04	6.100841e+03	3.271857e+03	0	1.396227e-03
6.500000e+08	1.148585e+14	0.000000e+00	7.185185e-01	2.429656e+15	2.844731e+15	2.518067e+14	1.877994e+04	6.096251e+03	3.269395e+03	0	1.387175e-03
6.600000e+08	1.126252e+14	0.000000e+00	7.185185e-01	2.411193e+15	2.824390e+15	2.505879e+14	1.875138e+04	6.091677e+03	3.266942e+03	0	1.378125e-03
6.700000e+08	1.104214e+14	0.000000e+00	7.185185e-01	2.392960e+15	2.804259e+15	2.493777e+14	1.872304e+04	6.087121e+03	3.264499e+03	0	1.369077e-03
6.800000e+08	1.082467e+14	0.000000e+00	7.185185e-01	2.374955e+15	2.784339e+15	2.481759e+14	1.869490e+04	6.082583e+03	3.262065e+03	0	1.360030e-03
6.900000e+08	1.061007e+14	0.000000e+00	7.185185e-01	2.357172e+15	2.764628e+15	2.469826e+14	1.866698e+04	6.078065e+03	3.259642e+03	0	1.350982e-03
7.000000e+08	1.039828e+14	0.000000e+00	7.185185e-01	2.339610e+15	2.745127e+15	2.457976e+14	1.863927e+04	6.073565e+03	3.257229e+03	0	1.341932e-03
7.100000e+08	1.018926e+14	0.000000e+00	7.185185e-01	2.322264e+15	2.725835e+15	2.446210e+14	1.861176e+04	6.069086e+03	3.254827e+03	0	1.332880e-03
7.200000e+08	9.982957e+13	0.000000e+00	7.185185e-01	2.305130e+15	2.706749e+15	2.434526e+14	1.858446e+04	6.064628e+03	3.252436e+03	0	1.323823e-03
7.300000e+08	9.779333e+13	0.000000e+00	7.185185e-01	2.288206e+15	2.687869e+15	2.422923e+14	1.855736e+04	6.060190e+03	3.250056e+03	0	1.314760e-03
7.400000e+08	9.578342e+13	0.000000e+00	7.185185e-01	2.271487e+15	2.669194e+15	2.411401e+14	1.853046e+04	6.055774e+03	3.247687e+03	0	1.305690e-03
7.500000e+08	9.379938e+13	0.000000e+00	7.185185e-01	2.254971e+15	2.650721e+15	2.399960e+14	1.850375e+04	6.051379e+03	3.245331e+03	0	1.296612e-03
7.600000e+08	9.184081e+13	0.000000e+00	7.185185e-01	2.238653e+15	2.632449e+15	2.388598e+14	1.847724e+04	6.047006e+03	3.242985e+03	0	1.287524e-03
7.700000e+08	8.990727e+13	0.000000e+00	7.185185e-01	2.222532e+15	2.614376e+15	2.377316e+14	1.845091e+04	6.042655e+03	3.240652e+03	0	1.278424e-03
7.800000e+08	8.799835e+13	0.000000e+00	7.185185e-01	2.206604e+15	2.596499e+15	2.366112e+14	1.842478e+04	6.038327e+03	3.238331e+03	0	1.269312e-03
7.900000e+08	8.611364e+13	0.000000e+00	7.185185e-01	2.190865e+15	2.578818e+15	2.354985e+14	1.839883e+04	6.034021e+03	3.236021e+03	0	1.260184e-03
8.000000e+08	8.425276e+13	0.000000e+00	7.185185e-01	2.175313e+15	2.561330e+15	2.343936e+14	1.837307e+04	6.029737e+03	3.233724e+03	0	1.251041e-03
8.100000e+08	8.241529e+13	0.000000e+00	7.185185e-01	2.159945e+15	2.544032e+15	2.332963e+14	1.834749e+04	6.025475e+03	3.231439e+03	0	1.241879e-03
8.200000e+08	8.060087e+13	0.000000e+00	7.185185e-01	2.144757e+15	2.526922e+15	2.322067e+14	1.832209e+04	6.021237e+03	3.229165e+03	0	1.232698e-03
8.300000e+08	7.880911e+13	0.000000e+00	7.185185e-01	2.129748e+15	2.509999e+15	2.311245e+14	1.829687e+04	6.017020e+03	3.226904e+03	0	1.223495e-03
8.400000e+08	7.703964e+13	0.000000e+00	7.185185e-01	2.114913e+15	2.493260e+15	2.300499e+14	1.827183e+04	6.012826e+03	3.224655e+03	0	1.214269e-03
8.500000e+08	7.529211e+13	0.000000e+00	7.185185e-01	2.100250e+15	2.476703e+15	2.289826e+14	1.824696e+04	6.008655e+03	3.222418e+03	0	1.205017e-03
8.600000e+08	7.356615e+13	0.000000e+00	7.185185e-01	2.085757e+15	2.460325e+15	2.279227e+14	1.822226e+04	6.004506e+03	3.220193e+03	0	1.195738e-03
8.700000e+08	7.186142e+13	0.000000e+00	7.185185e-01	2.071431e+15	2.444125e+15	2.268702e+14	1.819773e+04	6.000380e+03	3.217980e+03	0	1.186430e-03
8.800000e+08	7.017756e+13	0.000000e+00	7.185185e-01	2.057268e+15	2.428099e+15	2.258248e+14	1.817337e+04	5.996276e+03	3.215779e+03	0	1.177090e-03
8.900000e+08	6.851426e+13	0.000000e+00	7.185185e-01	2.043268e+15	2.412246e+15	2.247866e+14	1.814918e+04	5.992194e+03	3.213590e+03	0	1.167716e-03
9.000000e+08	6.687117e+13	0.000000e+00	7.185185e-01	2.029426e+15	2.396564e+15	2.237556e+14	1.812515e+04	5.988134e+03	3.211413e+03	0	1.158305e-03
9.100000e+08	6.524798e+13	0.000000e+00	7.185185e-01	2.015741e+15	2.381049e+15	2.227316e+14	1.810128e+04	5.984096e+03	3.209247e+03	0	1.148856e-03
9.200000e+08	6.364437e+13	0.000000e+00	7.185185e-01	2.002211e+15	2.365701e+15	2.217146e+14	1.807757e+04	5.980081e+03	3.207094e+03	0	1.139366e-03
9.300000e+08	6.206002e+13	0.000000e+00	7.185185e-01	1.988832e+15	2.350516e+15	2.207046e+14	1.805403e+04	5.976087e+03	3.204952e+03	0	1.129832e-03
9.400000e+08	6.049463e+13	0.000000e+00	7.185185e-01	1.975602e+15	2.335493e+15	2.197015e+14	1.803063e+04	5.972114e+03	3.202821e+03	0	1.120252e-03
9.500000e+08	5.894791e+13	0.000000e+00	7.185185e-01	1.962520e+15	2.320629e+15	2.187053e+14	1.800740e+04	5.968164e+03	3.200703e+03	0	1.110622e-03
9.600000e+08	5.741955e+13	0.000000e+00	7.185185e-01	1.949583e+15	2.305922e+15	2.177158e+14	1.798432e+04	5.964234e+03	3.198595e+03	0	1.100939e-03
9.700000e+08	5.590927e+13	0.000000e+00	7.185185e-01	1.936788e+15	2.291370e+15	2.167331e+14	1.796139e+04	5.960326e+03	3.196499e+03	0	1.091201e-03
9.800000e+08	5.441679e+13	0.000000e+00	7.185185e-01	1.924134e+15	2.276972e+15	2.157571e+14	1.793861e+04	5.956440e+03	3.194415e+03	0	1.081403e-03
9.900000e+08	5.294183e+13	0.000000e+00	7.185185e-01	1.911618e+15	2.262723e+15	2.147876e+14	1.791597e+04	5.952574e+03	3.192342e+03	0	1.071543e-03
1.000000e+09	5.148413e+13	0.000000e+00	7.185185e-01	1.899238e+15	2.248624e+15	2.138248e+14	1.789349e+04	5.948729e+03	3.190280e+03	0	1.061617e-03
1.010000e+09	5.004340e+13	0.000000e+00	7.185185e-01	1.886993e+15	2.234672e+15	2.128685e+14	1.787115e+04	5.944904e+03	3.188229e+03	0	1.051620e-03
1.020000e+09	4.861940e+13	0.000000e+00	7.185185e-01	1.874880e+15	2.220864e+15	2.119187e+14	1.784895e+04	5.941100e+03	3.186189e+03	0	1.041550e-03
1.030000e+09	4.721186e+13	0.000000e+00	7.185185e-01	1.862897e+15	2.207198e+15	2.109753e+14	1.782690e+04	5.937317e+03	3.184160e+03	0	1.031400e-03
1.040000e+09	4.582053e+13	0.000000e+00	7.185185e-01	1.851043e+15	2.193674e+15	2.100383e+14	1.780499e+04	5.933554e+03	3.182141e+03	0	1.021167e-03
1.050000e+09	4.444517e+13	0.000000e+00	7.185185e-01	1.839315e+15	2.180288e+15	2.091076e+14	1.778321e+04	5.929811e+03	3.180134e+03	0	1.010846e-03
1.060000e+09	4.308553e+13	0.000000e+00	7.185185e-01	1.827711e+15	2.167039e+15	2.081832e+14	1.776158e+04	5.926087e+03	3.178137e+03	0	1.000431e-03
1.070000e+09	4.174138e+13	0.000000e+00	7.185185e-01	1.816230e+15	2.153925e+15	2.072650e+14	1.774008e+04	5.922384e+03	3.176151e+03	0	9.899176e-04
1.080000e+09	4.041249e+13	0.000000e+00	7.185185e-01	1.804871e+15	2.140944e+15	2.063530e+14	1.771871e+04	5.918700e+03	3.174175e+03	0	9.792989e-04
1.090000e+09	3.909861e+13	0.000000e+00	7.185185e-01	1.793630e+15	2.128095e+15	2.054472e+14	1.769748e+04	5.915036e+03	3.172210e+03	0	9.685689e-04
1.100000e+09	3.779954e+13	0.000000e+00	7.185185e-01	1.782507e+15	2.115375e+15	2.045474e+14	1.767638e+04	5.911390e+03	3.170255e+03	0	9.577208e-04
1.110000e+09	3.651504e+13	0.000000e+00	7.185185e-01	1.771499e+15	2.102783e+15	2.036536e+14	1.765541e+04	5.907764e+03	3.168311e+03	0	9.467472e-04
1.120000e+09	3.524491e+13	0.000000e+00	7.185185e-01	1.760606e+15	2.090316e+15	2.027659e+14	1.763457e+04	5.904157e+03	3.166376e+03	0	9.356402e-04
1.130000e+09	3.398892e+13	0.000000e+00	7.185185e-01	1.749825e+15	2.077975e+15	2.018840e+14	1.761386e+04	5.900569e+03	3.164452e+03	0	9.243914e-04
1.140000e+09	3.274688e+13	0.000000e+00	7.185185e-01	1.739155e+15	2.065755e+15	2.010081e+14	1.759328e+04	5.896999e+03	3.162537e+03	0	9.129915e-04
1.150000e+09	3.151857e+13	0.000000e+00	7.185185e-01	1.728594e+15	2.053657e+15	2.001380e+14	1.757281e+04	5.893448e+03	3.160633e+03	0	9.014305e-04
1.160000e+09	3.030380e+13	0.000000e+00	7.185185e-01	1.718141e+15	2.041678e+15	1.992737e+14	1.755248e+04	5.889915e+03	3.158738e+03	0	8.896976e-04
1.170000e+09	2.910236e+13	0.000000e+00	7.185185e-01	1.707794e+15	2.029817e+15	1.984152e+14	1.753227e+04	5.886401e+03	3.156853e+03	0	8.777810e-04
1.180000e+09	2.791407e+13	0.000000e+00	7.185185e-01	1.697552e+15	2.018071e+15	1.975624e+14	1.751217e+04	5.882904e+03	3.154978e+03	0	8.656676e-04
1.190000e+09	2.673874e+13	0.000000e+00	7.185185e-01	1.687413e+15	2.006441e+15	1.967153e+14	1.749220e+04	5.879425e+03	3.153113e+03	0	8.533432e-04
1.200000e+09	2.557617e+13	0.000000e+00	7.185185e-01	1.677376e+15	1.994923e+15	1.958738e+14	1.747235e+04	5.875965e+03	3.151256e+03	0	8.407920e-04
1.210000e+09	2.442618e+13	0.000000e+00	7.185185e-01	1.667439e+15	1.983517e+15	1.950378e+14	1.745261e+04	5.872521e+03	3.149410e+03	0	8.279967e-04
1.220000e+09	2.328860e+13	0.000000e+00	7.185185e-01	1.657601e+15	1.972221e+15	1.942074e+14	1.743300e+04	5.869095e+03	3.147572e+03	0	8.149380e-04
1.230000e+09	2.216325e+13	0.000000e+00	7.185185e-01	1.647860e+15	1.961033e+15	1.933825e+14	1.741349e+04	5.865687e+03	3.145744e+03	0	8.015942e-04
1.240000e+09	2.104995e+13	0.000000e+00	7.185185e-01	1.638216e+15	1.949953e+15	1.925631e+14	1.739411e+04	5.862295e+03	3.143926e+03	0	7.879411e-04
1.250000e+09	1.994853e+13	0.000000e+00	7.185185e-01	1.628667e+15	1.938978e+15	1.917490e+14	1.737483e+04	5.858920e+03	3.142116e+03	0	7.739514e-04
1.260000e+09	1.885882e+13	0.000000e+00	7.185185e-01	1.619211e+15	1.928107e+15	1.909404e+14	1.735567e+04	5.855563e+03	3.140315e+03	0	7.595941e-04
1.270000e+09	1.778067e+13	0.000000e+00	7.185185e-01	1.609848e+15	1.917340e+15	1.901370e+14	1.733662e+04	5.852222e+03	3.138523e+03	0	7.448339e-04
1.280000e+09	1.671390e+13	0.000000e+00	7.185185e-01	1.600576e+15	1.906674e+15	1.893390e+14	1.731767e+04	5.848897e+03	3.136741e+03	0	7.296300e-04
1.290000e+09	1.565836e+13	0.000000e+00	7.185185e-01	1.591394e+15	1.896108e+15	1.885461e+14	1.729884e+04	5.845589e+03	3.134966e+03	0	7.139353e-04
1.300000e+09	1.461390e+13	0.000000e+00	7.185185e-01	1.582300e+15	1.885642e+15	1.877585e+14	1.728012e+04	5.842298e+03	3.133201e+03	0	6.976947e-04
1.310000e+09	1.358035e+13	0.000000e+00	7.185185e-01	1.573294e+15	1.875273e+15	1.869761e+14	1.726150e+04	5.839022e+03	3.131445e+03	0	6.808432e-04
1.320000e+09	1.255758e+13	0.000000e+00	7.185185e-01	1.564374e+15	1.865000e+15	1.861987e+14	1.724299e+04	5.835763e+03	3.129696e+03	0	6.633031e-04
1.330000e+09	1.154542e+13	0.000000e+00	7.185185e-01	1.555539e+15	1.854823e+15	1.854265e+14	1.722458e+04	5.832519e+03	3.127957e+03	0	6.449806e-04
1.340000e+09	1.054374e+13	0.000000e+00	7.185185e-01	1.546789e+15	1.844739e+15	1.846593e+14	1.720627e+04	5.829291e+03	3.126226e+03	0	6.257607e-04
1.350000e+09	9.552387e+12	0.000000e+00	7.185185e-01	1.538121e+15	1.834748e+15	1.838971e+14	1.718807e+04	5.826079e+03	3.124503e+03	0	6.054999e-04
1.360000e+09	8.571228e+12	0.000000e+00	7.185185e-01	1.529535e+15	1.824849e+15	1.831399e+14	1.716997e+04	5.822882e+03	3.122789e+03	0	5.840156e-04
