#t		Qconv[W]	Ri[Rp]		R*[Rp]		Qc[W]		Qm[W]		Qr[W]		Tcmb[K]		Tl[K]		Tup[K]		RiFlag		Bs[T]
0.000000e+00	3.003952e+14	0.000000e+00	7.185184e-01	4.230290e+15	1.697989e+15	3.695089e+14	2.189159e+04	5.614735e+03	2.985284e+03	0	1.909643e-03
1.000000e+07	3.002824e+14	0.000000e+00	7.185184e-01	4.225077e+15	1.868796e+15	3.674615e+14	2.184563e+04	5.693482e+03	3.027153e+03	0	1.909404e-03
2.000000e+07	2.997969e+14	0.000000e+00	7.185184e-01	4.217229e+15	2.039190e+15	3.654295e+14	2.179972e+04	5.767243e+03	3.066371e+03	0	1.908374e-03
3.000000e+07	2.989542e+14	0.000000e+00	7.185184e-01	4.206859e+15	2.207179e+15	3.634126e+14	2.175390e+04	5.835984e+03	3.102919e+03	0	1.906584e-03
4.000000e+07	2.977726e+14	0.000000e+00	7.185184e-01	4.194100e+15	2.370930e+15	3.614108e+14	2.170819e+04	5.899728e+03	3.136811e+03	0	1.904069e-03
5.000000e+07	2.962727e+14	0.000000e+00	7.185184e-01	4.179099e+15	2.528819e+15	3.594240e+14	2.166262e+04	5.958550e+03	3.168086e+03	0	1.900867e-03
6.000000e+07	2.944769e+14	0.000000e+00	7.185184e-01	4.162017e+15	2.679469e+15	3.574519e+14	2.161722e+04	6.012571e+03	3.196808e+03	0	1.897018e-03
7.000000e+07	2.924083e+14	0.000000e+00	7.185184e-01	4.143022e+15	2.821772e+15	3.554945e+14	2.157200e+04	6.061951e+03	3.223063e+03	0	1.892566e-03
8.000000e+07	2.900908e+14	0.000000e+00	7.185184e-01	4.122282e+15	2.954889e+15	3.535517e+14	2.152698e+04	6.106884e+03	3.246953e+03	0	1.887553e-03
9.000000e+07	2.875481e+14	0.000000e+00	7.185184e-01	4.099970e+15	3.078244e+15	3.516234e+14	2.148219e+04	6.147586e+03	3.268595e+03	0	1.882022e-03
1.000000e+08	2.848037e+14	0.000000e+00	7.185184e-01	4.076252e+15	3.191503e+15	3.497093e+14	2.143764e+04	6.184294e+03	3.288111e+03	0	1.876015e-03
1.100000e+08	2.818802e+14	0.000000e+00	7.185184e-01	4.051289e+15	3.294547e+15	3.478095e+14	2.139334e+04	6.217252e+03	3.305635e+03	0	1.869574e-03
1.200000e+08	2.787992e+14	0.000000e+00	7.185184e-01	4.025237e+15	3.387446e+15	3.459237e+14	2.134932e+04	6.246712e+03	3.321298e+03	0	1.862737e-03
1.300000e+08	2.755811e+14	0.000000e+00	7.185184e-01	3.998241e+15	3.470420e+15	3.440519e+14	2.130558e+04	6.272925e+03	3.335235e+03	0	1.855543e-03
1.400000e+08	2.722451e+14	0.000000e+00	7.185184e-01	3.970438e+15	3.543813e+15	3.421940e+14	2.126213e+04	6.296138e+03	3.347578e+03	0	1.848025e-03
1.500000e+08	2.688088e+14	0.000000e+00	7.185184e-01	3.941954e+15	3.608060e+15	3.403498e+14	2.121899e+04	6.316593e+03	3.358453e+03	0	1.840217e-03
1.600000e+08	2.652887e+14	0.000000e+00	7.185184e-01	3.912905e+15	3.663665e+15	3.385192e+14	2.117615e+04	6.334520e+03	3.367985e+03	0	1.832149e-03
1.700000e+08	2.616995e+14	0.000000e+00	7.185184e-01	3.883397e+15	3.711171e+15	3.367021e+14	2.113362e+04	6.350139e+03	3.376289e+03	0	1.823849e-03
1.800000e+08	2.580549e+14	0.000000e+00	7.185184e-01	3.853528e+15	3.751146e+15	3.348984e+14	2.109142e+04	6.363655e+03	3.383475e+03	0	1.815342e-03
1.900000e+08	2.543671e+14	0.000000e+00	7.185184e-01	3.823383e+15	3.784166e+15	3.331080e+14	2.104954e+04	6.375262e+03	3.389647e+03	0	1.806653e-03
2.000000e+08	2.506469e+14	0.000000e+00	7.185184e-01	3.793041e+15	3.810799e+15	3.313308e+14	2.100799e+04	6.385141e+03	3.394899e+03	0	1.797802e-03
2.100000e+08	2.469044e+14	0.000000e+00	7.185184e-01	3.762571e+15	3.831599e+15	3.295666e+14	2.096676e+04	6.393457e+03	3.399321e+03	0	1.788809e-03
2.200000e+08	2.431482e+14	0.000000e+00	7.185184e-01	3.732037e+15	3.847099e+15	3.278154e+14	2.092587e+04	6.400363e+03	3.402992e+03	0	1.779692e-03
2.300000e+08	2.393860e+14	0.000000e+00	7.185184e-01	3.701492e+15	3.857802e+15	3.260771e+14	2.088530e+04	6.405998e+03	3.405989e+03	0	1.770465e-03
2.400000e+08	2.356247e+14	0.000000e+00	7.185184e-01	3.670985e+15	3.864182e+15	3.243515e+14	2.084507e+04	6.410492e+03	3.408378e+03	0	1.761143e-03
2.500000e+08	2.318703e+14	0.000000e+00	7.185184e-01	3.640559e+15	3.866680e+15	3.226385e+14	2.080517e+04	6.413961e+03	3.410222e+03	0	1.751739e-03
2.600000e+08	2.281281e+14	0.000000e+00	7.185184e-01	3.610251e+15	3.865705e+15	3.209381e+14	2.076559e+04	6.416509e+03	3.411577e+03	0	1.742264e-03
2.700000e+08	2.244027e+14	0.000000e+00	7.185184e-01	3.580093e+15	3.861633e+15	3.192501e+14	2.072635e+04	6.418234e+03	3.412494e+03	0	1.732728e-03
2.800000e+08	2.206980e+14	0.000000e+00	7.185184e-01	3.550114e+15	3.854808e+15	3.175744e+14	2.068743e+04	6.419221e+03	3.413019e+03	0	1.723140e-03
2.900000e+08	2.170175e+14	0.000000e+00	7.185184e-01	3.520337e+15	3.845543e+15	3.159110e+14	2.064884e+04	6.419548e+03	3.413193e+03	0	1.713508e-03
3.000000e+08	2.133642e+14	0.000000e+00	7.185184e-01	3.490784e+15	3.834123e+15	3.142596e+14	2.061057e+04	6.419286e+03	3.413054e+03	0	1.703838e-03
3.100000e+08	2.097407e+14	0.000000e+00	7.185184e-01	3.461472e+15	3.820807e+15	3.126204e+14	2.057262e+04	6.418498e+03	3.412635e+03	0	1.694138e-03
3.200000e+08	2.061489e+14	0.000000e+00	7.185184e-01	3.432416e+15	3.805826e+15	3.109930e+14	2.053499e+04	6.417242e+03	3.411967e+03	0	1.684411e-03
3.300000e+08	2.025908e+14	0.000000e+00	7.185184e-01	3.403629e+15	3.789391e+15	3.093775e+14	2.049767e+04	6.415568e+03	3.411077e+03	0	1.674664e-03
3.400000e+08	1.990679e+14	0.000000e+00	7.185184e-01	3.375120e+15	3.771690e+15	3.077737e+14	2.046067e+04	6.413522e+03	3.409989e+03	0	1.664900e-03
3.500000e+08	1.955814e+14	0.000000e+00	7.185184e-01	3.346900e+15	3.752892e+15	3.061815e+14	2.042397e+04	6.411146e+03	3.408726e+03	0	1.655123e-03
3.600000e+08	1.921323e+14	0.000000e+00	7.185184e-01	3.318973e+15	3.733148e+15	3.046009e+14	2.038759e+04	6.408476e+03	3.407306e+03	0	1.645336e-03
3.700000e+08	1.887214e+14	0.000000e+00	7.185184e-01	3.291347e+15	3.712593e+15	3.030318e+14	2.035150e+04	6.405546e+03	3.405748e+03	0	1.635541e-03
3.800000e+08	1.853493e+14	0.000000e+00	7.185184e-01	3.264024e+15	3.691349e+15	3.014740e+14	2.031571e+04	6.402385e+03	3.404068e+03	0	1.625741e-03
3.900000e+08	1.820165e+14	0.000000e+00	7.185184e-01	3.237008e+15	3.669522e+15	2.999274e+14	2.028022e+04	6.399021e+03	3.402279e+03	0	1.615938e-03
4.000000e+08	1.787234e+14	0.000000e+00	7.185184e-01	3.210301e+15	3.647208e+15	2.983920e+14	2.024502e+04	6.395476e+03	3.400395e+03	0	1.606133e-03
4.100000e+08	1.754701e+14	0.000000e+00	7.185184e-01	3.183904e+15	3.624494e+15	2.968677e+14	2.021012e+04	6.391773e+03	3.398426e+03	0	1.596328e-03
4.200000e+08	1.722567e+14	0.000000e+00	7.185184e-01	3.157817e+15	3.601453e+15	2.953544e+14	2.017549e+04	6.387930e+03	3.396382e+03	0	1.586523e-03
4.300000e+08	1.690832e+14	0.000000e+00	7.185184e-01	3.132040e+15	3.578155e+15	2.938520e+14	2.014116e+04	6.383965e+03	3.394274e+03	0	1.576720e-03
4.400000e+08	1.659496e+14	0.000000e+00	7.185184e-01	3.106572e+15	3.554658e+15	2.923604e+14	2.010710e+04	6.379893e+03	3.392109e+03	0	1.566919e-03
4.500000e+08	1.628556e+14	0.000000e+00	7.185184e-01	3.081412e+15	3.531015e+15	2.908795e+14	2.007331e+04	6.375728e+03	3.389894e+03	0	1.557120e-03
4.600000e+08	1.598012e+14	0.000000e+00	7.185184e-01	3.056558e+15	3.507272e+15	2.894092e+14	2.003980e+04	6.371481e+03	3.387636e+03	0	1.547324e-03
4.700000e+08	1.567860e+14	0.000000e+00	7.185184e-01	3.032007e+15	3.483472e+15	2.879495e+14	2.000656e+04	6.367165e+03	3.385342e+03	0	1.537530e-03
4.800000e+08	1.538097e+14	0.000000e+00	7.185184e-01	3.007758e+15	3.459650e+15	2.865002e+14	1.997359e+04	6.362789e+03	3.383015e+03	0	1.527739e-03
4.900000e+08	1.508720e+14	0.000000e+00	7.185184e-01	2.983808e+15	3.435839e+15	2.850613e+14	1.994088e+04	6.358361e+03	3.380661e+03	0	1.517950e-03
5.000000e+08	1.479725e+14	0.000000e+00	7.185184e-01	2.960153e+15	3.412066e+15	2.836327e+14	1.990843e+04	6.353891e+03	3.378284e+03	0	1.508163e-03
5.100000e+08	1.451109e+14	0.000000e+00	7.185184e-01	2.936790e+15	3.388357e+15	2.822144e+14	1.987623e+04	6.349384e+03	3.375888e+03	0	1.498377e-03
5.200000e+08	1.422866e+14	0.000000e+00	7.185184e-01	2.913717e+15	3.364733e+15	2.808061e+14	1.984429e+04	6.344847e+03	3.373476e+03	0	1.488592e-03
5.300000e+08	1.394993e+14	0.000000e+00	7.185184e-01	2.890930e+15	3.341214e+15	2.794079e+14	1.981260e+04	6.340287e+03	3.371051e+03	0	1.478808e-03
5.400000e+08	1.367485e+14	0.000000e+00	7.185184e-01	2.868425e+15	3.317815e+15	2.780196e+14	1.978115e+04	6.335708e+03	3.368616e+03	0	1.469023e-03
5.500000e+08	1.340337e+14	0.000000e+00	7.185184e-01	2.846199e+15	3.294552e+15	2.766412e+14	1.974995e+04	6.331114e+03	3.366174e+03	0	1.459237e-03
5.600000e+08	1.313545e+14	0.000000e+00	7.185184e-01	2.824247e+15	3.271436e+15	2.752726e+14	1.971900e+04	6.326511e+03	3.363726e+03	0	1.449449e-03
5.700000e+08	1.287104e+14	0.000000e+00	7.185184e-01	2.802568e+15	3.248479e+15	2.739138e+14	1.968828e+04	6.321900e+03	3.361275e+03	0	1.439657e-03
5.800000e+08	1.261008e+14	0.000000e+00	7.185184e-01	2.781155e+15	3.225689e+15	2.725645e+14	1.965779e+04	6.317287e+03	3.358822e+03	0	1.429861e-03
5.900000e+08	1.235254e+14	0.000000e+00	7.185184e-01	2.760007e+15	3.203075e+15	2.712249e+14	1.962754e+04	6.312673e+03	3.356369e+03	0	1.420059e-03
6.000000e+08	1.209835e+14	0.000000e+00	7.185184e-01	2.739118e+15	3.180644e+15	2.698947e+14	1.959751e+04	6.308061e+03	3.353917e+03	0	1.410251e-03
6.100000e+08	1.184748e+14	0.000000e+00	7.185184e-01	2.718486e+15	3.158400e+15	2.685739e+14	1.956772e+04	6.303454e+03	3.351468e+03	0	1.400435e-03
6.200000e+08	1.159986e+14	0.000000e+00	7.185184e-01	2.698106e+15	3.136349e+15	2.672625e+14	1.953814e+04	6.298854e+03	3.349022e+03	0	1.390610e-03
6.300000e+08	1.135546e+14	0.000000e+00	7.185184e-01	2.677975e+15	3.114494e+15	2.659603e+14	1.950879e+04	6.294263e+03	3.346580e+03	0	1.380774e-03
6.400000e+08	1.111422e+14	0.000000e+00	7.185184e-01	2.658089e+15	3.092839e+15	2.646673e+14	1.947966e+04	6.289682e+03	3.344145e+03	0	1.370926e-03
6.500000e+08	1.087610e+14	0.000000e+00	7.185184e-01	2.638445e+15	3.071385e+15	2.633834e+14	1.945074e+04	6.285112e+03	3.341715e+03	0	1.361065e-03
6.600000e+08	1.064104e+14	0.000000e+00	7.185184e-01	2.619038e+15	3.050135e+15	2.621086e+14	1.942204e+04	6.280556e+03	3.339293e+03	0	1.351188e-03
6.700000e+08	1.040900e+14	0.000000e+00	7.185184e-01	2.599865e+15	3.029091e+15	2.608427e+14	1.939355e+04	6.276014e+03	3.336878e+03	0	1.341294e-03
6.800000e+08	1.017993e+14	0.000000e+00	7.185184e-01	2.580923e+15	3.008252e+15	2.595857e+14	1.936526e+04	6.271487e+03	3.334471e+03	0	1.331382e-03
6.900000e+08	9.953784e+13	0.000000e+00	7.185184e-01	2.562207e+15	2.987619e+15	2.583375e+14	1.933718e+04	6.266976e+03	3.332072e+03	0	1.321449e-03
7.000000e+08	9.730518e+13	0.000000e+00	7.185184e-01	2.543715e+15	2.967193e+15	2.570981e+14	1.930930e+04	6.262482e+03	3.329683e+03	0	1.311494e-03
7.100000e+08	9.510085e+13	0.000000e+00	7.185184e-01	2.525443e+15	2.946972e+15	2.558673e+14	1.928163e+04	6.258006e+03	3.327303e+03	0	1.301515e-03
7.200000e+08	9.292440e+13	0.000000e+00	7.185184e-01	2.507387e+15	2.926958e+15	2.546452e+14	1.925415e+04	6.253549e+03	3.324933e+03	0	1.291510e-03
7.300000e+08	9.077539e+13	0.000000e+00	7.185184e-01	2.489545e+15	2.907148e+15	2.534316e+14	1.922687e+04	6.249110e+03	3.322573e+03	0	1.281476e-03
7.400000e+08	8.865338e+13	0.000000e+00	7.185184e-01	2.471912e+15	2.887542e+15	2.522264e+14	1.919978e+04	6.244690e+03	3.320223e+03	0	1.271412e-03
7.500000e+08	8.655794e+13	0.000000e+00	7.185184e-01	2.454486e+15	2.868138e+15	2.510297e+14	1.917288e+04	6.240291e+03	3.317884e+03	0	1.261315e-03
7.600000e+08	8.448865e+13	0.000000e+00	7.185184e-01	2.437263e+15	2.848936e+15	2.498413e+14	1.914618e+04	6.235911e+03	3.315555e+03	0	1.251182e-03
7.700000e+08	8.244509e+13	0.000000e+00	7.185184e-01	2.420241e+15	2.829934e+15	2.486612e+14	1.911966e+04	6.231552e+03	3.313238e+03	0	1.241012e-03
7.800000e+08	8.042686e+13	0.000000e+00	7.185184e-01	2.403416e+15	2.811130e+15	2.474892e+14	1.909332e+04	6.227213e+03	3.310931e+03	0	1.230802e-03
7.900000e+08	7.843354e+13	0.000000e+00	7.185184e-01	2.386784e+15	2.792523e+15	2.463255e+14	1.906717e+04	6.222895e+03	3.308635e+03	0	1.220549e-03
8.000000e+08	7.646476e+13	0.000000e+00	7.185184e-01	2.370344e+15	2.774110e+15	2.451697e+14	1.904120e+04	6.218599e+03	3.306351e+03	0	1.210250e-03
8.100000e+08	7.452011e+13	0.000000e+00	7.185184e-01	2.354092e+15	2.755890e+15	2.440220e+14	1.901540e+04	6.214323e+03	3.304077e+03	0	1.199902e-03
8.200000e+08	7.259922e+13	0.000000e+00	7.185184e-01	2.338026e+15	2.737861e+15	2.428823e+14	1.898978e+04	6.210069e+03	3.301815e+03	0	1.189502e-03
8.300000e+08	7.070170e+13	0.000000e+00	7.185184e-01	2.322141e+15	2.720021e+15	2.417504e+14	1.896434e+04	6.205836e+03	3.299565e+03	0	1.179047e-03
8.400000e+08	6.882720e+13	0.000000e+00	7.185184e-01	2.306436e+15	2.702368e+15	2.406263e+14	1.893907e+04	6.201624e+03	3.297326e+03	0	1.168534e-03
8.500000e+08	6.697534e+13	0.000000e+00	7.185184e-01	2.290908e+15	2.684900e+15	2.395100e+14	1.891397e+04	6.197434e+03	3.295098e+03	0	1.157958e-03
8.600000e+08	6.514578e+13	0.000000e+00	7.185184e-01	2.275554e+15	2.667614e+15	2.384014e+14	1.888904e+04	6.193265e+03	3.292881e+03	0	1.147317e-03
8.700000e+08	6.333817e+13	0.000000e+00	7.185184e-01	2.260372e+15	2.650509e+15	2.373004e+14	1.886428e+04	6.189118e+03	3.290676e+03	0	1.136605e-03
8.800000e+08	6.155215e+13	0.000000e+00	7.185184e-01	2.245358e+15	2.633583e+15	2.362070e+14	1.883968e+04	6.184992e+03	3.288482e+03	0	1.125820e-03
8.900000e+08	5.978740e+13	0.000000e+00	7.185184e-01	2.230511e+15	2.616833e+15	2.351211e+14	1.881524e+04	6.180887e+03	3.286300e+03	0	1.114956e-03
9.000000e+08	5.804358e+13	0.000000e+00	7.185184e-01	2.215827e+15	2.600257e+15	2.340426e+14	1.879096e+04	6.176804e+03	3.284129e+03	0	1.104009e-03
9.100000e+08	5.632037e+13	0.000000e+00	7.185184e-01	2.201305e+15	2.583853e+15	2.329716e+14	1.876685e+04	6.172741e+03	3.281969e+03	0	1.092974e-03
9.200000e+08	5.461746e+13	0.000000e+00	7.185184e-01	2.186941e+15	2.567619e+15	2.319079e+14	1.874289e+04	6.168700e+03	3.279821e+03	0	1.081845e-03
9.300000e+08	5.293452e+13	0.000000e+00	7.185184e-01	2.172734e+15	2.551553e+15	2.308514e+14	1.871909e+04	6.164681e+03	3.277683e+03	0	1.070617e-03
9.400000e+08	5.127125e+13	0.000000e+00	7.185184e-01	2.158682e+15	2.535653e+15	2.298022e+14	1.869544e+04	6.160682e+03	3.275557e+03	0	1.059284e-03
9.500000e+08	4.962735e+13	0.000000e+00	7.185184e-01	2.144781e+15	2.519916e+15	2.287602e+14	1.867194e+04	6.156704e+03	3.273442e+03	0	1.047840e-03
9.600000e+08	4.800252e+13	0.000000e+00	7.185184e-01	2.131029e+15	2.504341e+15	2.277252e+14	1.864860e+04	6.152746e+03	3.271338e+03	0	1.036277e-03
9.700000e+08	4.639647e+13	0.000000e+00	7.185184e-01	2.117426e+15	2.488924e+15	2.266973e+14	1.862541e+04	6.148809e+03	3.269245e+03	0	1.024588e-03
9.800000e+08	4.480893e+13	0.000000e+00	7.185184e-01	2.103967e+15	2.473666e+15	2.256764e+14	1.860236e+04	6.144893e+03	3.267163e+03	0	1.012766e-03
9.900000e+08	4.323960e+13	0.000000e+00	7.185184e-01	2.090651e+15	2.458562e+15	2.246624e+14	1.857946e+04	6.140998e+03	3.265091e+03	0	1.000802e-03
1.000000e+09	4.168821e+13	0.000000e+00	7.185184e-01	2.077477e+15	2.443612e+15	2.236553e+14	1.855670e+04	6.137122e+03	3.263031e+03	0	9.886872e-04
1.010000e+09	4.015450e+13	0.000000e+00	7.185184e-01	2.064441e+15	2.428812e+15	2.226551e+14	1.853409e+04	6.133267e+03	3.260981e+03	0	9.764107e-04
1.020000e+09	3.863820e+13	0.000000e+00	7.185184e-01	2.051542e+15	2.414162e+15	2.216616e+14	1.851162e+04	6.129431e+03	3.258942e+03	0	9.639624e-04
1.030000e+09	3.713904e+13	0.000000e+00	7.185184e-01	2.038778e+15	2.399659e+15	2.206748e+14	1.848929e+04	6.125616e+03	3.256913e+03	0	9.513304e-04
1.040000e+09	3.565678e+13	0.000000e+00	7.185184e-01	2.026147e+15	2.385302e+15	2.196947e+14	1.846709e+04	6.121820e+03	3.254895e+03	0	9.385020e-04
1.050000e+09	3.419116e+13	0.000000e+00	7.185184e-01	2.013648e+15	2.371087e+15	2.187213e+14	1.844504e+04	6.118044e+03	3.252887e+03	0	9.254631e-04
1.060000e+09	3.274194e+13	0.000000e+00	7.185184e-01	2.001277e+15	2.357014e+15	2.177543e+14	1.842312e+04	6.114287e+03	3.250890e+03	0	9.121983e-04
1.070000e+09	3.130887e+13	0.000000e+00	7.185184e-01	1.989034e+15	2.343081e+15	2.167940e+14	1.840133e+04	6.110550e+03	3.248903e+03	0	8.986908e-04
1.080000e+09	2.989173e+13	0.000000e+00	7.185184e-01	1.976916e+15	2.329286e+15	2.158400e+14	1.837968e+04	6.106832e+03	3.246926e+03	0	8.849216e-04
1.090000e+09	2.849027e+13	0.000000e+00	7.185184e-01	1.964922e+15	2.315626e+15	2.148925e+14	1.835816e+04	6.103133e+03	3.244959e+03	0	8.708700e-04
1.100000e+09	2.710426e+13	0.000000e+00	7.185184e-01	1.953050e+15	2.302101e+15	2.139513e+14	1.833677e+04	6.099452e+03	3.243002e+03	0	8.565124e-04
1.110000e+09	2.573349e+13	0.000000e+00	7.185184e-01	1.941298e+15	2.288708e+15	2.130165e+14	1.831551e+04	6.095791e+03	3.241055e+03	0	8.418228e-04
1.120000e+09	2.437773e+13	0.000000e+00	7.185184e-01	1.929665e+15	2.275445e+15	2.120879e+14	1.829437e+04	6.092148e+03	3.239118e+03	0	8.267716e-04
1.130000e+09	2.303676e+13	0.000000e+00	7.185184e-01	1.918149e+15	2.262311e+15	2.111656e+14	1.827337e+04	6.088523e+03	3.237191e+03	0	8.113252e-04
1.140000e+09	2.171038e+13	0.000000e+00	7.185184e-01	1.906748e+15	2.249305e+15	2.102494e+14	1.825248e+04	6.084917e+03	3.235274e+03	0	7.954453e-04
1.150000e+09	2.039837e+13	0.000000e+00	7.185184e-01	1.895461e+15	2.236424e+15	2.093393e+14	1.823172e+04	6.081329e+03	3.233366e+03	0	7.790877e-04
1.160000e+09	1.910053e+13	0.000000e+00	7.185184e-01	1.884286e+15	2.223667e+15	2.084353e+14	1.821109e+04	6.077759e+03	3.231468e+03	0	7.622012e-04
1.170000e+09	1.781666e+13	0.000000e+00	7.185184e-01	1.873221e+15	2.211032e+15	2.075373e+14	1.819057e+04	6.074207e+03	3.229579e+03	0	7.447261e-04
1.180000e+09	1.654656e+13	0.000000e+00	7.185184e-01	1.862266e+15	2.198518e+15	2.066453e+14	1.817018e+04	6.070672e+03	3.227700e+03	0	7.265916e-04
1.190000e+09	1.529003e+13	0.000000e+00	7.185184e-01	1.851418e+15	2.186123e+15	2.057592e+14	1.814991e+04	6.067155e+03	3.225830e+03	0	7.077132e-04
1.200000e+09	1.404689e+13	0.000000e+00	7.185184e-01	1.840677e+15	2.173845e+15	2.048790e+14	1.812975e+04	6.063656e+03	3.223970e+03	0	6.879885e-04
1.210000e+09	1.281694e+13	0.000000e+00	7.185184e-01	1.830040e+15	2.161684e+15	2.040046e+14	1.810971e+04	6.060174e+03	3.222118e+03	0	6.672920e-04
1.220000e+09	1.160000e+13	0.000000e+00	7.185184e-01	1.819506e+15	2.149637e+15	2.031360e+14	1.808978e+04	6.056709e+03	3.220276e+03	0	6.454667e-04
1.230000e+09	1.039589e+13	0.000000e+00	7.185184e-01	1.809074e+15	2.137703e+15	2.022732e+14	1.806997e+04	6.053261e+03	3.218443e+03	0	6.223124e-04
1.240000e+09	9.204440e+12	0.000000e+00	7.185184e-01	1.798743e+15	2.125880e+15	2.014161e+14	1.805028e+04	6.049830e+03	3.216618e+03	0	5.975675e-04
1.250000e+09	8.025463e+12	0.000000e+00	7.185184e-01	1.788511e+15	2.114168e+15	2.005646e+14	1.803069e+04	6.046415e+03	3.214803e+03	0	5.708796e-04
1.260000e+09	6.858791e+12	0.000000e+00	7.185184e-01	1.778377e+15	2.102565e+15	1.997188e+14	1.801122e+04	6.043018e+03	3.212997e+03	0	5.417559e-04
1.270000e+09	5.704255e+12	0.000000e+00	7.185184e-01	1.768339e+15	2.091068e+15	1.988785e+14	1.799185e+04	6.039636e+03	3.211199e+03	0	5.094725e-04
1.280000e+09	4.561689e+12	0.000000e+00	7.185184e-01	1.758397e+15	2.079678e+15	1.980437e+14	1.797260e+04	6.036271e+03	3.209410e+03	0	4.728932e-04
1.290000e+09	3.430930e+12	0.000000e+00	7.185184e-01	1.748548e+15	2.068393e+15	1.972145e+14	1.795345e+04	6.032923e+03	3.207629e+03	0	4.300561e-04
1.300000e+09	2.311817e+12	0.000000e+00	7.185184e-01	1.738793e+15	2.057210e+15	1.963906e+14	1.793441e+04	6.029590e+03	3.205857e+03	0	3.770269e-04
1.310000e+09	1.204193e+12	0.000000e+00	7.185184e-01	1.729128e+15	2.046130e+15	1.955722e+14	1.791548e+04	6.026273e+03	3.204094e+03	0	3.033564e-04
1.320000e+09	1.079019e+11	0.000000e+00	7.185184e-01	1.719555e+15	2.035150e+15	1.947591e+14	1.789665e+04	6.022973e+03	3.202339e+03	0	1.357472e-04
1.330000e+09	-9.772082e+11	0.000000e+00	7.185184e-01	1.710070e+15	2.024270e+15	1.939514e+14	1.787793e+04	6.019687e+03	3.200592e+03	0	nan
