#t		Qconv[W]	Ri[Rp]		R*[Rp]		Qc[W]		Qm[W]		Qr[W]		Tcmb[K]		Tl[K]		Tup[K]		RiFlag		Bs[T]
0.000000e+00	3.130365e+11	0.000000e+00	6.080402e-01	8.956545e+12	9.511485e+14	7.732244e+13	3.874725e+03	2.872356e+03	2.011766e+03	0	2.284194e-04
1.000000e+07	3.194398e+11	0.000000e+00	6.080402e-01	9.119447e+12	8.094892e+14	7.689402e+13	3.872933e+03	2.777207e+03	1.945125e+03	0	2.299664e-04
2.000000e+07	3.209114e+11	0.000000e+00	6.080402e-01	9.156531e+12	7.005530e+14	7.646880e+13	3.871108e+03	2.696958e+03	1.888919e+03	0	2.303190e-04
3.000000e+07	3.194831e+11	0.000000e+00	6.080402e-01	9.119637e+12	6.148879e+14	7.604676e+13	3.869276e+03	2.628282e+03	1.840819e+03	0	2.299768e-04
4.000000e+07	3.163581e+11	0.000000e+00	6.080402e-01	9.039459e+12	5.462131e+14	7.562787e+13	3.867451e+03	2.568780e+03	1.799145e+03	0	2.292245e-04
5.000000e+07	3.122635e+11	0.000000e+00	6.080402e-01	8.934551e+12	4.902333e+14	7.521210e+13	3.865643e+03	2.516680e+03	1.762655e+03	0	2.282312e-04
6.000000e+07	3.076462e+11	0.000000e+00	6.080402e-01	8.816313e+12	4.439338e+14	7.479943e+13	3.863855e+03	2.470646e+03	1.730413e+03	0	2.271007e-04
7.000000e+07	3.027837e+11	0.000000e+00	6.080402e-01	8.691829e+12	4.051496e+14	7.438984e+13	3.862091e+03	2.429649e+03	1.701699e+03	0	2.258979e-04
8.000000e+07	2.978496e+11	0.000000e+00	6.080402e-01	8.565522e+12	3.722933e+14	7.398329e+13	3.860351e+03	2.392886e+03	1.675951e+03	0	2.246641e-04
9.000000e+07	2.929517e+11	0.000000e+00	6.080402e-01	8.440146e+12	3.441794e+14	7.357977e+13	3.858637e+03	2.359718e+03	1.652720e+03	0	2.234258e-04
1.000000e+08	2.881564e+11	0.000000e+00	6.080402e-01	8.317392e+12	3.199079e+14	7.317924e+13	3.856948e+03	2.329632e+03	1.631648e+03	0	2.222000e-04
1.100000e+08	2.835031e+11	0.000000e+00	6.080402e-01	8.198268e+12	2.987853e+14	7.278168e+13	3.855283e+03	2.302209e+03	1.612441e+03	0	2.209975e-04
1.200000e+08	2.790140e+11	0.000000e+00	6.080402e-01	8.083338e+12	2.802697e+14	7.238707e+13	3.853643e+03	2.277105e+03	1.594859e+03	0	2.198248e-04
1.300000e+08	2.746998e+11	0.000000e+00	6.080402e-01	7.972876e+12	2.639327e+14	7.199538e+13	3.852025e+03	2.254033e+03	1.578700e+03	0	2.186859e-04
1.400000e+08	2.705641e+11	0.000000e+00	6.080402e-01	7.866971e+12	2.494319e+14	7.160660e+13	3.850429e+03	2.232755e+03	1.563797e+03	0	2.175829e-04
1.500000e+08	2.666054e+11	0.000000e+00	6.080402e-01	7.765590e+12	2.364906e+14	7.122068e+13	3.848854e+03	2.213066e+03	1.550007e+03	0	2.165165e-04
1.600000e+08	2.628196e+11	0.000000e+00	6.080402e-01	7.668622e+12	2.248834e+14	7.083762e+13	3.847300e+03	2.194795e+03	1.537210e+03	0	2.154867e-04
1.700000e+08	2.592004e+11	0.000000e+00	6.080402e-01	7.575913e+12	2.144246e+14	7.045738e+13	3.845765e+03	2.177792e+03	1.525301e+03	0	2.144931e-04
1.800000e+08	2.557409e+11	0.000000e+00	6.080402e-01	7.487279e+12	2.049606e+14	7.007994e+13	3.844249e+03	2.161930e+03	1.514192e+03	0	2.135345e-04
1.900000e+08	2.524333e+11	0.000000e+00	6.080402e-01	7.402524e+12	1.963631e+14	6.970529e+13	3.842750e+03	2.147099e+03	1.503804e+03	0	2.126099e-04
2.000000e+08	2.492696e+11	0.000000e+00	6.080402e-01	7.321448e+12	1.885242e+14	6.933339e+13	3.841268e+03	2.133200e+03	1.494070e+03	0	2.117180e-04
2.100000e+08	2.462422e+11	0.000000e+00	6.080402e-01	7.243850e+12	1.813526e+14	6.896423e+13	3.839803e+03	2.120150e+03	1.484930e+03	0	2.108574e-04
2.200000e+08	2.433433e+11	0.000000e+00	6.080402e-01	7.169535e+12	1.747707e+14	6.859778e+13	3.838353e+03	2.107873e+03	1.476331e+03	0	2.100267e-04
2.300000e+08	2.405657e+11	0.000000e+00	6.080402e-01	7.098317e+12	1.687119e+14	6.823402e+13	3.836918e+03	2.096304e+03	1.468228e+03	0	2.092245e-04
2.400000e+08	2.379023e+11	0.000000e+00	6.080402e-01	7.030016e+12	1.631192e+14	6.787292e+13	3.835497e+03	2.085383e+03	1.460579e+03	0	2.084495e-04
2.500000e+08	2.353465e+11	0.000000e+00	6.080402e-01	6.964463e+12	1.579431e+14	6.751447e+13	3.834089e+03	2.075059e+03	1.453348e+03	0	2.077003e-04
2.600000e+08	2.328919e+11	0.000000e+00	6.080402e-01	6.901498e+12	1.531409e+14	6.715864e+13	3.832695e+03	2.065283e+03	1.446501e+03	0	2.069758e-04
2.700000e+08	2.305328e+11	0.000000e+00	6.080402e-01	6.840970e+12	1.486751e+14	6.680542e+13	3.831314e+03	2.056015e+03	1.440010e+03	0	2.062745e-04
2.800000e+08	2.282636e+11	0.000000e+00	6.080402e-01	6.782739e+12	1.445130e+14	6.645477e+13	3.829944e+03	2.047216e+03	1.433847e+03	0	2.055955e-04
2.900000e+08	1.236684e+12	2.370990e-02	6.080402e-01	6.726671e+12	1.406259e+14	6.610668e+13	3.828586e+03	2.038852e+03	1.427990e+03	0	3.563457e-04
3.000000e+08	1.319953e+12	3.200687e-02	6.080402e-01	6.675774e+12	1.369903e+14	6.576114e+13	3.827512e+03	2.030893e+03	1.422415e+03	1	3.624491e-04
3.100000e+08	1.519079e+12	3.805192e-02	6.080402e-01	6.627013e+12	1.335821e+14	6.541810e+13	3.826471e+03	2.023310e+03	1.417104e+03	1	3.785078e-04
3.200000e+08	1.573846e+12	4.256287e-02	6.080402e-01	6.580633e+12	1.303814e+14	6.507757e+13	3.825494e+03	2.016077e+03	1.412038e+03	1	3.820024e-04
3.300000e+08	1.634647e+12	4.704365e-02	6.080402e-01	6.536082e+12	1.273703e+14	6.473951e+13	3.824541e+03	2.009171e+03	1.407201e+03	1	3.858505e-04
3.400000e+08	1.654310e+12	5.084842e-02	6.080402e-01	6.493284e+12	1.245331e+14	6.440390e+13	3.823614e+03	2.002572e+03	1.402579e+03	1	3.865293e-04
3.500000e+08	1.840683e+12	5.423186e-02	6.080402e-01	6.452028e+12	1.218554e+14	6.407073e+13	3.822701e+03	1.996258e+03	1.398157e+03	1	3.997356e-04
3.600000e+08	1.798392e+12	5.711653e-02	6.080402e-01	6.412730e+12	1.193247e+14	6.373998e+13	3.821848e+03	1.990214e+03	1.393923e+03	1	3.959763e-04
3.700000e+08	1.948382e+12	6.005751e-02	6.080402e-01	6.374625e+12	1.169294e+14	6.341162e+13	3.820990e+03	1.984421e+03	1.389866e+03	1	4.059854e-04
3.800000e+08	1.887600e+12	6.258733e-02	6.080402e-01	6.338216e+12	1.146593e+14	6.308563e+13	3.820182e+03	1.978865e+03	1.385975e+03	1	4.011169e-04
4.800000e+08	2.272567e+12	8.491321e-02	6.080402e-01	6.302810e+12	1.109580e+14	5.995227e+13	3.819364e+03	1.973531e+03	1.382239e+03	1	4.210432e-04
5.800000e+08	2.301461e+12	9.914610e-02	6.080402e-01	6.004128e+12	9.410922e+13	5.703613e+13	3.812331e+03	1.928789e+03	1.350903e+03	1	4.191762e-04
6.800000e+08	2.260295e+12	1.107102e-01	6.080402e-01	5.777980e+12	8.298356e+13	5.432021e+13	3.805988e+03	1.896798e+03	1.328496e+03	1	4.137173e-04
7.800000e+08	2.359515e+12	1.204135e-01	6.080402e-01	5.596895e+12	7.504890e+13	5.178894e+13	3.799997e+03	1.872690e+03	1.311611e+03	1	4.171792e-04
8.800000e+08	2.332103e+12	1.286581e-01	6.080402e-01	5.449596e+12	6.905082e+13	4.942804e+13	3.794642e+03	1.853725e+03	1.298328e+03	1	4.134392e-04
9.800000e+08	2.290831e+12	1.358454e-01	6.080402e-01	5.323408e+12	6.430404e+13	4.722444e+13	3.789512e+03	1.838257e+03	1.287495e+03	1	4.091527e-04
1.080000e+09	2.314923e+12	1.425799e-01	6.080402e-01	5.212094e+12	6.040867e+13	4.516611e+13	3.784527e+03	1.825247e+03	1.278383e+03	1	4.088610e-04
1.180000e+09	2.325379e+12	1.487657e-01	6.080402e-01	5.113380e+12	5.711892e+13	4.324203e+13	3.779832e+03	1.814015e+03	1.270516e+03	1	4.078951e-04
1.280000e+09	2.325249e+12	1.542352e-01	6.080402e-01	5.024194e+12	5.427615e+13	4.144210e+13	3.775365e+03	1.804104e+03	1.263574e+03	1	4.064924e-04
1.380000e+09	2.317280e+12	1.593216e-01	6.080402e-01	4.942377e+12	5.177435e+13	3.975702e+13	3.771077e+03	1.795198e+03	1.257337e+03	1	4.047338e-04
1.480000e+09	2.307138e+12	1.640863e-01	6.080402e-01	4.866386e+12	4.954040e+13	3.817824e+13	3.766933e+03	1.787076e+03	1.251648e+03	1	4.029345e-04
1.580000e+09	2.291679e+12	1.685545e-01	6.080402e-01	4.795182e+12	4.752245e+13	3.669792e+13	3.762914e+03	1.779577e+03	1.246396e+03	1	4.009041e-04
1.680000e+09	2.276079e+12	1.729319e-01	6.080402e-01	4.727910e+12	4.568269e+13	3.530885e+13	3.758996e+03	1.772586e+03	1.241499e+03	1	3.988914e-04
1.780000e+09	2.259919e+12	1.770603e-01	6.080402e-01	4.664011e+12	4.399292e+13	3.400437e+13	3.755170e+03	1.766016e+03	1.236898e+03	1	3.969112e-04
1.880000e+09	2.238520e+12	1.809644e-01	6.080402e-01	4.603047e+12	4.243161e+13	3.277838e+13	3.751428e+03	1.759801e+03	1.232545e+03	1	3.946815e-04
1.980000e+09	2.260042e+12	1.846962e-01	6.080402e-01	4.544563e+12	4.098191e+13	3.162525e+13	3.747750e+03	1.753893e+03	1.228407e+03	1	3.950110e-04
2.080000e+09	2.237385e+12	1.881628e-01	6.080402e-01	4.489262e+12	3.963080e+13	3.053979e+13	3.744249e+03	1.748253e+03	1.224457e+03	1	3.928257e-04
2.180000e+09	2.213965e+12	1.915802e-01	6.080402e-01	4.435903e+12	3.836712e+13	2.951722e+13	3.740797e+03	1.742851e+03	1.220674e+03	1	3.906061e-04
2.280000e+09	2.228204e+12	1.948653e-01	6.080402e-01	4.384292e+12	3.718187e+13	2.855313e+13	3.737387e+03	1.737663e+03	1.217040e+03	1	3.906299e-04
2.380000e+09	2.202030e+12	1.979293e-01	6.080402e-01	4.335113e+12	3.606780e+13	2.764346e+13	3.734121e+03	1.732670e+03	1.213543e+03	1	3.883414e-04
2.480000e+09	2.212911e+12	2.009856e-01	6.080402e-01	4.287327e+12	3.501823e+13	2.678445e+13	3.730881e+03	1.727854e+03	1.210170e+03	1	3.882288e-04
2.580000e+09	2.186119e+12	2.038441e-01	6.080402e-01	4.241632e+12	3.402790e+13	2.597262e+13	3.727768e+03	1.723204e+03	1.206913e+03	1	3.859572e-04
2.680000e+09	2.160275e+12	2.066771e-01	6.080402e-01	4.197097e+12	3.309172e+13	2.520479e+13	3.724673e+03	1.718708e+03	1.203764e+03	1	3.837419e-04
2.780000e+09	2.167152e+12	2.094173e-01	6.080402e-01	4.153663e+12	3.220544e+13	2.447798e+13	3.721596e+03	1.714355e+03	1.200715e+03	1	3.834831e-04
2.880000e+09	2.141089e+12	2.120736e-01	6.080402e-01	4.111955e+12	3.136551e+13	2.378946e+13	3.718625e+03	1.710137e+03	1.197761e+03	1	3.812981e-04
2.980000e+09	2.146070e+12	2.146478e-01	6.080402e-01	4.071189e+12	3.056835e+13	2.313669e+13	3.715666e+03	1.706047e+03	1.194896e+03	1	3.809724e-04
3.080000e+09	2.119935e+12	2.171466e-01	6.080402e-01	4.031960e+12	2.981115e+13	2.251732e+13	3.712804e+03	1.702078e+03	1.192117e+03	1	3.788199e-04
3.180000e+09	2.123389e+12	2.195724e-01	6.080402e-01	3.993546e+12	2.909096e+13	2.192918e+13	3.709947e+03	1.698225e+03	1.189418e+03	1	3.784440e-04
3.280000e+09	2.097487e+12	2.219302e-01	6.080402e-01	3.956512e+12	2.840549e+13	2.137025e+13	3.707179e+03	1.694481e+03	1.186796e+03	1	3.763367e-04
3.380000e+09	2.099706e+12	2.242227e-01	6.080402e-01	3.920191e+12	2.775226e+13	2.083867e+13	3.704412e+03	1.690842e+03	1.184247e+03	1	3.759235e-04
3.480000e+09	2.073055e+12	2.264531e-01	6.080402e-01	3.885120e+12	2.712939e+13	2.033270e+13	3.701726e+03	1.687303e+03	1.181768e+03	1	3.737981e-04
3.580000e+09	2.074261e+12	2.286240e-01	6.080402e-01	3.850656e+12	2.653476e+13	1.985073e+13	3.699035e+03	1.683860e+03	1.179357e+03	1	3.733571e-04
3.680000e+09	2.075125e+12	2.307536e-01	6.080402e-01	3.817328e+12	2.596681e+13	1.939127e+13	3.696419e+03	1.680509e+03	1.177010e+03	1	3.729060e-04
3.780000e+09	2.049563e+12	2.327715e-01	6.080402e-01	3.785083e+12	2.542393e+13	1.895293e+13	3.693872e+03	1.677246e+03	1.174724e+03	1	3.708945e-04
3.880000e+09	2.049683e+12	2.347963e-01	6.080402e-01	3.753345e+12	2.490443e+13	1.853441e+13	3.691319e+03	1.674068e+03	1.172499e+03	1	3.704268e-04
3.980000e+09	2.024127e+12	2.367709e-01	6.080402e-01	3.722598e+12	2.440710e+13	1.813451e+13	3.688831e+03	1.670972e+03	1.170330e+03	1	3.684201e-04
4.080000e+09	2.023622e+12	2.386986e-01	6.080402e-01	3.692293e+12	2.393046e+13	1.775213e+13	3.686333e+03	1.667953e+03	1.168216e+03	1	3.679404e-04
4.180000e+09	2.022913e+12	2.405932e-01	6.080402e-01	3.662899e+12	2.347348e+13	1.738620e+13	3.683896e+03	1.665011e+03	1.166155e+03	1	3.674567e-04
4.280000e+09	1.998634e+12	2.423947e-01	6.080402e-01	3.634378e+12	2.303506e+13	1.703578e+13	3.681517e+03	1.662140e+03	1.164145e+03	1	3.655638e-04
4.380000e+09	1.997383e+12	2.442044e-01	6.080402e-01	3.606232e+12	2.261400e+13	1.669994e+13	3.679126e+03	1.659340e+03	1.162183e+03	1	3.650694e-04
4.480000e+09	1.996124e+12	2.459848e-01	6.080402e-01	3.578892e+12	2.220947e+13	1.637785e+13	3.676790e+03	1.656607e+03	1.160269e+03	1	3.645819e-04
4.580000e+09	1.971774e+12	2.476784e-01	6.080402e-01	3.552322e+12	2.182059e+13	1.606872e+13	3.674507e+03	1.653938e+03	1.158400e+03	1	3.627047e-04
4.680000e+09	1.970094e+12	2.493822e-01	6.080402e-01	3.526050e+12	2.144635e+13	1.577181e+13	3.672208e+03	1.651333e+03	1.156575e+03	1	3.622112e-04
4.780000e+09	1.968304e+12	2.510598e-01	6.080402e-01	3.500495e+12	2.108610e+13	1.548645e+13	3.669958e+03	1.648787e+03	1.154792e+03	1	3.617177e-04
4.880000e+09	1.945580e+12	2.526600e-01	6.080402e-01	3.475626e+12	2.073912e+13	1.521198e+13	3.667756e+03	1.646299e+03	1.153050e+03	1	3.599560e-04
4.980000e+09	1.943519e+12	2.542695e-01	6.080402e-01	3.451019e+12	2.040457e+13	1.494781e+13	3.665539e+03	1.643868e+03	1.151347e+03	1	3.594631e-04
5.080000e+09	1.941379e+12	2.558554e-01	6.080402e-01	3.427052e+12	2.008193e+13	1.469337e+13	3.663368e+03	1.641490e+03	1.149682e+03	1	3.589711e-04
5.180000e+09	1.918650e+12	2.573686e-01	6.080402e-01	3.403699e+12	1.977060e+13	1.444815e+13	3.661239e+03	1.639165e+03	1.148053e+03	1	3.572231e-04
5.280000e+09	1.916295e+12	2.588924e-01	6.080402e-01	3.380552e+12	1.946987e+13	1.421165e+13	3.659093e+03	1.636890e+03	1.146459e+03	1	3.567333e-04
5.380000e+09	1.913882e+12	2.603950e-01	6.080402e-01	3.357978e+12	1.917933e+13	1.398340e+13	3.656988e+03	1.634663e+03	1.144900e+03	1	3.562453e-04
5.480000e+09	1.892890e+12	2.618679e-01	6.080402e-01	3.335957e+12	1.889849e+13	1.376299e+13	3.654922e+03	1.632483e+03	1.143373e+03	1	3.546081e-04
5.580000e+09	1.890313e+12	2.633145e-01	6.080402e-01	3.314123e+12	1.862674e+13	1.354999e+13	3.652841e+03	1.630348e+03	1.141878e+03	1	3.541235e-04
5.680000e+09	1.887696e+12	2.647418e-01	6.080402e-01	3.292807e+12	1.836376e+13	1.334404e+13	3.650798e+03	1.628257e+03	1.140413e+03	1	3.536413e-04
5.780000e+09	1.885043e+12	2.661502e-01	6.080402e-01	3.271990e+12	1.810912e+13	1.314477e+13	3.648792e+03	1.626208e+03	1.138978e+03	1	3.531615e-04
5.880000e+09	1.863415e+12	2.674964e-01	6.080402e-01	3.251653e+12	1.786244e+13	1.295185e+13	3.646821e+03	1.624200e+03	1.137571e+03	1	3.515070e-04
5.980000e+09	1.860637e+12	2.688544e-01	6.080402e-01	3.231433e+12	1.762322e+13	1.276497e+13	3.644829e+03	1.622231e+03	1.136192e+03	1	3.510314e-04
6.080000e+09	1.857834e+12	2.701951e-01	6.080402e-01	3.211665e+12	1.739123e+13	1.258383e+13	3.642870e+03	1.620299e+03	1.134840e+03	1	3.505584e-04
6.180000e+09	1.837786e+12	2.715112e-01	6.080402e-01	3.192333e+12	1.716613e+13	1.240814e+13	3.640945e+03	1.618405e+03	1.133513e+03	1	3.490032e-04
6.280000e+09	1.834887e+12	2.728060e-01	6.080402e-01	3.173112e+12	1.694751e+13	1.223766e+13	3.639001e+03	1.616546e+03	1.132211e+03	1	3.485349e-04
6.380000e+09	1.831973e+12	2.740851e-01	6.080402e-01	3.154302e+12	1.673516e+13	1.207213e+13	3.637089e+03	1.614721e+03	1.130933e+03	1	3.480696e-04
6.480000e+09	1.829046e+12	2.753489e-01	6.080402e-01	3.135889e+12	1.652881e+13	1.191132e+13	3.635208e+03	1.612929e+03	1.129677e+03	1	3.476071e-04
6.580000e+09	1.810381e+12	2.765906e-01	6.080402e-01	3.117861e+12	1.632821e+13	1.175501e+13	3.633356e+03	1.611169e+03	1.128445e+03	1	3.461498e-04
6.680000e+09	1.807386e+12	2.778134e-01	6.080402e-01	3.099923e+12	1.613300e+13	1.160299e+13	3.631487e+03	1.609440e+03	1.127234e+03	1	3.456924e-04
6.780000e+09	1.804385e+12	2.790222e-01	6.080402e-01	3.082350e+12	1.594304e+13	1.145508e+13	3.629646e+03	1.607741e+03	1.126044e+03	1	3.452380e-04
6.880000e+09	1.801378e+12	2.802171e-01	6.080402e-01	3.065127e+12	1.575810e+13	1.131108e+13	3.627834e+03	1.606070e+03	1.124874e+03	1	3.447866e-04
6.980000e+09	1.797619e+12	2.813979e-01	6.080402e-01	3.048245e+12	1.557799e+13	1.117083e+13	3.626049e+03	1.604428e+03	1.123723e+03	1	3.442906e-04
7.080000e+09	1.779449e+12	2.825327e-01	6.080402e-01	3.031679e+12	1.540249e+13	1.103416e+13	3.624288e+03	1.602812e+03	1.122592e+03	1	3.428816e-04
7.180000e+09	1.776387e+12	2.836773e-01	6.080402e-01	3.015167e+12	1.523133e+13	1.090092e+13	3.622508e+03	1.601223e+03	1.121479e+03	1	3.424381e-04
7.280000e+09	1.773325e+12	2.848095e-01	6.080402e-01	2.998968e+12	1.506441e+13	1.077095e+13	3.620754e+03	1.599659e+03	1.120384e+03	1	3.419976e-04
7.380000e+09	1.770265e+12	2.859294e-01	6.080402e-01	2.983071e+12	1.490157e+13	1.064413e+13	3.619024e+03	1.598120e+03	1.119305e+03	1	3.415600e-04
7.480000e+09	1.752608e+12	2.870063e-01	6.080402e-01	2.967469e+12	1.474264e+13	1.052032e+13	3.617319e+03	1.596604e+03	1.118244e+03	1	3.401901e-04
7.580000e+09	1.749511e+12	2.880931e-01	6.080402e-01	2.951900e+12	1.458737e+13	1.039940e+13	3.615595e+03	1.595112e+03	1.117198e+03	1	3.397574e-04
7.680000e+09	1.746418e+12	2.891685e-01	6.080402e-01	2.936610e+12	1.443572e+13	1.028125e+13	3.613893e+03	1.593641e+03	1.116169e+03	1	3.393276e-04
7.780000e+09	1.743330e+12	2.902329e-01	6.080402e-01	2.921593e+12	1.428753e+13	1.016576e+13	3.612215e+03	1.592192e+03	1.115154e+03	1	3.389007e-04
7.880000e+09	1.740248e+12	2.912863e-01	6.080402e-01	2.906839e+12	1.414268e+13	1.005283e+13	3.610560e+03	1.590764e+03	1.114153e+03	1	3.384768e-04
7.980000e+09	1.723477e+12	2.923004e-01	6.080402e-01	2.892342e+12	1.400105e+13	9.942356e+12	3.608926e+03	1.589356e+03	1.113167e+03	1	3.371710e-04
8.080000e+09	1.720369e+12	2.933242e-01	6.080402e-01	2.877859e+12	1.386242e+13	9.834242e+12	3.607273e+03	1.587968e+03	1.112195e+03	1	3.367516e-04
8.180000e+09	1.717269e+12	2.943378e-01	6.080402e-01	2.863622e+12	1.372678e+13	9.728400e+12	3.605641e+03	1.586599e+03	1.111236e+03	1	3.363351e-04
8.280000e+09	1.714176e+12	2.953415e-01	6.080402e-01	2.849622e+12	1.359400e+13	9.624747e+12	3.604030e+03	1.585248e+03	1.110290e+03	1	3.359213e-04
8.380000e+09	1.711092e+12	2.963353e-01	6.080402e-01	2.835854e+12	1.346399e+13	9.523201e+12	3.602440e+03	1.583915e+03	1.109356e+03	1	3.355103e-04
8.480000e+09	1.695065e+12	2.972930e-01	6.080402e-01	2.822311e+12	1.333664e+13	9.423685e+12	3.600870e+03	1.582599e+03	1.108435e+03	1	3.342586e-04
8.580000e+09	1.691962e+12	2.982601e-01	6.080402e-01	2.808769e+12	1.321180e+13	9.326127e+12	3.599280e+03	1.581300e+03	1.107525e+03	1	3.338519e-04
8.680000e+09	1.688869e+12	2.992181e-01	6.080402e-01	2.795443e+12	1.308944e+13	9.230458e+12	3.597709e+03	1.580017e+03	1.106627e+03	1	3.334479e-04
8.780000e+09	1.685785e+12	3.001670e-01	6.080402e-01	2.782327e+12	1.296948e+13	9.136612e+12	3.596158e+03	1.578751e+03	1.105739e+03	1	3.330465e-04
8.880000e+09	1.682711e+12	3.011071e-01	6.080402e-01	2.769415e+12	1.285183e+13	9.044527e+12	3.594625e+03	1.577499e+03	1.104863e+03	1	3.326478e-04
8.980000e+09	1.666996e+12	3.020132e-01	6.080402e-01	2.756703e+12	1.273643e+13	8.954142e+12	3.593111e+03	1.576262e+03	1.103997e+03	1	3.314208e-04
9.080000e+09	1.663907e+12	3.029289e-01	6.080402e-01	2.743974e+12	1.262311e+13	8.865401e+12	3.591576e+03	1.575040e+03	1.103141e+03	1	3.310259e-04
9.180000e+09	1.660828e+12	3.038363e-01	6.080402e-01	2.731437e+12	1.251189e+13	8.778251e+12	3.590059e+03	1.573832e+03	1.102295e+03	1	3.306335e-04
9.280000e+09	1.657761e+12	3.047355e-01	6.080402e-01	2.719087e+12	1.240270e+13	8.692639e+12	3.588559e+03	1.572638e+03	1.101458e+03	1	3.302438e-04
9.380000e+09	1.654704e+12	3.056266e-01	6.080402e-01	2.706919e+12	1.229547e+13	8.608517e+12	3.587077e+03	1.571457e+03	1.100631e+03	1	3.298565e-04
9.480000e+09	1.651659e+12	3.065099e-01	6.080402e-01	2.694928e+12	1.219013e+13	8.525838e+12	3.585611e+03	1.570289e+03	1.099813e+03	1	3.294717e-04
9.580000e+09	1.636730e+12	3.073620e-01	6.080402e-01	2.683111e+12	1.208665e+13	8.444557e+12	3.584163e+03	1.569133e+03	1.099003e+03	1	3.283009e-04
9.680000e+09	1.633674e+12	3.082234e-01	6.080402e-01	2.671268e+12	1.198488e+13	8.364631e+12	3.582693e+03	1.567990e+03	1.098203e+03	1	3.279195e-04
9.780000e+09	1.630629e+12	3.090774e-01	6.080402e-01	2.659592e+12	1.188483e+13	8.286020e+12	3.581240e+03	1.566858e+03	1.097410e+03	1	3.275406e-04
9.880000e+09	1.627597e+12	3.099240e-01	6.080402e-01	2.648080e+12	1.178647e+13	8.208685e+12	3.579803e+03	1.565738e+03	1.096626e+03	1	3.271641e-04
9.980000e+09	1.624576e+12	3.107634e-01	6.080402e-01	2.636727e+12	1.168973e+13	8.132588e+12	3.578382e+03	1.564629e+03	1.095849e+03	1	3.267899e-04
