#t		Qconv[W]	Ri[Rp]		R*[Rp]		Qc[W]		Qm[W]		Qr[W]		Tcmb[K]		Tl[K]		Tup[K]		RiFlag		Bs[T]
0.000000e+00	3.203385e+12	0.000000e+00	5.979902e-01	5.690969e+13	2.124948e+15	1.866695e+14	6.263279e+03	4.015792e+03	2.234311e+03	0	4.753903e-04
1.000000e+07	3.157408e+12	0.000000e+00	5.979902e-01	5.622487e+13	1.878910e+15	1.856353e+14	6.259145e+03	3.918715e+03	2.180299e+03	0	4.731049e-04
2.000000e+07	3.104167e+12	0.000000e+00	5.979902e-01	5.543293e+13	1.678856e+15	1.846087e+14	6.255061e+03	3.833816e+03	2.133063e+03	0	4.704306e-04
3.000000e+07	3.047519e+12	0.000000e+00	5.979902e-01	5.459081e+13	1.513815e+15	1.835898e+14	6.251034e+03	3.758870e+03	2.091365e+03	0	4.675514e-04
4.000000e+07	2.989808e+12	0.000000e+00	5.979902e-01	5.373310e+13	1.375903e+15	1.825786e+14	6.247068e+03	3.692172e+03	2.054255e+03	0	4.645813e-04
5.000000e+07	2.932458e+12	0.000000e+00	5.979902e-01	5.288081e+13	1.259343e+15	1.815748e+14	6.243164e+03	3.632389e+03	2.020992e+03	0	4.615915e-04
6.000000e+07	2.876319e+12	0.000000e+00	5.979902e-01	5.204649e+13	1.159827e+15	1.805786e+14	6.239322e+03	3.578464e+03	1.990990e+03	0	4.586270e-04
7.000000e+07	2.821885e+12	0.000000e+00	5.979902e-01	5.123741e+13	1.074090e+15	1.795897e+14	6.235540e+03	3.529552e+03	1.963776e+03	0	4.557154e-04
8.000000e+07	2.769422e+12	0.000000e+00	5.979902e-01	5.045751e+13	9.996193e+14	1.786083e+14	6.231817e+03	3.484964e+03	1.938968e+03	0	4.528735e-04
9.000000e+07	2.719053e+12	0.000000e+00	5.979902e-01	4.970860e+13	9.344573e+14	1.776341e+14	6.228151e+03	3.444135e+03	1.916251e+03	0	4.501112e-04
1.000000e+08	2.670809e+12	0.000000e+00	5.979902e-01	4.899114e+13	8.770585e+14	1.766672e+14	6.224539e+03	3.406596e+03	1.895366e+03	0	4.474332e-04
1.100000e+08	2.624667e+12	0.000000e+00	5.979902e-01	4.830476e+13	8.261899e+14	1.757074e+14	6.220979e+03	3.371955e+03	1.876092e+03	0	4.448415e-04
1.200000e+08	2.580565e+12	0.000000e+00	5.979902e-01	4.764858e+13	7.808576e+14	1.747547e+14	6.217469e+03	3.339882e+03	1.858247e+03	0	4.423359e-04
1.300000e+08	2.538424e+12	0.000000e+00	5.979902e-01	4.702139e+13	7.402527e+14	1.738091e+14	6.214006e+03	3.310095e+03	1.841674e+03	0	4.399149e-04
1.400000e+08	2.498152e+12	0.000000e+00	5.979902e-01	4.642186e+13	7.037114e+14	1.728705e+14	6.210589e+03	3.282353e+03	1.826239e+03	0	4.375760e-04
1.500000e+08	2.459653e+12	0.000000e+00	5.979902e-01	4.584856e+13	6.706846e+14	1.719389e+14	6.207215e+03	3.256449e+03	1.811827e+03	0	4.353166e-04
1.600000e+08	2.422830e+12	0.000000e+00	5.979902e-01	4.530006e+13	6.407144e+14	1.710141e+14	6.203883e+03	3.232204e+03	1.798337e+03	0	4.331333e-04
1.700000e+08	2.387587e+12	0.000000e+00	5.979902e-01	4.477493e+13	6.134166e+14	1.700961e+14	6.200591e+03	3.209460e+03	1.785683e+03	0	4.310229e-04
1.800000e+08	2.353833e+12	0.000000e+00	5.979902e-01	4.427183e+13	5.884669e+14	1.691849e+14	6.197337e+03	3.188081e+03	1.773788e+03	0	4.289820e-04
1.900000e+08	2.321478e+12	0.000000e+00	5.979902e-01	4.378944e+13	5.655894e+14	1.682804e+14	6.194119e+03	3.167946e+03	1.762585e+03	0	4.270074e-04
2.000000e+08	2.290441e+12	0.000000e+00	5.979902e-01	4.332654e+13	5.445488e+14	1.673826e+14	6.190937e+03	3.148949e+03	1.752016e+03	0	4.250959e-04
2.100000e+08	2.260642e+12	0.000000e+00	5.979902e-01	4.288196e+13	5.251426e+14	1.664914e+14	6.187788e+03	3.130996e+03	1.742027e+03	0	4.232443e-04
2.200000e+08	2.232007e+12	0.000000e+00	5.979902e-01	4.245462e+13	5.071965e+14	1.656067e+14	6.184671e+03	3.114001e+03	1.732571e+03	0	4.214497e-04
2.300000e+08	2.204468e+12	0.000000e+00	5.979902e-01	4.204350e+13	4.905588e+14	1.647285e+14	6.181585e+03	3.097891e+03	1.723608e+03	0	4.197092e-04
2.400000e+08	2.177961e+12	0.000000e+00	5.979902e-01	4.164764e+13	4.750980e+14	1.638568e+14	6.178529e+03	3.082596e+03	1.715098e+03	0	4.180202e-04
2.500000e+08	2.152425e+12	0.000000e+00	5.979902e-01	4.126616e+13	4.606987e+14	1.629914e+14	6.175502e+03	3.068058e+03	1.707009e+03	0	4.163800e-04
2.600000e+08	2.127804e+12	0.000000e+00	5.979902e-01	4.089823e+13	4.472599e+14	1.621324e+14	6.172503e+03	3.054220e+03	1.699311e+03	0	4.147863e-04
2.700000e+08	2.104047e+12	0.000000e+00	5.979902e-01	4.054308e+13	4.346923e+14	1.612797e+14	6.169530e+03	3.041034e+03	1.691974e+03	0	4.132368e-04
2.800000e+08	2.081104e+12	0.000000e+00	5.979902e-01	4.020000e+13	4.229174e+14	1.604331e+14	6.166583e+03	3.028455e+03	1.684975e+03	0	4.117294e-04
2.900000e+08	2.058931e+12	0.000000e+00	5.979902e-01	3.986830e+13	4.118652e+14	1.595928e+14	6.163661e+03	3.016441e+03	1.678291e+03	0	4.102619e-04
3.000000e+08	2.037486e+12	0.000000e+00	5.979902e-01	3.954738e+13	4.014736e+14	1.587586e+14	6.160763e+03	3.004956e+03	1.671901e+03	0	4.088325e-04
3.100000e+08	2.016728e+12	0.000000e+00	5.979902e-01	3.923665e+13	3.916872e+14	1.579305e+14	6.157888e+03	2.993965e+03	1.665785e+03	0	4.074394e-04
3.200000e+08	1.996622e+12	0.000000e+00	5.979902e-01	3.893557e+13	3.824564e+14	1.571083e+14	6.155036e+03	2.983437e+03	1.659928e+03	0	4.060809e-04
3.300000e+08	1.977134e+12	0.000000e+00	5.979902e-01	3.864363e+13	3.737367e+14	1.562922e+14	6.152206e+03	2.973343e+03	1.654312e+03	0	4.047553e-04
3.400000e+08	1.958230e+12	0.000000e+00	5.979902e-01	3.836036e+13	3.654881e+14	1.554820e+14	6.149397e+03	2.963658e+03	1.648923e+03	0	4.034612e-04
3.500000e+08	1.939882e+12	0.000000e+00	5.979902e-01	3.808532e+13	3.576746e+14	1.546777e+14	6.146608e+03	2.954356e+03	1.643748e+03	0	4.021972e-04
3.600000e+08	1.922062e+12	0.000000e+00	5.979902e-01	3.781810e+13	3.502634e+14	1.538792e+14	6.143840e+03	2.945416e+03	1.638774e+03	0	4.009618e-04
3.700000e+08	1.904743e+12	0.000000e+00	5.979902e-01	3.755830e+13	3.432252e+14	1.530865e+14	6.141091e+03	2.936817e+03	1.633990e+03	0	3.997539e-04
3.800000e+08	1.887901e+12	0.000000e+00	5.979902e-01	3.730557e+13	3.365330e+14	1.522995e+14	6.138360e+03	2.928540e+03	1.629384e+03	0	3.985722e-04
3.900000e+08	1.871513e+12	0.000000e+00	5.979902e-01	3.705957e+13	3.301626e+14	1.515182e+14	6.135648e+03	2.920566e+03	1.624948e+03	0	3.974156e-04
4.000000e+08	1.855558e+12	0.000000e+00	5.979902e-01	3.681998e+13	3.240917e+14	1.507425e+14	6.132954e+03	2.912880e+03	1.620671e+03	0	3.962830e-04
4.100000e+08	1.840015e+12	0.000000e+00	5.979902e-01	3.658650e+13	3.183000e+14	1.499725e+14	6.130278e+03	2.905466e+03	1.616546e+03	0	3.951734e-04
4.200000e+08	1.824865e+12	0.000000e+00	5.979902e-01	3.635885e+13	3.127690e+14	1.492080e+14	6.127618e+03	2.898310e+03	1.612565e+03	0	3.940858e-04
4.300000e+08	1.810090e+12	0.000000e+00	5.979902e-01	3.613676e+13	3.074817e+14	1.484490e+14	6.124975e+03	2.891398e+03	1.608719e+03	0	3.930194e-04
4.400000e+08	1.795674e+12	0.000000e+00	5.979902e-01	3.591999e+13	3.024225e+14	1.476954e+14	6.122348e+03	2.884718e+03	1.605003e+03	0	3.919732e-04
4.500000e+08	1.781601e+12	0.000000e+00	5.979902e-01	3.570830e+13	2.975771e+14	1.469473e+14	6.119737e+03	2.878259e+03	1.601409e+03	0	3.909465e-04
4.600000e+08	1.767856e+12	0.000000e+00	5.979902e-01	3.550147e+13	2.929322e+14	1.462046e+14	6.117141e+03	2.872009e+03	1.597931e+03	0	3.899385e-04
4.700000e+08	1.754424e+12	0.000000e+00	5.979902e-01	3.529929e+13	2.884758e+14	1.454671e+14	6.114560e+03	2.865958e+03	1.594565e+03	0	3.889485e-04
4.800000e+08	1.741293e+12	0.000000e+00	5.979902e-01	3.510157e+13	2.841964e+14	1.447350e+14	6.111994e+03	2.860098e+03	1.591304e+03	0	3.879757e-04
4.900000e+08	1.728450e+12	0.000000e+00	5.979902e-01	3.490813e+13	2.800839e+14	1.440081e+14	6.109442e+03	2.854418e+03	1.588144e+03	0	3.870195e-04
5.000000e+08	1.715882e+12	0.000000e+00	5.979902e-01	3.471877e+13	2.761285e+14	1.432864e+14	6.106904e+03	2.848910e+03	1.585080e+03	0	3.860792e-04
5.100000e+08	1.703580e+12	0.000000e+00	5.979902e-01	3.453335e+13	2.723214e+14	1.425699e+14	6.104380e+03	2.843567e+03	1.582107e+03	0	3.851543e-04
5.200000e+08	1.691532e+12	0.000000e+00	5.979902e-01	3.435170e+13	2.686542e+14	1.418584e+14	6.101869e+03	2.838381e+03	1.579222e+03	0	3.842442e-04
5.300000e+08	1.679728e+12	0.000000e+00	5.979902e-01	3.417367e+13	2.651192e+14	1.411521e+14	6.099372e+03	2.833345e+03	1.576420e+03	0	3.833483e-04
5.400000e+08	1.668159e+12	0.000000e+00	5.979902e-01	3.399913e+13	2.617094e+14	1.404507e+14	6.096887e+03	2.828452e+03	1.573697e+03	0	3.824662e-04
5.500000e+08	1.656815e+12	0.000000e+00	5.979902e-01	3.382793e+13	2.584180e+14	1.397544e+14	6.094415e+03	2.823697e+03	1.571051e+03	0	3.815973e-04
5.600000e+08	1.645689e+12	0.000000e+00	5.979902e-01	3.365996e+13	2.552389e+14	1.390630e+14	6.091956e+03	2.819072e+03	1.568478e+03	0	3.807411e-04
5.700000e+08	1.634771e+12	0.000000e+00	5.979902e-01	3.349509e+13	2.521662e+14	1.383765e+14	6.089509e+03	2.814573e+03	1.565975e+03	0	3.798973e-04
5.800000e+08	1.624054e+12	0.000000e+00	5.979902e-01	3.333320e+13	2.491945e+14	1.376949e+14	6.087074e+03	2.810194e+03	1.563539e+03	0	3.790654e-04
5.900000e+08	1.613532e+12	0.000000e+00	5.979902e-01	3.317420e+13	2.463187e+14	1.370182e+14	6.084650e+03	2.805930e+03	1.561167e+03	0	3.782449e-04
6.000000e+08	1.603196e+12	0.000000e+00	5.979902e-01	3.301797e+13	2.435341e+14	1.363462e+14	6.082238e+03	2.801777e+03	1.558856e+03	0	3.774355e-04
6.100000e+08	1.593041e+12	0.000000e+00	5.979902e-01	3.286441e+13	2.408362e+14	1.356789e+14	6.079838e+03	2.797730e+03	1.556604e+03	0	3.766369e-04
6.200000e+08	1.583059e+12	0.000000e+00	5.979902e-01	3.271344e+13	2.382209e+14	1.350164e+14	6.077448e+03	2.793784e+03	1.554409e+03	0	3.758486e-04
6.300000e+08	1.573245e+12	0.000000e+00	5.979902e-01	3.256497e+13	2.356843e+14	1.343586e+14	6.075070e+03	2.789936e+03	1.552268e+03	0	3.750703e-04
6.400000e+08	1.563594e+12	0.000000e+00	5.979902e-01	3.241890e+13	2.332226e+14	1.337054e+14	6.072702e+03	2.786182e+03	1.550179e+03	0	3.743018e-04
6.500000e+08	1.554099e+12	0.000000e+00	5.979902e-01	3.227516e+13	2.308324e+14	1.330568e+14	6.070345e+03	2.782518e+03	1.548140e+03	0	3.735426e-04
6.600000e+08	1.544755e+12	0.000000e+00	5.979902e-01	3.213367e+13	2.285104e+14	1.324128e+14	6.067999e+03	2.778940e+03	1.546150e+03	0	3.727924e-04
6.700000e+08	1.535558e+12	0.000000e+00	5.979902e-01	3.199435e+13	2.262537e+14	1.317733e+14	6.065662e+03	2.775446e+03	1.544206e+03	0	3.720511e-04
6.800000e+08	1.526502e+12	0.000000e+00	5.979902e-01	3.185715e+13	2.240592e+14	1.311382e+14	6.063336e+03	2.772032e+03	1.542306e+03	0	3.713183e-04
6.900000e+08	1.517584e+12	0.000000e+00	5.979902e-01	3.172198e+13	2.219242e+14	1.305077e+14	6.061020e+03	2.768695e+03	1.540450e+03	0	3.705938e-04
7.000000e+08	1.508798e+12	0.000000e+00	5.979902e-01	3.158878e+13	2.198462e+14	1.298815e+14	6.058714e+03	2.765433e+03	1.538634e+03	0	3.698773e-04
7.100000e+08	1.500141e+12	0.000000e+00	5.979902e-01	3.145750e+13	2.178228e+14	1.292598e+14	6.056417e+03	2.762242e+03	1.536859e+03	0	3.691685e-04
7.200000e+08	1.491609e+12	0.000000e+00	5.979902e-01	3.132807e+13	2.158516e+14	1.286424e+14	6.054130e+03	2.759119e+03	1.535122e+03	0	3.684672e-04
7.300000e+08	1.483197e+12	0.000000e+00	5.979902e-01	3.120044e+13	2.139305e+14	1.280293e+14	6.051852e+03	2.756064e+03	1.533422e+03	0	3.677733e-04
7.400000e+08	1.474903e+12	0.000000e+00	5.979902e-01	3.107455e+13	2.120573e+14	1.274205e+14	6.049583e+03	2.753072e+03	1.531757e+03	0	3.670864e-04
7.500000e+08	1.466722e+12	0.000000e+00	5.979902e-01	3.095036e+13	2.102303e+14	1.268159e+14	6.047324e+03	2.750143e+03	1.530127e+03	0	3.664065e-04
7.600000e+08	1.458651e+12	0.000000e+00	5.979902e-01	3.082780e+13	2.084474e+14	1.262155e+14	6.045074e+03	2.747273e+03	1.528531e+03	0	3.657332e-04
7.700000e+08	1.450688e+12	0.000000e+00	5.979902e-01	3.070684e+13	2.067070e+14	1.256194e+14	6.042832e+03	2.744460e+03	1.526966e+03	0	3.650664e-04
7.800000e+08	1.442829e+12	0.000000e+00	5.979902e-01	3.058743e+13	2.050073e+14	1.250273e+14	6.040599e+03	2.741703e+03	1.525432e+03	0	3.644060e-04
7.900000e+08	1.435070e+12	0.000000e+00	5.979902e-01	3.046952e+13	2.033469e+14	1.244394e+14	6.038375e+03	2.739000e+03	1.523928e+03	0	3.637516e-04
8.000000e+08	1.427410e+12	0.000000e+00	5.979902e-01	3.035308e+13	2.017242e+14	1.238555e+14	6.036160e+03	2.736349e+03	1.522453e+03	0	3.631033e-04
8.100000e+08	1.419846e+12	0.000000e+00	5.979902e-01	3.023806e+13	2.001377e+14	1.232757e+14	6.033953e+03	2.733748e+03	1.521006e+03	0	3.624607e-04
8.200000e+08	1.412374e+12	0.000000e+00	5.979902e-01	3.012442e+13	1.985862e+14	1.227000e+14	6.031754e+03	2.731195e+03	1.519585e+03	0	3.618238e-04
8.300000e+08	1.404993e+12	0.000000e+00	5.979902e-01	3.001213e+13	1.970683e+14	1.221281e+14	6.029564e+03	2.728689e+03	1.518191e+03	0	3.611924e-04
8.400000e+08	1.397700e+12	0.000000e+00	5.979902e-01	2.990115e+13	1.955828e+14	1.215603e+14	6.027382e+03	2.726229e+03	1.516822e+03	0	3.605664e-04
8.500000e+08	1.390492e+12	0.000000e+00	5.979902e-01	2.979145e+13	1.941285e+14	1.209963e+14	6.025208e+03	2.723812e+03	1.515478e+03	0	3.599455e-04
8.600000e+08	1.383368e+12	0.000000e+00	5.979902e-01	2.968299e+13	1.927043e+14	1.204363e+14	6.023041e+03	2.721438e+03	1.514157e+03	0	3.593298e-04
8.700000e+08	1.376326e+12	0.000000e+00	5.979902e-01	2.957574e+13	1.913092e+14	1.198801e+14	6.020883e+03	2.719105e+03	1.512859e+03	0	3.587189e-04
8.800000e+08	1.369362e+12	0.000000e+00	5.979902e-01	2.946967e+13	1.899421e+14	1.193277e+14	6.018733e+03	2.716812e+03	1.511583e+03	0	3.581129e-04
8.900000e+08	1.362476e+12	0.000000e+00	5.979902e-01	2.936476e+13	1.886021e+14	1.187791e+14	6.016590e+03	2.714557e+03	1.510328e+03	0	3.575116e-04
9.000000e+08	1.355665e+12	0.000000e+00	5.979902e-01	2.926097e+13	1.872882e+14	1.182343e+14	6.014455e+03	2.712340e+03	1.509095e+03	0	3.569149e-04
9.100000e+08	1.348927e+12	0.000000e+00	5.979902e-01	2.915827e+13	1.859996e+14	1.176933e+14	6.012327e+03	2.710159e+03	1.507881e+03	0	3.563226e-04
9.200000e+08	1.342262e+12	0.000000e+00	5.979902e-01	2.905664e+13	1.847354e+14	1.171559e+14	6.010207e+03	2.708013e+03	1.506687e+03	0	3.557347e-04
9.300000e+08	1.335666e+12	0.000000e+00	5.979902e-01	2.895606e+13	1.834948e+14	1.166222e+14	6.008094e+03	2.705901e+03	1.505512e+03	0	3.551511e-04
9.400000e+08	1.329138e+12	0.000000e+00	5.979902e-01	2.885650e+13	1.822770e+14	1.160921e+14	6.005988e+03	2.703822e+03	1.504355e+03	0	3.545716e-04
9.500000e+08	1.322677e+12	0.000000e+00	5.979902e-01	2.875793e+13	1.810813e+14	1.155657e+14	6.003890e+03	2.701775e+03	1.503217e+03	0	3.539962e-04
9.600000e+08	1.316282e+12	0.000000e+00	5.979902e-01	2.866033e+13	1.799070e+14	1.150429e+14	6.001799e+03	2.699759e+03	1.502095e+03	0	3.534247e-04
9.700000e+08	1.309950e+12	0.000000e+00	5.979902e-01	2.856369e+13	1.787535e+14	1.145236e+14	5.999715e+03	2.697774e+03	1.500990e+03	0	3.528570e-04
9.800000e+08	1.303680e+12	0.000000e+00	5.979902e-01	2.846798e+13	1.776199e+14	1.140078e+14	5.997638e+03	2.695817e+03	1.499902e+03	0	3.522932e-04
9.900000e+08	1.297471e+12	0.000000e+00	5.979902e-01	2.837317e+13	1.765059e+14	1.134956e+14	5.995568e+03	2.693889e+03	1.498829e+03	0	3.517330e-04
1.000000e+09	1.291322e+12	0.000000e+00	5.979902e-01	2.827925e+13	1.754107e+14	1.129868e+14	5.993505e+03	2.691989e+03	1.497772e+03	0	3.511765e-04
1.010000e+09	1.285231e+12	0.000000e+00	5.979902e-01	2.818621e+13	1.743337e+14	1.124815e+14	5.991449e+03	2.690115e+03	1.496729e+03	0	3.506235e-04
1.020000e+09	1.279197e+12	0.000000e+00	5.979902e-01	2.809401e+13	1.732745e+14	1.119796e+14	5.989399e+03	2.688268e+03	1.495702e+03	0	3.500739e-04
1.030000e+09	1.273219e+12	0.000000e+00	5.979902e-01	2.800265e+13	1.722325e+14	1.114811e+14	5.987356e+03	2.686446e+03	1.494688e+03	0	3.495277e-04
1.040000e+09	1.267295e+12	0.000000e+00	5.979902e-01	2.791210e+13	1.712072e+14	1.109860e+14	5.985320e+03	2.684649e+03	1.493688e+03	0	3.489848e-04
1.050000e+09	1.261425e+12	0.000000e+00	5.979902e-01	2.782236e+13	1.701980e+14	1.104942e+14	5.983290e+03	2.682875e+03	1.492701e+03	0	3.484451e-04
1.060000e+09	1.255607e+12	0.000000e+00	5.979902e-01	2.773339e+13	1.692047e+14	1.100058e+14	5.981267e+03	2.681125e+03	1.491727e+03	0	3.479086e-04
1.070000e+09	1.249841e+12	0.000000e+00	5.979902e-01	2.764520e+13	1.682266e+14	1.095206e+14	5.979251e+03	2.679398e+03	1.490766e+03	0	3.473752e-04
1.080000e+09	1.244124e+12	0.000000e+00	5.979902e-01	2.755775e+13	1.672634e+14	1.090387e+14	5.977240e+03	2.677692e+03	1.489817e+03	0	3.468448e-04
1.090000e+09	1.238457e+12	0.000000e+00	5.979902e-01	2.747104e+13	1.663147e+14	1.085600e+14	5.975236e+03	2.676008e+03	1.488880e+03	0	3.463174e-04
1.100000e+09	1.232839e+12	0.000000e+00	5.979902e-01	2.738506e+13	1.653800e+14	1.080846e+14	5.973239e+03	2.674345e+03	1.487955e+03	0	3.457928e-04
1.110000e+09	1.227268e+12	0.000000e+00	5.979902e-01	2.729978e+13	1.644589e+14	1.076123e+14	5.971247e+03	2.672703e+03	1.487041e+03	0	3.452712e-04
1.120000e+09	1.221743e+12	0.000000e+00	5.979902e-01	2.721520e+13	1.635512e+14	1.071432e+14	5.969262e+03	2.671080e+03	1.486138e+03	0	3.447523e-04
1.130000e+09	1.216264e+12	0.000000e+00	5.979902e-01	2.713131e+13	1.626564e+14	1.066772e+14	5.967283e+03	2.669476e+03	1.485246e+03	0	3.442362e-04
1.140000e+09	1.210830e+12	0.000000e+00	5.979902e-01	2.704808e+13	1.617743e+14	1.062144e+14	5.965310e+03	2.667892e+03	1.484365e+03	0	3.437227e-04
1.150000e+09	1.205439e+12	0.000000e+00	5.979902e-01	2.696551e+13	1.609044e+14	1.057546e+14	5.963343e+03	2.666325e+03	1.483493e+03	0	3.432119e-04
1.160000e+09	1.200092e+12	0.000000e+00	5.979902e-01	2.688359e+13	1.600464e+14	1.052979e+14	5.961383e+03	2.664777e+03	1.482632e+03	0	3.427037e-04
1.170000e+09	1.194787e+12	0.000000e+00	5.979902e-01	2.680230e+13	1.592001e+14	1.048443e+14	5.959428e+03	2.663246e+03	1.481780e+03	0	3.421980e-04
1.180000e+09	1.189524e+12	0.000000e+00	5.979902e-01	2.672163e+13	1.583652e+14	1.043936e+14	5.957479e+03	2.661732e+03	1.480937e+03	0	3.416947e-04
1.190000e+09	1.184301e+12	0.000000e+00	5.979902e-01	2.664157e+13	1.575413e+14	1.039460e+14	5.955535e+03	2.660235e+03	1.480104e+03	0	3.411939e-04
1.200000e+09	1.179119e+12	0.000000e+00	5.979902e-01	2.656212e+13	1.567283e+14	1.035013e+14	5.953598e+03	2.658753e+03	1.479280e+03	0	3.406956e-04
1.210000e+09	1.173976e+12	0.000000e+00	5.979902e-01	2.648326e+13	1.559257e+14	1.030596e+14	5.951667e+03	2.657288e+03	1.478465e+03	0	3.401995e-04
1.220000e+09	1.168872e+12	0.000000e+00	5.979902e-01	2.640498e+13	1.551334e+14	1.026208e+14	5.949741e+03	2.655838e+03	1.477658e+03	0	3.397058e-04
1.230000e+09	1.163807e+12	0.000000e+00	5.979902e-01	2.632727e+13	1.543512e+14	1.021850e+14	5.947821e+03	2.654403e+03	1.476859e+03	0	3.392143e-04
1.240000e+09	1.158778e+12	0.000000e+00	5.979902e-01	2.625012e+13	1.535787e+14	1.017519e+14	5.945906e+03	2.652982e+03	1.476069e+03	0	3.387251e-04
1.250000e+09	1.153787e+12	0.000000e+00	5.979902e-01	2.617353e+13	1.528158e+14	1.013218e+14	5.943997e+03	2.651576e+03	1.475287e+03	0	3.382380e-04
1.260000e+09	1.148832e+12	0.000000e+00	5.979902e-01	2.609748e+13	1.520622e+14	1.008945e+14	5.942094e+03	2.650184e+03	1.474512e+03	0	3.377531e-04
1.270000e+09	1.143912e+12	0.000000e+00	5.979902e-01	2.602197e+13	1.513178e+14	1.004700e+14	5.940196e+03	2.648806e+03	1.473745e+03	0	3.372703e-04
1.280000e+09	1.139028e+12	0.000000e+00	5.979902e-01	2.594698e+13	1.505822e+14	1.000483e+14	5.938304e+03	2.647441e+03	1.472986e+03	0	3.367896e-04
1.290000e+09	1.134178e+12	0.000000e+00	5.979902e-01	2.587251e+13	1.498554e+14	9.962936e+13	5.936417e+03	2.646089e+03	1.472234e+03	0	3.363109e-04
1.300000e+09	1.129363e+12	0.000000e+00	5.979902e-01	2.579855e+13	1.491370e+14	9.921318e+13	5.934535e+03	2.644749e+03	1.471489e+03	0	3.358343e-04
1.310000e+09	1.124580e+12	0.000000e+00	5.979902e-01	2.572510e+13	1.484270e+14	9.879973e+13	5.932659e+03	2.643423e+03	1.470750e+03	0	3.353596e-04
1.320000e+09	1.119831e+12	0.000000e+00	5.979902e-01	2.565214e+13	1.477251e+14	9.838898e+13	5.930789e+03	2.642108e+03	1.470019e+03	0	3.348869e-04
1.330000e+09	1.115115e+12	0.000000e+00	5.979902e-01	2.557967e+13	1.470312e+14	9.798092e+13	5.928923e+03	2.640805e+03	1.469294e+03	0	3.344160e-04
1.340000e+09	1.110430e+12	0.000000e+00	5.979902e-01	2.550768e+13	1.463451e+14	9.757553e+13	5.927063e+03	2.639514e+03	1.468576e+03	0	3.339471e-04
1.350000e+09	1.105777e+12	0.000000e+00	5.979902e-01	2.543616e+13	1.456666e+14	9.717278e+13	5.925208e+03	2.638235e+03	1.467864e+03	0	3.334800e-04
1.360000e+09	1.101155e+12	0.000000e+00	5.979902e-01	2.536511e+13	1.449956e+14	9.677266e+13	5.923358e+03	2.636966e+03	1.467158e+03	0	3.330147e-04
