#t		Qconv[W]	Ri[Rp]		R*[Rp]		Qc[W]		Qm[W]		Qr[W]		Tcmb[K]		Tl[K]		Tup[K]		RiFlag		Bs[T]
0.000000e+00	4.719464e+12	0.000000e+00	5.929649e-01	7.872682e+13	2.419874e+15	2.205732e+14	6.963242e+03	4.355125e+03	2.289744e+03	0	5.395140e-04
1.000000e+07	4.642326e+12	0.000000e+00	5.929649e-01	7.767409e+13	2.161148e+15	2.193511e+14	6.958466e+03	4.259733e+03	2.239591e+03	0	5.365584e-04
2.000000e+07	4.559132e+12	0.000000e+00	5.929649e-01	7.653966e+13	1.947647e+15	2.181381e+14	6.953754e+03	4.175511e+03	2.195311e+03	0	5.333339e-04
3.000000e+07	4.473640e+12	0.000000e+00	5.929649e-01	7.537433e+13	1.769216e+15	2.169342e+14	6.949110e+03	4.100545e+03	2.155897e+03	0	5.299792e-04
4.000000e+07	4.388159e+12	0.000000e+00	5.929649e-01	7.420929e+13	1.618402e+15	2.157392e+14	6.944537e+03	4.033341e+03	2.120564e+03	0	5.265819e-04
5.000000e+07	4.304095e+12	0.000000e+00	5.929649e-01	7.306356e+13	1.489642e+15	2.145532e+14	6.940034e+03	3.972713e+03	2.088688e+03	0	5.231976e-04
6.000000e+07	4.222283e+12	0.000000e+00	5.929649e-01	7.194840e+13	1.378715e+15	2.133760e+14	6.935601e+03	3.917712e+03	2.059771e+03	0	5.198614e-04
7.000000e+07	4.143194e+12	0.000000e+00	5.929649e-01	7.087019e+13	1.282371e+15	2.122076e+14	6.931235e+03	3.867564e+03	2.033405e+03	0	5.165950e-04
8.000000e+07	4.067066e+12	0.000000e+00	5.929649e-01	6.983214e+13	1.198077e+15	2.110478e+14	6.926934e+03	3.821636e+03	2.009258e+03	0	5.134114e-04
9.000000e+07	3.993990e+12	0.000000e+00	5.929649e-01	6.883546e+13	1.123833e+15	2.098967e+14	6.922697e+03	3.779401e+03	1.987053e+03	0	5.103179e-04
1.000000e+08	3.923958e+12	0.000000e+00	5.929649e-01	6.788006e+13	1.058042e+15	2.087542e+14	6.918519e+03	3.740419e+03	1.966557e+03	0	5.073176e-04
1.100000e+08	3.856908e+12	0.000000e+00	5.929649e-01	6.696507e+13	9.994180e+14	2.076201e+14	6.914400e+03	3.704318e+03	1.947577e+03	0	5.044114e-04
1.200000e+08	3.792736e+12	0.000000e+00	5.929649e-01	6.608911e+13	9.469134e+14	2.064944e+14	6.910336e+03	3.670783e+03	1.929945e+03	0	5.015983e-04
1.300000e+08	3.731323e+12	0.000000e+00	5.929649e-01	6.525054e+13	8.996684e+14	2.053771e+14	6.906325e+03	3.639542e+03	1.913521e+03	0	4.988761e-04
1.400000e+08	3.672534e+12	0.000000e+00	5.929649e-01	6.444755e+13	8.569720e+14	2.042680e+14	6.902365e+03	3.610365e+03	1.898181e+03	0	4.962423e-04
1.500000e+08	3.616236e+12	0.000000e+00	5.929649e-01	6.367831e+13	8.182312e+14	2.031671e+14	6.898453e+03	3.583049e+03	1.883819e+03	0	4.936935e-04
1.600000e+08	3.562291e+12	0.000000e+00	5.929649e-01	6.294099e+13	7.829487e+14	2.020744e+14	6.894588e+03	3.557418e+03	1.870343e+03	0	4.912263e-04
1.700000e+08	3.510569e+12	0.000000e+00	5.929649e-01	6.223380e+13	7.507043e+14	2.009897e+14	6.890768e+03	3.533318e+03	1.857672e+03	0	4.888373e-04
1.800000e+08	3.460942e+12	0.000000e+00	5.929649e-01	6.155501e+13	7.211410e+14	1.999130e+14	6.886991e+03	3.510615e+03	1.845736e+03	0	4.865229e-04
1.900000e+08	3.413289e+12	0.000000e+00	5.929649e-01	6.090299e+13	6.939540e+14	1.988442e+14	6.883255e+03	3.489189e+03	1.834471e+03	0	4.842796e-04
2.000000e+08	3.367496e+12	0.000000e+00	5.929649e-01	6.027619e+13	6.688813e+14	1.977833e+14	6.879558e+03	3.468934e+03	1.823822e+03	0	4.821041e-04
2.100000e+08	3.323454e+12	0.000000e+00	5.929649e-01	5.967315e+13	6.456970e+14	1.967302e+14	6.875899e+03	3.449755e+03	1.813738e+03	0	4.799931e-04
2.200000e+08	3.281063e+12	0.000000e+00	5.929649e-01	5.909248e+13	6.242053e+14	1.956849e+14	6.872277e+03	3.431568e+03	1.804177e+03	0	4.779436e-04
2.300000e+08	3.240228e+12	0.000000e+00	5.929649e-01	5.853292e+13	6.042354e+14	1.946472e+14	6.868690e+03	3.414298e+03	1.795097e+03	0	4.759525e-04
2.400000e+08	3.200859e+12	0.000000e+00	5.929649e-01	5.799325e+13	5.856384e+14	1.936171e+14	6.865137e+03	3.397877e+03	1.786463e+03	0	4.740171e-04
2.500000e+08	3.162875e+12	0.000000e+00	5.929649e-01	5.747236e+13	5.682833e+14	1.925946e+14	6.861617e+03	3.382243e+03	1.778243e+03	0	4.721346e-04
2.600000e+08	3.126198e+12	0.000000e+00	5.929649e-01	5.696921e+13	5.520548e+14	1.915796e+14	6.858128e+03	3.367340e+03	1.770408e+03	0	4.703025e-04
2.700000e+08	3.090755e+12	0.000000e+00	5.929649e-01	5.648280e+13	5.368512e+14	1.905719e+14	6.854670e+03	3.353119e+03	1.762931e+03	0	4.685184e-04
2.800000e+08	3.056480e+12	0.000000e+00	5.929649e-01	5.601223e+13	5.225820e+14	1.895717e+14	6.851241e+03	3.339533e+03	1.755788e+03	0	4.667801e-04
2.900000e+08	3.023310e+12	0.000000e+00	5.929649e-01	5.555666e+13	5.091668e+14	1.885787e+14	6.847841e+03	3.326541e+03	1.748957e+03	0	4.650854e-04
3.000000e+08	2.991186e+12	0.000000e+00	5.929649e-01	5.511528e+13	4.965341e+14	1.875930e+14	6.844468e+03	3.314104e+03	1.742419e+03	0	4.634323e-04
3.100000e+08	2.960052e+12	0.000000e+00	5.929649e-01	5.468735e+13	4.846196e+14	1.866144e+14	6.841122e+03	3.302188e+03	1.736154e+03	0	4.618188e-04
3.200000e+08	2.929859e+12	0.000000e+00	5.929649e-01	5.427218e+13	4.733658e+14	1.856430e+14	6.837802e+03	3.290760e+03	1.730145e+03	0	4.602432e-04
3.300000e+08	2.900558e+12	0.000000e+00	5.929649e-01	5.386912e+13	4.627210e+14	1.846786e+14	6.834508e+03	3.279791e+03	1.724379e+03	0	4.587038e-04
3.400000e+08	2.872104e+12	0.000000e+00	5.929649e-01	5.347757e+13	4.526385e+14	1.837213e+14	6.831237e+03	3.269254e+03	1.718839e+03	0	4.571989e-04
3.500000e+08	2.844456e+12	0.000000e+00	5.929649e-01	5.309695e+13	4.430763e+14	1.827709e+14	6.827991e+03	3.259124e+03	1.713512e+03	0	4.557271e-04
3.600000e+08	2.817574e+12	0.000000e+00	5.929649e-01	5.272673e+13	4.339960e+14	1.818273e+14	6.824767e+03	3.249377e+03	1.708388e+03	0	4.542869e-04
3.700000e+08	2.791421e+12	0.000000e+00	5.929649e-01	5.236642e+13	4.253631e+14	1.808906e+14	6.821566e+03	3.239992e+03	1.703454e+03	0	4.528770e-04
3.800000e+08	2.765963e+12	0.000000e+00	5.929649e-01	5.201555e+13	4.171461e+14	1.799607e+14	6.818387e+03	3.230949e+03	1.698699e+03	0	4.514960e-04
3.900000e+08	2.741167e+12	0.000000e+00	5.929649e-01	5.167367e+13	4.093163e+14	1.790375e+14	6.815229e+03	3.222230e+03	1.694115e+03	0	4.501428e-04
4.000000e+08	2.717003e+12	0.000000e+00	5.929649e-01	5.134038e+13	4.018474e+14	1.781210e+14	6.812092e+03	3.213818e+03	1.689692e+03	0	4.488162e-04
4.100000e+08	2.693442e+12	0.000000e+00	5.929649e-01	5.101528e+13	3.947155e+14	1.772111e+14	6.808975e+03	3.205695e+03	1.685422e+03	0	4.475151e-04
4.200000e+08	2.670458e+12	0.000000e+00	5.929649e-01	5.069801e+13	3.878986e+14	1.763077e+14	6.805878e+03	3.197849e+03	1.681297e+03	0	4.462385e-04
4.300000e+08	2.648024e+12	0.000000e+00	5.929649e-01	5.038823e+13	3.813765e+14	1.754109e+14	6.802800e+03	3.190264e+03	1.677309e+03	0	4.449854e-04
4.400000e+08	2.626117e+12	0.000000e+00	5.929649e-01	5.008560e+13	3.751308e+14	1.745205e+14	6.799741e+03	3.182927e+03	1.673451e+03	0	4.437549e-04
4.500000e+08	2.604715e+12	0.000000e+00	5.929649e-01	4.978983e+13	3.691444e+14	1.736365e+14	6.796700e+03	3.175827e+03	1.669718e+03	0	4.425461e-04
4.600000e+08	2.583795e+12	0.000000e+00	5.929649e-01	4.950063e+13	3.634015e+14	1.727588e+14	6.793677e+03	3.168952e+03	1.666104e+03	0	4.413582e-04
4.700000e+08	2.563338e+12	0.000000e+00	5.929649e-01	4.921772e+13	3.578877e+14	1.718875e+14	6.790672e+03	3.162291e+03	1.662602e+03	0	4.401903e-04
4.800000e+08	2.543325e+12	0.000000e+00	5.929649e-01	4.894084e+13	3.525895e+14	1.710224e+14	6.787683e+03	3.155834e+03	1.659207e+03	0	4.390417e-04
4.900000e+08	2.523738e+12	0.000000e+00	5.929649e-01	4.866975e+13	3.474945e+14	1.701634e+14	6.784712e+03	3.149571e+03	1.655914e+03	0	4.379117e-04
5.000000e+08	2.504560e+12	0.000000e+00	5.929649e-01	4.840423e+13	3.425912e+14	1.693107e+14	6.781757e+03	3.143495e+03	1.652720e+03	0	4.367996e-04
5.100000e+08	2.485774e+12	0.000000e+00	5.929649e-01	4.814404e+13	3.378689e+14	1.684640e+14	6.778818e+03	3.137596e+03	1.649618e+03	0	4.357048e-04
5.200000e+08	2.467365e+12	0.000000e+00	5.929649e-01	4.788899e+13	3.333175e+14	1.676233e+14	6.775895e+03	3.131866e+03	1.646606e+03	0	4.346266e-04
5.300000e+08	2.449320e+12	0.000000e+00	5.929649e-01	4.763887e+13	3.289280e+14	1.667887e+14	6.772987e+03	3.126299e+03	1.643678e+03	0	4.335644e-04
5.400000e+08	2.431623e+12	0.000000e+00	5.929649e-01	4.739351e+13	3.246917e+14	1.659600e+14	6.770095e+03	3.120886e+03	1.640833e+03	0	4.325177e-04
5.500000e+08	2.414263e+12	0.000000e+00	5.929649e-01	4.715272e+13	3.206005e+14	1.651372e+14	6.767217e+03	3.115622e+03	1.638065e+03	0	4.314860e-04
5.600000e+08	2.397226e+12	0.000000e+00	5.929649e-01	4.691633e+13	3.166470e+14	1.643202e+14	6.764354e+03	3.110500e+03	1.635372e+03	0	4.304686e-04
5.700000e+08	2.380502e+12	0.000000e+00	5.929649e-01	4.668419e+13	3.128241e+14	1.635091e+14	6.761506e+03	3.105514e+03	1.632751e+03	0	4.294652e-04
5.800000e+08	2.364078e+12	0.000000e+00	5.929649e-01	4.645615e+13	3.091253e+14	1.627036e+14	6.758671e+03	3.100659e+03	1.630198e+03	0	4.284752e-04
5.900000e+08	2.347944e+12	0.000000e+00	5.929649e-01	4.623205e+13	3.055445e+14	1.619040e+14	6.755850e+03	3.095929e+03	1.627711e+03	0	4.274983e-04
6.000000e+08	2.332089e+12	0.000000e+00	5.929649e-01	4.601177e+13	3.020759e+14	1.611099e+14	6.753043e+03	3.091319e+03	1.625287e+03	0	4.265339e-04
6.100000e+08	2.316505e+12	0.000000e+00	5.929649e-01	4.579516e+13	2.987141e+14	1.603215e+14	6.750249e+03	3.086824e+03	1.622924e+03	0	4.255817e-04
6.200000e+08	2.301182e+12	0.000000e+00	5.929649e-01	4.558211e+13	2.954541e+14	1.595387e+14	6.747469e+03	3.082440e+03	1.620619e+03	0	4.246412e-04
6.300000e+08	2.286112e+12	0.000000e+00	5.929649e-01	4.537250e+13	2.922911e+14	1.587613e+14	6.744701e+03	3.078163e+03	1.618371e+03	0	4.237122e-04
6.400000e+08	2.271285e+12	0.000000e+00	5.929649e-01	4.516621e+13	2.892206e+14	1.579895e+14	6.741946e+03	3.073988e+03	1.616175e+03	0	4.227942e-04
6.500000e+08	2.256694e+12	0.000000e+00	5.929649e-01	4.496313e+13	2.862385e+14	1.572231e+14	6.739203e+03	3.069911e+03	1.614032e+03	0	4.218869e-04
6.600000e+08	2.242331e+12	0.000000e+00	5.929649e-01	4.476317e+13	2.833406e+14	1.564621e+14	6.736473e+03	3.065929e+03	1.611938e+03	0	4.209899e-04
6.700000e+08	2.228188e+12	0.000000e+00	5.929649e-01	4.456621e+13	2.805234e+14	1.557064e+14	6.733755e+03	3.062038e+03	1.609893e+03	0	4.201030e-04
6.800000e+08	2.214260e+12	0.000000e+00	5.929649e-01	4.437217e+13	2.777833e+14	1.549561e+14	6.731049e+03	3.058234e+03	1.607893e+03	0	4.192258e-04
6.900000e+08	2.200539e+12	0.000000e+00	5.929649e-01	4.418095e+13	2.751169e+14	1.542110e+14	6.728355e+03	3.054516e+03	1.605938e+03	0	4.183581e-04
7.000000e+08	2.187019e+12	0.000000e+00	5.929649e-01	4.399248e+13	2.725212e+14	1.534712e+14	6.725672e+03	3.050878e+03	1.604026e+03	0	4.174995e-04
7.100000e+08	2.173693e+12	0.000000e+00	5.929649e-01	4.380666e+13	2.699930e+14	1.527365e+14	6.723001e+03	3.047320e+03	1.602155e+03	0	4.166498e-04
7.200000e+08	2.160556e+12	0.000000e+00	5.929649e-01	4.362341e+13	2.675297e+14	1.520069e+14	6.720341e+03	3.043837e+03	1.600323e+03	0	4.158088e-04
7.300000e+08	2.147603e+12	0.000000e+00	5.929649e-01	4.344267e+13	2.651286e+14	1.512825e+14	6.717692e+03	3.040427e+03	1.598530e+03	0	4.149761e-04
7.400000e+08	2.134827e+12	0.000000e+00	5.929649e-01	4.326435e+13	2.627871e+14	1.505631e+14	6.715054e+03	3.037087e+03	1.596775e+03	0	4.141516e-04
7.500000e+08	2.122224e+12	0.000000e+00	5.929649e-01	4.308839e+13	2.605028e+14	1.498487e+14	6.712427e+03	3.033815e+03	1.595055e+03	0	4.133350e-04
7.600000e+08	2.109789e+12	0.000000e+00	5.929649e-01	4.291472e+13	2.582735e+14	1.491393e+14	6.709810e+03	3.030610e+03	1.593369e+03	0	4.125261e-04
7.700000e+08	2.097517e+12	0.000000e+00	5.929649e-01	4.274327e+13	2.560970e+14	1.484349e+14	6.707204e+03	3.027467e+03	1.591717e+03	0	4.117247e-04
7.800000e+08	2.085403e+12	0.000000e+00	5.929649e-01	4.257399e+13	2.539713e+14	1.477353e+14	6.704609e+03	3.024386e+03	1.590097e+03	0	4.109306e-04
7.900000e+08	2.073443e+12	0.000000e+00	5.929649e-01	4.240682e+13	2.518945e+14	1.470406e+14	6.702024e+03	3.021364e+03	1.588508e+03	0	4.101435e-04
8.000000e+08	2.061633e+12	0.000000e+00	5.929649e-01	4.224169e+13	2.498646e+14	1.463507e+14	6.699448e+03	3.018400e+03	1.586950e+03	0	4.093633e-04
8.100000e+08	2.049969e+12	0.000000e+00	5.929649e-01	4.207855e+13	2.478799e+14	1.456656e+14	6.696883e+03	3.015490e+03	1.585420e+03	0	4.085899e-04
8.200000e+08	2.038447e+12	0.000000e+00	5.929649e-01	4.191735e+13	2.459389e+14	1.449852e+14	6.694328e+03	3.012635e+03	1.583919e+03	0	4.078229e-04
8.300000e+08	2.027063e+12	0.000000e+00	5.929649e-01	4.175804e+13	2.440398e+14	1.443096e+14	6.691783e+03	3.009831e+03	1.582445e+03	0	4.070623e-04
8.400000e+08	2.015814e+12	0.000000e+00	5.929649e-01	4.160057e+13	2.421811e+14	1.436386e+14	6.689247e+03	3.007077e+03	1.580997e+03	0	4.063079e-04
8.500000e+08	2.004696e+12	0.000000e+00	5.929649e-01	4.144490e+13	2.403615e+14	1.429722e+14	6.686721e+03	3.004372e+03	1.579575e+03	0	4.055596e-04
8.600000e+08	1.993706e+12	0.000000e+00	5.929649e-01	4.129097e+13	2.385795e+14	1.423104e+14	6.684204e+03	3.001715e+03	1.578177e+03	0	4.048171e-04
8.700000e+08	1.982841e+12	0.000000e+00	5.929649e-01	4.113875e+13	2.368338e+14	1.416532e+14	6.681697e+03	2.999102e+03	1.576804e+03	0	4.040804e-04
8.800000e+08	1.972097e+12	0.000000e+00	5.929649e-01	4.098819e+13	2.351232e+14	1.410005e+14	6.679198e+03	2.996534e+03	1.575454e+03	0	4.033492e-04
8.900000e+08	1.961471e+12	0.000000e+00	5.929649e-01	4.083925e+13	2.334465e+14	1.403523e+14	6.676709e+03	2.994009e+03	1.574126e+03	0	4.026235e-04
9.000000e+08	1.950962e+12	0.000000e+00	5.929649e-01	4.069190e+13	2.318025e+14	1.397085e+14	6.674229e+03	2.991525e+03	1.572820e+03	0	4.019031e-04
9.100000e+08	1.940565e+12	0.000000e+00	5.929649e-01	4.054609e+13	2.301901e+14	1.390692e+14	6.671758e+03	2.989082e+03	1.571536e+03	0	4.011879e-04
9.200000e+08	1.930278e+12	0.000000e+00	5.929649e-01	4.040179e+13	2.286083e+14	1.384342e+14	6.669296e+03	2.986677e+03	1.570271e+03	0	4.004778e-04
9.300000e+08	1.920100e+12	0.000000e+00	5.929649e-01	4.025896e+13	2.270561e+14	1.378036e+14	6.666843e+03	2.984311e+03	1.569027e+03	0	3.997726e-04
9.400000e+08	1.910026e+12	0.000000e+00	5.929649e-01	4.011758e+13	2.255326e+14	1.371773e+14	6.664398e+03	2.981981e+03	1.567802e+03	0	3.990723e-04
9.500000e+08	1.900056e+12	0.000000e+00	5.929649e-01	3.997760e+13	2.240367e+14	1.365552e+14	6.661962e+03	2.979687e+03	1.566596e+03	0	3.983767e-04
9.600000e+08	1.890185e+12	0.000000e+00	5.929649e-01	3.983900e+13	2.225677e+14	1.359374e+14	6.659534e+03	2.977428e+03	1.565408e+03	0	3.976857e-04
9.700000e+08	1.880413e+12	0.000000e+00	5.929649e-01	3.970175e+13	2.211247e+14	1.353238e+14	6.657115e+03	2.975202e+03	1.564238e+03	0	3.969992e-04
9.800000e+08	1.870738e+12	0.000000e+00	5.929649e-01	3.956581e+13	2.197068e+14	1.347144e+14	6.654704e+03	2.973009e+03	1.563085e+03	0	3.963171e-04
9.900000e+08	1.861156e+12	0.000000e+00	5.929649e-01	3.943116e+13	2.183134e+14	1.341091e+14	6.652301e+03	2.970848e+03	1.561949e+03	0	3.956393e-04
1.000000e+09	1.851666e+12	0.000000e+00	5.929649e-01	3.929777e+13	2.169437e+14	1.335080e+14	6.649906e+03	2.968718e+03	1.560829e+03	0	3.949657e-04
1.010000e+09	1.842266e+12	0.000000e+00	5.929649e-01	3.916562e+13	2.155969e+14	1.329109e+14	6.647520e+03	2.966618e+03	1.559725e+03	0	3.942962e-04
1.020000e+09	1.832955e+12	0.000000e+00	5.929649e-01	3.903467e+13	2.142724e+14	1.323178e+14	6.645141e+03	2.964547e+03	1.558636e+03	0	3.936308e-04
1.030000e+09	1.823729e+12	0.000000e+00	5.929649e-01	3.890491e+13	2.129696e+14	1.317288e+14	6.642771e+03	2.962504e+03	1.557562e+03	0	3.929693e-04
1.040000e+09	1.814589e+12	0.000000e+00	5.929649e-01	3.877631e+13	2.116877e+14	1.311437e+14	6.640408e+03	2.960489e+03	1.556503e+03	0	3.923117e-04
1.050000e+09	1.805531e+12	0.000000e+00	5.929649e-01	3.864884e+13	2.104262e+14	1.305626e+14	6.638053e+03	2.958501e+03	1.555457e+03	0	3.916578e-04
1.060000e+09	1.796554e+12	0.000000e+00	5.929649e-01	3.852249e+13	2.091846e+14	1.299855e+14	6.635706e+03	2.956539e+03	1.554426e+03	0	3.910076e-04
1.070000e+09	1.787657e+12	0.000000e+00	5.929649e-01	3.839723e+13	2.079622e+14	1.294122e+14	6.633367e+03	2.954602e+03	1.553407e+03	0	3.903611e-04
1.080000e+09	1.778838e+12	0.000000e+00	5.929649e-01	3.827303e+13	2.067585e+14	1.288427e+14	6.631035e+03	2.952690e+03	1.552402e+03	0	3.897181e-04
1.090000e+09	1.770095e+12	0.000000e+00	5.929649e-01	3.814989e+13	2.055730e+14	1.282771e+14	6.628711e+03	2.950803e+03	1.551410e+03	0	3.890786e-04
1.100000e+09	1.761427e+12	0.000000e+00	5.929649e-01	3.802778e+13	2.044052e+14	1.277153e+14	6.626394e+03	2.948938e+03	1.550430e+03	0	3.884425e-04
1.110000e+09	1.752833e+12	0.000000e+00	5.929649e-01	3.790668e+13	2.032546e+14	1.271573e+14	6.624084e+03	2.947097e+03	1.549462e+03	0	3.878097e-04
1.120000e+09	1.744312e+12	0.000000e+00	5.929649e-01	3.778658e+13	2.021208e+14	1.266030e+14	6.621782e+03	2.945278e+03	1.548505e+03	0	3.871802e-04
1.130000e+09	1.735861e+12	0.000000e+00	5.929649e-01	3.766744e+13	2.010033e+14	1.260524e+14	6.619487e+03	2.943481e+03	1.547560e+03	0	3.865539e-04
1.140000e+09	1.727479e+12	0.000000e+00	5.929649e-01	3.754926e+13	1.999017e+14	1.255055e+14	6.617200e+03	2.941705e+03	1.546627e+03	0	3.859308e-04
1.150000e+09	1.719166e+12	0.000000e+00	5.929649e-01	3.743202e+13	1.988156e+14	1.249622e+14	6.614919e+03	2.939950e+03	1.545704e+03	0	3.853107e-04
1.160000e+09	1.710921e+12	0.000000e+00	5.929649e-01	3.731571e+13	1.977445e+14	1.244226e+14	6.612646e+03	2.938214e+03	1.544791e+03	0	3.846937e-04
1.170000e+09	1.702741e+12	0.000000e+00	5.929649e-01	3.720029e+13	1.966881e+14	1.238865e+14	6.610380e+03	2.936499e+03	1.543889e+03	0	3.840797e-04
1.180000e+09	1.694625e+12	0.000000e+00	5.929649e-01	3.708577e+13	1.956461e+14	1.233540e+14	6.608121e+03	2.934802e+03	1.542998e+03	0	3.834685e-04
1.190000e+09	1.686574e+12	0.000000e+00	5.929649e-01	3.697213e+13	1.946180e+14	1.228251e+14	6.605868e+03	2.933125e+03	1.542116e+03	0	3.828602e-04
1.200000e+09	1.678585e+12	0.000000e+00	5.929649e-01	3.685934e+13	1.936035e+14	1.222997e+14	6.603623e+03	2.931465e+03	1.541243e+03	0	3.822548e-04
1.210000e+09	1.670657e+12	0.000000e+00	5.929649e-01	3.674740e+13	1.926023e+14	1.217777e+14	6.601384e+03	2.929824e+03	1.540380e+03	0	3.816521e-04
1.220000e+09	1.662790e+12	0.000000e+00	5.929649e-01	3.663629e+13	1.916140e+14	1.212593e+14	6.599153e+03	2.928199e+03	1.539526e+03	0	3.810521e-04
1.230000e+09	1.654983e+12	0.000000e+00	5.929649e-01	3.652600e+13	1.906384e+14	1.207442e+14	6.596928e+03	2.926592e+03	1.538681e+03	0	3.804547e-04
1.240000e+09	1.647234e+12	0.000000e+00	5.929649e-01	3.641652e+13	1.896752e+14	1.202326e+14	6.594709e+03	2.925002e+03	1.537845e+03	0	3.798600e-04
1.250000e+09	1.639542e+12	0.000000e+00	5.929649e-01	3.630783e+13	1.887240e+14	1.197243e+14	6.592498e+03	2.923427e+03	1.537017e+03	0	3.792678e-04
1.260000e+09	1.631907e+12	0.000000e+00	5.929649e-01	3.619991e+13	1.877846e+14	1.192194e+14	6.590293e+03	2.921869e+03	1.536198e+03	0	3.786782e-04
1.270000e+09	1.624328e+12	0.000000e+00	5.929649e-01	3.609277e+13	1.868567e+14	1.187178e+14	6.588094e+03	2.920325e+03	1.535386e+03	0	3.780911e-04
1.280000e+09	1.616804e+12	0.000000e+00	5.929649e-01	3.598637e+13	1.859400e+14	1.182195e+14	6.585902e+03	2.918797e+03	1.534583e+03	0	3.775063e-04
1.290000e+09	1.609334e+12	0.000000e+00	5.929649e-01	3.588073e+13	1.850344e+14	1.177245e+14	6.583717e+03	2.917284e+03	1.533787e+03	0	3.769240e-04
1.300000e+09	1.601916e+12	0.000000e+00	5.929649e-01	3.577581e+13	1.841394e+14	1.172327e+14	6.581537e+03	2.915785e+03	1.532999e+03	0	3.763441e-04
1.310000e+09	1.594552e+12	0.000000e+00	5.929649e-01	3.567162e+13	1.832550e+14	1.167441e+14	6.579365e+03	2.914301e+03	1.532219e+03	0	3.757665e-04
1.320000e+09	1.587239e+12	0.000000e+00	5.929649e-01	3.556813e+13	1.823808e+14	1.162588e+14	6.577198e+03	2.912830e+03	1.531445e+03	0	3.751911e-04
1.330000e+09	1.579976e+12	0.000000e+00	5.929649e-01	3.546535e+13	1.815167e+14	1.157766e+14	6.575038e+03	2.911373e+03	1.530679e+03	0	3.746180e-04
1.340000e+09	1.572764e+12	0.000000e+00	5.929649e-01	3.536326e+13	1.806625e+14	1.152976e+14	6.572884e+03	2.909929e+03	1.529920e+03	0	3.740471e-04
1.350000e+09	1.565601e+12	0.000000e+00	5.929649e-01	3.526184e+13	1.798178e+14	1.148217e+14	6.570736e+03	2.908498e+03	1.529168e+03	0	3.734784e-04
1.360000e+09	1.558486e+12	0.000000e+00	5.929649e-01	3.516110e+13	1.789826e+14	1.143489e+14	6.568595e+03	2.907079e+03	1.528422e+03	0	3.729118e-04
