#t		Qconv[W]	Ri[Rp]		R*[Rp]		Qc[W]		Qm[W]		Qr[W]		Tcmb[K]		Tl[K]		Tup[K]		RiFlag		Bs[T]
0.000000e+00	2.100839e+13	0.000000e+00	5.829146e-01	3.250246e+14	3.706415e+15	4.727084e+14	1.167692e+04	6.684789e+03	2.595324e+03	0	8.691393e-04
1.000000e+07	2.065099e+13	0.000000e+00	5.829146e-01	3.216983e+14	3.489872e+15	4.700892e+14	1.166966e+04	6.614167e+03	2.567906e+03	0	8.641824e-04
2.000000e+07	2.029922e+13	0.000000e+00	5.829146e-01	3.184240e+14	3.296173e+15	4.674897e+14	1.166247e+04	6.548561e+03	2.542435e+03	0	8.592474e-04
3.000000e+07	1.995443e+13	0.000000e+00	5.829146e-01	3.152138e+14	3.122098e+15	4.649095e+14	1.165536e+04	6.487439e+03	2.518705e+03	0	8.543547e-04
4.000000e+07	1.961749e+13	0.000000e+00	5.829146e-01	3.120757e+14	2.964982e+15	4.623487e+14	1.164831e+04	6.430344e+03	2.496538e+03	0	8.495186e-04
5.000000e+07	1.928894e+13	0.000000e+00	5.829146e-01	3.090145e+14	2.822604e+15	4.598069e+14	1.164134e+04	6.376878e+03	2.475780e+03	0	8.447494e-04
6.000000e+07	1.896907e+13	0.000000e+00	5.829146e-01	3.060328e+14	2.693099e+15	4.572841e+14	1.163444e+04	6.326698e+03	2.456298e+03	0	8.400538e-04
7.000000e+07	1.865800e+13	0.000000e+00	5.829146e-01	3.031318e+14	2.574893e+15	4.547800e+14	1.162760e+04	6.279500e+03	2.437974e+03	0	8.354365e-04
8.000000e+07	1.835571e+13	0.000000e+00	5.829146e-01	3.003111e+14	2.466648e+15	4.522946e+14	1.162082e+04	6.235020e+03	2.420704e+03	0	8.309001e-04
9.000000e+07	1.806209e+13	0.000000e+00	5.829146e-01	2.975699e+14	2.367223e+15	4.498277e+14	1.161411e+04	6.193023e+03	2.404399e+03	0	8.264459e-04
1.000000e+08	1.777698e+13	0.000000e+00	5.829146e-01	2.949066e+14	2.275639e+15	4.473791e+14	1.160746e+04	6.153303e+03	2.388978e+03	0	8.220744e-04
1.100000e+08	1.750016e+13	0.000000e+00	5.829146e-01	2.923191e+14	2.191049e+15	4.449486e+14	1.160087e+04	6.115674e+03	2.374369e+03	0	8.177849e-04
1.200000e+08	1.723138e+13	0.000000e+00	5.829146e-01	2.898053e+14	2.112724e+15	4.425362e+14	1.159434e+04	6.079973e+03	2.360509e+03	0	8.135767e-04
1.300000e+08	1.697039e+13	0.000000e+00	5.829146e-01	2.873628e+14	2.040025e+15	4.401416e+14	1.158787e+04	6.046051e+03	2.347339e+03	0	8.094482e-04
1.400000e+08	1.671691e+13	0.000000e+00	5.829146e-01	2.849891e+14	1.972396e+15	4.377647e+14	1.158144e+04	6.013777e+03	2.334808e+03	0	8.053978e-04
1.500000e+08	1.647066e+13	0.000000e+00	5.829146e-01	2.826815e+14	1.909351e+15	4.354055e+14	1.157507e+04	5.983030e+03	2.322871e+03	0	8.014236e-04
1.600000e+08	1.623137e+13	0.000000e+00	5.829146e-01	2.804377e+14	1.850460e+15	4.330636e+14	1.156876e+04	5.953703e+03	2.311485e+03	0	7.975235e-04
1.700000e+08	1.599876e+13	0.000000e+00	5.829146e-01	2.782551e+14	1.795344e+15	4.307390e+14	1.156249e+04	5.925698e+03	2.300612e+03	0	7.936954e-04
1.800000e+08	1.577256e+13	0.000000e+00	5.829146e-01	2.761313e+14	1.743667e+15	4.284316e+14	1.155627e+04	5.898925e+03	2.290218e+03	0	7.899371e-04
1.900000e+08	1.555252e+13	0.000000e+00	5.829146e-01	2.740638e+14	1.695131e+15	4.261412e+14	1.155010e+04	5.873305e+03	2.280271e+03	0	7.862465e-04
2.000000e+08	1.533839e+13	0.000000e+00	5.829146e-01	2.720505e+14	1.649469e+15	4.238676e+14	1.154398e+04	5.848762e+03	2.270742e+03	0	7.826213e-04
2.100000e+08	1.512992e+13	0.000000e+00	5.829146e-01	2.700890e+14	1.606446e+15	4.216107e+14	1.153790e+04	5.825229e+03	2.261606e+03	0	7.790595e-04
2.200000e+08	1.492687e+13	0.000000e+00	5.829146e-01	2.681774e+14	1.565846e+15	4.193704e+14	1.153186e+04	5.802645e+03	2.252838e+03	0	7.755588e-04
2.300000e+08	1.472904e+13	0.000000e+00	5.829146e-01	2.663134e+14	1.527479e+15	4.171466e+14	1.152587e+04	5.780952e+03	2.244416e+03	0	7.721172e-04
2.400000e+08	1.453619e+13	0.000000e+00	5.829146e-01	2.644952e+14	1.491173e+15	4.149390e+14	1.151991e+04	5.760097e+03	2.236319e+03	0	7.687326e-04
2.500000e+08	1.434813e+13	0.000000e+00	5.829146e-01	2.627209e+14	1.456772e+15	4.127477e+14	1.151400e+04	5.740032e+03	2.228529e+03	0	7.654031e-04
2.600000e+08	1.416467e+13	0.000000e+00	5.829146e-01	2.609888e+14	1.424134e+15	4.105723e+14	1.150813e+04	5.720713e+03	2.221028e+03	0	7.621268e-04
2.700000e+08	1.398561e+13	0.000000e+00	5.829146e-01	2.592971e+14	1.393133e+15	4.084129e+14	1.150230e+04	5.702098e+03	2.213801e+03	0	7.589019e-04
2.800000e+08	1.381079e+13	0.000000e+00	5.829146e-01	2.576442e+14	1.363652e+15	4.062692e+14	1.149650e+04	5.684149e+03	2.206832e+03	0	7.557264e-04
2.900000e+08	1.364003e+13	0.000000e+00	5.829146e-01	2.560286e+14	1.335585e+15	4.041412e+14	1.149074e+04	5.666829e+03	2.200108e+03	0	7.525988e-04
3.000000e+08	1.347317e+13	0.000000e+00	5.829146e-01	2.544488e+14	1.308836e+15	4.020287e+14	1.148502e+04	5.650106e+03	2.193616e+03	0	7.495174e-04
3.100000e+08	1.331006e+13	0.000000e+00	5.829146e-01	2.529034e+14	1.283317e+15	3.999316e+14	1.147933e+04	5.633950e+03	2.187343e+03	0	7.464804e-04
3.200000e+08	1.315055e+13	0.000000e+00	5.829146e-01	2.513912e+14	1.258948e+15	3.978497e+14	1.147368e+04	5.618331e+03	2.181279e+03	0	7.434865e-04
3.300000e+08	1.299451e+13	0.000000e+00	5.829146e-01	2.499107e+14	1.235653e+15	3.957830e+14	1.146806e+04	5.603222e+03	2.175413e+03	0	7.405342e-04
3.400000e+08	1.284181e+13	0.000000e+00	5.829146e-01	2.484609e+14	1.213366e+15	3.937313e+14	1.146248e+04	5.588599e+03	2.169736e+03	0	7.376219e-04
3.500000e+08	1.269231e+13	0.000000e+00	5.829146e-01	2.470406e+14	1.192024e+15	3.916945e+14	1.145692e+04	5.574438e+03	2.164238e+03	0	7.347484e-04
3.600000e+08	1.254590e+13	0.000000e+00	5.829146e-01	2.456487e+14	1.171568e+15	3.896724e+14	1.145140e+04	5.560717e+03	2.158911e+03	0	7.319123e-04
3.700000e+08	1.240247e+13	0.000000e+00	5.829146e-01	2.442841e+14	1.151947e+15	3.876650e+14	1.144591e+04	5.547415e+03	2.153746e+03	0	7.291124e-04
3.800000e+08	1.226190e+13	0.000000e+00	5.829146e-01	2.429459e+14	1.133111e+15	3.856721e+14	1.144045e+04	5.534513e+03	2.148737e+03	0	7.263474e-04
3.900000e+08	1.212410e+13	0.000000e+00	5.829146e-01	2.416331e+14	1.115014e+15	3.836936e+14	1.143502e+04	5.521993e+03	2.143877e+03	0	7.236161e-04
4.000000e+08	1.198896e+13	0.000000e+00	5.829146e-01	2.403449e+14	1.097614e+15	3.817294e+14	1.142962e+04	5.509838e+03	2.139157e+03	0	7.209175e-04
4.100000e+08	1.185639e+13	0.000000e+00	5.829146e-01	2.390802e+14	1.080873e+15	3.797794e+14	1.142425e+04	5.498031e+03	2.134574e+03	0	7.182505e-04
4.200000e+08	1.172631e+13	0.000000e+00	5.829146e-01	2.378385e+14	1.064754e+15	3.778434e+14	1.141890e+04	5.486558e+03	2.130119e+03	0	7.156140e-04
4.300000e+08	1.159862e+13	0.000000e+00	5.829146e-01	2.366188e+14	1.049222e+15	3.759214e+14	1.141359e+04	5.475404e+03	2.125789e+03	0	7.130071e-04
4.400000e+08	1.147324e+13	0.000000e+00	5.829146e-01	2.354203e+14	1.034248e+15	3.740132e+14	1.140830e+04	5.464556e+03	2.121577e+03	0	7.104287e-04
4.500000e+08	1.135010e+13	0.000000e+00	5.829146e-01	2.342425e+14	1.019801e+15	3.721187e+14	1.140304e+04	5.454000e+03	2.117479e+03	0	7.078779e-04
4.600000e+08	1.122913e+13	0.000000e+00	5.829146e-01	2.330846e+14	1.005854e+15	3.702378e+14	1.139780e+04	5.443725e+03	2.113490e+03	0	7.053539e-04
4.700000e+08	1.111024e+13	0.000000e+00	5.829146e-01	2.319460e+14	9.923815e+14	3.683704e+14	1.139259e+04	5.433720e+03	2.109605e+03	0	7.028558e-04
4.800000e+08	1.099338e+13	0.000000e+00	5.829146e-01	2.308260e+14	9.793599e+14	3.665164e+14	1.138741e+04	5.423972e+03	2.105821e+03	0	7.003828e-04
4.900000e+08	1.087847e+13	0.000000e+00	5.829146e-01	2.297241e+14	9.667667e+14	3.646756e+14	1.138225e+04	5.414473e+03	2.102133e+03	0	6.979341e-04
5.000000e+08	1.076546e+13	0.000000e+00	5.829146e-01	2.286397e+14	9.545810e+14	3.628481e+14	1.137711e+04	5.405212e+03	2.098537e+03	0	6.955088e-04
5.100000e+08	1.065429e+13	0.000000e+00	5.829146e-01	2.275722e+14	9.427832e+14	3.610335e+14	1.137200e+04	5.396181e+03	2.095031e+03	0	6.931064e-04
5.200000e+08	1.054489e+13	0.000000e+00	5.829146e-01	2.265211e+14	9.313547e+14	3.592320e+14	1.136691e+04	5.387370e+03	2.091610e+03	0	6.907260e-04
5.300000e+08	1.043722e+13	0.000000e+00	5.829146e-01	2.254859e+14	9.202783e+14	3.574432e+14	1.136185e+04	5.378770e+03	2.088271e+03	0	6.883670e-04
5.400000e+08	1.033122e+13	0.000000e+00	5.829146e-01	2.244661e+14	9.095378e+14	3.556672e+14	1.135681e+04	5.370375e+03	2.085012e+03	0	6.860287e-04
5.500000e+08	1.022684e+13	0.000000e+00	5.829146e-01	2.234613e+14	8.991178e+14	3.539039e+14	1.135179e+04	5.362176e+03	2.081829e+03	0	6.837105e-04
5.600000e+08	1.012403e+13	0.000000e+00	5.829146e-01	2.224711e+14	8.890039e+14	3.521531e+14	1.134680e+04	5.354167e+03	2.078719e+03	0	6.814118e-04
5.700000e+08	1.002276e+13	0.000000e+00	5.829146e-01	2.214949e+14	8.791825e+14	3.504147e+14	1.134182e+04	5.346340e+03	2.075680e+03	0	6.791320e-04
5.800000e+08	9.922961e+12	0.000000e+00	5.829146e-01	2.205325e+14	8.696408e+14	3.486886e+14	1.133687e+04	5.338688e+03	2.072710e+03	0	6.768704e-04
5.900000e+08	9.824605e+12	0.000000e+00	5.829146e-01	2.195834e+14	8.603666e+14	3.469748e+14	1.133194e+04	5.331207e+03	2.069805e+03	0	6.746266e-04
6.000000e+08	9.727649e+12	0.000000e+00	5.829146e-01	2.186472e+14	8.513487e+14	3.452731e+14	1.132703e+04	5.323889e+03	2.066964e+03	0	6.724000e-04
6.100000e+08	9.632052e+12	0.000000e+00	5.829146e-01	2.177236e+14	8.425760e+14	3.435835e+14	1.132215e+04	5.316728e+03	2.064184e+03	0	6.701902e-04
6.200000e+08	9.537778e+12	0.000000e+00	5.829146e-01	2.168122e+14	8.340385e+14	3.419058e+14	1.131728e+04	5.309721e+03	2.061463e+03	0	6.679965e-04
6.300000e+08	9.444790e+12	0.000000e+00	5.829146e-01	2.159127e+14	8.257265e+14	3.402399e+14	1.131243e+04	5.302861e+03	2.058800e+03	0	6.658185e-04
6.400000e+08	9.353053e+12	0.000000e+00	5.829146e-01	2.150248e+14	8.176308e+14	3.385858e+14	1.130760e+04	5.296143e+03	2.056192e+03	0	6.636558e-04
6.500000e+08	9.262533e+12	0.000000e+00	5.829146e-01	2.141482e+14	8.097426e+14	3.369433e+14	1.130280e+04	5.289562e+03	2.053637e+03	0	6.615079e-04
6.600000e+08	9.173199e+12	0.000000e+00	5.829146e-01	2.132826e+14	8.020538e+14	3.353124e+14	1.129801e+04	5.283115e+03	2.051134e+03	0	6.593743e-04
6.700000e+08	9.085019e+12	0.000000e+00	5.829146e-01	2.124276e+14	7.945566e+14	3.336930e+14	1.129324e+04	5.276796e+03	2.048681e+03	0	6.572547e-04
6.800000e+08	8.997962e+12	0.000000e+00	5.829146e-01	2.115831e+14	7.872434e+14	3.320849e+14	1.128849e+04	5.270602e+03	2.046276e+03	0	6.551486e-04
6.900000e+08	8.912001e+12	0.000000e+00	5.829146e-01	2.107487e+14	7.801073e+14	3.304882e+14	1.128376e+04	5.264528e+03	2.043918e+03	0	6.530556e-04
7.000000e+08	8.827107e+12	0.000000e+00	5.829146e-01	2.099243e+14	7.731416e+14	3.289026e+14	1.127905e+04	5.258571e+03	2.041605e+03	0	6.509754e-04
7.100000e+08	8.743254e+12	0.000000e+00	5.829146e-01	2.091095e+14	7.663399e+14	3.273281e+14	1.127436e+04	5.252727e+03	2.039336e+03	0	6.489075e-04
7.200000e+08	8.660416e+12	0.000000e+00	5.829146e-01	2.083041e+14	7.596960e+14	3.257646e+14	1.126968e+04	5.246993e+03	2.037110e+03	0	6.468516e-04
7.300000e+08	8.578567e+12	0.000000e+00	5.829146e-01	2.075078e+14	7.532043e+14	3.242120e+14	1.126503e+04	5.241364e+03	2.034924e+03	0	6.448074e-04
7.400000e+08	8.497685e+12	0.000000e+00	5.829146e-01	2.067206e+14	7.468592e+14	3.226703e+14	1.126039e+04	5.235838e+03	2.032779e+03	0	6.427745e-04
7.500000e+08	8.417744e+12	0.000000e+00	5.829146e-01	2.059421e+14	7.406555e+14	3.211394e+14	1.125577e+04	5.230412e+03	2.030672e+03	0	6.407526e-04
7.600000e+08	8.338724e+12	0.000000e+00	5.829146e-01	2.051722e+14	7.345881e+14	3.196191e+14	1.125116e+04	5.225082e+03	2.028603e+03	0	6.387413e-04
7.700000e+08	8.260603e+12	0.000000e+00	5.829146e-01	2.044106e+14	7.286523e+14	3.181093e+14	1.124658e+04	5.219846e+03	2.026570e+03	0	6.367403e-04
7.800000e+08	8.183359e+12	0.000000e+00	5.829146e-01	2.036571e+14	7.228435e+14	3.166101e+14	1.124201e+04	5.214701e+03	2.024573e+03	0	6.347494e-04
7.900000e+08	8.106972e+12	0.000000e+00	5.829146e-01	2.029117e+14	7.171574e+14	3.151213e+14	1.123745e+04	5.209645e+03	2.022609e+03	0	6.327682e-04
8.000000e+08	8.031423e+12	0.000000e+00	5.829146e-01	2.021740e+14	7.115897e+14	3.136428e+14	1.123292e+04	5.204674e+03	2.020679e+03	0	6.307965e-04
8.100000e+08	7.956693e+12	0.000000e+00	5.829146e-01	2.014439e+14	7.061366e+14	3.121745e+14	1.122840e+04	5.199786e+03	2.018782e+03	0	6.288339e-04
8.200000e+08	7.882764e+12	0.000000e+00	5.829146e-01	2.007213e+14	7.007942e+14	3.107164e+14	1.122389e+04	5.194979e+03	2.016916e+03	0	6.268803e-04
8.300000e+08	7.809617e+12	0.000000e+00	5.829146e-01	2.000060e+14	6.955589e+14	3.092684e+14	1.121941e+04	5.190250e+03	2.015080e+03	0	6.249353e-04
8.400000e+08	7.737237e+12	0.000000e+00	5.829146e-01	1.992979e+14	6.904272e+14	3.078304e+14	1.121494e+04	5.185598e+03	2.013274e+03	0	6.229986e-04
8.500000e+08	7.665606e+12	0.000000e+00	5.829146e-01	1.985967e+14	6.853957e+14	3.064024e+14	1.121048e+04	5.181020e+03	2.011496e+03	0	6.210701e-04
8.600000e+08	7.594708e+12	0.000000e+00	5.829146e-01	1.979023e+14	6.804612e+14	3.049841e+14	1.120604e+04	5.176514e+03	2.009747e+03	0	6.191494e-04
8.700000e+08	7.524528e+12	0.000000e+00	5.829146e-01	1.972146e+14	6.756208e+14	3.035756e+14	1.120162e+04	5.172078e+03	2.008025e+03	0	6.172364e-04
8.800000e+08	7.455051e+12	0.000000e+00	5.829146e-01	1.965335e+14	6.708714e+14	3.021769e+14	1.119721e+04	5.167711e+03	2.006329e+03	0	6.153308e-04
8.900000e+08	7.386262e+12	0.000000e+00	5.829146e-01	1.958588e+14	6.662103e+14	3.007877e+14	1.119281e+04	5.163409e+03	2.004659e+03	0	6.134324e-04
9.000000e+08	7.318148e+12	0.000000e+00	5.829146e-01	1.951904e+14	6.616346e+14	2.994080e+14	1.118843e+04	5.159172e+03	2.003014e+03	0	6.115409e-04
9.100000e+08	7.250693e+12	0.000000e+00	5.829146e-01	1.945282e+14	6.571420e+14	2.980378e+14	1.118407e+04	5.154998e+03	2.001393e+03	0	6.096561e-04
9.200000e+08	7.183886e+12	0.000000e+00	5.829146e-01	1.938720e+14	6.527297e+14	2.966770e+14	1.117972e+04	5.150886e+03	1.999797e+03	0	6.077779e-04
9.300000e+08	7.117714e+12	0.000000e+00	5.829146e-01	1.932217e+14	6.483955e+14	2.953255e+14	1.117539e+04	5.146832e+03	1.998223e+03	0	6.059060e-04
9.400000e+08	7.052163e+12	0.000000e+00	5.829146e-01	1.925772e+14	6.441371e+14	2.939833e+14	1.117107e+04	5.142837e+03	1.996672e+03	0	6.040402e-04
9.500000e+08	6.987222e+12	0.000000e+00	5.829146e-01	1.919384e+14	6.399522e+14	2.926502e+14	1.116676e+04	5.138898e+03	1.995143e+03	0	6.021804e-04
9.600000e+08	6.922878e+12	0.000000e+00	5.829146e-01	1.913053e+14	6.358388e+14	2.913262e+14	1.116247e+04	5.135014e+03	1.993635e+03	0	6.003263e-04
9.700000e+08	6.859122e+12	0.000000e+00	5.829146e-01	1.906776e+14	6.317947e+14	2.900112e+14	1.115819e+04	5.131184e+03	1.992148e+03	0	5.984777e-04
9.800000e+08	6.795941e+12	0.000000e+00	5.829146e-01	1.900553e+14	6.278180e+14	2.887052e+14	1.115393e+04	5.127406e+03	1.990681e+03	0	5.966344e-04
9.900000e+08	6.733324e+12	0.000000e+00	5.829146e-01	1.894382e+14	6.239069e+14	2.874080e+14	1.114968e+04	5.123679e+03	1.989234e+03	0	5.947963e-04
1.000000e+09	6.671262e+12	0.000000e+00	5.829146e-01	1.888264e+14	6.200594e+14	2.861196e+14	1.114545e+04	5.120002e+03	1.987806e+03	0	5.929632e-04
1.010000e+09	6.609745e+12	0.000000e+00	5.829146e-01	1.882196e+14	6.162739e+14	2.848400e+14	1.114122e+04	5.116373e+03	1.986397e+03	0	5.911350e-04
1.020000e+09	6.548761e+12	0.000000e+00	5.829146e-01	1.876179e+14	6.125486e+14	2.835691e+14	1.113702e+04	5.112791e+03	1.985007e+03	0	5.893114e-04
1.030000e+09	6.488302e+12	0.000000e+00	5.829146e-01	1.870211e+14	6.088819e+14	2.823067e+14	1.113282e+04	5.109256e+03	1.983634e+03	0	5.874922e-04
1.040000e+09	6.428359e+12	0.000000e+00	5.829146e-01	1.864291e+14	6.052723e+14	2.810529e+14	1.112864e+04	5.105765e+03	1.982279e+03	0	5.856774e-04
1.050000e+09	6.368921e+12	0.000000e+00	5.829146e-01	1.858418e+14	6.017183e+14	2.798075e+14	1.112447e+04	5.102318e+03	1.980941e+03	0	5.838667e-04
1.060000e+09	6.309982e+12	0.000000e+00	5.829146e-01	1.852592e+14	5.982183e+14	2.785706e+14	1.112032e+04	5.098915e+03	1.979619e+03	0	5.820601e-04
1.070000e+09	6.251531e+12	0.000000e+00	5.829146e-01	1.846812e+14	5.947709e+14	2.773420e+14	1.111617e+04	5.095552e+03	1.978314e+03	0	5.802572e-04
1.080000e+09	6.193560e+12	0.000000e+00	5.829146e-01	1.841077e+14	5.913749e+14	2.761216e+14	1.111204e+04	5.092231e+03	1.977025e+03	0	5.784581e-04
1.090000e+09	6.136062e+12	0.000000e+00	5.829146e-01	1.835387e+14	5.880288e+14	2.749095e+14	1.110793e+04	5.088950e+03	1.975751e+03	0	5.766625e-04
1.100000e+09	6.079029e+12	0.000000e+00	5.829146e-01	1.829740e+14	5.847315e+14	2.737055e+14	1.110382e+04	5.085708e+03	1.974492e+03	0	5.748703e-04
1.110000e+09	6.022452e+12	0.000000e+00	5.829146e-01	1.824136e+14	5.814817e+14	2.725095e+14	1.109973e+04	5.082503e+03	1.973248e+03	0	5.730813e-04
1.120000e+09	5.966325e+12	0.000000e+00	5.829146e-01	1.818574e+14	5.782782e+14	2.713216e+14	1.109566e+04	5.079336e+03	1.972018e+03	0	5.712954e-04
1.130000e+09	5.910639e+12	0.000000e+00	5.829146e-01	1.813053e+14	5.751199e+14	2.701416e+14	1.109159e+04	5.076205e+03	1.970803e+03	0	5.695125e-04
1.140000e+09	5.855389e+12	0.000000e+00	5.829146e-01	1.807574e+14	5.720056e+14	2.689696e+14	1.108754e+04	5.073110e+03	1.969601e+03	0	5.677324e-04
1.150000e+09	5.800566e+12	0.000000e+00	5.829146e-01	1.802135e+14	5.689343e+14	2.678053e+14	1.108349e+04	5.070050e+03	1.968413e+03	0	5.659550e-04
1.160000e+09	5.746164e+12	0.000000e+00	5.829146e-01	1.796735e+14	5.659050e+14	2.666488e+14	1.107946e+04	5.067023e+03	1.967238e+03	0	5.641801e-04
1.170000e+09	5.692177e+12	0.000000e+00	5.829146e-01	1.791374e+14	5.629167e+14	2.655000e+14	1.107545e+04	5.064029e+03	1.966075e+03	0	5.624077e-04
1.180000e+09	5.638598e+12	0.000000e+00	5.829146e-01	1.786052e+14	5.599683e+14	2.643589e+14	1.107144e+04	5.061069e+03	1.964926e+03	0	5.606375e-04
1.190000e+09	5.585421e+12	0.000000e+00	5.829146e-01	1.780768e+14	5.570590e+14	2.632253e+14	1.106745e+04	5.058139e+03	1.963789e+03	0	5.588695e-04
1.200000e+09	5.532640e+12	0.000000e+00	5.829146e-01	1.775520e+14	5.541879e+14	2.620993e+14	1.106347e+04	5.055241e+03	1.962663e+03	0	5.571035e-04
1.210000e+09	5.480248e+12	0.000000e+00	5.829146e-01	1.770310e+14	5.513541e+14	2.609807e+14	1.105950e+04	5.052374e+03	1.961550e+03	0	5.553394e-04
1.220000e+09	5.428240e+12	0.000000e+00	5.829146e-01	1.765136e+14	5.485566e+14	2.598695e+14	1.105554e+04	5.049536e+03	1.960448e+03	0	5.535771e-04
1.230000e+09	5.376611e+12	0.000000e+00	5.829146e-01	1.759997e+14	5.457948e+14	2.587657e+14	1.105159e+04	5.046727e+03	1.959358e+03	0	5.518164e-04
1.240000e+09	5.325354e+12	0.000000e+00	5.829146e-01	1.754893e+14	5.430678e+14	2.576692e+14	1.104766e+04	5.043946e+03	1.958278e+03	0	5.500573e-04
1.250000e+09	5.274465e+12	0.000000e+00	5.829146e-01	1.749825e+14	5.403748e+14	2.565800e+14	1.104373e+04	5.041194e+03	1.957210e+03	0	5.482996e-04
1.260000e+09	5.223937e+12	0.000000e+00	5.829146e-01	1.744790e+14	5.377151e+14	2.554979e+14	1.103982e+04	5.038469e+03	1.956152e+03	0	5.465431e-04
1.270000e+09	5.173766e+12	0.000000e+00	5.829146e-01	1.739789e+14	5.350880e+14	2.544229e+14	1.103592e+04	5.035771e+03	1.955104e+03	0	5.447878e-04
1.280000e+09	5.123947e+12	0.000000e+00	5.829146e-01	1.734821e+14	5.324927e+14	2.533550e+14	1.103203e+04	5.033098e+03	1.954067e+03	0	5.430335e-04
1.290000e+09	5.074475e+12	0.000000e+00	5.829146e-01	1.729886e+14	5.299285e+14	2.522942e+14	1.102815e+04	5.030452e+03	1.953039e+03	0	5.412802e-04
1.300000e+09	5.025345e+12	0.000000e+00	5.829146e-01	1.724983e+14	5.273949e+14	2.512402e+14	1.102428e+04	5.027831e+03	1.952021e+03	0	5.395277e-04
1.310000e+09	4.976552e+12	0.000000e+00	5.829146e-01	1.720112e+14	5.248911e+14	2.501932e+14	1.102043e+04	5.025234e+03	1.951013e+03	0	5.377758e-04
1.320000e+09	4.928092e+12	0.000000e+00	5.829146e-01	1.715273e+14	5.224166e+14	2.491531e+14	1.101658e+04	5.022662e+03	1.950015e+03	0	5.360246e-04
1.330000e+09	4.879960e+12	0.000000e+00	5.829146e-01	1.710464e+14	5.199707e+14	2.481198e+14	1.101274e+04	5.020113e+03	1.949025e+03	0	5.342738e-04
1.340000e+09	4.832151e+12	0.000000e+00	5.829146e-01	1.705686e+14	5.175528e+14	2.470932e+14	1.100892e+04	5.017588e+03	1.948045e+03	0	5.325233e-04
1.350000e+09	4.784663e+12	0.000000e+00	5.829146e-01	1.700939e+14	5.151624e+14	2.460733e+14	1.100511e+04	5.015085e+03	1.947073e+03	0	5.307731e-04
1.360000e+09	4.737489e+12	0.000000e+00	5.829146e-01	1.696221e+14	5.127990e+14	2.450601e+14	1.100130e+04	5.012605e+03	1.946110e+03	0	5.290230e-04
