#t		Qconv[W]	Ri[Rp]		R*[Rp]		Qc[W]		Qm[W]		Qr[W]		Tcmb[K]		Tl[K]		Tup[K]		RiFlag		Bs[T]
0.000000e+00	2.246496e+13	0.000000e+00	5.829145e-01	3.558977e+14	3.724257e+15	4.934030e+14	1.213710e+04	6.914507e+03	2.619732e+03	0	8.891454e-04
1.000000e+07	2.208603e+13	0.000000e+00	5.829145e-01	3.524272e+14	3.519936e+15	4.906692e+14	1.212967e+04	6.846708e+03	2.594045e+03	0	8.841177e-04
2.000000e+07	2.171352e+13	0.000000e+00	5.829145e-01	3.490149e+14	3.336094e+15	4.879558e+14	1.212232e+04	6.783497e+03	2.570096e+03	0	8.791189e-04
3.000000e+07	2.134856e+13	0.000000e+00	5.829145e-01	3.456707e+14	3.169979e+15	4.852627e+14	1.211505e+04	6.724411e+03	2.547710e+03	0	8.741656e-04
4.000000e+07	2.099186e+13	0.000000e+00	5.829145e-01	3.424010e+14	3.019292e+15	4.825897e+14	1.210784e+04	6.669047e+03	2.526734e+03	0	8.692697e-04
5.000000e+07	2.064387e+13	0.000000e+00	5.829145e-01	3.392097e+14	2.882100e+15	4.799367e+14	1.210070e+04	6.617055e+03	2.507035e+03	0	8.644395e-04
6.000000e+07	2.030482e+13	0.000000e+00	5.829145e-01	3.360989e+14	2.756768e+15	4.773034e+14	1.209362e+04	6.568127e+03	2.488498e+03	0	8.596808e-04
7.000000e+07	1.997477e+13	0.000000e+00	5.829145e-01	3.330691e+14	2.641906e+15	4.746897e+14	1.208661e+04	6.521993e+03	2.471019e+03	0	8.549975e-04
8.000000e+07	1.965369e+13	0.000000e+00	5.829145e-01	3.301201e+14	2.536323e+15	4.720955e+14	1.207966e+04	6.478416e+03	2.454508e+03	0	8.503916e-04
9.000000e+07	1.934147e+13	0.000000e+00	5.829145e-01	3.272506e+14	2.438999e+15	4.695206e+14	1.207278e+04	6.437182e+03	2.438886e+03	0	8.458643e-04
1.000000e+08	1.903792e+13	0.000000e+00	5.829145e-01	3.244593e+14	2.349050e+15	4.669648e+14	1.206595e+04	6.398103e+03	2.424080e+03	0	8.414159e-04
1.100000e+08	1.874282e+13	0.000000e+00	5.829145e-01	3.217439e+14	2.265711e+15	4.644279e+14	1.205919e+04	6.361012e+03	2.410027e+03	0	8.370458e-04
1.200000e+08	1.845595e+13	0.000000e+00	5.829145e-01	3.191025e+14	2.188314e+15	4.619099e+14	1.205248e+04	6.325757e+03	2.396670e+03	0	8.327533e-04
1.300000e+08	1.817703e+13	0.000000e+00	5.829145e-01	3.165327e+14	2.116277e+15	4.594105e+14	1.204582e+04	6.292202e+03	2.383957e+03	0	8.285369e-04
1.400000e+08	1.790579e+13	0.000000e+00	5.829145e-01	3.140320e+14	2.049089e+15	4.569296e+14	1.203922e+04	6.260225e+03	2.371842e+03	0	8.243951e-04
1.500000e+08	1.764197e+13	0.000000e+00	5.829145e-01	3.115980e+14	1.986297e+15	4.544670e+14	1.203267e+04	6.229715e+03	2.360282e+03	0	8.203262e-04
1.600000e+08	1.738529e+13	0.000000e+00	5.829145e-01	3.092283e+14	1.927504e+15	4.520226e+14	1.202617e+04	6.200572e+03	2.349240e+03	0	8.163284e-04
1.700000e+08	1.713548e+13	0.000000e+00	5.829145e-01	3.069204e+14	1.872357e+15	4.495963e+14	1.201972e+04	6.172703e+03	2.338682e+03	0	8.123996e-04
1.800000e+08	1.689228e+13	0.000000e+00	5.829145e-01	3.046720e+14	1.820541e+15	4.471878e+14	1.201332e+04	6.146027e+03	2.328575e+03	0	8.085378e-04
1.900000e+08	1.665543e+13	0.000000e+00	5.829145e-01	3.024808e+14	1.771775e+15	4.447971e+14	1.200696e+04	6.120466e+03	2.318890e+03	0	8.047411e-04
2.000000e+08	1.642468e+13	0.000000e+00	5.829145e-01	3.003444e+14	1.725810e+15	4.424240e+14	1.200065e+04	6.095951e+03	2.309602e+03	0	8.010073e-04
2.100000e+08	1.619978e+13	0.000000e+00	5.829145e-01	2.982608e+14	1.682421e+15	4.400683e+14	1.199439e+04	6.072419e+03	2.300686e+03	0	7.973346e-04
2.200000e+08	1.598051e+13	0.000000e+00	5.829145e-01	2.962279e+14	1.641404e+15	4.377300e+14	1.198816e+04	6.049809e+03	2.292120e+03	0	7.937209e-04
2.300000e+08	1.576665e+13	0.000000e+00	5.829145e-01	2.942437e+14	1.602578e+15	4.354088e+14	1.198198e+04	6.028069e+03	2.283884e+03	0	7.901642e-04
2.400000e+08	1.555798e+13	0.000000e+00	5.829145e-01	2.923062e+14	1.565779e+15	4.331046e+14	1.197585e+04	6.007148e+03	2.275957e+03	0	7.866628e-04
2.500000e+08	1.535429e+13	0.000000e+00	5.829145e-01	2.904136e+14	1.530857e+15	4.308172e+14	1.196975e+04	5.987001e+03	2.268324e+03	0	7.832146e-04
2.600000e+08	1.515539e+13	0.000000e+00	5.829145e-01	2.885642e+14	1.497676e+15	4.285467e+14	1.196369e+04	5.967584e+03	2.260967e+03	0	7.798180e-04
2.700000e+08	1.496109e+13	0.000000e+00	5.829145e-01	2.867563e+14	1.466115e+15	4.262927e+14	1.195767e+04	5.948858e+03	2.253872e+03	0	7.764711e-04
2.800000e+08	1.477122e+13	0.000000e+00	5.829145e-01	2.849883e+14	1.436061e+15	4.240552e+14	1.195169e+04	5.930785e+03	2.247025e+03	0	7.731724e-04
2.900000e+08	1.458560e+13	0.000000e+00	5.829145e-01	2.832586e+14	1.407412e+15	4.218340e+14	1.194574e+04	5.913333e+03	2.240413e+03	0	7.699201e-04
3.000000e+08	1.440407e+13	0.000000e+00	5.829145e-01	2.815659e+14	1.380074e+15	4.196290e+14	1.193984e+04	5.896469e+03	2.234023e+03	0	7.667127e-04
3.100000e+08	1.422648e+13	0.000000e+00	5.829145e-01	2.799086e+14	1.353962e+15	4.174401e+14	1.193396e+04	5.880163e+03	2.227845e+03	0	7.635486e-04
3.200000e+08	1.405268e+13	0.000000e+00	5.829145e-01	2.782856e+14	1.328997e+15	4.152671e+14	1.192812e+04	5.864387e+03	2.221869e+03	0	7.604265e-04
3.300000e+08	1.388252e+13	0.000000e+00	5.829145e-01	2.766955e+14	1.305107e+15	4.131099e+14	1.192232e+04	5.849116e+03	2.216083e+03	0	7.573448e-04
3.400000e+08	1.371588e+13	0.000000e+00	5.829145e-01	2.751370e+14	1.282225e+15	4.109684e+14	1.191654e+04	5.834325e+03	2.210479e+03	0	7.543023e-04
3.500000e+08	1.355262e+13	0.000000e+00	5.829145e-01	2.736092e+14	1.260291e+15	4.088424e+14	1.191080e+04	5.819992e+03	2.205048e+03	0	7.512975e-04
3.600000e+08	1.339262e+13	0.000000e+00	5.829145e-01	2.721108e+14	1.239248e+15	4.067318e+14	1.190510e+04	5.806095e+03	2.199783e+03	0	7.483293e-04
3.700000e+08	1.323577e+13	0.000000e+00	5.829145e-01	2.706409e+14	1.219043e+15	4.046365e+14	1.189942e+04	5.792614e+03	2.194676e+03	0	7.453965e-04
3.800000e+08	1.308196e+13	0.000000e+00	5.829145e-01	2.691983e+14	1.199629e+15	4.025564e+14	1.189377e+04	5.779531e+03	2.189719e+03	0	7.424977e-04
3.900000e+08	1.293107e+13	0.000000e+00	5.829145e-01	2.677822e+14	1.180960e+15	4.004913e+14	1.188816e+04	5.766827e+03	2.184905e+03	0	7.396320e-04
4.000000e+08	1.278301e+13	0.000000e+00	5.829145e-01	2.663917e+14	1.162994e+15	3.984411e+14	1.188257e+04	5.754486e+03	2.180230e+03	0	7.367983e-04
4.100000e+08	1.263768e+13	0.000000e+00	5.829145e-01	2.650259e+14	1.145694e+15	3.964057e+14	1.187701e+04	5.742492e+03	2.175686e+03	0	7.339954e-04
4.200000e+08	1.249499e+13	0.000000e+00	5.829145e-01	2.636839e+14	1.129023e+15	3.943850e+14	1.187148e+04	5.730830e+03	2.171267e+03	0	7.312224e-04
4.300000e+08	1.235484e+13	0.000000e+00	5.829145e-01	2.623650e+14	1.112947e+15	3.923788e+14	1.186598e+04	5.719487e+03	2.166970e+03	0	7.284783e-04
4.400000e+08	1.221716e+13	0.000000e+00	5.829145e-01	2.610684e+14	1.097436e+15	3.903870e+14	1.186051e+04	5.708449e+03	2.162787e+03	0	7.257622e-04
4.500000e+08	1.208187e+13	0.000000e+00	5.829145e-01	2.597934e+14	1.082460e+15	3.884096e+14	1.185506e+04	5.697703e+03	2.158716e+03	0	7.230732e-04
4.600000e+08	1.194888e+13	0.000000e+00	5.829145e-01	2.585393e+14	1.067993e+15	3.864464e+14	1.184964e+04	5.687238e+03	2.154751e+03	0	7.204103e-04
4.700000e+08	1.181812e+13	0.000000e+00	5.829145e-01	2.573054e+14	1.054008e+15	3.844972e+14	1.184425e+04	5.677042e+03	2.150888e+03	0	7.177729e-04
4.800000e+08	1.168953e+13	0.000000e+00	5.829145e-01	2.560910e+14	1.040481e+15	3.825620e+14	1.183888e+04	5.667104e+03	2.147123e+03	0	7.151600e-04
4.900000e+08	1.156302e+13	0.000000e+00	5.829145e-01	2.548957e+14	1.027392e+15	3.806407e+14	1.183354e+04	5.657415e+03	2.143452e+03	0	7.125708e-04
5.000000e+08	1.143855e+13	0.000000e+00	5.829145e-01	2.537187e+14	1.014717e+15	3.787331e+14	1.182822e+04	5.647966e+03	2.139872e+03	0	7.100047e-04
5.100000e+08	1.131605e+13	0.000000e+00	5.829145e-01	2.525596e+14	1.002439e+15	3.768391e+14	1.182292e+04	5.638745e+03	2.136379e+03	0	7.074609e-04
5.200000e+08	1.119545e+13	0.000000e+00	5.829145e-01	2.514177e+14	9.905375e+14	3.749587e+14	1.181765e+04	5.629746e+03	2.132969e+03	0	7.049387e-04
5.300000e+08	1.107670e+13	0.000000e+00	5.829145e-01	2.502927e+14	9.789963e+14	3.730917e+14	1.181241e+04	5.620960e+03	2.129640e+03	0	7.024374e-04
5.400000e+08	1.095974e+13	0.000000e+00	5.829145e-01	2.491839e+14	9.677987e+14	3.712379e+14	1.180719e+04	5.612379e+03	2.126389e+03	0	6.999564e-04
5.500000e+08	1.084453e+13	0.000000e+00	5.829145e-01	2.480910e+14	9.569292e+14	3.693974e+14	1.180199e+04	5.603995e+03	2.123213e+03	0	6.974951e-04
5.600000e+08	1.073101e+13	0.000000e+00	5.829145e-01	2.470134e+14	9.463734e+14	3.675699e+14	1.179681e+04	5.595802e+03	2.120108e+03	0	6.950527e-04
5.700000e+08	1.061913e+13	0.000000e+00	5.829145e-01	2.459507e+14	9.361176e+14	3.657554e+14	1.179166e+04	5.587792e+03	2.117074e+03	0	6.926289e-04
5.800000e+08	1.050885e+13	0.000000e+00	5.829145e-01	2.449026e+14	9.261488e+14	3.639538e+14	1.178653e+04	5.579959e+03	2.114106e+03	0	6.902228e-04
5.900000e+08	1.040012e+13	0.000000e+00	5.829145e-01	2.438685e+14	9.164547e+14	3.621650e+14	1.178142e+04	5.572297e+03	2.111203e+03	0	6.878341e-04
6.000000e+08	1.029290e+13	0.000000e+00	5.829145e-01	2.428482e+14	9.070239e+14	3.603888e+14	1.177633e+04	5.564800e+03	2.108363e+03	0	6.854622e-04
6.100000e+08	1.018715e+13	0.000000e+00	5.829145e-01	2.418412e+14	8.978454e+14	3.586252e+14	1.177126e+04	5.557463e+03	2.105583e+03	0	6.831066e-04
6.200000e+08	1.008283e+13	0.000000e+00	5.829145e-01	2.408472e+14	8.889089e+14	3.568740e+14	1.176622e+04	5.550279e+03	2.102861e+03	0	6.807668e-04
6.300000e+08	9.979892e+12	0.000000e+00	5.829145e-01	2.398658e+14	8.802045e+14	3.551352e+14	1.176119e+04	5.543244e+03	2.100195e+03	0	6.784422e-04
6.400000e+08	9.878309e+12	0.000000e+00	5.829145e-01	2.388967e+14	8.717229e+14	3.534087e+14	1.175619e+04	5.536352e+03	2.097584e+03	0	6.761324e-04
6.500000e+08	9.778043e+12	0.000000e+00	5.829145e-01	2.379397e+14	8.634553e+14	3.516943e+14	1.175120e+04	5.529600e+03	2.095026e+03	0	6.738370e-04
6.600000e+08	9.679060e+12	0.000000e+00	5.829145e-01	2.369943e+14	8.553934e+14	3.499920e+14	1.174624e+04	5.522982e+03	2.092519e+03	0	6.715556e-04
6.700000e+08	9.581327e+12	0.000000e+00	5.829145e-01	2.360603e+14	8.475292e+14	3.483017e+14	1.174129e+04	5.516494e+03	2.090061e+03	0	6.692876e-04
6.800000e+08	9.484812e+12	0.000000e+00	5.829145e-01	2.351374e+14	8.398552e+14	3.466232e+14	1.173637e+04	5.510132e+03	2.087650e+03	0	6.670327e-04
6.900000e+08	9.389484e+12	0.000000e+00	5.829145e-01	2.342253e+14	8.323641e+14	3.449565e+14	1.173146e+04	5.503892e+03	2.085286e+03	0	6.647905e-04
7.000000e+08	9.295314e+12	0.000000e+00	5.829145e-01	2.333238e+14	8.250491e+14	3.433015e+14	1.172657e+04	5.497770e+03	2.082966e+03	0	6.625606e-04
7.100000e+08	9.202273e+12	0.000000e+00	5.829145e-01	2.324325e+14	8.179037e+14	3.416581e+14	1.172170e+04	5.491762e+03	2.080690e+03	0	6.603425e-04
7.200000e+08	9.110335e+12	0.000000e+00	5.829145e-01	2.315514e+14	8.109218e+14	3.400262e+14	1.171685e+04	5.485865e+03	2.078456e+03	0	6.581360e-04
7.300000e+08	9.019472e+12	0.000000e+00	5.829145e-01	2.306800e+14	8.040974e+14	3.384057e+14	1.171202e+04	5.480076e+03	2.076263e+03	0	6.559407e-04
7.400000e+08	8.929659e+12	0.000000e+00	5.829145e-01	2.298182e+14	7.974249e+14	3.367964e+14	1.170721e+04	5.474391e+03	2.074109e+03	0	6.537562e-04
7.500000e+08	8.840871e+12	0.000000e+00	5.829145e-01	2.289658e+14	7.908989e+14	3.351985e+14	1.170241e+04	5.468807e+03	2.071993e+03	0	6.515822e-04
7.600000e+08	8.753084e+12	0.000000e+00	5.829145e-01	2.281226e+14	7.845144e+14	3.336116e+14	1.169764e+04	5.463321e+03	2.069915e+03	0	6.494184e-04
7.700000e+08	8.666276e+12	0.000000e+00	5.829145e-01	2.272883e+14	7.782663e+14	3.320358e+14	1.169288e+04	5.457930e+03	2.067872e+03	0	6.472644e-04
7.800000e+08	8.580423e+12	0.000000e+00	5.829145e-01	2.264627e+14	7.721501e+14	3.304709e+14	1.168813e+04	5.452632e+03	2.065865e+03	0	6.451199e-04
7.900000e+08	8.495504e+12	0.000000e+00	5.829145e-01	2.256456e+14	7.661613e+14	3.289169e+14	1.168341e+04	5.447423e+03	2.063891e+03	0	6.429847e-04
8.000000e+08	8.411499e+12	0.000000e+00	5.829145e-01	2.248370e+14	7.602956e+14	3.273737e+14	1.167870e+04	5.442302e+03	2.061951e+03	0	6.408583e-04
8.100000e+08	8.328388e+12	0.000000e+00	5.829145e-01	2.240364e+14	7.545489e+14	3.258412e+14	1.167401e+04	5.437265e+03	2.060043e+03	0	6.387406e-04
8.200000e+08	8.246150e+12	0.000000e+00	5.829145e-01	2.232439e+14	7.489174e+14	3.243192e+14	1.166933e+04	5.432310e+03	2.058165e+03	0	6.366313e-04
8.300000e+08	8.164766e+12	0.000000e+00	5.829145e-01	2.224592e+14	7.433972e+14	3.228078e+14	1.166467e+04	5.427435e+03	2.056318e+03	0	6.345300e-04
8.400000e+08	8.084220e+12	0.000000e+00	5.829145e-01	2.216822e+14	7.379848e+14	3.213069e+14	1.166003e+04	5.422637e+03	2.054501e+03	0	6.324365e-04
8.500000e+08	8.004492e+12	0.000000e+00	5.829145e-01	2.209127e+14	7.326769e+14	3.198163e+14	1.165541e+04	5.417915e+03	2.052712e+03	0	6.303506e-04
8.600000e+08	7.925565e+12	0.000000e+00	5.829145e-01	2.201505e+14	7.274700e+14	3.183359e+14	1.165080e+04	5.413267e+03	2.050950e+03	0	6.282719e-04
8.700000e+08	7.847424e+12	0.000000e+00	5.829145e-01	2.193955e+14	7.223610e+14	3.168658e+14	1.164620e+04	5.408690e+03	2.049216e+03	0	6.262003e-04
8.800000e+08	7.770051e+12	0.000000e+00	5.829145e-01	2.186476e+14	7.173470e+14	3.154058e+14	1.164162e+04	5.404182e+03	2.047508e+03	0	6.241355e-04
8.900000e+08	7.693432e+12	0.000000e+00	5.829145e-01	2.179065e+14	7.124249e+14	3.139558e+14	1.163706e+04	5.399742e+03	2.045826e+03	0	6.220772e-04
9.000000e+08	7.617550e+12	0.000000e+00	5.829145e-01	2.171723e+14	7.075921e+14	3.125157e+14	1.163252e+04	5.395368e+03	2.044169e+03	0	6.200252e-04
9.100000e+08	7.542392e+12	0.000000e+00	5.829145e-01	2.164447e+14	7.028458e+14	3.110856e+14	1.162798e+04	5.391058e+03	2.042536e+03	0	6.179793e-04
9.200000e+08	7.467944e+12	0.000000e+00	5.829145e-01	2.157236e+14	6.981835e+14	3.096652e+14	1.162347e+04	5.386810e+03	2.040927e+03	0	6.159393e-04
9.300000e+08	7.394190e+12	0.000000e+00	5.829145e-01	2.150088e+14	6.936027e+14	3.082545e+14	1.161897e+04	5.382623e+03	2.039340e+03	0	6.139049e-04
9.400000e+08	7.321118e+12	0.000000e+00	5.829145e-01	2.143004e+14	6.891011e+14	3.068535e+14	1.161448e+04	5.378495e+03	2.037776e+03	0	6.118759e-04
9.500000e+08	7.248715e+12	0.000000e+00	5.829145e-01	2.135981e+14	6.846763e+14	3.054621e+14	1.161001e+04	5.374425e+03	2.036234e+03	0	6.098522e-04
9.600000e+08	7.176968e+12	0.000000e+00	5.829145e-01	2.129018e+14	6.803261e+14	3.040801e+14	1.160555e+04	5.370411e+03	2.034713e+03	0	6.078334e-04
9.700000e+08	7.105865e+12	0.000000e+00	5.829145e-01	2.122114e+14	6.760485e+14	3.027075e+14	1.160111e+04	5.366452e+03	2.033213e+03	0	6.058195e-04
9.800000e+08	7.035394e+12	0.000000e+00	5.829145e-01	2.115269e+14	6.718414e+14	3.013443e+14	1.159668e+04	5.362546e+03	2.031734e+03	0	6.038101e-04
9.900000e+08	6.965544e+12	0.000000e+00	5.829145e-01	2.108481e+14	6.677029e+14	2.999904e+14	1.159226e+04	5.358692e+03	2.030274e+03	0	6.018052e-04
1.000000e+09	6.896302e+12	0.000000e+00	5.829145e-01	2.101748e+14	6.636310e+14	2.986456e+14	1.158786e+04	5.354889e+03	2.028833e+03	0	5.998044e-04
1.010000e+09	6.827658e+12	0.000000e+00	5.829145e-01	2.095071e+14	6.596239e+14	2.973100e+14	1.158348e+04	5.351136e+03	2.027411e+03	0	5.978077e-04
1.020000e+09	6.759602e+12	0.000000e+00	5.829145e-01	2.088448e+14	6.556800e+14	2.959834e+14	1.157911e+04	5.347431e+03	2.026007e+03	0	5.958148e-04
1.030000e+09	6.692123e+12	0.000000e+00	5.829145e-01	2.081878e+14	6.517975e+14	2.946658e+14	1.157475e+04	5.343773e+03	2.024621e+03	0	5.938255e-04
1.040000e+09	6.625211e+12	0.000000e+00	5.829145e-01	2.075360e+14	6.479747e+14	2.933571e+14	1.157040e+04	5.340161e+03	2.023253e+03	0	5.918397e-04
1.050000e+09	6.558856e+12	0.000000e+00	5.829145e-01	2.068894e+14	6.442102e+14	2.920572e+14	1.156607e+04	5.336594e+03	2.021901e+03	0	5.898572e-04
1.060000e+09	6.493048e+12	0.000000e+00	5.829145e-01	2.062478e+14	6.405023e+14	2.907661e+14	1.156176e+04	5.333071e+03	2.020566e+03	0	5.878779e-04
1.070000e+09	6.427779e+12	0.000000e+00	5.829145e-01	2.056112e+14	6.368497e+14	2.894837e+14	1.155745e+04	5.329591e+03	2.019248e+03	0	5.859014e-04
1.080000e+09	6.363039e+12	0.000000e+00	5.829145e-01	2.049795e+14	6.332509e+14	2.882099e+14	1.155316e+04	5.326152e+03	2.017945e+03	0	5.839277e-04
1.090000e+09	6.298820e+12	0.000000e+00	5.829145e-01	2.043526e+14	6.297045e+14	2.869447e+14	1.154888e+04	5.322755e+03	2.016658e+03	0	5.819566e-04
1.100000e+09	6.235112e+12	0.000000e+00	5.829145e-01	2.037304e+14	6.262093e+14	2.856880e+14	1.154462e+04	5.319397e+03	2.015386e+03	0	5.799880e-04
1.110000e+09	6.171908e+12	0.000000e+00	5.829145e-01	2.031128e+14	6.227640e+14	2.844397e+14	1.154037e+04	5.316079e+03	2.014128e+03	0	5.780216e-04
1.120000e+09	6.109200e+12	0.000000e+00	5.829145e-01	2.024999e+14	6.193673e+14	2.831997e+14	1.153613e+04	5.312798e+03	2.012885e+03	0	5.760573e-04
1.130000e+09	6.046979e+12	0.000000e+00	5.829145e-01	2.018914e+14	6.160180e+14	2.819681e+14	1.153190e+04	5.309555e+03	2.011657e+03	0	5.740949e-04
1.140000e+09	5.985237e+12	0.000000e+00	5.829145e-01	2.012874e+14	6.127151e+14	2.807447e+14	1.152769e+04	5.306348e+03	2.010442e+03	0	5.721343e-04
1.150000e+09	5.923968e+12	0.000000e+00	5.829145e-01	2.006877e+14	6.094573e+14	2.795295e+14	1.152349e+04	5.303177e+03	2.009240e+03	0	5.701754e-04
1.160000e+09	5.863164e+12	0.000000e+00	5.829145e-01	2.000924e+14	6.062436e+14	2.783224e+14	1.151930e+04	5.300041e+03	2.008052e+03	0	5.682179e-04
1.170000e+09	5.802817e+12	0.000000e+00	5.829145e-01	1.995013e+14	6.030730e+14	2.771233e+14	1.151513e+04	5.296939e+03	2.006877e+03	0	5.662617e-04
1.180000e+09	5.742921e+12	0.000000e+00	5.829145e-01	1.989143e+14	5.999445e+14	2.759322e+14	1.151096e+04	5.293870e+03	2.005714e+03	0	5.643067e-04
1.190000e+09	5.683469e+12	0.000000e+00	5.829145e-01	1.983315e+14	5.968570e+14	2.747490e+14	1.150681e+04	5.290833e+03	2.004563e+03	0	5.623526e-04
1.200000e+09	5.624454e+12	0.000000e+00	5.829145e-01	1.977527e+14	5.938097e+14	2.735737e+14	1.150267e+04	5.287829e+03	2.003425e+03	0	5.603994e-04
1.210000e+09	5.565870e+12	0.000000e+00	5.829145e-01	1.971779e+14	5.908016e+14	2.724061e+14	1.149855e+04	5.284856e+03	2.002299e+03	0	5.584469e-04
1.220000e+09	5.507710e+12	0.000000e+00	5.829145e-01	1.966070e+14	5.878318e+14	2.712463e+14	1.149443e+04	5.281913e+03	2.001184e+03	0	5.564950e-04
1.230000e+09	5.449969e+12	0.000000e+00	5.829145e-01	1.960401e+14	5.848996e+14	2.700942e+14	1.149033e+04	5.279001e+03	2.000080e+03	0	5.545434e-04
1.240000e+09	5.392639e+12	0.000000e+00	5.829145e-01	1.954769e+14	5.820039e+14	2.689497e+14	1.148624e+04	5.276117e+03	1.998988e+03	0	5.525921e-04
1.250000e+09	5.335716e+12	0.000000e+00	5.829145e-01	1.949175e+14	5.791441e+14	2.678127e+14	1.148216e+04	5.273263e+03	1.997906e+03	0	5.506409e-04
1.260000e+09	5.279193e+12	0.000000e+00	5.829145e-01	1.943618e+14	5.763194e+14	2.666833e+14	1.147809e+04	5.270436e+03	1.996836e+03	0	5.486896e-04
1.270000e+09	5.223065e+12	0.000000e+00	5.829145e-01	1.938098e+14	5.735290e+14	2.655612e+14	1.147403e+04	5.267637e+03	1.995775e+03	0	5.467381e-04
1.280000e+09	5.167326e+12	0.000000e+00	5.829145e-01	1.932614e+14	5.707721e+14	2.644466e+14	1.146999e+04	5.264865e+03	1.994725e+03	0	5.447863e-04
1.290000e+09	5.111972e+12	0.000000e+00	5.829145e-01	1.927166e+14	5.680481e+14	2.633393e+14	1.146595e+04	5.262120e+03	1.993685e+03	0	5.428340e-04
1.300000e+09	5.056996e+12	0.000000e+00	5.829145e-01	1.921753e+14	5.653562e+14	2.622392e+14	1.146193e+04	5.259400e+03	1.992654e+03	0	5.408810e-04
1.310000e+09	5.002394e+12	0.000000e+00	5.829145e-01	1.916375e+14	5.626959e+14	2.611464e+14	1.145792e+04	5.256706e+03	1.991633e+03	0	5.389273e-04
1.320000e+09	4.948160e+12	0.000000e+00	5.829145e-01	1.911031e+14	5.600663e+14	2.600607e+14	1.145392e+04	5.254037e+03	1.990622e+03	0	5.369726e-04
1.330000e+09	4.894290e+12	0.000000e+00	5.829145e-01	1.905720e+14	5.574670e+14	2.589821e+14	1.144993e+04	5.251392e+03	1.989620e+03	0	5.350168e-04
1.340000e+09	4.840778e+12	0.000000e+00	5.829145e-01	1.900443e+14	5.548972e+14	2.579106e+14	1.144596e+04	5.248771e+03	1.988627e+03	0	5.330598e-04
1.350000e+09	4.787621e+12	0.000000e+00	5.829145e-01	1.895199e+14	5.523564e+14	2.568461e+14	1.144199e+04	5.246173e+03	1.987643e+03	0	5.311014e-04
1.360000e+09	4.734813e+12	0.000000e+00	5.829145e-01	1.889988e+14	5.498440e+14	2.557885e+14	1.143804e+04	5.243598e+03	1.986667e+03	0	5.291415e-04
