#t		Qconv[W]	Ri[Rp]		R*[Rp]		Qc[W]		Qm[W]		Qr[W]		Tcmb[K]		Tl[K]		Tup[K]		RiFlag		Bs[T]
0.000000e+00	2.492877e+13	0.000000e+00	5.829146e-01	4.255484e+14	3.845619e+15	5.478449e+14	1.299292e+04	7.347254e+03	2.664834e+03	0	9.158801e-04
1.000000e+07	2.450284e+13	0.000000e+00	5.829146e-01	4.218191e+14	3.659886e+15	5.448094e+14	1.298536e+04	7.285232e+03	2.642339e+03	0	9.106339e-04
2.000000e+07	2.408454e+13	0.000000e+00	5.829146e-01	4.181555e+14	3.490918e+15	5.417966e+14	1.297786e+04	7.227013e+03	2.621223e+03	0	9.054222e-04
3.000000e+07	2.367465e+13	0.000000e+00	5.829146e-01	4.145642e+14	3.336673e+15	5.388064e+14	1.297043e+04	7.172247e+03	2.601359e+03	0	9.002564e-04
4.000000e+07	2.327368e+13	0.000000e+00	5.829146e-01	4.110494e+14	3.195414e+15	5.358385e+14	1.296306e+04	7.120629e+03	2.582638e+03	0	8.951450e-04
5.000000e+07	2.288193e+13	0.000000e+00	5.829146e-01	4.076136e+14	3.065658e+15	5.328927e+14	1.295575e+04	7.071888e+03	2.564959e+03	0	8.900941e-04
6.000000e+07	2.249954e+13	0.000000e+00	5.829146e-01	4.042580e+14	2.946131e+15	5.299688e+14	1.294850e+04	7.025784e+03	2.548238e+03	0	8.851079e-04
7.000000e+07	2.212652e+13	0.000000e+00	5.829146e-01	4.009828e+14	2.835731e+15	5.270668e+14	1.294132e+04	6.982104e+03	2.532395e+03	0	8.801892e-04
8.000000e+07	2.176281e+13	0.000000e+00	5.829146e-01	3.977873e+14	2.733508e+15	5.241863e+14	1.293419e+04	6.940657e+03	2.517362e+03	0	8.753398e-04
9.000000e+07	2.140828e+13	0.000000e+00	5.829146e-01	3.946704e+14	2.638630e+15	5.213273e+14	1.292712e+04	6.901272e+03	2.503077e+03	0	8.705605e-04
1.000000e+08	2.106275e+13	0.000000e+00	5.829146e-01	3.916305e+14	2.550373e+15	5.184894e+14	1.292010e+04	6.863797e+03	2.489485e+03	0	8.658515e-04
1.100000e+08	2.072601e+13	0.000000e+00	5.829146e-01	3.886660e+14	2.468101e+15	5.156727e+14	1.291314e+04	6.828092e+03	2.476535e+03	0	8.612124e-04
1.200000e+08	2.039783e+13	0.000000e+00	5.829146e-01	3.857747e+14	2.391254e+15	5.128768e+14	1.290623e+04	6.794033e+03	2.464182e+03	0	8.566427e-04
1.300000e+08	2.007796e+13	0.000000e+00	5.829146e-01	3.829546e+14	2.319338e+15	5.101016e+14	1.289937e+04	6.761506e+03	2.452384e+03	0	8.521411e-04
1.400000e+08	1.976613e+13	0.000000e+00	5.829146e-01	3.802034e+14	2.251914e+15	5.073470e+14	1.289257e+04	6.730409e+03	2.441106e+03	0	8.477066e-04
1.500000e+08	1.946209e+13	0.000000e+00	5.829146e-01	3.775189e+14	2.188594e+15	5.046127e+14	1.288581e+04	6.700647e+03	2.430311e+03	0	8.433377e-04
1.600000e+08	1.916558e+13	0.000000e+00	5.829146e-01	3.748989e+14	2.129030e+15	5.018986e+14	1.287910e+04	6.672135e+03	2.419970e+03	0	8.390329e-04
1.700000e+08	1.887633e+13	0.000000e+00	5.829146e-01	3.723411e+14	2.072911e+15	4.992045e+14	1.287243e+04	6.644794e+03	2.410053e+03	0	8.347906e-04
1.800000e+08	1.859409e+13	0.000000e+00	5.829146e-01	3.698434e+14	2.019959e+15	4.965303e+14	1.286581e+04	6.618553e+03	2.400536e+03	0	8.306091e-04
1.900000e+08	1.831861e+13	0.000000e+00	5.829146e-01	3.674036e+14	1.969925e+15	4.938758e+14	1.285924e+04	6.593346e+03	2.391393e+03	0	8.264867e-04
2.000000e+08	1.804965e+13	0.000000e+00	5.829146e-01	3.650197e+14	1.922583e+15	4.912409e+14	1.285270e+04	6.569111e+03	2.382603e+03	0	8.224218e-04
2.100000e+08	1.778696e+13	0.000000e+00	5.829146e-01	3.626896e+14	1.877730e+15	4.886253e+14	1.284621e+04	6.545792e+03	2.374146e+03	0	8.184125e-04
2.200000e+08	1.753032e+13	0.000000e+00	5.829146e-01	3.604114e+14	1.835181e+15	4.860289e+14	1.283977e+04	6.523339e+03	2.366002e+03	0	8.144573e-04
2.300000e+08	1.727951e+13	0.000000e+00	5.829146e-01	3.581831e+14	1.794770e+15	4.834516e+14	1.283336e+04	6.501702e+03	2.358154e+03	0	8.105544e-04
2.400000e+08	1.703431e+13	0.000000e+00	5.829146e-01	3.560030e+14	1.756345e+15	4.808931e+14	1.282699e+04	6.480837e+03	2.350586e+03	0	8.067022e-04
2.500000e+08	1.679453e+13	0.000000e+00	5.829146e-01	3.538693e+14	1.719769e+15	4.783534e+14	1.282066e+04	6.460703e+03	2.343284e+03	0	8.028990e-04
2.600000e+08	1.655995e+13	0.000000e+00	5.829146e-01	3.517804e+14	1.684914e+15	4.758323e+14	1.281437e+04	6.441263e+03	2.336233e+03	0	7.991434e-04
2.700000e+08	1.633040e+13	0.000000e+00	5.829146e-01	3.497346e+14	1.651666e+15	4.733297e+14	1.280811e+04	6.422479e+03	2.329420e+03	0	7.954337e-04
2.800000e+08	1.610570e+13	0.000000e+00	5.829146e-01	3.477304e+14	1.619920e+15	4.708453e+14	1.280190e+04	6.404318e+03	2.322833e+03	0	7.917684e-04
2.900000e+08	1.588566e+13	0.000000e+00	5.829146e-01	3.457662e+14	1.589579e+15	4.683790e+14	1.279571e+04	6.386751e+03	2.316462e+03	0	7.881462e-04
3.000000e+08	1.567013e+13	0.000000e+00	5.829146e-01	3.438408e+14	1.560553e+15	4.659307e+14	1.278957e+04	6.369747e+03	2.310294e+03	0	7.845655e-04
3.100000e+08	1.545894e+13	0.000000e+00	5.829146e-01	3.419527e+14	1.532762e+15	4.635003e+14	1.278345e+04	6.353279e+03	2.304321e+03	0	7.810249e-04
3.200000e+08	1.525194e+13	0.000000e+00	5.829146e-01	3.401006e+14	1.506129e+15	4.610875e+14	1.277737e+04	6.337322e+03	2.298534e+03	0	7.775233e-04
3.300000e+08	1.504899e+13	0.000000e+00	5.829146e-01	3.382833e+14	1.480587e+15	4.586923e+14	1.277133e+04	6.321852e+03	2.292923e+03	0	7.740591e-04
3.400000e+08	1.484995e+13	0.000000e+00	5.829146e-01	3.364996e+14	1.456069e+15	4.563144e+14	1.276531e+04	6.306847e+03	2.287481e+03	0	7.706313e-04
3.500000e+08	1.465468e+13	0.000000e+00	5.829146e-01	3.347484e+14	1.432518e+15	4.539539e+14	1.275933e+04	6.292286e+03	2.282199e+03	0	7.672386e-04
3.600000e+08	1.446305e+13	0.000000e+00	5.829146e-01	3.330285e+14	1.409877e+15	4.516104e+14	1.275338e+04	6.278148e+03	2.277071e+03	0	7.638798e-04
3.700000e+08	1.427495e+13	0.000000e+00	5.829146e-01	3.313390e+14	1.388096e+15	4.492839e+14	1.274745e+04	6.264415e+03	2.272090e+03	0	7.605537e-04
3.800000e+08	1.409025e+13	0.000000e+00	5.829146e-01	3.296787e+14	1.367127e+15	4.469743e+14	1.274156e+04	6.251069e+03	2.267250e+03	0	7.572593e-04
3.900000e+08	1.390885e+13	0.000000e+00	5.829146e-01	3.280468e+14	1.346927e+15	4.446813e+14	1.273570e+04	6.238094e+03	2.262544e+03	0	7.539956e-04
4.000000e+08	1.373064e+13	0.000000e+00	5.829146e-01	3.264424e+14	1.327454e+15	4.424049e+14	1.272987e+04	6.225475e+03	2.257967e+03	0	7.507614e-04
4.100000e+08	1.355551e+13	0.000000e+00	5.829146e-01	3.248645e+14	1.308670e+15	4.401449e+14	1.272406e+04	6.213196e+03	2.253513e+03	0	7.475558e-04
4.200000e+08	1.338336e+13	0.000000e+00	5.829146e-01	3.233124e+14	1.290539e+15	4.379012e+14	1.271829e+04	6.201243e+03	2.249178e+03	0	7.443778e-04
4.300000e+08	1.321410e+13	0.000000e+00	5.829146e-01	3.217851e+14	1.273028e+15	4.356737e+14	1.271254e+04	6.189603e+03	2.244956e+03	0	7.412265e-04
4.400000e+08	1.304765e+13	0.000000e+00	5.829146e-01	3.202820e+14	1.256105e+15	4.334622e+14	1.270682e+04	6.178264e+03	2.240844e+03	0	7.381010e-04
4.500000e+08	1.288391e+13	0.000000e+00	5.829146e-01	3.188024e+14	1.239742e+15	4.312666e+14	1.270112e+04	6.167213e+03	2.236836e+03	0	7.350004e-04
4.600000e+08	1.272279e+13	0.000000e+00	5.829146e-01	3.173454e+14	1.223911e+15	4.290867e+14	1.269545e+04	6.156440e+03	2.232928e+03	0	7.319238e-04
4.700000e+08	1.256423e+13	0.000000e+00	5.829146e-01	3.159104e+14	1.208587e+15	4.269225e+14	1.268981e+04	6.145933e+03	2.229117e+03	0	7.288705e-04
4.800000e+08	1.240815e+13	0.000000e+00	5.829146e-01	3.144967e+14	1.193745e+15	4.247738e+14	1.268419e+04	6.135682e+03	2.225400e+03	0	7.258396e-04
4.900000e+08	1.225446e+13	0.000000e+00	5.829146e-01	3.131038e+14	1.179363e+15	4.226404e+14	1.267860e+04	6.125679e+03	2.221771e+03	0	7.228304e-04
5.000000e+08	1.210310e+13	0.000000e+00	5.829146e-01	3.117310e+14	1.165419e+15	4.205224e+14	1.267303e+04	6.115912e+03	2.218229e+03	0	7.198421e-04
5.100000e+08	1.195400e+13	0.000000e+00	5.829146e-01	3.103778e+14	1.151894e+15	4.184194e+14	1.266749e+04	6.106375e+03	2.214770e+03	0	7.168740e-04
5.200000e+08	1.180711e+13	0.000000e+00	5.829146e-01	3.090436e+14	1.138769e+15	4.163315e+14	1.266197e+04	6.097057e+03	2.211390e+03	0	7.139254e-04
5.300000e+08	1.166234e+13	0.000000e+00	5.829146e-01	3.077278e+14	1.126025e+15	4.142584e+14	1.265648e+04	6.087952e+03	2.208088e+03	0	7.109956e-04
5.400000e+08	1.151965e+13	0.000000e+00	5.829146e-01	3.064299e+14	1.113647e+15	4.122001e+14	1.265100e+04	6.079052e+03	2.204860e+03	0	7.080840e-04
5.500000e+08	1.137898e+13	0.000000e+00	5.829146e-01	3.051495e+14	1.101618e+15	4.101565e+14	1.264555e+04	6.070350e+03	2.201703e+03	0	7.051899e-04
5.600000e+08	1.124026e+13	0.000000e+00	5.829146e-01	3.038860e+14	1.089924e+15	4.081274e+14	1.264013e+04	6.061838e+03	2.198616e+03	0	7.023127e-04
5.700000e+08	1.110346e+13	0.000000e+00	5.829146e-01	3.026391e+14	1.078550e+15	4.061127e+14	1.263472e+04	6.053510e+03	2.195596e+03	0	6.994517e-04
5.800000e+08	1.096851e+13	0.000000e+00	5.829146e-01	3.014082e+14	1.067482e+15	4.041123e+14	1.262934e+04	6.045360e+03	2.192640e+03	0	6.966065e-04
5.900000e+08	1.083536e+13	0.000000e+00	5.829146e-01	3.001930e+14	1.056709e+15	4.021261e+14	1.262398e+04	6.037381e+03	2.189746e+03	0	6.937764e-04
6.000000e+08	1.070398e+13	0.000000e+00	5.829146e-01	2.989930e+14	1.046219e+15	4.001539e+14	1.261864e+04	6.029568e+03	2.186912e+03	0	6.909608e-04
6.100000e+08	1.057430e+13	0.000000e+00	5.829146e-01	2.978079e+14	1.036000e+15	3.981957e+14	1.261333e+04	6.021916e+03	2.184137e+03	0	6.881592e-04
6.200000e+08	1.044630e+13	0.000000e+00	5.829146e-01	2.966372e+14	1.026040e+15	3.962513e+14	1.260803e+04	6.014419e+03	2.181418e+03	0	6.853711e-04
6.300000e+08	1.031991e+13	0.000000e+00	5.829146e-01	2.954806e+14	1.016331e+15	3.943207e+14	1.260276e+04	6.007072e+03	2.178753e+03	0	6.825960e-04
6.400000e+08	1.019512e+13	0.000000e+00	5.829146e-01	2.943377e+14	1.006862e+15	3.924036e+14	1.259750e+04	5.999870e+03	2.176141e+03	0	6.798333e-04
6.500000e+08	1.007187e+13	0.000000e+00	5.829146e-01	2.932083e+14	9.976244e+14	3.905001e+14	1.259227e+04	5.992809e+03	2.173580e+03	0	6.770826e-04
6.600000e+08	9.950119e+12	0.000000e+00	5.829146e-01	2.920919e+14	9.886090e+14	3.886100e+14	1.258705e+04	5.985884e+03	2.171068e+03	0	6.743434e-04
6.700000e+08	9.829842e+12	0.000000e+00	5.829146e-01	2.909883e+14	9.798076e+14	3.867331e+14	1.258186e+04	5.979090e+03	2.168604e+03	0	6.716152e-04
6.800000e+08	9.710998e+12	0.000000e+00	5.829146e-01	2.898972e+14	9.712123e+14	3.848695e+14	1.257669e+04	5.972425e+03	2.166186e+03	0	6.688976e-04
6.900000e+08	9.593554e+12	0.000000e+00	5.829146e-01	2.888182e+14	9.628155e+14	3.830189e+14	1.257153e+04	5.965883e+03	2.163814e+03	0	6.661901e-04
7.000000e+08	9.477474e+12	0.000000e+00	5.829146e-01	2.877511e+14	9.546100e+14	3.811813e+14	1.256639e+04	5.959461e+03	2.161484e+03	0	6.634923e-04
7.100000e+08	9.362728e+12	0.000000e+00	5.829146e-01	2.866955e+14	9.465890e+14	3.793565e+14	1.256128e+04	5.953155e+03	2.159197e+03	0	6.608038e-04
7.200000e+08	9.249285e+12	0.000000e+00	5.829146e-01	2.856513e+14	9.387460e+14	3.775445e+14	1.255618e+04	5.946963e+03	2.156951e+03	0	6.581240e-04
7.300000e+08	9.137114e+12	0.000000e+00	5.829146e-01	2.846182e+14	9.310747e+14	3.757452e+14	1.255110e+04	5.940879e+03	2.154745e+03	0	6.554527e-04
7.400000e+08	9.026186e+12	0.000000e+00	5.829146e-01	2.835959e+14	9.235690e+14	3.739584e+14	1.254604e+04	5.934902e+03	2.152577e+03	0	6.527894e-04
7.500000e+08	8.916473e+12	0.000000e+00	5.829146e-01	2.825842e+14	9.162235e+14	3.721841e+14	1.254099e+04	5.929028e+03	2.150447e+03	0	6.501338e-04
7.600000e+08	8.807949e+12	0.000000e+00	5.829146e-01	2.815829e+14	9.090325e+14	3.704221e+14	1.253597e+04	5.923255e+03	2.148352e+03	0	6.474854e-04
7.700000e+08	8.700586e+12	0.000000e+00	5.829146e-01	2.805916e+14	9.019909e+14	3.686725e+14	1.253096e+04	5.917578e+03	2.146294e+03	0	6.448438e-04
7.800000e+08	8.594359e+12	0.000000e+00	5.829146e-01	2.796103e+14	8.950938e+14	3.669349e+14	1.252597e+04	5.911996e+03	2.144269e+03	0	6.422087e-04
7.900000e+08	8.489245e+12	0.000000e+00	5.829146e-01	2.786386e+14	8.883364e+14	3.652095e+14	1.252100e+04	5.906506e+03	2.142278e+03	0	6.395798e-04
8.000000e+08	8.385218e+12	0.000000e+00	5.829146e-01	2.776765e+14	8.817141e+14	3.634960e+14	1.251604e+04	5.901105e+03	2.140319e+03	0	6.369565e-04
8.100000e+08	8.282256e+12	0.000000e+00	5.829146e-01	2.767237e+14	8.752225e+14	3.617943e+14	1.251110e+04	5.895791e+03	2.138391e+03	0	6.343387e-04
8.200000e+08	8.180336e+12	0.000000e+00	5.829146e-01	2.757799e+14	8.688575e+14	3.601045e+14	1.250618e+04	5.890561e+03	2.136494e+03	0	6.317260e-04
8.300000e+08	8.079437e+12	0.000000e+00	5.829146e-01	2.748451e+14	8.626151e+14	3.584263e+14	1.250128e+04	5.885413e+03	2.134627e+03	0	6.291179e-04
8.400000e+08	7.979537e+12	0.000000e+00	5.829146e-01	2.739190e+14	8.564915e+14	3.567597e+14	1.249639e+04	5.880345e+03	2.132789e+03	0	6.265142e-04
8.500000e+08	7.880617e+12	0.000000e+00	5.829146e-01	2.730014e+14	8.504829e+14	3.551047e+14	1.249152e+04	5.875354e+03	2.130979e+03	0	6.239145e-04
8.600000e+08	7.782656e+12	0.000000e+00	5.829146e-01	2.720923e+14	8.445859e+14	3.534610e+14	1.248666e+04	5.870439e+03	2.129196e+03	0	6.213185e-04
8.700000e+08	7.685636e+12	0.000000e+00	5.829146e-01	2.711913e+14	8.387969e+14	3.518286e+14	1.248183e+04	5.865598e+03	2.127440e+03	0	6.187259e-04
8.800000e+08	7.589538e+12	0.000000e+00	5.829146e-01	2.702985e+14	8.331129e+14	3.502075e+14	1.247700e+04	5.860828e+03	2.125710e+03	0	6.161363e-04
8.900000e+08	7.494343e+12	0.000000e+00	5.829146e-01	2.694135e+14	8.275307e+14	3.485975e+14	1.247220e+04	5.856127e+03	2.124006e+03	0	6.135494e-04
9.000000e+08	7.400034e+12	0.000000e+00	5.829146e-01	2.685363e+14	8.220472e+14	3.469986e+14	1.246740e+04	5.851495e+03	2.122325e+03	0	6.109649e-04
9.100000e+08	7.306595e+12	0.000000e+00	5.829146e-01	2.676667e+14	8.166595e+14	3.454106e+14	1.246263e+04	5.846929e+03	2.120669e+03	0	6.083825e-04
9.200000e+08	7.214008e+12	0.000000e+00	5.829146e-01	2.668046e+14	8.113650e+14	3.438335e+14	1.245787e+04	5.842427e+03	2.119037e+03	0	6.058018e-04
9.300000e+08	7.122257e+12	0.000000e+00	5.829146e-01	2.659498e+14	8.061608e+14	3.422672e+14	1.245312e+04	5.837989e+03	2.117427e+03	0	6.032226e-04
9.400000e+08	7.031328e+12	0.000000e+00	5.829146e-01	2.651022e+14	8.010445e+14	3.407116e+14	1.244839e+04	5.833611e+03	2.115839e+03	0	6.006445e-04
9.500000e+08	6.941205e+12	0.000000e+00	5.829146e-01	2.642617e+14	7.960136e+14	3.391666e+14	1.244368e+04	5.829293e+03	2.114273e+03	0	5.980672e-04
9.600000e+08	6.851873e+12	0.000000e+00	5.829146e-01	2.634281e+14	7.910657e+14	3.376322e+14	1.243898e+04	5.825033e+03	2.112728e+03	0	5.954904e-04
9.700000e+08	6.763317e+12	0.000000e+00	5.829146e-01	2.626014e+14	7.861985e+14	3.361082e+14	1.243429e+04	5.820830e+03	2.111203e+03	0	5.929139e-04
9.800000e+08	6.675525e+12	0.000000e+00	5.829146e-01	2.617813e+14	7.814097e+14	3.345945e+14	1.242962e+04	5.816683e+03	2.109699e+03	0	5.903372e-04
9.900000e+08	6.588482e+12	0.000000e+00	5.829146e-01	2.609679e+14	7.766974e+14	3.330912e+14	1.242497e+04	5.812589e+03	2.108214e+03	0	5.877602e-04
1.000000e+09	6.502175e+12	0.000000e+00	5.829146e-01	2.601608e+14	7.720593e+14	3.315980e+14	1.242033e+04	5.808549e+03	2.106749e+03	0	5.851824e-04
1.010000e+09	6.416592e+12	0.000000e+00	5.829146e-01	2.593602e+14	7.674936e+14	3.301150e+14	1.241570e+04	5.804559e+03	2.105302e+03	0	5.826036e-04
1.020000e+09	6.331719e+12	0.000000e+00	5.829146e-01	2.585658e+14	7.629982e+14	3.286421e+14	1.241109e+04	5.800620e+03	2.103873e+03	0	5.800235e-04
1.030000e+09	6.247545e+12	0.000000e+00	5.829146e-01	2.577776e+14	7.585715e+14	3.271791e+14	1.240649e+04	5.796730e+03	2.102462e+03	0	5.774417e-04
1.040000e+09	6.164059e+12	0.000000e+00	5.829146e-01	2.569953e+14	7.542115e+14	3.257259e+14	1.240190e+04	5.792888e+03	2.101069e+03	0	5.748580e-04
1.050000e+09	6.081248e+12	0.000000e+00	5.829146e-01	2.562191e+14	7.499166e+14	3.242826e+14	1.239733e+04	5.789093e+03	2.099692e+03	0	5.722721e-04
1.060000e+09	5.999101e+12	0.000000e+00	5.829146e-01	2.554487e+14	7.456852e+14	3.228491e+14	1.239278e+04	5.785343e+03	2.098332e+03	0	5.696836e-04
1.070000e+09	5.917607e+12	0.000000e+00	5.829146e-01	2.546840e+14	7.415155e+14	3.214252e+14	1.238823e+04	5.781638e+03	2.096988e+03	0	5.670923e-04
1.080000e+09	5.836757e+12	0.000000e+00	5.829146e-01	2.539250e+14	7.374062e+14	3.200108e+14	1.238370e+04	5.777977e+03	2.095660e+03	0	5.644978e-04
1.090000e+09	5.756539e+12	0.000000e+00	5.829146e-01	2.531716e+14	7.333556e+14	3.186060e+14	1.237919e+04	5.774358e+03	2.094348e+03	0	5.618997e-04
1.100000e+09	5.676943e+12	0.000000e+00	5.829146e-01	2.524237e+14	7.293623e+14	3.172106e+14	1.237468e+04	5.770781e+03	2.093051e+03	0	5.592979e-04
1.110000e+09	5.597959e+12	0.000000e+00	5.829146e-01	2.516812e+14	7.254250e+14	3.158246e+14	1.237019e+04	5.767245e+03	2.091768e+03	0	5.566919e-04
1.120000e+09	5.519578e+12	0.000000e+00	5.829146e-01	2.509440e+14	7.215423e+14	3.144479e+14	1.236572e+04	5.763748e+03	2.090500e+03	0	5.540815e-04
1.130000e+09	5.441791e+12	0.000000e+00	5.829146e-01	2.502120e+14	7.177128e+14	3.130803e+14	1.236126e+04	5.760291e+03	2.089246e+03	0	5.514663e-04
1.140000e+09	5.364589e+12	0.000000e+00	5.829146e-01	2.494852e+14	7.139354e+14	3.117220e+14	1.235681e+04	5.756872e+03	2.088006e+03	0	5.488460e-04
1.150000e+09	5.287961e+12	0.000000e+00	5.829146e-01	2.487634e+14	7.102088e+14	3.103726e+14	1.235237e+04	5.753490e+03	2.086779e+03	0	5.462202e-04
1.160000e+09	5.211901e+12	0.000000e+00	5.829146e-01	2.480467e+14	7.065317e+14	3.090323e+14	1.234794e+04	5.750144e+03	2.085566e+03	0	5.435887e-04
1.170000e+09	5.136399e+12	0.000000e+00	5.829146e-01	2.473349e+14	7.029031e+14	3.077009e+14	1.234353e+04	5.746834e+03	2.084365e+03	0	5.409510e-04
1.180000e+09	5.061447e+12	0.000000e+00	5.829146e-01	2.466280e+14	6.993219e+14	3.063784e+14	1.233913e+04	5.743559e+03	2.083177e+03	0	5.383069e-04
1.190000e+09	4.987037e+12	0.000000e+00	5.829146e-01	2.459259e+14	6.957869e+14	3.050647e+14	1.233475e+04	5.740319e+03	2.082002e+03	0	5.356559e-04
1.200000e+09	4.913160e+12	0.000000e+00	5.829146e-01	2.452285e+14	6.922971e+14	3.037597e+14	1.233037e+04	5.737112e+03	2.080839e+03	0	5.329977e-04
1.210000e+09	4.839811e+12	0.000000e+00	5.829146e-01	2.445358e+14	6.888516e+14	3.024633e+14	1.232601e+04	5.733937e+03	2.079687e+03	0	5.303320e-04
1.220000e+09	4.766980e+12	0.000000e+00	5.829146e-01	2.438476e+14	6.854493e+14	3.011755e+14	1.232166e+04	5.730795e+03	2.078548e+03	0	5.276583e-04
1.230000e+09	4.694660e+12	0.000000e+00	5.829146e-01	2.431640e+14	6.820893e+14	2.998963e+14	1.231732e+04	5.727684e+03	2.077419e+03	0	5.249764e-04
1.240000e+09	4.622845e+12	0.000000e+00	5.829146e-01	2.424848e+14	6.787706e+14	2.986255e+14	1.231300e+04	5.724604e+03	2.076302e+03	0	5.222857e-04
1.250000e+09	4.551527e+12	0.000000e+00	5.829146e-01	2.418101e+14	6.754924e+14	2.973631e+14	1.230869e+04	5.721554e+03	2.075196e+03	0	5.195860e-04
1.260000e+09	4.480699e+12	0.000000e+00	5.829146e-01	2.411397e+14	6.722538e+14	2.961090e+14	1.230439e+04	5.718534e+03	2.074101e+03	0	5.168767e-04
1.270000e+09	4.410356e+12	0.000000e+00	5.829146e-01	2.404736e+14	6.690540e+14	2.948632e+14	1.230010e+04	5.715543e+03	2.073016e+03	0	5.141576e-04
1.280000e+09	4.340489e+12	0.000000e+00	5.829146e-01	2.398117e+14	6.658920e+14	2.936255e+14	1.229582e+04	5.712580e+03	2.071941e+03	0	5.114281e-04
1.290000e+09	4.271093e+12	0.000000e+00	5.829146e-01	2.391540e+14	6.627673e+14	2.923960e+14	1.229155e+04	5.709645e+03	2.070877e+03	0	5.086878e-04
1.300000e+09	4.202161e+12	0.000000e+00	5.829146e-01	2.385005e+14	6.596789e+14	2.911746e+14	1.228730e+04	5.706737e+03	2.069822e+03	0	5.059364e-04
1.310000e+09	4.133688e+12	0.000000e+00	5.829146e-01	2.378510e+14	6.566261e+14	2.899612e+14	1.228306e+04	5.703856e+03	2.068777e+03	0	5.031733e-04
1.320000e+09	4.065667e+12	0.000000e+00	5.829146e-01	2.372055e+14	6.536083e+14	2.887557e+14	1.227883e+04	5.701001e+03	2.067742e+03	0	5.003981e-04
1.330000e+09	3.998092e+12	0.000000e+00	5.829146e-01	2.365640e+14	6.506246e+14	2.875581e+14	1.227461e+04	5.698172e+03	2.066716e+03	0	4.976102e-04
1.340000e+09	3.930958e+12	0.000000e+00	5.829146e-01	2.359264e+14	6.476745e+14	2.863684e+14	1.227040e+04	5.695369e+03	2.065699e+03	0	4.948093e-04
1.350000e+09	3.864260e+12	0.000000e+00	5.829146e-01	2.352926e+14	6.447571e+14	2.851864e+14	1.226621e+04	5.692590e+03	2.064691e+03	0	4.919947e-04
1.360000e+09	3.797990e+12	0.000000e+00	5.829146e-01	2.346627e+14	6.418720e+14	2.840121e+14	1.226202e+04	5.689835e+03	2.063692e+03	0	4.891661e-04
