#t		Qconv[W]	Ri[Rp]		R*[Rp]		Qc[W]		Qm[W]		Qr[W]		Tcmb[K]		Tl[K]		Tup[K]		RiFlag		Bs[T]
0.000000e+00	2.838137e+13	0.000000e+00	5.778893e-01	5.734204e+14	3.855116e+15	6.370313e+14	1.478041e+04	8.244299e+03	2.747694e+03	0	9.601734e-04
1.000000e+07	2.789207e+13	0.000000e+00	5.778893e-01	5.692649e+14	3.712144e+15	6.335016e+14	1.477217e+04	8.193227e+03	2.730673e+03	0	9.546235e-04
2.000000e+07	2.741185e+13	0.000000e+00	5.778893e-01	5.651844e+14	3.579616e+15	6.299984e+14	1.476398e+04	8.144733e+03	2.714511e+03	0	9.491131e-04
3.000000e+07	2.694094e+13	0.000000e+00	5.778893e-01	5.611807e+14	3.456487e+15	6.265214e+14	1.475586e+04	8.098624e+03	2.699144e+03	0	9.436468e-04
4.000000e+07	2.647948e+13	0.000000e+00	5.778893e-01	5.572549e+14	3.341845e+15	6.230703e+14	1.474779e+04	8.054725e+03	2.684512e+03	0	9.382280e-04
5.000000e+07	2.602751e+13	0.000000e+00	5.778893e-01	5.534073e+14	3.234884e+15	6.196450e+14	1.473978e+04	8.012876e+03	2.670565e+03	0	9.328591e-04
6.000000e+07	2.558498e+13	0.000000e+00	5.778893e-01	5.496374e+14	3.134895e+15	6.162451e+14	1.473182e+04	7.972936e+03	2.657253e+03	0	9.275420e-04
7.000000e+07	2.515181e+13	0.000000e+00	5.778893e-01	5.459447e+14	3.041252e+15	6.128706e+14	1.472391e+04	7.934773e+03	2.644534e+03	0	9.222775e-04
8.000000e+07	2.472787e+13	0.000000e+00	5.778893e-01	5.423278e+14	2.953396e+15	6.095213e+14	1.471606e+04	7.898270e+03	2.632369e+03	0	9.170664e-04
9.000000e+07	2.431298e+13	0.000000e+00	5.778893e-01	5.387856e+14	2.870833e+15	6.061968e+14	1.470827e+04	7.863319e+03	2.620720e+03	0	9.119086e-04
1.000000e+08	2.390697e+13	0.000000e+00	5.778893e-01	5.353165e+14	2.793119e+15	6.028970e+14	1.470052e+04	7.829822e+03	2.609556e+03	0	9.068040e-04
1.100000e+08	2.350963e+13	0.000000e+00	5.778893e-01	5.319188e+14	2.719858e+15	5.996216e+14	1.469282e+04	7.797687e+03	2.598846e+03	0	9.017521e-04
1.200000e+08	2.312075e+13	0.000000e+00	5.778893e-01	5.285906e+14	2.650695e+15	5.963706e+14	1.468517e+04	7.766833e+03	2.588563e+03	0	8.967523e-04
1.300000e+08	2.274009e+13	0.000000e+00	5.778893e-01	5.253303e+14	2.585308e+15	5.931436e+14	1.467757e+04	7.737183e+03	2.578681e+03	0	8.918037e-04
1.400000e+08	2.236744e+13	0.000000e+00	5.778893e-01	5.221359e+14	2.523410e+15	5.899405e+14	1.467002e+04	7.708666e+03	2.569177e+03	0	8.869054e-04
1.500000e+08	2.200257e+13	0.000000e+00	5.778893e-01	5.190055e+14	2.464740e+15	5.867611e+14	1.466251e+04	7.681219e+03	2.560029e+03	0	8.820564e-04
1.600000e+08	2.164524e+13	0.000000e+00	5.778893e-01	5.159374e+14	2.409060e+15	5.836052e+14	1.465504e+04	7.654781e+03	2.551218e+03	0	8.772553e-04
1.700000e+08	2.129524e+13	0.000000e+00	5.778893e-01	5.129296e+14	2.356157e+15	5.804725e+14	1.464763e+04	7.629296e+03	2.542724e+03	0	8.725012e-04
1.800000e+08	2.095233e+13	0.000000e+00	5.778893e-01	5.099803e+14	2.305835e+15	5.773630e+14	1.464025e+04	7.604714e+03	2.534531e+03	0	8.677927e-04
1.900000e+08	2.061631e+13	0.000000e+00	5.778893e-01	5.070877e+14	2.257917e+15	5.742764e+14	1.463292e+04	7.580986e+03	2.526623e+03	0	8.631286e-04
2.000000e+08	2.028695e+13	0.000000e+00	5.778893e-01	5.042501e+14	2.212238e+15	5.712124e+14	1.462562e+04	7.558068e+03	2.518984e+03	0	8.585075e-04
2.100000e+08	1.996405e+13	0.000000e+00	5.778893e-01	5.014657e+14	2.168652e+15	5.681710e+14	1.461837e+04	7.535918e+03	2.511602e+03	0	8.539283e-04
2.200000e+08	1.964740e+13	0.000000e+00	5.778893e-01	4.987330e+14	2.127022e+15	5.651520e+14	1.461116e+04	7.514498e+03	2.504463e+03	0	8.493895e-04
2.300000e+08	1.933681e+13	0.000000e+00	5.778893e-01	4.960503e+14	2.087223e+15	5.621551e+14	1.460399e+04	7.493772e+03	2.497556e+03	0	8.448900e-04
2.400000e+08	1.903210e+13	0.000000e+00	5.778893e-01	4.934159e+14	2.049140e+15	5.591801e+14	1.459685e+04	7.473705e+03	2.490868e+03	0	8.404285e-04
2.500000e+08	1.873306e+13	0.000000e+00	5.778893e-01	4.908285e+14	2.012667e+15	5.562270e+14	1.458976e+04	7.454268e+03	2.484390e+03	0	8.360035e-04
2.600000e+08	1.843953e+13	0.000000e+00	5.778893e-01	4.882866e+14	1.977707e+15	5.532955e+14	1.458270e+04	7.435429e+03	2.478111e+03	0	8.316141e-04
2.700000e+08	1.815133e+13	0.000000e+00	5.778893e-01	4.857887e+14	1.944169e+15	5.503854e+14	1.457568e+04	7.417160e+03	2.472022e+03	0	8.272588e-04
2.800000e+08	1.786830e+13	0.000000e+00	5.778893e-01	4.833335e+14	1.911971e+15	5.474965e+14	1.456869e+04	7.399437e+03	2.466115e+03	0	8.229364e-04
2.900000e+08	1.759027e+13	0.000000e+00	5.778893e-01	4.809197e+14	1.881036e+15	5.446288e+14	1.456174e+04	7.382234e+03	2.460382e+03	0	8.186459e-04
3.000000e+08	1.731710e+13	0.000000e+00	5.778893e-01	4.785460e+14	1.851291e+15	5.417819e+14	1.455482e+04	7.365529e+03	2.454814e+03	0	8.143859e-04
3.100000e+08	1.704863e+13	0.000000e+00	5.778893e-01	4.762111e+14	1.822671e+15	5.389558e+14	1.454794e+04	7.349299e+03	2.449405e+03	0	8.101555e-04
3.200000e+08	1.678472e+13	0.000000e+00	5.778893e-01	4.739140e+14	1.795113e+15	5.361503e+14	1.454109e+04	7.333524e+03	2.444148e+03	0	8.059533e-04
3.300000e+08	1.652523e+13	0.000000e+00	5.778893e-01	4.716535e+14	1.768562e+15	5.333651e+14	1.453428e+04	7.318185e+03	2.439035e+03	0	8.017784e-04
3.400000e+08	1.627002e+13	0.000000e+00	5.778893e-01	4.694284e+14	1.742962e+15	5.306002e+14	1.452749e+04	7.303263e+03	2.434062e+03	0	7.976296e-04
3.500000e+08	1.601898e+13	0.000000e+00	5.778893e-01	4.672378e+14	1.718265e+15	5.278553e+14	1.452074e+04	7.288741e+03	2.429222e+03	0	7.935059e-04
3.600000e+08	1.577197e+13	0.000000e+00	5.778893e-01	4.650806e+14	1.694423e+15	5.251303e+14	1.451402e+04	7.274602e+03	2.424510e+03	0	7.894062e-04
3.700000e+08	1.552888e+13	0.000000e+00	5.778893e-01	4.629559e+14	1.671394e+15	5.224251e+14	1.450733e+04	7.260833e+03	2.419921e+03	0	7.853295e-04
3.800000e+08	1.528959e+13	0.000000e+00	5.778893e-01	4.608627e+14	1.649137e+15	5.197395e+14	1.450067e+04	7.247416e+03	2.415449e+03	0	7.812749e-04
3.900000e+08	1.505400e+13	0.000000e+00	5.778893e-01	4.588001e+14	1.627613e+15	5.170732e+14	1.449405e+04	7.234339e+03	2.411091e+03	0	7.772413e-04
4.000000e+08	1.482200e+13	0.000000e+00	5.778893e-01	4.567673e+14	1.606788e+15	5.144262e+14	1.448745e+04	7.221589e+03	2.406841e+03	0	7.732278e-04
4.100000e+08	1.459348e+13	0.000000e+00	5.778893e-01	4.547634e+14	1.586627e+15	5.117983e+14	1.448088e+04	7.209152e+03	2.402697e+03	0	7.692334e-04
4.200000e+08	1.436835e+13	0.000000e+00	5.778893e-01	4.527876e+14	1.567099e+15	5.091894e+14	1.447434e+04	7.197018e+03	2.398652e+03	0	7.652573e-04
4.300000e+08	1.414651e+13	0.000000e+00	5.778893e-01	4.508391e+14	1.548174e+15	5.065992e+14	1.446782e+04	7.185174e+03	2.394705e+03	0	7.612985e-04
4.400000e+08	1.392787e+13	0.000000e+00	5.778893e-01	4.489173e+14	1.529826e+15	5.040277e+14	1.446134e+04	7.173610e+03	2.390851e+03	0	7.573561e-04
4.500000e+08	1.371235e+13	0.000000e+00	5.778893e-01	4.470213e+14	1.512027e+15	5.014746e+14	1.445488e+04	7.162315e+03	2.387087e+03	0	7.534292e-04
4.600000e+08	1.349985e+13	0.000000e+00	5.778893e-01	4.451504e+14	1.494753e+15	4.989399e+14	1.444845e+04	7.151281e+03	2.383409e+03	0	7.495171e-04
4.700000e+08	1.329031e+13	0.000000e+00	5.778893e-01	4.433041e+14	1.477981e+15	4.964233e+14	1.444205e+04	7.140497e+03	2.379815e+03	0	7.456189e-04
4.800000e+08	1.308363e+13	0.000000e+00	5.778893e-01	4.414816e+14	1.461689e+15	4.939248e+14	1.443568e+04	7.129954e+03	2.376301e+03	0	7.417337e-04
4.900000e+08	1.287975e+13	0.000000e+00	5.778893e-01	4.396824e+14	1.445856e+15	4.914442e+14	1.442933e+04	7.119644e+03	2.372865e+03	0	7.378607e-04
5.000000e+08	1.267859e+13	0.000000e+00	5.778893e-01	4.379058e+14	1.430463e+15	4.889813e+14	1.442300e+04	7.109560e+03	2.369504e+03	0	7.339991e-04
5.100000e+08	1.248008e+13	0.000000e+00	5.778893e-01	4.361513e+14	1.415491e+15	4.865360e+14	1.441670e+04	7.099692e+03	2.366215e+03	0	7.301481e-04
5.200000e+08	1.228415e+13	0.000000e+00	5.778893e-01	4.344183e+14	1.400923e+15	4.841082e+14	1.441043e+04	7.090035e+03	2.362997e+03	0	7.263070e-04
5.300000e+08	1.209074e+13	0.000000e+00	5.778893e-01	4.327063e+14	1.386742e+15	4.816976e+14	1.440418e+04	7.080580e+03	2.359846e+03	0	7.224750e-04
5.400000e+08	1.189978e+13	0.000000e+00	5.778893e-01	4.310147e+14	1.372933e+15	4.793043e+14	1.439796e+04	7.071322e+03	2.356760e+03	0	7.186512e-04
5.500000e+08	1.171121e+13	0.000000e+00	5.778893e-01	4.293430e+14	1.359480e+15	4.769280e+14	1.439176e+04	7.062253e+03	2.353737e+03	0	7.148351e-04
5.600000e+08	1.152498e+13	0.000000e+00	5.778893e-01	4.276909e+14	1.346370e+15	4.745685e+14	1.438558e+04	7.053367e+03	2.350776e+03	0	7.110257e-04
5.700000e+08	1.134103e+13	0.000000e+00	5.778893e-01	4.260577e+14	1.333589e+15	4.722258e+14	1.437943e+04	7.044658e+03	2.347873e+03	0	7.072224e-04
5.800000e+08	1.115929e+13	0.000000e+00	5.778893e-01	4.244430e+14	1.321124e+15	4.698998e+14	1.437330e+04	7.036122e+03	2.345028e+03	0	7.034244e-04
5.900000e+08	1.097973e+13	0.000000e+00	5.778893e-01	4.228465e+14	1.308964e+15	4.675902e+14	1.436720e+04	7.027751e+03	2.342238e+03	0	6.996310e-04
6.000000e+08	1.080228e+13	0.000000e+00	5.778893e-01	4.212676e+14	1.297097e+15	4.652970e+14	1.436112e+04	7.019542e+03	2.339502e+03	0	6.958415e-04
6.100000e+08	1.062689e+13	0.000000e+00	5.778893e-01	4.197060e+14	1.285511e+15	4.630200e+14	1.435506e+04	7.011488e+03	2.336818e+03	0	6.920551e-04
6.200000e+08	1.045353e+13	0.000000e+00	5.778893e-01	4.181613e+14	1.274197e+15	4.607591e+14	1.434902e+04	7.003586e+03	2.334185e+03	0	6.882711e-04
6.300000e+08	1.028214e+13	0.000000e+00	5.778893e-01	4.166331e+14	1.263145e+15	4.585141e+14	1.434301e+04	6.995830e+03	2.331600e+03	0	6.844889e-04
6.400000e+08	1.011268e+13	0.000000e+00	5.778893e-01	4.151210e+14	1.252344e+15	4.562850e+14	1.433701e+04	6.988217e+03	2.329062e+03	0	6.807076e-04
6.500000e+08	9.945102e+12	0.000000e+00	5.778893e-01	4.136247e+14	1.241787e+15	4.540716e+14	1.433104e+04	6.980741e+03	2.326571e+03	0	6.769267e-04
6.600000e+08	9.779367e+12	0.000000e+00	5.778893e-01	4.121438e+14	1.231465e+15	4.518738e+14	1.432509e+04	6.973398e+03	2.324123e+03	0	6.731453e-04
6.700000e+08	9.615433e+12	0.000000e+00	5.778893e-01	4.106780e+14	1.221368e+15	4.496914e+14	1.431916e+04	6.966186e+03	2.321720e+03	0	6.693627e-04
6.800000e+08	9.453262e+12	0.000000e+00	5.778893e-01	4.092270e+14	1.211491e+15	4.475243e+14	1.431326e+04	6.959099e+03	2.319358e+03	0	6.655782e-04
6.900000e+08	9.292814e+12	0.000000e+00	5.778893e-01	4.077904e+14	1.201824e+15	4.453724e+14	1.430737e+04	6.952134e+03	2.317037e+03	0	6.617911e-04
7.000000e+08	9.134053e+12	0.000000e+00	5.778893e-01	4.063679e+14	1.192361e+15	4.432357e+14	1.430150e+04	6.945289e+03	2.314755e+03	0	6.580007e-04
7.100000e+08	8.976943e+12	0.000000e+00	5.778893e-01	4.049593e+14	1.183095e+15	4.411139e+14	1.429566e+04	6.938558e+03	2.312512e+03	0	6.542063e-04
7.200000e+08	8.821449e+12	0.000000e+00	5.778893e-01	4.035643e+14	1.174020e+15	4.390069e+14	1.428983e+04	6.931940e+03	2.310306e+03	0	6.504070e-04
7.300000e+08	8.667538e+12	0.000000e+00	5.778893e-01	4.021826e+14	1.165129e+15	4.369146e+14	1.428403e+04	6.925430e+03	2.308136e+03	0	6.466021e-04
7.400000e+08	8.515177e+12	0.000000e+00	5.778893e-01	4.008138e+14	1.156416e+15	4.348370e+14	1.427824e+04	6.919027e+03	2.306002e+03	0	6.427910e-04
7.500000e+08	8.364335e+12	0.000000e+00	5.778893e-01	3.994579e+14	1.147876e+15	4.327738e+14	1.427248e+04	6.912726e+03	2.303902e+03	0	6.389728e-04
7.600000e+08	8.214980e+12	0.000000e+00	5.778893e-01	3.981144e+14	1.139503e+15	4.307250e+14	1.426673e+04	6.906525e+03	2.301836e+03	0	6.351467e-04
7.700000e+08	8.067082e+12	0.000000e+00	5.778893e-01	3.967832e+14	1.131291e+15	4.286905e+14	1.426101e+04	6.900422e+03	2.299802e+03	0	6.313120e-04
7.800000e+08	7.920614e+12	0.000000e+00	5.778893e-01	3.954640e+14	1.123237e+15	4.266701e+14	1.425530e+04	6.894413e+03	2.297799e+03	0	6.274679e-04
7.900000e+08	7.775546e+12	0.000000e+00	5.778893e-01	3.941566e+14	1.115334e+15	4.246637e+14	1.424961e+04	6.888497e+03	2.295827e+03	0	6.236135e-04
8.000000e+08	7.631851e+12	0.000000e+00	5.778893e-01	3.928608e+14	1.107578e+15	4.226713e+14	1.424394e+04	6.882670e+03	2.293885e+03	0	6.197481e-04
8.100000e+08	7.489504e+12	0.000000e+00	5.778893e-01	3.915763e+14	1.099965e+15	4.206926e+14	1.423829e+04	6.876931e+03	2.291972e+03	0	6.158707e-04
8.200000e+08	7.348478e+12	0.000000e+00	5.778893e-01	3.903029e+14	1.092491e+15	4.187277e+14	1.423266e+04	6.871276e+03	2.290088e+03	0	6.119806e-04
8.300000e+08	7.208748e+12	0.000000e+00	5.778893e-01	3.890405e+14	1.085151e+15	4.167763e+14	1.422704e+04	6.865705e+03	2.288231e+03	0	6.080769e-04
8.400000e+08	7.070291e+12	0.000000e+00	5.778893e-01	3.877888e+14	1.077941e+15	4.148385e+14	1.422145e+04	6.860214e+03	2.286401e+03	0	6.041586e-04
8.500000e+08	6.933082e+12	0.000000e+00	5.778893e-01	3.865476e+14	1.070858e+15	4.129139e+14	1.421587e+04	6.854802e+03	2.284597e+03	0	6.002249e-04
8.600000e+08	6.797098e+12	0.000000e+00	5.778893e-01	3.853168e+14	1.063898e+15	4.110027e+14	1.421031e+04	6.849466e+03	2.282819e+03	0	5.962747e-04
8.700000e+08	6.662318e+12	0.000000e+00	5.778893e-01	3.840961e+14	1.057057e+15	4.091046e+14	1.420476e+04	6.844205e+03	2.281065e+03	0	5.923072e-04
8.800000e+08	6.528719e+12	0.000000e+00	5.778893e-01	3.828854e+14	1.050332e+15	4.072196e+14	1.419924e+04	6.839017e+03	2.279336e+03	0	5.883212e-04
8.900000e+08	6.396281e+12	0.000000e+00	5.778893e-01	3.816845e+14	1.043720e+15	4.053475e+14	1.419373e+04	6.833900e+03	2.277631e+03	0	5.843159e-04
9.000000e+08	6.264983e+12	0.000000e+00	5.778893e-01	3.804933e+14	1.037217e+15	4.034882e+14	1.418824e+04	6.828853e+03	2.275949e+03	0	5.802901e-04
9.100000e+08	6.134804e+12	0.000000e+00	5.778893e-01	3.793115e+14	1.030821e+15	4.016418e+14	1.418277e+04	6.823872e+03	2.274289e+03	0	5.762427e-04
9.200000e+08	6.005727e+12	0.000000e+00	5.778893e-01	3.781391e+14	1.024529e+15	3.998079e+14	1.417731e+04	6.818958e+03	2.272651e+03	0	5.721726e-04
9.300000e+08	5.877731e+12	0.000000e+00	5.778893e-01	3.769757e+14	1.018338e+15	3.979866e+14	1.417187e+04	6.814108e+03	2.271035e+03	0	5.680786e-04
9.400000e+08	5.750799e+12	0.000000e+00	5.778893e-01	3.758214e+14	1.012244e+15	3.961778e+14	1.416645e+04	6.809321e+03	2.269439e+03	0	5.639595e-04
9.500000e+08	5.624911e+12	0.000000e+00	5.778893e-01	3.746760e+14	1.006247e+15	3.943813e+14	1.416104e+04	6.804595e+03	2.267864e+03	0	5.598140e-04
9.600000e+08	5.500052e+12	0.000000e+00	5.778893e-01	3.735392e+14	1.000342e+15	3.925970e+14	1.415565e+04	6.799929e+03	2.266309e+03	0	5.556408e-04
9.700000e+08	5.376204e+12	0.000000e+00	5.778893e-01	3.724111e+14	9.945277e+14	3.908249e+14	1.415028e+04	6.795321e+03	2.264773e+03	0	5.514385e-04
9.800000e+08	5.253350e+12	0.000000e+00	5.778893e-01	3.712913e+14	9.888018e+14	3.890648e+14	1.414492e+04	6.790770e+03	2.263256e+03	0	5.472057e-04
9.900000e+08	5.131474e+12	0.000000e+00	5.778893e-01	3.701799e+14	9.831618e+14	3.873168e+14	1.413958e+04	6.786276e+03	2.261758e+03	0	5.429409e-04
1.000000e+09	5.010561e+12	0.000000e+00	5.778893e-01	3.690766e+14	9.776056e+14	3.855805e+14	1.413425e+04	6.781835e+03	2.260278e+03	0	5.386425e-04
1.010000e+09	4.890595e+12	0.000000e+00	5.778893e-01	3.679814e+14	9.721311e+14	3.838561e+14	1.412895e+04	6.777448e+03	2.258816e+03	0	5.343089e-04
1.020000e+09	4.771561e+12	0.000000e+00	5.778893e-01	3.668940e+14	9.667361e+14	3.821433e+14	1.412365e+04	6.773113e+03	2.257371e+03	0	5.299384e-04
1.030000e+09	4.653444e+12	0.000000e+00	5.778893e-01	3.658145e+14	9.614189e+14	3.804422e+14	1.411837e+04	6.768828e+03	2.255943e+03	0	5.255290e-04
1.040000e+09	4.536231e+12	0.000000e+00	5.778893e-01	3.647427e+14	9.561773e+14	3.787525e+14	1.411311e+04	6.764593e+03	2.254532e+03	0	5.210790e-04
1.050000e+09	4.419907e+12	0.000000e+00	5.778893e-01	3.636784e+14	9.510097e+14	3.770742e+14	1.410786e+04	6.760407e+03	2.253137e+03	0	5.165863e-04
1.060000e+09	4.304459e+12	0.000000e+00	5.778893e-01	3.626216e+14	9.459141e+14	3.754073e+14	1.410263e+04	6.756269e+03	2.251758e+03	0	5.120489e-04
1.070000e+09	4.189874e+12	0.000000e+00	5.778893e-01	3.615721e+14	9.408889e+14	3.737516e+14	1.409742e+04	6.752176e+03	2.250394e+03	0	5.074643e-04
1.080000e+09	4.076139e+12	0.000000e+00	5.778893e-01	3.605298e+14	9.359324e+14	3.721070e+14	1.409221e+04	6.748130e+03	2.249045e+03	0	5.028304e-04
1.090000e+09	3.963241e+12	0.000000e+00	5.778893e-01	3.594947e+14	9.310430e+14	3.704735e+14	1.408703e+04	6.744127e+03	2.247711e+03	0	4.981445e-04
1.100000e+09	3.851167e+12	0.000000e+00	5.778893e-01	3.584666e+14	9.262192e+14	3.688510e+14	1.408186e+04	6.740169e+03	2.246392e+03	0	4.934040e-04
1.110000e+09	3.739907e+12	0.000000e+00	5.778893e-01	3.574454e+14	9.214593e+14	3.672393e+14	1.407670e+04	6.736252e+03	2.245086e+03	0	4.886060e-04
1.120000e+09	3.629447e+12	0.000000e+00	5.778893e-01	3.564311e+14	9.167620e+14	3.656384e+14	1.407156e+04	6.732378e+03	2.243795e+03	0	4.837475e-04
1.130000e+09	3.519777e+12	0.000000e+00	5.778893e-01	3.554235e+14	9.121257e+14	3.640483e+14	1.406643e+04	6.728544e+03	2.242517e+03	0	4.788251e-04
1.140000e+09	3.410886e+12	0.000000e+00	5.778893e-01	3.544225e+14	9.075492e+14	3.624687e+14	1.406132e+04	6.724751e+03	2.241253e+03	0	4.738355e-04
1.150000e+09	3.302762e+12	0.000000e+00	5.778893e-01	3.534281e+14	9.030311e+14	3.608998e+14	1.405622e+04	6.720996e+03	2.240002e+03	0	4.687748e-04
1.160000e+09	3.195395e+12	0.000000e+00	5.778893e-01	3.524402e+14	8.985701e+14	3.593412e+14	1.405113e+04	6.717280e+03	2.238763e+03	0	4.636391e-04
1.170000e+09	3.088774e+12	0.000000e+00	5.778893e-01	3.514586e+14	8.941649e+14	3.577931e+14	1.404606e+04	6.713601e+03	2.237537e+03	0	4.584239e-04
1.180000e+09	2.982890e+12	0.000000e+00	5.778893e-01	3.504833e+14	8.898143e+14	3.562553e+14	1.404101e+04	6.709959e+03	2.236323e+03	0	4.531246e-04
1.190000e+09	2.877731e+12	0.000000e+00	5.778893e-01	3.495143e+14	8.855172e+14	3.547277e+14	1.403596e+04	6.706353e+03	2.235122e+03	0	4.477359e-04
1.200000e+09	2.773289e+12	0.000000e+00	5.778893e-01	3.485513e+14	8.812723e+14	3.532102e+14	1.403094e+04	6.702783e+03	2.233932e+03	0	4.422525e-04
1.210000e+09	2.669554e+12	0.000000e+00	5.778893e-01	3.475944e+14	8.770786e+14	3.517028e+14	1.402592e+04	6.699247e+03	2.232753e+03	0	4.366681e-04
1.220000e+09	2.566516e+12	0.000000e+00	5.778893e-01	3.466435e+14	8.729350e+14	3.502054e+14	1.402092e+04	6.695745e+03	2.231586e+03	0	4.309761e-04
1.230000e+09	2.464166e+12	0.000000e+00	5.778893e-01	3.456985e+14	8.688405e+14	3.487179e+14	1.401594e+04	6.692276e+03	2.230430e+03	0	4.251693e-04
1.240000e+09	2.362496e+12	0.000000e+00	5.778893e-01	3.447593e+14	8.647940e+14	3.472402e+14	1.401096e+04	6.688840e+03	2.229285e+03	0	4.192395e-04
1.250000e+09	2.261496e+12	0.000000e+00	5.778893e-01	3.438258e+14	8.607945e+14	3.457723e+14	1.400600e+04	6.685435e+03	2.228150e+03	0	4.131779e-04
1.260000e+09	2.161158e+12	0.000000e+00	5.778893e-01	3.428980e+14	8.568410e+14	3.443140e+14	1.400106e+04	6.682062e+03	2.227026e+03	0	4.069747e-04
1.270000e+09	2.061474e+12	0.000000e+00	5.778893e-01	3.419758e+14	8.529327e+14	3.428654e+14	1.399612e+04	6.678720e+03	2.225912e+03	0	4.006186e-04
1.280000e+09	1.962434e+12	0.000000e+00	5.778893e-01	3.410592e+14	8.490686e+14	3.414263e+14	1.399120e+04	6.675408e+03	2.224808e+03	0	3.940974e-04
1.290000e+09	1.864033e+12	0.000000e+00	5.778893e-01	3.401480e+14	8.452479e+14	3.399966e+14	1.398630e+04	6.672126e+03	2.223714e+03	0	3.873971e-04
1.300000e+09	1.766260e+12	0.000000e+00	5.778893e-01	3.392422e+14	8.414696e+14	3.385764e+14	1.398140e+04	6.668872e+03	2.222630e+03	0	3.805018e-04
1.310000e+09	1.669109e+12	0.000000e+00	5.778893e-01	3.383417e+14	8.377330e+14	3.371654e+14	1.397652e+04	6.665647e+03	2.221555e+03	0	3.733935e-04
1.320000e+09	1.572573e+12	0.000000e+00	5.778893e-01	3.374466e+14	8.340372e+14	3.357637e+14	1.397165e+04	6.662450e+03	2.220489e+03	0	3.660514e-04
1.330000e+09	1.476642e+12	0.000000e+00	5.778893e-01	3.365566e+14	8.303815e+14	3.343712e+14	1.396680e+04	6.659281e+03	2.219433e+03	0	3.584514e-04
1.340000e+09	1.381312e+12	0.000000e+00	5.778893e-01	3.356718e+14	8.267650e+14	3.329877e+14	1.396196e+04	6.656138e+03	2.218386e+03	0	3.505654e-04
1.350000e+09	1.286573e+12	0.000000e+00	5.778893e-01	3.347921e+14	8.231871e+14	3.316133e+14	1.395713e+04	6.653022e+03	2.217347e+03	0	3.423603e-04
1.360000e+09	1.192420e+12	0.000000e+00	5.778893e-01	3.339174e+14	8.196470e+14	3.302478e+14	1.395231e+04	6.649932e+03	2.216317e+03	0	3.337963e-04
