#t		Qconv[W]	Ri[Rp]		R*[Rp]		Qc[W]		Qm[W]		Qr[W]		Tcmb[K]		Tl[K]		Tup[K]		RiFlag		Bs[T]
0.000000e+00	2.324870e+13	0.000000e+00	5.778895e-01	7.539020e+14	3.837631e+15	7.441079e+14	1.657477e+04	9.160254e+03	2.825761e+03	0	8.938699e-04
1.000000e+07	2.272489e+13	0.000000e+00	5.778895e-01	7.495947e+14	3.732846e+15	7.399850e+14	1.656648e+04	9.120438e+03	2.813478e+03	0	8.871057e-04
2.000000e+07	2.220996e+13	0.000000e+00	5.778895e-01	7.453572e+14	3.634078e+15	7.358929e+14	1.655824e+04	9.082245e+03	2.801696e+03	0	8.803540e-04
3.000000e+07	2.170387e+13	0.000000e+00	5.778895e-01	7.411891e+14	3.540848e+15	7.318314e+14	1.655004e+04	9.045576e+03	2.790385e+03	0	8.736159e-04
4.000000e+07	2.120659e+13	0.000000e+00	5.778895e-01	7.370902e+14	3.452724e+15	7.278002e+14	1.654189e+04	9.010341e+03	2.779516e+03	0	8.668921e-04
5.000000e+07	2.071802e+13	0.000000e+00	5.778895e-01	7.330598e+14	3.369314e+15	7.237991e+14	1.653378e+04	8.976457e+03	2.769063e+03	0	8.601830e-04
6.000000e+07	2.023806e+13	0.000000e+00	5.778895e-01	7.290969e+14	3.290266e+15	7.198279e+14	1.652572e+04	8.943846e+03	2.759003e+03	0	8.534886e-04
7.000000e+07	1.976657e+13	0.000000e+00	5.778895e-01	7.252005e+14	3.215261e+15	7.158862e+14	1.651770e+04	8.912436e+03	2.749314e+03	0	8.468084e-04
8.000000e+07	1.930340e+13	0.000000e+00	5.778895e-01	7.213695e+14	3.144009e+15	7.119738e+14	1.650972e+04	8.882162e+03	2.739975e+03	0	8.401420e-04
9.000000e+07	1.884839e+13	0.000000e+00	5.778895e-01	7.176026e+14	3.076245e+15	7.080905e+14	1.650178e+04	8.852963e+03	2.730967e+03	0	8.334884e-04
1.000000e+08	1.840139e+13	0.000000e+00	5.778895e-01	7.138985e+14	3.011729e+15	7.042360e+14	1.649389e+04	8.824780e+03	2.722274e+03	0	8.268467e-04
1.100000e+08	1.796221e+13	0.000000e+00	5.778895e-01	7.102558e+14	2.950241e+15	7.004101e+14	1.648604e+04	8.797563e+03	2.713877e+03	0	8.202155e-04
1.200000e+08	1.753067e+13	0.000000e+00	5.778895e-01	7.066732e+14	2.891580e+15	6.966126e+14	1.647823e+04	8.771260e+03	2.705764e+03	0	8.135937e-04
1.300000e+08	1.710659e+13	0.000000e+00	5.778895e-01	7.031492e+14	2.835563e+15	6.928433e+14	1.647045e+04	8.745826e+03	2.697918e+03	0	8.069797e-04
1.400000e+08	1.668980e+13	0.000000e+00	5.778895e-01	6.996825e+14	2.782019e+15	6.891018e+14	1.646272e+04	8.721219e+03	2.690327e+03	0	8.003719e-04
1.500000e+08	1.628012e+13	0.000000e+00	5.778895e-01	6.962716e+14	2.730794e+15	6.853880e+14	1.645502e+04	8.697397e+03	2.682978e+03	0	7.937686e-04
1.600000e+08	1.587735e+13	0.000000e+00	5.778895e-01	6.929151e+14	2.681744e+15	6.817016e+14	1.644736e+04	8.674324e+03	2.675861e+03	0	7.871681e-04
1.700000e+08	1.548133e+13	0.000000e+00	5.778895e-01	6.896117e+14	2.634738e+15	6.780424e+14	1.643974e+04	8.651964e+03	2.668963e+03	0	7.805683e-04
1.800000e+08	1.509188e+13	0.000000e+00	5.778895e-01	6.863599e+14	2.589654e+15	6.744101e+14	1.643215e+04	8.630283e+03	2.662275e+03	0	7.739673e-04
1.900000e+08	1.470883e+13	0.000000e+00	5.778895e-01	6.831584e+14	2.546379e+15	6.708047e+14	1.642460e+04	8.609252e+03	2.655787e+03	0	7.673630e-04
2.000000e+08	1.433201e+13	0.000000e+00	5.778895e-01	6.800060e+14	2.504809e+15	6.672257e+14	1.641709e+04	8.588840e+03	2.649490e+03	0	7.607532e-04
2.100000e+08	1.396125e+13	0.000000e+00	5.778895e-01	6.769013e+14	2.464848e+15	6.636731e+14	1.640961e+04	8.569020e+03	2.643376e+03	0	7.541358e-04
2.200000e+08	1.359640e+13	0.000000e+00	5.778895e-01	6.738431e+14	2.426405e+15	6.601466e+14	1.640216e+04	8.549767e+03	2.637437e+03	0	7.475083e-04
2.300000e+08	1.323729e+13	0.000000e+00	5.778895e-01	6.708302e+14	2.389398e+15	6.566460e+14	1.639475e+04	8.531055e+03	2.631665e+03	0	7.408684e-04
2.400000e+08	1.288377e+13	0.000000e+00	5.778895e-01	6.678613e+14	2.353748e+15	6.531710e+14	1.638737e+04	8.512862e+03	2.626053e+03	0	7.342136e-04
2.500000e+08	1.253569e+13	0.000000e+00	5.778895e-01	6.649353e+14	2.319384e+15	6.497215e+14	1.638002e+04	8.495166e+03	2.620594e+03	0	7.275411e-04
2.600000e+08	1.219292e+13	0.000000e+00	5.778895e-01	6.620510e+14	2.286237e+15	6.462972e+14	1.637271e+04	8.477947e+03	2.615282e+03	0	7.208484e-04
2.700000e+08	1.185530e+13	0.000000e+00	5.778895e-01	6.592075e+14	2.254246e+15	6.428979e+14	1.636542e+04	8.461184e+03	2.610111e+03	0	7.141327e-04
2.800000e+08	1.152270e+13	0.000000e+00	5.778895e-01	6.564035e+14	2.223352e+15	6.395235e+14	1.635817e+04	8.444860e+03	2.605076e+03	0	7.073909e-04
2.900000e+08	1.119499e+13	0.000000e+00	5.778895e-01	6.536382e+14	2.193499e+15	6.361737e+14	1.635095e+04	8.428957e+03	2.600170e+03	0	7.006202e-04
3.000000e+08	1.087204e+13	0.000000e+00	5.778895e-01	6.509104e+14	2.164636e+15	6.328483e+14	1.634376e+04	8.413459e+03	2.595389e+03	0	6.938172e-04
3.100000e+08	1.055372e+13	0.000000e+00	5.778895e-01	6.482192e+14	2.136715e+15	6.295472e+14	1.633660e+04	8.398349e+03	2.590728e+03	0	6.869788e-04
3.200000e+08	1.023992e+13	0.000000e+00	5.778895e-01	6.455637e+14	2.109691e+15	6.262701e+14	1.632947e+04	8.383613e+03	2.586182e+03	0	6.801014e-04
3.300000e+08	9.930520e+12	0.000000e+00	5.778895e-01	6.429430e+14	2.083521e+15	6.230168e+14	1.632237e+04	8.369236e+03	2.581747e+03	0	6.731814e-04
3.400000e+08	9.625402e+12	0.000000e+00	5.778895e-01	6.403561e+14	2.058165e+15	6.197871e+14	1.631529e+04	8.355206e+03	2.577419e+03	0	6.662150e-04
3.500000e+08	9.324460e+12	0.000000e+00	5.778895e-01	6.378023e+14	2.033586e+15	6.165808e+14	1.630825e+04	8.341509e+03	2.573194e+03	0	6.591982e-04
3.600000e+08	9.027586e+12	0.000000e+00	5.778895e-01	6.352806e+14	2.009748e+15	6.133979e+14	1.630123e+04	8.328133e+03	2.569068e+03	0	6.521267e-04
3.700000e+08	8.734678e+12	0.000000e+00	5.778895e-01	6.327904e+14	1.986618e+15	6.102379e+14	1.629424e+04	8.315067e+03	2.565037e+03	0	6.449961e-04
3.800000e+08	8.445637e+12	0.000000e+00	5.778895e-01	6.303308e+14	1.964166e+15	6.071008e+14	1.628728e+04	8.302299e+03	2.561098e+03	0	6.378016e-04
3.900000e+08	8.160366e+12	0.000000e+00	5.778895e-01	6.279010e+14	1.942360e+15	6.039864e+14	1.628035e+04	8.289818e+03	2.557248e+03	0	6.305381e-04
4.000000e+08	7.878772e+12	0.000000e+00	5.778895e-01	6.255004e+14	1.921173e+15	6.008945e+14	1.627344e+04	8.277616e+03	2.553484e+03	0	6.232003e-04
4.100000e+08	7.600766e+12	0.000000e+00	5.778895e-01	6.231282e+14	1.900580e+15	5.978249e+14	1.626656e+04	8.265681e+03	2.549802e+03	0	6.157823e-04
4.200000e+08	7.326259e+12	0.000000e+00	5.778895e-01	6.207838e+14	1.880554e+15	5.947774e+14	1.625970e+04	8.254005e+03	2.546200e+03	0	6.082781e-04
4.300000e+08	7.055167e+12	0.000000e+00	5.778895e-01	6.184665e+14	1.861072e+15	5.917519e+14	1.625287e+04	8.242579e+03	2.542676e+03	0	6.006810e-04
4.400000e+08	6.787409e+12	0.000000e+00	5.778895e-01	6.161756e+14	1.842112e+15	5.887481e+14	1.624607e+04	8.231395e+03	2.539226e+03	0	5.929837e-04
4.500000e+08	6.522905e+12	0.000000e+00	5.778895e-01	6.139106e+14	1.823653e+15	5.857659e+14	1.623929e+04	8.220444e+03	2.535848e+03	0	5.851786e-04
4.600000e+08	6.261578e+12	0.000000e+00	5.778895e-01	6.116709e+14	1.805674e+15	5.828051e+14	1.623254e+04	8.209719e+03	2.532539e+03	0	5.772572e-04
4.700000e+08	6.003355e+12	0.000000e+00	5.778895e-01	6.094558e+14	1.788157e+15	5.798656e+14	1.622581e+04	8.199213e+03	2.529298e+03	0	5.692103e-04
4.800000e+08	5.748162e+12	0.000000e+00	5.778895e-01	6.072648e+14	1.771084e+15	5.769471e+14	1.621910e+04	8.188917e+03	2.526122e+03	0	5.610279e-04
4.900000e+08	5.495932e+12	0.000000e+00	5.778895e-01	6.050974e+14	1.754437e+15	5.740495e+14	1.621242e+04	8.178827e+03	2.523009e+03	0	5.526988e-04
5.000000e+08	5.246595e+12	0.000000e+00	5.778895e-01	6.029530e+14	1.738199e+15	5.711726e+14	1.620577e+04	8.168934e+03	2.519958e+03	0	5.442110e-04
5.100000e+08	5.000087e+12	0.000000e+00	5.778895e-01	6.008311e+14	1.722356e+15	5.683163e+14	1.619913e+04	8.159233e+03	2.516965e+03	0	5.355507e-04
5.200000e+08	4.756344e+12	0.000000e+00	5.778895e-01	5.987313e+14	1.706893e+15	5.654804e+14	1.619252e+04	8.149718e+03	2.514030e+03	0	5.267031e-04
5.300000e+08	4.515306e+12	0.000000e+00	5.778895e-01	5.966530e+14	1.691795e+15	5.626647e+14	1.618593e+04	8.140384e+03	2.511150e+03	0	5.176511e-04
5.400000e+08	4.276911e+12	0.000000e+00	5.778895e-01	5.945958e+14	1.677050e+15	5.598690e+14	1.617937e+04	8.131223e+03	2.508325e+03	0	5.083758e-04
5.500000e+08	4.041104e+12	0.000000e+00	5.778895e-01	5.925592e+14	1.662644e+15	5.570933e+14	1.617283e+04	8.122232e+03	2.505551e+03	0	4.988555e-04
5.600000e+08	3.807827e+12	0.000000e+00	5.778895e-01	5.905428e+14	1.648565e+15	5.543372e+14	1.616631e+04	8.113406e+03	2.502828e+03	0	4.890657e-04
5.700000e+08	3.577027e+12	0.000000e+00	5.778895e-01	5.885462e+14	1.634802e+15	5.516008e+14	1.615981e+04	8.104738e+03	2.500155e+03	0	4.789779e-04
5.800000e+08	3.348651e+12	0.000000e+00	5.778895e-01	5.865690e+14	1.621344e+15	5.488838e+14	1.615334e+04	8.096225e+03	2.497528e+03	0	4.685595e-04
5.900000e+08	3.122647e+12	0.000000e+00	5.778895e-01	5.846107e+14	1.608180e+15	5.461860e+14	1.614688e+04	8.087863e+03	2.494949e+03	0	4.577718e-04
6.000000e+08	2.898967e+12	0.000000e+00	5.778895e-01	5.826710e+14	1.595300e+15	5.435073e+14	1.614045e+04	8.079645e+03	2.492414e+03	0	4.465697e-04
6.100000e+08	2.677563e+12	0.000000e+00	5.778895e-01	5.807495e+14	1.582694e+15	5.408476e+14	1.613404e+04	8.071570e+03	2.489923e+03	0	4.348986e-04
6.200000e+08	2.458387e+12	0.000000e+00	5.778895e-01	5.788458e+14	1.570353e+15	5.382066e+14	1.612765e+04	8.063632e+03	2.487474e+03	0	4.226928e-04
6.300000e+08	2.241395e+12	0.000000e+00	5.778895e-01	5.769596e+14	1.558268e+15	5.355843e+14	1.612128e+04	8.055827e+03	2.485066e+03	0	4.098714e-04
6.400000e+08	2.026542e+12	0.000000e+00	5.778895e-01	5.750906e+14	1.546431e+15	5.329805e+14	1.611493e+04	8.048152e+03	2.482699e+03	0	3.963328e-04
6.500000e+08	1.813787e+12	0.000000e+00	5.778895e-01	5.732383e+14	1.534834e+15	5.303951e+14	1.610861e+04	8.040604e+03	2.480370e+03	0	3.819474e-04
6.600000e+08	1.603087e+12	0.000000e+00	5.778895e-01	5.714026e+14	1.523469e+15	5.278278e+14	1.610230e+04	8.033177e+03	2.478079e+03	0	3.665449e-04
6.700000e+08	1.394402e+12	0.000000e+00	5.778895e-01	5.695830e+14	1.512329e+15	5.252786e+14	1.609601e+04	8.025871e+03	2.475825e+03	0	3.498948e-04
6.800000e+08	1.187694e+12	0.000000e+00	5.778895e-01	5.677792e+14	1.501406e+15	5.227473e+14	1.608975e+04	8.018680e+03	2.473607e+03	0	3.316726e-04
6.900000e+08	9.829236e+11	0.000000e+00	5.778895e-01	5.659911e+14	1.490694e+15	5.202337e+14	1.608350e+04	8.011602e+03	2.471424e+03	0	3.113972e-04
7.000000e+08	7.800548e+11	0.000000e+00	5.778895e-01	5.642182e+14	1.480186e+15	5.177378e+14	1.607727e+04	8.004634e+03	2.469274e+03	0	2.883034e-04
7.100000e+08	5.790514e+11	0.000000e+00	5.778895e-01	5.624602e+14	1.469876e+15	5.152593e+14	1.607107e+04	7.997774e+03	2.467158e+03	0	2.610441e-04
7.200000e+08	3.798786e+11	0.000000e+00	5.778895e-01	5.607170e+14	1.459757e+15	5.127982e+14	1.606488e+04	7.991017e+03	2.465074e+03	0	2.268244e-04
7.300000e+08	1.825025e+11	0.000000e+00	5.778895e-01	5.589883e+14	1.449825e+15	5.103542e+14	1.605871e+04	7.984361e+03	2.463021e+03	0	1.776496e-04
7.400000e+08	-1.311000e+10	0.000000e+00	5.778895e-01	5.572737e+14	1.440073e+15	5.079274e+14	1.605256e+04	7.977805e+03	2.460998e+03	0	-nan
