#t		Qconv[W]	Ri[Rp]		R*[Rp]		Qc[W]		Qm[W]		Qr[W]		Tcmb[K]		Tl[K]		Tup[K]		RiFlag		Bs[T]
0.000000e+00	2.410564e+13	0.000000e+00	5.728641e-01	8.171843e+14	3.755379e+15	7.714617e+14	1.728553e+04	9.514681e+03	2.851669e+03	0	9.112717e-04
1.000000e+07	2.357016e+13	0.000000e+00	5.728641e-01	8.127558e+14	3.664145e+15	7.671872e+14	1.727671e+04	9.478585e+03	2.840851e+03	0	9.044735e-04
2.000000e+07	2.304345e+13	0.000000e+00	5.728641e-01	8.083962e+14	3.577701e+15	7.629447e+14	1.726794e+04	9.443851e+03	2.830440e+03	0	8.976854e-04
3.000000e+07	2.252542e+13	0.000000e+00	5.728641e-01	8.041048e+14	3.495696e+15	7.587339e+14	1.725922e+04	9.410402e+03	2.820415e+03	0	8.909075e-04
4.000000e+07	2.201596e+13	0.000000e+00	5.728641e-01	7.998810e+14	3.417808e+15	7.545545e+14	1.725054e+04	9.378168e+03	2.810754e+03	0	8.841397e-04
5.000000e+07	2.151497e+13	0.000000e+00	5.728641e-01	7.957237e+14	3.343749e+15	7.504064e+14	1.724191e+04	9.347083e+03	2.801438e+03	0	8.773818e-04
6.000000e+07	2.102230e+13	0.000000e+00	5.728641e-01	7.916318e+14	3.273252e+15	7.462891e+14	1.723332e+04	9.317085e+03	2.792447e+03	0	8.706329e-04
7.000000e+07	2.053780e+13	0.000000e+00	5.728641e-01	7.876042e+14	3.206076e+15	7.422025e+14	1.722478e+04	9.288119e+03	2.783765e+03	0	8.638924e-04
8.000000e+07	2.006132e+13	0.000000e+00	5.728641e-01	7.836397e+14	3.141999e+15	7.381463e+14	1.721628e+04	9.260130e+03	2.775377e+03	0	8.571593e-04
9.000000e+07	1.959270e+13	0.000000e+00	5.728641e-01	7.797370e+14	3.080820e+15	7.341202e+14	1.720782e+04	9.233069e+03	2.767266e+03	0	8.504323e-04
1.000000e+08	1.913176e+13	0.000000e+00	5.728641e-01	7.758948e+14	3.022353e+15	7.301241e+14	1.719941e+04	9.206891e+03	2.759420e+03	0	8.437102e-04
1.100000e+08	1.867834e+13	0.000000e+00	5.728641e-01	7.721117e+14	2.966425e+15	7.261576e+14	1.719103e+04	9.181552e+03	2.751826e+03	0	8.369916e-04
1.200000e+08	1.823226e+13	0.000000e+00	5.728641e-01	7.683864e+14	2.912881e+15	7.222205e+14	1.718270e+04	9.157012e+03	2.744471e+03	0	8.302748e-04
1.300000e+08	1.779336e+13	0.000000e+00	5.728641e-01	7.647176e+14	2.861576e+15	7.183125e+14	1.717441e+04	9.133233e+03	2.737344e+03	0	8.235583e-04
1.400000e+08	1.736146e+13	0.000000e+00	5.728641e-01	7.611040e+14	2.812374e+15	7.144335e+14	1.716616e+04	9.110180e+03	2.730435e+03	0	8.168402e-04
1.500000e+08	1.693640e+13	0.000000e+00	5.728641e-01	7.575442e+14	2.765154e+15	7.105832e+14	1.715794e+04	9.087819e+03	2.723733e+03	0	8.101188e-04
1.600000e+08	1.651800e+13	0.000000e+00	5.728641e-01	7.540369e+14	2.719800e+15	7.067613e+14	1.714977e+04	9.066119e+03	2.717229e+03	0	8.033920e-04
1.700000e+08	1.610610e+13	0.000000e+00	5.728641e-01	7.505808e+14	2.676206e+15	7.029676e+14	1.714163e+04	9.045051e+03	2.710915e+03	0	7.966579e-04
1.800000e+08	1.570055e+13	0.000000e+00	5.728641e-01	7.471748e+14	2.634274e+15	6.992018e+14	1.713353e+04	9.024587e+03	2.704782e+03	0	7.899142e-04
1.900000e+08	1.530117e+13	0.000000e+00	5.728641e-01	7.438174e+14	2.593912e+15	6.954638e+14	1.712547e+04	9.004701e+03	2.698822e+03	0	7.831589e-04
2.000000e+08	1.490782e+13	0.000000e+00	5.728641e-01	7.405076e+14	2.555035e+15	6.917533e+14	1.711744e+04	8.985368e+03	2.693027e+03	0	7.763896e-04
2.100000e+08	1.452034e+13	0.000000e+00	5.728641e-01	7.372441e+14	2.517564e+15	6.880701e+14	1.710945e+04	8.966564e+03	2.687392e+03	0	7.696039e-04
2.200000e+08	1.413858e+13	0.000000e+00	5.728641e-01	7.340257e+14	2.481425e+15	6.844139e+14	1.710149e+04	8.948269e+03	2.681908e+03	0	7.627993e-04
2.300000e+08	1.376241e+13	0.000000e+00	5.728641e-01	7.308515e+14	2.446550e+15	6.807846e+14	1.709357e+04	8.930460e+03	2.676571e+03	0	7.559733e-04
2.400000e+08	1.339167e+13	0.000000e+00	5.728641e-01	7.277201e+14	2.412873e+15	6.771819e+14	1.708568e+04	8.913119e+03	2.671373e+03	0	7.491231e-04
2.500000e+08	1.302623e+13	0.000000e+00	5.728641e-01	7.246307e+14	2.380334e+15	6.736056e+14	1.707783e+04	8.896226e+03	2.666310e+03	0	7.422460e-04
2.600000e+08	1.266595e+13	0.000000e+00	5.728641e-01	7.215821e+14	2.348877e+15	6.700554e+14	1.707001e+04	8.879764e+03	2.661376e+03	0	7.353391e-04
2.700000e+08	1.231072e+13	0.000000e+00	5.728641e-01	7.185733e+14	2.318449e+15	6.665312e+14	1.706222e+04	8.863716e+03	2.656567e+03	0	7.283993e-04
2.800000e+08	1.196040e+13	0.000000e+00	5.728641e-01	7.156034e+14	2.289001e+15	6.630327e+14	1.705447e+04	8.848067e+03	2.651876e+03	0	7.214234e-04
2.900000e+08	1.161486e+13	0.000000e+00	5.728641e-01	7.126713e+14	2.260486e+15	6.595598e+14	1.704674e+04	8.832800e+03	2.647301e+03	0	7.144081e-04
3.000000e+08	1.127400e+13	0.000000e+00	5.728641e-01	7.097762e+14	2.232861e+15	6.561122e+14	1.703905e+04	8.817901e+03	2.642835e+03	0	7.073499e-04
3.100000e+08	1.093768e+13	0.000000e+00	5.728641e-01	7.069172e+14	2.206083e+15	6.526897e+14	1.703139e+04	8.803358e+03	2.638477e+03	0	7.002452e-04
3.200000e+08	1.060582e+13	0.000000e+00	5.728641e-01	7.040934e+14	2.180115e+15	6.492921e+14	1.702376e+04	8.789156e+03	2.634220e+03	0	6.930901e-04
3.300000e+08	1.027828e+13	0.000000e+00	5.728641e-01	7.013039e+14	2.154921e+15	6.459192e+14	1.701616e+04	8.775284e+03	2.630062e+03	0	6.858806e-04
3.400000e+08	9.954976e+12	0.000000e+00	5.728641e-01	6.985479e+14	2.130465e+15	6.425708e+14	1.700859e+04	8.761729e+03	2.626000e+03	0	6.786123e-04
3.500000e+08	9.635798e+12	0.000000e+00	5.728641e-01	6.958247e+14	2.106715e+15	6.392467e+14	1.700105e+04	8.748480e+03	2.622029e+03	0	6.712808e-04
3.600000e+08	9.320648e+12	0.000000e+00	5.728641e-01	6.931334e+14	2.083642e+15	6.359467e+14	1.699354e+04	8.735527e+03	2.618147e+03	0	6.638812e-04
3.700000e+08	9.009430e+12	0.000000e+00	5.728641e-01	6.904734e+14	2.061215e+15	6.326706e+14	1.698606e+04	8.722859e+03	2.614350e+03	0	6.564084e-04
3.800000e+08	8.702051e+12	0.000000e+00	5.728641e-01	6.878438e+14	2.039408e+15	6.294182e+14	1.697861e+04	8.710466e+03	2.610636e+03	0	6.488568e-04
3.900000e+08	8.398421e+12	0.000000e+00	5.728641e-01	6.852440e+14	2.018195e+15	6.261893e+14	1.697119e+04	8.698339e+03	2.607001e+03	0	6.412207e-04
4.000000e+08	8.098453e+12	0.000000e+00	5.728641e-01	6.826734e+14	1.997551e+15	6.229837e+14	1.696379e+04	8.686469e+03	2.603443e+03	0	6.334938e-04
4.100000e+08	7.802063e+12	0.000000e+00	5.728641e-01	6.801311e+14	1.977453e+15	6.198013e+14	1.695642e+04	8.674847e+03	2.599960e+03	0	6.256693e-04
4.200000e+08	7.509168e+12	0.000000e+00	5.728641e-01	6.776167e+14	1.957880e+15	6.166417e+14	1.694908e+04	8.663465e+03	2.596549e+03	0	6.177398e-04
4.300000e+08	7.219688e+12	0.000000e+00	5.728641e-01	6.751295e+14	1.938809e+15	6.135050e+14	1.694177e+04	8.652316e+03	2.593207e+03	0	6.096976e-04
4.400000e+08	6.933547e+12	0.000000e+00	5.728641e-01	6.726688e+14	1.920223e+15	6.103908e+14	1.693448e+04	8.641391e+03	2.589933e+03	0	6.015340e-04
4.500000e+08	6.650670e+12	0.000000e+00	5.728641e-01	6.702341e+14	1.902101e+15	6.072990e+14	1.692722e+04	8.630684e+03	2.586724e+03	0	5.932396e-04
4.600000e+08	6.370984e+12	0.000000e+00	5.728641e-01	6.678249e+14	1.884426e+15	6.042293e+14	1.691999e+04	8.620187e+03	2.583578e+03	0	5.848043e-04
4.700000e+08	6.094420e+12	0.000000e+00	5.728641e-01	6.654406e+14	1.867182e+15	6.011817e+14	1.691278e+04	8.609894e+03	2.580493e+03	0	5.762166e-04
4.800000e+08	5.820908e+12	0.000000e+00	5.728641e-01	6.630806e+14	1.850351e+15	5.981560e+14	1.690560e+04	8.599798e+03	2.577467e+03	0	5.674643e-04
4.900000e+08	5.550382e+12	0.000000e+00	5.728641e-01	6.607444e+14	1.833919e+15	5.951519e+14	1.689844e+04	8.589894e+03	2.574499e+03	0	5.585336e-04
5.000000e+08	5.282780e+12	0.000000e+00	5.728641e-01	6.584316e+14	1.817870e+15	5.921692e+14	1.689131e+04	8.580176e+03	2.571586e+03	0	5.494091e-04
5.100000e+08	5.018038e+12	0.000000e+00	5.728641e-01	6.561416e+14	1.802192e+15	5.892079e+14	1.688420e+04	8.570637e+03	2.568727e+03	0	5.400736e-04
5.200000e+08	4.756095e+12	0.000000e+00	5.728641e-01	6.538739e+14	1.786870e+15	5.862677e+14	1.687712e+04	8.561272e+03	2.565920e+03	0	5.305079e-04
5.300000e+08	4.496894e+12	0.000000e+00	5.728641e-01	6.516282e+14	1.771893e+15	5.833485e+14	1.687006e+04	8.552077e+03	2.563165e+03	0	5.206900e-04
5.400000e+08	4.240378e+12	0.000000e+00	5.728641e-01	6.494040e+14	1.757247e+15	5.804501e+14	1.686303e+04	8.543046e+03	2.560458e+03	0	5.105950e-04
5.500000e+08	3.986491e+12	0.000000e+00	5.728641e-01	6.472008e+14	1.742922e+15	5.775723e+14	1.685602e+04	8.534175e+03	2.557799e+03	0	5.001941e-04
5.600000e+08	3.735179e+12	0.000000e+00	5.728641e-01	6.450182e+14	1.728906e+15	5.747150e+14	1.684903e+04	8.525458e+03	2.555186e+03	0	4.894543e-04
5.700000e+08	3.486391e+12	0.000000e+00	5.728641e-01	6.428559e+14	1.715189e+15	5.718779e+14	1.684207e+04	8.516891e+03	2.552619e+03	0	4.783367e-04
5.800000e+08	3.240077e+12	0.000000e+00	5.728641e-01	6.407133e+14	1.701760e+15	5.690610e+14	1.683513e+04	8.508470e+03	2.550095e+03	0	4.667956e-04
5.900000e+08	2.996186e+12	0.000000e+00	5.728641e-01	6.385902e+14	1.688611e+15	5.662641e+14	1.682822e+04	8.500191e+03	2.547614e+03	0	4.547764e-04
6.000000e+08	2.754671e+12	0.000000e+00	5.728641e-01	6.364861e+14	1.675732e+15	5.634869e+14	1.682132e+04	8.492050e+03	2.545174e+03	0	4.422131e-04
6.100000e+08	2.515487e+12	0.000000e+00	5.728641e-01	6.344008e+14	1.663114e+15	5.607294e+14	1.681445e+04	8.484043e+03	2.542774e+03	0	4.290248e-04
6.200000e+08	2.278587e+12	0.000000e+00	5.728641e-01	6.323338e+14	1.650749e+15	5.579914e+14	1.680761e+04	8.476166e+03	2.540413e+03	0	4.151103e-04
6.300000e+08	2.043929e+12	0.000000e+00	5.728641e-01	6.302847e+14	1.638628e+15	5.552727e+14	1.680078e+04	8.468416e+03	2.538090e+03	0	4.003412e-04
6.400000e+08	1.811469e+12	0.000000e+00	5.728641e-01	6.282534e+14	1.626744e+15	5.525732e+14	1.679398e+04	8.460788e+03	2.535804e+03	0	3.845492e-04
6.500000e+08	1.581166e+12	0.000000e+00	5.728641e-01	6.262394e+14	1.615090e+15	5.498927e+14	1.678720e+04	8.453281e+03	2.533554e+03	0	3.675086e-04
6.600000e+08	1.352981e+12	0.000000e+00	5.728641e-01	6.242424e+14	1.603657e+15	5.472310e+14	1.678044e+04	8.445890e+03	2.531339e+03	0	3.489037e-04
6.700000e+08	1.126873e+12	0.000000e+00	5.728641e-01	6.222621e+14	1.592440e+15	5.445881e+14	1.677370e+04	8.438613e+03	2.529158e+03	0	3.282716e-04
6.800000e+08	9.028054e+11	0.000000e+00	5.728641e-01	6.202983e+14	1.581432e+15	5.419637e+14	1.676698e+04	8.431446e+03	2.527010e+03	0	3.048876e-04
6.900000e+08	6.807406e+11	0.000000e+00	5.728641e-01	6.183506e+14	1.570627e+15	5.393578e+14	1.676029e+04	8.424387e+03	2.524894e+03	0	2.775038e-04
7.000000e+08	4.606426e+11	0.000000e+00	5.728641e-01	6.164188e+14	1.560018e+15	5.367701e+14	1.675361e+04	8.417432e+03	2.522810e+03	0	2.436294e-04
7.100000e+08	2.424765e+11	0.000000e+00	5.728641e-01	6.145025e+14	1.549600e+15	5.342005e+14	1.674696e+04	8.410580e+03	2.520756e+03	0	1.967123e-04
7.200000e+08	2.620806e+10	0.000000e+00	5.728641e-01	6.126015e+14	1.539366e+15	5.316489e+14	1.674032e+04	8.403827e+03	2.518732e+03	0	9.370296e-05
7.300000e+08	-1.881959e+11	0.000000e+00	5.728641e-01	6.107156e+14	1.529313e+15	5.291151e+14	1.673371e+04	8.397171e+03	2.516737e+03	0	-nan
