#t		Qconv[W]	Ri[Rp]		R*[Rp]		Qc[W]		Qm[W]		Qr[W]		Tcmb[K]		Tl[K]		Tup[K]		RiFlag		Bs[T]
0.000000e+00	2.341435e+12	0.000000e+00	4.275863e-01	1.024841e+14	1.115800e+15	1.084598e+14	6.297039e+03	3.078836e+03	2.217251e+03	0	5.577293e-04
1.000000e+07	2.194524e+12	0.000000e+00	4.275863e-01	9.617515e+13	9.749178e+14	1.078588e+14	6.240192e+03	3.007854e+03	2.166133e+03	0	5.458118e-04
2.000000e+07	2.063595e+12	0.000000e+00	4.275863e-01	9.055153e+13	8.638230e+14	1.072624e+14	6.186783e+03	2.946984e+03	2.122297e+03	0	5.347338e-04
3.000000e+07	1.946351e+12	0.000000e+00	4.275863e-01	8.551479e+13	7.743843e+14	1.066704e+14	6.136446e+03	2.894108e+03	2.084218e+03	0	5.244087e-04
4.000000e+07	1.840852e+12	0.000000e+00	4.275863e-01	8.098179e+13	7.011039e+14	1.060828e+14	6.088864e+03	2.847672e+03	2.050777e+03	0	5.147572e-04
5.000000e+07	1.745476e+12	0.000000e+00	4.275863e-01	7.688302e+13	6.401509e+14	1.054996e+14	6.043766e+03	2.806509e+03	2.021133e+03	0	5.057091e-04
6.000000e+07	1.658871e+12	0.000000e+00	4.275863e-01	7.316047e+13	5.887849e+14	1.049208e+14	6.000919e+03	2.769727e+03	1.994643e+03	0	4.972029e-04
7.000000e+07	1.579904e+12	0.000000e+00	4.275863e-01	6.976562e+13	5.450009e+14	1.043462e+14	5.960116e+03	2.736626e+03	1.970806e+03	0	4.891849e-04
8.000000e+07	1.507624e+12	0.000000e+00	4.275863e-01	6.665768e+13	5.073025e+14	1.037760e+14	5.921182e+03	2.706655e+03	1.949222e+03	0	4.816081e-04
9.000000e+07	1.441229e+12	0.000000e+00	4.275863e-01	6.380225e+13	4.745526e+14	1.032099e+14	5.883960e+03	2.679369e+03	1.929572e+03	0	4.744318e-04
1.000000e+08	1.380037e+12	0.000000e+00	4.275863e-01	6.117012e+13	4.458741e+14	1.026481e+14	5.848312e+03	2.654406e+03	1.911594e+03	0	4.676199e-04
1.100000e+08	1.323467e+12	0.000000e+00	4.275863e-01	5.873637e+13	4.205801e+14	1.020905e+14	5.814117e+03	2.631468e+03	1.895075e+03	0	4.611411e-04
1.200000e+08	1.271021e+12	0.000000e+00	4.275863e-01	5.647960e+13	3.981266e+14	1.015370e+14	5.781267e+03	2.610308e+03	1.879836e+03	0	4.549675e-04
1.300000e+08	1.222268e+12	0.000000e+00	4.275863e-01	5.438139e+13	3.780773e+14	1.009875e+14	5.749664e+03	2.590717e+03	1.865728e+03	0	4.490744e-04
1.400000e+08	1.176837e+12	0.000000e+00	4.275863e-01	5.242575e+13	3.600788e+14	1.004422e+14	5.719223e+03	2.572519e+03	1.852623e+03	0	4.434400e-04
1.500000e+08	1.134402e+12	0.000000e+00	4.275863e-01	5.059878e+13	3.438420e+14	9.990086e+13	5.689864e+03	2.555566e+03	1.840414e+03	0	4.380447e-04
1.600000e+08	1.094680e+12	0.000000e+00	4.275863e-01	4.888830e+13	3.291285e+14	9.936354e+13	5.661518e+03	2.539728e+03	1.829008e+03	0	4.328710e-04
1.700000e+08	1.057422e+12	0.000000e+00	4.275863e-01	4.728362e+13	3.157400e+14	9.883018e+13	5.634120e+03	2.524895e+03	1.818326e+03	0	4.279032e-04
1.800000e+08	1.022408e+12	0.000000e+00	4.275863e-01	4.577533e+13	3.035106e+14	9.830076e+13	5.607612e+03	2.510970e+03	1.808298e+03	0	4.231271e-04
1.900000e+08	9.894436e+11	0.000000e+00	4.275863e-01	4.435508e+13	2.923000e+14	9.777523e+13	5.581942e+03	2.497869e+03	1.798863e+03	0	4.185299e-04
2.000000e+08	9.583566e+11	0.000000e+00	4.275863e-01	4.301546e+13	2.819895e+14	9.725357e+13	5.557061e+03	2.485518e+03	1.789968e+03	0	4.140999e-04
2.100000e+08	9.289928e+11	0.000000e+00	4.275863e-01	4.174988e+13	2.724775e+14	9.673575e+13	5.532924e+03	2.473852e+03	1.781567e+03	0	4.098267e-04
2.200000e+08	9.012147e+11	0.000000e+00	4.275863e-01	4.055242e+13	2.636768e+14	9.622173e+13	5.509490e+03	2.462813e+03	1.773617e+03	0	4.057005e-04
2.300000e+08	8.748988e+11	0.000000e+00	4.275863e-01	3.941779e+13	2.555123e+14	9.571148e+13	5.486723e+03	2.452351e+03	1.766082e+03	0	4.017125e-04
2.400000e+08	8.499343e+11	0.000000e+00	4.275863e-01	3.834124e+13	2.479188e+14	9.520498e+13	5.464588e+03	2.442419e+03	1.758930e+03	0	3.978548e-04
2.500000e+08	8.262211e+11	0.000000e+00	4.275863e-01	3.731846e+13	2.408395e+14	9.470218e+13	5.443051e+03	2.432977e+03	1.752130e+03	0	3.941198e-04
2.600000e+08	8.036686e+11	0.000000e+00	4.275863e-01	3.634557e+13	2.342247e+14	9.420306e+13	5.422085e+03	2.423987e+03	1.745656e+03	0	3.905007e-04
2.700000e+08	7.821950e+11	0.000000e+00	4.275863e-01	3.541906e+13	2.280309e+14	9.370760e+13	5.401660e+03	2.415417e+03	1.739484e+03	0	3.869912e-04
2.800000e+08	7.617257e+11	0.000000e+00	4.275863e-01	3.453572e+13	2.222195e+14	9.321575e+13	5.381752e+03	2.407237e+03	1.733593e+03	0	3.835856e-04
2.900000e+08	7.421929e+11	0.000000e+00	4.275863e-01	3.369265e+13	2.167567e+14	9.272749e+13	5.362336e+03	2.399419e+03	1.727963e+03	0	3.802784e-04
3.000000e+08	7.235348e+11	0.000000e+00	4.275863e-01	3.288719e+13	2.116122e+14	9.224279e+13	5.343391e+03	2.391939e+03	1.722576e+03	0	3.770647e-04
3.100000e+08	7.056947e+11	0.000000e+00	4.275863e-01	3.211690e+13	2.067592e+14	9.176162e+13	5.324895e+03	2.384775e+03	1.717417e+03	0	3.739398e-04
3.200000e+08	6.886209e+11	0.000000e+00	4.275863e-01	3.137957e+13	2.021737e+14	9.128395e+13	5.306830e+03	2.377906e+03	1.712470e+03	0	3.708994e-04
3.300000e+08	6.722657e+11	0.000000e+00	4.275863e-01	3.067315e+13	1.978342e+14	9.080976e+13	5.289175e+03	2.371313e+03	1.707722e+03	0	3.679395e-04
3.400000e+08	6.565856e+11	0.000000e+00	4.275863e-01	2.999577e+13	1.937214e+14	9.033900e+13	5.271916e+03	2.364980e+03	1.703161e+03	0	3.650563e-04
3.500000e+08	6.415401e+11	0.000000e+00	4.275863e-01	2.934568e+13	1.898180e+14	8.987167e+13	5.255035e+03	2.358889e+03	1.698775e+03	0	3.622464e-04
3.600000e+08	6.270921e+11	0.000000e+00	4.275863e-01	2.872131e+13	1.861082e+14	8.940772e+13	5.238517e+03	2.353028e+03	1.694554e+03	0	3.595063e-04
3.700000e+08	6.132073e+11	0.000000e+00	4.275863e-01	2.812117e+13	1.825779e+14	8.894713e+13	5.222348e+03	2.347382e+03	1.690488e+03	0	3.568332e-04
3.800000e+08	5.998540e+11	0.000000e+00	4.275863e-01	2.754389e+13	1.792143e+14	8.848988e+13	5.206515e+03	2.341938e+03	1.686568e+03	0	3.542240e-04
3.900000e+08	5.870027e+11	0.000000e+00	4.275863e-01	2.698823e+13	1.760055e+14	8.803593e+13	5.191004e+03	2.336687e+03	1.682786e+03	0	3.516761e-04
4.000000e+08	5.746261e+11	0.000000e+00	4.275863e-01	2.645299e+13	1.729411e+14	8.758526e+13	5.175805e+03	2.331616e+03	1.679134e+03	0	3.491869e-04
4.100000e+08	5.626989e+11	0.000000e+00	4.275863e-01	2.593710e+13	1.700112e+14	8.713784e+13	5.160904e+03	2.326717e+03	1.675606e+03	0	3.467540e-04
4.200000e+08	5.511973e+11	0.000000e+00	4.275863e-01	2.543953e+13	1.672071e+14	8.669364e+13	5.146293e+03	2.321979e+03	1.672194e+03	0	3.443751e-04
4.300000e+08	5.400994e+11	0.000000e+00	4.275863e-01	2.495934e+13	1.645205e+14	8.625264e+13	5.131960e+03	2.317395e+03	1.668893e+03	0	3.420482e-04
4.400000e+08	5.293847e+11	0.000000e+00	4.275863e-01	2.449565e+13	1.619441e+14	8.581482e+13	5.117896e+03	2.312957e+03	1.665697e+03	0	3.397712e-04
4.500000e+08	5.190340e+11	0.000000e+00	4.275863e-01	2.404763e+13	1.594710e+14	8.538014e+13	5.104092e+03	2.308656e+03	1.662600e+03	0	3.375422e-04
4.600000e+08	5.090295e+11	0.000000e+00	4.275863e-01	2.361452e+13	1.570948e+14	8.494858e+13	5.090538e+03	2.304487e+03	1.659597e+03	0	3.353594e-04
4.700000e+08	4.993543e+11	0.000000e+00	4.275863e-01	2.319560e+13	1.548098e+14	8.452012e+13	5.077228e+03	2.300443e+03	1.656685e+03	0	3.332210e-04
4.800000e+08	4.899927e+11	0.000000e+00	4.275863e-01	2.279018e+13	1.526106e+14	8.409473e+13	5.064152e+03	2.296517e+03	1.653857e+03	0	3.311255e-04
4.900000e+08	4.809300e+11	0.000000e+00	4.275863e-01	2.239764e+13	1.504922e+14	8.367238e+13	5.051303e+03	2.292705e+03	1.651112e+03	0	3.290713e-04
5.000000e+08	4.721524e+11	0.000000e+00	4.275863e-01	2.201738e+13	1.484501e+14	8.325305e+13	5.038674e+03	2.288999e+03	1.648443e+03	0	3.270570e-04
5.100000e+08	4.636469e+11	0.000000e+00	4.275863e-01	2.164885e+13	1.464800e+14	8.283672e+13	5.026259e+03	2.285397e+03	1.645849e+03	0	3.250812e-04
5.200000e+08	4.554012e+11	0.000000e+00	4.275863e-01	2.129151e+13	1.445779e+14	8.242336e+13	5.014050e+03	2.281893e+03	1.643325e+03	0	3.231426e-04
5.300000e+08	4.474038e+11	0.000000e+00	4.275863e-01	2.094487e+13	1.427402e+14	8.201295e+13	5.002041e+03	2.278482e+03	1.640869e+03	0	3.212398e-04
5.400000e+08	4.396440e+11	0.000000e+00	4.275863e-01	2.060848e+13	1.409634e+14	8.160546e+13	4.990227e+03	2.275161e+03	1.638477e+03	0	3.193718e-04
5.500000e+08	4.321115e+11	0.000000e+00	4.275863e-01	2.028187e+13	1.392444e+14	8.120087e+13	4.978602e+03	2.271925e+03	1.636147e+03	0	3.175373e-04
5.600000e+08	4.247965e+11	0.000000e+00	4.275863e-01	1.996465e+13	1.375802e+14	8.079916e+13	4.967160e+03	2.268770e+03	1.633875e+03	0	3.157353e-04
5.700000e+08	4.176901e+11	0.000000e+00	4.275863e-01	1.965642e+13	1.359680e+14	8.040030e+13	4.955896e+03	2.265694e+03	1.631660e+03	0	3.139647e-04
5.800000e+08	4.107836e+11	0.000000e+00	4.275863e-01	1.935680e+13	1.344053e+14	8.000427e+13	4.944805e+03	2.262693e+03	1.629499e+03	0	3.122246e-04
5.900000e+08	4.040688e+11	0.000000e+00	4.275863e-01	1.906546e+13	1.328896e+14	7.961104e+13	4.933882e+03	2.259764e+03	1.627389e+03	0	3.105140e-04
6.000000e+08	3.975380e+11	0.000000e+00	4.275863e-01	1.878205e+13	1.314186e+14	7.922061e+13	4.923123e+03	2.256904e+03	1.625330e+03	0	3.088320e-04
6.100000e+08	3.911840e+11	0.000000e+00	4.275863e-01	1.850626e+13	1.299903e+14	7.883293e+13	4.912522e+03	2.254110e+03	1.623317e+03	0	3.071778e-04
6.200000e+08	3.849997e+11	0.000000e+00	4.275863e-01	1.823779e+13	1.286026e+14	7.844799e+13	4.902077e+03	2.251379e+03	1.621351e+03	0	3.055504e-04
6.300000e+08	3.789786e+11	0.000000e+00	4.275863e-01	1.797637e+13	1.272536e+14	7.806577e+13	4.891783e+03	2.248709e+03	1.619428e+03	0	3.039492e-04
6.400000e+08	3.731145e+11	0.000000e+00	4.275863e-01	1.772171e+13	1.259416e+14	7.768624e+13	4.881635e+03	2.246097e+03	1.617547e+03	0	3.023733e-04
6.500000e+08	3.674014e+11	0.000000e+00	4.275863e-01	1.747357e+13	1.246650e+14	7.730939e+13	4.871630e+03	2.243542e+03	1.615707e+03	0	3.008221e-04
6.600000e+08	3.618337e+11	0.000000e+00	4.275863e-01	1.723171e+13	1.234221e+14	7.693519e+13	4.861765e+03	2.241041e+03	1.613905e+03	0	2.992948e-04
6.700000e+08	3.564060e+11	0.000000e+00	4.275863e-01	1.699588e+13	1.222116e+14	7.656362e+13	4.852036e+03	2.238591e+03	1.612142e+03	0	2.977907e-04
6.800000e+08	3.511132e+11	0.000000e+00	4.275863e-01	1.676588e+13	1.210319e+14	7.619466e+13	4.842439e+03	2.236192e+03	1.610414e+03	0	2.963092e-04
6.900000e+08	3.459505e+11	0.000000e+00	4.275863e-01	1.654149e+13	1.198819e+14	7.582829e+13	4.832972e+03	2.233841e+03	1.608721e+03	0	2.948497e-04
7.000000e+08	3.409132e+11	0.000000e+00	4.275863e-01	1.632252e+13	1.187602e+14	7.546449e+13	4.823630e+03	2.231537e+03	1.607061e+03	0	2.934117e-04
7.100000e+08	3.359968e+11	0.000000e+00	4.275863e-01	1.610877e+13	1.176657e+14	7.510323e+13	4.814412e+03	2.229277e+03	1.605434e+03	0	2.919944e-04
7.200000e+08	3.311973e+11	0.000000e+00	4.275863e-01	1.590006e+13	1.165974e+14	7.474450e+13	4.805314e+03	2.227060e+03	1.603837e+03	0	2.905974e-04
7.300000e+08	3.265105e+11	0.000000e+00	4.275863e-01	1.569622e+13	1.155541e+14	7.438828e+13	4.796333e+03	2.224885e+03	1.602271e+03	0	2.892201e-04
7.400000e+08	3.219327e+11	0.000000e+00	4.275863e-01	1.549708e+13	1.145348e+14	7.403454e+13	4.787467e+03	2.222750e+03	1.600733e+03	0	2.878621e-04
7.500000e+08	3.174601e+11	0.000000e+00	4.275863e-01	1.530249e+13	1.135387e+14	7.368327e+13	4.778713e+03	2.220654e+03	1.599224e+03	0	2.865228e-04
7.600000e+08	3.130893e+11	0.000000e+00	4.275863e-01	1.511230e+13	1.125648e+14	7.333445e+13	4.770068e+03	2.218595e+03	1.597741e+03	0	2.852018e-04
7.700000e+08	3.088169e+11	0.000000e+00	4.275863e-01	1.492635e+13	1.116123e+14	7.298805e+13	4.761531e+03	2.216573e+03	1.596285e+03	0	2.838985e-04
7.800000e+08	3.046396e+11	0.000000e+00	4.275863e-01	1.474452e+13	1.106804e+14	7.264406e+13	4.753098e+03	2.214585e+03	1.594853e+03	0	2.826126e-04
7.900000e+08	3.005545e+11	0.000000e+00	4.275863e-01	1.456667e+13	1.097683e+14	7.230246e+13	4.744767e+03	2.212631e+03	1.593446e+03	0	2.813437e-04
8.000000e+08	2.965585e+11	0.000000e+00	4.275863e-01	1.439267e+13	1.088753e+14	7.196323e+13	4.736536e+03	2.210710e+03	1.592063e+03	0	2.800913e-04
8.100000e+08	2.926489e+11	0.000000e+00	4.275863e-01	1.422240e+13	1.080007e+14	7.162635e+13	4.728403e+03	2.208820e+03	1.590702e+03	0	2.788550e-04
8.200000e+08	2.888230e+11	0.000000e+00	4.275863e-01	1.405575e+13	1.071439e+14	7.129180e+13	4.720366e+03	2.206961e+03	1.589363e+03	0	2.776344e-04
8.300000e+08	2.850781e+11	0.000000e+00	4.275863e-01	1.389260e+13	1.063042e+14	7.095957e+13	4.712423e+03	2.205132e+03	1.588045e+03	0	2.764293e-04
8.400000e+08	2.814117e+11	0.000000e+00	4.275863e-01	1.373284e+13	1.054811e+14	7.062963e+13	4.704572e+03	2.203331e+03	1.586749e+03	0	2.752391e-04
8.500000e+08	2.778216e+11	0.000000e+00	4.275863e-01	1.357638e+13	1.046739e+14	7.030196e+13	4.696810e+03	2.201558e+03	1.585472e+03	0	2.740637e-04
8.600000e+08	2.743053e+11	0.000000e+00	4.275863e-01	1.342311e+13	1.038821e+14	6.997656e+13	4.689137e+03	2.199812e+03	1.584214e+03	0	2.729025e-04
8.700000e+08	2.708608e+11	0.000000e+00	4.275863e-01	1.327295e+13	1.031053e+14	6.965339e+13	4.681550e+03	2.198092e+03	1.582975e+03	0	2.717554e-04
8.800000e+08	2.674858e+11	0.000000e+00	4.275863e-01	1.312579e+13	1.023429e+14	6.933245e+13	4.674048e+03	2.196397e+03	1.581755e+03	0	2.706219e-04
8.900000e+08	2.641783e+11	0.000000e+00	4.275863e-01	1.298155e+13	1.015944e+14	6.901371e+13	4.666628e+03	2.194727e+03	1.580552e+03	0	2.695019e-04
9.000000e+08	2.609365e+11	0.000000e+00	4.275863e-01	1.284015e+13	1.008594e+14	6.869716e+13	4.659289e+03	2.193080e+03	1.579366e+03	0	2.683950e-04
9.100000e+08	2.577583e+11	0.000000e+00	4.275863e-01	1.270151e+13	1.001375e+14	6.838278e+13	4.652031e+03	2.191457e+03	1.578197e+03	0	2.673009e-04
9.200000e+08	2.546421e+11	0.000000e+00	4.275863e-01	1.256554e+13	9.942831e+13	6.807056e+13	4.644850e+03	2.189856e+03	1.577044e+03	0	2.662193e-04
9.300000e+08	2.515860e+11	0.000000e+00	4.275863e-01	1.243217e+13	9.873133e+13	6.776047e+13	4.637746e+03	2.188276e+03	1.575907e+03	0	2.651500e-04
9.400000e+08	2.485883e+11	0.000000e+00	4.275863e-01	1.230134e+13	9.804624e+13	6.745249e+13	4.630717e+03	2.186718e+03	1.574785e+03	0	2.640927e-04
9.500000e+08	2.456475e+11	0.000000e+00	4.275863e-01	1.217296e+13	9.737268e+13	6.714662e+13	4.623762e+03	2.185180e+03	1.573677e+03	0	2.630471e-04
9.600000e+08	2.427621e+11	0.000000e+00	4.275863e-01	1.204698e+13	9.671030e+13	6.684284e+13	4.616879e+03	2.183663e+03	1.572584e+03	0	2.620131e-04
9.700000e+08	2.399304e+11	0.000000e+00	4.275863e-01	1.192333e+13	9.605877e+13	6.654112e+13	4.610067e+03	2.182164e+03	1.571505e+03	0	2.609904e-04
9.800000e+08	2.371510e+11	0.000000e+00	4.275863e-01	1.180194e+13	9.541777e+13	6.624146e+13	4.603324e+03	2.180685e+03	1.570440e+03	0	2.599787e-04
9.900000e+08	2.344226e+11	0.000000e+00	4.275863e-01	1.168275e+13	9.478699e+13	6.594384e+13	4.596650e+03	2.179224e+03	1.569388e+03	0	2.589778e-04
1.000000e+09	2.317438e+11	0.000000e+00	4.275863e-01	1.156572e+13	9.416615e+13	6.564823e+13	4.590043e+03	2.177781e+03	1.568348e+03	0	2.579876e-04
1.010000e+09	2.291133e+11	0.000000e+00	4.275863e-01	1.145077e+13	9.355497e+13	6.535463e+13	4.583503e+03	2.176355e+03	1.567321e+03	0	2.570077e-04
1.020000e+09	2.265298e+11	0.000000e+00	4.275863e-01	1.133786e+13	9.295316e+13	6.506302e+13	4.577027e+03	2.174946e+03	1.566307e+03	0	2.560381e-04
1.030000e+09	2.239922e+11	0.000000e+00	4.275863e-01	1.122694e+13	9.236048e+13	6.477338e+13	4.570614e+03	2.173553e+03	1.565304e+03	0	2.550784e-04
1.040000e+09	2.214992e+11	0.000000e+00	4.275863e-01	1.111795e+13	9.177668e+13	6.448570e+13	4.564264e+03	2.172177e+03	1.564312e+03	0	2.541286e-04
1.050000e+09	2.190497e+11	0.000000e+00	4.275863e-01	1.101084e+13	9.120151e+13	6.419996e+13	4.557976e+03	2.170816e+03	1.563332e+03	0	2.531883e-04
1.060000e+09	2.166427e+11	0.000000e+00	4.275863e-01	1.090557e+13	9.063474e+13	6.391615e+13	4.551748e+03	2.169470e+03	1.562363e+03	0	2.522575e-04
1.070000e+09	2.142770e+11	0.000000e+00	4.275863e-01	1.080210e+13	9.007615e+13	6.363426e+13	4.545579e+03	2.168139e+03	1.561405e+03	0	2.513359e-04
1.080000e+09	2.119516e+11	0.000000e+00	4.275863e-01	1.070037e+13	8.952553e+13	6.335425e+13	4.539469e+03	2.166823e+03	1.560457e+03	0	2.504235e-04
1.090000e+09	2.096656e+11	0.000000e+00	4.275863e-01	1.060034e+13	8.898268e+13	6.307613e+13	4.533416e+03	2.165520e+03	1.559519e+03	0	2.495199e-04
1.100000e+09	2.074179e+11	0.000000e+00	4.275863e-01	1.050198e+13	8.844739e+13	6.279988e+13	4.527419e+03	2.164232e+03	1.558591e+03	0	2.486251e-04
1.110000e+09	2.052078e+11	0.000000e+00	4.275863e-01	1.040524e+13	8.791947e+13	6.252548e+13	4.521478e+03	2.162957e+03	1.557673e+03	0	2.477388e-04
1.120000e+09	2.030341e+11	0.000000e+00	4.275863e-01	1.031009e+13	8.739874e+13	6.225292e+13	4.515591e+03	2.161695e+03	1.556764e+03	0	2.468610e-04
1.130000e+09	2.008962e+11	0.000000e+00	4.275863e-01	1.021648e+13	8.688502e+13	6.198219e+13	4.509758e+03	2.160446e+03	1.555864e+03	0	2.459915e-04
1.140000e+09	1.987931e+11	0.000000e+00	4.275863e-01	1.012439e+13	8.637814e+13	6.171326e+13	4.503978e+03	2.159209e+03	1.554974e+03	0	2.451300e-04
1.150000e+09	1.967240e+11	0.000000e+00	4.275863e-01	1.003376e+13	8.587794e+13	6.144613e+13	4.498250e+03	2.157984e+03	1.554092e+03	0	2.442766e-04
1.160000e+09	1.946882e+11	0.000000e+00	4.275863e-01	9.944583e+12	8.538426e+13	6.118078e+13	4.492573e+03	2.156772e+03	1.553218e+03	0	2.434310e-04
1.170000e+09	1.926848e+11	0.000000e+00	4.275863e-01	9.856810e+12	8.489693e+13	6.091720e+13	4.486946e+03	2.155571e+03	1.552353e+03	0	2.425932e-04
1.180000e+09	1.907131e+11	0.000000e+00	4.275863e-01	9.770412e+12	8.441582e+13	6.065537e+13	4.481369e+03	2.154381e+03	1.551497e+03	0	2.417629e-04
1.190000e+09	1.887724e+11	0.000000e+00	4.275863e-01	9.685358e+12	8.394078e+13	6.039528e+13	4.475840e+03	2.153202e+03	1.550648e+03	0	2.409400e-04
1.200000e+09	1.868620e+11	0.000000e+00	4.275863e-01	9.601618e+12	8.347167e+13	6.013692e+13	4.470359e+03	2.152035e+03	1.549807e+03	0	2.401245e-04
1.210000e+09	1.849813e+11	0.000000e+00	4.275863e-01	9.519162e+12	8.300835e+13	5.988027e+13	4.464926e+03	2.150878e+03	1.548974e+03	0	2.393162e-04
1.220000e+09	1.831295e+11	0.000000e+00	4.275863e-01	9.437962e+12	8.255070e+13	5.962532e+13	4.459539e+03	2.149731e+03	1.548148e+03	0	2.385149e-04
1.230000e+09	1.813059e+11	0.000000e+00	4.275863e-01	9.357991e+12	8.209859e+13	5.937206e+13	4.454198e+03	2.148594e+03	1.547329e+03	0	2.377206e-04
1.240000e+09	1.795101e+11	0.000000e+00	4.275863e-01	9.279221e+12	8.165191e+13	5.912048e+13	4.448902e+03	2.147468e+03	1.546518e+03	0	2.369331e-04
1.250000e+09	1.777414e+11	0.000000e+00	4.275863e-01	9.201627e+12	8.121052e+13	5.887055e+13	4.443651e+03	2.146351e+03	1.545714e+03	0	2.361524e-04
1.260000e+09	1.759991e+11	0.000000e+00	4.275863e-01	9.125182e+12	8.077432e+13	5.862227e+13	4.438443e+03	2.145243e+03	1.544916e+03	0	2.353782e-04
1.270000e+09	1.742828e+11	0.000000e+00	4.275863e-01	9.049863e+12	8.034320e+13	5.837563e+13	4.433279e+03	2.144145e+03	1.544126e+03	0	2.346106e-04
1.280000e+09	1.725919e+11	0.000000e+00	4.275863e-01	8.975645e+12	7.991705e+13	5.813061e+13	4.428157e+03	2.143057e+03	1.543341e+03	0	2.338494e-04
1.290000e+09	1.709258e+11	0.000000e+00	4.275863e-01	8.902505e+12	7.949577e+13	5.788720e+13	4.423076e+03	2.141977e+03	1.542564e+03	0	2.330945e-04
1.300000e+09	1.692840e+11	0.000000e+00	4.275863e-01	8.830420e+12	7.907926e+13	5.764539e+13	4.418038e+03	2.140905e+03	1.541792e+03	0	2.323458e-04
1.310000e+09	1.676660e+11	0.000000e+00	4.275863e-01	8.759369e+12	7.866742e+13	5.740516e+13	4.413039e+03	2.139843e+03	1.541027e+03	0	2.316031e-04
1.320000e+09	1.660713e+11	0.000000e+00	4.275863e-01	8.689330e+12	7.826016e+13	5.716651e+13	4.408081e+03	2.138789e+03	1.540268e+03	0	2.308665e-04
1.330000e+09	1.644994e+11	0.000000e+00	4.275863e-01	8.620282e+12	7.785738e+13	5.692942e+13	4.403163e+03	2.137743e+03	1.539515e+03	0	2.301358e-04
1.340000e+09	1.629499e+11	0.000000e+00	4.275863e-01	8.552204e+12	7.745899e+13	5.669387e+13	4.398283e+03	2.136705e+03	1.538767e+03	0	2.294110e-04
1.350000e+09	1.614223e+11	0.000000e+00	4.275863e-01	8.485078e+12	7.706492e+13	5.645987e+13	4.393442e+03	2.135675e+03	1.538025e+03	0	2.286918e-04
1.360000e+09	1.599162e+11	0.000000e+00	4.275863e-01	8.418884e+12	7.667508e+13	5.622738e+13	4.388639e+03	2.134653e+03	1.537289e+03	0	2.279783e-04
