#t		Qconv[W]	Ri[Rp]		R*[Rp]		Qc[W]		Qm[W]		Qr[W]		Tcmb[K]		Tl[K]		Tup[K]		RiFlag		Bs[T]
0.000000e+00	8.642296e+12	0.000000e+00	4.206896e-01	2.724639e+14	1.699183e+15	1.847273e+14	8.793029e+03	3.681607e+03	2.399807e+03	0	8.444744e-04
1.000000e+07	8.091961e+12	0.000000e+00	4.206896e-01	2.556048e+14	1.527889e+15	1.837037e+14	8.705651e+03	3.620588e+03	2.360032e+03	0	8.261547e-04
2.000000e+07	7.601736e+12	0.000000e+00	4.206896e-01	2.405827e+14	1.387031e+15	1.826879e+14	8.623585e+03	3.566863e+03	2.325013e+03	0	8.091227e-04
3.000000e+07	7.162432e+12	0.000000e+00	4.206896e-01	2.271170e+14	1.269451e+15	1.816796e+14	8.546262e+03	3.519112e+03	2.293887e+03	0	7.932261e-04
4.000000e+07	6.766628e+12	0.000000e+00	4.206896e-01	2.149812e+14	1.170019e+15	1.806788e+14	8.473197e+03	3.476327e+03	2.265998e+03	0	7.783368e-04
5.000000e+07	6.408268e+12	0.000000e+00	4.206896e-01	2.039903e+14	1.084978e+15	1.796856e+14	8.403975e+03	3.437717e+03	2.240831e+03	0	7.643466e-04
6.000000e+07	6.082366e+12	0.000000e+00	4.206896e-01	1.939919e+14	1.011517e+15	1.786997e+14	8.338240e+03	3.402659e+03	2.217979e+03	0	7.511632e-04
7.000000e+07	5.784777e+12	0.000000e+00	4.206896e-01	1.848596e+14	9.474974e+14	1.777211e+14	8.275680e+03	3.370650e+03	2.197114e+03	0	7.387072e-04
8.000000e+07	5.512033e+12	0.000000e+00	4.206896e-01	1.764872e+14	8.912657e+14	1.767499e+14	8.216024e+03	3.341281e+03	2.177970e+03	0	7.269102e-04
9.000000e+07	5.261206e+12	0.000000e+00	4.206896e-01	1.687855e+14	8.415247e+14	1.757858e+14	8.159034e+03	3.314216e+03	2.160328e+03	0	7.157124e-04
1.000000e+08	5.029808e+12	0.000000e+00	4.206896e-01	1.616782e+14	7.972442e+14	1.748290e+14	8.104498e+03	3.289175e+03	2.144006e+03	0	7.050619e-04
1.100000e+08	4.815714e+12	0.000000e+00	4.206896e-01	1.551006e+14	7.575970e+14	1.738792e+14	8.052230e+03	3.265923e+03	2.128849e+03	0	6.949129e-04
1.200000e+08	4.617094e+12	0.000000e+00	4.206896e-01	1.489966e+14	7.219111e+14	1.729364e+14	8.002062e+03	3.244261e+03	2.114729e+03	0	6.852247e-04
1.300000e+08	4.432366e+12	0.000000e+00	4.206896e-01	1.433180e+14	6.896364e+14	1.720007e+14	7.953844e+03	3.224020e+03	2.101535e+03	0	6.759616e-04
1.400000e+08	4.260157e+12	0.000000e+00	4.206896e-01	1.380227e+14	6.603178e+14	1.710718e+14	7.907443e+03	3.205056e+03	2.089173e+03	0	6.670914e-04
1.500000e+08	4.099266e+12	0.000000e+00	4.206896e-01	1.330740e+14	6.335764e+14	1.701499e+14	7.862737e+03	3.187241e+03	2.077561e+03	0	6.585855e-04
1.600000e+08	3.948641e+12	0.000000e+00	4.206896e-01	1.284397e+14	6.090939e+14	1.692347e+14	7.819616e+03	3.170468e+03	2.066628e+03	0	6.504182e-04
1.700000e+08	3.807354e+12	0.000000e+00	4.206896e-01	1.240915e+14	5.866016e+14	1.683263e+14	7.777980e+03	3.154641e+03	2.056311e+03	0	6.425662e-04
1.800000e+08	3.674585e+12	0.000000e+00	4.206896e-01	1.200043e+14	5.658710e+14	1.674246e+14	7.737739e+03	3.139677e+03	2.046557e+03	0	6.350085e-04
1.900000e+08	3.549607e+12	0.000000e+00	4.206896e-01	1.161559e+14	5.467065e+14	1.665295e+14	7.698810e+03	3.125501e+03	2.037317e+03	0	6.277261e-04
2.000000e+08	3.431772e+12	0.000000e+00	4.206896e-01	1.125263e+14	5.289400e+14	1.656410e+14	7.661117e+03	3.112049e+03	2.028548e+03	0	6.207017e-04
2.100000e+08	3.320503e+12	0.000000e+00	4.206896e-01	1.090981e+14	5.124261e+14	1.647591e+14	7.624590e+03	3.099262e+03	2.020214e+03	0	6.139195e-04
2.200000e+08	3.215280e+12	0.000000e+00	4.206896e-01	1.058552e+14	4.970387e+14	1.638836e+14	7.589165e+03	3.087090e+03	2.012279e+03	0	6.073649e-04
2.300000e+08	3.115637e+12	0.000000e+00	4.206896e-01	1.027834e+14	4.826677e+14	1.630146e+14	7.554784e+03	3.075484e+03	2.004714e+03	0	6.010249e-04
2.400000e+08	3.021156e+12	0.000000e+00	4.206896e-01	9.986991e+13	4.692166e+14	1.621519e+14	7.521390e+03	3.064404e+03	1.997492e+03	0	5.948870e-04
2.500000e+08	2.931456e+12	0.000000e+00	4.206896e-01	9.710310e+13	4.566006e+14	1.612955e+14	7.488935e+03	3.053812e+03	1.990587e+03	0	5.889403e-04
2.600000e+08	2.846196e+12	0.000000e+00	4.206896e-01	9.447245e+13	4.447448e+14	1.604454e+14	7.457371e+03	3.043674e+03	1.983979e+03	0	5.831743e-04
2.700000e+08	2.765062e+12	0.000000e+00	4.206896e-01	9.196843e+13	4.335829e+14	1.596016e+14	7.426655e+03	3.033959e+03	1.977647e+03	0	5.775795e-04
2.800000e+08	2.687771e+12	0.000000e+00	4.206896e-01	8.958236e+13	4.230558e+14	1.587639e+14	7.396746e+03	3.024639e+03	1.971572e+03	0	5.721469e-04
2.900000e+08	2.614066e+12	0.000000e+00	4.206896e-01	8.730632e+13	4.131111e+14	1.579323e+14	7.367606e+03	3.015689e+03	1.965737e+03	0	5.668685e-04
3.000000e+08	2.543709e+12	0.000000e+00	4.206896e-01	8.513308e+13	4.037017e+14	1.571067e+14	7.339201e+03	3.007085e+03	1.960129e+03	0	5.617365e-04
3.100000e+08	2.476486e+12	0.000000e+00	4.206896e-01	8.305603e+13	3.947853e+14	1.562872e+14	7.311497e+03	2.998806e+03	1.954732e+03	0	5.567438e-04
3.200000e+08	2.412197e+12	0.000000e+00	4.206896e-01	8.106910e+13	3.863242e+14	1.554736e+14	7.284464e+03	2.990832e+03	1.949534e+03	0	5.518839e-04
3.300000e+08	2.350661e+12	0.000000e+00	4.206896e-01	7.916671e+13	3.782841e+14	1.546660e+14	7.258072e+03	2.983145e+03	1.944524e+03	0	5.471505e-04
3.400000e+08	2.291710e+12	0.000000e+00	4.206896e-01	7.734373e+13	3.706341e+14	1.538642e+14	7.232295e+03	2.975729e+03	1.939690e+03	0	5.425379e-04
3.500000e+08	2.235191e+12	0.000000e+00	4.206896e-01	7.559543e+13	3.633462e+14	1.530683e+14	7.207107e+03	2.968568e+03	1.935022e+03	0	5.380405e-04
3.600000e+08	2.180959e+12	0.000000e+00	4.206896e-01	7.391744e+13	3.563950e+14	1.522781e+14	7.182484e+03	2.961647e+03	1.930511e+03	0	5.336534e-04
3.700000e+08	2.128885e+12	0.000000e+00	4.206896e-01	7.230574e+13	3.497573e+14	1.514936e+14	7.158404e+03	2.954955e+03	1.926149e+03	0	5.293718e-04
3.800000e+08	2.078845e+12	0.000000e+00	4.206896e-01	7.075657e+13	3.434121e+14	1.507148e+14	7.134845e+03	2.948479e+03	1.921927e+03	0	5.251912e-04
3.900000e+08	2.030726e+12	0.000000e+00	4.206896e-01	6.926647e+13	3.373401e+14	1.499417e+14	7.111788e+03	2.942207e+03	1.917839e+03	0	5.211074e-04
4.000000e+08	1.984425e+12	0.000000e+00	4.206896e-01	6.783223e+13	3.315236e+14	1.491741e+14	7.089212e+03	2.936129e+03	1.913877e+03	0	5.171164e-04
4.100000e+08	1.939842e+12	0.000000e+00	4.206896e-01	6.645086e+13	3.259466e+14	1.484120e+14	7.067101e+03	2.930235e+03	1.910035e+03	0	5.132145e-04
4.200000e+08	1.896888e+12	0.000000e+00	4.206896e-01	6.511956e+13	3.205941e+14	1.476555e+14	7.045437e+03	2.924516e+03	1.906308e+03	0	5.093982e-04
4.300000e+08	1.855478e+12	0.000000e+00	4.206896e-01	6.383574e+13	3.154525e+14	1.469044e+14	7.024204e+03	2.918964e+03	1.902688e+03	0	5.056640e-04
4.400000e+08	1.815532e+12	0.000000e+00	4.206896e-01	6.259699e+13	3.105092e+14	1.461587e+14	7.003387e+03	2.913570e+03	1.899172e+03	0	5.020089e-04
4.500000e+08	1.776977e+12	0.000000e+00	4.206896e-01	6.140103e+13	3.057525e+14	1.454183e+14	6.982972e+03	2.908327e+03	1.895754e+03	0	4.984299e-04
4.600000e+08	1.739745e+12	0.000000e+00	4.206896e-01	6.024576e+13	3.011718e+14	1.446833e+14	6.962944e+03	2.903227e+03	1.892431e+03	0	4.949241e-04
4.700000e+08	1.703769e+12	0.000000e+00	4.206896e-01	5.912919e+13	2.967571e+14	1.439536e+14	6.943290e+03	2.898265e+03	1.889196e+03	0	4.914889e-04
4.800000e+08	1.668991e+12	0.000000e+00	4.206896e-01	5.804946e+13	2.924992e+14	1.432291e+14	6.923998e+03	2.893435e+03	1.886048e+03	0	4.881217e-04
4.900000e+08	1.635353e+12	0.000000e+00	4.206896e-01	5.700485e+13	2.883895e+14	1.425097e+14	6.905057e+03	2.888730e+03	1.882980e+03	0	4.848201e-04
5.000000e+08	1.602802e+12	0.000000e+00	4.206896e-01	5.599370e+13	2.844200e+14	1.417955e+14	6.886454e+03	2.884144e+03	1.879991e+03	0	4.815818e-04
5.100000e+08	1.571288e+12	0.000000e+00	4.206896e-01	5.501449e+13	2.805835e+14	1.410864e+14	6.868180e+03	2.879673e+03	1.877077e+03	0	4.784046e-04
5.200000e+08	1.540763e+12	0.000000e+00	4.206896e-01	5.406577e+13	2.768729e+14	1.403824e+14	6.850223e+03	2.875312e+03	1.874235e+03	0	4.752865e-04
5.300000e+08	1.511184e+12	0.000000e+00	4.206896e-01	5.314618e+13	2.732819e+14	1.396834e+14	6.832574e+03	2.871057e+03	1.871461e+03	0	4.722253e-04
5.400000e+08	1.482509e+12	0.000000e+00	4.206896e-01	5.225444e+13	2.698045e+14	1.389894e+14	6.815223e+03	2.866902e+03	1.868753e+03	0	4.692194e-04
5.500000e+08	1.454699e+12	0.000000e+00	4.206896e-01	5.138934e+13	2.664350e+14	1.383003e+14	6.798162e+03	2.862844e+03	1.866107e+03	0	4.662668e-04
5.600000e+08	1.427716e+12	0.000000e+00	4.206896e-01	5.054974e+13	2.631683e+14	1.376161e+14	6.781382e+03	2.858879e+03	1.863523e+03	0	4.633659e-04
5.700000e+08	1.401525e+12	0.000000e+00	4.206896e-01	4.973456e+13	2.599993e+14	1.369367e+14	6.764874e+03	2.855003e+03	1.860997e+03	0	4.605149e-04
5.800000e+08	1.376093e+12	0.000000e+00	4.206896e-01	4.894278e+13	2.569236e+14	1.362622e+14	6.748632e+03	2.851213e+03	1.858526e+03	0	4.577124e-04
5.900000e+08	1.351388e+12	0.000000e+00	4.206896e-01	4.817344e+13	2.539367e+14	1.355925e+14	6.732646e+03	2.847506e+03	1.856109e+03	0	4.549568e-04
6.000000e+08	1.327382e+12	0.000000e+00	4.206896e-01	4.742562e+13	2.510346e+14	1.349275e+14	6.716910e+03	2.843878e+03	1.853744e+03	0	4.522467e-04
6.100000e+08	1.304045e+12	0.000000e+00	4.206896e-01	4.669847e+13	2.482135e+14	1.342672e+14	6.701418e+03	2.840326e+03	1.851429e+03	0	4.495807e-04
6.200000e+08	1.281352e+12	0.000000e+00	4.206896e-01	4.599117e+13	2.454698e+14	1.336116e+14	6.686161e+03	2.836847e+03	1.849162e+03	0	4.469575e-04
6.300000e+08	1.259276e+12	0.000000e+00	4.206896e-01	4.530292e+13	2.428001e+14	1.329606e+14	6.671135e+03	2.833440e+03	1.846941e+03	0	4.443759e-04
6.400000e+08	1.237795e+12	0.000000e+00	4.206896e-01	4.463301e+13	2.402012e+14	1.323142e+14	6.656332e+03	2.830101e+03	1.844764e+03	0	4.418346e-04
6.500000e+08	1.216884e+12	0.000000e+00	4.206896e-01	4.398072e+13	2.376701e+14	1.316724e+14	6.641747e+03	2.826827e+03	1.842630e+03	0	4.393324e-04
6.600000e+08	1.196523e+12	0.000000e+00	4.206896e-01	4.334540e+13	2.352040e+14	1.310350e+14	6.627374e+03	2.823617e+03	1.840538e+03	0	4.368683e-04
6.700000e+08	1.176691e+12	0.000000e+00	4.206896e-01	4.272640e+13	2.328001e+14	1.304022e+14	6.613208e+03	2.820468e+03	1.838485e+03	0	4.344412e-04
6.800000e+08	1.157368e+12	0.000000e+00	4.206896e-01	4.212313e+13	2.304560e+14	1.297738e+14	6.599243e+03	2.817378e+03	1.836471e+03	0	4.320500e-04
6.900000e+08	1.138536e+12	0.000000e+00	4.206896e-01	4.153501e+13	2.281693e+14	1.291498e+14	6.585474e+03	2.814346e+03	1.834494e+03	0	4.296938e-04
7.000000e+08	1.120177e+12	0.000000e+00	4.206896e-01	4.096150e+13	2.259376e+14	1.285301e+14	6.571897e+03	2.811368e+03	1.832554e+03	0	4.273716e-04
7.100000e+08	1.102273e+12	0.000000e+00	4.206896e-01	4.040207e+13	2.237588e+14	1.279149e+14	6.558506e+03	2.808444e+03	1.830648e+03	0	4.250824e-04
7.200000e+08	1.084809e+12	0.000000e+00	4.206896e-01	3.985623e+13	2.216308e+14	1.273039e+14	6.545297e+03	2.805572e+03	1.828775e+03	0	4.228255e-04
7.300000e+08	1.067769e+12	0.000000e+00	4.206896e-01	3.932350e+13	2.195518e+14	1.266972e+14	6.532266e+03	2.802749e+03	1.826935e+03	0	4.206000e-04
7.400000e+08	1.051139e+12	0.000000e+00	4.206896e-01	3.880343e+13	2.175199e+14	1.260947e+14	6.519408e+03	2.799975e+03	1.825127e+03	0	4.184050e-04
7.500000e+08	1.034905e+12	0.000000e+00	4.206896e-01	3.829558e+13	2.155333e+14	1.254964e+14	6.506720e+03	2.797247e+03	1.823349e+03	0	4.162398e-04
7.600000e+08	1.019052e+12	0.000000e+00	4.206896e-01	3.779955e+13	2.135904e+14	1.249023e+14	6.494197e+03	2.794565e+03	1.821600e+03	0	4.141036e-04
7.700000e+08	1.003569e+12	0.000000e+00	4.206896e-01	3.731495e+13	2.116895e+14	1.243123e+14	6.481835e+03	2.791926e+03	1.819881e+03	0	4.119956e-04
7.800000e+08	9.884430e+11	0.000000e+00	4.206896e-01	3.684138e+13	2.098293e+14	1.237264e+14	6.469631e+03	2.789330e+03	1.818188e+03	0	4.099152e-04
7.900000e+08	9.736621e+11	0.000000e+00	4.206896e-01	3.637849e+13	2.080082e+14	1.231446e+14	6.457581e+03	2.786776e+03	1.816523e+03	0	4.078617e-04
8.000000e+08	9.592152e+11	0.000000e+00	4.206896e-01	3.592594e+13	2.062248e+14	1.225668e+14	6.445682e+03	2.784261e+03	1.814884e+03	0	4.058344e-04
8.100000e+08	9.450915e+11	0.000000e+00	4.206896e-01	3.548338e+13	2.044780e+14	1.219931e+14	6.433931e+03	2.781785e+03	1.813270e+03	0	4.038326e-04
8.200000e+08	9.312808e+11	0.000000e+00	4.206896e-01	3.505051e+13	2.027664e+14	1.214233e+14	6.422324e+03	2.779346e+03	1.811680e+03	0	4.018559e-04
8.300000e+08	9.177730e+11	0.000000e+00	4.206896e-01	3.462703e+13	2.010888e+14	1.208574e+14	6.410857e+03	2.776944e+03	1.810114e+03	0	3.999035e-04
8.400000e+08	9.045588e+11	0.000000e+00	4.206896e-01	3.421262e+13	1.994442e+14	1.202955e+14	6.399529e+03	2.774577e+03	1.808572e+03	0	3.979749e-04
8.500000e+08	8.916290e+11	0.000000e+00	4.206896e-01	3.380703e+13	1.978314e+14	1.197374e+14	6.388335e+03	2.772245e+03	1.807052e+03	0	3.960696e-04
8.600000e+08	8.789748e+11	0.000000e+00	4.206896e-01	3.340997e+13	1.962494e+14	1.191832e+14	6.377274e+03	2.769946e+03	1.805553e+03	0	3.941870e-04
8.700000e+08	8.665880e+11	0.000000e+00	4.206896e-01	3.302119e+13	1.946972e+14	1.186328e+14	6.366342e+03	2.767680e+03	1.804076e+03	0	3.923265e-04
8.800000e+08	8.544604e+11	0.000000e+00	4.206896e-01	3.264044e+13	1.931740e+14	1.180861e+14	6.355537e+03	2.765445e+03	1.802619e+03	0	3.904878e-04
8.900000e+08	8.425843e+11	0.000000e+00	4.206896e-01	3.226748e+13	1.916786e+14	1.175433e+14	6.344856e+03	2.763241e+03	1.801182e+03	0	3.886702e-04
9.000000e+08	8.309522e+11	0.000000e+00	4.206896e-01	3.190208e+13	1.902104e+14	1.170041e+14	6.334296e+03	2.761067e+03	1.799765e+03	0	3.868734e-04
9.100000e+08	8.195571e+11	0.000000e+00	4.206896e-01	3.154403e+13	1.887685e+14	1.164687e+14	6.323856e+03	2.758921e+03	1.798367e+03	0	3.850968e-04
9.200000e+08	8.083920e+11	0.000000e+00	4.206896e-01	3.119310e+13	1.873520e+14	1.159369e+14	6.313532e+03	2.756805e+03	1.796987e+03	0	3.833400e-04
9.300000e+08	7.974502e+11	0.000000e+00	4.206896e-01	3.084910e+13	1.859603e+14	1.154087e+14	6.303323e+03	2.754715e+03	1.795625e+03	0	3.816026e-04
9.400000e+08	7.867255e+11	0.000000e+00	4.206896e-01	3.051183e+13	1.845925e+14	1.148842e+14	6.293226e+03	2.752652e+03	1.794280e+03	0	3.798842e-04
9.500000e+08	7.762116e+11	0.000000e+00	4.206896e-01	3.018110e+13	1.832480e+14	1.143633e+14	6.283239e+03	2.750616e+03	1.792953e+03	0	3.781843e-04
9.600000e+08	7.659027e+11	0.000000e+00	4.206896e-01	2.985673e+13	1.819261e+14	1.138459e+14	6.273359e+03	2.748605e+03	1.791642e+03	0	3.765026e-04
9.700000e+08	7.557930e+11	0.000000e+00	4.206896e-01	2.953854e+13	1.806262e+14	1.133320e+14	6.263586e+03	2.746618e+03	1.790347e+03	0	3.748387e-04
9.800000e+08	7.458771e+11	0.000000e+00	4.206896e-01	2.922636e+13	1.793477e+14	1.128216e+14	6.253916e+03	2.744656e+03	1.789068e+03	0	3.731922e-04
9.900000e+08	7.361497e+11	0.000000e+00	4.206896e-01	2.892002e+13	1.780898e+14	1.123147e+14	6.244348e+03	2.742717e+03	1.787804e+03	0	3.715628e-04
1.000000e+09	7.266056e+11	0.000000e+00	4.206896e-01	2.861938e+13	1.768522e+14	1.118112e+14	6.234880e+03	2.740801e+03	1.786555e+03	0	3.699500e-04
1.010000e+09	7.172399e+11	0.000000e+00	4.206896e-01	2.832428e+13	1.756341e+14	1.113112e+14	6.225510e+03	2.738908e+03	1.785321e+03	0	3.683536e-04
1.020000e+09	7.080480e+11	0.000000e+00	4.206896e-01	2.803457e+13	1.744352e+14	1.108145e+14	6.216236e+03	2.737036e+03	1.784101e+03	0	3.667733e-04
1.030000e+09	6.990251e+11	0.000000e+00	4.206896e-01	2.775010e+13	1.732548e+14	1.103212e+14	6.207057e+03	2.735186e+03	1.782895e+03	0	3.652086e-04
1.040000e+09	6.901668e+11	0.000000e+00	4.206896e-01	2.747076e+13	1.720925e+14	1.098312e+14	6.197971e+03	2.733356e+03	1.781702e+03	0	3.636594e-04
1.050000e+09	6.814689e+11	0.000000e+00	4.206896e-01	2.719639e+13	1.709477e+14	1.093445e+14	6.188976e+03	2.731547e+03	1.780523e+03	0	3.621253e-04
1.060000e+09	6.729273e+11	0.000000e+00	4.206896e-01	2.692687e+13	1.698202e+14	1.088612e+14	6.180070e+03	2.729757e+03	1.779356e+03	0	3.606059e-04
1.070000e+09	6.645378e+11	0.000000e+00	4.206896e-01	2.666209e+13	1.687093e+14	1.083810e+14	6.171252e+03	2.727987e+03	1.778203e+03	0	3.591011e-04
1.080000e+09	6.562967e+11	0.000000e+00	4.206896e-01	2.640191e+13	1.676147e+14	1.079041e+14	6.162521e+03	2.726236e+03	1.777061e+03	0	3.576105e-04
1.090000e+09	6.482003e+11	0.000000e+00	4.206896e-01	2.614623e+13	1.665360e+14	1.074305e+14	6.153875e+03	2.724503e+03	1.775931e+03	0	3.561338e-04
1.100000e+09	6.402448e+11	0.000000e+00	4.206896e-01	2.589493e+13	1.654728e+14	1.069599e+14	6.145312e+03	2.722788e+03	1.774814e+03	0	3.546708e-04
1.110000e+09	6.324268e+11	0.000000e+00	4.206896e-01	2.564791e+13	1.644247e+14	1.064926e+14	6.136831e+03	2.721091e+03	1.773707e+03	0	3.532213e-04
1.120000e+09	6.247430e+11	0.000000e+00	4.206896e-01	2.540506e+13	1.633913e+14	1.060284e+14	6.128430e+03	2.719411e+03	1.772612e+03	0	3.517850e-04
1.130000e+09	6.171900e+11	0.000000e+00	4.206896e-01	2.516628e+13	1.623722e+14	1.055673e+14	6.120109e+03	2.717748e+03	1.771528e+03	0	3.503615e-04
1.140000e+09	6.097647e+11	0.000000e+00	4.206896e-01	2.493146e+13	1.613672e+14	1.051092e+14	6.111866e+03	2.716101e+03	1.770455e+03	0	3.489508e-04
1.150000e+09	6.024639e+11	0.000000e+00	4.206896e-01	2.470053e+13	1.603759e+14	1.046542e+14	6.103700e+03	2.714471e+03	1.769392e+03	0	3.475525e-04
1.160000e+09	5.952848e+11	0.000000e+00	4.206896e-01	2.447337e+13	1.593979e+14	1.042023e+14	6.095609e+03	2.712856e+03	1.768340e+03	0	3.461665e-04
1.170000e+09	5.882244e+11	0.000000e+00	4.206896e-01	2.424992e+13	1.584330e+14	1.037534e+14	6.087592e+03	2.711257e+03	1.767297e+03	0	3.447925e-04
1.180000e+09	5.812799e+11	0.000000e+00	4.206896e-01	2.403007e+13	1.574809e+14	1.033074e+14	6.079648e+03	2.709673e+03	1.766265e+03	0	3.434303e-04
1.190000e+09	5.744487e+11	0.000000e+00	4.206896e-01	2.381374e+13	1.565412e+14	1.028645e+14	6.071776e+03	2.708104e+03	1.765242e+03	0	3.420796e-04
1.200000e+09	5.677280e+11	0.000000e+00	4.206896e-01	2.360086e+13	1.556137e+14	1.024244e+14	6.063975e+03	2.706549e+03	1.764228e+03	0	3.407404e-04
1.210000e+09	5.611154e+11	0.000000e+00	4.206896e-01	2.339134e+13	1.546982e+14	1.019873e+14	6.056243e+03	2.705008e+03	1.763224e+03	0	3.394123e-04
1.220000e+09	5.546084e+11	0.000000e+00	4.206896e-01	2.318511e+13	1.537942e+14	1.015531e+14	6.048579e+03	2.703481e+03	1.762229e+03	0	3.380952e-04
1.230000e+09	5.482045e+11	0.000000e+00	4.206896e-01	2.298210e+13	1.529017e+14	1.011217e+14	6.040983e+03	2.701968e+03	1.761243e+03	0	3.367888e-04
1.240000e+09	5.419015e+11	0.000000e+00	4.206896e-01	2.278222e+13	1.520204e+14	1.006932e+14	6.033453e+03	2.700468e+03	1.760265e+03	0	3.354931e-04
1.250000e+09	5.356971e+11	0.000000e+00	4.206896e-01	2.258542e+13	1.511499e+14	1.002676e+14	6.025989e+03	2.698982e+03	1.759296e+03	0	3.342078e-04
1.260000e+09	5.295891e+11	0.000000e+00	4.206896e-01	2.239162e+13	1.502902e+14	9.984470e+13	6.018589e+03	2.697508e+03	1.758335e+03	0	3.329327e-04
1.270000e+09	5.235754e+11	0.000000e+00	4.206896e-01	2.220076e+13	1.494408e+14	9.942462e+13	6.011252e+03	2.696047e+03	1.757383e+03	0	3.316677e-04
1.280000e+09	5.176538e+11	0.000000e+00	4.206896e-01	2.201277e+13	1.486017e+14	9.900730e+13	6.003977e+03	2.694598e+03	1.756438e+03	0	3.304126e-04
1.290000e+09	5.118224e+11	0.000000e+00	4.206896e-01	2.182760e+13	1.477727e+14	9.859273e+13	5.996764e+03	2.693161e+03	1.755502e+03	0	3.291672e-04
1.300000e+09	5.060793e+11	0.000000e+00	4.206896e-01	2.164518e+13	1.469534e+14	9.818088e+13	5.989611e+03	2.691736e+03	1.754573e+03	0	3.279314e-04
1.310000e+09	5.004225e+11	0.000000e+00	4.206896e-01	2.146544e+13	1.461438e+14	9.777173e+13	5.982518e+03	2.690322e+03	1.753651e+03	0	3.267050e-04
1.320000e+09	4.948502e+11	0.000000e+00	4.206896e-01	2.128835e+13	1.453436e+14	9.736526e+13	5.975484e+03	2.688921e+03	1.752738e+03	0	3.254878e-04
1.330000e+09	4.893606e+11	0.000000e+00	4.206896e-01	2.111383e+13	1.445527e+14	9.696144e+13	5.968508e+03	2.687530e+03	1.751831e+03	0	3.242797e-04
1.340000e+09	4.839519e+11	0.000000e+00	4.206896e-01	2.094184e+13	1.437707e+14	9.656027e+13	5.961588e+03	2.686150e+03	1.750932e+03	0	3.230806e-04
1.350000e+09	4.786225e+11	0.000000e+00	4.206896e-01	2.077233e+13	1.429977e+14	9.616171e+13	5.954725e+03	2.684781e+03	1.750039e+03	0	3.218903e-04
1.360000e+09	4.733707e+11	0.000000e+00	4.206896e-01	2.060523e+13	1.422334e+14	9.576575e+13	5.947917e+03	2.683423e+03	1.749154e+03	0	3.207086e-04
