#t		Qconv[W]	Ri[Rp]		R*[Rp]		Qc[W]		Qm[W]		Qr[W]		Tcmb[K]		Tl[K]		Tup[K]		RiFlag		Bs[T]
0.000000e+00	3.281937e+14	0.000000e+00	4.178082e-01	8.016074e+15	4.253274e+15	2.543061e+14	2.008381e+04	5.472190e+03	2.508763e+03	0	2.793715e-03
1.000000e+07	2.425309e+14	0.000000e+00	4.178082e-01	5.930909e+15	4.553087e+15	2.528970e+14	1.847117e+04	5.634969e+03	2.583391e+03	0	2.525773e-03
2.000000e+07	1.872433e+14	0.000000e+00	4.178082e-01	4.584765e+15	4.474531e+15	2.514985e+14	1.724863e+04	5.701109e+03	2.613713e+03	0	2.317079e-03
3.000000e+07	1.494826e+14	0.000000e+00	4.178082e-01	3.665117e+15	4.229810e+15	2.501105e+14	1.628627e+04	5.715838e+03	2.620465e+03	0	2.149491e-03
4.000000e+07	1.225182e+14	0.000000e+00	4.178082e-01	3.008226e+15	3.928901e+15	2.487328e+14	1.550611e+04	5.702914e+03	2.614540e+03	0	2.011587e-03
5.000000e+07	1.025611e+14	0.000000e+00	4.178082e-01	2.521905e+15	3.623357e+15	2.473654e+14	1.485863e+04	5.675161e+03	2.601817e+03	0	1.895831e-03
6.000000e+07	8.735051e+13	0.000000e+00	4.178082e-01	2.151141e+15	3.335315e+15	2.460081e+14	1.431094e+04	5.639684e+03	2.585552e+03	0	1.797051e-03
7.000000e+07	7.547113e+13	0.000000e+00	4.178082e-01	1.861493e+15	3.072823e+15	2.446610e+14	1.384030e+04	5.600509e+03	2.567592e+03	0	1.711587e-03
8.000000e+07	6.600053e+13	0.000000e+00	4.178082e-01	1.630509e+15	2.837420e+15	2.433239e+14	1.343050e+04	5.559952e+03	2.548999e+03	0	1.636771e-03
9.000000e+07	5.831654e+13	0.000000e+00	4.178082e-01	1.443044e+15	2.627802e+15	2.419968e+14	1.306965e+04	5.519352e+03	2.530385e+03	0	1.570613e-03
1.000000e+08	5.198704e+13	0.000000e+00	4.178082e-01	1.288578e+15	2.441572e+15	2.406795e+14	1.274886e+04	5.479478e+03	2.512105e+03	0	1.511601e-03
1.100000e+08	4.670413e+13	0.000000e+00	4.178082e-01	1.159614e+15	2.276057e+15	2.393720e+14	1.246127e+04	5.440760e+03	2.494354e+03	0	1.458558e-03
1.200000e+08	4.224349e+13	0.000000e+00	4.178082e-01	1.050689e+15	2.128673e+15	2.380741e+14	1.220159e+04	5.403424e+03	2.477237e+03	0	1.410561e-03
1.300000e+08	3.843845e+13	0.000000e+00	4.178082e-01	9.577457e+14	1.997072e+15	2.367859e+14	1.196559e+04	5.367572e+03	2.460800e+03	0	1.366870e-03
1.400000e+08	3.516300e+13	0.000000e+00	4.178082e-01	8.777134e+14	1.879188e+15	2.355072e+14	1.174989e+04	5.333230e+03	2.445056e+03	0	1.326887e-03
1.500000e+08	3.232039e+13	0.000000e+00	4.178082e-01	8.082356e+14	1.773232e+15	2.342380e+14	1.155174e+04	5.300379e+03	2.429995e+03	0	1.290122e-03
1.600000e+08	2.983527e+13	0.000000e+00	4.178082e-01	7.474766e+14	1.677663e+15	2.329781e+14	1.136888e+04	5.268974e+03	2.415597e+03	0	1.256171e-03
1.700000e+08	2.764825e+13	0.000000e+00	4.178082e-01	6.939890e+14	1.591167e+15	2.317276e+14	1.119945e+04	5.238955e+03	2.401835e+03	0	1.224695e-03
1.800000e+08	2.571193e+13	0.000000e+00	4.178082e-01	6.466179e+14	1.512617e+15	2.304862e+14	1.104186e+04	5.210254e+03	2.388677e+03	0	1.195410e-03
1.900000e+08	2.398813e+13	0.000000e+00	4.178082e-01	6.044327e+14	1.441049e+15	2.292540e+14	1.089479e+04	5.182802e+03	2.376092e+03	0	1.168075e-03
2.000000e+08	2.244578e+13	0.000000e+00	4.178082e-01	5.666760e+14	1.375639e+15	2.280309e+14	1.075712e+04	5.156528e+03	2.364046e+03	0	1.142484e-03
2.100000e+08	2.105939e+13	0.000000e+00	4.178082e-01	5.327263e+14	1.315677e+15	2.268167e+14	1.062788e+04	5.131364e+03	2.352510e+03	0	1.118460e-03
2.200000e+08	1.980785e+13	0.000000e+00	4.178082e-01	5.020691e+14	1.260551e+15	2.256115e+14	1.050622e+04	5.107245e+03	2.341452e+03	0	1.095850e-03
2.300000e+08	1.867358e+13	0.000000e+00	4.178082e-01	4.742756e+14	1.209734e+15	2.244151e+14	1.039144e+04	5.084108e+03	2.330844e+03	0	1.074520e-03
2.400000e+08	1.764182e+13	0.000000e+00	4.178082e-01	4.489859e+14	1.162766e+15	2.232275e+14	1.028290e+04	5.061895e+03	2.320661e+03	0	1.054354e-03
2.500000e+08	1.670012e+13	0.000000e+00	4.178082e-01	4.258961e+14	1.119249e+15	2.220486e+14	1.018005e+04	5.040551e+03	2.310876e+03	0	1.035250e-03
2.600000e+08	1.583787e+13	0.000000e+00	4.178082e-01	4.047476e+14	1.078834e+15	2.208783e+14	1.008239e+04	5.020026e+03	2.301466e+03	0	1.017117e-03
2.700000e+08	1.504604e+13	0.000000e+00	4.178082e-01	3.853199e+14	1.041218e+15	2.197166e+14	9.989510e+03	5.000271e+03	2.292409e+03	0	9.998758e-04
2.800000e+08	1.431684e+13	0.000000e+00	4.178082e-01	3.674232e+14	1.006131e+15	2.185634e+14	9.901014e+03	4.981244e+03	2.283686e+03	0	9.834548e-04
2.900000e+08	1.364358e+13	0.000000e+00	4.178082e-01	3.508940e+14	9.733373e+14	2.174185e+14	9.816566e+03	4.962901e+03	2.275276e+03	0	9.677908e-04
3.000000e+08	1.302044e+13	0.000000e+00	4.178082e-01	3.355902e+14	9.426287e+14	2.162821e+14	9.735861e+03	4.945206e+03	2.267164e+03	0	9.528267e-04
3.100000e+08	1.244236e+13	0.000000e+00	4.178082e-01	3.213884e+14	9.138199e+14	2.151539e+14	9.658624e+03	4.928122e+03	2.259332e+03	0	9.385115e-04
3.200000e+08	1.190491e+13	0.000000e+00	4.178082e-01	3.081805e+14	8.867462e+14	2.140339e+14	9.584611e+03	4.911617e+03	2.251765e+03	0	9.247991e-04
3.300000e+08	1.140421e+13	0.000000e+00	4.178082e-01	2.958717e+14	8.612607e+14	2.129220e+14	9.513597e+03	4.895660e+03	2.244449e+03	0	9.116479e-04
3.400000e+08	1.093684e+13	0.000000e+00	4.178082e-01	2.843784e+14	8.372323e+14	2.118182e+14	9.445382e+03	4.880222e+03	2.237371e+03	0	8.990200e-04
3.500000e+08	1.049978e+13	0.000000e+00	4.178082e-01	2.736268e+14	8.145434e+14	2.107225e+14	9.379783e+03	4.865276e+03	2.230519e+03	0	8.868811e-04
3.600000e+08	1.009034e+13	0.000000e+00	4.178082e-01	2.635516e+14	7.930882e+14	2.096347e+14	9.316632e+03	4.850797e+03	2.223882e+03	0	8.752000e-04
3.700000e+08	9.706151e+12	0.000000e+00	4.178082e-01	2.540943e+14	7.727717e+14	2.085547e+14	9.255779e+03	4.836763e+03	2.217448e+03	0	8.639481e-04
3.800000e+08	9.345074e+12	0.000000e+00	4.178082e-01	2.452031e+14	7.535078e+14	2.074826e+14	9.197082e+03	4.823151e+03	2.211207e+03	0	8.530993e-04
3.900000e+08	9.005211e+12	0.000000e+00	4.178082e-01	2.368315e+14	7.352189e+14	2.064182e+14	9.140416e+03	4.809942e+03	2.205151e+03	0	8.426295e-04
4.000000e+08	8.684858e+12	0.000000e+00	4.178082e-01	2.289379e+14	7.178344e+14	2.053615e+14	9.085662e+03	4.797115e+03	2.199271e+03	0	8.325166e-04
4.100000e+08	8.382481e+12	0.000000e+00	4.178082e-01	2.214847e+14	7.012905e+14	2.043125e+14	9.032712e+03	4.784654e+03	2.193558e+03	0	8.227405e-04
4.200000e+08	8.096698e+12	0.000000e+00	4.178082e-01	2.144381e+14	6.855287e+14	2.032709e+14	8.981467e+03	4.772541e+03	2.188004e+03	0	8.132823e-04
4.300000e+08	7.826259e+12	0.000000e+00	4.178082e-01	2.077677e+14	6.704960e+14	2.022369e+14	8.931835e+03	4.760761e+03	2.182604e+03	0	8.041247e-04
4.400000e+08	7.570034e+12	0.000000e+00	4.178082e-01	2.014457e+14	6.561438e+14	2.012104e+14	8.883731e+03	4.749298e+03	2.177349e+03	0	7.952517e-04
4.500000e+08	7.326998e+12	0.000000e+00	4.178082e-01	1.954471e+14	6.424277e+14	2.001912e+14	8.837076e+03	4.738141e+03	2.172233e+03	0	7.866484e-04
4.600000e+08	7.096217e+12	0.000000e+00	4.178082e-01	1.897491e+14	6.293069e+14	1.991793e+14	8.791796e+03	4.727274e+03	2.167251e+03	0	7.783011e-04
4.700000e+08	6.876843e+12	0.000000e+00	4.178082e-01	1.843309e+14	6.167440e+14	1.981747e+14	8.747822e+03	4.716686e+03	2.162397e+03	0	7.701968e-04
4.800000e+08	6.668099e+12	0.000000e+00	4.178082e-01	1.791735e+14	6.047046e+14	1.971773e+14	8.705093e+03	4.706365e+03	2.157665e+03	0	7.623236e-04
4.900000e+08	6.469277e+12	0.000000e+00	4.178082e-01	1.742596e+14	5.931571e+14	1.961870e+14	8.663547e+03	4.696300e+03	2.153051e+03	0	7.546703e-04
5.000000e+08	6.279727e+12	0.000000e+00	4.178082e-01	1.695732e+14	5.820721e+14	1.952038e+14	8.623131e+03	4.686481e+03	2.148549e+03	0	7.472265e-04
5.100000e+08	6.098853e+12	0.000000e+00	4.178082e-01	1.650998e+14	5.714226e+14	1.942276e+14	8.583791e+03	4.676898e+03	2.144156e+03	0	7.399824e-04
5.200000e+08	5.926109e+12	0.000000e+00	4.178082e-01	1.608261e+14	5.611837e+14	1.932584e+14	8.545480e+03	4.667541e+03	2.139867e+03	0	7.329289e-04
5.300000e+08	5.760990e+12	0.000000e+00	4.178082e-01	1.567396e+14	5.513322e+14	1.922961e+14	8.508151e+03	4.658403e+03	2.135677e+03	0	7.260575e-04
5.400000e+08	5.603032e+12	0.000000e+00	4.178082e-01	1.528289e+14	5.418466e+14	1.913407e+14	8.471763e+03	4.649474e+03	2.131583e+03	0	7.193601e-04
5.500000e+08	5.451805e+12	0.000000e+00	4.178082e-01	1.490837e+14	5.327070e+14	1.903920e+14	8.436275e+03	4.640746e+03	2.127582e+03	0	7.128291e-04
5.600000e+08	5.306915e+12	0.000000e+00	4.178082e-01	1.454942e+14	5.238947e+14	1.894501e+14	8.401650e+03	4.632213e+03	2.123670e+03	0	7.064575e-04
5.700000e+08	5.167994e+12	0.000000e+00	4.178082e-01	1.420513e+14	5.153926e+14	1.885149e+14	8.367851e+03	4.623867e+03	2.119844e+03	0	7.002385e-04
5.800000e+08	5.034703e+12	0.000000e+00	4.178082e-01	1.387469e+14	5.071845e+14	1.875863e+14	8.334846e+03	4.615701e+03	2.116100e+03	0	6.941659e-04
5.900000e+08	4.906726e+12	0.000000e+00	4.178082e-01	1.355731e+14	4.992554e+14	1.866644e+14	8.302602e+03	4.607709e+03	2.112436e+03	0	6.882337e-04
6.000000e+08	4.783769e+12	0.000000e+00	4.178082e-01	1.325227e+14	4.915913e+14	1.857489e+14	8.271090e+03	4.599885e+03	2.108849e+03	0	6.824362e-04
6.100000e+08	4.665561e+12	0.000000e+00	4.178082e-01	1.295892e+14	4.841791e+14	1.848399e+14	8.240282e+03	4.592222e+03	2.105336e+03	0	6.767682e-04
6.200000e+08	4.551848e+12	0.000000e+00	4.178082e-01	1.267662e+14	4.770064e+14	1.839373e+14	8.210150e+03	4.584716e+03	2.101895e+03	0	6.712247e-04
6.300000e+08	4.442392e+12	0.000000e+00	4.178082e-01	1.240480e+14	4.700617e+14	1.830411e+14	8.180670e+03	4.577360e+03	2.098523e+03	0	6.658008e-04
6.400000e+08	4.336974e+12	0.000000e+00	4.178082e-01	1.214292e+14	4.633344e+14	1.821513e+14	8.151817e+03	4.570151e+03	2.095217e+03	0	6.604921e-04
6.500000e+08	4.235386e+12	0.000000e+00	4.178082e-01	1.189046e+14	4.568141e+14	1.812677e+14	8.123569e+03	4.563082e+03	2.091977e+03	0	6.552942e-04
6.600000e+08	4.137437e+12	0.000000e+00	4.178082e-01	1.164696e+14	4.504914e+14	1.803903e+14	8.095904e+03	4.556150e+03	2.088799e+03	0	6.502032e-04
6.700000e+08	4.042945e+12	0.000000e+00	4.178082e-01	1.141198e+14	4.443574e+14	1.795190e+14	8.068802e+03	4.549350e+03	2.085681e+03	0	6.452152e-04
6.800000e+08	3.951741e+12	0.000000e+00	4.178082e-01	1.118509e+14	4.384036e+14	1.786539e+14	8.042243e+03	4.542678e+03	2.082622e+03	0	6.403265e-04
6.900000e+08	3.863666e+12	0.000000e+00	4.178082e-01	1.096591e+14	4.326221e+14	1.777949e+14	8.016208e+03	4.536129e+03	2.079620e+03	0	6.355336e-04
7.000000e+08	3.778572e+12	0.000000e+00	4.178082e-01	1.075408e+14	4.270054e+14	1.769419e+14	7.990679e+03	4.529700e+03	2.076672e+03	0	6.308332e-04
7.100000e+08	3.696318e+12	0.000000e+00	4.178082e-01	1.054924e+14	4.215463e+14	1.760949e+14	7.965641e+03	4.523387e+03	2.073778e+03	0	6.262222e-04
7.200000e+08	3.616774e+12	0.000000e+00	4.178082e-01	1.035108e+14	4.162384e+14	1.752537e+14	7.941076e+03	4.517187e+03	2.070935e+03	0	6.216975e-04
7.300000e+08	3.539814e+12	0.000000e+00	4.178082e-01	1.015930e+14	4.110752e+14	1.744185e+14	7.916970e+03	4.511095e+03	2.068143e+03	0	6.172562e-04
7.400000e+08	3.465322e+12	0.000000e+00	4.178082e-01	9.973600e+13	4.060507e+14	1.735891e+14	7.893308e+03	4.505110e+03	2.065399e+03	0	6.128956e-04
7.500000e+08	3.393188e+12	0.000000e+00	4.178082e-01	9.793717e+13	4.011594e+14	1.727655e+14	7.870075e+03	4.499227e+03	2.062702e+03	0	6.086131e-04
7.600000e+08	3.323310e+12	0.000000e+00	4.178082e-01	9.619396e+13	3.963960e+14	1.719476e+14	7.847259e+03	4.493444e+03	2.060051e+03	0	6.044062e-04
7.700000e+08	3.255587e+12	0.000000e+00	4.178082e-01	9.450395e+13	3.917552e+14	1.711354e+14	7.824846e+03	4.487758e+03	2.057444e+03	0	6.002725e-04
7.800000e+08	3.189929e+12	0.000000e+00	4.178082e-01	9.286488e+13	3.872324e+14	1.703288e+14	7.802825e+03	4.482166e+03	2.054880e+03	0	5.962097e-04
7.900000e+08	3.126248e+12	0.000000e+00	4.178082e-01	9.127460e+13	3.828229e+14	1.695279e+14	7.781183e+03	4.476665e+03	2.052358e+03	0	5.922155e-04
8.000000e+08	3.064460e+12	0.000000e+00	4.178082e-01	8.973107e+13	3.785226e+14	1.687325e+14	7.759910e+03	4.471253e+03	2.049877e+03	0	5.882880e-04
8.100000e+08	3.004488e+12	0.000000e+00	4.178082e-01	8.823237e+13	3.743271e+14	1.679426e+14	7.738994e+03	4.465928e+03	2.047435e+03	0	5.844251e-04
8.200000e+08	2.946257e+12	0.000000e+00	4.178082e-01	8.677667e+13	3.702327e+14	1.671582e+14	7.718426e+03	4.460686e+03	2.045032e+03	0	5.806248e-04
8.300000e+08	2.889698e+12	0.000000e+00	4.178082e-01	8.536225e+13	3.662356e+14	1.663792e+14	7.698195e+03	4.455525e+03	2.042666e+03	0	5.768853e-04
8.400000e+08	2.834742e+12	0.000000e+00	4.178082e-01	8.398746e+13	3.623323e+14	1.656056e+14	7.678292e+03	4.450444e+03	2.040337e+03	0	5.732048e-04
8.500000e+08	2.781327e+12	0.000000e+00	4.178082e-01	8.265075e+13	3.585193e+14	1.648373e+14	7.658708e+03	4.445441e+03	2.038043e+03	0	5.695817e-04
8.600000e+08	2.729393e+12	0.000000e+00	4.178082e-01	8.135063e+13	3.547936e+14	1.640743e+14	7.639434e+03	4.440512e+03	2.035784e+03	0	5.660143e-04
8.700000e+08	2.678883e+12	0.000000e+00	4.178082e-01	8.008571e+13	3.511520e+14	1.633166e+14	7.620461e+03	4.435657e+03	2.033558e+03	0	5.625009e-04
8.800000e+08	2.629742e+12	0.000000e+00	4.178082e-01	7.885465e+13	3.475916e+14	1.625641e+14	7.601781e+03	4.430873e+03	2.031364e+03	0	5.590402e-04
8.900000e+08	2.581918e+12	0.000000e+00	4.178082e-01	7.765616e+13	3.441097e+14	1.618167e+14	7.583388e+03	4.426159e+03	2.029203e+03	0	5.556306e-04
9.000000e+08	2.535363e+12	0.000000e+00	4.178082e-01	7.648905e+13	3.407035e+14	1.610745e+14	7.565272e+03	4.421512e+03	2.027073e+03	0	5.522707e-04
9.100000e+08	2.490029e+12	0.000000e+00	4.178082e-01	7.535216e+13	3.373705e+14	1.603374e+14	7.547427e+03	4.416931e+03	2.024973e+03	0	5.489593e-04
9.200000e+08	2.445872e+12	0.000000e+00	4.178082e-01	7.424439e+13	3.341083e+14	1.596053e+14	7.529846e+03	4.412415e+03	2.022902e+03	0	5.456949e-04
9.300000e+08	2.402849e+12	0.000000e+00	4.178082e-01	7.316469e+13	3.309146e+14	1.588783e+14	7.512522e+03	4.407961e+03	2.020860e+03	0	5.424763e-04
9.400000e+08	2.360919e+12	0.000000e+00	4.178082e-01	7.211207e+13	3.277871e+14	1.581561e+14	7.495449e+03	4.403568e+03	2.018846e+03	0	5.393024e-04
9.500000e+08	2.320045e+12	0.000000e+00	4.178082e-01	7.108556e+13	3.247237e+14	1.574390e+14	7.478620e+03	4.399235e+03	2.016860e+03	0	5.361720e-04
9.600000e+08	2.280189e+12	0.000000e+00	4.178082e-01	7.008426e+13	3.217224e+14	1.567267e+14	7.462030e+03	4.394960e+03	2.014900e+03	0	5.330839e-04
9.700000e+08	2.241315e+12	0.000000e+00	4.178082e-01	6.910729e+13	3.187812e+14	1.560193e+14	7.445672e+03	4.390742e+03	2.012966e+03	0	5.300371e-04
9.800000e+08	2.203389e+12	0.000000e+00	4.178082e-01	6.815384e+13	3.158983e+14	1.553166e+14	7.429541e+03	4.386580e+03	2.011058e+03	0	5.270305e-04
9.900000e+08	2.166381e+12	0.000000e+00	4.178082e-01	6.722309e+13	3.130718e+14	1.546188e+14	7.413631e+03	4.382471e+03	2.009174e+03	0	5.240631e-04
1.000000e+09	2.130257e+12	0.000000e+00	4.178082e-01	6.631428e+13	3.103000e+14	1.539257e+14	7.397938e+03	4.378416e+03	2.007315e+03	0	5.211339e-04
1.010000e+09	2.094990e+12	0.000000e+00	4.178082e-01	6.542670e+13	3.075814e+14	1.532373e+14	7.382456e+03	4.374412e+03	2.005479e+03	0	5.182421e-04
1.020000e+09	2.060551e+12	0.000000e+00	4.178082e-01	6.455965e+13	3.049142e+14	1.525535e+14	7.367180e+03	4.370458e+03	2.003667e+03	0	5.153866e-04
1.030000e+09	2.026912e+12	0.000000e+00	4.178082e-01	6.371244e+13	3.022970e+14	1.518744e+14	7.352105e+03	4.366554e+03	2.001877e+03	0	5.125666e-04
1.040000e+09	1.994048e+12	0.000000e+00	4.178082e-01	6.288445e+13	2.997283e+14	1.511999e+14	7.337228e+03	4.362698e+03	2.000109e+03	0	5.097812e-04
1.050000e+09	1.961933e+12	0.000000e+00	4.178082e-01	6.207506e+13	2.972067e+14	1.505299e+14	7.322543e+03	4.358889e+03	1.998363e+03	0	5.070297e-04
1.060000e+09	1.930545e+12	0.000000e+00	4.178082e-01	6.128369e+13	2.947309e+14	1.498645e+14	7.308046e+03	4.355126e+03	1.996638e+03	0	5.043112e-04
1.070000e+09	1.899859e+12	0.000000e+00	4.178082e-01	6.050976e+13	2.922995e+14	1.492035e+14	7.293733e+03	4.351408e+03	1.994933e+03	0	5.016249e-04
1.080000e+09	1.869854e+12	0.000000e+00	4.178082e-01	5.975273e+13	2.899113e+14	1.485470e+14	7.279600e+03	4.347734e+03	1.993249e+03	0	4.989702e-04
1.090000e+09	1.840510e+12	0.000000e+00	4.178082e-01	5.901209e+13	2.875652e+14	1.478949e+14	7.265643e+03	4.344103e+03	1.991584e+03	0	4.963462e-04
1.100000e+09	1.811805e+12	0.000000e+00	4.178082e-01	5.828734e+13	2.852598e+14	1.472471e+14	7.251859e+03	4.340515e+03	1.989939e+03	0	4.937523e-04
1.110000e+09	1.783720e+12	0.000000e+00	4.178082e-01	5.757799e+13	2.829942e+14	1.466038e+14	7.238242e+03	4.336967e+03	1.988313e+03	0	4.911878e-04
1.120000e+09	1.756236e+12	0.000000e+00	4.178082e-01	5.688358e+13	2.807672e+14	1.459647e+14	7.224791e+03	4.333460e+03	1.986705e+03	0	4.886520e-04
1.130000e+09	1.729336e+12	0.000000e+00	4.178082e-01	5.620367e+13	2.785778e+14	1.453299e+14	7.211502e+03	4.329992e+03	1.985115e+03	0	4.861443e-04
1.140000e+09	1.703003e+12	0.000000e+00	4.178082e-01	5.553784e+13	2.764251e+14	1.446993e+14	7.198370e+03	4.326563e+03	1.983543e+03	0	4.836640e-04
1.150000e+09	1.677219e+12	0.000000e+00	4.178082e-01	5.488566e+13	2.743079e+14	1.440730e+14	7.185394e+03	4.323172e+03	1.981988e+03	0	4.812107e-04
1.160000e+09	1.651968e+12	0.000000e+00	4.178082e-01	5.424675e+13	2.722255e+14	1.434508e+14	7.172569e+03	4.319818e+03	1.980451e+03	0	4.787836e-04
1.170000e+09	1.627236e+12	0.000000e+00	4.178082e-01	5.362073e+13	2.701769e+14	1.428328e+14	7.159893e+03	4.316500e+03	1.978929e+03	0	4.763822e-04
1.180000e+09	1.603007e+12	0.000000e+00	4.178082e-01	5.300723e+13	2.681613e+14	1.422189e+14	7.147363e+03	4.313218e+03	1.977425e+03	0	4.740059e-04
1.190000e+09	1.579266e+12	0.000000e+00	4.178082e-01	5.240589e+13	2.661777e+14	1.416091e+14	7.134975e+03	4.309971e+03	1.975936e+03	0	4.716543e-04
1.200000e+09	1.556001e+12	0.000000e+00	4.178082e-01	5.181637e+13	2.642255e+14	1.410033e+14	7.122728e+03	4.306758e+03	1.974463e+03	0	4.693268e-04
1.210000e+09	1.533198e+12	0.000000e+00	4.178082e-01	5.123835e+13	2.623037e+14	1.404015e+14	7.110617e+03	4.303578e+03	1.973005e+03	0	4.670228e-04
1.220000e+09	1.510844e+12	0.000000e+00	4.178082e-01	5.067151e+13	2.604118e+14	1.398037e+14	7.098641e+03	4.300431e+03	1.971562e+03	0	4.647420e-04
1.230000e+09	1.488927e+12	0.000000e+00	4.178082e-01	5.011555e+13	2.585488e+14	1.392099e+14	7.086797e+03	4.297317e+03	1.970135e+03	0	4.624838e-04
1.240000e+09	1.467435e+12	0.000000e+00	4.178082e-01	4.957016e+13	2.567142e+14	1.386200e+14	7.075083e+03	4.294234e+03	1.968721e+03	0	4.602477e-04
1.250000e+09	1.446356e+12	0.000000e+00	4.178082e-01	4.903507e+13	2.549073e+14	1.380340e+14	7.063496e+03	4.291181e+03	1.967322e+03	0	4.580333e-04
1.260000e+09	1.425679e+12	0.000000e+00	4.178082e-01	4.851000e+13	2.531273e+14	1.374519e+14	7.052033e+03	4.288160e+03	1.965936e+03	0	4.558402e-04
1.270000e+09	1.405394e+12	0.000000e+00	4.178082e-01	4.799469e+13	2.513737e+14	1.368736e+14	7.040692e+03	4.285168e+03	1.964565e+03	0	4.536679e-04
1.280000e+09	1.385490e+12	0.000000e+00	4.178082e-01	4.748888e+13	2.496458e+14	1.362991e+14	7.029472e+03	4.282205e+03	1.963206e+03	0	4.515159e-04
1.290000e+09	1.365957e+12	0.000000e+00	4.178082e-01	4.699232e+13	2.479431e+14	1.357284e+14	7.018369e+03	4.279271e+03	1.961861e+03	0	4.493840e-04
1.300000e+09	1.346785e+12	0.000000e+00	4.178082e-01	4.650477e+13	2.462649e+14	1.351614e+14	7.007382e+03	4.276365e+03	1.960529e+03	0	4.472717e-04
1.310000e+09	1.327966e+12	0.000000e+00	4.178082e-01	4.602600e+13	2.446106e+14	1.345981e+14	6.996509e+03	4.273486e+03	1.959209e+03	0	4.451786e-04
1.320000e+09	1.309489e+12	0.000000e+00	4.178082e-01	4.555579e+13	2.429799e+14	1.340386e+14	6.985747e+03	4.270635e+03	1.957902e+03	0	4.431043e-04
1.330000e+09	1.291348e+12	0.000000e+00	4.178082e-01	4.509393e+13	2.413720e+14	1.334826e+14	6.975094e+03	4.267811e+03	1.956607e+03	0	4.410485e-04
1.340000e+09	1.273532e+12	0.000000e+00	4.178082e-01	4.464019e+13	2.397865e+14	1.329304e+14	6.964549e+03	4.265012e+03	1.955324e+03	0	4.390108e-04
1.350000e+09	1.256033e+12	0.000000e+00	4.178082e-01	4.419439e+13	2.382230e+14	1.323817e+14	6.954110e+03	4.262239e+03	1.954053e+03	0	4.369909e-04
1.360000e+09	1.238845e+12	0.000000e+00	4.178082e-01	4.375632e+13	2.366808e+14	1.318366e+14	6.943775e+03	4.259492e+03	1.952793e+03	0	4.349884e-04
