#t		Qconv[W]	Ri[Rp]		R*[Rp]		Qc[W]		Qm[W]		Qr[W]		Tcmb[K]		Tl[K]		Tup[K]		RiFlag		Bs[T]
0.000000e+00	2.785593e+13	0.000000e+00	4.206895e-01	6.183855e+14	2.240548e+15	3.051448e+14	1.208453e+04	4.402951e+03	2.600338e+03	0	1.212898e-03
1.000000e+07	2.627849e+13	0.000000e+00	4.206895e-01	5.850425e+14	2.091460e+15	3.034541e+14	1.197049e+04	4.361429e+03	2.575816e+03	0	1.189557e-03
2.000000e+07	2.484703e+13	0.000000e+00	4.206895e-01	5.547719e+14	1.961133e+15	3.017760e+14	1.186250e+04	4.323413e+03	2.553364e+03	0	1.167553e-03
3.000000e+07	2.354281e+13	0.000000e+00	4.206895e-01	5.271799e+14	1.846317e+15	3.001104e+14	1.176001e+04	4.288432e+03	2.532705e+03	0	1.146756e-03
4.000000e+07	2.235014e+13	0.000000e+00	4.206895e-01	5.019368e+14	1.744459e+15	2.984573e+14	1.166254e+04	4.256098e+03	2.513608e+03	0	1.127055e-03
5.000000e+07	2.125576e+13	0.000000e+00	4.206895e-01	4.787641e+14	1.653530e+15	2.968166e+14	1.156967e+04	4.226090e+03	2.495886e+03	0	1.108351e-03
6.000000e+07	2.024844e+13	0.000000e+00	4.206895e-01	4.574254e+14	1.571894e+15	2.951880e+14	1.148102e+04	4.198139e+03	2.479379e+03	0	1.090558e-03
7.000000e+07	1.931854e+13	0.000000e+00	4.206895e-01	4.377183e+14	1.498225e+15	2.935716e+14	1.139628e+04	4.172019e+03	2.463952e+03	0	1.073601e-03
8.000000e+07	1.845780e+13	0.000000e+00	4.206895e-01	4.194689e+14	1.431431e+15	2.919672e+14	1.131513e+04	4.147534e+03	2.449492e+03	0	1.057414e-03
9.000000e+07	1.765907e+13	0.000000e+00	4.206895e-01	4.025267e+14	1.370610e+15	2.903747e+14	1.123733e+04	4.124520e+03	2.435900e+03	0	1.041936e-03
1.000000e+08	1.691612e+13	0.000000e+00	4.206895e-01	3.867612e+14	1.315007e+15	2.887941e+14	1.116262e+04	4.102832e+03	2.423091e+03	0	1.027114e-03
1.100000e+08	1.622355e+13	0.000000e+00	4.206895e-01	3.720581e+14	1.263989e+15	2.872252e+14	1.109081e+04	4.082347e+03	2.410993e+03	0	1.012901e-03
1.200000e+08	1.557659e+13	0.000000e+00	4.206895e-01	3.583174e+14	1.217020e+15	2.856679e+14	1.102170e+04	4.062957e+03	2.399541e+03	0	9.992538e-04
1.300000e+08	1.497107e+13	0.000000e+00	4.206895e-01	3.454511e+14	1.173641e+15	2.841221e+14	1.095510e+04	4.044564e+03	2.388679e+03	0	9.861340e-04
1.400000e+08	1.440328e+13	0.000000e+00	4.206895e-01	3.333814e+14	1.133462e+15	2.825878e+14	1.089087e+04	4.027086e+03	2.378357e+03	0	9.735063e-04
1.500000e+08	1.386995e+13	0.000000e+00	4.206895e-01	3.220393e+14	1.096144e+15	2.810649e+14	1.082887e+04	4.010449e+03	2.368531e+03	0	9.613391e-04
1.600000e+08	1.336817e+13	0.000000e+00	4.206895e-01	3.113634e+14	1.061396e+15	2.795531e+14	1.076894e+04	3.994585e+03	2.359162e+03	0	9.496034e-04
1.700000e+08	1.289532e+13	0.000000e+00	4.206895e-01	3.012989e+14	1.028964e+15	2.780526e+14	1.071099e+04	3.979437e+03	2.350215e+03	0	9.382727e-04
1.800000e+08	1.244910e+13	0.000000e+00	4.206895e-01	2.917968e+14	9.986243e+14	2.765631e+14	1.065488e+04	3.964950e+03	2.341660e+03	0	9.273228e-04
1.900000e+08	1.202740e+13	0.000000e+00	4.206895e-01	2.828130e+14	9.701829e+14	2.750845e+14	1.060053e+04	3.951078e+03	2.333467e+03	0	9.167316e-04
2.000000e+08	1.162834e+13	0.000000e+00	4.206895e-01	2.743079e+14	9.434678e+14	2.736169e+14	1.054784e+04	3.937777e+03	2.325612e+03	0	9.064786e-04
2.100000e+08	1.125023e+13	0.000000e+00	4.206895e-01	2.662457e+14	9.183271e+14	2.721600e+14	1.049671e+04	3.925009e+03	2.318071e+03	0	8.965450e-04
2.200000e+08	1.089153e+13	0.000000e+00	4.206895e-01	2.585941e+14	8.946258e+14	2.707138e+14	1.044707e+04	3.912739e+03	2.310824e+03	0	8.869135e-04
2.300000e+08	1.055085e+13	0.000000e+00	4.206895e-01	2.513237e+14	8.722441e+14	2.692783e+14	1.039885e+04	3.900934e+03	2.303852e+03	0	8.775680e-04
2.400000e+08	1.022692e+13	0.000000e+00	4.206895e-01	2.444078e+14	8.510748e+14	2.678533e+14	1.035197e+04	3.889565e+03	2.297138e+03	0	8.684937e-04
2.500000e+08	9.918602e+12	0.000000e+00	4.206895e-01	2.378222e+14	8.310217e+14	2.664387e+14	1.030637e+04	3.878605e+03	2.290665e+03	0	8.596767e-04
2.600000e+08	9.624832e+12	0.000000e+00	4.206895e-01	2.315447e+14	8.119986e+14	2.650344e+14	1.026198e+04	3.868031e+03	2.284420e+03	0	8.511042e-04
2.700000e+08	9.344655e+12	0.000000e+00	4.206895e-01	2.255550e+14	7.939279e+14	2.636405e+14	1.021876e+04	3.857819e+03	2.278389e+03	0	8.427642e-04
2.800000e+08	9.077191e+12	0.000000e+00	4.206895e-01	2.198346e+14	7.767395e+14	2.622567e+14	1.017665e+04	3.847948e+03	2.272559e+03	0	8.346457e-04
2.900000e+08	8.821633e+12	0.000000e+00	4.206895e-01	2.143664e+14	7.603697e+14	2.608830e+14	1.013559e+04	3.838401e+03	2.266921e+03	0	8.267382e-04
3.000000e+08	8.577239e+12	0.000000e+00	4.206895e-01	2.091348e+14	7.447611e+14	2.595193e+14	1.009555e+04	3.829158e+03	2.261462e+03	0	8.190319e-04
3.100000e+08	8.343327e+12	0.000000e+00	4.206895e-01	2.041254e+14	7.298612e+14	2.581656e+14	1.005648e+04	3.820205e+03	2.256174e+03	0	8.115179e-04
3.200000e+08	8.119267e+12	0.000000e+00	4.206895e-01	1.993249e+14	7.156223e+14	2.568217e+14	1.001834e+04	3.811525e+03	2.251048e+03	0	8.041874e-04
3.300000e+08	7.904479e+12	0.000000e+00	4.206895e-01	1.947210e+14	7.020008e+14	2.554876e+14	9.981083e+03	3.803104e+03	2.246075e+03	0	7.970326e-04
3.400000e+08	7.698425e+12	0.000000e+00	4.206895e-01	1.903024e+14	6.889569e+14	2.541632e+14	9.944683e+03	3.794931e+03	2.241248e+03	0	7.900458e-04
3.500000e+08	7.500607e+12	0.000000e+00	4.206895e-01	1.860585e+14	6.764541e+14	2.528483e+14	9.909103e+03	3.786991e+03	2.236559e+03	0	7.832201e-04
3.600000e+08	7.310565e+12	0.000000e+00	4.206895e-01	1.819797e+14	6.644587e+14	2.515431e+14	9.874310e+03	3.779275e+03	2.232002e+03	0	7.765486e-04
3.700000e+08	7.127870e+12	0.000000e+00	4.206895e-01	1.780568e+14	6.529400e+14	2.502472e+14	9.840275e+03	3.771771e+03	2.227570e+03	0	7.700252e-04
3.800000e+08	6.952124e+12	0.000000e+00	4.206895e-01	1.742815e+14	6.418694e+14	2.489608e+14	9.806968e+03	3.764469e+03	2.223258e+03	0	7.636438e-04
3.900000e+08	6.782956e+12	0.000000e+00	4.206895e-01	1.706458e+14	6.312209e+14	2.476836e+14	9.774363e+03	3.757361e+03	2.219060e+03	0	7.573989e-04
4.000000e+08	6.620021e+12	0.000000e+00	4.206895e-01	1.671426e+14	6.209701e+14	2.464157e+14	9.742433e+03	3.750438e+03	2.214971e+03	0	7.512851e-04
4.100000e+08	6.462998e+12	0.000000e+00	4.206895e-01	1.637650e+14	6.110947e+14	2.451569e+14	9.711154e+03	3.743690e+03	2.210986e+03	0	7.452975e-04
4.200000e+08	6.311585e+12	0.000000e+00	4.206895e-01	1.605067e+14	6.015738e+14	2.439072e+14	9.680503e+03	3.737112e+03	2.207101e+03	0	7.394313e-04
4.300000e+08	6.165501e+12	0.000000e+00	4.206895e-01	1.573616e+14	5.923882e+14	2.426664e+14	9.650457e+03	3.730695e+03	2.203311e+03	0	7.336819e-04
4.400000e+08	6.024483e+12	0.000000e+00	4.206895e-01	1.543242e+14	5.835199e+14	2.414346e+14	9.620997e+03	3.724432e+03	2.199612e+03	0	7.280451e-04
4.500000e+08	5.888284e+12	0.000000e+00	4.206895e-01	1.513894e+14	5.749523e+14	2.402117e+14	9.592101e+03	3.718318e+03	2.196001e+03	0	7.225167e-04
4.600000e+08	5.756674e+12	0.000000e+00	4.206895e-01	1.485521e+14	5.666698e+14	2.389975e+14	9.563751e+03	3.712346e+03	2.192474e+03	0	7.170931e-04
4.700000e+08	5.629434e+12	0.000000e+00	4.206895e-01	1.458079e+14	5.586580e+14	2.377921e+14	9.535930e+03	3.706511e+03	2.189028e+03	0	7.117704e-04
4.800000e+08	5.506363e+12	0.000000e+00	4.206895e-01	1.431524e+14	5.509033e+14	2.365953e+14	9.508619e+03	3.700806e+03	2.185659e+03	0	7.065452e-04
4.900000e+08	5.387267e+12	0.000000e+00	4.206895e-01	1.405816e+14	5.433931e+14	2.354070e+14	9.481803e+03	3.695228e+03	2.182364e+03	0	7.014141e-04
5.000000e+08	5.271966e+12	0.000000e+00	4.206895e-01	1.380915e+14	5.361155e+14	2.342273e+14	9.455465e+03	3.689770e+03	2.179141e+03	0	6.963740e-04
5.100000e+08	5.160291e+12	0.000000e+00	4.206895e-01	1.356787e+14	5.290595e+14	2.330560e+14	9.429591e+03	3.684429e+03	2.175987e+03	0	6.914218e-04
5.200000e+08	5.052082e+12	0.000000e+00	4.206895e-01	1.333397e+14	5.222147e+14	2.318930e+14	9.404166e+03	3.679200e+03	2.172899e+03	0	6.865547e-04
5.300000e+08	4.947186e+12	0.000000e+00	4.206895e-01	1.310714e+14	5.155713e+14	2.307383e+14	9.379177e+03	3.674080e+03	2.169874e+03	0	6.817698e-04
5.400000e+08	4.845463e+12	0.000000e+00	4.206895e-01	1.288706e+14	5.091201e+14	2.295919e+14	9.354611e+03	3.669063e+03	2.166911e+03	0	6.770646e-04
5.500000e+08	4.746776e+12	0.000000e+00	4.206895e-01	1.267346e+14	5.028526e+14	2.284536e+14	9.330455e+03	3.664147e+03	2.164008e+03	0	6.724364e-04
5.600000e+08	4.650999e+12	0.000000e+00	4.206895e-01	1.246607e+14	4.967606e+14	2.273234e+14	9.306697e+03	3.659327e+03	2.161162e+03	0	6.678830e-04
5.700000e+08	4.558010e+12	0.000000e+00	4.206895e-01	1.226463e+14	4.908365e+14	2.262012e+14	9.283326e+03	3.654601e+03	2.158370e+03	0	6.634020e-04
5.800000e+08	4.467697e+12	0.000000e+00	4.206895e-01	1.206889e+14	4.850731e+14	2.250870e+14	9.260330e+03	3.649965e+03	2.155632e+03	0	6.589911e-04
5.900000e+08	4.379950e+12	0.000000e+00	4.206895e-01	1.187863e+14	4.794635e+14	2.239807e+14	9.237699e+03	3.645416e+03	2.152946e+03	0	6.546483e-04
6.000000e+08	4.294667e+12	0.000000e+00	4.206895e-01	1.169363e+14	4.740014e+14	2.228822e+14	9.215423e+03	3.640951e+03	2.150309e+03	0	6.503715e-04
6.100000e+08	4.211751e+12	0.000000e+00	4.206895e-01	1.151369e+14	4.686807e+14	2.217915e+14	9.193493e+03	3.636568e+03	2.147720e+03	0	6.461588e-04
6.200000e+08	4.131110e+12	0.000000e+00	4.206895e-01	1.133860e+14	4.634957e+14	2.207085e+14	9.171898e+03	3.632263e+03	2.145178e+03	0	6.420082e-04
6.300000e+08	4.052655e+12	0.000000e+00	4.206895e-01	1.116819e+14	4.584409e+14	2.196332e+14	9.150629e+03	3.628035e+03	2.142681e+03	0	6.379180e-04
6.400000e+08	3.976303e+12	0.000000e+00	4.206895e-01	1.100227e+14	4.535112e+14	2.185654e+14	9.129679e+03	3.623880e+03	2.140227e+03	0	6.338865e-04
6.500000e+08	3.901976e+12	0.000000e+00	4.206895e-01	1.084067e+14	4.487017e+14	2.175052e+14	9.109038e+03	3.619796e+03	2.137815e+03	0	6.299120e-04
6.600000e+08	3.829597e+12	0.000000e+00	4.206895e-01	1.068325e+14	4.440077e+14	2.164524e+14	9.088699e+03	3.615782e+03	2.135444e+03	0	6.259928e-04
6.700000e+08	3.759094e+12	0.000000e+00	4.206895e-01	1.052983e+14	4.394250e+14	2.154070e+14	9.068654e+03	3.611835e+03	2.133113e+03	0	6.221275e-04
6.800000e+08	3.690400e+12	0.000000e+00	4.206895e-01	1.038028e+14	4.349493e+14	2.143689e+14	9.048895e+03	3.607952e+03	2.130820e+03	0	6.183146e-04
6.900000e+08	3.623449e+12	0.000000e+00	4.206895e-01	1.023446e+14	4.305767e+14	2.133382e+14	9.029416e+03	3.604133e+03	2.128565e+03	0	6.145526e-04
7.000000e+08	3.558178e+12	0.000000e+00	4.206895e-01	1.009224e+14	4.263034e+14	2.123146e+14	9.010209e+03	3.600375e+03	2.126345e+03	0	6.108401e-04
7.100000e+08	3.494529e+12	0.000000e+00	4.206895e-01	9.953494e+13	4.221258e+14	2.112983e+14	8.991268e+03	3.596676e+03	2.124160e+03	0	6.071760e-04
7.200000e+08	3.432445e+12	0.000000e+00	4.206895e-01	9.818094e+13	4.180405e+14	2.102890e+14	8.972585e+03	3.593034e+03	2.122010e+03	0	6.035587e-04
7.300000e+08	3.371871e+12	0.000000e+00	4.206895e-01	9.685929e+13	4.140442e+14	2.092868e+14	8.954156e+03	3.589449e+03	2.119892e+03	0	5.999872e-04
7.400000e+08	3.312756e+12	0.000000e+00	4.206895e-01	9.556890e+13	4.101339e+14	2.082916e+14	8.935974e+03	3.585917e+03	2.117806e+03	0	5.964602e-04
7.500000e+08	3.255051e+12	0.000000e+00	4.206895e-01	9.430870e+13	4.063066e+14	2.073033e+14	8.918032e+03	3.582439e+03	2.115752e+03	0	5.929766e-04
7.600000e+08	3.198707e+12	0.000000e+00	4.206895e-01	9.307771e+13	4.025595e+14	2.063219e+14	8.900327e+03	3.579011e+03	2.113728e+03	0	5.895353e-04
7.700000e+08	3.143681e+12	0.000000e+00	4.206895e-01	9.187494e+13	3.988899e+14	2.053473e+14	8.882851e+03	3.575634e+03	2.111733e+03	0	5.861352e-04
7.800000e+08	3.089928e+12	0.000000e+00	4.206895e-01	9.069948e+13	3.952952e+14	2.043795e+14	8.865600e+03	3.572305e+03	2.109767e+03	0	5.827753e-04
7.900000e+08	3.037407e+12	0.000000e+00	4.206895e-01	8.955045e+13	3.917730e+14	2.034185e+14	8.848569e+03	3.569023e+03	2.107829e+03	0	5.794545e-04
8.000000e+08	2.986079e+12	0.000000e+00	4.206895e-01	8.842700e+13	3.883209e+14	2.024641e+14	8.831753e+03	3.565787e+03	2.105918e+03	0	5.761719e-04
8.100000e+08	2.935905e+12	0.000000e+00	4.206895e-01	8.732832e+13	3.849367e+14	2.015163e+14	8.815147e+03	3.562595e+03	2.104033e+03	0	5.729266e-04
8.200000e+08	2.886848e+12	0.000000e+00	4.206895e-01	8.625364e+13	3.816181e+14	2.005750e+14	8.798746e+03	3.559447e+03	2.102174e+03	0	5.697176e-04
8.300000e+08	2.838875e+12	0.000000e+00	4.206895e-01	8.520220e+13	3.783633e+14	1.996403e+14	8.782546e+03	3.556342e+03	2.100339e+03	0	5.665441e-04
8.400000e+08	2.791950e+12	0.000000e+00	4.206895e-01	8.417328e+13	3.751701e+14	1.987121e+14	8.766543e+03	3.553277e+03	2.098530e+03	0	5.634052e-04
8.500000e+08	2.746042e+12	0.000000e+00	4.206895e-01	8.316621e+13	3.720367e+14	1.977902e+14	8.750732e+03	3.550253e+03	2.096744e+03	0	5.603001e-04
8.600000e+08	2.701120e+12	0.000000e+00	4.206895e-01	8.218032e+13	3.689614e+14	1.968747e+14	8.735110e+03	3.547268e+03	2.094981e+03	0	5.572280e-04
8.700000e+08	2.657153e+12	0.000000e+00	4.206895e-01	8.121497e+13	3.659422e+14	1.959655e+14	8.719672e+03	3.544321e+03	2.093240e+03	0	5.541881e-04
8.800000e+08	2.614114e+12	0.000000e+00	4.206895e-01	8.026956e+13	3.629777e+14	1.950625e+14	8.704415e+03	3.541412e+03	2.091522e+03	0	5.511797e-04
8.900000e+08	2.571975e+12	0.000000e+00	4.206895e-01	7.934350e+13	3.600661e+14	1.941658e+14	8.689334e+03	3.538538e+03	2.089825e+03	0	5.482020e-04
9.000000e+08	2.530709e+12	0.000000e+00	4.206895e-01	7.843622e+13	3.572059e+14	1.932752e+14	8.674427e+03	3.535701e+03	2.088149e+03	0	5.452543e-04
9.100000e+08	2.490291e+12	0.000000e+00	4.206895e-01	7.754718e+13	3.543957e+14	1.923907e+14	8.659690e+03	3.532897e+03	2.086493e+03	0	5.423360e-04
9.200000e+08	2.450697e+12	0.000000e+00	4.206895e-01	7.667586e+13	3.516341e+14	1.915123e+14	8.645119e+03	3.530128e+03	2.084858e+03	0	5.394463e-04
9.300000e+08	2.411902e+12	0.000000e+00	4.206895e-01	7.582175e+13	3.489197e+14	1.906398e+14	8.630711e+03	3.527391e+03	2.083241e+03	0	5.365846e-04
9.400000e+08	2.373884e+12	0.000000e+00	4.206895e-01	7.498437e+13	3.462511e+14	1.897734e+14	8.616463e+03	3.524686e+03	2.081644e+03	0	5.337504e-04
9.500000e+08	2.336621e+12	0.000000e+00	4.206895e-01	7.416325e+13	3.436271e+14	1.889128e+14	8.602372e+03	3.522013e+03	2.080065e+03	0	5.309429e-04
9.600000e+08	2.300093e+12	0.000000e+00	4.206895e-01	7.335795e+13	3.410465e+14	1.880582e+14	8.588435e+03	3.519371e+03	2.078505e+03	0	5.281615e-04
9.700000e+08	2.264278e+12	0.000000e+00	4.206895e-01	7.256801e+13	3.385081e+14	1.872093e+14	8.574648e+03	3.516758e+03	2.076962e+03	0	5.254058e-04
9.800000e+08	2.229157e+12	0.000000e+00	4.206895e-01	7.179304e+13	3.360108e+14	1.863662e+14	8.561009e+03	3.514175e+03	2.075436e+03	0	5.226752e-04
9.900000e+08	2.194711e+12	0.000000e+00	4.206895e-01	7.103262e+13	3.335535e+14	1.855289e+14	8.547516e+03	3.511621e+03	2.073928e+03	0	5.199690e-04
1.000000e+09	2.160922e+12	0.000000e+00	4.206895e-01	7.028636e+13	3.311351e+14	1.846972e+14	8.534164e+03	3.509094e+03	2.072436e+03	0	5.172867e-04
1.010000e+09	2.127772e+12	0.000000e+00	4.206895e-01	6.955389e+13	3.287547e+14	1.838712e+14	8.520953e+03	3.506595e+03	2.070960e+03	0	5.146279e-04
1.020000e+09	2.095244e+12	0.000000e+00	4.206895e-01	6.883484e+13	3.264112e+14	1.830508e+14	8.507879e+03	3.504122e+03	2.069499e+03	0	5.119920e-04
1.030000e+09	2.063322e+12	0.000000e+00	4.206895e-01	6.812887e+13	3.241038e+14	1.822359e+14	8.494939e+03	3.501676e+03	2.068055e+03	0	5.093786e-04
1.040000e+09	2.031991e+12	0.000000e+00	4.206895e-01	6.743562e+13	3.218315e+14	1.814265e+14	8.482132e+03	3.499256e+03	2.066625e+03	0	5.067871e-04
1.050000e+09	2.001233e+12	0.000000e+00	4.206895e-01	6.675479e+13	3.195935e+14	1.806226e+14	8.469454e+03	3.496860e+03	2.065210e+03	0	5.042171e-04
1.060000e+09	1.971036e+12	0.000000e+00	4.206895e-01	6.608603e+13	3.173888e+14	1.798241e+14	8.456904e+03	3.494489e+03	2.063810e+03	0	5.016681e-04
1.070000e+09	1.941384e+12	0.000000e+00	4.206895e-01	6.542907e+13	3.152167e+14	1.790310e+14	8.444479e+03	3.492142e+03	2.062424e+03	0	4.991397e-04
1.080000e+09	1.912263e+12	0.000000e+00	4.206895e-01	6.478358e+13	3.130764e+14	1.782432e+14	8.432178e+03	3.489819e+03	2.061052e+03	0	4.966315e-04
1.090000e+09	1.883661e+12	0.000000e+00	4.206895e-01	6.414930e+13	3.109671e+14	1.774608e+14	8.419997e+03	3.487519e+03	2.059693e+03	0	4.941429e-04
1.100000e+09	1.855564e+12	0.000000e+00	4.206895e-01	6.352593e+13	3.088882e+14	1.766836e+14	8.407935e+03	3.485241e+03	2.058348e+03	0	4.916737e-04
1.110000e+09	1.827960e+12	0.000000e+00	4.206895e-01	6.291322e+13	3.068388e+14	1.759115e+14	8.395990e+03	3.482985e+03	2.057016e+03	0	4.892234e-04
1.120000e+09	1.800836e+12	0.000000e+00	4.206895e-01	6.231090e+13	3.048182e+14	1.751447e+14	8.384160e+03	3.480751e+03	2.055697e+03	0	4.867915e-04
1.130000e+09	1.774181e+12	0.000000e+00	4.206895e-01	6.171872e+13	3.028259e+14	1.743830e+14	8.372443e+03	3.478539e+03	2.054390e+03	0	4.843779e-04
1.140000e+09	1.747983e+12	0.000000e+00	4.206895e-01	6.113644e+13	3.008612e+14	1.736264e+14	8.360836e+03	3.476347e+03	2.053095e+03	0	4.819819e-04
1.150000e+09	1.722232e+12	0.000000e+00	4.206895e-01	6.056382e+13	2.989234e+14	1.728748e+14	8.349339e+03	3.474175e+03	2.051813e+03	0	4.796033e-04
1.160000e+09	1.696916e+12	0.000000e+00	4.206895e-01	6.000063e+13	2.970119e+14	1.721283e+14	8.337949e+03	3.472024e+03	2.050542e+03	0	4.772418e-04
1.170000e+09	1.672026e+12	0.000000e+00	4.206895e-01	5.944665e+13	2.951262e+14	1.713867e+14	8.326665e+03	3.469892e+03	2.049283e+03	0	4.748969e-04
1.180000e+09	1.647550e+12	0.000000e+00	4.206895e-01	5.890166e+13	2.932657e+14	1.706501e+14	8.315485e+03	3.467780e+03	2.048036e+03	0	4.725683e-04
1.190000e+09	1.623481e+12	0.000000e+00	4.206895e-01	5.836546e+13	2.914297e+14	1.699184e+14	8.304406e+03	3.465686e+03	2.046799e+03	0	4.702557e-04
1.200000e+09	1.599807e+12	0.000000e+00	4.206895e-01	5.783785e+13	2.896179e+14	1.691915e+14	8.293429e+03	3.463611e+03	2.045574e+03	0	4.679587e-04
1.210000e+09	1.576521e+12	0.000000e+00	4.206895e-01	5.731862e+13	2.878297e+14	1.684694e+14	8.282550e+03	3.461554e+03	2.044359e+03	0	4.656771e-04
1.220000e+09	1.553612e+12	0.000000e+00	4.206895e-01	5.680758e+13	2.860645e+14	1.677521e+14	8.271768e+03	3.459515e+03	2.043155e+03	0	4.634105e-04
1.230000e+09	1.531073e+12	0.000000e+00	4.206895e-01	5.630456e+13	2.843219e+14	1.670396e+14	8.261083e+03	3.457493e+03	2.041961e+03	0	4.611586e-04
1.240000e+09	1.508895e+12	0.000000e+00	4.206895e-01	5.580938e+13	2.826014e+14	1.663318e+14	8.250492e+03	3.455489e+03	2.040777e+03	0	4.589211e-04
1.250000e+09	1.487070e+12	0.000000e+00	4.206895e-01	5.532184e+13	2.809025e+14	1.656286e+14	8.239993e+03	3.453502e+03	2.039603e+03	0	4.566977e-04
1.260000e+09	1.465590e+12	0.000000e+00	4.206895e-01	5.484180e+13	2.792248e+14	1.649301e+14	8.229586e+03	3.451531e+03	2.038439e+03	0	4.544881e-04
1.270000e+09	1.444447e+12	0.000000e+00	4.206895e-01	5.436909e+13	2.775679e+14	1.642362e+14	8.219269e+03	3.449576e+03	2.037285e+03	0	4.522920e-04
1.280000e+09	1.423635e+12	0.000000e+00	4.206895e-01	5.390353e+13	2.759314e+14	1.635469e+14	8.209041e+03	3.447638e+03	2.036140e+03	0	4.501092e-04
1.290000e+09	1.403145e+12	0.000000e+00	4.206895e-01	5.344499e+13	2.743148e+14	1.628620e+14	8.198900e+03	3.445715e+03	2.035004e+03	0	4.479393e-04
1.300000e+09	1.382970e+12	0.000000e+00	4.206895e-01	5.299331e+13	2.727177e+14	1.621817e+14	8.188845e+03	3.443808e+03	2.033878e+03	0	4.457821e-04
1.310000e+09	1.363105e+12	0.000000e+00	4.206895e-01	5.254833e+13	2.711397e+14	1.615058e+14	8.178875e+03	3.441915e+03	2.032760e+03	0	4.436374e-04
1.320000e+09	1.343542e+12	0.000000e+00	4.206895e-01	5.210993e+13	2.695806e+14	1.608344e+14	8.168988e+03	3.440038e+03	2.031652e+03	0	4.415048e-04
1.330000e+09	1.324275e+12	0.000000e+00	4.206895e-01	5.167796e+13	2.680398e+14	1.601674e+14	8.159183e+03	3.438176e+03	2.030552e+03	0	4.393841e-04
1.340000e+09	1.305297e+12	0.000000e+00	4.206895e-01	5.125228e+13	2.665171e+14	1.595047e+14	8.149460e+03	3.436328e+03	2.029460e+03	0	4.372751e-04
1.350000e+09	1.286602e+12	0.000000e+00	4.206895e-01	5.083277e+13	2.650121e+14	1.588463e+14	8.139816e+03	3.434494e+03	2.028377e+03	0	4.351775e-04
1.360000e+09	1.268185e+12	0.000000e+00	4.206895e-01	5.041930e+13	2.635245e+14	1.581922e+14	8.130251e+03	3.432674e+03	2.027302e+03	0	4.330911e-04
