#t		Qconv[W]	Ri[Rp]		R*[Rp]		Qc[W]		Qm[W]		Qr[W]		Tcmb[K]		Tl[K]		Tup[K]		RiFlag		Bs[T]
0.000000e+00	6.156736e+13	0.000000e+00	4.236111e-01	1.106643e+15	2.417715e+15	4.113944e+14	1.530444e+04	4.992103e+03	2.749489e+03	0	1.554781e-03
1.000000e+07	5.834806e+13	0.000000e+00	4.236111e-01	1.052486e+15	2.322546e+15	4.091150e+14	1.516198e+04	4.970076e+03	2.737358e+03	0	1.527196e-03
2.000000e+07	5.538915e+13	0.000000e+00	4.236111e-01	1.002683e+15	2.234413e+15	4.068526e+14	1.502638e+04	4.948973e+03	2.725735e+03	0	1.500931e-03
3.000000e+07	5.266220e+13	0.000000e+00	4.236111e-01	9.567596e+14	2.152600e+15	4.046071e+14	1.489710e+04	4.928732e+03	2.714587e+03	0	1.475884e-03
4.000000e+07	5.014263e+13	0.000000e+00	4.236111e-01	9.143062e+14	2.076479e+15	4.023784e+14	1.477365e+04	4.909295e+03	2.703882e+03	0	1.451961e-03
5.000000e+07	4.780909e+13	0.000000e+00	4.236111e-01	8.749665e+14	2.005501e+15	4.001664e+14	1.465560e+04	4.890613e+03	2.693592e+03	0	1.429078e-03
6.000000e+07	4.564298e+13	0.000000e+00	4.236111e-01	8.384298e+14	1.939183e+15	3.979708e+14	1.454256e+04	4.872638e+03	2.683692e+03	0	1.407161e-03
7.000000e+07	4.362800e+13	0.000000e+00	4.236111e-01	8.044241e+14	1.877099e+15	3.957915e+14	1.443418e+04	4.855326e+03	2.674157e+03	0	1.386142e-03
8.000000e+07	4.174983e+13	0.000000e+00	4.236111e-01	7.727103e+14	1.818870e+15	3.936285e+14	1.433013e+04	4.838639e+03	2.664966e+03	0	1.365958e-03
9.000000e+07	3.999585e+13	0.000000e+00	4.236111e-01	7.430774e+14	1.764161e+15	3.914815e+14	1.423014e+04	4.822539e+03	2.656099e+03	0	1.346555e-03
1.000000e+08	3.835488e+13	0.000000e+00	4.236111e-01	7.153389e+14	1.712673e+15	3.893505e+14	1.413393e+04	4.806994e+03	2.647537e+03	0	1.327882e-03
1.100000e+08	3.681701e+13	0.000000e+00	4.236111e-01	6.893290e+14	1.664139e+15	3.872353e+14	1.404127e+04	4.791972e+03	2.639264e+03	0	1.309892e-03
1.200000e+08	3.537340e+13	0.000000e+00	4.236111e-01	6.649002e+14	1.618320e+15	3.851358e+14	1.395193e+04	4.777444e+03	2.631262e+03	0	1.292542e-03
1.300000e+08	3.401618e+13	0.000000e+00	4.236111e-01	6.419207e+14	1.575001e+15	3.830518e+14	1.386573e+04	4.763385e+03	2.623519e+03	0	1.275795e-03
1.400000e+08	3.273829e+13	0.000000e+00	4.236111e-01	6.202726e+14	1.533989e+15	3.809833e+14	1.378247e+04	4.749769e+03	2.616020e+03	0	1.259615e-03
1.500000e+08	3.153339e+13	0.000000e+00	4.236111e-01	5.998498e+14	1.495109e+15	3.789300e+14	1.370199e+04	4.736573e+03	2.608752e+03	0	1.243969e-03
1.600000e+08	3.039578e+13	0.000000e+00	4.236111e-01	5.805571e+14	1.458203e+15	3.768919e+14	1.362413e+04	4.723777e+03	2.601704e+03	0	1.228826e-03
1.700000e+08	2.932033e+13	0.000000e+00	4.236111e-01	5.623084e+14	1.423130e+15	3.748688e+14	1.354875e+04	4.711360e+03	2.594865e+03	0	1.214159e-03
1.800000e+08	2.830237e+13	0.000000e+00	4.236111e-01	5.450258e+14	1.389757e+15	3.728607e+14	1.347571e+04	4.699304e+03	2.588225e+03	0	1.199942e-03
1.900000e+08	2.733771e+13	0.000000e+00	4.236111e-01	5.286390e+14	1.357968e+15	3.708673e+14	1.340489e+04	4.687592e+03	2.581774e+03	0	1.186151e-03
2.000000e+08	2.642251e+13	0.000000e+00	4.236111e-01	5.130839e+14	1.327655e+15	3.688887e+14	1.333618e+04	4.676207e+03	2.575504e+03	0	1.172764e-03
2.100000e+08	2.555330e+13	0.000000e+00	4.236111e-01	4.983022e+14	1.298719e+15	3.669245e+14	1.326948e+04	4.665134e+03	2.569406e+03	0	1.159760e-03
2.200000e+08	2.472690e+13	0.000000e+00	4.236111e-01	4.842408e+14	1.271070e+15	3.649748e+14	1.320467e+04	4.654360e+03	2.563472e+03	0	1.147121e-03
2.300000e+08	2.394042e+13	0.000000e+00	4.236111e-01	4.708513e+14	1.244625e+15	3.630394e+14	1.314168e+04	4.643871e+03	2.557694e+03	0	1.134827e-03
2.400000e+08	2.319121e+13	0.000000e+00	4.236111e-01	4.580891e+14	1.219309e+15	3.611182e+14	1.308042e+04	4.633654e+03	2.552067e+03	0	1.122864e-03
2.500000e+08	2.247685e+13	0.000000e+00	4.236111e-01	4.459137e+14	1.195052e+15	3.592111e+14	1.302080e+04	4.623697e+03	2.546584e+03	0	1.111214e-03
2.600000e+08	2.179510e+13	0.000000e+00	4.236111e-01	4.342877e+14	1.171789e+15	3.573179e+14	1.296275e+04	4.613991e+03	2.541237e+03	0	1.099864e-03
2.700000e+08	2.114391e+13	0.000000e+00	4.236111e-01	4.231766e+14	1.149462e+15	3.554386e+14	1.290620e+04	4.604523e+03	2.536023e+03	0	1.088799e-03
2.800000e+08	2.052141e+13	0.000000e+00	4.236111e-01	4.125490e+14	1.128015e+15	3.535729e+14	1.285108e+04	4.595285e+03	2.530935e+03	0	1.078007e-03
2.900000e+08	1.992584e+13	0.000000e+00	4.236111e-01	4.023756e+14	1.107398e+15	3.517209e+14	1.279734e+04	4.586267e+03	2.525968e+03	0	1.067476e-03
3.000000e+08	1.935561e+13	0.000000e+00	4.236111e-01	3.926295e+14	1.087565e+15	3.498825e+14	1.274491e+04	4.577459e+03	2.521117e+03	0	1.057194e-03
3.100000e+08	1.880923e+13	0.000000e+00	4.236111e-01	3.832857e+14	1.068470e+15	3.480573e+14	1.269375e+04	4.568855e+03	2.516378e+03	0	1.047151e-03
3.200000e+08	1.828532e+13	0.000000e+00	4.236111e-01	3.743212e+14	1.050075e+15	3.462455e+14	1.264379e+04	4.560446e+03	2.511747e+03	0	1.037337e-03
3.300000e+08	1.778261e+13	0.000000e+00	4.236111e-01	3.657146e+14	1.032341e+15	3.444469e+14	1.259498e+04	4.552225e+03	2.507219e+03	0	1.027743e-03
3.400000e+08	1.729992e+13	0.000000e+00	4.236111e-01	3.574460e+14	1.015234e+15	3.426613e+14	1.254730e+04	4.544184e+03	2.502790e+03	0	1.018358e-03
3.500000e+08	1.683614e+13	0.000000e+00	4.236111e-01	3.494969e+14	9.987204e+14	3.408887e+14	1.250068e+04	4.536317e+03	2.498457e+03	0	1.009175e-03
3.600000e+08	1.639025e+13	0.000000e+00	4.236111e-01	3.418501e+14	9.827704e+14	3.391289e+14	1.245509e+04	4.528617e+03	2.494217e+03	0	1.000187e-03
3.700000e+08	1.596130e+13	0.000000e+00	4.236111e-01	3.344897e+14	9.673555e+14	3.373818e+14	1.241049e+04	4.521079e+03	2.490065e+03	0	9.913841e-04
3.800000e+08	1.554841e+13	0.000000e+00	4.236111e-01	3.274006e+14	9.524490e+14	3.356474e+14	1.236685e+04	4.513697e+03	2.485999e+03	0	9.827608e-04
3.900000e+08	1.515073e+13	0.000000e+00	4.236111e-01	3.205689e+14	9.380261e+14	3.339256e+14	1.232412e+04	4.506464e+03	2.482015e+03	0	9.743097e-04
4.000000e+08	1.476750e+13	0.000000e+00	4.236111e-01	3.139817e+14	9.240635e+14	3.322162e+14	1.228228e+04	4.499377e+03	2.478112e+03	0	9.660245e-04
4.100000e+08	1.439798e+13	0.000000e+00	4.236111e-01	3.076266e+14	9.105393e+14	3.305191e+14	1.224129e+04	4.492430e+03	2.474286e+03	0	9.578990e-04
4.200000e+08	1.404151e+13	0.000000e+00	4.236111e-01	3.014923e+14	8.974331e+14	3.288342e+14	1.220113e+04	4.485618e+03	2.470534e+03	0	9.499275e-04
4.300000e+08	1.369744e+13	0.000000e+00	4.236111e-01	2.955680e+14	8.847255e+14	3.271615e+14	1.216176e+04	4.478936e+03	2.466854e+03	0	9.421043e-04
4.400000e+08	1.336518e+13	0.000000e+00	4.236111e-01	2.898437e+14	8.723985e+14	3.255008e+14	1.212316e+04	4.472381e+03	2.463244e+03	0	9.344242e-04
4.500000e+08	1.304416e+13	0.000000e+00	4.236111e-01	2.843100e+14	8.604350e+14	3.238520e+14	1.208530e+04	4.465948e+03	2.459701e+03	0	9.268822e-04
4.600000e+08	1.273386e+13	0.000000e+00	4.236111e-01	2.789580e+14	8.488189e+14	3.222151e+14	1.204816e+04	4.459634e+03	2.456223e+03	0	9.194734e-04
4.700000e+08	1.243378e+13	0.000000e+00	4.236111e-01	2.737793e+14	8.375350e+14	3.205899e+14	1.201172e+04	4.453434e+03	2.452808e+03	0	9.121934e-04
4.800000e+08	1.214346e+13	0.000000e+00	4.236111e-01	2.687661e+14	8.265692e+14	3.189764e+14	1.197595e+04	4.447345e+03	2.449455e+03	0	9.050378e-04
4.900000e+08	1.186246e+13	0.000000e+00	4.236111e-01	2.639110e+14	8.159079e+14	3.173744e+14	1.194083e+04	4.441364e+03	2.446160e+03	0	8.980023e-04
5.000000e+08	1.159036e+13	0.000000e+00	4.236111e-01	2.592070e+14	8.055383e+14	3.157838e+14	1.190633e+04	4.435487e+03	2.442923e+03	0	8.910830e-04
5.100000e+08	1.132677e+13	0.000000e+00	4.236111e-01	2.546475e+14	7.954484e+14	3.142047e+14	1.187246e+04	4.429711e+03	2.439742e+03	0	8.842761e-04
5.200000e+08	1.107133e+13	0.000000e+00	4.236111e-01	2.502263e+14	7.856269e+14	3.126368e+14	1.183917e+04	4.424033e+03	2.436615e+03	0	8.775781e-04
5.300000e+08	1.082368e+13	0.000000e+00	4.236111e-01	2.459375e+14	7.760628e+14	3.110801e+14	1.180646e+04	4.418449e+03	2.433540e+03	0	8.709852e-04
5.400000e+08	1.058349e+13	0.000000e+00	4.236111e-01	2.417756e+14	7.667460e+14	3.095344e+14	1.177430e+04	4.412959e+03	2.430515e+03	0	8.644944e-04
5.500000e+08	1.035046e+13	0.000000e+00	4.236111e-01	2.377353e+14	7.576668e+14	3.079998e+14	1.174269e+04	4.407557e+03	2.427541e+03	0	8.581022e-04
5.600000e+08	1.012428e+13	0.000000e+00	4.236111e-01	2.338116e+14	7.488159e+14	3.064761e+14	1.171160e+04	4.402243e+03	2.424614e+03	0	8.518058e-04
5.700000e+08	9.904681e+12	0.000000e+00	4.236111e-01	2.299997e+14	7.401847e+14	3.049632e+14	1.168102e+04	4.397013e+03	2.421733e+03	0	8.456020e-04
5.800000e+08	9.691393e+12	0.000000e+00	4.236111e-01	2.262952e+14	7.317648e+14	3.034610e+14	1.165094e+04	4.391865e+03	2.418898e+03	0	8.394882e-04
5.900000e+08	9.484165e+12	0.000000e+00	4.236111e-01	2.226939e+14	7.235483e+14	3.019695e+14	1.162133e+04	4.386797e+03	2.416107e+03	0	8.334615e-04
6.000000e+08	9.282758e+12	0.000000e+00	4.236111e-01	2.191918e+14	7.155277e+14	3.004885e+14	1.159220e+04	4.381807e+03	2.413358e+03	0	8.275194e-04
6.100000e+08	9.086946e+12	0.000000e+00	4.236111e-01	2.157849e+14	7.076959e+14	2.990180e+14	1.156353e+04	4.376892e+03	2.410651e+03	0	8.216594e-04
6.200000e+08	8.896511e+12	0.000000e+00	4.236111e-01	2.124696e+14	7.000461e+14	2.975579e+14	1.153529e+04	4.372051e+03	2.407985e+03	0	8.158790e-04
6.300000e+08	8.711251e+12	0.000000e+00	4.236111e-01	2.092425e+14	6.925718e+14	2.961082e+14	1.150749e+04	4.367281e+03	2.405358e+03	0	8.101760e-04
6.400000e+08	8.530968e+12	0.000000e+00	4.236111e-01	2.061003e+14	6.852668e+14	2.946686e+14	1.148011e+04	4.362581e+03	2.402769e+03	0	8.045480e-04
6.500000e+08	8.355478e+12	0.000000e+00	4.236111e-01	2.030398e+14	6.781252e+14	2.932392e+14	1.145313e+04	4.357948e+03	2.400217e+03	0	7.989929e-04
6.600000e+08	8.184603e+12	0.000000e+00	4.236111e-01	2.000580e+14	6.711414e+14	2.918198e+14	1.142656e+04	4.353381e+03	2.397702e+03	0	7.935088e-04
6.700000e+08	8.018175e+12	0.000000e+00	4.236111e-01	1.971522e+14	6.643101e+14	2.904104e+14	1.140037e+04	4.348879e+03	2.395223e+03	0	7.880934e-04
6.800000e+08	7.856034e+12	0.000000e+00	4.236111e-01	1.943195e+14	6.576260e+14	2.890109e+14	1.137457e+04	4.344439e+03	2.392777e+03	0	7.827450e-04
6.900000e+08	7.698025e+12	0.000000e+00	4.236111e-01	1.915574e+14	6.510844e+14	2.876213e+14	1.134913e+04	4.340060e+03	2.390366e+03	0	7.774616e-04
7.000000e+08	7.544003e+12	0.000000e+00	4.236111e-01	1.888634e+14	6.446804e+14	2.862413e+14	1.132405e+04	4.335741e+03	2.387987e+03	0	7.722415e-04
7.100000e+08	7.393827e+12	0.000000e+00	4.236111e-01	1.862351e+14	6.384097e+14	2.848711e+14	1.129932e+04	4.331480e+03	2.385640e+03	0	7.670829e-04
7.200000e+08	7.247365e+12	0.000000e+00	4.236111e-01	1.836702e+14	6.322680e+14	2.835104e+14	1.127494e+04	4.327275e+03	2.383324e+03	0	7.619841e-04
7.300000e+08	7.104488e+12	0.000000e+00	4.236111e-01	1.811667e+14	6.262510e+14	2.821592e+14	1.125089e+04	4.323126e+03	2.381039e+03	0	7.569435e-04
7.400000e+08	6.965075e+12	0.000000e+00	4.236111e-01	1.787225e+14	6.203550e+14	2.808175e+14	1.122716e+04	4.319030e+03	2.378783e+03	0	7.519595e-04
7.500000e+08	6.829009e+12	0.000000e+00	4.236111e-01	1.763355e+14	6.145761e+14	2.794851e+14	1.120375e+04	4.314987e+03	2.376556e+03	0	7.470306e-04
7.600000e+08	6.696179e+12	0.000000e+00	4.236111e-01	1.740039e+14	6.089107e+14	2.781620e+14	1.118066e+04	4.310996e+03	2.374358e+03	0	7.421554e-04
7.700000e+08	6.566476e+12	0.000000e+00	4.236111e-01	1.717258e+14	6.033554e+14	2.768481e+14	1.115787e+04	4.307054e+03	2.372187e+03	0	7.373324e-04
7.800000e+08	6.439800e+12	0.000000e+00	4.236111e-01	1.694996e+14	5.979068e+14	2.755433e+14	1.113537e+04	4.303162e+03	2.370043e+03	0	7.325602e-04
7.900000e+08	6.316052e+12	0.000000e+00	4.236111e-01	1.673235e+14	5.925617e+14	2.742476e+14	1.111317e+04	4.299317e+03	2.367925e+03	0	7.278375e-04
8.000000e+08	6.195137e+12	0.000000e+00	4.236111e-01	1.651960e+14	5.873171e+14	2.729609e+14	1.109125e+04	4.295519e+03	2.365833e+03	0	7.231629e-04
8.100000e+08	6.076966e+12	0.000000e+00	4.236111e-01	1.631155e+14	5.821699e+14	2.716831e+14	1.106961e+04	4.291766e+03	2.363767e+03	0	7.185353e-04
8.200000e+08	5.961452e+12	0.000000e+00	4.236111e-01	1.610806e+14	5.771175e+14	2.704141e+14	1.104824e+04	4.288059e+03	2.361725e+03	0	7.139534e-04
8.300000e+08	5.848512e+12	0.000000e+00	4.236111e-01	1.590898e+14	5.721570e+14	2.691539e+14	1.102713e+04	4.284395e+03	2.359707e+03	0	7.094160e-04
8.400000e+08	5.738066e+12	0.000000e+00	4.236111e-01	1.571419e+14	5.672859e+14	2.679024e+14	1.100629e+04	4.280773e+03	2.357712e+03	0	7.049220e-04
8.500000e+08	5.630038e+12	0.000000e+00	4.236111e-01	1.552354e+14	5.625016e+14	2.666596e+14	1.098569e+04	4.277193e+03	2.355740e+03	0	7.004702e-04
8.600000e+08	5.524354e+12	0.000000e+00	4.236111e-01	1.533692e+14	5.578017e+14	2.654253e+14	1.096535e+04	4.273654e+03	2.353791e+03	0	6.960595e-04
8.700000e+08	5.420944e+12	0.000000e+00	4.236111e-01	1.515421e+14	5.531839e+14	2.641995e+14	1.094525e+04	4.270155e+03	2.351864e+03	0	6.916889e-04
8.800000e+08	5.319739e+12	0.000000e+00	4.236111e-01	1.497528e+14	5.486459e+14	2.629822e+14	1.092539e+04	4.266695e+03	2.349958e+03	0	6.873574e-04
8.900000e+08	5.220673e+12	0.000000e+00	4.236111e-01	1.480004e+14	5.441856e+14	2.617732e+14	1.090576e+04	4.263274e+03	2.348074e+03	0	6.830639e-04
9.000000e+08	5.123685e+12	0.000000e+00	4.236111e-01	1.462836e+14	5.398008e+14	2.605725e+14	1.088637e+04	4.259889e+03	2.346210e+03	0	6.788075e-04
9.100000e+08	5.028713e+12	0.000000e+00	4.236111e-01	1.446015e+14	5.354896e+14	2.593800e+14	1.086719e+04	4.256542e+03	2.344366e+03	0	6.745873e-04
9.200000e+08	4.935700e+12	0.000000e+00	4.236111e-01	1.429531e+14	5.312501e+14	2.581957e+14	1.084824e+04	4.253230e+03	2.342542e+03	0	6.704022e-04
9.300000e+08	4.844589e+12	0.000000e+00	4.236111e-01	1.413375e+14	5.270802e+14	2.570195e+14	1.082950e+04	4.249954e+03	2.340738e+03	0	6.662514e-04
9.400000e+08	4.755326e+12	0.000000e+00	4.236111e-01	1.397537e+14	5.229784e+14	2.558514e+14	1.081097e+04	4.246711e+03	2.338952e+03	0	6.621341e-04
9.500000e+08	4.667858e+12	0.000000e+00	4.236111e-01	1.382008e+14	5.189427e+14	2.546912e+14	1.079265e+04	4.243503e+03	2.337185e+03	0	6.580493e-04
9.600000e+08	4.582137e+12	0.000000e+00	4.236111e-01	1.366779e+14	5.149716e+14	2.535389e+14	1.077453e+04	4.240328e+03	2.335436e+03	0	6.539962e-04
9.700000e+08	4.498112e+12	0.000000e+00	4.236111e-01	1.351844e+14	5.110633e+14	2.523945e+14	1.075661e+04	4.237185e+03	2.333705e+03	0	6.499739e-04
9.800000e+08	4.415738e+12	0.000000e+00	4.236111e-01	1.337192e+14	5.072164e+14	2.512579e+14	1.073888e+04	4.234074e+03	2.331991e+03	0	6.459818e-04
9.900000e+08	4.334970e+12	0.000000e+00	4.236111e-01	1.322818e+14	5.034293e+14	2.501289e+14	1.072135e+04	4.230994e+03	2.330295e+03	0	6.420190e-04
1.000000e+09	4.255763e+12	0.000000e+00	4.236111e-01	1.308713e+14	4.997005e+14	2.490077e+14	1.070400e+04	4.227944e+03	2.328615e+03	0	6.380847e-04
1.010000e+09	4.178077e+12	0.000000e+00	4.236111e-01	1.294871e+14	4.960287e+14	2.478941e+14	1.068684e+04	4.224924e+03	2.326952e+03	0	6.341782e-04
1.020000e+09	4.101870e+12	0.000000e+00	4.236111e-01	1.281283e+14	4.924124e+14	2.467880e+14	1.066986e+04	4.221934e+03	2.325305e+03	0	6.302988e-04
1.030000e+09	4.027103e+12	0.000000e+00	4.236111e-01	1.267945e+14	4.888503e+14	2.456893e+14	1.065306e+04	4.218973e+03	2.323674e+03	0	6.264457e-04
1.040000e+09	3.953739e+12	0.000000e+00	4.236111e-01	1.254849e+14	4.853412e+14	2.445982e+14	1.063643e+04	4.216040e+03	2.322059e+03	0	6.226182e-04
1.050000e+09	3.881740e+12	0.000000e+00	4.236111e-01	1.241989e+14	4.818838e+14	2.435143e+14	1.061997e+04	4.213134e+03	2.320459e+03	0	6.188157e-04
1.060000e+09	3.811072e+12	0.000000e+00	4.236111e-01	1.229358e+14	4.784769e+14	2.424378e+14	1.060368e+04	4.210256e+03	2.318873e+03	0	6.150375e-04
1.070000e+09	3.741701e+12	0.000000e+00	4.236111e-01	1.216952e+14	4.751193e+14	2.413686e+14	1.058756e+04	4.207405e+03	2.317303e+03	0	6.112828e-04
1.080000e+09	3.673593e+12	0.000000e+00	4.236111e-01	1.204765e+14	4.718099e+14	2.403065e+14	1.057159e+04	4.204579e+03	2.315747e+03	0	6.075512e-04
1.090000e+09	3.606716e+12	0.000000e+00	4.236111e-01	1.192790e+14	4.685477e+14	2.392516e+14	1.055579e+04	4.201780e+03	2.314205e+03	0	6.038418e-04
1.100000e+09	3.541039e+12	0.000000e+00	4.236111e-01	1.181023e+14	4.653315e+14	2.382037e+14	1.054014e+04	4.199005e+03	2.312677e+03	0	6.001541e-04
1.110000e+09	3.476534e+12	0.000000e+00	4.236111e-01	1.169459e+14	4.621603e+14	2.371629e+14	1.052465e+04	4.196256e+03	2.311163e+03	0	5.964875e-04
1.120000e+09	3.413169e+12	0.000000e+00	4.236111e-01	1.158093e+14	4.590331e+14	2.361291e+14	1.050931e+04	4.193531e+03	2.309662e+03	0	5.928413e-04
1.130000e+09	3.350918e+12	0.000000e+00	4.236111e-01	1.146920e+14	4.559490e+14	2.351022e+14	1.049412e+04	4.190830e+03	2.308174e+03	0	5.892150e-04
1.140000e+09	3.289753e+12	0.000000e+00	4.236111e-01	1.135934e+14	4.529070e+14	2.340821e+14	1.047907e+04	4.188152e+03	2.306699e+03	0	5.856080e-04
1.150000e+09	3.229649e+12	0.000000e+00	4.236111e-01	1.125133e+14	4.499062e+14	2.330689e+14	1.046417e+04	4.185498e+03	2.305238e+03	0	5.820196e-04
1.160000e+09	3.170578e+12	0.000000e+00	4.236111e-01	1.114511e+14	4.469458e+14	2.320624e+14	1.044940e+04	4.182866e+03	2.303788e+03	0	5.784494e-04
1.170000e+09	3.112518e+12	0.000000e+00	4.236111e-01	1.104064e+14	4.440248e+14	2.310626e+14	1.043478e+04	4.180257e+03	2.302351e+03	0	5.748967e-04
1.180000e+09	3.055443e+12	0.000000e+00	4.236111e-01	1.093788e+14	4.411425e+14	2.300695e+14	1.042029e+04	4.177670e+03	2.300926e+03	0	5.713610e-04
1.190000e+09	2.999330e+12	0.000000e+00	4.236111e-01	1.083680e+14	4.382980e+14	2.290829e+14	1.040594e+04	4.175104e+03	2.299513e+03	0	5.678417e-04
1.200000e+09	2.944158e+12	0.000000e+00	4.236111e-01	1.073734e+14	4.354905e+14	2.281030e+14	1.039172e+04	4.172559e+03	2.298111e+03	0	5.643383e-04
1.210000e+09	2.889903e+12	0.000000e+00	4.236111e-01	1.063948e+14	4.327193e+14	2.271295e+14	1.037763e+04	4.170036e+03	2.296721e+03	0	5.608503e-04
1.220000e+09	2.836546e+12	0.000000e+00	4.236111e-01	1.054318e+14	4.299837e+14	2.261624e+14	1.036367e+04	4.167532e+03	2.295343e+03	0	5.573771e-04
1.230000e+09	2.784065e+12	0.000000e+00	4.236111e-01	1.044840e+14	4.272829e+14	2.252018e+14	1.034983e+04	4.165049e+03	2.293975e+03	0	5.539182e-04
1.240000e+09	2.732440e+12	0.000000e+00	4.236111e-01	1.035511e+14	4.246162e+14	2.242475e+14	1.033612e+04	4.162586e+03	2.292619e+03	0	5.504731e-04
1.250000e+09	2.681652e+12	0.000000e+00	4.236111e-01	1.026328e+14	4.219829e+14	2.232995e+14	1.032253e+04	4.160143e+03	2.291273e+03	0	5.470412e-04
1.260000e+09	2.631682e+12	0.000000e+00	4.236111e-01	1.017287e+14	4.193824e+14	2.223578e+14	1.030906e+04	4.157718e+03	2.289937e+03	0	5.436220e-04
1.270000e+09	2.582512e+12	0.000000e+00	4.236111e-01	1.008386e+14	4.168141e+14	2.214223e+14	1.029571e+04	4.155313e+03	2.288613e+03	0	5.402150e-04
1.280000e+09	2.534125e+12	0.000000e+00	4.236111e-01	9.996201e+13	4.142772e+14	2.204929e+14	1.028248e+04	4.152926e+03	2.287298e+03	0	5.368198e-04
1.290000e+09	2.486501e+12	0.000000e+00	4.236111e-01	9.909878e+13	4.117713e+14	2.195696e+14	1.026936e+04	4.150558e+03	2.285994e+03	0	5.334357e-04
1.300000e+09	2.439626e+12	0.000000e+00	4.236111e-01	9.824859e+13	4.092956e+14	2.186524e+14	1.025635e+04	4.148207e+03	2.284699e+03	0	5.300624e-04
1.310000e+09	2.393483e+12	0.000000e+00	4.236111e-01	9.741115e+13	4.068497e+14	2.177412e+14	1.024345e+04	4.145875e+03	2.283414e+03	0	5.266992e-04
1.320000e+09	2.348056e+12	0.000000e+00	4.236111e-01	9.658619e+13	4.044329e+14	2.168360e+14	1.023067e+04	4.143560e+03	2.282139e+03	0	5.233457e-04
1.330000e+09	2.303329e+12	0.000000e+00	4.236111e-01	9.577346e+13	4.020448e+14	2.159367e+14	1.021799e+04	4.141262e+03	2.280874e+03	0	5.200014e-04
1.340000e+09	2.259288e+12	0.000000e+00	4.236111e-01	9.497268e+13	3.996847e+14	2.150433e+14	1.020542e+04	4.138981e+03	2.279617e+03	0	5.166658e-04
1.350000e+09	2.215917e+12	0.000000e+00	4.236111e-01	9.418361e+13	3.973521e+14	2.141557e+14	1.019295e+04	4.136716e+03	2.278370e+03	0	5.133383e-04
1.360000e+09	2.173204e+12	0.000000e+00	4.236111e-01	9.340601e+13	3.950466e+14	2.132739e+14	1.018059e+04	4.134469e+03	2.277132e+03	0	5.100186e-04
