#t		Qconv[W]	Ri[Rp]		R*[Rp]		Qc[W]		Qm[W]		Qr[W]		Tcmb[K]		Tl[K]		Tup[K]		RiFlag		Bs[T]
0.000000e+00	7.542007e+13	0.000000e+00	4.236111e-01	1.290259e+15	2.459493e+15	4.454695e+14	1.627202e+04	5.166369e+03	2.786779e+03	0	1.658231e-03
1.000000e+07	7.154811e+13	0.000000e+00	4.236111e-01	1.228596e+15	2.380077e+15	4.430012e+14	1.612086e+04	5.149803e+03	2.777843e+03	0	1.629354e-03
2.000000e+07	6.797899e+13	0.000000e+00	4.236111e-01	1.171724e+15	2.305055e+15	4.405515e+14	1.597680e+04	5.133572e+03	2.769087e+03	0	1.601798e-03
3.000000e+07	6.468098e+13	0.000000e+00	4.236111e-01	1.119143e+15	2.234142e+15	4.381200e+14	1.583931e+04	5.117686e+03	2.760518e+03	0	1.575463e-03
4.000000e+07	6.162645e+13	0.000000e+00	4.236111e-01	1.070416e+15	2.167067e+15	4.357067e+14	1.570790e+04	5.102152e+03	2.752139e+03	0	1.550262e-03
5.000000e+07	5.879125e+13	0.000000e+00	4.236111e-01	1.025163e+15	2.103575e+15	4.333114e+14	1.558213e+04	5.086971e+03	2.743951e+03	0	1.526114e-03
6.000000e+07	5.615419e+13	0.000000e+00	4.236111e-01	9.830489e+14	2.043427e+15	4.309339e+14	1.546160e+04	5.072143e+03	2.735952e+03	0	1.502946e-03
7.000000e+07	5.369661e+13	0.000000e+00	4.236111e-01	9.437786e+14	1.986399e+15	4.285742e+14	1.534596e+04	5.057664e+03	2.728142e+03	0	1.480693e-03
8.000000e+07	5.140203e+13	0.000000e+00	4.236111e-01	9.070922e+14	1.932283e+15	4.262320e+14	1.523487e+04	5.043530e+03	2.720518e+03	0	1.459294e-03
9.000000e+07	4.925585e+13	0.000000e+00	4.236111e-01	8.727590e+14	1.880886e+15	4.239072e+14	1.512805e+04	5.029733e+03	2.713076e+03	0	1.438695e-03
1.000000e+08	4.724510e+13	0.000000e+00	4.236111e-01	8.405738e+14	1.832028e+15	4.215997e+14	1.502522e+04	5.016268e+03	2.705813e+03	0	1.418845e-03
1.100000e+08	4.535821e+13	0.000000e+00	4.236111e-01	8.103539e+14	1.785545e+15	4.193093e+14	1.492614e+04	5.003126e+03	2.698724e+03	0	1.399699e-03
1.200000e+08	4.358484e+13	0.000000e+00	4.236111e-01	7.819358e+14	1.741282e+15	4.170359e+14	1.483058e+04	4.990299e+03	2.691805e+03	0	1.381215e-03
1.300000e+08	4.191573e+13	0.000000e+00	4.236111e-01	7.551730e+14	1.699096e+15	4.147793e+14	1.473832e+04	4.977777e+03	2.685051e+03	0	1.363353e-03
1.400000e+08	4.034256e+13	0.000000e+00	4.236111e-01	7.299340e+14	1.658857e+15	4.125394e+14	1.464919e+04	4.965554e+03	2.678457e+03	0	1.346079e-03
1.500000e+08	3.885784e+13	0.000000e+00	4.236111e-01	7.061002e+14	1.620442e+15	4.103161e+14	1.456301e+04	4.953619e+03	2.672019e+03	0	1.329359e-03
1.600000e+08	3.745481e+13	0.000000e+00	4.236111e-01	6.835646e+14	1.583738e+15	4.081092e+14	1.447961e+04	4.941963e+03	2.665732e+03	0	1.313163e-03
1.700000e+08	3.612735e+13	0.000000e+00	4.236111e-01	6.622303e+14	1.548641e+15	4.059185e+14	1.439884e+04	4.930579e+03	2.659592e+03	0	1.297462e-03
1.800000e+08	3.486991e+13	0.000000e+00	4.236111e-01	6.420098e+14	1.515054e+15	4.037441e+14	1.432057e+04	4.919458e+03	2.653593e+03	0	1.282231e-03
1.900000e+08	3.367748e+13	0.000000e+00	4.236111e-01	6.228231e+14	1.482887e+15	4.015856e+14	1.424466e+04	4.908591e+03	2.647731e+03	0	1.267445e-03
2.000000e+08	3.254545e+13	0.000000e+00	4.236111e-01	6.045978e+14	1.452056e+15	3.994430e+14	1.417100e+04	4.897970e+03	2.642002e+03	0	1.253082e-03
2.100000e+08	3.146966e+13	0.000000e+00	4.236111e-01	5.872677e+14	1.422485e+15	3.973162e+14	1.409948e+04	4.887587e+03	2.636401e+03	0	1.239120e-03
2.200000e+08	3.044629e+13	0.000000e+00	4.236111e-01	5.707724e+14	1.394102e+15	3.952050e+14	1.402998e+04	4.877434e+03	2.630925e+03	0	1.225540e-03
2.300000e+08	2.947186e+13	0.000000e+00	4.236111e-01	5.550564e+14	1.366838e+15	3.931093e+14	1.396242e+04	4.867505e+03	2.625569e+03	0	1.212324e-03
2.400000e+08	2.854315e+13	0.000000e+00	4.236111e-01	5.400691e+14	1.340633e+15	3.910290e+14	1.389670e+04	4.857791e+03	2.620329e+03	0	1.199453e-03
2.500000e+08	2.765724e+13	0.000000e+00	4.236111e-01	5.257640e+14	1.315428e+15	3.889639e+14	1.383274e+04	4.848285e+03	2.615202e+03	0	1.186913e-03
2.600000e+08	2.681143e+13	0.000000e+00	4.236111e-01	5.120983e+14	1.291169e+15	3.869139e+14	1.377045e+04	4.838982e+03	2.610183e+03	0	1.174689e-03
2.700000e+08	2.600323e+13	0.000000e+00	4.236111e-01	4.990324e+14	1.267806e+15	3.848789e+14	1.370978e+04	4.829873e+03	2.605270e+03	0	1.162765e-03
2.800000e+08	2.523036e+13	0.000000e+00	4.236111e-01	4.865301e+14	1.245291e+15	3.828587e+14	1.365064e+04	4.820954e+03	2.600459e+03	0	1.151129e-03
2.900000e+08	2.449068e+13	0.000000e+00	4.236111e-01	4.745577e+14	1.223581e+15	3.808533e+14	1.359296e+04	4.812218e+03	2.595747e+03	0	1.139768e-03
3.000000e+08	2.378226e+13	0.000000e+00	4.236111e-01	4.630843e+14	1.202635e+15	3.788626e+14	1.353670e+04	4.803659e+03	2.591130e+03	0	1.128670e-03
3.100000e+08	2.310327e+13	0.000000e+00	4.236111e-01	4.520810e+14	1.182413e+15	3.768863e+14	1.348178e+04	4.795271e+03	2.586605e+03	0	1.117825e-03
3.200000e+08	2.245204e+13	0.000000e+00	4.236111e-01	4.415211e+14	1.162880e+15	3.749244e+14	1.342816e+04	4.787050e+03	2.582171e+03	0	1.107222e-03
3.300000e+08	2.182701e+13	0.000000e+00	4.236111e-01	4.313800e+14	1.144002e+15	3.729768e+14	1.337578e+04	4.778989e+03	2.577823e+03	0	1.096851e-03
3.400000e+08	2.122674e+13	0.000000e+00	4.236111e-01	4.216346e+14	1.125747e+15	3.710433e+14	1.332459e+04	4.771084e+03	2.573559e+03	0	1.086702e-03
3.500000e+08	2.064986e+13	0.000000e+00	4.236111e-01	4.122635e+14	1.108086e+15	3.691238e+14	1.327456e+04	4.763330e+03	2.569376e+03	0	1.076767e-03
3.600000e+08	2.009514e+13	0.000000e+00	4.236111e-01	4.032468e+14	1.090990e+15	3.672183e+14	1.322562e+04	4.755722e+03	2.565272e+03	0	1.067038e-03
3.700000e+08	1.956140e+13	0.000000e+00	4.236111e-01	3.945658e+14	1.074433e+15	3.653265e+14	1.317775e+04	4.748257e+03	2.561245e+03	0	1.057506e-03
3.800000e+08	1.904755e+13	0.000000e+00	4.236111e-01	3.862032e+14	1.058391e+15	3.634485e+14	1.313090e+04	4.740928e+03	2.557293e+03	0	1.048164e-03
3.900000e+08	1.855256e+13	0.000000e+00	4.236111e-01	3.781428e+14	1.042840e+15	3.615840e+14	1.308504e+04	4.733734e+03	2.553412e+03	0	1.039004e-03
4.000000e+08	1.807550e+13	0.000000e+00	4.236111e-01	3.703693e+14	1.027758e+15	3.597330e+14	1.304013e+04	4.726669e+03	2.549601e+03	0	1.030021e-03
4.100000e+08	1.761545e+13	0.000000e+00	4.236111e-01	3.628687e+14	1.013124e+15	3.578953e+14	1.299613e+04	4.719729e+03	2.545858e+03	0	1.021207e-03
4.200000e+08	1.717159e+13	0.000000e+00	4.236111e-01	3.556275e+14	9.989189e+14	3.560709e+14	1.295302e+04	4.712912e+03	2.542180e+03	0	1.012557e-03
4.300000e+08	1.674313e+13	0.000000e+00	4.236111e-01	3.486333e+14	9.851242e+14	3.542596e+14	1.291076e+04	4.706213e+03	2.538567e+03	0	1.004065e-03
4.400000e+08	1.632934e+13	0.000000e+00	4.236111e-01	3.418743e+14	9.717223e+14	3.524614e+14	1.286933e+04	4.699628e+03	2.535015e+03	0	9.957239e-04
4.500000e+08	1.592951e+13	0.000000e+00	4.236111e-01	3.353395e+14	9.586968e+14	3.506761e+14	1.282870e+04	4.693156e+03	2.531524e+03	0	9.875299e-04
4.600000e+08	1.554302e+13	0.000000e+00	4.236111e-01	3.290185e+14	9.460320e+14	3.489036e+14	1.278884e+04	4.686792e+03	2.528091e+03	0	9.794776e-04
4.700000e+08	1.516922e+13	0.000000e+00	4.236111e-01	3.229017e+14	9.337131e+14	3.471438e+14	1.274972e+04	4.680534e+03	2.524715e+03	0	9.715621e-04
4.800000e+08	1.480757e+13	0.000000e+00	4.236111e-01	3.169797e+14	9.217262e+14	3.453966e+14	1.271133e+04	4.674378e+03	2.521395e+03	0	9.637787e-04
4.900000e+08	1.445750e+13	0.000000e+00	4.236111e-01	3.112439e+14	9.100578e+14	3.436619e+14	1.267364e+04	4.668322e+03	2.518128e+03	0	9.561231e-04
5.000000e+08	1.411851e+13	0.000000e+00	4.236111e-01	3.056863e+14	8.986955e+14	3.419396e+14	1.263662e+04	4.662362e+03	2.514913e+03	0	9.485911e-04
5.100000e+08	1.379011e+13	0.000000e+00	4.236111e-01	3.002989e+14	8.876273e+14	3.402297e+14	1.260027e+04	4.656497e+03	2.511750e+03	0	9.411786e-04
5.200000e+08	1.347185e+13	0.000000e+00	4.236111e-01	2.950746e+14	8.768418e+14	3.385319e+14	1.256455e+04	4.650724e+03	2.508636e+03	0	9.338817e-04
5.300000e+08	1.316329e+13	0.000000e+00	4.236111e-01	2.900064e+14	8.663281e+14	3.368462e+14	1.252944e+04	4.645040e+03	2.505570e+03	0	9.266967e-04
5.400000e+08	1.286403e+13	0.000000e+00	4.236111e-01	2.850878e+14	8.560762e+14	3.351726e+14	1.249494e+04	4.639443e+03	2.502551e+03	0	9.196201e-04
5.500000e+08	1.257368e+13	0.000000e+00	4.236111e-01	2.803127e+14	8.460761e+14	3.335108e+14	1.246102e+04	4.633931e+03	2.499577e+03	0	9.126485e-04
5.600000e+08	1.229187e+13	0.000000e+00	4.236111e-01	2.756751e+14	8.363187e+14	3.318609e+14	1.242766e+04	4.628501e+03	2.496648e+03	0	9.057785e-04
5.700000e+08	1.201825e+13	0.000000e+00	4.236111e-01	2.711696e+14	8.267950e+14	3.302227e+14	1.239485e+04	4.623152e+03	2.493763e+03	0	8.990072e-04
5.800000e+08	1.175250e+13	0.000000e+00	4.236111e-01	2.667908e+14	8.174966e+14	3.285961e+14	1.236258e+04	4.617880e+03	2.490919e+03	0	8.923313e-04
5.900000e+08	1.149430e+13	0.000000e+00	4.236111e-01	2.625339e+14	8.084155e+14	3.269811e+14	1.233082e+04	4.612685e+03	2.488117e+03	0	8.857481e-04
6.000000e+08	1.124335e+13	0.000000e+00	4.236111e-01	2.583939e+14	7.995441e+14	3.253774e+14	1.229957e+04	4.607564e+03	2.485355e+03	0	8.792547e-04
6.100000e+08	1.099938e+13	0.000000e+00	4.236111e-01	2.543665e+14	7.908750e+14	3.237852e+14	1.226880e+04	4.602516e+03	2.482632e+03	0	8.728485e-04
6.200000e+08	1.076212e+13	0.000000e+00	4.236111e-01	2.504473e+14	7.824012e+14	3.222041e+14	1.223852e+04	4.597538e+03	2.479947e+03	0	8.665269e-04
6.300000e+08	1.053131e+13	0.000000e+00	4.236111e-01	2.466322e+14	7.741161e+14	3.206342e+14	1.220870e+04	4.592629e+03	2.477299e+03	0	8.602873e-04
6.400000e+08	1.030670e+13	0.000000e+00	4.236111e-01	2.429175e+14	7.660133e+14	3.190754e+14	1.217933e+04	4.587788e+03	2.474687e+03	0	8.541274e-04
6.500000e+08	1.008807e+13	0.000000e+00	4.236111e-01	2.392993e+14	7.580867e+14	3.175276e+14	1.215040e+04	4.583012e+03	2.472111e+03	0	8.480449e-04
6.600000e+08	9.875203e+12	0.000000e+00	4.236111e-01	2.357741e+14	7.503305e+14	3.159907e+14	1.212190e+04	4.578300e+03	2.469569e+03	0	8.420375e-04
6.700000e+08	9.667879e+12	0.000000e+00	4.236111e-01	2.323386e+14	7.427391e+14	3.144646e+14	1.209382e+04	4.573650e+03	2.467061e+03	0	8.361031e-04
6.800000e+08	9.465903e+12	0.000000e+00	4.236111e-01	2.289897e+14	7.353071e+14	3.129492e+14	1.206614e+04	4.569061e+03	2.464586e+03	0	8.302396e-04
6.900000e+08	9.269082e+12	0.000000e+00	4.236111e-01	2.257241e+14	7.280296e+14	3.114444e+14	1.203886e+04	4.564533e+03	2.462143e+03	0	8.244449e-04
7.000000e+08	9.077236e+12	0.000000e+00	4.236111e-01	2.225391e+14	7.209015e+14	3.099502e+14	1.201197e+04	4.560062e+03	2.459732e+03	0	8.187173e-04
7.100000e+08	8.890189e+12	0.000000e+00	4.236111e-01	2.194317e+14	7.139182e+14	3.084664e+14	1.198545e+04	4.555648e+03	2.457351e+03	0	8.130547e-04
7.200000e+08	8.707776e+12	0.000000e+00	4.236111e-01	2.163994e+14	7.070751e+14	3.069930e+14	1.195931e+04	4.551289e+03	2.455000e+03	0	8.074553e-04
7.300000e+08	8.529838e+12	0.000000e+00	4.236111e-01	2.134396e+14	7.003681e+14	3.055299e+14	1.193352e+04	4.546985e+03	2.452678e+03	0	8.019175e-04
7.400000e+08	8.356223e+12	0.000000e+00	4.236111e-01	2.105499e+14	6.937928e+14	3.040771e+14	1.190809e+04	4.542734e+03	2.450385e+03	0	7.964394e-04
7.500000e+08	8.186785e+12	0.000000e+00	4.236111e-01	2.077279e+14	6.873454e+14	3.026343e+14	1.188299e+04	4.538535e+03	2.448120e+03	0	7.910195e-04
7.600000e+08	8.021385e+12	0.000000e+00	4.236111e-01	2.049714e+14	6.810221e+14	3.012016e+14	1.185824e+04	4.534386e+03	2.445882e+03	0	7.856562e-04
7.700000e+08	7.859889e+12	0.000000e+00	4.236111e-01	2.022783e+14	6.748191e+14	2.997789e+14	1.183381e+04	4.530287e+03	2.443671e+03	0	7.803478e-04
7.800000e+08	7.702171e+12	0.000000e+00	4.236111e-01	1.996464e+14	6.687329e+14	2.983660e+14	1.180970e+04	4.526237e+03	2.441486e+03	0	7.750930e-04
7.900000e+08	7.548108e+12	0.000000e+00	4.236111e-01	1.970739e+14	6.627602e+14	2.969630e+14	1.178590e+04	4.522234e+03	2.439327e+03	0	7.698902e-04
8.000000e+08	7.397582e+12	0.000000e+00	4.236111e-01	1.945588e+14	6.568977e+14	2.955697e+14	1.176240e+04	4.518277e+03	2.437193e+03	0	7.647380e-04
8.100000e+08	7.250481e+12	0.000000e+00	4.236111e-01	1.920994e+14	6.511422e+14	2.941861e+14	1.173921e+04	4.514366e+03	2.435083e+03	0	7.596351e-04
8.200000e+08	7.106697e+12	0.000000e+00	4.236111e-01	1.896939e+14	6.454907e+14	2.928120e+14	1.171631e+04	4.510499e+03	2.432997e+03	0	7.545801e-04
8.300000e+08	6.966126e+12	0.000000e+00	4.236111e-01	1.873407e+14	6.399404e+14	2.914474e+14	1.169369e+04	4.506676e+03	2.430935e+03	0	7.495717e-04
8.400000e+08	6.828669e+12	0.000000e+00	4.236111e-01	1.850381e+14	6.344885e+14	2.900923e+14	1.167135e+04	4.502896e+03	2.428896e+03	0	7.446087e-04
8.500000e+08	6.694231e+12	0.000000e+00	4.236111e-01	1.827846e+14	6.291321e+14	2.887465e+14	1.164929e+04	4.499157e+03	2.426879e+03	0	7.396898e-04
8.600000e+08	6.562718e+12	0.000000e+00	4.236111e-01	1.805787e+14	6.238688e+14	2.874100e+14	1.162749e+04	4.495459e+03	2.424885e+03	0	7.348139e-04
8.700000e+08	6.434044e+12	0.000000e+00	4.236111e-01	1.784190e+14	6.186961e+14	2.860827e+14	1.160595e+04	4.491801e+03	2.422911e+03	0	7.299797e-04
8.800000e+08	6.308124e+12	0.000000e+00	4.236111e-01	1.763042e+14	6.136114e+14	2.847645e+14	1.158467e+04	4.488183e+03	2.420960e+03	0	7.251861e-04
8.900000e+08	6.184875e+12	0.000000e+00	4.236111e-01	1.742329e+14	6.086126e+14	2.834554e+14	1.156365e+04	4.484602e+03	2.419028e+03	0	7.204321e-04
9.000000e+08	6.064219e+12	0.000000e+00	4.236111e-01	1.722039e+14	6.036973e+14	2.821552e+14	1.154287e+04	4.481060e+03	2.417118e+03	0	7.157165e-04
9.100000e+08	5.946081e+12	0.000000e+00	4.236111e-01	1.702160e+14	5.988634e+14	2.808640e+14	1.152233e+04	4.477554e+03	2.415227e+03	0	7.110383e-04
9.200000e+08	5.830387e+12	0.000000e+00	4.236111e-01	1.682679e+14	5.941088e+14	2.795816e+14	1.150202e+04	4.474085e+03	2.413355e+03	0	7.063965e-04
9.300000e+08	5.717068e+12	0.000000e+00	4.236111e-01	1.663585e+14	5.894314e+14	2.783080e+14	1.148195e+04	4.470651e+03	2.411503e+03	0	7.017901e-04
9.400000e+08	5.606057e+12	0.000000e+00	4.236111e-01	1.644868e+14	5.848294e+14	2.770431e+14	1.146210e+04	4.467252e+03	2.409669e+03	0	6.972180e-04
9.500000e+08	5.497287e+12	0.000000e+00	4.236111e-01	1.626517e+14	5.803008e+14	2.757868e+14	1.144248e+04	4.463887e+03	2.407854e+03	0	6.926793e-04
9.600000e+08	5.390697e+12	0.000000e+00	4.236111e-01	1.608523e+14	5.758438e+14	2.745391e+14	1.142307e+04	4.460556e+03	2.406057e+03	0	6.881731e-04
9.700000e+08	5.286225e+12	0.000000e+00	4.236111e-01	1.590874e+14	5.714566e+14	2.732999e+14	1.140388e+04	4.457257e+03	2.404278e+03	0	6.836985e-04
9.800000e+08	5.183814e+12	0.000000e+00	4.236111e-01	1.573562e+14	5.671376e+14	2.720691e+14	1.138490e+04	4.453991e+03	2.402516e+03	0	6.792546e-04
9.900000e+08	5.083408e+12	0.000000e+00	4.236111e-01	1.556578e+14	5.628850e+14	2.708467e+14	1.136612e+04	4.450756e+03	2.400771e+03	0	6.748404e-04
1.000000e+09	4.984951e+12	0.000000e+00	4.236111e-01	1.539913e+14	5.586973e+14	2.696325e+14	1.134755e+04	4.447552e+03	2.399043e+03	0	6.704551e-04
1.010000e+09	4.888391e+12	0.000000e+00	4.236111e-01	1.523558e+14	5.545730e+14	2.684267e+14	1.132917e+04	4.444379e+03	2.397332e+03	0	6.660979e-04
1.020000e+09	4.793678e+12	0.000000e+00	4.236111e-01	1.507506e+14	5.505105e+14	2.672289e+14	1.131099e+04	4.441236e+03	2.395636e+03	0	6.617679e-04
1.030000e+09	4.700763e+12	0.000000e+00	4.236111e-01	1.491748e+14	5.465085e+14	2.660393e+14	1.129300e+04	4.438122e+03	2.393956e+03	0	6.574643e-04
1.040000e+09	4.609599e+12	0.000000e+00	4.236111e-01	1.476276e+14	5.425654e+14	2.648578e+14	1.127520e+04	4.435037e+03	2.392292e+03	0	6.531864e-04
1.050000e+09	4.520139e+12	0.000000e+00	4.236111e-01	1.461084e+14	5.386800e+14	2.636842e+14	1.125758e+04	4.431980e+03	2.390643e+03	0	6.489332e-04
1.060000e+09	4.432340e+12	0.000000e+00	4.236111e-01	1.446165e+14	5.348508e+14	2.625185e+14	1.124014e+04	4.428951e+03	2.389010e+03	0	6.447041e-04
1.070000e+09	4.346159e+12	0.000000e+00	4.236111e-01	1.431510e+14	5.310768e+14	2.613607e+14	1.122288e+04	4.425949e+03	2.387390e+03	0	6.404983e-04
1.080000e+09	4.261555e+12	0.000000e+00	4.236111e-01	1.417115e+14	5.273565e+14	2.602106e+14	1.120579e+04	4.422974e+03	2.385786e+03	0	6.363149e-04
1.090000e+09	4.178488e+12	0.000000e+00	4.236111e-01	1.402971e+14	5.236889e+14	2.590683e+14	1.118888e+04	4.420026e+03	2.384195e+03	0	6.321534e-04
1.100000e+09	4.096918e+12	0.000000e+00	4.236111e-01	1.389073e+14	5.200727e+14	2.579337e+14	1.117213e+04	4.417104e+03	2.382619e+03	0	6.280128e-04
1.110000e+09	4.016810e+12	0.000000e+00	4.236111e-01	1.375416e+14	5.165068e+14	2.568067e+14	1.115555e+04	4.414207e+03	2.381056e+03	0	6.238926e-04
1.120000e+09	3.938125e+12	0.000000e+00	4.236111e-01	1.361992e+14	5.129902e+14	2.556872e+14	1.113913e+04	4.411335e+03	2.379507e+03	0	6.197919e-04
1.130000e+09	3.860831e+12	0.000000e+00	4.236111e-01	1.348796e+14	5.095217e+14	2.545752e+14	1.112287e+04	4.408487e+03	2.377971e+03	0	6.157102e-04
1.140000e+09	3.784891e+12	0.000000e+00	4.236111e-01	1.335824e+14	5.061003e+14	2.534707e+14	1.110677e+04	4.405664e+03	2.376449e+03	0	6.116466e-04
1.150000e+09	3.710275e+12	0.000000e+00	4.236111e-01	1.323069e+14	5.027251e+14	2.523735e+14	1.109082e+04	4.402865e+03	2.374939e+03	0	6.076005e-04
1.160000e+09	3.636949e+12	0.000000e+00	4.236111e-01	1.310526e+14	4.993950e+14	2.512837e+14	1.107502e+04	4.400089e+03	2.373441e+03	0	6.035711e-04
1.170000e+09	3.564882e+12	0.000000e+00	4.236111e-01	1.298190e+14	4.961092e+14	2.502011e+14	1.105937e+04	4.397336e+03	2.371956e+03	0	5.995579e-04
1.180000e+09	3.494046e+12	0.000000e+00	4.236111e-01	1.286057e+14	4.928666e+14	2.491257e+14	1.104387e+04	4.394606e+03	2.370484e+03	0	5.955601e-04
1.190000e+09	3.424410e+12	0.000000e+00	4.236111e-01	1.274122e+14	4.896664e+14	2.480574e+14	1.102852e+04	4.391898e+03	2.369023e+03	0	5.915771e-04
1.200000e+09	3.355947e+12	0.000000e+00	4.236111e-01	1.262380e+14	4.865078e+14	2.469963e+14	1.101330e+04	4.389212e+03	2.367574e+03	0	5.876081e-04
1.210000e+09	3.288629e+12	0.000000e+00	4.236111e-01	1.250827e+14	4.833898e+14	2.459422e+14	1.099823e+04	4.386548e+03	2.366137e+03	0	5.836525e-04
1.220000e+09	3.222430e+12	0.000000e+00	4.236111e-01	1.239458e+14	4.803117e+14	2.448951e+14	1.098329e+04	4.383904e+03	2.364711e+03	0	5.797097e-04
1.230000e+09	3.157324e+12	0.000000e+00	4.236111e-01	1.228269e+14	4.772727e+14	2.438549e+14	1.096849e+04	4.381282e+03	2.363297e+03	0	5.757790e-04
1.240000e+09	3.093286e+12	0.000000e+00	4.236111e-01	1.217257e+14	4.742720e+14	2.428215e+14	1.095382e+04	4.378680e+03	2.361893e+03	0	5.718597e-04
1.250000e+09	3.030292e+12	0.000000e+00	4.236111e-01	1.206417e+14	4.713088e+14	2.417950e+14	1.093928e+04	4.376099e+03	2.360501e+03	0	5.679511e-04
1.260000e+09	2.968319e+12	0.000000e+00	4.236111e-01	1.195745e+14	4.683824e+14	2.407753e+14	1.092488e+04	4.373537e+03	2.359119e+03	0	5.640526e-04
1.270000e+09	2.907343e+12	0.000000e+00	4.236111e-01	1.185238e+14	4.654921e+14	2.397623e+14	1.091059e+04	4.370995e+03	2.357748e+03	0	5.601635e-04
1.280000e+09	2.847342e+12	0.000000e+00	4.236111e-01	1.174893e+14	4.626373e+14	2.387559e+14	1.089644e+04	4.368472e+03	2.356387e+03	0	5.562832e-04
1.290000e+09	2.788295e+12	0.000000e+00	4.236111e-01	1.164705e+14	4.598171e+14	2.377562e+14	1.088241e+04	4.365969e+03	2.355037e+03	0	5.524110e-04
1.300000e+09	2.730180e+12	0.000000e+00	4.236111e-01	1.154671e+14	4.570310e+14	2.367630e+14	1.086849e+04	4.363484e+03	2.353696e+03	0	5.485462e-04
1.310000e+09	2.672978e+12	0.000000e+00	4.236111e-01	1.144788e+14	4.542783e+14	2.357763e+14	1.085470e+04	4.361017e+03	2.352366e+03	0	5.446881e-04
1.320000e+09	2.616669e+12	0.000000e+00	4.236111e-01	1.135053e+14	4.515583e+14	2.347961e+14	1.084103e+04	4.358569e+03	2.351045e+03	0	5.408361e-04
1.330000e+09	2.561233e+12	0.000000e+00	4.236111e-01	1.125462e+14	4.488706e+14	2.338223e+14	1.082747e+04	4.356139e+03	2.349734e+03	0	5.369894e-04
1.340000e+09	2.506651e+12	0.000000e+00	4.236111e-01	1.116013e+14	4.462144e+14	2.328549e+14	1.081402e+04	4.353726e+03	2.348433e+03	0	5.331475e-04
1.350000e+09	2.452906e+12	0.000000e+00	4.236111e-01	1.106702e+14	4.435893e+14	2.318938e+14	1.080069e+04	4.351331e+03	2.347141e+03	0	5.293095e-04
1.360000e+09	2.399980e+12	0.000000e+00	4.236111e-01	1.097527e+14	4.409946e+14	2.309389e+14	1.078747e+04	4.348953e+03	2.345858e+03	0	5.254749e-04
