#t		Qconv[W]	Ri[Rp]		R*[Rp]		Qc[W]		Qm[W]		Qr[W]		Tcmb[K]		Tl[K]		Tup[K]		RiFlag		Bs[T]
0.000000e+00	8.312908e+13	0.000000e+00	4.236111e-01	1.383853e+15	2.448166e+15	4.670391e+14	1.684515e+04	5.272016e+03	2.812038e+03	0	1.710171e-03
1.000000e+07	7.896334e+13	0.000000e+00	4.236111e-01	1.319620e+15	2.380189e+15	4.644513e+14	1.669172e+04	5.258882e+03	2.805032e+03	0	1.681113e-03
2.000000e+07	7.511266e+13	0.000000e+00	4.236111e-01	1.260211e+15	2.315058e+15	4.618829e+14	1.654530e+04	5.245763e+03	2.798035e+03	0	1.653330e-03
3.000000e+07	7.154522e+13	0.000000e+00	4.236111e-01	1.205140e+15	2.252698e+15	4.593337e+14	1.640538e+04	5.232704e+03	2.791069e+03	0	1.626730e-03
4.000000e+07	6.823318e+13	0.000000e+00	4.236111e-01	1.153982e+15	2.193019e+15	4.568036e+14	1.627148e+04	5.219741e+03	2.784155e+03	0	1.601230e-03
5.000000e+07	6.515204e+13	0.000000e+00	4.236111e-01	1.106363e+15	2.135919e+15	4.542923e+14	1.614319e+04	5.206901e+03	2.777306e+03	0	1.576756e-03
6.000000e+07	6.228023e+13	0.000000e+00	4.236111e-01	1.061954e+15	2.081292e+15	4.517997e+14	1.602011e+04	5.194206e+03	2.770535e+03	0	1.553240e-03
7.000000e+07	5.959864e+13	0.000000e+00	4.236111e-01	1.020461e+15	2.029027e+15	4.493257e+14	1.590192e+04	5.181674e+03	2.763851e+03	0	1.530620e-03
8.000000e+07	5.709034e+13	0.000000e+00	4.236111e-01	9.816274e+14	1.979015e+15	4.468701e+14	1.578827e+04	5.169318e+03	2.757260e+03	0	1.508838e-03
9.000000e+07	5.474025e+13	0.000000e+00	4.236111e-01	9.452216e+14	1.931146e+15	4.444328e+14	1.567890e+04	5.157147e+03	2.750768e+03	0	1.487844e-03
1.000000e+08	5.253493e+13	0.000000e+00	4.236111e-01	9.110382e+14	1.885316e+15	4.420135e+14	1.557354e+04	5.145170e+03	2.744380e+03	0	1.467589e-03
1.100000e+08	5.046235e+13	0.000000e+00	4.236111e-01	8.788932e+14	1.841421e+15	4.396122e+14	1.547194e+04	5.133390e+03	2.738096e+03	0	1.448030e-03
1.200000e+08	4.851171e+13	0.000000e+00	4.236111e-01	8.486214e+14	1.799362e+15	4.372287e+14	1.537388e+04	5.121811e+03	2.731920e+03	0	1.429127e-03
1.300000e+08	4.667332e+13	0.000000e+00	4.236111e-01	8.200746e+14	1.759045e+15	4.348629e+14	1.527916e+04	5.110435e+03	2.725852e+03	0	1.410841e-03
1.400000e+08	4.493844e+13	0.000000e+00	4.236111e-01	7.931189e+14	1.720378e+15	4.325145e+14	1.518759e+04	5.099261e+03	2.719893e+03	0	1.393139e-03
1.500000e+08	4.329917e+13	0.000000e+00	4.236111e-01	7.676335e+14	1.683277e+15	4.301835e+14	1.509900e+04	5.088291e+03	2.714041e+03	0	1.375989e-03
1.600000e+08	4.174838e+13	0.000000e+00	4.236111e-01	7.435089e+14	1.647660e+15	4.278698e+14	1.501323e+04	5.077521e+03	2.708296e+03	0	1.359362e-03
1.700000e+08	4.027957e+13	0.000000e+00	4.236111e-01	7.206460e+14	1.613450e+15	4.255731e+14	1.493012e+04	5.066950e+03	2.702658e+03	0	1.343229e-03
1.800000e+08	3.888687e+13	0.000000e+00	4.236111e-01	6.989547e+14	1.580574e+15	4.232933e+14	1.484954e+04	5.056576e+03	2.697124e+03	0	1.327566e-03
1.900000e+08	3.756492e+13	0.000000e+00	4.236111e-01	6.783527e+14	1.548963e+15	4.210303e+14	1.477136e+04	5.046395e+03	2.691694e+03	0	1.312349e-03
2.000000e+08	3.630884e+13	0.000000e+00	4.236111e-01	6.587652e+14	1.518552e+15	4.187840e+14	1.469546e+04	5.036405e+03	2.686365e+03	0	1.297556e-03
2.100000e+08	3.511415e+13	0.000000e+00	4.236111e-01	6.401237e+14	1.489281e+15	4.165542e+14	1.462174e+04	5.026601e+03	2.681136e+03	0	1.283165e-03
2.200000e+08	3.397677e+13	0.000000e+00	4.236111e-01	6.223656e+14	1.461091e+15	4.143408e+14	1.455008e+04	5.016981e+03	2.676005e+03	0	1.269159e-03
2.300000e+08	3.289295e+13	0.000000e+00	4.236111e-01	6.054333e+14	1.433929e+15	4.121436e+14	1.448039e+04	5.007541e+03	2.670970e+03	0	1.255518e-03
2.400000e+08	3.185926e+13	0.000000e+00	4.236111e-01	5.892742e+14	1.407743e+15	4.099626e+14	1.441258e+04	4.998275e+03	2.666028e+03	0	1.242225e-03
2.500000e+08	3.087253e+13	0.000000e+00	4.236111e-01	5.738398e+14	1.382485e+15	4.077975e+14	1.434656e+04	4.989182e+03	2.661177e+03	0	1.229266e-03
2.600000e+08	2.992985e+13	0.000000e+00	4.236111e-01	5.590852e+14	1.358110e+15	4.056482e+14	1.428225e+04	4.980256e+03	2.656416e+03	0	1.216625e-03
2.700000e+08	2.902854e+13	0.000000e+00	4.236111e-01	5.449693e+14	1.334575e+15	4.035147e+14	1.421959e+04	4.971493e+03	2.651742e+03	0	1.204288e-03
2.800000e+08	2.816611e+13	0.000000e+00	4.236111e-01	5.314539e+14	1.311840e+15	4.013967e+14	1.415849e+04	4.962890e+03	2.647154e+03	0	1.192241e-03
2.900000e+08	2.734026e+13	0.000000e+00	4.236111e-01	5.185039e+14	1.289866e+15	3.992942e+14	1.409890e+04	4.954443e+03	2.642648e+03	0	1.180473e-03
3.000000e+08	2.654889e+13	0.000000e+00	4.236111e-01	5.060867e+14	1.268619e+15	3.972071e+14	1.404074e+04	4.946148e+03	2.638224e+03	0	1.168972e-03
3.100000e+08	2.579002e+13	0.000000e+00	4.236111e-01	4.941719e+14	1.248064e+15	3.951351e+14	1.398397e+04	4.938001e+03	2.633878e+03	0	1.157726e-03
3.200000e+08	2.506181e+13	0.000000e+00	4.236111e-01	4.827315e+14	1.228170e+15	3.930782e+14	1.392852e+04	4.929998e+03	2.629609e+03	0	1.146725e-03
3.300000e+08	2.436258e+13	0.000000e+00	4.236111e-01	4.717394e+14	1.208906e+15	3.910363e+14	1.387435e+04	4.922136e+03	2.625416e+03	0	1.135960e-03
3.400000e+08	2.369075e+13	0.000000e+00	4.236111e-01	4.611712e+14	1.190245e+15	3.890092e+14	1.382140e+04	4.914411e+03	2.621295e+03	0	1.125420e-03
3.500000e+08	2.304483e+13	0.000000e+00	4.236111e-01	4.510045e+14	1.172159e+15	3.869968e+14	1.376963e+04	4.906819e+03	2.617246e+03	0	1.115098e-03
3.600000e+08	2.242347e+13	0.000000e+00	4.236111e-01	4.412179e+14	1.154622e+15	3.849990e+14	1.371899e+04	4.899358e+03	2.613266e+03	0	1.104984e-03
3.700000e+08	2.182538e+13	0.000000e+00	4.236111e-01	4.317920e+14	1.137612e+15	3.830156e+14	1.366944e+04	4.892023e+03	2.609354e+03	0	1.095071e-03
3.800000e+08	2.124936e+13	0.000000e+00	4.236111e-01	4.227081e+14	1.121105e+15	3.810466e+14	1.362094e+04	4.884811e+03	2.605507e+03	0	1.085352e-03
3.900000e+08	2.069430e+13	0.000000e+00	4.236111e-01	4.139492e+14	1.105081e+15	3.790919e+14	1.357346e+04	4.877720e+03	2.601725e+03	0	1.075818e-03
4.000000e+08	2.015915e+13	0.000000e+00	4.236111e-01	4.054991e+14	1.089518e+15	3.771512e+14	1.352695e+04	4.870746e+03	2.598005e+03	0	1.066463e-03
4.100000e+08	1.964292e+13	0.000000e+00	4.236111e-01	3.973426e+14	1.074397e+15	3.752246e+14	1.348139e+04	4.863886e+03	2.594346e+03	0	1.057281e-03
4.200000e+08	1.914471e+13	0.000000e+00	4.236111e-01	3.894656e+14	1.059701e+15	3.733118e+14	1.343673e+04	4.857137e+03	2.590746e+03	0	1.048266e-03
4.300000e+08	1.866364e+13	0.000000e+00	4.236111e-01	3.818549e+14	1.045411e+15	3.714129e+14	1.339296e+04	4.850497e+03	2.587204e+03	0	1.039411e-03
4.400000e+08	1.819890e+13	0.000000e+00	4.236111e-01	3.744978e+14	1.031513e+15	3.695275e+14	1.335003e+04	4.843962e+03	2.583718e+03	0	1.030711e-03
4.500000e+08	1.774973e+13	0.000000e+00	4.236111e-01	3.673826e+14	1.017989e+15	3.676558e+14	1.330793e+04	4.837530e+03	2.580288e+03	0	1.022160e-03
4.600000e+08	1.731541e+13	0.000000e+00	4.236111e-01	3.604983e+14	1.004825e+15	3.657974e+14	1.326662e+04	4.831198e+03	2.576910e+03	0	1.013755e-03
4.700000e+08	1.689527e+13	0.000000e+00	4.236111e-01	3.538345e+14	9.920076e+14	3.639524e+14	1.322608e+04	4.824964e+03	2.573585e+03	0	1.005488e-03
4.800000e+08	1.648867e+13	0.000000e+00	4.236111e-01	3.473812e+14	9.795229e+14	3.621207e+14	1.318629e+04	4.818826e+03	2.570311e+03	0	9.973565e-04
4.900000e+08	1.609501e+13	0.000000e+00	4.236111e-01	3.411292e+14	9.673584e+14	3.603020e+14	1.314721e+04	4.812780e+03	2.567086e+03	0	9.893554e-04
5.000000e+08	1.571373e+13	0.000000e+00	4.236111e-01	3.350699e+14	9.555018e+14	3.584963e+14	1.310884e+04	4.806825e+03	2.563910e+03	0	9.814803e-04
5.100000e+08	1.534427e+13	0.000000e+00	4.236111e-01	3.291948e+14	9.439417e+14	3.567036e+14	1.307114e+04	4.800959e+03	2.560781e+03	0	9.737272e-04
5.200000e+08	1.498615e+13	0.000000e+00	4.236111e-01	3.234962e+14	9.326672e+14	3.549236e+14	1.303410e+04	4.795178e+03	2.557698e+03	0	9.660922e-04
5.300000e+08	1.463888e+13	0.000000e+00	4.236111e-01	3.179666e+14	9.216678e+14	3.531563e+14	1.299770e+04	4.789482e+03	2.554659e+03	0	9.585715e-04
5.400000e+08	1.430201e+13	0.000000e+00	4.236111e-01	3.125992e+14	9.109336e+14	3.514016e+14	1.296191e+04	4.783867e+03	2.551665e+03	0	9.511614e-04
5.500000e+08	1.397511e+13	0.000000e+00	4.236111e-01	3.073872e+14	9.004551e+14	3.496594e+14	1.292673e+04	4.778333e+03	2.548713e+03	0	9.438586e-04
5.600000e+08	1.365777e+13	0.000000e+00	4.236111e-01	3.023244e+14	8.902232e+14	3.479296e+14	1.289213e+04	4.772877e+03	2.545803e+03	0	9.366596e-04
5.700000e+08	1.334960e+13	0.000000e+00	4.236111e-01	2.974047e+14	8.802292e+14	3.462121e+14	1.285809e+04	4.767497e+03	2.542933e+03	0	9.295612e-04
5.800000e+08	1.305025e+13	0.000000e+00	4.236111e-01	2.926226e+14	8.704650e+14	3.445067e+14	1.282461e+04	4.762192e+03	2.540103e+03	0	9.225604e-04
5.900000e+08	1.275936e+13	0.000000e+00	4.236111e-01	2.879726e+14	8.609226e+14	3.428135e+14	1.279166e+04	4.756959e+03	2.537312e+03	0	9.156542e-04
6.000000e+08	1.247660e+13	0.000000e+00	4.236111e-01	2.834496e+14	8.515945e+14	3.411322e+14	1.275923e+04	4.751798e+03	2.534559e+03	0	9.088397e-04
6.100000e+08	1.220166e+13	0.000000e+00	4.236111e-01	2.790489e+14	8.424735e+14	3.394628e+14	1.272731e+04	4.746706e+03	2.531843e+03	0	9.021142e-04
6.200000e+08	1.193424e+13	0.000000e+00	4.236111e-01	2.747657e+14	8.335527e+14	3.378052e+14	1.269589e+04	4.741681e+03	2.529163e+03	0	8.954750e-04
6.300000e+08	1.167406e+13	0.000000e+00	4.236111e-01	2.705957e+14	8.248254e+14	3.361593e+14	1.266494e+04	4.736723e+03	2.526518e+03	0	8.889197e-04
6.400000e+08	1.142085e+13	0.000000e+00	4.236111e-01	2.665346e+14	8.162855e+14	3.345251e+14	1.263446e+04	4.731829e+03	2.523908e+03	0	8.824456e-04
6.500000e+08	1.117434e+13	0.000000e+00	4.236111e-01	2.625785e+14	8.079267e+14	3.329023e+14	1.260443e+04	4.726999e+03	2.521332e+03	0	8.760505e-04
6.600000e+08	1.093430e+13	0.000000e+00	4.236111e-01	2.587236e+14	7.997434e+14	3.312909e+14	1.257485e+04	4.722230e+03	2.518788e+03	0	8.697321e-04
6.700000e+08	1.070048e+13	0.000000e+00	4.236111e-01	2.549663e+14	7.917299e+14	3.296909e+14	1.254570e+04	4.717522e+03	2.516277e+03	0	8.634880e-04
6.800000e+08	1.047268e+13	0.000000e+00	4.236111e-01	2.513031e+14	7.838810e+14	3.281021e+14	1.251697e+04	4.712873e+03	2.513797e+03	0	8.573163e-04
6.900000e+08	1.025066e+13	0.000000e+00	4.236111e-01	2.477306e+14	7.761915e+14	3.265245e+14	1.248865e+04	4.708281e+03	2.511348e+03	0	8.512147e-04
7.000000e+08	1.003424e+13	0.000000e+00	4.236111e-01	2.442458e+14	7.686565e+14	3.249579e+14	1.246074e+04	4.703746e+03	2.508929e+03	0	8.451814e-04
7.100000e+08	9.823205e+12	0.000000e+00	4.236111e-01	2.408456e+14	7.612714e+14	3.234023e+14	1.243321e+04	4.699267e+03	2.506540e+03	0	8.392144e-04
7.200000e+08	9.617384e+12	0.000000e+00	4.236111e-01	2.375271e+14	7.540315e+14	3.218576e+14	1.240607e+04	4.694841e+03	2.504179e+03	0	8.333117e-04
7.300000e+08	9.416594e+12	0.000000e+00	4.236111e-01	2.342875e+14	7.469325e+14	3.203237e+14	1.237929e+04	4.690468e+03	2.501847e+03	0	8.274717e-04
7.400000e+08	9.220666e+12	0.000000e+00	4.236111e-01	2.311243e+14	7.399704e+14	3.188005e+14	1.235288e+04	4.686147e+03	2.499542e+03	0	8.216924e-04
7.500000e+08	9.029437e+12	0.000000e+00	4.236111e-01	2.280349e+14	7.331410e+14	3.172878e+14	1.232683e+04	4.681877e+03	2.497264e+03	0	8.159723e-04
7.600000e+08	8.842751e+12	0.000000e+00	4.236111e-01	2.250169e+14	7.264405e+14	3.157858e+14	1.230112e+04	4.677656e+03	2.495013e+03	0	8.103096e-04
7.700000e+08	8.660459e+12	0.000000e+00	4.236111e-01	2.220680e+14	7.198652e+14	3.142942e+14	1.227575e+04	4.673484e+03	2.492788e+03	0	8.047028e-04
7.800000e+08	8.482418e+12	0.000000e+00	4.236111e-01	2.191859e+14	7.134115e+14	3.128129e+14	1.225071e+04	4.669360e+03	2.490587e+03	0	7.991502e-04
7.900000e+08	8.308492e+12	0.000000e+00	4.236111e-01	2.163685e+14	7.070759e+14	3.113419e+14	1.222600e+04	4.665282e+03	2.488412e+03	0	7.936504e-04
8.000000e+08	8.138547e+12	0.000000e+00	4.236111e-01	2.136137e+14	7.008553e+14	3.098812e+14	1.220160e+04	4.661249e+03	2.486261e+03	0	7.882019e-04
8.100000e+08	7.972460e+12	0.000000e+00	4.236111e-01	2.109197e+14	6.947463e+14	3.084305e+14	1.217751e+04	4.657262e+03	2.484135e+03	0	7.828033e-04
8.200000e+08	7.810108e+12	0.000000e+00	4.236111e-01	2.082845e+14	6.887460e+14	3.069899e+14	1.215372e+04	4.653318e+03	2.482031e+03	0	7.774531e-04
8.300000e+08	7.651375e+12	0.000000e+00	4.236111e-01	2.057063e+14	6.828513e+14	3.055593e+14	1.213023e+04	4.649417e+03	2.479950e+03	0	7.721500e-04
8.400000e+08	7.496150e+12	0.000000e+00	4.236111e-01	2.031833e+14	6.770593e+14	3.041385e+14	1.210703e+04	4.645558e+03	2.477892e+03	0	7.668927e-04
8.500000e+08	7.344326e+12	0.000000e+00	4.236111e-01	2.007140e+14	6.713675e+14	3.027276e+14	1.208411e+04	4.641740e+03	2.475855e+03	0	7.616799e-04
8.600000e+08	7.195799e+12	0.000000e+00	4.236111e-01	1.982967e+14	6.657730e+14	3.013264e+14	1.206147e+04	4.637963e+03	2.473841e+03	0	7.565103e-04
8.700000e+08	7.050471e+12	0.000000e+00	4.236111e-01	1.959298e+14	6.602733e+14	2.999348e+14	1.203910e+04	4.634225e+03	2.471847e+03	0	7.513828e-04
8.800000e+08	6.908247e+12	0.000000e+00	4.236111e-01	1.936119e+14	6.548660e+14	2.985528e+14	1.201700e+04	4.630526e+03	2.469874e+03	0	7.462960e-04
8.900000e+08	6.769034e+12	0.000000e+00	4.236111e-01	1.913416e+14	6.495487e+14	2.971802e+14	1.199516e+04	4.626865e+03	2.467921e+03	0	7.412489e-04
9.000000e+08	6.632745e+12	0.000000e+00	4.236111e-01	1.891174e+14	6.443190e+14	2.958171e+14	1.197357e+04	4.623242e+03	2.465989e+03	0	7.362404e-04
9.100000e+08	6.499294e+12	0.000000e+00	4.236111e-01	1.869381e+14	6.391747e+14	2.944634e+14	1.195223e+04	4.619655e+03	2.464076e+03	0	7.312692e-04
9.200000e+08	6.368601e+12	0.000000e+00	4.236111e-01	1.848024e+14	6.341137e+14	2.931189e+14	1.193114e+04	4.616104e+03	2.462182e+03	0	7.263343e-04
9.300000e+08	6.240585e+12	0.000000e+00	4.236111e-01	1.827090e+14	6.291339e+14	2.917836e+14	1.191029e+04	4.612589e+03	2.460307e+03	0	7.214346e-04
9.400000e+08	6.115172e+12	0.000000e+00	4.236111e-01	1.806567e+14	6.242333e+14	2.904575e+14	1.188967e+04	4.609108e+03	2.458450e+03	0	7.165691e-04
9.500000e+08	5.992288e+12	0.000000e+00	4.236111e-01	1.786445e+14	6.194100e+14	2.891404e+14	1.186928e+04	4.605661e+03	2.456611e+03	0	7.117368e-04
9.600000e+08	5.871863e+12	0.000000e+00	4.236111e-01	1.766712e+14	6.146619e+14	2.878322e+14	1.184912e+04	4.602248e+03	2.454791e+03	0	7.069367e-04
9.700000e+08	5.753829e+12	0.000000e+00	4.236111e-01	1.747357e+14	6.099875e+14	2.865330e+14	1.182918e+04	4.598867e+03	2.452987e+03	0	7.021677e-04
9.800000e+08	5.638119e+12	0.000000e+00	4.236111e-01	1.728371e+14	6.053848e+14	2.852426e+14	1.180946e+04	4.595518e+03	2.451201e+03	0	6.974289e-04
9.900000e+08	5.524672e+12	0.000000e+00	4.236111e-01	1.709743e+14	6.008521e+14	2.839610e+14	1.178996e+04	4.592201e+03	2.449432e+03	0	6.927194e-04
1.000000e+09	5.413424e+12	0.000000e+00	4.236111e-01	1.691464e+14	5.963879e+14	2.826881e+14	1.177066e+04	4.588915e+03	2.447679e+03	0	6.880382e-04
1.010000e+09	5.304319e+12	0.000000e+00	4.236111e-01	1.673524e+14	5.919905e+14	2.814239e+14	1.175156e+04	4.585660e+03	2.445943e+03	0	6.833844e-04
1.020000e+09	5.197298e+12	0.000000e+00	4.236111e-01	1.655915e+14	5.876584e+14	2.801681e+14	1.173267e+04	4.582434e+03	2.444222e+03	0	6.787571e-04
1.030000e+09	5.092307e+12	0.000000e+00	4.236111e-01	1.638629e+14	5.833900e+14	2.789209e+14	1.171398e+04	4.579238e+03	2.442518e+03	0	6.741554e-04
1.040000e+09	4.989292e+12	0.000000e+00	4.236111e-01	1.621656e+14	5.791840e+14	2.776822e+14	1.169548e+04	4.576071e+03	2.440828e+03	0	6.695785e-04
1.050000e+09	4.888201e+12	0.000000e+00	4.236111e-01	1.604988e+14	5.750388e+14	2.764517e+14	1.167718e+04	4.572932e+03	2.439154e+03	0	6.650254e-04
1.060000e+09	4.788987e+12	0.000000e+00	4.236111e-01	1.588619e+14	5.709532e+14	2.752296e+14	1.165906e+04	4.569821e+03	2.437495e+03	0	6.604953e-04
1.070000e+09	4.691599e+12	0.000000e+00	4.236111e-01	1.572540e+14	5.669258e+14	2.740157e+14	1.164112e+04	4.566737e+03	2.435850e+03	0	6.559874e-04
1.080000e+09	4.595992e+12	0.000000e+00	4.236111e-01	1.556744e+14	5.629553e+14	2.728100e+14	1.162336e+04	4.563681e+03	2.434219e+03	0	6.515008e-04
1.090000e+09	4.502121e+12	0.000000e+00	4.236111e-01	1.541224e+14	5.590405e+14	2.716124e+14	1.160579e+04	4.560651e+03	2.432603e+03	0	6.470347e-04
1.100000e+09	4.409941e+12	0.000000e+00	4.236111e-01	1.525974e+14	5.551801e+14	2.704228e+14	1.158838e+04	4.557647e+03	2.431001e+03	0	6.425883e-04
1.110000e+09	4.319412e+12	0.000000e+00	4.236111e-01	1.510986e+14	5.513730e+14	2.692412e+14	1.157115e+04	4.554668e+03	2.429412e+03	0	6.381607e-04
1.120000e+09	4.230492e+12	0.000000e+00	4.236111e-01	1.496254e+14	5.476180e+14	2.680676e+14	1.155409e+04	4.551715e+03	2.427837e+03	0	6.337512e-04
1.130000e+09	4.143141e+12	0.000000e+00	4.236111e-01	1.481772e+14	5.439141e+14	2.669017e+14	1.153720e+04	4.548787e+03	2.426275e+03	0	6.293590e-04
1.140000e+09	4.057322e+12	0.000000e+00	4.236111e-01	1.467535e+14	5.402601e+14	2.657437e+14	1.152046e+04	4.545883e+03	2.424726e+03	0	6.249832e-04
1.150000e+09	3.972998e+12	0.000000e+00	4.236111e-01	1.453535e+14	5.366550e+14	2.645934e+14	1.150389e+04	4.543003e+03	2.423190e+03	0	6.206231e-04
1.160000e+09	3.890131e+12	0.000000e+00	4.236111e-01	1.439768e+14	5.330979e+14	2.634508e+14	1.148747e+04	4.540147e+03	2.421667e+03	0	6.162779e-04
1.170000e+09	3.808689e+12	0.000000e+00	4.236111e-01	1.426228e+14	5.295876e+14	2.623158e+14	1.147121e+04	4.537313e+03	2.420155e+03	0	6.119468e-04
1.180000e+09	3.728635e+12	0.000000e+00	4.236111e-01	1.412910e+14	5.261232e+14	2.611883e+14	1.145510e+04	4.534503e+03	2.418656e+03	0	6.076290e-04
1.190000e+09	3.649939e+12	0.000000e+00	4.236111e-01	1.399809e+14	5.227039e+14	2.600684e+14	1.143915e+04	4.531715e+03	2.417169e+03	0	6.033237e-04
1.200000e+09	3.572569e+12	0.000000e+00	4.236111e-01	1.386919e+14	5.193286e+14	2.589558e+14	1.142333e+04	4.528950e+03	2.415694e+03	0	5.990302e-04
1.210000e+09	3.496492e+12	0.000000e+00	4.236111e-01	1.374236e+14	5.159966e+14	2.578507e+14	1.140767e+04	4.526206e+03	2.414231e+03	0	5.947476e-04
1.220000e+09	3.421681e+12	0.000000e+00	4.236111e-01	1.361755e+14	5.127069e+14	2.567529e+14	1.139215e+04	4.523484e+03	2.412779e+03	0	5.904752e-04
1.230000e+09	3.348104e+12	0.000000e+00	4.236111e-01	1.349472e+14	5.094587e+14	2.556623e+14	1.137676e+04	4.520782e+03	2.411338e+03	0	5.862122e-04
1.240000e+09	3.275735e+12	0.000000e+00	4.236111e-01	1.337382e+14	5.062512e+14	2.545789e+14	1.136152e+04	4.518102e+03	2.409908e+03	0	5.819578e-04
1.250000e+09	3.204547e+12	0.000000e+00	4.236111e-01	1.325480e+14	5.030837e+14	2.535027e+14	1.134641e+04	4.515442e+03	2.408489e+03	0	5.777111e-04
1.260000e+09	3.134511e+12	0.000000e+00	4.236111e-01	1.313764e+14	4.999552e+14	2.524336e+14	1.133144e+04	4.512803e+03	2.407082e+03	0	5.734714e-04
1.270000e+09	3.065603e+12	0.000000e+00	4.236111e-01	1.302227e+14	4.968652e+14	2.513715e+14	1.131660e+04	4.510183e+03	2.405684e+03	0	5.692380e-04
1.280000e+09	2.997798e+12	0.000000e+00	4.236111e-01	1.290868e+14	4.938128e+14	2.503165e+14	1.130188e+04	4.507583e+03	2.404297e+03	0	5.650098e-04
1.290000e+09	2.931072e+12	0.000000e+00	4.236111e-01	1.279681e+14	4.907973e+14	2.492683e+14	1.128730e+04	4.505002e+03	2.402921e+03	0	5.607862e-04
1.300000e+09	2.865400e+12	0.000000e+00	4.236111e-01	1.268664e+14	4.878181e+14	2.482271e+14	1.127284e+04	4.502440e+03	2.401554e+03	0	5.565663e-04
1.310000e+09	2.800759e+12	0.000000e+00	4.236111e-01	1.257811e+14	4.848745e+14	2.471926e+14	1.125851e+04	4.499897e+03	2.400198e+03	0	5.523493e-04
1.320000e+09	2.737128e+12	0.000000e+00	4.236111e-01	1.247121e+14	4.819657e+14	2.461649e+14	1.124430e+04	4.497372e+03	2.398851e+03	0	5.481342e-04
1.330000e+09	2.674485e+12	0.000000e+00	4.236111e-01	1.236589e+14	4.790913e+14	2.451440e+14	1.123020e+04	4.494865e+03	2.397514e+03	0	5.439202e-04
1.340000e+09	2.612807e+12	0.000000e+00	4.236111e-01	1.226213e+14	4.762504e+14	2.441297e+14	1.121623e+04	4.492377e+03	2.396187e+03	0	5.397065e-04
1.350000e+09	2.552076e+12	0.000000e+00	4.236111e-01	1.215988e+14	4.734426e+14	2.431221e+14	1.120238e+04	4.489906e+03	2.394869e+03	0	5.354921e-04
1.360000e+09	2.492271e+12	0.000000e+00	4.236111e-01	1.205912e+14	4.706673e+14	2.421210e+14	1.118864e+04	4.487453e+03	2.393560e+03	0	5.312761e-04
