#t		Qconv[W]	Ri[Rp]		R*[Rp]		Qc[W]		Qm[W]		Qr[W]		Tcmb[K]		Tl[K]		Tup[K]		RiFlag		Bs[T]
0.000000e+00	9.081224e+13	0.000000e+00	4.236112e-01	1.474281e+15	2.426950e+15	4.885176e+14	1.740738e+04	5.374963e+03	2.836700e+03	0	1.758788e-03
1.000000e+07	8.637529e+13	0.000000e+00	4.236112e-01	1.407922e+15	2.370051e+15	4.858108e+14	1.725229e+04	5.365136e+03	2.831514e+03	0	1.729664e-03
2.000000e+07	8.226245e+13	0.000000e+00	4.236112e-01	1.346373e+15	2.314669e+15	4.831243e+14	1.710408e+04	5.355045e+03	2.826188e+03	0	1.701763e-03
3.000000e+07	7.844221e+13	0.000000e+00	4.236112e-01	1.289170e+15	2.260886e+15	4.804579e+14	1.696225e+04	5.344761e+03	2.820761e+03	0	1.675002e-03
4.000000e+07	7.488683e+13	0.000000e+00	4.236112e-01	1.235901e+15	2.208748e+15	4.778114e+14	1.682636e+04	5.334343e+03	2.815263e+03	0	1.649303e-03
5.000000e+07	7.157180e+13	0.000000e+00	4.236112e-01	1.186203e+15	2.158276e+15	4.751846e+14	1.669601e+04	5.323838e+03	2.809719e+03	0	1.624598e-03
6.000000e+07	6.847540e+13	0.000000e+00	4.236112e-01	1.139754e+15	2.109469e+15	4.725774e+14	1.657083e+04	5.313289e+03	2.804151e+03	0	1.600824e-03
7.000000e+07	6.557834e+13	0.000000e+00	4.236112e-01	1.096270e+15	2.062312e+15	4.699896e+14	1.645049e+04	5.302729e+03	2.798578e+03	0	1.577922e-03
8.000000e+07	6.286342e+13	0.000000e+00	4.236112e-01	1.055495e+15	2.016777e+15	4.674211e+14	1.633468e+04	5.292187e+03	2.793014e+03	0	1.555839e-03
9.000000e+07	6.031527e+13	0.000000e+00	4.236112e-01	1.017201e+15	1.972829e+15	4.648717e+14	1.622312e+04	5.281686e+03	2.787472e+03	0	1.534526e-03
1.000000e+08	5.792013e+13	0.000000e+00	4.236112e-01	9.811846e+14	1.930425e+15	4.623412e+14	1.611557e+04	5.271246e+03	2.781963e+03	0	1.513939e-03
1.100000e+08	5.566565e+13	0.000000e+00	4.236112e-01	9.472625e+14	1.889519e+15	4.598294e+14	1.601177e+04	5.260884e+03	2.776494e+03	0	1.494036e-03
1.200000e+08	5.354070e+13	0.000000e+00	4.236112e-01	9.152698e+14	1.850063e+15	4.573363e+14	1.591152e+04	5.250612e+03	2.771073e+03	0	1.474778e-03
1.300000e+08	5.153525e+13	0.000000e+00	4.236112e-01	8.850576e+14	1.812004e+15	4.548616e+14	1.581462e+04	5.240441e+03	2.765705e+03	0	1.456130e-03
1.400000e+08	4.964025e+13	0.000000e+00	4.236112e-01	8.564914e+14	1.775291e+15	4.524053e+14	1.572088e+04	5.230381e+03	2.760396e+03	0	1.438059e-03
1.500000e+08	4.784747e+13	0.000000e+00	4.236112e-01	8.294494e+14	1.739872e+15	4.499671e+14	1.563014e+04	5.220438e+03	2.755148e+03	0	1.420534e-03
1.600000e+08	4.614947e+13	0.000000e+00	4.236112e-01	8.038209e+14	1.705696e+15	4.475470e+14	1.554223e+04	5.210617e+03	2.749965e+03	0	1.403527e-03
1.700000e+08	4.453946e+13	0.000000e+00	4.236112e-01	7.795054e+14	1.672714e+15	4.451446e+14	1.545700e+04	5.200924e+03	2.744849e+03	0	1.387012e-03
1.800000e+08	4.301127e+13	0.000000e+00	4.236112e-01	7.564111e+14	1.640874e+15	4.427600e+14	1.537433e+04	5.191360e+03	2.739802e+03	0	1.370964e-03
1.900000e+08	4.155928e+13	0.000000e+00	4.236112e-01	7.344544e+14	1.610131e+15	4.403930e+14	1.529408e+04	5.181929e+03	2.734824e+03	0	1.355360e-03
2.000000e+08	4.017832e+13	0.000000e+00	4.236112e-01	7.135586e+14	1.580436e+15	4.380434e+14	1.521614e+04	5.172632e+03	2.729918e+03	0	1.340178e-03
2.100000e+08	3.886368e+13	0.000000e+00	4.236112e-01	6.936538e+14	1.551747e+15	4.357110e+14	1.514040e+04	5.163469e+03	2.725082e+03	0	1.325399e-03
2.200000e+08	3.761104e+13	0.000000e+00	4.236112e-01	6.746757e+14	1.524019e+15	4.333958e+14	1.506675e+04	5.154441e+03	2.720317e+03	0	1.311003e-03
2.300000e+08	3.641643e+13	0.000000e+00	4.236112e-01	6.565651e+14	1.497212e+15	4.310976e+14	1.499509e+04	5.145547e+03	2.715624e+03	0	1.296973e-03
2.400000e+08	3.527619e+13	0.000000e+00	4.236112e-01	6.392677e+14	1.471286e+15	4.288162e+14	1.492534e+04	5.136788e+03	2.711001e+03	0	1.283293e-03
2.500000e+08	3.418695e+13	0.000000e+00	4.236112e-01	6.227334e+14	1.446203e+15	4.265516e+14	1.485742e+04	5.128162e+03	2.706448e+03	0	1.269946e-03
2.600000e+08	3.314561e+13	0.000000e+00	4.236112e-01	6.069161e+14	1.421928e+15	4.243035e+14	1.479123e+04	5.119667e+03	2.701965e+03	0	1.256919e-03
2.700000e+08	3.214929e+13	0.000000e+00	4.236112e-01	5.917730e+14	1.398425e+15	4.220718e+14	1.472671e+04	5.111304e+03	2.697551e+03	0	1.244197e-03
2.800000e+08	3.119536e+13	0.000000e+00	4.236112e-01	5.772646e+14	1.375662e+15	4.198565e+14	1.466379e+04	5.103069e+03	2.693205e+03	0	1.231767e-03
2.900000e+08	3.028134e+13	0.000000e+00	4.236112e-01	5.633542e+14	1.353608e+15	4.176573e+14	1.460240e+04	5.094961e+03	2.688926e+03	0	1.219618e-03
3.000000e+08	2.940496e+13	0.000000e+00	4.236112e-01	5.500081e+14	1.332233e+15	4.154741e+14	1.454247e+04	5.086978e+03	2.684713e+03	0	1.207736e-03
3.100000e+08	2.856410e+13	0.000000e+00	4.236112e-01	5.371946e+14	1.311508e+15	4.133069e+14	1.448395e+04	5.079118e+03	2.680565e+03	0	1.196113e-03
3.200000e+08	2.775680e+13	0.000000e+00	4.236112e-01	5.248845e+14	1.291406e+15	4.111554e+14	1.442679e+04	5.071380e+03	2.676481e+03	0	1.184737e-03
3.300000e+08	2.698123e+13	0.000000e+00	4.236112e-01	5.130504e+14	1.271902e+15	4.090195e+14	1.437092e+04	5.063760e+03	2.672460e+03	0	1.173598e-03
3.400000e+08	2.623568e+13	0.000000e+00	4.236112e-01	5.016670e+14	1.252971e+15	4.068992e+14	1.431631e+04	5.056258e+03	2.668500e+03	0	1.162687e-03
3.500000e+08	2.551856e+13	0.000000e+00	4.236112e-01	4.907105e+14	1.234590e+15	4.047943e+14	1.426289e+04	5.048870e+03	2.664601e+03	0	1.151995e-03
3.600000e+08	2.482840e+13	0.000000e+00	4.236112e-01	4.801589e+14	1.216736e+15	4.027046e+14	1.421064e+04	5.041594e+03	2.660761e+03	0	1.141515e-03
3.700000e+08	2.416379e+13	0.000000e+00	4.236112e-01	4.699914e+14	1.199388e+15	4.006300e+14	1.415950e+04	5.034429e+03	2.656980e+03	0	1.131237e-03
3.800000e+08	2.352346e+13	0.000000e+00	4.236112e-01	4.601888e+14	1.182526e+15	3.985705e+14	1.410943e+04	5.027372e+03	2.653255e+03	0	1.121155e-03
3.900000e+08	2.290618e+13	0.000000e+00	4.236112e-01	4.507328e+14	1.166131e+15	3.965258e+14	1.406041e+04	5.020420e+03	2.649586e+03	0	1.111261e-03
4.000000e+08	2.231082e+13	0.000000e+00	4.236112e-01	4.416065e+14	1.150185e+15	3.944960e+14	1.401238e+04	5.013573e+03	2.645972e+03	0	1.101549e-03
4.100000e+08	2.173630e+13	0.000000e+00	4.236112e-01	4.327940e+14	1.134670e+15	3.924807e+14	1.396532e+04	5.006826e+03	2.642412e+03	0	1.092011e-03
4.200000e+08	2.118164e+13	0.000000e+00	4.236112e-01	4.242803e+14	1.119569e+15	3.904800e+14	1.391919e+04	5.000180e+03	2.638904e+03	0	1.082643e-03
4.300000e+08	2.064589e+13	0.000000e+00	4.236112e-01	4.160513e+14	1.104868e+15	3.884937e+14	1.387396e+04	4.993630e+03	2.635447e+03	0	1.073437e-03
4.400000e+08	2.012816e+13	0.000000e+00	4.236112e-01	4.080939e+14	1.090550e+15	3.865217e+14	1.382960e+04	4.987175e+03	2.632041e+03	0	1.064388e-03
4.500000e+08	1.962762e+13	0.000000e+00	4.236112e-01	4.003957e+14	1.076601e+15	3.845638e+14	1.378609e+04	4.980814e+03	2.628684e+03	0	1.055491e-03
4.600000e+08	1.914349e+13	0.000000e+00	4.236112e-01	3.929448e+14	1.063008e+15	3.826200e+14	1.374339e+04	4.974544e+03	2.625374e+03	0	1.046740e-03
4.700000e+08	1.867503e+13	0.000000e+00	4.236112e-01	3.857302e+14	1.049758e+15	3.806902e+14	1.370148e+04	4.968363e+03	2.622112e+03	0	1.038132e-03
4.800000e+08	1.822155e+13	0.000000e+00	4.236112e-01	3.787416e+14	1.036838e+15	3.787741e+14	1.366034e+04	4.962269e+03	2.618896e+03	0	1.029660e-03
4.900000e+08	1.778238e+13	0.000000e+00	4.236112e-01	3.719690e+14	1.024236e+15	3.768718e+14	1.361994e+04	4.956260e+03	2.615725e+03	0	1.021320e-03
5.000000e+08	1.735691e+13	0.000000e+00	4.236112e-01	3.654032e+14	1.011941e+15	3.749831e+14	1.358025e+04	4.950335e+03	2.612598e+03	0	1.013109e-03
5.100000e+08	1.694454e+13	0.000000e+00	4.236112e-01	3.590354e+14	9.999420e+14	3.731079e+14	1.354126e+04	4.944492e+03	2.609514e+03	0	1.005021e-03
5.200000e+08	1.654473e+13	0.000000e+00	4.236112e-01	3.528573e+14	9.882285e+14	3.712461e+14	1.350295e+04	4.938728e+03	2.606472e+03	0	9.970536e-04
5.300000e+08	1.615695e+13	0.000000e+00	4.236112e-01	3.468610e+14	9.767906e+14	3.693975e+14	1.346529e+04	4.933043e+03	2.603472e+03	0	9.892021e-04
5.400000e+08	1.578069e+13	0.000000e+00	4.236112e-01	3.410390e+14	9.656189e+14	3.675621e+14	1.342827e+04	4.927434e+03	2.600512e+03	0	9.814631e-04
5.500000e+08	1.541550e+13	0.000000e+00	4.236112e-01	3.353843e+14	9.547042e+14	3.657398e+14	1.339187e+04	4.921900e+03	2.597591e+03	0	9.738329e-04
5.600000e+08	1.506091e+13	0.000000e+00	4.236112e-01	3.298902e+14	9.440379e+14	3.639304e+14	1.335606e+04	4.916439e+03	2.594709e+03	0	9.663083e-04
5.700000e+08	1.471651e+13	0.000000e+00	4.236112e-01	3.245503e+14	9.336117e+14	3.621339e+14	1.332084e+04	4.911050e+03	2.591865e+03	0	9.588859e-04
5.800000e+08	1.438190e+13	0.000000e+00	4.236112e-01	3.193585e+14	9.234175e+14	3.603501e+14	1.328619e+04	4.905731e+03	2.589058e+03	0	9.515627e-04
5.900000e+08	1.405669e+13	0.000000e+00	4.236112e-01	3.143092e+14	9.134478e+14	3.585790e+14	1.325209e+04	4.900480e+03	2.586287e+03	0	9.443355e-04
6.000000e+08	1.374052e+13	0.000000e+00	4.236112e-01	3.093969e+14	9.036952e+14	3.568204e+14	1.321852e+04	4.895297e+03	2.583551e+03	0	9.372015e-04
6.100000e+08	1.343304e+13	0.000000e+00	4.236112e-01	3.046163e+14	8.941527e+14	3.550743e+14	1.318548e+04	4.890179e+03	2.580850e+03	0	9.301579e-04
6.200000e+08	1.313392e+13	0.000000e+00	4.236112e-01	2.999626e+14	8.848137e+14	3.533405e+14	1.315294e+04	4.885126e+03	2.578183e+03	0	9.232020e-04
6.300000e+08	1.284285e+13	0.000000e+00	4.236112e-01	2.954310e+14	8.756716e+14	3.516189e+14	1.312090e+04	4.880136e+03	2.575549e+03	0	9.163311e-04
6.400000e+08	1.255953e+13	0.000000e+00	4.236112e-01	2.910170e+14	8.667203e+14	3.499094e+14	1.308934e+04	4.875207e+03	2.572948e+03	0	9.095428e-04
6.500000e+08	1.228368e+13	0.000000e+00	4.236112e-01	2.867165e+14	8.579539e+14	3.482120e+14	1.305825e+04	4.870339e+03	2.570379e+03	0	9.028346e-04
6.600000e+08	1.201503e+13	0.000000e+00	4.236112e-01	2.825252e+14	8.493666e+14	3.465266e+14	1.302762e+04	4.865529e+03	2.567841e+03	0	8.962041e-04
6.700000e+08	1.175331e+13	0.000000e+00	4.236112e-01	2.784393e+14	8.409530e+14	3.448530e+14	1.299743e+04	4.860778e+03	2.565333e+03	0	8.896491e-04
6.800000e+08	1.149829e+13	0.000000e+00	4.236112e-01	2.744552e+14	8.327078e+14	3.431912e+14	1.296767e+04	4.856083e+03	2.562855e+03	0	8.831674e-04
6.900000e+08	1.124971e+13	0.000000e+00	4.236112e-01	2.705691e+14	8.246259e+14	3.415410e+14	1.293834e+04	4.851444e+03	2.560407e+03	0	8.767568e-04
7.000000e+08	1.100737e+13	0.000000e+00	4.236112e-01	2.667779e+14	8.167026e+14	3.399024e+14	1.290943e+04	4.846859e+03	2.557987e+03	0	8.704153e-04
7.100000e+08	1.077104e+13	0.000000e+00	4.236112e-01	2.630781e+14	8.089331e+14	3.382752e+14	1.288091e+04	4.842328e+03	2.555596e+03	0	8.641409e-04
7.200000e+08	1.054052e+13	0.000000e+00	4.236112e-01	2.594668e+14	8.013130e+14	3.366594e+14	1.285279e+04	4.837848e+03	2.553232e+03	0	8.579316e-04
7.300000e+08	1.031561e+13	0.000000e+00	4.236112e-01	2.559410e+14	7.938378e+14	3.350550e+14	1.282506e+04	4.833420e+03	2.550895e+03	0	8.517857e-04
7.400000e+08	1.009613e+13	0.000000e+00	4.236112e-01	2.524978e+14	7.865036e+14	3.334617e+14	1.279770e+04	4.829042e+03	2.548584e+03	0	8.457012e-04
7.500000e+08	9.881887e+12	0.000000e+00	4.236112e-01	2.491344e+14	7.793062e+14	3.318795e+14	1.277070e+04	4.824713e+03	2.546300e+03	0	8.396764e-04
7.600000e+08	9.672715e+12	0.000000e+00	4.236112e-01	2.458484e+14	7.722417e+14	3.303084e+14	1.274406e+04	4.820433e+03	2.544040e+03	0	8.337095e-04
7.700000e+08	9.468447e+12	0.000000e+00	4.236112e-01	2.426372e+14	7.653066e+14	3.287482e+14	1.271778e+04	4.816199e+03	2.541806e+03	0	8.277990e-04
7.800000e+08	9.268925e+12	0.000000e+00	4.236112e-01	2.394984e+14	7.584972e+14	3.271988e+14	1.269183e+04	4.812012e+03	2.539596e+03	0	8.219431e-04
7.900000e+08	9.073998e+12	0.000000e+00	4.236112e-01	2.364297e+14	7.518100e+14	3.256602e+14	1.266622e+04	4.807870e+03	2.537410e+03	0	8.161404e-04
8.000000e+08	8.883518e+12	0.000000e+00	4.236112e-01	2.334290e+14	7.452417e+14	3.241322e+14	1.264094e+04	4.803773e+03	2.535248e+03	0	8.103892e-04
8.100000e+08	8.697346e+12	0.000000e+00	4.236112e-01	2.304941e+14	7.387891e+14	3.226149e+14	1.261597e+04	4.799719e+03	2.533109e+03	0	8.046881e-04
8.200000e+08	8.515348e+12	0.000000e+00	4.236112e-01	2.276229e+14	7.324491e+14	3.211080e+14	1.259132e+04	4.795708e+03	2.530992e+03	0	7.990356e-04
8.300000e+08	8.337395e+12	0.000000e+00	4.236112e-01	2.248136e+14	7.262188e+14	3.196116e+14	1.256697e+04	4.791740e+03	2.528897e+03	0	7.934303e-04
8.400000e+08	8.163362e+12	0.000000e+00	4.236112e-01	2.220642e+14	7.200952e+14	3.181255e+14	1.254293e+04	4.787812e+03	2.526824e+03	0	7.878708e-04
8.500000e+08	7.993131e+12	0.000000e+00	4.236112e-01	2.193730e+14	7.140755e+14	3.166496e+14	1.251917e+04	4.783925e+03	2.524773e+03	0	7.823557e-04
8.600000e+08	7.826586e+12	0.000000e+00	4.236112e-01	2.167382e+14	7.081571e+14	3.151840e+14	1.249570e+04	4.780077e+03	2.522742e+03	0	7.768838e-04
8.700000e+08	7.663618e+12	0.000000e+00	4.236112e-01	2.141582e+14	7.023374e+14	3.137284e+14	1.247252e+04	4.776269e+03	2.520732e+03	0	7.714538e-04
8.800000e+08	7.504121e+12	0.000000e+00	4.236112e-01	2.116314e+14	6.966138e+14	3.122828e+14	1.244961e+04	4.772499e+03	2.518743e+03	0	7.660643e-04
8.900000e+08	7.347992e+12	0.000000e+00	4.236112e-01	2.091561e+14	6.909840e+14	3.108472e+14	1.242696e+04	4.768766e+03	2.516773e+03	0	7.607142e-04
9.000000e+08	7.195134e+12	0.000000e+00	4.236112e-01	2.067310e+14	6.854455e+14	3.094214e+14	1.240458e+04	4.765070e+03	2.514822e+03	0	7.554022e-04
9.100000e+08	7.045452e+12	0.000000e+00	4.236112e-01	2.043546e+14	6.799961e+14	3.080054e+14	1.238246e+04	4.761410e+03	2.512891e+03	0	7.501272e-04
9.200000e+08	6.898855e+12	0.000000e+00	4.236112e-01	2.020255e+14	6.746337e+14	3.065991e+14	1.236060e+04	4.757786e+03	2.510978e+03	0	7.448880e-04
9.300000e+08	6.755255e+12	0.000000e+00	4.236112e-01	1.997424e+14	6.693560e+14	3.052024e+14	1.233898e+04	4.754197e+03	2.509084e+03	0	7.396834e-04
9.400000e+08	6.614568e+12	0.000000e+00	4.236112e-01	1.975041e+14	6.641611e+14	3.038152e+14	1.231760e+04	4.750642e+03	2.507208e+03	0	7.345124e-04
9.500000e+08	6.476712e+12	0.000000e+00	4.236112e-01	1.953092e+14	6.590469e+14	3.024376e+14	1.229646e+04	4.747121e+03	2.505349e+03	0	7.293738e-04
9.600000e+08	6.341609e+12	0.000000e+00	4.236112e-01	1.931566e+14	6.540116e+14	3.010693e+14	1.227556e+04	4.743632e+03	2.503508e+03	0	7.242666e-04
9.700000e+08	6.209182e+12	0.000000e+00	4.236112e-01	1.910452e+14	6.490532e+14	2.997103e+14	1.225489e+04	4.740177e+03	2.501684e+03	0	7.191896e-04
9.800000e+08	6.079359e+12	0.000000e+00	4.236112e-01	1.889738e+14	6.441700e+14	2.983606e+14	1.223444e+04	4.736753e+03	2.499877e+03	0	7.141420e-04
9.900000e+08	5.952069e+12	0.000000e+00	4.236112e-01	1.869413e+14	6.393601e+14	2.970200e+14	1.221421e+04	4.733360e+03	2.498087e+03	0	7.091225e-04
1.000000e+09	5.827244e+12	0.000000e+00	4.236112e-01	1.849468e+14	6.346220e+14	2.956886e+14	1.219420e+04	4.729999e+03	2.496313e+03	0	7.041303e-04
1.010000e+09	5.704818e+12	0.000000e+00	4.236112e-01	1.829892e+14	6.299540e+14	2.943662e+14	1.217440e+04	4.726667e+03	2.494555e+03	0	6.991643e-04
1.020000e+09	5.584727e+12	0.000000e+00	4.236112e-01	1.810676e+14	6.253544e+14	2.930527e+14	1.215481e+04	4.723366e+03	2.492812e+03	0	6.942235e-04
1.030000e+09	5.466910e+12	0.000000e+00	4.236112e-01	1.791810e+14	6.208217e+14	2.917482e+14	1.213543e+04	4.720094e+03	2.491085e+03	0	6.893069e-04
1.040000e+09	5.351308e+12	0.000000e+00	4.236112e-01	1.773285e+14	6.163545e+14	2.904524e+14	1.211624e+04	4.716850e+03	2.489373e+03	0	6.844136e-04
1.050000e+09	5.237863e+12	0.000000e+00	4.236112e-01	1.755093e+14	6.119512e+14	2.891654e+14	1.209726e+04	4.713635e+03	2.487677e+03	0	6.795426e-04
1.060000e+09	5.126519e+12	0.000000e+00	4.236112e-01	1.737225e+14	6.076105e+14	2.878871e+14	1.207847e+04	4.710448e+03	2.485995e+03	0	6.746929e-04
1.070000e+09	5.017224e+12	0.000000e+00	4.236112e-01	1.719674e+14	6.033310e+14	2.866174e+14	1.205986e+04	4.707288e+03	2.484327e+03	0	6.698637e-04
1.080000e+09	4.909924e+12	0.000000e+00	4.236112e-01	1.702430e+14	5.991113e+14	2.853562e+14	1.204145e+04	4.704155e+03	2.482674e+03	0	6.650540e-04
1.090000e+09	4.804570e+12	0.000000e+00	4.236112e-01	1.685487e+14	5.949503e+14	2.841035e+14	1.202322e+04	4.701049e+03	2.481034e+03	0	6.602628e-04
1.100000e+09	4.701114e+12	0.000000e+00	4.236112e-01	1.668836e+14	5.908465e+14	2.828592e+14	1.200517e+04	4.697968e+03	2.479408e+03	0	6.554892e-04
1.110000e+09	4.599507e+12	0.000000e+00	4.236112e-01	1.652472e+14	5.867989e+14	2.816233e+14	1.198730e+04	4.694914e+03	2.477796e+03	0	6.507323e-04
1.120000e+09	4.499704e+12	0.000000e+00	4.236112e-01	1.636387e+14	5.828061e+14	2.803957e+14	1.196960e+04	4.691885e+03	2.476198e+03	0	6.459912e-04
1.130000e+09	4.401662e+12	0.000000e+00	4.236112e-01	1.620574e+14	5.788671e+14	2.791762e+14	1.195208e+04	4.688880e+03	2.474612e+03	0	6.412650e-04
1.140000e+09	4.305338e+12	0.000000e+00	4.236112e-01	1.605026e+14	5.749808e+14	2.779649e+14	1.193472e+04	4.685900e+03	2.473039e+03	0	6.365527e-04
1.150000e+09	4.210689e+12	0.000000e+00	4.236112e-01	1.589738e+14	5.711461e+14	2.767617e+14	1.191753e+04	4.682944e+03	2.471479e+03	0	6.318534e-04
1.160000e+09	4.117676e+12	0.000000e+00	4.236112e-01	1.574704e+14	5.673618e+14	2.755666e+14	1.190051e+04	4.680012e+03	2.469932e+03	0	6.271662e-04
1.170000e+09	4.026260e+12	0.000000e+00	4.236112e-01	1.559916e+14	5.636271e+14	2.743794e+14	1.188364e+04	4.677103e+03	2.468396e+03	0	6.224902e-04
1.180000e+09	3.936402e+12	0.000000e+00	4.236112e-01	1.545371e+14	5.599408e+14	2.732001e+14	1.186693e+04	4.674217e+03	2.466873e+03	0	6.178245e-04
1.190000e+09	3.848068e+12	0.000000e+00	4.236112e-01	1.531061e+14	5.563020e+14	2.720286e+14	1.185038e+04	4.671354e+03	2.465362e+03	0	6.131681e-04
1.200000e+09	3.761220e+12	0.000000e+00	4.236112e-01	1.516982e+14	5.527098e+14	2.708649e+14	1.183398e+04	4.668513e+03	2.463863e+03	0	6.085200e-04
1.210000e+09	3.675824e+12	0.000000e+00	4.236112e-01	1.503128e+14	5.491633e+14	2.697089e+14	1.181773e+04	4.665694e+03	2.462375e+03	0	6.038794e-04
1.220000e+09	3.591848e+12	0.000000e+00	4.236112e-01	1.489495e+14	5.456615e+14	2.685606e+14	1.180163e+04	4.662896e+03	2.460899e+03	0	5.992453e-04
1.230000e+09	3.509258e+12	0.000000e+00	4.236112e-01	1.476076e+14	5.422035e+14	2.674199e+14	1.178567e+04	4.660120e+03	2.459434e+03	0	5.946166e-04
1.240000e+09	3.428022e+12	0.000000e+00	4.236112e-01	1.462869e+14	5.387886e+14	2.662867e+14	1.176986e+04	4.657365e+03	2.457980e+03	0	5.899925e-04
1.250000e+09	3.348112e+12	0.000000e+00	4.236112e-01	1.449867e+14	5.354160e+14	2.651610e+14	1.175418e+04	4.654631e+03	2.456537e+03	0	5.853720e-04
1.260000e+09	3.269495e+12	0.000000e+00	4.236112e-01	1.437066e+14	5.320847e+14	2.640427e+14	1.173865e+04	4.651917e+03	2.455104e+03	0	5.807540e-04
1.270000e+09	3.192145e+12	0.000000e+00	4.236112e-01	1.424462e+14	5.287940e+14	2.629318e+14	1.172325e+04	4.649223e+03	2.453682e+03	0	5.761375e-04
1.280000e+09	3.116032e+12	0.000000e+00	4.236112e-01	1.412051e+14	5.255432e+14	2.618282e+14	1.170799e+04	4.646549e+03	2.452271e+03	0	5.715215e-04
1.290000e+09	3.041130e+12	0.000000e+00	4.236112e-01	1.399828e+14	5.223314e+14	2.607319e+14	1.169286e+04	4.643894e+03	2.450870e+03	0	5.669050e-04
1.300000e+09	2.967411e+12	0.000000e+00	4.236112e-01	1.387789e+14	5.191581e+14	2.596427e+14	1.167786e+04	4.641259e+03	2.449479e+03	0	5.622868e-04
1.310000e+09	2.894851e+12	0.000000e+00	4.236112e-01	1.375931e+14	5.160224e+14	2.585607e+14	1.166299e+04	4.638642e+03	2.448098e+03	0	5.576658e-04
1.320000e+09	2.823424e+12	0.000000e+00	4.236112e-01	1.364250e+14	5.129237e+14	2.574858e+14	1.164825e+04	4.636044e+03	2.446727e+03	0	5.530410e-04
1.330000e+09	2.753106e+12	0.000000e+00	4.236112e-01	1.352741e+14	5.098613e+14	2.564179e+14	1.163363e+04	4.633465e+03	2.445366e+03	0	5.484111e-04
1.340000e+09	2.683872e+12	0.000000e+00	4.236112e-01	1.341402e+14	5.068346e+14	2.553569e+14	1.161913e+04	4.630904e+03	2.444014e+03	0	5.437750e-04
1.350000e+09	2.615701e+12	0.000000e+00	4.236112e-01	1.330228e+14	5.038429e+14	2.543029e+14	1.160476e+04	4.628360e+03	2.442672e+03	0	5.391315e-04
1.360000e+09	2.548570e+12	0.000000e+00	4.236112e-01	1.319216e+14	5.008856e+14	2.532558e+14	1.159050e+04	4.625835e+03	2.441339e+03	0	5.344792e-04
