#t		Qconv[W]	Ri[Rp]		R*[Rp]		Qc[W]		Qm[W]		Qr[W]		Tcmb[K]		Tl[K]		Tup[K]		RiFlag		Bs[T]
0.000000e+00	1.153059e+14	0.000000e+00	4.195803e-01	1.797887e+15	2.410393e+15	5.405528e+14	1.897067e+04	5.591844e+03	2.891703e+03	0	1.909386e-03
1.000000e+07	1.096964e+14	0.000000e+00	4.195803e-01	1.717822e+15	2.377564e+15	5.375577e+14	1.879841e+04	5.590436e+03	2.890975e+03	0	1.877907e-03
2.000000e+07	1.044874e+14	0.000000e+00	4.195803e-01	1.643427e+15	2.343485e+15	5.345851e+14	1.863371e+04	5.588060e+03	2.889746e+03	0	1.847699e-03
3.000000e+07	9.964109e+13	0.000000e+00	4.195803e-01	1.574168e+15	2.308526e+15	5.316346e+14	1.847603e+04	5.584846e+03	2.888085e+03	0	1.818679e-03
4.000000e+07	9.512416e+13	0.000000e+00	4.195803e-01	1.509576e+15	2.272996e+15	5.287062e+14	1.832490e+04	5.580913e+03	2.886051e+03	0	1.790772e-03
5.000000e+07	9.090691e+13	0.000000e+00	4.195803e-01	1.449230e+15	2.237153e+15	5.257996e+14	1.817989e+04	5.576360e+03	2.883696e+03	0	1.763907e-03
6.000000e+07	8.696298e+13	0.000000e+00	4.195803e-01	1.392759e+15	2.201211e+15	5.229147e+14	1.804059e+04	5.571276e+03	2.881067e+03	0	1.738020e-03
7.000000e+07	8.326883e+13	0.000000e+00	4.195803e-01	1.339830e+15	2.165346e+15	5.200513e+14	1.790665e+04	5.565738e+03	2.878203e+03	0	1.713053e-03
8.000000e+07	7.980344e+13	0.000000e+00	4.195803e-01	1.290146e+15	2.129702e+15	5.172092e+14	1.777773e+04	5.559812e+03	2.875139e+03	0	1.688951e-03
9.000000e+07	7.654795e+13	0.000000e+00	4.195803e-01	1.243442e+15	2.094395e+15	5.143882e+14	1.765353e+04	5.553558e+03	2.871905e+03	0	1.665666e-03
1.000000e+08	7.348541e+13	0.000000e+00	4.195803e-01	1.199477e+15	2.059522e+15	5.115881e+14	1.753377e+04	5.547027e+03	2.868527e+03	0	1.643149e-03
1.100000e+08	7.060057e+13	0.000000e+00	4.195803e-01	1.158035e+15	2.025156e+15	5.088088e+14	1.741820e+04	5.540263e+03	2.865029e+03	0	1.621360e-03
1.200000e+08	6.787964e+13	0.000000e+00	4.195803e-01	1.118922e+15	1.991357e+15	5.060502e+14	1.730657e+04	5.533306e+03	2.861432e+03	0	1.600257e-03
1.300000e+08	6.531018e+13	0.000000e+00	4.195803e-01	1.081963e+15	1.958171e+15	5.033119e+14	1.719866e+04	5.526191e+03	2.857752e+03	0	1.579805e-03
1.400000e+08	6.288090e+13	0.000000e+00	4.195803e-01	1.046996e+15	1.925631e+15	5.005939e+14	1.709428e+04	5.518947e+03	2.854006e+03	0	1.559970e-03
1.500000e+08	6.058155e+13	0.000000e+00	4.195803e-01	1.013877e+15	1.893764e+15	4.978961e+14	1.699324e+04	5.511601e+03	2.850207e+03	0	1.540719e-03
1.600000e+08	5.840281e+13	0.000000e+00	4.195803e-01	9.824744e+14	1.862584e+15	4.952181e+14	1.689536e+04	5.504176e+03	2.846368e+03	0	1.522023e-03
1.700000e+08	5.633618e+13	0.000000e+00	4.195803e-01	9.526676e+14	1.832104e+15	4.925599e+14	1.680048e+04	5.496693e+03	2.842498e+03	0	1.503854e-03
1.800000e+08	5.437393e+13	0.000000e+00	4.195803e-01	9.243470e+14	1.802326e+15	4.899213e+14	1.670844e+04	5.489170e+03	2.838608e+03	0	1.486187e-03
1.900000e+08	5.250895e+13	0.000000e+00	4.195803e-01	8.974120e+14	1.773253e+15	4.873021e+14	1.661912e+04	5.481621e+03	2.834704e+03	0	1.468997e-03
2.000000e+08	5.073475e+13	0.000000e+00	4.195803e-01	8.717708e+14	1.744880e+15	4.847022e+14	1.653237e+04	5.474061e+03	2.830794e+03	0	1.452263e-03
2.100000e+08	4.904539e+13	0.000000e+00	4.195803e-01	8.473389e+14	1.717201e+15	4.821215e+14	1.644807e+04	5.466502e+03	2.826885e+03	0	1.435961e-03
2.200000e+08	4.743539e+13	0.000000e+00	4.195803e-01	8.240388e+14	1.690208e+15	4.795596e+14	1.636612e+04	5.458953e+03	2.822982e+03	0	1.420073e-03
2.300000e+08	4.589973e+13	0.000000e+00	4.195803e-01	8.017992e+14	1.663889e+15	4.770166e+14	1.628640e+04	5.451425e+03	2.819088e+03	0	1.404581e-03
2.400000e+08	4.443377e+13	0.000000e+00	4.195803e-01	7.805544e+14	1.638232e+15	4.744922e+14	1.620881e+04	5.443924e+03	2.815210e+03	0	1.389465e-03
2.500000e+08	4.303324e+13	0.000000e+00	4.195803e-01	7.602437e+14	1.613225e+15	4.719863e+14	1.613325e+04	5.436459e+03	2.811349e+03	0	1.374711e-03
2.600000e+08	4.169418e+13	0.000000e+00	4.195803e-01	7.408110e+14	1.588852e+15	4.694988e+14	1.605965e+04	5.429034e+03	2.807510e+03	0	1.360301e-03
2.700000e+08	4.041296e+13	0.000000e+00	4.195803e-01	7.222046e+14	1.565099e+15	4.670294e+14	1.598791e+04	5.421655e+03	2.803694e+03	0	1.346222e-03
2.800000e+08	3.918618e+13	0.000000e+00	4.195803e-01	7.043765e+14	1.541950e+15	4.645781e+14	1.591796e+04	5.414327e+03	2.799904e+03	0	1.332460e-03
2.900000e+08	3.801071e+13	0.000000e+00	4.195803e-01	6.872822e+14	1.519390e+15	4.621447e+14	1.584972e+04	5.407053e+03	2.796143e+03	0	1.319001e-03
3.000000e+08	3.688365e+13	0.000000e+00	4.195803e-01	6.708802e+14	1.497403e+15	4.597290e+14	1.578312e+04	5.399837e+03	2.792411e+03	0	1.305834e-03
3.100000e+08	3.580229e+13	0.000000e+00	4.195803e-01	6.551323e+14	1.475972e+15	4.573309e+14	1.571809e+04	5.392681e+03	2.788710e+03	0	1.292945e-03
3.200000e+08	3.476412e+13	0.000000e+00	4.195803e-01	6.400026e+14	1.455083e+15	4.549502e+14	1.565459e+04	5.385587e+03	2.785042e+03	0	1.280325e-03
3.300000e+08	3.376679e+13	0.000000e+00	4.195803e-01	6.254579e+14	1.434719e+15	4.525869e+14	1.559253e+04	5.378558e+03	2.781407e+03	0	1.267963e-03
3.400000e+08	3.280813e+13	0.000000e+00	4.195803e-01	6.114671e+14	1.414864e+15	4.502407e+14	1.553188e+04	5.371594e+03	2.777806e+03	0	1.255848e-03
3.500000e+08	3.188609e+13	0.000000e+00	4.195803e-01	5.980013e+14	1.395505e+15	4.479115e+14	1.547257e+04	5.364698e+03	2.774240e+03	0	1.243971e-03
3.600000e+08	3.099878e+13	0.000000e+00	4.195803e-01	5.850334e+14	1.376625e+15	4.455993e+14	1.541456e+04	5.357870e+03	2.770709e+03	0	1.232324e-03
3.700000e+08	3.014442e+13	0.000000e+00	4.195803e-01	5.725380e+14	1.358210e+15	4.433037e+14	1.535780e+04	5.351112e+03	2.767214e+03	0	1.220897e-03
3.800000e+08	2.932133e+13	0.000000e+00	4.195803e-01	5.604915e+14	1.340246e+15	4.410248e+14	1.530224e+04	5.344422e+03	2.763754e+03	0	1.209682e-03
3.900000e+08	2.852797e+13	0.000000e+00	4.195803e-01	5.488717e+14	1.322719e+15	4.387624e+14	1.524784e+04	5.337803e+03	2.760331e+03	0	1.198672e-03
4.000000e+08	2.776287e+13	0.000000e+00	4.195803e-01	5.376577e+14	1.305615e+15	4.365163e+14	1.519456e+04	5.331253e+03	2.756944e+03	0	1.187858e-03
4.100000e+08	2.702465e+13	0.000000e+00	4.195803e-01	5.268301e+14	1.288921e+15	4.342864e+14	1.514236e+04	5.324774e+03	2.753594e+03	0	1.177235e-03
4.200000e+08	2.631204e+13	0.000000e+00	4.195803e-01	5.163704e+14	1.272625e+15	4.320726e+14	1.509121e+04	5.318364e+03	2.750279e+03	0	1.166796e-03
4.300000e+08	2.562382e+13	0.000000e+00	4.195803e-01	5.062613e+14	1.256714e+15	4.298747e+14	1.504106e+04	5.312024e+03	2.747001e+03	0	1.156533e-03
4.400000e+08	2.495885e+13	0.000000e+00	4.195803e-01	4.964867e+14	1.241176e+15	4.276926e+14	1.499189e+04	5.305754e+03	2.743758e+03	0	1.146440e-03
4.500000e+08	2.431606e+13	0.000000e+00	4.195803e-01	4.870313e+14	1.225999e+15	4.255262e+14	1.494366e+04	5.299552e+03	2.740551e+03	0	1.136513e-03
4.600000e+08	2.369444e+13	0.000000e+00	4.195803e-01	4.778807e+14	1.211172e+15	4.233754e+14	1.489635e+04	5.293420e+03	2.737379e+03	0	1.126744e-03
4.700000e+08	2.309304e+13	0.000000e+00	4.195803e-01	4.690212e+14	1.196685e+15	4.212399e+14	1.484992e+04	5.287355e+03	2.734243e+03	0	1.117130e-03
4.800000e+08	2.251096e+13	0.000000e+00	4.195803e-01	4.604400e+14	1.182526e+15	4.191198e+14	1.480434e+04	5.281357e+03	2.731142e+03	0	1.107664e-03
4.900000e+08	2.194736e+13	0.000000e+00	4.195803e-01	4.521251e+14	1.168686e+15	4.170149e+14	1.475959e+04	5.275426e+03	2.728075e+03	0	1.098341e-03
5.000000e+08	2.140142e+13	0.000000e+00	4.195803e-01	4.440650e+14	1.155155e+15	4.149250e+14	1.471565e+04	5.269562e+03	2.725042e+03	0	1.089158e-03
5.100000e+08	2.087240e+13	0.000000e+00	4.195803e-01	4.362489e+14	1.141923e+15	4.128501e+14	1.467248e+04	5.263762e+03	2.722043e+03	0	1.080109e-03
5.200000e+08	2.035958e+13	0.000000e+00	4.195803e-01	4.286665e+14	1.128981e+15	4.107899e+14	1.463007e+04	5.258027e+03	2.719077e+03	0	1.071189e-03
5.300000e+08	1.986228e+13	0.000000e+00	4.195803e-01	4.213082e+14	1.116321e+15	4.087445e+14	1.458839e+04	5.252356e+03	2.716145e+03	0	1.062396e-03
5.400000e+08	1.937986e+13	0.000000e+00	4.195803e-01	4.141647e+14	1.103933e+15	4.067136e+14	1.454743e+04	5.246748e+03	2.713244e+03	0	1.053724e-03
5.500000e+08	1.891170e+13	0.000000e+00	4.195803e-01	4.072274e+14	1.091810e+15	4.046971e+14	1.450715e+04	5.241203e+03	2.710377e+03	0	1.045170e-03
5.600000e+08	1.845724e+13	0.000000e+00	4.195803e-01	4.004879e+14	1.079944e+15	4.026950e+14	1.446754e+04	5.235718e+03	2.707540e+03	0	1.036730e-03
5.700000e+08	1.801592e+13	0.000000e+00	4.195803e-01	3.939385e+14	1.068327e+15	4.007072e+14	1.442859e+04	5.230294e+03	2.704735e+03	0	1.028400e-03
5.800000e+08	1.758722e+13	0.000000e+00	4.195803e-01	3.875717e+14	1.056951e+15	3.987334e+14	1.439027e+04	5.224930e+03	2.701961e+03	0	1.020177e-03
5.900000e+08	1.717065e+13	0.000000e+00	4.195803e-01	3.813803e+14	1.045811e+15	3.967736e+14	1.435256e+04	5.219624e+03	2.699218e+03	0	1.012058e-03
6.000000e+08	1.676574e+13	0.000000e+00	4.195803e-01	3.753578e+14	1.034897e+15	3.948277e+14	1.431546e+04	5.214376e+03	2.696504e+03	0	1.004040e-03
6.100000e+08	1.637204e+13	0.000000e+00	4.195803e-01	3.694976e+14	1.024205e+15	3.928955e+14	1.427894e+04	5.209186e+03	2.693820e+03	0	9.961182e-04
6.200000e+08	1.598913e+13	0.000000e+00	4.195803e-01	3.637937e+14	1.013728e+15	3.909770e+14	1.424298e+04	5.204051e+03	2.691165e+03	0	9.882910e-04
6.300000e+08	1.561659e+13	0.000000e+00	4.195803e-01	3.582403e+14	1.003459e+15	3.890721e+14	1.420758e+04	5.198972e+03	2.688538e+03	0	9.805552e-04
6.400000e+08	1.525406e+13	0.000000e+00	4.195803e-01	3.528319e+14	9.933926e+14	3.871806e+14	1.417271e+04	5.193948e+03	2.685940e+03	0	9.729079e-04
6.500000e+08	1.490115e+13	0.000000e+00	4.195803e-01	3.475631e+14	9.835230e+14	3.853024e+14	1.413837e+04	5.188977e+03	2.683369e+03	0	9.653465e-04
6.600000e+08	1.455752e+13	0.000000e+00	4.195803e-01	3.424289e+14	9.738446e+14	3.834374e+14	1.410454e+04	5.184059e+03	2.680826e+03	0	9.578682e-04
6.700000e+08	1.422283e+13	0.000000e+00	4.195803e-01	3.374246e+14	9.643521e+14	3.815855e+14	1.407120e+04	5.179193e+03	2.678310e+03	0	9.504706e-04
6.800000e+08	1.389677e+13	0.000000e+00	4.195803e-01	3.325455e+14	9.550404e+14	3.797467e+14	1.403835e+04	5.174378e+03	2.675820e+03	0	9.431511e-04
6.900000e+08	1.357903e+13	0.000000e+00	4.195803e-01	3.277874e+14	9.459043e+14	3.779207e+14	1.400597e+04	5.169614e+03	2.673356e+03	0	9.359073e-04
7.000000e+08	1.326931e+13	0.000000e+00	4.195803e-01	3.231459e+14	9.369392e+14	3.761076e+14	1.397406e+04	5.164899e+03	2.670918e+03	0	9.287371e-04
7.100000e+08	1.296735e+13	0.000000e+00	4.195803e-01	3.186171e+14	9.281403e+14	3.743071e+14	1.394259e+04	5.160233e+03	2.668505e+03	0	9.216380e-04
7.200000e+08	1.267287e+13	0.000000e+00	4.195803e-01	3.141973e+14	9.195032e+14	3.725192e+14	1.391156e+04	5.155615e+03	2.666117e+03	0	9.146079e-04
7.300000e+08	1.238562e+13	0.000000e+00	4.195803e-01	3.098826e+14	9.110234e+14	3.707438e+14	1.388096e+04	5.151044e+03	2.663753e+03	0	9.076446e-04
7.400000e+08	1.210535e+13	0.000000e+00	4.195803e-01	3.056697e+14	9.026969e+14	3.689809e+14	1.385078e+04	5.146520e+03	2.661414e+03	0	9.007462e-04
7.500000e+08	1.183184e+13	0.000000e+00	4.195803e-01	3.015551e+14	8.945194e+14	3.672302e+14	1.382101e+04	5.142042e+03	2.659098e+03	0	8.939105e-04
7.600000e+08	1.156486e+13	0.000000e+00	4.195803e-01	2.975357e+14	8.864872e+14	3.654917e+14	1.379163e+04	5.137608e+03	2.656805e+03	0	8.871357e-04
7.700000e+08	1.130419e+13	0.000000e+00	4.195803e-01	2.936083e+14	8.785964e+14	3.637653e+14	1.376265e+04	5.133218e+03	2.654535e+03	0	8.804198e-04
7.800000e+08	1.104964e+13	0.000000e+00	4.195803e-01	2.897701e+14	8.708433e+14	3.620509e+14	1.373404e+04	5.128873e+03	2.652288e+03	0	8.737609e-04
7.900000e+08	1.080100e+13	0.000000e+00	4.195803e-01	2.860182e+14	8.632244e+14	3.603484e+14	1.370581e+04	5.124570e+03	2.650062e+03	0	8.671573e-04
8.000000e+08	1.055808e+13	0.000000e+00	4.195803e-01	2.823498e+14	8.557363e+14	3.586577e+14	1.367794e+04	5.120309e+03	2.647859e+03	0	8.606071e-04
8.100000e+08	1.032071e+13	0.000000e+00	4.195803e-01	2.787625e+14	8.483756e+14	3.569787e+14	1.365043e+04	5.116089e+03	2.645677e+03	0	8.541086e-04
8.200000e+08	1.008871e+13	0.000000e+00	4.195803e-01	2.752535e+14	8.411392e+14	3.553113e+14	1.362327e+04	5.111911e+03	2.643516e+03	0	8.476602e-04
8.300000e+08	9.861910e+12	0.000000e+00	4.195803e-01	2.718207e+14	8.340239e+14	3.536555e+14	1.359645e+04	5.107772e+03	2.641376e+03	0	8.412601e-04
8.400000e+08	9.640157e+12	0.000000e+00	4.195803e-01	2.684616e+14	8.270266e+14	3.520111e+14	1.356996e+04	5.103673e+03	2.639256e+03	0	8.349068e-04
8.500000e+08	9.423293e+12	0.000000e+00	4.195803e-01	2.651740e+14	8.201446e+14	3.503781e+14	1.354379e+04	5.099613e+03	2.637156e+03	0	8.285986e-04
8.600000e+08	9.211172e+12	0.000000e+00	4.195803e-01	2.619558e+14	8.133749e+14	3.487563e+14	1.351795e+04	5.095591e+03	2.635076e+03	0	8.223340e-04
8.700000e+08	9.003649e+12	0.000000e+00	4.195803e-01	2.588049e+14	8.067148e+14	3.471456e+14	1.349241e+04	5.091606e+03	2.633016e+03	0	8.161114e-04
8.800000e+08	8.800589e+12	0.000000e+00	4.195803e-01	2.557194e+14	8.001618e+14	3.455461e+14	1.346719e+04	5.087659e+03	2.630975e+03	0	8.099295e-04
8.900000e+08	8.601860e+12	0.000000e+00	4.195803e-01	2.526973e+14	7.937131e+14	3.439575e+14	1.344226e+04	5.083748e+03	2.628952e+03	0	8.037866e-04
9.000000e+08	8.407335e+12	0.000000e+00	4.195803e-01	2.497369e+14	7.873664e+14	3.423799e+14	1.341763e+04	5.079873e+03	2.626948e+03	0	7.976813e-04
9.100000e+08	8.216892e+12	0.000000e+00	4.195803e-01	2.468363e+14	7.811192e+14	3.408131e+14	1.339328e+04	5.076033e+03	2.624963e+03	0	7.916122e-04
9.200000e+08	8.030413e+12	0.000000e+00	4.195803e-01	2.439939e+14	7.749691e+14	3.392569e+14	1.336921e+04	5.072228e+03	2.622995e+03	0	7.855779e-04
9.300000e+08	7.847784e+12	0.000000e+00	4.195803e-01	2.412080e+14	7.689140e+14	3.377115e+14	1.334543e+04	5.068457e+03	2.621045e+03	0	7.795769e-04
9.400000e+08	7.668898e+12	0.000000e+00	4.195803e-01	2.384770e+14	7.629516e+14	3.361766e+14	1.332191e+04	5.064719e+03	2.619112e+03	0	7.736080e-04
9.500000e+08	7.493648e+12	0.000000e+00	4.195803e-01	2.357995e+14	7.570798e+14	3.346522e+14	1.329865e+04	5.061015e+03	2.617196e+03	0	7.676697e-04
9.600000e+08	7.321933e+12	0.000000e+00	4.195803e-01	2.331739e+14	7.512965e+14	3.331381e+14	1.327566e+04	5.057343e+03	2.615298e+03	0	7.617606e-04
9.700000e+08	7.153655e+12	0.000000e+00	4.195803e-01	2.305988e+14	7.455997e+14	3.316344e+14	1.325292e+04	5.053704e+03	2.613415e+03	0	7.558796e-04
9.800000e+08	6.988720e+12	0.000000e+00	4.195803e-01	2.280729e+14	7.399875e+14	3.301409e+14	1.323043e+04	5.050096e+03	2.611550e+03	0	7.500251e-04
9.900000e+08	6.827036e+12	0.000000e+00	4.195803e-01	2.255948e+14	7.344579e+14	3.286576e+14	1.320819e+04	5.046519e+03	2.609700e+03	0	7.441960e-04
1.000000e+09	6.668515e+12	0.000000e+00	4.195803e-01	2.231634e+14	7.290092e+14	3.271843e+14	1.318619e+04	5.042972e+03	2.607866e+03	0	7.383909e-04
1.010000e+09	6.513074e+12	0.000000e+00	4.195803e-01	2.207772e+14	7.236396e+14	3.257210e+14	1.316442e+04	5.039456e+03	2.606048e+03	0	7.326085e-04
1.020000e+09	6.360628e+12	0.000000e+00	4.195803e-01	2.184352e+14	7.183473e+14	3.242677e+14	1.314289e+04	5.035970e+03	2.604245e+03	0	7.268475e-04
1.030000e+09	6.211100e+12	0.000000e+00	4.195803e-01	2.161362e+14	7.131306e+14	3.228242e+14	1.312158e+04	5.032512e+03	2.602457e+03	0	7.211066e-04
1.040000e+09	6.064412e+12	0.000000e+00	4.195803e-01	2.138791e+14	7.079879e+14	3.213904e+14	1.310050e+04	5.029084e+03	2.600684e+03	0	7.153845e-04
1.050000e+09	5.920491e+12	0.000000e+00	4.195803e-01	2.116628e+14	7.029177e+14	3.199663e+14	1.307964e+04	5.025684e+03	2.598926e+03	0	7.096799e-04
1.060000e+09	5.779265e+12	0.000000e+00	4.195803e-01	2.094862e+14	6.979183e+14	3.185518e+14	1.305899e+04	5.022312e+03	2.597182e+03	0	7.039916e-04
1.070000e+09	5.640664e+12	0.000000e+00	4.195803e-01	2.073485e+14	6.929884e+14	3.171469e+14	1.303855e+04	5.018967e+03	2.595452e+03	0	6.983182e-04
1.080000e+09	5.504622e+12	0.000000e+00	4.195803e-01	2.052485e+14	6.881264e+14	3.157514e+14	1.301833e+04	5.015649e+03	2.593736e+03	0	6.926584e-04
1.090000e+09	5.371074e+12	0.000000e+00	4.195803e-01	2.031854e+14	6.833308e+14	3.143652e+14	1.299830e+04	5.012358e+03	2.592035e+03	0	6.870109e-04
1.100000e+09	5.239957e+12	0.000000e+00	4.195803e-01	2.011582e+14	6.786005e+14	3.129884e+14	1.297848e+04	5.009094e+03	2.590346e+03	0	6.813745e-04
1.110000e+09	5.111210e+12	0.000000e+00	4.195803e-01	1.991660e+14	6.739339e+14	3.116208e+14	1.295885e+04	5.005855e+03	2.588672e+03	0	6.757476e-04
1.120000e+09	4.984775e+12	0.000000e+00	4.195803e-01	1.972081e+14	6.693298e+14	3.102624e+14	1.293942e+04	5.002642e+03	2.587010e+03	0	6.701291e-04
1.130000e+09	4.860595e+12	0.000000e+00	4.195803e-01	1.952836e+14	6.647869e+14	3.089131e+14	1.292018e+04	4.999454e+03	2.585362e+03	0	6.645175e-04
1.140000e+09	4.738614e+12	0.000000e+00	4.195803e-01	1.933916e+14	6.603040e+14	3.075728e+14	1.290112e+04	4.996291e+03	2.583726e+03	0	6.589114e-04
1.150000e+09	4.618779e+12	0.000000e+00	4.195803e-01	1.915314e+14	6.558799e+14	3.062414e+14	1.288225e+04	4.993153e+03	2.582103e+03	0	6.533095e-04
1.160000e+09	4.501038e+12	0.000000e+00	4.195803e-01	1.897023e+14	6.515134e+14	3.049190e+14	1.286356e+04	4.990038e+03	2.580492e+03	0	6.477104e-04
1.170000e+09	4.385341e+12	0.000000e+00	4.195803e-01	1.879035e+14	6.472034e+14	3.036053e+14	1.284505e+04	4.986947e+03	2.578894e+03	0	6.421124e-04
1.180000e+09	4.271640e+12	0.000000e+00	4.195803e-01	1.861342e+14	6.429488e+14	3.023004e+14	1.282671e+04	4.983880e+03	2.577308e+03	0	6.365143e-04
1.190000e+09	4.159888e+12	0.000000e+00	4.195803e-01	1.843939e+14	6.387484e+14	3.010041e+14	1.280854e+04	4.980836e+03	2.575733e+03	0	6.309145e-04
1.200000e+09	4.050037e+12	0.000000e+00	4.195803e-01	1.826818e+14	6.346013e+14	2.997165e+14	1.279055e+04	4.977814e+03	2.574171e+03	0	6.253113e-04
1.210000e+09	3.942045e+12	0.000000e+00	4.195803e-01	1.809974e+14	6.305064e+14	2.984374e+14	1.277272e+04	4.974815e+03	2.572620e+03	0	6.197033e-04
1.220000e+09	3.835868e+12	0.000000e+00	4.195803e-01	1.793399e+14	6.264627e+14	2.971667e+14	1.275505e+04	4.971839e+03	2.571081e+03	0	6.140888e-04
1.230000e+09	3.731463e+12	0.000000e+00	4.195803e-01	1.777088e+14	6.224693e+14	2.959045e+14	1.273755e+04	4.968883e+03	2.569553e+03	0	6.084660e-04
1.240000e+09	3.628792e+12	0.000000e+00	4.195803e-01	1.761034e+14	6.185251e+14	2.946506e+14	1.272020e+04	4.965950e+03	2.568036e+03	0	6.028334e-04
1.250000e+09	3.527814e+12	0.000000e+00	4.195803e-01	1.745232e+14	6.146294e+14	2.934050e+14	1.270301e+04	4.963038e+03	2.566530e+03	0	5.971890e-04
1.260000e+09	3.428490e+12	0.000000e+00	4.195803e-01	1.729677e+14	6.107810e+14	2.921676e+14	1.268597e+04	4.960146e+03	2.565034e+03	0	5.915311e-04
1.270000e+09	3.330785e+12	0.000000e+00	4.195803e-01	1.714363e+14	6.069793e+14	2.909384e+14	1.266909e+04	4.957276e+03	2.563550e+03	0	5.858577e-04
1.280000e+09	3.234661e+12	0.000000e+00	4.195803e-01	1.699284e+14	6.032233e+14	2.897172e+14	1.265235e+04	4.954425e+03	2.562076e+03	0	5.801668e-04
1.290000e+09	3.140084e+12	0.000000e+00	4.195803e-01	1.684436e+14	5.995122e+14	2.885041e+14	1.263577e+04	4.951595e+03	2.560612e+03	0	5.744563e-04
1.300000e+09	3.047019e+12	0.000000e+00	4.195803e-01	1.669813e+14	5.958452e+14	2.872989e+14	1.261932e+04	4.948785e+03	2.559159e+03	0	5.687241e-04
1.310000e+09	2.955434e+12	0.000000e+00	4.195803e-01	1.655411e+14	5.922214e+14	2.861017e+14	1.260302e+04	4.945994e+03	2.557716e+03	0	5.629680e-04
1.320000e+09	2.865295e+12	0.000000e+00	4.195803e-01	1.641225e+14	5.886402e+14	2.849122e+14	1.258686e+04	4.943223e+03	2.556283e+03	0	5.571854e-04
1.330000e+09	2.776573e+12	0.000000e+00	4.195803e-01	1.627251e+14	5.851007e+14	2.837306e+14	1.257083e+04	4.940470e+03	2.554859e+03	0	5.513741e-04
1.340000e+09	2.689237e+12	0.000000e+00	4.195803e-01	1.613483e+14	5.816022e+14	2.825567e+14	1.255495e+04	4.937737e+03	2.553446e+03	0	5.455312e-04
1.350000e+09	2.603256e+12	0.000000e+00	4.195803e-01	1.599918e+14	5.781440e+14	2.813904e+14	1.253919e+04	4.935022e+03	2.552042e+03	0	5.396542e-04
1.360000e+09	2.518602e+12	0.000000e+00	4.195803e-01	1.586552e+14	5.747253e+14	2.802317e+14	1.252357e+04	4.932325e+03	2.550647e+03	0	5.337401e-04
