#t		Qconv[W]	Ri[Rp]		R*[Rp]		Qc[W]		Qm[W]		Qr[W]		Tcmb[K]		Tl[K]		Tup[K]		RiFlag		Bs[T]
0.000000e+00	1.453120e+14	0.000000e+00	4.195804e-01	2.142233e+15	2.291067e+15	5.958937e+14	2.075857e+04	5.887453e+03	2.953158e+03	0	2.061610e-03
1.000000e+07	1.385134e+14	0.000000e+00	4.195804e-01	2.051579e+15	2.285394e+15	5.925920e+14	2.057468e+04	5.895432e+03	2.957160e+03	0	2.028944e-03
2.000000e+07	1.321718e+14	0.000000e+00	4.195804e-01	1.966962e+15	2.276411e+15	5.893150e+14	2.039845e+04	5.901832e+03	2.960370e+03	0	1.997495e-03
3.000000e+07	1.262468e+14	0.000000e+00	4.195804e-01	1.887850e+15	2.264573e+15	5.860625e+14	2.022938e+04	5.906820e+03	2.962873e+03	0	1.967189e-03
4.000000e+07	1.207024e+14	0.000000e+00	4.195804e-01	1.813769e+15	2.250290e+15	5.828342e+14	2.006701e+04	5.910548e+03	2.964742e+03	0	1.937959e-03
5.000000e+07	1.155063e+14	0.000000e+00	4.195804e-01	1.744295e+15	2.233923e+15	5.796301e+14	1.991093e+04	5.913148e+03	2.966046e+03	0	1.909742e-03
6.000000e+07	1.106297e+14	0.000000e+00	4.195804e-01	1.679048e+15	2.215796e+15	5.764498e+14	1.976074e+04	5.914740e+03	2.966845e+03	0	1.882478e-03
7.000000e+07	1.060467e+14	0.000000e+00	4.195804e-01	1.617685e+15	2.196194e+15	5.732933e+14	1.961610e+04	5.915432e+03	2.967192e+03	0	1.856116e-03
8.000000e+07	1.017338e+14	0.000000e+00	4.195804e-01	1.559900e+15	2.175370e+15	5.701602e+14	1.947668e+04	5.915320e+03	2.967136e+03	0	1.830605e-03
9.000000e+07	9.767014e+13	0.000000e+00	4.195804e-01	1.505415e+15	2.153545e+15	5.670504e+14	1.934217e+04	5.914489e+03	2.966719e+03	0	1.805899e-03
1.000000e+08	9.383652e+13	0.000000e+00	4.195804e-01	1.453979e+15	2.130915e+15	5.639636e+14	1.921231e+04	5.913018e+03	2.965981e+03	0	1.781955e-03
1.100000e+08	9.021572e+13	0.000000e+00	4.195804e-01	1.405364e+15	2.107649e+15	5.608998e+14	1.908683e+04	5.910974e+03	2.964956e+03	0	1.758734e-03
1.200000e+08	8.679208e+13	0.000000e+00	4.195804e-01	1.359363e+15	2.083898e+15	5.578587e+14	1.896549e+04	5.908421e+03	2.963676e+03	0	1.736199e-03
1.300000e+08	8.355134e+13	0.000000e+00	4.195804e-01	1.315789e+15	2.059790e+15	5.548401e+14	1.884808e+04	5.905414e+03	2.962167e+03	0	1.714315e-03
1.400000e+08	8.048052e+13	0.000000e+00	4.195804e-01	1.274470e+15	2.035440e+15	5.518439e+14	1.873439e+04	5.902003e+03	2.960456e+03	0	1.693050e-03
1.500000e+08	7.756778e+13	0.000000e+00	4.195804e-01	1.235249e+15	2.010945e+15	5.488698e+14	1.862424e+04	5.898233e+03	2.958565e+03	0	1.672373e-03
1.600000e+08	7.480228e+13	0.000000e+00	4.195804e-01	1.197985e+15	1.986390e+15	5.459177e+14	1.851743e+04	5.894145e+03	2.956515e+03	0	1.652257e-03
1.700000e+08	7.217411e+13	0.000000e+00	4.195804e-01	1.162545e+15	1.961848e+15	5.429873e+14	1.841382e+04	5.889775e+03	2.954323e+03	0	1.632676e-03
1.800000e+08	6.967417e+13	0.000000e+00	4.195804e-01	1.128809e+15	1.937382e+15	5.400786e+14	1.831324e+04	5.885156e+03	2.952006e+03	0	1.613603e-03
1.900000e+08	6.729413e+13	0.000000e+00	4.195804e-01	1.096668e+15	1.913044e+15	5.371913e+14	1.821555e+04	5.880317e+03	2.949579e+03	0	1.595016e-03
2.000000e+08	6.502629e+13	0.000000e+00	4.195804e-01	1.066020e+15	1.888882e+15	5.343252e+14	1.812061e+04	5.875286e+03	2.947055e+03	0	1.576894e-03
2.100000e+08	6.286358e+13	0.000000e+00	4.195804e-01	1.036771e+15	1.864934e+15	5.314802e+14	1.802830e+04	5.870085e+03	2.944446e+03	0	1.559214e-03
2.200000e+08	6.079950e+13	0.000000e+00	4.195804e-01	1.008835e+15	1.841232e+15	5.286561e+14	1.793850e+04	5.864737e+03	2.941764e+03	0	1.541959e-03
2.300000e+08	5.882802e+13	0.000000e+00	4.195804e-01	9.821328e+14	1.817804e+15	5.258528e+14	1.785109e+04	5.859261e+03	2.939017e+03	0	1.525109e-03
2.400000e+08	5.694356e+13	0.000000e+00	4.195804e-01	9.565900e+14	1.794672e+15	5.230699e+14	1.776598e+04	5.853675e+03	2.936215e+03	0	1.508647e-03
2.500000e+08	5.514099e+13	0.000000e+00	4.195804e-01	9.321389e+14	1.771854e+15	5.203075e+14	1.768306e+04	5.847995e+03	2.933366e+03	0	1.492557e-03
2.600000e+08	5.341553e+13	0.000000e+00	4.195804e-01	9.087161e+14	1.749365e+15	5.175653e+14	1.760224e+04	5.842234e+03	2.930476e+03	0	1.476823e-03
2.700000e+08	5.176275e+13	0.000000e+00	4.195804e-01	8.862630e+14	1.727218e+15	5.148431e+14	1.752343e+04	5.836407e+03	2.927553e+03	0	1.461432e-03
2.800000e+08	5.017854e+13	0.000000e+00	4.195804e-01	8.647252e+14	1.705421e+15	5.121408e+14	1.744656e+04	5.830523e+03	2.924602e+03	0	1.446368e-03
2.900000e+08	4.865907e+13	0.000000e+00	4.195804e-01	8.440518e+14	1.683980e+15	5.094582e+14	1.737154e+04	5.824595e+03	2.921628e+03	0	1.431619e-03
3.000000e+08	4.720078e+13	0.000000e+00	4.195804e-01	8.241959e+14	1.662901e+15	5.067952e+14	1.729829e+04	5.818631e+03	2.918637e+03	0	1.417172e-03
3.100000e+08	4.580037e+13	0.000000e+00	4.195804e-01	8.051133e+14	1.642185e+15	5.041516e+14	1.722676e+04	5.812641e+03	2.915632e+03	0	1.403015e-03
3.200000e+08	4.445473e+13	0.000000e+00	4.195804e-01	7.867630e+14	1.621836e+15	5.015272e+14	1.715687e+04	5.806631e+03	2.912617e+03	0	1.389138e-03
3.300000e+08	4.316098e+13	0.000000e+00	4.195804e-01	7.691069e+14	1.601851e+15	4.989219e+14	1.708855e+04	5.800609e+03	2.909597e+03	0	1.375529e-03
3.400000e+08	4.191642e+13	0.000000e+00	4.195804e-01	7.521089e+14	1.582231e+15	4.963356e+14	1.702176e+04	5.794581e+03	2.906573e+03	0	1.362179e-03
3.500000e+08	4.071853e+13	0.000000e+00	4.195804e-01	7.357357e+14	1.562972e+15	4.937680e+14	1.695644e+04	5.788553e+03	2.903549e+03	0	1.349077e-03
3.600000e+08	3.956495e+13	0.000000e+00	4.195804e-01	7.199559e+14	1.544073e+15	4.912190e+14	1.689252e+04	5.782529e+03	2.900528e+03	0	1.336215e-03
3.700000e+08	3.845346e+13	0.000000e+00	4.195804e-01	7.047401e+14	1.525530e+15	4.886884e+14	1.682997e+04	5.776515e+03	2.897511e+03	0	1.323583e-03
3.800000e+08	3.738199e+13	0.000000e+00	4.195804e-01	6.900607e+14	1.507338e+15	4.861762e+14	1.676873e+04	5.770515e+03	2.894501e+03	0	1.311174e-03
3.900000e+08	3.634859e+13	0.000000e+00	4.195804e-01	6.758918e+14	1.489492e+15	4.836821e+14	1.670875e+04	5.764531e+03	2.891500e+03	0	1.298978e-03
4.000000e+08	3.535143e+13	0.000000e+00	4.195804e-01	6.622091e+14	1.471988e+15	4.812061e+14	1.665000e+04	5.758568e+03	2.888509e+03	0	1.286990e-03
4.100000e+08	3.438880e+13	0.000000e+00	4.195804e-01	6.489898e+14	1.454821e+15	4.787479e+14	1.659243e+04	5.752629e+03	2.885530e+03	0	1.275200e-03
4.200000e+08	3.345907e+13	0.000000e+00	4.195804e-01	6.362123e+14	1.437983e+15	4.763074e+14	1.653600e+04	5.746715e+03	2.882564e+03	0	1.263603e-03
4.300000e+08	3.256072e+13	0.000000e+00	4.195804e-01	6.238563e+14	1.421470e+15	4.738845e+14	1.648067e+04	5.740830e+03	2.879612e+03	0	1.252191e-03
4.400000e+08	3.169232e+13	0.000000e+00	4.195804e-01	6.119028e+14	1.405276e+15	4.714790e+14	1.642641e+04	5.734976e+03	2.876675e+03	0	1.240959e-03
4.500000e+08	3.085252e+13	0.000000e+00	4.195804e-01	6.003337e+14	1.389394e+15	4.690909e+14	1.637319e+04	5.729154e+03	2.873755e+03	0	1.229899e-03
4.600000e+08	3.004003e+13	0.000000e+00	4.195804e-01	5.891320e+14	1.373819e+15	4.667198e+14	1.632096e+04	5.723365e+03	2.870851e+03	0	1.219007e-03
4.700000e+08	2.925366e+13	0.000000e+00	4.195804e-01	5.782818e+14	1.358543e+15	4.643658e+14	1.626970e+04	5.717613e+03	2.867966e+03	0	1.208276e-03
4.800000e+08	2.849226e+13	0.000000e+00	4.195804e-01	5.677677e+14	1.343561e+15	4.620286e+14	1.621938e+04	5.711897e+03	2.865099e+03	0	1.197701e-03
4.900000e+08	2.775476e+13	0.000000e+00	4.195804e-01	5.575756e+14	1.328865e+15	4.597082e+14	1.616997e+04	5.706219e+03	2.862250e+03	0	1.187277e-03
5.000000e+08	2.704014e+13	0.000000e+00	4.195804e-01	5.476917e+14	1.314451e+15	4.574043e+14	1.612144e+04	5.700579e+03	2.859422e+03	0	1.176998e-03
5.100000e+08	2.634744e+13	0.000000e+00	4.195804e-01	5.381032e+14	1.300312e+15	4.551169e+14	1.607377e+04	5.694979e+03	2.856613e+03	0	1.166860e-03
5.200000e+08	2.567574e+13	0.000000e+00	4.195804e-01	5.287980e+14	1.286441e+15	4.528459e+14	1.602692e+04	5.689420e+03	2.853824e+03	0	1.156859e-03
5.300000e+08	2.502418e+13	0.000000e+00	4.195804e-01	5.197644e+14	1.272833e+15	4.505910e+14	1.598088e+04	5.683901e+03	2.851056e+03	0	1.146989e-03
5.400000e+08	2.439194e+13	0.000000e+00	4.195804e-01	5.109917e+14	1.259481e+15	4.483522e+14	1.593562e+04	5.678423e+03	2.848308e+03	0	1.137247e-03
5.500000e+08	2.377824e+13	0.000000e+00	4.195804e-01	5.024692e+14	1.246380e+15	4.461293e+14	1.589112e+04	5.672988e+03	2.845582e+03	0	1.127628e-03
5.600000e+08	2.318234e+13	0.000000e+00	4.195804e-01	4.941873e+14	1.233524e+15	4.439223e+14	1.584736e+04	5.667594e+03	2.842876e+03	0	1.118129e-03
5.700000e+08	2.260353e+13	0.000000e+00	4.195804e-01	4.861364e+14	1.220906e+15	4.417309e+14	1.580432e+04	5.662242e+03	2.840192e+03	0	1.108745e-03
5.800000e+08	2.204116e+13	0.000000e+00	4.195804e-01	4.783077e+14	1.208522e+15	4.395550e+14	1.576197e+04	5.656933e+03	2.837529e+03	0	1.099472e-03
5.900000e+08	2.149459e+13	0.000000e+00	4.195804e-01	4.706927e+14	1.196366e+15	4.373946e+14	1.572030e+04	5.651667e+03	2.834887e+03	0	1.090308e-03
6.000000e+08	2.096320e+13	0.000000e+00	4.195804e-01	4.632833e+14	1.184432e+15	4.352495e+14	1.567930e+04	5.646443e+03	2.832267e+03	0	1.081248e-03
6.100000e+08	2.044644e+13	0.000000e+00	4.195804e-01	4.560718e+14	1.172715e+15	4.331195e+14	1.563893e+04	5.641261e+03	2.829668e+03	0	1.072289e-03
6.200000e+08	1.994375e+13	0.000000e+00	4.195804e-01	4.490509e+14	1.161211e+15	4.310046e+14	1.559919e+04	5.636122e+03	2.827090e+03	0	1.063429e-03
6.300000e+08	1.945460e+13	0.000000e+00	4.195804e-01	4.422136e+14	1.149913e+15	4.289046e+14	1.556005e+04	5.631026e+03	2.824533e+03	0	1.054663e-03
6.400000e+08	1.897851e+13	0.000000e+00	4.195804e-01	4.355532e+14	1.138818e+15	4.268195e+14	1.552151e+04	5.625971e+03	2.821998e+03	0	1.045988e-03
6.500000e+08	1.851499e+13	0.000000e+00	4.195804e-01	4.290635e+14	1.127919e+15	4.247490e+14	1.548355e+04	5.620959e+03	2.819484e+03	0	1.037402e-03
6.600000e+08	1.806360e+13	0.000000e+00	4.195804e-01	4.227382e+14	1.117214e+15	4.226931e+14	1.544615e+04	5.615988e+03	2.816991e+03	0	1.028902e-03
6.700000e+08	1.762390e+13	0.000000e+00	4.195804e-01	4.165717e+14	1.106696e+15	4.206516e+14	1.540930e+04	5.611059e+03	2.814518e+03	0	1.020485e-03
6.800000e+08	1.719547e+13	0.000000e+00	4.195804e-01	4.105584e+14	1.096362e+15	4.186245e+14	1.537298e+04	5.606172e+03	2.812067e+03	0	1.012148e-03
6.900000e+08	1.677794e+13	0.000000e+00	4.195804e-01	4.046930e+14	1.086207e+15	4.166116e+14	1.533719e+04	5.601326e+03	2.809636e+03	0	1.003889e-03
7.000000e+08	1.637091e+13	0.000000e+00	4.195804e-01	3.989704e+14	1.076227e+15	4.146128e+14	1.530190e+04	5.596520e+03	2.807225e+03	0	9.957042e-04
7.100000e+08	1.597403e+13	0.000000e+00	4.195804e-01	3.933859e+14	1.066418e+15	4.126280e+14	1.526711e+04	5.591755e+03	2.804835e+03	0	9.875921e-04
7.200000e+08	1.558695e+13	0.000000e+00	4.195804e-01	3.879347e+14	1.056775e+15	4.106571e+14	1.523281e+04	5.587030e+03	2.802465e+03	0	9.795497e-04
7.300000e+08	1.520935e+13	0.000000e+00	4.195804e-01	3.826125e+14	1.047296e+15	4.087000e+14	1.519897e+04	5.582345e+03	2.800115e+03	0	9.715749e-04
7.400000e+08	1.484090e+13	0.000000e+00	4.195804e-01	3.774150e+14	1.037975e+15	4.067565e+14	1.516560e+04	5.577700e+03	2.797785e+03	0	9.636652e-04
7.500000e+08	1.448131e+13	0.000000e+00	4.195804e-01	3.723381e+14	1.028810e+15	4.048266e+14	1.513268e+04	5.573094e+03	2.795475e+03	0	9.558183e-04
7.600000e+08	1.413028e+13	0.000000e+00	4.195804e-01	3.673779e+14	1.019797e+15	4.029101e+14	1.510021e+04	5.568526e+03	2.793184e+03	0	9.480319e-04
7.700000e+08	1.378753e+13	0.000000e+00	4.195804e-01	3.625307e+14	1.010932e+15	4.010069e+14	1.506816e+04	5.563997e+03	2.790912e+03	0	9.403039e-04
7.800000e+08	1.345280e+13	0.000000e+00	4.195804e-01	3.577929e+14	1.002211e+15	3.991170e+14	1.503653e+04	5.559506e+03	2.788659e+03	0	9.326320e-04
7.900000e+08	1.312584e+13	0.000000e+00	4.195804e-01	3.531611e+14	9.936327e+14	3.972402e+14	1.500532e+04	5.555052e+03	2.786425e+03	0	9.250142e-04
8.000000e+08	1.280639e+13	0.000000e+00	4.195804e-01	3.486319e+14	9.851922e+14	3.953764e+14	1.497450e+04	5.550636e+03	2.784210e+03	0	9.174484e-04
8.100000e+08	1.249422e+13	0.000000e+00	4.195804e-01	3.442022e+14	9.768868e+14	3.935256e+14	1.494408e+04	5.546256e+03	2.782013e+03	0	9.099325e-04
8.200000e+08	1.218911e+13	0.000000e+00	4.195804e-01	3.398690e+14	9.687134e+14	3.916875e+14	1.491405e+04	5.541913e+03	2.779834e+03	0	9.024644e-04
8.300000e+08	1.189083e+13	0.000000e+00	4.195804e-01	3.356292e+14	9.606692e+14	3.898621e+14	1.488439e+04	5.537606e+03	2.777674e+03	0	8.950422e-04
8.400000e+08	1.159919e+13	0.000000e+00	4.195804e-01	3.314801e+14	9.527510e+14	3.880494e+14	1.485510e+04	5.533334e+03	2.775531e+03	0	8.876640e-04
8.500000e+08	1.131397e+13	0.000000e+00	4.195804e-01	3.274190e+14	9.449562e+14	3.862492e+14	1.482617e+04	5.529098e+03	2.773406e+03	0	8.803277e-04
8.600000e+08	1.103498e+13	0.000000e+00	4.195804e-01	3.234432e+14	9.372821e+14	3.844613e+14	1.479760e+04	5.524896e+03	2.771299e+03	0	8.730315e-04
8.700000e+08	1.076204e+13	0.000000e+00	4.195804e-01	3.195503e+14	9.297258e+14	3.826858e+14	1.476937e+04	5.520729e+03	2.769208e+03	0	8.657735e-04
8.800000e+08	1.049497e+13	0.000000e+00	4.195804e-01	3.157378e+14	9.222848e+14	3.809225e+14	1.474147e+04	5.516596e+03	2.767135e+03	0	8.585518e-04
8.900000e+08	1.023360e+13	0.000000e+00	4.195804e-01	3.120034e+14	9.149567e+14	3.791713e+14	1.471391e+04	5.512496e+03	2.765079e+03	0	8.513644e-04
9.000000e+08	9.977753e+12	0.000000e+00	4.195804e-01	3.083449e+14	9.077388e+14	3.774322e+14	1.468667e+04	5.508430e+03	2.763039e+03	0	8.442097e-04
9.100000e+08	9.727281e+12	0.000000e+00	4.195804e-01	3.047602e+14	9.006289e+14	3.757049e+14	1.465976e+04	5.504396e+03	2.761016e+03	0	8.370856e-04
9.200000e+08	9.482026e+12	0.000000e+00	4.195804e-01	3.012470e+14	8.936246e+14	3.739895e+14	1.463315e+04	5.500395e+03	2.759009e+03	0	8.299905e-04
9.300000e+08	9.241839e+12	0.000000e+00	4.195804e-01	2.978035e+14	8.867237e+14	3.722858e+14	1.460685e+04	5.496425e+03	2.757018e+03	0	8.229224e-04
9.400000e+08	9.006578e+12	0.000000e+00	4.195804e-01	2.944277e+14	8.799238e+14	3.705938e+14	1.458085e+04	5.492488e+03	2.755042e+03	0	8.158795e-04
9.500000e+08	8.776105e+12	0.000000e+00	4.195804e-01	2.911178e+14	8.732230e+14	3.689133e+14	1.455514e+04	5.488581e+03	2.753083e+03	0	8.088600e-04
9.600000e+08	8.550287e+12	0.000000e+00	4.195804e-01	2.878719e+14	8.666190e+14	3.672442e+14	1.452972e+04	5.484705e+03	2.751139e+03	0	8.018620e-04
9.700000e+08	8.328995e+12	0.000000e+00	4.195804e-01	2.846882e+14	8.601098e+14	3.655866e+14	1.450458e+04	5.480860e+03	2.749210e+03	0	7.948837e-04
9.800000e+08	8.112106e+12	0.000000e+00	4.195804e-01	2.815652e+14	8.536935e+14	3.639402e+14	1.447972e+04	5.477045e+03	2.747296e+03	0	7.879233e-04
9.900000e+08	7.899500e+12	0.000000e+00	4.195804e-01	2.785013e+14	8.473681e+14	3.623050e+14	1.445513e+04	5.473259e+03	2.745398e+03	0	7.809789e-04
1.000000e+09	7.691062e+12	0.000000e+00	4.195804e-01	2.754947e+14	8.411318e+14	3.606809e+14	1.443081e+04	5.469503e+03	2.743514e+03	0	7.740485e-04
1.010000e+09	7.486679e+12	0.000000e+00	4.195804e-01	2.725441e+14	8.349826e+14	3.590678e+14	1.440675e+04	5.465776e+03	2.741644e+03	0	7.671303e-04
1.020000e+09	7.286246e+12	0.000000e+00	4.195804e-01	2.696480e+14	8.289189e+14	3.574657e+14	1.438294e+04	5.462078e+03	2.739789e+03	0	7.602224e-04
1.030000e+09	7.089656e+12	0.000000e+00	4.195804e-01	2.668049e+14	8.229389e+14	3.558743e+14	1.435939e+04	5.458407e+03	2.737948e+03	0	7.533228e-04
1.040000e+09	6.896811e+12	0.000000e+00	4.195804e-01	2.640135e+14	8.170409e+14	3.542938e+14	1.433608e+04	5.454765e+03	2.736121e+03	0	7.464296e-04
1.050000e+09	6.707612e+12	0.000000e+00	4.195804e-01	2.612725e+14	8.112232e+14	3.527239e+14	1.431302e+04	5.451150e+03	2.734307e+03	0	7.395406e-04
1.060000e+09	6.521965e+12	0.000000e+00	4.195804e-01	2.585806e+14	8.054842e+14	3.511646e+14	1.429020e+04	5.447562e+03	2.732508e+03	0	7.326539e-04
1.070000e+09	6.339779e+12	0.000000e+00	4.195804e-01	2.559365e+14	7.998224e+14	3.496158e+14	1.426761e+04	5.444001e+03	2.730722e+03	0	7.257674e-04
1.080000e+09	6.160967e+12	0.000000e+00	4.195804e-01	2.533392e+14	7.942362e+14	3.480774e+14	1.424525e+04	5.440467e+03	2.728949e+03	0	7.188789e-04
1.090000e+09	5.985443e+12	0.000000e+00	4.195804e-01	2.507873e+14	7.887242e+14	3.465494e+14	1.422312e+04	5.436959e+03	2.727189e+03	0	7.119861e-04
1.100000e+09	5.813125e+12	0.000000e+00	4.195804e-01	2.482798e+14	7.832849e+14	3.450316e+14	1.420121e+04	5.433476e+03	2.725442e+03	0	7.050869e-04
1.110000e+09	5.643932e+12	0.000000e+00	4.195804e-01	2.458157e+14	7.779169e+14	3.435241e+14	1.417951e+04	5.430020e+03	2.723708e+03	0	6.981788e-04
1.120000e+09	5.477788e+12	0.000000e+00	4.195804e-01	2.433938e+14	7.726187e+14	3.420266e+14	1.415804e+04	5.426588e+03	2.721987e+03	0	6.912596e-04
1.130000e+09	5.314617e+12	0.000000e+00	4.195804e-01	2.410131e+14	7.673892e+14	3.405391e+14	1.413677e+04	5.423181e+03	2.720278e+03	0	6.843266e-04
1.140000e+09	5.154348e+12	0.000000e+00	4.195804e-01	2.386727e+14	7.622269e+14	3.390616e+14	1.411571e+04	5.419799e+03	2.718582e+03	0	6.773773e-04
1.150000e+09	4.996909e+12	0.000000e+00	4.195804e-01	2.363715e+14	7.571305e+14	3.375939e+14	1.409485e+04	5.416442e+03	2.716898e+03	0	6.704091e-04
1.160000e+09	4.842232e+12	0.000000e+00	4.195804e-01	2.341088e+14	7.520989e+14	3.361360e+14	1.407420e+04	5.413108e+03	2.715225e+03	0	6.634191e-04
1.170000e+09	4.690252e+12	0.000000e+00	4.195804e-01	2.318835e+14	7.471308e+14	3.346879e+14	1.405374e+04	5.409798e+03	2.713565e+03	0	6.564044e-04
1.180000e+09	4.540904e+12	0.000000e+00	4.195804e-01	2.296948e+14	7.422250e+14	3.332494e+14	1.403347e+04	5.406511e+03	2.711916e+03	0	6.493620e-04
1.190000e+09	4.394126e+12	0.000000e+00	4.195804e-01	2.275418e+14	7.373803e+14	3.318204e+14	1.401340e+04	5.403247e+03	2.710279e+03	0	6.422887e-04
1.200000e+09	4.249858e+12	0.000000e+00	4.195804e-01	2.254237e+14	7.325957e+14	3.304009e+14	1.399351e+04	5.400006e+03	2.708654e+03	0	6.351811e-04
1.210000e+09	4.108042e+12	0.000000e+00	4.195804e-01	2.233398e+14	7.278700e+14	3.289909e+14	1.397381e+04	5.396788e+03	2.707040e+03	0	6.280358e-04
1.220000e+09	3.968620e+12	0.000000e+00	4.195804e-01	2.212892e+14	7.232021e+14	3.275902e+14	1.395429e+04	5.393592e+03	2.705436e+03	0	6.208489e-04
1.230000e+09	3.831538e+12	0.000000e+00	4.195804e-01	2.192713e+14	7.185911e+14	3.261987e+14	1.393495e+04	5.390418e+03	2.703844e+03	0	6.136166e-04
1.240000e+09	3.696742e+12	0.000000e+00	4.195804e-01	2.172852e+14	7.140358e+14	3.248165e+14	1.391578e+04	5.387266e+03	2.702263e+03	0	6.063347e-04
1.250000e+09	3.564180e+12	0.000000e+00	4.195804e-01	2.153302e+14	7.095353e+14	3.234433e+14	1.389679e+04	5.384135e+03	2.700693e+03	0	5.989988e-04
1.260000e+09	3.433801e+12	0.000000e+00	4.195804e-01	2.134057e+14	7.050885e+14	3.220793e+14	1.387797e+04	5.381026e+03	2.699133e+03	0	5.916040e-04
1.270000e+09	3.305557e+12	0.000000e+00	4.195804e-01	2.115111e+14	7.006946e+14	3.207242e+14	1.385931e+04	5.377937e+03	2.697584e+03	0	5.841454e-04
1.280000e+09	3.179401e+12	0.000000e+00	4.195804e-01	2.096455e+14	6.963526e+14	3.193780e+14	1.384082e+04	5.374869e+03	2.696045e+03	0	5.766175e-04
1.290000e+09	3.055285e+12	0.000000e+00	4.195804e-01	2.078085e+14	6.920616e+14	3.180407e+14	1.382250e+04	5.371822e+03	2.694516e+03	0	5.690145e-04
1.300000e+09	2.933165e+12	0.000000e+00	4.195804e-01	2.059994e+14	6.878206e+14	3.167121e+14	1.380433e+04	5.368794e+03	2.692998e+03	0	5.613300e-04
1.310000e+09	2.812998e+12	0.000000e+00	4.195804e-01	2.042176e+14	6.836289e+14	3.153923e+14	1.378632e+04	5.365787e+03	2.691489e+03	0	5.535572e-04
1.320000e+09	2.694740e+12	0.000000e+00	4.195804e-01	2.024626e+14	6.794856e+14	3.140811e+14	1.376847e+04	5.362799e+03	2.689991e+03	0	5.456888e-04
1.330000e+09	2.578350e+12	0.000000e+00	4.195804e-01	2.007337e+14	6.753898e+14	3.127785e+14	1.375077e+04	5.359831e+03	2.688502e+03	0	5.377165e-04
1.340000e+09	2.463789e+12	0.000000e+00	4.195804e-01	1.990304e+14	6.713407e+14	3.114843e+14	1.373321e+04	5.356882e+03	2.687023e+03	0	5.296317e-04
1.350000e+09	2.351018e+12	0.000000e+00	4.195804e-01	1.973521e+14	6.673376e+14	3.101987e+14	1.371581e+04	5.353953e+03	2.685553e+03	0	5.214244e-04
1.360000e+09	2.239997e+12	0.000000e+00	4.195804e-01	1.956985e+14	6.633796e+14	3.089214e+14	1.369856e+04	5.351042e+03	2.684093e+03	0	5.130841e-04
