#t		Qconv[W]	Ri[Rp]		R*[Rp]		Qc[W]		Qm[W]		Qr[W]		Tcmb[K]		Tl[K]		Tup[K]		RiFlag		Bs[T]
0.000000e+00	1.594002e+14	0.000000e+00	4.195804e-01	2.292241e+15	2.217435e+15	6.281978e+14	2.160016e+04	6.027127e+03	2.984026e+03	0	2.123443e-03
1.000000e+07	1.521966e+14	0.000000e+00	4.195804e-01	2.199443e+15	2.222923e+15	6.247171e+14	2.141538e+04	6.039130e+03	2.989969e+03	0	2.090961e-03
2.000000e+07	1.454551e+14	0.000000e+00	4.195804e-01	2.112536e+15	2.224675e+15	6.212625e+14	2.123797e+04	6.049392e+03	2.995050e+03	0	2.059621e-03
3.000000e+07	1.391367e+14	0.000000e+00	4.195804e-01	2.031026e+15	2.223102e+15	6.178337e+14	2.106747e+04	6.058080e+03	2.999351e+03	0	2.029356e-03
4.000000e+07	1.332064e+14	0.000000e+00	4.195804e-01	1.954469e+15	2.218586e+15	6.144304e+14	2.090345e+04	6.065343e+03	3.002947e+03	0	2.000105e-03
5.000000e+07	1.276329e+14	0.000000e+00	4.195804e-01	1.882466e+15	2.211472e+15	6.110526e+14	2.074554e+04	6.071316e+03	3.005905e+03	0	1.971811e-03
6.000000e+07	1.223879e+14	0.000000e+00	4.195804e-01	1.814658e+15	2.202079e+15	6.076999e+14	2.059337e+04	6.076123e+03	3.008284e+03	0	1.944421e-03
7.000000e+07	1.174458e+14	0.000000e+00	4.195804e-01	1.750720e+15	2.190694e+15	6.043722e+14	2.044661e+04	6.079872e+03	3.010141e+03	0	1.917889e-03
8.000000e+07	1.127836e+14	0.000000e+00	4.195804e-01	1.690360e+15	2.177578e+15	6.010693e+14	2.030495e+04	6.082667e+03	3.011524e+03	0	1.892167e-03
9.000000e+07	1.083803e+14	0.000000e+00	4.195804e-01	1.633311e+15	2.162963e+15	5.977909e+14	2.016812e+04	6.084596e+03	3.012480e+03	0	1.867216e-03
1.000000e+08	1.042171e+14	0.000000e+00	4.195804e-01	1.579332e+15	2.147062e+15	5.945368e+14	2.003585e+04	6.085744e+03	3.013048e+03	0	1.842994e-03
1.100000e+08	1.002765e+14	0.000000e+00	4.195804e-01	1.528202e+15	2.130063e+15	5.913069e+14	1.990790e+04	6.086185e+03	3.013266e+03	0	1.819467e-03
1.200000e+08	9.654293e+13	0.000000e+00	4.195804e-01	1.479722e+15	2.112135e+15	5.881010e+14	1.978404e+04	6.085985e+03	3.013167e+03	0	1.796599e-03
1.300000e+08	9.300189e+13	0.000000e+00	4.195804e-01	1.433709e+15	2.093430e+15	5.849187e+14	1.966407e+04	6.085208e+03	3.012782e+03	0	1.774359e-03
1.400000e+08	8.964026e+13	0.000000e+00	4.195804e-01	1.389993e+15	2.074082e+15	5.817601e+14	1.954779e+04	6.083909e+03	3.012139e+03	0	1.752718e-03
1.500000e+08	8.644599e+13	0.000000e+00	4.195804e-01	1.348424e+15	2.054211e+15	5.786247e+14	1.943502e+04	6.082137e+03	3.011262e+03	0	1.731647e-03
1.600000e+08	8.340803e+13	0.000000e+00	4.195804e-01	1.308858e+15	2.033923e+15	5.755126e+14	1.932558e+04	6.079940e+03	3.010174e+03	0	1.711119e-03
1.700000e+08	8.051623e+13	0.000000e+00	4.195804e-01	1.271168e+15	2.013311e+15	5.724234e+14	1.921932e+04	6.077360e+03	3.008897e+03	0	1.691111e-03
1.800000e+08	7.776124e+13	0.000000e+00	4.195804e-01	1.235234e+15	1.992460e+15	5.693569e+14	1.911609e+04	6.074433e+03	3.007447e+03	0	1.671599e-03
1.900000e+08	7.513446e+13	0.000000e+00	4.195804e-01	1.200946e+15	1.971443e+15	5.663131e+14	1.901575e+04	6.071194e+03	3.005844e+03	0	1.652561e-03
2.000000e+08	7.262796e+13	0.000000e+00	4.195804e-01	1.168202e+15	1.950324e+15	5.632917e+14	1.891817e+04	6.067675e+03	3.004102e+03	0	1.633976e-03
2.100000e+08	7.023439e+13	0.000000e+00	4.195804e-01	1.136910e+15	1.929161e+15	5.602924e+14	1.882322e+04	6.063905e+03	3.002235e+03	0	1.615825e-03
2.200000e+08	6.794698e+13	0.000000e+00	4.195804e-01	1.106983e+15	1.908002e+15	5.573152e+14	1.873080e+04	6.059908e+03	3.000257e+03	0	1.598089e-03
2.300000e+08	6.575944e+13	0.000000e+00	4.195804e-01	1.078341e+15	1.886892e+15	5.543599e+14	1.864078e+04	6.055710e+03	2.998178e+03	0	1.580752e-03
2.400000e+08	6.366597e+13	0.000000e+00	4.195804e-01	1.050908e+15	1.865868e+15	5.514262e+14	1.855307e+04	6.051331e+03	2.996010e+03	0	1.563796e-03
2.500000e+08	6.166116e+13	0.000000e+00	4.195804e-01	1.024617e+15	1.844963e+15	5.485140e+14	1.846757e+04	6.046791e+03	2.993762e+03	0	1.547206e-03
2.600000e+08	5.973998e+13	0.000000e+00	4.195804e-01	9.994033e+14	1.824206e+15	5.456231e+14	1.838419e+04	6.042108e+03	2.991444e+03	0	1.530968e-03
2.700000e+08	5.789778e+13	0.000000e+00	4.195804e-01	9.752068e+14	1.803621e+15	5.427534e+14	1.830285e+04	6.037298e+03	2.989062e+03	0	1.515066e-03
2.800000e+08	5.613021e+13	0.000000e+00	4.195804e-01	9.519723e+14	1.783229e+15	5.399046e+14	1.822346e+04	6.032376e+03	2.986625e+03	0	1.499489e-03
2.900000e+08	5.443323e+13	0.000000e+00	4.195804e-01	9.296479e+14	1.763048e+15	5.370766e+14	1.814594e+04	6.027356e+03	2.984140e+03	0	1.484222e-03
3.000000e+08	5.280304e+13	0.000000e+00	4.195804e-01	9.081853e+14	1.743093e+15	5.342692e+14	1.807023e+04	6.022249e+03	2.981611e+03	0	1.469255e-03
3.100000e+08	5.123614e+13	0.000000e+00	4.195804e-01	8.875394e+14	1.723376e+15	5.314823e+14	1.799625e+04	6.017068e+03	2.979046e+03	0	1.454576e-03
3.200000e+08	4.972923e+13	0.000000e+00	4.195804e-01	8.676680e+14	1.703908e+15	5.287157e+14	1.792394e+04	6.011822e+03	2.976449e+03	0	1.440174e-03
3.300000e+08	4.827921e+13	0.000000e+00	4.195804e-01	8.485317e+14	1.684698e+15	5.259691e+14	1.785324e+04	6.006520e+03	2.973824e+03	0	1.426038e-03
3.400000e+08	4.688322e+13	0.000000e+00	4.195804e-01	8.300934e+14	1.665752e+15	5.232426e+14	1.778408e+04	6.001172e+03	2.971176e+03	0	1.412159e-03
3.500000e+08	4.553854e+13	0.000000e+00	4.195804e-01	8.123186e+14	1.647075e+15	5.205358e+14	1.771642e+04	5.995786e+03	2.968509e+03	0	1.398526e-03
3.600000e+08	4.424263e+13	0.000000e+00	4.195804e-01	7.951746e+14	1.628671e+15	5.178486e+14	1.765019e+04	5.990367e+03	2.965827e+03	0	1.385132e-03
3.700000e+08	4.299312e+13	0.000000e+00	4.195804e-01	7.786311e+14	1.610544e+15	5.151809e+14	1.758535e+04	5.984923e+03	2.963131e+03	0	1.371968e-03
3.800000e+08	4.178778e+13	0.000000e+00	4.195804e-01	7.626593e+14	1.592694e+15	5.125324e+14	1.752185e+04	5.979460e+03	2.960427e+03	0	1.359025e-03
3.900000e+08	4.062450e+13	0.000000e+00	4.195804e-01	7.472322e+14	1.575123e+15	5.099032e+14	1.745965e+04	5.973983e+03	2.957715e+03	0	1.346295e-03
4.000000e+08	3.950130e+13	0.000000e+00	4.195804e-01	7.323245e+14	1.557830e+15	5.072929e+14	1.739869e+04	5.968497e+03	2.954999e+03	0	1.333771e-03
4.100000e+08	3.841632e+13	0.000000e+00	4.195804e-01	7.179123e+14	1.540816e+15	5.047014e+14	1.733894e+04	5.963006e+03	2.952280e+03	0	1.321446e-03
4.200000e+08	3.736781e+13	0.000000e+00	4.195804e-01	7.039731e+14	1.524078e+15	5.021286e+14	1.728036e+04	5.957515e+03	2.949561e+03	0	1.309313e-03
4.300000e+08	3.635411e+13	0.000000e+00	4.195804e-01	6.904855e+14	1.507615e+15	4.995744e+14	1.722290e+04	5.952027e+03	2.946844e+03	0	1.297365e-03
4.400000e+08	3.537367e+13	0.000000e+00	4.195804e-01	6.774297e+14	1.491424e+15	4.970385e+14	1.716655e+04	5.946545e+03	2.944131e+03	0	1.285596e-03
4.500000e+08	3.442502e+13	0.000000e+00	4.195804e-01	6.647866e+14	1.475504e+15	4.945209e+14	1.711125e+04	5.941074e+03	2.941422e+03	0	1.273999e-03
4.600000e+08	3.350675e+13	0.000000e+00	4.195804e-01	6.525384e+14	1.459851e+15	4.920213e+14	1.705697e+04	5.935614e+03	2.938719e+03	0	1.262569e-03
4.700000e+08	3.261757e+13	0.000000e+00	4.195804e-01	6.406681e+14	1.444462e+15	4.895396e+14	1.700369e+04	5.930170e+03	2.936023e+03	0	1.251300e-03
4.800000e+08	3.175621e+13	0.000000e+00	4.195804e-01	6.291598e+14	1.429333e+15	4.870758e+14	1.695137e+04	5.924743e+03	2.933336e+03	0	1.240187e-03
4.900000e+08	3.092151e+13	0.000000e+00	4.195804e-01	6.179982e+14	1.414462e+15	4.846295e+14	1.689999e+04	5.919335e+03	2.930659e+03	0	1.229224e-03
5.000000e+08	3.011234e+13	0.000000e+00	4.195804e-01	6.071691e+14	1.399843e+15	4.822008e+14	1.684951e+04	5.913949e+03	2.927992e+03	0	1.218407e-03
5.100000e+08	2.932766e+13	0.000000e+00	4.195804e-01	5.966587e+14	1.385473e+15	4.797894e+14	1.679991e+04	5.908585e+03	2.925337e+03	0	1.207731e-03
5.200000e+08	2.856646e+13	0.000000e+00	4.195804e-01	5.864543e+14	1.371348e+15	4.773952e+14	1.675116e+04	5.903246e+03	2.922693e+03	0	1.197190e-03
5.300000e+08	2.782779e+13	0.000000e+00	4.195804e-01	5.765435e+14	1.357464e+15	4.750181e+14	1.670325e+04	5.897933e+03	2.920063e+03	0	1.186781e-03
5.400000e+08	2.711074e+13	0.000000e+00	4.195804e-01	5.669147e+14	1.343817e+15	4.726580e+14	1.665613e+04	5.892646e+03	2.917445e+03	0	1.176499e-03
5.500000e+08	2.641446e+13	0.000000e+00	4.195804e-01	5.575568e+14	1.330403e+15	4.703146e+14	1.660980e+04	5.887388e+03	2.914842e+03	0	1.166339e-03
5.600000e+08	2.573814e+13	0.000000e+00	4.195804e-01	5.484594e+14	1.317216e+15	4.679879e+14	1.656424e+04	5.882159e+03	2.912253e+03	0	1.156299e-03
5.700000e+08	2.508099e+13	0.000000e+00	4.195804e-01	5.396124e+14	1.304254e+15	4.656777e+14	1.651941e+04	5.876959e+03	2.909679e+03	0	1.146373e-03
5.800000e+08	2.444228e+13	0.000000e+00	4.195804e-01	5.310063e+14	1.291511e+15	4.633839e+14	1.647529e+04	5.871791e+03	2.907119e+03	0	1.136558e-03
5.900000e+08	2.382132e+13	0.000000e+00	4.195804e-01	5.226321e+14	1.278984e+15	4.611063e+14	1.643188e+04	5.866653e+03	2.904576e+03	0	1.126850e-03
6.000000e+08	2.321742e+13	0.000000e+00	4.195804e-01	5.144812e+14	1.266668e+15	4.588449e+14	1.638915e+04	5.861548e+03	2.902048e+03	0	1.117246e-03
6.100000e+08	2.262997e+13	0.000000e+00	4.195804e-01	5.065452e+14	1.254559e+15	4.565995e+14	1.634708e+04	5.856474e+03	2.899536e+03	0	1.107743e-03
6.200000e+08	2.205834e+13	0.000000e+00	4.195804e-01	4.988164e+14	1.242654e+15	4.543699e+14	1.630566e+04	5.851434e+03	2.897041e+03	0	1.098336e-03
6.300000e+08	2.150196e+13	0.000000e+00	4.195804e-01	4.912873e+14	1.230947e+15	4.521561e+14	1.626487e+04	5.846427e+03	2.894562e+03	0	1.089023e-03
6.400000e+08	2.096027e+13	0.000000e+00	4.195804e-01	4.839508e+14	1.219435e+15	4.499579e+14	1.622469e+04	5.841453e+03	2.892100e+03	0	1.079800e-03
6.500000e+08	2.043276e+13	0.000000e+00	4.195804e-01	4.768000e+14	1.208113e+15	4.477752e+14	1.618510e+04	5.836513e+03	2.889654e+03	0	1.070664e-03
6.600000e+08	1.991892e+13	0.000000e+00	4.195804e-01	4.698284e+14	1.196979e+15	4.456078e+14	1.614610e+04	5.831607e+03	2.887225e+03	0	1.061613e-03
6.700000e+08	1.941826e+13	0.000000e+00	4.195804e-01	4.630298e+14	1.186027e+15	4.434557e+14	1.610767e+04	5.826735e+03	2.884813e+03	0	1.052643e-03
6.800000e+08	1.893033e+13	0.000000e+00	4.195804e-01	4.563982e+14	1.175255e+15	4.413187e+14	1.606978e+04	5.821897e+03	2.882417e+03	0	1.043751e-03
6.900000e+08	1.845469e+13	0.000000e+00	4.195804e-01	4.499281e+14	1.164658e+15	4.391967e+14	1.603244e+04	5.817094e+03	2.880039e+03	0	1.034935e-03
7.000000e+08	1.799091e+13	0.000000e+00	4.195804e-01	4.436138e+14	1.154233e+15	4.370895e+14	1.599563e+04	5.812325e+03	2.877678e+03	0	1.026192e-03
7.100000e+08	1.753860e+13	0.000000e+00	4.195804e-01	4.374502e+14	1.143977e+15	4.349971e+14	1.595933e+04	5.807589e+03	2.875334e+03	0	1.017519e-03
7.200000e+08	1.709737e+13	0.000000e+00	4.195804e-01	4.314323e+14	1.133885e+15	4.329194e+14	1.592353e+04	5.802889e+03	2.873006e+03	0	1.008914e-03
7.300000e+08	1.666685e+13	0.000000e+00	4.195804e-01	4.255553e+14	1.123954e+15	4.308561e+14	1.588822e+04	5.798222e+03	2.870696e+03	0	1.000373e-03
7.400000e+08	1.624668e+13	0.000000e+00	4.195804e-01	4.198147e+14	1.114181e+15	4.288073e+14	1.585339e+04	5.793589e+03	2.868402e+03	0	9.918954e-04
7.500000e+08	1.583654e+13	0.000000e+00	4.195804e-01	4.142060e+14	1.104562e+15	4.267727e+14	1.581903e+04	5.788991e+03	2.866125e+03	0	9.834775e-04
7.600000e+08	1.543609e+13	0.000000e+00	4.195804e-01	4.087250e+14	1.095095e+15	4.247523e+14	1.578512e+04	5.784426e+03	2.863865e+03	0	9.751171e-04
7.700000e+08	1.504503e+13	0.000000e+00	4.195804e-01	4.033677e+14	1.085775e+15	4.227460e+14	1.575166e+04	5.779894e+03	2.861622e+03	0	9.668118e-04
7.800000e+08	1.466304e+13	0.000000e+00	4.195804e-01	3.981302e+14	1.076601e+15	4.207536e+14	1.571864e+04	5.775397e+03	2.859395e+03	0	9.585593e-04
7.900000e+08	1.428986e+13	0.000000e+00	4.195804e-01	3.930088e+14	1.067568e+15	4.187751e+14	1.568605e+04	5.770932e+03	2.857185e+03	0	9.503573e-04
8.000000e+08	1.392519e+13	0.000000e+00	4.195804e-01	3.879998e+14	1.058674e+15	4.168103e+14	1.565387e+04	5.766501e+03	2.854991e+03	0	9.422035e-04
8.100000e+08	1.356878e+13	0.000000e+00	4.195804e-01	3.830999e+14	1.049917e+15	4.148591e+14	1.562210e+04	5.762103e+03	2.852813e+03	0	9.340955e-04
8.200000e+08	1.322038e+13	0.000000e+00	4.195804e-01	3.783058e+14	1.041292e+15	4.129214e+14	1.559073e+04	5.757737e+03	2.850652e+03	0	9.260312e-04
8.300000e+08	1.287973e+13	0.000000e+00	4.195804e-01	3.736141e+14	1.032798e+15	4.109971e+14	1.555975e+04	5.753404e+03	2.848506e+03	0	9.180082e-04
8.400000e+08	1.254661e+13	0.000000e+00	4.195804e-01	3.690220e+14	1.024432e+15	4.090861e+14	1.552915e+04	5.749103e+03	2.846377e+03	0	9.100245e-04
8.500000e+08	1.222078e+13	0.000000e+00	4.195804e-01	3.645265e+14	1.016190e+15	4.071882e+14	1.549893e+04	5.744834e+03	2.844263e+03	0	9.020777e-04
8.600000e+08	1.190203e+13	0.000000e+00	4.195804e-01	3.601247e+14	1.008071e+15	4.053035e+14	1.546907e+04	5.740596e+03	2.842165e+03	0	8.941657e-04
8.700000e+08	1.159016e+13	0.000000e+00	4.195804e-01	3.558138e+14	1.000072e+15	4.034317e+14	1.543958e+04	5.736391e+03	2.840083e+03	0	8.862864e-04
8.800000e+08	1.128495e+13	0.000000e+00	4.195804e-01	3.515914e+14	9.921903e+14	4.015728e+14	1.541043e+04	5.732216e+03	2.838016e+03	0	8.784374e-04
8.900000e+08	1.098622e+13	0.000000e+00	4.195804e-01	3.474548e+14	9.844236e+14	3.997267e+14	1.538163e+04	5.728072e+03	2.835965e+03	0	8.706168e-04
9.000000e+08	1.069377e+13	0.000000e+00	4.195804e-01	3.434016e+14	9.767697e+14	3.978932e+14	1.535317e+04	5.723959e+03	2.833928e+03	0	8.628221e-04
9.100000e+08	1.040744e+13	0.000000e+00	4.195804e-01	3.394294e+14	9.692261e+14	3.960724e+14	1.532503e+04	5.719876e+03	2.831907e+03	0	8.550514e-04
9.200000e+08	1.012703e+13	0.000000e+00	4.195804e-01	3.355361e+14	9.617906e+14	3.942639e+14	1.529723e+04	5.715824e+03	2.829900e+03	0	8.473023e-04
9.300000e+08	9.852399e+12	0.000000e+00	4.195804e-01	3.317194e+14	9.544611e+14	3.924679e+14	1.526974e+04	5.711801e+03	2.827909e+03	0	8.395727e-04
9.400000e+08	9.583370e+12	0.000000e+00	4.195804e-01	3.279771e+14	9.472355e+14	3.906841e+14	1.524256e+04	5.707807e+03	2.825931e+03	0	8.318603e-04
9.500000e+08	9.319792e+12	0.000000e+00	4.195804e-01	3.243074e+14	9.401115e+14	3.889125e+14	1.521568e+04	5.703843e+03	2.823969e+03	0	8.241629e-04
9.600000e+08	9.061513e+12	0.000000e+00	4.195804e-01	3.207081e+14	9.330873e+14	3.871530e+14	1.518911e+04	5.699908e+03	2.822020e+03	0	8.164781e-04
9.700000e+08	8.808390e+12	0.000000e+00	4.195804e-01	3.171775e+14	9.261608e+14	3.854055e+14	1.516283e+04	5.696001e+03	2.820086e+03	0	8.088037e-04
9.800000e+08	8.560281e+12	0.000000e+00	4.195804e-01	3.137136e+14	9.193301e+14	3.836698e+14	1.513683e+04	5.692123e+03	2.818166e+03	0	8.011374e-04
9.900000e+08	8.317053e+12	0.000000e+00	4.195804e-01	3.103148e+14	9.125934e+14	3.819460e+14	1.511112e+04	5.688273e+03	2.816260e+03	0	7.934766e-04
1.000000e+09	8.078573e+12	0.000000e+00	4.195804e-01	3.069792e+14	9.059486e+14	3.802339e+14	1.508569e+04	5.684450e+03	2.814367e+03	0	7.858190e-04
1.010000e+09	7.844717e+12	0.000000e+00	4.195804e-01	3.037053e+14	8.993942e+14	3.785333e+14	1.506053e+04	5.680655e+03	2.812488e+03	0	7.781621e-04
1.020000e+09	7.615362e+12	0.000000e+00	4.195804e-01	3.004915e+14	8.929282e+14	3.768443e+14	1.503564e+04	5.676887e+03	2.810623e+03	0	7.705033e-04
1.030000e+09	7.390391e+12	0.000000e+00	4.195804e-01	2.973361e+14	8.865490e+14	3.751667e+14	1.501101e+04	5.673146e+03	2.808771e+03	0	7.628400e-04
1.040000e+09	7.169689e+12	0.000000e+00	4.195804e-01	2.942378e+14	8.802550e+14	3.735005e+14	1.498664e+04	5.669432e+03	2.806932e+03	0	7.551695e-04
1.050000e+09	6.953147e+12	0.000000e+00	4.195804e-01	2.911951e+14	8.740444e+14	3.718455e+14	1.496252e+04	5.665744e+03	2.805106e+03	0	7.474889e-04
1.060000e+09	6.740657e+12	0.000000e+00	4.195804e-01	2.882066e+14	8.679157e+14	3.702017e+14	1.493865e+04	5.662082e+03	2.803293e+03	0	7.397955e-04
1.070000e+09	6.532117e+12	0.000000e+00	4.195804e-01	2.852709e+14	8.618673e+14	3.685689e+14	1.491502e+04	5.658446e+03	2.801493e+03	0	7.320863e-04
1.080000e+09	6.327426e+12	0.000000e+00	4.195804e-01	2.823867e+14	8.558978e+14	3.669472e+14	1.489164e+04	5.654835e+03	2.799705e+03	0	7.243581e-04
1.090000e+09	6.126489e+12	0.000000e+00	4.195804e-01	2.795527e+14	8.500055e+14	3.653363e+14	1.486848e+04	5.651250e+03	2.797930e+03	0	7.166078e-04
1.100000e+09	5.929211e+12	0.000000e+00	4.195804e-01	2.767678e+14	8.441891e+14	3.637362e+14	1.484556e+04	5.647689e+03	2.796167e+03	0	7.088319e-04
1.110000e+09	5.735502e+12	0.000000e+00	4.195804e-01	2.740307e+14	8.384472e+14	3.621469e+14	1.482287e+04	5.644153e+03	2.794416e+03	0	7.010271e-04
1.120000e+09	5.545275e+12	0.000000e+00	4.195804e-01	2.713403e+14	8.327784e+14	3.605683e+14	1.480040e+04	5.640642e+03	2.792678e+03	0	6.931895e-04
1.130000e+09	5.358443e+12	0.000000e+00	4.195804e-01	2.686954e+14	8.271813e+14	3.590002e+14	1.477816e+04	5.637154e+03	2.790951e+03	0	6.853154e-04
1.140000e+09	5.174926e+12	0.000000e+00	4.195804e-01	2.660950e+14	8.216546e+14	3.574425e+14	1.475612e+04	5.633691e+03	2.789236e+03	0	6.774008e-04
1.150000e+09	4.994642e+12	0.000000e+00	4.195804e-01	2.635380e+14	8.161970e+14	3.558953e+14	1.473430e+04	5.630251e+03	2.787533e+03	0	6.694412e-04
1.160000e+09	4.817515e+12	0.000000e+00	4.195804e-01	2.610235e+14	8.108072e+14	3.543584e+14	1.471269e+04	5.626834e+03	2.785842e+03	0	6.614322e-04
1.170000e+09	4.643469e+12	0.000000e+00	4.195804e-01	2.585504e+14	8.054841e+14	3.528317e+14	1.469129e+04	5.623440e+03	2.784162e+03	0	6.533689e-04
1.180000e+09	4.472431e+12	0.000000e+00	4.195804e-01	2.561177e+14	8.002264e+14	3.513152e+14	1.467008e+04	5.620070e+03	2.782493e+03	0	6.452463e-04
1.190000e+09	4.304332e+12	0.000000e+00	4.195804e-01	2.537246e+14	7.950330e+14	3.498088e+14	1.464908e+04	5.616721e+03	2.780835e+03	0	6.370589e-04
1.200000e+09	4.139102e+12	0.000000e+00	4.195804e-01	2.513700e+14	7.899026e+14	3.483124e+14	1.462827e+04	5.613396e+03	2.779188e+03	0	6.288007e-04
1.210000e+09	3.976675e+12	0.000000e+00	4.195804e-01	2.490533e+14	7.848343e+14	3.468259e+14	1.460765e+04	5.610092e+03	2.777553e+03	0	6.204655e-04
1.220000e+09	3.816986e+12	0.000000e+00	4.195804e-01	2.467734e+14	7.798269e+14	3.453492e+14	1.458723e+04	5.606810e+03	2.775928e+03	0	6.120466e-04
1.230000e+09	3.659972e+12	0.000000e+00	4.195804e-01	2.445296e+14	7.748792e+14	3.438824e+14	1.456699e+04	5.603549e+03	2.774313e+03	0	6.035366e-04
1.240000e+09	3.505574e+12	0.000000e+00	4.195804e-01	2.423211e+14	7.699904e+14	3.424252e+14	1.454693e+04	5.600310e+03	2.772710e+03	0	5.949275e-04
1.250000e+09	3.353731e+12	0.000000e+00	4.195804e-01	2.401471e+14	7.651593e+14	3.409776e+14	1.452705e+04	5.597092e+03	2.771116e+03	0	5.862107e-04
1.260000e+09	3.204386e+12	0.000000e+00	4.195804e-01	2.380068e+14	7.603849e+14	3.395396e+14	1.450735e+04	5.593895e+03	2.769534e+03	0	5.773767e-04
1.270000e+09	3.057484e+12	0.000000e+00	4.195804e-01	2.358995e+14	7.556663e+14	3.381110e+14	1.448783e+04	5.590718e+03	2.767961e+03	0	5.684152e-04
1.280000e+09	2.912970e+12	0.000000e+00	4.195804e-01	2.338245e+14	7.510026e+14	3.366919e+14	1.446848e+04	5.587562e+03	2.766398e+03	0	5.593148e-04
1.290000e+09	2.770791e+12	0.000000e+00	4.195804e-01	2.317811e+14	7.463927e+14	3.352821e+14	1.444930e+04	5.584426e+03	2.764846e+03	0	5.500628e-04
1.300000e+09	2.630897e+12	0.000000e+00	4.195804e-01	2.297685e+14	7.418358e+14	3.338815e+14	1.443028e+04	5.581310e+03	2.763303e+03	0	5.406451e-04
1.310000e+09	2.493237e+12	0.000000e+00	4.195804e-01	2.277863e+14	7.373310e+14	3.324901e+14	1.441143e+04	5.578214e+03	2.761770e+03	0	5.310460e-04
1.320000e+09	2.357764e+12	0.000000e+00	4.195804e-01	2.258336e+14	7.328773e+14	3.311078e+14	1.439274e+04	5.575137e+03	2.760247e+03	0	5.212480e-04
1.330000e+09	2.224429e+12	0.000000e+00	4.195804e-01	2.239099e+14	7.284741e+14	3.297346e+14	1.437421e+04	5.572080e+03	2.758733e+03	0	5.112310e-04
1.340000e+09	2.093188e+12	0.000000e+00	4.195804e-01	2.220146e+14	7.241203e+14	3.283703e+14	1.435584e+04	5.569042e+03	2.757229e+03	0	5.009723e-04
1.350000e+09	1.963996e+12	0.000000e+00	4.195804e-01	2.201471e+14	7.198152e+14	3.270149e+14	1.433763e+04	5.566022e+03	2.755734e+03	0	4.904460e-04
1.360000e+09	1.836809e+12	0.000000e+00	4.195804e-01	2.183068e+14	7.155580e+14	3.256684e+14	1.431957e+04	5.563022e+03	2.754248e+03	0	4.796219e-04
