#t		Qconv[W]	Ri[Rp]		R*[Rp]		Qc[W]		Qm[W]		Qr[W]		Tcmb[K]		Tl[K]		Tup[K]		RiFlag		Bs[T]
0.000000e+00	4.528359e+14	0.000000e+00	4.125875e-01	5.855493e+15	2.609610e+15	7.133245e+14	2.733956e+04	6.772053e+03	3.039279e+03	0	3.022479e-03
1.000000e+07	4.221145e+14	0.000000e+00	4.125875e-01	5.482517e+15	2.728241e+15	7.093722e+14	2.691995e+04	6.834232e+03	3.067185e+03	0	2.952522e-03
2.000000e+07	3.944108e+14	0.000000e+00	4.125875e-01	5.145923e+15	2.829177e+15	7.054494e+14	2.652646e+04	6.888596e+03	3.091583e+03	0	2.886463e-03
3.000000e+07	3.693354e+14	0.000000e+00	4.125875e-01	4.841030e+15	2.913533e+15	7.015559e+14	2.615659e+04	6.936007e+03	3.112861e+03	0	2.823948e-03
4.000000e+07	3.465609e+14	0.000000e+00	4.125875e-01	4.563903e+15	2.982575e+15	6.976915e+14	2.580817e+04	6.977233e+03	3.131363e+03	0	2.764668e-03
5.000000e+07	3.258104e+14	0.000000e+00	4.125875e-01	4.311211e+15	3.037640e+15	6.938560e+14	2.547929e+04	7.012960e+03	3.147397e+03	0	2.708349e-03
6.000000e+07	3.068481e+14	0.000000e+00	4.125875e-01	4.080117e+15	3.080075e+15	6.900490e+14	2.516826e+04	7.043793e+03	3.161235e+03	0	2.654753e-03
7.000000e+07	2.894718e+14	0.000000e+00	4.125875e-01	3.868189e+15	3.111198e+15	6.862703e+14	2.487358e+04	7.070275e+03	3.173120e+03	0	2.603665e-03
8.000000e+07	2.735076e+14	0.000000e+00	4.125875e-01	3.673333e+15	3.132264e+15	6.825198e+14	2.459393e+04	7.092885e+03	3.183267e+03	0	2.554894e-03
9.000000e+07	2.588052e+14	0.000000e+00	4.125875e-01	3.493738e+15	3.144454e+15	6.787972e+14	2.432811e+04	7.112051e+03	3.191869e+03	0	2.508269e-03
1.000000e+08	2.452338e+14	0.000000e+00	4.125875e-01	3.327828e+15	3.148856e+15	6.751021e+14	2.407506e+04	7.128152e+03	3.199095e+03	0	2.463636e-03
1.100000e+08	2.326791e+14	0.000000e+00	4.125875e-01	3.174227e+15	3.146469e+15	6.714346e+14	2.383383e+04	7.141525e+03	3.205097e+03	0	2.420855e-03
1.200000e+08	2.210413e+14	0.000000e+00	4.125875e-01	3.031730e+15	3.138197e+15	6.677942e+14	2.360355e+04	7.152472e+03	3.210010e+03	0	2.379802e-03
1.300000e+08	2.102323e+14	0.000000e+00	4.125875e-01	2.899277e+15	3.124854e+15	6.641807e+14	2.338345e+04	7.161258e+03	3.213953e+03	0	2.340361e-03
1.400000e+08	2.001746e+14	0.000000e+00	4.125875e-01	2.775932e+15	3.107169e+15	6.605940e+14	2.317282e+04	7.168119e+03	3.217032e+03	0	2.302428e-03
1.500000e+08	1.907995e+14	0.000000e+00	4.125875e-01	2.660865e+15	3.085792e+15	6.570338e+14	2.297101e+04	7.173268e+03	3.219343e+03	0	2.265907e-03
1.600000e+08	1.820460e+14	0.000000e+00	4.125875e-01	2.553341e+15	3.061296e+15	6.534999e+14	2.277745e+04	7.176892e+03	3.220970e+03	0	2.230711e-03
1.700000e+08	1.738597e+14	0.000000e+00	4.125875e-01	2.452703e+15	3.034189e+15	6.499921e+14	2.259159e+04	7.179159e+03	3.221987e+03	0	2.196761e-03
1.800000e+08	1.661923e+14	0.000000e+00	4.125875e-01	2.358366e+15	3.004918e+15	6.465102e+14	2.241297e+04	7.180216e+03	3.222461e+03	0	2.163981e-03
1.900000e+08	1.590003e+14	0.000000e+00	4.125875e-01	2.269806e+15	2.973875e+15	6.430538e+14	2.224112e+04	7.180197e+03	3.222453e+03	0	2.132304e-03
2.000000e+08	1.522448e+14	0.000000e+00	4.125875e-01	2.186552e+15	2.941401e+15	6.396230e+14	2.207564e+04	7.179220e+03	3.222014e+03	0	2.101667e-03
2.100000e+08	1.458907e+14	0.000000e+00	4.125875e-01	2.108179e+15	2.907796e+15	6.362173e+14	2.191615e+04	7.177392e+03	3.221194e+03	0	2.072012e-03
2.200000e+08	1.399064e+14	0.000000e+00	4.125875e-01	2.034308e+15	2.873319e+15	6.328367e+14	2.176231e+04	7.174806e+03	3.220033e+03	0	2.043285e-03
2.300000e+08	1.342635e+14	0.000000e+00	4.125875e-01	1.964591e+15	2.838196e+15	6.294809e+14	2.161379e+04	7.171548e+03	3.218571e+03	0	2.015436e-03
2.400000e+08	1.289361e+14	0.000000e+00	4.125875e-01	1.898717e+15	2.802621e+15	6.261496e+14	2.147030e+04	7.167692e+03	3.216841e+03	0	1.988419e-03
2.500000e+08	1.239008e+14	0.000000e+00	4.125875e-01	1.836402e+15	2.766764e+15	6.228428e+14	2.133157e+04	7.163306e+03	3.214872e+03	0	1.962190e-03
2.600000e+08	1.191363e+14	0.000000e+00	4.125875e-01	1.777389e+15	2.730768e+15	6.195602e+14	2.119734e+04	7.158452e+03	3.212694e+03	0	1.936709e-03
2.700000e+08	1.146233e+14	0.000000e+00	4.125875e-01	1.721442e+15	2.694758e+15	6.163016e+14	2.106738e+04	7.153182e+03	3.210329e+03	0	1.911939e-03
2.800000e+08	1.103440e+14	0.000000e+00	4.125875e-01	1.668348e+15	2.658840e+15	6.130668e+14	2.094146e+04	7.147546e+03	3.207799e+03	0	1.887843e-03
2.900000e+08	1.062824e+14	0.000000e+00	4.125875e-01	1.617912e+15	2.623103e+15	6.098555e+14	2.081938e+04	7.141588e+03	3.205125e+03	0	1.864390e-03
3.000000e+08	1.024237e+14	0.000000e+00	4.125875e-01	1.569954e+15	2.587625e+15	6.066677e+14	2.070096e+04	7.135347e+03	3.202324e+03	0	1.841549e-03
3.100000e+08	9.875444e+13	0.000000e+00	4.125875e-01	1.524310e+15	2.552470e+15	6.035032e+14	2.058600e+04	7.128857e+03	3.199412e+03	0	1.819290e-03
3.200000e+08	9.526212e+13	0.000000e+00	4.125875e-01	1.480829e+15	2.517690e+15	6.003616e+14	2.047436e+04	7.122151e+03	3.196402e+03	0	1.797586e-03
3.300000e+08	9.193536e+13	0.000000e+00	4.125875e-01	1.439374e+15	2.483332e+15	5.972429e+14	2.036587e+04	7.115257e+03	3.193308e+03	0	1.776413e-03
3.400000e+08	8.876367e+13	0.000000e+00	4.125875e-01	1.399817e+15	2.449431e+15	5.941468e+14	2.026039e+04	7.108201e+03	3.190141e+03	0	1.755745e-03
3.500000e+08	8.573739e+13	0.000000e+00	4.125875e-01	1.362039e+15	2.416018e+15	5.910732e+14	2.015778e+04	7.101005e+03	3.186912e+03	0	1.735561e-03
3.600000e+08	8.284759e+13	0.000000e+00	4.125875e-01	1.325934e+15	2.383115e+15	5.880219e+14	2.005792e+04	7.093691e+03	3.183629e+03	0	1.715838e-03
3.700000e+08	8.008601e+13	0.000000e+00	4.125875e-01	1.291400e+15	2.350741e+15	5.849927e+14	1.996067e+04	7.086277e+03	3.180302e+03	0	1.696558e-03
3.800000e+08	7.744505e+13	0.000000e+00	4.125875e-01	1.258345e+15	2.318911e+15	5.819854e+14	1.986594e+04	7.078779e+03	3.176937e+03	0	1.677700e-03
3.900000e+08	7.491762e+13	0.000000e+00	4.125875e-01	1.226683e+15	2.287634e+15	5.789998e+14	1.977361e+04	7.071213e+03	3.173541e+03	0	1.659247e-03
4.000000e+08	7.249717e+13	0.000000e+00	4.125875e-01	1.196334e+15	2.256916e+15	5.760358e+14	1.968358e+04	7.063593e+03	3.170121e+03	0	1.641182e-03
4.100000e+08	7.017763e+13	0.000000e+00	4.125875e-01	1.167224e+15	2.226763e+15	5.730932e+14	1.959577e+04	7.055930e+03	3.166682e+03	0	1.623489e-03
4.200000e+08	6.795335e+13	0.000000e+00	4.125875e-01	1.139284e+15	2.197174e+15	5.701718e+14	1.951007e+04	7.048236e+03	3.163229e+03	0	1.606152e-03
4.300000e+08	6.581906e+13	0.000000e+00	4.125875e-01	1.112450e+15	2.168151e+15	5.672714e+14	1.942640e+04	7.040520e+03	3.159766e+03	0	1.589157e-03
4.400000e+08	6.376986e+13	0.000000e+00	4.125875e-01	1.086663e+15	2.139688e+15	5.643919e+14	1.934469e+04	7.032792e+03	3.156298e+03	0	1.572491e-03
4.500000e+08	6.180119e+13	0.000000e+00	4.125875e-01	1.061867e+15	2.111784e+15	5.615331e+14	1.926486e+04	7.025059e+03	3.152827e+03	0	1.556140e-03
4.600000e+08	5.990880e+13	0.000000e+00	4.125875e-01	1.038010e+15	2.084432e+15	5.586948e+14	1.918684e+04	7.017329e+03	3.149358e+03	0	1.540092e-03
4.700000e+08	5.808869e+13	0.000000e+00	4.125875e-01	1.015043e+15	2.057627e+15	5.558768e+14	1.911055e+04	7.009608e+03	3.145893e+03	0	1.524334e-03
4.800000e+08	5.633715e+13	0.000000e+00	4.125875e-01	9.929208e+14	2.031360e+15	5.530791e+14	1.903594e+04	7.001903e+03	3.142435e+03	0	1.508857e-03
4.900000e+08	5.465069e+13	0.000000e+00	4.125875e-01	9.716012e+14	2.005624e+15	5.503014e+14	1.896295e+04	6.994217e+03	3.138985e+03	0	1.493648e-03
5.000000e+08	5.302606e+13	0.000000e+00	4.125875e-01	9.510442e+14	1.980410e+15	5.475435e+14	1.889151e+04	6.986556e+03	3.135547e+03	0	1.478698e-03
5.100000e+08	5.146019e+13	0.000000e+00	4.125875e-01	9.312125e+14	1.955709e+15	5.448054e+14	1.882157e+04	6.978923e+03	3.132122e+03	0	1.463997e-03
5.200000e+08	4.995022e+13	0.000000e+00	4.125875e-01	9.120709e+14	1.931512e+15	5.420868e+14	1.875308e+04	6.971324e+03	3.128711e+03	0	1.449535e-03
5.300000e+08	4.849345e+13	0.000000e+00	4.125875e-01	8.935866e+14	1.907808e+15	5.393875e+14	1.868598e+04	6.963760e+03	3.125317e+03	0	1.435305e-03
5.400000e+08	4.708735e+13	0.000000e+00	4.125875e-01	8.757286e+14	1.884589e+15	5.367076e+14	1.862024e+04	6.956235e+03	3.121939e+03	0	1.421296e-03
5.500000e+08	4.572954e+13	0.000000e+00	4.125875e-01	8.584678e+14	1.861844e+15	5.340466e+14	1.855580e+04	6.948752e+03	3.118581e+03	0	1.407501e-03
5.600000e+08	4.441777e+13	0.000000e+00	4.125875e-01	8.417767e+14	1.839562e+15	5.314046e+14	1.849262e+04	6.941312e+03	3.115242e+03	0	1.393912e-03
5.700000e+08	4.314995e+13	0.000000e+00	4.125875e-01	8.256295e+14	1.817734e+15	5.287814e+14	1.843067e+04	6.933918e+03	3.111923e+03	0	1.380521e-03
5.800000e+08	4.192406e+13	0.000000e+00	4.125875e-01	8.100018e+14	1.796349e+15	5.261767e+14	1.836989e+04	6.926571e+03	3.108626e+03	0	1.367322e-03
5.900000e+08	4.073825e+13	0.000000e+00	4.125875e-01	7.948706e+14	1.775397e+15	5.235906e+14	1.831026e+04	6.919273e+03	3.105351e+03	0	1.354307e-03
6.000000e+08	3.959073e+13	0.000000e+00	4.125875e-01	7.802143e+14	1.754868e+15	5.210227e+14	1.825173e+04	6.912026e+03	3.102098e+03	0	1.341470e-03
6.100000e+08	3.847983e+13	0.000000e+00	4.125875e-01	7.660122e+14	1.734752e+15	5.184730e+14	1.819428e+04	6.904830e+03	3.098869e+03	0	1.328803e-03
6.200000e+08	3.740398e+13	0.000000e+00	4.125875e-01	7.522450e+14	1.715040e+15	5.159413e+14	1.813786e+04	6.897686e+03	3.095663e+03	0	1.316302e-03
6.300000e+08	3.636166e+13	0.000000e+00	4.125875e-01	7.388944e+14	1.695721e+15	5.134275e+14	1.808245e+04	6.890596e+03	3.092481e+03	0	1.303960e-03
6.400000e+08	3.535147e+13	0.000000e+00	4.125875e-01	7.259428e+14	1.676786e+15	5.109314e+14	1.802802e+04	6.883559e+03	3.089323e+03	0	1.291771e-03
6.500000e+08	3.437207e+13	0.000000e+00	4.125875e-01	7.133740e+14	1.658226e+15	5.084529e+14	1.797454e+04	6.876577e+03	3.086189e+03	0	1.279730e-03
6.600000e+08	3.342218e+13	0.000000e+00	4.125875e-01	7.011722e+14	1.640031e+15	5.059918e+14	1.792198e+04	6.869650e+03	3.083080e+03	0	1.267831e-03
6.700000e+08	3.250060e+13	0.000000e+00	4.125875e-01	6.893227e+14	1.622193e+15	5.035481e+14	1.787031e+04	6.862779e+03	3.079996e+03	0	1.256069e-03
6.800000e+08	3.160619e+13	0.000000e+00	4.125875e-01	6.778114e+14	1.604702e+15	5.011215e+14	1.781951e+04	6.855962e+03	3.076937e+03	0	1.244439e-03
6.900000e+08	3.073785e+13	0.000000e+00	4.125875e-01	6.666250e+14	1.587550e+15	4.987119e+14	1.776956e+04	6.849201e+03	3.073903e+03	0	1.232937e-03
7.000000e+08	2.989456e+13	0.000000e+00	4.125875e-01	6.557507e+14	1.570729e+15	4.963192e+14	1.772042e+04	6.842496e+03	3.070894e+03	0	1.221557e-03
7.100000e+08	2.907535e+13	0.000000e+00	4.125875e-01	6.451766e+14	1.554230e+15	4.939433e+14	1.767208e+04	6.835847e+03	3.067910e+03	0	1.210295e-03
7.200000e+08	2.827926e+13	0.000000e+00	4.125875e-01	6.348911e+14	1.538045e+15	4.915840e+14	1.762452e+04	6.829253e+03	3.064950e+03	0	1.199147e-03
7.300000e+08	2.750543e+13	0.000000e+00	4.125875e-01	6.248833e+14	1.522166e+15	4.892412e+14	1.757771e+04	6.822715e+03	3.062016e+03	0	1.188108e-03
7.400000e+08	2.675300e+13	0.000000e+00	4.125875e-01	6.151430e+14	1.506586e+15	4.869147e+14	1.753163e+04	6.816232e+03	3.059106e+03	0	1.177174e-03
7.500000e+08	2.602118e+13	0.000000e+00	4.125875e-01	6.056600e+14	1.491298e+15	4.846044e+14	1.748627e+04	6.809804e+03	3.056222e+03	0	1.166341e-03
7.600000e+08	2.530919e+13	0.000000e+00	4.125875e-01	5.964251e+14	1.476293e+15	4.823103e+14	1.744160e+04	6.803432e+03	3.053362e+03	0	1.155604e-03
7.700000e+08	2.461632e+13	0.000000e+00	4.125875e-01	5.874292e+14	1.461566e+15	4.800321e+14	1.739761e+04	6.797113e+03	3.050526e+03	0	1.144961e-03
7.800000e+08	2.394185e+13	0.000000e+00	4.125875e-01	5.786637e+14	1.447108e+15	4.777697e+14	1.735429e+04	6.790849e+03	3.047715e+03	0	1.134407e-03
7.900000e+08	2.328513e+13	0.000000e+00	4.125875e-01	5.701205e+14	1.432914e+15	4.755231e+14	1.731160e+04	6.784639e+03	3.044928e+03	0	1.123939e-03
8.000000e+08	2.264552e+13	0.000000e+00	4.125875e-01	5.617917e+14	1.418976e+15	4.732920e+14	1.726954e+04	6.778482e+03	3.042164e+03	0	1.113552e-03
8.100000e+08	2.202243e+13	0.000000e+00	4.125875e-01	5.536699e+14	1.405289e+15	4.710764e+14	1.722809e+04	6.772379e+03	3.039425e+03	0	1.103244e-03
8.200000e+08	2.141526e+13	0.000000e+00	4.125875e-01	5.457478e+14	1.391847e+15	4.688761e+14	1.718724e+04	6.766328e+03	3.036710e+03	0	1.093010e-03
8.300000e+08	2.082346e+13	0.000000e+00	4.125875e-01	5.380187e+14	1.378643e+15	4.666910e+14	1.714697e+04	6.760329e+03	3.034017e+03	0	1.082848e-03
8.400000e+08	2.024652e+13	0.000000e+00	4.125875e-01	5.304761e+14	1.365671e+15	4.645211e+14	1.710727e+04	6.754382e+03	3.031348e+03	0	1.072753e-03
8.500000e+08	1.968392e+13	0.000000e+00	4.125875e-01	5.231136e+14	1.352927e+15	4.623661e+14	1.706812e+04	6.748487e+03	3.028703e+03	0	1.062723e-03
8.600000e+08	1.913517e+13	0.000000e+00	4.125875e-01	5.159253e+14	1.340403e+15	4.602259e+14	1.702952e+04	6.742642e+03	3.026079e+03	0	1.052755e-03
8.700000e+08	1.859982e+13	0.000000e+00	4.125875e-01	5.089054e+14	1.328096e+15	4.581005e+14	1.699144e+04	6.736848e+03	3.023479e+03	0	1.042844e-03
8.800000e+08	1.807742e+13	0.000000e+00	4.125875e-01	5.020485e+14	1.316000e+15	4.559897e+14	1.695387e+04	6.731103e+03	3.020901e+03	0	1.032988e-03
8.900000e+08	1.756755e+13	0.000000e+00	4.125875e-01	4.953493e+14	1.304110e+15	4.538934e+14	1.691681e+04	6.725407e+03	3.018345e+03	0	1.023183e-03
9.000000e+08	1.706979e+13	0.000000e+00	4.125875e-01	4.888028e+14	1.292420e+15	4.518115e+14	1.688025e+04	6.719761e+03	3.015810e+03	0	1.013427e-03
9.100000e+08	1.658376e+13	0.000000e+00	4.125875e-01	4.824040e+14	1.280927e+15	4.497439e+14	1.684416e+04	6.714162e+03	3.013298e+03	0	1.003716e-03
9.200000e+08	1.610908e+13	0.000000e+00	4.125875e-01	4.761483e+14	1.269625e+15	4.476904e+14	1.680854e+04	6.708612e+03	3.010807e+03	0	9.940463e-04
9.300000e+08	1.564539e+13	0.000000e+00	4.125875e-01	4.700313e+14	1.258510e+15	4.456510e+14	1.677339e+04	6.703108e+03	3.008337e+03	0	9.844156e-04
9.400000e+08	1.519234e+13	0.000000e+00	4.125875e-01	4.640487e+14	1.247578e+15	4.436255e+14	1.673868e+04	6.697651e+03	3.005888e+03	0	9.748204e-04
9.500000e+08	1.474961e+13	0.000000e+00	4.125875e-01	4.581964e+14	1.236825e+15	4.416138e+14	1.670441e+04	6.692241e+03	3.003459e+03	0	9.652575e-04
9.600000e+08	1.431687e+13	0.000000e+00	4.125875e-01	4.524704e+14	1.226245e+15	4.396159e+14	1.667058e+04	6.686875e+03	3.001051e+03	0	9.557238e-04
9.700000e+08	1.389382e+13	0.000000e+00	4.125875e-01	4.468668e+14	1.215836e+15	4.376315e+14	1.663716e+04	6.681555e+03	2.998664e+03	0	9.462160e-04
9.800000e+08	1.348016e+13	0.000000e+00	4.125875e-01	4.413822e+14	1.205594e+15	4.356607e+14	1.660416e+04	6.676280e+03	2.996296e+03	0	9.367307e-04
9.900000e+08	1.307562e+13	0.000000e+00	4.125875e-01	4.360128e+14	1.195514e+15	4.337033e+14	1.657156e+04	6.671048e+03	2.993948e+03	0	9.272648e-04
1.000000e+09	1.267991e+13	0.000000e+00	4.125875e-01	4.307554e+14	1.185592e+15	4.317591e+14	1.653935e+04	6.665860e+03	2.991620e+03	0	9.178149e-04
1.010000e+09	1.229278e+13	0.000000e+00	4.125875e-01	4.256066e+14	1.175826e+15	4.298282e+14	1.650753e+04	6.660715e+03	2.989311e+03	0	9.083775e-04
1.020000e+09	1.191397e+13	0.000000e+00	4.125875e-01	4.205634e+14	1.166212e+15	4.279103e+14	1.647609e+04	6.655612e+03	2.987021e+03	0	8.989492e-04
1.030000e+09	1.154324e+13	0.000000e+00	4.125875e-01	4.156227e+14	1.156747e+15	4.260054e+14	1.644503e+04	6.650551e+03	2.984749e+03	0	8.895265e-04
1.040000e+09	1.118035e+13	0.000000e+00	4.125875e-01	4.107815e+14	1.147426e+15	4.241133e+14	1.641432e+04	6.645532e+03	2.982496e+03	0	8.801058e-04
1.050000e+09	1.082509e+13	0.000000e+00	4.125875e-01	4.060372e+14	1.138248e+15	4.222341e+14	1.638397e+04	6.640553e+03	2.980262e+03	0	8.706833e-04
1.060000e+09	1.047723e+13	0.000000e+00	4.125875e-01	4.013869e+14	1.129208e+15	4.203675e+14	1.635397e+04	6.635615e+03	2.978046e+03	0	8.612553e-04
1.070000e+09	1.013657e+13	0.000000e+00	4.125875e-01	3.968282e+14	1.120305e+15	4.185135e+14	1.632431e+04	6.630716e+03	2.975847e+03	0	8.518178e-04
1.080000e+09	9.802897e+12	0.000000e+00	4.125875e-01	3.923583e+14	1.111534e+15	4.166719e+14	1.629499e+04	6.625857e+03	2.973667e+03	0	8.423667e-04
1.090000e+09	9.476022e+12	0.000000e+00	4.125875e-01	3.879750e+14	1.102893e+15	4.148428e+14	1.626600e+04	6.621037e+03	2.971503e+03	0	8.328978e-04
1.100000e+09	9.155757e+12	0.000000e+00	4.125875e-01	3.836759e+14	1.094379e+15	4.130259e+14	1.623733e+04	6.616255e+03	2.969357e+03	0	8.234068e-04
1.110000e+09	8.841920e+12	0.000000e+00	4.125875e-01	3.794586e+14	1.085990e+15	4.112212e+14	1.620897e+04	6.611511e+03	2.967228e+03	0	8.138891e-04
1.120000e+09	8.534336e+12	0.000000e+00	4.125875e-01	3.753211e+14	1.077722e+15	4.094286e+14	1.618093e+04	6.606805e+03	2.965116e+03	0	8.043399e-04
1.130000e+09	8.232837e+12	0.000000e+00	4.125875e-01	3.712612e+14	1.069574e+15	4.076480e+14	1.615319e+04	6.602135e+03	2.963020e+03	0	7.947543e-04
1.140000e+09	7.937258e+12	0.000000e+00	4.125875e-01	3.672769e+14	1.061543e+15	4.058794e+14	1.612575e+04	6.597503e+03	2.960941e+03	0	7.851269e-04
1.150000e+09	7.647442e+12	0.000000e+00	4.125875e-01	3.633661e+14	1.053626e+15	4.041225e+14	1.609860e+04	6.592906e+03	2.958878e+03	0	7.754523e-04
1.160000e+09	7.363238e+12	0.000000e+00	4.125875e-01	3.595271e+14	1.045821e+15	4.023773e+14	1.607174e+04	6.588344e+03	2.956831e+03	0	7.657247e-04
1.170000e+09	7.084496e+12	0.000000e+00	4.125875e-01	3.557579e+14	1.038126e+15	4.006438e+14	1.604517e+04	6.583818e+03	2.954800e+03	0	7.559377e-04
1.180000e+09	6.811076e+12	0.000000e+00	4.125875e-01	3.520568e+14	1.030538e+15	3.989218e+14	1.601887e+04	6.579327e+03	2.952784e+03	0	7.460849e-04
1.190000e+09	6.542839e+12	0.000000e+00	4.125875e-01	3.484220e+14	1.023055e+15	3.972112e+14	1.599284e+04	6.574869e+03	2.950783e+03	0	7.361593e-04
1.200000e+09	6.279652e+12	0.000000e+00	4.125875e-01	3.448519e+14	1.015676e+15	3.955120e+14	1.596709e+04	6.570446e+03	2.948798e+03	0	7.261532e-04
1.210000e+09	6.021387e+12	0.000000e+00	4.125875e-01	3.413449e+14	1.008397e+15	3.938241e+14	1.594159e+04	6.566056e+03	2.946828e+03	0	7.160586e-04
1.220000e+09	5.767918e+12	0.000000e+00	4.125875e-01	3.378993e+14	1.001218e+15	3.921473e+14	1.591636e+04	6.561699e+03	2.944873e+03	0	7.058668e-04
1.230000e+09	5.519125e+12	0.000000e+00	4.125875e-01	3.345137e+14	9.941353e+14	3.904816e+14	1.589137e+04	6.557374e+03	2.942932e+03	0	6.955683e-04
1.240000e+09	5.274891e+12	0.000000e+00	4.125875e-01	3.311867e+14	9.871479e+14	3.888270e+14	1.586664e+04	6.553082e+03	2.941005e+03	0	6.851529e-04
1.250000e+09	5.035102e+12	0.000000e+00	4.125875e-01	3.279167e+14	9.802538e+14	3.871833e+14	1.584215e+04	6.548822e+03	2.939093e+03	0	6.746095e-04
1.260000e+09	4.799650e+12	0.000000e+00	4.125875e-01	3.247025e+14	9.734511e+14	3.855504e+14	1.581790e+04	6.544592e+03	2.937195e+03	0	6.639258e-04
1.270000e+09	4.568428e+12	0.000000e+00	4.125875e-01	3.215426e+14	9.667380e+14	3.839283e+14	1.579389e+04	6.540394e+03	2.935311e+03	0	6.530884e-04
1.280000e+09	4.341333e+12	0.000000e+00	4.125875e-01	3.184358e+14	9.601128e+14	3.823168e+14	1.577012e+04	6.536227e+03	2.933441e+03	0	6.420824e-04
1.290000e+09	4.118265e+12	0.000000e+00	4.125875e-01	3.153809e+14	9.535739e+14	3.807159e+14	1.574657e+04	6.532089e+03	2.931584e+03	0	6.308912e-04
1.300000e+09	3.899128e+12	0.000000e+00	4.125875e-01	3.123766e+14	9.471194e+14	3.791256e+14	1.572324e+04	6.527982e+03	2.929740e+03	0	6.194965e-04
1.310000e+09	3.683828e+12	0.000000e+00	4.125875e-01	3.094217e+14	9.407480e+14	3.775456e+14	1.570014e+04	6.523904e+03	2.927910e+03	0	6.078776e-04
1.320000e+09	3.472274e+12	0.000000e+00	4.125875e-01	3.065152e+14	9.344579e+14	3.759760e+14	1.567726e+04	6.519855e+03	2.926093e+03	0	5.960111e-04
1.330000e+09	3.264378e+12	0.000000e+00	4.125875e-01	3.036558e+14	9.282477e+14	3.744167e+14	1.565459e+04	6.515834e+03	2.924289e+03	0	5.838705e-04
1.340000e+09	3.060054e+12	0.000000e+00	4.125875e-01	3.008425e+14	9.221158e+14	3.728676e+14	1.563213e+04	6.511843e+03	2.922497e+03	0	5.714252e-04
1.350000e+09	2.859219e+12	0.000000e+00	4.125875e-01	2.980743e+14	9.160608e+14	3.713285e+14	1.560988e+04	6.507879e+03	2.920718e+03	0	5.586402e-04
1.360000e+09	2.661793e+12	0.000000e+00	4.125875e-01	2.953501e+14	9.100813e+14	3.697995e+14	1.558783e+04	6.503943e+03	2.918952e+03	0	5.454745e-04
