#t		Qconv[W]	Ri[Rp]		R*[Rp]		Qc[W]		Qm[W]		Qr[W]		Tcmb[K]		Tl[K]		Tup[K]		RiFlag		Bs[T]
0.000000e+00	1.339356e+13	0.000000e+00	6.025642e-01	2.341808e+14	1.633110e+15	2.075494e+14	8.486643e+03	3.929381e+03	2.464272e+03	0	7.647581e-04
1.000000e+07	1.302095e+13	0.000000e+00	6.025642e-01	2.291834e+14	1.505763e+15	2.063994e+14	8.470516e+03	3.876459e+03	2.431082e+03	0	7.575995e-04
2.000000e+07	1.267145e+13	0.000000e+00	6.025642e-01	2.244915e+14	1.396793e+15	2.052581e+14	8.454731e+03	3.828785e+03	2.401184e+03	0	7.507596e-04
3.000000e+07	1.234291e+13	0.000000e+00	6.025642e-01	2.200765e+14	1.302677e+15	2.041252e+14	8.439268e+03	3.785598e+03	2.374100e+03	0	7.442142e-04
4.000000e+07	1.203337e+13	0.000000e+00	6.025642e-01	2.159128e+14	1.220714e+15	2.030008e+14	8.424108e+03	3.746278e+03	2.349441e+03	0	7.379402e-04
5.000000e+07	1.174108e+13	0.000000e+00	6.025642e-01	2.119772e+14	1.148799e+15	2.018848e+14	8.409234e+03	3.710319e+03	2.326889e+03	0	7.319163e-04
6.000000e+07	1.146448e+13	0.000000e+00	6.025642e-01	2.082493e+14	1.085275e+15	2.007771e+14	8.394630e+03	3.677298e+03	2.306181e+03	0	7.261230e-04
7.000000e+07	1.120218e+13	0.000000e+00	6.025642e-01	2.047108e+14	1.028818e+15	1.996777e+14	8.380282e+03	3.646865e+03	2.287095e+03	0	7.205426e-04
8.000000e+07	1.095296e+13	0.000000e+00	6.025642e-01	2.013454e+14	9.783612e+14	1.985864e+14	8.366177e+03	3.618721e+03	2.269445e+03	0	7.151591e-04
9.000000e+07	1.071572e+13	0.000000e+00	6.025642e-01	1.981386e+14	9.330366e+14	1.975033e+14	8.352302e+03	3.592615e+03	2.253072e+03	0	7.099578e-04
1.000000e+08	1.048947e+13	0.000000e+00	6.025642e-01	1.950775e+14	8.921306e+14	1.964282e+14	8.338648e+03	3.568330e+03	2.237843e+03	0	7.049256e-04
1.100000e+08	1.027335e+13	0.000000e+00	6.025642e-01	1.921507e+14	8.550526e+14	1.953611e+14	8.325204e+03	3.545681e+03	2.223638e+03	0	7.000506e-04
1.200000e+08	1.006657e+13	0.000000e+00	6.025642e-01	1.893477e+14	8.213096e+14	1.943019e+14	8.311962e+03	3.524506e+03	2.210359e+03	0	6.953219e-04
1.300000e+08	9.868425e+12	0.000000e+00	6.025642e-01	1.866594e+14	7.904875e+14	1.932505e+14	8.298911e+03	3.504664e+03	2.197915e+03	0	6.907296e-04
1.400000e+08	9.678294e+12	0.000000e+00	6.025642e-01	1.840774e+14	7.622361e+14	1.922069e+14	8.286046e+03	3.486033e+03	2.186231e+03	0	6.862648e-04
1.500000e+08	9.495605e+12	0.000000e+00	6.025642e-01	1.815942e+14	7.362575e+14	1.911710e+14	8.273358e+03	3.468504e+03	2.175238e+03	0	6.819193e-04
1.600000e+08	9.319844e+12	0.000000e+00	6.025642e-01	1.792030e+14	7.122966e+14	1.901428e+14	8.260840e+03	3.451982e+03	2.164876e+03	0	6.776857e-04
1.700000e+08	9.150545e+12	0.000000e+00	6.025642e-01	1.768977e+14	6.901343e+14	1.891222e+14	8.248487e+03	3.436381e+03	2.155092e+03	0	6.735571e-04
1.800000e+08	8.987287e+12	0.000000e+00	6.025642e-01	1.746727e+14	6.695811e+14	1.881091e+14	8.236292e+03	3.421627e+03	2.145839e+03	0	6.695273e-04
1.900000e+08	8.829684e+12	0.000000e+00	6.025642e-01	1.725229e+14	6.504724e+14	1.871034e+14	8.224250e+03	3.407652e+03	2.137075e+03	0	6.655906e-04
2.000000e+08	8.677386e+12	0.000000e+00	6.025642e-01	1.704437e+14	6.326648e+14	1.861052e+14	8.212356e+03	3.394394e+03	2.128760e+03	0	6.617416e-04
2.100000e+08	8.530073e+12	0.000000e+00	6.025642e-01	1.684309e+14	6.160326e+14	1.851142e+14	8.200605e+03	3.381801e+03	2.120862e+03	0	6.579755e-04
2.200000e+08	8.387452e+12	0.000000e+00	6.025642e-01	1.664805e+14	6.004655e+14	1.841306e+14	8.188992e+03	3.369822e+03	2.113350e+03	0	6.542877e-04
2.300000e+08	8.249251e+12	0.000000e+00	6.025642e-01	1.645891e+14	5.858660e+14	1.831542e+14	8.177513e+03	3.358413e+03	2.106195e+03	0	6.506742e-04
2.400000e+08	8.115225e+12	0.000000e+00	6.025642e-01	1.627532e+14	5.721480e+14	1.821849e+14	8.166164e+03	3.347535e+03	2.099373e+03	0	6.471311e-04
2.500000e+08	7.985145e+12	0.000000e+00	6.025642e-01	1.609700e+14	5.592348e+14	1.812228e+14	8.154942e+03	3.337149e+03	2.092860e+03	0	6.436548e-04
2.600000e+08	7.858799e+12	0.000000e+00	6.025642e-01	1.592366e+14	5.470583e+14	1.802677e+14	8.143842e+03	3.327224e+03	2.086635e+03	0	6.402420e-04
2.700000e+08	7.735994e+12	0.000000e+00	6.025642e-01	1.575505e+14	5.355575e+14	1.793195e+14	8.132861e+03	3.317728e+03	2.080680e+03	0	6.368896e-04
2.800000e+08	7.616550e+12	0.000000e+00	6.025642e-01	1.559092e+14	5.246779e+14	1.783783e+14	8.121996e+03	3.308634e+03	2.074977e+03	0	6.335947e-04
2.900000e+08	7.500298e+12	0.000000e+00	6.025642e-01	1.543106e+14	5.143705e+14	1.774440e+14	8.111244e+03	3.299916e+03	2.069509e+03	0	6.303546e-04
3.000000e+08	7.387083e+12	0.000000e+00	6.025642e-01	1.527526e+14	5.045910e+14	1.765165e+14	8.100602e+03	3.291551e+03	2.064263e+03	0	6.271669e-04
3.100000e+08	7.276762e+12	0.000000e+00	6.025642e-01	1.512332e+14	4.952996e+14	1.755957e+14	8.090067e+03	3.283516e+03	2.059224e+03	0	6.240291e-04
3.200000e+08	7.169198e+12	0.000000e+00	6.025642e-01	1.497507e+14	4.864603e+14	1.746816e+14	8.079637e+03	3.275793e+03	2.054381e+03	0	6.209390e-04
3.300000e+08	7.064267e+12	0.000000e+00	6.025642e-01	1.483035e+14	4.780404e+14	1.737742e+14	8.069308e+03	3.268362e+03	2.049721e+03	0	6.178947e-04
3.400000e+08	6.961851e+12	0.000000e+00	6.025642e-01	1.468899e+14	4.700102e+14	1.728734e+14	8.059079e+03	3.261207e+03	2.045234e+03	0	6.148941e-04
3.500000e+08	6.861841e+12	0.000000e+00	6.025642e-01	1.455085e+14	4.623425e+14	1.719791e+14	8.048948e+03	3.254312e+03	2.040909e+03	0	6.119355e-04
3.600000e+08	6.764132e+12	0.000000e+00	6.025642e-01	1.441580e+14	4.550129e+14	1.710913e+14	8.038911e+03	3.247662e+03	2.036739e+03	0	6.090171e-04
3.700000e+08	6.668629e+12	0.000000e+00	6.025642e-01	1.428370e+14	4.479986e+14	1.702099e+14	8.028967e+03	3.241244e+03	2.032714e+03	0	6.061372e-04
3.800000e+08	6.575241e+12	0.000000e+00	6.025642e-01	1.415444e+14	4.412792e+14	1.693349e+14	8.019115e+03	3.235045e+03	2.028826e+03	0	6.032944e-04
3.900000e+08	6.483883e+12	0.000000e+00	6.025642e-01	1.402791e+14	4.348355e+14	1.684662e+14	8.009351e+03	3.229053e+03	2.025068e+03	0	6.004873e-04
4.000000e+08	6.394474e+12	0.000000e+00	6.025642e-01	1.390399e+14	4.286503e+14	1.676038e+14	7.999674e+03	3.223258e+03	2.021434e+03	0	5.977144e-04
4.100000e+08	6.306939e+12	0.000000e+00	6.025642e-01	1.378258e+14	4.227076e+14	1.667476e+14	7.990082e+03	3.217648e+03	2.017916e+03	0	5.949745e-04
4.200000e+08	6.221208e+12	0.000000e+00	6.025642e-01	1.366360e+14	4.169926e+14	1.658976e+14	7.980574e+03	3.212215e+03	2.014509e+03	0	5.922663e-04
4.300000e+08	6.137211e+12	0.000000e+00	6.025642e-01	1.354695e+14	4.114918e+14	1.650537e+14	7.971148e+03	3.206950e+03	2.011207e+03	0	5.895887e-04
4.400000e+08	6.054887e+12	0.000000e+00	6.025642e-01	1.343255e+14	4.061925e+14	1.642159e+14	7.961802e+03	3.201844e+03	2.008004e+03	0	5.869405e-04
4.500000e+08	5.974174e+12	0.000000e+00	6.025642e-01	1.332031e+14	4.010831e+14	1.633841e+14	7.952535e+03	3.196889e+03	2.004897e+03	0	5.843209e-04
4.600000e+08	5.895016e+12	0.000000e+00	6.025642e-01	1.321017e+14	3.961529e+14	1.625582e+14	7.943345e+03	3.192079e+03	2.001880e+03	0	5.817286e-04
4.700000e+08	5.817358e+12	0.000000e+00	6.025642e-01	1.310205e+14	3.913918e+14	1.617383e+14	7.934231e+03	3.187405e+03	1.998949e+03	0	5.791629e-04
4.800000e+08	5.741151e+12	0.000000e+00	6.025642e-01	1.299588e+14	3.867907e+14	1.609243e+14	7.925191e+03	3.182862e+03	1.996100e+03	0	5.766227e-04
4.900000e+08	5.666344e+12	0.000000e+00	6.025642e-01	1.289159e+14	3.823408e+14	1.601161e+14	7.916224e+03	3.178444e+03	1.993329e+03	0	5.741073e-04
5.000000e+08	5.592893e+12	0.000000e+00	6.025642e-01	1.278914e+14	3.780342e+14	1.593137e+14	7.907330e+03	3.174144e+03	1.990633e+03	0	5.716159e-04
5.100000e+08	5.520752e+12	0.000000e+00	6.025642e-01	1.268845e+14	3.738633e+14	1.585170e+14	7.898505e+03	3.169958e+03	1.988007e+03	0	5.691475e-04
5.200000e+08	5.449881e+12	0.000000e+00	6.025642e-01	1.258947e+14	3.698211e+14	1.577260e+14	7.889750e+03	3.165880e+03	1.985450e+03	0	5.667016e-04
5.300000e+08	5.380239e+12	0.000000e+00	6.025642e-01	1.249216e+14	3.659012e+14	1.569406e+14	7.881063e+03	3.161905e+03	1.982957e+03	0	5.642774e-04
5.400000e+08	5.311788e+12	0.000000e+00	6.025642e-01	1.239645e+14	3.620975e+14	1.561608e+14	7.872443e+03	3.158029e+03	1.980526e+03	0	5.618741e-04
5.500000e+08	5.244493e+12	0.000000e+00	6.025642e-01	1.230230e+14	3.584042e+14	1.553866e+14	7.863889e+03	3.154248e+03	1.978155e+03	0	5.594912e-04
5.600000e+08	5.178319e+12	0.000000e+00	6.025642e-01	1.220967e+14	3.548160e+14	1.546179e+14	7.855400e+03	3.150557e+03	1.975840e+03	0	5.571281e-04
5.700000e+08	5.113233e+12	0.000000e+00	6.025642e-01	1.211851e+14	3.513278e+14	1.538546e+14	7.846975e+03	3.146953e+03	1.973580e+03	0	5.547840e-04
5.800000e+08	5.049203e+12	0.000000e+00	6.025642e-01	1.202877e+14	3.479351e+14	1.530968e+14	7.838612e+03	3.143432e+03	1.971372e+03	0	5.524586e-04
5.900000e+08	4.986200e+12	0.000000e+00	6.025642e-01	1.194043e+14	3.446334e+14	1.523443e+14	7.830311e+03	3.139990e+03	1.969213e+03	0	5.501511e-04
6.000000e+08	4.924194e+12	0.000000e+00	6.025642e-01	1.185343e+14	3.414185e+14	1.515971e+14	7.822071e+03	3.136625e+03	1.967103e+03	0	5.478611e-04
6.100000e+08	4.863157e+12	0.000000e+00	6.025642e-01	1.176775e+14	3.382865e+14	1.508553e+14	7.813891e+03	3.133333e+03	1.965038e+03	0	5.455881e-04
6.200000e+08	4.803065e+12	0.000000e+00	6.025642e-01	1.168335e+14	3.352338e+14	1.501186e+14	7.805770e+03	3.130111e+03	1.963018e+03	0	5.433315e-04
6.300000e+08	4.743890e+12	0.000000e+00	6.025642e-01	1.160018e+14	3.322568e+14	1.493872e+14	7.797707e+03	3.126957e+03	1.961040e+03	0	5.410910e-04
6.400000e+08	4.685609e+12	0.000000e+00	6.025642e-01	1.151824e+14	3.293524e+14	1.486610e+14	7.789701e+03	3.123867e+03	1.959102e+03	0	5.388660e-04
6.500000e+08	4.628198e+12	0.000000e+00	6.025642e-01	1.143747e+14	3.265175e+14	1.479398e+14	7.781751e+03	3.120840e+03	1.957203e+03	0	5.366561e-04
6.600000e+08	4.571636e+12	0.000000e+00	6.025642e-01	1.135785e+14	3.237491e+14	1.472237e+14	7.773858e+03	3.117872e+03	1.955342e+03	0	5.344609e-04
6.700000e+08	4.515900e+12	0.000000e+00	6.025642e-01	1.127935e+14	3.210445e+14	1.465127e+14	7.766019e+03	3.114962e+03	1.953517e+03	0	5.322801e-04
6.800000e+08	4.460969e+12	0.000000e+00	6.025642e-01	1.120195e+14	3.184011e+14	1.458067e+14	7.758234e+03	3.112108e+03	1.951727e+03	0	5.301131e-04
6.900000e+08	4.406824e+12	0.000000e+00	6.025642e-01	1.112561e+14	3.158165e+14	1.451056e+14	7.750502e+03	3.109307e+03	1.949971e+03	0	5.279596e-04
7.000000e+08	4.353446e+12	0.000000e+00	6.025642e-01	1.105032e+14	3.132883e+14	1.444094e+14	7.742823e+03	3.106557e+03	1.948246e+03	0	5.258193e-04
7.100000e+08	4.300816e+12	0.000000e+00	6.025642e-01	1.097604e+14	3.108143e+14	1.437181e+14	7.735196e+03	3.103857e+03	1.946553e+03	0	5.236917e-04
7.200000e+08	4.248916e+12	0.000000e+00	6.025642e-01	1.090276e+14	3.083925e+14	1.430316e+14	7.727620e+03	3.101204e+03	1.944889e+03	0	5.215767e-04
7.300000e+08	4.197730e+12	0.000000e+00	6.025642e-01	1.083044e+14	3.060208e+14	1.423500e+14	7.720095e+03	3.098598e+03	1.943255e+03	0	5.194737e-04
7.400000e+08	4.147240e+12	0.000000e+00	6.025642e-01	1.075908e+14	3.036974e+14	1.416730e+14	7.712619e+03	3.096036e+03	1.941648e+03	0	5.173826e-04
7.500000e+08	4.097430e+12	0.000000e+00	6.025642e-01	1.068864e+14	3.014204e+14	1.410009e+14	7.705193e+03	3.093517e+03	1.940068e+03	0	5.153030e-04
7.600000e+08	4.048286e+12	0.000000e+00	6.025642e-01	1.061910e+14	2.991883e+14	1.403333e+14	7.697815e+03	3.091039e+03	1.938514e+03	0	5.132345e-04
7.700000e+08	3.999793e+12	0.000000e+00	6.025642e-01	1.055045e+14	2.969993e+14	1.396705e+14	7.690484e+03	3.088601e+03	1.936985e+03	0	5.111770e-04
7.800000e+08	3.951935e+12	0.000000e+00	6.025642e-01	1.048267e+14	2.948520e+14	1.390122e+14	7.683202e+03	3.086201e+03	1.935480e+03	0	5.091300e-04
7.900000e+08	3.904700e+12	0.000000e+00	6.025642e-01	1.041574e+14	2.927449e+14	1.383585e+14	7.675965e+03	3.083839e+03	1.933999e+03	0	5.070934e-04
8.000000e+08	3.858074e+12	0.000000e+00	6.025642e-01	1.034964e+14	2.906766e+14	1.377094e+14	7.668775e+03	3.081513e+03	1.932540e+03	0	5.050669e-04
8.100000e+08	3.812043e+12	0.000000e+00	6.025642e-01	1.028435e+14	2.886457e+14	1.370647e+14	7.661631e+03	3.079222e+03	1.931103e+03	0	5.030502e-04
8.200000e+08	3.766595e+12	0.000000e+00	6.025642e-01	1.021985e+14	2.866511e+14	1.364245e+14	7.654531e+03	3.076964e+03	1.929687e+03	0	5.010431e-04
8.300000e+08	3.721719e+12	0.000000e+00	6.025642e-01	1.015614e+14	2.846914e+14	1.357888e+14	7.647476e+03	3.074739e+03	1.928292e+03	0	4.990453e-04
8.400000e+08	3.677401e+12	0.000000e+00	6.025642e-01	1.009318e+14	2.827656e+14	1.351574e+14	7.640465e+03	3.072545e+03	1.926916e+03	0	4.970565e-04
8.500000e+08	3.633632e+12	0.000000e+00	6.025642e-01	1.003098e+14	2.808726e+14	1.345304e+14	7.633497e+03	3.070382e+03	1.925560e+03	0	4.950766e-04
8.600000e+08	3.590399e+12	0.000000e+00	6.025642e-01	9.969511e+13	2.790113e+14	1.339077e+14	7.626572e+03	3.068249e+03	1.924222e+03	0	4.931053e-04
8.700000e+08	3.547693e+12	0.000000e+00	6.025642e-01	9.908761e+13	2.771807e+14	1.332892e+14	7.619690e+03	3.066144e+03	1.922902e+03	0	4.911424e-04
8.800000e+08	3.505502e+12	0.000000e+00	6.025642e-01	9.848715e+13	2.753798e+14	1.326751e+14	7.612849e+03	3.064068e+03	1.921599e+03	0	4.891877e-04
8.900000e+08	3.463817e+12	0.000000e+00	6.025642e-01	9.789361e+13	2.736078e+14	1.320652e+14	7.606050e+03	3.062018e+03	1.920314e+03	0	4.872409e-04
9.000000e+08	3.422627e+12	0.000000e+00	6.025642e-01	9.730685e+13	2.718638e+14	1.314594e+14	7.599291e+03	3.059994e+03	1.919045e+03	0	4.853019e-04
9.100000e+08	3.381924e+12	0.000000e+00	6.025642e-01	9.672676e+13	2.701468e+14	1.308578e+14	7.592573e+03	3.057996e+03	1.917791e+03	0	4.833704e-04
9.200000e+08	3.341698e+12	0.000000e+00	6.025642e-01	9.615319e+13	2.684563e+14	1.302603e+14	7.585895e+03	3.056022e+03	1.916553e+03	0	4.814463e-04
9.300000e+08	3.301940e+12	0.000000e+00	6.025642e-01	9.558603e+13	2.667912e+14	1.296669e+14	7.579256e+03	3.054072e+03	1.915331e+03	0	4.795293e-04
9.400000e+08	3.262642e+12	0.000000e+00	6.025642e-01	9.502517e+13	2.651510e+14	1.290776e+14	7.572657e+03	3.052145e+03	1.914122e+03	0	4.776193e-04
9.500000e+08	3.223795e+12	0.000000e+00	6.025642e-01	9.447049e+13	2.635349e+14	1.284923e+14	7.566096e+03	3.050241e+03	1.912928e+03	0	4.757161e-04
9.600000e+08	3.185390e+12	0.000000e+00	6.025642e-01	9.392188e+13	2.619423e+14	1.279109e+14	7.559574e+03	3.048359e+03	1.911748e+03	0	4.738195e-04
9.700000e+08	3.147420e+12	0.000000e+00	6.025642e-01	9.337923e+13	2.603724e+14	1.273336e+14	7.553089e+03	3.046498e+03	1.910581e+03	0	4.719294e-04
9.800000e+08	3.109877e+12	0.000000e+00	6.025642e-01	9.284243e+13	2.588247e+14	1.267602e+14	7.546641e+03	3.044658e+03	1.909427e+03	0	4.700454e-04
9.900000e+08	3.072753e+12	0.000000e+00	6.025642e-01	9.231139e+13	2.572985e+14	1.261906e+14	7.540231e+03	3.042838e+03	1.908285e+03	0	4.681676e-04
1.000000e+09	3.036041e+12	0.000000e+00	6.025642e-01	9.178601e+13	2.557934e+14	1.256249e+14	7.533857e+03	3.041037e+03	1.907156e+03	0	4.662956e-04
1.010000e+09	2.999734e+12	0.000000e+00	6.025642e-01	9.126618e+13	2.543087e+14	1.250631e+14	7.527520e+03	3.039256e+03	1.906039e+03	0	4.644294e-04
1.020000e+09	2.963825e+12	0.000000e+00	6.025642e-01	9.075182e+13	2.528439e+14	1.245051e+14	7.521218e+03	3.037493e+03	1.904933e+03	0	4.625688e-04
1.030000e+09	2.928307e+12	0.000000e+00	6.025642e-01	9.024282e+13	2.513984e+14	1.239508e+14	7.514951e+03	3.035749e+03	1.903839e+03	0	4.607135e-04
1.040000e+09	2.893173e+12	0.000000e+00	6.025642e-01	8.973911e+13	2.499719e+14	1.234003e+14	7.508720e+03	3.034021e+03	1.902756e+03	0	4.588636e-04
1.050000e+09	2.858417e+12	0.000000e+00	6.025642e-01	8.924060e+13	2.485638e+14	1.228535e+14	7.502524e+03	3.032311e+03	1.901684e+03	0	4.570187e-04
1.060000e+09	2.824033e+12	0.000000e+00	6.025642e-01	8.874719e+13	2.471737e+14	1.223104e+14	7.496361e+03	3.030618e+03	1.900622e+03	0	4.551788e-04
1.070000e+09	2.790014e+12	0.000000e+00	6.025642e-01	8.825881e+13	2.458011e+14	1.217710e+14	7.490233e+03	3.028941e+03	1.899570e+03	0	4.533437e-04
1.080000e+09	2.756354e+12	0.000000e+00	6.025642e-01	8.777538e+13	2.444456e+14	1.212352e+14	7.484139e+03	3.027280e+03	1.898528e+03	0	4.515132e-04
1.090000e+09	2.723048e+12	0.000000e+00	6.025642e-01	8.729681e+13	2.431068e+14	1.207030e+14	7.478078e+03	3.025634e+03	1.897496e+03	0	4.496872e-04
1.100000e+09	2.690090e+12	0.000000e+00	6.025642e-01	8.682303e+13	2.417843e+14	1.201743e+14	7.472049e+03	3.024004e+03	1.896474e+03	0	4.478656e-04
1.110000e+09	2.657474e+12	0.000000e+00	6.025642e-01	8.635396e+13	2.404777e+14	1.196492e+14	7.466054e+03	3.022388e+03	1.895460e+03	0	4.460482e-04
1.120000e+09	2.625194e+12	0.000000e+00	6.025642e-01	8.588953e+13	2.391867e+14	1.191277e+14	7.460091e+03	3.020787e+03	1.894456e+03	0	4.442348e-04
1.130000e+09	2.593246e+12	0.000000e+00	6.025642e-01	8.542967e+13	2.379109e+14	1.186096e+14	7.454159e+03	3.019199e+03	1.893461e+03	0	4.424254e-04
1.140000e+09	2.561625e+12	0.000000e+00	6.025642e-01	8.497430e+13	2.366499e+14	1.180949e+14	7.448260e+03	3.017626e+03	1.892474e+03	0	4.406197e-04
1.150000e+09	2.530324e+12	0.000000e+00	6.025642e-01	8.452337e+13	2.354035e+14	1.175838e+14	7.442392e+03	3.016066e+03	1.891495e+03	0	4.388177e-04
1.160000e+09	2.499340e+12	0.000000e+00	6.025642e-01	8.407679e+13	2.341713e+14	1.170760e+14	7.436555e+03	3.014519e+03	1.890525e+03	0	4.370192e-04
1.170000e+09	2.468667e+12	0.000000e+00	6.025642e-01	8.363451e+13	2.329530e+14	1.165716e+14	7.430749e+03	3.012984e+03	1.889563e+03	0	4.352241e-04
1.180000e+09	2.438300e+12	0.000000e+00	6.025642e-01	8.319646e+13	2.317484e+14	1.160706e+14	7.424973e+03	3.011463e+03	1.888609e+03	0	4.334322e-04
1.190000e+09	2.408236e+12	0.000000e+00	6.025642e-01	8.276258e+13	2.305570e+14	1.155729e+14	7.419227e+03	3.009953e+03	1.887662e+03	0	4.316434e-04
1.200000e+09	2.378469e+12	0.000000e+00	6.025642e-01	8.233280e+13	2.293787e+14	1.150785e+14	7.413512e+03	3.008456e+03	1.886723e+03	0	4.298576e-04
1.210000e+09	2.348995e+12	0.000000e+00	6.025642e-01	8.190707e+13	2.282132e+14	1.145873e+14	7.407826e+03	3.006970e+03	1.885791e+03	0	4.280746e-04
1.220000e+09	2.319810e+12	0.000000e+00	6.025642e-01	8.148533e+13	2.270601e+14	1.140995e+14	7.402169e+03	3.005496e+03	1.884866e+03	0	4.262943e-04
1.230000e+09	2.290909e+12	0.000000e+00	6.025642e-01	8.106752e+13	2.259194e+14	1.136148e+14	7.396542e+03	3.004032e+03	1.883949e+03	0	4.245166e-04
1.240000e+09	2.262288e+12	0.000000e+00	6.025642e-01	8.065358e+13	2.247906e+14	1.131334e+14	7.390943e+03	3.002580e+03	1.883038e+03	0	4.227414e-04
1.250000e+09	2.233944e+12	0.000000e+00	6.025642e-01	8.024347e+13	2.236737e+14	1.126551e+14	7.385373e+03	3.001139e+03	1.882134e+03	0	4.209684e-04
1.260000e+09	2.205871e+12	0.000000e+00	6.025642e-01	7.983711e+13	2.225682e+14	1.121800e+14	7.379831e+03	2.999708e+03	1.881237e+03	0	4.191976e-04
1.270000e+09	2.178067e+12	0.000000e+00	6.025642e-01	7.943447e+13	2.214741e+14	1.117080e+14	7.374317e+03	2.998288e+03	1.880346e+03	0	4.174289e-04
1.280000e+09	2.150528e+12	0.000000e+00	6.025642e-01	7.903548e+13	2.203912e+14	1.112392e+14	7.368830e+03	2.996878e+03	1.879462e+03	0	4.156621e-04
1.290000e+09	2.123249e+12	0.000000e+00	6.025642e-01	7.864011e+13	2.193191e+14	1.107734e+14	7.363372e+03	2.995477e+03	1.878584e+03	0	4.138971e-04
1.300000e+09	2.096227e+12	0.000000e+00	6.025642e-01	7.824829e+13	2.182577e+14	1.103106e+14	7.357940e+03	2.994087e+03	1.877711e+03	0	4.121338e-04
1.310000e+09	2.069459e+12	0.000000e+00	6.025642e-01	7.785999e+13	2.172068e+14	1.098509e+14	7.352536e+03	2.992706e+03	1.876845e+03	0	4.103720e-04
1.320000e+09	2.042940e+12	0.000000e+00	6.025642e-01	7.747515e+13	2.161663e+14	1.093943e+14	7.347158e+03	2.991334e+03	1.875985e+03	0	4.086116e-04
1.330000e+09	2.016669e+12	0.000000e+00	6.025642e-01	7.709372e+13	2.151358e+14	1.089405e+14	7.341807e+03	2.989971e+03	1.875131e+03	0	4.068525e-04
1.340000e+09	1.990640e+12	0.000000e+00	6.025642e-01	7.671566e+13	2.141153e+14	1.084898e+14	7.336483e+03	2.988618e+03	1.874282e+03	0	4.050945e-04
1.350000e+09	1.964851e+12	0.000000e+00	6.025642e-01	7.634093e+13	2.131046e+14	1.080420e+14	7.331184e+03	2.987273e+03	1.873438e+03	0	4.033375e-04
1.360000e+09	1.939299e+12	0.000000e+00	6.025642e-01	7.596947e+13	2.121035e+14	1.075971e+14	7.325911e+03	2.985937e+03	1.872601e+03	0	4.015815e-04
