#t		Qconv[W]	Ri[Rp]		R*[Rp]		Qc[W]		Qm[W]		Qr[W]		Tcmb[K]		Tl[K]		Tup[K]		RiFlag		Bs[T]
0.000000e+00	4.262571e+13	0.000000e+00	5.961541e-01	6.201404e+14	2.007270e+15	2.372231e+14	1.065270e+04	4.425409e+03	2.518818e+03	0	1.127066e-03
1.000000e+07	4.141240e+13	0.000000e+00	5.961541e-01	6.048264e+14	1.876469e+15	2.359087e+14	1.061516e+04	4.378663e+03	2.492212e+03	0	1.116269e-03
2.000000e+07	4.026945e+13	0.000000e+00	5.961541e-01	5.903891e+14	1.763114e+15	2.346042e+14	1.057854e+04	4.336455e+03	2.468187e+03	0	1.105904e-03
3.000000e+07	3.919001e+13	0.000000e+00	5.961541e-01	5.767439e+14	1.664042e+15	2.333094e+14	1.054280e+04	4.298139e+03	2.446379e+03	0	1.095933e-03
4.000000e+07	3.816816e+13	0.000000e+00	5.961541e-01	5.638171e+14	1.576790e+15	2.320242e+14	1.050787e+04	4.263191e+03	2.426488e+03	0	1.086324e-03
5.000000e+07	3.719870e+13	0.000000e+00	5.961541e-01	5.515442e+14	1.499415e+15	2.307487e+14	1.047372e+04	4.231174e+03	2.408265e+03	0	1.077047e-03
6.000000e+07	3.627708e+13	0.000000e+00	5.961541e-01	5.398686e+14	1.430369e+15	2.294826e+14	1.044031e+04	4.201727e+03	2.391504e+03	0	1.068078e-03
7.000000e+07	3.539930e+13	0.000000e+00	5.961541e-01	5.287406e+14	1.368402e+15	2.282260e+14	1.040761e+04	4.174542e+03	2.376032e+03	0	1.059393e-03
8.000000e+07	3.456181e+13	0.000000e+00	5.961541e-01	5.181161e+14	1.312498e+15	2.269787e+14	1.037557e+04	4.149363e+03	2.361700e+03	0	1.050972e-03
9.000000e+07	3.376149e+13	0.000000e+00	5.961541e-01	5.079562e+14	1.261820e+15	2.257407e+14	1.034418e+04	4.125967e+03	2.348384e+03	0	1.042796e-03
1.000000e+08	3.299553e+13	0.000000e+00	5.961541e-01	4.982260e+14	1.215675e+15	2.245119e+14	1.031339e+04	4.104166e+03	2.335975e+03	0	1.034849e-03
1.100000e+08	3.226143e+13	0.000000e+00	5.961541e-01	4.888945e+14	1.173484e+15	2.232922e+14	1.028320e+04	4.083795e+03	2.324381e+03	0	1.027117e-03
1.200000e+08	3.155696e+13	0.000000e+00	5.961541e-01	4.799338e+14	1.134763e+15	2.220816e+14	1.025356e+04	4.064713e+03	2.313520e+03	0	1.019586e-03
1.300000e+08	3.088010e+13	0.000000e+00	5.961541e-01	4.713188e+14	1.099099e+15	2.208799e+14	1.022447e+04	4.046795e+03	2.303321e+03	0	1.012244e-03
1.400000e+08	3.022902e+13	0.000000e+00	5.961541e-01	4.630268e+14	1.066141e+15	2.196871e+14	1.019589e+04	4.029932e+03	2.293723e+03	0	1.005079e-03
1.500000e+08	2.960209e+13	0.000000e+00	5.961541e-01	4.550374e+14	1.035591e+15	2.185031e+14	1.016782e+04	4.014029e+03	2.284672e+03	0	9.980821e-04
1.600000e+08	2.899779e+13	0.000000e+00	5.961541e-01	4.473318e+14	1.007189e+15	2.173279e+14	1.014023e+04	3.999001e+03	2.276118e+03	0	9.912437e-04
1.700000e+08	2.841477e+13	0.000000e+00	5.961541e-01	4.398930e+14	9.807133e+14	2.161613e+14	1.011310e+04	3.984772e+03	2.268020e+03	0	9.845555e-04
1.800000e+08	2.785178e+13	0.000000e+00	5.961541e-01	4.327056e+14	9.559688e+14	2.150033e+14	1.008642e+04	3.971277e+03	2.260339e+03	0	9.780097e-04
1.900000e+08	2.730768e+13	0.000000e+00	5.961541e-01	4.257553e+14	9.327867e+14	2.138539e+14	1.006018e+04	3.958455e+03	2.253041e+03	0	9.715991e-04
2.000000e+08	2.678143e+13	0.000000e+00	5.961541e-01	4.190290e+14	9.110186e+14	2.127129e+14	1.003435e+04	3.946252e+03	2.246095e+03	0	9.653172e-04
2.100000e+08	2.627205e+13	0.000000e+00	5.961541e-01	4.125147e+14	8.905341e+14	2.115804e+14	1.000893e+04	3.934621e+03	2.239475e+03	0	9.591580e-04
2.200000e+08	2.577866e+13	0.000000e+00	5.961541e-01	4.062014e+14	8.712179e+14	2.104561e+14	9.983907e+03	3.923518e+03	2.233156e+03	0	9.531157e-04
2.300000e+08	2.530045e+13	0.000000e+00	5.961541e-01	4.000788e+14	8.529683e+14	2.093401e+14	9.959262e+03	3.912905e+03	2.227115e+03	0	9.471852e-04
2.400000e+08	2.483664e+13	0.000000e+00	5.961541e-01	3.941373e+14	8.356944e+14	2.082323e+14	9.934988e+03	3.902745e+03	2.221332e+03	0	9.413615e-04
2.500000e+08	2.438654e+13	0.000000e+00	5.961541e-01	3.883683e+14	8.193156e+14	2.071325e+14	9.911072e+03	3.893007e+03	2.215790e+03	0	9.356402e-04
2.600000e+08	2.394948e+13	0.000000e+00	5.961541e-01	3.827635e+14	8.037597e+14	2.060409e+14	9.887504e+03	3.883662e+03	2.210471e+03	0	9.300170e-04
2.700000e+08	2.352487e+13	0.000000e+00	5.961541e-01	3.773152e+14	7.889618e+14	2.049572e+14	9.864275e+03	3.874682e+03	2.205359e+03	0	9.244879e-04
2.800000e+08	2.311212e+13	0.000000e+00	5.961541e-01	3.720165e+14	7.748639e+14	2.038814e+14	9.841375e+03	3.866044e+03	2.200443e+03	0	9.190492e-04
2.900000e+08	2.271071e+13	0.000000e+00	5.961541e-01	3.668606e+14	7.614134e+14	2.028135e+14	9.818796e+03	3.857724e+03	2.195708e+03	0	9.136974e-04
3.000000e+08	2.232014e+13	0.000000e+00	5.961541e-01	3.618413e+14	7.485632e+14	2.017534e+14	9.796528e+03	3.849704e+03	2.191143e+03	0	9.084293e-04
3.100000e+08	2.193995e+13	0.000000e+00	5.961541e-01	3.569528e+14	7.362702e+14	2.007009e+14	9.774563e+03	3.841964e+03	2.186737e+03	0	9.032418e-04
3.200000e+08	2.156969e+13	0.000000e+00	5.961541e-01	3.521896e+14	7.244956e+14	1.996562e+14	9.752894e+03	3.834487e+03	2.182482e+03	0	8.981319e-04
3.300000e+08	2.120896e+13	0.000000e+00	5.961541e-01	3.475466e+14	7.132041e+14	1.986190e+14	9.731513e+03	3.827257e+03	2.178366e+03	0	8.930970e-04
3.400000e+08	2.085737e+13	0.000000e+00	5.961541e-01	3.430189e+14	7.023633e+14	1.975894e+14	9.710412e+03	3.820259e+03	2.174383e+03	0	8.881344e-04
3.500000e+08	2.051456e+13	0.000000e+00	5.961541e-01	3.386021e+14	6.919440e+14	1.965672e+14	9.689586e+03	3.813480e+03	2.170525e+03	0	8.832417e-04
3.600000e+08	2.018018e+13	0.000000e+00	5.961541e-01	3.342917e+14	6.819192e+14	1.955525e+14	9.669026e+03	3.806908e+03	2.166784e+03	0	8.784166e-04
3.700000e+08	1.985391e+13	0.000000e+00	5.961541e-01	3.300838e+14	6.722643e+14	1.945451e+14	9.648727e+03	3.800531e+03	2.163155e+03	0	8.736568e-04
3.800000e+08	1.953545e+13	0.000000e+00	5.961541e-01	3.259745e+14	6.629567e+14	1.935450e+14	9.628682e+03	3.794337e+03	2.159630e+03	0	8.689603e-04
3.900000e+08	1.922450e+13	0.000000e+00	5.961541e-01	3.219602e+14	6.539755e+14	1.925521e+14	9.608886e+03	3.788319e+03	2.156204e+03	0	8.643251e-04
4.000000e+08	1.892078e+13	0.000000e+00	5.961541e-01	3.180374e+14	6.453017e+14	1.915664e+14	9.589333e+03	3.782465e+03	2.152872e+03	0	8.597493e-04
4.100000e+08	1.862405e+13	0.000000e+00	5.961541e-01	3.142029e+14	6.369175e+14	1.905878e+14	9.570017e+03	3.776767e+03	2.149629e+03	0	8.552312e-04
4.200000e+08	1.833405e+13	0.000000e+00	5.961541e-01	3.104536e+14	6.288068e+14	1.896163e+14	9.550933e+03	3.771218e+03	2.146471e+03	0	8.507689e-04
4.300000e+08	1.805054e+13	0.000000e+00	5.961541e-01	3.067865e+14	6.209543e+14	1.886517e+14	9.532076e+03	3.765810e+03	2.143392e+03	0	8.463609e-04
4.400000e+08	1.777331e+13	0.000000e+00	5.961541e-01	3.031989e+14	6.133462e+14	1.876941e+14	9.513441e+03	3.760535e+03	2.140390e+03	0	8.420055e-04
4.500000e+08	1.750215e+13	0.000000e+00	5.961541e-01	2.996880e+14	6.059695e+14	1.867434e+14	9.495023e+03	3.755388e+03	2.137461e+03	0	8.377014e-04
4.600000e+08	1.723684e+13	0.000000e+00	5.961541e-01	2.962514e+14	5.988121e+14	1.857995e+14	9.476818e+03	3.750362e+03	2.134600e+03	0	8.334471e-04
4.700000e+08	1.697720e+13	0.000000e+00	5.961541e-01	2.928866e+14	5.918630e+14	1.848623e+14	9.458820e+03	3.745452e+03	2.131805e+03	0	8.292412e-04
4.800000e+08	1.672305e+13	0.000000e+00	5.961541e-01	2.895913e+14	5.851116e+14	1.839319e+14	9.441026e+03	3.740652e+03	2.129073e+03	0	8.250824e-04
4.900000e+08	1.647420e+13	0.000000e+00	5.961541e-01	2.863634e+14	5.785482e+14	1.830082e+14	9.423432e+03	3.735956e+03	2.126401e+03	0	8.209694e-04
5.000000e+08	1.623050e+13	0.000000e+00	5.961541e-01	2.832007e+14	5.721638e+14	1.820910e+14	9.406032e+03	3.731362e+03	2.123786e+03	0	8.169011e-04
5.100000e+08	1.599178e+13	0.000000e+00	5.961541e-01	2.801012e+14	5.659500e+14	1.811804e+14	9.388825e+03	3.726863e+03	2.121225e+03	0	8.128763e-04
5.200000e+08	1.575789e+13	0.000000e+00	5.961541e-01	2.770630e+14	5.598988e+14	1.802763e+14	9.371805e+03	3.722456e+03	2.118717e+03	0	8.088938e-04
5.300000e+08	1.552868e+13	0.000000e+00	5.961541e-01	2.740842e+14	5.540028e+14	1.793787e+14	9.354969e+03	3.718137e+03	2.116259e+03	0	8.049527e-04
5.400000e+08	1.530402e+13	0.000000e+00	5.961541e-01	2.711631e+14	5.482551e+14	1.784874e+14	9.338313e+03	3.713902e+03	2.113848e+03	0	8.010518e-04
5.500000e+08	1.508376e+13	0.000000e+00	5.961541e-01	2.682980e+14	5.426491e+14	1.776025e+14	9.321835e+03	3.709748e+03	2.111484e+03	0	7.971903e-04
5.600000e+08	1.486778e+13	0.000000e+00	5.961541e-01	2.654873e+14	5.371787e+14	1.767239e+14	9.305529e+03	3.705671e+03	2.109163e+03	0	7.933671e-04
5.700000e+08	1.465595e+13	0.000000e+00	5.961541e-01	2.627293e+14	5.318382e+14	1.758515e+14	9.289394e+03	3.701668e+03	2.106885e+03	0	7.895813e-04
5.800000e+08	1.444816e+13	0.000000e+00	5.961541e-01	2.600227e+14	5.266222e+14	1.749853e+14	9.273426e+03	3.697737e+03	2.104647e+03	0	7.858320e-04
5.900000e+08	1.424430e+13	0.000000e+00	5.961541e-01	2.573660e+14	5.215255e+14	1.741252e+14	9.257622e+03	3.693874e+03	2.102449e+03	0	7.821184e-04
6.000000e+08	1.404425e+13	0.000000e+00	5.961541e-01	2.547578e+14	5.165433e+14	1.732713e+14	9.241979e+03	3.690077e+03	2.100288e+03	0	7.784397e-04
6.100000e+08	1.384790e+13	0.000000e+00	5.961541e-01	2.521968e+14	5.116712e+14	1.724233e+14	9.226494e+03	3.686343e+03	2.098163e+03	0	7.747950e-04
6.200000e+08	1.365516e+13	0.000000e+00	5.961541e-01	2.496816e+14	5.069048e+14	1.715814e+14	9.211164e+03	3.682671e+03	2.096072e+03	0	7.711836e-04
6.300000e+08	1.346593e+13	0.000000e+00	5.961541e-01	2.472112e+14	5.022401e+14	1.707454e+14	9.195987e+03	3.679057e+03	2.094015e+03	0	7.676047e-04
6.400000e+08	1.328012e+13	0.000000e+00	5.961541e-01	2.447842e+14	4.976732e+14	1.699153e+14	9.180959e+03	3.675500e+03	2.091991e+03	0	7.640576e-04
6.500000e+08	1.309763e+13	0.000000e+00	5.961541e-01	2.423996e+14	4.932005e+14	1.690910e+14	9.166078e+03	3.671998e+03	2.089998e+03	0	7.605417e-04
6.600000e+08	1.291837e+13	0.000000e+00	5.961541e-01	2.400562e+14	4.888187e+14	1.682726e+14	9.151342e+03	3.668549e+03	2.088034e+03	0	7.570561e-04
6.700000e+08	1.274227e+13	0.000000e+00	5.961541e-01	2.377530e+14	4.845244e+14	1.674599e+14	9.136747e+03	3.665150e+03	2.086100e+03	0	7.536004e-04
6.800000e+08	1.256924e+13	0.000000e+00	5.961541e-01	2.354890e+14	4.803145e+14	1.666529e+14	9.122293e+03	3.661801e+03	2.084193e+03	0	7.501738e-04
6.900000e+08	1.239921e+13	0.000000e+00	5.961541e-01	2.332632e+14	4.761861e+14	1.658516e+14	9.107975e+03	3.658499e+03	2.082314e+03	0	7.467757e-04
7.000000e+08	1.223209e+13	0.000000e+00	5.961541e-01	2.310746e+14	4.721365e+14	1.650559e+14	9.093792e+03	3.655243e+03	2.080461e+03	0	7.434055e-04
7.100000e+08	1.206783e+13	0.000000e+00	5.961541e-01	2.289223e+14	4.681629e+14	1.642657e+14	9.079742e+03	3.652032e+03	2.078633e+03	0	7.400627e-04
7.200000e+08	1.190633e+13	0.000000e+00	5.961541e-01	2.268054e+14	4.642629e+14	1.634811e+14	9.065823e+03	3.648864e+03	2.076830e+03	0	7.367466e-04
7.300000e+08	1.174754e+13	0.000000e+00	5.961541e-01	2.247231e+14	4.604340e+14	1.627020e+14	9.052032e+03	3.645737e+03	2.075051e+03	0	7.334567e-04
7.400000e+08	1.159140e+13	0.000000e+00	5.961541e-01	2.226745e+14	4.566740e+14	1.619283e+14	9.038367e+03	3.642652e+03	2.073294e+03	0	7.301926e-04
7.500000e+08	1.143783e+13	0.000000e+00	5.961541e-01	2.206589e+14	4.529806e+14	1.611600e+14	9.024826e+03	3.639605e+03	2.071560e+03	0	7.269536e-04
7.600000e+08	1.128678e+13	0.000000e+00	5.961541e-01	2.186754e+14	4.493519e+14	1.603971e+14	9.011407e+03	3.636596e+03	2.069848e+03	0	7.237392e-04
7.700000e+08	1.113818e+13	0.000000e+00	5.961541e-01	2.167233e+14	4.457858e+14	1.596394e+14	8.998109e+03	3.633624e+03	2.068156e+03	0	7.205491e-04
7.800000e+08	1.099198e+13	0.000000e+00	5.961541e-01	2.148018e+14	4.422804e+14	1.588870e+14	8.984929e+03	3.630688e+03	2.066485e+03	0	7.173826e-04
7.900000e+08	1.084813e+13	0.000000e+00	5.961541e-01	2.129104e+14	4.388339e+14	1.581399e+14	8.971866e+03	3.627787e+03	2.064834e+03	0	7.142394e-04
8.000000e+08	1.070657e+13	0.000000e+00	5.961541e-01	2.110482e+14	4.354446e+14	1.573979e+14	8.958917e+03	3.624920e+03	2.063202e+03	0	7.111189e-04
8.100000e+08	1.056724e+13	0.000000e+00	5.961541e-01	2.092146e+14	4.321107e+14	1.566611e+14	8.946081e+03	3.622085e+03	2.061589e+03	0	7.080207e-04
8.200000e+08	1.043010e+13	0.000000e+00	5.961541e-01	2.074090e+14	4.288308e+14	1.559294e+14	8.933356e+03	3.619283e+03	2.059993e+03	0	7.049445e-04
8.300000e+08	1.029509e+13	0.000000e+00	5.961541e-01	2.056307e+14	4.256033e+14	1.552027e+14	8.920741e+03	3.616511e+03	2.058416e+03	0	7.018897e-04
8.400000e+08	1.016217e+13	0.000000e+00	5.961541e-01	2.038792e+14	4.224267e+14	1.544811e+14	8.908234e+03	3.613770e+03	2.056856e+03	0	6.988560e-04
8.500000e+08	1.003130e+13	0.000000e+00	5.961541e-01	2.021538e+14	4.192997e+14	1.537644e+14	8.895833e+03	3.611058e+03	2.055312e+03	0	6.958429e-04
8.600000e+08	9.902423e+12	0.000000e+00	5.961541e-01	2.004541e+14	4.162208e+14	1.530527e+14	8.883536e+03	3.608375e+03	2.053785e+03	0	6.928501e-04
8.700000e+08	9.775500e+12	0.000000e+00	5.961541e-01	1.987793e+14	4.131889e+14	1.523459e+14	8.871343e+03	3.605720e+03	2.052274e+03	0	6.898772e-04
8.800000e+08	9.650490e+12	0.000000e+00	5.961541e-01	1.971291e+14	4.102026e+14	1.516439e+14	8.859251e+03	3.603092e+03	2.050778e+03	0	6.869239e-04
8.900000e+08	9.527349e+12	0.000000e+00	5.961541e-01	1.955028e+14	4.072608e+14	1.509467e+14	8.847260e+03	3.600491e+03	2.049298e+03	0	6.839896e-04
9.000000e+08	9.406039e+12	0.000000e+00	5.961541e-01	1.939001e+14	4.043623e+14	1.502544e+14	8.835367e+03	3.597915e+03	2.047832e+03	0	6.810742e-04
9.100000e+08	9.286521e+12	0.000000e+00	5.961541e-01	1.923203e+14	4.015061e+14	1.495668e+14	8.823571e+03	3.595365e+03	2.046380e+03	0	6.781772e-04
9.200000e+08	9.168757e+12	0.000000e+00	5.961541e-01	1.907630e+14	3.986910e+14	1.488839e+14	8.811871e+03	3.592840e+03	2.044943e+03	0	6.752983e-04
9.300000e+08	9.052711e+12	0.000000e+00	5.961541e-01	1.892278e+14	3.959161e+14	1.482056e+14	8.800266e+03	3.590338e+03	2.043519e+03	0	6.724372e-04
9.400000e+08	8.938346e+12	0.000000e+00	5.961541e-01	1.877141e+14	3.931803e+14	1.475320e+14	8.788753e+03	3.587860e+03	2.042109e+03	0	6.695935e-04
9.500000e+08	8.825628e+12	0.000000e+00	5.961541e-01	1.862216e+14	3.904828e+14	1.468630e+14	8.777333e+03	3.585405e+03	2.040711e+03	0	6.667669e-04
9.600000e+08	8.714524e+12	0.000000e+00	5.961541e-01	1.847498e+14	3.878226e+14	1.461986e+14	8.766003e+03	3.582973e+03	2.039327e+03	0	6.639571e-04
9.700000e+08	8.605000e+12	0.000000e+00	5.961541e-01	1.832983e+14	3.851988e+14	1.455387e+14	8.754762e+03	3.580563e+03	2.037955e+03	0	6.611639e-04
9.800000e+08	8.497025e+12	0.000000e+00	5.961541e-01	1.818668e+14	3.826107e+14	1.448833e+14	8.743610e+03	3.578174e+03	2.036595e+03	0	6.583868e-04
9.900000e+08	8.390568e+12	0.000000e+00	5.961541e-01	1.804547e+14	3.800572e+14	1.442323e+14	8.732544e+03	3.575806e+03	2.035248e+03	0	6.556257e-04
1.000000e+09	8.285598e+12	0.000000e+00	5.961541e-01	1.790617e+14	3.775378e+14	1.435858e+14	8.721564e+03	3.573458e+03	2.033912e+03	0	6.528801e-04
1.010000e+09	8.182086e+12	0.000000e+00	5.961541e-01	1.776875e+14	3.750516e+14	1.429436e+14	8.710669e+03	3.571131e+03	2.032587e+03	0	6.501499e-04
1.020000e+09	8.080004e+12	0.000000e+00	5.961541e-01	1.763317e+14	3.725978e+14	1.423058e+14	8.699857e+03	3.568824e+03	2.031274e+03	0	6.474348e-04
1.030000e+09	7.979323e+12	0.000000e+00	5.961541e-01	1.749940e+14	3.701758e+14	1.416723e+14	8.689127e+03	3.566536e+03	2.029971e+03	0	6.447344e-04
1.040000e+09	7.880016e+12	0.000000e+00	5.961541e-01	1.736739e+14	3.677848e+14	1.410431e+14	8.678479e+03	3.564266e+03	2.028680e+03	0	6.420485e-04
1.050000e+09	7.782057e+12	0.000000e+00	5.961541e-01	1.723711e+14	3.654243e+14	1.404181e+14	8.667910e+03	3.562016e+03	2.027399e+03	0	6.393769e-04
1.060000e+09	7.685420e+12	0.000000e+00	5.961541e-01	1.710854e+14	3.630935e+14	1.397974e+14	8.657421e+03	3.559783e+03	2.026128e+03	0	6.367193e-04
1.070000e+09	7.590080e+12	0.000000e+00	5.961541e-01	1.698164e+14	3.607918e+14	1.391808e+14	8.647010e+03	3.557568e+03	2.024867e+03	0	6.340754e-04
1.080000e+09	7.496012e+12	0.000000e+00	5.961541e-01	1.685637e+14	3.585186e+14	1.385684e+14	8.636675e+03	3.555371e+03	2.023617e+03	0	6.314451e-04
1.090000e+09	7.403192e+12	0.000000e+00	5.961541e-01	1.673272e+14	3.562734e+14	1.379601e+14	8.626417e+03	3.553191e+03	2.022376e+03	0	6.288279e-04
1.100000e+09	7.311597e+12	0.000000e+00	5.961541e-01	1.661064e+14	3.540555e+14	1.373559e+14	8.616234e+03	3.551027e+03	2.021144e+03	0	6.262238e-04
1.110000e+09	7.221205e+12	0.000000e+00	5.961541e-01	1.649012e+14	3.518644e+14	1.367557e+14	8.606125e+03	3.548881e+03	2.019923e+03	0	6.236324e-04
1.120000e+09	7.131992e+12	0.000000e+00	5.961541e-01	1.637111e+14	3.496996e+14	1.361595e+14	8.596089e+03	3.546750e+03	2.018710e+03	0	6.210536e-04
1.130000e+09	7.043937e+12	0.000000e+00	5.961541e-01	1.625360e+14	3.475606e+14	1.355674e+14	8.586126e+03	3.544635e+03	2.017506e+03	0	6.184871e-04
1.140000e+09	6.957020e+12	0.000000e+00	5.961541e-01	1.613756e+14	3.454468e+14	1.349792e+14	8.576233e+03	3.542536e+03	2.016311e+03	0	6.159327e-04
1.150000e+09	6.871220e+12	0.000000e+00	5.961541e-01	1.602296e+14	3.433577e+14	1.343949e+14	8.566412e+03	3.540452e+03	2.015125e+03	0	6.133901e-04
1.160000e+09	6.786515e+12	0.000000e+00	5.961541e-01	1.590977e+14	3.412930e+14	1.338146e+14	8.556659e+03	3.538384e+03	2.013948e+03	0	6.108592e-04
1.170000e+09	6.702888e+12	0.000000e+00	5.961541e-01	1.579797e+14	3.392520e+14	1.332380e+14	8.546976e+03	3.536330e+03	2.012779e+03	0	6.083397e-04
1.180000e+09	6.620318e+12	0.000000e+00	5.961541e-01	1.568754e+14	3.372344e+14	1.326654e+14	8.537360e+03	3.534290e+03	2.011618e+03	0	6.058314e-04
1.190000e+09	6.538786e+12	0.000000e+00	5.961541e-01	1.557845e+14	3.352398e+14	1.320965e+14	8.527812e+03	3.532265e+03	2.010466e+03	0	6.033341e-04
1.200000e+09	6.458275e+12	0.000000e+00	5.961541e-01	1.547068e+14	3.332677e+14	1.315314e+14	8.518329e+03	3.530254e+03	2.009321e+03	0	6.008476e-04
1.210000e+09	6.378767e+12	0.000000e+00	5.961541e-01	1.536420e+14	3.313176e+14	1.309701e+14	8.508912e+03	3.528257e+03	2.008184e+03	0	5.983717e-04
1.220000e+09	6.300243e+12	0.000000e+00	5.961541e-01	1.525900e+14	3.293893e+14	1.304125e+14	8.499560e+03	3.526274e+03	2.007056e+03	0	5.959062e-04
1.230000e+09	6.222688e+12	0.000000e+00	5.961541e-01	1.515505e+14	3.274822e+14	1.298585e+14	8.490272e+03	3.524304e+03	2.005934e+03	0	5.934509e-04
1.240000e+09	6.146084e+12	0.000000e+00	5.961541e-01	1.505233e+14	3.255961e+14	1.293083e+14	8.481047e+03	3.522347e+03	2.004820e+03	0	5.910057e-04
1.250000e+09	6.070414e+12	0.000000e+00	5.961541e-01	1.495082e+14	3.237305e+14	1.287616e+14	8.471884e+03	3.520403e+03	2.003714e+03	0	5.885702e-04
1.260000e+09	5.995664e+12	0.000000e+00	5.961541e-01	1.485050e+14	3.218852e+14	1.282186e+14	8.462783e+03	3.518472e+03	2.002615e+03	0	5.861443e-04
1.270000e+09	5.921817e+12	0.000000e+00	5.961541e-01	1.475135e+14	3.200597e+14	1.276791e+14	8.453742e+03	3.516553e+03	2.001523e+03	0	5.837279e-04
1.280000e+09	5.848858e+12	0.000000e+00	5.961541e-01	1.465334e+14	3.182536e+14	1.271432e+14	8.444762e+03	3.514647e+03	2.000438e+03	0	5.813208e-04
1.290000e+09	5.776772e+12	0.000000e+00	5.961541e-01	1.455647e+14	3.164668e+14	1.266108e+14	8.435842e+03	3.512753e+03	1.999360e+03	0	5.789227e-04
1.300000e+09	5.705544e+12	0.000000e+00	5.961541e-01	1.446071e+14	3.146988e+14	1.260820e+14	8.426980e+03	3.510872e+03	1.998289e+03	0	5.765335e-04
1.310000e+09	5.635161e+12	0.000000e+00	5.961541e-01	1.436605e+14	3.129493e+14	1.255565e+14	8.418177e+03	3.509001e+03	1.997224e+03	0	5.741529e-04
1.320000e+09	5.565608e+12	0.000000e+00	5.961541e-01	1.427245e+14	3.112180e+14	1.250345e+14	8.409431e+03	3.507143e+03	1.996167e+03	0	5.717810e-04
1.330000e+09	5.496872e+12	0.000000e+00	5.961541e-01	1.417992e+14	3.095047e+14	1.245160e+14	8.400742e+03	3.505296e+03	1.995116e+03	0	5.694174e-04
1.340000e+09	5.428939e+12	0.000000e+00	5.961541e-01	1.408843e+14	3.078089e+14	1.240008e+14	8.392109e+03	3.503461e+03	1.994071e+03	0	5.670619e-04
1.350000e+09	5.361796e+12	0.000000e+00	5.961541e-01	1.399797e+14	3.061305e+14	1.234890e+14	8.383531e+03	3.501636e+03	1.993032e+03	0	5.647145e-04
1.360000e+09	5.295431e+12	0.000000e+00	5.961541e-01	1.390851e+14	3.044692e+14	1.229805e+14	8.375009e+03	3.499823e+03	1.992000e+03	0	5.623749e-04
