#t		Qconv[W]	Ri[Rp]		R*[Rp]		Qc[W]		Qm[W]		Qr[W]		Tcmb[K]		Tl[K]		Tup[K]		RiFlag		Bs[T]
0.000000e+00	7.365919e+13	0.000000e+00	6.000000e-01	9.808097e+14	2.246773e+15	2.522542e+14	1.180821e+04	4.639436e+03	2.542391e+03	0	1.339724e-03
1.000000e+07	7.146544e+13	0.000000e+00	6.000000e-01	9.546783e+14	2.123372e+15	2.508565e+14	1.175483e+04	4.600262e+03	2.520924e+03	0	1.326290e-03
2.000000e+07	6.939316e+13	0.000000e+00	6.000000e-01	9.299779e+14	2.014957e+15	2.494693e+14	1.170287e+04	4.564715e+03	2.501445e+03	0	1.313345e-03
3.000000e+07	6.743123e+13	0.000000e+00	6.000000e-01	9.065780e+14	1.918972e+15	2.480924e+14	1.165224e+04	4.532293e+03	2.483677e+03	0	1.300849e-03
4.000000e+07	6.556997e+13	0.000000e+00	6.000000e-01	8.843649e+14	1.833398e+15	2.467258e+14	1.160287e+04	4.502580e+03	2.467395e+03	0	1.288768e-03
5.000000e+07	6.380089e+13	0.000000e+00	6.000000e-01	8.632392e+14	1.756621e+15	2.453695e+14	1.155471e+04	4.475234e+03	2.452409e+03	0	1.277072e-03
6.000000e+07	6.211651e+13	0.000000e+00	6.000000e-01	8.431129e+14	1.687339e+15	2.440232e+14	1.150768e+04	4.449963e+03	2.438561e+03	0	1.265733e-03
7.000000e+07	6.051022e+13	0.000000e+00	6.000000e-01	8.239084e+14	1.624490e+15	2.426869e+14	1.146175e+04	4.426525e+03	2.425717e+03	0	1.254727e-03
8.000000e+07	5.897614e+13	0.000000e+00	6.000000e-01	8.055567e+14	1.567199e+15	2.413606e+14	1.141685e+04	4.404711e+03	2.413763e+03	0	1.244033e-03
9.000000e+07	5.750902e+13	0.000000e+00	6.000000e-01	7.879960e+14	1.514740e+15	2.400442e+14	1.137295e+04	4.384343e+03	2.402602e+03	0	1.233631e-03
1.000000e+08	5.610415e+13	0.000000e+00	6.000000e-01	7.711711e+14	1.466508e+15	2.387375e+14	1.133000e+04	4.365269e+03	2.392149e+03	0	1.223502e-03
1.100000e+08	5.475732e+13	0.000000e+00	6.000000e-01	7.550322e+14	1.421993e+15	2.374405e+14	1.128796e+04	4.347357e+03	2.382333e+03	0	1.213633e-03
1.200000e+08	5.346469e+13	0.000000e+00	6.000000e-01	7.395345e+14	1.380761e+15	2.361532e+14	1.124680e+04	4.330490e+03	2.373090e+03	0	1.204006e-03
1.300000e+08	5.222280e+13	0.000000e+00	6.000000e-01	7.246371e+14	1.342445e+15	2.348754e+14	1.120647e+04	4.314569e+03	2.364365e+03	0	1.194611e-03
1.400000e+08	5.102852e+13	0.000000e+00	6.000000e-01	7.103030e+14	1.306729e+15	2.336070e+14	1.116695e+04	4.299505e+03	2.356110e+03	0	1.185434e-03
1.500000e+08	4.987896e+13	0.000000e+00	6.000000e-01	6.964986e+14	1.273340e+15	2.323480e+14	1.112821e+04	4.285221e+03	2.348283e+03	0	1.176465e-03
1.600000e+08	4.877151e+13	0.000000e+00	6.000000e-01	6.831928e+14	1.242043e+15	2.310983e+14	1.109022e+04	4.271647e+03	2.340845e+03	0	1.167693e-03
1.700000e+08	4.770376e+13	0.000000e+00	6.000000e-01	6.703575e+14	1.212634e+15	2.298578e+14	1.105295e+04	4.258724e+03	2.333763e+03	0	1.159108e-03
1.800000e+08	4.667351e+13	0.000000e+00	6.000000e-01	6.579667e+14	1.184932e+15	2.286265e+14	1.101637e+04	4.246397e+03	2.327008e+03	0	1.150703e-03
1.900000e+08	4.567873e+13	0.000000e+00	6.000000e-01	6.459962e+14	1.158781e+15	2.274042e+14	1.098047e+04	4.234618e+03	2.320553e+03	0	1.142469e-03
2.000000e+08	4.471753e+13	0.000000e+00	6.000000e-01	6.344241e+14	1.134043e+15	2.261910e+14	1.094522e+04	4.223343e+03	2.314374e+03	0	1.134399e-03
2.100000e+08	4.378817e+13	0.000000e+00	6.000000e-01	6.232298e+14	1.110596e+15	2.249866e+14	1.091059e+04	4.212534e+03	2.308451e+03	0	1.126485e-03
2.200000e+08	4.288905e+13	0.000000e+00	6.000000e-01	6.123944e+14	1.088331e+15	2.237911e+14	1.087657e+04	4.202155e+03	2.302763e+03	0	1.118721e-03
2.300000e+08	4.201866e+13	0.000000e+00	6.000000e-01	6.019001e+14	1.067151e+15	2.226044e+14	1.084314e+04	4.192176e+03	2.297295e+03	0	1.111102e-03
2.400000e+08	4.117563e+13	0.000000e+00	6.000000e-01	5.917305e+14	1.046971e+15	2.214264e+14	1.081028e+04	4.182568e+03	2.292029e+03	0	1.103621e-03
2.500000e+08	4.035864e+13	0.000000e+00	6.000000e-01	5.818705e+14	1.027714e+15	2.202570e+14	1.077797e+04	4.173304e+03	2.286953e+03	0	1.096273e-03
2.600000e+08	3.956649e+13	0.000000e+00	6.000000e-01	5.723055e+14	1.009310e+15	2.190961e+14	1.074620e+04	4.164362e+03	2.282053e+03	0	1.089053e-03
2.700000e+08	3.879804e+13	0.000000e+00	6.000000e-01	5.630223e+14	9.916970e+14	2.179438e+14	1.071495e+04	4.155721e+03	2.277317e+03	0	1.081956e-03
2.800000e+08	3.805223e+13	0.000000e+00	6.000000e-01	5.540083e+14	9.748191e+14	2.167998e+14	1.068420e+04	4.147360e+03	2.272736e+03	0	1.074979e-03
2.900000e+08	3.732807e+13	0.000000e+00	6.000000e-01	5.452518e+14	9.586253e+14	2.156643e+14	1.065394e+04	4.139262e+03	2.268298e+03	0	1.068116e-03
3.000000e+08	3.662462e+13	0.000000e+00	6.000000e-01	5.367418e+14	9.430695e+14	2.145369e+14	1.062416e+04	4.131411e+03	2.263996e+03	0	1.061364e-03
3.100000e+08	3.594101e+13	0.000000e+00	6.000000e-01	5.284677e+14	9.281098e+14	2.134178e+14	1.059484e+04	4.123791e+03	2.259820e+03	0	1.054719e-03
3.200000e+08	3.527640e+13	0.000000e+00	6.000000e-01	5.204200e+14	9.137079e+14	2.123069e+14	1.056597e+04	4.116390e+03	2.255764e+03	0	1.048177e-03
3.300000e+08	3.463002e+13	0.000000e+00	6.000000e-01	5.125892e+14	8.998289e+14	2.112040e+14	1.053753e+04	4.109195e+03	2.251821e+03	0	1.041735e-03
3.400000e+08	3.400112e+13	0.000000e+00	6.000000e-01	5.049668e+14	8.864411e+14	2.101092e+14	1.050953e+04	4.102193e+03	2.247984e+03	0	1.035391e-03
3.500000e+08	3.338902e+13	0.000000e+00	6.000000e-01	4.975445e+14	8.735150e+14	2.090222e+14	1.048193e+04	4.095375e+03	2.244248e+03	0	1.029140e-03
3.600000e+08	3.279306e+13	0.000000e+00	6.000000e-01	4.903146e+14	8.610240e+14	2.079432e+14	1.045474e+04	4.088730e+03	2.240607e+03	0	1.022980e-03
3.700000e+08	3.221261e+13	0.000000e+00	6.000000e-01	4.832696e+14	8.489432e+14	2.068720e+14	1.042795e+04	4.082249e+03	2.237055e+03	0	1.016908e-03
3.800000e+08	3.164709e+13	0.000000e+00	6.000000e-01	4.764026e+14	8.372499e+14	2.058085e+14	1.040154e+04	4.075924e+03	2.233589e+03	0	1.010922e-03
3.900000e+08	3.109593e+13	0.000000e+00	6.000000e-01	4.697070e+14	8.259231e+14	2.047527e+14	1.037550e+04	4.069746e+03	2.230204e+03	0	1.005019e-03
4.000000e+08	3.055861e+13	0.000000e+00	6.000000e-01	4.631764e+14	8.149433e+14	2.037045e+14	1.034982e+04	4.063710e+03	2.226896e+03	0	9.991967e-04
4.100000e+08	3.003462e+13	0.000000e+00	6.000000e-01	4.568050e+14	8.042925e+14	2.026639e+14	1.032450e+04	4.057807e+03	2.223661e+03	0	9.934527e-04
4.200000e+08	2.952348e+13	0.000000e+00	6.000000e-01	4.505870e+14	7.939540e+14	2.016308e+14	1.029953e+04	4.052031e+03	2.220496e+03	0	9.877848e-04
4.300000e+08	2.902474e+13	0.000000e+00	6.000000e-01	4.445171e+14	7.839123e+14	2.006052e+14	1.027489e+04	4.046377e+03	2.217397e+03	0	9.821909e-04
4.400000e+08	2.853795e+13	0.000000e+00	6.000000e-01	4.385900e+14	7.741530e+14	1.995869e+14	1.025059e+04	4.040839e+03	2.214362e+03	0	9.766690e-04
4.500000e+08	2.806272e+13	0.000000e+00	6.000000e-01	4.328009e+14	7.646625e+14	1.985759e+14	1.022661e+04	4.035411e+03	2.211388e+03	0	9.712173e-04
4.600000e+08	2.759864e+13	0.000000e+00	6.000000e-01	4.271451e+14	7.554284e+14	1.975722e+14	1.020294e+04	4.030090e+03	2.208472e+03	0	9.658337e-04
4.700000e+08	2.714533e+13	0.000000e+00	6.000000e-01	4.216182e+14	7.464389e+14	1.965757e+14	1.017958e+04	4.024869e+03	2.205611e+03	0	9.605166e-04
4.800000e+08	2.670245e+13	0.000000e+00	6.000000e-01	4.162159e+14	7.376831e+14	1.955863e+14	1.015653e+04	4.019746e+03	2.202804e+03	0	9.552642e-04
4.900000e+08	2.626963e+13	0.000000e+00	6.000000e-01	4.109340e+14	7.291506e+14	1.946040e+14	1.013376e+04	4.014716e+03	2.200048e+03	0	9.500748e-04
5.000000e+08	2.584656e+13	0.000000e+00	6.000000e-01	4.057688e+14	7.208318e+14	1.936287e+14	1.011129e+04	4.009776e+03	2.197340e+03	0	9.449469e-04
5.100000e+08	2.543293e+13	0.000000e+00	6.000000e-01	4.007164e+14	7.127177e+14	1.926605e+14	1.008909e+04	4.004921e+03	2.194680e+03	0	9.398790e-04
5.200000e+08	2.502842e+13	0.000000e+00	6.000000e-01	3.957734e+14	7.047998e+14	1.916991e+14	1.006717e+04	4.000149e+03	2.192065e+03	0	9.348695e-04
5.300000e+08	2.463276e+13	0.000000e+00	6.000000e-01	3.909362e+14	6.970701e+14	1.907445e+14	1.004552e+04	3.995457e+03	2.189493e+03	0	9.299170e-04
5.400000e+08	2.424567e+13	0.000000e+00	6.000000e-01	3.862017e+14	6.895210e+14	1.897968e+14	1.002414e+04	3.990841e+03	2.186964e+03	0	9.250201e-04
5.500000e+08	2.386688e+13	0.000000e+00	6.000000e-01	3.815667e+14	6.821455e+14	1.888558e+14	1.000301e+04	3.986298e+03	2.184474e+03	0	9.201776e-04
5.600000e+08	2.349613e+13	0.000000e+00	6.000000e-01	3.770281e+14	6.749368e+14	1.879215e+14	9.982133e+03	3.981826e+03	2.182024e+03	0	9.153882e-04
5.700000e+08	2.313320e+13	0.000000e+00	6.000000e-01	3.725831e+14	6.678887e+14	1.869939e+14	9.961504e+03	3.977424e+03	2.179611e+03	0	9.106505e-04
5.800000e+08	2.277784e+13	0.000000e+00	6.000000e-01	3.682289e+14	6.609951e+14	1.860728e+14	9.941118e+03	3.973087e+03	2.177235e+03	0	9.059634e-04
5.900000e+08	2.242983e+13	0.000000e+00	6.000000e-01	3.639629e+14	6.542503e+14	1.851582e+14	9.920969e+03	3.968814e+03	2.174893e+03	0	9.013258e-04
6.000000e+08	2.208895e+13	0.000000e+00	6.000000e-01	3.597824e+14	6.476490e+14	1.842501e+14	9.901053e+03	3.964603e+03	2.172585e+03	0	8.967364e-04
6.100000e+08	2.175499e+13	0.000000e+00	6.000000e-01	3.556851e+14	6.411861e+14	1.833485e+14	9.881365e+03	3.960451e+03	2.170311e+03	0	8.921943e-04
6.200000e+08	2.142777e+13	0.000000e+00	6.000000e-01	3.516685e+14	6.348568e+14	1.824532e+14	9.861900e+03	3.956358e+03	2.168067e+03	0	8.876984e-04
6.300000e+08	2.110707e+13	0.000000e+00	6.000000e-01	3.477303e+14	6.286564e+14	1.815642e+14	9.842653e+03	3.952320e+03	2.165855e+03	0	8.832476e-04
6.400000e+08	2.079273e+13	0.000000e+00	6.000000e-01	3.438685e+14	6.225806e+14	1.806815e+14	9.823622e+03	3.948337e+03	2.163672e+03	0	8.788410e-04
6.500000e+08	2.048456e+13	0.000000e+00	6.000000e-01	3.400808e+14	6.166253e+14	1.798051e+14	9.804801e+03	3.944407e+03	2.161518e+03	0	8.744777e-04
6.600000e+08	2.018240e+13	0.000000e+00	6.000000e-01	3.363651e+14	6.107865e+14	1.789348e+14	9.786187e+03	3.940527e+03	2.159392e+03	0	8.701565e-04
6.700000e+08	1.988607e+13	0.000000e+00	6.000000e-01	3.327197e+14	6.050604e+14	1.780706e+14	9.767775e+03	3.936697e+03	2.157294e+03	0	8.658768e-04
6.800000e+08	1.959541e+13	0.000000e+00	6.000000e-01	3.291425e+14	5.994434e+14	1.772124e+14	9.749563e+03	3.932916e+03	2.155221e+03	0	8.616376e-04
6.900000e+08	1.931029e+13	0.000000e+00	6.000000e-01	3.256317e+14	5.939322e+14	1.763603e+14	9.731545e+03	3.929181e+03	2.153174e+03	0	8.574380e-04
7.000000e+08	1.903053e+13	0.000000e+00	6.000000e-01	3.221856e+14	5.885234e+14	1.755142e+14	9.713719e+03	3.925491e+03	2.151153e+03	0	8.532772e-04
7.100000e+08	1.875602e+13	0.000000e+00	6.000000e-01	3.188025e+14	5.832139e+14	1.746740e+14	9.696081e+03	3.921846e+03	2.149155e+03	0	8.491544e-04
7.200000e+08	1.848659e+13	0.000000e+00	6.000000e-01	3.154807e+14	5.780008e+14	1.738397e+14	9.678627e+03	3.918244e+03	2.147181e+03	0	8.450689e-04
7.300000e+08	1.822214e+13	0.000000e+00	6.000000e-01	3.122187e+14	5.728811e+14	1.730112e+14	9.661355e+03	3.914683e+03	2.145230e+03	0	8.410198e-04
7.400000e+08	1.796251e+13	0.000000e+00	6.000000e-01	3.090148e+14	5.678521e+14	1.721885e+14	9.644260e+03	3.911163e+03	2.143301e+03	0	8.370065e-04
7.500000e+08	1.770760e+13	0.000000e+00	6.000000e-01	3.058677e+14	5.629112e+14	1.713715e+14	9.627341e+03	3.907683e+03	2.141394e+03	0	8.330282e-04
7.600000e+08	1.745727e+13	0.000000e+00	6.000000e-01	3.027759e+14	5.580560e+14	1.705602e+14	9.610593e+03	3.904242e+03	2.139508e+03	0	8.290841e-04
7.700000e+08	1.721142e+13	0.000000e+00	6.000000e-01	2.997380e+14	5.532839e+14	1.697546e+14	9.594013e+03	3.900839e+03	2.137643e+03	0	8.251738e-04
7.800000e+08	1.696994e+13	0.000000e+00	6.000000e-01	2.967527e+14	5.485927e+14	1.689545e+14	9.577600e+03	3.897472e+03	2.135798e+03	0	8.212963e-04
7.900000e+08	1.673270e+13	0.000000e+00	6.000000e-01	2.938186e+14	5.439801e+14	1.681600e+14	9.561350e+03	3.894141e+03	2.133973e+03	0	8.174512e-04
8.000000e+08	1.649962e+13	0.000000e+00	6.000000e-01	2.909346e+14	5.394440e+14	1.673710e+14	9.545259e+03	3.890846e+03	2.132167e+03	0	8.136378e-04
8.100000e+08	1.627058e+13	0.000000e+00	6.000000e-01	2.880994e+14	5.349824e+14	1.665875e+14	9.529326e+03	3.887584e+03	2.130380e+03	0	8.098554e-04
8.200000e+08	1.604549e+13	0.000000e+00	6.000000e-01	2.853119e+14	5.305933e+14	1.658094e+14	9.513548e+03	3.884356e+03	2.128611e+03	0	8.061035e-04
8.300000e+08	1.582425e+13	0.000000e+00	6.000000e-01	2.825708e+14	5.262748e+14	1.650367e+14	9.497922e+03	3.881161e+03	2.126860e+03	0	8.023815e-04
8.400000e+08	1.560678e+13	0.000000e+00	6.000000e-01	2.798751e+14	5.220251e+14	1.642694e+14	9.482446e+03	3.877997e+03	2.125126e+03	0	7.986887e-04
8.500000e+08	1.539297e+13	0.000000e+00	6.000000e-01	2.772238e+14	5.178424e+14	1.635073e+14	9.467117e+03	3.874865e+03	2.123410e+03	0	7.950248e-04
8.600000e+08	1.518276e+13	0.000000e+00	6.000000e-01	2.746158e+14	5.137250e+14	1.627505e+14	9.451932e+03	3.871763e+03	2.121710e+03	0	7.913890e-04
8.700000e+08	1.497604e+13	0.000000e+00	6.000000e-01	2.720500e+14	5.096713e+14	1.619989e+14	9.436890e+03	3.868692e+03	2.120027e+03	0	7.877809e-04
8.800000e+08	1.477274e+13	0.000000e+00	6.000000e-01	2.695256e+14	5.056797e+14	1.612524e+14	9.421988e+03	3.865649e+03	2.118359e+03	0	7.842000e-04
8.900000e+08	1.457278e+13	0.000000e+00	6.000000e-01	2.670416e+14	5.017487e+14	1.605111e+14	9.407224e+03	3.862635e+03	2.116708e+03	0	7.806456e-04
9.000000e+08	1.437608e+13	0.000000e+00	6.000000e-01	2.645970e+14	4.978768e+14	1.597749e+14	9.392596e+03	3.859649e+03	2.115071e+03	0	7.771175e-04
9.100000e+08	1.418258e+13	0.000000e+00	6.000000e-01	2.621910e+14	4.940627e+14	1.590437e+14	9.378101e+03	3.856691e+03	2.113450e+03	0	7.736150e-04
9.200000e+08	1.399219e+13	0.000000e+00	6.000000e-01	2.598226e+14	4.903049e+14	1.583175e+14	9.363738e+03	3.853759e+03	2.111844e+03	0	7.701377e-04
9.300000e+08	1.380485e+13	0.000000e+00	6.000000e-01	2.574912e+14	4.866021e+14	1.575963e+14	9.349503e+03	3.850854e+03	2.110252e+03	0	7.666851e-04
9.400000e+08	1.362049e+13	0.000000e+00	6.000000e-01	2.551958e+14	4.829531e+14	1.568800e+14	9.335397e+03	3.847975e+03	2.108674e+03	0	7.632568e-04
9.500000e+08	1.343904e+13	0.000000e+00	6.000000e-01	2.529356e+14	4.793566e+14	1.561686e+14	9.321415e+03	3.845121e+03	2.107110e+03	0	7.598523e-04
9.600000e+08	1.326044e+13	0.000000e+00	6.000000e-01	2.507100e+14	4.758114e+14	1.554621e+14	9.307557e+03	3.842292e+03	2.105560e+03	0	7.564712e-04
9.700000e+08	1.308462e+13	0.000000e+00	6.000000e-01	2.485181e+14	4.723164e+14	1.547604e+14	9.293821e+03	3.839487e+03	2.104023e+03	0	7.531131e-04
9.800000e+08	1.291153e+13	0.000000e+00	6.000000e-01	2.463592e+14	4.688704e+14	1.540634e+14	9.280204e+03	3.836706e+03	2.102499e+03	0	7.497775e-04
9.900000e+08	1.274111e+13	0.000000e+00	6.000000e-01	2.442326e+14	4.654724e+14	1.533712e+14	9.266705e+03	3.833949e+03	2.100988e+03	0	7.464641e-04
1.000000e+09	1.257330e+13	0.000000e+00	6.000000e-01	2.421377e+14	4.621214e+14	1.526837e+14	9.253323e+03	3.831215e+03	2.099489e+03	0	7.431724e-04
1.010000e+09	1.240804e+13	0.000000e+00	6.000000e-01	2.400737e+14	4.588162e+14	1.520009e+14	9.240055e+03	3.828503e+03	2.098003e+03	0	7.399021e-04
1.020000e+09	1.224528e+13	0.000000e+00	6.000000e-01	2.380401e+14	4.555559e+14	1.513226e+14	9.226899e+03	3.825813e+03	2.096530e+03	0	7.366527e-04
1.030000e+09	1.208497e+13	0.000000e+00	6.000000e-01	2.360361e+14	4.523396e+14	1.506490e+14	9.213855e+03	3.823146e+03	2.095068e+03	0	7.334239e-04
1.040000e+09	1.192706e+13	0.000000e+00	6.000000e-01	2.340612e+14	4.491664e+14	1.499799e+14	9.200920e+03	3.820500e+03	2.093618e+03	0	7.302153e-04
1.050000e+09	1.177149e+13	0.000000e+00	6.000000e-01	2.321148e+14	4.460353e+14	1.493153e+14	9.188094e+03	3.817875e+03	2.092179e+03	0	7.270266e-04
1.060000e+09	1.161822e+13	0.000000e+00	6.000000e-01	2.301962e+14	4.429454e+14	1.486553e+14	9.175373e+03	3.815270e+03	2.090752e+03	0	7.238574e-04
1.070000e+09	1.146720e+13	0.000000e+00	6.000000e-01	2.283050e+14	4.398960e+14	1.479996e+14	9.162758e+03	3.812686e+03	2.089336e+03	0	7.207074e-04
1.080000e+09	1.131839e+13	0.000000e+00	6.000000e-01	2.264406e+14	4.368861e+14	1.473484e+14	9.150245e+03	3.810122e+03	2.087931e+03	0	7.175762e-04
1.090000e+09	1.117174e+13	0.000000e+00	6.000000e-01	2.246024e+14	4.339151e+14	1.467016e+14	9.137835e+03	3.807578e+03	2.086537e+03	0	7.144635e-04
1.100000e+09	1.102720e+13	0.000000e+00	6.000000e-01	2.227899e+14	4.309821e+14	1.460591e+14	9.125525e+03	3.805053e+03	2.085153e+03	0	7.113689e-04
1.110000e+09	1.088473e+13	0.000000e+00	6.000000e-01	2.210027e+14	4.280863e+14	1.454209e+14	9.113314e+03	3.802547e+03	2.083780e+03	0	7.082921e-04
1.120000e+09	1.074430e+13	0.000000e+00	6.000000e-01	2.192401e+14	4.252271e+14	1.447869e+14	9.101201e+03	3.800060e+03	2.082417e+03	0	7.052329e-04
1.130000e+09	1.060586e+13	0.000000e+00	6.000000e-01	2.175018e+14	4.224036e+14	1.441573e+14	9.089185e+03	3.797591e+03	2.081064e+03	0	7.021908e-04
1.140000e+09	1.046938e+13	0.000000e+00	6.000000e-01	2.157872e+14	4.196154e+14	1.435318e+14	9.077263e+03	3.795141e+03	2.079721e+03	0	6.991657e-04
1.150000e+09	1.033481e+13	0.000000e+00	6.000000e-01	2.140959e+14	4.168615e+14	1.429105e+14	9.065435e+03	3.792708e+03	2.078388e+03	0	6.961571e-04
1.160000e+09	1.020211e+13	0.000000e+00	6.000000e-01	2.124275e+14	4.141415e+14	1.422934e+14	9.053699e+03	3.790293e+03	2.077064e+03	0	6.931648e-04
1.170000e+09	1.007126e+13	0.000000e+00	6.000000e-01	2.107815e+14	4.114546e+14	1.416803e+14	9.042055e+03	3.787895e+03	2.075751e+03	0	6.901886e-04
1.180000e+09	9.942215e+12	0.000000e+00	6.000000e-01	2.091574e+14	4.088002e+14	1.410714e+14	9.030501e+03	3.785514e+03	2.074446e+03	0	6.872280e-04
1.190000e+09	9.814940e+12	0.000000e+00	6.000000e-01	2.075550e+14	4.061778e+14	1.404665e+14	9.019035e+03	3.783151e+03	2.073151e+03	0	6.842829e-04
1.200000e+09	9.689403e+12	0.000000e+00	6.000000e-01	2.059737e+14	4.035867e+14	1.398656e+14	9.007657e+03	3.780803e+03	2.071864e+03	0	6.813530e-04
1.210000e+09	9.565570e+12	0.000000e+00	6.000000e-01	2.044132e+14	4.010264e+14	1.392687e+14	8.996366e+03	3.778472e+03	2.070587e+03	0	6.784379e-04
1.220000e+09	9.443410e+12	0.000000e+00	6.000000e-01	2.028730e+14	3.984963e+14	1.386757e+14	8.985160e+03	3.776157e+03	2.069318e+03	0	6.755374e-04
1.230000e+09	9.322891e+12	0.000000e+00	6.000000e-01	2.013529e+14	3.959959e+14	1.380867e+14	8.974038e+03	3.773858e+03	2.068058e+03	0	6.726513e-04
1.240000e+09	9.203982e+12	0.000000e+00	6.000000e-01	1.998524e+14	3.935245e+14	1.375015e+14	8.962999e+03	3.771575e+03	2.066807e+03	0	6.697793e-04
1.250000e+09	9.086655e+12	0.000000e+00	6.000000e-01	1.983711e+14	3.910818e+14	1.369203e+14	8.952042e+03	3.769307e+03	2.065564e+03	0	6.669211e-04
1.260000e+09	8.970879e+12	0.000000e+00	6.000000e-01	1.969089e+14	3.886672e+14	1.363428e+14	8.941166e+03	3.767054e+03	2.064330e+03	0	6.640765e-04
1.270000e+09	8.856626e+12	0.000000e+00	6.000000e-01	1.954652e+14	3.862802e+14	1.357692e+14	8.930371e+03	3.764816e+03	2.063103e+03	0	6.612453e-04
1.280000e+09	8.743869e+12	0.000000e+00	6.000000e-01	1.940397e+14	3.839204e+14	1.351993e+14	8.919654e+03	3.762593e+03	2.061885e+03	0	6.584271e-04
1.290000e+09	8.632581e+12	0.000000e+00	6.000000e-01	1.926322e+14	3.815872e+14	1.346332e+14	8.909015e+03	3.760385e+03	2.060675e+03	0	6.556218e-04
1.300000e+09	8.522734e+12	0.000000e+00	6.000000e-01	1.912423e+14	3.792801e+14	1.340708e+14	8.898453e+03	3.758190e+03	2.059472e+03	0	6.528290e-04
1.310000e+09	8.414303e+12	0.000000e+00	6.000000e-01	1.898697e+14	3.769989e+14	1.335121e+14	8.887967e+03	3.756010e+03	2.058278e+03	0	6.500487e-04
1.320000e+09	8.307263e+12	0.000000e+00	6.000000e-01	1.885141e+14	3.747430e+14	1.329570e+14	8.877556e+03	3.753844e+03	2.057091e+03	0	6.472804e-04
1.330000e+09	8.201590e+12	0.000000e+00	6.000000e-01	1.871751e+14	3.725119e+14	1.324056e+14	8.867220e+03	3.751692e+03	2.055911e+03	0	6.445241e-04
1.340000e+09	8.097258e+12	0.000000e+00	6.000000e-01	1.858526e+14	3.703054e+14	1.318578e+14	8.856956e+03	3.749554e+03	2.054740e+03	0	6.417794e-04
1.350000e+09	7.994245e+12	0.000000e+00	6.000000e-01	1.845462e+14	3.681229e+14	1.313135e+14	8.846765e+03	3.747429e+03	2.053575e+03	0	6.390463e-04
1.360000e+09	7.892527e+12	0.000000e+00	6.000000e-01	1.832556e+14	3.659641e+14	1.307728e+14	8.836646e+03	3.745317e+03	2.052418e+03	0	6.363243e-04
