#t		Qconv[W]	Ri[Rp]		R*[Rp]		Qc[W]		Qm[W]		Qr[W]		Tcmb[K]		Tl[K]		Tup[K]		RiFlag		Bs[T]
0.000000e+00	8.140228e+13	0.000000e+00	6.000002e-01	1.058250e+15	2.289200e+15	2.696838e+14	1.228898e+04	4.760764e+03	2.574130e+03	0	1.381570e-03
1.000000e+07	7.908760e+13	0.000000e+00	6.000002e-01	1.031713e+15	2.177063e+15	2.681896e+14	1.223614e+04	4.725709e+03	2.555176e+03	0	1.368349e-03
2.000000e+07	7.689280e+13	0.000000e+00	6.000002e-01	1.006534e+15	2.077410e+15	2.667065e+14	1.218462e+04	4.693661e+03	2.537847e+03	0	1.355572e-03
3.000000e+07	7.480756e+13	0.000000e+00	6.000002e-01	9.825959e+14	1.988263e+15	2.652345e+14	1.213435e+04	4.664230e+03	2.521934e+03	0	1.343206e-03
4.000000e+07	7.282286e+13	0.000000e+00	6.000002e-01	9.597970e+14	1.908031e+15	2.637735e+14	1.208527e+04	4.637089e+03	2.507259e+03	0	1.331220e-03
5.000000e+07	7.093071e+13	0.000000e+00	6.000002e-01	9.380474e+14	1.835423e+15	2.623234e+14	1.203732e+04	4.611965e+03	2.493675e+03	0	1.319589e-03
6.000000e+07	6.912404e+13	0.000000e+00	6.000002e-01	9.172674e+14	1.769382e+15	2.608841e+14	1.199045e+04	4.588623e+03	2.481054e+03	0	1.308289e-03
7.000000e+07	6.739654e+13	0.000000e+00	6.000002e-01	8.973857e+14	1.709034e+15	2.594555e+14	1.194461e+04	4.566865e+03	2.469289e+03	0	1.297298e-03
8.000000e+07	6.574259e+13	0.000000e+00	6.000002e-01	8.783389e+14	1.653651e+15	2.580376e+14	1.189975e+04	4.546521e+03	2.458289e+03	0	1.286598e-03
9.000000e+07	6.415712e+13	0.000000e+00	6.000002e-01	8.600698e+14	1.602622e+15	2.566302e+14	1.185585e+04	4.527442e+03	2.447974e+03	0	1.276171e-03
1.000000e+08	6.263557e+13	0.000000e+00	6.000002e-01	8.425269e+14	1.555431e+15	2.552332e+14	1.181285e+04	4.509503e+03	2.438274e+03	0	1.266002e-03
1.100000e+08	6.117382e+13	0.000000e+00	6.000002e-01	8.256637e+14	1.511640e+15	2.538466e+14	1.177072e+04	4.492590e+03	2.429129e+03	0	1.256076e-03
1.200000e+08	5.976813e+13	0.000000e+00	6.000002e-01	8.094378e+14	1.470874e+15	2.524703e+14	1.172943e+04	4.476608e+03	2.420487e+03	0	1.246380e-03
1.300000e+08	5.841509e+13	0.000000e+00	6.000002e-01	7.938109e+14	1.432811e+15	2.511042e+14	1.168894e+04	4.461469e+03	2.412302e+03	0	1.236903e-03
1.400000e+08	5.711159e+13	0.000000e+00	6.000002e-01	7.787477e+14	1.397174e+15	2.497482e+14	1.164924e+04	4.447099e+03	2.404532e+03	0	1.227634e-03
1.500000e+08	5.585479e+13	0.000000e+00	6.000002e-01	7.642160e+14	1.363719e+15	2.484022e+14	1.161028e+04	4.433431e+03	2.397142e+03	0	1.218562e-03
1.600000e+08	5.464207e+13	0.000000e+00	6.000002e-01	7.501862e+14	1.332238e+15	2.470662e+14	1.157204e+04	4.420405e+03	2.390099e+03	0	1.209678e-03
1.700000e+08	5.347102e+13	0.000000e+00	6.000002e-01	7.366313e+14	1.302545e+15	2.457400e+14	1.153451e+04	4.407968e+03	2.383374e+03	0	1.200974e-03
1.800000e+08	5.233943e+13	0.000000e+00	6.000002e-01	7.235260e+14	1.274479e+15	2.444236e+14	1.149764e+04	4.396074e+03	2.376943e+03	0	1.192441e-03
1.900000e+08	5.124525e+13	0.000000e+00	6.000002e-01	7.108471e+14	1.247898e+15	2.431169e+14	1.146143e+04	4.384680e+03	2.370782e+03	0	1.184073e-03
2.000000e+08	5.018658e+13	0.000000e+00	6.000002e-01	6.985732e+14	1.222673e+15	2.418198e+14	1.142585e+04	4.373747e+03	2.364871e+03	0	1.175863e-03
2.100000e+08	4.916166e+13	0.000000e+00	6.000002e-01	6.866843e+14	1.198694e+15	2.405322e+14	1.139088e+04	4.363242e+03	2.359191e+03	0	1.167803e-03
2.200000e+08	4.816884e+13	0.000000e+00	6.000002e-01	6.751617e+14	1.175860e+15	2.392541e+14	1.135651e+04	4.353133e+03	2.353725e+03	0	1.159888e-03
2.300000e+08	4.720660e+13	0.000000e+00	6.000002e-01	6.639883e+14	1.154082e+15	2.379854e+14	1.132270e+04	4.343393e+03	2.348459e+03	0	1.152113e-03
2.400000e+08	4.627352e+13	0.000000e+00	6.000002e-01	6.531478e+14	1.133279e+15	2.367260e+14	1.128946e+04	4.333996e+03	2.343378e+03	0	1.144471e-03
2.500000e+08	4.536826e+13	0.000000e+00	6.000002e-01	6.426251e+14	1.113380e+15	2.354758e+14	1.125675e+04	4.324919e+03	2.338470e+03	0	1.136959e-03
2.600000e+08	4.448958e+13	0.000000e+00	6.000002e-01	6.324062e+14	1.094319e+15	2.342347e+14	1.122457e+04	4.316141e+03	2.333724e+03	0	1.129571e-03
2.700000e+08	4.363631e+13	0.000000e+00	6.000002e-01	6.224776e+14	1.076037e+15	2.330027e+14	1.119290e+04	4.307642e+03	2.329128e+03	0	1.122303e-03
2.800000e+08	4.280735e+13	0.000000e+00	6.000002e-01	6.128271e+14	1.058482e+15	2.317798e+14	1.116172e+04	4.299406e+03	2.324675e+03	0	1.115150e-03
2.900000e+08	4.200166e+13	0.000000e+00	6.000002e-01	6.034429e+14	1.041605e+15	2.305657e+14	1.113102e+04	4.291416e+03	2.320355e+03	0	1.108110e-03
3.000000e+08	4.121829e+13	0.000000e+00	6.000002e-01	5.943139e+14	1.025362e+15	2.293605e+14	1.110079e+04	4.283657e+03	2.316160e+03	0	1.101178e-03
3.100000e+08	4.045631e+13	0.000000e+00	6.000002e-01	5.854298e+14	1.009713e+15	2.281641e+14	1.107102e+04	4.276117e+03	2.312083e+03	0	1.094350e-03
3.200000e+08	3.971486e+13	0.000000e+00	6.000002e-01	5.767808e+14	9.946218e+14	2.269764e+14	1.104168e+04	4.268781e+03	2.308116e+03	0	1.087623e-03
3.300000e+08	3.899313e+13	0.000000e+00	6.000002e-01	5.683576e+14	9.800543e+14	2.257973e+14	1.101278e+04	4.261639e+03	2.304255e+03	0	1.080994e-03
3.400000e+08	3.829035e+13	0.000000e+00	6.000002e-01	5.601515e+14	9.659799e+14	2.246268e+14	1.098430e+04	4.254681e+03	2.300492e+03	0	1.074461e-03
3.500000e+08	3.760578e+13	0.000000e+00	6.000002e-01	5.521541e+14	9.523704e+14	2.234647e+14	1.095623e+04	4.247896e+03	2.296824e+03	0	1.068019e-03
3.600000e+08	3.693874e+13	0.000000e+00	6.000002e-01	5.443576e+14	9.391997e+14	2.223111e+14	1.092856e+04	4.241276e+03	2.293244e+03	0	1.061666e-03
3.700000e+08	3.628856e+13	0.000000e+00	6.000002e-01	5.367546e+14	9.264437e+14	2.211659e+14	1.090128e+04	4.234811e+03	2.289749e+03	0	1.055400e-03
3.800000e+08	3.565464e+13	0.000000e+00	6.000002e-01	5.293380e+14	9.140803e+14	2.200289e+14	1.087437e+04	4.228494e+03	2.286333e+03	0	1.049219e-03
3.900000e+08	3.503638e+13	0.000000e+00	6.000002e-01	5.221010e+14	9.020889e+14	2.189002e+14	1.084784e+04	4.222319e+03	2.282994e+03	0	1.043119e-03
4.000000e+08	3.443321e+13	0.000000e+00	6.000002e-01	5.150374e+14	8.904504e+14	2.177796e+14	1.082167e+04	4.216277e+03	2.279728e+03	0	1.037098e-03
4.100000e+08	3.384461e+13	0.000000e+00	6.000002e-01	5.081409e+14	8.791473e+14	2.166671e+14	1.079585e+04	4.210364e+03	2.276530e+03	0	1.031155e-03
4.200000e+08	3.327006e+13	0.000000e+00	6.000002e-01	5.014058e+14	8.681630e+14	2.155626e+14	1.077037e+04	4.204572e+03	2.273398e+03	0	1.025286e-03
4.300000e+08	3.270908e+13	0.000000e+00	6.000002e-01	4.948267e+14	8.574823e+14	2.144661e+14	1.074523e+04	4.198896e+03	2.270330e+03	0	1.019491e-03
4.400000e+08	3.216121e+13	0.000000e+00	6.000002e-01	4.883981e+14	8.470908e+14	2.133774e+14	1.072042e+04	4.193332e+03	2.267321e+03	0	1.013767e-03
4.500000e+08	3.162600e+13	0.000000e+00	6.000002e-01	4.821152e+14	8.369753e+14	2.122966e+14	1.069593e+04	4.187874e+03	2.264370e+03	0	1.008112e-03
4.600000e+08	3.110304e+13	0.000000e+00	6.000002e-01	4.759730e+14	8.271234e+14	2.112236e+14	1.067175e+04	4.182518e+03	2.261474e+03	0	1.002524e-03
4.700000e+08	3.059193e+13	0.000000e+00	6.000002e-01	4.699671e+14	8.175232e+14	2.101582e+14	1.064788e+04	4.177260e+03	2.258631e+03	0	9.970027e-04
4.800000e+08	3.009227e+13	0.000000e+00	6.000002e-01	4.640930e+14	8.081640e+14	2.091005e+14	1.062431e+04	4.172096e+03	2.255839e+03	0	9.915449e-04
4.900000e+08	2.960371e+13	0.000000e+00	6.000002e-01	4.583466e+14	7.990355e+14	2.080503e+14	1.060104e+04	4.167021e+03	2.253095e+03	0	9.861495e-04
5.000000e+08	2.912589e+13	0.000000e+00	6.000002e-01	4.527238e+14	7.901280e+14	2.070076e+14	1.057805e+04	4.162033e+03	2.250398e+03	0	9.808150e-04
5.100000e+08	2.865847e+13	0.000000e+00	6.000002e-01	4.472207e+14	7.814325e+14	2.059724e+14	1.055534e+04	4.157128e+03	2.247746e+03	0	9.755398e-04
5.200000e+08	2.820112e+13	0.000000e+00	6.000002e-01	4.418338e+14	7.729405e+14	2.049446e+14	1.053291e+04	4.152304e+03	2.245137e+03	0	9.703226e-04
5.300000e+08	2.775355e+13	0.000000e+00	6.000002e-01	4.365594e+14	7.646439e+14	2.039241e+14	1.051074e+04	4.147556e+03	2.242570e+03	0	9.651620e-04
5.400000e+08	2.731545e+13	0.000000e+00	6.000002e-01	4.313942e+14	7.565351e+14	2.029109e+14	1.048884e+04	4.142882e+03	2.240043e+03	0	9.600565e-04
5.500000e+08	2.688654e+13	0.000000e+00	6.000002e-01	4.263348e+14	7.486071e+14	2.019049e+14	1.046720e+04	4.138281e+03	2.237555e+03	0	9.550050e-04
5.600000e+08	2.646654e+13	0.000000e+00	6.000002e-01	4.213783e+14	7.408530e+14	2.009061e+14	1.044581e+04	4.133748e+03	2.235104e+03	0	9.500061e-04
5.700000e+08	2.605519e+13	0.000000e+00	6.000002e-01	4.165215e+14	7.332665e+14	1.999143e+14	1.042467e+04	4.129282e+03	2.232690e+03	0	9.450587e-04
5.800000e+08	2.565224e+13	0.000000e+00	6.000002e-01	4.117617e+14	7.258414e+14	1.989296e+14	1.040377e+04	4.124881e+03	2.230310e+03	0	9.401615e-04
5.900000e+08	2.525744e+13	0.000000e+00	6.000002e-01	4.070959e+14	7.185721e+14	1.979518e+14	1.038310e+04	4.120542e+03	2.227964e+03	0	9.353134e-04
6.000000e+08	2.487057e+13	0.000000e+00	6.000002e-01	4.025216e+14	7.114530e+14	1.969810e+14	1.036268e+04	4.116264e+03	2.225651e+03	0	9.305133e-04
6.100000e+08	2.449139e+13	0.000000e+00	6.000002e-01	3.980362e+14	7.044790e+14	1.960171e+14	1.034248e+04	4.112044e+03	2.223369e+03	0	9.257602e-04
6.200000e+08	2.411970e+13	0.000000e+00	6.000002e-01	3.936372e+14	6.976452e+14	1.950599e+14	1.032250e+04	4.107881e+03	2.221118e+03	0	9.210530e-04
6.300000e+08	2.375527e+13	0.000000e+00	6.000002e-01	3.893221e+14	6.909469e+14	1.941095e+14	1.030275e+04	4.103772e+03	2.218897e+03	0	9.163907e-04
6.400000e+08	2.339792e+13	0.000000e+00	6.000002e-01	3.850889e+14	6.843796e+14	1.931658e+14	1.028321e+04	4.099717e+03	2.216704e+03	0	9.117724e-04
6.500000e+08	2.304744e+13	0.000000e+00	6.000002e-01	3.809351e+14	6.779392e+14	1.922288e+14	1.026388e+04	4.095714e+03	2.214539e+03	0	9.071970e-04
6.600000e+08	2.270366e+13	0.000000e+00	6.000002e-01	3.768586e+14	6.716215e+14	1.912984e+14	1.024476e+04	4.091761e+03	2.212402e+03	0	9.026637e-04
6.700000e+08	2.236638e+13	0.000000e+00	6.000002e-01	3.728575e+14	6.654227e+14	1.903745e+14	1.022584e+04	4.087857e+03	2.210291e+03	0	8.981715e-04
6.800000e+08	2.203545e+13	0.000000e+00	6.000002e-01	3.689297e+14	6.593391e+14	1.894570e+14	1.020712e+04	4.084000e+03	2.208206e+03	0	8.937197e-04
6.900000e+08	2.171068e+13	0.000000e+00	6.000002e-01	3.650733e+14	6.533672e+14	1.885461e+14	1.018860e+04	4.080189e+03	2.206145e+03	0	8.893073e-04
7.000000e+08	2.139192e+13	0.000000e+00	6.000002e-01	3.612865e+14	6.475037e+14	1.876415e+14	1.017028e+04	4.076423e+03	2.204109e+03	0	8.849335e-04
7.100000e+08	2.107902e+13	0.000000e+00	6.000002e-01	3.575674e+14	6.417452e+14	1.867432e+14	1.015214e+04	4.072701e+03	2.202096e+03	0	8.805976e-04
7.200000e+08	2.077181e+13	0.000000e+00	6.000002e-01	3.539144e+14	6.360888e+14	1.858512e+14	1.013419e+04	4.069021e+03	2.200107e+03	0	8.762987e-04
7.300000e+08	2.047017e+13	0.000000e+00	6.000002e-01	3.503257e+14	6.305315e+14	1.849655e+14	1.011642e+04	4.065383e+03	2.198140e+03	0	8.720361e-04
7.400000e+08	2.017393e+13	0.000000e+00	6.000002e-01	3.467998e+14	6.250704e+14	1.840859e+14	1.009883e+04	4.061785e+03	2.196194e+03	0	8.678091e-04
7.500000e+08	1.988298e+13	0.000000e+00	6.000002e-01	3.433350e+14	6.197029e+14	1.832125e+14	1.008142e+04	4.058226e+03	2.194270e+03	0	8.636170e-04
7.600000e+08	1.959717e+13	0.000000e+00	6.000002e-01	3.399299e+14	6.144264e+14	1.823452e+14	1.006418e+04	4.054706e+03	2.192367e+03	0	8.594589e-04
7.700000e+08	1.931638e+13	0.000000e+00	6.000002e-01	3.365831e+14	6.092383e+14	1.814839e+14	1.004711e+04	4.051223e+03	2.190483e+03	0	8.553344e-04
7.800000e+08	1.904048e+13	0.000000e+00	6.000002e-01	3.332930e+14	6.041362e+14	1.806285e+14	1.003021e+04	4.047777e+03	2.188620e+03	0	8.512426e-04
7.900000e+08	1.876936e+13	0.000000e+00	6.000002e-01	3.300583e+14	5.991179e+14	1.797791e+14	1.001347e+04	4.044366e+03	2.186776e+03	0	8.471830e-04
8.000000e+08	1.850291e+13	0.000000e+00	6.000002e-01	3.268778e+14	5.941812e+14	1.789357e+14	9.996898e+03	4.040991e+03	2.184951e+03	0	8.431548e-04
8.100000e+08	1.824100e+13	0.000000e+00	6.000002e-01	3.237500e+14	5.893238e+14	1.780980e+14	9.980482e+03	4.037649e+03	2.183144e+03	0	8.391576e-04
8.200000e+08	1.798353e+13	0.000000e+00	6.000002e-01	3.206738e+14	5.845438e+14	1.772662e+14	9.964223e+03	4.034341e+03	2.181355e+03	0	8.351907e-04
8.300000e+08	1.773039e+13	0.000000e+00	6.000002e-01	3.176480e+14	5.798392e+14	1.764401e+14	9.948118e+03	4.031065e+03	2.179584e+03	0	8.312535e-04
8.400000e+08	1.748149e+13	0.000000e+00	6.000002e-01	3.146714e+14	5.752080e+14	1.756197e+14	9.932165e+03	4.027821e+03	2.177830e+03	0	8.273454e-04
8.500000e+08	1.723672e+13	0.000000e+00	6.000002e-01	3.117428e+14	5.706485e+14	1.748049e+14	9.916360e+03	4.024608e+03	2.176093e+03	0	8.234658e-04
8.600000e+08	1.699599e+13	0.000000e+00	6.000002e-01	3.088611e+14	5.661589e+14	1.739958e+14	9.900702e+03	4.021425e+03	2.174372e+03	0	8.196143e-04
8.700000e+08	1.675921e+13	0.000000e+00	6.000002e-01	3.060253e+14	5.617374e+14	1.731923e+14	9.885189e+03	4.018273e+03	2.172667e+03	0	8.157902e-04
8.800000e+08	1.652628e+13	0.000000e+00	6.000002e-01	3.032344e+14	5.573824e+14	1.723942e+14	9.869817e+03	4.015150e+03	2.170979e+03	0	8.119931e-04
8.900000e+08	1.629711e+13	0.000000e+00	6.000002e-01	3.004873e+14	5.530924e+14	1.716017e+14	9.854585e+03	4.012055e+03	2.169305e+03	0	8.082225e-04
9.000000e+08	1.607163e+13	0.000000e+00	6.000002e-01	2.977831e+14	5.488658e+14	1.708146e+14	9.839491e+03	4.008988e+03	2.167647e+03	0	8.044777e-04
9.100000e+08	1.584975e+13	0.000000e+00	6.000002e-01	2.951208e+14	5.447010e+14	1.700329e+14	9.824532e+03	4.005949e+03	2.166004e+03	0	8.007584e-04
9.200000e+08	1.563139e+13	0.000000e+00	6.000002e-01	2.924994e+14	5.405968e+14	1.692566e+14	9.809707e+03	4.002937e+03	2.164375e+03	0	7.970641e-04
9.300000e+08	1.541648e+13	0.000000e+00	6.000002e-01	2.899182e+14	5.365516e+14	1.684855e+14	9.795013e+03	3.999951e+03	2.162761e+03	0	7.933943e-04
9.400000e+08	1.520492e+13	0.000000e+00	6.000002e-01	2.873762e+14	5.325642e+14	1.677198e+14	9.780448e+03	3.996991e+03	2.161160e+03	0	7.897485e-04
9.500000e+08	1.499667e+13	0.000000e+00	6.000002e-01	2.848726e+14	5.286333e+14	1.669592e+14	9.766010e+03	3.994056e+03	2.159574e+03	0	7.861262e-04
9.600000e+08	1.479163e+13	0.000000e+00	6.000002e-01	2.824065e+14	5.247575e+14	1.662039e+14	9.751698e+03	3.991147e+03	2.158000e+03	0	7.825271e-04
9.700000e+08	1.458975e+13	0.000000e+00	6.000002e-01	2.799772e+14	5.209357e+14	1.654536e+14	9.737509e+03	3.988262e+03	2.156440e+03	0	7.789507e-04
9.800000e+08	1.439095e+13	0.000000e+00	6.000002e-01	2.775839e+14	5.171667e+14	1.647085e+14	9.723443e+03	3.985401e+03	2.154893e+03	0	7.753965e-04
9.900000e+08	1.419517e+13	0.000000e+00	6.000002e-01	2.752258e+14	5.134494e+14	1.639685e+14	9.709496e+03	3.982563e+03	2.153359e+03	0	7.718642e-04
1.000000e+09	1.400235e+13	0.000000e+00	6.000002e-01	2.729022e+14	5.097826e+14	1.632335e+14	9.695667e+03	3.979749e+03	2.151838e+03	0	7.683534e-04
1.010000e+09	1.381242e+13	0.000000e+00	6.000002e-01	2.706124e+14	5.061653e+14	1.625035e+14	9.681954e+03	3.976957e+03	2.150328e+03	0	7.648636e-04
1.020000e+09	1.362533e+13	0.000000e+00	6.000002e-01	2.683556e+14	5.025964e+14	1.617784e+14	9.668356e+03	3.974188e+03	2.148831e+03	0	7.613944e-04
1.030000e+09	1.344101e+13	0.000000e+00	6.000002e-01	2.661313e+14	4.990750e+14	1.610582e+14	9.654872e+03	3.971441e+03	2.147345e+03	0	7.579455e-04
1.040000e+09	1.325941e+13	0.000000e+00	6.000002e-01	2.639388e+14	4.956000e+14	1.603429e+14	9.641499e+03	3.968716e+03	2.145872e+03	0	7.545165e-04
1.050000e+09	1.308047e+13	0.000000e+00	6.000002e-01	2.617773e+14	4.921705e+14	1.596324e+14	9.628235e+03	3.966011e+03	2.144410e+03	0	7.511069e-04
1.060000e+09	1.290414e+13	0.000000e+00	6.000002e-01	2.596463e+14	4.887855e+14	1.589267e+14	9.615080e+03	3.963328e+03	2.142959e+03	0	7.477165e-04
1.070000e+09	1.273036e+13	0.000000e+00	6.000002e-01	2.575452e+14	4.854443e+14	1.582258e+14	9.602032e+03	3.960665e+03	2.141519e+03	0	7.443449e-04
1.080000e+09	1.255909e+13	0.000000e+00	6.000002e-01	2.554734e+14	4.821458e+14	1.575295e+14	9.589089e+03	3.958022e+03	2.140090e+03	0	7.409917e-04
1.090000e+09	1.239027e+13	0.000000e+00	6.000002e-01	2.534303e+14	4.788893e+14	1.568380e+14	9.576250e+03	3.955399e+03	2.138672e+03	0	7.376566e-04
1.100000e+09	1.222385e+13	0.000000e+00	6.000002e-01	2.514153e+14	4.756739e+14	1.561511e+14	9.563513e+03	3.952796e+03	2.137264e+03	0	7.343392e-04
1.110000e+09	1.205980e+13	0.000000e+00	6.000002e-01	2.494279e+14	4.724988e+14	1.554688e+14	9.550878e+03	3.950212e+03	2.135867e+03	0	7.310392e-04
1.120000e+09	1.189805e+13	0.000000e+00	6.000002e-01	2.474676e+14	4.693633e+14	1.547911e+14	9.538342e+03	3.947647e+03	2.134480e+03	0	7.277563e-04
1.130000e+09	1.173857e+13	0.000000e+00	6.000002e-01	2.455338e+14	4.662665e+14	1.541179e+14	9.525904e+03	3.945101e+03	2.133103e+03	0	7.244901e-04
1.140000e+09	1.158131e+13	0.000000e+00	6.000002e-01	2.436260e+14	4.632078e+14	1.534492e+14	9.513563e+03	3.942573e+03	2.131736e+03	0	7.212403e-04
1.150000e+09	1.142624e+13	0.000000e+00	6.000002e-01	2.417438e+14	4.601865e+14	1.527850e+14	9.501318e+03	3.940063e+03	2.130379e+03	0	7.180066e-04
1.160000e+09	1.127330e+13	0.000000e+00	6.000002e-01	2.398867e+14	4.572017e+14	1.521252e+14	9.489167e+03	3.937571e+03	2.129032e+03	0	7.147887e-04
1.170000e+09	1.112245e+13	0.000000e+00	6.000002e-01	2.380541e+14	4.542529e+14	1.514698e+14	9.477109e+03	3.935096e+03	2.127694e+03	0	7.115862e-04
1.180000e+09	1.097366e+13	0.000000e+00	6.000002e-01	2.362456e+14	4.513395e+14	1.508188e+14	9.465143e+03	3.932639e+03	2.126365e+03	0	7.083990e-04
1.190000e+09	1.082690e+13	0.000000e+00	6.000002e-01	2.344608e+14	4.484606e+14	1.501721e+14	9.453268e+03	3.930199e+03	2.125046e+03	0	7.052266e-04
1.200000e+09	1.068211e+13	0.000000e+00	6.000002e-01	2.326992e+14	4.456158e+14	1.495297e+14	9.441482e+03	3.927775e+03	2.123735e+03	0	7.020688e-04
1.210000e+09	1.053926e+13	0.000000e+00	6.000002e-01	2.309604e+14	4.428043e+14	1.488915e+14	9.429785e+03	3.925368e+03	2.122434e+03	0	6.989253e-04
1.220000e+09	1.039832e+13	0.000000e+00	6.000002e-01	2.292441e+14	4.400257e+14	1.482576e+14	9.418174e+03	3.922978e+03	2.121141e+03	0	6.957958e-04
1.230000e+09	1.025926e+13	0.000000e+00	6.000002e-01	2.275497e+14	4.372793e+14	1.476279e+14	9.406650e+03	3.920603e+03	2.119858e+03	0	6.926800e-04
1.240000e+09	1.012203e+13	0.000000e+00	6.000002e-01	2.258768e+14	4.345645e+14	1.470023e+14	9.395211e+03	3.918244e+03	2.118582e+03	0	6.895777e-04
1.250000e+09	9.986601e+12	0.000000e+00	6.000002e-01	2.242252e+14	4.318808e+14	1.463809e+14	9.383856e+03	3.915901e+03	2.117315e+03	0	6.864885e-04
1.260000e+09	9.852947e+12	0.000000e+00	6.000002e-01	2.225944e+14	4.292277e+14	1.457635e+14	9.372583e+03	3.913574e+03	2.116057e+03	0	6.834122e-04
1.270000e+09	9.721032e+12	0.000000e+00	6.000002e-01	2.209840e+14	4.266046e+14	1.451503e+14	9.361393e+03	3.911262e+03	2.114807e+03	0	6.803486e-04
1.280000e+09	9.590825e+12	0.000000e+00	6.000002e-01	2.193937e+14	4.240110e+14	1.445410e+14	9.350283e+03	3.908964e+03	2.113564e+03	0	6.772973e-04
1.290000e+09	9.462295e+12	0.000000e+00	6.000002e-01	2.178232e+14	4.214464e+14	1.439358e+14	9.339252e+03	3.906682e+03	2.112330e+03	0	6.742581e-04
1.300000e+09	9.335412e+12	0.000000e+00	6.000002e-01	2.162720e+14	4.189103e+14	1.433345e+14	9.328301e+03	3.904414e+03	2.111104e+03	0	6.712308e-04
1.310000e+09	9.210148e+12	0.000000e+00	6.000002e-01	2.147398e+14	4.164023e+14	1.427372e+14	9.317427e+03	3.902160e+03	2.109886e+03	0	6.682150e-04
1.320000e+09	9.086473e+12	0.000000e+00	6.000002e-01	2.132264e+14	4.139218e+14	1.421438e+14	9.306631e+03	3.899921e+03	2.108675e+03	0	6.652106e-04
1.330000e+09	8.964361e+12	0.000000e+00	6.000002e-01	2.117314e+14	4.114685e+14	1.415543e+14	9.295910e+03	3.897696e+03	2.107472e+03	0	6.622172e-04
1.340000e+09	8.843783e+12	0.000000e+00	6.000002e-01	2.102544e+14	4.090418e+14	1.409686e+14	9.285264e+03	3.895484e+03	2.106276e+03	0	6.592347e-04
1.350000e+09	8.724713e+12	0.000000e+00	6.000002e-01	2.087952e+14	4.066413e+14	1.403867e+14	9.274692e+03	3.893287e+03	2.105088e+03	0	6.562627e-04
1.360000e+09	8.607125e+12	0.000000e+00	6.000002e-01	2.073535e+14	4.042667e+14	1.398087e+14	9.264193e+03	3.891102e+03	2.103907e+03	0	6.533011e-04
