#t		Qconv[W]	Ri[Rp]		R*[Rp]		Qc[W]		Qm[W]		Qr[W]		Tcmb[K]		Tl[K]		Tup[K]		RiFlag		Bs[T]
0.000000e+00	9.250401e+13	0.000000e+00	6.000002e-01	1.170603e+15	2.331112e+15	2.957655e+14	1.299140e+04	4.936057e+03	2.619424e+03	0	1.436915e-03
1.000000e+07	9.004858e+13	0.000000e+00	6.000002e-01	1.143852e+15	2.236241e+15	2.941267e+14	1.293960e+04	4.906946e+03	2.603976e+03	0	1.424087e-03
2.000000e+07	8.770728e+13	0.000000e+00	6.000002e-01	1.118327e+15	2.150509e+15	2.925002e+14	1.288897e+04	4.880033e+03	2.589694e+03	0	1.411637e-03
3.000000e+07	8.547131e+13	0.000000e+00	6.000002e-01	1.093933e+15	2.072633e+15	2.908859e+14	1.283947e+04	4.855062e+03	2.576442e+03	0	1.399537e-03
4.000000e+07	8.333285e+13	0.000000e+00	6.000002e-01	1.070587e+15	2.001553e+15	2.892836e+14	1.279104e+04	4.831813e+03	2.564105e+03	0	1.387767e-03
5.000000e+07	8.128492e+13	0.000000e+00	6.000002e-01	1.048214e+15	1.936390e+15	2.876932e+14	1.274363e+04	4.810098e+03	2.552581e+03	0	1.376304e-03
6.000000e+07	7.932126e+13	0.000000e+00	6.000002e-01	1.026747e+15	1.876407e+15	2.861148e+14	1.269722e+04	4.789755e+03	2.541786e+03	0	1.365131e-03
7.000000e+07	7.743624e+13	0.000000e+00	6.000002e-01	1.006127e+15	1.820984e+15	2.845480e+14	1.265174e+04	4.770645e+03	2.531644e+03	0	1.354230e-03
8.000000e+07	7.562476e+13	0.000000e+00	6.000002e-01	9.862984e+14	1.769592e+15	2.829929e+14	1.260718e+04	4.752644e+03	2.522092e+03	0	1.343587e-03
9.000000e+07	7.388222e+13	0.000000e+00	6.000002e-01	9.672122e+14	1.721784e+15	2.814494e+14	1.256348e+04	4.735647e+03	2.513072e+03	0	1.333187e-03
1.000000e+08	7.220441e+13	0.000000e+00	6.000002e-01	9.488235e+14	1.677173e+15	2.799174e+14	1.252063e+04	4.719559e+03	2.504535e+03	0	1.323018e-03
1.100000e+08	7.058751e+13	0.000000e+00	6.000002e-01	9.310913e+14	1.635427e+15	2.783967e+14	1.247859e+04	4.704299e+03	2.496437e+03	0	1.313067e-03
1.200000e+08	6.902802e+13	0.000000e+00	6.000002e-01	9.139783e+14	1.596257e+15	2.768873e+14	1.243733e+04	4.689793e+03	2.488739e+03	0	1.303325e-03
1.300000e+08	6.752273e+13	0.000000e+00	6.000002e-01	8.974500e+14	1.559413e+15	2.753890e+14	1.239682e+04	4.675977e+03	2.481407e+03	0	1.293782e-03
1.400000e+08	6.606869e+13	0.000000e+00	6.000002e-01	8.814748e+14	1.524676e+15	2.739019e+14	1.235704e+04	4.662794e+03	2.474411e+03	0	1.284427e-03
1.500000e+08	6.466318e+13	0.000000e+00	6.000002e-01	8.660235e+14	1.491852e+15	2.724257e+14	1.231797e+04	4.650191e+03	2.467723e+03	0	1.275254e-03
1.600000e+08	6.330367e+13	0.000000e+00	6.000002e-01	8.510692e+14	1.460772e+15	2.709604e+14	1.227957e+04	4.638123e+03	2.461319e+03	0	1.266253e-03
1.700000e+08	6.198785e+13	0.000000e+00	6.000002e-01	8.365870e+14	1.431287e+15	2.695060e+14	1.224184e+04	4.626549e+03	2.455177e+03	0	1.257419e-03
1.800000e+08	6.071355e+13	0.000000e+00	6.000002e-01	8.225536e+14	1.403262e+15	2.680623e+14	1.220474e+04	4.615432e+03	2.449277e+03	0	1.248742e-03
1.900000e+08	5.947876e+13	0.000000e+00	6.000002e-01	8.089475e+14	1.376580e+15	2.666292e+14	1.216827e+04	4.604737e+03	2.443602e+03	0	1.240219e-03
2.000000e+08	5.828161e+13	0.000000e+00	6.000002e-01	7.957487e+14	1.351135e+15	2.652066e+14	1.213239e+04	4.594435e+03	2.438135e+03	0	1.231842e-03
2.100000e+08	5.712036e+13	0.000000e+00	6.000002e-01	7.829383e+14	1.326833e+15	2.637946e+14	1.209709e+04	4.584499e+03	2.432862e+03	0	1.223605e-03
2.200000e+08	5.599338e+13	0.000000e+00	6.000002e-01	7.704990e+14	1.303587e+15	2.623929e+14	1.206237e+04	4.574903e+03	2.427770e+03	0	1.215505e-03
2.300000e+08	5.489914e+13	0.000000e+00	6.000002e-01	7.584142e+14	1.281321e+15	2.610014e+14	1.202819e+04	4.565625e+03	2.422847e+03	0	1.207534e-03
2.400000e+08	5.383621e+13	0.000000e+00	6.000002e-01	7.466687e+14	1.259967e+15	2.596202e+14	1.199454e+04	4.556644e+03	2.418081e+03	0	1.199690e-03
2.500000e+08	5.280325e+13	0.000000e+00	6.000002e-01	7.352480e+14	1.239461e+15	2.582491e+14	1.196141e+04	4.547942e+03	2.413462e+03	0	1.191968e-03
2.600000e+08	5.179899e+13	0.000000e+00	6.000002e-01	7.241385e+14	1.219748e+15	2.568880e+14	1.192879e+04	4.539500e+03	2.408983e+03	0	1.184363e-03
2.700000e+08	5.082225e+13	0.000000e+00	6.000002e-01	7.133274e+14	1.200774e+15	2.555369e+14	1.189666e+04	4.531304e+03	2.404633e+03	0	1.176871e-03
2.800000e+08	4.987190e+13	0.000000e+00	6.000002e-01	7.028028e+14	1.182494e+15	2.541957e+14	1.186500e+04	4.523338e+03	2.400406e+03	0	1.169489e-03
2.900000e+08	4.894689e+13	0.000000e+00	6.000002e-01	6.925531e+14	1.164863e+15	2.528642e+14	1.183381e+04	4.515590e+03	2.396294e+03	0	1.162214e-03
3.000000e+08	4.804623e+13	0.000000e+00	6.000002e-01	6.825678e+14	1.147844e+15	2.515424e+14	1.180307e+04	4.508046e+03	2.392291e+03	0	1.155041e-03
3.100000e+08	4.716896e+13	0.000000e+00	6.000002e-01	6.728366e+14	1.131399e+15	2.502303e+14	1.177277e+04	4.500697e+03	2.388391e+03	0	1.147968e-03
3.200000e+08	4.631419e+13	0.000000e+00	6.000002e-01	6.633499e+14	1.115497e+15	2.489277e+14	1.174291e+04	4.493530e+03	2.384588e+03	0	1.140991e-03
3.300000e+08	4.548109e+13	0.000000e+00	6.000002e-01	6.540986e+14	1.100105e+15	2.476346e+14	1.171346e+04	4.486537e+03	2.380877e+03	0	1.134109e-03
3.400000e+08	4.466884e+13	0.000000e+00	6.000002e-01	6.450740e+14	1.085196e+15	2.463509e+14	1.168442e+04	4.479709e+03	2.377253e+03	0	1.127317e-03
3.500000e+08	4.387668e+13	0.000000e+00	6.000002e-01	6.362680e+14	1.070745e+15	2.450765e+14	1.165578e+04	4.473036e+03	2.373712e+03	0	1.120613e-03
3.600000e+08	4.310390e+13	0.000000e+00	6.000002e-01	6.276727e+14	1.056727e+15	2.438113e+14	1.162753e+04	4.466512e+03	2.370250e+03	0	1.113995e-03
3.700000e+08	4.234979e+13	0.000000e+00	6.000002e-01	6.192808e+14	1.043119e+15	2.425553e+14	1.159966e+04	4.460130e+03	2.366863e+03	0	1.107460e-03
3.800000e+08	4.161371e+13	0.000000e+00	6.000002e-01	6.110851e+14	1.029903e+15	2.413084e+14	1.157216e+04	4.453881e+03	2.363547e+03	0	1.101006e-03
3.900000e+08	4.089504e+13	0.000000e+00	6.000002e-01	6.030789e+14	1.017057e+15	2.400705e+14	1.154502e+04	4.447762e+03	2.360300e+03	0	1.094631e-03
4.000000e+08	4.019317e+13	0.000000e+00	6.000002e-01	5.952559e+14	1.004564e+15	2.388415e+14	1.151824e+04	4.441764e+03	2.357117e+03	0	1.088333e-03
4.100000e+08	3.950755e+13	0.000000e+00	6.000002e-01	5.876098e+14	9.924085e+14	2.376214e+14	1.149180e+04	4.435884e+03	2.353996e+03	0	1.082109e-03
4.200000e+08	3.883762e+13	0.000000e+00	6.000002e-01	5.801348e+14	9.805740e+14	2.364101e+14	1.146570e+04	4.430115e+03	2.350935e+03	0	1.075958e-03
4.300000e+08	3.818288e+13	0.000000e+00	6.000002e-01	5.728255e+14	9.690461e+14	2.352075e+14	1.143993e+04	4.424454e+03	2.347931e+03	0	1.069877e-03
4.400000e+08	3.754283e+13	0.000000e+00	6.000002e-01	5.656763e+14	9.578113e+14	2.340136e+14	1.141449e+04	4.418895e+03	2.344981e+03	0	1.063865e-03
4.500000e+08	3.691699e+13	0.000000e+00	6.000002e-01	5.586823e+14	9.468570e+14	2.328283e+14	1.138936e+04	4.413435e+03	2.342083e+03	0	1.057921e-03
4.600000e+08	3.630492e+13	0.000000e+00	6.000002e-01	5.518385e+14	9.361711e+14	2.316514e+14	1.136454e+04	4.408069e+03	2.339236e+03	0	1.052041e-03
4.700000e+08	3.570618e+13	0.000000e+00	6.000002e-01	5.451403e+14	9.257425e+14	2.304830e+14	1.134002e+04	4.402794e+03	2.336437e+03	0	1.046226e-03
4.800000e+08	3.512035e+13	0.000000e+00	6.000002e-01	5.385831e+14	9.155607e+14	2.293230e+14	1.131580e+04	4.397606e+03	2.333684e+03	0	1.040473e-03
4.900000e+08	3.454705e+13	0.000000e+00	6.000002e-01	5.321628e+14	9.056158e+14	2.281713e+14	1.129187e+04	4.392502e+03	2.330975e+03	0	1.034780e-03
5.000000e+08	3.398589e+13	0.000000e+00	6.000002e-01	5.258750e+14	8.958984e+14	2.270278e+14	1.126822e+04	4.387479e+03	2.328310e+03	0	1.029147e-03
5.100000e+08	3.343649e+13	0.000000e+00	6.000002e-01	5.197160e+14	8.863998e+14	2.258925e+14	1.124485e+04	4.382534e+03	2.325685e+03	0	1.023571e-03
5.200000e+08	3.289852e+13	0.000000e+00	6.000002e-01	5.136819e+14	8.771115e+14	2.247652e+14	1.122176e+04	4.377664e+03	2.323101e+03	0	1.018052e-03
5.300000e+08	3.237164e+13	0.000000e+00	6.000002e-01	5.077691e+14	8.680258e+14	2.236461e+14	1.119893e+04	4.372867e+03	2.320555e+03	0	1.012588e-03
5.400000e+08	3.185551e+13	0.000000e+00	6.000002e-01	5.019740e+14	8.591353e+14	2.225349e+14	1.117636e+04	4.368140e+03	2.318047e+03	0	1.007177e-03
5.500000e+08	3.134984e+13	0.000000e+00	6.000002e-01	4.962932e+14	8.504329e+14	2.214316e+14	1.115405e+04	4.363480e+03	2.315574e+03	0	1.001819e-03
5.600000e+08	3.085432e+13	0.000000e+00	6.000002e-01	4.907236e+14	8.419118e+14	2.203361e+14	1.113200e+04	4.358886e+03	2.313136e+03	0	9.965131e-04
5.700000e+08	3.036865e+13	0.000000e+00	6.000002e-01	4.852620e+14	8.335659e+14	2.192484e+14	1.111018e+04	4.354355e+03	2.310732e+03	0	9.912569e-04
5.800000e+08	2.989258e+13	0.000000e+00	6.000002e-01	4.799055e+14	8.253891e+14	2.181685e+14	1.108861e+04	4.349886e+03	2.308360e+03	0	9.860497e-04
5.900000e+08	2.942582e+13	0.000000e+00	6.000002e-01	4.746510e+14	8.173756e+14	2.170962e+14	1.106728e+04	4.345476e+03	2.306020e+03	0	9.808905e-04
6.000000e+08	2.896812e+13	0.000000e+00	6.000002e-01	4.694958e+14	8.095202e+14	2.160315e+14	1.104618e+04	4.341124e+03	2.303710e+03	0	9.757782e-04
6.100000e+08	2.851923e+13	0.000000e+00	6.000002e-01	4.644373e+14	8.018174e+14	2.149743e+14	1.102531e+04	4.336827e+03	2.301430e+03	0	9.707118e-04
6.200000e+08	2.807892e+13	0.000000e+00	6.000002e-01	4.594728e+14	7.942626e+14	2.139246e+14	1.100466e+04	4.332585e+03	2.299179e+03	0	9.656902e-04
6.300000e+08	2.764695e+13	0.000000e+00	6.000002e-01	4.545999e+14	7.868509e+14	2.128823e+14	1.098424e+04	4.328395e+03	2.296955e+03	0	9.607125e-04
6.400000e+08	2.722310e+13	0.000000e+00	6.000002e-01	4.498161e+14	7.795779e+14	2.118473e+14	1.096402e+04	4.324257e+03	2.294759e+03	0	9.557777e-04
6.500000e+08	2.680716e+13	0.000000e+00	6.000002e-01	4.451191e+14	7.724394e+14	2.108196e+14	1.094402e+04	4.320168e+03	2.292590e+03	0	9.508849e-04
6.600000e+08	2.639892e+13	0.000000e+00	6.000002e-01	4.405066e+14	7.654311e+14	2.097992e+14	1.092423e+04	4.316128e+03	2.290445e+03	0	9.460332e-04
6.700000e+08	2.599817e+13	0.000000e+00	6.000002e-01	4.359766e+14	7.585494e+14	2.087860e+14	1.090465e+04	4.312134e+03	2.288326e+03	0	9.412217e-04
6.800000e+08	2.560473e+13	0.000000e+00	6.000002e-01	4.315268e+14	7.517903e+14	2.077798e+14	1.088526e+04	4.308187e+03	2.286231e+03	0	9.364497e-04
6.900000e+08	2.521841e+13	0.000000e+00	6.000002e-01	4.271552e+14	7.451503e+14	2.067807e+14	1.086607e+04	4.304284e+03	2.284160e+03	0	9.317161e-04
7.000000e+08	2.483903e+13	0.000000e+00	6.000002e-01	4.228600e+14	7.386260e+14	2.057887e+14	1.084707e+04	4.300424e+03	2.282112e+03	0	9.270203e-04
7.100000e+08	2.446642e+13	0.000000e+00	6.000002e-01	4.186391e+14	7.322142e+14	2.048035e+14	1.082827e+04	4.296607e+03	2.280086e+03	0	9.223615e-04
7.200000e+08	2.410040e+13	0.000000e+00	6.000002e-01	4.144908e+14	7.259116e+14	2.038253e+14	1.080965e+04	4.292831e+03	2.278083e+03	0	9.177388e-04
7.300000e+08	2.374081e+13	0.000000e+00	6.000002e-01	4.104133e+14	7.197153e+14	2.028539e+14	1.079122e+04	4.289095e+03	2.276100e+03	0	9.131515e-04
7.400000e+08	2.338749e+13	0.000000e+00	6.000002e-01	4.064049e+14	7.136224e+14	2.018893e+14	1.077296e+04	4.285399e+03	2.274139e+03	0	9.085990e-04
7.500000e+08	2.304030e+13	0.000000e+00	6.000002e-01	4.024638e+14	7.076300e+14	2.009314e+14	1.075489e+04	4.281741e+03	2.272197e+03	0	9.040804e-04
7.600000e+08	2.269908e+13	0.000000e+00	6.000002e-01	3.985886e+14	7.017356e+14	1.999801e+14	1.073699e+04	4.278121e+03	2.270276e+03	0	8.995951e-04
7.700000e+08	2.236369e+13	0.000000e+00	6.000002e-01	3.947776e+14	6.959364e+14	1.990355e+14	1.071926e+04	4.274537e+03	2.268374e+03	0	8.951424e-04
7.800000e+08	2.203398e+13	0.000000e+00	6.000002e-01	3.910293e+14	6.902302e+14	1.980975e+14	1.070170e+04	4.270988e+03	2.266491e+03	0	8.907217e-04
7.900000e+08	2.170984e+13	0.000000e+00	6.000002e-01	3.873422e+14	6.846144e+14	1.971660e+14	1.068430e+04	4.267475e+03	2.264627e+03	0	8.863323e-04
8.000000e+08	2.139112e+13	0.000000e+00	6.000002e-01	3.837150e+14	6.790867e+14	1.962409e+14	1.066707e+04	4.263996e+03	2.262781e+03	0	8.819735e-04
8.100000e+08	2.107770e+13	0.000000e+00	6.000002e-01	3.801462e+14	6.736450e+14	1.953222e+14	1.065000e+04	4.260551e+03	2.260952e+03	0	8.776447e-04
8.200000e+08	2.076945e+13	0.000000e+00	6.000002e-01	3.766345e+14	6.682872e+14	1.944099e+14	1.063309e+04	4.257138e+03	2.259141e+03	0	8.733454e-04
8.300000e+08	2.046627e+13	0.000000e+00	6.000002e-01	3.731787e+14	6.630111e+14	1.935039e+14	1.061633e+04	4.253757e+03	2.257347e+03	0	8.690749e-04
8.400000e+08	2.016802e+13	0.000000e+00	6.000002e-01	3.697774e+14	6.578149e+14	1.926042e+14	1.059973e+04	4.250407e+03	2.255569e+03	0	8.648327e-04
8.500000e+08	1.987460e+13	0.000000e+00	6.000002e-01	3.664294e+14	6.526965e+14	1.917107e+14	1.058328e+04	4.247089e+03	2.253808e+03	0	8.606181e-04
8.600000e+08	1.958590e+13	0.000000e+00	6.000002e-01	3.631336e+14	6.476541e+14	1.908233e+14	1.056698e+04	4.243800e+03	2.252063e+03	0	8.564307e-04
8.700000e+08	1.930182e+13	0.000000e+00	6.000002e-01	3.598888e+14	6.426860e+14	1.899420e+14	1.055082e+04	4.240541e+03	2.250333e+03	0	8.522698e-04
8.800000e+08	1.902225e+13	0.000000e+00	6.000002e-01	3.566939e+14	6.377904e+14	1.890668e+14	1.053481e+04	4.237310e+03	2.248619e+03	0	8.481350e-04
8.900000e+08	1.874710e+13	0.000000e+00	6.000002e-01	3.535477e+14	6.329656e+14	1.881977e+14	1.051894e+04	4.234108e+03	2.246920e+03	0	8.440257e-04
9.000000e+08	1.847625e+13	0.000000e+00	6.000002e-01	3.504493e+14	6.282101e+14	1.873344e+14	1.050320e+04	4.230934e+03	2.245236e+03	0	8.399414e-04
9.100000e+08	1.820964e+13	0.000000e+00	6.000002e-01	3.473976e+14	6.235222e+14	1.864771e+14	1.048761e+04	4.227787e+03	2.243566e+03	0	8.358816e-04
9.200000e+08	1.794715e+13	0.000000e+00	6.000002e-01	3.443916e+14	6.189006e+14	1.856257e+14	1.047215e+04	4.224667e+03	2.241910e+03	0	8.318458e-04
9.300000e+08	1.768870e+13	0.000000e+00	6.000002e-01	3.414304e+14	6.143436e+14	1.847801e+14	1.045683e+04	4.221573e+03	2.240268e+03	0	8.278335e-04
9.400000e+08	1.743421e+13	0.000000e+00	6.000002e-01	3.385130e+14	6.098499e+14	1.839403e+14	1.044163e+04	4.218505e+03	2.238640e+03	0	8.238442e-04
9.500000e+08	1.718359e+13	0.000000e+00	6.000002e-01	3.356384e+14	6.054181e+14	1.831062e+14	1.042657e+04	4.215463e+03	2.237025e+03	0	8.198775e-04
9.600000e+08	1.693676e+13	0.000000e+00	6.000002e-01	3.328058e+14	6.010469e+14	1.822778e+14	1.041163e+04	4.212445e+03	2.235424e+03	0	8.159329e-04
9.700000e+08	1.669364e+13	0.000000e+00	6.000002e-01	3.300144e+14	5.967350e+14	1.814550e+14	1.039682e+04	4.209451e+03	2.233835e+03	0	8.120100e-04
9.800000e+08	1.645415e+13	0.000000e+00	6.000002e-01	3.272632e+14	5.924811e+14	1.806378e+14	1.038213e+04	4.206482e+03	2.232259e+03	0	8.081083e-04
9.900000e+08	1.621823e+13	0.000000e+00	6.000002e-01	3.245515e+14	5.882840e+14	1.798262e+14	1.036757e+04	4.203536e+03	2.230696e+03	0	8.042273e-04
1.000000e+09	1.598578e+13	0.000000e+00	6.000002e-01	3.218784e+14	5.841426e+14	1.790201e+14	1.035312e+04	4.200613e+03	2.229145e+03	0	8.003666e-04
1.010000e+09	1.575675e+13	0.000000e+00	6.000002e-01	3.192432e+14	5.800557e+14	1.782195e+14	1.033879e+04	4.197713e+03	2.227606e+03	0	7.965259e-04
1.020000e+09	1.553106e+13	0.000000e+00	6.000002e-01	3.166451e+14	5.760222e+14	1.774243e+14	1.032459e+04	4.194835e+03	2.226079e+03	0	7.927047e-04
1.030000e+09	1.530865e+13	0.000000e+00	6.000002e-01	3.140834e+14	5.720410e+14	1.766345e+14	1.031049e+04	4.191980e+03	2.224564e+03	0	7.889025e-04
1.040000e+09	1.508945e+13	0.000000e+00	6.000002e-01	3.115574e+14	5.681110e+14	1.758500e+14	1.029651e+04	4.189146e+03	2.223060e+03	0	7.851190e-04
1.050000e+09	1.487340e+13	0.000000e+00	6.000002e-01	3.090663e+14	5.642314e+14	1.750708e+14	1.028264e+04	4.186333e+03	2.221567e+03	0	7.813538e-04
1.060000e+09	1.466043e+13	0.000000e+00	6.000002e-01	3.066095e+14	5.604009e+14	1.742968e+14	1.026888e+04	4.183542e+03	2.220086e+03	0	7.776065e-04
1.070000e+09	1.445048e+13	0.000000e+00	6.000002e-01	3.041862e+14	5.566188e+14	1.735281e+14	1.025524e+04	4.180771e+03	2.218615e+03	0	7.738767e-04
1.080000e+09	1.424350e+13	0.000000e+00	6.000002e-01	3.017959e+14	5.528840e+14	1.727645e+14	1.024170e+04	4.178020e+03	2.217156e+03	0	7.701640e-04
1.090000e+09	1.403942e+13	0.000000e+00	6.000002e-01	2.994380e+14	5.491957e+14	1.720061e+14	1.022826e+04	4.175290e+03	2.215707e+03	0	7.664680e-04
1.100000e+09	1.383819e+13	0.000000e+00	6.000002e-01	2.971117e+14	5.455530e+14	1.712528e+14	1.021493e+04	4.172579e+03	2.214268e+03	0	7.627885e-04
1.110000e+09	1.363976e+13	0.000000e+00	6.000002e-01	2.948166e+14	5.419549e+14	1.705045e+14	1.020170e+04	4.169887e+03	2.212840e+03	0	7.591249e-04
1.120000e+09	1.344406e+13	0.000000e+00	6.000002e-01	2.925519e+14	5.384008e+14	1.697613e+14	1.018858e+04	4.167215e+03	2.211422e+03	0	7.554769e-04
1.130000e+09	1.325106e+13	0.000000e+00	6.000002e-01	2.903172e+14	5.348896e+14	1.690230e+14	1.017555e+04	4.164561e+03	2.210013e+03	0	7.518442e-04
1.140000e+09	1.306069e+13	0.000000e+00	6.000002e-01	2.881119e+14	5.314208e+14	1.682896e+14	1.016263e+04	4.161926e+03	2.208615e+03	0	7.482265e-04
1.150000e+09	1.287291e+13	0.000000e+00	6.000002e-01	2.859354e+14	5.279933e+14	1.675612e+14	1.014980e+04	4.159310e+03	2.207226e+03	0	7.446233e-04
1.160000e+09	1.268767e+13	0.000000e+00	6.000002e-01	2.837872e+14	5.246067e+14	1.668376e+14	1.013707e+04	4.156711e+03	2.205847e+03	0	7.410343e-04
1.170000e+09	1.250492e+13	0.000000e+00	6.000002e-01	2.816667e+14	5.212600e+14	1.661188e+14	1.012444e+04	4.154130e+03	2.204478e+03	0	7.374593e-04
1.180000e+09	1.232462e+13	0.000000e+00	6.000002e-01	2.795736e+14	5.179525e+14	1.654048e+14	1.011189e+04	4.151566e+03	2.203117e+03	0	7.338977e-04
1.190000e+09	1.214672e+13	0.000000e+00	6.000002e-01	2.775072e+14	5.146837e+14	1.646955e+14	1.009945e+04	4.149020e+03	2.201766e+03	0	7.303494e-04
1.200000e+09	1.197117e+13	0.000000e+00	6.000002e-01	2.754671e+14	5.114527e+14	1.639910e+14	1.008709e+04	4.146491e+03	2.200424e+03	0	7.268140e-04
1.210000e+09	1.179794e+13	0.000000e+00	6.000002e-01	2.734528e+14	5.082590e+14	1.632911e+14	1.007482e+04	4.143979e+03	2.199091e+03	0	7.232911e-04
1.220000e+09	1.162698e+13	0.000000e+00	6.000002e-01	2.714639e+14	5.051018e+14	1.625959e+14	1.006265e+04	4.141483e+03	2.197766e+03	0	7.197804e-04
1.230000e+09	1.145825e+13	0.000000e+00	6.000002e-01	2.694999e+14	5.019805e+14	1.619053e+14	1.005056e+04	4.139003e+03	2.196450e+03	0	7.162816e-04
1.240000e+09	1.129171e+13	0.000000e+00	6.000002e-01	2.675604e+14	4.988946e+14	1.612192e+14	1.003856e+04	4.136540e+03	2.195143e+03	0	7.127944e-04
1.250000e+09	1.112732e+13	0.000000e+00	6.000002e-01	2.656449e+14	4.958434e+14	1.605377e+14	1.002665e+04	4.134092e+03	2.193844e+03	0	7.093184e-04
1.260000e+09	1.096504e+13	0.000000e+00	6.000002e-01	2.637530e+14	4.928263e+14	1.598606e+14	1.001482e+04	4.131660e+03	2.192554e+03	0	7.058533e-04
1.270000e+09	1.080484e+13	0.000000e+00	6.000002e-01	2.618843e+14	4.898428e+14	1.591880e+14	1.000307e+04	4.129244e+03	2.191271e+03	0	7.023989e-04
1.280000e+09	1.064668e+13	0.000000e+00	6.000002e-01	2.600384e+14	4.868922e+14	1.585199e+14	9.991408e+03	4.126843e+03	2.189997e+03	0	6.989548e-04
1.290000e+09	1.049052e+13	0.000000e+00	6.000002e-01	2.582149e+14	4.839741e+14	1.578561e+14	9.979828e+03	4.124456e+03	2.188731e+03	0	6.955206e-04
1.300000e+09	1.033633e+13	0.000000e+00	6.000002e-01	2.564135e+14	4.810879e+14	1.571967e+14	9.968329e+03	4.122085e+03	2.187473e+03	0	6.920961e-04
1.310000e+09	1.018407e+13	0.000000e+00	6.000002e-01	2.546337e+14	4.782331e+14	1.565416e+14	9.956909e+03	4.119729e+03	2.186222e+03	0	6.886810e-04
1.320000e+09	1.003371e+13	0.000000e+00	6.000002e-01	2.528752e+14	4.754091e+14	1.558908e+14	9.945569e+03	4.117387e+03	2.184979e+03	0	6.852750e-04
1.330000e+09	9.885222e+12	0.000000e+00	6.000002e-01	2.511375e+14	4.726155e+14	1.552443e+14	9.934307e+03	4.115059e+03	2.183744e+03	0	6.818777e-04
1.340000e+09	9.738569e+12	0.000000e+00	6.000002e-01	2.494205e+14	4.698518e+14	1.546019e+14	9.923122e+03	4.112746e+03	2.182516e+03	0	6.784889e-04
1.350000e+09	9.593720e+12	0.000000e+00	6.000002e-01	2.477237e+14	4.671175e+14	1.539638e+14	9.912014e+03	4.110446e+03	2.181296e+03	0	6.751082e-04
1.360000e+09	9.450646e+12	0.000000e+00	6.000002e-01	2.460468e+14	4.644121e+14	1.533299e+14	9.900981e+03	4.108160e+03	2.180083e+03	0	6.717353e-04
