#t		Qconv[W]	Ri[Rp]		R*[Rp]		Qc[W]		Qm[W]		Qr[W]		Tcmb[K]		Tl[K]		Tup[K]		RiFlag		Bs[T]
0.000000e+00	1.076138e+14	0.000000e+00	6.000001e-01	1.329656e+15	2.415677e+15	3.143832e+14	1.359521e+04	5.072081e+03	2.644058e+03	0	1.507366e-03
1.000000e+07	1.048330e+14	0.000000e+00	6.000001e-01	1.300336e+15	2.331526e+15	3.126413e+14	1.354108e+04	5.047412e+03	2.631198e+03	0	1.494268e-03
2.000000e+07	1.021724e+14	0.000000e+00	6.000001e-01	1.272265e+15	2.254513e+15	3.109124e+14	1.348813e+04	5.024412e+03	2.619208e+03	0	1.481519e-03
3.000000e+07	9.962372e+13	0.000000e+00	6.000001e-01	1.245355e+15	2.183726e+15	3.091964e+14	1.343631e+04	5.002898e+03	2.607993e+03	0	1.469096e-03
4.000000e+07	9.717925e+13	0.000000e+00	6.000001e-01	1.219529e+15	2.118401e+15	3.074932e+14	1.338559e+04	4.982714e+03	2.597471e+03	0	1.456981e-03
5.000000e+07	9.483216e+13	0.000000e+00	6.000001e-01	1.194715e+15	2.057892e+15	3.058028e+14	1.333590e+04	4.963723e+03	2.587571e+03	0	1.445155e-03
6.000000e+07	9.257625e+13	0.000000e+00	6.000001e-01	1.170849e+15	2.001650e+15	3.041249e+14	1.328723e+04	4.945808e+03	2.578232e+03	0	1.433604e-03
7.000000e+07	9.040589e+13	0.000000e+00	6.000001e-01	1.147874e+15	1.949205e+15	3.024596e+14	1.323952e+04	4.928864e+03	2.569399e+03	0	1.422312e-03
8.000000e+07	8.831596e+13	0.000000e+00	6.000001e-01	1.125735e+15	1.900157e+15	3.008066e+14	1.319274e+04	4.912801e+03	2.561025e+03	0	1.411266e-03
9.000000e+07	8.630176e+13	0.000000e+00	6.000001e-01	1.104386e+15	1.854155e+15	2.991659e+14	1.314686e+04	4.897539e+03	2.553069e+03	0	1.400455e-03
1.000000e+08	8.435901e+13	0.000000e+00	6.000001e-01	1.083780e+15	1.810900e+15	2.975374e+14	1.310184e+04	4.883007e+03	2.545494e+03	0	1.389867e-03
1.100000e+08	8.248376e+13	0.000000e+00	6.000001e-01	1.063879e+15	1.770128e+15	2.959210e+14	1.305766e+04	4.869143e+03	2.538267e+03	0	1.379491e-03
1.200000e+08	8.067239e+13	0.000000e+00	6.000001e-01	1.044643e+15	1.731608e+15	2.943166e+14	1.301428e+04	4.855892e+03	2.531359e+03	0	1.369318e-03
1.300000e+08	7.892154e+13	0.000000e+00	6.000001e-01	1.026039e+15	1.695138e+15	2.927240e+14	1.297169e+04	4.843203e+03	2.524745e+03	0	1.359339e-03
1.400000e+08	7.722811e+13	0.000000e+00	6.000001e-01	1.008034e+15	1.660540e+15	2.911433e+14	1.292985e+04	4.831032e+03	2.518400e+03	0	1.349546e-03
1.500000e+08	7.558923e+13	0.000000e+00	6.000001e-01	9.905983e+14	1.627657e+15	2.895742e+14	1.288873e+04	4.819340e+03	2.512305e+03	0	1.339932e-03
1.600000e+08	7.400223e+13	0.000000e+00	6.000001e-01	9.737046e+14	1.596347e+15	2.880167e+14	1.284833e+04	4.808091e+03	2.506440e+03	0	1.330488e-03
1.700000e+08	7.246462e+13	0.000000e+00	6.000001e-01	9.573269e+14	1.566485e+15	2.864707e+14	1.280861e+04	4.797251e+03	2.500790e+03	0	1.321208e-03
1.800000e+08	7.097409e+13	0.000000e+00	6.000001e-01	9.414414e+14	1.537961e+15	2.849361e+14	1.276956e+04	4.786793e+03	2.495338e+03	0	1.312087e-03
1.900000e+08	6.952846e+13	0.000000e+00	6.000001e-01	9.260255e+14	1.510673e+15	2.834128e+14	1.273115e+04	4.776689e+03	2.490071e+03	0	1.303117e-03
2.000000e+08	6.812573e+13	0.000000e+00	6.000001e-01	9.110582e+14	1.484532e+15	2.819007e+14	1.269336e+04	4.766916e+03	2.484976e+03	0	1.294294e-03
2.100000e+08	6.676398e+13	0.000000e+00	6.000001e-01	8.965198e+14	1.459457e+15	2.803998e+14	1.265619e+04	4.757452e+03	2.480043e+03	0	1.285612e-03
2.200000e+08	6.544145e+13	0.000000e+00	6.000001e-01	8.823920e+14	1.435373e+15	2.789098e+14	1.261960e+04	4.748277e+03	2.475260e+03	0	1.277067e-03
2.300000e+08	6.415645e+13	0.000000e+00	6.000001e-01	8.686572e+14	1.412215e+15	2.774308e+14	1.258359e+04	4.739373e+03	2.470618e+03	0	1.268653e-03
2.400000e+08	6.290742e+13	0.000000e+00	6.000001e-01	8.552992e+14	1.389923e+15	2.759626e+14	1.254814e+04	4.730723e+03	2.466109e+03	0	1.260366e-03
2.500000e+08	6.169287e+13	0.000000e+00	6.000001e-01	8.423026e+14	1.368440e+15	2.745052e+14	1.251322e+04	4.722312e+03	2.461725e+03	0	1.252202e-03
2.600000e+08	6.051141e+13	0.000000e+00	6.000001e-01	8.296529e+14	1.347718e+15	2.730585e+14	1.247884e+04	4.714127e+03	2.457458e+03	0	1.244157e-03
2.700000e+08	5.936171e+13	0.000000e+00	6.000001e-01	8.173363e+14	1.327710e+15	2.716223e+14	1.244497e+04	4.706154e+03	2.453301e+03	0	1.236227e-03
2.800000e+08	5.824253e+13	0.000000e+00	6.000001e-01	8.053399e+14	1.308374e+15	2.701966e+14	1.241160e+04	4.698382e+03	2.449250e+03	0	1.228408e-03
2.900000e+08	5.715269e+13	0.000000e+00	6.000001e-01	7.936514e+14	1.289671e+15	2.687813e+14	1.237872e+04	4.690799e+03	2.445297e+03	0	1.220698e-03
3.000000e+08	5.609107e+13	0.000000e+00	6.000001e-01	7.822591e+14	1.271567e+15	2.673764e+14	1.234631e+04	4.683396e+03	2.441437e+03	0	1.213092e-03
3.100000e+08	5.505661e+13	0.000000e+00	6.000001e-01	7.711522e+14	1.254028e+15	2.659817e+14	1.231436e+04	4.676163e+03	2.437667e+03	0	1.205589e-03
3.200000e+08	5.404830e+13	0.000000e+00	6.000001e-01	7.603200e+14	1.237025e+15	2.645971e+14	1.228287e+04	4.669092e+03	2.433981e+03	0	1.198183e-03
3.300000e+08	5.306520e+13	0.000000e+00	6.000001e-01	7.497526e+14	1.220529e+15	2.632226e+14	1.225182e+04	4.662174e+03	2.430375e+03	0	1.190874e-03
3.400000e+08	5.210638e+13	0.000000e+00	6.000001e-01	7.394406e+14	1.204514e+15	2.618580e+14	1.222120e+04	4.655403e+03	2.426845e+03	0	1.183658e-03
3.500000e+08	5.117099e+13	0.000000e+00	6.000001e-01	7.293751e+14	1.188957e+15	2.605034e+14	1.219099e+04	4.648772e+03	2.423388e+03	0	1.176532e-03
3.600000e+08	5.025821e+13	0.000000e+00	6.000001e-01	7.195473e+14	1.173836e+15	2.591586e+14	1.216120e+04	4.642273e+03	2.420000e+03	0	1.169495e-03
3.700000e+08	4.936726e+13	0.000000e+00	6.000001e-01	7.099492e+14	1.159129e+15	2.578235e+14	1.213180e+04	4.635902e+03	2.416679e+03	0	1.162543e-03
3.800000e+08	4.849737e+13	0.000000e+00	6.000001e-01	7.005730e+14	1.144817e+15	2.564981e+14	1.210280e+04	4.629651e+03	2.413421e+03	0	1.155674e-03
3.900000e+08	4.764786e+13	0.000000e+00	6.000001e-01	6.914112e+14	1.130882e+15	2.551823e+14	1.207418e+04	4.623517e+03	2.410223e+03	0	1.148886e-03
4.000000e+08	4.681802e+13	0.000000e+00	6.000001e-01	6.824567e+14	1.117308e+15	2.538760e+14	1.204593e+04	4.617495e+03	2.407083e+03	0	1.142178e-03
4.100000e+08	4.600722e+13	0.000000e+00	6.000001e-01	6.737028e+14	1.104078e+15	2.525791e+14	1.201804e+04	4.611578e+03	2.403999e+03	0	1.135546e-03
4.200000e+08	4.521482e+13	0.000000e+00	6.000001e-01	6.651430e+14	1.091178e+15	2.512915e+14	1.199051e+04	4.605765e+03	2.400969e+03	0	1.128989e-03
4.300000e+08	4.444025e+13	0.000000e+00	6.000001e-01	6.567711e+14	1.078594e+15	2.500133e+14	1.196333e+04	4.600049e+03	2.397989e+03	0	1.122505e-03
4.400000e+08	4.368292e+13	0.000000e+00	6.000001e-01	6.485811e+14	1.066313e+15	2.487442e+14	1.193649e+04	4.594428e+03	2.395059e+03	0	1.116092e-03
4.500000e+08	4.294230e+13	0.000000e+00	6.000001e-01	6.405674e+14	1.054322e+15	2.474842e+14	1.190998e+04	4.588898e+03	2.392176e+03	0	1.109748e-03
4.600000e+08	4.221786e+13	0.000000e+00	6.000001e-01	6.327245e+14	1.042611e+15	2.462333e+14	1.188380e+04	4.583456e+03	2.389339e+03	0	1.103472e-03
4.700000e+08	4.150910e+13	0.000000e+00	6.000001e-01	6.250471e+14	1.031167e+15	2.449913e+14	1.185794e+04	4.578098e+03	2.386546e+03	0	1.097262e-03
4.800000e+08	4.081554e+13	0.000000e+00	6.000001e-01	6.175304e+14	1.019982e+15	2.437583e+14	1.183239e+04	4.572821e+03	2.383795e+03	0	1.091117e-03
4.900000e+08	4.013672e+13	0.000000e+00	6.000001e-01	6.101693e+14	1.009045e+15	2.425341e+14	1.180714e+04	4.567623e+03	2.381086e+03	0	1.085034e-03
5.000000e+08	3.947221e+13	0.000000e+00	6.000001e-01	6.029594e+14	9.983475e+14	2.413186e+14	1.178220e+04	4.562501e+03	2.378415e+03	0	1.079012e-03
5.100000e+08	3.882157e+13	0.000000e+00	6.000001e-01	5.958962e+14	9.878801e+14	2.401118e+14	1.175755e+04	4.557452e+03	2.375784e+03	0	1.073051e-03
5.200000e+08	3.818439e+13	0.000000e+00	6.000001e-01	5.889753e+14	9.776349e+14	2.389136e+14	1.173319e+04	4.552474e+03	2.373189e+03	0	1.067148e-03
5.300000e+08	3.756029e+13	0.000000e+00	6.000001e-01	5.821928e+14	9.676041e+14	2.377240e+14	1.170911e+04	4.547565e+03	2.370629e+03	0	1.061302e-03
5.400000e+08	3.694889e+13	0.000000e+00	6.000001e-01	5.755447e+14	9.577804e+14	2.365429e+14	1.168530e+04	4.542722e+03	2.368105e+03	0	1.055512e-03
5.500000e+08	3.634982e+13	0.000000e+00	6.000001e-01	5.690271e+14	9.481566e+14	2.353701e+14	1.166177e+04	4.537944e+03	2.365614e+03	0	1.049776e-03
5.600000e+08	3.576273e+13	0.000000e+00	6.000001e-01	5.626365e+14	9.387262e+14	2.342057e+14	1.163850e+04	4.533228e+03	2.363155e+03	0	1.044094e-03
5.700000e+08	3.518730e+13	0.000000e+00	6.000001e-01	5.563692e+14	9.294827e+14	2.330496e+14	1.161549e+04	4.528572e+03	2.360729e+03	0	1.038464e-03
5.800000e+08	3.462319e+13	0.000000e+00	6.000001e-01	5.502220e+14	9.204201e+14	2.319016e+14	1.159274e+04	4.523976e+03	2.358333e+03	0	1.032884e-03
5.900000e+08	3.407009e+13	0.000000e+00	6.000001e-01	5.441914e+14	9.115326e+14	2.307618e+14	1.157024e+04	4.519437e+03	2.355966e+03	0	1.027355e-03
6.000000e+08	3.352770e+13	0.000000e+00	6.000001e-01	5.382744e+14	9.028147e+14	2.296301e+14	1.154798e+04	4.514953e+03	2.353629e+03	0	1.021874e-03
6.100000e+08	3.299574e+13	0.000000e+00	6.000001e-01	5.324680e+14	8.942612e+14	2.285063e+14	1.152597e+04	4.510523e+03	2.351320e+03	0	1.016440e-03
6.200000e+08	3.247391e+13	0.000000e+00	6.000001e-01	5.267691e+14	8.858671e+14	2.273906e+14	1.150419e+04	4.506146e+03	2.349038e+03	0	1.011054e-03
6.300000e+08	3.196196e+13	0.000000e+00	6.000001e-01	5.211750e+14	8.776274e+14	2.262826e+14	1.148264e+04	4.501819e+03	2.346782e+03	0	1.005712e-03
6.400000e+08	3.145962e+13	0.000000e+00	6.000001e-01	5.156829e+14	8.695377e+14	2.251825e+14	1.146133e+04	4.497543e+03	2.344553e+03	0	1.000416e-03
6.500000e+08	3.096664e+13	0.000000e+00	6.000001e-01	5.102902e+14	8.615936e+14	2.240902e+14	1.144023e+04	4.493315e+03	2.342349e+03	0	9.951624e-04
6.600000e+08	3.048277e+13	0.000000e+00	6.000001e-01	5.049943e+14	8.537908e+14	2.230055e+14	1.141936e+04	4.489134e+03	2.340170e+03	0	9.899519e-04
6.700000e+08	3.000778e+13	0.000000e+00	6.000001e-01	4.997927e+14	8.461252e+14	2.219285e+14	1.139870e+04	4.485000e+03	2.338014e+03	0	9.847831e-04
6.800000e+08	2.954145e+13	0.000000e+00	6.000001e-01	4.946832e+14	8.385932e+14	2.208590e+14	1.137825e+04	4.480910e+03	2.335882e+03	0	9.796551e-04
6.900000e+08	2.908354e+13	0.000000e+00	6.000001e-01	4.896633e+14	8.311908e+14	2.197971e+14	1.135801e+04	4.476864e+03	2.333773e+03	0	9.745671e-04
7.000000e+08	2.863386e+13	0.000000e+00	6.000001e-01	4.847308e+14	8.239147e+14	2.187425e+14	1.133798e+04	4.472861e+03	2.331686e+03	0	9.695182e-04
7.100000e+08	2.819220e+13	0.000000e+00	6.000001e-01	4.798836e+14	8.167612e+14	2.176954e+14	1.131815e+04	4.468899e+03	2.329621e+03	0	9.645075e-04
7.200000e+08	2.775835e+13	0.000000e+00	6.000001e-01	4.751196e+14	8.097272e+14	2.166556e+14	1.129851e+04	4.464979e+03	2.327578e+03	0	9.595343e-04
7.300000e+08	2.733213e+13	0.000000e+00	6.000001e-01	4.704368e+14	8.028095e+14	2.156230e+14	1.127907e+04	4.461098e+03	2.325555e+03	0	9.545978e-04
7.400000e+08	2.691334e+13	0.000000e+00	6.000001e-01	4.658332e+14	7.960051e+14	2.145977e+14	1.125982e+04	4.457257e+03	2.323552e+03	0	9.496972e-04
7.500000e+08	2.650181e+13	0.000000e+00	6.000001e-01	4.613069e+14	7.893109e+14	2.135795e+14	1.124076e+04	4.453453e+03	2.321569e+03	0	9.448318e-04
7.600000e+08	2.609737e+13	0.000000e+00	6.000001e-01	4.568560e+14	7.827243e+14	2.125684e+14	1.122189e+04	4.449687e+03	2.319606e+03	0	9.400007e-04
7.700000e+08	2.569984e+13	0.000000e+00	6.000001e-01	4.524788e+14	7.762424e+14	2.115643e+14	1.120319e+04	4.445957e+03	2.317662e+03	0	9.352034e-04
7.800000e+08	2.530905e+13	0.000000e+00	6.000001e-01	4.481736e+14	7.698626e+14	2.105672e+14	1.118467e+04	4.442263e+03	2.315736e+03	0	9.304390e-04
7.900000e+08	2.492486e+13	0.000000e+00	6.000001e-01	4.439387e+14	7.635825e+14	2.095770e+14	1.116633e+04	4.438604e+03	2.313828e+03	0	9.257070e-04
8.000000e+08	2.454711e+13	0.000000e+00	6.000001e-01	4.397725e+14	7.573996e+14	2.085937e+14	1.114816e+04	4.434979e+03	2.311939e+03	0	9.210066e-04
8.100000e+08	2.417564e+13	0.000000e+00	6.000001e-01	4.356733e+14	7.513115e+14	2.076173e+14	1.113016e+04	4.431388e+03	2.310067e+03	0	9.163371e-04
8.200000e+08	2.381031e+13	0.000000e+00	6.000001e-01	4.316397e+14	7.453159e+14	2.066475e+14	1.111233e+04	4.427830e+03	2.308212e+03	0	9.116979e-04
8.300000e+08	2.345098e+13	0.000000e+00	6.000001e-01	4.276702e+14	7.394107e+14	2.056845e+14	1.109467e+04	4.424304e+03	2.306374e+03	0	9.070884e-04
8.400000e+08	2.309752e+13	0.000000e+00	6.000001e-01	4.237633e+14	7.335938e+14	2.047281e+14	1.107716e+04	4.420809e+03	2.304552e+03	0	9.025080e-04
8.500000e+08	2.274979e+13	0.000000e+00	6.000001e-01	4.199177e+14	7.278630e+14	2.037784e+14	1.105982e+04	4.417346e+03	2.302746e+03	0	8.979561e-04
8.600000e+08	2.240766e+13	0.000000e+00	6.000001e-01	4.161319e+14	7.222164e+14	2.028351e+14	1.104263e+04	4.413912e+03	2.300957e+03	0	8.934319e-04
8.700000e+08	2.207101e+13	0.000000e+00	6.000001e-01	4.124048e+14	7.166521e+14	2.018984e+14	1.102559e+04	4.410509e+03	2.299183e+03	0	8.889351e-04
8.800000e+08	2.173972e+13	0.000000e+00	6.000001e-01	4.087349e+14	7.111682e+14	2.009681e+14	1.100871e+04	4.407135e+03	2.297424e+03	0	8.844649e-04
8.900000e+08	2.141366e+13	0.000000e+00	6.000001e-01	4.051210e+14	7.057630e+14	2.000442e+14	1.099198e+04	4.403790e+03	2.295680e+03	0	8.800208e-04
9.000000e+08	2.109273e+13	0.000000e+00	6.000001e-01	4.015620e+14	7.004346e+14	1.991267e+14	1.097540e+04	4.400473e+03	2.293951e+03	0	8.756023e-04
9.100000e+08	2.077682e+13	0.000000e+00	6.000001e-01	3.980567e+14	6.951815e+14	1.982154e+14	1.095896e+04	4.397183e+03	2.292236e+03	0	8.712089e-04
9.200000e+08	2.046580e+13	0.000000e+00	6.000001e-01	3.946038e+14	6.900019e+14	1.973104e+14	1.094266e+04	4.393921e+03	2.290536e+03	0	8.668399e-04
9.300000e+08	2.015959e+13	0.000000e+00	6.000001e-01	3.912024e+14	6.848942e+14	1.964115e+14	1.092650e+04	4.390686e+03	2.288849e+03	0	8.624949e-04
9.400000e+08	1.985807e+13	0.000000e+00	6.000001e-01	3.878513e+14	6.798570e+14	1.955188e+14	1.091049e+04	4.387477e+03	2.287176e+03	0	8.581733e-04
9.500000e+08	1.956115e+13	0.000000e+00	6.000001e-01	3.845495e+14	6.748887e+14	1.946322e+14	1.089461e+04	4.384294e+03	2.285517e+03	0	8.538746e-04
9.600000e+08	1.926873e+13	0.000000e+00	6.000001e-01	3.812959e+14	6.699879e+14	1.937517e+14	1.087886e+04	4.381136e+03	2.283870e+03	0	8.495984e-04
9.700000e+08	1.898072e+13	0.000000e+00	6.000001e-01	3.780896e+14	6.651533e+14	1.928771e+14	1.086325e+04	4.378003e+03	2.282237e+03	0	8.453441e-04
9.800000e+08	1.869702e+13	0.000000e+00	6.000001e-01	3.749295e+14	6.603833e+14	1.920085e+14	1.084777e+04	4.374894e+03	2.280617e+03	0	8.411112e-04
9.900000e+08	1.841755e+13	0.000000e+00	6.000001e-01	3.718148e+14	6.556767e+14	1.911458e+14	1.083242e+04	4.371810e+03	2.279009e+03	0	8.368993e-04
1.000000e+09	1.814221e+13	0.000000e+00	6.000001e-01	3.687445e+14	6.510322e+14	1.902890e+14	1.081719e+04	4.368750e+03	2.277414e+03	0	8.327079e-04
1.010000e+09	1.787093e+13	0.000000e+00	6.000001e-01	3.657178e+14	6.464486e+14	1.894380e+14	1.080209e+04	4.365713e+03	2.275830e+03	0	8.285366e-04
1.020000e+09	1.760362e+13	0.000000e+00	6.000001e-01	3.627337e+14	6.419247e+14	1.885927e+14	1.078712e+04	4.362698e+03	2.274259e+03	0	8.243848e-04
1.030000e+09	1.734020e+13	0.000000e+00	6.000001e-01	3.597914e+14	6.374592e+14	1.877531e+14	1.077226e+04	4.359707e+03	2.272700e+03	0	8.202521e-04
1.040000e+09	1.708060e+13	0.000000e+00	6.000001e-01	3.568902e+14	6.330510e+14	1.869193e+14	1.075753e+04	4.356738e+03	2.271152e+03	0	8.161381e-04
1.050000e+09	1.682473e+13	0.000000e+00	6.000001e-01	3.540290e+14	6.286990e+14	1.860910e+14	1.074291e+04	4.353791e+03	2.269615e+03	0	8.120423e-04
1.060000e+09	1.657253e+13	0.000000e+00	6.000001e-01	3.512073e+14	6.244021e+14	1.852684e+14	1.072842e+04	4.350865e+03	2.268090e+03	0	8.079643e-04
1.070000e+09	1.632391e+13	0.000000e+00	6.000001e-01	3.484242e+14	6.201593e+14	1.844512e+14	1.071403e+04	4.347961e+03	2.266576e+03	0	8.039037e-04
1.080000e+09	1.607882e+13	0.000000e+00	6.000001e-01	3.456790e+14	6.159694e+14	1.836396e+14	1.069976e+04	4.345077e+03	2.265073e+03	0	7.998600e-04
1.090000e+09	1.583718e+13	0.000000e+00	6.000001e-01	3.429710e+14	6.118316e+14	1.828335e+14	1.068561e+04	4.342215e+03	2.263581e+03	0	7.958329e-04
1.100000e+09	1.559892e+13	0.000000e+00	6.000001e-01	3.402993e+14	6.077449e+14	1.820327e+14	1.067156e+04	4.339372e+03	2.262099e+03	0	7.918218e-04
1.110000e+09	1.536398e+13	0.000000e+00	6.000001e-01	3.376635e+14	6.037082e+14	1.812373e+14	1.065762e+04	4.336550e+03	2.260628e+03	0	7.878264e-04
1.120000e+09	1.513230e+13	0.000000e+00	6.000001e-01	3.350627e+14	5.997206e+14	1.804473e+14	1.064379e+04	4.333747e+03	2.259167e+03	0	7.838463e-04
1.130000e+09	1.490381e+13	0.000000e+00	6.000001e-01	3.324963e+14	5.957814e+14	1.796625e+14	1.063007e+04	4.330964e+03	2.257716e+03	0	7.798811e-04
1.140000e+09	1.467845e+13	0.000000e+00	6.000001e-01	3.299637e+14	5.918894e+14	1.788830e+14	1.061645e+04	4.328200e+03	2.256275e+03	0	7.759303e-04
1.150000e+09	1.445617e+13	0.000000e+00	6.000001e-01	3.274643e+14	5.880441e+14	1.781087e+14	1.060293e+04	4.325455e+03	2.254844e+03	0	7.719936e-04
1.160000e+09	1.423691e+13	0.000000e+00	6.000001e-01	3.249974e+14	5.842444e+14	1.773396e+14	1.058952e+04	4.322729e+03	2.253423e+03	0	7.680706e-04
1.170000e+09	1.402060e+13	0.000000e+00	6.000001e-01	3.225624e+14	5.804895e+14	1.765755e+14	1.057621e+04	4.320021e+03	2.252012e+03	0	7.641609e-04
1.180000e+09	1.380720e+13	0.000000e+00	6.000001e-01	3.201588e+14	5.767787e+14	1.758166e+14	1.056299e+04	4.317332e+03	2.250610e+03	0	7.602641e-04
1.190000e+09	1.359665e+13	0.000000e+00	6.000001e-01	3.177860e+14	5.731112e+14	1.750627e+14	1.054988e+04	4.314660e+03	2.249217e+03	0	7.563798e-04
1.200000e+09	1.338890e+13	0.000000e+00	6.000001e-01	3.154434e+14	5.694863e+14	1.743138e+14	1.053686e+04	4.312006e+03	2.247833e+03	0	7.525076e-04
1.210000e+09	1.318389e+13	0.000000e+00	6.000001e-01	3.131305e+14	5.659031e+14	1.735699e+14	1.052394e+04	4.309369e+03	2.246459e+03	0	7.486472e-04
1.220000e+09	1.298159e+13	0.000000e+00	6.000001e-01	3.108467e+14	5.623610e+14	1.728309e+14	1.051111e+04	4.306749e+03	2.245093e+03	0	7.447981e-04
1.230000e+09	1.278193e+13	0.000000e+00	6.000001e-01	3.085916e+14	5.588593e+14	1.720968e+14	1.049838e+04	4.304147e+03	2.243736e+03	0	7.409600e-04
1.240000e+09	1.258488e+13	0.000000e+00	6.000001e-01	3.063647e+14	5.553973e+14	1.713675e+14	1.048573e+04	4.301561e+03	2.242389e+03	0	7.371326e-04
1.250000e+09	1.239038e+13	0.000000e+00	6.000001e-01	3.041653e+14	5.519742e+14	1.706431e+14	1.047318e+04	4.298992e+03	2.241049e+03	0	7.333154e-04
1.260000e+09	1.219839e+13	0.000000e+00	6.000001e-01	3.019931e+14	5.485895e+14	1.699234e+14	1.046072e+04	4.296439e+03	2.239718e+03	0	7.295080e-04
1.270000e+09	1.200886e+13	0.000000e+00	6.000001e-01	2.998476e+14	5.452425e+14	1.692085e+14	1.044835e+04	4.293902e+03	2.238396e+03	0	7.257102e-04
1.280000e+09	1.182175e+13	0.000000e+00	6.000001e-01	2.977283e+14	5.419326e+14	1.684983e+14	1.043606e+04	4.291381e+03	2.237082e+03	0	7.219214e-04
1.290000e+09	1.163703e+13	0.000000e+00	6.000001e-01	2.956348e+14	5.386592e+14	1.677927e+14	1.042387e+04	4.288876e+03	2.235776e+03	0	7.181414e-04
1.300000e+09	1.145464e+13	0.000000e+00	6.000001e-01	2.935666e+14	5.354216e+14	1.670918e+14	1.041175e+04	4.286387e+03	2.234478e+03	0	7.143698e-04
1.310000e+09	1.127455e+13	0.000000e+00	6.000001e-01	2.915232e+14	5.322194e+14	1.663955e+14	1.039972e+04	4.283912e+03	2.233188e+03	0	7.106062e-04
1.320000e+09	1.109671e+13	0.000000e+00	6.000001e-01	2.895044e+14	5.290518e+14	1.657037e+14	1.038778e+04	4.281453e+03	2.231906e+03	0	7.068502e-04
1.330000e+09	1.092110e+13	0.000000e+00	6.000001e-01	2.875096e+14	5.259184e+14	1.650165e+14	1.037592e+04	4.279009e+03	2.230632e+03	0	7.031015e-04
1.340000e+09	1.074766e+13	0.000000e+00	6.000001e-01	2.855385e+14	5.228186e+14	1.643337e+14	1.036414e+04	4.276580e+03	2.229366e+03	0	6.993597e-04
1.350000e+09	1.057637e+13	0.000000e+00	6.000001e-01	2.835906e+14	5.197519e+14	1.636554e+14	1.035244e+04	4.274165e+03	2.228107e+03	0	6.956244e-04
1.360000e+09	1.040718e+13	0.000000e+00	6.000001e-01	2.816656e+14	5.167177e+14	1.629816e+14	1.034082e+04	4.271764e+03	2.226856e+03	0	6.918952e-04
