#t		Qconv[W]	Ri[Rp]		R*[Rp]		Qc[W]		Qm[W]		Qr[W]		Tcmb[K]		Tl[K]		Tup[K]		RiFlag		Bs[T]
0.000000e+00	4.730222e+14	0.000000e+00	5.935486e-01	5.070496e+15	3.309648e+15	3.441012e+14	1.881396e+04	6.037524e+03	2.692645e+03	0	2.483982e-03
1.000000e+07	4.546389e+14	0.000000e+00	5.935486e-01	4.884229e+15	3.490460e+15	3.421946e+14	1.862533e+04	6.102925e+03	2.721813e+03	0	2.451377e-03
2.000000e+07	4.369916e+14	0.000000e+00	5.935486e-01	4.705404e+15	3.635785e+15	3.403023e+14	1.844354e+04	6.156770e+03	2.745827e+03	0	2.419240e-03
3.000000e+07	4.200941e+14	0.000000e+00	5.935486e-01	4.534156e+15	3.747753e+15	3.384241e+14	1.826832e+04	6.200444e+03	2.765305e+03	0	2.387647e-03
4.000000e+07	4.039480e+14	0.000000e+00	5.935486e-01	4.370491e+15	3.829329e+15	3.365600e+14	1.809940e+04	6.235253e+03	2.780829e+03	0	2.356657e-03
5.000000e+07	3.885444e+14	0.000000e+00	5.935486e-01	4.214319e+15	3.883907e+15	3.347097e+14	1.793649e+04	6.262397e+03	2.792935e+03	0	2.326313e-03
6.000000e+07	3.738670e+14	0.000000e+00	5.935486e-01	4.065471e+15	3.915000e+15	3.328733e+14	1.777935e+04	6.282956e+03	2.802104e+03	0	2.296644e-03
7.000000e+07	3.598938e+14	0.000000e+00	5.935486e-01	3.923724e+15	3.926028e+15	3.310505e+14	1.762768e+04	6.297890e+03	2.808764e+03	0	2.267668e-03
8.000000e+07	3.465988e+14	0.000000e+00	5.935486e-01	3.788814e+15	3.920186e+15	3.292413e+14	1.748125e+04	6.308043e+03	2.813293e+03	0	2.239393e-03
9.000000e+07	3.339535e+14	0.000000e+00	5.935486e-01	3.660454e+15	3.900369e+15	3.274455e+14	1.733979e+04	6.314149e+03	2.816016e+03	0	2.211821e-03
1.000000e+08	3.219280e+14	0.000000e+00	5.935486e-01	3.538341e+15	3.869143e+15	3.256630e+14	1.720307e+04	6.316840e+03	2.817216e+03	0	2.184947e-03
1.100000e+08	3.104919e+14	0.000000e+00	5.935486e-01	3.422170e+15	3.828742e+15	3.238938e+14	1.707086e+04	6.316663e+03	2.817137e+03	0	2.158762e-03
1.200000e+08	2.996147e+14	0.000000e+00	5.935486e-01	3.311634e+15	3.781084e+15	3.221377e+14	1.694295e+04	6.314081e+03	2.815985e+03	0	2.133253e-03
1.300000e+08	2.892666e+14	0.000000e+00	5.935486e-01	3.206431e+15	3.727796e+15	3.203946e+14	1.681912e+04	6.309492e+03	2.813939e+03	0	2.108405e-03
1.400000e+08	2.794186e+14	0.000000e+00	5.935486e-01	3.106271e+15	3.670248e+15	3.186645e+14	1.669919e+04	6.303235e+03	2.811148e+03	0	2.084202e-03
1.500000e+08	2.700427e+14	0.000000e+00	5.935486e-01	3.010873e+15	3.609581e+15	3.169470e+14	1.658297e+04	6.295595e+03	2.807741e+03	0	2.060624e-03
1.600000e+08	2.611123e+14	0.000000e+00	5.935486e-01	2.919967e+15	3.546741e+15	3.152423e+14	1.647028e+04	6.286815e+03	2.803825e+03	0	2.037654e-03
1.700000e+08	2.526019e+14	0.000000e+00	5.935486e-01	2.833299e+15	3.482505e+15	3.135502e+14	1.636096e+04	6.277103e+03	2.799494e+03	0	2.015271e-03
1.800000e+08	2.444876e+14	0.000000e+00	5.935486e-01	2.750627e+15	3.417508e+15	3.118705e+14	1.625485e+04	6.266631e+03	2.794823e+03	0	1.993457e-03
1.900000e+08	2.367466e+14	0.000000e+00	5.935486e-01	2.671722e+15	3.352265e+15	3.102032e+14	1.615181e+04	6.255547e+03	2.789880e+03	0	1.972192e-03
2.000000e+08	2.293576e+14	0.000000e+00	5.935486e-01	2.596370e+15	3.287190e+15	3.085482e+14	1.605170e+04	6.243977e+03	2.784720e+03	0	1.951457e-03
2.100000e+08	2.223004e+14	0.000000e+00	5.935486e-01	2.524369e+15	3.222614e+15	3.069054e+14	1.595439e+04	6.232024e+03	2.779389e+03	0	1.931233e-03
2.200000e+08	2.155562e+14	0.000000e+00	5.935486e-01	2.455528e+15	3.158798e+15	3.052746e+14	1.585975e+04	6.219779e+03	2.773928e+03	0	1.911502e-03
2.300000e+08	2.091072e+14	0.000000e+00	5.935486e-01	2.389669e+15	3.095945e+15	3.036558e+14	1.576767e+04	6.207315e+03	2.768370e+03	0	1.892246e-03
2.400000e+08	2.029370e+14	0.000000e+00	5.935486e-01	2.326626e+15	3.034212e+15	3.020488e+14	1.567804e+04	6.194698e+03	2.762742e+03	0	1.873448e-03
2.500000e+08	1.970299e+14	0.000000e+00	5.935486e-01	2.266243e+15	2.973717e+15	3.004536e+14	1.559076e+04	6.181979e+03	2.757070e+03	0	1.855092e-03
2.600000e+08	1.913715e+14	0.000000e+00	5.935486e-01	2.208372e+15	2.914546e+15	2.988701e+14	1.550572e+04	6.169205e+03	2.751373e+03	0	1.837160e-03
2.700000e+08	1.859480e+14	0.000000e+00	5.935486e-01	2.152878e+15	2.856757e+15	2.972982e+14	1.542283e+04	6.156412e+03	2.745668e+03	0	1.819639e-03
2.800000e+08	1.807468e+14	0.000000e+00	5.935486e-01	2.099631e+15	2.800389e+15	2.957377e+14	1.534201e+04	6.143633e+03	2.739968e+03	0	1.802512e-03
2.900000e+08	1.757559e+14	0.000000e+00	5.935486e-01	2.048511e+15	2.745463e+15	2.941887e+14	1.526317e+04	6.130895e+03	2.734287e+03	0	1.785766e-03
3.000000e+08	1.709641e+14	0.000000e+00	5.935486e-01	1.999406e+15	2.691988e+15	2.926509e+14	1.518624e+04	6.118218e+03	2.728633e+03	0	1.769387e-03
3.100000e+08	1.663609e+14	0.000000e+00	5.935486e-01	1.952211e+15	2.639960e+15	2.911244e+14	1.511114e+04	6.105622e+03	2.723016e+03	0	1.753363e-03
3.200000e+08	1.619365e+14	0.000000e+00	5.935486e-01	1.906825e+15	2.589366e+15	2.896089e+14	1.503779e+04	6.093122e+03	2.717441e+03	0	1.737679e-03
3.300000e+08	1.576817e+14	0.000000e+00	5.935486e-01	1.863158e+15	2.540188e+15	2.881045e+14	1.496614e+04	6.080730e+03	2.711914e+03	0	1.722325e-03
3.400000e+08	1.535879e+14	0.000000e+00	5.935486e-01	1.821120e+15	2.492400e+15	2.866109e+14	1.489612e+04	6.068457e+03	2.706441e+03	0	1.707289e-03
3.500000e+08	1.496470e+14	0.000000e+00	5.935486e-01	1.780632e+15	2.445976e+15	2.851283e+14	1.482766e+04	6.056311e+03	2.701024e+03	0	1.692560e-03
3.600000e+08	1.458513e+14	0.000000e+00	5.935486e-01	1.741616e+15	2.400882e+15	2.836563e+14	1.476072e+04	6.044298e+03	2.695666e+03	0	1.678127e-03
3.700000e+08	1.421937e+14	0.000000e+00	5.935486e-01	1.703999e+15	2.357086e+15	2.821951e+14	1.469523e+04	6.032424e+03	2.690371e+03	0	1.663980e-03
3.800000e+08	1.386675e+14	0.000000e+00	5.935486e-01	1.667715e+15	2.314551e+15	2.807444e+14	1.463115e+04	6.020692e+03	2.685138e+03	0	1.650110e-03
3.900000e+08	1.352663e+14	0.000000e+00	5.935486e-01	1.632699e+15	2.273243e+15	2.793042e+14	1.456842e+04	6.009106e+03	2.679971e+03	0	1.636507e-03
4.000000e+08	1.319842e+14	0.000000e+00	5.935486e-01	1.598892e+15	2.233123e+15	2.778744e+14	1.450700e+04	5.997667e+03	2.674870e+03	0	1.623162e-03
4.100000e+08	1.288156e+14	0.000000e+00	5.935486e-01	1.566237e+15	2.194156e+15	2.764549e+14	1.444685e+04	5.986377e+03	2.669834e+03	0	1.610068e-03
4.200000e+08	1.257552e+14	0.000000e+00	5.935486e-01	1.534680e+15	2.156304e+15	2.750456e+14	1.438791e+04	5.975235e+03	2.664865e+03	0	1.597215e-03
4.300000e+08	1.227981e+14	0.000000e+00	5.935486e-01	1.504172e+15	2.119531e+15	2.736465e+14	1.433016e+04	5.964244e+03	2.659963e+03	0	1.584596e-03
4.400000e+08	1.199395e+14	0.000000e+00	5.935486e-01	1.474665e+15	2.083802e+15	2.722574e+14	1.427354e+04	5.953401e+03	2.655127e+03	0	1.572204e-03
4.500000e+08	1.171751e+14	0.000000e+00	5.935486e-01	1.446115e+15	2.049081e+15	2.708784e+14	1.421803e+04	5.942706e+03	2.650358e+03	0	1.560030e-03
4.600000e+08	1.145005e+14	0.000000e+00	5.935486e-01	1.418478e+15	2.015333e+15	2.695092e+14	1.416359e+04	5.932159e+03	2.645654e+03	0	1.548070e-03
4.700000e+08	1.119120e+14	0.000000e+00	5.935486e-01	1.391716e+15	1.982527e+15	2.681499e+14	1.411018e+04	5.921757e+03	2.641015e+03	0	1.536315e-03
4.800000e+08	1.094056e+14	0.000000e+00	5.935486e-01	1.365790e+15	1.950628e+15	2.668003e+14	1.405777e+04	5.911500e+03	2.636440e+03	0	1.524759e-03
4.900000e+08	1.069780e+14	0.000000e+00	5.935486e-01	1.340665e+15	1.919606e+15	2.654603e+14	1.400633e+04	5.901385e+03	2.631929e+03	0	1.513397e-03
5.000000e+08	1.046258e+14	0.000000e+00	5.935486e-01	1.316306e+15	1.889430e+15	2.641299e+14	1.395583e+04	5.891411e+03	2.627481e+03	0	1.502222e-03
5.100000e+08	1.023457e+14	0.000000e+00	5.935486e-01	1.292683e+15	1.860071e+15	2.628091e+14	1.390625e+04	5.881575e+03	2.623094e+03	0	1.491230e-03
5.200000e+08	1.001348e+14	0.000000e+00	5.935486e-01	1.269764e+15	1.831500e+15	2.614977e+14	1.385755e+04	5.871876e+03	2.618769e+03	0	1.480413e-03
5.300000e+08	9.799027e+13	0.000000e+00	5.935486e-01	1.247520e+15	1.803690e+15	2.601956e+14	1.380970e+04	5.862312e+03	2.614503e+03	0	1.469769e-03
5.400000e+08	9.590935e+13	0.000000e+00	5.935486e-01	1.225925e+15	1.776615e+15	2.589028e+14	1.376270e+04	5.852879e+03	2.610296e+03	0	1.459290e-03
5.500000e+08	9.388950e+13	0.000000e+00	5.935486e-01	1.204953e+15	1.750248e+15	2.576192e+14	1.371650e+04	5.843577e+03	2.606148e+03	0	1.448973e-03
5.600000e+08	9.192829e+13	0.000000e+00	5.935486e-01	1.184578e+15	1.724565e+15	2.563447e+14	1.367108e+04	5.834402e+03	2.602056e+03	0	1.438813e-03
5.700000e+08	9.002340e+13	0.000000e+00	5.935486e-01	1.164778e+15	1.699543e+15	2.550793e+14	1.362643e+04	5.825353e+03	2.598020e+03	0	1.428806e-03
5.800000e+08	8.817263e+13	0.000000e+00	5.935486e-01	1.145529e+15	1.675159e+15	2.538228e+14	1.358252e+04	5.816426e+03	2.594039e+03	0	1.418946e-03
5.900000e+08	8.637388e+13	0.000000e+00	5.935486e-01	1.126812e+15	1.651391e+15	2.525753e+14	1.353934e+04	5.807621e+03	2.590112e+03	0	1.409231e-03
6.000000e+08	8.462518e+13	0.000000e+00	5.935486e-01	1.108605e+15	1.628219e+15	2.513365e+14	1.349685e+04	5.798933e+03	2.586237e+03	0	1.399656e-03
6.100000e+08	8.292461e+13	0.000000e+00	5.935486e-01	1.090890e+15	1.605621e+15	2.501066e+14	1.345505e+04	5.790362e+03	2.582415e+03	0	1.390217e-03
6.200000e+08	8.127039e+13	0.000000e+00	5.935486e-01	1.073648e+15	1.583580e+15	2.488853e+14	1.341391e+04	5.781905e+03	2.578643e+03	0	1.380910e-03
6.300000e+08	7.966078e+13	0.000000e+00	5.935486e-01	1.056862e+15	1.562075e+15	2.476727e+14	1.337342e+04	5.773560e+03	2.574921e+03	0	1.371733e-03
6.400000e+08	7.809415e+13	0.000000e+00	5.935486e-01	1.040515e+15	1.541090e+15	2.464686e+14	1.333356e+04	5.765324e+03	2.571248e+03	0	1.362681e-03
6.500000e+08	7.656893e+13	0.000000e+00	5.935486e-01	1.024592e+15	1.520606e+15	2.452730e+14	1.329432e+04	5.757195e+03	2.567623e+03	0	1.353751e-03
6.600000e+08	7.508363e+13	0.000000e+00	5.935486e-01	1.009077e+15	1.500608e+15	2.440858e+14	1.325567e+04	5.749172e+03	2.564045e+03	0	1.344941e-03
6.700000e+08	7.363682e+13	0.000000e+00	5.935486e-01	9.939551e+14	1.481080e+15	2.429069e+14	1.321760e+04	5.741252e+03	2.560512e+03	0	1.336246e-03
6.800000e+08	7.222715e+13	0.000000e+00	5.935486e-01	9.792136e+14	1.462007e+15	2.417364e+14	1.318010e+04	5.733433e+03	2.557025e+03	0	1.327664e-03
6.900000e+08	7.085331e+13	0.000000e+00	5.935486e-01	9.648389e+14	1.443373e+15	2.405740e+14	1.314315e+04	5.725713e+03	2.553582e+03	0	1.319192e-03
7.000000e+08	6.951406e+13	0.000000e+00	5.935486e-01	9.508183e+14	1.425165e+15	2.394198e+14	1.310675e+04	5.718090e+03	2.550182e+03	0	1.310828e-03
7.100000e+08	6.820821e+13	0.000000e+00	5.935486e-01	9.371398e+14	1.407369e+15	2.382737e+14	1.307087e+04	5.710562e+03	2.546825e+03	0	1.302567e-03
7.200000e+08	6.693462e+13	0.000000e+00	5.935486e-01	9.237918e+14	1.389972e+15	2.371356e+14	1.303550e+04	5.703127e+03	2.543509e+03	0	1.294409e-03
7.300000e+08	6.569221e+13	0.000000e+00	5.935486e-01	9.107633e+14	1.372962e+15	2.360054e+14	1.300064e+04	5.695784e+03	2.540234e+03	0	1.286350e-03
7.400000e+08	6.447992e+13	0.000000e+00	5.935486e-01	8.980437e+14	1.356327e+15	2.348832e+14	1.296626e+04	5.688530e+03	2.536999e+03	0	1.278388e-03
7.500000e+08	6.329677e+13	0.000000e+00	5.935486e-01	8.856228e+14	1.340055e+15	2.337687e+14	1.293236e+04	5.681364e+03	2.533803e+03	0	1.270521e-03
7.600000e+08	6.214180e+13	0.000000e+00	5.935486e-01	8.734909e+14	1.324135e+15	2.326620e+14	1.289893e+04	5.674284e+03	2.530646e+03	0	1.262746e-03
7.700000e+08	6.101408e+13	0.000000e+00	5.935486e-01	8.616388e+14	1.308557e+15	2.315630e+14	1.286596e+04	5.667289e+03	2.527526e+03	0	1.255061e-03
7.800000e+08	5.991275e+13	0.000000e+00	5.935486e-01	8.500574e+14	1.293309e+15	2.304717e+14	1.283343e+04	5.660376e+03	2.524443e+03	0	1.247463e-03
7.900000e+08	5.883694e+13	0.000000e+00	5.935486e-01	8.387381e+14	1.278383e+15	2.293879e+14	1.280133e+04	5.653544e+03	2.521396e+03	0	1.239952e-03
8.000000e+08	5.778587e+13	0.000000e+00	5.935486e-01	8.276729e+14	1.263768e+15	2.283117e+14	1.276966e+04	5.646792e+03	2.518384e+03	0	1.232524e-03
8.100000e+08	5.675874e+13	0.000000e+00	5.935486e-01	8.168536e+14	1.249456e+15	2.272429e+14	1.273841e+04	5.640117e+03	2.515408e+03	0	1.225177e-03
8.200000e+08	5.575482e+13	0.000000e+00	5.935486e-01	8.062729e+14	1.235437e+15	2.261815e+14	1.270757e+04	5.633519e+03	2.512465e+03	0	1.217911e-03
8.300000e+08	5.477338e+13	0.000000e+00	5.935486e-01	7.959233e+14	1.221704e+15	2.251274e+14	1.267712e+04	5.626996e+03	2.509556e+03	0	1.210722e-03
8.400000e+08	5.381374e+13	0.000000e+00	5.935486e-01	7.857978e+14	1.208247e+15	2.240807e+14	1.264706e+04	5.620547e+03	2.506680e+03	0	1.203610e-03
8.500000e+08	5.287523e+13	0.000000e+00	5.935486e-01	7.758897e+14	1.195059e+15	2.230411e+14	1.261738e+04	5.614169e+03	2.503835e+03	0	1.196572e-03
8.600000e+08	5.195721e+13	0.000000e+00	5.935486e-01	7.661925e+14	1.182132e+15	2.220087e+14	1.258807e+04	5.607863e+03	2.501023e+03	0	1.189606e-03
8.700000e+08	5.105909e+13	0.000000e+00	5.935486e-01	7.567000e+14	1.169460e+15	2.209835e+14	1.255913e+04	5.601625e+03	2.498241e+03	0	1.182712e-03
8.800000e+08	5.018025e+13	0.000000e+00	5.935486e-01	7.474062e+14	1.157034e+15	2.199652e+14	1.253055e+04	5.595456e+03	2.495490e+03	0	1.175887e-03
8.900000e+08	4.932015e+13	0.000000e+00	5.935486e-01	7.383052e+14	1.144848e+15	2.189540e+14	1.250232e+04	5.589354e+03	2.492768e+03	0	1.169130e-03
9.000000e+08	4.847822e+13	0.000000e+00	5.935486e-01	7.293916e+14	1.132896e+15	2.179497e+14	1.247442e+04	5.583317e+03	2.490076e+03	0	1.162439e-03
9.100000e+08	4.765395e+13	0.000000e+00	5.935486e-01	7.206599e+14	1.121170e+15	2.169523e+14	1.244687e+04	5.577344e+03	2.487412e+03	0	1.155813e-03
9.200000e+08	4.684683e+13	0.000000e+00	5.935486e-01	7.121051e+14	1.109665e+15	2.159617e+14	1.241964e+04	5.571435e+03	2.484776e+03	0	1.149251e-03
9.300000e+08	4.605637e+13	0.000000e+00	5.935486e-01	7.037220e+14	1.098376e+15	2.149779e+14	1.239273e+04	5.565588e+03	2.482169e+03	0	1.142750e-03
9.400000e+08	4.528210e+13	0.000000e+00	5.935486e-01	6.955059e+14	1.087295e+15	2.140008e+14	1.236614e+04	5.559801e+03	2.479588e+03	0	1.136310e-03
9.500000e+08	4.452356e+13	0.000000e+00	5.935486e-01	6.874522e+14	1.076418e+15	2.130304e+14	1.233986e+04	5.554075e+03	2.477034e+03	0	1.129929e-03
9.600000e+08	4.378032e+13	0.000000e+00	5.935486e-01	6.795564e+14	1.065739e+15	2.120666e+14	1.231388e+04	5.548407e+03	2.474506e+03	0	1.123607e-03
9.700000e+08	4.305195e+13	0.000000e+00	5.935486e-01	6.718142e+14	1.055254e+15	2.111094e+14	1.228820e+04	5.542797e+03	2.472004e+03	0	1.117341e-03
9.800000e+08	4.233805e+13	0.000000e+00	5.935486e-01	6.642214e+14	1.044956e+15	2.101587e+14	1.226281e+04	5.537243e+03	2.469527e+03	0	1.111130e-03
9.900000e+08	4.163822e+13	0.000000e+00	5.935486e-01	6.567740e+14	1.034842e+15	2.092145e+14	1.223771e+04	5.531745e+03	2.467075e+03	0	1.104974e-03
1.000000e+09	4.095209e+13	0.000000e+00	5.935486e-01	6.494682e+14	1.024906e+15	2.082766e+14	1.221289e+04	5.526301e+03	2.464648e+03	0	1.098871e-03
1.010000e+09	4.027928e+13	0.000000e+00	5.935486e-01	6.423001e+14	1.015144e+15	2.073451e+14	1.218834e+04	5.520912e+03	2.462244e+03	0	1.092820e-03
1.020000e+09	3.961945e+13	0.000000e+00	5.935486e-01	6.352662e+14	1.005552e+15	2.064200e+14	1.216406e+04	5.515575e+03	2.459864e+03	0	1.086820e-03
1.030000e+09	3.897224e+13	0.000000e+00	5.935486e-01	6.283629e+14	9.961255e+14	2.055011e+14	1.214005e+04	5.510290e+03	2.457506e+03	0	1.080869e-03
1.040000e+09	3.833733e+13	0.000000e+00	5.935486e-01	6.215870e+14	9.868600e+14	2.045884e+14	1.211630e+04	5.505055e+03	2.455172e+03	0	1.074967e-03
1.050000e+09	3.771440e+13	0.000000e+00	5.935486e-01	6.149350e+14	9.777519e+14	2.036818e+14	1.209280e+04	5.499871e+03	2.452860e+03	0	1.069113e-03
1.060000e+09	3.710314e+13	0.000000e+00	5.935486e-01	6.084038e+14	9.687973e+14	2.027814e+14	1.206955e+04	5.494736e+03	2.450570e+03	0	1.063306e-03
1.070000e+09	3.650325e+13	0.000000e+00	5.935486e-01	6.019904e+14	9.599924e+14	2.018870e+14	1.204655e+04	5.489650e+03	2.448302e+03	0	1.057544e-03
1.080000e+09	3.591444e+13	0.000000e+00	5.935486e-01	5.956918e+14	9.513336e+14	2.009987e+14	1.202379e+04	5.484611e+03	2.446054e+03	0	1.051827e-03
1.090000e+09	3.533642e+13	0.000000e+00	5.935486e-01	5.895052e+14	9.428175e+14	2.001163e+14	1.200127e+04	5.479619e+03	2.443828e+03	0	1.046154e-03
1.100000e+09	3.476893e+13	0.000000e+00	5.935486e-01	5.834277e+14	9.344406e+14	1.992399e+14	1.197898e+04	5.474673e+03	2.441622e+03	0	1.040523e-03
1.110000e+09	3.421171e+13	0.000000e+00	5.935486e-01	5.774567e+14	9.261997e+14	1.983693e+14	1.195692e+04	5.469772e+03	2.439436e+03	0	1.034935e-03
1.120000e+09	3.366450e+13	0.000000e+00	5.935486e-01	5.715895e+14	9.180915e+14	1.975046e+14	1.193508e+04	5.464916e+03	2.437271e+03	0	1.029387e-03
1.130000e+09	3.312706e+13	0.000000e+00	5.935486e-01	5.658237e+14	9.101130e+14	1.966457e+14	1.191347e+04	5.460104e+03	2.435124e+03	0	1.023880e-03
1.140000e+09	3.259914e+13	0.000000e+00	5.935486e-01	5.601568e+14	9.022612e+14	1.957925e+14	1.189207e+04	5.455334e+03	2.432997e+03	0	1.018412e-03
1.150000e+09	3.208051e+13	0.000000e+00	5.935486e-01	5.545864e+14	8.945332e+14	1.949449e+14	1.187089e+04	5.450607e+03	2.430889e+03	0	1.012982e-03
1.160000e+09	3.157095e+13	0.000000e+00	5.935486e-01	5.491102e+14	8.869261e+14	1.941031e+14	1.184991e+04	5.445922e+03	2.428800e+03	0	1.007590e-03
1.170000e+09	3.107025e+13	0.000000e+00	5.935486e-01	5.437261e+14	8.794372e+14	1.932669e+14	1.182915e+04	5.441278e+03	2.426728e+03	0	1.002235e-03
1.180000e+09	3.057819e+13	0.000000e+00	5.935486e-01	5.384318e+14	8.720639e+14	1.924362e+14	1.180858e+04	5.436674e+03	2.424675e+03	0	9.969161e-04
1.190000e+09	3.009457e+13	0.000000e+00	5.935486e-01	5.332252e+14	8.648035e+14	1.916110e+14	1.178822e+04	5.432111e+03	2.422640e+03	0	9.916324e-04
1.200000e+09	2.961919e+13	0.000000e+00	5.935486e-01	5.281043e+14	8.576536e+14	1.907913e+14	1.176805e+04	5.427586e+03	2.420622e+03	0	9.863833e-04
1.210000e+09	2.915185e+13	0.000000e+00	5.935486e-01	5.230672e+14	8.506118e+14	1.899771e+14	1.174807e+04	5.423100e+03	2.418621e+03	0	9.811680e-04
1.220000e+09	2.869238e+13	0.000000e+00	5.935486e-01	5.181119e+14	8.436756e+14	1.891682e+14	1.172829e+04	5.418651e+03	2.416637e+03	0	9.759858e-04
1.230000e+09	2.824058e+13	0.000000e+00	5.935486e-01	5.132366e+14	8.368427e+14	1.883647e+14	1.170869e+04	5.414241e+03	2.414670e+03	0	9.708360e-04
1.240000e+09	2.779629e+13	0.000000e+00	5.935486e-01	5.084394e+14	8.301110e+14	1.875666e+14	1.168928e+04	5.409867e+03	2.412719e+03	0	9.657179e-04
1.250000e+09	2.735933e+13	0.000000e+00	5.935486e-01	5.037186e+14	8.234783e+14	1.867736e+14	1.167004e+04	5.405529e+03	2.410785e+03	0	9.606308e-04
1.260000e+09	2.692954e+13	0.000000e+00	5.935486e-01	4.990725e+14	8.169424e+14	1.859859e+14	1.165099e+04	5.401227e+03	2.408866e+03	0	9.555740e-04
1.270000e+09	2.650676e+13	0.000000e+00	5.935486e-01	4.944995e+14	8.105012e+14	1.852034e+14	1.163211e+04	5.396960e+03	2.406963e+03	0	9.505469e-04
1.280000e+09	2.609083e+13	0.000000e+00	5.935486e-01	4.899979e+14	8.041529e+14	1.844261e+14	1.161340e+04	5.392728e+03	2.405076e+03	0	9.455488e-04
1.290000e+09	2.568160e+13	0.000000e+00	5.935486e-01	4.855662e+14	7.978955e+14	1.836538e+14	1.159486e+04	5.388530e+03	2.403203e+03	0	9.405791e-04
1.300000e+09	2.527891e+13	0.000000e+00	5.935486e-01	4.812029e+14	7.917270e+14	1.828867e+14	1.157649e+04	5.384365e+03	2.401346e+03	0	9.356371e-04
1.310000e+09	2.488264e+13	0.000000e+00	5.935486e-01	4.769064e+14	7.856457e+14	1.821245e+14	1.155828e+04	5.380234e+03	2.399504e+03	0	9.307223e-04
1.320000e+09	2.449263e+13	0.000000e+00	5.935486e-01	4.726754e+14	7.796497e+14	1.813674e+14	1.154024e+04	5.376136e+03	2.397676e+03	0	9.258340e-04
1.330000e+09	2.410875e+13	0.000000e+00	5.935486e-01	4.685085e+14	7.737373e+14	1.806152e+14	1.152235e+04	5.372069e+03	2.395862e+03	0	9.209716e-04
1.340000e+09	2.373087e+13	0.000000e+00	5.935486e-01	4.644042e+14	7.679069e+14	1.798679e+14	1.150463e+04	5.368035e+03	2.394063e+03	0	9.161345e-04
1.350000e+09	2.335886e+13	0.000000e+00	5.935486e-01	4.603613e+14	7.621567e+14	1.791255e+14	1.148705e+04	5.364031e+03	2.392278e+03	0	9.113221e-04
1.360000e+09	2.299260e+13	0.000000e+00	5.935486e-01	4.563785e+14	7.564851e+14	1.783879e+14	1.146963e+04	5.360059e+03	2.390506e+03	0	9.065339e-04
