#t		Qconv[W]	Ri[Rp]		R*[Rp]		Qc[W]		Qm[W]		Qr[W]		Tcmb[K]		Tl[K]		Tup[K]		RiFlag		Bs[T]
0.000000e+00	1.321288e+14	0.000000e+00	6.000000e-01	1.598020e+15	2.446416e+15	3.672427e+14	1.500956e+04	5.407580e+03	2.722630e+03	0	1.605943e-03
1.000000e+07	1.291178e+14	0.000000e+00	6.000000e-01	1.568611e+15	2.396355e+15	3.652079e+14	1.495690e+04	5.394118e+03	2.715852e+03	0	1.593650e-03
2.000000e+07	1.262066e+14	0.000000e+00	6.000000e-01	1.540157e+15	2.348717e+15	3.631883e+14	1.490520e+04	5.381168e+03	2.709332e+03	0	1.581581e-03
3.000000e+07	1.233902e+14	0.000000e+00	6.000000e-01	1.512613e+15	2.303303e+15	3.611838e+14	1.485443e+04	5.368691e+03	2.703050e+03	0	1.569728e-03
4.000000e+07	1.206641e+14	0.000000e+00	6.000000e-01	1.485933e+15	2.259937e+15	3.591943e+14	1.480457e+04	5.356651e+03	2.696988e+03	0	1.558081e-03
5.000000e+07	1.180239e+14	0.000000e+00	6.000000e-01	1.460078e+15	2.218460e+15	3.572196e+14	1.475558e+04	5.345016e+03	2.691130e+03	0	1.546634e-03
6.000000e+07	1.154657e+14	0.000000e+00	6.000000e-01	1.435009e+15	2.178732e+15	3.552597e+14	1.470743e+04	5.333757e+03	2.685461e+03	0	1.535377e-03
7.000000e+07	1.129858e+14	0.000000e+00	6.000000e-01	1.410692e+15	2.140627e+15	3.533143e+14	1.466011e+04	5.322849e+03	2.679969e+03	0	1.524306e-03
8.000000e+07	1.105805e+14	0.000000e+00	6.000000e-01	1.387091e+15	2.104029e+15	3.513834e+14	1.461359e+04	5.312268e+03	2.674641e+03	0	1.513412e-03
9.000000e+07	1.082467e+14	0.000000e+00	6.000000e-01	1.364177e+15	2.068838e+15	3.494669e+14	1.456784e+04	5.301992e+03	2.669468e+03	0	1.502689e-03
1.000000e+08	1.059813e+14	0.000000e+00	6.000000e-01	1.341920e+15	2.034961e+15	3.475646e+14	1.452284e+04	5.292002e+03	2.664438e+03	0	1.492132e-03
1.100000e+08	1.037813e+14	0.000000e+00	6.000000e-01	1.320292e+15	2.002311e+15	3.456764e+14	1.447858e+04	5.282281e+03	2.659544e+03	0	1.481735e-03
1.200000e+08	1.016440e+14	0.000000e+00	6.000000e-01	1.299267e+15	1.970815e+15	3.438022e+14	1.443502e+04	5.272813e+03	2.654777e+03	0	1.471493e-03
1.300000e+08	9.956688e+13	0.000000e+00	6.000000e-01	1.278821e+15	1.940400e+15	3.419419e+14	1.439215e+04	5.263583e+03	2.650129e+03	0	1.461400e-03
1.400000e+08	9.754743e+13	0.000000e+00	6.000000e-01	1.258930e+15	1.911005e+15	3.400953e+14	1.434996e+04	5.254576e+03	2.645595e+03	0	1.451452e-03
1.500000e+08	9.558337e+13	0.000000e+00	6.000000e-01	1.239573e+15	1.882569e+15	3.382624e+14	1.430841e+04	5.245782e+03	2.641167e+03	0	1.441645e-03
1.600000e+08	9.367254e+13	0.000000e+00	6.000000e-01	1.220728e+15	1.855040e+15	3.364430e+14	1.426750e+04	5.237189e+03	2.636840e+03	0	1.431973e-03
1.700000e+08	9.181287e+13	0.000000e+00	6.000000e-01	1.202376e+15	1.828369e+15	3.346371e+14	1.422722e+04	5.228786e+03	2.632610e+03	0	1.422434e-03
1.800000e+08	9.000240e+13	0.000000e+00	6.000000e-01	1.184499e+15	1.802509e+15	3.328445e+14	1.418753e+04	5.220563e+03	2.628470e+03	0	1.413022e-03
1.900000e+08	8.823928e+13	0.000000e+00	6.000000e-01	1.167078e+15	1.777419e+15	3.310651e+14	1.414843e+04	5.212512e+03	2.624416e+03	0	1.403734e-03
2.000000e+08	8.652175e+13	0.000000e+00	6.000000e-01	1.150097e+15	1.753059e+15	3.292987e+14	1.410991e+04	5.204625e+03	2.620445e+03	0	1.394567e-03
2.100000e+08	8.484814e+13	0.000000e+00	6.000000e-01	1.133540e+15	1.729395e+15	3.275454e+14	1.407194e+04	5.196893e+03	2.616552e+03	0	1.385516e-03
2.200000e+08	8.321686e+13	0.000000e+00	6.000000e-01	1.117392e+15	1.706392e+15	3.258049e+14	1.403451e+04	5.189309e+03	2.612734e+03	0	1.376579e-03
2.300000e+08	8.162639e+13	0.000000e+00	6.000000e-01	1.101637e+15	1.684019e+15	3.240773e+14	1.399762e+04	5.181868e+03	2.608987e+03	0	1.367753e-03
2.400000e+08	8.007529e+13	0.000000e+00	6.000000e-01	1.086264e+15	1.662248e+15	3.223622e+14	1.396124e+04	5.174562e+03	2.605309e+03	0	1.359034e-03
2.500000e+08	7.856219e+13	0.000000e+00	6.000000e-01	1.071257e+15	1.641051e+15	3.206598e+14	1.392537e+04	5.167387e+03	2.601696e+03	0	1.350419e-03
2.600000e+08	7.708577e+13	0.000000e+00	6.000000e-01	1.056605e+15	1.620403e+15	3.189698e+14	1.389000e+04	5.160336e+03	2.598146e+03	0	1.341906e-03
2.700000e+08	7.564479e+13	0.000000e+00	6.000000e-01	1.042296e+15	1.600280e+15	3.172921e+14	1.385510e+04	5.153405e+03	2.594657e+03	0	1.333492e-03
2.800000e+08	7.423804e+13	0.000000e+00	6.000000e-01	1.028318e+15	1.580661e+15	3.156267e+14	1.382067e+04	5.146589e+03	2.591225e+03	0	1.325174e-03
2.900000e+08	7.286440e+13	0.000000e+00	6.000000e-01	1.014661e+15	1.561524e+15	3.139735e+14	1.378671e+04	5.139883e+03	2.587849e+03	0	1.316950e-03
3.000000e+08	7.152276e+13	0.000000e+00	6.000000e-01	1.001313e+15	1.542850e+15	3.123323e+14	1.375319e+04	5.133284e+03	2.584526e+03	0	1.308817e-03
3.100000e+08	7.021208e+13	0.000000e+00	6.000000e-01	9.882660e+14	1.524621e+15	3.107031e+14	1.372012e+04	5.126788e+03	2.581255e+03	0	1.300773e-03
3.200000e+08	6.893136e+13	0.000000e+00	6.000000e-01	9.755088e+14	1.506818e+15	3.090857e+14	1.368747e+04	5.120390e+03	2.578034e+03	0	1.292815e-03
3.300000e+08	6.767964e+13	0.000000e+00	6.000000e-01	9.630327e+14	1.489427e+15	3.074801e+14	1.365524e+04	5.114088e+03	2.574861e+03	0	1.284942e-03
3.400000e+08	6.645602e+13	0.000000e+00	6.000000e-01	9.508290e+14	1.472431e+15	3.058861e+14	1.362342e+04	5.107878e+03	2.571735e+03	0	1.277151e-03
3.500000e+08	6.525959e+13	0.000000e+00	6.000000e-01	9.388893e+14	1.455815e+15	3.043038e+14	1.359200e+04	5.101758e+03	2.568653e+03	0	1.269440e-03
3.600000e+08	6.408953e+13	0.000000e+00	6.000000e-01	9.272054e+14	1.439567e+15	3.027328e+14	1.356098e+04	5.095723e+03	2.565615e+03	0	1.261808e-03
3.700000e+08	6.294502e+13	0.000000e+00	6.000000e-01	9.157696e+14	1.423673e+15	3.011733e+14	1.353034e+04	5.089772e+03	2.562618e+03	0	1.254251e-03
3.800000e+08	6.182529e+13	0.000000e+00	6.000000e-01	9.045743e+14	1.408120e+15	2.996250e+14	1.350008e+04	5.083902e+03	2.559663e+03	0	1.246770e-03
3.900000e+08	6.072959e+13	0.000000e+00	6.000000e-01	8.936126e+14	1.392897e+15	2.980880e+14	1.347018e+04	5.078110e+03	2.556747e+03	0	1.239360e-03
4.000000e+08	5.965720e+13	0.000000e+00	6.000000e-01	8.828773e+14	1.377992e+15	2.965620e+14	1.344065e+04	5.072394e+03	2.553869e+03	0	1.232022e-03
4.100000e+08	5.860743e+13	0.000000e+00	6.000000e-01	8.723621e+14	1.363395e+15	2.950470e+14	1.341147e+04	5.066752e+03	2.551028e+03	0	1.224753e-03
4.200000e+08	5.757963e+13	0.000000e+00	6.000000e-01	8.620603e+14	1.349096e+15	2.935430e+14	1.338264e+04	5.061182e+03	2.548224e+03	0	1.217551e-03
4.300000e+08	5.657314e+13	0.000000e+00	6.000000e-01	8.519661e+14	1.335085e+15	2.920498e+14	1.335414e+04	5.055681e+03	2.545454e+03	0	1.210415e-03
4.400000e+08	5.558737e+13	0.000000e+00	6.000000e-01	8.420733e+14	1.321353e+15	2.905673e+14	1.332598e+04	5.050248e+03	2.542719e+03	0	1.203343e-03
4.500000e+08	5.462171e+13	0.000000e+00	6.000000e-01	8.323765e+14	1.307891e+15	2.890955e+14	1.329814e+04	5.044881e+03	2.540016e+03	0	1.196334e-03
4.600000e+08	5.367559e+13	0.000000e+00	6.000000e-01	8.228700e+14	1.294691e+15	2.876343e+14	1.327063e+04	5.039577e+03	2.537346e+03	0	1.189387e-03
4.700000e+08	5.274848e+13	0.000000e+00	6.000000e-01	8.135486e+14	1.281744e+15	2.861835e+14	1.324342e+04	5.034337e+03	2.534708e+03	0	1.182499e-03
4.800000e+08	5.183984e+13	0.000000e+00	6.000000e-01	8.044072e+14	1.269044e+15	2.847431e+14	1.321652e+04	5.029157e+03	2.532100e+03	0	1.175670e-03
4.900000e+08	5.094916e+13	0.000000e+00	6.000000e-01	7.954410e+14	1.256582e+15	2.833131e+14	1.318993e+04	5.024036e+03	2.529521e+03	0	1.168898e-03
5.000000e+08	5.007596e+13	0.000000e+00	6.000000e-01	7.866452e+14	1.244352e+15	2.818932e+14	1.316363e+04	5.018973e+03	2.526972e+03	0	1.162181e-03
5.100000e+08	4.921975e+13	0.000000e+00	6.000000e-01	7.780151e+14	1.232347e+15	2.804836e+14	1.313762e+04	5.013967e+03	2.524452e+03	0	1.155519e-03
5.200000e+08	4.838007e+13	0.000000e+00	6.000000e-01	7.695466e+14	1.220561e+15	2.790839e+14	1.311189e+04	5.009015e+03	2.521959e+03	0	1.148911e-03
5.300000e+08	4.755650e+13	0.000000e+00	6.000000e-01	7.612351e+14	1.208987e+15	2.776943e+14	1.308644e+04	5.004117e+03	2.519493e+03	0	1.142354e-03
5.400000e+08	4.674860e+13	0.000000e+00	6.000000e-01	7.530768e+14	1.197619e+15	2.763145e+14	1.306127e+04	4.999272e+03	2.517053e+03	0	1.135848e-03
5.500000e+08	4.595595e+13	0.000000e+00	6.000000e-01	7.450675e+14	1.186452e+15	2.749446e+14	1.303636e+04	4.994478e+03	2.514639e+03	0	1.129392e-03
5.600000e+08	4.517817e+13	0.000000e+00	6.000000e-01	7.372035e+14	1.175481e+15	2.735844e+14	1.301172e+04	4.989734e+03	2.512251e+03	0	1.122984e-03
5.700000e+08	4.441487e+13	0.000000e+00	6.000000e-01	7.294810e+14	1.164699e+15	2.722339e+14	1.298734e+04	4.985039e+03	2.509887e+03	0	1.116624e-03
5.800000e+08	4.366567e+13	0.000000e+00	6.000000e-01	7.218965e+14	1.154102e+15	2.708929e+14	1.296321e+04	4.980392e+03	2.507547e+03	0	1.110310e-03
5.900000e+08	4.293021e+13	0.000000e+00	6.000000e-01	7.144464e+14	1.143685e+15	2.695615e+14	1.293934e+04	4.975792e+03	2.505231e+03	0	1.104041e-03
6.000000e+08	4.220816e+13	0.000000e+00	6.000000e-01	7.071275e+14	1.133443e+15	2.682395e+14	1.291570e+04	4.971238e+03	2.502938e+03	0	1.097816e-03
6.100000e+08	4.149916e+13	0.000000e+00	6.000000e-01	6.999365e+14	1.123372e+15	2.669268e+14	1.289231e+04	4.966728e+03	2.500668e+03	0	1.091635e-03
6.200000e+08	4.080290e+13	0.000000e+00	6.000000e-01	6.928702e+14	1.113468e+15	2.656234e+14	1.286916e+04	4.962263e+03	2.498419e+03	0	1.085495e-03
6.300000e+08	4.011906e+13	0.000000e+00	6.000000e-01	6.859256e+14	1.103726e+15	2.643292e+14	1.284624e+04	4.957840e+03	2.496193e+03	0	1.079397e-03
6.400000e+08	3.944734e+13	0.000000e+00	6.000000e-01	6.790998e+14	1.094142e+15	2.630441e+14	1.282355e+04	4.953460e+03	2.493988e+03	0	1.073339e-03
6.500000e+08	3.878743e+13	0.000000e+00	6.000000e-01	6.723898e+14	1.084712e+15	2.617681e+14	1.280108e+04	4.949121e+03	2.491803e+03	0	1.067320e-03
6.600000e+08	3.813906e+13	0.000000e+00	6.000000e-01	6.657930e+14	1.075432e+15	2.605011e+14	1.277884e+04	4.944823e+03	2.489639e+03	0	1.061339e-03
6.700000e+08	3.750195e+13	0.000000e+00	6.000000e-01	6.593066e+14	1.066300e+15	2.592430e+14	1.275681e+04	4.940565e+03	2.487495e+03	0	1.055396e-03
6.800000e+08	3.687582e+13	0.000000e+00	6.000000e-01	6.529280e+14	1.057310e+15	2.579937e+14	1.273500e+04	4.936345e+03	2.485370e+03	0	1.049489e-03
6.900000e+08	3.626042e+13	0.000000e+00	6.000000e-01	6.466548e+14	1.048461e+15	2.567531e+14	1.271339e+04	4.932164e+03	2.483265e+03	0	1.043618e-03
7.000000e+08	3.565549e+13	0.000000e+00	6.000000e-01	6.404844e+14	1.039748e+15	2.555213e+14	1.269200e+04	4.928020e+03	2.481179e+03	0	1.037782e-03
7.100000e+08	3.506079e+13	0.000000e+00	6.000000e-01	6.344145e+14	1.031168e+15	2.542981e+14	1.267080e+04	4.923914e+03	2.479111e+03	0	1.031980e-03
7.200000e+08	3.447608e+13	0.000000e+00	6.000000e-01	6.284429e+14	1.022719e+15	2.530835e+14	1.264981e+04	4.919843e+03	2.477062e+03	0	1.026211e-03
7.300000e+08	3.390113e+13	0.000000e+00	6.000000e-01	6.225672e+14	1.014397e+15	2.518773e+14	1.262901e+04	4.915808e+03	2.475030e+03	0	1.020475e-03
7.400000e+08	3.333572e+13	0.000000e+00	6.000000e-01	6.167853e+14	1.006199e+15	2.506795e+14	1.260841e+04	4.911808e+03	2.473016e+03	0	1.014770e-03
7.500000e+08	3.277962e+13	0.000000e+00	6.000000e-01	6.110950e+14	9.981226e+14	2.494901e+14	1.258800e+04	4.907842e+03	2.471020e+03	0	1.009095e-03
7.600000e+08	3.223264e+13	0.000000e+00	6.000000e-01	6.054945e+14	9.901652e+14	2.483090e+14	1.256778e+04	4.903910e+03	2.469040e+03	0	1.003451e-03
7.700000e+08	3.169456e+13	0.000000e+00	6.000000e-01	5.999815e+14	9.823240e+14	2.471361e+14	1.254774e+04	4.900011e+03	2.467077e+03	0	9.978357e-04
7.800000e+08	3.116518e+13	0.000000e+00	6.000000e-01	5.945544e+14	9.745965e+14	2.459714e+14	1.252788e+04	4.896144e+03	2.465130e+03	0	9.922490e-04
7.900000e+08	3.064431e+13	0.000000e+00	6.000000e-01	5.892110e+14	9.669801e+14	2.448148e+14	1.250820e+04	4.892310e+03	2.463199e+03	0	9.866900e-04
8.000000e+08	3.013176e+13	0.000000e+00	6.000000e-01	5.839498e+14	9.594725e+14	2.436661e+14	1.248870e+04	4.888507e+03	2.461284e+03	0	9.811581e-04
8.100000e+08	2.962735e+13	0.000000e+00	6.000000e-01	5.787687e+14	9.520714e+14	2.425255e+14	1.246937e+04	4.884734e+03	2.459385e+03	0	9.756524e-04
8.200000e+08	2.913091e+13	0.000000e+00	6.000000e-01	5.736662e+14	9.447744e+14	2.413927e+14	1.245022e+04	4.880993e+03	2.457501e+03	0	9.701722e-04
8.300000e+08	2.864226e+13	0.000000e+00	6.000000e-01	5.686406e+14	9.375794e+14	2.402677e+14	1.243123e+04	4.877281e+03	2.455633e+03	0	9.647169e-04
8.400000e+08	2.816123e+13	0.000000e+00	6.000000e-01	5.636903e+14	9.304842e+14	2.391506e+14	1.241241e+04	4.873599e+03	2.453779e+03	0	9.592858e-04
8.500000e+08	2.768766e+13	0.000000e+00	6.000000e-01	5.588135e+14	9.234868e+14	2.380411e+14	1.239375e+04	4.869945e+03	2.451939e+03	0	9.538781e-04
8.600000e+08	2.722139e+13	0.000000e+00	6.000000e-01	5.540089e+14	9.165852e+14	2.369393e+14	1.237525e+04	4.866320e+03	2.450114e+03	0	9.484933e-04
8.700000e+08	2.676227e+13	0.000000e+00	6.000000e-01	5.492750e+14	9.097773e+14	2.358451e+14	1.235691e+04	4.862724e+03	2.448303e+03	0	9.431305e-04
8.800000e+08	2.631014e+13	0.000000e+00	6.000000e-01	5.446101e+14	9.030613e+14	2.347584e+14	1.233873e+04	4.859154e+03	2.446506e+03	0	9.377892e-04
8.900000e+08	2.586487e+13	0.000000e+00	6.000000e-01	5.400130e+14	8.964354e+14	2.336791e+14	1.232070e+04	4.855613e+03	2.444723e+03	0	9.324686e-04
9.000000e+08	2.542630e+13	0.000000e+00	6.000000e-01	5.354823e+14	8.898977e+14	2.326073e+14	1.230282e+04	4.852097e+03	2.442953e+03	0	9.271682e-04
9.100000e+08	2.499430e+13	0.000000e+00	6.000000e-01	5.310166e+14	8.834465e+14	2.315428e+14	1.228509e+04	4.848609e+03	2.441197e+03	0	9.218873e-04
9.200000e+08	2.456874e+13	0.000000e+00	6.000000e-01	5.266146e+14	8.770801e+14	2.304856e+14	1.226751e+04	4.845146e+03	2.439453e+03	0	9.166252e-04
9.300000e+08	2.414948e+13	0.000000e+00	6.000000e-01	5.222750e+14	8.707968e+14	2.294356e+14	1.225007e+04	4.841709e+03	2.437723e+03	0	9.113813e-04
9.400000e+08	2.373640e+13	0.000000e+00	6.000000e-01	5.179965e+14	8.645950e+14	2.283929e+14	1.223278e+04	4.838297e+03	2.436005e+03	0	9.061549e-04
9.500000e+08	2.332937e+13	0.000000e+00	6.000000e-01	5.137781e+14	8.584731e+14	2.273572e+14	1.221563e+04	4.834910e+03	2.434300e+03	0	9.009454e-04
9.600000e+08	2.292827e+13	0.000000e+00	6.000000e-01	5.096184e+14	8.524296e+14	2.263286e+14	1.219862e+04	4.831548e+03	2.432607e+03	0	8.957522e-04
9.700000e+08	2.253298e+13	0.000000e+00	6.000000e-01	5.055163e+14	8.464631e+14	2.253070e+14	1.218175e+04	4.828210e+03	2.430926e+03	0	8.905747e-04
9.800000e+08	2.214339e+13	0.000000e+00	6.000000e-01	5.014707e+14	8.405720e+14	2.242923e+14	1.216501e+04	4.824895e+03	2.429257e+03	0	8.854122e-04
9.900000e+08	2.175938e+13	0.000000e+00	6.000000e-01	4.974806e+14	8.347549e+14	2.232846e+14	1.214840e+04	4.821604e+03	2.427600e+03	0	8.802641e-04
1.000000e+09	2.138084e+13	0.000000e+00	6.000000e-01	4.935448e+14	8.290106e+14	2.222837e+14	1.213193e+04	4.818336e+03	2.425955e+03	0	8.751297e-04
1.010000e+09	2.100768e+13	0.000000e+00	6.000000e-01	4.896623e+14	8.233375e+14	2.212895e+14	1.211559e+04	4.815092e+03	2.424321e+03	0	8.700085e-04
1.020000e+09	2.063978e+13	0.000000e+00	6.000000e-01	4.858321e+14	8.177344e+14	2.203021e+14	1.209937e+04	4.811869e+03	2.422699e+03	0	8.648998e-04
1.030000e+09	2.027704e+13	0.000000e+00	6.000000e-01	4.820532e+14	8.122001e+14	2.193214e+14	1.208328e+04	4.808669e+03	2.421087e+03	0	8.598030e-04
1.040000e+09	1.991936e+13	0.000000e+00	6.000000e-01	4.783246e+14	8.067333e+14	2.183474e+14	1.206732e+04	4.805491e+03	2.419487e+03	0	8.547175e-04
1.050000e+09	1.956665e+13	0.000000e+00	6.000000e-01	4.746454e+14	8.013327e+14	2.173799e+14	1.205148e+04	4.802334e+03	2.417898e+03	0	8.496427e-04
1.060000e+09	1.921881e+13	0.000000e+00	6.000000e-01	4.710147e+14	7.959972e+14	2.164189e+14	1.203576e+04	4.799199e+03	2.416319e+03	0	8.445778e-04
1.070000e+09	1.887576e+13	0.000000e+00	6.000000e-01	4.674316e+14	7.907256e+14	2.154644e+14	1.202016e+04	4.796085e+03	2.414751e+03	0	8.395223e-04
1.080000e+09	1.853739e+13	0.000000e+00	6.000000e-01	4.638951e+14	7.855168e+14	2.145163e+14	1.200468e+04	4.792991e+03	2.413194e+03	0	8.344757e-04
1.090000e+09	1.820363e+13	0.000000e+00	6.000000e-01	4.604045e+14	7.803697e+14	2.135746e+14	1.198931e+04	4.789918e+03	2.411647e+03	0	8.294371e-04
1.100000e+09	1.787438e+13	0.000000e+00	6.000000e-01	4.569589e+14	7.752832e+14	2.126392e+14	1.197407e+04	4.786866e+03	2.410110e+03	0	8.244060e-04
1.110000e+09	1.754957e+13	0.000000e+00	6.000000e-01	4.535575e+14	7.702563e+14	2.117101e+14	1.195893e+04	4.783833e+03	2.408583e+03	0	8.193818e-04
1.120000e+09	1.722911e+13	0.000000e+00	6.000000e-01	4.501995e+14	7.652879e+14	2.107872e+14	1.194391e+04	4.780820e+03	2.407066e+03	0	8.143637e-04
1.130000e+09	1.691292e+13	0.000000e+00	6.000000e-01	4.468840e+14	7.603770e+14	2.098705e+14	1.192900e+04	4.777826e+03	2.405559e+03	0	8.093512e-04
1.140000e+09	1.660093e+13	0.000000e+00	6.000000e-01	4.436105e+14	7.555227e+14	2.089599e+14	1.191420e+04	4.774852e+03	2.404061e+03	0	8.043437e-04
1.150000e+09	1.629306e+13	0.000000e+00	6.000000e-01	4.403780e+14	7.507239e+14	2.080554e+14	1.189950e+04	4.771897e+03	2.402573e+03	0	7.993403e-04
1.160000e+09	1.598923e+13	0.000000e+00	6.000000e-01	4.371859e+14	7.459798e+14	2.071569e+14	1.188491e+04	4.768960e+03	2.401095e+03	0	7.943405e-04
1.170000e+09	1.568938e+13	0.000000e+00	6.000000e-01	4.340335e+14	7.412894e+14	2.062645e+14	1.187043e+04	4.766042e+03	2.399626e+03	0	7.893435e-04
1.180000e+09	1.539343e+13	0.000000e+00	6.000000e-01	4.309201e+14	7.366519e+14	2.053779e+14	1.185606e+04	4.763143e+03	2.398166e+03	0	7.843488e-04
1.190000e+09	1.510131e+13	0.000000e+00	6.000000e-01	4.278449e+14	7.320664e+14	2.044973e+14	1.184178e+04	4.760261e+03	2.396715e+03	0	7.793556e-04
1.200000e+09	1.481295e+13	0.000000e+00	6.000000e-01	4.248074e+14	7.275319e+14	2.036225e+14	1.182761e+04	4.757397e+03	2.395273e+03	0	7.743631e-04
1.210000e+09	1.452829e+13	0.000000e+00	6.000000e-01	4.218069e+14	7.230478e+14	2.027535e+14	1.181354e+04	4.754551e+03	2.393840e+03	0	7.693707e-04
1.220000e+09	1.424727e+13	0.000000e+00	6.000000e-01	4.188428e+14	7.186131e+14	2.018902e+14	1.179956e+04	4.751723e+03	2.392416e+03	0	7.643777e-04
1.230000e+09	1.396982e+13	0.000000e+00	6.000000e-01	4.159144e+14	7.142270e+14	2.010327e+14	1.178569e+04	4.748911e+03	2.391000e+03	0	7.593833e-04
1.240000e+09	1.369587e+13	0.000000e+00	6.000000e-01	4.130211e+14	7.098888e+14	2.001808e+14	1.177191e+04	4.746117e+03	2.389594e+03	0	7.543867e-04
1.250000e+09	1.342538e+13	0.000000e+00	6.000000e-01	4.101623e+14	7.055978e+14	1.993346e+14	1.175823e+04	4.743339e+03	2.388195e+03	0	7.493873e-04
1.260000e+09	1.315827e+13	0.000000e+00	6.000000e-01	4.073375e+14	7.013531e+14	1.984939e+14	1.174464e+04	4.740579e+03	2.386805e+03	0	7.443841e-04
1.270000e+09	1.289449e+13	0.000000e+00	6.000000e-01	4.045461e+14	6.971540e+14	1.976588e+14	1.173114e+04	4.737834e+03	2.385423e+03	0	7.393764e-04
1.280000e+09	1.263399e+13	0.000000e+00	6.000000e-01	4.017875e+14	6.929999e+14	1.968291e+14	1.171774e+04	4.735106e+03	2.384050e+03	0	7.343634e-04
1.290000e+09	1.237671e+13	0.000000e+00	6.000000e-01	3.990612e+14	6.888899e+14	1.960050e+14	1.170443e+04	4.732394e+03	2.382684e+03	0	7.293443e-04
1.300000e+09	1.212260e+13	0.000000e+00	6.000000e-01	3.963667e+14	6.848235e+14	1.951862e+14	1.169121e+04	4.729698e+03	2.381327e+03	0	7.243182e-04
1.310000e+09	1.187159e+13	0.000000e+00	6.000000e-01	3.937034e+14	6.807999e+14	1.943728e+14	1.167807e+04	4.727017e+03	2.379977e+03	0	7.192842e-04
1.320000e+09	1.162365e+13	0.000000e+00	6.000000e-01	3.910709e+14	6.768185e+14	1.935647e+14	1.166503e+04	4.724352e+03	2.378635e+03	0	7.142414e-04
1.330000e+09	1.137872e+13	0.000000e+00	6.000000e-01	3.884685e+14	6.728787e+14	1.927619e+14	1.165207e+04	4.721702e+03	2.377301e+03	0	7.091889e-04
1.340000e+09	1.113674e+13	0.000000e+00	6.000000e-01	3.858959e+14	6.689797e+14	1.919644e+14	1.163920e+04	4.719068e+03	2.375975e+03	0	7.041258e-04
1.350000e+09	1.089768e+13	0.000000e+00	6.000000e-01	3.833526e+14	6.651211e+14	1.911720e+14	1.162641e+04	4.716449e+03	2.374656e+03	0	6.990510e-04
1.360000e+09	1.066148e+13	0.000000e+00	6.000000e-01	3.808380e+14	6.613021e+14	1.903848e+14	1.161371e+04	4.713844e+03	2.373345e+03	0	6.939636e-04
