#t		Qconv[W]	Ri[Rp]		R*[Rp]		Qc[W]		Qm[W]		Qr[W]		Tcmb[K]		Tl[K]		Tup[K]		RiFlag		Bs[T]
0.000000e+00	6.003515e+14	0.000000e+00	5.935486e-01	6.099898e+15	3.378042e+15	3.894503e+14	2.048128e+04	6.378819e+03	2.752954e+03	0	2.678497e-03
1.000000e+07	5.793657e+14	0.000000e+00	5.935486e-01	5.900556e+15	3.633940e+15	3.872925e+14	2.028993e+04	6.465889e+03	2.790531e+03	0	2.646917e-03
2.000000e+07	5.589756e+14	0.000000e+00	5.935486e-01	5.706890e+15	3.854391e+15	3.851508e+14	2.010475e+04	6.539994e+03	2.822513e+03	0	2.615493e-03
3.000000e+07	5.392327e+14	0.000000e+00	5.935486e-01	5.519376e+15	4.038908e+15	3.830251e+14	1.992558e+04	6.602362e+03	2.849430e+03	0	2.584331e-03
4.000000e+07	5.201730e+14	0.000000e+00	5.935486e-01	5.338340e+15	4.188522e+15	3.809153e+14	1.975223e+04	6.654226e+03	2.871813e+03	0	2.553516e-03
5.000000e+07	5.018180e+14	0.000000e+00	5.935486e-01	5.163977e+15	4.305341e+15	3.788212e+14	1.958450e+04	6.696780e+03	2.890178e+03	0	2.523121e-03
6.000000e+07	4.841773e+14	0.000000e+00	5.935486e-01	4.996370e+15	4.392152e+15	3.767427e+14	1.942218e+04	6.731152e+03	2.905012e+03	0	2.493202e-03
7.000000e+07	4.672505e+14	0.000000e+00	5.935486e-01	4.835510e+15	4.452098e+15	3.746797e+14	1.926508e+04	6.758381e+03	2.916764e+03	0	2.463803e-03
8.000000e+07	4.510294e+14	0.000000e+00	5.935486e-01	4.681315e+15	4.488431e+15	3.726320e+14	1.911297e+04	6.779415e+03	2.925841e+03	0	2.434955e-03
9.000000e+07	4.354994e+14	0.000000e+00	5.935486e-01	4.533645e+15	4.504333e+15	3.705996e+14	1.896567e+04	6.795099e+03	2.932611e+03	0	2.406681e-03
1.000000e+08	4.206416e+14	0.000000e+00	5.935486e-01	4.392320e+15	4.502810e+15	3.685823e+14	1.882296e+04	6.806186e+03	2.937396e+03	0	2.378994e-03
1.100000e+08	4.064338e+14	0.000000e+00	5.935486e-01	4.257130e+15	4.486614e+15	3.665799e+14	1.868466e+04	6.813337e+03	2.940481e+03	0	2.351902e-03
1.200000e+08	3.928517e+14	0.000000e+00	5.935486e-01	4.127843e+15	4.458220e+15	3.645924e+14	1.855057e+04	6.817128e+03	2.942117e+03	0	2.325406e-03
1.300000e+08	3.798698e+14	0.000000e+00	5.935486e-01	4.004219e+15	4.419812e+15	3.626195e+14	1.842051e+04	6.818060e+03	2.942520e+03	0	2.299504e-03
1.400000e+08	3.674617e+14	0.000000e+00	5.935486e-01	3.886009e+15	4.373294e+15	3.606613e+14	1.829431e+04	6.816568e+03	2.941876e+03	0	2.274190e-03
1.500000e+08	3.556011e+14	0.000000e+00	5.935486e-01	3.772966e+15	4.320310e+15	3.587176e+14	1.817180e+04	6.813026e+03	2.940347e+03	0	2.249453e-03
1.600000e+08	3.442620e+14	0.000000e+00	5.935486e-01	3.664843e+15	4.262263e+15	3.567882e+14	1.805282e+04	6.807755e+03	2.938072e+03	0	2.225285e-03
1.700000e+08	3.334187e+14	0.000000e+00	5.935486e-01	3.561401e+15	4.200343e+15	3.548731e+14	1.793722e+04	6.801031e+03	2.935171e+03	0	2.201672e-03
1.800000e+08	3.230466e+14	0.000000e+00	5.935486e-01	3.462406e+15	4.135552e+15	3.529720e+14	1.782485e+04	6.793092e+03	2.931744e+03	0	2.178601e-03
1.900000e+08	3.131218e+14	0.000000e+00	5.935486e-01	3.367634e+15	4.068731e+15	3.510850e+14	1.771557e+04	6.784140e+03	2.927881e+03	0	2.156058e-03
2.000000e+08	3.036213e+14	0.000000e+00	5.935486e-01	3.276868e+15	4.000576e+15	3.492119e+14	1.760926e+04	6.774349e+03	2.923655e+03	0	2.134028e-03
2.100000e+08	2.945233e+14	0.000000e+00	5.935486e-01	3.189904e+15	3.931666e+15	3.473525e+14	1.750580e+04	6.763866e+03	2.919131e+03	0	2.112496e-03
2.200000e+08	2.858070e+14	0.000000e+00	5.935486e-01	3.106545e+15	3.862477e+15	3.455068e+14	1.740505e+04	6.752819e+03	2.914363e+03	0	2.091447e-03
2.300000e+08	2.774525e+14	0.000000e+00	5.935486e-01	3.026605e+15	3.793396e+15	3.436746e+14	1.730691e+04	6.741316e+03	2.909399e+03	0	2.070867e-03
2.400000e+08	2.694412e+14	0.000000e+00	5.935486e-01	2.949908e+15	3.724738e+15	3.418559e+14	1.721128e+04	6.729450e+03	2.904278e+03	0	2.050740e-03
2.500000e+08	2.617554e+14	0.000000e+00	5.935486e-01	2.876288e+15	3.656757e+15	3.400505e+14	1.711806e+04	6.717298e+03	2.899033e+03	0	2.031053e-03
2.600000e+08	2.543782e+14	0.000000e+00	5.935486e-01	2.805586e+15	3.589655e+15	3.382583e+14	1.702714e+04	6.704930e+03	2.893696e+03	0	2.011790e-03
2.700000e+08	2.472939e+14	0.000000e+00	5.935486e-01	2.737655e+15	3.523590e+15	3.364792e+14	1.693843e+04	6.692402e+03	2.888289e+03	0	1.992938e-03
2.800000e+08	2.404875e+14	0.000000e+00	5.935486e-01	2.672353e+15	3.458684e+15	3.347131e+14	1.685186e+04	6.679763e+03	2.882834e+03	0	1.974483e-03
2.900000e+08	2.339451e+14	0.000000e+00	5.935486e-01	2.609548e+15	3.395031e+15	3.329599e+14	1.676734e+04	6.667055e+03	2.877349e+03	0	1.956413e-03
3.000000e+08	2.276533e+14	0.000000e+00	5.935486e-01	2.549117e+15	3.332698e+15	3.312195e+14	1.668479e+04	6.654313e+03	2.871850e+03	0	1.938715e-03
3.100000e+08	2.215997e+14	0.000000e+00	5.935486e-01	2.490940e+15	3.271733e+15	3.294917e+14	1.660413e+04	6.641568e+03	2.866350e+03	0	1.921376e-03
3.200000e+08	2.157725e+14	0.000000e+00	5.935486e-01	2.434908e+15	3.212167e+15	3.277765e+14	1.652531e+04	6.628844e+03	2.860859e+03	0	1.904385e-03
3.300000e+08	2.101606e+14	0.000000e+00	5.935486e-01	2.380915e+15	3.154016e+15	3.260738e+14	1.644824e+04	6.616164e+03	2.855386e+03	0	1.887729e-03
3.400000e+08	2.047536e+14	0.000000e+00	5.935486e-01	2.328864e+15	3.097287e+15	3.243835e+14	1.637287e+04	6.603545e+03	2.849940e+03	0	1.871399e-03
3.500000e+08	1.995415e+14	0.000000e+00	5.935486e-01	2.278662e+15	3.041975e+15	3.227054e+14	1.629914e+04	6.591004e+03	2.844527e+03	0	1.855384e-03
3.600000e+08	1.945152e+14	0.000000e+00	5.935486e-01	2.230220e+15	2.988070e+15	3.210395e+14	1.622698e+04	6.578552e+03	2.839153e+03	0	1.839673e-03
3.700000e+08	1.896659e+14	0.000000e+00	5.935486e-01	2.183457e+15	2.935556e+15	3.193856e+14	1.615635e+04	6.566200e+03	2.833823e+03	0	1.824256e-03
3.800000e+08	1.849853e+14	0.000000e+00	5.935486e-01	2.138295e+15	2.884410e+15	3.177438e+14	1.608719e+04	6.553957e+03	2.828539e+03	0	1.809124e-03
3.900000e+08	1.804655e+14	0.000000e+00	5.935486e-01	2.094660e+15	2.834608e+15	3.161137e+14	1.601945e+04	6.541831e+03	2.823306e+03	0	1.794268e-03
4.000000e+08	1.760993e+14	0.000000e+00	5.935486e-01	2.052483e+15	2.786121e+15	3.144955e+14	1.595309e+04	6.529826e+03	2.818125e+03	0	1.779680e-03
4.100000e+08	1.718796e+14	0.000000e+00	5.935486e-01	2.011698e+15	2.738920e+15	3.128889e+14	1.588805e+04	6.517948e+03	2.812999e+03	0	1.765350e-03
4.200000e+08	1.678000e+14	0.000000e+00	5.935486e-01	1.972243e+15	2.692974e+15	3.112939e+14	1.582429e+04	6.506201e+03	2.807929e+03	0	1.751271e-03
4.300000e+08	1.638542e+14	0.000000e+00	5.935486e-01	1.934059e+15	2.648249e+15	3.097104e+14	1.576178e+04	6.494586e+03	2.802916e+03	0	1.737435e-03
4.400000e+08	1.600362e+14	0.000000e+00	5.935486e-01	1.897091e+15	2.604714e+15	3.081383e+14	1.570047e+04	6.483107e+03	2.797962e+03	0	1.723834e-03
4.500000e+08	1.563407e+14	0.000000e+00	5.935486e-01	1.861287e+15	2.562334e+15	3.065775e+14	1.564033e+04	6.471764e+03	2.793066e+03	0	1.710461e-03
4.600000e+08	1.527622e+14	0.000000e+00	5.935486e-01	1.826597e+15	2.521075e+15	3.050279e+14	1.558131e+04	6.460558e+03	2.788230e+03	0	1.697310e-03
4.700000e+08	1.492958e+14	0.000000e+00	5.935486e-01	1.792973e+15	2.480906e+15	3.034894e+14	1.552339e+04	6.449489e+03	2.783453e+03	0	1.684374e-03
4.800000e+08	1.459368e+14	0.000000e+00	5.935486e-01	1.760372e+15	2.441792e+15	3.019619e+14	1.546652e+04	6.438558e+03	2.778735e+03	0	1.671646e-03
4.900000e+08	1.426807e+14	0.000000e+00	5.935486e-01	1.728750e+15	2.403702e+15	3.004454e+14	1.541069e+04	6.427764e+03	2.774077e+03	0	1.659120e-03
5.000000e+08	1.395232e+14	0.000000e+00	5.935486e-01	1.698069e+15	2.366604e+15	2.989397e+14	1.535585e+04	6.417106e+03	2.769477e+03	0	1.646790e-03
5.100000e+08	1.364604e+14	0.000000e+00	5.935486e-01	1.668288e+15	2.330466e+15	2.974448e+14	1.530198e+04	6.406584e+03	2.764936e+03	0	1.634650e-03
5.200000e+08	1.334884e+14	0.000000e+00	5.935486e-01	1.639373e+15	2.295257e+15	2.959605e+14	1.524904e+04	6.396196e+03	2.760453e+03	0	1.622696e-03
5.300000e+08	1.306035e+14	0.000000e+00	5.935486e-01	1.611290e+15	2.260950e+15	2.944868e+14	1.519702e+04	6.385940e+03	2.756027e+03	0	1.610921e-03
5.400000e+08	1.278023e+14	0.000000e+00	5.935486e-01	1.584004e+15	2.227513e+15	2.930236e+14	1.514589e+04	6.375816e+03	2.751658e+03	0	1.599321e-03
5.500000e+08	1.250816e+14	0.000000e+00	5.935486e-01	1.557486e+15	2.194921e+15	2.915709e+14	1.509562e+04	6.365822e+03	2.747344e+03	0	1.587890e-03
5.600000e+08	1.224382e+14	0.000000e+00	5.935486e-01	1.531706e+15	2.163144e+15	2.901284e+14	1.504618e+04	6.355956e+03	2.743086e+03	0	1.576624e-03
5.700000e+08	1.198690e+14	0.000000e+00	5.935486e-01	1.506635e+15	2.132158e+15	2.886962e+14	1.499756e+04	6.346217e+03	2.738883e+03	0	1.565519e-03
5.800000e+08	1.173714e+14	0.000000e+00	5.935486e-01	1.482247e+15	2.101937e+15	2.872742e+14	1.494973e+04	6.336601e+03	2.734733e+03	0	1.554569e-03
5.900000e+08	1.149426e+14	0.000000e+00	5.935486e-01	1.458516e+15	2.072455e+15	2.858622e+14	1.490267e+04	6.327109e+03	2.730636e+03	0	1.543771e-03
6.000000e+08	1.125800e+14	0.000000e+00	5.935486e-01	1.435418e+15	2.043690e+15	2.844602e+14	1.485636e+04	6.317737e+03	2.726592e+03	0	1.533121e-03
6.100000e+08	1.102812e+14	0.000000e+00	5.935486e-01	1.412930e+15	2.015618e+15	2.830682e+14	1.481078e+04	6.308483e+03	2.722598e+03	0	1.522614e-03
6.200000e+08	1.080438e+14	0.000000e+00	5.935486e-01	1.391030e+15	1.988218e+15	2.816860e+14	1.476591e+04	6.299347e+03	2.718655e+03	0	1.512246e-03
6.300000e+08	1.058656e+14	0.000000e+00	5.935486e-01	1.369696e+15	1.961467e+15	2.803135e+14	1.472173e+04	6.290325e+03	2.714762e+03	0	1.502015e-03
6.400000e+08	1.037445e+14	0.000000e+00	5.935486e-01	1.348908e+15	1.935346e+15	2.789508e+14	1.467823e+04	6.281416e+03	2.710917e+03	0	1.491916e-03
6.500000e+08	1.016785e+14	0.000000e+00	5.935486e-01	1.328648e+15	1.909833e+15	2.775976e+14	1.463538e+04	6.272619e+03	2.707120e+03	0	1.481946e-03
6.600000e+08	9.966558e+13	0.000000e+00	5.935486e-01	1.308896e+15	1.884911e+15	2.762539e+14	1.459317e+04	6.263929e+03	2.703370e+03	0	1.472101e-03
6.700000e+08	9.770392e+13	0.000000e+00	5.935486e-01	1.289635e+15	1.860561e+15	2.749197e+14	1.455159e+04	6.255347e+03	2.699666e+03	0	1.462379e-03
6.800000e+08	9.579174e+13	0.000000e+00	5.935486e-01	1.270848e+15	1.836764e+15	2.735949e+14	1.451062e+04	6.246870e+03	2.696007e+03	0	1.452776e-03
6.900000e+08	9.392735e+13	0.000000e+00	5.935486e-01	1.252520e+15	1.813504e+15	2.722793e+14	1.447024e+04	6.238496e+03	2.692393e+03	0	1.443289e-03
7.000000e+08	9.210912e+13	0.000000e+00	5.935486e-01	1.234634e+15	1.790765e+15	2.709730e+14	1.443044e+04	6.230224e+03	2.688823e+03	0	1.433915e-03
7.100000e+08	9.033549e+13	0.000000e+00	5.935486e-01	1.217176e+15	1.768529e+15	2.696758e+14	1.439121e+04	6.222051e+03	2.685296e+03	0	1.424652e-03
7.200000e+08	8.860497e+13	0.000000e+00	5.935486e-01	1.200132e+15	1.746783e+15	2.683877e+14	1.435252e+04	6.213975e+03	2.681810e+03	0	1.415496e-03
7.300000e+08	8.691615e+13	0.000000e+00	5.935486e-01	1.183488e+15	1.725510e+15	2.671086e+14	1.431438e+04	6.205995e+03	2.678366e+03	0	1.406445e-03
7.400000e+08	8.526765e+13	0.000000e+00	5.935486e-01	1.167231e+15	1.704697e+15	2.658385e+14	1.427676e+04	6.198109e+03	2.674963e+03	0	1.397497e-03
7.500000e+08	8.365815e+13	0.000000e+00	5.935486e-01	1.151349e+15	1.684331e+15	2.645771e+14	1.423966e+04	6.190315e+03	2.671600e+03	0	1.388648e-03
7.600000e+08	8.208641e+13	0.000000e+00	5.935486e-01	1.135830e+15	1.664397e+15	2.633246e+14	1.420306e+04	6.182612e+03	2.668275e+03	0	1.379896e-03
7.700000e+08	8.055122e+13	0.000000e+00	5.935486e-01	1.120662e+15	1.644883e+15	2.620808e+14	1.416695e+04	6.174998e+03	2.664989e+03	0	1.371240e-03
7.800000e+08	7.905142e+13	0.000000e+00	5.935486e-01	1.105834e+15	1.625777e+15	2.608456e+14	1.413133e+04	6.167471e+03	2.661740e+03	0	1.362676e-03
7.900000e+08	7.758589e+13	0.000000e+00	5.935486e-01	1.091336e+15	1.607067e+15	2.596190e+14	1.409617e+04	6.160030e+03	2.658529e+03	0	1.354202e-03
8.000000e+08	7.615358e+13	0.000000e+00	5.935486e-01	1.077158e+15	1.588741e+15	2.584009e+14	1.406147e+04	6.152672e+03	2.655354e+03	0	1.345817e-03
8.100000e+08	7.475345e+13	0.000000e+00	5.935486e-01	1.063290e+15	1.570789e+15	2.571913e+14	1.402722e+04	6.145398e+03	2.652214e+03	0	1.337518e-03
8.200000e+08	7.338451e+13	0.000000e+00	5.935486e-01	1.049722e+15	1.553199e+15	2.559900e+14	1.399340e+04	6.138204e+03	2.649109e+03	0	1.329303e-03
8.300000e+08	7.204583e+13	0.000000e+00	5.935486e-01	1.036445e+15	1.535962e+15	2.547970e+14	1.396002e+04	6.131089e+03	2.646039e+03	0	1.321171e-03
8.400000e+08	7.073649e+13	0.000000e+00	5.935486e-01	1.023451e+15	1.519068e+15	2.536123e+14	1.392706e+04	6.124053e+03	2.643002e+03	0	1.313118e-03
8.500000e+08	6.945561e+13	0.000000e+00	5.935486e-01	1.010732e+15	1.502506e+15	2.524358e+14	1.389451e+04	6.117093e+03	2.639999e+03	0	1.305144e-03
8.600000e+08	6.820235e+13	0.000000e+00	5.935486e-01	9.982789e+14	1.486268e+15	2.512673e+14	1.386236e+04	6.110209e+03	2.637027e+03	0	1.297246e-03
8.700000e+08	6.697589e+13	0.000000e+00	5.935486e-01	9.860845e+14	1.470345e+15	2.501069e+14	1.383061e+04	6.103398e+03	2.634088e+03	0	1.289423e-03
8.800000e+08	6.577546e+13	0.000000e+00	5.935486e-01	9.741412e+14	1.454728e+15	2.489545e+14	1.379924e+04	6.096660e+03	2.631180e+03	0	1.281673e-03
8.900000e+08	6.460030e+13	0.000000e+00	5.935486e-01	9.624418e+14	1.439409e+15	2.478100e+14	1.376825e+04	6.089993e+03	2.628303e+03	0	1.273994e-03
9.000000e+08	6.344968e+13	0.000000e+00	5.935486e-01	9.509795e+14	1.424380e+15	2.466733e+14	1.373764e+04	6.083396e+03	2.625456e+03	0	1.266385e-03
9.100000e+08	6.232291e+13	0.000000e+00	5.935486e-01	9.397475e+14	1.409633e+15	2.455445e+14	1.370738e+04	6.076868e+03	2.622638e+03	0	1.258844e-03
9.200000e+08	6.121931e+13	0.000000e+00	5.935486e-01	9.287395e+14	1.395161e+15	2.444234e+14	1.367748e+04	6.070407e+03	2.619850e+03	0	1.251369e-03
9.300000e+08	6.013823e+13	0.000000e+00	5.935486e-01	9.179492e+14	1.380956e+15	2.433099e+14	1.364793e+04	6.064013e+03	2.617090e+03	0	1.243959e-03
9.400000e+08	5.907905e+13	0.000000e+00	5.935486e-01	9.073707e+14	1.367011e+15	2.422041e+14	1.361873e+04	6.057684e+03	2.614359e+03	0	1.236613e-03
9.500000e+08	5.804116e+13	0.000000e+00	5.935486e-01	8.969981e+14	1.353320e+15	2.411058e+14	1.358985e+04	6.051418e+03	2.611655e+03	0	1.229329e-03
9.600000e+08	5.702397e+13	0.000000e+00	5.935486e-01	8.868259e+14	1.339876e+15	2.400150e+14	1.356131e+04	6.045216e+03	2.608978e+03	0	1.222105e-03
9.700000e+08	5.602692e+13	0.000000e+00	5.935486e-01	8.768487e+14	1.326672e+15	2.389316e+14	1.353309e+04	6.039075e+03	2.606328e+03	0	1.214940e-03
9.800000e+08	5.504947e+13	0.000000e+00	5.935486e-01	8.670613e+14	1.313703e+15	2.378556e+14	1.350519e+04	6.032995e+03	2.603704e+03	0	1.207833e-03
9.900000e+08	5.409110e+13	0.000000e+00	5.935486e-01	8.574587e+14	1.300963e+15	2.367869e+14	1.347759e+04	6.026975e+03	2.601106e+03	0	1.200783e-03
1.000000e+09	5.315128e+13	0.000000e+00	5.935486e-01	8.480359e+14	1.288445e+15	2.357254e+14	1.345030e+04	6.021014e+03	2.598533e+03	0	1.193788e-03
1.010000e+09	5.222954e+13	0.000000e+00	5.935486e-01	8.387884e+14	1.276145e+15	2.346712e+14	1.342331e+04	6.015110e+03	2.595985e+03	0	1.186847e-03
1.020000e+09	5.132540e+13	0.000000e+00	5.935486e-01	8.297116e+14	1.264057e+15	2.336241e+14	1.339661e+04	6.009263e+03	2.593461e+03	0	1.179959e-03
1.030000e+09	5.043839e+13	0.000000e+00	5.935486e-01	8.208011e+14	1.252175e+15	2.325841e+14	1.337020e+04	6.003471e+03	2.590962e+03	0	1.173122e-03
1.040000e+09	4.956809e+13	0.000000e+00	5.935486e-01	8.120526e+14	1.240495e+15	2.315511e+14	1.334407e+04	5.997734e+03	2.588486e+03	0	1.166335e-03
1.050000e+09	4.871405e+13	0.000000e+00	5.935486e-01	8.034621e+14	1.229012e+15	2.305251e+14	1.331822e+04	5.992052e+03	2.586033e+03	0	1.159598e-03
1.060000e+09	4.787587e+13	0.000000e+00	5.935486e-01	7.950256e+14	1.217721e+15	2.295060e+14	1.329265e+04	5.986422e+03	2.583604e+03	0	1.152909e-03
1.070000e+09	4.705313e+13	0.000000e+00	5.935486e-01	7.867391e+14	1.206617e+15	2.284938e+14	1.326734e+04	5.980845e+03	2.581197e+03	0	1.146266e-03
1.080000e+09	4.624546e+13	0.000000e+00	5.935486e-01	7.785991e+14	1.195697e+15	2.274884e+14	1.324229e+04	5.975318e+03	2.578812e+03	0	1.139670e-03
1.090000e+09	4.545247e+13	0.000000e+00	5.935486e-01	7.706019e+14	1.184954e+15	2.264897e+14	1.321750e+04	5.969843e+03	2.576448e+03	0	1.133118e-03
1.100000e+09	4.467381e+13	0.000000e+00	5.935486e-01	7.627439e+14	1.174387e+15	2.254978e+14	1.319297e+04	5.964416e+03	2.574107e+03	0	1.126610e-03
1.110000e+09	4.390911e+13	0.000000e+00	5.935486e-01	7.550219e+14	1.163989e+15	2.245125e+14	1.316868e+04	5.959039e+03	2.571786e+03	0	1.120145e-03
1.120000e+09	4.315804e+13	0.000000e+00	5.935486e-01	7.474325e+14	1.153758e+15	2.235338e+14	1.314464e+04	5.953710e+03	2.569486e+03	0	1.113721e-03
1.130000e+09	4.242027e+13	0.000000e+00	5.935486e-01	7.399726e+14	1.143690e+15	2.225616e+14	1.312084e+04	5.948428e+03	2.567207e+03	0	1.107339e-03
1.140000e+09	4.169547e+13	0.000000e+00	5.935486e-01	7.326390e+14	1.133781e+15	2.215960e+14	1.309728e+04	5.943193e+03	2.564947e+03	0	1.100996e-03
1.150000e+09	4.098333e+13	0.000000e+00	5.935486e-01	7.254288e+14	1.124027e+15	2.206368e+14	1.307395e+04	5.938004e+03	2.562707e+03	0	1.094691e-03
1.160000e+09	4.028356e+13	0.000000e+00	5.935486e-01	7.183392e+14	1.114424e+15	2.196840e+14	1.305085e+04	5.932859e+03	2.560487e+03	0	1.088425e-03
1.170000e+09	3.959585e+13	0.000000e+00	5.935486e-01	7.113671e+14	1.104971e+15	2.187375e+14	1.302797e+04	5.927759e+03	2.558286e+03	0	1.082196e-03
1.180000e+09	3.891992e+13	0.000000e+00	5.935486e-01	7.045101e+14	1.095662e+15	2.177974e+14	1.300531e+04	5.922703e+03	2.556104e+03	0	1.076003e-03
1.190000e+09	3.825551e+13	0.000000e+00	5.935486e-01	6.977653e+14	1.086495e+15	2.168635e+14	1.298288e+04	5.917690e+03	2.553941e+03	0	1.069844e-03
1.200000e+09	3.760233e+13	0.000000e+00	5.935486e-01	6.911303e+14	1.077467e+15	2.159358e+14	1.296065e+04	5.912720e+03	2.551796e+03	0	1.063721e-03
1.210000e+09	3.696014e+13	0.000000e+00	5.935486e-01	6.846025e+14	1.068574e+15	2.150142e+14	1.293864e+04	5.907791e+03	2.549668e+03	0	1.057630e-03
1.220000e+09	3.632868e+13	0.000000e+00	5.935486e-01	6.781796e+14	1.059815e+15	2.140988e+14	1.291684e+04	5.902903e+03	2.547559e+03	0	1.051572e-03
1.230000e+09	3.570770e+13	0.000000e+00	5.935486e-01	6.718591e+14	1.051185e+15	2.131894e+14	1.289523e+04	5.898056e+03	2.545467e+03	0	1.045546e-03
1.240000e+09	3.509697e+13	0.000000e+00	5.935486e-01	6.656388e+14	1.042683e+15	2.122860e+14	1.287383e+04	5.893249e+03	2.543392e+03	0	1.039551e-03
1.250000e+09	3.449626e+13	0.000000e+00	5.935486e-01	6.595164e+14	1.034305e+15	2.113886e+14	1.285263e+04	5.888481e+03	2.541335e+03	0	1.033586e-03
1.260000e+09	3.390534e+13	0.000000e+00	5.935486e-01	6.534899e+14	1.026049e+15	2.104971e+14	1.283162e+04	5.883752e+03	2.539294e+03	0	1.027650e-03
1.270000e+09	3.332399e+13	0.000000e+00	5.935486e-01	6.475571e+14	1.017913e+15	2.096115e+14	1.281080e+04	5.879061e+03	2.537269e+03	0	1.021743e-03
1.280000e+09	3.275201e+13	0.000000e+00	5.935486e-01	6.417159e+14	1.009893e+15	2.087317e+14	1.279017e+04	5.874407e+03	2.535261e+03	0	1.015863e-03
1.290000e+09	3.218919e+13	0.000000e+00	5.935486e-01	6.359644e+14	1.001987e+15	2.078576e+14	1.276973e+04	5.869791e+03	2.533269e+03	0	1.010011e-03
1.300000e+09	3.163533e+13	0.000000e+00	5.935486e-01	6.303007e+14	9.941937e+14	2.069893e+14	1.274947e+04	5.865212e+03	2.531292e+03	0	1.004184e-03
1.310000e+09	3.109023e+13	0.000000e+00	5.935486e-01	6.247229e+14	9.865099e+14	2.061268e+14	1.272939e+04	5.860668e+03	2.529331e+03	0	9.983832e-04
1.320000e+09	3.055370e+13	0.000000e+00	5.935486e-01	6.192292e+14	9.789337e+14	2.052698e+14	1.270949e+04	5.856160e+03	2.527386e+03	0	9.926068e-04
1.330000e+09	3.002557e+13	0.000000e+00	5.935486e-01	6.138177e+14	9.714628e+14	2.044185e+14	1.268976e+04	5.851687e+03	2.525455e+03	0	9.868543e-04
1.340000e+09	2.950564e+13	0.000000e+00	5.935486e-01	6.084869e+14	9.640952e+14	2.035727e+14	1.267020e+04	5.847248e+03	2.523540e+03	0	9.811250e-04
1.350000e+09	2.899376e+13	0.000000e+00	5.935486e-01	6.032349e+14	9.568287e+14	2.027324e+14	1.265081e+04	5.842844e+03	2.521639e+03	0	9.754181e-04
1.360000e+09	2.848974e+13	0.000000e+00	5.935486e-01	5.980602e+14	9.496614e+14	2.018977e+14	1.263159e+04	5.838473e+03	2.519752e+03	0	9.697329e-04
