#t		Qconv[W]	Ri[Rp]		R*[Rp]		Qc[W]		Qm[W]		Qr[W]		Tcmb[K]		Tl[K]		Tup[K]		RiFlag		Bs[T]
0.000000e+00	2.575152e+13	0.000000e+00	5.974026e-01	7.594829e+14	1.873865e+15	4.452190e+14	1.456615e+04	5.399448e+03	2.843679e+03	0	9.325265e-04
1.000000e+07	2.494855e+13	0.000000e+00	5.974026e-01	7.519243e+14	1.834575e+15	4.427521e+14	1.454650e+04	5.384045e+03	2.835567e+03	0	9.227314e-04
2.000000e+07	2.416742e+13	0.000000e+00	5.974026e-01	7.445587e+14	1.797437e+15	4.403037e+14	1.452704e+04	5.369310e+03	2.827806e+03	0	9.129990e-04
3.000000e+07	2.340703e+13	0.000000e+00	5.974026e-01	7.373765e+14	1.762277e+15	4.378736e+14	1.450778e+04	5.355197e+03	2.820374e+03	0	9.033214e-04
4.000000e+07	2.266635e+13	0.000000e+00	5.974026e-01	7.303688e+14	1.728939e+15	4.354617e+14	1.448870e+04	5.341668e+03	2.813248e+03	0	8.936910e-04
5.000000e+07	2.194442e+13	0.000000e+00	5.974026e-01	7.235274e+14	1.697283e+15	4.330677e+14	1.446980e+04	5.328685e+03	2.806411e+03	0	8.841005e-04
6.000000e+07	2.124038e+13	0.000000e+00	5.974026e-01	7.168446e+14	1.667182e+15	4.306916e+14	1.445108e+04	5.316213e+03	2.799843e+03	0	8.745426e-04
7.000000e+07	2.055338e+13	0.000000e+00	5.974026e-01	7.103132e+14	1.638521e+15	4.283332e+14	1.443253e+04	5.304223e+03	2.793528e+03	0	8.650103e-04
8.000000e+07	1.988266e+13	0.000000e+00	5.974026e-01	7.039265e+14	1.611196e+15	4.259923e+14	1.441415e+04	5.292685e+03	2.787451e+03	0	8.554968e-04
9.000000e+07	1.922751e+13	0.000000e+00	5.974026e-01	6.976783e+14	1.585113e+15	4.236688e+14	1.439594e+04	5.281572e+03	2.781598e+03	0	8.459952e-04
1.000000e+08	1.858725e+13	0.000000e+00	5.974026e-01	6.915628e+14	1.560185e+15	4.213626e+14	1.437788e+04	5.270860e+03	2.775957e+03	0	8.364988e-04
1.100000e+08	1.796126e+13	0.000000e+00	5.974026e-01	6.855745e+14	1.536335e+15	4.190735e+14	1.435999e+04	5.260526e+03	2.770514e+03	0	8.270006e-04
1.200000e+08	1.734895e+13	0.000000e+00	5.974026e-01	6.797083e+14	1.513490e+15	4.168014e+14	1.434224e+04	5.250549e+03	2.765260e+03	0	8.174941e-04
1.300000e+08	1.674976e+13	0.000000e+00	5.974026e-01	6.739593e+14	1.491584e+15	4.145460e+14	1.432465e+04	5.240909e+03	2.760183e+03	0	8.079722e-04
1.400000e+08	1.616318e+13	0.000000e+00	5.974026e-01	6.683231e+14	1.470559e+15	4.123074e+14	1.430721e+04	5.231587e+03	2.755273e+03	0	7.984282e-04
1.500000e+08	1.558872e+13	0.000000e+00	5.974026e-01	6.627953e+14	1.450357e+15	4.100853e+14	1.428992e+04	5.222567e+03	2.750523e+03	0	7.888547e-04
1.600000e+08	1.502591e+13	0.000000e+00	5.974026e-01	6.573720e+14	1.430929e+15	4.078797e+14	1.427276e+04	5.213833e+03	2.745923e+03	0	7.792447e-04
1.700000e+08	1.447433e+13	0.000000e+00	5.974026e-01	6.520493e+14	1.412227e+15	4.056903e+14	1.425575e+04	5.205370e+03	2.741465e+03	0	7.695905e-04
1.800000e+08	1.393356e+13	0.000000e+00	5.974026e-01	6.468237e+14	1.394208e+15	4.035170e+14	1.423887e+04	5.197163e+03	2.737143e+03	0	7.598846e-04
1.900000e+08	1.340322e+13	0.000000e+00	5.974026e-01	6.416918e+14	1.376832e+15	4.013598e+14	1.422213e+04	5.189200e+03	2.732950e+03	0	7.501187e-04
2.000000e+08	1.288294e+13	0.000000e+00	5.974026e-01	6.366503e+14	1.360063e+15	3.992184e+14	1.420552e+04	5.181469e+03	2.728878e+03	0	7.402844e-04
2.100000e+08	1.237238e+13	0.000000e+00	5.974026e-01	6.316964e+14	1.343866e+15	3.970928e+14	1.418904e+04	5.173958e+03	2.724922e+03	0	7.303728e-04
2.200000e+08	1.187120e+13	0.000000e+00	5.974026e-01	6.268270e+14	1.328209e+15	3.949828e+14	1.417269e+04	5.166656e+03	2.721077e+03	0	7.203746e-04
2.300000e+08	1.137909e+13	0.000000e+00	5.974026e-01	6.220394e+14	1.313063e+15	3.928883e+14	1.415647e+04	5.159554e+03	2.717336e+03	0	7.102797e-04
2.400000e+08	1.089576e+13	0.000000e+00	5.974026e-01	6.173311e+14	1.298400e+15	3.908091e+14	1.414037e+04	5.152643e+03	2.713696e+03	0	7.000775e-04
2.500000e+08	1.042093e+13	0.000000e+00	5.974026e-01	6.126996e+14	1.284195e+15	3.887451e+14	1.412439e+04	5.145912e+03	2.710151e+03	0	6.897565e-04
2.600000e+08	9.954333e+12	0.000000e+00	5.974026e-01	6.081426e+14	1.270423e+15	3.866963e+14	1.410853e+04	5.139354e+03	2.706697e+03	0	6.793042e-04
2.700000e+08	9.495708e+12	0.000000e+00	5.974026e-01	6.036577e+14	1.257064e+15	3.846624e+14	1.409279e+04	5.132960e+03	2.703330e+03	0	6.687072e-04
2.800000e+08	9.044816e+12	0.000000e+00	5.974026e-01	5.992429e+14	1.244096e+15	3.826434e+14	1.407716e+04	5.126725e+03	2.700046e+03	0	6.579509e-04
2.900000e+08	8.601425e+12	0.000000e+00	5.974026e-01	5.948961e+14	1.231499e+15	3.806392e+14	1.406165e+04	5.120639e+03	2.696841e+03	0	6.470190e-04
3.000000e+08	8.165316e+12	0.000000e+00	5.974026e-01	5.906154e+14	1.219256e+15	3.786495e+14	1.404625e+04	5.114698e+03	2.693712e+03	0	6.358938e-04
3.100000e+08	7.736277e+12	0.000000e+00	5.974026e-01	5.863990e+14	1.207349e+15	3.766744e+14	1.403096e+04	5.108894e+03	2.690655e+03	0	6.245553e-04
3.200000e+08	7.314108e+12	0.000000e+00	5.974026e-01	5.822450e+14	1.195764e+15	3.747136e+14	1.401578e+04	5.103221e+03	2.687668e+03	0	6.129815e-04
3.300000e+08	6.898616e+12	0.000000e+00	5.974026e-01	5.781518e+14	1.184484e+15	3.727670e+14	1.400070e+04	5.097675e+03	2.684747e+03	0	6.011473e-04
3.400000e+08	6.489617e+12	0.000000e+00	5.974026e-01	5.741178e+14	1.173495e+15	3.708346e+14	1.398573e+04	5.092249e+03	2.681889e+03	0	5.890243e-04
3.500000e+08	6.086935e+12	0.000000e+00	5.974026e-01	5.701413e+14	1.162786e+15	3.689163e+14	1.397087e+04	5.086940e+03	2.679093e+03	0	5.765803e-04
3.600000e+08	5.690401e+12	0.000000e+00	5.974026e-01	5.662210e+14	1.152342e+15	3.670118e+14	1.395611e+04	5.081741e+03	2.676355e+03	0	5.637776e-04
3.700000e+08	5.299853e+12	0.000000e+00	5.974026e-01	5.623553e+14	1.142153e+15	3.651211e+14	1.394145e+04	5.076648e+03	2.673673e+03	0	5.505729e-04
3.800000e+08	4.915137e+12	0.000000e+00	5.974026e-01	5.585429e+14	1.132207e+15	3.632441e+14	1.392689e+04	5.071658e+03	2.671045e+03	0	5.369149e-04
3.900000e+08	4.536103e+12	0.000000e+00	5.974026e-01	5.547825e+14	1.122495e+15	3.613807e+14	1.391243e+04	5.066766e+03	2.668468e+03	0	5.227426e-04
4.000000e+08	4.162607e+12	0.000000e+00	5.974026e-01	5.510729e+14	1.113006e+15	3.595307e+14	1.389807e+04	5.061968e+03	2.665942e+03	0	5.079825e-04
4.100000e+08	3.794514e+12	0.000000e+00	5.974026e-01	5.474127e+14	1.103731e+15	3.576941e+14	1.388380e+04	5.057261e+03	2.663463e+03	0	4.925446e-04
4.200000e+08	3.431689e+12	0.000000e+00	5.974026e-01	5.438008e+14	1.094662e+15	3.558707e+14	1.386962e+04	5.052641e+03	2.661029e+03	0	4.763171e-04
4.300000e+08	3.074006e+12	0.000000e+00	5.974026e-01	5.402362e+14	1.085790e+15	3.540604e+14	1.385554e+04	5.048105e+03	2.658640e+03	0	4.591576e-04
4.400000e+08	2.721343e+12	0.000000e+00	5.974026e-01	5.367176e+14	1.077107e+15	3.522632e+14	1.384156e+04	5.043650e+03	2.656294e+03	0	4.408810e-04
4.500000e+08	2.373582e+12	0.000000e+00	5.974026e-01	5.332442e+14	1.068606e+15	3.504789e+14	1.382766e+04	5.039272e+03	2.653989e+03	0	4.212387e-04
4.600000e+08	2.030608e+12	0.000000e+00	5.974026e-01	5.298147e+14	1.060280e+15	3.487074e+14	1.381385e+04	5.034970e+03	2.651722e+03	0	3.998855e-04
4.700000e+08	1.692313e+12	0.000000e+00	5.974026e-01	5.264284e+14	1.052123e+15	3.469486e+14	1.380013e+04	5.030739e+03	2.649494e+03	0	3.763170e-04
4.800000e+08	1.358591e+12	0.000000e+00	5.974026e-01	5.230842e+14	1.044128e+15	3.452024e+14	1.378650e+04	5.026578e+03	2.647303e+03	0	3.497490e-04
4.900000e+08	1.029339e+12	0.000000e+00	5.974026e-01	5.197812e+14	1.036289e+15	3.434687e+14	1.377296e+04	5.022484e+03	2.645147e+03	0	3.188451e-04
5.000000e+08	7.044599e+11	0.000000e+00	5.974026e-01	5.165186e+14	1.028600e+15	3.417474e+14	1.375950e+04	5.018455e+03	2.643025e+03	0	2.809823e-04
5.100000e+08	3.838575e+11	0.000000e+00	5.974026e-01	5.132955e+14	1.021056e+15	3.400383e+14	1.374612e+04	5.014488e+03	2.640935e+03	0	2.295005e-04
5.200000e+08	6.744034e+10	0.000000e+00	5.974026e-01	5.101110e+14	1.013653e+15	3.383415e+14	1.373283e+04	5.010581e+03	2.638878e+03	0	1.285386e-04
5.300000e+08	-2.448805e+11	0.000000e+00	5.974026e-01	5.069645e+14	1.006384e+15	3.366568e+14	1.371962e+04	5.006733e+03	2.636851e+03	0	nan
