#t		Qconv[W]	Ri[Rp]		R*[Rp]		Qc[W]		Qm[W]		Qr[W]		Tcmb[K]		Tl[K]		Tup[K]		RiFlag		Bs[T]
0.000000e+00	2.306307e+13	0.000000e+00	5.909092e-01	9.057999e+14	1.838333e+15	4.965354e+14	1.587003e+04	5.688431e+03	2.899971e+03	0	9.036109e-04
1.000000e+07	2.222225e+13	0.000000e+00	5.909092e-01	8.979588e+14	1.814268e+15	4.937842e+14	1.584890e+04	5.679252e+03	2.895291e+03	0	8.924937e-04
2.000000e+07	2.139829e+13	0.000000e+00	5.909092e-01	8.902639e+14	1.791083e+15	4.910536e+14	1.582795e+04	5.670355e+03	2.890755e+03	0	8.813237e-04
3.000000e+07	2.059056e+13	0.000000e+00	5.909092e-01	8.827101e+14	1.768726e+15	4.883435e+14	1.580717e+04	5.661723e+03	2.886355e+03	0	8.700920e-04
4.000000e+07	1.979851e+13	0.000000e+00	5.909092e-01	8.752926e+14	1.747148e+15	4.856535e+14	1.578658e+04	5.653345e+03	2.882083e+03	0	8.587893e-04
5.000000e+07	1.902160e+13	0.000000e+00	5.909092e-01	8.680069e+14	1.726305e+15	4.829836e+14	1.576615e+04	5.645206e+03	2.877934e+03	0	8.474058e-04
6.000000e+07	1.825930e+13	0.000000e+00	5.909092e-01	8.608486e+14	1.706155e+15	4.803336e+14	1.574590e+04	5.637294e+03	2.873901e+03	0	8.359311e-04
7.000000e+07	1.751114e+13	0.000000e+00	5.909092e-01	8.538136e+14	1.686659e+15	4.777034e+14	1.572581e+04	5.629598e+03	2.869978e+03	0	8.243543e-04
8.000000e+07	1.677666e+13	0.000000e+00	5.909092e-01	8.468980e+14	1.667781e+15	4.750927e+14	1.570588e+04	5.622108e+03	2.866159e+03	0	8.126638e-04
9.000000e+07	1.605542e+13	0.000000e+00	5.909092e-01	8.400982e+14	1.649489e+15	4.725014e+14	1.568612e+04	5.614814e+03	2.862440e+03	0	8.008472e-04
1.000000e+08	1.534700e+13	0.000000e+00	5.909092e-01	8.334105e+14	1.631751e+15	4.699293e+14	1.566651e+04	5.607705e+03	2.858816e+03	0	7.888909e-04
1.100000e+08	1.465101e+13	0.000000e+00	5.909092e-01	8.268316e+14	1.614539e+15	4.673764e+14	1.564706e+04	5.600774e+03	2.855283e+03	0	7.767804e-04
1.200000e+08	1.396707e+13	0.000000e+00	5.909092e-01	8.203583e+14	1.597825e+15	4.648423e+14	1.562776e+04	5.594012e+03	2.851836e+03	0	7.645001e-04
1.300000e+08	1.329482e+13	0.000000e+00	5.909092e-01	8.139876e+14	1.581584e+15	4.623271e+14	1.560862e+04	5.587412e+03	2.848471e+03	0	7.520325e-04
1.400000e+08	1.263392e+13	0.000000e+00	5.909092e-01	8.077165e+14	1.565794e+15	4.598304e+14	1.558962e+04	5.580965e+03	2.845184e+03	0	7.393586e-04
1.500000e+08	1.198404e+13	0.000000e+00	5.909092e-01	8.015424e+14	1.550432e+15	4.573522e+14	1.557077e+04	5.574665e+03	2.841973e+03	0	7.264575e-04
1.600000e+08	1.134487e+13	0.000000e+00	5.909092e-01	7.954624e+14	1.535478e+15	4.548923e+14	1.555206e+04	5.568506e+03	2.838833e+03	0	7.133056e-04
1.700000e+08	1.071612e+13	0.000000e+00	5.909092e-01	7.894740e+14	1.520912e+15	4.524506e+14	1.553349e+04	5.562482e+03	2.835761e+03	0	6.998767e-04
1.800000e+08	1.009748e+13	0.000000e+00	5.909092e-01	7.835749e+14	1.506717e+15	4.500269e+14	1.551507e+04	5.556585e+03	2.832755e+03	0	6.861411e-04
1.900000e+08	9.488695e+12	0.000000e+00	5.909092e-01	7.777627e+14	1.492876e+15	4.476210e+14	1.549678e+04	5.550812e+03	2.829812e+03	0	6.720650e-04
2.000000e+08	8.889498e+12	0.000000e+00	5.909092e-01	7.720351e+14	1.479373e+15	4.452328e+14	1.547862e+04	5.545157e+03	2.826929e+03	0	6.576096e-04
2.100000e+08	8.299635e+12	0.000000e+00	5.909092e-01	7.663900e+14	1.466192e+15	4.428622e+14	1.546060e+04	5.539615e+03	2.824104e+03	0	6.427303e-04
2.200000e+08	7.718867e+12	0.000000e+00	5.909092e-01	7.608253e+14	1.453321e+15	4.405089e+14	1.544271e+04	5.534180e+03	2.821333e+03	0	6.273746e-04
2.300000e+08	7.146961e+12	0.000000e+00	5.909092e-01	7.553390e+14	1.440745e+15	4.381730e+14	1.542495e+04	5.528850e+03	2.818616e+03	0	6.114809e-04
2.400000e+08	6.583695e+12	0.000000e+00	5.909092e-01	7.499293e+14	1.428453e+15	4.358542e+14	1.540732e+04	5.523620e+03	2.815949e+03	0	5.949754e-04
2.500000e+08	6.028854e+12	0.000000e+00	5.909092e-01	7.445942e+14	1.416432e+15	4.335523e+14	1.538981e+04	5.518485e+03	2.813332e+03	0	5.777687e-04
2.600000e+08	5.482232e+12	0.000000e+00	5.909092e-01	7.393321e+14	1.404672e+15	4.312674e+14	1.537243e+04	5.513442e+03	2.810761e+03	0	5.597510e-04
2.700000e+08	4.943631e+12	0.000000e+00	5.909092e-01	7.341412e+14	1.393162e+15	4.289991e+14	1.535517e+04	5.508487e+03	2.808235e+03	0	5.407847e-04
2.800000e+08	4.412860e+12	0.000000e+00	5.909092e-01	7.290199e+14	1.381891e+15	4.267474e+14	1.533803e+04	5.503618e+03	2.805753e+03	0	5.206939e-04
2.900000e+08	3.889735e+12	0.000000e+00	5.909092e-01	7.239667e+14	1.370852e+15	4.245121e+14	1.532101e+04	5.498830e+03	2.803312e+03	0	4.992473e-04
3.000000e+08	3.374079e+12	0.000000e+00	5.909092e-01	7.189799e+14	1.360035e+15	4.222931e+14	1.530411e+04	5.494121e+03	2.800911e+03	0	4.761322e-04
3.100000e+08	2.865721e+12	0.000000e+00	5.909092e-01	7.140581e+14	1.349431e+15	4.200903e+14	1.528733e+04	5.489488e+03	2.798549e+03	0	4.509071e-04
3.200000e+08	2.364496e+12	0.000000e+00	5.909092e-01	7.091999e+14	1.339033e+15	4.179035e+14	1.527066e+04	5.484928e+03	2.796224e+03	0	4.229172e-04
3.300000e+08	1.870245e+12	0.000000e+00	5.909092e-01	7.044040e+14	1.328833e+15	4.157326e+14	1.525410e+04	5.480438e+03	2.793935e+03	0	3.911187e-04
3.400000e+08	1.382814e+12	0.000000e+00	5.909092e-01	6.996690e+14	1.318824e+15	4.135775e+14	1.523765e+04	5.476016e+03	2.791681e+03	0	3.536690e-04
3.500000e+08	9.020533e+11	0.000000e+00	5.909092e-01	6.949935e+14	1.308999e+15	4.114380e+14	1.522132e+04	5.471660e+03	2.789460e+03	0	3.067278e-04
3.600000e+08	4.278202e+11	0.000000e+00	5.909092e-01	6.903765e+14	1.299352e+15	4.093140e+14	1.520509e+04	5.467367e+03	2.787272e+03	0	2.392009e-04
3.700000e+08	-4.002464e+10	0.000000e+00	5.909092e-01	6.858166e+14	1.289877e+15	4.072054e+14	1.518897e+04	5.463135e+03	2.785114e+03	0	nan
