#t		Qconv[W]	Ri[Rp]		R*[Rp]		Qc[W]		Qm[W]		Qr[W]		Tcmb[K]		Tl[K]		Tup[K]		RiFlag		Bs[T]
0.000000e+00	2.723364e+14	0.000000e+00	5.947711e-01	3.191592e+15	2.472613e+15	5.201028e+14	2.005513e+04	6.343732e+03	2.907144e+03	0	2.036140e-03
1.000000e+07	2.675803e+14	0.000000e+00	5.947711e-01	3.150573e+15	2.529473e+15	5.172210e+14	1.998832e+04	6.369443e+03	2.918927e+03	0	2.024217e-03
2.000000e+07	2.628471e+14	0.000000e+00	5.947711e-01	3.109780e+15	2.581470e+15	5.143608e+14	1.992236e+04	6.393053e+03	2.929746e+03	0	2.012211e-03
3.000000e+07	2.581429e+14	0.000000e+00	5.947711e-01	3.069260e+15	2.628680e+15	5.115220e+14	1.985725e+04	6.414669e+03	2.939652e+03	0	2.000134e-03
4.000000e+07	2.534731e+14	0.000000e+00	5.947711e-01	3.029054e+15	2.671215e+15	5.087044e+14	1.979299e+04	6.434400e+03	2.948694e+03	0	1.988000e-03
5.000000e+07	2.488426e+14	0.000000e+00	5.947711e-01	2.989203e+15	2.709215e+15	5.059078e+14	1.972956e+04	6.452351e+03	2.956921e+03	0	1.975820e-03
6.000000e+07	2.442558e+14	0.000000e+00	5.947711e-01	2.949739e+15	2.742843e+15	5.031320e+14	1.966696e+04	6.468626e+03	2.964379e+03	0	1.963604e-03
7.000000e+07	2.397166e+14	0.000000e+00	5.947711e-01	2.910695e+15	2.772280e+15	5.003769e+14	1.960519e+04	6.483325e+03	2.971115e+03	0	1.951365e-03
8.000000e+07	2.352285e+14	0.000000e+00	5.947711e-01	2.872096e+15	2.797719e+15	4.976423e+14	1.954423e+04	6.496545e+03	2.977174e+03	0	1.939110e-03
9.000000e+07	2.307945e+14	0.000000e+00	5.947711e-01	2.833966e+15	2.819365e+15	4.949280e+14	1.948407e+04	6.508380e+03	2.982597e+03	0	1.926848e-03
1.000000e+08	2.264172e+14	0.000000e+00	5.947711e-01	2.796324e+15	2.837425e+15	4.922339e+14	1.942471e+04	6.518918e+03	2.987426e+03	0	1.914589e-03
1.100000e+08	2.220989e+14	0.000000e+00	5.947711e-01	2.759189e+15	2.852109e+15	4.895598e+14	1.936613e+04	6.528246e+03	2.991701e+03	0	1.902339e-03
1.200000e+08	2.178413e+14	0.000000e+00	5.947711e-01	2.722574e+15	2.863629e+15	4.869055e+14	1.930832e+04	6.536445e+03	2.995458e+03	0	1.890104e-03
1.300000e+08	2.136460e+14	0.000000e+00	5.947711e-01	2.686491e+15	2.872192e+15	4.842708e+14	1.925128e+04	6.543591e+03	2.998733e+03	0	1.877892e-03
1.400000e+08	2.095143e+14	0.000000e+00	5.947711e-01	2.650948e+15	2.878000e+15	4.816557e+14	1.919500e+04	6.549757e+03	3.001559e+03	0	1.865708e-03
1.500000e+08	2.054471e+14	0.000000e+00	5.947711e-01	2.615953e+15	2.881250e+15	4.790598e+14	1.913945e+04	6.555013e+03	3.003968e+03	0	1.853556e-03
1.600000e+08	2.014451e+14	0.000000e+00	5.947711e-01	2.581510e+15	2.882134e+15	4.764832e+14	1.908463e+04	6.559424e+03	3.005989e+03	0	1.841442e-03
1.700000e+08	1.975087e+14	0.000000e+00	5.947711e-01	2.547623e+15	2.880834e+15	4.739256e+14	1.903053e+04	6.563049e+03	3.007650e+03	0	1.829368e-03
1.800000e+08	1.936382e+14	0.000000e+00	5.947711e-01	2.514294e+15	2.877524e+15	4.713868e+14	1.897714e+04	6.565946e+03	3.008978e+03	0	1.817340e-03
1.900000e+08	1.898338e+14	0.000000e+00	5.947711e-01	2.481521e+15	2.872368e+15	4.688667e+14	1.892444e+04	6.568170e+03	3.009997e+03	0	1.805359e-03
2.000000e+08	1.860953e+14	0.000000e+00	5.947711e-01	2.449305e+15	2.865525e+15	4.663652e+14	1.887243e+04	6.569769e+03	3.010730e+03	0	1.793429e-03
2.100000e+08	1.824224e+14	0.000000e+00	5.947711e-01	2.417642e+15	2.857140e+15	4.638820e+14	1.882109e+04	6.570791e+03	3.011198e+03	0	1.781552e-03
2.200000e+08	1.788150e+14	0.000000e+00	5.947711e-01	2.386529e+15	2.847354e+15	4.614171e+14	1.877041e+04	6.571279e+03	3.011422e+03	0	1.769730e-03
2.300000e+08	1.752724e+14	0.000000e+00	5.947711e-01	2.355962e+15	2.836296e+15	4.589703e+14	1.872038e+04	6.571274e+03	3.011420e+03	0	1.757965e-03
2.400000e+08	1.717940e+14	0.000000e+00	5.947711e-01	2.325936e+15	2.824087e+15	4.565414e+14	1.867098e+04	6.570814e+03	3.011209e+03	0	1.746258e-03
2.500000e+08	1.683794e+14	0.000000e+00	5.947711e-01	2.296445e+15	2.810840e+15	4.541303e+14	1.862222e+04	6.569935e+03	3.010806e+03	0	1.734611e-03
2.600000e+08	1.650276e+14	0.000000e+00	5.947711e-01	2.267483e+15	2.796661e+15	4.517369e+14	1.857406e+04	6.568668e+03	3.010226e+03	0	1.723024e-03
2.700000e+08	1.617380e+14	0.000000e+00	5.947711e-01	2.239042e+15	2.781648e+15	4.493609e+14	1.852652e+04	6.567046e+03	3.009482e+03	0	1.711498e-03
2.800000e+08	1.585096e+14	0.000000e+00	5.947711e-01	2.211116e+15	2.765890e+15	4.470024e+14	1.847957e+04	6.565096e+03	3.008588e+03	0	1.700034e-03
2.900000e+08	1.553416e+14	0.000000e+00	5.947711e-01	2.183696e+15	2.749472e+15	4.446610e+14	1.843320e+04	6.562844e+03	3.007556e+03	0	1.688632e-03
3.000000e+08	1.522330e+14	0.000000e+00	5.947711e-01	2.156776e+15	2.732472e+15	4.423367e+14	1.838740e+04	6.560315e+03	3.006397e+03	0	1.677292e-03
3.100000e+08	1.491828e+14	0.000000e+00	5.947711e-01	2.130346e+15	2.714959e+15	4.400293e+14	1.834216e+04	6.557532e+03	3.005122e+03	0	1.666014e-03
3.200000e+08	1.461902e+14	0.000000e+00	5.947711e-01	2.104399e+15	2.697001e+15	4.377387e+14	1.829748e+04	6.554515e+03	3.003739e+03	0	1.654799e-03
3.300000e+08	1.432540e+14	0.000000e+00	5.947711e-01	2.078926e+15	2.678658e+15	4.354648e+14	1.825334e+04	6.551285e+03	3.002259e+03	0	1.643645e-03
3.400000e+08	1.403733e+14	0.000000e+00	5.947711e-01	2.053918e+15	2.659984e+15	4.332074e+14	1.820973e+04	6.547859e+03	3.000689e+03	0	1.632553e-03
3.500000e+08	1.375470e+14	0.000000e+00	5.947711e-01	2.029367e+15	2.641030e+15	4.309663e+14	1.816665e+04	6.544254e+03	2.999037e+03	0	1.621522e-03
3.600000e+08	1.347740e+14	0.000000e+00	5.947711e-01	2.005264e+15	2.621845e+15	4.287415e+14	1.812407e+04	6.540486e+03	2.997310e+03	0	1.610551e-03
3.700000e+08	1.320534e+14	0.000000e+00	5.947711e-01	1.981600e+15	2.602469e+15	4.265328e+14	1.808200e+04	6.536569e+03	2.995516e+03	0	1.599640e-03
3.800000e+08	1.293841e+14	0.000000e+00	5.947711e-01	1.958367e+15	2.582941e+15	4.243401e+14	1.804043e+04	6.532517e+03	2.993658e+03	0	1.588788e-03
3.900000e+08	1.267651e+14	0.000000e+00	5.947711e-01	1.935556e+15	2.563298e+15	4.221633e+14	1.799934e+04	6.528342e+03	2.991745e+03	0	1.577995e-03
4.000000e+08	1.241953e+14	0.000000e+00	5.947711e-01	1.913159e+15	2.543572e+15	4.200022e+14	1.795873e+04	6.524054e+03	2.989780e+03	0	1.567259e-03
4.100000e+08	1.216737e+14	0.000000e+00	5.947711e-01	1.891166e+15	2.523792e+15	4.178566e+14	1.791858e+04	6.519666e+03	2.987769e+03	0	1.556580e-03
4.200000e+08	1.191994e+14	0.000000e+00	5.947711e-01	1.869571e+15	2.503984e+15	4.157266e+14	1.787890e+04	6.515187e+03	2.985716e+03	0	1.545956e-03
4.300000e+08	1.167712e+14	0.000000e+00	5.947711e-01	1.848363e+15	2.484174e+15	4.136118e+14	1.783966e+04	6.510625e+03	2.983626e+03	0	1.535386e-03
4.400000e+08	1.143883e+14	0.000000e+00	5.947711e-01	1.827536e+15	2.464382e+15	4.115123e+14	1.780087e+04	6.505990e+03	2.981502e+03	0	1.524870e-03
4.500000e+08	1.120496e+14	0.000000e+00	5.947711e-01	1.807080e+15	2.444630e+15	4.094279e+14	1.776252e+04	6.501289e+03	2.979347e+03	0	1.514407e-03
4.600000e+08	1.097543e+14	0.000000e+00	5.947711e-01	1.786989e+15	2.424935e+15	4.073584e+14	1.772459e+04	6.496529e+03	2.977166e+03	0	1.503994e-03
4.700000e+08	1.075012e+14	0.000000e+00	5.947711e-01	1.767253e+15	2.405313e+15	4.053038e+14	1.768708e+04	6.491717e+03	2.974961e+03	0	1.493632e-03
4.800000e+08	1.052897e+14	0.000000e+00	5.947711e-01	1.747867e+15	2.385778e+15	4.032638e+14	1.764999e+04	6.486859e+03	2.972735e+03	0	1.483318e-03
4.900000e+08	1.031186e+14	0.000000e+00	5.947711e-01	1.728821e+15	2.366345e+15	4.012385e+14	1.761330e+04	6.481961e+03	2.970490e+03	0	1.473052e-03
5.000000e+08	1.009872e+14	0.000000e+00	5.947711e-01	1.710109e+15	2.347024e+15	3.992277e+14	1.757701e+04	6.477028e+03	2.968230e+03	0	1.462832e-03
5.100000e+08	9.889450e+13	0.000000e+00	5.947711e-01	1.691723e+15	2.327826e+15	3.972313e+14	1.754111e+04	6.472066e+03	2.965955e+03	0	1.452657e-03
5.200000e+08	9.683973e+13	0.000000e+00	5.947711e-01	1.673657e+15	2.308760e+15	3.952491e+14	1.750559e+04	6.467078e+03	2.963670e+03	0	1.442526e-03
5.300000e+08	9.482203e+13	0.000000e+00	5.947711e-01	1.655902e+15	2.289834e+15	3.932810e+14	1.747046e+04	6.462069e+03	2.961374e+03	0	1.432437e-03
5.400000e+08	9.284057e+13	0.000000e+00	5.947711e-01	1.638453e+15	2.271056e+15	3.913269e+14	1.743569e+04	6.457042e+03	2.959071e+03	0	1.422389e-03
5.500000e+08	9.089454e+13	0.000000e+00	5.947711e-01	1.621303e+15	2.252432e+15	3.893868e+14	1.740129e+04	6.452002e+03	2.956761e+03	0	1.412380e-03
5.600000e+08	8.898318e+13	0.000000e+00	5.947711e-01	1.604445e+15	2.233968e+15	3.874604e+14	1.736725e+04	6.446951e+03	2.954446e+03	0	1.402410e-03
5.700000e+08	8.710569e+13	0.000000e+00	5.947711e-01	1.587873e+15	2.215668e+15	3.855478e+14	1.733356e+04	6.441893e+03	2.952128e+03	0	1.392477e-03
5.800000e+08	8.526134e+13	0.000000e+00	5.947711e-01	1.571581e+15	2.197536e+15	3.836487e+14	1.730022e+04	6.436830e+03	2.949808e+03	0	1.382578e-03
5.900000e+08	8.344940e+13	0.000000e+00	5.947711e-01	1.555562e+15	2.179577e+15	3.817630e+14	1.726722e+04	6.431766e+03	2.947487e+03	0	1.372714e-03
6.000000e+08	8.166913e+13	0.000000e+00	5.947711e-01	1.539810e+15	2.161792e+15	3.798907e+14	1.723455e+04	6.426702e+03	2.945166e+03	0	1.362882e-03
6.100000e+08	7.991985e+13	0.000000e+00	5.947711e-01	1.524320e+15	2.144185e+15	3.780317e+14	1.720222e+04	6.421640e+03	2.942847e+03	0	1.353082e-03
6.200000e+08	7.820088e+13	0.000000e+00	5.947711e-01	1.509087e+15	2.126758e+15	3.761857e+14	1.717020e+04	6.416583e+03	2.940529e+03	0	1.343310e-03
6.300000e+08	7.651154e+13	0.000000e+00	5.947711e-01	1.494104e+15	2.109511e+15	3.743529e+14	1.713851e+04	6.411533e+03	2.938215e+03	0	1.333567e-03
6.400000e+08	7.485118e+13	0.000000e+00	5.947711e-01	1.479366e+15	2.092447e+15	3.725329e+14	1.710713e+04	6.406491e+03	2.935905e+03	0	1.323850e-03
6.500000e+08	7.321918e+13	0.000000e+00	5.947711e-01	1.464868e+15	2.075566e+15	3.707258e+14	1.707606e+04	6.401459e+03	2.933598e+03	0	1.314157e-03
6.600000e+08	7.161490e+13	0.000000e+00	5.947711e-01	1.450604e+15	2.058868e+15	3.689313e+14	1.704529e+04	6.396438e+03	2.931298e+03	0	1.304488e-03
6.700000e+08	7.003775e+13	0.000000e+00	5.947711e-01	1.436570e+15	2.042354e+15	3.671495e+14	1.701482e+04	6.391430e+03	2.929003e+03	0	1.294841e-03
6.800000e+08	6.848714e+13	0.000000e+00	5.947711e-01	1.422761e+15	2.026024e+15	3.653802e+14	1.698465e+04	6.386436e+03	2.926714e+03	0	1.285214e-03
6.900000e+08	6.696248e+13	0.000000e+00	5.947711e-01	1.409172e+15	2.009877e+15	3.636234e+14	1.695476e+04	6.381457e+03	2.924432e+03	0	1.275605e-03
7.000000e+08	6.546323e+13	0.000000e+00	5.947711e-01	1.395798e+15	1.993913e+15	3.618788e+14	1.692516e+04	6.376495e+03	2.922158e+03	0	1.266013e-03
7.100000e+08	6.398883e+13	0.000000e+00	5.947711e-01	1.382635e+15	1.978131e+15	3.601465e+14	1.689584e+04	6.371549e+03	2.919891e+03	0	1.256436e-03
7.200000e+08	6.253875e+13	0.000000e+00	5.947711e-01	1.369679e+15	1.962531e+15	3.584262e+14	1.686680e+04	6.366621e+03	2.917633e+03	0	1.246873e-03
7.300000e+08	6.111247e+13	0.000000e+00	5.947711e-01	1.356924e+15	1.947111e+15	3.567180e+14	1.683802e+04	6.361712e+03	2.915383e+03	0	1.237321e-03
7.400000e+08	5.970947e+13	0.000000e+00	5.947711e-01	1.344367e+15	1.931870e+15	3.550217e+14	1.680951e+04	6.356822e+03	2.913143e+03	0	1.227779e-03
7.500000e+08	5.832928e+13	0.000000e+00	5.947711e-01	1.332004e+15	1.916807e+15	3.533372e+14	1.678127e+04	6.351952e+03	2.910911e+03	0	1.218245e-03
7.600000e+08	5.697140e+13	0.000000e+00	5.947711e-01	1.319830e+15	1.901921e+15	3.516645e+14	1.675328e+04	6.347103e+03	2.908689e+03	0	1.208717e-03
7.700000e+08	5.563536e+13	0.000000e+00	5.947711e-01	1.307842e+15	1.887210e+15	3.500034e+14	1.672555e+04	6.342275e+03	2.906476e+03	0	1.199194e-03
7.800000e+08	5.432071e+13	0.000000e+00	5.947711e-01	1.296036e+15	1.872672e+15	3.483539e+14	1.669807e+04	6.337469e+03	2.904274e+03	0	1.189673e-03
7.900000e+08	5.302699e+13	0.000000e+00	5.947711e-01	1.284408e+15	1.858307e+15	3.467158e+14	1.667084e+04	6.332684e+03	2.902081e+03	0	1.180152e-03
8.000000e+08	5.175377e+13	0.000000e+00	5.947711e-01	1.272954e+15	1.844112e+15	3.450891e+14	1.664385e+04	6.327923e+03	2.899899e+03	0	1.170630e-03
8.100000e+08	5.050063e+13	0.000000e+00	5.947711e-01	1.261672e+15	1.830085e+15	3.434736e+14	1.661711e+04	6.323184e+03	2.897727e+03	0	1.161105e-03
8.200000e+08	4.926714e+13	0.000000e+00	5.947711e-01	1.250557e+15	1.816225e+15	3.418693e+14	1.659059e+04	6.318468e+03	2.895566e+03	0	1.151573e-03
8.300000e+08	4.805291e+13	0.000000e+00	5.947711e-01	1.239606e+15	1.802530e+15	3.402761e+14	1.656431e+04	6.313775e+03	2.893416e+03	0	1.142034e-03
8.400000e+08	4.685754e+13	0.000000e+00	5.947711e-01	1.228816e+15	1.788997e+15	3.386940e+14	1.653827e+04	6.309106e+03	2.891276e+03	0	1.132484e-03
8.500000e+08	4.568065e+13	0.000000e+00	5.947711e-01	1.218183e+15	1.775626e+15	3.371227e+14	1.651244e+04	6.304461e+03	2.889147e+03	0	1.122923e-03
8.600000e+08	4.452185e+13	0.000000e+00	5.947711e-01	1.207705e+15	1.762414e+15	3.355623e+14	1.648684e+04	6.299840e+03	2.887029e+03	0	1.113346e-03
8.700000e+08	4.338078e+13	0.000000e+00	5.947711e-01	1.197378e+15	1.749360e+15	3.340126e+14	1.646146e+04	6.295243e+03	2.884923e+03	0	1.103752e-03
8.800000e+08	4.225709e+13	0.000000e+00	5.947711e-01	1.187200e+15	1.736460e+15	3.324735e+14	1.643629e+04	6.290670e+03	2.882827e+03	0	1.094138e-03
8.900000e+08	4.115042e+13	0.000000e+00	5.947711e-01	1.177167e+15	1.723714e+15	3.309451e+14	1.641134e+04	6.286121e+03	2.880742e+03	0	1.084502e-03
9.000000e+08	4.006044e+13	0.000000e+00	5.947711e-01	1.167277e+15	1.711119e+15	3.294271e+14	1.638660e+04	6.281596e+03	2.878669e+03	0	1.074841e-03
9.100000e+08	3.898681e+13	0.000000e+00	5.947711e-01	1.157526e+15	1.698673e+15	3.279195e+14	1.636207e+04	6.277096e+03	2.876607e+03	0	1.065152e-03
9.200000e+08	3.792921e+13	0.000000e+00	5.947711e-01	1.147913e+15	1.686375e+15	3.264223e+14	1.633774e+04	6.272621e+03	2.874556e+03	0	1.055432e-03
9.300000e+08	3.688732e+13	0.000000e+00	5.947711e-01	1.138435e+15	1.674222e+15	3.249353e+14	1.631361e+04	6.268170e+03	2.872516e+03	0	1.045678e-03
9.400000e+08	3.586083e+13	0.000000e+00	5.947711e-01	1.129088e+15	1.662212e+15	3.234585e+14	1.628968e+04	6.263743e+03	2.870487e+03	0	1.035887e-03
9.500000e+08	3.484945e+13	0.000000e+00	5.947711e-01	1.119870e+15	1.650344e+15	3.219917e+14	1.626595e+04	6.259341e+03	2.868470e+03	0	1.026056e-03
9.600000e+08	3.385287e+13	0.000000e+00	5.947711e-01	1.110780e+15	1.638615e+15	3.205350e+14	1.624241e+04	6.254963e+03	2.866464e+03	0	1.016181e-03
9.700000e+08	3.287081e+13	0.000000e+00	5.947711e-01	1.101814e+15	1.627024e+15	3.190881e+14	1.621906e+04	6.250610e+03	2.864469e+03	0	1.006258e-03
9.800000e+08	3.190299e+13	0.000000e+00	5.947711e-01	1.092970e+15	1.615568e+15	3.176512e+14	1.619590e+04	6.246281e+03	2.862485e+03	0	9.962834e-04
9.900000e+08	3.094914e+13	0.000000e+00	5.947711e-01	1.084247e+15	1.604246e+15	3.162239e+14	1.617292e+04	6.241976e+03	2.860512e+03	0	9.862536e-04
1.000000e+09	3.000899e+13	0.000000e+00	5.947711e-01	1.075641e+15	1.593056e+15	3.148064e+14	1.615013e+04	6.237695e+03	2.858550e+03	0	9.761642e-04
1.010000e+09	2.908228e+13	0.000000e+00	5.947711e-01	1.067150e+15	1.581996e+15	3.133985e+14	1.612751e+04	6.233438e+03	2.856600e+03	0	9.660106e-04
1.020000e+09	2.816875e+13	0.000000e+00	5.947711e-01	1.058772e+15	1.571064e+15	3.120001e+14	1.610508e+04	6.229206e+03	2.854660e+03	0	9.557880e-04
1.030000e+09	2.726815e+13	0.000000e+00	5.947711e-01	1.050506e+15	1.560258e+15	3.106112e+14	1.608282e+04	6.224997e+03	2.852731e+03	0	9.454915e-04
1.040000e+09	2.638025e+13	0.000000e+00	5.947711e-01	1.042349e+15	1.549577e+15	3.092317e+14	1.606073e+04	6.220812e+03	2.850813e+03	0	9.351157e-04
1.050000e+09	2.550480e+13	0.000000e+00	5.947711e-01	1.034300e+15	1.539018e+15	3.078614e+14	1.603882e+04	6.216650e+03	2.848906e+03	0	9.246549e-04
1.060000e+09	2.464157e+13	0.000000e+00	5.947711e-01	1.026355e+15	1.528580e+15	3.065005e+14	1.601707e+04	6.212512e+03	2.847010e+03	0	9.141031e-04
1.070000e+09	2.379033e+13	0.000000e+00	5.947711e-01	1.018514e+15	1.518261e+15	3.051487e+14	1.599549e+04	6.208398e+03	2.845124e+03	0	9.034537e-04
1.080000e+09	2.295087e+13	0.000000e+00	5.947711e-01	1.010775e+15	1.508060e+15	3.038060e+14	1.597408e+04	6.204307e+03	2.843249e+03	0	8.926999e-04
1.090000e+09	2.212297e+13	0.000000e+00	5.947711e-01	1.003135e+15	1.497974e+15	3.024723e+14	1.595283e+04	6.200239e+03	2.841385e+03	0	8.818341e-04
1.100000e+09	2.130642e+13	0.000000e+00	5.947711e-01	9.955926e+14	1.488002e+15	3.011476e+14	1.593173e+04	6.196194e+03	2.839531e+03	0	8.708483e-04
1.110000e+09	2.050100e+13	0.000000e+00	5.947711e-01	9.881468e+14	1.478143e+15	2.998317e+14	1.591080e+04	6.192172e+03	2.837688e+03	0	8.597339e-04
1.120000e+09	1.970652e+13	0.000000e+00	5.947711e-01	9.807953e+14	1.468394e+15	2.985247e+14	1.589002e+04	6.188172e+03	2.835855e+03	0	8.484815e-04
1.130000e+09	1.892278e+13	0.000000e+00	5.947711e-01	9.735367e+14	1.458754e+15	2.972264e+14	1.586940e+04	6.184195e+03	2.834033e+03	0	8.370807e-04
1.140000e+09	1.814958e+13	0.000000e+00	5.947711e-01	9.663693e+14	1.449222e+15	2.959368e+14	1.584892e+04	6.180241e+03	2.832221e+03	0	8.255207e-04
1.150000e+09	1.738675e+13	0.000000e+00	5.947711e-01	9.592914e+14	1.439796e+15	2.946558e+14	1.582860e+04	6.176309e+03	2.830419e+03	0	8.137890e-04
1.160000e+09	1.663408e+13	0.000000e+00	5.947711e-01	9.523015e+14	1.430474e+15	2.933834e+14	1.580843e+04	6.172399e+03	2.828627e+03	0	8.018726e-04
1.170000e+09	1.589141e+13	0.000000e+00	5.947711e-01	9.453982e+14	1.421254e+15	2.921194e+14	1.578840e+04	6.168511e+03	2.826845e+03	0	7.897565e-04
1.180000e+09	1.515856e+13	0.000000e+00	5.947711e-01	9.385799e+14	1.412136e+15	2.908639e+14	1.576852e+04	6.164645e+03	2.825073e+03	0	7.774247e-04
1.190000e+09	1.443535e+13	0.000000e+00	5.947711e-01	9.318451e+14	1.403118e+15	2.896166e+14	1.574878e+04	6.160800e+03	2.823312e+03	0	7.648592e-04
1.200000e+09	1.372161e+13	0.000000e+00	5.947711e-01	9.251925e+14	1.394199e+15	2.883777e+14	1.572919e+04	6.156977e+03	2.821559e+03	0	7.520397e-04
1.210000e+09	1.301718e+13	0.000000e+00	5.947711e-01	9.186206e+14	1.385376e+15	2.871470e+14	1.570973e+04	6.153175e+03	2.819817e+03	0	7.389438e-04
1.220000e+09	1.232191e+13	0.000000e+00	5.947711e-01	9.121282e+14	1.376649e+15	2.859244e+14	1.569041e+04	6.149394e+03	2.818085e+03	0	7.255461e-04
1.230000e+09	1.163562e+13	0.000000e+00	5.947711e-01	9.057137e+14	1.368016e+15	2.847100e+14	1.567123e+04	6.145635e+03	2.816362e+03	0	7.118179e-04
1.240000e+09	1.095817e+13	0.000000e+00	5.947711e-01	8.993760e+14	1.359475e+15	2.835035e+14	1.565218e+04	6.141896e+03	2.814648e+03	0	6.977262e-04
1.250000e+09	1.028940e+13	0.000000e+00	5.947711e-01	8.931138e+14	1.351027e+15	2.823050e+14	1.563326e+04	6.138178e+03	2.812944e+03	0	6.832333e-04
1.260000e+09	9.629165e+12	0.000000e+00	5.947711e-01	8.869258e+14	1.342668e+15	2.811145e+14	1.561448e+04	6.134480e+03	2.811250e+03	0	6.682956e-04
1.270000e+09	8.977323e+12	0.000000e+00	5.947711e-01	8.808108e+14	1.334398e+15	2.799317e+14	1.559582e+04	6.130803e+03	2.809565e+03	0	6.528619e-04
1.280000e+09	8.333731e+12	0.000000e+00	5.947711e-01	8.747676e+14	1.326216e+15	2.787568e+14	1.557730e+04	6.127146e+03	2.807889e+03	0	6.368721e-04
1.290000e+09	7.698248e+12	0.000000e+00	5.947711e-01	8.687950e+14	1.318120e+15	2.775895e+14	1.555890e+04	6.123509e+03	2.806222e+03	0	6.202542e-04
1.300000e+09	7.070740e+12	0.000000e+00	5.947711e-01	8.628918e+14	1.310109e+15	2.764300e+14	1.554062e+04	6.119892e+03	2.804564e+03	0	6.029214e-04
1.310000e+09	6.451074e+12	0.000000e+00	5.947711e-01	8.570570e+14	1.302182e+15	2.752780e+14	1.552247e+04	6.116294e+03	2.802916e+03	0	5.847673e-04
1.320000e+09	5.839118e+12	0.000000e+00	5.947711e-01	8.512894e+14	1.294338e+15	2.741336e+14	1.550445e+04	6.112716e+03	2.801276e+03	0	5.656591e-04
1.330000e+09	5.234745e+12	0.000000e+00	5.947711e-01	8.455880e+14	1.286575e+15	2.729966e+14	1.548654e+04	6.109158e+03	2.799645e+03	0	5.454282e-04
1.340000e+09	4.637830e+12	0.000000e+00	5.947711e-01	8.399517e+14	1.278892e+15	2.718671e+14	1.546875e+04	6.105618e+03	2.798023e+03	0	5.238545e-04
1.350000e+09	4.048252e+12	0.000000e+00	5.947711e-01	8.343794e+14	1.271289e+15	2.707449e+14	1.545108e+04	6.102098e+03	2.796410e+03	0	5.006431e-04
1.360000e+09	3.465889e+12	0.000000e+00	5.947711e-01	8.288702e+14	1.263763e+15	2.696301e+14	1.543353e+04	6.098597e+03	2.794806e+03	0	4.753833e-04
