#t		Qconv[W]	Ri[Rp]		R*[Rp]		Qc[W]		Qm[W]		Qr[W]		Tcmb[K]		Tl[K]		Tup[K]		RiFlag		Bs[T]
0.000000e+00	2.894553e+14	0.000000e+00	5.947712e-01	3.651892e+15	2.328010e+15	5.819905e+14	2.172902e+04	6.679473e+03	2.971698e+03	0	2.073387e-03
1.000000e+07	2.850542e+14	0.000000e+00	5.947712e-01	3.614512e+15	2.406678e+15	5.787659e+14	2.166460e+04	6.715403e+03	2.987684e+03	0	2.062825e-03
2.000000e+07	2.806238e+14	0.000000e+00	5.947712e-01	3.576956e+15	2.481350e+15	5.755653e+14	2.160084e+04	6.749066e+03	3.002660e+03	0	2.052082e-03
3.000000e+07	2.761715e+14	0.000000e+00	5.947712e-01	3.539281e+15	2.551874e+15	5.723887e+14	2.153774e+04	6.780538e+03	3.016662e+03	0	2.041172e-03
4.000000e+07	2.717045e+14	0.000000e+00	5.947712e-01	3.501541e+15	2.618147e+15	5.692358e+14	2.147531e+04	6.809898e+03	3.029724e+03	0	2.030107e-03
5.000000e+07	2.672296e+14	0.000000e+00	5.947712e-01	3.463787e+15	2.680109e+15	5.661064e+14	2.141353e+04	6.837228e+03	3.041884e+03	0	2.018900e-03
6.000000e+07	2.627533e+14	0.000000e+00	5.947712e-01	3.426067e+15	2.737739e+15	5.630004e+14	2.135242e+04	6.862613e+03	3.053177e+03	0	2.007563e-03
7.000000e+07	2.582815e+14	0.000000e+00	5.947712e-01	3.388428e+15	2.791051e+15	5.599174e+14	2.129197e+04	6.886136e+03	3.063643e+03	0	1.996109e-03
8.000000e+07	2.538200e+14	0.000000e+00	5.947712e-01	3.350910e+15	2.840091e+15	5.568574e+14	2.123218e+04	6.907883e+03	3.073318e+03	0	1.984549e-03
9.000000e+07	2.493740e+14	0.000000e+00	5.947712e-01	3.313553e+15	2.884932e+15	5.538202e+14	2.117305e+04	6.927939e+03	3.082241e+03	0	1.972893e-03
1.000000e+08	2.449483e+14	0.000000e+00	5.947712e-01	3.276393e+15	2.925671e+15	5.508055e+14	2.111457e+04	6.946388e+03	3.090449e+03	0	1.961153e-03
1.100000e+08	2.405475e+14	0.000000e+00	5.947712e-01	3.239464e+15	2.962425e+15	5.478131e+14	2.105675e+04	6.963312e+03	3.097978e+03	0	1.949336e-03
1.200000e+08	2.361754e+14	0.000000e+00	5.947712e-01	3.202795e+15	2.995325e+15	5.448430e+14	2.099958e+04	6.978792e+03	3.104866e+03	0	1.937454e-03
1.300000e+08	2.318359e+14	0.000000e+00	5.947712e-01	3.166414e+15	3.024516e+15	5.418948e+14	2.094305e+04	6.992907e+03	3.111145e+03	0	1.925514e-03
1.400000e+08	2.275323e+14	0.000000e+00	5.947712e-01	3.130345e+15	3.050153e+15	5.389685e+14	2.088716e+04	7.005733e+03	3.116851e+03	0	1.913525e-03
1.500000e+08	2.232675e+14	0.000000e+00	5.947712e-01	3.094611e+15	3.072397e+15	5.360638e+14	2.083190e+04	7.017343e+03	3.122017e+03	0	1.901494e-03
1.600000e+08	2.190442e+14	0.000000e+00	5.947712e-01	3.059231e+15	3.091413e+15	5.331806e+14	2.077728e+04	7.027809e+03	3.126673e+03	0	1.889429e-03
1.700000e+08	2.148648e+14	0.000000e+00	5.947712e-01	3.024221e+15	3.107370e+15	5.303186e+14	2.072327e+04	7.037199e+03	3.130851e+03	0	1.877334e-03
1.800000e+08	2.107313e+14	0.000000e+00	5.947712e-01	2.989598e+15	3.120434e+15	5.274777e+14	2.066988e+04	7.045577e+03	3.134578e+03	0	1.865218e-03
1.900000e+08	2.066455e+14	0.000000e+00	5.947712e-01	2.955374e+15	3.130774e+15	5.246578e+14	2.061710e+04	7.053007e+03	3.137883e+03	0	1.853084e-03
2.000000e+08	2.026089e+14	0.000000e+00	5.947712e-01	2.921560e+15	3.138555e+15	5.218586e+14	2.056492e+04	7.059546e+03	3.140793e+03	0	1.840939e-03
2.100000e+08	1.986228e+14	0.000000e+00	5.947712e-01	2.888165e+15	3.143936e+15	5.190799e+14	2.051334e+04	7.065252e+03	3.143332e+03	0	1.828786e-03
2.200000e+08	1.946884e+14	0.000000e+00	5.947712e-01	2.855198e+15	3.147075e+15	5.163217e+14	2.046234e+04	7.070179e+03	3.145523e+03	0	1.816630e-03
2.300000e+08	1.908065e+14	0.000000e+00	5.947712e-01	2.822663e+15	3.148123e+15	5.135838e+14	2.041192e+04	7.074375e+03	3.147390e+03	0	1.804475e-03
2.400000e+08	1.869778e+14	0.000000e+00	5.947712e-01	2.790566e+15	3.147227e+15	5.108659e+14	2.036207e+04	7.077890e+03	3.148954e+03	0	1.792324e-03
2.500000e+08	1.832028e+14	0.000000e+00	5.947712e-01	2.758911e+15	3.144525e+15	5.081679e+14	2.031279e+04	7.080768e+03	3.150235e+03	0	1.780180e-03
2.600000e+08	1.794820e+14	0.000000e+00	5.947712e-01	2.727699e+15	3.140152e+15	5.054897e+14	2.026407e+04	7.083053e+03	3.151251e+03	0	1.768046e-03
2.700000e+08	1.758155e+14	0.000000e+00	5.947712e-01	2.696932e+15	3.134234e+15	5.028310e+14	2.021589e+04	7.084783e+03	3.152021e+03	0	1.755924e-03
2.800000e+08	1.722036e+14	0.000000e+00	5.947712e-01	2.666611e+15	3.126893e+15	5.001918e+14	2.016825e+04	7.085997e+03	3.152561e+03	0	1.743816e-03
2.900000e+08	1.686461e+14	0.000000e+00	5.947712e-01	2.636734e+15	3.118243e+15	4.975718e+14	2.012115e+04	7.086730e+03	3.152887e+03	0	1.731724e-03
3.000000e+08	1.651431e+14	0.000000e+00	5.947712e-01	2.607301e+15	3.108391e+15	4.949709e+14	2.007458e+04	7.087015e+03	3.153014e+03	0	1.719650e-03
3.100000e+08	1.616942e+14	0.000000e+00	5.947712e-01	2.578310e+15	3.097439e+15	4.923890e+14	2.002852e+04	7.086884e+03	3.152955e+03	0	1.707594e-03
3.200000e+08	1.582993e+14	0.000000e+00	5.947712e-01	2.549758e+15	3.085483e+15	4.898258e+14	1.998297e+04	7.086365e+03	3.152725e+03	0	1.695559e-03
3.300000e+08	1.549581e+14	0.000000e+00	5.947712e-01	2.521642e+15	3.072613e+15	4.872813e+14	1.993793e+04	7.085487e+03	3.152334e+03	0	1.683544e-03
3.400000e+08	1.516699e+14	0.000000e+00	5.947712e-01	2.493958e+15	3.058911e+15	4.847553e+14	1.989338e+04	7.084274e+03	3.151794e+03	0	1.671551e-03
3.500000e+08	1.484346e+14	0.000000e+00	5.947712e-01	2.466703e+15	3.044458e+15	4.822476e+14	1.984931e+04	7.082751e+03	3.151117e+03	0	1.659580e-03
3.600000e+08	1.452514e+14	0.000000e+00	5.947712e-01	2.439871e+15	3.029325e+15	4.797580e+14	1.980573e+04	7.080940e+03	3.150311e+03	0	1.647631e-03
3.700000e+08	1.421198e+14	0.000000e+00	5.947712e-01	2.413459e+15	3.013582e+15	4.772866e+14	1.976262e+04	7.078863e+03	3.149387e+03	0	1.635704e-03
3.800000e+08	1.390394e+14	0.000000e+00	5.947712e-01	2.387462e+15	2.997292e+15	4.748329e+14	1.971997e+04	7.076538e+03	3.148353e+03	0	1.623800e-03
3.900000e+08	1.360093e+14	0.000000e+00	5.947712e-01	2.361873e+15	2.980513e+15	4.723971e+14	1.967778e+04	7.073985e+03	3.147217e+03	0	1.611917e-03
4.000000e+08	1.330290e+14	0.000000e+00	5.947712e-01	2.336688e+15	2.963302e+15	4.699788e+14	1.963605e+04	7.071220e+03	3.145986e+03	0	1.600057e-03
4.100000e+08	1.300978e+14	0.000000e+00	5.947712e-01	2.311902e+15	2.945708e+15	4.675779e+14	1.959475e+04	7.068259e+03	3.144669e+03	0	1.588217e-03
4.200000e+08	1.272149e+14	0.000000e+00	5.947712e-01	2.287507e+15	2.927780e+15	4.651944e+14	1.955389e+04	7.065117e+03	3.143271e+03	0	1.576398e-03
4.300000e+08	1.243798e+14	0.000000e+00	5.947712e-01	2.263499e+15	2.909560e+15	4.628280e+14	1.951347e+04	7.061809e+03	3.141799e+03	0	1.564599e-03
4.400000e+08	1.215915e+14	0.000000e+00	5.947712e-01	2.239872e+15	2.891089e+15	4.604787e+14	1.947346e+04	7.058346e+03	3.140259e+03	0	1.552819e-03
4.500000e+08	1.188494e+14	0.000000e+00	5.947712e-01	2.216620e+15	2.872405e+15	4.581462e+14	1.943387e+04	7.054743e+03	3.138656e+03	0	1.541058e-03
4.600000e+08	1.161528e+14	0.000000e+00	5.947712e-01	2.193735e+15	2.853542e+15	4.558305e+14	1.939469e+04	7.051009e+03	3.136995e+03	0	1.529313e-03
4.700000e+08	1.135009e+14	0.000000e+00	5.947712e-01	2.171214e+15	2.834531e+15	4.535314e+14	1.935591e+04	7.047155e+03	3.135280e+03	0	1.517585e-03
4.800000e+08	1.108929e+14	0.000000e+00	5.947712e-01	2.149049e+15	2.815403e+15	4.512487e+14	1.931753e+04	7.043191e+03	3.133517e+03	0	1.505871e-03
4.900000e+08	1.083281e+14	0.000000e+00	5.947712e-01	2.127234e+15	2.796183e+15	4.489824e+14	1.927954e+04	7.039127e+03	3.131708e+03	0	1.494171e-03
5.000000e+08	1.058058e+14	0.000000e+00	5.947712e-01	2.105763e+15	2.776897e+15	4.467324e+14	1.924194e+04	7.034971e+03	3.129859e+03	0	1.482483e-03
5.100000e+08	1.033251e+14	0.000000e+00	5.947712e-01	2.084631e+15	2.757567e+15	4.444983e+14	1.920471e+04	7.030731e+03	3.127973e+03	0	1.470805e-03
5.200000e+08	1.008854e+14	0.000000e+00	5.947712e-01	2.063831e+15	2.738215e+15	4.422803e+14	1.916785e+04	7.026414e+03	3.126052e+03	0	1.459137e-03
5.300000e+08	9.848588e+13	0.000000e+00	5.947712e-01	2.043357e+15	2.718858e+15	4.400780e+14	1.913137e+04	7.022028e+03	3.124101e+03	0	1.447475e-03
5.400000e+08	9.612581e+13	0.000000e+00	5.947712e-01	2.023204e+15	2.699515e+15	4.378914e+14	1.909524e+04	7.017579e+03	3.122121e+03	0	1.435820e-03
5.500000e+08	9.380448e+13	0.000000e+00	5.947712e-01	2.003365e+15	2.680202e+15	4.357204e+14	1.905947e+04	7.013072e+03	3.120117e+03	0	1.424167e-03
5.600000e+08	9.152116e+13	0.000000e+00	5.947712e-01	1.983835e+15	2.660933e+15	4.335649e+14	1.902404e+04	7.008514e+03	3.118089e+03	0	1.412517e-03
5.700000e+08	8.927515e+13	0.000000e+00	5.947712e-01	1.964607e+15	2.641722e+15	4.314246e+14	1.898896e+04	7.003911e+03	3.116041e+03	0	1.400866e-03
5.800000e+08	8.706573e+13	0.000000e+00	5.947712e-01	1.945678e+15	2.622579e+15	4.292995e+14	1.895422e+04	6.999266e+03	3.113974e+03	0	1.389213e-03
5.900000e+08	8.489222e+13	0.000000e+00	5.947712e-01	1.927040e+15	2.603518e+15	4.271895e+14	1.891982e+04	6.994584e+03	3.111891e+03	0	1.377556e-03
6.000000e+08	8.275394e+13	0.000000e+00	5.947712e-01	1.908689e+15	2.584546e+15	4.250944e+14	1.888574e+04	6.989870e+03	3.109794e+03	0	1.365891e-03
6.100000e+08	8.065020e+13	0.000000e+00	5.947712e-01	1.890618e+15	2.565674e+15	4.230142e+14	1.885199e+04	6.985128e+03	3.107684e+03	0	1.354217e-03
6.200000e+08	7.858034e+13	0.000000e+00	5.947712e-01	1.872824e+15	2.546910e+15	4.209486e+14	1.881855e+04	6.980361e+03	3.105563e+03	0	1.342532e-03
6.300000e+08	7.654372e+13	0.000000e+00	5.947712e-01	1.855300e+15	2.528260e+15	4.188976e+14	1.878543e+04	6.975572e+03	3.103433e+03	0	1.330831e-03
6.400000e+08	7.453970e+13	0.000000e+00	5.947712e-01	1.838041e+15	2.509731e+15	4.168611e+14	1.875262e+04	6.970766e+03	3.101295e+03	0	1.319114e-03
6.500000e+08	7.256764e+13	0.000000e+00	5.947712e-01	1.821042e+15	2.491329e+15	4.148389e+14	1.872011e+04	6.965945e+03	3.099150e+03	0	1.307377e-03
6.600000e+08	7.062692e+13	0.000000e+00	5.947712e-01	1.804299e+15	2.473060e+15	4.128310e+14	1.868790e+04	6.961111e+03	3.096999e+03	0	1.295617e-03
6.700000e+08	6.871694e+13	0.000000e+00	5.947712e-01	1.787807e+15	2.454927e+15	4.108371e+14	1.865598e+04	6.956268e+03	3.094844e+03	0	1.283831e-03
6.800000e+08	6.683711e+13	0.000000e+00	5.947712e-01	1.771560e+15	2.436935e+15	4.088573e+14	1.862436e+04	6.951417e+03	3.092686e+03	0	1.272016e-03
6.900000e+08	6.498683e+13	0.000000e+00	5.947712e-01	1.755554e+15	2.419088e+15	4.068914e+14	1.859302e+04	6.946562e+03	3.090526e+03	0	1.260168e-03
7.000000e+08	6.316553e+13	0.000000e+00	5.947712e-01	1.739785e+15	2.401388e+15	4.049392e+14	1.856197e+04	6.941704e+03	3.088365e+03	0	1.248284e-03
7.100000e+08	6.137266e+13	0.000000e+00	5.947712e-01	1.724248e+15	2.383839e+15	4.030008e+14	1.853119e+04	6.936844e+03	3.086203e+03	0	1.236360e-03
7.200000e+08	5.960765e+13	0.000000e+00	5.947712e-01	1.708938e+15	2.366442e+15	4.010758e+14	1.850069e+04	6.931986e+03	3.084041e+03	0	1.224392e-03
7.300000e+08	5.786998e+13	0.000000e+00	5.947712e-01	1.693852e+15	2.349200e+15	3.991644e+14	1.847046e+04	6.927130e+03	3.081881e+03	0	1.212377e-03
7.400000e+08	5.615911e+13	0.000000e+00	5.947712e-01	1.678985e+15	2.332114e+15	3.972662e+14	1.844049e+04	6.922278e+03	3.079722e+03	0	1.200310e-03
7.500000e+08	5.447452e+13	0.000000e+00	5.947712e-01	1.664332e+15	2.315185e+15	3.953813e+14	1.841079e+04	6.917432e+03	3.077566e+03	0	1.188186e-03
7.600000e+08	5.281571e+13	0.000000e+00	5.947712e-01	1.649890e+15	2.298415e+15	3.935095e+14	1.838135e+04	6.912592e+03	3.075413e+03	0	1.176001e-03
7.700000e+08	5.118218e+13	0.000000e+00	5.947712e-01	1.635656e+15	2.281804e+15	3.916508e+14	1.835216e+04	6.907761e+03	3.073263e+03	0	1.163749e-03
7.800000e+08	4.957343e+13	0.000000e+00	5.947712e-01	1.621624e+15	2.265352e+15	3.898050e+14	1.832322e+04	6.902939e+03	3.071118e+03	0	1.151426e-03
7.900000e+08	4.798901e+13	0.000000e+00	5.947712e-01	1.607791e+15	2.249061e+15	3.879720e+14	1.829452e+04	6.898127e+03	3.068977e+03	0	1.139026e-03
8.000000e+08	4.642843e+13	0.000000e+00	5.947712e-01	1.594154e+15	2.232929e+15	3.861517e+14	1.826608e+04	6.893326e+03	3.066842e+03	0	1.126543e-03
8.100000e+08	4.489124e+13	0.000000e+00	5.947712e-01	1.580708e+15	2.216958e+15	3.843440e+14	1.823787e+04	6.888538e+03	3.064711e+03	0	1.113971e-03
8.200000e+08	4.337700e+13	0.000000e+00	5.947712e-01	1.567451e+15	2.201147e+15	3.825488e+14	1.820990e+04	6.883763e+03	3.062587e+03	0	1.101302e-03
8.300000e+08	4.188527e+13	0.000000e+00	5.947712e-01	1.554378e+15	2.185495e+15	3.807660e+14	1.818216e+04	6.879002e+03	3.060469e+03	0	1.088530e-03
8.400000e+08	4.041562e+13	0.000000e+00	5.947712e-01	1.541486e+15	2.170003e+15	3.789956e+14	1.815466e+04	6.874255e+03	3.058357e+03	0	1.075647e-03
8.500000e+08	3.896763e+13	0.000000e+00	5.947712e-01	1.528773e+15	2.154668e+15	3.772374e+14	1.812738e+04	6.869524e+03	3.056252e+03	0	1.062644e-03
8.600000e+08	3.754089e+13	0.000000e+00	5.947712e-01	1.516234e+15	2.139492e+15	3.754913e+14	1.810033e+04	6.864808e+03	3.054154e+03	0	1.049514e-03
8.700000e+08	3.613501e+13	0.000000e+00	5.947712e-01	1.503866e+15	2.124472e+15	3.737572e+14	1.807350e+04	6.860109e+03	3.052063e+03	0	1.036245e-03
8.800000e+08	3.474958e+13	0.000000e+00	5.947712e-01	1.491667e+15	2.109608e+15	3.720350e+14	1.804688e+04	6.855427e+03	3.049980e+03	0	1.022829e-03
8.900000e+08	3.338423e+13	0.000000e+00	5.947712e-01	1.479632e+15	2.094899e+15	3.703247e+14	1.802048e+04	6.850762e+03	3.047905e+03	0	1.009254e-03
9.000000e+08	3.203859e+13	0.000000e+00	5.947712e-01	1.467760e+15	2.080344e+15	3.686261e+14	1.799430e+04	6.846115e+03	3.045837e+03	0	9.955070e-04
9.100000e+08	3.071227e+13	0.000000e+00	5.947712e-01	1.456047e+15	2.065941e+15	3.669391e+14	1.796832e+04	6.841486e+03	3.043778e+03	0	9.815758e-04
9.200000e+08	2.940493e+13	0.000000e+00	5.947712e-01	1.444491e+15	2.051690e+15	3.652637e+14	1.794255e+04	6.836875e+03	3.041727e+03	0	9.674457e-04
9.300000e+08	2.811622e+13	0.000000e+00	5.947712e-01	1.433088e+15	2.037589e+15	3.635998e+14	1.791698e+04	6.832284e+03	3.039684e+03	0	9.531008e-04
9.400000e+08	2.684579e+13	0.000000e+00	5.947712e-01	1.421835e+15	2.023636e+15	3.619472e+14	1.789162e+04	6.827712e+03	3.037650e+03	0	9.385237e-04
9.500000e+08	2.559330e+13	0.000000e+00	5.947712e-01	1.410731e+15	2.009832e+15	3.603059e+14	1.786645e+04	6.823159e+03	3.035624e+03	0	9.236951e-04
9.600000e+08	2.435842e+13	0.000000e+00	5.947712e-01	1.399772e+15	1.996173e+15	3.586758e+14	1.784148e+04	6.818625e+03	3.033607e+03	0	9.085935e-04
9.700000e+08	2.314084e+13	0.000000e+00	5.947712e-01	1.388956e+15	1.982660e+15	3.570569e+14	1.781671e+04	6.814112e+03	3.031599e+03	0	8.931950e-04
9.800000e+08	2.194024e+13	0.000000e+00	5.947712e-01	1.378280e+15	1.969289e+15	3.554489e+14	1.779212e+04	6.809619e+03	3.029600e+03	0	8.774728e-04
9.900000e+08	2.075631e+13	0.000000e+00	5.947712e-01	1.367742e+15	1.956060e+15	3.538518e+14	1.776772e+04	6.805146e+03	3.027610e+03	0	8.613968e-04
1.000000e+09	1.958875e+13	0.000000e+00	5.947712e-01	1.357340e+15	1.942972e+15	3.522656e+14	1.774351e+04	6.800693e+03	3.025629e+03	0	8.449327e-04
1.010000e+09	1.843727e+13	0.000000e+00	5.947712e-01	1.347070e+15	1.930022e+15	3.506902e+14	1.771949e+04	6.796260e+03	3.023657e+03	0	8.280414e-04
1.020000e+09	1.730157e+13	0.000000e+00	5.947712e-01	1.336931e+15	1.917210e+15	3.491254e+14	1.769564e+04	6.791849e+03	3.021694e+03	0	8.106779e-04
1.030000e+09	1.618137e+13	0.000000e+00	5.947712e-01	1.326921e+15	1.904534e+15	3.475712e+14	1.767197e+04	6.787458e+03	3.019741e+03	0	7.927903e-04
1.040000e+09	1.507640e+13	0.000000e+00	5.947712e-01	1.317036e+15	1.891992e+15	3.460275e+14	1.764848e+04	6.783087e+03	3.017796e+03	0	7.743176e-04
1.050000e+09	1.398639e+13	0.000000e+00	5.947712e-01	1.307276e+15	1.879582e+15	3.444943e+14	1.762517e+04	6.778737e+03	3.015861e+03	0	7.551881e-04
1.060000e+09	1.291108e+13	0.000000e+00	5.947712e-01	1.297638e+15	1.867304e+15	3.429714e+14	1.760202e+04	6.774409e+03	3.013935e+03	0	7.353160e-04
1.070000e+09	1.185020e+13	0.000000e+00	5.947712e-01	1.288119e+15	1.855155e+15	3.414587e+14	1.757905e+04	6.770101e+03	3.012019e+03	0	7.145979e-04
1.080000e+09	1.080350e+13	0.000000e+00	5.947712e-01	1.278718e+15	1.843135e+15	3.399562e+14	1.755625e+04	6.765813e+03	3.010111e+03	0	6.929065e-04
1.090000e+09	9.770728e+12	0.000000e+00	5.947712e-01	1.269433e+15	1.831241e+15	3.384639e+14	1.753361e+04	6.761547e+03	3.008213e+03	0	6.700834e-04
1.100000e+09	8.751652e+12	0.000000e+00	5.947712e-01	1.260262e+15	1.819472e+15	3.369815e+14	1.751113e+04	6.757302e+03	3.006324e+03	0	6.459267e-04
1.110000e+09	7.746028e+12	0.000000e+00	5.947712e-01	1.251202e+15	1.807827e+15	3.355091e+14	1.748882e+04	6.753077e+03	3.004445e+03	0	6.201731e-04
1.120000e+09	6.753625e+12	0.000000e+00	5.947712e-01	1.242253e+15	1.796303e+15	3.340465e+14	1.746667e+04	6.748873e+03	3.002574e+03	0	5.924689e-04
1.130000e+09	5.774215e+12	0.000000e+00	5.947712e-01	1.233412e+15	1.784901e+15	3.325938e+14	1.744467e+04	6.744690e+03	3.000713e+03	0	5.623209e-04
1.140000e+09	4.807575e+12	0.000000e+00	5.947712e-01	1.224677e+15	1.773617e+15	3.311507e+14	1.742283e+04	6.740528e+03	2.998862e+03	0	5.290076e-04
1.150000e+09	3.853487e+12	0.000000e+00	5.947712e-01	1.216047e+15	1.762451e+15	3.297173e+14	1.740115e+04	6.736386e+03	2.997019e+03	0	4.914030e-04
1.160000e+09	2.911737e+12	0.000000e+00	5.947712e-01	1.207519e+15	1.751401e+15	3.282935e+14	1.737962e+04	6.732265e+03	2.995185e+03	0	4.475799e-04
1.170000e+09	1.982116e+12	0.000000e+00	5.947712e-01	1.199093e+15	1.740465e+15	3.268791e+14	1.735824e+04	6.728165e+03	2.993361e+03	0	3.937279e-04
1.180000e+09	1.064419e+12	0.000000e+00	5.947712e-01	1.190766e+15	1.729643e+15	3.254741e+14	1.733700e+04	6.724085e+03	2.991546e+03	0	3.200301e-04
1.190000e+09	1.584460e+11	0.000000e+00	5.947712e-01	1.182537e+15	1.718932e+15	3.240785e+14	1.731592e+04	6.720025e+03	2.989740e+03	0	1.696082e-04
1.200000e+09	-7.360002e+11	0.000000e+00	5.947712e-01	1.174405e+15	1.708331e+15	3.226922e+14	1.729498e+04	6.715986e+03	2.987943e+03	0	nan
