#t		Qconv[W]	Ri[Rp]		R*[Rp]		Qc[W]		Qm[W]		Qr[W]		Tcmb[K]		Tl[K]		Tup[K]		RiFlag		Bs[T]
0.000000e+00	1.308575e+11	0.000000e+00	5.477387e-01	5.200436e+12	7.861195e+14	6.422806e+13	3.508135e+03	2.695110e+03	1.967779e+03	0	1.856945e-04
1.000000e+07	1.355420e+11	0.000000e+00	5.477387e-01	5.374169e+12	6.651741e+14	6.387219e+13	3.506147e+03	2.602115e+03	1.899880e+03	0	1.878844e-04
2.000000e+07	1.374118e+11	0.000000e+00	5.477387e-01	5.443391e+12	5.729640e+14	6.351898e+13	3.504093e+03	2.524112e+03	1.842928e+03	0	1.887444e-04
3.000000e+07	1.376044e+11	0.000000e+00	5.477387e-01	5.450338e+12	5.009687e+14	6.316841e+13	3.502012e+03	2.457662e+03	1.794411e+03	0	1.888326e-04
4.000000e+07	1.367936e+11	0.000000e+00	5.477387e-01	5.420034e+12	4.435995e+14	6.282046e+13	3.499928e+03	2.400311e+03	1.752537e+03	0	1.884610e-04
5.000000e+07	1.353876e+11	0.000000e+00	5.477387e-01	5.367630e+12	3.970752e+14	6.247510e+13	3.497855e+03	2.350262e+03	1.715995e+03	0	1.878131e-04
6.000000e+07	1.336381e+11	0.000000e+00	5.477387e-01	5.302472e+12	3.587663e+14	6.213232e+13	3.495803e+03	2.306169e+03	1.683801e+03	0	1.870006e-04
7.000000e+07	1.317025e+11	0.000000e+00	5.477387e-01	5.230411e+12	3.267991e+14	6.179209e+13	3.493775e+03	2.267001e+03	1.655204e+03	0	1.860934e-04
8.000000e+07	1.296805e+11	0.000000e+00	5.477387e-01	5.155142e+12	2.998093e+14	6.145439e+13	3.491775e+03	2.231958e+03	1.629618e+03	0	1.851361e-04
9.000000e+07	1.276352e+11	0.000000e+00	5.477387e-01	5.079012e+12	2.767843e+14	6.111920e+13	3.489804e+03	2.200407e+03	1.606582e+03	0	1.841576e-04
1.000000e+08	1.256065e+11	0.000000e+00	5.477387e-01	5.003502e+12	2.569590e+14	6.078650e+13	3.487862e+03	2.171840e+03	1.585724e+03	0	1.831767e-04
1.100000e+08	1.236194e+11	0.000000e+00	5.477387e-01	4.929535e+12	2.397469e+14	6.045627e+13	3.485948e+03	2.145847e+03	1.566746e+03	0	1.822056e-04
1.200000e+08	1.216887e+11	0.000000e+00	5.477387e-01	4.857669e+12	2.246915e+14	6.012849e+13	3.484063e+03	2.122089e+03	1.549399e+03	0	1.812520e-04
1.300000e+08	1.198231e+11	0.000000e+00	5.477387e-01	4.788223e+12	2.114335e+14	5.980313e+13	3.482205e+03	2.100286e+03	1.533480e+03	0	1.803210e-04
1.400000e+08	1.180270e+11	0.000000e+00	5.477387e-01	4.721358e+12	1.996865e+14	5.948018e+13	3.480373e+03	2.080205e+03	1.518818e+03	0	1.794155e-04
1.500000e+08	1.163018e+11	0.000000e+00	5.477387e-01	4.657127e+12	1.892197e+14	5.915962e+13	3.478567e+03	2.061647e+03	1.505269e+03	0	1.785370e-04
1.600000e+08	1.146471e+11	0.000000e+00	5.477387e-01	4.595520e+12	1.798458e+14	5.884143e+13	3.476786e+03	2.044446e+03	1.492710e+03	0	1.776863e-04
1.700000e+08	1.130615e+11	0.000000e+00	5.477387e-01	4.536478e+12	1.714110e+14	5.852558e+13	3.475028e+03	2.028457e+03	1.481036e+03	0	1.768633e-04
1.800000e+08	1.115427e+11	0.000000e+00	5.477387e-01	4.479919e+12	1.637880e+14	5.821207e+13	3.473293e+03	2.013557e+03	1.470157e+03	0	1.760678e-04
1.900000e+08	1.100880e+11	0.000000e+00	5.477387e-01	4.425742e+12	1.568710e+14	5.790086e+13	3.471579e+03	1.999639e+03	1.459995e+03	0	1.752991e-04
2.000000e+08	1.086945e+11	0.000000e+00	5.477387e-01	4.373838e+12	1.505712e+14	5.759194e+13	3.469886e+03	1.986609e+03	1.450481e+03	0	1.745563e-04
2.100000e+08	1.073591e+11	0.000000e+00	5.477387e-01	4.324095e+12	1.448134e+14	5.728529e+13	3.468213e+03	1.974386e+03	1.441557e+03	0	1.738385e-04
2.200000e+08	1.060789e+11	0.000000e+00	5.477387e-01	4.276400e+12	1.395340e+14	5.698090e+13	3.466559e+03	1.962897e+03	1.433168e+03	0	1.731447e-04
2.300000e+08	1.048507e+11	0.000000e+00	5.477387e-01	4.230642e+12	1.346784e+14	5.667874e+13	3.464923e+03	1.952079e+03	1.425270e+03	0	1.724739e-04
2.400000e+08	1.036719e+11	0.000000e+00	5.477387e-01	4.186716e+12	1.302000e+14	5.637880e+13	3.463304e+03	1.941876e+03	1.417820e+03	0	1.718251e-04
2.500000e+08	1.025395e+11	0.000000e+00	5.477387e-01	4.144517e+12	1.260585e+14	5.608105e+13	3.461703e+03	1.932237e+03	1.410783e+03	0	1.711972e-04
2.600000e+08	1.014511e+11	0.000000e+00	5.477387e-01	4.103950e+12	1.222188e+14	5.578548e+13	3.460117e+03	1.923118e+03	1.404125e+03	0	1.705893e-04
2.700000e+08	1.004040e+11	0.000000e+00	5.477387e-01	4.064922e+12	1.186504e+14	5.549207e+13	3.458547e+03	1.914479e+03	1.397817e+03	0	1.700004e-04
2.800000e+08	9.939601e+10	0.000000e+00	5.477387e-01	4.027345e+12	1.153269e+14	5.520081e+13	3.456992e+03	1.906282e+03	1.391833e+03	0	1.694296e-04
2.900000e+08	9.842487e+10	0.000000e+00	5.477387e-01	3.991138e+12	1.122247e+14	5.491167e+13	3.455451e+03	1.898497e+03	1.386148e+03	0	1.688760e-04
3.000000e+08	9.748853e+10	0.000000e+00	5.477387e-01	3.956225e+12	1.093233e+14	5.462464e+13	3.453924e+03	1.891092e+03	1.380742e+03	0	1.683387e-04
3.100000e+08	9.658505e+10	0.000000e+00	5.477387e-01	3.922533e+12	1.066046e+14	5.433970e+13	3.452410e+03	1.884042e+03	1.375594e+03	0	1.678171e-04
3.200000e+08	9.571261e+10	0.000000e+00	5.477387e-01	3.889994e+12	1.040523e+14	5.405683e+13	3.450910e+03	1.877321e+03	1.370687e+03	0	1.673103e-04
3.300000e+08	9.486950e+10	0.000000e+00	5.477387e-01	3.858546e+12	1.016522e+14	5.377602e+13	3.449421e+03	1.870908e+03	1.366005e+03	0	1.668175e-04
3.400000e+08	9.405415e+10	0.000000e+00	5.477387e-01	3.828130e+12	9.939139e+13	5.349725e+13	3.447945e+03	1.864783e+03	1.361533e+03	0	1.663383e-04
3.500000e+08	9.326505e+10	0.000000e+00	5.477387e-01	3.798689e+12	9.725846e+13	5.322050e+13	3.446480e+03	1.858926e+03	1.357257e+03	0	1.658718e-04
3.600000e+08	9.250081e+10	0.000000e+00	5.477387e-01	3.770173e+12	9.524311e+13	5.294576e+13	3.445027e+03	1.853322e+03	1.353164e+03	0	1.654175e-04
3.700000e+08	9.176014e+10	0.000000e+00	5.477387e-01	3.742533e+12	9.333612e+13	5.267301e+13	3.443584e+03	1.847953e+03	1.349245e+03	0	1.649748e-04
3.800000e+08	9.104180e+10	0.000000e+00	5.477387e-01	3.715722e+12	9.152913e+13	5.240223e+13	3.442152e+03	1.842806e+03	1.345487e+03	0	1.645431e-04
3.900000e+08	9.034465e+10	0.000000e+00	5.477387e-01	3.689700e+12	8.981462e+13	5.213341e+13	3.440730e+03	1.837868e+03	1.341881e+03	0	1.641221e-04
4.000000e+08	8.966762e+10	0.000000e+00	5.477387e-01	3.664426e+12	8.818577e+13	5.186652e+13	3.439319e+03	1.833125e+03	1.338418e+03	0	1.637111e-04
4.100000e+08	8.900970e+10	0.000000e+00	5.477387e-01	3.639862e+12	8.663640e+13	5.160157e+13	3.437916e+03	1.828567e+03	1.335091e+03	0	1.633097e-04
4.200000e+08	8.836996e+10	0.000000e+00	5.477387e-01	3.615973e+12	8.516086e+13	5.133852e+13	3.436524e+03	1.824184e+03	1.331890e+03	0	1.629175e-04
4.300000e+08	8.774749e+10	0.000000e+00	5.477387e-01	3.592727e+12	8.375403e+13	5.107737e+13	3.435140e+03	1.819965e+03	1.328810e+03	0	1.625341e-04
4.400000e+08	8.714148e+10	0.000000e+00	5.477387e-01	3.570093e+12	8.241123e+13	5.081810e+13	3.433765e+03	1.815901e+03	1.325843e+03	0	1.621590e-04
4.500000e+08	8.655114e+10	0.000000e+00	5.477387e-01	3.548042e+12	8.112818e+13	5.056069e+13	3.432399e+03	1.811985e+03	1.322983e+03	0	1.617920e-04
4.600000e+08	8.597573e+10	0.000000e+00	5.477387e-01	3.526546e+12	7.990095e+13	5.030513e+13	3.431042e+03	1.808207e+03	1.320225e+03	0	1.614327e-04
4.700000e+08	8.541456e+10	0.000000e+00	5.477387e-01	3.505579e+12	7.872594e+13	5.005140e+13	3.429692e+03	1.804561e+03	1.317563e+03	0	1.610807e-04
4.800000e+08	8.486698e+10	0.000000e+00	5.477387e-01	3.485118e+12	7.759984e+13	4.979949e+13	3.428351e+03	1.801040e+03	1.314992e+03	0	1.607357e-04
4.900000e+08	8.433239e+10	0.000000e+00	5.477387e-01	3.465139e+12	7.651961e+13	4.954938e+13	3.427017e+03	1.797637e+03	1.312507e+03	0	1.603975e-04
5.000000e+08	8.381019e+10	0.000000e+00	5.477387e-01	3.445622e+12	7.548244e+13	4.930107e+13	3.425691e+03	1.794346e+03	1.310105e+03	0	1.600658e-04
5.100000e+08	8.329985e+10	0.000000e+00	5.477387e-01	3.426545e+12	7.448573e+13	4.905452e+13	3.424373e+03	1.791163e+03	1.307780e+03	0	1.597402e-04
5.200000e+08	8.280085e+10	0.000000e+00	5.477387e-01	3.407890e+12	7.352710e+13	4.880974e+13	3.423061e+03	1.788080e+03	1.305530e+03	0	1.594206e-04
5.300000e+08	8.231270e+10	0.000000e+00	5.477387e-01	3.389639e+12	7.260433e+13	4.856670e+13	3.421757e+03	1.785095e+03	1.303350e+03	0	1.591067e-04
5.400000e+08	8.183494e+10	0.000000e+00	5.477387e-01	3.371775e+12	7.171535e+13	4.832539e+13	3.420460e+03	1.782201e+03	1.301237e+03	0	1.587983e-04
5.500000e+08	8.136715e+10	0.000000e+00	5.477387e-01	3.354281e+12	7.085827e+13	4.808580e+13	3.419170e+03	1.779395e+03	1.299188e+03	0	1.584951e-04
5.600000e+08	8.090891e+10	0.000000e+00	5.477387e-01	3.337142e+12	7.003131e+13	4.784791e+13	3.417886e+03	1.776672e+03	1.297200e+03	0	1.581970e-04
5.700000e+08	8.045983e+10	0.000000e+00	5.477387e-01	3.320344e+12	6.923282e+13	4.761171e+13	3.416609e+03	1.774029e+03	1.295270e+03	0	1.579038e-04
5.800000e+08	8.001954e+10	0.000000e+00	5.477387e-01	3.303873e+12	6.846128e+13	4.737719e+13	3.415338e+03	1.771461e+03	1.293396e+03	0	1.576152e-04
5.900000e+08	7.958770e+10	0.000000e+00	5.477387e-01	3.287716e+12	6.771524e+13	4.714433e+13	3.414074e+03	1.768966e+03	1.291574e+03	0	1.573312e-04
6.000000e+08	7.916397e+10	0.000000e+00	5.477387e-01	3.271861e+12	6.699337e+13	4.691312e+13	3.412816e+03	1.766540e+03	1.289803e+03	0	1.570515e-04
6.100000e+08	7.874804e+10	0.000000e+00	5.477387e-01	3.256297e+12	6.629444e+13	4.668354e+13	3.411564e+03	1.764180e+03	1.288080e+03	0	1.567759e-04
6.200000e+08	7.833962e+10	0.000000e+00	5.477387e-01	3.241011e+12	6.561727e+13	4.645559e+13	3.410318e+03	1.761884e+03	1.286403e+03	0	1.565044e-04
6.300000e+08	7.793841e+10	0.000000e+00	5.477387e-01	3.225994e+12	6.496077e+13	4.622924e+13	3.409077e+03	1.759647e+03	1.284770e+03	0	1.562368e-04
6.400000e+08	7.754416e+10	0.000000e+00	5.477387e-01	3.211236e+12	6.432393e+13	4.600449e+13	3.407843e+03	1.757469e+03	1.283180e+03	0	1.559729e-04
6.500000e+08	7.715661e+10	0.000000e+00	5.477387e-01	3.196727e+12	6.370577e+13	4.578133e+13	3.406614e+03	1.755346e+03	1.281629e+03	0	1.557126e-04
6.600000e+08	7.677550e+10	0.000000e+00	5.477387e-01	3.182458e+12	6.310542e+13	4.555973e+13	3.405391e+03	1.753276e+03	1.280118e+03	0	1.554559e-04
6.700000e+08	7.640063e+10	0.000000e+00	5.477387e-01	3.168421e+12	6.252202e+13	4.533970e+13	3.404173e+03	1.751257e+03	1.278644e+03	0	1.552024e-04
6.800000e+08	7.603175e+10	0.000000e+00	5.477387e-01	3.154607e+12	6.195478e+13	4.512120e+13	3.402960e+03	1.749286e+03	1.277205e+03	0	1.549522e-04
6.900000e+08	7.566867e+10	0.000000e+00	5.477387e-01	3.141009e+12	6.140295e+13	4.490425e+13	3.401753e+03	1.747362e+03	1.275800e+03	0	1.547052e-04
7.000000e+08	7.531119e+10	0.000000e+00	5.477387e-01	3.127619e+12	6.086584e+13	4.468881e+13	3.400551e+03	1.745483e+03	1.274428e+03	0	1.544612e-04
7.100000e+08	7.495911e+10	0.000000e+00	5.477387e-01	3.114430e+12	6.034277e+13	4.447488e+13	3.399354e+03	1.743647e+03	1.273088e+03	0	1.542201e-04
7.200000e+08	7.461225e+10	0.000000e+00	5.477387e-01	3.101436e+12	5.983314e+13	4.426244e+13	3.398162e+03	1.741852e+03	1.271777e+03	0	1.539819e-04
7.300000e+08	7.427044e+10	0.000000e+00	5.477387e-01	3.088630e+12	5.933634e+13	4.405149e+13	3.396975e+03	1.740097e+03	1.270496e+03	0	1.537464e-04
7.400000e+08	7.393352e+10	0.000000e+00	5.477387e-01	3.076005e+12	5.885184e+13	4.384202e+13	3.395793e+03	1.738380e+03	1.269242e+03	0	1.535135e-04
7.500000e+08	7.360133e+10	0.000000e+00	5.477387e-01	3.063557e+12	5.837909e+13	4.363400e+13	3.394616e+03	1.736699e+03	1.268015e+03	0	1.532833e-04
7.600000e+08	7.327372e+10	0.000000e+00	5.477387e-01	3.051279e+12	5.791761e+13	4.342743e+13	3.393443e+03	1.735054e+03	1.266814e+03	0	1.530555e-04
7.700000e+08	7.295054e+10	0.000000e+00	5.477387e-01	3.039166e+12	5.746692e+13	4.322230e+13	3.392275e+03	1.733443e+03	1.265637e+03	0	1.528301e-04
7.800000e+08	7.263166e+10	0.000000e+00	5.477387e-01	3.027213e+12	5.702659e+13	4.301860e+13	3.391112e+03	1.731864e+03	1.264485e+03	0	1.526071e-04
7.900000e+08	7.231694e+10	0.000000e+00	5.477387e-01	3.015416e+12	5.659619e+13	4.281631e+13	3.389954e+03	1.730317e+03	1.263355e+03	0	1.523864e-04
8.000000e+08	7.200626e+10	0.000000e+00	5.477387e-01	3.003768e+12	5.617533e+13	4.261542e+13	3.388800e+03	1.728800e+03	1.262247e+03	0	1.521679e-04
8.100000e+08	7.169950e+10	0.000000e+00	5.477387e-01	2.992267e+12	5.576363e+13	4.241593e+13	3.387650e+03	1.727312e+03	1.261161e+03	0	1.519515e-04
8.200000e+08	7.139655e+10	0.000000e+00	5.477387e-01	2.980907e+12	5.536073e+13	4.221781e+13	3.386505e+03	1.725852e+03	1.260095e+03	0	1.517371e-04
8.300000e+08	7.109729e+10	0.000000e+00	5.477387e-01	2.969685e+12	5.496629e+13	4.202107e+13	3.385364e+03	1.724419e+03	1.259049e+03	0	1.515248e-04
8.400000e+08	7.080161e+10	0.000000e+00	5.477387e-01	2.958596e+12	5.457999e+13	4.182569e+13	3.384227e+03	1.723012e+03	1.258021e+03	0	1.513145e-04
8.500000e+08	7.050942e+10	0.000000e+00	5.477387e-01	2.947637e+12	5.420152e+13	4.163165e+13	3.383095e+03	1.721630e+03	1.257013e+03	0	1.511061e-04
8.600000e+08	7.022063e+10	0.000000e+00	5.477387e-01	2.936805e+12	5.383059e+13	4.143895e+13	3.381967e+03	1.720273e+03	1.256022e+03	0	1.508995e-04
8.700000e+08	6.993512e+10	0.000000e+00	5.477387e-01	2.926095e+12	5.346692e+13	4.124758e+13	3.380843e+03	1.718939e+03	1.255048e+03	0	1.506947e-04
8.800000e+08	6.965283e+10	0.000000e+00	5.477387e-01	2.915505e+12	5.311026e+13	4.105752e+13	3.379723e+03	1.717627e+03	1.254090e+03	0	1.504917e-04
8.900000e+08	6.937365e+10	0.000000e+00	5.477387e-01	2.905031e+12	5.276034e+13	4.086877e+13	3.378607e+03	1.716338e+03	1.253148e+03	0	1.502903e-04
9.000000e+08	6.909752e+10	0.000000e+00	5.477387e-01	2.894670e+12	5.241693e+13	4.068131e+13	3.377495e+03	1.715069e+03	1.252222e+03	0	1.500907e-04
9.100000e+08	6.882434e+10	0.000000e+00	5.477387e-01	2.884419e+12	5.207981e+13	4.049514e+13	3.376387e+03	1.713821e+03	1.251311e+03	0	1.498926e-04
9.200000e+08	6.855404e+10	0.000000e+00	5.477387e-01	2.874276e+12	5.174875e+13	4.031025e+13	3.375283e+03	1.712592e+03	1.250414e+03	0	1.496961e-04
9.300000e+08	6.828656e+10	0.000000e+00	5.477387e-01	2.864238e+12	5.142355e+13	4.012661e+13	3.374183e+03	1.711383e+03	1.249531e+03	0	1.495012e-04
9.400000e+08	6.802181e+10	0.000000e+00	5.477387e-01	2.854301e+12	5.110401e+13	3.994424e+13	3.373087e+03	1.710192e+03	1.248661e+03	0	1.493077e-04
9.500000e+08	6.775974e+10	0.000000e+00	5.477387e-01	2.844465e+12	5.078994e+13	3.976311e+13	3.371995e+03	1.709019e+03	1.247805e+03	0	1.491157e-04
9.600000e+08	6.750027e+10	0.000000e+00	5.477387e-01	2.834725e+12	5.048116e+13	3.958321e+13	3.370906e+03	1.707863e+03	1.246961e+03	0	1.489251e-04
9.700000e+08	6.724334e+10	0.000000e+00	5.477387e-01	2.825080e+12	5.017750e+13	3.940454e+13	3.369821e+03	1.706724e+03	1.246129e+03	0	1.487359e-04
9.800000e+08	6.698890e+10	0.000000e+00	5.477387e-01	2.815528e+12	4.987880e+13	3.922709e+13	3.368740e+03	1.705600e+03	1.245309e+03	0	1.485481e-04
9.900000e+08	6.673688e+10	0.000000e+00	5.477387e-01	2.806066e+12	4.958489e+13	3.905084e+13	3.367662e+03	1.704493e+03	1.244500e+03	0	1.483616e-04
1.000000e+09	6.648724e+10	0.000000e+00	5.477387e-01	2.796692e+12	4.929563e+13	3.887579e+13	3.366588e+03	1.703401e+03	1.243703e+03	0	1.481764e-04
1.010000e+09	6.623991e+10	0.000000e+00	5.477387e-01	2.787405e+12	4.901088e+13	3.870192e+13	3.365518e+03	1.702323e+03	1.242916e+03	0	1.479924e-04
1.020000e+09	6.599484e+10	0.000000e+00	5.477387e-01	2.778202e+12	4.873049e+13	3.852923e+13	3.364451e+03	1.701260e+03	1.242139e+03	0	1.478097e-04
1.030000e+09	6.575198e+10	0.000000e+00	5.477387e-01	2.769082e+12	4.845433e+13	3.835771e+13	3.363387e+03	1.700210e+03	1.241373e+03	0	1.476281e-04
1.040000e+09	6.551130e+10	0.000000e+00	5.477387e-01	2.760042e+12	4.818228e+13	3.818735e+13	3.362327e+03	1.699174e+03	1.240617e+03	0	1.474478e-04
1.050000e+09	6.527272e+10	0.000000e+00	5.477387e-01	2.751081e+12	4.791421e+13	3.801815e+13	3.361271e+03	1.698151e+03	1.239869e+03	0	1.472686e-04
1.060000e+09	6.503623e+10	0.000000e+00	5.477387e-01	2.742198e+12	4.765002e+13	3.785008e+13	3.360218e+03	1.697140e+03	1.239132e+03	0	1.470905e-04
1.070000e+09	6.480176e+10	0.000000e+00	5.477387e-01	2.733390e+12	4.738958e+13	3.768314e+13	3.359169e+03	1.696142e+03	1.238403e+03	0	1.469135e-04
1.080000e+09	6.456928e+10	0.000000e+00	5.477387e-01	2.724657e+12	4.713279e+13	3.751733e+13	3.358122e+03	1.695155e+03	1.237682e+03	0	1.467376e-04
1.090000e+09	6.433874e+10	0.000000e+00	5.477387e-01	2.715996e+12	4.687955e+13	3.735263e+13	3.357079e+03	1.694180e+03	1.236971e+03	0	1.465628e-04
1.100000e+09	6.411012e+10	0.000000e+00	5.477387e-01	2.707406e+12	4.662976e+13	3.718904e+13	3.356040e+03	1.693216e+03	1.236267e+03	0	1.463890e-04
1.110000e+09	6.388336e+10	0.000000e+00	5.477387e-01	2.698886e+12	4.638333e+13	3.702655e+13	3.355004e+03	1.692264e+03	1.235571e+03	0	1.462162e-04
1.120000e+09	6.365844e+10	0.000000e+00	5.477387e-01	2.690434e+12	4.614016e+13	3.686514e+13	3.353971e+03	1.691321e+03	1.234883e+03	0	1.460444e-04
1.130000e+09	6.343532e+10	0.000000e+00	5.477387e-01	2.682050e+12	4.590017e+13	3.670481e+13	3.352941e+03	1.690389e+03	1.234203e+03	0	1.458736e-04
1.140000e+09	6.321395e+10	0.000000e+00	5.477387e-01	2.673731e+12	4.566327e+13	3.654556e+13	3.351914e+03	1.689467e+03	1.233530e+03	0	1.457037e-04
1.150000e+09	6.299432e+10	0.000000e+00	5.477387e-01	2.665477e+12	4.542938e+13	3.638737e+13	3.350891e+03	1.688555e+03	1.232864e+03	0	1.455347e-04
1.160000e+09	6.277639e+10	0.000000e+00	5.477387e-01	2.657286e+12	4.519843e+13	3.623023e+13	3.349871e+03	1.687652e+03	1.232204e+03	0	1.453667e-04
1.170000e+09	6.256013e+10	0.000000e+00	5.477387e-01	2.649157e+12	4.497034e+13	3.607414e+13	3.348853e+03	1.686759e+03	1.231552e+03	0	1.451996e-04
1.180000e+09	6.234550e+10	0.000000e+00	5.477387e-01	2.641090e+12	4.474503e+13	3.591909e+13	3.347839e+03	1.685874e+03	1.230906e+03	0	1.450334e-04
1.190000e+09	6.213248e+10	0.000000e+00	5.477387e-01	2.633082e+12	4.452244e+13	3.576507e+13	3.346828e+03	1.684998e+03	1.230267e+03	0	1.448680e-04
1.200000e+09	6.192104e+10	0.000000e+00	5.477387e-01	2.625134e+12	4.430251e+13	3.561208e+13	3.345821e+03	1.684131e+03	1.229633e+03	0	1.447035e-04
1.210000e+09	6.171115e+10	0.000000e+00	5.477387e-01	2.617243e+12	4.408516e+13	3.546010e+13	3.344816e+03	1.683272e+03	1.229006e+03	0	1.445398e-04
1.220000e+09	6.150279e+10	0.000000e+00	5.477387e-01	2.609409e+12	4.387034e+13	3.530912e+13	3.343814e+03	1.682421e+03	1.228385e+03	0	1.443769e-04
1.230000e+09	6.129593e+10	0.000000e+00	5.477387e-01	2.601631e+12	4.365799e+13	3.515914e+13	3.342815e+03	1.681578e+03	1.227769e+03	0	1.442149e-04
1.240000e+09	6.109054e+10	0.000000e+00	5.477387e-01	2.593909e+12	4.344804e+13	3.501016e+13	3.341819e+03	1.680742e+03	1.227159e+03	0	1.440536e-04
1.250000e+09	6.088660e+10	0.000000e+00	5.477387e-01	2.586240e+12	4.324045e+13	3.486216e+13	3.340827e+03	1.679914e+03	1.226555e+03	0	1.438931e-04
1.260000e+09	6.068409e+10	0.000000e+00	5.477387e-01	2.578625e+12	4.303515e+13	3.471513e+13	3.339837e+03	1.679094e+03	1.225956e+03	0	1.437334e-04
1.270000e+09	6.048298e+10	0.000000e+00	5.477387e-01	2.571062e+12	4.283210e+13	3.456907e+13	3.338850e+03	1.678280e+03	1.225362e+03	0	1.435745e-04
1.280000e+09	6.028326e+10	0.000000e+00	5.477387e-01	2.563550e+12	4.263125e+13	3.442398e+13	3.337865e+03	1.677474e+03	1.224773e+03	0	1.434163e-04
1.290000e+09	6.008489e+10	0.000000e+00	5.477387e-01	2.556090e+12	4.243255e+13	3.427983e+13	3.336884e+03	1.676674e+03	1.224189e+03	0	1.432588e-04
1.300000e+09	5.988787e+10	0.000000e+00	5.477387e-01	2.548679e+12	4.223595e+13	3.413664e+13	3.335906e+03	1.675881e+03	1.223610e+03	0	1.431020e-04
1.310000e+09	5.969216e+10	0.000000e+00	5.477387e-01	2.541318e+12	4.204141e+13	3.399438e+13	3.334930e+03	1.675094e+03	1.223035e+03	0	1.429460e-04
1.320000e+09	5.949775e+10	0.000000e+00	5.477387e-01	2.534005e+12	4.184888e+13	3.385305e+13	3.333957e+03	1.674314e+03	1.222465e+03	0	1.427906e-04
1.330000e+09	5.930463e+10	0.000000e+00	5.477387e-01	2.526740e+12	4.165832e+13	3.371265e+13	3.332987e+03	1.673539e+03	1.221900e+03	0	1.426360e-04
1.340000e+09	5.911276e+10	0.000000e+00	5.477387e-01	2.519522e+12	4.146969e+13	3.357316e+13	3.332020e+03	1.672771e+03	1.221339e+03	0	1.424820e-04
1.350000e+09	5.892214e+10	0.000000e+00	5.477387e-01	2.512351e+12	4.128296e+13	3.343459e+13	3.331056e+03	1.672009e+03	1.220783e+03	0	1.423287e-04
1.360000e+09	5.873274e+10	0.000000e+00	5.477387e-01	2.505225e+12	4.109808e+13	3.329692e+13	3.330094e+03	1.671252e+03	1.220230e+03	0	1.421760e-04
