#t		Qconv[W]	Ri[Rp]		R*[Rp]		Qc[W]		Qm[W]		Qr[W]		Tcmb[K]		Tl[K]		Tup[K]		RiFlag		Bs[T]
0.000000e+00	2.290557e+11	0.000000e+00	5.427136e-01	8.160093e+12	9.464125e+14	7.732500e+13	3.837729e+03	2.845988e+03	2.001522e+03	0	2.222202e-04
1.000000e+07	2.330957e+11	0.000000e+00	5.427136e-01	8.294253e+12	8.048408e+14	7.689656e+13	3.835118e+03	2.751217e+03	1.934871e+03	0	2.235191e-04
2.000000e+07	2.336786e+11	0.000000e+00	5.427136e-01	8.313296e+12	6.961084e+14	7.647133e+13	3.832464e+03	2.671341e+03	1.878696e+03	0	2.237053e-04
3.000000e+07	2.322477e+11	0.000000e+00	5.427136e-01	8.265281e+12	6.106869e+14	7.604927e+13	3.829804e+03	2.603020e+03	1.830647e+03	0	2.232477e-04
4.000000e+07	2.296532e+11	0.000000e+00	5.427136e-01	8.178520e+12	5.422612e+14	7.563037e+13	3.827158e+03	2.543851e+03	1.789035e+03	0	2.224133e-04
5.000000e+07	2.264061e+11	0.000000e+00	5.427136e-01	8.070037e+12	4.865200e+14	7.521459e+13	3.824541e+03	2.492061e+03	1.752612e+03	0	2.213600e-04
6.000000e+07	2.228187e+11	0.000000e+00	5.427136e-01	7.950228e+12	4.404425e+14	7.480191e+13	3.821958e+03	2.446314e+03	1.720440e+03	0	2.201847e-04
7.000000e+07	2.190838e+11	0.000000e+00	5.427136e-01	7.825509e+12	4.018616e+14	7.439230e+13	3.819413e+03	2.405584e+03	1.691795e+03	0	2.189475e-04
8.000000e+07	2.153205e+11	0.000000e+00	5.427136e-01	7.699851e+12	3.691901e+14	7.398574e+13	3.816908e+03	2.369068e+03	1.666114e+03	0	2.176866e-04
9.000000e+07	2.116023e+11	0.000000e+00	5.427136e-01	7.575701e+12	3.412435e+14	7.358220e+13	3.814443e+03	2.336130e+03	1.642949e+03	0	2.164263e-04
1.000000e+08	2.079735e+11	0.000000e+00	5.427136e-01	7.454536e+12	3.171235e+14	7.318166e+13	3.812018e+03	2.306256e+03	1.621940e+03	0	2.151820e-04
1.100000e+08	2.044601e+11	0.000000e+00	5.427136e-01	7.337215e+12	2.961380e+14	7.278409e+13	3.809632e+03	2.279032e+03	1.602794e+03	0	2.139634e-04
1.200000e+08	2.010758e+11	0.000000e+00	5.427136e-01	7.224199e+12	2.777466e+14	7.238947e+13	3.807283e+03	2.254113e+03	1.585268e+03	0	2.127762e-04
1.300000e+08	1.978267e+11	0.000000e+00	5.427136e-01	7.115690e+12	2.615226e+14	7.199777e+13	3.804970e+03	2.231214e+03	1.569164e+03	0	2.116240e-04
1.400000e+08	1.947139e+11	0.000000e+00	5.427136e-01	7.011725e+12	2.471245e+14	7.160897e+13	3.802691e+03	2.210097e+03	1.554313e+03	0	2.105081e-04
1.500000e+08	1.917355e+11	0.000000e+00	5.427136e-01	6.912238e+12	2.342770e+14	7.122304e+13	3.800446e+03	2.190560e+03	1.540574e+03	0	2.094293e-04
1.600000e+08	1.888873e+11	0.000000e+00	5.427136e-01	6.817095e+12	2.227554e+14	7.083996e+13	3.798233e+03	2.172431e+03	1.527824e+03	0	2.083871e-04
1.700000e+08	1.861644e+11	0.000000e+00	5.427136e-01	6.726125e+12	2.123751e+14	7.045971e+13	3.796050e+03	2.155562e+03	1.515960e+03	0	2.073809e-04
1.800000e+08	1.835609e+11	0.000000e+00	5.427136e-01	6.639136e+12	2.029833e+14	7.008227e+13	3.793897e+03	2.139827e+03	1.504894e+03	0	2.064096e-04
1.900000e+08	1.810708e+11	0.000000e+00	5.427136e-01	6.555926e+12	1.944522e+14	6.970760e+13	3.791771e+03	2.125114e+03	1.494546e+03	0	2.054720e-04
2.000000e+08	1.786880e+11	0.000000e+00	5.427136e-01	6.476291e+12	1.866745e+14	6.933569e+13	3.789671e+03	2.111327e+03	1.484851e+03	0	2.045667e-04
2.100000e+08	1.764064e+11	0.000000e+00	5.427136e-01	6.400032e+12	1.795595e+14	6.896651e+13	3.787597e+03	2.098383e+03	1.475747e+03	0	2.036923e-04
2.200000e+08	1.742203e+11	0.000000e+00	5.427136e-01	6.326955e+12	1.730299e+14	6.860005e+13	3.785548e+03	2.086207e+03	1.467184e+03	0	2.028474e-04
2.300000e+08	1.721241e+11	0.000000e+00	5.427136e-01	6.256874e+12	1.670197e+14	6.823628e+13	3.783522e+03	2.074732e+03	1.459114e+03	0	2.020306e-04
2.400000e+08	1.701125e+11	0.000000e+00	5.427136e-01	6.189615e+12	1.614722e+14	6.787517e+13	3.781518e+03	2.063902e+03	1.451497e+03	0	2.012405e-04
2.500000e+08	1.681806e+11	0.000000e+00	5.427136e-01	6.125011e+12	1.563382e+14	6.751671e+13	3.779536e+03	2.053662e+03	1.444296e+03	0	2.004757e-04
2.600000e+08	1.663236e+11	0.000000e+00	5.427136e-01	6.062906e+12	1.515752e+14	6.716087e+13	3.777574e+03	2.043968e+03	1.437478e+03	0	1.997352e-04
2.700000e+08	1.645372e+11	0.000000e+00	5.427136e-01	6.003153e+12	1.471460e+14	6.680763e+13	3.775632e+03	2.034777e+03	1.431015e+03	0	1.990175e-04
2.800000e+08	1.628173e+11	0.000000e+00	5.427136e-01	5.945616e+12	1.430182e+14	6.645697e+13	3.773710e+03	2.026052e+03	1.424878e+03	0	1.983216e-04
2.900000e+08	1.611600e+11	0.000000e+00	5.427136e-01	5.890167e+12	1.391631e+14	6.610887e+13	3.771805e+03	2.017758e+03	1.419045e+03	0	1.976464e-04
3.000000e+08	1.595617e+11	0.000000e+00	5.427136e-01	5.836686e+12	1.355557e+14	6.576331e+13	3.769919e+03	2.009865e+03	1.413494e+03	0	1.969909e-04
3.100000e+08	1.580191e+11	0.000000e+00	5.427136e-01	5.785062e+12	1.321736e+14	6.542027e+13	3.768049e+03	2.002345e+03	1.408206e+03	0	1.963540e-04
3.200000e+08	1.565291e+11	0.000000e+00	5.427136e-01	5.735191e+12	1.289971e+14	6.507972e+13	3.766196e+03	1.995172e+03	1.403161e+03	0	1.957349e-04
3.300000e+08	1.550888e+11	0.000000e+00	5.427136e-01	5.686975e+12	1.260085e+14	6.474165e+13	3.764359e+03	1.988324e+03	1.398345e+03	0	1.951327e-04
3.400000e+08	1.536953e+11	0.000000e+00	5.427136e-01	5.640324e+12	1.231923e+14	6.440604e+13	3.762538e+03	1.981779e+03	1.393742e+03	0	1.945465e-04
3.500000e+08	1.523463e+11	0.000000e+00	5.427136e-01	5.595154e+12	1.205342e+14	6.407285e+13	3.760731e+03	1.975518e+03	1.389339e+03	0	1.939756e-04
3.600000e+08	1.510393e+11	0.000000e+00	5.427136e-01	5.551385e+12	1.180218e+14	6.374209e+13	3.758939e+03	1.969523e+03	1.385122e+03	0	1.934193e-04
3.700000e+08	1.497721e+11	0.000000e+00	5.427136e-01	5.508944e+12	1.156435e+14	6.341372e+13	3.757161e+03	1.963777e+03	1.381081e+03	0	1.928769e-04
3.800000e+08	1.485427e+11	0.000000e+00	5.427136e-01	5.467761e+12	1.133892e+14	6.308772e+13	3.755396e+03	1.958265e+03	1.377205e+03	0	1.923477e-04
3.900000e+08	1.473491e+11	0.000000e+00	5.427136e-01	5.427773e+12	1.112495e+14	6.276409e+13	3.753645e+03	1.952974e+03	1.373484e+03	0	1.918311e-04
4.000000e+08	1.461895e+11	0.000000e+00	5.427136e-01	5.388919e+12	1.092162e+14	6.244279e+13	3.751906e+03	1.947891e+03	1.369909e+03	0	1.913265e-04
4.100000e+08	1.450621e+11	0.000000e+00	5.427136e-01	5.351143e+12	1.072815e+14	6.212380e+13	3.750180e+03	1.943003e+03	1.366472e+03	0	1.908335e-04
4.200000e+08	1.439655e+11	0.000000e+00	5.427136e-01	5.314390e+12	1.054385e+14	6.180712e+13	3.748466e+03	1.938301e+03	1.363165e+03	0	1.903514e-04
4.300000e+08	1.428982e+11	0.000000e+00	5.427136e-01	5.278613e+12	1.036808e+14	6.149272e+13	3.746764e+03	1.933772e+03	1.359980e+03	0	1.898798e-04
4.400000e+08	1.418586e+11	0.000000e+00	5.427136e-01	5.243764e+12	1.020028e+14	6.118057e+13	3.745073e+03	1.929408e+03	1.356911e+03	0	1.894182e-04
4.500000e+08	1.408456e+11	0.000000e+00	5.427136e-01	5.209799e+12	1.003991e+14	6.087068e+13	3.743393e+03	1.925201e+03	1.353952e+03	0	1.889663e-04
4.600000e+08	1.398579e+11	0.000000e+00	5.427136e-01	5.176677e+12	9.886481e+13	6.056300e+13	3.741724e+03	1.921141e+03	1.351096e+03	0	1.885235e-04
4.700000e+08	1.388942e+11	0.000000e+00	5.427136e-01	5.144360e+12	9.739555e+13	6.025754e+13	3.740066e+03	1.917220e+03	1.348339e+03	0	1.880895e-04
4.800000e+08	1.379536e+11	0.000000e+00	5.427136e-01	5.112811e+12	9.598720e+13	5.995426e+13	3.738418e+03	1.913433e+03	1.345676e+03	0	1.876640e-04
4.900000e+08	1.370350e+11	0.000000e+00	5.427136e-01	5.081996e+12	9.463600e+13	5.965315e+13	3.736780e+03	1.909772e+03	1.343101e+03	0	1.872465e-04
5.000000e+08	1.361374e+11	0.000000e+00	5.427136e-01	5.051882e+12	9.333846e+13	5.935420e+13	3.735152e+03	1.906230e+03	1.340610e+03	0	1.868368e-04
5.100000e+08	1.352599e+11	0.000000e+00	5.427136e-01	5.022440e+12	9.209139e+13	5.905738e+13	3.733534e+03	1.902802e+03	1.338199e+03	0	1.864345e-04
5.200000e+08	1.344017e+11	0.000000e+00	5.427136e-01	4.993639e+12	9.089181e+13	5.876268e+13	3.731925e+03	1.899482e+03	1.335865e+03	0	1.860393e-04
5.300000e+08	1.335619e+11	0.000000e+00	5.427136e-01	4.965454e+12	8.973696e+13	5.847008e+13	3.730325e+03	1.896265e+03	1.333602e+03	0	1.856511e-04
5.400000e+08	1.327398e+11	0.000000e+00	5.427136e-01	4.937859e+12	8.862432e+13	5.817957e+13	3.728734e+03	1.893147e+03	1.331409e+03	0	1.852694e-04
5.500000e+08	1.319346e+11	0.000000e+00	5.427136e-01	4.910828e+12	8.755150e+13	5.789112e+13	3.727153e+03	1.890121e+03	1.329281e+03	0	1.848940e-04
5.600000e+08	1.311457e+11	0.000000e+00	5.427136e-01	4.884340e+12	8.651631e+13	5.760472e+13	3.725579e+03	1.887185e+03	1.327216e+03	0	1.845247e-04
5.700000e+08	1.303724e+11	0.000000e+00	5.427136e-01	4.858373e+12	8.551670e+13	5.732036e+13	3.724015e+03	1.884334e+03	1.325211e+03	0	1.841613e-04
5.800000e+08	1.296140e+11	0.000000e+00	5.427136e-01	4.832906e+12	8.455078e+13	5.703802e+13	3.722458e+03	1.881564e+03	1.323263e+03	0	1.838035e-04
5.900000e+08	1.288701e+11	0.000000e+00	5.427136e-01	4.807919e+12	8.361675e+13	5.675767e+13	3.720910e+03	1.878871e+03	1.321369e+03	0	1.834512e-04
6.000000e+08	1.281400e+11	0.000000e+00	5.427136e-01	4.783395e+12	8.271297e+13	5.647931e+13	3.719370e+03	1.876252e+03	1.319527e+03	0	1.831041e-04
6.100000e+08	1.274232e+11	0.000000e+00	5.427136e-01	4.759315e+12	8.183788e+13	5.620293e+13	3.717837e+03	1.873704e+03	1.317735e+03	0	1.827621e-04
6.200000e+08	1.267193e+11	0.000000e+00	5.427136e-01	4.735663e+12	8.099004e+13	5.592849e+13	3.716312e+03	1.871224e+03	1.315991e+03	0	1.824249e-04
6.300000e+08	1.260277e+11	0.000000e+00	5.427136e-01	4.712423e+12	8.016808e+13	5.565599e+13	3.714795e+03	1.868808e+03	1.314292e+03	0	1.820924e-04
6.400000e+08	1.253479e+11	0.000000e+00	5.427136e-01	4.689581e+12	7.937075e+13	5.538541e+13	3.713285e+03	1.866455e+03	1.312637e+03	0	1.817645e-04
6.500000e+08	1.246797e+11	0.000000e+00	5.427136e-01	4.667121e+12	7.859683e+13	5.511674e+13	3.711783e+03	1.864161e+03	1.311024e+03	0	1.814409e-04
6.600000e+08	1.240225e+11	0.000000e+00	5.427136e-01	4.645031e+12	7.784523e+13	5.484996e+13	3.710288e+03	1.861924e+03	1.309451e+03	0	1.811215e-04
6.700000e+08	1.233760e+11	0.000000e+00	5.427136e-01	4.623297e+12	7.711488e+13	5.458505e+13	3.708800e+03	1.859741e+03	1.307916e+03	0	1.808063e-04
6.800000e+08	1.227398e+11	0.000000e+00	5.427136e-01	4.601907e+12	7.640480e+13	5.432201e+13	3.707318e+03	1.857611e+03	1.306417e+03	0	1.804949e-04
6.900000e+08	1.221136e+11	0.000000e+00	5.427136e-01	4.580849e+12	7.571406e+13	5.406081e+13	3.705844e+03	1.855531e+03	1.304955e+03	0	1.801874e-04
7.000000e+08	1.214969e+11	0.000000e+00	5.427136e-01	4.560113e+12	7.504178e+13	5.380144e+13	3.704376e+03	1.853499e+03	1.303526e+03	0	1.798836e-04
7.100000e+08	1.208896e+11	0.000000e+00	5.427136e-01	4.539687e+12	7.438714e+13	5.354389e+13	3.702915e+03	1.851514e+03	1.302129e+03	0	1.795834e-04
7.200000e+08	1.202912e+11	0.000000e+00	5.427136e-01	4.519561e+12	7.374936e+13	5.328813e+13	3.701461e+03	1.849573e+03	1.300764e+03	0	1.792866e-04
7.300000e+08	1.197016e+11	0.000000e+00	5.427136e-01	4.499726e+12	7.312770e+13	5.303417e+13	3.700013e+03	1.847674e+03	1.299429e+03	0	1.789932e-04
7.400000e+08	1.191204e+11	0.000000e+00	5.427136e-01	4.480173e+12	7.252148e+13	5.278198e+13	3.698571e+03	1.845817e+03	1.298123e+03	0	1.787030e-04
7.500000e+08	1.185473e+11	0.000000e+00	5.427136e-01	4.460892e+12	7.193004e+13	5.253154e+13	3.697136e+03	1.843999e+03	1.296845e+03	0	1.784160e-04
7.600000e+08	1.179822e+11	0.000000e+00	5.427136e-01	4.441875e+12	7.135276e+13	5.228286e+13	3.695706e+03	1.842219e+03	1.295593e+03	0	1.781320e-04
7.700000e+08	1.174247e+11	0.000000e+00	5.427136e-01	4.423114e+12	7.078906e+13	5.203590e+13	3.694283e+03	1.840476e+03	1.294367e+03	0	1.778510e-04
7.800000e+08	1.168746e+11	0.000000e+00	5.427136e-01	4.404602e+12	7.023837e+13	5.179065e+13	3.692866e+03	1.838768e+03	1.293166e+03	0	1.775729e-04
7.900000e+08	1.163318e+11	0.000000e+00	5.427136e-01	4.386330e+12	6.970018e+13	5.154711e+13	3.691455e+03	1.837094e+03	1.291988e+03	0	1.772975e-04
8.000000e+08	1.157959e+11	0.000000e+00	5.427136e-01	4.368292e+12	6.917399e+13	5.130526e+13	3.690050e+03	1.835453e+03	1.290834e+03	0	1.770249e-04
8.100000e+08	1.152668e+11	0.000000e+00	5.427136e-01	4.350481e+12	6.865932e+13	5.106509e+13	3.688650e+03	1.833843e+03	1.289702e+03	0	1.767548e-04
8.200000e+08	1.147444e+11	0.000000e+00	5.427136e-01	4.332891e+12	6.815572e+13	5.082658e+13	3.687256e+03	1.832263e+03	1.288591e+03	0	1.764874e-04
8.300000e+08	1.142283e+11	0.000000e+00	5.427136e-01	4.315514e+12	6.766278e+13	5.058972e+13	3.685868e+03	1.830713e+03	1.287501e+03	0	1.762224e-04
8.400000e+08	1.137185e+11	0.000000e+00	5.427136e-01	4.298346e+12	6.718008e+13	5.035449e+13	3.684485e+03	1.829191e+03	1.286430e+03	0	1.759599e-04
8.500000e+08	1.132147e+11	0.000000e+00	5.427136e-01	4.281381e+12	6.670725e+13	5.012088e+13	3.683108e+03	1.827696e+03	1.285379e+03	0	1.756996e-04
8.600000e+08	1.127169e+11	0.000000e+00	5.427136e-01	4.264613e+12	6.624392e+13	4.988889e+13	3.681736e+03	1.826228e+03	1.284346e+03	0	1.754417e-04
8.700000e+08	1.122248e+11	0.000000e+00	5.427136e-01	4.248036e+12	6.578973e+13	4.965849e+13	3.680370e+03	1.824785e+03	1.283331e+03	0	1.751860e-04
8.800000e+08	1.117382e+11	0.000000e+00	5.427136e-01	4.231647e+12	6.534437e+13	4.942968e+13	3.679009e+03	1.823366e+03	1.282334e+03	0	1.749325e-04
8.900000e+08	1.112571e+11	0.000000e+00	5.427136e-01	4.215439e+12	6.490751e+13	4.920244e+13	3.677653e+03	1.821971e+03	1.281353e+03	0	1.746811e-04
9.000000e+08	1.107813e+11	0.000000e+00	5.427136e-01	4.199408e+12	6.447886e+13	4.897676e+13	3.676302e+03	1.820599e+03	1.280388e+03	0	1.744317e-04
9.100000e+08	1.103107e+11	0.000000e+00	5.427136e-01	4.183550e+12	6.405812e+13	4.875263e+13	3.674956e+03	1.819249e+03	1.279439e+03	0	1.741843e-04
9.200000e+08	1.098451e+11	0.000000e+00	5.427136e-01	4.167860e+12	6.364504e+13	4.853003e+13	3.673616e+03	1.817921e+03	1.278504e+03	0	1.739389e-04
9.300000e+08	1.093844e+11	0.000000e+00	5.427136e-01	4.152335e+12	6.323933e+13	4.830896e+13	3.672280e+03	1.816613e+03	1.277585e+03	0	1.736954e-04
9.400000e+08	1.089285e+11	0.000000e+00	5.427136e-01	4.136970e+12	6.284077e+13	4.808939e+13	3.670950e+03	1.815326e+03	1.276679e+03	0	1.734537e-04
9.500000e+08	1.084773e+11	0.000000e+00	5.427136e-01	4.121761e+12	6.244911e+13	4.787132e+13	3.669624e+03	1.814057e+03	1.275787e+03	0	1.732139e-04
9.600000e+08	1.080306e+11	0.000000e+00	5.427136e-01	4.106705e+12	6.206412e+13	4.765475e+13	3.668304e+03	1.812808e+03	1.274908e+03	0	1.729758e-04
9.700000e+08	1.075884e+11	0.000000e+00	5.427136e-01	4.091798e+12	6.168558e+13	4.743964e+13	3.666988e+03	1.811576e+03	1.274042e+03	0	1.727395e-04
9.800000e+08	1.071505e+11	0.000000e+00	5.427136e-01	4.077036e+12	6.131330e+13	4.722600e+13	3.665677e+03	1.810363e+03	1.273189e+03	0	1.725049e-04
9.900000e+08	1.067169e+11	0.000000e+00	5.427136e-01	4.062417e+12	6.094707e+13	4.701381e+13	3.664370e+03	1.809166e+03	1.272347e+03	0	1.722719e-04
1.000000e+09	1.062875e+11	0.000000e+00	5.427136e-01	4.047937e+12	6.058671e+13	4.680307e+13	3.663069e+03	1.807986e+03	1.271517e+03	0	1.720405e-04
1.010000e+09	1.058621e+11	0.000000e+00	5.427136e-01	4.033593e+12	6.023202e+13	4.659375e+13	3.661772e+03	1.806821e+03	1.270698e+03	0	1.718107e-04
1.020000e+09	1.054407e+11	0.000000e+00	5.427136e-01	4.019382e+12	5.988284e+13	4.638585e+13	3.660479e+03	1.805673e+03	1.269890e+03	0	1.715824e-04
1.030000e+09	1.050232e+11	0.000000e+00	5.427136e-01	4.005301e+12	5.953901e+13	4.617935e+13	3.659191e+03	1.804539e+03	1.269093e+03	0	1.713556e-04
1.040000e+09	1.046095e+11	0.000000e+00	5.427136e-01	3.991348e+12	5.920036e+13	4.597426e+13	3.657908e+03	1.803420e+03	1.268306e+03	0	1.711303e-04
1.050000e+09	1.041996e+11	0.000000e+00	5.427136e-01	3.977519e+12	5.886673e+13	4.577054e+13	3.656629e+03	1.802315e+03	1.267529e+03	0	1.709065e-04
1.060000e+09	1.037933e+11	0.000000e+00	5.427136e-01	3.963812e+12	5.853799e+13	4.556820e+13	3.655354e+03	1.801224e+03	1.266762e+03	0	1.706840e-04
1.070000e+09	1.033905e+11	0.000000e+00	5.427136e-01	3.950226e+12	5.821400e+13	4.536723e+13	3.654084e+03	1.800147e+03	1.266004e+03	0	1.704630e-04
1.080000e+09	1.029913e+11	0.000000e+00	5.427136e-01	3.936756e+12	5.789461e+13	4.516760e+13	3.652818e+03	1.799082e+03	1.265255e+03	0	1.702433e-04
1.090000e+09	1.025955e+11	0.000000e+00	5.427136e-01	3.923401e+12	5.757969e+13	4.496932e+13	3.651557e+03	1.798030e+03	1.264516e+03	0	1.700249e-04
1.100000e+09	1.022030e+11	0.000000e+00	5.427136e-01	3.910159e+12	5.726914e+13	4.477237e+13	3.650300e+03	1.796990e+03	1.263784e+03	0	1.698079e-04
1.110000e+09	1.018139e+11	0.000000e+00	5.427136e-01	3.897028e+12	5.696281e+13	4.457674e+13	3.649047e+03	1.795963e+03	1.263061e+03	0	1.695921e-04
1.120000e+09	1.014280e+11	0.000000e+00	5.427136e-01	3.884004e+12	5.666061e+13	4.438242e+13	3.647798e+03	1.794946e+03	1.262347e+03	0	1.693775e-04
1.130000e+09	1.010452e+11	0.000000e+00	5.427136e-01	3.871087e+12	5.636241e+13	4.418940e+13	3.646553e+03	1.793941e+03	1.261640e+03	0	1.691642e-04
1.140000e+09	1.006656e+11	0.000000e+00	5.427136e-01	3.858275e+12	5.606812e+13	4.399768e+13	3.645313e+03	1.792947e+03	1.260941e+03	0	1.689521e-04
1.150000e+09	1.002891e+11	0.000000e+00	5.427136e-01	3.845565e+12	5.577762e+13	4.380723e+13	3.644077e+03	1.791964e+03	1.260249e+03	0	1.687412e-04
1.160000e+09	9.991551e+10	0.000000e+00	5.427136e-01	3.832955e+12	5.549083e+13	4.361805e+13	3.642844e+03	1.790991e+03	1.259565e+03	0	1.685314e-04
1.170000e+09	9.954490e+10	0.000000e+00	5.427136e-01	3.820444e+12	5.520765e+13	4.343013e+13	3.641616e+03	1.790028e+03	1.258888e+03	0	1.683228e-04
1.180000e+09	9.917719e+10	0.000000e+00	5.427136e-01	3.808030e+12	5.492798e+13	4.324347e+13	3.640392e+03	1.789075e+03	1.258218e+03	0	1.681153e-04
1.190000e+09	9.881232e+10	0.000000e+00	5.427136e-01	3.795711e+12	5.465175e+13	4.305804e+13	3.639172e+03	1.788132e+03	1.257554e+03	0	1.679088e-04
1.200000e+09	9.845025e+10	0.000000e+00	5.427136e-01	3.783486e+12	5.437886e+13	4.287385e+13	3.637955e+03	1.787197e+03	1.256897e+03	0	1.677035e-04
1.210000e+09	9.809093e+10	0.000000e+00	5.427136e-01	3.771353e+12	5.410923e+13	4.269087e+13	3.636743e+03	1.786272e+03	1.256246e+03	0	1.674992e-04
1.220000e+09	9.773431e+10	0.000000e+00	5.427136e-01	3.759310e+12	5.384278e+13	4.250911e+13	3.635534e+03	1.785356e+03	1.255602e+03	0	1.672960e-04
1.230000e+09	9.738034e+10	0.000000e+00	5.427136e-01	3.747357e+12	5.357945e+13	4.232855e+13	3.634330e+03	1.784448e+03	1.254964e+03	0	1.670938e-04
1.240000e+09	9.702899e+10	0.000000e+00	5.427136e-01	3.735491e+12	5.331915e+13	4.214919e+13	3.633129e+03	1.783549e+03	1.254331e+03	0	1.668926e-04
1.250000e+09	9.668021e+10	0.000000e+00	5.427136e-01	3.723711e+12	5.306182e+13	4.197100e+13	3.631932e+03	1.782658e+03	1.253705e+03	0	1.666924e-04
1.260000e+09	9.633396e+10	0.000000e+00	5.427136e-01	3.712016e+12	5.280738e+13	4.179400e+13	3.630738e+03	1.781775e+03	1.253084e+03	0	1.664931e-04
1.270000e+09	9.599019e+10	0.000000e+00	5.427136e-01	3.700404e+12	5.255578e+13	4.161816e+13	3.629549e+03	1.780900e+03	1.252468e+03	0	1.662949e-04
1.280000e+09	9.564888e+10	0.000000e+00	5.427136e-01	3.688874e+12	5.230695e+13	4.144347e+13	3.628363e+03	1.780033e+03	1.251858e+03	0	1.660975e-04
1.290000e+09	9.530998e+10	0.000000e+00	5.427136e-01	3.677426e+12	5.206082e+13	4.126994e+13	3.627181e+03	1.779173e+03	1.251254e+03	0	1.659011e-04
1.300000e+09	9.497346e+10	0.000000e+00	5.427136e-01	3.666056e+12	5.181734e+13	4.109754e+13	3.626003e+03	1.778320e+03	1.250654e+03	0	1.657056e-04
1.310000e+09	9.463927e+10	0.000000e+00	5.427136e-01	3.654766e+12	5.157645e+13	4.092627e+13	3.624828e+03	1.777474e+03	1.250059e+03	0	1.655111e-04
1.320000e+09	9.430739e+10	0.000000e+00	5.427136e-01	3.643552e+12	5.133810e+13	4.075613e+13	3.623657e+03	1.776636e+03	1.249469e+03	0	1.653174e-04
1.330000e+09	9.397778e+10	0.000000e+00	5.427136e-01	3.632415e+12	5.110223e+13	4.058710e+13	3.622489e+03	1.775804e+03	1.248884e+03	0	1.651245e-04
1.340000e+09	9.365041e+10	0.000000e+00	5.427136e-01	3.621352e+12	5.086879e+13	4.041917e+13	3.621325e+03	1.774978e+03	1.248304e+03	0	1.649326e-04
1.350000e+09	9.332525e+10	0.000000e+00	5.427136e-01	3.610364e+12	5.063773e+13	4.025234e+13	3.620164e+03	1.774160e+03	1.247728e+03	0	1.647415e-04
1.360000e+09	9.300226e+10	0.000000e+00	5.427136e-01	3.599448e+12	5.040901e+13	4.008659e+13	3.619007e+03	1.773347e+03	1.247157e+03	0	1.645512e-04
