#t		Qconv[W]	Ri[Rp]		R*[Rp]		Qc[W]		Qm[W]		Qr[W]		Tcmb[K]		Tl[K]		Tup[K]		RiFlag		Bs[T]
0.000000e+00	3.563074e+11	0.000000e+00	5.427136e-01	1.145803e+13	1.097137e+15	8.998247e+13	4.127723e+03	2.981241e+03	2.031148e+03	0	2.547253e-04
1.000000e+07	3.590110e+11	0.000000e+00	5.427136e-01	1.153844e+13	9.375086e+14	8.948390e+13	4.124645e+03	2.885362e+03	1.965825e+03	0	2.553680e-04
2.000000e+07	3.576567e+11	0.000000e+00	5.427136e-01	1.149728e+13	8.140461e+14	8.898906e+13	4.121545e+03	2.804182e+03	1.910516e+03	0	2.550465e-04
3.000000e+07	3.539828e+11	0.000000e+00	5.427136e-01	1.138664e+13	7.164767e+14	8.849792e+13	4.118456e+03	2.734477e+03	1.863025e+03	0	2.541702e-04
4.000000e+07	3.490126e+11	0.000000e+00	5.427136e-01	1.123716e+13	6.379243e+14	8.801044e+13	4.115397e+03	2.673909e+03	1.821760e+03	0	2.529750e-04
5.000000e+07	3.433594e+11	0.000000e+00	5.427136e-01	1.106724e+13	5.736550e+14	8.752661e+13	4.112377e+03	2.620744e+03	1.785538e+03	0	2.516017e-04
6.000000e+07	3.373954e+11	0.000000e+00	5.427136e-01	1.088801e+13	5.203268e+14	8.704637e+13	4.109403e+03	2.573666e+03	1.753463e+03	0	2.501364e-04
7.000000e+07	3.313477e+11	0.000000e+00	5.427136e-01	1.070629e+13	4.755270e+14	8.656972e+13	4.106477e+03	2.531657e+03	1.724842e+03	0	2.486329e-04
8.000000e+07	3.253545e+11	0.000000e+00	5.427136e-01	1.052621e+13	4.374783e+14	8.609660e+13	4.103600e+03	2.493921e+03	1.699132e+03	0	2.471247e-04
9.000000e+07	3.194986e+11	0.000000e+00	5.427136e-01	1.035024e+13	4.048478e+14	8.562701e+13	4.100771e+03	2.459820e+03	1.675899e+03	0	2.456331e-04
1.000000e+08	3.138277e+11	0.000000e+00	5.427136e-01	1.017983e+13	3.766200e+14	8.516090e+13	4.097989e+03	2.428844e+03	1.654794e+03	0	2.441711e-04
1.100000e+08	3.083673e+11	0.000000e+00	5.427136e-01	1.001574e+13	3.520093e+14	8.469825e+13	4.095253e+03	2.400572e+03	1.635533e+03	0	2.427467e-04
1.200000e+08	3.031289e+11	0.000000e+00	5.427136e-01	9.858304e+12	3.304004e+14	8.423903e+13	4.092560e+03	2.374659e+03	1.617878e+03	0	2.413643e-04
1.300000e+08	2.981149e+11	0.000000e+00	5.427136e-01	9.707596e+12	3.113053e+14	8.378322e+13	4.089910e+03	2.350817e+03	1.601634e+03	0	2.400261e-04
1.400000e+08	2.933219e+11	0.000000e+00	5.427136e-01	9.563520e+12	2.943330e+14	8.333077e+13	4.087301e+03	2.328805e+03	1.586637e+03	0	2.387328e-04
1.500000e+08	2.887435e+11	0.000000e+00	5.427136e-01	9.425876e+12	2.791669e+14	8.288167e+13	4.084730e+03	2.308417e+03	1.572747e+03	0	2.374841e-04
1.600000e+08	2.843708e+11	0.000000e+00	5.427136e-01	9.294403e+12	2.655481e+14	8.243589e+13	4.082196e+03	2.289479e+03	1.559844e+03	0	2.362792e-04
1.700000e+08	2.801941e+11	0.000000e+00	5.427136e-01	9.168809e+12	2.532636e+14	8.199339e+13	4.079697e+03	2.271840e+03	1.547826e+03	0	2.351167e-04
1.800000e+08	2.762032e+11	0.000000e+00	5.427136e-01	9.048786e+12	2.421365e+14	8.155416e+13	4.077232e+03	2.255370e+03	1.536605e+03	0	2.339951e-04
1.900000e+08	2.723877e+11	0.000000e+00	5.427136e-01	8.934026e+12	2.320185e+14	8.111816e+13	4.074799e+03	2.239958e+03	1.526105e+03	0	2.329126e-04
2.000000e+08	2.687377e+11	0.000000e+00	5.427136e-01	8.824227e+12	2.227853e+14	8.068538e+13	4.072397e+03	2.225504e+03	1.516257e+03	0	2.318676e-04
2.100000e+08	2.652434e+11	0.000000e+00	5.427136e-01	8.719097e+12	2.143311e+14	8.025577e+13	4.070024e+03	2.211922e+03	1.507004e+03	0	2.308582e-04
2.200000e+08	2.618954e+11	0.000000e+00	5.427136e-01	8.618358e+12	2.065661e+14	7.982932e+13	4.067680e+03	2.199136e+03	1.498293e+03	0	2.298828e-04
2.300000e+08	2.586850e+11	0.000000e+00	5.427136e-01	8.521746e+12	1.994131e+14	7.940600e+13	4.065363e+03	2.187078e+03	1.490077e+03	0	2.289396e-04
2.400000e+08	2.556040e+11	0.000000e+00	5.427136e-01	8.429012e+12	1.928058e+14	7.898578e+13	4.063071e+03	2.175689e+03	1.482318e+03	0	2.280271e-04
2.500000e+08	2.526444e+11	0.000000e+00	5.427136e-01	8.339925e+12	1.866868e+14	7.856864e+13	4.060805e+03	2.164914e+03	1.474977e+03	0	2.271436e-04
2.600000e+08	2.497992e+11	0.000000e+00	5.427136e-01	8.254265e+12	1.810062e+14	7.815455e+13	4.058562e+03	2.154706e+03	1.468022e+03	0	2.262877e-04
2.700000e+08	2.470615e+11	0.000000e+00	5.427136e-01	8.171830e+12	1.757205e+14	7.774349e+13	4.056343e+03	2.145021e+03	1.461424e+03	0	2.254579e-04
2.800000e+08	2.444249e+11	0.000000e+00	5.427136e-01	8.092431e+12	1.707916e+14	7.733544e+13	4.054145e+03	2.135822e+03	1.455156e+03	0	2.246531e-04
2.900000e+08	2.418837e+11	0.000000e+00	5.427136e-01	8.015890e+12	1.661858e+14	7.693036e+13	4.051969e+03	2.127072e+03	1.449195e+03	0	2.238718e-04
3.000000e+08	2.394322e+11	0.000000e+00	5.427136e-01	7.942043e+12	1.618737e+14	7.652823e+13	4.049814e+03	2.118740e+03	1.443518e+03	0	2.231129e-04
3.100000e+08	2.370655e+11	0.000000e+00	5.427136e-01	7.870736e+12	1.578289e+14	7.612903e+13	4.047678e+03	2.110798e+03	1.438107e+03	0	2.223753e-04
3.200000e+08	2.347786e+11	0.000000e+00	5.427136e-01	7.801828e+12	1.540282e+14	7.573274e+13	4.045561e+03	2.103218e+03	1.432943e+03	0	2.216580e-04
3.300000e+08	2.325673e+11	0.000000e+00	5.427136e-01	7.735185e+12	1.504509e+14	7.533933e+13	4.043463e+03	2.095977e+03	1.428009e+03	0	2.209599e-04
3.400000e+08	2.304273e+11	0.000000e+00	5.427136e-01	7.670683e+12	1.470783e+14	7.494878e+13	4.041383e+03	2.089053e+03	1.423292e+03	0	2.202800e-04
3.500000e+08	2.283548e+11	0.000000e+00	5.427136e-01	7.608207e+12	1.438940e+14	7.456106e+13	4.039320e+03	2.082426e+03	1.418777e+03	0	2.196177e-04
3.600000e+08	2.263463e+11	0.000000e+00	5.427136e-01	7.547648e+12	1.408829e+14	7.417615e+13	4.037274e+03	2.076077e+03	1.414451e+03	0	2.189719e-04
3.700000e+08	2.243982e+11	0.000000e+00	5.427136e-01	7.488907e+12	1.380317e+14	7.379403e+13	4.035244e+03	2.069990e+03	1.410304e+03	0	2.183419e-04
3.800000e+08	2.225077e+11	0.000000e+00	5.427136e-01	7.431889e+12	1.353282e+14	7.341467e+13	4.033230e+03	2.064148e+03	1.406324e+03	0	2.177269e-04
3.900000e+08	2.206716e+11	0.000000e+00	5.427136e-01	7.376506e+12	1.327613e+14	7.303806e+13	4.031231e+03	2.058537e+03	1.402501e+03	0	2.171264e-04
4.000000e+08	2.188872e+11	0.000000e+00	5.427136e-01	7.322676e+12	1.303213e+14	7.266416e+13	4.029247e+03	2.053145e+03	1.398827e+03	0	2.165396e-04
4.100000e+08	2.171521e+11	0.000000e+00	5.427136e-01	7.270322e+12	1.279990e+14	7.229296e+13	4.027278e+03	2.047957e+03	1.395293e+03	0	2.159659e-04
4.200000e+08	2.154637e+11	0.000000e+00	5.427136e-01	7.219372e+12	1.257861e+14	7.192444e+13	4.025323e+03	2.042964e+03	1.391891e+03	0	2.154047e-04
4.300000e+08	2.138198e+11	0.000000e+00	5.427136e-01	7.169759e+12	1.236753e+14	7.155857e+13	4.023381e+03	2.038153e+03	1.388613e+03	0	2.148555e-04
4.400000e+08	2.122184e+11	0.000000e+00	5.427136e-01	7.121419e+12	1.216596e+14	7.119534e+13	4.021453e+03	2.033516e+03	1.385454e+03	0	2.143178e-04
4.500000e+08	2.106574e+11	0.000000e+00	5.427136e-01	7.074292e+12	1.197327e+14	7.083471e+13	4.019537e+03	2.029043e+03	1.382407e+03	0	2.137910e-04
4.600000e+08	2.091349e+11	0.000000e+00	5.427136e-01	7.028322e+12	1.178888e+14	7.047667e+13	4.017634e+03	2.024726e+03	1.379465e+03	0	2.132747e-04
4.700000e+08	2.076492e+11	0.000000e+00	5.427136e-01	6.983457e+12	1.161228e+14	7.012120e+13	4.015744e+03	2.020556e+03	1.376624e+03	0	2.127685e-04
4.800000e+08	2.061987e+11	0.000000e+00	5.427136e-01	6.939648e+12	1.144297e+14	6.976828e+13	4.013866e+03	2.016525e+03	1.373878e+03	0	2.122719e-04
4.900000e+08	2.047818e+11	0.000000e+00	5.427136e-01	6.896847e+12	1.128050e+14	6.941788e+13	4.011999e+03	2.012628e+03	1.371222e+03	0	2.117846e-04
5.000000e+08	2.033970e+11	0.000000e+00	5.427136e-01	6.855010e+12	1.112446e+14	6.906999e+13	4.010144e+03	2.008856e+03	1.368653e+03	0	2.113061e-04
5.100000e+08	2.020429e+11	0.000000e+00	5.427136e-01	6.814097e+12	1.097447e+14	6.872459e+13	4.008300e+03	2.005205e+03	1.366165e+03	0	2.108361e-04
5.200000e+08	2.007183e+11	0.000000e+00	5.427136e-01	6.774068e+12	1.083017e+14	6.838165e+13	4.006468e+03	2.001667e+03	1.363755e+03	0	2.103744e-04
5.300000e+08	1.994219e+11	0.000000e+00	5.427136e-01	6.734885e+12	1.069123e+14	6.804116e+13	4.004645e+03	1.998239e+03	1.361419e+03	0	2.099205e-04
5.400000e+08	1.981525e+11	0.000000e+00	5.427136e-01	6.696516e+12	1.055736e+14	6.770309e+13	4.002834e+03	1.994914e+03	1.359154e+03	0	2.094741e-04
5.500000e+08	1.969091e+11	0.000000e+00	5.427136e-01	6.658925e+12	1.042827e+14	6.736742e+13	4.001033e+03	1.991687e+03	1.356956e+03	0	2.090351e-04
5.600000e+08	1.956906e+11	0.000000e+00	5.427136e-01	6.622082e+12	1.030369e+14	6.703415e+13	3.999242e+03	1.988555e+03	1.354822e+03	0	2.086030e-04
5.700000e+08	1.944960e+11	0.000000e+00	5.427136e-01	6.585957e+12	1.018339e+14	6.670324e+13	3.997460e+03	1.985513e+03	1.352749e+03	0	2.081776e-04
5.800000e+08	1.933244e+11	0.000000e+00	5.427136e-01	6.550523e+12	1.006714e+14	6.637467e+13	3.995689e+03	1.982557e+03	1.350735e+03	0	2.077588e-04
5.900000e+08	1.921749e+11	0.000000e+00	5.427136e-01	6.515753e+12	9.954716e+13	6.604844e+13	3.993927e+03	1.979682e+03	1.348777e+03	0	2.073462e-04
6.000000e+08	1.910466e+11	0.000000e+00	5.427136e-01	6.481621e+12	9.845930e+13	6.572452e+13	3.992174e+03	1.976887e+03	1.346872e+03	0	2.069396e-04
6.100000e+08	1.899389e+11	0.000000e+00	5.427136e-01	6.448104e+12	9.740595e+13	6.540288e+13	3.990431e+03	1.974166e+03	1.345018e+03	0	2.065389e-04
6.200000e+08	1.888508e+11	0.000000e+00	5.427136e-01	6.415179e+12	9.638536e+13	6.508353e+13	3.988696e+03	1.971516e+03	1.343213e+03	0	2.061437e-04
6.300000e+08	1.877817e+11	0.000000e+00	5.427136e-01	6.382825e+12	9.539593e+13	6.476642e+13	3.986970e+03	1.968936e+03	1.341455e+03	0	2.057540e-04
6.400000e+08	1.867309e+11	0.000000e+00	5.427136e-01	6.351020e+12	9.443612e+13	6.445155e+13	3.985253e+03	1.966421e+03	1.339742e+03	0	2.053695e-04
6.500000e+08	1.856977e+11	0.000000e+00	5.427136e-01	6.319746e+12	9.350451e+13	6.413890e+13	3.983545e+03	1.963970e+03	1.338071e+03	0	2.049900e-04
6.600000e+08	1.846816e+11	0.000000e+00	5.427136e-01	6.288984e+12	9.259977e+13	6.382845e+13	3.981845e+03	1.961579e+03	1.336442e+03	0	2.046154e-04
6.700000e+08	1.836820e+11	0.000000e+00	5.427136e-01	6.258716e+12	9.172063e+13	6.352018e+13	3.980153e+03	1.959246e+03	1.334853e+03	0	2.042456e-04
6.800000e+08	1.826982e+11	0.000000e+00	5.427136e-01	6.228926e+12	9.086591e+13	6.321408e+13	3.978470e+03	1.956968e+03	1.333301e+03	0	2.038803e-04
6.900000e+08	1.817298e+11	0.000000e+00	5.427136e-01	6.199597e+12	9.003450e+13	6.291012e+13	3.976794e+03	1.954744e+03	1.331786e+03	0	2.035194e-04
7.000000e+08	1.807762e+11	0.000000e+00	5.427136e-01	6.170714e+12	8.922534e+13	6.260829e+13	3.975126e+03	1.952572e+03	1.330306e+03	0	2.031628e-04
7.100000e+08	1.798370e+11	0.000000e+00	5.427136e-01	6.142263e+12	8.843746e+13	6.230858e+13	3.973466e+03	1.950448e+03	1.328859e+03	0	2.028104e-04
7.200000e+08	1.789117e+11	0.000000e+00	5.427136e-01	6.114229e+12	8.766991e+13	6.201097e+13	3.971814e+03	1.948372e+03	1.327444e+03	0	2.024619e-04
7.300000e+08	1.779998e+11	0.000000e+00	5.427136e-01	6.086600e+12	8.692181e+13	6.171543e+13	3.970169e+03	1.946342e+03	1.326061e+03	0	2.021174e-04
7.400000e+08	1.771009e+11	0.000000e+00	5.427136e-01	6.059362e+12	8.619234e+13	6.142196e+13	3.968532e+03	1.944355e+03	1.324707e+03	0	2.017766e-04
7.500000e+08	1.762147e+11	0.000000e+00	5.427136e-01	6.032504e+12	8.548071e+13	6.113053e+13	3.966902e+03	1.942410e+03	1.323383e+03	0	2.014395e-04
7.600000e+08	1.753407e+11	0.000000e+00	5.427136e-01	6.006014e+12	8.478617e+13	6.084113e+13	3.965279e+03	1.940506e+03	1.322085e+03	0	2.011059e-04
7.700000e+08	1.744786e+11	0.000000e+00	5.427136e-01	5.979881e+12	8.410802e+13	6.055375e+13	3.963663e+03	1.938641e+03	1.320815e+03	0	2.007757e-04
7.800000e+08	1.736280e+11	0.000000e+00	5.427136e-01	5.954094e+12	8.344560e+13	6.026836e+13	3.962055e+03	1.936813e+03	1.319570e+03	0	2.004489e-04
7.900000e+08	1.727885e+11	0.000000e+00	5.427136e-01	5.928642e+12	8.279828e+13	5.998496e+13	3.960453e+03	1.935022e+03	1.318349e+03	0	2.001254e-04
8.000000e+08	1.719599e+11	0.000000e+00	5.427136e-01	5.903518e+12	8.216544e+13	5.970352e+13	3.958858e+03	1.933266e+03	1.317153e+03	0	1.998050e-04
8.100000e+08	1.711419e+11	0.000000e+00	5.427136e-01	5.878710e+12	8.154654e+13	5.942403e+13	3.957270e+03	1.931543e+03	1.315979e+03	0	1.994876e-04
8.200000e+08	1.703341e+11	0.000000e+00	5.427136e-01	5.854210e+12	8.094102e+13	5.914647e+13	3.955688e+03	1.929853e+03	1.314827e+03	0	1.991733e-04
8.300000e+08	1.695362e+11	0.000000e+00	5.427136e-01	5.830010e+12	8.034838e+13	5.887084e+13	3.954113e+03	1.928194e+03	1.313697e+03	0	1.988618e-04
8.400000e+08	1.687480e+11	0.000000e+00	5.427136e-01	5.806101e+12	7.976814e+13	5.859711e+13	3.952545e+03	1.926566e+03	1.312588e+03	0	1.985531e-04
8.500000e+08	1.679693e+11	0.000000e+00	5.427136e-01	5.782475e+12	7.919982e+13	5.832526e+13	3.950983e+03	1.924966e+03	1.311498e+03	0	1.982472e-04
8.600000e+08	1.671997e+11	0.000000e+00	5.427136e-01	5.759125e+12	7.864299e+13	5.805529e+13	3.949427e+03	1.923395e+03	1.310427e+03	0	1.979440e-04
8.700000e+08	1.664390e+11	0.000000e+00	5.427136e-01	5.736044e+12	7.809723e+13	5.778718e+13	3.947878e+03	1.921851e+03	1.309375e+03	0	1.976434e-04
8.800000e+08	1.656871e+11	0.000000e+00	5.427136e-01	5.713224e+12	7.756214e+13	5.752092e+13	3.946335e+03	1.920333e+03	1.308341e+03	0	1.973453e-04
8.900000e+08	1.649436e+11	0.000000e+00	5.427136e-01	5.690659e+12	7.703734e+13	5.725648e+13	3.944798e+03	1.918840e+03	1.307324e+03	0	1.970496e-04
9.000000e+08	1.642083e+11	0.000000e+00	5.427136e-01	5.668342e+12	7.652248e+13	5.699386e+13	3.943267e+03	1.917373e+03	1.306324e+03	0	1.967564e-04
9.100000e+08	1.634811e+11	0.000000e+00	5.427136e-01	5.646268e+12	7.601720e+13	5.673304e+13	3.941742e+03	1.915929e+03	1.305340e+03	0	1.964655e-04
9.200000e+08	1.627617e+11	0.000000e+00	5.427136e-01	5.624429e+12	7.552117e+13	5.647400e+13	3.940223e+03	1.914507e+03	1.304372e+03	0	1.961769e-04
9.300000e+08	1.620500e+11	0.000000e+00	5.427136e-01	5.602821e+12	7.503409e+13	5.621674e+13	3.938710e+03	1.913109e+03	1.303419e+03	0	1.958906e-04
9.400000e+08	1.613458e+11	0.000000e+00	5.427136e-01	5.581438e+12	7.455565e+13	5.596123e+13	3.937202e+03	1.911731e+03	1.302481e+03	0	1.956064e-04
9.500000e+08	1.606488e+11	0.000000e+00	5.427136e-01	5.560275e+12	7.408557e+13	5.570747e+13	3.935701e+03	1.910375e+03	1.301557e+03	0	1.953243e-04
9.600000e+08	1.599590e+11	0.000000e+00	5.427136e-01	5.539326e+12	7.362358e+13	5.545544e+13	3.934205e+03	1.909038e+03	1.300646e+03	0	1.950444e-04
9.700000e+08	1.592761e+11	0.000000e+00	5.427136e-01	5.518586e+12	7.316940e+13	5.520512e+13	3.932714e+03	1.907722e+03	1.299749e+03	0	1.947664e-04
9.800000e+08	1.586001e+11	0.000000e+00	5.427136e-01	5.498051e+12	7.272280e+13	5.495651e+13	3.931230e+03	1.906424e+03	1.298865e+03	0	1.944905e-04
9.900000e+08	1.579306e+11	0.000000e+00	5.427136e-01	5.477716e+12	7.228353e+13	5.470959e+13	3.929750e+03	1.905144e+03	1.297993e+03	0	1.942164e-04
1.000000e+09	1.572677e+11	0.000000e+00	5.427136e-01	5.457577e+12	7.185136e+13	5.446435e+13	3.928277e+03	1.903883e+03	1.297133e+03	0	1.939443e-04
1.010000e+09	1.566111e+11	0.000000e+00	5.427136e-01	5.437629e+12	7.142608e+13	5.422076e+13	3.926808e+03	1.902638e+03	1.296286e+03	0	1.936740e-04
1.020000e+09	1.559608e+11	0.000000e+00	5.427136e-01	5.417869e+12	7.100747e+13	5.397883e+13	3.925345e+03	1.901410e+03	1.295449e+03	0	1.934056e-04
1.030000e+09	1.553165e+11	0.000000e+00	5.427136e-01	5.398292e+12	7.059533e+13	5.373854e+13	3.923888e+03	1.900199e+03	1.294624e+03	0	1.931389e-04
1.040000e+09	1.546782e+11	0.000000e+00	5.427136e-01	5.378894e+12	7.018947e+13	5.349987e+13	3.922435e+03	1.899003e+03	1.293809e+03	0	1.928739e-04
1.050000e+09	1.540457e+11	0.000000e+00	5.427136e-01	5.359671e+12	6.978971e+13	5.326281e+13	3.920988e+03	1.897823e+03	1.293005e+03	0	1.926107e-04
1.060000e+09	1.534189e+11	0.000000e+00	5.427136e-01	5.340621e+12	6.939587e+13	5.302735e+13	3.919546e+03	1.896657e+03	1.292211e+03	0	1.923491e-04
1.070000e+09	1.527977e+11	0.000000e+00	5.427136e-01	5.321740e+12	6.900777e+13	5.279347e+13	3.918109e+03	1.895506e+03	1.291426e+03	0	1.920891e-04
1.080000e+09	1.521820e+11	0.000000e+00	5.427136e-01	5.303024e+12	6.862526e+13	5.256117e+13	3.916678e+03	1.894369e+03	1.290652e+03	0	1.918308e-04
1.090000e+09	1.515717e+11	0.000000e+00	5.427136e-01	5.284469e+12	6.824818e+13	5.233043e+13	3.915251e+03	1.893246e+03	1.289886e+03	0	1.915740e-04
1.100000e+09	1.509666e+11	0.000000e+00	5.427136e-01	5.266074e+12	6.787637e+13	5.210124e+13	3.913829e+03	1.892135e+03	1.289130e+03	0	1.913187e-04
1.110000e+09	1.503668e+11	0.000000e+00	5.427136e-01	5.247834e+12	6.750969e+13	5.187359e+13	3.912412e+03	1.891038e+03	1.288382e+03	0	1.910650e-04
1.120000e+09	1.497719e+11	0.000000e+00	5.427136e-01	5.229747e+12	6.714801e+13	5.164746e+13	3.911000e+03	1.889953e+03	1.287643e+03	0	1.908127e-04
1.130000e+09	1.491821e+11	0.000000e+00	5.427136e-01	5.211810e+12	6.679118e+13	5.142285e+13	3.909593e+03	1.888880e+03	1.286912e+03	0	1.905619e-04
1.140000e+09	1.485971e+11	0.000000e+00	5.427136e-01	5.194020e+12	6.643908e+13	5.119974e+13	3.908191e+03	1.887820e+03	1.286189e+03	0	1.903125e-04
1.150000e+09	1.480170e+11	0.000000e+00	5.427136e-01	5.176375e+12	6.609159e+13	5.097811e+13	3.906793e+03	1.886770e+03	1.285475e+03	0	1.900645e-04
1.160000e+09	1.474415e+11	0.000000e+00	5.427136e-01	5.158871e+12	6.574859e+13	5.075797e+13	3.905401e+03	1.885732e+03	1.284767e+03	0	1.898179e-04
1.170000e+09	1.468707e+11	0.000000e+00	5.427136e-01	5.141507e+12	6.540996e+13	5.053929e+13	3.904013e+03	1.884705e+03	1.284067e+03	0	1.895726e-04
1.180000e+09	1.463044e+11	0.000000e+00	5.427136e-01	5.124280e+12	6.507559e+13	5.032207e+13	3.902629e+03	1.883688e+03	1.283375e+03	0	1.893286e-04
1.190000e+09	1.457426e+11	0.000000e+00	5.427136e-01	5.107187e+12	6.474537e+13	5.010629e+13	3.901250e+03	1.882682e+03	1.282689e+03	0	1.890860e-04
1.200000e+09	1.451851e+11	0.000000e+00	5.427136e-01	5.090227e+12	6.441921e+13	4.989194e+13	3.899876e+03	1.881686e+03	1.282011e+03	0	1.888446e-04
1.210000e+09	1.446320e+11	0.000000e+00	5.427136e-01	5.073397e+12	6.409700e+13	4.967902e+13	3.898507e+03	1.880700e+03	1.281339e+03	0	1.886045e-04
1.220000e+09	1.440831e+11	0.000000e+00	5.427136e-01	5.056694e+12	6.377865e+13	4.946750e+13	3.897142e+03	1.879723e+03	1.280673e+03	0	1.883656e-04
1.230000e+09	1.435383e+11	0.000000e+00	5.427136e-01	5.040117e+12	6.346406e+13	4.925739e+13	3.895781e+03	1.878756e+03	1.280014e+03	0	1.881279e-04
1.240000e+09	1.429977e+11	0.000000e+00	5.427136e-01	5.023664e+12	6.315315e+13	4.904866e+13	3.894425e+03	1.877797e+03	1.279361e+03	0	1.878914e-04
1.250000e+09	1.424611e+11	0.000000e+00	5.427136e-01	5.007333e+12	6.284583e+13	4.884132e+13	3.893073e+03	1.876848e+03	1.278715e+03	0	1.876561e-04
1.260000e+09	1.419285e+11	0.000000e+00	5.427136e-01	4.991121e+12	6.254203e+13	4.863533e+13	3.891726e+03	1.875907e+03	1.278074e+03	0	1.874219e-04
1.270000e+09	1.413998e+11	0.000000e+00	5.427136e-01	4.975027e+12	6.224165e+13	4.843071e+13	3.890383e+03	1.874975e+03	1.277439e+03	0	1.871889e-04
1.280000e+09	1.408749e+11	0.000000e+00	5.427136e-01	4.959050e+12	6.194462e+13	4.822743e+13	3.889044e+03	1.874051e+03	1.276809e+03	0	1.869570e-04
1.290000e+09	1.403538e+11	0.000000e+00	5.427136e-01	4.943186e+12	6.165087e+13	4.802549e+13	3.887710e+03	1.873136e+03	1.276185e+03	0	1.867262e-04
1.300000e+09	1.398365e+11	0.000000e+00	5.427136e-01	4.927435e+12	6.136033e+13	4.782487e+13	3.886380e+03	1.872228e+03	1.275567e+03	0	1.864965e-04
1.310000e+09	1.393228e+11	0.000000e+00	5.427136e-01	4.911795e+12	6.107292e+13	4.762557e+13	3.885054e+03	1.871327e+03	1.274953e+03	0	1.862678e-04
1.320000e+09	1.388127e+11	0.000000e+00	5.427136e-01	4.896264e+12	6.078858e+13	4.742758e+13	3.883732e+03	1.870435e+03	1.274345e+03	0	1.860403e-04
1.330000e+09	1.383062e+11	0.000000e+00	5.427136e-01	4.880840e+12	6.050725e+13	4.723087e+13	3.882415e+03	1.869549e+03	1.273742e+03	0	1.858137e-04
1.340000e+09	1.378032e+11	0.000000e+00	5.427136e-01	4.865523e+12	6.022885e+13	4.703546e+13	3.881102e+03	1.868671e+03	1.273143e+03	0	1.855882e-04
1.350000e+09	1.373037e+11	0.000000e+00	5.427136e-01	4.850310e+12	5.995334e+13	4.684132e+13	3.879793e+03	1.867800e+03	1.272550e+03	0	1.853637e-04
1.360000e+09	1.368076e+11	0.000000e+00	5.427136e-01	4.835200e+12	5.968064e+13	4.664844e+13	3.878487e+03	1.866936e+03	1.271961e+03	0	1.851401e-04
