#t		Qconv[W]	Ri[Rp]		R*[Rp]		Qc[W]		Qm[W]		Qr[W]		Tcmb[K]		Tl[K]		Tup[K]		RiFlag		Bs[T]
0.000000e+00	9.362831e+11	0.000000e+00	5.427136e-01	2.373070e+13	1.532011e+15	1.278258e+14	4.914250e+03	3.353715e+03	2.108023e+03	0	3.429319e-04
1.000000e+07	9.295606e+11	0.000000e+00	5.427136e-01	2.357257e+13	1.326227e+15	1.271176e+14	4.909993e+03	3.256139e+03	2.046690e+03	0	3.421092e-04
2.000000e+07	9.174815e+11	0.000000e+00	5.427136e-01	2.328979e+13	1.164013e+15	1.264146e+14	4.905764e+03	3.172490e+03	1.994111e+03	0	3.406209e-04
3.000000e+07	9.025306e+11	0.000000e+00	5.427136e-01	2.294020e+13	1.033727e+15	1.257169e+14	4.901585e+03	3.099902e+03	1.948485e+03	0	3.387605e-04
4.000000e+07	8.861772e+11	0.000000e+00	5.427136e-01	2.255799e+13	9.273631e+14	1.250244e+14	4.897469e+03	3.036256e+03	1.908479e+03	0	3.367020e-04
5.000000e+07	8.692983e+11	0.000000e+00	5.427136e-01	2.216358e+13	8.392833e+14	1.243371e+14	4.893420e+03	2.979946e+03	1.873085e+03	0	3.345505e-04
6.000000e+07	8.524187e+11	0.000000e+00	5.427136e-01	2.176918e+13	7.654239e+14	1.236549e+14	4.889443e+03	2.929735e+03	1.841525e+03	0	3.323710e-04
7.000000e+07	8.358492e+11	0.000000e+00	5.427136e-01	2.138203e+13	7.027985e+14	1.229778e+14	4.885536e+03	2.884656e+03	1.813190e+03	0	3.302033e-04
8.000000e+07	8.197686e+11	0.000000e+00	5.427136e-01	2.100628e+13	6.491719e+14	1.223057e+14	4.881698e+03	2.843938e+03	1.787596e+03	0	3.280720e-04
9.000000e+07	8.042739e+11	0.000000e+00	5.427136e-01	2.064419e+13	6.028442e+14	1.216386e+14	4.877928e+03	2.806961e+03	1.764353e+03	0	3.259919e-04
1.000000e+08	7.894109e+11	0.000000e+00	5.427136e-01	2.029683e+13	5.625035e+14	1.209765e+14	4.874222e+03	2.773219e+03	1.743144e+03	0	3.239713e-04
1.100000e+08	7.751932e+11	0.000000e+00	5.427136e-01	1.996451e+13	5.271235e+14	1.203192e+14	4.870579e+03	2.742296e+03	1.723707e+03	0	3.220145e-04
1.200000e+08	7.616147e+11	0.000000e+00	5.427136e-01	1.964709e+13	4.958921e+14	1.196669e+14	4.866995e+03	2.713846e+03	1.705824e+03	0	3.201233e-04
1.300000e+08	7.486574e+11	0.000000e+00	5.427136e-01	1.934415e+13	4.681593e+14	1.190194e+14	4.863468e+03	2.687577e+03	1.689313e+03	0	3.182975e-04
1.400000e+08	7.362962e+11	0.000000e+00	5.427136e-01	1.905511e+13	4.433995e+14	1.183766e+14	4.859995e+03	2.663245e+03	1.674018e+03	0	3.165359e-04
1.500000e+08	7.245026e+11	0.000000e+00	5.427136e-01	1.877929e+13	4.211841e+14	1.177387e+14	4.856574e+03	2.640639e+03	1.659809e+03	0	3.148368e-04
1.600000e+08	7.132462e+11	0.000000e+00	5.427136e-01	1.851600e+13	4.011603e+14	1.171054e+14	4.853202e+03	2.619579e+03	1.646572e+03	0	3.131977e-04
1.700000e+08	7.024965e+11	0.000000e+00	5.427136e-01	1.826451e+13	3.830355e+14	1.164768e+14	4.849878e+03	2.599912e+03	1.634209e+03	0	3.116163e-04
1.800000e+08	6.922236e+11	0.000000e+00	5.427136e-01	1.802414e+13	3.665654e+14	1.158529e+14	4.846599e+03	2.581501e+03	1.622637e+03	0	3.100899e-04
1.900000e+08	6.823986e+11	0.000000e+00	5.427136e-01	1.779422e+13	3.515445e+14	1.152335e+14	4.843362e+03	2.564230e+03	1.611781e+03	0	3.086158e-04
2.000000e+08	6.729941e+11	0.000000e+00	5.427136e-01	1.757409e+13	3.377987e+14	1.146187e+14	4.840167e+03	2.547995e+03	1.601577e+03	0	3.071915e-04
2.100000e+08	6.639840e+11	0.000000e+00	5.427136e-01	1.736316e+13	3.251801e+14	1.140084e+14	4.837012e+03	2.532706e+03	1.591967e+03	0	3.058145e-04
2.200000e+08	6.553440e+11	0.000000e+00	5.427136e-01	1.716085e+13	3.135620e+14	1.134026e+14	4.833894e+03	2.518282e+03	1.582900e+03	0	3.044822e-04
2.300000e+08	6.470515e+11	0.000000e+00	5.427136e-01	1.696665e+13	3.028352e+14	1.128013e+14	4.830812e+03	2.504652e+03	1.574333e+03	0	3.031925e-04
2.400000e+08	6.390850e+11	0.000000e+00	5.427136e-01	1.678004e+13	2.929057e+14	1.122043e+14	4.827765e+03	2.491753e+03	1.566225e+03	0	3.019430e-04
2.500000e+08	6.314248e+11	0.000000e+00	5.427136e-01	1.660058e+13	2.836914e+14	1.116117e+14	4.824752e+03	2.479526e+03	1.558539e+03	0	3.007318e-04
2.600000e+08	6.240526e+11	0.000000e+00	5.427136e-01	1.642784e+13	2.751212e+14	1.110235e+14	4.821771e+03	2.467922e+03	1.551245e+03	0	2.995568e-04
2.700000e+08	6.169511e+11	0.000000e+00	5.427136e-01	1.626141e+13	2.671324e+14	1.104396e+14	4.818821e+03	2.456893e+03	1.544313e+03	0	2.984162e-04
2.800000e+08	6.101046e+11	0.000000e+00	5.427136e-01	1.610092e+13	2.596703e+14	1.098599e+14	4.815900e+03	2.446399e+03	1.537717e+03	0	2.973082e-04
2.900000e+08	6.034983e+11	0.000000e+00	5.427136e-01	1.594603e+13	2.526864e+14	1.092844e+14	4.813009e+03	2.436401e+03	1.531433e+03	0	2.962312e-04
3.000000e+08	5.971184e+11	0.000000e+00	5.427136e-01	1.579643e+13	2.461378e+14	1.087132e+14	4.810145e+03	2.426866e+03	1.525439e+03	0	2.951836e-04
3.100000e+08	5.909523e+11	0.000000e+00	5.427136e-01	1.565180e+13	2.399864e+14	1.081461e+14	4.807308e+03	2.417762e+03	1.519717e+03	0	2.941641e-04
3.200000e+08	5.849880e+11	0.000000e+00	5.427136e-01	1.551189e+13	2.341985e+14	1.075832e+14	4.804497e+03	2.409061e+03	1.514248e+03	0	2.931711e-04
3.300000e+08	5.792145e+11	0.000000e+00	5.427136e-01	1.537643e+13	2.287437e+14	1.070243e+14	4.801711e+03	2.400737e+03	1.509016e+03	0	2.922034e-04
3.400000e+08	5.736215e+11	0.000000e+00	5.427136e-01	1.524517e+13	2.235950e+14	1.064695e+14	4.798949e+03	2.392767e+03	1.504006e+03	0	2.912598e-04
3.500000e+08	5.681995e+11	0.000000e+00	5.427136e-01	1.511791e+13	2.187279e+14	1.059187e+14	4.796211e+03	2.385127e+03	1.499204e+03	0	2.903393e-04
3.600000e+08	5.629396e+11	0.000000e+00	5.427136e-01	1.499443e+13	2.141207e+14	1.053719e+14	4.793496e+03	2.377798e+03	1.494597e+03	0	2.894406e-04
3.700000e+08	5.578333e+11	0.000000e+00	5.427136e-01	1.487453e+13	2.097535e+14	1.048291e+14	4.790803e+03	2.370762e+03	1.490174e+03	0	2.885628e-04
3.800000e+08	5.528729e+11	0.000000e+00	5.427136e-01	1.475803e+13	2.056084e+14	1.042902e+14	4.788131e+03	2.364001e+03	1.485925e+03	0	2.877049e-04
3.900000e+08	5.480511e+11	0.000000e+00	5.427136e-01	1.464477e+13	2.016693e+14	1.037552e+14	4.785480e+03	2.357500e+03	1.481838e+03	0	2.868661e-04
4.000000e+08	5.433612e+11	0.000000e+00	5.427136e-01	1.453459e+13	1.979214e+14	1.032240e+14	4.782850e+03	2.351244e+03	1.477906e+03	0	2.860454e-04
4.100000e+08	5.387966e+11	0.000000e+00	5.427136e-01	1.442733e+13	1.943513e+14	1.026967e+14	4.780239e+03	2.345219e+03	1.474119e+03	0	2.852422e-04
4.200000e+08	5.343515e+11	0.000000e+00	5.427136e-01	1.432286e+13	1.909469e+14	1.021732e+14	4.777648e+03	2.339413e+03	1.470469e+03	0	2.844556e-04
4.300000e+08	5.300202e+11	0.000000e+00	5.427136e-01	1.422104e+13	1.876970e+14	1.016535e+14	4.775075e+03	2.333813e+03	1.466950e+03	0	2.836849e-04
4.400000e+08	5.257975e+11	0.000000e+00	5.427136e-01	1.412176e+13	1.845912e+14	1.011375e+14	4.772521e+03	2.328410e+03	1.463553e+03	0	2.829296e-04
4.500000e+08	5.216784e+11	0.000000e+00	5.427136e-01	1.402490e+13	1.816204e+14	1.006252e+14	4.769984e+03	2.323192e+03	1.460274e+03	0	2.821888e-04
4.600000e+08	5.176583e+11	0.000000e+00	5.427136e-01	1.393034e+13	1.787759e+14	1.001166e+14	4.767465e+03	2.318151e+03	1.457105e+03	0	2.814621e-04
4.700000e+08	5.137327e+11	0.000000e+00	5.427136e-01	1.383800e+13	1.760498e+14	9.961161e+13	4.764962e+03	2.313277e+03	1.454041e+03	0	2.807488e-04
4.800000e+08	5.098976e+11	0.000000e+00	5.427136e-01	1.374776e+13	1.734347e+14	9.911026e+13	4.762477e+03	2.308561e+03	1.451077e+03	0	2.800484e-04
4.900000e+08	5.061490e+11	0.000000e+00	5.427136e-01	1.365955e+13	1.709241e+14	9.861250e+13	4.760007e+03	2.303997e+03	1.448209e+03	0	2.793605e-04
5.000000e+08	5.024834e+11	0.000000e+00	5.427136e-01	1.357327e+13	1.685116e+14	9.811830e+13	4.757553e+03	2.299577e+03	1.445430e+03	0	2.786844e-04
5.100000e+08	4.988972e+11	0.000000e+00	5.427136e-01	1.348885e+13	1.661916e+14	9.762763e+13	4.755115e+03	2.295294e+03	1.442738e+03	0	2.780199e-04
5.200000e+08	4.953872e+11	0.000000e+00	5.427136e-01	1.340621e+13	1.639587e+14	9.714047e+13	4.752692e+03	2.291141e+03	1.440128e+03	0	2.773663e-04
5.300000e+08	4.919502e+11	0.000000e+00	5.427136e-01	1.332527e+13	1.618080e+14	9.665677e+13	4.750284e+03	2.287113e+03	1.437595e+03	0	2.767234e-04
5.400000e+08	4.885835e+11	0.000000e+00	5.427136e-01	1.324597e+13	1.597349e+14	9.617653e+13	4.747890e+03	2.283203e+03	1.435138e+03	0	2.760907e-04
5.500000e+08	4.852841e+11	0.000000e+00	5.427136e-01	1.316825e+13	1.577352e+14	9.569970e+13	4.745510e+03	2.279406e+03	1.432752e+03	0	2.754678e-04
5.600000e+08	4.820495e+11	0.000000e+00	5.427136e-01	1.309204e+13	1.558049e+14	9.522625e+13	4.743145e+03	2.275718e+03	1.430433e+03	0	2.748544e-04
5.700000e+08	4.788772e+11	0.000000e+00	5.427136e-01	1.301728e+13	1.539403e+14	9.475618e+13	4.740793e+03	2.272133e+03	1.428180e+03	0	2.742501e-04
5.800000e+08	4.757649e+11	0.000000e+00	5.427136e-01	1.294393e+13	1.521379e+14	9.428943e+13	4.738454e+03	2.268647e+03	1.425989e+03	0	2.736547e-04
5.900000e+08	4.727102e+11	0.000000e+00	5.427136e-01	1.287192e+13	1.503947e+14	9.382600e+13	4.736129e+03	2.265256e+03	1.423857e+03	0	2.730678e-04
6.000000e+08	4.697112e+11	0.000000e+00	5.427136e-01	1.280121e+13	1.487074e+14	9.336584e+13	4.733817e+03	2.261955e+03	1.421782e+03	0	2.724891e-04
6.100000e+08	4.667657e+11	0.000000e+00	5.427136e-01	1.273175e+13	1.470735e+14	9.290894e+13	4.731517e+03	2.258740e+03	1.419762e+03	0	2.719183e-04
6.200000e+08	4.638719e+11	0.000000e+00	5.427136e-01	1.266351e+13	1.454901e+14	9.245527e+13	4.729230e+03	2.255609e+03	1.417793e+03	0	2.713552e-04
6.300000e+08	4.610280e+11	0.000000e+00	5.427136e-01	1.259642e+13	1.439549e+14	9.200480e+13	4.726955e+03	2.252557e+03	1.415875e+03	0	2.707995e-04
6.400000e+08	4.582321e+11	0.000000e+00	5.427136e-01	1.253046e+13	1.424655e+14	9.155751e+13	4.724692e+03	2.249582e+03	1.414005e+03	0	2.702510e-04
6.500000e+08	4.554828e+11	0.000000e+00	5.427136e-01	1.246559e+13	1.410198e+14	9.111337e+13	4.722440e+03	2.246680e+03	1.412181e+03	0	2.697094e-04
6.600000e+08	4.527783e+11	0.000000e+00	5.427136e-01	1.240176e+13	1.396157e+14	9.067235e+13	4.720201e+03	2.243848e+03	1.410401e+03	0	2.691746e-04
6.700000e+08	4.501172e+11	0.000000e+00	5.427136e-01	1.233895e+13	1.382513e+14	9.023444e+13	4.717973e+03	2.241084e+03	1.408663e+03	0	2.686462e-04
6.800000e+08	4.474981e+11	0.000000e+00	5.427136e-01	1.227713e+13	1.369248e+14	8.979960e+13	4.715756e+03	2.238384e+03	1.406966e+03	0	2.681241e-04
6.900000e+08	4.449195e+11	0.000000e+00	5.427136e-01	1.221625e+13	1.356345e+14	8.936781e+13	4.713550e+03	2.235747e+03	1.405309e+03	0	2.676081e-04
7.000000e+08	4.423803e+11	0.000000e+00	5.427136e-01	1.215629e+13	1.343787e+14	8.893905e+13	4.711356e+03	2.233169e+03	1.403689e+03	0	2.670981e-04
7.100000e+08	4.398791e+11	0.000000e+00	5.427136e-01	1.209721e+13	1.331561e+14	8.851329e+13	4.709171e+03	2.230650e+03	1.402105e+03	0	2.665937e-04
7.200000e+08	4.374148e+11	0.000000e+00	5.427136e-01	1.203901e+13	1.319651e+14	8.809051e+13	4.706998e+03	2.228185e+03	1.400556e+03	0	2.660950e-04
7.300000e+08	4.349863e+11	0.000000e+00	5.427136e-01	1.198163e+13	1.308044e+14	8.767068e+13	4.704835e+03	2.225775e+03	1.399040e+03	0	2.656016e-04
7.400000e+08	4.325924e+11	0.000000e+00	5.427136e-01	1.192507e+13	1.296727e+14	8.725378e+13	4.702682e+03	2.223415e+03	1.397557e+03	0	2.651134e-04
7.500000e+08	4.302321e+11	0.000000e+00	5.427136e-01	1.186930e+13	1.285688e+14	8.683979e+13	4.700540e+03	2.221105e+03	1.396105e+03	0	2.646304e-04
7.600000e+08	4.279044e+11	0.000000e+00	5.427136e-01	1.181428e+13	1.274916e+14	8.642868e+13	4.698407e+03	2.218842e+03	1.394683e+03	0	2.641523e-04
7.700000e+08	4.256084e+11	0.000000e+00	5.427136e-01	1.176001e+13	1.264400e+14	8.602044e+13	4.696285e+03	2.216626e+03	1.393290e+03	0	2.636790e-04
7.800000e+08	4.233431e+11	0.000000e+00	5.427136e-01	1.170646e+13	1.254129e+14	8.561503e+13	4.694172e+03	2.214454e+03	1.391925e+03	0	2.632104e-04
7.900000e+08	4.211078e+11	0.000000e+00	5.427136e-01	1.165360e+13	1.244095e+14	8.521243e+13	4.692068e+03	2.212324e+03	1.390586e+03	0	2.627463e-04
8.000000e+08	4.189014e+11	0.000000e+00	5.427136e-01	1.160143e+13	1.234287e+14	8.481263e+13	4.689975e+03	2.210236e+03	1.389274e+03	0	2.622866e-04
8.100000e+08	4.167233e+11	0.000000e+00	5.427136e-01	1.154992e+13	1.224697e+14	8.441560e+13	4.687890e+03	2.208188e+03	1.387986e+03	0	2.618312e-04
8.200000e+08	4.145727e+11	0.000000e+00	5.427136e-01	1.149905e+13	1.215316e+14	8.402131e+13	4.685815e+03	2.206178e+03	1.386723e+03	0	2.613800e-04
8.300000e+08	4.124488e+11	0.000000e+00	5.427136e-01	1.144880e+13	1.206138e+14	8.362976e+13	4.683749e+03	2.204205e+03	1.385482e+03	0	2.609329e-04
8.400000e+08	4.103510e+11	0.000000e+00	5.427136e-01	1.139917e+13	1.197153e+14	8.324090e+13	4.681692e+03	2.202267e+03	1.384265e+03	0	2.604897e-04
8.500000e+08	4.082784e+11	0.000000e+00	5.427136e-01	1.135013e+13	1.188356e+14	8.285473e+13	4.679644e+03	2.200365e+03	1.383069e+03	0	2.600504e-04
8.600000e+08	4.062305e+11	0.000000e+00	5.427136e-01	1.130166e+13	1.179738e+14	8.247122e+13	4.677604e+03	2.198496e+03	1.381894e+03	0	2.596149e-04
8.700000e+08	4.042067e+11	0.000000e+00	5.427136e-01	1.125376e+13	1.171295e+14	8.209036e+13	4.675574e+03	2.196659e+03	1.380740e+03	0	2.591831e-04
8.800000e+08	4.022063e+11	0.000000e+00	5.427136e-01	1.120641e+13	1.163019e+14	8.171211e+13	4.673552e+03	2.194854e+03	1.379605e+03	0	2.587548e-04
8.900000e+08	4.002288e+11	0.000000e+00	5.427136e-01	1.115959e+13	1.154905e+14	8.133646e+13	4.671538e+03	2.193079e+03	1.378489e+03	0	2.583300e-04
9.000000e+08	3.982735e+11	0.000000e+00	5.427136e-01	1.111330e+13	1.146946e+14	8.096339e+13	4.669533e+03	2.191333e+03	1.377392e+03	0	2.579087e-04
9.100000e+08	3.963400e+11	0.000000e+00	5.427136e-01	1.106751e+13	1.139139e+14	8.059287e+13	4.667536e+03	2.189616e+03	1.376312e+03	0	2.574906e-04
9.200000e+08	3.944278e+11	0.000000e+00	5.427136e-01	1.102222e+13	1.131477e+14	8.022490e+13	4.665547e+03	2.187926e+03	1.375250e+03	0	2.570759e-04
9.300000e+08	3.925362e+11	0.000000e+00	5.427136e-01	1.097742e+13	1.123955e+14	7.985944e+13	4.663567e+03	2.186262e+03	1.374205e+03	0	2.566642e-04
9.400000e+08	3.906649e+11	0.000000e+00	5.427136e-01	1.093309e+13	1.116570e+14	7.949647e+13	4.661594e+03	2.184625e+03	1.373175e+03	0	2.562557e-04
9.500000e+08	3.888133e+11	0.000000e+00	5.427136e-01	1.088922e+13	1.109316e+14	7.913599e+13	4.659630e+03	2.183012e+03	1.372162e+03	0	2.558503e-04
9.600000e+08	3.869811e+11	0.000000e+00	5.427136e-01	1.084581e+13	1.102190e+14	7.877796e+13	4.657673e+03	2.181424e+03	1.371163e+03	0	2.554477e-04
9.700000e+08	3.851678e+11	0.000000e+00	5.427136e-01	1.080284e+13	1.095187e+14	7.842238e+13	4.655724e+03	2.179859e+03	1.370180e+03	0	2.550481e-04
9.800000e+08	3.833729e+11	0.000000e+00	5.427136e-01	1.076030e+13	1.088303e+14	7.806921e+13	4.653783e+03	2.178317e+03	1.369210e+03	0	2.546513e-04
9.900000e+08	3.815961e+11	0.000000e+00	5.427136e-01	1.071819e+13	1.081534e+14	7.771844e+13	4.651850e+03	2.176796e+03	1.368255e+03	0	2.542573e-04
1.000000e+09	3.798370e+11	0.000000e+00	5.427136e-01	1.067649e+13	1.074878e+14	7.737005e+13	4.649924e+03	2.175298e+03	1.367313e+03	0	2.538660e-04
1.010000e+09	3.780951e+11	0.000000e+00	5.427136e-01	1.063519e+13	1.068330e+14	7.702403e+13	4.648005e+03	2.173820e+03	1.366384e+03	0	2.534773e-04
1.020000e+09	3.763702e+11	0.000000e+00	5.427136e-01	1.059430e+13	1.061887e+14	7.668035e+13	4.646094e+03	2.172362e+03	1.365467e+03	0	2.530913e-04
1.030000e+09	3.746618e+11	0.000000e+00	5.427136e-01	1.055379e+13	1.055547e+14	7.633900e+13	4.644191e+03	2.170924e+03	1.364563e+03	0	2.527078e-04
1.040000e+09	3.729697e+11	0.000000e+00	5.427136e-01	1.051366e+13	1.049305e+14	7.599995e+13	4.642294e+03	2.169505e+03	1.363671e+03	0	2.523268e-04
1.050000e+09	3.712935e+11	0.000000e+00	5.427136e-01	1.047390e+13	1.043160e+14	7.566319e+13	4.640405e+03	2.168104e+03	1.362791e+03	0	2.519482e-04
1.060000e+09	3.696328e+11	0.000000e+00	5.427136e-01	1.043451e+13	1.037108e+14	7.532870e+13	4.638523e+03	2.166722e+03	1.361922e+03	0	2.515720e-04
1.070000e+09	3.679875e+11	0.000000e+00	5.427136e-01	1.039548e+13	1.031147e+14	7.499647e+13	4.636648e+03	2.165356e+03	1.361064e+03	0	2.511982e-04
1.080000e+09	3.663571e+11	0.000000e+00	5.427136e-01	1.035680e+13	1.025274e+14	7.466647e+13	4.634780e+03	2.164008e+03	1.360216e+03	0	2.508266e-04
1.090000e+09	3.647414e+11	0.000000e+00	5.427136e-01	1.031846e+13	1.019487e+14	7.433869e+13	4.632919e+03	2.162676e+03	1.359379e+03	0	2.504574e-04
1.100000e+09	3.631400e+11	0.000000e+00	5.427136e-01	1.028046e+13	1.013783e+14	7.401312e+13	4.631064e+03	2.161361e+03	1.358552e+03	0	2.500903e-04
1.110000e+09	3.615529e+11	0.000000e+00	5.427136e-01	1.024280e+13	1.008160e+14	7.368972e+13	4.629217e+03	2.160061e+03	1.357735e+03	0	2.497254e-04
1.120000e+09	3.599795e+11	0.000000e+00	5.427136e-01	1.020545e+13	1.002615e+14	7.336849e+13	4.627377e+03	2.158776e+03	1.356928e+03	0	2.493627e-04
1.130000e+09	3.584198e+11	0.000000e+00	5.427136e-01	1.016843e+13	9.971480e+13	7.304942e+13	4.625543e+03	2.157506e+03	1.356129e+03	0	2.490020e-04
1.140000e+09	3.568735e+11	0.000000e+00	5.427136e-01	1.013172e+13	9.917552e+13	7.273247e+13	4.623715e+03	2.156250e+03	1.355340e+03	0	2.486434e-04
1.150000e+09	3.553402e+11	0.000000e+00	5.427136e-01	1.009532e+13	9.864351e+13	7.241764e+13	4.621895e+03	2.155009e+03	1.354560e+03	0	2.482868e-04
1.160000e+09	3.538199e+11	0.000000e+00	5.427136e-01	1.005922e+13	9.811858e+13	7.210491e+13	4.620081e+03	2.153781e+03	1.353788e+03	0	2.479322e-04
1.170000e+09	3.523122e+11	0.000000e+00	5.427136e-01	1.002342e+13	9.760056e+13	7.179427e+13	4.618273e+03	2.152566e+03	1.353024e+03	0	2.475795e-04
1.180000e+09	3.508169e+11	0.000000e+00	5.427136e-01	9.987911e+12	9.708927e+13	7.148569e+13	4.616472e+03	2.151364e+03	1.352269e+03	0	2.472288e-04
1.190000e+09	3.493339e+11	0.000000e+00	5.427136e-01	9.952688e+12	9.658454e+13	7.117916e+13	4.614677e+03	2.150175e+03	1.351522e+03	0	2.468799e-04
1.200000e+09	3.478629e+11	0.000000e+00	5.427136e-01	9.917748e+12	9.608620e+13	7.087467e+13	4.612888e+03	2.148999e+03	1.350782e+03	0	2.465329e-04
1.210000e+09	3.464037e+11	0.000000e+00	5.427136e-01	9.883085e+12	9.559410e+13	7.057219e+13	4.611106e+03	2.147834e+03	1.350050e+03	0	2.461877e-04
1.220000e+09	3.449561e+11	0.000000e+00	5.427136e-01	9.848695e+12	9.510809e+13	7.027172e+13	4.609330e+03	2.146681e+03	1.349325e+03	0	2.458443e-04
1.230000e+09	3.435199e+11	0.000000e+00	5.427136e-01	9.814573e+12	9.462802e+13	6.997324e+13	4.607560e+03	2.145539e+03	1.348608e+03	0	2.455026e-04
1.240000e+09	3.420950e+11	0.000000e+00	5.427136e-01	9.780715e+12	9.415376e+13	6.967673e+13	4.605796e+03	2.144409e+03	1.347897e+03	0	2.451627e-04
1.250000e+09	3.406812e+11	0.000000e+00	5.427136e-01	9.747117e+12	9.368516e+13	6.938218e+13	4.604039e+03	2.143289e+03	1.347193e+03	0	2.448245e-04
1.260000e+09	3.392782e+11	0.000000e+00	5.427136e-01	9.713775e+12	9.322210e+13	6.908957e+13	4.602287e+03	2.142181e+03	1.346496e+03	0	2.444879e-04
1.270000e+09	3.378859e+11	0.000000e+00	5.427136e-01	9.680684e+12	9.276444e+13	6.879889e+13	4.600541e+03	2.141082e+03	1.345806e+03	0	2.441531e-04
1.280000e+09	3.365042e+11	0.000000e+00	5.427136e-01	9.647842e+12	9.231207e+13	6.851012e+13	4.598802e+03	2.139994e+03	1.345122e+03	0	2.438198e-04
1.290000e+09	3.351329e+11	0.000000e+00	5.427136e-01	9.615243e+12	9.186486e+13	6.822325e+13	4.597068e+03	2.138915e+03	1.344444e+03	0	2.434882e-04
1.300000e+09	3.337718e+11	0.000000e+00	5.427136e-01	9.582885e+12	9.142271e+13	6.793826e+13	4.595340e+03	2.137846e+03	1.343772e+03	0	2.431581e-04
1.310000e+09	3.324208e+11	0.000000e+00	5.427136e-01	9.550764e+12	9.098549e+13	6.765514e+13	4.593618e+03	2.136787e+03	1.343106e+03	0	2.428296e-04
1.320000e+09	3.310798e+11	0.000000e+00	5.427136e-01	9.518876e+12	9.055312e+13	6.737388e+13	4.591901e+03	2.135737e+03	1.342446e+03	0	2.425026e-04
1.330000e+09	3.297484e+11	0.000000e+00	5.427136e-01	9.487217e+12	9.012547e+13	6.709445e+13	4.590191e+03	2.134696e+03	1.341792e+03	0	2.421771e-04
1.340000e+09	3.284268e+11	0.000000e+00	5.427136e-01	9.455786e+12	8.970245e+13	6.681685e+13	4.588486e+03	2.133663e+03	1.341143e+03	0	2.418531e-04
1.350000e+09	3.271146e+11	0.000000e+00	5.427136e-01	9.424577e+12	8.928396e+13	6.654106e+13	4.586787e+03	2.132640e+03	1.340499e+03	0	2.415306e-04
1.360000e+09	3.258118e+11	0.000000e+00	5.427136e-01	9.393589e+12	8.886991e+13	6.626707e+13	4.585093e+03	2.131624e+03	1.339861e+03	0	2.412095e-04
