#t		Qconv[W]	Ri[Rp]		R*[Rp]		Qc[W]		Qm[W]		Qr[W]		Tcmb[K]		Tl[K]		Tup[K]		RiFlag		Bs[T]
0.000000e+00	7.284114e+12	0.000000e+00	5.276382e-01	1.200923e+14	3.012929e+15	2.954119e+14	8.149759e+03	4.913162e+03	2.366467e+03	0	6.607827e-04
1.000000e+07	7.146435e+12	0.000000e+00	5.276382e-01	1.181361e+14	2.730417e+15	2.937751e+14	8.141233e+03	4.821640e+03	2.322385e+03	0	6.565930e-04
2.000000e+07	7.007720e+12	0.000000e+00	5.276382e-01	1.161656e+14	2.492062e+15	2.921506e+14	8.132845e+03	4.739666e+03	2.282901e+03	0	6.523170e-04
3.000000e+07	6.870512e+12	0.000000e+00	5.276382e-01	1.142166e+14	2.288907e+15	2.905381e+14	8.124597e+03	4.665771e+03	2.247309e+03	0	6.480315e-04
4.000000e+07	6.736352e+12	0.000000e+00	5.276382e-01	1.123108e+14	2.114163e+15	2.889378e+14	8.116486e+03	4.598775e+03	2.215040e+03	0	6.437857e-04
5.000000e+07	6.606143e+12	0.000000e+00	5.276382e-01	1.104610e+14	1.962616e+15	2.873493e+14	8.108511e+03	4.537721e+03	2.185633e+03	0	6.396107e-04
6.000000e+07	6.480376e+12	0.000000e+00	5.276382e-01	1.086739e+14	1.830203e+15	2.857727e+14	8.100666e+03	4.481828e+03	2.158711e+03	0	6.355257e-04
7.000000e+07	6.359275e+12	0.000000e+00	5.276382e-01	1.069527e+14	1.713725e+15	2.842079e+14	8.092948e+03	4.430444e+03	2.133962e+03	0	6.315421e-04
8.000000e+07	6.242891e+12	0.000000e+00	5.276382e-01	1.052983e+14	1.610629e+15	2.826546e+14	8.085352e+03	4.383027e+03	2.111123e+03	0	6.276656e-04
9.000000e+07	6.131167e+12	0.000000e+00	5.276382e-01	1.037096e+14	1.518864e+15	2.811130e+14	8.077873e+03	4.339122e+03	2.089976e+03	0	6.238987e-04
1.000000e+08	6.023976e+12	0.000000e+00	5.276382e-01	1.021850e+14	1.436761e+15	2.795827e+14	8.070506e+03	4.298340e+03	2.070333e+03	0	6.202415e-04
1.100000e+08	5.921151e+12	0.000000e+00	5.276382e-01	1.007221e+14	1.362952e+15	2.780639e+14	8.063248e+03	4.260349e+03	2.052034e+03	0	6.166922e-04
1.200000e+08	5.822502e+12	0.000000e+00	5.276382e-01	9.931818e+13	1.296307e+15	2.765562e+14	8.056093e+03	4.224865e+03	2.034943e+03	0	6.132482e-04
1.300000e+08	5.727829e+12	0.000000e+00	5.276382e-01	9.797045e+13	1.235886e+15	2.750598e+14	8.049038e+03	4.191640e+03	2.018940e+03	0	6.099063e-04
1.400000e+08	5.636929e+12	0.000000e+00	5.276382e-01	9.667602e+13	1.180900e+15	2.735744e+14	8.042078e+03	4.160461e+03	2.003922e+03	0	6.066626e-04
1.500000e+08	5.549600e+12	0.000000e+00	5.276382e-01	9.543206e+13	1.130685e+15	2.721000e+14	8.035210e+03	4.131140e+03	1.989799e+03	0	6.035135e-04
1.600000e+08	5.465649e+12	0.000000e+00	5.276382e-01	9.423583e+13	1.084675e+15	2.706365e+14	8.028430e+03	4.103511e+03	1.976492e+03	0	6.004548e-04
1.700000e+08	5.384889e+12	0.000000e+00	5.276382e-01	9.308470e+13	1.042389e+15	2.691838e+14	8.021735e+03	4.077429e+03	1.963929e+03	0	5.974827e-04
1.800000e+08	5.307142e+12	0.000000e+00	5.276382e-01	9.197614e+13	1.003415e+15	2.677418e+14	8.015122e+03	4.052764e+03	1.952049e+03	0	5.945932e-04
1.900000e+08	5.232239e+12	0.000000e+00	5.276382e-01	9.090780e+13	9.673957e+14	2.663104e+14	8.008587e+03	4.029404e+03	1.940797e+03	0	5.917827e-04
2.000000e+08	5.160023e+12	0.000000e+00	5.276382e-01	8.987742e+13	9.340227e+14	2.648896e+14	8.002128e+03	4.007243e+03	1.930124e+03	0	5.890474e-04
2.100000e+08	5.090344e+12	0.000000e+00	5.276382e-01	8.888292e+13	9.030278e+14	2.634792e+14	7.995742e+03	3.986192e+03	1.919984e+03	0	5.863840e-04
2.200000e+08	5.023062e+12	0.000000e+00	5.276382e-01	8.792232e+13	8.741765e+14	2.620792e+14	7.989426e+03	3.966167e+03	1.910339e+03	0	5.837890e-04
2.300000e+08	4.958048e+12	0.000000e+00	5.276382e-01	8.699378e+13	8.472633e+14	2.606894e+14	7.983179e+03	3.947094e+03	1.901152e+03	0	5.812594e-04
2.400000e+08	4.895179e+12	0.000000e+00	5.276382e-01	8.609556e+13	8.221073e+14	2.593098e+14	7.976997e+03	3.928905e+03	1.892391e+03	0	5.787921e-04
2.500000e+08	4.834340e+12	0.000000e+00	5.276382e-01	8.522606e+13	7.985486e+14	2.579404e+14	7.970879e+03	3.911540e+03	1.884027e+03	0	5.763843e-04
2.600000e+08	4.775424e+12	0.000000e+00	5.276382e-01	8.438376e+13	7.764458e+14	2.565809e+14	7.964823e+03	3.894943e+03	1.876033e+03	0	5.740333e-04
2.700000e+08	4.718332e+12	0.000000e+00	5.276382e-01	8.356726e+13	7.556729e+14	2.552314e+14	7.958827e+03	3.879063e+03	1.868385e+03	0	5.717365e-04
2.800000e+08	4.662970e+12	0.000000e+00	5.276382e-01	8.277524e+13	7.361177e+14	2.538918e+14	7.952888e+03	3.863855e+03	1.861059e+03	0	5.694915e-04
2.900000e+08	4.609250e+12	0.000000e+00	5.276382e-01	8.200645e+13	7.176800e+14	2.525619e+14	7.947006e+03	3.849276e+03	1.854037e+03	0	5.672961e-04
3.000000e+08	4.557091e+12	0.000000e+00	5.276382e-01	8.125975e+13	7.002698e+14	2.512417e+14	7.941178e+03	3.835287e+03	1.847299e+03	0	5.651482e-04
3.100000e+08	4.506417e+12	0.000000e+00	5.276382e-01	8.053405e+13	6.838063e+14	2.499312e+14	7.935403e+03	3.821853e+03	1.840829e+03	0	5.630455e-04
3.200000e+08	4.457154e+12	0.000000e+00	5.276382e-01	7.982834e+13	6.682167e+14	2.486301e+14	7.929680e+03	3.808941e+03	1.834610e+03	0	5.609863e-04
3.300000e+08	4.409237e+12	0.000000e+00	5.276382e-01	7.914167e+13	6.534351e+14	2.473386e+14	7.924006e+03	3.796521e+03	1.828627e+03	0	5.589688e-04
3.400000e+08	4.362601e+12	0.000000e+00	5.276382e-01	7.847315e+13	6.394021e+14	2.460564e+14	7.918382e+03	3.784564e+03	1.822868e+03	0	5.569911e-04
3.500000e+08	4.317188e+12	0.000000e+00	5.276382e-01	7.782194e+13	6.260636e+14	2.447835e+14	7.912804e+03	3.773045e+03	1.817320e+03	0	5.550516e-04
3.600000e+08	4.272942e+12	0.000000e+00	5.276382e-01	7.718725e+13	6.133707e+14	2.435198e+14	7.907273e+03	3.761940e+03	1.811971e+03	0	5.531489e-04
3.700000e+08	4.229811e+12	0.000000e+00	5.276382e-01	7.656835e+13	6.012784e+14	2.422653e+14	7.901787e+03	3.751227e+03	1.806811e+03	0	5.512815e-04
3.800000e+08	4.187745e+12	0.000000e+00	5.276382e-01	7.596454e+13	5.897461e+14	2.410199e+14	7.896345e+03	3.740884e+03	1.801829e+03	0	5.494478e-04
3.900000e+08	4.146698e+12	0.000000e+00	5.276382e-01	7.537516e+13	5.787365e+14	2.397835e+14	7.890946e+03	3.730893e+03	1.797017e+03	0	5.476468e-04
4.000000e+08	4.106626e+12	0.000000e+00	5.276382e-01	7.479960e+13	5.682153e+14	2.385560e+14	7.885589e+03	3.721235e+03	1.792365e+03	0	5.458770e-04
4.100000e+08	4.067489e+12	0.000000e+00	5.276382e-01	7.423728e+13	5.581513e+14	2.373374e+14	7.880272e+03	3.711894e+03	1.787866e+03	0	5.441373e-04
4.200000e+08	4.029247e+12	0.000000e+00	5.276382e-01	7.368765e+13	5.485157e+14	2.361275e+14	7.874996e+03	3.702854e+03	1.783512e+03	0	5.424267e-04
4.300000e+08	3.991863e+12	0.000000e+00	5.276382e-01	7.315018e+13	5.392819e+14	2.349264e+14	7.869758e+03	3.694101e+03	1.779296e+03	0	5.407439e-04
4.400000e+08	3.955304e+12	0.000000e+00	5.276382e-01	7.262440e+13	5.304256e+14	2.337339e+14	7.864558e+03	3.685620e+03	1.775211e+03	0	5.390880e-04
4.500000e+08	3.919535e+12	0.000000e+00	5.276382e-01	7.210983e+13	5.219242e+14	2.325499e+14	7.859396e+03	3.677399e+03	1.771251e+03	0	5.374581e-04
4.600000e+08	3.884527e+12	0.000000e+00	5.276382e-01	7.160604e+13	5.137569e+14	2.313745e+14	7.854270e+03	3.669426e+03	1.767411e+03	0	5.358532e-04
4.700000e+08	3.850250e+12	0.000000e+00	5.276382e-01	7.111261e+13	5.059043e+14	2.302075e+14	7.849180e+03	3.661689e+03	1.763684e+03	0	5.342724e-04
4.800000e+08	3.816676e+12	0.000000e+00	5.276382e-01	7.062915e+13	4.983487e+14	2.290488e+14	7.844126e+03	3.654178e+03	1.760066e+03	0	5.327149e-04
4.900000e+08	3.783778e+12	0.000000e+00	5.276382e-01	7.015529e+13	4.910734e+14	2.278985e+14	7.839105e+03	3.646882e+03	1.756552e+03	0	5.311799e-04
5.000000e+08	3.751531e+12	0.000000e+00	5.276382e-01	6.969067e+13	4.840630e+14	2.267564e+14	7.834118e+03	3.639792e+03	1.753137e+03	0	5.296666e-04
5.100000e+08	3.719913e+12	0.000000e+00	5.276382e-01	6.923496e+13	4.773033e+14	2.256224e+14	7.829164e+03	3.632899e+03	1.749817e+03	0	5.281744e-04
5.200000e+08	3.688900e+12	0.000000e+00	5.276382e-01	6.878784e+13	4.707807e+14	2.244965e+14	7.824242e+03	3.626194e+03	1.746588e+03	0	5.267025e-04
5.300000e+08	3.658470e+12	0.000000e+00	5.276382e-01	6.834900e+13	4.644830e+14	2.233787e+14	7.819352e+03	3.619670e+03	1.743446e+03	0	5.252502e-04
5.400000e+08	3.628604e+12	0.000000e+00	5.276382e-01	6.791816e+13	4.583985e+14	2.222688e+14	7.814494e+03	3.613319e+03	1.740387e+03	0	5.238170e-04
5.500000e+08	3.599282e+12	0.000000e+00	5.276382e-01	6.749504e+13	4.525164e+14	2.211668e+14	7.809665e+03	3.607134e+03	1.737408e+03	0	5.224022e-04
5.600000e+08	3.570485e+12	0.000000e+00	5.276382e-01	6.707938e+13	4.468264e+14	2.200727e+14	7.804867e+03	3.601108e+03	1.734505e+03	0	5.210053e-04
5.700000e+08	3.542196e+12	0.000000e+00	5.276382e-01	6.667093e+13	4.413192e+14	2.189863e+14	7.800099e+03	3.595235e+03	1.731676e+03	0	5.196257e-04
5.800000e+08	3.514397e+12	0.000000e+00	5.276382e-01	6.626945e+13	4.359857e+14	2.179077e+14	7.795359e+03	3.589508e+03	1.728918e+03	0	5.182628e-04
5.900000e+08	3.487074e+12	0.000000e+00	5.276382e-01	6.587471e+13	4.308178e+14	2.168366e+14	7.790648e+03	3.583922e+03	1.726227e+03	0	5.169162e-04
6.000000e+08	3.460210e+12	0.000000e+00	5.276382e-01	6.548651e+13	4.258074e+14	2.157732e+14	7.785965e+03	3.578471e+03	1.723602e+03	0	5.155854e-04
6.100000e+08	3.433792e+12	0.000000e+00	5.276382e-01	6.510463e+13	4.209473e+14	2.147173e+14	7.781309e+03	3.573150e+03	1.721039e+03	0	5.142698e-04
6.200000e+08	3.407804e+12	0.000000e+00	5.276382e-01	6.472888e+13	4.162306e+14	2.136688e+14	7.776680e+03	3.567955e+03	1.718536e+03	0	5.129692e-04
6.300000e+08	3.382234e+12	0.000000e+00	5.276382e-01	6.435906e+13	4.116507e+14	2.126278e+14	7.772079e+03	3.562879e+03	1.716092e+03	0	5.116830e-04
6.400000e+08	3.357069e+12	0.000000e+00	5.276382e-01	6.399500e+13	4.072015e+14	2.115941e+14	7.767503e+03	3.557920e+03	1.713703e+03	0	5.104108e-04
6.500000e+08	3.332297e+12	0.000000e+00	5.276382e-01	6.363652e+13	4.028772e+14	2.105676e+14	7.762953e+03	3.553072e+03	1.711368e+03	0	5.091522e-04
6.600000e+08	3.307906e+12	0.000000e+00	5.276382e-01	6.328346e+13	3.986724e+14	2.095484e+14	7.758429e+03	3.548332e+03	1.709085e+03	0	5.079069e-04
6.700000e+08	3.283884e+12	0.000000e+00	5.276382e-01	6.293566e+13	3.945818e+14	2.085364e+14	7.753930e+03	3.543695e+03	1.706852e+03	0	5.066745e-04
6.800000e+08	3.260222e+12	0.000000e+00	5.276382e-01	6.259297e+13	3.906008e+14	2.075314e+14	7.749455e+03	3.539159e+03	1.704667e+03	0	5.054546e-04
6.900000e+08	3.236909e+12	0.000000e+00	5.276382e-01	6.225524e+13	3.867245e+14	2.065335e+14	7.745005e+03	3.534718e+03	1.702528e+03	0	5.042469e-04
7.000000e+08	3.213934e+12	0.000000e+00	5.276382e-01	6.192233e+13	3.829488e+14	2.055427e+14	7.740579e+03	3.530371e+03	1.700434e+03	0	5.030511e-04
7.100000e+08	3.191289e+12	0.000000e+00	5.276382e-01	6.159411e+13	3.792694e+14	2.045587e+14	7.736176e+03	3.526114e+03	1.698383e+03	0	5.018668e-04
7.200000e+08	3.168965e+12	0.000000e+00	5.276382e-01	6.127045e+13	3.756825e+14	2.035816e+14	7.731797e+03	3.521943e+03	1.696375e+03	0	5.006938e-04
7.300000e+08	3.146952e+12	0.000000e+00	5.276382e-01	6.095123e+13	3.721844e+14	2.026114e+14	7.727441e+03	3.517856e+03	1.694406e+03	0	4.995318e-04
7.400000e+08	3.125242e+12	0.000000e+00	5.276382e-01	6.063632e+13	3.687716e+14	2.016479e+14	7.723107e+03	3.513850e+03	1.692476e+03	0	4.983804e-04
7.500000e+08	3.103828e+12	0.000000e+00	5.276382e-01	6.032562e+13	3.654407e+14	2.006912e+14	7.718796e+03	3.509922e+03	1.690584e+03	0	4.972395e-04
7.600000e+08	3.082701e+12	0.000000e+00	5.276382e-01	6.001901e+13	3.621886e+14	1.997411e+14	7.714507e+03	3.506070e+03	1.688729e+03	0	4.961087e-04
7.700000e+08	3.061854e+12	0.000000e+00	5.276382e-01	5.971639e+13	3.590123e+14	1.987976e+14	7.710239e+03	3.502291e+03	1.686909e+03	0	4.949879e-04
7.800000e+08	3.041280e+12	0.000000e+00	5.276382e-01	5.941766e+13	3.559089e+14	1.978607e+14	7.705993e+03	3.498582e+03	1.685123e+03	0	4.938767e-04
7.900000e+08	3.020972e+12	0.000000e+00	5.276382e-01	5.912272e+13	3.528757e+14	1.969302e+14	7.701769e+03	3.494942e+03	1.683369e+03	0	4.927750e-04
8.000000e+08	3.000924e+12	0.000000e+00	5.276382e-01	5.883147e+13	3.499102e+14	1.960063e+14	7.697565e+03	3.491369e+03	1.681648e+03	0	4.916825e-04
8.100000e+08	2.981128e+12	0.000000e+00	5.276382e-01	5.854383e+13	3.470098e+14	1.950887e+14	7.693382e+03	3.487859e+03	1.679958e+03	0	4.905990e-04
8.200000e+08	2.961579e+12	0.000000e+00	5.276382e-01	5.825970e+13	3.441722e+14	1.941775e+14	7.689219e+03	3.484412e+03	1.678297e+03	0	4.895242e-04
8.300000e+08	2.942271e+12	0.000000e+00	5.276382e-01	5.797901e+13	3.413952e+14	1.932726e+14	7.685076e+03	3.481025e+03	1.676666e+03	0	4.884581e-04
8.400000e+08	2.923198e+12	0.000000e+00	5.276382e-01	5.770167e+13	3.386767e+14	1.923739e+14	7.680954e+03	3.477696e+03	1.675063e+03	0	4.874003e-04
8.500000e+08	2.904354e+12	0.000000e+00	5.276382e-01	5.742760e+13	3.360146e+14	1.914815e+14	7.676851e+03	3.474424e+03	1.673487e+03	0	4.863508e-04
8.600000e+08	2.885735e+12	0.000000e+00	5.276382e-01	5.715673e+13	3.334070e+14	1.905952e+14	7.672768e+03	3.471207e+03	1.671937e+03	0	4.853092e-04
8.700000e+08	2.867334e+12	0.000000e+00	5.276382e-01	5.688898e+13	3.308520e+14	1.897150e+14	7.668703e+03	3.468043e+03	1.670413e+03	0	4.842755e-04
8.800000e+08	2.849148e+12	0.000000e+00	5.276382e-01	5.662429e+13	3.283479e+14	1.888408e+14	7.664658e+03	3.464931e+03	1.668914e+03	0	4.832495e-04
8.900000e+08	2.831171e+12	0.000000e+00	5.276382e-01	5.636258e+13	3.258929e+14	1.879727e+14	7.660632e+03	3.461868e+03	1.667439e+03	0	4.822310e-04
9.000000e+08	2.813398e+12	0.000000e+00	5.276382e-01	5.610379e+13	3.234855e+14	1.871105e+14	7.656624e+03	3.458855e+03	1.665988e+03	0	4.812198e-04
9.100000e+08	2.795826e+12	0.000000e+00	5.276382e-01	5.584785e+13	3.211241e+14	1.862542e+14	7.652635e+03	3.455889e+03	1.664559e+03	0	4.802158e-04
9.200000e+08	2.778449e+12	0.000000e+00	5.276382e-01	5.559471e+13	3.188072e+14	1.854038e+14	7.648663e+03	3.452968e+03	1.663152e+03	0	4.792188e-04
9.300000e+08	2.761263e+12	0.000000e+00	5.276382e-01	5.534430e+13	3.165334e+14	1.845592e+14	7.644710e+03	3.450092e+03	1.661767e+03	0	4.782287e-04
9.400000e+08	2.744265e+12	0.000000e+00	5.276382e-01	5.509657e+13	3.143014e+14	1.837204e+14	7.640775e+03	3.447260e+03	1.660403e+03	0	4.772454e-04
9.500000e+08	2.727451e+12	0.000000e+00	5.276382e-01	5.485146e+13	3.121098e+14	1.828873e+14	7.636857e+03	3.444469e+03	1.659059e+03	0	4.762687e-04
9.600000e+08	2.710816e+12	0.000000e+00	5.276382e-01	5.460892e+13	3.099573e+14	1.820599e+14	7.632956e+03	3.441720e+03	1.657734e+03	0	4.752985e-04
9.700000e+08	2.694357e+12	0.000000e+00	5.276382e-01	5.436889e+13	3.078429e+14	1.812381e+14	7.629073e+03	3.439010e+03	1.656429e+03	0	4.743346e-04
9.800000e+08	2.678071e+12	0.000000e+00	5.276382e-01	5.413133e+13	3.057653e+14	1.804219e+14	7.625207e+03	3.436339e+03	1.655142e+03	0	4.733769e-04
9.900000e+08	2.661954e+12	0.000000e+00	5.276382e-01	5.389617e+13	3.037234e+14	1.796113e+14	7.621357e+03	3.433705e+03	1.653874e+03	0	4.724254e-04
1.000000e+09	2.646002e+12	0.000000e+00	5.276382e-01	5.366339e+13	3.017162e+14	1.788061e+14	7.617525e+03	3.431108e+03	1.652623e+03	0	4.714798e-04
1.010000e+09	2.630212e+12	0.000000e+00	5.276382e-01	5.343292e+13	2.997427e+14	1.780064e+14	7.613709e+03	3.428547e+03	1.651389e+03	0	4.705401e-04
1.020000e+09	2.614582e+12	0.000000e+00	5.276382e-01	5.320474e+13	2.978019e+14	1.772122e+14	7.609909e+03	3.426020e+03	1.650172e+03	0	4.696062e-04
1.030000e+09	2.599107e+12	0.000000e+00	5.276382e-01	5.297878e+13	2.958928e+14	1.764233e+14	7.606125e+03	3.423527e+03	1.648972e+03	0	4.686779e-04
1.040000e+09	2.583786e+12	0.000000e+00	5.276382e-01	5.275501e+13	2.940145e+14	1.756397e+14	7.602358e+03	3.421067e+03	1.647787e+03	0	4.677552e-04
1.050000e+09	2.568615e+12	0.000000e+00	5.276382e-01	5.253339e+13	2.921663e+14	1.748615e+14	7.598606e+03	3.418639e+03	1.646617e+03	0	4.668379e-04
1.060000e+09	2.553592e+12	0.000000e+00	5.276382e-01	5.231388e+13	2.903471e+14	1.740885e+14	7.594870e+03	3.416243e+03	1.645463e+03	0	4.659259e-04
1.070000e+09	2.538713e+12	0.000000e+00	5.276382e-01	5.209644e+13	2.885563e+14	1.733206e+14	7.591150e+03	3.413876e+03	1.644323e+03	0	4.650192e-04
1.080000e+09	2.523976e+12	0.000000e+00	5.276382e-01	5.188103e+13	2.867931e+14	1.725580e+14	7.587445e+03	3.411540e+03	1.643198e+03	0	4.641177e-04
1.090000e+09	2.509379e+12	0.000000e+00	5.276382e-01	5.166762e+13	2.850567e+14	1.718005e+14	7.583756e+03	3.409232e+03	1.642086e+03	0	4.632212e-04
1.100000e+09	2.494918e+12	0.000000e+00	5.276382e-01	5.145617e+13	2.833464e+14	1.710481e+14	7.580081e+03	3.406952e+03	1.640988e+03	0	4.623297e-04
1.110000e+09	2.480592e+12	0.000000e+00	5.276382e-01	5.124664e+13	2.816615e+14	1.703007e+14	7.576422e+03	3.404700e+03	1.639903e+03	0	4.614431e-04
1.120000e+09	2.466399e+12	0.000000e+00	5.276382e-01	5.103901e+13	2.800013e+14	1.695583e+14	7.572778e+03	3.402474e+03	1.638831e+03	0	4.605614e-04
1.130000e+09	2.452335e+12	0.000000e+00	5.276382e-01	5.083323e+13	2.783652e+14	1.688209e+14	7.569148e+03	3.400275e+03	1.637772e+03	0	4.596843e-04
1.140000e+09	2.438398e+12	0.000000e+00	5.276382e-01	5.062929e+13	2.767526e+14	1.680884e+14	7.565533e+03	3.398101e+03	1.636725e+03	0	4.588119e-04
1.150000e+09	2.424588e+12	0.000000e+00	5.276382e-01	5.042714e+13	2.751629e+14	1.673608e+14	7.561932e+03	3.395952e+03	1.635690e+03	0	4.579440e-04
1.160000e+09	2.410900e+12	0.000000e+00	5.276382e-01	5.022676e+13	2.735955e+14	1.666381e+14	7.558346e+03	3.393828e+03	1.634667e+03	0	4.570806e-04
1.170000e+09	2.397334e+12	0.000000e+00	5.276382e-01	5.002811e+13	2.720499e+14	1.659202e+14	7.554774e+03	3.391727e+03	1.633655e+03	0	4.562217e-04
1.180000e+09	2.383887e+12	0.000000e+00	5.276382e-01	4.983118e+13	2.705254e+14	1.652070e+14	7.551216e+03	3.389649e+03	1.632654e+03	0	4.553671e-04
1.190000e+09	2.370558e+12	0.000000e+00	5.276382e-01	4.963593e+13	2.690216e+14	1.644986e+14	7.547672e+03	3.387594e+03	1.631664e+03	0	4.545168e-04
1.200000e+09	2.357344e+12	0.000000e+00	5.276382e-01	4.944233e+13	2.675381e+14	1.637949e+14	7.544142e+03	3.385561e+03	1.630685e+03	0	4.536707e-04
1.210000e+09	2.344243e+12	0.000000e+00	5.276382e-01	4.925036e+13	2.660742e+14	1.630959e+14	7.540626e+03	3.383550e+03	1.629716e+03	0	4.528287e-04
1.220000e+09	2.331254e+12	0.000000e+00	5.276382e-01	4.905999e+13	2.646295e+14	1.624015e+14	7.537123e+03	3.381559e+03	1.628757e+03	0	4.519908e-04
1.230000e+09	2.318376e+12	0.000000e+00	5.276382e-01	4.887120e+13	2.632036e+14	1.617117e+14	7.533634e+03	3.379590e+03	1.627809e+03	0	4.511570e-04
1.240000e+09	2.305605e+12	0.000000e+00	5.276382e-01	4.868396e+13	2.617961e+14	1.610265e+14	7.530158e+03	3.377640e+03	1.626870e+03	0	4.503271e-04
1.250000e+09	2.292941e+12	0.000000e+00	5.276382e-01	4.849825e+13	2.604065e+14	1.603457e+14	7.526696e+03	3.375710e+03	1.625940e+03	0	4.495011e-04
1.260000e+09	2.280382e+12	0.000000e+00	5.276382e-01	4.831405e+13	2.590344e+14	1.596695e+14	7.523247e+03	3.373800e+03	1.625020e+03	0	4.486789e-04
1.270000e+09	2.267927e+12	0.000000e+00	5.276382e-01	4.813133e+13	2.576794e+14	1.589977e+14	7.519811e+03	3.371908e+03	1.624109e+03	0	4.478605e-04
1.280000e+09	2.255573e+12	0.000000e+00	5.276382e-01	4.795007e+13	2.563411e+14	1.583304e+14	7.516387e+03	3.370035e+03	1.623206e+03	0	4.470458e-04
1.290000e+09	2.243319e+12	0.000000e+00	5.276382e-01	4.777024e+13	2.550192e+14	1.576674e+14	7.512977e+03	3.368179e+03	1.622313e+03	0	4.462348e-04
1.300000e+09	2.231164e+12	0.000000e+00	5.276382e-01	4.759184e+13	2.537132e+14	1.570088e+14	7.509580e+03	3.366342e+03	1.621428e+03	0	4.454274e-04
1.310000e+09	2.219107e+12	0.000000e+00	5.276382e-01	4.741484e+13	2.524229e+14	1.563545e+14	7.506195e+03	3.364521e+03	1.620551e+03	0	4.446236e-04
1.320000e+09	2.207145e+12	0.000000e+00	5.276382e-01	4.723921e+13	2.511479e+14	1.557044e+14	7.502823e+03	3.362718e+03	1.619682e+03	0	4.438233e-04
1.330000e+09	2.195278e+12	0.000000e+00	5.276382e-01	4.706494e+13	2.498879e+14	1.550587e+14	7.499463e+03	3.360931e+03	1.618822e+03	0	4.430264e-04
1.340000e+09	2.183505e+12	0.000000e+00	5.276382e-01	4.689200e+13	2.486425e+14	1.544171e+14	7.496115e+03	3.359161e+03	1.617969e+03	0	4.422330e-04
1.350000e+09	2.171823e+12	0.000000e+00	5.276382e-01	4.672039e+13	2.474115e+14	1.537798e+14	7.492780e+03	3.357406e+03	1.617124e+03	0	4.414429e-04
1.360000e+09	2.160231e+12	0.000000e+00	5.276382e-01	4.655008e+13	2.461946e+14	1.531465e+14	7.489457e+03	3.355667e+03	1.616286e+03	0	4.406561e-04
