#t		Qconv[W]	Ri[Rp]		R*[Rp]		Qc[W]		Qm[W]		Qr[W]		Tcmb[K]		Tl[K]		Tup[K]		RiFlag		Bs[T]
0.000000e+00	1.880777e+13	0.000000e+00	5.175878e-01	2.680510e+14	3.753504e+15	4.509211e+14	1.106465e+04	6.339108e+03	2.545306e+03	0	9.034888e-04
1.000000e+07	1.847896e+13	0.000000e+00	5.175878e-01	2.643116e+14	3.506458e+15	4.484226e+14	1.105295e+04	6.262288e+03	2.514462e+03	0	8.981927e-04
2.000000e+07	1.815720e+13	0.000000e+00	5.175878e-01	2.606518e+14	3.288089e+15	4.459429e+14	1.104142e+04	6.191438e+03	2.486013e+03	0	8.929490e-04
3.000000e+07	1.784361e+13	0.000000e+00	5.175878e-01	2.570843e+14	3.093974e+15	4.434817e+14	1.103004e+04	6.125861e+03	2.459683e+03	0	8.877784e-04
4.000000e+07	1.753883e+13	0.000000e+00	5.175878e-01	2.536161e+14	2.920520e+15	4.410388e+14	1.101882e+04	6.064972e+03	2.435234e+03	0	8.826948e-04
5.000000e+07	1.724319e+13	0.000000e+00	5.175878e-01	2.502510e+14	2.764781e+15	4.386142e+14	1.100776e+04	6.008266e+03	2.412465e+03	0	8.777070e-04
6.000000e+07	1.695679e+13	0.000000e+00	5.175878e-01	2.469900e+14	2.624329e+15	4.362077e+14	1.099683e+04	5.955314e+03	2.391204e+03	0	8.728204e-04
7.000000e+07	1.667956e+13	0.000000e+00	5.175878e-01	2.438323e+14	2.497139e+15	4.338190e+14	1.098605e+04	5.905741e+03	2.371299e+03	0	8.680376e-04
8.000000e+07	1.641134e+13	0.000000e+00	5.175878e-01	2.407762e+14	2.381520e+15	4.314482e+14	1.097541e+04	5.859224e+03	2.352622e+03	0	8.633595e-04
9.000000e+07	1.615188e+13	0.000000e+00	5.175878e-01	2.378188e+14	2.276044e+15	4.290949e+14	1.096490e+04	5.815481e+03	2.335057e+03	0	8.587856e-04
1.000000e+08	1.590092e+13	0.000000e+00	5.175878e-01	2.349571e+14	2.179502e+15	4.267592e+14	1.095452e+04	5.774262e+03	2.318507e+03	0	8.543145e-04
1.100000e+08	1.565814e+13	0.000000e+00	5.175878e-01	2.321875e+14	2.090862e+15	4.244407e+14	1.094426e+04	5.735349e+03	2.302882e+03	0	8.499442e-04
1.200000e+08	1.542322e+13	0.000000e+00	5.175878e-01	2.295066e+14	2.009239e+15	4.221395e+14	1.093412e+04	5.698547e+03	2.288106e+03	0	8.456721e-04
1.300000e+08	1.519583e+13	0.000000e+00	5.175878e-01	2.269105e+14	1.933874e+15	4.198553e+14	1.092411e+04	5.663686e+03	2.274108e+03	0	8.414955e-04
1.400000e+08	1.497565e+13	0.000000e+00	5.175878e-01	2.243956e+14	1.864107e+15	4.175880e+14	1.091420e+04	5.630610e+03	2.260827e+03	0	8.374115e-04
1.500000e+08	1.476236e+13	0.000000e+00	5.175878e-01	2.219584e+14	1.799366e+15	4.153375e+14	1.090440e+04	5.599183e+03	2.248209e+03	0	8.334169e-04
1.600000e+08	1.455565e+13	0.000000e+00	5.175878e-01	2.195954e+14	1.739151e+15	4.131035e+14	1.089471e+04	5.569281e+03	2.236202e+03	0	8.295086e-04
1.700000e+08	1.435522e+13	0.000000e+00	5.175878e-01	2.173031e+14	1.683024e+15	4.108861e+14	1.088512e+04	5.540793e+03	2.224763e+03	0	8.256836e-04
1.800000e+08	1.416079e+13	0.000000e+00	5.175878e-01	2.150785e+14	1.630601e+15	4.086850e+14	1.087564e+04	5.513618e+03	2.213852e+03	0	8.219388e-04
1.900000e+08	1.397208e+13	0.000000e+00	5.175878e-01	2.129184e+14	1.581543e+15	4.065002e+14	1.086625e+04	5.487665e+03	2.203431e+03	0	8.182713e-04
2.000000e+08	1.378882e+13	0.000000e+00	5.175878e-01	2.108198e+14	1.535549e+15	4.043314e+14	1.085695e+04	5.462852e+03	2.193468e+03	0	8.146781e-04
2.100000e+08	1.361078e+13	0.000000e+00	5.175878e-01	2.087799e+14	1.492351e+15	4.021785e+14	1.084774e+04	5.439104e+03	2.183933e+03	0	8.111564e-04
2.200000e+08	1.343770e+13	0.000000e+00	5.175878e-01	2.067962e+14	1.451713e+15	4.000415e+14	1.083863e+04	5.416351e+03	2.174797e+03	0	8.077036e-04
2.300000e+08	1.326939e+13	0.000000e+00	5.175878e-01	2.048661e+14	1.413421e+15	3.979201e+14	1.082960e+04	5.394531e+03	2.166036e+03	0	8.043170e-04
2.400000e+08	1.310560e+13	0.000000e+00	5.175878e-01	2.029872e+14	1.377286e+15	3.958143e+14	1.082065e+04	5.373586e+03	2.157626e+03	0	8.009942e-04
2.500000e+08	1.294616e+13	0.000000e+00	5.175878e-01	2.011573e+14	1.343137e+15	3.937240e+14	1.081179e+04	5.353464e+03	2.149546e+03	0	7.977326e-04
2.600000e+08	1.279087e+13	0.000000e+00	5.175878e-01	1.993742e+14	1.310819e+15	3.916489e+14	1.080300e+04	5.334115e+03	2.141777e+03	0	7.945301e-04
2.700000e+08	1.263954e+13	0.000000e+00	5.175878e-01	1.976359e+14	1.280195e+15	3.895890e+14	1.079430e+04	5.315496e+03	2.134301e+03	0	7.913844e-04
2.800000e+08	1.249202e+13	0.000000e+00	5.175878e-01	1.959405e+14	1.251137e+15	3.875441e+14	1.078567e+04	5.297563e+03	2.127101e+03	0	7.882934e-04
2.900000e+08	1.234814e+13	0.000000e+00	5.175878e-01	1.942862e+14	1.223534e+15	3.855142e+14	1.077711e+04	5.280280e+03	2.120161e+03	0	7.852551e-04
3.000000e+08	1.220774e+13	0.000000e+00	5.175878e-01	1.926713e+14	1.197280e+15	3.834990e+14	1.076862e+04	5.263611e+03	2.113468e+03	0	7.822677e-04
3.100000e+08	1.207068e+13	0.000000e+00	5.175878e-01	1.910942e+14	1.172283e+15	3.814986e+14	1.076021e+04	5.247522e+03	2.107008e+03	0	7.793292e-04
3.200000e+08	1.193683e+13	0.000000e+00	5.175878e-01	1.895533e+14	1.148456e+15	3.795127e+14	1.075186e+04	5.231983e+03	2.100769e+03	0	7.764379e-04
3.300000e+08	1.180606e+13	0.000000e+00	5.175878e-01	1.880472e+14	1.125721e+15	3.775412e+14	1.074359e+04	5.216966e+03	2.094739e+03	0	7.735921e-04
3.400000e+08	1.167825e+13	0.000000e+00	5.175878e-01	1.865745e+14	1.104006e+15	3.755841e+14	1.073537e+04	5.202443e+03	2.088908e+03	0	7.707904e-04
3.500000e+08	1.155328e+13	0.000000e+00	5.175878e-01	1.851339e+14	1.083245e+15	3.736411e+14	1.072722e+04	5.188391e+03	2.083266e+03	0	7.680310e-04
3.600000e+08	1.143103e+13	0.000000e+00	5.175878e-01	1.837242e+14	1.063378e+15	3.717123e+14	1.071914e+04	5.174786e+03	2.077803e+03	0	7.653126e-04
3.700000e+08	1.131142e+13	0.000000e+00	5.175878e-01	1.823442e+14	1.044350e+15	3.697974e+14	1.071111e+04	5.161606e+03	2.072511e+03	0	7.626337e-04
3.800000e+08	1.119433e+13	0.000000e+00	5.175878e-01	1.809928e+14	1.026109e+15	3.678963e+14	1.070315e+04	5.148831e+03	2.067381e+03	0	7.599932e-04
3.900000e+08	1.107967e+13	0.000000e+00	5.175878e-01	1.796689e+14	1.008607e+15	3.660090e+14	1.069524e+04	5.136442e+03	2.062407e+03	0	7.573896e-04
4.000000e+08	1.096736e+13	0.000000e+00	5.175878e-01	1.783715e+14	9.918019e+14	3.641354e+14	1.068740e+04	5.124421e+03	2.057580e+03	0	7.548217e-04
4.100000e+08	1.085731e+13	0.000000e+00	5.175878e-01	1.770998e+14	9.756526e+14	3.622752e+14	1.067961e+04	5.112751e+03	2.052894e+03	0	7.522885e-04
4.200000e+08	1.074944e+13	0.000000e+00	5.175878e-01	1.758526e+14	9.601218e+14	3.604285e+14	1.067187e+04	5.101417e+03	2.048344e+03	0	7.497887e-04
4.300000e+08	1.064367e+13	0.000000e+00	5.175878e-01	1.746293e+14	9.451749e+14	3.585950e+14	1.066419e+04	5.090404e+03	2.043921e+03	0	7.473214e-04
4.400000e+08	1.053993e+13	0.000000e+00	5.175878e-01	1.734290e+14	9.307796e+14	3.567748e+14	1.065656e+04	5.079697e+03	2.039622e+03	0	7.448855e-04
4.500000e+08	1.043814e+13	0.000000e+00	5.175878e-01	1.722508e+14	9.169060e+14	3.549676e+14	1.064899e+04	5.069284e+03	2.035441e+03	0	7.424800e-04
4.600000e+08	1.033826e+13	0.000000e+00	5.175878e-01	1.710941e+14	9.035262e+14	3.531734e+14	1.064146e+04	5.059152e+03	2.031373e+03	0	7.401040e-04
4.700000e+08	1.024020e+13	0.000000e+00	5.175878e-01	1.699582e+14	8.906142e+14	3.513921e+14	1.063399e+04	5.049289e+03	2.027413e+03	0	7.377566e-04
4.800000e+08	1.014391e+13	0.000000e+00	5.175878e-01	1.688423e+14	8.781457e+14	3.496235e+14	1.062656e+04	5.039684e+03	2.023556e+03	0	7.354369e-04
4.900000e+08	1.004933e+13	0.000000e+00	5.175878e-01	1.677458e+14	8.660983e+14	3.478676e+14	1.061919e+04	5.030327e+03	2.019799e+03	0	7.331442e-04
5.000000e+08	9.956413e+12	0.000000e+00	5.175878e-01	1.666681e+14	8.544506e+14	3.461242e+14	1.061186e+04	5.021207e+03	2.016137e+03	0	7.308776e-04
5.100000e+08	9.865098e+12	0.000000e+00	5.175878e-01	1.656086e+14	8.431829e+14	3.443934e+14	1.060458e+04	5.012316e+03	2.012567e+03	0	7.286363e-04
5.200000e+08	9.775338e+12	0.000000e+00	5.175878e-01	1.645667e+14	8.322766e+14	3.426748e+14	1.059735e+04	5.003643e+03	2.009085e+03	0	7.264197e-04
5.300000e+08	9.687084e+12	0.000000e+00	5.175878e-01	1.635419e+14	8.217143e+14	3.409685e+14	1.059016e+04	4.995181e+03	2.005687e+03	0	7.242270e-04
5.400000e+08	9.600290e+12	0.000000e+00	5.175878e-01	1.625337e+14	8.114798e+14	3.392744e+14	1.058301e+04	4.986922e+03	2.002371e+03	0	7.220575e-04
5.500000e+08	9.514913e+12	0.000000e+00	5.175878e-01	1.615416e+14	8.015576e+14	3.375923e+14	1.057591e+04	4.978857e+03	1.999133e+03	0	7.199107e-04
5.600000e+08	9.430910e+12	0.000000e+00	5.175878e-01	1.605650e+14	7.919334e+14	3.359222e+14	1.056885e+04	4.970980e+03	1.995970e+03	0	7.177858e-04
5.700000e+08	9.348241e+12	0.000000e+00	5.175878e-01	1.596036e+14	7.825935e+14	3.342639e+14	1.056184e+04	4.963283e+03	1.992879e+03	0	7.156823e-04
5.800000e+08	9.266867e+12	0.000000e+00	5.175878e-01	1.586569e+14	7.735253e+14	3.326174e+14	1.055487e+04	4.955761e+03	1.989859e+03	0	7.135997e-04
5.900000e+08	9.186751e+12	0.000000e+00	5.175878e-01	1.577245e+14	7.647167e+14	3.309826e+14	1.054794e+04	4.948405e+03	1.986906e+03	0	7.115373e-04
6.000000e+08	9.107858e+12	0.000000e+00	5.175878e-01	1.568060e+14	7.561563e+14	3.293594e+14	1.054105e+04	4.941212e+03	1.984017e+03	0	7.094946e-04
6.100000e+08	9.030153e+12	0.000000e+00	5.175878e-01	1.559010e+14	7.478334e+14	3.277476e+14	1.053420e+04	4.934174e+03	1.981191e+03	0	7.074711e-04
6.200000e+08	8.953603e+12	0.000000e+00	5.175878e-01	1.550091e+14	7.397379e+14	3.261472e+14	1.052738e+04	4.927287e+03	1.978426e+03	0	7.054663e-04
6.300000e+08	8.878178e+12	0.000000e+00	5.175878e-01	1.541300e+14	7.318603e+14	3.245581e+14	1.052061e+04	4.920545e+03	1.975719e+03	0	7.034798e-04
6.400000e+08	8.803846e+12	0.000000e+00	5.175878e-01	1.532634e+14	7.241914e+14	3.229803e+14	1.051388e+04	4.913943e+03	1.973068e+03	0	7.015110e-04
6.500000e+08	8.730578e+12	0.000000e+00	5.175878e-01	1.524088e+14	7.167228e+14	3.214135e+14	1.050718e+04	4.907477e+03	1.970472e+03	0	6.995595e-04
6.600000e+08	8.658347e+12	0.000000e+00	5.175878e-01	1.515660e+14	7.094462e+14	3.198578e+14	1.050052e+04	4.901141e+03	1.967928e+03	0	6.976249e-04
6.700000e+08	8.587125e+12	0.000000e+00	5.175878e-01	1.507347e+14	7.023541e+14	3.183130e+14	1.049390e+04	4.894932e+03	1.965434e+03	0	6.957068e-04
6.800000e+08	8.516887e+12	0.000000e+00	5.175878e-01	1.499146e+14	6.954391e+14	3.167790e+14	1.048732e+04	4.888845e+03	1.962990e+03	0	6.938048e-04
6.900000e+08	8.447607e+12	0.000000e+00	5.175878e-01	1.491055e+14	6.886943e+14	3.152558e+14	1.048077e+04	4.882876e+03	1.960594e+03	0	6.919184e-04
7.000000e+08	8.379262e+12	0.000000e+00	5.175878e-01	1.483069e+14	6.821131e+14	3.137433e+14	1.047425e+04	4.877022e+03	1.958243e+03	0	6.900474e-04
7.100000e+08	8.311828e+12	0.000000e+00	5.175878e-01	1.475187e+14	6.756893e+14	3.122414e+14	1.046777e+04	4.871278e+03	1.955937e+03	0	6.881913e-04
7.200000e+08	8.245283e+12	0.000000e+00	5.175878e-01	1.467407e+14	6.694170e+14	3.107500e+14	1.046133e+04	4.865642e+03	1.953674e+03	0	6.863498e-04
7.300000e+08	8.179605e+12	0.000000e+00	5.175878e-01	1.459725e+14	6.632905e+14	3.092690e+14	1.045491e+04	4.860109e+03	1.951452e+03	0	6.845226e-04
7.400000e+08	8.114774e+12	0.000000e+00	5.175878e-01	1.452140e+14	6.573044e+14	3.077983e+14	1.044854e+04	4.854677e+03	1.949271e+03	0	6.827093e-04
7.500000e+08	8.050769e+12	0.000000e+00	5.175878e-01	1.444649e+14	6.514537e+14	3.063379e+14	1.044219e+04	4.849343e+03	1.947130e+03	0	6.809096e-04
7.600000e+08	7.987571e+12	0.000000e+00	5.175878e-01	1.437250e+14	6.457334e+14	3.048877e+14	1.043588e+04	4.844103e+03	1.945026e+03	0	6.791232e-04
7.700000e+08	7.925161e+12	0.000000e+00	5.175878e-01	1.429941e+14	6.401389e+14	3.034475e+14	1.042960e+04	4.838955e+03	1.942958e+03	0	6.773498e-04
7.800000e+08	7.863521e+12	0.000000e+00	5.175878e-01	1.422719e+14	6.346659e+14	3.020174e+14	1.042335e+04	4.833896e+03	1.940927e+03	0	6.755892e-04
7.900000e+08	7.802634e+12	0.000000e+00	5.175878e-01	1.415584e+14	6.293099e+14	3.005972e+14	1.041714e+04	4.828922e+03	1.938930e+03	0	6.738410e-04
8.000000e+08	7.742483e+12	0.000000e+00	5.175878e-01	1.408532e+14	6.240671e+14	2.991869e+14	1.041095e+04	4.824033e+03	1.936967e+03	0	6.721049e-04
8.100000e+08	7.683051e+12	0.000000e+00	5.175878e-01	1.401563e+14	6.189336e+14	2.977863e+14	1.040480e+04	4.819225e+03	1.935036e+03	0	6.703808e-04
8.200000e+08	7.624323e+12	0.000000e+00	5.175878e-01	1.394673e+14	6.139056e+14	2.963954e+14	1.039867e+04	4.814495e+03	1.933137e+03	0	6.686683e-04
8.300000e+08	7.566283e+12	0.000000e+00	5.175878e-01	1.387863e+14	6.089797e+14	2.950141e+14	1.039258e+04	4.809843e+03	1.931269e+03	0	6.669673e-04
8.400000e+08	7.508917e+12	0.000000e+00	5.175878e-01	1.381129e+14	6.041526e+14	2.936424e+14	1.038651e+04	4.805264e+03	1.929431e+03	0	6.652774e-04
8.500000e+08	7.452210e+12	0.000000e+00	5.175878e-01	1.374471e+14	5.994209e+14	2.922801e+14	1.038048e+04	4.800758e+03	1.927622e+03	0	6.635984e-04
8.600000e+08	7.396148e+12	0.000000e+00	5.175878e-01	1.367886e+14	5.947816e+14	2.909273e+14	1.037447e+04	4.796322e+03	1.925840e+03	0	6.619302e-04
8.700000e+08	7.340718e+12	0.000000e+00	5.175878e-01	1.361373e+14	5.902317e+14	2.895837e+14	1.036849e+04	4.791955e+03	1.924087e+03	0	6.602725e-04
8.800000e+08	7.285907e+12	0.000000e+00	5.175878e-01	1.354931e+14	5.857685e+14	2.882494e+14	1.036255e+04	4.787654e+03	1.922360e+03	0	6.586250e-04
8.900000e+08	7.231702e+12	0.000000e+00	5.175878e-01	1.348559e+14	5.813891e+14	2.869242e+14	1.035663e+04	4.783417e+03	1.920659e+03	0	6.569876e-04
9.000000e+08	7.178091e+12	0.000000e+00	5.175878e-01	1.342254e+14	5.770911e+14	2.856082e+14	1.035073e+04	4.779244e+03	1.918983e+03	0	6.553601e-04
9.100000e+08	7.125062e+12	0.000000e+00	5.175878e-01	1.336016e+14	5.728719e+14	2.843012e+14	1.034487e+04	4.775131e+03	1.917332e+03	0	6.537422e-04
9.200000e+08	7.072603e+12	0.000000e+00	5.175878e-01	1.329843e+14	5.687291e+14	2.830031e+14	1.033903e+04	4.771078e+03	1.915704e+03	0	6.521339e-04
9.300000e+08	7.020704e+12	0.000000e+00	5.175878e-01	1.323734e+14	5.646605e+14	2.817139e+14	1.033322e+04	4.767083e+03	1.914100e+03	0	6.505348e-04
9.400000e+08	6.969354e+12	0.000000e+00	5.175878e-01	1.317688e+14	5.606638e+14	2.804335e+14	1.032743e+04	4.763144e+03	1.912519e+03	0	6.489449e-04
9.500000e+08	6.918541e+12	0.000000e+00	5.175878e-01	1.311703e+14	5.567368e+14	2.791618e+14	1.032168e+04	4.759261e+03	1.910959e+03	0	6.473640e-04
9.600000e+08	6.868256e+12	0.000000e+00	5.175878e-01	1.305779e+14	5.528777e+14	2.778988e+14	1.031594e+04	4.755430e+03	1.909421e+03	0	6.457918e-04
9.700000e+08	6.818489e+12	0.000000e+00	5.175878e-01	1.299914e+14	5.490844e+14	2.766445e+14	1.031024e+04	4.751652e+03	1.907904e+03	0	6.442282e-04
9.800000e+08	6.769230e+12	0.000000e+00	5.175878e-01	1.294107e+14	5.453550e+14	2.753986e+14	1.030456e+04	4.747925e+03	1.906408e+03	0	6.426731e-04
9.900000e+08	6.720470e+12	0.000000e+00	5.175878e-01	1.288358e+14	5.416878e+14	2.741612e+14	1.029890e+04	4.744247e+03	1.904931e+03	0	6.411262e-04
1.000000e+09	6.672199e+12	0.000000e+00	5.175878e-01	1.282664e+14	5.380809e+14	2.729323e+14	1.029327e+04	4.740617e+03	1.903474e+03	0	6.395876e-04
1.010000e+09	6.624410e+12	0.000000e+00	5.175878e-01	1.277026e+14	5.345328e+14	2.717116e+14	1.028767e+04	4.737035e+03	1.902035e+03	0	6.380569e-04
1.020000e+09	6.577092e+12	0.000000e+00	5.175878e-01	1.271441e+14	5.310418e+14	2.704993e+14	1.028208e+04	4.733498e+03	1.900615e+03	0	6.365340e-04
1.030000e+09	6.530238e+12	0.000000e+00	5.175878e-01	1.265910e+14	5.276063e+14	2.692951e+14	1.027653e+04	4.730007e+03	1.899213e+03	0	6.350189e-04
1.040000e+09	6.483839e+12	0.000000e+00	5.175878e-01	1.260431e+14	5.242248e+14	2.680991e+14	1.027100e+04	4.726558e+03	1.897829e+03	0	6.335114e-04
1.050000e+09	6.437888e+12	0.000000e+00	5.175878e-01	1.255003e+14	5.208960e+14	2.669111e+14	1.026549e+04	4.723153e+03	1.896461e+03	0	6.320113e-04
1.060000e+09	6.392377e+12	0.000000e+00	5.175878e-01	1.249626e+14	5.176184e+14	2.657312e+14	1.026000e+04	4.719789e+03	1.895110e+03	0	6.305184e-04
1.070000e+09	6.347298e+12	0.000000e+00	5.175878e-01	1.244299e+14	5.143907e+14	2.645592e+14	1.025454e+04	4.716466e+03	1.893776e+03	0	6.290328e-04
1.080000e+09	6.302644e+12	0.000000e+00	5.175878e-01	1.239020e+14	5.112115e+14	2.633951e+14	1.024910e+04	4.713182e+03	1.892458e+03	0	6.275542e-04
1.090000e+09	6.258408e+12	0.000000e+00	5.175878e-01	1.233789e+14	5.080797e+14	2.622388e+14	1.024369e+04	4.709937e+03	1.891155e+03	0	6.260826e-04
1.100000e+09	6.214583e+12	0.000000e+00	5.175878e-01	1.228605e+14	5.049940e+14	2.610903e+14	1.023830e+04	4.706730e+03	1.889867e+03	0	6.246178e-04
1.110000e+09	6.171162e+12	0.000000e+00	5.175878e-01	1.223467e+14	5.019533e+14	2.599495e+14	1.023293e+04	4.703560e+03	1.888594e+03	0	6.231596e-04
1.120000e+09	6.128138e+12	0.000000e+00	5.175878e-01	1.218376e+14	4.989564e+14	2.588163e+14	1.022758e+04	4.700426e+03	1.887336e+03	0	6.217081e-04
1.130000e+09	6.085506e+12	0.000000e+00	5.175878e-01	1.213329e+14	4.960023e+14	2.576907e+14	1.022226e+04	4.697328e+03	1.886092e+03	0	6.202630e-04
1.140000e+09	6.043258e+12	0.000000e+00	5.175878e-01	1.208326e+14	4.930899e+14	2.565726e+14	1.021695e+04	4.694263e+03	1.884861e+03	0	6.188243e-04
1.150000e+09	6.001388e+12	0.000000e+00	5.175878e-01	1.203367e+14	4.902181e+14	2.554620e+14	1.021167e+04	4.691233e+03	1.883644e+03	0	6.173919e-04
1.160000e+09	5.959891e+12	0.000000e+00	5.175878e-01	1.198450e+14	4.873861e+14	2.543588e+14	1.020641e+04	4.688235e+03	1.882441e+03	0	6.159656e-04
1.170000e+09	5.918761e+12	0.000000e+00	5.175878e-01	1.193576e+14	4.845929e+14	2.532630e+14	1.020118e+04	4.685270e+03	1.881250e+03	0	6.145453e-04
1.180000e+09	5.877992e+12	0.000000e+00	5.175878e-01	1.188743e+14	4.818375e+14	2.521745e+14	1.019596e+04	4.682336e+03	1.880072e+03	0	6.131311e-04
1.190000e+09	5.837578e+12	0.000000e+00	5.175878e-01	1.183951e+14	4.791191e+14	2.510931e+14	1.019076e+04	4.679433e+03	1.878907e+03	0	6.117227e-04
1.200000e+09	5.797514e+12	0.000000e+00	5.175878e-01	1.179200e+14	4.764367e+14	2.500190e+14	1.018559e+04	4.676561e+03	1.877753e+03	0	6.103200e-04
1.210000e+09	5.757795e+12	0.000000e+00	5.175878e-01	1.174488e+14	4.737897e+14	2.489520e+14	1.018044e+04	4.673718e+03	1.876612e+03	0	6.089230e-04
1.220000e+09	5.718415e+12	0.000000e+00	5.175878e-01	1.169815e+14	4.711771e+14	2.478921e+14	1.017530e+04	4.670903e+03	1.875482e+03	0	6.075316e-04
1.230000e+09	5.679370e+12	0.000000e+00	5.175878e-01	1.165180e+14	4.685982e+14	2.468391e+14	1.017019e+04	4.668117e+03	1.874363e+03	0	6.061457e-04
1.240000e+09	5.640655e+12	0.000000e+00	5.175878e-01	1.160584e+14	4.660523e+14	2.457932e+14	1.016510e+04	4.665359e+03	1.873255e+03	0	6.047653e-04
1.250000e+09	5.602264e+12	0.000000e+00	5.175878e-01	1.156024e+14	4.635385e+14	2.447541e+14	1.016003e+04	4.662628e+03	1.872159e+03	0	6.033901e-04
1.260000e+09	5.564193e+12	0.000000e+00	5.175878e-01	1.151502e+14	4.610563e+14	2.437219e+14	1.015497e+04	4.659923e+03	1.871073e+03	0	6.020202e-04
1.270000e+09	5.526437e+12	0.000000e+00	5.175878e-01	1.147016e+14	4.586048e+14	2.426965e+14	1.014994e+04	4.657245e+03	1.869997e+03	0	6.006554e-04
1.280000e+09	5.488992e+12	0.000000e+00	5.175878e-01	1.142566e+14	4.561835e+14	2.416778e+14	1.014493e+04	4.654592e+03	1.868932e+03	0	5.992957e-04
1.290000e+09	5.451853e+12	0.000000e+00	5.175878e-01	1.138151e+14	4.537917e+14	2.406658e+14	1.013993e+04	4.651964e+03	1.867877e+03	0	5.979411e-04
1.300000e+09	5.415017e+12	0.000000e+00	5.175878e-01	1.133770e+14	4.514287e+14	2.396605e+14	1.013496e+04	4.649360e+03	1.866831e+03	0	5.965913e-04
1.310000e+09	5.378478e+12	0.000000e+00	5.175878e-01	1.129424e+14	4.490941e+14	2.386617e+14	1.013000e+04	4.646780e+03	1.865796e+03	0	5.952464e-04
1.320000e+09	5.342233e+12	0.000000e+00	5.175878e-01	1.125112e+14	4.467871e+14	2.376695e+14	1.012507e+04	4.644224e+03	1.864769e+03	0	5.939063e-04
1.330000e+09	5.306277e+12	0.000000e+00	5.175878e-01	1.120834e+14	4.445071e+14	2.366838e+14	1.012015e+04	4.641691e+03	1.863752e+03	0	5.925709e-04
1.340000e+09	5.270608e+12	0.000000e+00	5.175878e-01	1.116588e+14	4.422538e+14	2.357046e+14	1.011525e+04	4.639181e+03	1.862744e+03	0	5.912401e-04
1.350000e+09	5.235220e+12	0.000000e+00	5.175878e-01	1.112375e+14	4.400264e+14	2.347317e+14	1.011037e+04	4.636692e+03	1.861745e+03	0	5.899139e-04
1.360000e+09	5.200109e+12	0.000000e+00	5.175878e-01	1.108193e+14	4.378245e+14	2.337651e+14	1.010551e+04	4.634226e+03	1.860755e+03	0	5.885922e-04
