#t		Qconv[W]	Ri[Rp]		R*[Rp]		Qc[W]		Qm[W]		Qr[W]		Tcmb[K]		Tl[K]		Tup[K]		RiFlag		Bs[T]
0.000000e+00	2.185646e+13	0.000000e+00	5.226130e-01	3.020382e+14	3.887187e+15	4.863295e+14	1.151610e+04	6.570404e+03	2.573240e+03	0	9.392115e-04
1.000000e+07	2.148790e+13	0.000000e+00	5.226130e-01	2.981117e+14	3.648526e+15	4.836349e+14	1.150462e+04	6.497057e+03	2.544514e+03	0	9.339023e-04
2.000000e+07	2.112721e+13	0.000000e+00	5.226130e-01	2.942684e+14	3.435992e+15	4.809604e+14	1.149328e+04	6.429093e+03	2.517896e+03	0	9.286474e-04
3.000000e+07	2.077540e+13	0.000000e+00	5.226130e-01	2.905189e+14	3.245770e+15	4.783060e+14	1.148210e+04	6.365921e+03	2.493155e+03	0	9.234639e-04
4.000000e+07	2.043307e+13	0.000000e+00	5.226130e-01	2.868693e+14	3.074723e+15	4.756713e+14	1.147105e+04	6.307034e+03	2.470093e+03	0	9.183635e-04
5.000000e+07	2.010048e+13	0.000000e+00	5.226130e-01	2.833226e+14	2.920255e+15	4.730563e+14	1.146014e+04	6.251996e+03	2.448538e+03	0	9.133536e-04
6.000000e+07	1.977774e+13	0.000000e+00	5.226130e-01	2.798796e+14	2.780200e+15	4.704608e+14	1.144937e+04	6.200430e+03	2.428342e+03	0	9.084387e-04
7.000000e+07	1.946476e+13	0.000000e+00	5.226130e-01	2.765396e+14	2.652739e+15	4.678846e+14	1.143873e+04	6.152006e+03	2.409377e+03	0	9.036213e-04
8.000000e+07	1.916139e+13	0.000000e+00	5.226130e-01	2.733007e+14	2.536339e+15	4.653275e+14	1.142821e+04	6.106436e+03	2.391531e+03	0	8.989022e-04
9.000000e+07	1.886739e+13	0.000000e+00	5.226130e-01	2.701607e+14	2.429693e+15	4.627895e+14	1.141782e+04	6.063468e+03	2.374703e+03	0	8.942811e-04
1.000000e+08	1.858247e+13	0.000000e+00	5.226130e-01	2.671163e+14	2.331688e+15	4.602703e+14	1.140754e+04	6.022879e+03	2.358806e+03	0	8.897567e-04
1.100000e+08	1.830634e+13	0.000000e+00	5.226130e-01	2.641645e+14	2.241366e+15	4.577699e+14	1.139739e+04	5.984470e+03	2.343764e+03	0	8.853275e-04
1.200000e+08	1.803866e+13	0.000000e+00	5.226130e-01	2.613019e+14	2.157904e+15	4.552879e+14	1.138734e+04	5.948065e+03	2.329506e+03	0	8.809911e-04
1.300000e+08	1.777911e+13	0.000000e+00	5.226130e-01	2.585249e+14	2.080585e+15	4.528243e+14	1.137740e+04	5.913507e+03	2.315972e+03	0	8.767453e-04
1.400000e+08	1.752736e+13	0.000000e+00	5.226130e-01	2.558301e+14	2.008787e+15	4.503790e+14	1.136757e+04	5.880656e+03	2.303106e+03	0	8.725873e-04
1.500000e+08	1.728308e+13	0.000000e+00	5.226130e-01	2.532141e+14	1.941966e+15	4.479517e+14	1.135784e+04	5.849384e+03	2.290859e+03	0	8.685146e-04
1.600000e+08	1.704595e+13	0.000000e+00	5.226130e-01	2.506735e+14	1.879645e+15	4.455424e+14	1.134821e+04	5.819578e+03	2.279185e+03	0	8.645243e-04
1.700000e+08	1.681568e+13	0.000000e+00	5.226130e-01	2.482052e+14	1.821405e+15	4.431508e+14	1.133867e+04	5.791133e+03	2.268045e+03	0	8.606137e-04
1.800000e+08	1.659196e+13	0.000000e+00	5.226130e-01	2.458059e+14	1.766873e+15	4.407769e+14	1.132923e+04	5.763957e+03	2.257402e+03	0	8.567800e-04
1.900000e+08	1.637450e+13	0.000000e+00	5.226130e-01	2.434728e+14	1.715723e+15	4.384205e+14	1.131988e+04	5.737964e+03	2.247222e+03	0	8.530205e-04
2.000000e+08	1.616304e+13	0.000000e+00	5.226130e-01	2.412029e+14	1.667660e+15	4.360814e+14	1.131062e+04	5.713077e+03	2.237475e+03	0	8.493326e-04
2.100000e+08	1.595732e+13	0.000000e+00	5.226130e-01	2.389935e+14	1.622425e+15	4.337595e+14	1.130145e+04	5.689225e+03	2.228134e+03	0	8.457138e-04
2.200000e+08	1.575709e+13	0.000000e+00	5.226130e-01	2.368421e+14	1.579785e+15	4.314546e+14	1.129236e+04	5.666344e+03	2.219172e+03	0	8.421615e-04
2.300000e+08	1.556210e+13	0.000000e+00	5.226130e-01	2.347461e+14	1.539531e+15	4.291667e+14	1.128335e+04	5.644373e+03	2.210568e+03	0	8.386734e-04
2.400000e+08	1.537215e+13	0.000000e+00	5.226130e-01	2.327031e+14	1.501475e+15	4.268956e+14	1.127442e+04	5.623258e+03	2.202298e+03	0	8.352471e-04
2.500000e+08	1.518701e+13	0.000000e+00	5.226130e-01	2.307111e+14	1.465447e+15	4.246410e+14	1.126556e+04	5.602948e+03	2.194344e+03	0	8.318804e-04
2.600000e+08	1.500649e+13	0.000000e+00	5.226130e-01	2.287677e+14	1.431296e+15	4.224030e+14	1.125679e+04	5.583399e+03	2.186688e+03	0	8.285712e-04
2.700000e+08	1.483039e+13	0.000000e+00	5.226130e-01	2.268711e+14	1.398883e+15	4.201814e+14	1.124808e+04	5.564565e+03	2.179312e+03	0	8.253174e-04
2.800000e+08	1.465854e+13	0.000000e+00	5.226130e-01	2.250193e+14	1.368082e+15	4.179759e+14	1.123945e+04	5.546409e+03	2.172201e+03	0	8.221171e-04
2.900000e+08	1.449075e+13	0.000000e+00	5.226130e-01	2.232104e+14	1.338780e+15	4.157866e+14	1.123089e+04	5.528892e+03	2.165341e+03	0	8.189683e-04
3.000000e+08	1.432687e+13	0.000000e+00	5.226130e-01	2.214429e+14	1.310872e+15	4.136132e+14	1.122240e+04	5.511982e+03	2.158718e+03	0	8.158692e-04
3.100000e+08	1.416674e+13	0.000000e+00	5.226130e-01	2.197150e+14	1.284264e+15	4.114557e+14	1.121398e+04	5.495646e+03	2.152320e+03	0	8.128182e-04
3.200000e+08	1.401021e+13	0.000000e+00	5.226130e-01	2.180251e+14	1.258870e+15	4.093138e+14	1.120562e+04	5.479854e+03	2.146135e+03	0	8.098135e-04
3.300000e+08	1.385715e+13	0.000000e+00	5.226130e-01	2.163720e+14	1.234610e+15	4.071875e+14	1.119732e+04	5.464579e+03	2.140153e+03	0	8.068537e-04
3.400000e+08	1.370742e+13	0.000000e+00	5.226130e-01	2.147540e+14	1.211411e+15	4.050767e+14	1.118909e+04	5.449796e+03	2.134363e+03	0	8.039370e-04
3.500000e+08	1.356090e+13	0.000000e+00	5.226130e-01	2.131699e+14	1.189206e+15	4.029812e+14	1.118092e+04	5.435480e+03	2.128756e+03	0	8.010622e-04
3.600000e+08	1.341746e+13	0.000000e+00	5.226130e-01	2.116185e+14	1.167934e+15	4.009009e+14	1.117281e+04	5.421608e+03	2.123324e+03	0	7.982278e-04
3.700000e+08	1.327699e+13	0.000000e+00	5.226130e-01	2.100986e+14	1.147539e+15	3.988356e+14	1.116476e+04	5.408160e+03	2.118057e+03	0	7.954325e-04
3.800000e+08	1.313939e+13	0.000000e+00	5.226130e-01	2.086089e+14	1.127968e+15	3.967853e+14	1.115676e+04	5.395116e+03	2.112949e+03	0	7.926750e-04
3.900000e+08	1.300455e+13	0.000000e+00	5.226130e-01	2.071485e+14	1.109172e+15	3.947498e+14	1.114883e+04	5.382458e+03	2.107991e+03	0	7.899541e-04
4.000000e+08	1.287237e+13	0.000000e+00	5.226130e-01	2.057163e+14	1.091107e+15	3.927290e+14	1.114094e+04	5.370167e+03	2.103177e+03	0	7.872686e-04
4.100000e+08	1.274276e+13	0.000000e+00	5.226130e-01	2.043113e+14	1.073732e+15	3.907228e+14	1.113312e+04	5.358227e+03	2.098501e+03	0	7.846174e-04
4.200000e+08	1.261563e+13	0.000000e+00	5.226130e-01	2.029325e+14	1.057007e+15	3.887310e+14	1.112534e+04	5.346623e+03	2.093957e+03	0	7.819994e-04
4.300000e+08	1.249090e+13	0.000000e+00	5.226130e-01	2.015792e+14	1.040898e+15	3.867536e+14	1.111762e+04	5.335341e+03	2.089538e+03	0	7.794136e-04
4.400000e+08	1.236848e+13	0.000000e+00	5.226130e-01	2.002504e+14	1.025371e+15	3.847904e+14	1.110995e+04	5.324366e+03	2.085240e+03	0	7.768590e-04
4.500000e+08	1.224830e+13	0.000000e+00	5.226130e-01	1.989453e+14	1.010394e+15	3.828414e+14	1.110233e+04	5.313686e+03	2.081057e+03	0	7.743347e-04
4.600000e+08	1.213029e+13	0.000000e+00	5.226130e-01	1.976631e+14	9.959401e+14	3.809063e+14	1.109476e+04	5.303288e+03	2.076985e+03	0	7.718397e-04
4.700000e+08	1.201436e+13	0.000000e+00	5.226130e-01	1.964032e+14	9.819811e+14	3.789851e+14	1.108724e+04	5.293161e+03	2.073019e+03	0	7.693732e-04
4.800000e+08	1.190047e+13	0.000000e+00	5.226130e-01	1.951647e+14	9.684921e+14	3.770776e+14	1.107977e+04	5.283294e+03	2.069154e+03	0	7.669343e-04
4.900000e+08	1.178854e+13	0.000000e+00	5.226130e-01	1.939471e+14	9.554496e+14	3.751838e+14	1.107234e+04	5.273676e+03	2.065387e+03	0	7.645222e-04
5.000000e+08	1.167851e+13	0.000000e+00	5.226130e-01	1.927496e+14	9.428316e+14	3.733036e+14	1.106496e+04	5.264297e+03	2.061714e+03	0	7.621362e-04
5.100000e+08	1.157033e+13	0.000000e+00	5.226130e-01	1.915717e+14	9.306174e+14	3.714368e+14	1.105762e+04	5.255148e+03	2.058131e+03	0	7.597755e-04
5.200000e+08	1.146393e+13	0.000000e+00	5.226130e-01	1.904128e+14	9.187877e+14	3.695833e+14	1.105033e+04	5.246221e+03	2.054635e+03	0	7.574394e-04
5.300000e+08	1.135926e+13	0.000000e+00	5.226130e-01	1.892723e+14	9.073243e+14	3.677430e+14	1.104309e+04	5.237506e+03	2.051222e+03	0	7.551272e-04
5.400000e+08	1.125627e+13	0.000000e+00	5.226130e-01	1.881496e+14	8.962102e+14	3.659158e+14	1.103588e+04	5.228996e+03	2.047889e+03	0	7.528382e-04
5.500000e+08	1.115492e+13	0.000000e+00	5.226130e-01	1.870443e+14	8.854292e+14	3.641017e+14	1.102872e+04	5.220683e+03	2.044633e+03	0	7.505719e-04
5.600000e+08	1.105515e+13	0.000000e+00	5.226130e-01	1.859558e+14	8.749662e+14	3.623004e+14	1.102161e+04	5.212559e+03	2.041452e+03	0	7.483275e-04
5.700000e+08	1.095693e+13	0.000000e+00	5.226130e-01	1.848836e+14	8.648071e+14	3.605119e+14	1.101453e+04	5.204619e+03	2.038342e+03	0	7.461045e-04
5.800000e+08	1.086019e+13	0.000000e+00	5.226130e-01	1.838274e+14	8.549384e+14	3.587361e+14	1.100749e+04	5.196854e+03	2.035301e+03	0	7.439024e-04
5.900000e+08	1.076491e+13	0.000000e+00	5.226130e-01	1.827866e+14	8.453475e+14	3.569729e+14	1.100050e+04	5.189260e+03	2.032327e+03	0	7.417205e-04
6.000000e+08	1.067105e+13	0.000000e+00	5.226130e-01	1.817608e+14	8.360224e+14	3.552222e+14	1.099354e+04	5.181830e+03	2.029417e+03	0	7.395584e-04
6.100000e+08	1.057856e+13	0.000000e+00	5.226130e-01	1.807497e+14	8.269518e+14	3.534839e+14	1.098662e+04	5.174558e+03	2.026569e+03	0	7.374155e-04
6.200000e+08	1.048741e+13	0.000000e+00	5.226130e-01	1.797528e+14	8.181251e+14	3.517578e+14	1.097975e+04	5.167438e+03	2.023781e+03	0	7.352914e-04
6.300000e+08	1.039756e+13	0.000000e+00	5.226130e-01	1.787698e+14	8.095322e+14	3.500440e+14	1.097290e+04	5.160466e+03	2.021050e+03	0	7.331855e-04
6.400000e+08	1.030897e+13	0.000000e+00	5.226130e-01	1.778002e+14	8.011634e+14	3.483422e+14	1.096610e+04	5.153637e+03	2.018375e+03	0	7.310974e-04
6.500000e+08	1.022163e+13	0.000000e+00	5.226130e-01	1.768438e+14	7.930098e+14	3.466524e+14	1.095933e+04	5.146946e+03	2.015755e+03	0	7.290267e-04
6.600000e+08	1.013548e+13	0.000000e+00	5.226130e-01	1.759002e+14	7.850628e+14	3.449745e+14	1.095260e+04	5.140387e+03	2.013186e+03	0	7.269730e-04
6.700000e+08	1.005051e+13	0.000000e+00	5.226130e-01	1.749691e+14	7.773141e+14	3.433084e+14	1.094591e+04	5.133958e+03	2.010668e+03	0	7.249358e-04
6.800000e+08	9.966685e+12	0.000000e+00	5.226130e-01	1.740502e+14	7.697562e+14	3.416540e+14	1.093925e+04	5.127653e+03	2.008199e+03	0	7.229146e-04
6.900000e+08	9.883972e+12	0.000000e+00	5.226130e-01	1.731432e+14	7.623817e+14	3.400112e+14	1.093263e+04	5.121468e+03	2.005777e+03	0	7.209093e-04
7.000000e+08	9.802346e+12	0.000000e+00	5.226130e-01	1.722477e+14	7.551835e+14	3.383799e+14	1.092604e+04	5.115401e+03	2.003400e+03	0	7.189193e-04
7.100000e+08	9.721781e+12	0.000000e+00	5.226130e-01	1.713636e+14	7.481551e+14	3.367601e+14	1.091948e+04	5.109446e+03	2.001068e+03	0	7.169442e-04
7.200000e+08	9.642251e+12	0.000000e+00	5.226130e-01	1.704905e+14	7.412901e+14	3.351516e+14	1.091296e+04	5.103601e+03	1.998779e+03	0	7.149839e-04
7.300000e+08	9.563731e+12	0.000000e+00	5.226130e-01	1.696281e+14	7.345826e+14	3.335543e+14	1.090647e+04	5.097862e+03	1.996532e+03	0	7.130378e-04
7.400000e+08	9.486199e+12	0.000000e+00	5.226130e-01	1.687763e+14	7.280268e+14	3.319681e+14	1.090001e+04	5.092226e+03	1.994324e+03	0	7.111057e-04
7.500000e+08	9.409631e+12	0.000000e+00	5.226130e-01	1.679348e+14	7.216173e+14	3.303930e+14	1.089359e+04	5.086690e+03	1.992156e+03	0	7.091873e-04
7.600000e+08	9.334004e+12	0.000000e+00	5.226130e-01	1.671033e+14	7.153488e+14	3.288289e+14	1.088720e+04	5.081250e+03	1.990026e+03	0	7.072823e-04
7.700000e+08	9.259298e+12	0.000000e+00	5.226130e-01	1.662817e+14	7.092165e+14	3.272757e+14	1.088084e+04	5.075904e+03	1.987932e+03	0	7.053903e-04
7.800000e+08	9.185491e+12	0.000000e+00	5.226130e-01	1.654696e+14	7.032156e+14	3.257333e+14	1.087451e+04	5.070649e+03	1.985874e+03	0	7.035110e-04
7.900000e+08	9.112564e+12	0.000000e+00	5.226130e-01	1.646670e+14	6.973416e+14	3.242015e+14	1.086821e+04	5.065482e+03	1.983850e+03	0	7.016443e-04
8.000000e+08	9.040498e+12	0.000000e+00	5.226130e-01	1.638735e+14	6.915901e+14	3.226804e+14	1.086194e+04	5.060402e+03	1.981861e+03	0	6.997897e-04
8.100000e+08	8.969272e+12	0.000000e+00	5.226130e-01	1.630890e+14	6.859571e+14	3.211699e+14	1.085570e+04	5.055404e+03	1.979903e+03	0	6.979471e-04
8.200000e+08	8.898871e+12	0.000000e+00	5.226130e-01	1.623134e+14	6.804386e+14	3.196698e+14	1.084950e+04	5.050487e+03	1.977978e+03	0	6.961162e-04
8.300000e+08	8.829275e+12	0.000000e+00	5.226130e-01	1.615463e+14	6.750309e+14	3.181801e+14	1.084332e+04	5.045649e+03	1.976083e+03	0	6.942967e-04
8.400000e+08	8.760468e+12	0.000000e+00	5.226130e-01	1.607877e+14	6.697303e+14	3.167006e+14	1.083717e+04	5.040888e+03	1.974218e+03	0	6.924885e-04
8.500000e+08	8.692433e+12	0.000000e+00	5.226130e-01	1.600373e+14	6.645334e+14	3.152314e+14	1.083105e+04	5.036200e+03	1.972382e+03	0	6.906911e-04
8.600000e+08	8.625154e+12	0.000000e+00	5.226130e-01	1.592951e+14	6.594369e+14	3.137723e+14	1.082496e+04	5.031585e+03	1.970575e+03	0	6.889046e-04
8.700000e+08	8.558617e+12	0.000000e+00	5.226130e-01	1.585607e+14	6.544376e+14	3.123232e+14	1.081889e+04	5.027040e+03	1.968795e+03	0	6.871285e-04
8.800000e+08	8.492805e+12	0.000000e+00	5.226130e-01	1.578341e+14	6.495325e+14	3.108841e+14	1.081286e+04	5.022563e+03	1.967042e+03	0	6.853628e-04
8.900000e+08	8.427705e+12	0.000000e+00	5.226130e-01	1.571151e+14	6.447187e+14	3.094549e+14	1.080685e+04	5.018153e+03	1.965314e+03	0	6.836071e-04
9.000000e+08	8.363302e+12	0.000000e+00	5.226130e-01	1.564036e+14	6.399933e+14	3.080355e+14	1.080087e+04	5.013807e+03	1.963612e+03	0	6.818613e-04
9.100000e+08	8.299583e+12	0.000000e+00	5.226130e-01	1.556995e+14	6.353537e+14	3.066258e+14	1.079492e+04	5.009525e+03	1.961935e+03	0	6.801252e-04
9.200000e+08	8.236534e+12	0.000000e+00	5.226130e-01	1.550024e+14	6.307974e+14	3.052258e+14	1.078899e+04	5.005303e+03	1.960282e+03	0	6.783986e-04
9.300000e+08	8.174142e+12	0.000000e+00	5.226130e-01	1.543125e+14	6.263218e+14	3.038354e+14	1.078309e+04	5.001141e+03	1.958652e+03	0	6.766813e-04
9.400000e+08	8.112395e+12	0.000000e+00	5.226130e-01	1.536294e+14	6.219246e+14	3.024545e+14	1.077721e+04	4.997038e+03	1.957045e+03	0	6.749731e-04
9.500000e+08	8.051280e+12	0.000000e+00	5.226130e-01	1.529531e+14	6.176035e+14	3.010829e+14	1.077137e+04	4.992991e+03	1.955460e+03	0	6.732739e-04
9.600000e+08	7.990786e+12	0.000000e+00	5.226130e-01	1.522835e+14	6.133563e+14	2.997208e+14	1.076554e+04	4.988999e+03	1.953896e+03	0	6.715834e-04
9.700000e+08	7.930902e+12	0.000000e+00	5.226130e-01	1.516204e+14	6.091809e+14	2.983679e+14	1.075975e+04	4.985061e+03	1.952354e+03	0	6.699015e-04
9.800000e+08	7.871616e+12	0.000000e+00	5.226130e-01	1.509638e+14	6.050752e+14	2.970242e+14	1.075398e+04	4.981175e+03	1.950832e+03	0	6.682281e-04
9.900000e+08	7.812917e+12	0.000000e+00	5.226130e-01	1.503134e+14	6.010374e+14	2.956897e+14	1.074823e+04	4.977341e+03	1.949330e+03	0	6.665630e-04
1.000000e+09	7.754795e+12	0.000000e+00	5.226130e-01	1.496692e+14	5.970656e+14	2.943642e+14	1.074251e+04	4.973556e+03	1.947848e+03	0	6.649059e-04
1.010000e+09	7.697239e+12	0.000000e+00	5.226130e-01	1.490311e+14	5.931578e+14	2.930477e+14	1.073681e+04	4.969820e+03	1.946385e+03	0	6.632569e-04
1.020000e+09	7.640239e+12	0.000000e+00	5.226130e-01	1.483989e+14	5.893124e+14	2.917402e+14	1.073114e+04	4.966131e+03	1.944940e+03	0	6.616156e-04
1.030000e+09	7.583787e+12	0.000000e+00	5.226130e-01	1.477727e+14	5.855278e+14	2.904414e+14	1.072549e+04	4.962489e+03	1.943514e+03	0	6.599821e-04
1.040000e+09	7.527871e+12	0.000000e+00	5.226130e-01	1.471522e+14	5.818022e+14	2.891515e+14	1.071986e+04	4.958891e+03	1.942105e+03	0	6.583561e-04
1.050000e+09	7.472484e+12	0.000000e+00	5.226130e-01	1.465373e+14	5.781342e+14	2.878702e+14	1.071426e+04	4.955338e+03	1.940713e+03	0	6.567374e-04
1.060000e+09	7.417615e+12	0.000000e+00	5.226130e-01	1.459281e+14	5.745222e+14	2.865976e+14	1.070868e+04	4.951828e+03	1.939339e+03	0	6.551261e-04
1.070000e+09	7.363257e+12	0.000000e+00	5.226130e-01	1.453243e+14	5.709647e+14	2.853336e+14	1.070313e+04	4.948360e+03	1.937980e+03	0	6.535218e-04
1.080000e+09	7.309400e+12	0.000000e+00	5.226130e-01	1.447259e+14	5.674604e+14	2.840781e+14	1.069759e+04	4.944933e+03	1.936638e+03	0	6.519246e-04
1.090000e+09	7.256037e+12	0.000000e+00	5.226130e-01	1.441328e+14	5.640079e+14	2.828310e+14	1.069208e+04	4.941546e+03	1.935312e+03	0	6.503342e-04
1.100000e+09	7.203159e+12	0.000000e+00	5.226130e-01	1.435450e+14	5.606060e+14	2.815923e+14	1.068660e+04	4.938198e+03	1.934001e+03	0	6.487506e-04
1.110000e+09	7.150759e+12	0.000000e+00	5.226130e-01	1.429622e+14	5.572532e+14	2.803619e+14	1.068113e+04	4.934889e+03	1.932705e+03	0	6.471736e-04
1.120000e+09	7.098828e+12	0.000000e+00	5.226130e-01	1.423846e+14	5.539486e+14	2.791398e+14	1.067569e+04	4.931617e+03	1.931423e+03	0	6.456032e-04
1.130000e+09	7.047360e+12	0.000000e+00	5.226130e-01	1.418119e+14	5.506907e+14	2.779258e+14	1.067027e+04	4.928381e+03	1.930156e+03	0	6.440391e-04
1.140000e+09	6.996346e+12	0.000000e+00	5.226130e-01	1.412441e+14	5.474786e+14	2.767199e+14	1.066487e+04	4.925181e+03	1.928903e+03	0	6.424814e-04
1.150000e+09	6.945780e+12	0.000000e+00	5.226130e-01	1.406811e+14	5.443110e+14	2.755221e+14	1.065949e+04	4.922017e+03	1.927663e+03	0	6.409298e-04
1.160000e+09	6.895655e+12	0.000000e+00	5.226130e-01	1.401228e+14	5.411870e+14	2.743323e+14	1.065414e+04	4.918886e+03	1.926437e+03	0	6.393843e-04
1.170000e+09	6.845964e+12	0.000000e+00	5.226130e-01	1.395693e+14	5.381056e+14	2.731504e+14	1.064880e+04	4.915789e+03	1.925224e+03	0	6.378447e-04
1.180000e+09	6.796700e+12	0.000000e+00	5.226130e-01	1.390203e+14	5.350656e+14	2.719764e+14	1.064349e+04	4.912725e+03	1.924024e+03	0	6.363111e-04
1.190000e+09	6.747857e+12	0.000000e+00	5.226130e-01	1.384758e+14	5.320662e+14	2.708102e+14	1.063820e+04	4.909692e+03	1.922837e+03	0	6.347832e-04
1.200000e+09	6.699429e+12	0.000000e+00	5.226130e-01	1.379359e+14	5.291064e+14	2.696517e+14	1.063292e+04	4.906691e+03	1.921661e+03	0	6.332609e-04
1.210000e+09	6.651409e+12	0.000000e+00	5.226130e-01	1.374003e+14	5.261853e+14	2.685009e+14	1.062767e+04	4.903721e+03	1.920498e+03	0	6.317443e-04
1.220000e+09	6.603791e+12	0.000000e+00	5.226130e-01	1.368691e+14	5.233021e+14	2.673577e+14	1.062244e+04	4.900780e+03	1.919346e+03	0	6.302331e-04
1.230000e+09	6.556569e+12	0.000000e+00	5.226130e-01	1.363421e+14	5.204559e+14	2.662221e+14	1.061723e+04	4.897869e+03	1.918206e+03	0	6.287273e-04
1.240000e+09	6.509738e+12	0.000000e+00	5.226130e-01	1.358194e+14	5.176458e+14	2.650940e+14	1.061204e+04	4.894987e+03	1.917078e+03	0	6.272268e-04
1.250000e+09	6.463292e+12	0.000000e+00	5.226130e-01	1.353008e+14	5.148711e+14	2.639733e+14	1.060687e+04	4.892133e+03	1.915960e+03	0	6.257315e-04
1.260000e+09	6.417225e+12	0.000000e+00	5.226130e-01	1.347862e+14	5.121310e+14	2.628601e+14	1.060172e+04	4.889307e+03	1.914853e+03	0	6.242413e-04
1.270000e+09	6.371532e+12	0.000000e+00	5.226130e-01	1.342758e+14	5.094247e+14	2.617541e+14	1.059659e+04	4.886508e+03	1.913757e+03	0	6.227562e-04
1.280000e+09	6.326208e+12	0.000000e+00	5.226130e-01	1.337693e+14	5.067516e+14	2.606555e+14	1.059147e+04	4.883735e+03	1.912671e+03	0	6.212760e-04
1.290000e+09	6.281248e+12	0.000000e+00	5.226130e-01	1.332667e+14	5.041109e+14	2.595640e+14	1.058638e+04	4.880988e+03	1.911595e+03	0	6.198007e-04
1.300000e+09	6.236646e+12	0.000000e+00	5.226130e-01	1.327680e+14	5.015019e+14	2.584798e+14	1.058131e+04	4.878267e+03	1.910529e+03	0	6.183302e-04
1.310000e+09	6.192397e+12	0.000000e+00	5.226130e-01	1.322731e+14	4.989240e+14	2.574026e+14	1.057625e+04	4.875571e+03	1.909473e+03	0	6.168644e-04
1.320000e+09	6.148498e+12	0.000000e+00	5.226130e-01	1.317820e+14	4.963765e+14	2.563325e+14	1.057122e+04	4.872899e+03	1.908427e+03	0	6.154032e-04
1.330000e+09	6.104942e+12	0.000000e+00	5.226130e-01	1.312946e+14	4.938588e+14	2.552694e+14	1.056620e+04	4.870251e+03	1.907390e+03	0	6.139466e-04
1.340000e+09	6.061726e+12	0.000000e+00	5.226130e-01	1.308109e+14	4.913703e+14	2.542132e+14	1.056120e+04	4.867626e+03	1.906362e+03	0	6.124945e-04
1.350000e+09	6.018844e+12	0.000000e+00	5.226130e-01	1.303307e+14	4.889104e+14	2.531639e+14	1.055622e+04	4.865025e+03	1.905343e+03	0	6.110468e-04
1.360000e+09	5.976293e+12	0.000000e+00	5.226130e-01	1.298542e+14	4.864786e+14	2.521215e+14	1.055126e+04	4.862447e+03	1.904333e+03	0	6.096034e-04
