#t		Qconv[W]	Ri[Rp]		R*[Rp]		Qc[W]		Qm[W]		Qr[W]		Tcmb[K]		Tl[K]		Tup[K]		RiFlag		Bs[T]
0.000000e+00	2.421292e+13	0.000000e+00	5.226130e-01	3.316831e+14	3.948410e+15	5.111074e+14	1.194921e+04	6.785854e+03	2.596569e+03	0	9.701874e-04
1.000000e+07	2.381353e+13	0.000000e+00	5.226130e-01	3.275421e+14	3.719623e+15	5.082755e+14	1.193746e+04	6.715160e+03	2.569519e+03	0	9.648234e-04
2.000000e+07	2.342292e+13	0.000000e+00	5.226130e-01	3.234914e+14	3.514704e+15	5.054648e+14	1.192585e+04	6.649421e+03	2.544364e+03	0	9.595190e-04
3.000000e+07	2.304192e+13	0.000000e+00	5.226130e-01	3.195393e+14	3.330319e+15	5.026750e+14	1.191439e+04	6.588115e+03	2.520905e+03	0	9.542880e-04
4.000000e+07	2.267101e+13	0.000000e+00	5.226130e-01	3.156907e+14	3.163705e+15	4.999061e+14	1.190307e+04	6.530794e+03	2.498972e+03	0	9.491399e-04
5.000000e+07	2.231041e+13	0.000000e+00	5.226130e-01	3.119477e+14	3.012554e+15	4.971579e+14	1.189189e+04	6.477069e+03	2.478414e+03	0	9.440806e-04
6.000000e+07	2.196014e+13	0.000000e+00	5.226130e-01	3.083107e+14	2.874926e+15	4.944301e+14	1.188084e+04	6.426601e+03	2.459103e+03	0	9.391139e-04
7.000000e+07	2.162010e+13	0.000000e+00	5.226130e-01	3.047785e+14	2.749181e+15	4.917227e+14	1.186991e+04	6.379092e+03	2.440924e+03	0	9.342415e-04
8.000000e+07	2.129012e+13	0.000000e+00	5.226130e-01	3.013494e+14	2.633924e+15	4.890354e+14	1.185912e+04	6.334283e+03	2.423778e+03	0	9.294641e-04
9.000000e+07	2.096993e+13	0.000000e+00	5.226130e-01	2.980206e+14	2.527964e+15	4.863680e+14	1.184844e+04	6.291943e+03	2.407577e+03	0	9.247811e-04
1.000000e+08	2.065926e+13	0.000000e+00	5.226130e-01	2.947892e+14	2.430275e+15	4.837205e+14	1.183788e+04	6.251866e+03	2.392241e+03	0	9.201914e-04
1.100000e+08	2.035778e+13	0.000000e+00	5.226130e-01	2.916521e+14	2.339974e+15	4.810926e+14	1.182743e+04	6.213871e+03	2.377703e+03	0	9.156933e-04
1.200000e+08	2.006517e+13	0.000000e+00	5.226130e-01	2.886059e+14	2.256292e+15	4.784842e+14	1.181710e+04	6.177795e+03	2.363899e+03	0	9.112849e-04
1.300000e+08	1.978109e+13	0.000000e+00	5.226130e-01	2.856471e+14	2.178564e+15	4.758952e+14	1.180687e+04	6.143492e+03	2.350773e+03	0	9.069639e-04
1.400000e+08	1.950521e+13	0.000000e+00	5.226130e-01	2.827723e+14	2.106203e+15	4.733252e+14	1.179675e+04	6.110832e+03	2.338276e+03	0	9.027278e-04
1.500000e+08	1.923720e+13	0.000000e+00	5.226130e-01	2.799782e+14	2.038698e+15	4.707743e+14	1.178673e+04	6.079696e+03	2.326362e+03	0	8.985741e-04
1.600000e+08	1.897674e+13	0.000000e+00	5.226130e-01	2.772614e+14	1.975598e+15	4.682422e+14	1.177681e+04	6.049976e+03	2.314989e+03	0	8.945002e-04
1.700000e+08	1.872351e+13	0.000000e+00	5.226130e-01	2.746189e+14	1.916503e+15	4.657288e+14	1.176698e+04	6.021576e+03	2.304122e+03	0	8.905036e-04
1.800000e+08	1.847722e+13	0.000000e+00	5.226130e-01	2.720474e+14	1.861059e+15	4.632339e+14	1.175725e+04	5.994408e+03	2.293727e+03	0	8.865818e-04
1.900000e+08	1.823757e+13	0.000000e+00	5.226130e-01	2.695441e+14	1.808952e+15	4.607574e+14	1.174761e+04	5.968390e+03	2.283771e+03	0	8.827321e-04
2.000000e+08	1.800428e+13	0.000000e+00	5.226130e-01	2.671060e+14	1.759902e+15	4.582992e+14	1.173806e+04	5.943451e+03	2.274228e+03	0	8.789521e-04
2.100000e+08	1.777710e+13	0.000000e+00	5.226130e-01	2.647305e+14	1.713657e+15	4.558590e+14	1.172859e+04	5.919521e+03	2.265072e+03	0	8.752394e-04
2.200000e+08	1.755576e+13	0.000000e+00	5.226130e-01	2.624150e+14	1.669992e+15	4.534367e+14	1.171921e+04	5.896541e+03	2.256278e+03	0	8.715917e-04
2.300000e+08	1.734002e+13	0.000000e+00	5.226130e-01	2.601569e+14	1.628704e+15	4.510322e+14	1.170991e+04	5.874452e+03	2.247826e+03	0	8.680067e-04
2.400000e+08	1.712965e+13	0.000000e+00	5.226130e-01	2.579540e+14	1.589612e+15	4.486453e+14	1.170069e+04	5.853203e+03	2.239695e+03	0	8.644822e-04
2.500000e+08	1.692443e+13	0.000000e+00	5.226130e-01	2.558040e+14	1.552551e+15	4.462760e+14	1.169154e+04	5.832746e+03	2.231868e+03	0	8.610161e-04
2.600000e+08	1.672416e+13	0.000000e+00	5.226130e-01	2.537048e+14	1.517370e+15	4.439239e+14	1.168248e+04	5.813035e+03	2.224325e+03	0	8.576064e-04
2.700000e+08	1.652863e+13	0.000000e+00	5.226130e-01	2.516542e+14	1.483936e+15	4.415891e+14	1.167348e+04	5.794030e+03	2.217053e+03	0	8.542511e-04
2.800000e+08	1.633766e+13	0.000000e+00	5.226130e-01	2.496505e+14	1.452124e+15	4.392713e+14	1.166456e+04	5.775693e+03	2.210037e+03	0	8.509484e-04
2.900000e+08	1.615107e+13	0.000000e+00	5.226130e-01	2.476918e+14	1.421823e+15	4.369704e+14	1.165572e+04	5.757987e+03	2.203262e+03	0	8.476964e-04
3.000000e+08	1.596868e+13	0.000000e+00	5.226130e-01	2.457762e+14	1.392930e+15	4.346863e+14	1.164694e+04	5.740881e+03	2.196716e+03	0	8.444934e-04
3.100000e+08	1.579034e+13	0.000000e+00	5.226130e-01	2.439023e+14	1.365352e+15	4.324188e+14	1.163822e+04	5.724343e+03	2.190388e+03	0	8.413378e-04
3.200000e+08	1.561589e+13	0.000000e+00	5.226130e-01	2.420683e+14	1.339003e+15	4.301678e+14	1.162958e+04	5.708344e+03	2.184266e+03	0	8.382280e-04
3.300000e+08	1.544519e+13	0.000000e+00	5.226130e-01	2.402729e+14	1.313804e+15	4.279332e+14	1.162100e+04	5.692858e+03	2.178340e+03	0	8.351625e-04
3.400000e+08	1.527809e+13	0.000000e+00	5.226130e-01	2.385145e+14	1.289684e+15	4.257149e+14	1.161248e+04	5.677859e+03	2.172601e+03	0	8.321397e-04
3.500000e+08	1.511446e+13	0.000000e+00	5.226130e-01	2.367919e+14	1.266575e+15	4.235126e+14	1.160402e+04	5.663325e+03	2.167040e+03	0	8.291583e-04
3.600000e+08	1.495418e+13	0.000000e+00	5.226130e-01	2.351037e+14	1.244416e+15	4.213263e+14	1.159563e+04	5.649233e+03	2.161647e+03	0	8.262170e-04
3.700000e+08	1.479713e+13	0.000000e+00	5.226130e-01	2.334487e+14	1.223150e+15	4.191558e+14	1.158730e+04	5.635563e+03	2.156417e+03	0	8.233145e-04
3.800000e+08	1.464319e+13	0.000000e+00	5.226130e-01	2.318257e+14	1.202727e+15	4.170010e+14	1.157902e+04	5.622295e+03	2.151340e+03	0	8.204495e-04
3.900000e+08	1.449226e+13	0.000000e+00	5.226130e-01	2.302337e+14	1.183096e+15	4.148618e+14	1.157080e+04	5.609411e+03	2.146410e+03	0	8.176208e-04
4.000000e+08	1.434422e+13	0.000000e+00	5.226130e-01	2.286715e+14	1.164213e+15	4.127381e+14	1.156264e+04	5.596895e+03	2.141620e+03	0	8.148274e-04
4.100000e+08	1.419899e+13	0.000000e+00	5.226130e-01	2.271382e+14	1.146036e+15	4.106296e+14	1.155453e+04	5.584729e+03	2.136965e+03	0	8.120680e-04
4.200000e+08	1.405647e+13	0.000000e+00	5.226130e-01	2.256328e+14	1.128527e+15	4.085364e+14	1.154648e+04	5.572899e+03	2.132439e+03	0	8.093418e-04
4.300000e+08	1.391656e+13	0.000000e+00	5.226130e-01	2.241543e+14	1.111650e+15	4.064582e+14	1.153848e+04	5.561391e+03	2.128035e+03	0	8.066476e-04
4.400000e+08	1.377918e+13	0.000000e+00	5.226130e-01	2.227019e+14	1.095370e+15	4.043950e+14	1.153054e+04	5.550190e+03	2.123749e+03	0	8.039846e-04
4.500000e+08	1.364425e+13	0.000000e+00	5.226130e-01	2.212748e+14	1.079658e+15	4.023466e+14	1.152264e+04	5.539285e+03	2.119576e+03	0	8.013517e-04
4.600000e+08	1.351170e+13	0.000000e+00	5.226130e-01	2.198721e+14	1.064483e+15	4.003130e+14	1.151480e+04	5.528662e+03	2.115512e+03	0	7.987482e-04
4.700000e+08	1.338144e+13	0.000000e+00	5.226130e-01	2.184931e+14	1.049819e+15	3.982939e+14	1.150700e+04	5.518311e+03	2.111551e+03	0	7.961731e-04
4.800000e+08	1.325340e+13	0.000000e+00	5.226130e-01	2.171370e+14	1.035640e+15	3.962892e+14	1.149925e+04	5.508221e+03	2.107690e+03	0	7.936256e-04
4.900000e+08	1.312752e+13	0.000000e+00	5.226130e-01	2.158031e+14	1.021921e+15	3.942990e+14	1.149156e+04	5.498381e+03	2.103925e+03	0	7.911049e-04
5.000000e+08	1.300372e+13	0.000000e+00	5.226130e-01	2.144908e+14	1.008641e+15	3.923229e+14	1.148390e+04	5.488782e+03	2.100252e+03	0	7.886103e-04
5.100000e+08	1.288196e+13	0.000000e+00	5.226130e-01	2.131995e+14	9.957793e+14	3.903610e+14	1.147630e+04	5.479414e+03	2.096667e+03	0	7.861411e-04
5.200000e+08	1.276215e+13	0.000000e+00	5.226130e-01	2.119284e+14	9.833152e+14	3.884131e+14	1.146874e+04	5.470268e+03	2.093168e+03	0	7.836965e-04
5.300000e+08	1.264426e+13	0.000000e+00	5.226130e-01	2.106770e+14	9.712304e+14	3.864790e+14	1.146123e+04	5.461337e+03	2.089750e+03	0	7.812759e-04
5.400000e+08	1.252822e+13	0.000000e+00	5.226130e-01	2.094448e+14	9.595077e+14	3.845588e+14	1.145376e+04	5.452612e+03	2.086411e+03	0	7.788785e-04
5.500000e+08	1.241398e+13	0.000000e+00	5.226130e-01	2.082312e+14	9.481306e+14	3.826522e+14	1.144633e+04	5.444086e+03	2.083149e+03	0	7.765039e-04
5.600000e+08	1.230149e+13	0.000000e+00	5.226130e-01	2.070356e+14	9.370837e+14	3.807591e+14	1.143895e+04	5.435750e+03	2.079960e+03	0	7.741513e-04
5.700000e+08	1.219070e+13	0.000000e+00	5.226130e-01	2.058576e+14	9.263525e+14	3.788796e+14	1.143161e+04	5.427600e+03	2.076841e+03	0	7.718202e-04
5.800000e+08	1.208156e+13	0.000000e+00	5.226130e-01	2.046967e+14	9.159231e+14	3.770133e+14	1.142431e+04	5.419627e+03	2.073790e+03	0	7.695100e-04
5.900000e+08	1.197403e+13	0.000000e+00	5.226130e-01	2.035524e+14	9.057828e+14	3.751603e+14	1.141705e+04	5.411826e+03	2.070805e+03	0	7.672203e-04
6.000000e+08	1.186807e+13	0.000000e+00	5.226130e-01	2.024243e+14	8.959191e+14	3.733203e+14	1.140983e+04	5.404191e+03	2.067883e+03	0	7.649503e-04
6.100000e+08	1.176362e+13	0.000000e+00	5.226130e-01	2.013119e+14	8.863205e+14	3.714934e+14	1.140265e+04	5.396715e+03	2.065023e+03	0	7.626997e-04
6.200000e+08	1.166066e+13	0.000000e+00	5.226130e-01	2.002149e+14	8.769761e+14	3.696795e+14	1.139552e+04	5.389395e+03	2.062222e+03	0	7.604680e-04
6.300000e+08	1.155914e+13	0.000000e+00	5.226130e-01	1.991328e+14	8.678755e+14	3.678783e+14	1.138842e+04	5.382223e+03	2.059478e+03	0	7.582547e-04
6.400000e+08	1.145903e+13	0.000000e+00	5.226130e-01	1.980653e+14	8.590088e+14	3.660898e+14	1.138136e+04	5.375196e+03	2.056789e+03	0	7.560593e-04
6.500000e+08	1.136029e+13	0.000000e+00	5.226130e-01	1.970120e+14	8.503668e+14	3.643139e+14	1.137433e+04	5.368308e+03	2.054153e+03	0	7.538814e-04
6.600000e+08	1.126288e+13	0.000000e+00	5.226130e-01	1.959725e+14	8.419406e+14	3.625505e+14	1.136735e+04	5.361556e+03	2.051569e+03	0	7.517205e-04
6.700000e+08	1.116678e+13	0.000000e+00	5.226130e-01	1.949465e+14	8.337218e+14	3.607995e+14	1.136040e+04	5.354933e+03	2.049035e+03	0	7.495763e-04
6.800000e+08	1.107194e+13	0.000000e+00	5.226130e-01	1.939336e+14	8.257024e+14	3.590608e+14	1.135348e+04	5.348438e+03	2.046550e+03	0	7.474484e-04
6.900000e+08	1.097835e+13	0.000000e+00	5.226130e-01	1.929336e+14	8.178749e+14	3.573344e+14	1.134661e+04	5.342064e+03	2.044111e+03	0	7.453363e-04
7.000000e+08	1.088596e+13	0.000000e+00	5.226130e-01	1.919462e+14	8.102320e+14	3.556200e+14	1.133977e+04	5.335809e+03	2.041718e+03	0	7.432397e-04
7.100000e+08	1.079476e+13	0.000000e+00	5.226130e-01	1.909709e+14	8.027670e+14	3.539176e+14	1.133296e+04	5.329669e+03	2.039368e+03	0	7.411582e-04
7.200000e+08	1.070471e+13	0.000000e+00	5.226130e-01	1.900077e+14	7.954733e+14	3.522271e+14	1.132619e+04	5.323641e+03	2.037061e+03	0	7.390915e-04
7.300000e+08	1.061579e+13	0.000000e+00	5.226130e-01	1.890561e+14	7.883446e+14	3.505484e+14	1.131945e+04	5.317720e+03	2.034796e+03	0	7.370393e-04
7.400000e+08	1.052796e+13	0.000000e+00	5.226130e-01	1.881160e+14	7.813751e+14	3.488815e+14	1.131274e+04	5.311903e+03	2.032570e+03	0	7.350011e-04
7.500000e+08	1.044121e+13	0.000000e+00	5.226130e-01	1.871870e+14	7.745591e+14	3.472261e+14	1.130607e+04	5.306188e+03	2.030383e+03	0	7.329768e-04
7.600000e+08	1.035551e+13	0.000000e+00	5.226130e-01	1.862689e+14	7.678913e+14	3.455823e+14	1.129944e+04	5.300572e+03	2.028234e+03	0	7.309659e-04
7.700000e+08	1.027084e+13	0.000000e+00	5.226130e-01	1.853615e+14	7.613664e+14	3.439500e+14	1.129283e+04	5.295050e+03	2.026121e+03	0	7.289682e-04
7.800000e+08	1.018717e+13	0.000000e+00	5.226130e-01	1.844645e+14	7.549797e+14	3.423290e+14	1.128626e+04	5.289622e+03	2.024044e+03	0	7.269834e-04
7.900000e+08	1.010449e+13	0.000000e+00	5.226130e-01	1.835777e+14	7.487263e+14	3.407192e+14	1.127972e+04	5.284284e+03	2.022002e+03	0	7.250112e-04
8.000000e+08	1.002277e+13	0.000000e+00	5.226130e-01	1.827009e+14	7.426019e+14	3.391206e+14	1.127321e+04	5.279033e+03	2.019992e+03	0	7.230513e-04
8.100000e+08	9.941984e+12	0.000000e+00	5.226130e-01	1.818339e+14	7.366021e+14	3.375331e+14	1.126673e+04	5.273866e+03	2.018015e+03	0	7.211035e-04
8.200000e+08	9.862122e+12	0.000000e+00	5.226130e-01	1.809765e+14	7.307229e+14	3.359565e+14	1.126028e+04	5.268783e+03	2.016070e+03	0	7.191675e-04
8.300000e+08	9.783163e+12	0.000000e+00	5.226130e-01	1.801284e+14	7.249603e+14	3.343909e+14	1.125386e+04	5.263779e+03	2.014156e+03	0	7.172430e-04
8.400000e+08	9.705086e+12	0.000000e+00	5.226130e-01	1.792895e+14	7.193106e+14	3.328361e+14	1.124747e+04	5.258854e+03	2.012271e+03	0	7.153299e-04
8.500000e+08	9.627874e+12	0.000000e+00	5.226130e-01	1.784596e+14	7.137701e+14	3.312920e+14	1.124111e+04	5.254004e+03	2.010415e+03	0	7.134278e-04
8.600000e+08	9.551510e+12	0.000000e+00	5.226130e-01	1.776386e+14	7.083355e+14	3.297586e+14	1.123478e+04	5.249228e+03	2.008588e+03	0	7.115366e-04
8.700000e+08	9.475975e+12	0.000000e+00	5.226130e-01	1.768262e+14	7.030034e+14	3.282357e+14	1.122848e+04	5.244523e+03	2.006788e+03	0	7.096560e-04
8.800000e+08	9.401255e+12	0.000000e+00	5.226130e-01	1.760222e+14	6.977707e+14	3.267233e+14	1.122221e+04	5.239889e+03	2.005014e+03	0	7.077858e-04
8.900000e+08	9.327332e+12	0.000000e+00	5.226130e-01	1.752266e+14	6.926343e+14	3.252212e+14	1.121597e+04	5.235322e+03	2.003267e+03	0	7.059258e-04
9.000000e+08	9.254191e+12	0.000000e+00	5.226130e-01	1.744391e+14	6.875914e+14	3.237295e+14	1.120976e+04	5.230821e+03	2.001545e+03	0	7.040758e-04
9.100000e+08	9.181817e+12	0.000000e+00	5.226130e-01	1.736596e+14	6.826391e+14	3.222480e+14	1.120357e+04	5.226385e+03	1.999847e+03	0	7.022355e-04
9.200000e+08	9.110195e+12	0.000000e+00	5.226130e-01	1.728879e+14	6.777747e+14	3.207767e+14	1.119741e+04	5.222012e+03	1.998174e+03	0	7.004048e-04
9.300000e+08	9.039312e+12	0.000000e+00	5.226130e-01	1.721239e+14	6.729956e+14	3.193154e+14	1.119128e+04	5.217699e+03	1.996523e+03	0	6.985836e-04
9.400000e+08	8.969153e+12	0.000000e+00	5.226130e-01	1.713675e+14	6.682994e+14	3.178641e+14	1.118517e+04	5.213446e+03	1.994896e+03	0	6.967715e-04
9.500000e+08	8.899704e+12	0.000000e+00	5.226130e-01	1.706185e+14	6.636837e+14	3.164227e+14	1.117910e+04	5.209251e+03	1.993291e+03	0	6.949685e-04
9.600000e+08	8.830953e+12	0.000000e+00	5.226130e-01	1.698767e+14	6.591462e+14	3.149912e+14	1.117304e+04	5.205113e+03	1.991707e+03	0	6.931743e-04
9.700000e+08	8.762887e+12	0.000000e+00	5.226130e-01	1.691422e+14	6.546847e+14	3.135694e+14	1.116702e+04	5.201029e+03	1.990145e+03	0	6.913888e-04
9.800000e+08	8.695494e+12	0.000000e+00	5.226130e-01	1.684146e+14	6.502970e+14	3.121572e+14	1.116102e+04	5.196999e+03	1.988603e+03	0	6.896118e-04
9.900000e+08	8.628761e+12	0.000000e+00	5.226130e-01	1.676939e+14	6.459812e+14	3.107547e+14	1.115505e+04	5.193022e+03	1.987081e+03	0	6.878431e-04
1.000000e+09	8.562678e+12	0.000000e+00	5.226130e-01	1.669800e+14	6.417352e+14	3.093617e+14	1.114910e+04	5.189096e+03	1.985579e+03	0	6.860827e-04
1.010000e+09	8.497231e+12	0.000000e+00	5.226130e-01	1.662728e+14	6.375571e+14	3.079781e+14	1.114318e+04	5.185220e+03	1.984095e+03	0	6.843302e-04
1.020000e+09	8.432411e+12	0.000000e+00	5.226130e-01	1.655721e+14	6.334452e+14	3.066039e+14	1.113728e+04	5.181392e+03	1.982631e+03	0	6.825857e-04
1.030000e+09	8.368207e+12	0.000000e+00	5.226130e-01	1.648778e+14	6.293976e+14	3.052390e+14	1.113141e+04	5.177612e+03	1.981184e+03	0	6.808489e-04
1.040000e+09	8.304608e+12	0.000000e+00	5.226130e-01	1.641898e+14	6.254127e+14	3.038834e+14	1.112556e+04	5.173878e+03	1.979755e+03	0	6.791196e-04
1.050000e+09	8.241603e+12	0.000000e+00	5.226130e-01	1.635081e+14	6.214888e+14	3.025369e+14	1.111974e+04	5.170189e+03	1.978344e+03	0	6.773979e-04
1.060000e+09	8.179184e+12	0.000000e+00	5.226130e-01	1.628325e+14	6.176243e+14	3.011994e+14	1.111394e+04	5.166545e+03	1.976950e+03	0	6.756834e-04
1.070000e+09	8.117339e+12	0.000000e+00	5.226130e-01	1.621629e+14	6.138177e+14	2.998710e+14	1.110816e+04	5.162944e+03	1.975572e+03	0	6.739761e-04
1.080000e+09	8.056061e+12	0.000000e+00	5.226130e-01	1.614992e+14	6.100676e+14	2.985515e+14	1.110241e+04	5.159385e+03	1.974210e+03	0	6.722758e-04
1.090000e+09	7.995338e+12	0.000000e+00	5.226130e-01	1.608413e+14	6.063725e+14	2.972409e+14	1.109668e+04	5.155867e+03	1.972864e+03	0	6.705825e-04
1.100000e+09	7.935164e+12	0.000000e+00	5.226130e-01	1.601892e+14	6.027310e+14	2.959391e+14	1.109098e+04	5.152390e+03	1.971533e+03	0	6.688959e-04
1.110000e+09	7.875527e+12	0.000000e+00	5.226130e-01	1.595427e+14	5.991418e+14	2.946460e+14	1.108530e+04	5.148951e+03	1.970217e+03	0	6.672160e-04
1.120000e+09	7.816421e+12	0.000000e+00	5.226130e-01	1.589017e+14	5.956037e+14	2.933616e+14	1.107964e+04	5.145552e+03	1.968917e+03	0	6.655427e-04
1.130000e+09	7.757837e+12	0.000000e+00	5.226130e-01	1.582662e+14	5.921154e+14	2.920858e+14	1.107400e+04	5.142190e+03	1.967630e+03	0	6.638757e-04
1.140000e+09	7.699766e+12	0.000000e+00	5.226130e-01	1.576361e+14	5.886756e+14	2.908185e+14	1.106839e+04	5.138865e+03	1.966358e+03	0	6.622151e-04
1.150000e+09	7.642201e+12	0.000000e+00	5.226130e-01	1.570113e+14	5.852833e+14	2.895596e+14	1.106279e+04	5.135575e+03	1.965099e+03	0	6.605607e-04
1.160000e+09	7.585133e+12	0.000000e+00	5.226130e-01	1.563917e+14	5.819373e+14	2.883092e+14	1.105723e+04	5.132321e+03	1.963854e+03	0	6.589124e-04
1.170000e+09	7.528556e+12	0.000000e+00	5.226130e-01	1.557772e+14	5.786365e+14	2.870671e+14	1.105168e+04	5.129102e+03	1.962622e+03	0	6.572700e-04
1.180000e+09	7.472462e+12	0.000000e+00	5.226130e-01	1.551678e+14	5.753799e+14	2.858332e+14	1.104615e+04	5.125916e+03	1.961403e+03	0	6.556335e-04
1.190000e+09	7.416843e+12	0.000000e+00	5.226130e-01	1.545634e+14	5.721665e+14	2.846076e+14	1.104065e+04	5.122763e+03	1.960197e+03	0	6.540028e-04
1.200000e+09	7.361693e+12	0.000000e+00	5.226130e-01	1.539639e+14	5.689952e+14	2.833901e+14	1.103517e+04	5.119642e+03	1.959003e+03	0	6.523778e-04
1.210000e+09	7.307004e+12	0.000000e+00	5.226130e-01	1.533692e+14	5.658651e+14	2.821807e+14	1.102971e+04	5.116553e+03	1.957821e+03	0	6.507583e-04
1.220000e+09	7.252770e+12	0.000000e+00	5.226130e-01	1.527793e+14	5.627754e+14	2.809793e+14	1.102426e+04	5.113495e+03	1.956650e+03	0	6.491443e-04
1.230000e+09	7.198985e+12	0.000000e+00	5.226130e-01	1.521941e+14	5.597250e+14	2.797858e+14	1.101885e+04	5.110468e+03	1.955492e+03	0	6.475356e-04
1.240000e+09	7.145641e+12	0.000000e+00	5.226130e-01	1.516135e+14	5.567132e+14	2.786002e+14	1.101345e+04	5.107470e+03	1.954345e+03	0	6.459323e-04
1.250000e+09	7.092733e+12	0.000000e+00	5.226130e-01	1.510375e+14	5.537390e+14	2.774225e+14	1.100807e+04	5.104501e+03	1.953209e+03	0	6.443341e-04
1.260000e+09	7.040254e+12	0.000000e+00	5.226130e-01	1.504661e+14	5.508017e+14	2.762525e+14	1.100271e+04	5.101560e+03	1.952084e+03	0	6.427410e-04
1.270000e+09	6.988198e+12	0.000000e+00	5.226130e-01	1.498990e+14	5.479005e+14	2.750902e+14	1.099737e+04	5.098648e+03	1.950969e+03	0	6.411529e-04
1.280000e+09	6.936560e+12	0.000000e+00	5.226130e-01	1.493364e+14	5.450346e+14	2.739355e+14	1.099206e+04	5.095763e+03	1.949865e+03	0	6.395698e-04
1.290000e+09	6.885333e+12	0.000000e+00	5.226130e-01	1.487780e+14	5.422033e+14	2.727885e+14	1.098676e+04	5.092905e+03	1.948771e+03	0	6.379915e-04
1.300000e+09	6.834512e+12	0.000000e+00	5.226130e-01	1.482240e+14	5.394058e+14	2.716490e+14	1.098148e+04	5.090073e+03	1.947688e+03	0	6.364179e-04
1.310000e+09	6.784091e+12	0.000000e+00	5.226130e-01	1.476741e+14	5.366415e+14	2.705169e+14	1.097622e+04	5.087267e+03	1.946614e+03	0	6.348490e-04
1.320000e+09	6.734066e+12	0.000000e+00	5.226130e-01	1.471284e+14	5.339096e+14	2.693923e+14	1.097099e+04	5.084486e+03	1.945550e+03	0	6.332847e-04
1.330000e+09	6.684430e+12	0.000000e+00	5.226130e-01	1.465868e+14	5.312095e+14	2.682750e+14	1.096577e+04	5.081730e+03	1.944495e+03	0	6.317250e-04
1.340000e+09	6.635178e+12	0.000000e+00	5.226130e-01	1.460492e+14	5.285406e+14	2.671650e+14	1.096057e+04	5.078998e+03	1.943450e+03	0	6.301696e-04
1.350000e+09	6.586306e+12	0.000000e+00	5.226130e-01	1.455156e+14	5.259022e+14	2.660623e+14	1.095539e+04	5.076290e+03	1.942414e+03	0	6.286186e-04
1.360000e+09	6.537808e+12	0.000000e+00	5.226130e-01	1.449860e+14	5.232937e+14	2.649668e+14	1.095022e+04	5.073605e+03	1.941387e+03	0	6.270719e-04
