#t		Qconv[W]	Ri[Rp]		R*[Rp]		Qc[W]		Qm[W]		Qr[W]		Tcmb[K]		Tl[K]		Tup[K]		RiFlag		Bs[T]
0.000000e+00	2.842206e+13	0.000000e+00	5.175881e-01	3.882253e+14	3.999461e+15	5.519578e+14	1.279828e+04	7.202910e+03	2.638048e+03	0	1.029273e-03
1.000000e+07	2.797033e+13	0.000000e+00	5.175881e-01	3.836318e+14	3.791257e+15	5.488995e+14	1.278552e+04	7.136919e+03	2.613879e+03	0	1.023791e-03
2.000000e+07	2.752906e+13	0.000000e+00	5.175881e-01	3.791434e+14	3.602933e+15	5.458642e+14	1.277291e+04	7.075181e+03	2.591267e+03	0	1.018378e-03
3.000000e+07	2.709873e+13	0.000000e+00	5.175881e-01	3.747650e+14	3.431932e+15	5.428515e+14	1.276045e+04	7.017282e+03	2.570062e+03	0	1.013044e-03
4.000000e+07	2.667958e+13	0.000000e+00	5.175881e-01	3.704989e+14	3.276102e+15	5.398613e+14	1.274813e+04	6.962865e+03	2.550132e+03	0	1.007794e-03
5.000000e+07	2.627167e+13	0.000000e+00	5.175881e-01	3.663455e+14	3.133616e+15	5.368934e+14	1.273596e+04	6.911614e+03	2.531362e+03	0	1.002631e-03
6.000000e+07	2.587492e+13	0.000000e+00	5.175881e-01	3.623041e+14	3.002923e+15	5.339476e+14	1.272392e+04	6.863252e+03	2.513649e+03	0	9.975584e-04
7.000000e+07	2.548914e+13	0.000000e+00	5.175881e-01	3.583728e+14	2.882693e+15	5.310237e+14	1.271201e+04	6.817535e+03	2.496905e+03	0	9.925759e-04
8.000000e+07	2.511410e+13	0.000000e+00	5.175881e-01	3.545493e+14	2.771780e+15	5.281216e+14	1.270023e+04	6.774243e+03	2.481050e+03	0	9.876837e-04
9.000000e+07	2.474951e+13	0.000000e+00	5.175881e-01	3.508307e+14	2.669196e+15	5.252411e+14	1.268857e+04	6.733184e+03	2.466012e+03	0	9.828809e-04
1.000000e+08	2.439507e+13	0.000000e+00	5.175881e-01	3.472138e+14	2.574083e+15	5.223820e+14	1.267704e+04	6.694184e+03	2.451728e+03	0	9.781662e-04
1.100000e+08	2.405043e+13	0.000000e+00	5.175881e-01	3.436954e+14	2.485690e+15	5.195441e+14	1.266563e+04	6.657088e+03	2.438142e+03	0	9.735380e-04
1.200000e+08	2.371525e+13	0.000000e+00	5.175881e-01	3.402719e+14	2.403364e+15	5.167272e+14	1.265433e+04	6.621755e+03	2.425201e+03	0	9.689944e-04
1.300000e+08	2.338920e+13	0.000000e+00	5.175881e-01	3.369401e+14	2.326529e+15	5.139312e+14	1.264314e+04	6.588060e+03	2.412861e+03	0	9.645331e-04
1.400000e+08	2.307194e+13	0.000000e+00	5.175881e-01	3.336964e+14	2.254677e+15	5.111559e+14	1.263206e+04	6.555887e+03	2.401077e+03	0	9.601521e-04
1.500000e+08	2.276312e+13	0.000000e+00	5.175881e-01	3.305375e+14	2.187359e+15	5.084011e+14	1.262109e+04	6.525133e+03	2.389814e+03	0	9.558490e-04
1.600000e+08	2.246242e+13	0.000000e+00	5.175881e-01	3.274602e+14	2.124178e+15	5.056666e+14	1.261023e+04	6.495704e+03	2.379036e+03	0	9.516214e-04
1.700000e+08	2.216953e+13	0.000000e+00	5.175881e-01	3.244612e+14	2.064778e+15	5.029523e+14	1.259946e+04	6.467514e+03	2.368711e+03	0	9.474672e-04
1.800000e+08	2.188413e+13	0.000000e+00	5.175881e-01	3.215375e+14	2.008844e+15	5.002580e+14	1.258879e+04	6.440483e+03	2.358811e+03	0	9.433839e-04
1.900000e+08	2.160594e+13	0.000000e+00	5.175881e-01	3.186861e+14	1.956092e+15	4.975836e+14	1.257822e+04	6.414541e+03	2.349310e+03	0	9.393693e-04
2.000000e+08	2.133466e+13	0.000000e+00	5.175881e-01	3.159043e+14	1.906269e+15	4.949288e+14	1.256774e+04	6.389620e+03	2.340183e+03	0	9.354212e-04
2.100000e+08	2.107002e+13	0.000000e+00	5.175881e-01	3.131892e+14	1.859145e+15	4.922936e+14	1.255736e+04	6.365660e+03	2.331407e+03	0	9.315374e-04
2.200000e+08	2.081177e+13	0.000000e+00	5.175881e-01	3.105382e+14	1.814514e+15	4.896777e+14	1.254706e+04	6.342605e+03	2.322964e+03	0	9.277159e-04
2.300000e+08	2.055965e+13	0.000000e+00	5.175881e-01	3.079489e+14	1.772191e+15	4.870811e+14	1.253685e+04	6.320404e+03	2.314832e+03	0	9.239545e-04
2.400000e+08	2.031343e+13	0.000000e+00	5.175881e-01	3.054189e+14	1.732006e+15	4.845034e+14	1.252672e+04	6.299007e+03	2.306996e+03	0	9.202512e-04
2.500000e+08	2.007288e+13	0.000000e+00	5.175881e-01	3.029459e+14	1.693806e+15	4.819447e+14	1.251668e+04	6.278372e+03	2.299438e+03	0	9.166042e-04
2.600000e+08	1.983778e+13	0.000000e+00	5.175881e-01	3.005278e+14	1.657453e+15	4.794046e+14	1.250672e+04	6.258457e+03	2.292144e+03	0	9.130117e-04
2.700000e+08	1.960792e+13	0.000000e+00	5.175881e-01	2.981625e+14	1.622818e+15	4.768832e+14	1.249683e+04	6.239224e+03	2.285100e+03	0	9.094717e-04
2.800000e+08	1.938312e+13	0.000000e+00	5.175881e-01	2.958479e+14	1.589786e+15	4.743801e+14	1.248703e+04	6.220637e+03	2.278293e+03	0	9.059827e-04
2.900000e+08	1.916318e+13	0.000000e+00	5.175881e-01	2.935823e+14	1.558250e+15	4.718953e+14	1.247730e+04	6.202663e+03	2.271710e+03	0	9.025429e-04
3.000000e+08	1.894793e+13	0.000000e+00	5.175881e-01	2.913639e+14	1.528115e+15	4.694287e+14	1.246765e+04	6.185272e+03	2.265341e+03	0	8.991509e-04
3.100000e+08	1.873718e+13	0.000000e+00	5.175881e-01	2.891909e+14	1.499290e+15	4.669800e+14	1.245806e+04	6.168435e+03	2.259174e+03	0	8.958049e-04
3.200000e+08	1.853079e+13	0.000000e+00	5.175881e-01	2.870617e+14	1.471693e+15	4.645491e+14	1.244855e+04	6.152124e+03	2.253200e+03	0	8.925036e-04
3.300000e+08	1.832860e+13	0.000000e+00	5.175881e-01	2.849748e+14	1.445249e+15	4.621359e+14	1.243911e+04	6.136316e+03	2.247410e+03	0	8.892457e-04
3.400000e+08	1.813045e+13	0.000000e+00	5.175881e-01	2.829287e+14	1.419889e+15	4.597402e+14	1.242974e+04	6.120985e+03	2.241795e+03	0	8.860296e-04
3.500000e+08	1.793622e+13	0.000000e+00	5.175881e-01	2.809219e+14	1.395547e+15	4.573619e+14	1.242044e+04	6.106110e+03	2.236348e+03	0	8.828541e-04
3.600000e+08	1.774575e+13	0.000000e+00	5.175881e-01	2.789532e+14	1.372165e+15	4.550009e+14	1.241120e+04	6.091670e+03	2.231059e+03	0	8.797180e-04
3.700000e+08	1.755893e+13	0.000000e+00	5.175881e-01	2.770213e+14	1.349688e+15	4.526569e+14	1.240202e+04	6.077645e+03	2.225922e+03	0	8.766200e-04
3.800000e+08	1.737564e+13	0.000000e+00	5.175881e-01	2.751249e+14	1.328064e+15	4.503299e+14	1.239291e+04	6.064018e+03	2.220931e+03	0	8.735590e-04
3.900000e+08	1.719575e+13	0.000000e+00	5.175881e-01	2.732628e+14	1.307247e+15	4.480197e+14	1.238387e+04	6.050770e+03	2.216079e+03	0	8.705339e-04
4.000000e+08	1.701916e+13	0.000000e+00	5.175881e-01	2.714340e+14	1.287191e+15	4.457262e+14	1.237488e+04	6.037885e+03	2.211360e+03	0	8.675437e-04
4.100000e+08	1.684575e+13	0.000000e+00	5.175881e-01	2.696374e+14	1.267857e+15	4.434493e+14	1.236595e+04	6.025348e+03	2.206769e+03	0	8.645872e-04
4.200000e+08	1.667543e+13	0.000000e+00	5.175881e-01	2.678719e+14	1.249206e+15	4.411888e+14	1.235708e+04	6.013144e+03	2.202299e+03	0	8.616635e-04
4.300000e+08	1.650810e+13	0.000000e+00	5.175881e-01	2.661366e+14	1.231203e+15	4.389445e+14	1.234827e+04	6.001260e+03	2.197947e+03	0	8.587717e-04
4.400000e+08	1.634367e+13	0.000000e+00	5.175881e-01	2.644305e+14	1.213813e+15	4.367164e+14	1.233952e+04	5.989683e+03	2.193706e+03	0	8.559108e-04
4.500000e+08	1.618204e+13	0.000000e+00	5.175881e-01	2.627527e+14	1.197007e+15	4.345043e+14	1.233082e+04	5.978399e+03	2.189574e+03	0	8.530799e-04
4.600000e+08	1.602313e+13	0.000000e+00	5.175881e-01	2.611025e+14	1.180755e+15	4.323081e+14	1.232218e+04	5.967398e+03	2.185545e+03	0	8.502783e-04
4.700000e+08	1.586685e+13	0.000000e+00	5.175881e-01	2.594789e+14	1.165030e+15	4.301276e+14	1.231359e+04	5.956668e+03	2.181615e+03	0	8.475050e-04
4.800000e+08	1.571314e+13	0.000000e+00	5.175881e-01	2.578811e+14	1.149806e+15	4.279627e+14	1.230506e+04	5.946198e+03	2.177780e+03	0	8.447594e-04
4.900000e+08	1.556191e+13	0.000000e+00	5.175881e-01	2.563085e+14	1.135060e+15	4.258134e+14	1.229657e+04	5.935980e+03	2.174038e+03	0	8.420406e-04
5.000000e+08	1.541310e+13	0.000000e+00	5.175881e-01	2.547603e+14	1.120769e+15	4.236794e+14	1.228814e+04	5.926002e+03	2.170384e+03	0	8.393479e-04
5.100000e+08	1.526663e+13	0.000000e+00	5.175881e-01	2.532357e+14	1.106912e+15	4.215607e+14	1.227976e+04	5.916257e+03	2.166814e+03	0	8.366806e-04
5.200000e+08	1.512243e+13	0.000000e+00	5.175881e-01	2.517342e+14	1.093470e+15	4.194571e+14	1.227143e+04	5.906735e+03	2.163327e+03	0	8.340381e-04
5.300000e+08	1.498045e+13	0.000000e+00	5.175881e-01	2.502551e+14	1.080422e+15	4.173685e+14	1.226315e+04	5.897429e+03	2.159919e+03	0	8.314196e-04
5.400000e+08	1.484062e+13	0.000000e+00	5.175881e-01	2.487978e+14	1.067753e+15	4.152947e+14	1.225492e+04	5.888330e+03	2.156586e+03	0	8.288246e-04
5.500000e+08	1.470288e+13	0.000000e+00	5.175881e-01	2.473616e+14	1.055445e+15	4.132358e+14	1.224674e+04	5.879432e+03	2.153327e+03	0	8.262525e-04
5.600000e+08	1.456717e+13	0.000000e+00	5.175881e-01	2.459461e+14	1.043482e+15	4.111914e+14	1.223860e+04	5.870726e+03	2.150139e+03	0	8.237026e-04
5.700000e+08	1.443345e+13	0.000000e+00	5.175881e-01	2.445506e+14	1.031850e+15	4.091616e+14	1.223051e+04	5.862207e+03	2.147019e+03	0	8.211743e-04
5.800000e+08	1.430165e+13	0.000000e+00	5.175881e-01	2.431747e+14	1.020535e+15	4.071462e+14	1.222247e+04	5.853867e+03	2.143964e+03	0	8.186673e-04
5.900000e+08	1.417174e+13	0.000000e+00	5.175881e-01	2.418178e+14	1.009524e+15	4.051450e+14	1.221447e+04	5.845702e+03	2.140974e+03	0	8.161808e-04
6.000000e+08	1.404365e+13	0.000000e+00	5.175881e-01	2.404795e+14	9.988038e+14	4.031581e+14	1.220651e+04	5.837704e+03	2.138045e+03	0	8.137144e-04
6.100000e+08	1.391735e+13	0.000000e+00	5.175881e-01	2.391592e+14	9.883628e+14	4.011852e+14	1.219860e+04	5.829868e+03	2.135175e+03	0	8.112676e-04
6.200000e+08	1.379278e+13	0.000000e+00	5.175881e-01	2.378565e+14	9.781898e+14	3.992262e+14	1.219073e+04	5.822189e+03	2.132362e+03	0	8.088400e-04
6.300000e+08	1.366991e+13	0.000000e+00	5.175881e-01	2.365711e+14	9.682742e+14	3.972810e+14	1.218291e+04	5.814661e+03	2.129605e+03	0	8.064310e-04
6.400000e+08	1.354869e+13	0.000000e+00	5.175881e-01	2.353023e+14	9.586059e+14	3.953496e+14	1.217513e+04	5.807281e+03	2.126902e+03	0	8.040402e-04
6.500000e+08	1.342908e+13	0.000000e+00	5.175881e-01	2.340500e+14	9.491753e+14	3.934318e+14	1.216739e+04	5.800042e+03	2.124251e+03	0	8.016671e-04
6.600000e+08	1.331104e+13	0.000000e+00	5.175881e-01	2.328136e+14	9.399732e+14	3.915275e+14	1.215969e+04	5.792940e+03	2.121650e+03	0	7.993115e-04
6.700000e+08	1.319454e+13	0.000000e+00	5.175881e-01	2.315928e+14	9.309912e+14	3.896365e+14	1.215203e+04	5.785971e+03	2.119098e+03	0	7.969727e-04
6.800000e+08	1.307954e+13	0.000000e+00	5.175881e-01	2.303873e+14	9.222208e+14	3.877589e+14	1.214441e+04	5.779132e+03	2.116593e+03	0	7.946506e-04
6.900000e+08	1.296601e+13	0.000000e+00	5.175881e-01	2.291966e+14	9.136543e+14	3.858944e+14	1.213683e+04	5.772417e+03	2.114133e+03	0	7.923446e-04
7.000000e+08	1.285390e+13	0.000000e+00	5.175881e-01	2.280204e+14	9.052842e+14	3.840430e+14	1.212929e+04	5.765823e+03	2.111718e+03	0	7.900544e-04
7.100000e+08	1.274319e+13	0.000000e+00	5.175881e-01	2.268585e+14	8.971035e+14	3.822045e+14	1.212179e+04	5.759346e+03	2.109346e+03	0	7.877796e-04
7.200000e+08	1.263385e+13	0.000000e+00	5.175881e-01	2.257104e+14	8.891053e+14	3.803789e+14	1.211433e+04	5.752984e+03	2.107016e+03	0	7.855199e-04
7.300000e+08	1.252584e+13	0.000000e+00	5.175881e-01	2.245759e+14	8.812832e+14	3.785661e+14	1.210690e+04	5.746731e+03	2.104726e+03	0	7.832750e-04
7.400000e+08	1.241914e+13	0.000000e+00	5.175881e-01	2.234547e+14	8.736311e+14	3.767659e+14	1.209951e+04	5.740586e+03	2.102475e+03	0	7.810445e-04
7.500000e+08	1.231371e+13	0.000000e+00	5.175881e-01	2.223465e+14	8.661430e+14	3.749783e+14	1.209216e+04	5.734544e+03	2.100263e+03	0	7.788281e-04
7.600000e+08	1.220953e+13	0.000000e+00	5.175881e-01	2.212510e+14	8.588134e+14	3.732031e+14	1.208484e+04	5.728604e+03	2.098087e+03	0	7.766255e-04
7.700000e+08	1.210658e+13	0.000000e+00	5.175881e-01	2.201679e+14	8.516369e+14	3.714403e+14	1.207757e+04	5.722761e+03	2.095947e+03	0	7.744365e-04
7.800000e+08	1.200482e+13	0.000000e+00	5.175881e-01	2.190970e+14	8.446084e+14	3.696897e+14	1.207032e+04	5.717014e+03	2.093842e+03	0	7.722606e-04
7.900000e+08	1.190423e+13	0.000000e+00	5.175881e-01	2.180380e+14	8.377229e+14	3.679513e+14	1.206311e+04	5.711359e+03	2.091771e+03	0	7.700976e-04
8.000000e+08	1.180479e+13	0.000000e+00	5.175881e-01	2.169907e+14	8.309758e+14	3.662249e+14	1.205594e+04	5.705794e+03	2.089733e+03	0	7.679473e-04
8.100000e+08	1.170647e+13	0.000000e+00	5.175881e-01	2.159549e+14	8.243626e+14	3.645105e+14	1.204880e+04	5.700316e+03	2.087727e+03	0	7.658094e-04
8.200000e+08	1.160925e+13	0.000000e+00	5.175881e-01	2.149302e+14	8.178791e+14	3.628080e+14	1.204170e+04	5.694923e+03	2.085752e+03	0	7.636835e-04
8.300000e+08	1.151311e+13	0.000000e+00	5.175881e-01	2.139166e+14	8.115210e+14	3.611172e+14	1.203462e+04	5.689613e+03	2.083807e+03	0	7.615696e-04
8.400000e+08	1.141803e+13	0.000000e+00	5.175881e-01	2.129137e+14	8.052844e+14	3.594381e+14	1.202759e+04	5.684383e+03	2.081891e+03	0	7.594673e-04
8.500000e+08	1.132398e+13	0.000000e+00	5.175881e-01	2.119214e+14	7.991656e+14	3.577706e+14	1.202058e+04	5.679232e+03	2.080004e+03	0	7.573763e-04
8.600000e+08	1.123095e+13	0.000000e+00	5.175881e-01	2.109394e+14	7.931609e+14	3.561146e+14	1.201361e+04	5.674156e+03	2.078146e+03	0	7.552965e-04
8.700000e+08	1.113891e+13	0.000000e+00	5.175881e-01	2.099676e+14	7.872669e+14	3.544700e+14	1.200667e+04	5.669154e+03	2.076314e+03	0	7.532276e-04
8.800000e+08	1.104785e+13	0.000000e+00	5.175881e-01	2.090057e+14	7.814802e+14	3.528367e+14	1.199976e+04	5.664225e+03	2.074508e+03	0	7.511694e-04
8.900000e+08	1.095774e+13	0.000000e+00	5.175881e-01	2.080537e+14	7.757977e+14	3.512146e+14	1.199288e+04	5.659366e+03	2.072729e+03	0	7.491217e-04
9.000000e+08	1.086858e+13	0.000000e+00	5.175881e-01	2.071112e+14	7.702161e+14	3.496037e+14	1.198604e+04	5.654575e+03	2.070974e+03	0	7.470843e-04
9.100000e+08	1.078034e+13	0.000000e+00	5.175881e-01	2.061781e+14	7.647327e+14	3.480038e+14	1.197922e+04	5.649851e+03	2.069244e+03	0	7.450569e-04
9.200000e+08	1.069300e+13	0.000000e+00	5.175881e-01	2.052543e+14	7.593444e+14	3.464148e+14	1.197244e+04	5.645192e+03	2.067537e+03	0	7.430394e-04
9.300000e+08	1.060655e+13	0.000000e+00	5.175881e-01	2.043396e+14	7.540487e+14	3.448368e+14	1.196569e+04	5.640596e+03	2.065854e+03	0	7.410315e-04
9.400000e+08	1.052097e+13	0.000000e+00	5.175881e-01	2.034337e+14	7.488428e+14	3.432695e+14	1.195896e+04	5.636061e+03	2.064194e+03	0	7.390332e-04
9.500000e+08	1.043625e+13	0.000000e+00	5.175881e-01	2.025366e+14	7.437243e+14	3.417129e+14	1.195227e+04	5.631587e+03	2.062555e+03	0	7.370441e-04
9.600000e+08	1.035237e+13	0.000000e+00	5.175881e-01	2.016482e+14	7.386906e+14	3.401669e+14	1.194560e+04	5.627172e+03	2.060938e+03	0	7.350642e-04
9.700000e+08	1.026932e+13	0.000000e+00	5.175881e-01	2.007681e+14	7.337395e+14	3.386315e+14	1.193897e+04	5.622814e+03	2.059342e+03	0	7.330932e-04
9.800000e+08	1.018707e+13	0.000000e+00	5.175881e-01	1.998964e+14	7.288687e+14	3.371065e+14	1.193236e+04	5.618511e+03	2.057766e+03	0	7.311309e-04
9.900000e+08	1.010563e+13	0.000000e+00	5.175881e-01	1.990329e+14	7.240761e+14	3.355919e+14	1.192579e+04	5.614264e+03	2.056210e+03	0	7.291773e-04
1.000000e+09	1.002497e+13	0.000000e+00	5.175881e-01	1.981773e+14	7.193594e+14	3.340875e+14	1.191924e+04	5.610069e+03	2.054674e+03	0	7.272321e-04
1.010000e+09	9.945080e+12	0.000000e+00	5.175881e-01	1.973297e+14	7.147168e+14	3.325934e+14	1.191272e+04	5.605926e+03	2.053157e+03	0	7.252951e-04
1.020000e+09	9.865948e+12	0.000000e+00	5.175881e-01	1.964898e+14	7.101462e+14	3.311093e+14	1.190622e+04	5.601834e+03	2.051658e+03	0	7.233663e-04
1.030000e+09	9.787561e+12	0.000000e+00	5.175881e-01	1.956575e+14	7.056458e+14	3.296353e+14	1.189976e+04	5.597791e+03	2.050177e+03	0	7.214454e-04
1.040000e+09	9.709907e+12	0.000000e+00	5.175881e-01	1.948328e+14	7.012137e+14	3.281713e+14	1.189332e+04	5.593797e+03	2.048714e+03	0	7.195324e-04
1.050000e+09	9.632973e+12	0.000000e+00	5.175881e-01	1.940154e+14	6.968482e+14	3.267172e+14	1.188691e+04	5.589850e+03	2.047269e+03	0	7.176270e-04
1.060000e+09	9.556748e+12	0.000000e+00	5.175881e-01	1.932053e+14	6.925477e+14	3.252729e+14	1.188052e+04	5.585949e+03	2.045840e+03	0	7.157291e-04
1.070000e+09	9.481220e+12	0.000000e+00	5.175881e-01	1.924023e+14	6.883104e+14	3.238383e+14	1.187417e+04	5.582093e+03	2.044428e+03	0	7.138387e-04
1.080000e+09	9.406378e+12	0.000000e+00	5.175881e-01	1.916064e+14	6.841349e+14	3.224133e+14	1.186783e+04	5.578282e+03	2.043032e+03	0	7.119554e-04
1.090000e+09	9.332212e+12	0.000000e+00	5.175881e-01	1.908174e+14	6.800195e+14	3.209980e+14	1.186153e+04	5.574513e+03	2.041652e+03	0	7.100793e-04
1.100000e+09	9.258710e+12	0.000000e+00	5.175881e-01	1.900352e+14	6.759629e+14	3.195921e+14	1.185525e+04	5.570786e+03	2.040287e+03	0	7.082102e-04
1.110000e+09	9.185862e+12	0.000000e+00	5.175881e-01	1.892597e+14	6.719635e+14	3.181957e+14	1.184900e+04	5.567101e+03	2.038937e+03	0	7.063479e-04
1.120000e+09	9.113658e+12	0.000000e+00	5.175881e-01	1.884909e+14	6.680200e+14	3.168086e+14	1.184277e+04	5.563456e+03	2.037602e+03	0	7.044923e-04
1.130000e+09	9.042088e+12	0.000000e+00	5.175881e-01	1.877285e+14	6.641311e+14	3.154308e+14	1.183657e+04	5.559850e+03	2.036281e+03	0	7.026433e-04
1.140000e+09	8.971143e+12	0.000000e+00	5.175881e-01	1.869726e+14	6.602955e+14	3.140622e+14	1.183039e+04	5.556283e+03	2.034975e+03	0	7.008008e-04
1.150000e+09	8.900813e+12	0.000000e+00	5.175881e-01	1.862230e+14	6.565120e+14	3.127028e+14	1.182424e+04	5.552754e+03	2.033682e+03	0	6.989647e-04
1.160000e+09	8.831088e+12	0.000000e+00	5.175881e-01	1.854796e+14	6.527792e+14	3.113524e+14	1.181811e+04	5.549261e+03	2.032403e+03	0	6.971348e-04
1.170000e+09	8.761961e+12	0.000000e+00	5.175881e-01	1.847423e+14	6.490962e+14	3.100110e+14	1.181200e+04	5.545805e+03	2.031137e+03	0	6.953110e-04
1.180000e+09	8.693421e+12	0.000000e+00	5.175881e-01	1.840110e+14	6.454616e+14	3.086785e+14	1.180592e+04	5.542384e+03	2.029884e+03	0	6.934932e-04
1.190000e+09	8.625460e+12	0.000000e+00	5.175881e-01	1.832858e+14	6.418745e+14	3.073549e+14	1.179987e+04	5.538998e+03	2.028644e+03	0	6.916814e-04
1.200000e+09	8.558070e+12	0.000000e+00	5.175881e-01	1.825664e+14	6.383338e+14	3.060401e+14	1.179384e+04	5.535645e+03	2.027416e+03	0	6.898753e-04
1.210000e+09	8.491243e+12	0.000000e+00	5.175881e-01	1.818527e+14	6.348384e+14	3.047340e+14	1.178783e+04	5.532326e+03	2.026201e+03	0	6.880750e-04
1.220000e+09	8.424971e+12	0.000000e+00	5.175881e-01	1.811448e+14	6.313874e+14	3.034366e+14	1.178184e+04	5.529040e+03	2.024997e+03	0	6.862802e-04
1.230000e+09	8.359245e+12	0.000000e+00	5.175881e-01	1.804425e+14	6.279798e+14	3.021477e+14	1.177588e+04	5.525785e+03	2.023805e+03	0	6.844909e-04
1.240000e+09	8.294059e+12	0.000000e+00	5.175881e-01	1.797458e+14	6.246146e+14	3.008674e+14	1.176995e+04	5.522561e+03	2.022624e+03	0	6.827070e-04
1.250000e+09	8.229403e+12	0.000000e+00	5.175881e-01	1.790545e+14	6.212909e+14	2.995955e+14	1.176403e+04	5.519369e+03	2.021455e+03	0	6.809284e-04
1.260000e+09	8.165272e+12	0.000000e+00	5.175881e-01	1.783686e+14	6.180078e+14	2.983320e+14	1.175814e+04	5.516206e+03	2.020297e+03	0	6.791550e-04
1.270000e+09	8.101658e+12	0.000000e+00	5.175881e-01	1.776880e+14	6.147646e+14	2.970768e+14	1.175227e+04	5.513072e+03	2.019149e+03	0	6.773866e-04
1.280000e+09	8.038553e+12	0.000000e+00	5.175881e-01	1.770127e+14	6.115603e+14	2.958299e+14	1.174642e+04	5.509968e+03	2.018012e+03	0	6.756233e-04
1.290000e+09	7.975952e+12	0.000000e+00	5.175881e-01	1.763426e+14	6.083942e+14	2.945912e+14	1.174059e+04	5.506892e+03	2.016885e+03	0	6.738649e-04
1.300000e+09	7.913846e+12	0.000000e+00	5.175881e-01	1.756775e+14	6.052654e+14	2.933606e+14	1.173479e+04	5.503843e+03	2.015769e+03	0	6.721113e-04
1.310000e+09	7.852230e+12	0.000000e+00	5.175881e-01	1.750176e+14	6.021733e+14	2.921381e+14	1.172901e+04	5.500822e+03	2.014662e+03	0	6.703624e-04
1.320000e+09	7.791097e+12	0.000000e+00	5.175881e-01	1.743626e+14	5.991170e+14	2.909235e+14	1.172325e+04	5.497827e+03	2.013566e+03	0	6.686182e-04
1.330000e+09	7.730440e+12	0.000000e+00	5.175881e-01	1.737125e+14	5.960958e+14	2.897170e+14	1.171751e+04	5.494859e+03	2.012479e+03	0	6.668785e-04
1.340000e+09	7.670254e+12	0.000000e+00	5.175881e-01	1.730672e+14	5.931091e+14	2.885183e+14	1.171180e+04	5.491916e+03	2.011401e+03	0	6.651433e-04
1.350000e+09	7.610531e+12	0.000000e+00	5.175881e-01	1.724268e+14	5.901562e+14	2.873274e+14	1.170610e+04	5.488999e+03	2.010332e+03	0	6.634125e-04
1.360000e+09	7.551267e+12	0.000000e+00	5.175881e-01	1.717910e+14	5.872363e+14	2.861443e+14	1.170042e+04	5.486106e+03	2.009273e+03	0	6.616860e-04
