#t		Qconv[W]	Ri[Rp]		R*[Rp]		Qc[W]		Qm[W]		Qr[W]		Tcmb[K]		Tl[K]		Tup[K]		RiFlag		Bs[T]
0.000000e+00	3.070793e+13	0.000000e+00	5.175878e-01	4.162954e+14	4.076486e+15	5.782458e+14	1.311869e+04	7.365784e+03	2.654993e+03	0	1.052467e-03
1.000000e+07	3.022802e+13	0.000000e+00	5.175878e-01	4.115491e+14	3.874316e+15	5.750418e+14	1.310583e+04	7.302053e+03	2.632021e+03	0	1.046956e-03
2.000000e+07	2.975910e+13	0.000000e+00	5.175878e-01	4.069101e+14	3.690680e+15	5.718619e+14	1.309311e+04	7.242271e+03	2.610473e+03	0	1.041514e-03
3.000000e+07	2.930159e+13	0.000000e+00	5.175878e-01	4.023824e+14	3.523283e+15	5.687057e+14	1.308054e+04	7.186072e+03	2.590216e+03	0	1.036149e-03
4.000000e+07	2.885566e+13	0.000000e+00	5.175878e-01	3.979677e+14	3.370180e+15	5.655731e+14	1.306811e+04	7.133133e+03	2.571134e+03	0	1.030866e-03
5.000000e+07	2.842133e+13	0.000000e+00	5.175878e-01	3.936661e+14	3.229711e+15	5.624639e+14	1.305581e+04	7.083167e+03	2.553124e+03	0	1.025668e-03
6.000000e+07	2.799849e+13	0.000000e+00	5.175878e-01	3.894767e+14	3.100457e+15	5.593778e+14	1.304364e+04	7.035925e+03	2.536095e+03	0	1.020556e-03
7.000000e+07	2.758697e+13	0.000000e+00	5.175878e-01	3.853975e+14	2.981195e+15	5.563147e+14	1.303161e+04	6.991183e+03	2.519968e+03	0	1.015531e-03
8.000000e+07	2.718651e+13	0.000000e+00	5.175878e-01	3.814261e+14	2.870867e+15	5.532744e+14	1.301970e+04	6.948740e+03	2.504670e+03	0	1.010593e-03
9.000000e+07	2.679682e+13	0.000000e+00	5.175878e-01	3.775597e+14	2.768555e+15	5.502567e+14	1.300791e+04	6.908420e+03	2.490136e+03	0	1.005741e-03
1.000000e+08	2.641758e+13	0.000000e+00	5.175878e-01	3.737953e+14	2.673456e+15	5.472614e+14	1.299624e+04	6.870063e+03	2.476310e+03	0	1.000974e-03
1.100000e+08	2.604847e+13	0.000000e+00	5.175878e-01	3.701296e+14	2.584871e+15	5.442883e+14	1.298469e+04	6.833523e+03	2.463139e+03	0	9.962904e-04
1.200000e+08	2.568915e+13	0.000000e+00	5.175878e-01	3.665593e+14	2.502181e+15	5.413373e+14	1.297325e+04	6.798672e+03	2.450577e+03	0	9.916881e-04
1.300000e+08	2.533926e+13	0.000000e+00	5.175878e-01	3.630810e+14	2.424845e+15	5.384081e+14	1.296192e+04	6.765391e+03	2.438581e+03	0	9.871652e-04
1.400000e+08	2.499848e+13	0.000000e+00	5.175878e-01	3.596915e+14	2.352380e+15	5.355006e+14	1.295070e+04	6.733575e+03	2.427113e+03	0	9.827198e-04
1.500000e+08	2.466645e+13	0.000000e+00	5.175878e-01	3.563874e+14	2.284360e+15	5.326146e+14	1.293959e+04	6.703125e+03	2.416138e+03	0	9.783497e-04
1.600000e+08	2.434287e+13	0.000000e+00	5.175878e-01	3.531657e+14	2.220405e+15	5.297499e+14	1.292857e+04	6.673953e+03	2.405623e+03	0	9.740527e-04
1.700000e+08	2.402740e+13	0.000000e+00	5.175878e-01	3.500232e+14	2.160175e+15	5.269063e+14	1.291765e+04	6.645979e+03	2.395539e+03	0	9.698267e-04
1.800000e+08	2.371974e+13	0.000000e+00	5.175878e-01	3.469568e+14	2.103366e+15	5.240837e+14	1.290684e+04	6.619127e+03	2.385861e+03	0	9.656695e-04
1.900000e+08	2.341959e+13	0.000000e+00	5.175878e-01	3.439638e+14	2.049707e+15	5.212819e+14	1.289611e+04	6.593330e+03	2.376562e+03	0	9.615790e-04
2.000000e+08	2.312667e+13	0.000000e+00	5.175878e-01	3.410412e+14	1.998950e+15	5.185007e+14	1.288548e+04	6.568526e+03	2.367621e+03	0	9.575531e-04
2.100000e+08	2.284069e+13	0.000000e+00	5.175878e-01	3.381865e+14	1.950877e+15	5.157400e+14	1.287494e+04	6.544656e+03	2.359017e+03	0	9.535898e-04
2.200000e+08	2.256139e+13	0.000000e+00	5.175878e-01	3.353971e+14	1.905285e+15	5.129995e+14	1.286448e+04	6.521667e+03	2.350731e+03	0	9.496870e-04
2.300000e+08	2.228853e+13	0.000000e+00	5.175878e-01	3.326705e+14	1.861994e+15	5.102792e+14	1.285412e+04	6.499509e+03	2.342744e+03	0	9.458429e-04
2.400000e+08	2.202186e+13	0.000000e+00	5.175878e-01	3.300044e+14	1.820839e+15	5.075788e+14	1.284383e+04	6.478138e+03	2.335041e+03	0	9.420556e-04
2.500000e+08	2.176115e+13	0.000000e+00	5.175878e-01	3.273965e+14	1.781671e+15	5.048981e+14	1.283363e+04	6.457511e+03	2.327606e+03	0	9.383232e-04
2.600000e+08	2.150617e+13	0.000000e+00	5.175878e-01	3.248447e+14	1.744353e+15	5.022371e+14	1.282351e+04	6.437588e+03	2.320425e+03	0	9.346440e-04
2.700000e+08	2.125673e+13	0.000000e+00	5.175878e-01	3.223469e+14	1.708760e+15	4.995956e+14	1.281347e+04	6.418334e+03	2.313485e+03	0	9.310164e-04
2.800000e+08	2.101261e+13	0.000000e+00	5.175878e-01	3.199012e+14	1.674779e+15	4.969733e+14	1.280350e+04	6.399713e+03	2.306773e+03	0	9.274386e-04
2.900000e+08	2.077362e+13	0.000000e+00	5.175878e-01	3.175057e+14	1.642305e+15	4.943702e+14	1.279361e+04	6.381694e+03	2.300278e+03	0	9.239091e-04
3.000000e+08	2.053958e+13	0.000000e+00	5.175878e-01	3.151586e+14	1.611241e+15	4.917861e+14	1.278380e+04	6.364248e+03	2.293989e+03	0	9.204264e-04
3.100000e+08	2.031032e+13	0.000000e+00	5.175878e-01	3.128582e+14	1.581501e+15	4.892207e+14	1.277405e+04	6.347346e+03	2.287897e+03	0	9.169890e-04
3.200000e+08	2.008567e+13	0.000000e+00	5.175878e-01	3.106030e+14	1.553002e+15	4.866741e+14	1.276438e+04	6.330963e+03	2.281992e+03	0	9.135955e-04
3.300000e+08	1.986546e+13	0.000000e+00	5.175878e-01	3.083912e+14	1.525670e+15	4.841459e+14	1.275478e+04	6.315074e+03	2.276265e+03	0	9.102445e-04
3.400000e+08	1.964955e+13	0.000000e+00	5.175878e-01	3.062216e+14	1.499436e+15	4.816362e+14	1.274525e+04	6.299656e+03	2.270707e+03	0	9.069348e-04
3.500000e+08	1.943780e+13	0.000000e+00	5.175878e-01	3.040925e+14	1.474235e+15	4.791446e+14	1.273578e+04	6.284688e+03	2.265312e+03	0	9.036651e-04
3.600000e+08	1.923005e+13	0.000000e+00	5.175878e-01	3.020028e+14	1.450009e+15	4.766711e+14	1.272638e+04	6.270150e+03	2.260072e+03	0	9.004342e-04
3.700000e+08	1.902619e+13	0.000000e+00	5.175878e-01	2.999511e+14	1.426702e+15	4.742155e+14	1.271704e+04	6.256023e+03	2.254980e+03	0	8.972410e-04
3.800000e+08	1.882607e+13	0.000000e+00	5.175878e-01	2.979361e+14	1.404264e+15	4.717777e+14	1.270777e+04	6.242288e+03	2.250029e+03	0	8.940842e-04
3.900000e+08	1.862959e+13	0.000000e+00	5.175878e-01	2.959568e+14	1.382647e+15	4.693575e+14	1.269855e+04	6.228929e+03	2.245214e+03	0	8.909629e-04
4.000000e+08	1.843662e+13	0.000000e+00	5.175878e-01	2.940119e+14	1.361808e+15	4.669547e+14	1.268940e+04	6.215930e+03	2.240528e+03	0	8.878759e-04
4.100000e+08	1.824705e+13	0.000000e+00	5.175878e-01	2.921003e+14	1.341704e+15	4.645694e+14	1.268031e+04	6.203275e+03	2.235967e+03	0	8.848224e-04
4.200000e+08	1.806079e+13	0.000000e+00	5.175878e-01	2.902211e+14	1.322298e+15	4.622012e+14	1.267128e+04	6.190952e+03	2.231525e+03	0	8.818013e-04
4.300000e+08	1.787772e+13	0.000000e+00	5.175878e-01	2.883733e+14	1.303555e+15	4.598500e+14	1.266231e+04	6.178945e+03	2.227197e+03	0	8.788118e-04
4.400000e+08	1.769774e+13	0.000000e+00	5.175878e-01	2.865559e+14	1.285439e+15	4.575158e+14	1.265339e+04	6.167243e+03	2.222979e+03	0	8.758528e-04
4.500000e+08	1.752077e+13	0.000000e+00	5.175878e-01	2.847679e+14	1.267921e+15	4.551983e+14	1.264453e+04	6.155833e+03	2.218866e+03	0	8.729236e-04
4.600000e+08	1.734672e+13	0.000000e+00	5.175878e-01	2.830086e+14	1.250972e+15	4.528975e+14	1.263573e+04	6.144704e+03	2.214855e+03	0	8.700234e-04
4.700000e+08	1.717549e+13	0.000000e+00	5.175878e-01	2.812770e+14	1.234562e+15	4.506132e+14	1.262697e+04	6.133844e+03	2.210941e+03	0	8.671513e-04
4.800000e+08	1.700701e+13	0.000000e+00	5.175878e-01	2.795725e+14	1.218668e+15	4.483452e+14	1.261828e+04	6.123245e+03	2.207120e+03	0	8.643067e-04
4.900000e+08	1.684120e+13	0.000000e+00	5.175878e-01	2.778941e+14	1.203264e+15	4.460935e+14	1.260963e+04	6.112894e+03	2.203389e+03	0	8.614886e-04
5.000000e+08	1.667798e+13	0.000000e+00	5.175878e-01	2.762412e+14	1.188328e+15	4.438579e+14	1.260104e+04	6.102785e+03	2.199745e+03	0	8.586965e-04
5.100000e+08	1.651728e+13	0.000000e+00	5.175878e-01	2.746131e+14	1.173839e+15	4.416383e+14	1.259250e+04	6.092907e+03	2.196185e+03	0	8.559296e-04
5.200000e+08	1.635903e+13	0.000000e+00	5.175878e-01	2.730091e+14	1.159776e+15	4.394345e+14	1.258400e+04	6.083252e+03	2.192705e+03	0	8.531873e-04
5.300000e+08	1.620316e+13	0.000000e+00	5.175878e-01	2.714285e+14	1.146120e+15	4.372464e+14	1.257556e+04	6.073812e+03	2.189302e+03	0	8.504689e-04
5.400000e+08	1.604961e+13	0.000000e+00	5.175878e-01	2.698706e+14	1.132855e+15	4.350739e+14	1.256717e+04	6.064579e+03	2.185974e+03	0	8.477738e-04
5.500000e+08	1.589831e+13	0.000000e+00	5.175878e-01	2.683350e+14	1.119961e+15	4.329168e+14	1.255882e+04	6.055546e+03	2.182718e+03	0	8.451014e-04
5.600000e+08	1.574920e+13	0.000000e+00	5.175878e-01	2.668210e+14	1.107425e+15	4.307751e+14	1.255053e+04	6.046707e+03	2.179532e+03	0	8.424511e-04
5.700000e+08	1.560224e+13	0.000000e+00	5.175878e-01	2.653280e+14	1.095230e+15	4.286486e+14	1.254227e+04	6.038053e+03	2.176413e+03	0	8.398225e-04
5.800000e+08	1.545735e+13	0.000000e+00	5.175878e-01	2.638555e+14	1.083362e+15	4.265372e+14	1.253407e+04	6.029580e+03	2.173359e+03	0	8.372148e-04
5.900000e+08	1.531450e+13	0.000000e+00	5.175878e-01	2.624029e+14	1.071809e+15	4.244408e+14	1.252591e+04	6.021280e+03	2.170367e+03	0	8.346277e-04
6.000000e+08	1.517362e+13	0.000000e+00	5.175878e-01	2.609699e+14	1.060557e+15	4.223592e+14	1.251780e+04	6.013149e+03	2.167436e+03	0	8.320605e-04
6.100000e+08	1.503467e+13	0.000000e+00	5.175878e-01	2.595559e+14	1.049593e+15	4.202923e+14	1.250972e+04	6.005180e+03	2.164564e+03	0	8.295129e-04
6.200000e+08	1.489760e+13	0.000000e+00	5.175878e-01	2.581604e+14	1.038908e+15	4.182400e+14	1.250170e+04	5.997368e+03	2.161748e+03	0	8.269843e-04
6.300000e+08	1.476236e+13	0.000000e+00	5.175878e-01	2.567829e+14	1.028489e+15	4.162022e+14	1.249371e+04	5.989708e+03	2.158987e+03	0	8.244742e-04
6.400000e+08	1.462891e+13	0.000000e+00	5.175878e-01	2.554231e+14	1.018327e+15	4.141788e+14	1.248577e+04	5.982195e+03	2.156279e+03	0	8.219823e-04
6.500000e+08	1.449720e+13	0.000000e+00	5.175878e-01	2.540806e+14	1.008411e+15	4.121697e+14	1.247787e+04	5.974825e+03	2.153622e+03	0	8.195081e-04
6.600000e+08	1.436720e+13	0.000000e+00	5.175878e-01	2.527548e+14	9.987323e+14	4.101747e+14	1.247002e+04	5.967592e+03	2.151015e+03	0	8.170512e-04
6.700000e+08	1.423887e+13	0.000000e+00	5.175878e-01	2.514455e+14	9.892821e+14	4.081937e+14	1.246220e+04	5.960494e+03	2.148456e+03	0	8.146112e-04
6.800000e+08	1.411216e+13	0.000000e+00	5.175878e-01	2.501522e+14	9.800519e+14	4.062266e+14	1.245442e+04	5.953524e+03	2.145944e+03	0	8.121876e-04
6.900000e+08	1.398704e+13	0.000000e+00	5.175878e-01	2.488746e+14	9.710336e+14	4.042733e+14	1.244669e+04	5.946680e+03	2.143477e+03	0	8.097802e-04
7.000000e+08	1.386347e+13	0.000000e+00	5.175878e-01	2.476124e+14	9.622196e+14	4.023337e+14	1.243899e+04	5.939958e+03	2.141054e+03	0	8.073885e-04
7.100000e+08	1.374142e+13	0.000000e+00	5.175878e-01	2.463651e+14	9.536025e+14	4.004077e+14	1.243133e+04	5.933354e+03	2.138674e+03	0	8.050121e-04
7.200000e+08	1.362086e+13	0.000000e+00	5.175878e-01	2.451325e+14	9.451755e+14	3.984951e+14	1.242371e+04	5.926864e+03	2.136335e+03	0	8.026509e-04
7.300000e+08	1.350174e+13	0.000000e+00	5.175878e-01	2.439143e+14	9.369318e+14	3.965960e+14	1.241613e+04	5.920485e+03	2.134036e+03	0	8.003042e-04
7.400000e+08	1.338405e+13	0.000000e+00	5.175878e-01	2.427101e+14	9.288651e+14	3.947100e+14	1.240859e+04	5.914214e+03	2.131775e+03	0	7.979720e-04
7.500000e+08	1.326774e+13	0.000000e+00	5.175878e-01	2.415196e+14	9.209694e+14	3.928373e+14	1.240108e+04	5.908048e+03	2.129553e+03	0	7.956538e-04
7.600000e+08	1.315279e+13	0.000000e+00	5.175878e-01	2.403425e+14	9.132389e+14	3.909775e+14	1.239361e+04	5.901984e+03	2.127367e+03	0	7.933494e-04
7.700000e+08	1.303917e+13	0.000000e+00	5.175878e-01	2.391787e+14	9.056680e+14	3.891308e+14	1.238618e+04	5.896018e+03	2.125216e+03	0	7.910584e-04
7.800000e+08	1.292686e+13	0.000000e+00	5.175878e-01	2.380277e+14	8.982516e+14	3.872968e+14	1.237878e+04	5.890148e+03	2.123101e+03	0	7.887805e-04
7.900000e+08	1.281582e+13	0.000000e+00	5.175878e-01	2.368893e+14	8.909844e+14	3.854756e+14	1.237142e+04	5.884372e+03	2.121018e+03	0	7.865155e-04
8.000000e+08	1.270603e+13	0.000000e+00	5.175878e-01	2.357633e+14	8.838618e+14	3.836670e+14	1.236409e+04	5.878686e+03	2.118969e+03	0	7.842631e-04
8.100000e+08	1.259746e+13	0.000000e+00	5.175878e-01	2.346495e+14	8.768790e+14	3.818710e+14	1.235680e+04	5.873088e+03	2.116951e+03	0	7.820230e-04
8.200000e+08	1.249009e+13	0.000000e+00	5.175878e-01	2.335475e+14	8.700316e+14	3.800873e+14	1.234954e+04	5.867576e+03	2.114964e+03	0	7.797949e-04
8.300000e+08	1.238390e+13	0.000000e+00	5.175878e-01	2.324572e+14	8.633154e+14	3.783160e+14	1.234232e+04	5.862148e+03	2.113008e+03	0	7.775787e-04
8.400000e+08	1.227886e+13	0.000000e+00	5.175878e-01	2.313783e+14	8.567263e+14	3.765570e+14	1.233513e+04	5.856800e+03	2.111080e+03	0	7.753740e-04
8.500000e+08	1.217495e+13	0.000000e+00	5.175878e-01	2.303106e+14	8.502603e+14	3.748101e+14	1.232797e+04	5.851532e+03	2.109181e+03	0	7.731806e-04
8.600000e+08	1.207215e+13	0.000000e+00	5.175878e-01	2.292539e+14	8.439138e+14	3.730752e+14	1.232085e+04	5.846340e+03	2.107310e+03	0	7.709983e-04
8.700000e+08	1.197044e+13	0.000000e+00	5.175878e-01	2.282079e+14	8.376831e+14	3.713523e+14	1.231376e+04	5.841224e+03	2.105466e+03	0	7.688268e-04
8.800000e+08	1.186979e+13	0.000000e+00	5.175878e-01	2.271726e+14	8.315647e+14	3.696412e+14	1.230670e+04	5.836180e+03	2.103648e+03	0	7.666660e-04
8.900000e+08	1.177019e+13	0.000000e+00	5.175878e-01	2.261476e+14	8.255554e+14	3.679418e+14	1.229967e+04	5.831207e+03	2.101855e+03	0	7.645155e-04
9.000000e+08	1.167161e+13	0.000000e+00	5.175878e-01	2.251328e+14	8.196519e+14	3.662542e+14	1.229267e+04	5.826304e+03	2.100088e+03	0	7.623753e-04
9.100000e+08	1.157405e+13	0.000000e+00	5.175878e-01	2.241281e+14	8.138512e+14	3.645781e+14	1.228571e+04	5.821468e+03	2.098345e+03	0	7.602450e-04
9.200000e+08	1.147747e+13	0.000000e+00	5.175878e-01	2.231331e+14	8.081503e+14	3.629135e+14	1.227878e+04	5.816698e+03	2.096625e+03	0	7.581245e-04
9.300000e+08	1.138186e+13	0.000000e+00	5.175878e-01	2.221478e+14	8.025464e+14	3.612602e+14	1.227188e+04	5.811992e+03	2.094929e+03	0	7.560136e-04
9.400000e+08	1.128721e+13	0.000000e+00	5.175878e-01	2.211720e+14	7.970367e+14	3.596183e+14	1.226500e+04	5.807348e+03	2.093255e+03	0	7.539121e-04
9.500000e+08	1.119350e+13	0.000000e+00	5.175878e-01	2.202055e+14	7.916187e+14	3.579876e+14	1.225816e+04	5.802765e+03	2.091603e+03	0	7.518198e-04
9.600000e+08	1.110070e+13	0.000000e+00	5.175878e-01	2.192482e+14	7.862898e+14	3.563680e+14	1.225135e+04	5.798242e+03	2.089973e+03	0	7.497365e-04
9.700000e+08	1.100881e+13	0.000000e+00	5.175878e-01	2.182998e+14	7.810475e+14	3.547594e+14	1.224457e+04	5.793777e+03	2.088364e+03	0	7.476621e-04
9.800000e+08	1.091781e+13	0.000000e+00	5.175878e-01	2.173603e+14	7.758896e+14	3.531618e+14	1.223782e+04	5.789368e+03	2.086775e+03	0	7.455963e-04
9.900000e+08	1.082769e+13	0.000000e+00	5.175878e-01	2.164295e+14	7.708137e+14	3.515750e+14	1.223109e+04	5.785015e+03	2.085205e+03	0	7.435390e-04
1.000000e+09	1.073842e+13	0.000000e+00	5.175878e-01	2.155073e+14	7.658177e+14	3.499990e+14	1.222440e+04	5.780716e+03	2.083656e+03	0	7.414900e-04
1.010000e+09	1.065000e+13	0.000000e+00	5.175878e-01	2.145934e+14	7.608994e+14	3.484337e+14	1.221773e+04	5.776469e+03	2.082125e+03	0	7.394492e-04
1.020000e+09	1.056240e+13	0.000000e+00	5.175878e-01	2.136878e+14	7.560569e+14	3.468790e+14	1.221109e+04	5.772274e+03	2.080613e+03	0	7.374163e-04
1.030000e+09	1.047563e+13	0.000000e+00	5.175878e-01	2.127904e+14	7.512881e+14	3.453348e+14	1.220448e+04	5.768129e+03	2.079119e+03	0	7.353914e-04
1.040000e+09	1.038965e+13	0.000000e+00	5.175878e-01	2.119009e+14	7.465912e+14	3.438011e+14	1.219790e+04	5.764033e+03	2.077642e+03	0	7.333741e-04
1.050000e+09	1.030447e+13	0.000000e+00	5.175878e-01	2.110194e+14	7.419644e+14	3.422777e+14	1.219135e+04	5.759985e+03	2.076183e+03	0	7.313643e-04
1.060000e+09	1.022007e+13	0.000000e+00	5.175878e-01	2.101455e+14	7.374059e+14	3.407646e+14	1.218482e+04	5.755984e+03	2.074741e+03	0	7.293620e-04
1.070000e+09	1.013643e+13	0.000000e+00	5.175878e-01	2.092793e+14	7.329139e+14	3.392616e+14	1.217832e+04	5.752029e+03	2.073315e+03	0	7.273669e-04
1.080000e+09	1.005354e+13	0.000000e+00	5.175878e-01	2.084206e+14	7.284869e+14	3.377688e+14	1.217184e+04	5.748118e+03	2.071906e+03	0	7.253789e-04
1.090000e+09	9.971398e+12	0.000000e+00	5.175878e-01	2.075693e+14	7.241233e+14	3.362861e+14	1.216540e+04	5.744252e+03	2.070512e+03	0	7.233978e-04
1.100000e+09	9.889982e+12	0.000000e+00	5.175878e-01	2.067253e+14	7.198215e+14	3.348132e+14	1.215898e+04	5.740428e+03	2.069134e+03	0	7.214236e-04
1.110000e+09	9.809285e+12	0.000000e+00	5.175878e-01	2.058885e+14	7.155800e+14	3.333503e+14	1.215258e+04	5.736646e+03	2.067771e+03	0	7.194561e-04
1.120000e+09	9.729296e+12	0.000000e+00	5.175878e-01	2.050587e+14	7.113975e+14	3.318972e+14	1.214621e+04	5.732905e+03	2.066422e+03	0	7.174952e-04
1.130000e+09	9.650003e+12	0.000000e+00	5.175878e-01	2.042358e+14	7.072724e+14	3.304537e+14	1.213987e+04	5.729204e+03	2.065088e+03	0	7.155407e-04
1.140000e+09	9.571396e+12	0.000000e+00	5.175878e-01	2.034198e+14	7.032035e+14	3.290200e+14	1.213355e+04	5.725543e+03	2.063769e+03	0	7.135925e-04
1.150000e+09	9.493465e+12	0.000000e+00	5.175878e-01	2.026106e+14	6.991894e+14	3.275958e+14	1.212726e+04	5.721919e+03	2.062463e+03	0	7.116505e-04
1.160000e+09	9.416199e+12	0.000000e+00	5.175878e-01	2.018080e+14	6.952290e+14	3.261811e+14	1.212099e+04	5.718334e+03	2.061170e+03	0	7.097146e-04
1.170000e+09	9.339590e+12	0.000000e+00	5.175878e-01	2.010120e+14	6.913209e+14	3.247758e+14	1.211475e+04	5.714785e+03	2.059891e+03	0	7.077846e-04
1.180000e+09	9.263627e+12	0.000000e+00	5.175878e-01	2.002224e+14	6.874640e+14	3.233799e+14	1.210853e+04	5.711272e+03	2.058625e+03	0	7.058605e-04
1.190000e+09	9.188302e+12	0.000000e+00	5.175878e-01	1.994392e+14	6.836571e+14	3.219933e+14	1.210233e+04	5.707795e+03	2.057371e+03	0	7.039421e-04
1.200000e+09	9.113604e+12	0.000000e+00	5.175878e-01	1.986622e+14	6.798992e+14	3.206158e+14	1.209616e+04	5.704352e+03	2.056130e+03	0	7.020293e-04
1.210000e+09	9.039525e+12	0.000000e+00	5.175878e-01	1.978915e+14	6.761891e+14	3.192475e+14	1.209002e+04	5.700943e+03	2.054902e+03	0	7.001220e-04
1.220000e+09	8.966056e+12	0.000000e+00	5.175878e-01	1.971269e+14	6.725258e+14	3.178883e+14	1.208390e+04	5.697567e+03	2.053685e+03	0	6.982201e-04
1.230000e+09	8.893189e+12	0.000000e+00	5.175878e-01	1.963682e+14	6.689083e+14	3.165381e+14	1.207780e+04	5.694224e+03	2.052480e+03	0	6.963235e-04
1.240000e+09	8.820915e+12	0.000000e+00	5.175878e-01	1.956155e+14	6.653356e+14	3.151967e+14	1.207172e+04	5.690912e+03	2.051286e+03	0	6.944320e-04
1.250000e+09	8.749226e+12	0.000000e+00	5.175878e-01	1.948687e+14	6.618068e+14	3.138643e+14	1.206567e+04	5.687632e+03	2.050104e+03	0	6.925456e-04
1.260000e+09	8.678114e+12	0.000000e+00	5.175878e-01	1.941277e+14	6.583209e+14	3.125406e+14	1.205964e+04	5.684382e+03	2.048932e+03	0	6.906642e-04
1.270000e+09	8.607571e+12	0.000000e+00	5.175878e-01	1.933923e+14	6.548771e+14	3.112256e+14	1.205364e+04	5.681163e+03	2.047772e+03	0	6.887877e-04
1.280000e+09	8.537590e+12	0.000000e+00	5.175878e-01	1.926626e+14	6.514744e+14	3.099193e+14	1.204765e+04	5.677973e+03	2.046622e+03	0	6.869160e-04
1.290000e+09	8.468162e+12	0.000000e+00	5.175878e-01	1.919384e+14	6.481120e+14	3.086216e+14	1.204169e+04	5.674811e+03	2.045483e+03	0	6.850489e-04
1.300000e+09	8.399281e+12	0.000000e+00	5.175878e-01	1.912197e+14	6.447891e+14	3.073324e+14	1.203575e+04	5.671679e+03	2.044353e+03	0	6.831864e-04
1.310000e+09	8.330938e+12	0.000000e+00	5.175878e-01	1.905063e+14	6.415048e+14	3.060517e+14	1.202984e+04	5.668573e+03	2.043234e+03	0	6.813284e-04
1.320000e+09	8.263128e+12	0.000000e+00	5.175878e-01	1.897984e+14	6.382585e+14	3.047793e+14	1.202394e+04	5.665496e+03	2.042125e+03	0	6.794748e-04
1.330000e+09	8.195843e+12	0.000000e+00	5.175878e-01	1.890957e+14	6.350494e+14	3.035152e+14	1.201807e+04	5.662444e+03	2.041025e+03	0	6.776255e-04
1.340000e+09	8.129077e+12	0.000000e+00	5.175878e-01	1.883981e+14	6.318767e+14	3.022595e+14	1.201222e+04	5.659420e+03	2.039935e+03	0	6.757804e-04
1.350000e+09	8.062822e+12	0.000000e+00	5.175878e-01	1.877058e+14	6.287397e+14	3.010119e+14	1.200639e+04	5.656421e+03	2.038854e+03	0	6.739394e-04
1.360000e+09	7.997072e+12	0.000000e+00	5.175878e-01	1.870185e+14	6.256377e+14	2.997724e+14	1.200059e+04	5.653447e+03	2.037782e+03	0	6.721025e-04
