#t		Qconv[W]	Ri[Rp]		R*[Rp]		Qc[W]		Qm[W]		Qr[W]		Tcmb[K]		Tl[K]		Tup[K]		RiFlag		Bs[T]
0.000000e+00	4.775055e+13	0.000000e+00	5.125629e-01	6.673285e+14	4.136066e+15	7.464398e+14	1.602496e+04	8.824136e+03	2.785374e+03	0	1.218528e-03
1.000000e+07	4.709238e+13	0.000000e+00	5.125629e-01	6.614645e+14	4.002055e+15	7.423040e+14	1.601026e+04	8.777953e+03	2.770796e+03	0	1.212904e-03
2.000000e+07	4.644772e+13	0.000000e+00	5.125629e-01	6.557181e+14	3.876721e+15	7.381991e+14	1.599570e+04	8.733850e+03	2.756875e+03	0	1.207344e-03
3.000000e+07	4.581641e+13	0.000000e+00	5.125629e-01	6.500878e+14	3.759286e+15	7.341249e+14	1.598126e+04	8.691686e+03	2.743566e+03	0	1.201849e-03
4.000000e+07	4.519824e+13	0.000000e+00	5.125629e-01	6.445718e+14	3.649060e+15	7.300811e+14	1.596694e+04	8.651330e+03	2.730827e+03	0	1.196419e-03
5.000000e+07	4.459294e+13	0.000000e+00	5.125629e-01	6.391678e+14	3.545427e+15	7.260674e+14	1.595275e+04	8.612667e+03	2.718623e+03	0	1.191054e-03
6.000000e+07	4.400025e+13	0.000000e+00	5.125629e-01	6.338736e+14	3.447837e+15	7.220837e+14	1.593867e+04	8.575589e+03	2.706919e+03	0	1.185754e-03
7.000000e+07	4.341987e+13	0.000000e+00	5.125629e-01	6.286864e+14	3.355799e+15	7.181297e+14	1.592471e+04	8.539997e+03	2.695684e+03	0	1.180517e-03
8.000000e+07	4.285149e+13	0.000000e+00	5.125629e-01	6.236037e+14	3.268870e+15	7.142050e+14	1.591086e+04	8.505801e+03	2.684890e+03	0	1.175344e-03
9.000000e+07	4.229480e+13	0.000000e+00	5.125629e-01	6.186228e+14	3.186652e+15	7.103096e+14	1.589713e+04	8.472919e+03	2.674511e+03	0	1.170232e-03
1.000000e+08	4.174949e+13	0.000000e+00	5.125629e-01	6.137408e+14	3.108787e+15	7.064430e+14	1.588350e+04	8.441274e+03	2.664522e+03	0	1.165181e-03
1.100000e+08	4.121523e+13	0.000000e+00	5.125629e-01	6.089551e+14	3.034950e+15	7.026052e+14	1.586999e+04	8.410795e+03	2.654901e+03	0	1.160189e-03
1.200000e+08	4.069171e+13	0.000000e+00	5.125629e-01	6.042629e+14	2.964847e+15	6.987958e+14	1.585657e+04	8.381417e+03	2.645628e+03	0	1.155256e-03
1.300000e+08	4.017862e+13	0.000000e+00	5.125629e-01	5.996615e+14	2.898210e+15	6.950146e+14	1.584327e+04	8.353080e+03	2.636683e+03	0	1.150380e-03
1.400000e+08	3.967566e+13	0.000000e+00	5.125629e-01	5.951483e+14	2.834798e+15	6.912614e+14	1.583006e+04	8.325727e+03	2.628049e+03	0	1.145559e-03
1.500000e+08	3.918251e+13	0.000000e+00	5.125629e-01	5.907207e+14	2.774387e+15	6.875359e+14	1.581695e+04	8.299307e+03	2.619710e+03	0	1.140793e-03
1.600000e+08	3.869890e+13	0.000000e+00	5.125629e-01	5.863761e+14	2.716777e+15	6.838379e+14	1.580394e+04	8.273771e+03	2.611649e+03	0	1.136080e-03
1.700000e+08	3.822453e+13	0.000000e+00	5.125629e-01	5.821121e+14	2.661782e+15	6.801673e+14	1.579102e+04	8.249074e+03	2.603853e+03	0	1.131419e-03
1.800000e+08	3.775913e+13	0.000000e+00	5.125629e-01	5.779263e+14	2.609232e+15	6.765237e+14	1.577820e+04	8.225173e+03	2.596309e+03	0	1.126809e-03
1.900000e+08	3.730243e+13	0.000000e+00	5.125629e-01	5.738163e+14	2.558971e+15	6.729069e+14	1.576547e+04	8.202030e+03	2.589004e+03	0	1.122247e-03
2.000000e+08	3.685417e+13	0.000000e+00	5.125629e-01	5.697799e+14	2.510858e+15	6.693168e+14	1.575283e+04	8.179608e+03	2.581926e+03	0	1.117734e-03
2.100000e+08	3.641409e+13	0.000000e+00	5.125629e-01	5.658150e+14	2.464758e+15	6.657530e+14	1.574028e+04	8.157873e+03	2.575065e+03	0	1.113267e-03
2.200000e+08	3.598196e+13	0.000000e+00	5.125629e-01	5.619193e+14	2.420552e+15	6.622154e+14	1.572781e+04	8.136791e+03	2.568411e+03	0	1.108846e-03
2.300000e+08	3.555754e+13	0.000000e+00	5.125629e-01	5.580910e+14	2.378127e+15	6.587038e+14	1.571544e+04	8.116333e+03	2.561953e+03	0	1.104469e-03
2.400000e+08	3.514060e+13	0.000000e+00	5.125629e-01	5.543279e+14	2.337379e+15	6.552179e+14	1.570314e+04	8.096471e+03	2.555684e+03	0	1.100135e-03
2.500000e+08	3.473092e+13	0.000000e+00	5.125629e-01	5.506283e+14	2.298212e+15	6.517576e+14	1.569093e+04	8.077177e+03	2.549593e+03	0	1.095843e-03
2.600000e+08	3.432829e+13	0.000000e+00	5.125629e-01	5.469903e+14	2.260537e+15	6.483226e+14	1.567880e+04	8.058427e+03	2.543675e+03	0	1.091592e-03
2.700000e+08	3.393251e+13	0.000000e+00	5.125629e-01	5.434120e+14	2.224270e+15	6.449127e+14	1.566675e+04	8.040196e+03	2.537920e+03	0	1.087380e-03
2.800000e+08	3.354337e+13	0.000000e+00	5.125629e-01	5.398919e+14	2.189336e+15	6.415277e+14	1.565478e+04	8.022463e+03	2.532323e+03	0	1.083208e-03
2.900000e+08	3.316070e+13	0.000000e+00	5.125629e-01	5.364283e+14	2.155663e+15	6.381674e+14	1.564288e+04	8.005207e+03	2.526876e+03	0	1.079073e-03
3.000000e+08	3.278431e+13	0.000000e+00	5.125629e-01	5.330196e+14	2.123183e+15	6.348316e+14	1.563107e+04	7.988407e+03	2.521573e+03	0	1.074975e-03
3.100000e+08	3.241401e+13	0.000000e+00	5.125629e-01	5.296643e+14	2.091835e+15	6.315201e+14	1.561932e+04	7.972045e+03	2.516408e+03	0	1.070912e-03
3.200000e+08	3.204965e+13	0.000000e+00	5.125629e-01	5.263608e+14	2.061561e+15	6.282327e+14	1.560766e+04	7.956102e+03	2.511376e+03	0	1.066884e-03
3.300000e+08	3.169106e+13	0.000000e+00	5.125629e-01	5.231079e+14	2.032306e+15	6.249692e+14	1.559606e+04	7.940562e+03	2.506470e+03	0	1.062890e-03
3.400000e+08	3.133808e+13	0.000000e+00	5.125629e-01	5.199041e+14	2.004020e+15	6.217294e+14	1.558453e+04	7.925410e+03	2.501688e+03	0	1.058929e-03
3.500000e+08	3.099057e+13	0.000000e+00	5.125629e-01	5.167481e+14	1.976655e+15	6.185131e+14	1.557308e+04	7.910629e+03	2.497022e+03	0	1.055001e-03
3.600000e+08	3.064836e+13	0.000000e+00	5.125629e-01	5.136386e+14	1.950166e+15	6.153202e+14	1.556169e+04	7.896206e+03	2.492469e+03	0	1.051103e-03
3.700000e+08	3.031133e+13	0.000000e+00	5.125629e-01	5.105745e+14	1.924513e+15	6.121503e+14	1.555038e+04	7.882126e+03	2.488025e+03	0	1.047236e-03
3.800000e+08	2.997933e+13	0.000000e+00	5.125629e-01	5.075545e+14	1.899655e+15	6.090034e+14	1.553913e+04	7.868377e+03	2.483685e+03	0	1.043398e-03
3.900000e+08	2.965224e+13	0.000000e+00	5.125629e-01	5.045775e+14	1.875555e+15	6.058792e+14	1.552795e+04	7.854947e+03	2.479446e+03	0	1.039590e-03
4.000000e+08	2.932993e+13	0.000000e+00	5.125629e-01	5.016424e+14	1.852180e+15	6.027776e+14	1.551683e+04	7.841824e+03	2.475303e+03	0	1.035809e-03
4.100000e+08	2.901227e+13	0.000000e+00	5.125629e-01	4.987482e+14	1.829496e+15	5.996984e+14	1.550578e+04	7.828995e+03	2.471254e+03	0	1.032056e-03
4.200000e+08	2.869915e+13	0.000000e+00	5.125629e-01	4.958938e+14	1.807472e+15	5.966414e+14	1.549479e+04	7.816452e+03	2.467295e+03	0	1.028330e-03
4.300000e+08	2.839046e+13	0.000000e+00	5.125629e-01	4.930783e+14	1.786080e+15	5.936064e+14	1.548386e+04	7.804184e+03	2.463422e+03	0	1.024630e-03
4.400000e+08	2.808609e+13	0.000000e+00	5.125629e-01	4.903006e+14	1.765292e+15	5.905932e+14	1.547300e+04	7.792181e+03	2.459633e+03	0	1.020955e-03
4.500000e+08	2.778592e+13	0.000000e+00	5.125629e-01	4.875600e+14	1.745083e+15	5.876016e+14	1.546219e+04	7.780433e+03	2.455925e+03	0	1.017305e-03
4.600000e+08	2.748986e+13	0.000000e+00	5.125629e-01	4.848554e+14	1.725427e+15	5.846316e+14	1.545145e+04	7.768933e+03	2.452295e+03	0	1.013679e-03
4.700000e+08	2.719781e+13	0.000000e+00	5.125629e-01	4.821860e+14	1.706302e+15	5.816828e+14	1.544077e+04	7.757671e+03	2.448740e+03	0	1.010076e-03
4.800000e+08	2.690967e+13	0.000000e+00	5.125629e-01	4.795510e+14	1.687686e+15	5.787552e+14	1.543014e+04	7.746639e+03	2.445258e+03	0	1.006497e-03
4.900000e+08	2.662535e+13	0.000000e+00	5.125629e-01	4.769497e+14	1.669558e+15	5.758485e+14	1.541958e+04	7.735830e+03	2.441846e+03	0	1.002939e-03
5.000000e+08	2.634477e+13	0.000000e+00	5.125629e-01	4.743811e+14	1.651899e+15	5.729626e+14	1.540907e+04	7.725237e+03	2.438502e+03	0	9.994037e-04
5.100000e+08	2.606783e+13	0.000000e+00	5.125629e-01	4.718446e+14	1.634690e+15	5.700974e+14	1.539861e+04	7.714853e+03	2.435224e+03	0	9.958894e-04
5.200000e+08	2.579444e+13	0.000000e+00	5.125629e-01	4.693395e+14	1.617913e+15	5.672525e+14	1.538822e+04	7.704669e+03	2.432010e+03	0	9.923958e-04
5.300000e+08	2.552454e+13	0.000000e+00	5.125629e-01	4.668650e+14	1.601551e+15	5.644280e+14	1.537787e+04	7.694681e+03	2.428857e+03	0	9.889223e-04
5.400000e+08	2.525805e+13	0.000000e+00	5.125629e-01	4.644205e+14	1.585589e+15	5.616236e+14	1.536759e+04	7.684882e+03	2.425764e+03	0	9.854686e-04
5.500000e+08	2.499488e+13	0.000000e+00	5.125629e-01	4.620053e+14	1.570012e+15	5.588391e+14	1.535735e+04	7.675266e+03	2.422729e+03	0	9.820340e-04
5.600000e+08	2.473496e+13	0.000000e+00	5.125629e-01	4.596187e+14	1.554805e+15	5.560745e+14	1.534717e+04	7.665828e+03	2.419749e+03	0	9.786181e-04
5.700000e+08	2.447822e+13	0.000000e+00	5.125629e-01	4.572603e+14	1.539954e+15	5.533295e+14	1.533704e+04	7.656561e+03	2.416824e+03	0	9.752205e-04
5.800000e+08	2.422460e+13	0.000000e+00	5.125629e-01	4.549292e+14	1.525447e+15	5.506039e+14	1.532697e+04	7.647461e+03	2.413952e+03	0	9.718407e-04
5.900000e+08	2.397403e+13	0.000000e+00	5.125629e-01	4.526251e+14	1.511271e+15	5.478977e+14	1.531694e+04	7.638522e+03	2.411130e+03	0	9.684782e-04
6.000000e+08	2.372644e+13	0.000000e+00	5.125629e-01	4.503472e+14	1.497413e+15	5.452106e+14	1.530697e+04	7.629740e+03	2.408358e+03	0	9.651327e-04
6.100000e+08	2.348177e+13	0.000000e+00	5.125629e-01	4.480952e+14	1.483864e+15	5.425425e+14	1.529704e+04	7.621111e+03	2.405634e+03	0	9.618037e-04
6.200000e+08	2.323995e+13	0.000000e+00	5.125629e-01	4.458684e+14	1.470612e+15	5.398933e+14	1.528717e+04	7.612628e+03	2.402957e+03	0	9.584908e-04
6.300000e+08	2.300094e+13	0.000000e+00	5.125629e-01	4.436663e+14	1.457647e+15	5.372628e+14	1.527734e+04	7.604289e+03	2.400325e+03	0	9.551936e-04
6.400000e+08	2.276467e+13	0.000000e+00	5.125629e-01	4.414884e+14	1.444958e+15	5.346508e+14	1.526757e+04	7.596089e+03	2.397736e+03	0	9.519117e-04
6.500000e+08	2.253109e+13	0.000000e+00	5.125629e-01	4.393343e+14	1.432538e+15	5.320573e+14	1.525784e+04	7.588025e+03	2.395190e+03	0	9.486448e-04
6.600000e+08	2.230015e+13	0.000000e+00	5.125629e-01	4.372035e+14	1.420376e+15	5.294820e+14	1.524816e+04	7.580091e+03	2.392686e+03	0	9.453924e-04
6.700000e+08	2.207179e+13	0.000000e+00	5.125629e-01	4.350956e+14	1.408464e+15	5.269247e+14	1.523852e+04	7.572285e+03	2.390222e+03	0	9.421542e-04
6.800000e+08	2.184595e+13	0.000000e+00	5.125629e-01	4.330100e+14	1.396794e+15	5.243855e+14	1.522893e+04	7.564603e+03	2.387797e+03	0	9.389299e-04
6.900000e+08	2.162260e+13	0.000000e+00	5.125629e-01	4.309464e+14	1.385358e+15	5.218641e+14	1.521939e+04	7.557042e+03	2.385411e+03	0	9.357191e-04
7.000000e+08	2.140169e+13	0.000000e+00	5.125629e-01	4.289043e+14	1.374149e+15	5.193603e+14	1.520989e+04	7.549598e+03	2.383061e+03	0	9.325215e-04
7.100000e+08	2.118316e+13	0.000000e+00	5.125629e-01	4.268833e+14	1.363159e+15	5.168741e+14	1.520044e+04	7.542268e+03	2.380747e+03	0	9.293368e-04
7.200000e+08	2.096698e+13	0.000000e+00	5.125629e-01	4.248832e+14	1.352382e+15	5.144052e+14	1.519103e+04	7.535049e+03	2.378468e+03	0	9.261645e-04
7.300000e+08	2.075309e+13	0.000000e+00	5.125629e-01	4.229033e+14	1.341810e+15	5.119536e+14	1.518167e+04	7.527938e+03	2.376224e+03	0	9.230044e-04
7.400000e+08	2.054146e+13	0.000000e+00	5.125629e-01	4.209435e+14	1.331438e+15	5.095192e+14	1.517235e+04	7.520932e+03	2.374012e+03	0	9.198563e-04
7.500000e+08	2.033205e+13	0.000000e+00	5.125629e-01	4.190033e+14	1.321259e+15	5.071017e+14	1.516307e+04	7.514028e+03	2.371833e+03	0	9.167197e-04
7.600000e+08	2.012481e+13	0.000000e+00	5.125629e-01	4.170824e+14	1.311268e+15	5.047010e+14	1.515384e+04	7.507224e+03	2.369686e+03	0	9.135944e-04
7.700000e+08	1.991970e+13	0.000000e+00	5.125629e-01	4.151804e+14	1.301459e+15	5.023170e+14	1.514464e+04	7.500518e+03	2.367569e+03	0	9.104801e-04
7.800000e+08	1.971669e+13	0.000000e+00	5.125629e-01	4.132970e+14	1.291827e+15	4.999496e+14	1.513549e+04	7.493906e+03	2.365481e+03	0	9.073765e-04
7.900000e+08	1.951574e+13	0.000000e+00	5.125629e-01	4.114319e+14	1.282366e+15	4.975987e+14	1.512638e+04	7.487386e+03	2.363423e+03	0	9.042834e-04
8.000000e+08	1.931682e+13	0.000000e+00	5.125629e-01	4.095847e+14	1.273071e+15	4.952640e+14	1.511732e+04	7.480956e+03	2.361394e+03	0	9.012004e-04
8.100000e+08	1.911988e+13	0.000000e+00	5.125629e-01	4.077552e+14	1.263938e+15	4.929456e+14	1.510829e+04	7.474613e+03	2.359392e+03	0	8.981273e-04
8.200000e+08	1.892489e+13	0.000000e+00	5.125629e-01	4.059430e+14	1.254963e+15	4.906431e+14	1.509930e+04	7.468356e+03	2.357417e+03	0	8.950638e-04
8.300000e+08	1.873183e+13	0.000000e+00	5.125629e-01	4.041479e+14	1.246139e+15	4.883566e+14	1.509036e+04	7.462183e+03	2.355468e+03	0	8.920097e-04
8.400000e+08	1.854065e+13	0.000000e+00	5.125629e-01	4.023696e+14	1.237465e+15	4.860859e+14	1.508145e+04	7.456090e+03	2.353545e+03	0	8.889647e-04
8.500000e+08	1.835133e+13	0.000000e+00	5.125629e-01	4.006078e+14	1.228934e+15	4.838309e+14	1.507258e+04	7.450077e+03	2.351647e+03	0	8.859286e-04
8.600000e+08	1.816383e+13	0.000000e+00	5.125629e-01	3.988622e+14	1.220544e+15	4.815914e+14	1.506375e+04	7.444141e+03	2.349773e+03	0	8.829010e-04
8.700000e+08	1.797813e+13	0.000000e+00	5.125629e-01	3.971325e+14	1.212290e+15	4.793673e+14	1.505496e+04	7.438281e+03	2.347923e+03	0	8.798818e-04
8.800000e+08	1.779419e+13	0.000000e+00	5.125629e-01	3.954186e+14	1.204169e+15	4.771585e+14	1.504621e+04	7.432495e+03	2.346097e+03	0	8.768708e-04
8.900000e+08	1.761199e+13	0.000000e+00	5.125629e-01	3.937201e+14	1.196178e+15	4.749649e+14	1.503749e+04	7.426780e+03	2.344293e+03	0	8.738676e-04
9.000000e+08	1.743149e+13	0.000000e+00	5.125629e-01	3.920368e+14	1.188312e+15	4.727864e+14	1.502881e+04	7.421136e+03	2.342511e+03	0	8.708721e-04
9.100000e+08	1.725268e+13	0.000000e+00	5.125629e-01	3.903684e+14	1.180569e+15	4.706227e+14	1.502017e+04	7.415560e+03	2.340751e+03	0	8.678840e-04
9.200000e+08	1.707552e+13	0.000000e+00	5.125629e-01	3.887148e+14	1.172945e+15	4.684739e+14	1.501157e+04	7.410052e+03	2.339013e+03	0	8.649031e-04
9.300000e+08	1.689998e+13	0.000000e+00	5.125629e-01	3.870757e+14	1.165438e+15	4.663398e+14	1.500300e+04	7.404609e+03	2.337295e+03	0	8.619292e-04
9.400000e+08	1.672605e+13	0.000000e+00	5.125629e-01	3.854509e+14	1.158044e+15	4.642203e+14	1.499447e+04	7.399230e+03	2.335597e+03	0	8.589621e-04
9.500000e+08	1.655370e+13	0.000000e+00	5.125629e-01	3.838402e+14	1.150760e+15	4.621153e+14	1.498597e+04	7.393914e+03	2.333919e+03	0	8.560015e-04
9.600000e+08	1.638290e+13	0.000000e+00	5.125629e-01	3.822433e+14	1.143585e+15	4.600246e+14	1.497751e+04	7.388659e+03	2.332260e+03	0	8.530472e-04
9.700000e+08	1.621363e+13	0.000000e+00	5.125629e-01	3.806600e+14	1.136514e+15	4.579481e+14	1.496909e+04	7.383463e+03	2.330620e+03	0	8.500991e-04
9.800000e+08	1.604586e+13	0.000000e+00	5.125629e-01	3.790902e+14	1.129546e+15	4.558858e+14	1.496070e+04	7.378327e+03	2.328998e+03	0	8.471569e-04
9.900000e+08	1.587958e+13	0.000000e+00	5.125629e-01	3.775336e+14	1.122678e+15	4.538375e+14	1.495234e+04	7.373247e+03	2.327395e+03	0	8.442204e-04
1.000000e+09	1.571476e+13	0.000000e+00	5.125629e-01	3.759900e+14	1.115908e+15	4.518031e+14	1.494402e+04	7.368224e+03	2.325809e+03	0	8.412893e-04
1.010000e+09	1.555137e+13	0.000000e+00	5.125629e-01	3.744593e+14	1.109233e+15	4.497824e+14	1.493573e+04	7.363255e+03	2.324241e+03	0	8.383636e-04
1.020000e+09	1.538941e+13	0.000000e+00	5.125629e-01	3.729413e+14	1.102651e+15	4.477755e+14	1.492748e+04	7.358340e+03	2.322690e+03	0	8.354430e-04
1.030000e+09	1.522884e+13	0.000000e+00	5.125629e-01	3.714358e+14	1.096160e+15	4.457822e+14	1.491926e+04	7.353477e+03	2.321155e+03	0	8.325273e-04
1.040000e+09	1.506965e+13	0.000000e+00	5.125629e-01	3.699425e+14	1.089757e+15	4.438023e+14	1.491107e+04	7.348666e+03	2.319636e+03	0	8.296163e-04
1.050000e+09	1.491182e+13	0.000000e+00	5.125629e-01	3.684614e+14	1.083442e+15	4.418358e+14	1.490291e+04	7.343905e+03	2.318133e+03	0	8.267098e-04
1.060000e+09	1.475533e+13	0.000000e+00	5.125629e-01	3.669923e+14	1.077211e+15	4.398826e+14	1.489479e+04	7.339193e+03	2.316646e+03	0	8.238076e-04
1.070000e+09	1.460015e+13	0.000000e+00	5.125629e-01	3.655350e+14	1.071062e+15	4.379425e+14	1.488670e+04	7.334530e+03	2.315174e+03	0	8.209096e-04
1.080000e+09	1.444628e+13	0.000000e+00	5.125629e-01	3.640893e+14	1.064995e+15	4.360155e+14	1.487864e+04	7.329914e+03	2.313717e+03	0	8.180155e-04
1.090000e+09	1.429369e+13	0.000000e+00	5.125629e-01	3.626551e+14	1.059007e+15	4.341014e+14	1.487062e+04	7.325344e+03	2.312274e+03	0	8.151252e-04
1.100000e+09	1.414236e+13	0.000000e+00	5.125629e-01	3.612322e+14	1.053096e+15	4.322002e+14	1.486262e+04	7.320819e+03	2.310846e+03	0	8.122384e-04
1.110000e+09	1.399228e+13	0.000000e+00	5.125629e-01	3.598205e+14	1.047261e+15	4.303117e+14	1.485466e+04	7.316339e+03	2.309432e+03	0	8.093550e-04
1.120000e+09	1.384343e+13	0.000000e+00	5.125629e-01	3.584198e+14	1.041500e+15	4.284359e+14	1.484673e+04	7.311902e+03	2.308031e+03	0	8.064748e-04
1.130000e+09	1.369580e+13	0.000000e+00	5.125629e-01	3.570299e+14	1.035811e+15	4.265727e+14	1.483883e+04	7.307508e+03	2.306644e+03	0	8.035976e-04
1.140000e+09	1.354936e+13	0.000000e+00	5.125629e-01	3.556508e+14	1.030193e+15	4.247219e+14	1.483096e+04	7.303156e+03	2.305270e+03	0	8.007233e-04
1.150000e+09	1.340410e+13	0.000000e+00	5.125629e-01	3.542823e+14	1.024645e+15	4.228834e+14	1.482312e+04	7.298845e+03	2.303910e+03	0	7.978515e-04
1.160000e+09	1.326001e+13	0.000000e+00	5.125629e-01	3.529243e+14	1.019164e+15	4.210572e+14	1.481531e+04	7.294574e+03	2.302562e+03	0	7.949823e-04
1.170000e+09	1.311707e+13	0.000000e+00	5.125629e-01	3.515765e+14	1.013750e+15	4.192432e+14	1.480753e+04	7.290342e+03	2.301226e+03	0	7.921153e-04
1.180000e+09	1.297526e+13	0.000000e+00	5.125629e-01	3.502389e+14	1.008401e+15	4.174413e+14	1.479978e+04	7.286149e+03	2.299902e+03	0	7.892505e-04
1.190000e+09	1.283457e+13	0.000000e+00	5.125629e-01	3.489114e+14	1.003116e+15	4.156513e+14	1.479206e+04	7.281994e+03	2.298591e+03	0	7.863876e-04
1.200000e+09	1.269499e+13	0.000000e+00	5.125629e-01	3.475938e+14	9.978937e+14	4.138732e+14	1.478437e+04	7.277877e+03	2.297291e+03	0	7.835264e-04
1.210000e+09	1.255650e+13	0.000000e+00	5.125629e-01	3.462860e+14	9.927323e+14	4.121069e+14	1.477670e+04	7.273796e+03	2.296003e+03	0	7.806668e-04
1.220000e+09	1.241909e+13	0.000000e+00	5.125629e-01	3.449879e+14	9.876310e+14	4.103523e+14	1.476907e+04	7.269750e+03	2.294726e+03	0	7.778086e-04
1.230000e+09	1.228274e+13	0.000000e+00	5.125629e-01	3.436993e+14	9.825885e+14	4.086093e+14	1.476147e+04	7.265740e+03	2.293460e+03	0	7.749516e-04
1.240000e+09	1.214744e+13	0.000000e+00	5.125629e-01	3.424202e+14	9.776036e+14	4.068779e+14	1.475389e+04	7.261765e+03	2.292205e+03	0	7.720956e-04
1.250000e+09	1.201317e+13	0.000000e+00	5.125629e-01	3.411504e+14	9.726753e+14	4.051578e+14	1.474634e+04	7.257824e+03	2.290961e+03	0	7.692404e-04
1.260000e+09	1.187994e+13	0.000000e+00	5.125629e-01	3.398898e+14	9.678024e+14	4.034491e+14	1.473882e+04	7.253915e+03	2.289728e+03	0	7.663860e-04
1.270000e+09	1.174771e+13	0.000000e+00	5.125629e-01	3.386383e+14	9.629839e+14	4.017517e+14	1.473133e+04	7.250040e+03	2.288504e+03	0	7.635320e-04
1.280000e+09	1.161648e+13	0.000000e+00	5.125629e-01	3.373957e+14	9.582187e+14	4.000654e+14	1.472386e+04	7.246197e+03	2.287291e+03	0	7.606784e-04
1.290000e+09	1.148624e+13	0.000000e+00	5.125629e-01	3.361621e+14	9.535059e+14	3.983902e+14	1.471642e+04	7.242385e+03	2.286088e+03	0	7.578249e-04
1.300000e+09	1.135698e+13	0.000000e+00	5.125629e-01	3.349372e+14	9.488444e+14	3.967260e+14	1.470901e+04	7.238604e+03	2.284894e+03	0	7.549713e-04
1.310000e+09	1.122868e+13	0.000000e+00	5.125629e-01	3.337210e+14	9.442333e+14	3.950728e+14	1.470163e+04	7.234854e+03	2.283711e+03	0	7.521175e-04
1.320000e+09	1.110132e+13	0.000000e+00	5.125629e-01	3.325134e+14	9.396716e+14	3.934303e+14	1.469427e+04	7.231133e+03	2.282536e+03	0	7.492633e-04
1.330000e+09	1.097491e+13	0.000000e+00	5.125629e-01	3.313143e+14	9.351586e+14	3.917986e+14	1.468694e+04	7.227443e+03	2.281371e+03	0	7.464085e-04
1.340000e+09	1.084943e+13	0.000000e+00	5.125629e-01	3.301235e+14	9.306931e+14	3.901775e+14	1.467964e+04	7.223781e+03	2.280215e+03	0	7.435529e-04
1.350000e+09	1.072487e+13	0.000000e+00	5.125629e-01	3.289410e+14	9.262745e+14	3.885670e+14	1.467236e+04	7.220147e+03	2.279068e+03	0	7.406963e-04
1.360000e+09	1.060122e+13	0.000000e+00	5.125629e-01	3.277666e+14	9.219018e+14	3.869671e+14	1.466511e+04	7.216541e+03	2.277930e+03	0	7.378386e-04
