#t		Qconv[W]	Ri[Rp]		R*[Rp]		Qc[W]		Qm[W]		Qr[W]		Tcmb[K]		Tl[K]		Tup[K]		RiFlag		Bs[T]
0.000000e+00	4.999302e+13	0.000000e+00	5.125629e-01	7.090846e+14	4.118560e+15	7.713867e+14	1.645540e+04	9.042124e+03	2.803157e+03	0	1.236412e-03
1.000000e+07	4.931412e+13	0.000000e+00	5.125629e-01	7.031144e+14	3.994054e+15	7.671126e+14	1.644057e+04	8.998496e+03	2.789632e+03	0	1.230790e-03
2.000000e+07	4.864874e+13	0.000000e+00	5.125629e-01	6.972600e+14	3.877171e+15	7.628705e+14	1.642586e+04	8.956737e+03	2.776686e+03	0	1.225229e-03
3.000000e+07	4.799667e+13	0.000000e+00	5.125629e-01	6.915198e+14	3.767264e+15	7.586601e+14	1.641127e+04	8.916726e+03	2.764282e+03	0	1.219730e-03
4.000000e+07	4.735768e+13	0.000000e+00	5.125629e-01	6.858916e+14	3.663753e+15	7.544812e+14	1.639681e+04	8.878353e+03	2.752386e+03	0	1.214293e-03
5.000000e+07	4.673149e+13	0.000000e+00	5.125629e-01	6.803732e+14	3.566117e+15	7.503334e+14	1.638246e+04	8.841515e+03	2.740966e+03	0	1.208917e-03
6.000000e+07	4.611782e+13	0.000000e+00	5.125629e-01	6.749622e+14	3.473890e+15	7.462166e+14	1.636823e+04	8.806121e+03	2.729993e+03	0	1.203602e-03
7.000000e+07	4.551639e+13	0.000000e+00	5.125629e-01	6.696560e+14	3.386651e+15	7.421303e+14	1.635411e+04	8.772083e+03	2.719441e+03	0	1.198347e-03
8.000000e+07	4.492687e+13	0.000000e+00	5.125629e-01	6.644520e+14	3.304022e+15	7.380745e+14	1.634010e+04	8.739325e+03	2.709286e+03	0	1.193151e-03
9.000000e+07	4.434898e+13	0.000000e+00	5.125629e-01	6.593477e+14	3.225660e+15	7.340489e+14	1.632620e+04	8.707771e+03	2.699504e+03	0	1.188013e-03
1.000000e+08	4.378239e+13	0.000000e+00	5.125629e-01	6.543403e+14	3.151253e+15	7.300531e+14	1.631240e+04	8.677357e+03	2.690075e+03	0	1.182932e-03
1.100000e+08	4.322680e+13	0.000000e+00	5.125629e-01	6.494272e+14	3.080519e+15	7.260870e+14	1.629872e+04	8.648018e+03	2.680980e+03	0	1.177907e-03
1.200000e+08	4.268190e+13	0.000000e+00	5.125629e-01	6.446059e+14	3.013201e+15	7.221503e+14	1.628513e+04	8.619697e+03	2.672200e+03	0	1.172937e-03
1.300000e+08	4.214739e+13	0.000000e+00	5.125629e-01	6.398737e+14	2.949065e+15	7.182427e+14	1.627164e+04	8.592340e+03	2.663719e+03	0	1.168020e-03
1.400000e+08	4.162298e+13	0.000000e+00	5.125629e-01	6.352282e+14	2.887898e+15	7.143641e+14	1.625825e+04	8.565898e+03	2.655522e+03	0	1.163155e-03
1.500000e+08	4.110837e+13	0.000000e+00	5.125629e-01	6.306668e+14	2.829502e+15	7.105141e+14	1.624496e+04	8.540323e+03	2.647593e+03	0	1.158342e-03
1.600000e+08	4.060329e+13	0.000000e+00	5.125629e-01	6.261873e+14	2.773699e+15	7.066926e+14	1.623177e+04	8.515573e+03	2.639920e+03	0	1.153578e-03
1.700000e+08	4.010745e+13	0.000000e+00	5.125629e-01	6.217871e+14	2.720323e+15	7.028992e+14	1.621867e+04	8.491606e+03	2.632490e+03	0	1.148863e-03
1.800000e+08	3.962060e+13	0.000000e+00	5.125629e-01	6.174642e+14	2.669224e+15	6.991338e+14	1.620566e+04	8.468384e+03	2.625291e+03	0	1.144196e-03
1.900000e+08	3.914248e+13	0.000000e+00	5.125629e-01	6.132161e+14	2.620262e+15	6.953962e+14	1.619274e+04	8.445873e+03	2.618313e+03	0	1.139575e-03
2.000000e+08	3.867282e+13	0.000000e+00	5.125629e-01	6.090409e+14	2.573308e+15	6.916861e+14	1.617991e+04	8.424038e+03	2.611544e+03	0	1.134999e-03
2.100000e+08	3.821139e+13	0.000000e+00	5.125629e-01	6.049364e+14	2.528242e+15	6.880032e+14	1.616716e+04	8.402849e+03	2.604975e+03	0	1.130466e-03
2.200000e+08	3.775795e+13	0.000000e+00	5.125629e-01	6.009006e+14	2.484956e+15	6.843474e+14	1.615451e+04	8.382275e+03	2.598597e+03	0	1.125977e-03
2.300000e+08	3.731227e+13	0.000000e+00	5.125629e-01	5.969316e+14	2.443347e+15	6.807184e+14	1.614193e+04	8.362290e+03	2.592401e+03	0	1.121529e-03
2.400000e+08	3.687414e+13	0.000000e+00	5.125629e-01	5.930275e+14	2.403321e+15	6.771161e+14	1.612944e+04	8.342868e+03	2.586380e+03	0	1.117122e-03
2.500000e+08	3.644334e+13	0.000000e+00	5.125629e-01	5.891865e+14	2.364790e+15	6.735401e+14	1.611703e+04	8.323983e+03	2.580526e+03	0	1.112755e-03
2.600000e+08	3.601967e+13	0.000000e+00	5.125629e-01	5.854069e+14	2.327672e+15	6.699903e+14	1.610470e+04	8.305614e+03	2.574831e+03	0	1.108426e-03
2.700000e+08	3.560292e+13	0.000000e+00	5.125629e-01	5.816868e+14	2.291893e+15	6.664664e+14	1.609245e+04	8.287737e+03	2.569289e+03	0	1.104134e-03
2.800000e+08	3.519291e+13	0.000000e+00	5.125629e-01	5.780248e+14	2.257380e+15	6.629683e+14	1.608028e+04	8.270333e+03	2.563893e+03	0	1.099880e-03
2.900000e+08	3.478945e+13	0.000000e+00	5.125629e-01	5.744192e+14	2.224069e+15	6.594957e+14	1.606819e+04	8.253381e+03	2.558638e+03	0	1.095660e-03
3.000000e+08	3.439236e+13	0.000000e+00	5.125629e-01	5.708686e+14	2.191897e+15	6.560484e+14	1.605617e+04	8.236865e+03	2.553518e+03	0	1.091476e-03
3.100000e+08	3.400147e+13	0.000000e+00	5.125629e-01	5.673714e+14	2.160808e+15	6.526262e+14	1.604422e+04	8.220765e+03	2.548527e+03	0	1.087325e-03
3.200000e+08	3.361662e+13	0.000000e+00	5.125629e-01	5.639262e+14	2.130747e+15	6.492290e+14	1.603235e+04	8.205066e+03	2.543660e+03	0	1.083207e-03
3.300000e+08	3.323764e+13	0.000000e+00	5.125629e-01	5.605317e+14	2.101664e+15	6.458564e+14	1.602055e+04	8.189752e+03	2.538912e+03	0	1.079121e-03
3.400000e+08	3.286438e+13	0.000000e+00	5.125629e-01	5.571866e+14	2.073512e+15	6.425083e+14	1.600882e+04	8.174807e+03	2.534279e+03	0	1.075066e-03
3.500000e+08	3.249669e+13	0.000000e+00	5.125629e-01	5.538895e+14	2.046246e+15	6.391845e+14	1.599715e+04	8.160219e+03	2.529757e+03	0	1.071042e-03
3.600000e+08	3.213442e+13	0.000000e+00	5.125629e-01	5.506393e+14	2.019824e+15	6.358849e+14	1.598556e+04	8.145973e+03	2.525340e+03	0	1.067047e-03
3.700000e+08	3.177745e+13	0.000000e+00	5.125629e-01	5.474347e+14	1.994209e+15	6.326091e+14	1.597404e+04	8.132057e+03	2.521026e+03	0	1.063081e-03
3.800000e+08	3.142563e+13	0.000000e+00	5.125629e-01	5.442747e+14	1.969362e+15	6.293570e+14	1.596258e+04	8.118458e+03	2.516810e+03	0	1.059143e-03
3.900000e+08	3.107883e+13	0.000000e+00	5.125629e-01	5.411581e+14	1.945249e+15	6.261284e+14	1.595119e+04	8.105165e+03	2.512690e+03	0	1.055233e-03
4.000000e+08	3.073693e+13	0.000000e+00	5.125629e-01	5.380838e+14	1.921838e+15	6.229231e+14	1.593987e+04	8.092168e+03	2.508660e+03	0	1.051349e-03
4.100000e+08	3.039981e+13	0.000000e+00	5.125629e-01	5.350508e+14	1.899098e+15	6.197410e+14	1.592861e+04	8.079454e+03	2.504719e+03	0	1.047491e-03
4.200000e+08	3.006735e+13	0.000000e+00	5.125629e-01	5.320582e+14	1.876999e+15	6.165818e+14	1.591741e+04	8.067015e+03	2.500863e+03	0	1.043659e-03
4.300000e+08	2.973943e+13	0.000000e+00	5.125629e-01	5.291049e+14	1.855515e+15	6.134453e+14	1.590627e+04	8.054841e+03	2.497089e+03	0	1.039851e-03
4.400000e+08	2.941596e+13	0.000000e+00	5.125629e-01	5.261900e+14	1.834619e+15	6.103314e+14	1.589520e+04	8.042923e+03	2.493394e+03	0	1.036067e-03
4.500000e+08	2.909682e+13	0.000000e+00	5.125629e-01	5.233126e+14	1.814287e+15	6.072399e+14	1.588419e+04	8.031252e+03	2.489776e+03	0	1.032306e-03
4.600000e+08	2.878191e+13	0.000000e+00	5.125629e-01	5.204719e+14	1.794495e+15	6.041706e+14	1.587323e+04	8.019820e+03	2.486231e+03	0	1.028569e-03
4.700000e+08	2.847114e+13	0.000000e+00	5.125629e-01	5.176670e+14	1.775222e+15	6.011233e+14	1.586234e+04	8.008618e+03	2.482759e+03	0	1.024853e-03
4.800000e+08	2.816440e+13	0.000000e+00	5.125629e-01	5.148971e+14	1.756447e+15	5.980978e+14	1.585151e+04	7.997639e+03	2.479355e+03	0	1.021160e-03
4.900000e+08	2.786162e+13	0.000000e+00	5.125629e-01	5.121614e+14	1.738150e+15	5.950940e+14	1.584073e+04	7.986876e+03	2.476019e+03	0	1.017487e-03
5.000000e+08	2.756268e+13	0.000000e+00	5.125629e-01	5.094591e+14	1.720312e+15	5.921117e+14	1.583001e+04	7.976323e+03	2.472747e+03	0	1.013835e-03
5.100000e+08	2.726752e+13	0.000000e+00	5.125629e-01	5.067895e+14	1.702916e+15	5.891506e+14	1.581935e+04	7.965971e+03	2.469538e+03	0	1.010203e-03
5.200000e+08	2.697604e+13	0.000000e+00	5.125629e-01	5.041519e+14	1.685944e+15	5.862108e+14	1.580874e+04	7.955815e+03	2.466389e+03	0	1.006590e-03
5.300000e+08	2.668817e+13	0.000000e+00	5.125629e-01	5.015457e+14	1.669381e+15	5.832918e+14	1.579819e+04	7.945848e+03	2.463299e+03	0	1.002997e-03
5.400000e+08	2.640383e+13	0.000000e+00	5.125629e-01	4.989700e+14	1.653211e+15	5.803937e+14	1.578769e+04	7.936065e+03	2.460267e+03	0	9.994223e-04
5.500000e+08	2.612294e+13	0.000000e+00	5.125629e-01	4.964243e+14	1.637420e+15	5.775162e+14	1.577724e+04	7.926460e+03	2.457289e+03	0	9.958656e-04
5.600000e+08	2.584543e+13	0.000000e+00	5.125629e-01	4.939080e+14	1.621994e+15	5.746591e+14	1.576685e+04	7.917028e+03	2.454365e+03	0	9.923266e-04
5.700000e+08	2.557122e+13	0.000000e+00	5.125629e-01	4.914203e+14	1.606920e+15	5.718223e+14	1.575652e+04	7.907763e+03	2.451493e+03	0	9.888047e-04
5.800000e+08	2.530025e+13	0.000000e+00	5.125629e-01	4.889608e+14	1.592185e+15	5.690057e+14	1.574623e+04	7.898660e+03	2.448671e+03	0	9.852996e-04
5.900000e+08	2.503245e+13	0.000000e+00	5.125629e-01	4.865289e+14	1.577777e+15	5.662090e+14	1.573599e+04	7.889715e+03	2.445898e+03	0	9.818108e-04
6.000000e+08	2.476775e+13	0.000000e+00	5.125629e-01	4.841240e+14	1.563685e+15	5.634321e+14	1.572581e+04	7.880923e+03	2.443172e+03	0	9.783380e-04
6.100000e+08	2.450610e+13	0.000000e+00	5.125629e-01	4.817455e+14	1.549897e+15	5.606749e+14	1.571568e+04	7.872279e+03	2.440492e+03	0	9.748806e-04
6.200000e+08	2.424742e+13	0.000000e+00	5.125629e-01	4.793930e+14	1.536404e+15	5.579371e+14	1.570559e+04	7.863779e+03	2.437857e+03	0	9.714383e-04
6.300000e+08	2.399167e+13	0.000000e+00	5.125629e-01	4.770659e+14	1.523196e+15	5.552187e+14	1.569556e+04	7.855419e+03	2.435266e+03	0	9.680108e-04
6.400000e+08	2.373878e+13	0.000000e+00	5.125629e-01	4.747638e+14	1.510262e+15	5.525194e+14	1.568557e+04	7.847195e+03	2.432716e+03	0	9.645976e-04
6.500000e+08	2.348869e+13	0.000000e+00	5.125629e-01	4.724861e+14	1.497595e+15	5.498392e+14	1.567563e+04	7.839104e+03	2.430208e+03	0	9.611983e-04
6.600000e+08	2.324136e+13	0.000000e+00	5.125629e-01	4.702323e+14	1.485184e+15	5.471778e+14	1.566574e+04	7.831140e+03	2.427739e+03	0	9.578126e-04
6.700000e+08	2.299672e+13	0.000000e+00	5.125629e-01	4.680021e+14	1.473023e+15	5.445352e+14	1.565590e+04	7.823302e+03	2.425309e+03	0	9.544402e-04
6.800000e+08	2.275474e+13	0.000000e+00	5.125629e-01	4.657950e+14	1.461102e+15	5.419110e+14	1.564610e+04	7.815585e+03	2.422917e+03	0	9.510806e-04
6.900000e+08	2.251535e+13	0.000000e+00	5.125629e-01	4.636106e+14	1.449414e+15	5.393053e+14	1.563635e+04	7.807987e+03	2.420561e+03	0	9.477336e-04
7.000000e+08	2.227851e+13	0.000000e+00	5.125629e-01	4.614483e+14	1.437953e+15	5.367179e+14	1.562665e+04	7.800503e+03	2.418241e+03	0	9.443988e-04
7.100000e+08	2.204417e+13	0.000000e+00	5.125629e-01	4.593080e+14	1.426710e+15	5.341486e+14	1.561699e+04	7.793131e+03	2.415956e+03	0	9.410759e-04
7.200000e+08	2.181229e+13	0.000000e+00	5.125629e-01	4.571890e+14	1.415679e+15	5.315972e+14	1.560737e+04	7.785869e+03	2.413704e+03	0	9.377646e-04
7.300000e+08	2.158282e+13	0.000000e+00	5.125629e-01	4.550911e+14	1.404854e+15	5.290637e+14	1.559780e+04	7.778712e+03	2.411485e+03	0	9.344644e-04
7.400000e+08	2.135572e+13	0.000000e+00	5.125629e-01	4.530139e+14	1.394228e+15	5.265479e+14	1.558828e+04	7.771658e+03	2.409299e+03	0	9.311753e-04
7.500000e+08	2.113094e+13	0.000000e+00	5.125629e-01	4.509570e+14	1.383796e+15	5.240496e+14	1.557879e+04	7.764706e+03	2.407143e+03	0	9.278967e-04
7.600000e+08	2.090844e+13	0.000000e+00	5.125629e-01	4.489201e+14	1.373552e+15	5.215687e+14	1.556935e+04	7.757851e+03	2.405018e+03	0	9.246285e-04
7.700000e+08	2.068819e+13	0.000000e+00	5.125629e-01	4.469028e+14	1.363489e+15	5.191050e+14	1.555995e+04	7.751092e+03	2.402923e+03	0	9.213703e-04
7.800000e+08	2.047014e+13	0.000000e+00	5.125629e-01	4.449047e+14	1.353604e+15	5.166585e+14	1.555060e+04	7.744426e+03	2.400856e+03	0	9.181219e-04
7.900000e+08	2.025426e+13	0.000000e+00	5.125629e-01	4.429256e+14	1.343891e+15	5.142290e+14	1.554128e+04	7.737850e+03	2.398818e+03	0	9.148829e-04
8.000000e+08	2.004050e+13	0.000000e+00	5.125629e-01	4.409652e+14	1.334344e+15	5.118163e+14	1.553201e+04	7.731363e+03	2.396807e+03	0	9.116531e-04
8.100000e+08	1.982884e+13	0.000000e+00	5.125629e-01	4.390230e+14	1.324960e+15	5.094204e+14	1.552278e+04	7.724963e+03	2.394823e+03	0	9.084322e-04
8.200000e+08	1.961924e+13	0.000000e+00	5.125629e-01	4.370989e+14	1.315734e+15	5.070410e+14	1.551359e+04	7.718647e+03	2.392865e+03	0	9.052200e-04
8.300000e+08	1.941166e+13	0.000000e+00	5.125629e-01	4.351925e+14	1.306661e+15	5.046781e+14	1.550444e+04	7.712413e+03	2.390932e+03	0	9.020161e-04
8.400000e+08	1.920607e+13	0.000000e+00	5.125629e-01	4.333035e+14	1.297737e+15	5.023315e+14	1.549533e+04	7.706259e+03	2.389024e+03	0	8.988203e-04
8.500000e+08	1.900244e+13	0.000000e+00	5.125629e-01	4.314317e+14	1.288959e+15	5.000010e+14	1.548626e+04	7.700183e+03	2.387141e+03	0	8.956325e-04
8.600000e+08	1.880073e+13	0.000000e+00	5.125629e-01	4.295768e+14	1.280321e+15	4.976867e+14	1.547723e+04	7.694184e+03	2.385281e+03	0	8.924522e-04
8.700000e+08	1.860091e+13	0.000000e+00	5.125629e-01	4.277384e+14	1.271822e+15	4.953883e+14	1.546823e+04	7.688259e+03	2.383444e+03	0	8.892792e-04
8.800000e+08	1.840296e+13	0.000000e+00	5.125629e-01	4.259164e+14	1.263456e+15	4.931057e+14	1.545928e+04	7.682407e+03	2.381630e+03	0	8.861134e-04
8.900000e+08	1.820684e+13	0.000000e+00	5.125629e-01	4.241105e+14	1.255220e+15	4.908388e+14	1.545036e+04	7.676627e+03	2.379838e+03	0	8.829544e-04
9.000000e+08	1.801253e+13	0.000000e+00	5.125629e-01	4.223205e+14	1.247112e+15	4.885874e+14	1.544148e+04	7.670915e+03	2.378067e+03	0	8.798020e-04
9.100000e+08	1.781999e+13	0.000000e+00	5.125629e-01	4.205460e+14	1.239127e+15	4.863515e+14	1.543264e+04	7.665272e+03	2.376318e+03	0	8.766560e-04
9.200000e+08	1.762920e+13	0.000000e+00	5.125629e-01	4.187869e+14	1.231263e+15	4.841308e+14	1.542383e+04	7.659695e+03	2.374589e+03	0	8.735162e-04
9.300000e+08	1.744014e+13	0.000000e+00	5.125629e-01	4.170429e+14	1.223516e+15	4.819254e+14	1.541507e+04	7.654184e+03	2.372880e+03	0	8.703822e-04
9.400000e+08	1.725276e+13	0.000000e+00	5.125629e-01	4.153138e+14	1.215884e+15	4.797351e+14	1.540634e+04	7.648735e+03	2.371191e+03	0	8.672539e-04
9.500000e+08	1.706706e+13	0.000000e+00	5.125629e-01	4.135994e+14	1.208363e+15	4.775597e+14	1.539764e+04	7.643349e+03	2.369521e+03	0	8.641311e-04
9.600000e+08	1.688301e+13	0.000000e+00	5.125629e-01	4.118995e+14	1.200952e+15	4.753991e+14	1.538898e+04	7.638023e+03	2.367870e+03	0	8.610135e-04
9.700000e+08	1.670057e+13	0.000000e+00	5.125629e-01	4.102138e+14	1.193647e+15	4.732532e+14	1.538036e+04	7.632756e+03	2.366238e+03	0	8.579009e-04
9.800000e+08	1.651973e+13	0.000000e+00	5.125629e-01	4.085422e+14	1.186446e+15	4.711220e+14	1.537177e+04	7.627548e+03	2.364623e+03	0	8.547931e-04
9.900000e+08	1.634046e+13	0.000000e+00	5.125629e-01	4.068844e+14	1.179346e+15	4.690052e+14	1.536321e+04	7.622396e+03	2.363026e+03	0	8.516899e-04
1.000000e+09	1.616274e+13	0.000000e+00	5.125629e-01	4.052402e+14	1.172346e+15	4.669028e+14	1.535470e+04	7.617300e+03	2.361446e+03	0	8.485909e-04
1.010000e+09	1.598655e+13	0.000000e+00	5.125629e-01	4.036095e+14	1.165442e+15	4.648147e+14	1.534621e+04	7.612259e+03	2.359883e+03	0	8.454961e-04
1.020000e+09	1.581186e+13	0.000000e+00	5.125629e-01	4.019920e+14	1.158632e+15	4.627407e+14	1.533776e+04	7.607270e+03	2.358337e+03	0	8.424053e-04
1.030000e+09	1.563866e+13	0.000000e+00	5.125629e-01	4.003876e+14	1.151914e+15	4.606807e+14	1.532934e+04	7.602334e+03	2.356806e+03	0	8.393181e-04
1.040000e+09	1.546692e+13	0.000000e+00	5.125629e-01	3.987961e+14	1.145287e+15	4.586347e+14	1.532096e+04	7.597448e+03	2.355292e+03	0	8.362343e-04
1.050000e+09	1.529662e+13	0.000000e+00	5.125629e-01	3.972173e+14	1.138747e+15	4.566025e+14	1.531261e+04	7.592613e+03	2.353793e+03	0	8.331539e-04
1.060000e+09	1.512774e+13	0.000000e+00	5.125629e-01	3.956511e+14	1.132294e+15	4.545839e+14	1.530429e+04	7.587827e+03	2.352309e+03	0	8.300765e-04
1.070000e+09	1.496027e+13	0.000000e+00	5.125629e-01	3.940972e+14	1.125925e+15	4.525790e+14	1.529601e+04	7.583089e+03	2.350840e+03	0	8.270019e-04
1.080000e+09	1.479418e+13	0.000000e+00	5.125629e-01	3.925555e+14	1.119638e+15	4.505876e+14	1.528776e+04	7.578397e+03	2.349386e+03	0	8.239300e-04
1.090000e+09	1.462945e+13	0.000000e+00	5.125629e-01	3.910259e+14	1.113431e+15	4.486096e+14	1.527954e+04	7.573752e+03	2.347946e+03	0	8.208605e-04
1.100000e+09	1.446607e+13	0.000000e+00	5.125629e-01	3.895081e+14	1.107303e+15	4.466448e+14	1.527135e+04	7.569152e+03	2.346519e+03	0	8.177933e-04
1.110000e+09	1.430401e+13	0.000000e+00	5.125629e-01	3.880020e+14	1.101253e+15	4.446932e+14	1.526320e+04	7.564596e+03	2.345107e+03	0	8.147280e-04
1.120000e+09	1.414326e+13	0.000000e+00	5.125629e-01	3.865075e+14	1.095277e+15	4.427547e+14	1.525507e+04	7.560083e+03	2.343708e+03	0	8.116646e-04
1.130000e+09	1.398381e+13	0.000000e+00	5.125629e-01	3.850245e+14	1.089376e+15	4.408292e+14	1.524698e+04	7.555613e+03	2.342322e+03	0	8.086028e-04
1.140000e+09	1.382563e+13	0.000000e+00	5.125629e-01	3.835527e+14	1.083547e+15	4.389165e+14	1.523892e+04	7.551185e+03	2.340950e+03	0	8.055423e-04
1.150000e+09	1.366871e+13	0.000000e+00	5.125629e-01	3.820920e+14	1.077788e+15	4.370166e+14	1.523089e+04	7.546797e+03	2.339589e+03	0	8.024831e-04
1.160000e+09	1.351303e+13	0.000000e+00	5.125629e-01	3.806423e+14	1.072099e+15	4.351294e+14	1.522289e+04	7.542450e+03	2.338242e+03	0	7.994248e-04
1.170000e+09	1.335857e+13	0.000000e+00	5.125629e-01	3.792034e+14	1.066477e+15	4.332548e+14	1.521492e+04	7.538142e+03	2.336906e+03	0	7.963673e-04
1.180000e+09	1.320533e+13	0.000000e+00	5.125629e-01	3.777752e+14	1.060923e+15	4.313926e+14	1.520698e+04	7.533873e+03	2.335583e+03	0	7.933104e-04
1.190000e+09	1.305328e+13	0.000000e+00	5.125629e-01	3.763576e+14	1.055433e+15	4.295428e+14	1.519907e+04	7.529641e+03	2.334271e+03	0	7.902538e-04
1.200000e+09	1.290241e+13	0.000000e+00	5.125629e-01	3.749505e+14	1.050007e+15	4.277053e+14	1.519119e+04	7.525447e+03	2.332970e+03	0	7.871974e-04
1.210000e+09	1.275270e+13	0.000000e+00	5.125629e-01	3.735536e+14	1.044643e+15	4.258800e+14	1.518333e+04	7.521289e+03	2.331682e+03	0	7.841410e-04
1.220000e+09	1.260415e+13	0.000000e+00	5.125629e-01	3.721670e+14	1.039341e+15	4.240667e+14	1.517551e+04	7.517167e+03	2.330404e+03	0	7.810842e-04
1.230000e+09	1.245673e+13	0.000000e+00	5.125629e-01	3.707904e+14	1.034100e+15	4.222655e+14	1.516772e+04	7.513080e+03	2.329137e+03	0	7.780270e-04
1.240000e+09	1.231043e+13	0.000000e+00	5.125629e-01	3.694237e+14	1.028917e+15	4.204762e+14	1.515996e+04	7.509028e+03	2.327880e+03	0	7.749691e-04
1.250000e+09	1.216523e+13	0.000000e+00	5.125629e-01	3.680668e+14	1.023792e+15	4.186986e+14	1.515222e+04	7.505010e+03	2.326635e+03	0	7.719104e-04
1.260000e+09	1.202113e+13	0.000000e+00	5.125629e-01	3.667197e+14	1.018723e+15	4.169328e+14	1.514451e+04	7.501025e+03	2.325399e+03	0	7.688505e-04
1.270000e+09	1.187812e+13	0.000000e+00	5.125629e-01	3.653821e+14	1.013711e+15	4.151787e+14	1.513683e+04	7.497072e+03	2.324174e+03	0	7.657892e-04
1.280000e+09	1.173617e+13	0.000000e+00	5.125629e-01	3.640540e+14	1.008752e+15	4.134360e+14	1.512918e+04	7.493152e+03	2.322959e+03	0	7.627265e-04
1.290000e+09	1.159527e+13	0.000000e+00	5.125629e-01	3.627353e+14	1.003848e+15	4.117049e+14	1.512156e+04	7.489264e+03	2.321753e+03	0	7.596619e-04
1.300000e+09	1.145542e+13	0.000000e+00	5.125629e-01	3.614258e+14	9.989961e+14	4.099851e+14	1.511396e+04	7.485406e+03	2.320557e+03	0	7.565954e-04
1.310000e+09	1.131660e+13	0.000000e+00	5.125629e-01	3.601254e+14	9.941959e+14	4.082765e+14	1.510640e+04	7.481579e+03	2.319371e+03	0	7.535267e-04
1.320000e+09	1.117879e+13	0.000000e+00	5.125629e-01	3.588341e+14	9.894464e+14	4.065792e+14	1.509885e+04	7.477782e+03	2.318194e+03	0	7.504556e-04
1.330000e+09	1.104199e+13	0.000000e+00	5.125629e-01	3.575517e+14	9.847467e+14	4.048929e+14	1.509134e+04	7.474015e+03	2.317026e+03	0	7.473818e-04
1.340000e+09	1.090619e+13	0.000000e+00	5.125629e-01	3.562782e+14	9.800959e+14	4.032177e+14	1.508385e+04	7.470276e+03	2.315867e+03	0	7.443052e-04
1.350000e+09	1.077137e+13	0.000000e+00	5.125629e-01	3.550134e+14	9.754931e+14	4.015534e+14	1.507639e+04	7.466566e+03	2.314717e+03	0	7.412254e-04
1.360000e+09	1.063751e+13	0.000000e+00	5.125629e-01	3.537572e+14	9.709375e+14	3.998999e+14	1.506896e+04	7.462884e+03	2.313575e+03	0	7.381423e-04
