#t		Qconv[W]	Ri[Rp]		R*[Rp]		Qc[W]		Qm[W]		Qr[W]		Tcmb[K]		Tl[K]		Tup[K]		RiFlag		Bs[T]
0.000000e+00	5.303367e+13	0.000000e+00	5.125629e-01	7.734128e+14	4.082687e+15	8.087574e+14	1.710059e+04	9.369446e+03	2.829066e+03	0	1.259743e-03
1.000000e+07	5.232699e+13	0.000000e+00	5.125629e-01	7.673065e+14	3.971824e+15	8.042763e+14	1.708558e+04	9.329580e+03	2.817029e+03	0	1.254123e-03
2.000000e+07	5.163368e+13	0.000000e+00	5.125629e-01	7.613124e+14	3.867191e+15	7.998287e+14	1.707069e+04	9.291298e+03	2.805470e+03	0	1.248559e-03
3.000000e+07	5.095350e+13	0.000000e+00	5.125629e-01	7.554285e+14	3.768297e+15	7.954144e+14	1.705592e+04	9.254502e+03	2.794360e+03	0	1.243053e-03
4.000000e+07	5.028619e+13	0.000000e+00	5.125629e-01	7.496528e+14	3.674701e+15	7.910330e+14	1.704125e+04	9.219107e+03	2.783672e+03	0	1.237602e-03
5.000000e+07	4.963147e+13	0.000000e+00	5.125629e-01	7.439828e+14	3.586004e+15	7.866843e+14	1.702670e+04	9.185031e+03	2.773383e+03	0	1.232208e-03
6.000000e+07	4.898906e+13	0.000000e+00	5.125629e-01	7.384161e+14	3.501844e+15	7.823679e+14	1.701226e+04	9.152200e+03	2.763470e+03	0	1.226868e-03
7.000000e+07	4.835867e+13	0.000000e+00	5.125629e-01	7.329503e+14	3.421894e+15	7.780838e+14	1.699793e+04	9.120544e+03	2.753911e+03	0	1.221583e-03
8.000000e+07	4.773999e+13	0.000000e+00	5.125629e-01	7.275830e+14	3.345856e+15	7.738315e+14	1.698371e+04	9.090000e+03	2.744689e+03	0	1.216351e-03
9.000000e+07	4.713272e+13	0.000000e+00	5.125629e-01	7.223115e+14	3.273459e+15	7.696108e+14	1.696958e+04	9.060508e+03	2.735784e+03	0	1.211172e-03
1.000000e+08	4.653659e+13	0.000000e+00	5.125629e-01	7.171336e+14	3.204455e+15	7.654214e+14	1.695556e+04	9.032014e+03	2.727180e+03	0	1.206044e-03
1.100000e+08	4.595128e+13	0.000000e+00	5.125629e-01	7.120466e+14	3.138617e+15	7.612632e+14	1.694165e+04	9.004465e+03	2.718862e+03	0	1.200966e-03
1.200000e+08	4.537651e+13	0.000000e+00	5.125629e-01	7.070483e+14	3.075738e+15	7.571357e+14	1.692782e+04	8.977815e+03	2.710815e+03	0	1.195938e-03
1.300000e+08	4.481200e+13	0.000000e+00	5.125629e-01	7.021362e+14	3.015629e+15	7.530389e+14	1.691410e+04	8.952017e+03	2.703025e+03	0	1.190957e-03
1.400000e+08	4.425746e+13	0.000000e+00	5.125629e-01	6.973081e+14	2.958114e+15	7.489723e+14	1.690047e+04	8.927031e+03	2.695481e+03	0	1.186025e-03
1.500000e+08	4.371264e+13	0.000000e+00	5.125629e-01	6.925615e+14	2.903032e+15	7.449358e+14	1.688693e+04	8.902817e+03	2.688170e+03	0	1.181138e-03
1.600000e+08	4.317725e+13	0.000000e+00	5.125629e-01	6.878945e+14	2.850237e+15	7.409292e+14	1.687349e+04	8.879340e+03	2.681081e+03	0	1.176296e-03
1.700000e+08	4.265105e+13	0.000000e+00	5.125629e-01	6.833047e+14	2.799590e+15	7.369520e+14	1.686014e+04	8.856563e+03	2.674203e+03	0	1.171498e-03
1.800000e+08	4.213378e+13	0.000000e+00	5.125629e-01	6.787901e+14	2.750965e+15	7.330042e+14	1.684687e+04	8.834456e+03	2.667528e+03	0	1.166742e-03
1.900000e+08	4.162520e+13	0.000000e+00	5.125629e-01	6.743486e+14	2.704247e+15	7.290855e+14	1.683370e+04	8.812987e+03	2.661046e+03	0	1.162029e-03
2.000000e+08	4.112507e+13	0.000000e+00	5.125629e-01	6.699783e+14	2.659325e+15	7.251957e+14	1.682061e+04	8.792129e+03	2.654748e+03	0	1.157356e-03
2.100000e+08	4.063316e+13	0.000000e+00	5.125629e-01	6.656773e+14	2.616100e+15	7.213344e+14	1.680760e+04	8.771855e+03	2.648626e+03	0	1.152723e-03
2.200000e+08	4.014925e+13	0.000000e+00	5.125629e-01	6.614438e+14	2.574479e+15	7.175015e+14	1.679468e+04	8.752139e+03	2.642673e+03	0	1.148129e-03
2.300000e+08	3.967312e+13	0.000000e+00	5.125629e-01	6.572758e+14	2.534374e+15	7.136967e+14	1.678184e+04	8.732957e+03	2.636881e+03	0	1.143572e-03
2.400000e+08	3.920457e+13	0.000000e+00	5.125629e-01	6.531717e+14	2.495704e+15	7.099198e+14	1.676908e+04	8.714287e+03	2.631244e+03	0	1.139052e-03
2.500000e+08	3.874339e+13	0.000000e+00	5.125629e-01	6.491298e+14	2.458395e+15	7.061706e+14	1.675640e+04	8.696108e+03	2.625755e+03	0	1.134568e-03
2.600000e+08	3.828939e+13	0.000000e+00	5.125629e-01	6.451484e+14	2.422376e+15	7.024488e+14	1.674379e+04	8.678399e+03	2.620408e+03	0	1.130119e-03
2.700000e+08	3.784238e+13	0.000000e+00	5.125629e-01	6.412261e+14	2.387581e+15	6.987542e+14	1.673127e+04	8.661142e+03	2.615197e+03	0	1.125704e-03
2.800000e+08	3.740218e+13	0.000000e+00	5.125629e-01	6.373612e+14	2.353950e+15	6.950866e+14	1.671882e+04	8.644319e+03	2.610117e+03	0	1.121322e-03
2.900000e+08	3.696860e+13	0.000000e+00	5.125629e-01	6.335523e+14	2.321423e+15	6.914458e+14	1.670645e+04	8.627911e+03	2.605163e+03	0	1.116973e-03
3.000000e+08	3.654149e+13	0.000000e+00	5.125629e-01	6.297980e+14	2.289948e+15	6.878315e+14	1.669415e+04	8.611904e+03	2.600330e+03	0	1.112654e-03
3.100000e+08	3.612068e+13	0.000000e+00	5.125629e-01	6.260969e+14	2.259474e+15	6.842435e+14	1.668192e+04	8.596282e+03	2.595613e+03	0	1.108367e-03
3.200000e+08	3.570600e+13	0.000000e+00	5.125629e-01	6.224477e+14	2.229954e+15	6.806817e+14	1.666976e+04	8.581030e+03	2.591007e+03	0	1.104109e-03
3.300000e+08	3.529731e+13	0.000000e+00	5.125629e-01	6.188490e+14	2.201342e+15	6.771457e+14	1.665768e+04	8.566133e+03	2.586509e+03	0	1.099880e-03
3.400000e+08	3.489445e+13	0.000000e+00	5.125629e-01	6.152997e+14	2.173598e+15	6.736354e+14	1.664566e+04	8.551580e+03	2.582115e+03	0	1.095680e-03
3.500000e+08	3.449728e+13	0.000000e+00	5.125629e-01	6.117986e+14	2.146681e+15	6.701506e+14	1.663372e+04	8.537358e+03	2.577821e+03	0	1.091507e-03
3.600000e+08	3.410566e+13	0.000000e+00	5.125629e-01	6.083444e+14	2.120556e+15	6.666911e+14	1.662184e+04	8.523453e+03	2.573622e+03	0	1.087361e-03
3.700000e+08	3.371946e+13	0.000000e+00	5.125629e-01	6.049361e+14	2.095186e+15	6.632566e+14	1.661003e+04	8.509856e+03	2.569517e+03	0	1.083241e-03
3.800000e+08	3.333854e+13	0.000000e+00	5.125629e-01	6.015725e+14	2.070538e+15	6.598470e+14	1.659828e+04	8.496555e+03	2.565501e+03	0	1.079146e-03
3.900000e+08	3.296279e+13	0.000000e+00	5.125629e-01	5.982527e+14	2.046582e+15	6.564620e+14	1.658660e+04	8.483540e+03	2.561571e+03	0	1.075077e-03
4.000000e+08	3.259207e+13	0.000000e+00	5.125629e-01	5.949756e+14	2.023289e+15	6.531014e+14	1.657498e+04	8.470800e+03	2.557724e+03	0	1.071031e-03
4.100000e+08	3.222628e+13	0.000000e+00	5.125629e-01	5.917401e+14	2.000629e+15	6.497651e+14	1.656343e+04	8.458327e+03	2.553958e+03	0	1.067009e-03
4.200000e+08	3.186529e+13	0.000000e+00	5.125629e-01	5.885455e+14	1.978578e+15	6.464529e+14	1.655194e+04	8.446111e+03	2.550269e+03	0	1.063010e-03
4.300000e+08	3.150900e+13	0.000000e+00	5.125629e-01	5.853907e+14	1.957110e+15	6.431645e+14	1.654051e+04	8.434144e+03	2.546656e+03	0	1.059033e-03
4.400000e+08	3.115730e+13	0.000000e+00	5.125629e-01	5.822748e+14	1.936201e+15	6.398997e+14	1.652915e+04	8.422417e+03	2.543115e+03	0	1.055078e-03
4.500000e+08	3.081009e+13	0.000000e+00	5.125629e-01	5.791970e+14	1.915829e+15	6.366584e+14	1.651784e+04	8.410923e+03	2.539644e+03	0	1.051145e-03
4.600000e+08	3.046726e+13	0.000000e+00	5.125629e-01	5.761564e+14	1.895974e+15	6.334404e+14	1.650659e+04	8.399653e+03	2.536241e+03	0	1.047231e-03
4.700000e+08	3.012872e+13	0.000000e+00	5.125629e-01	5.731523e+14	1.876614e+15	6.302455e+14	1.649541e+04	8.388602e+03	2.532904e+03	0	1.043338e-03
4.800000e+08	2.979438e+13	0.000000e+00	5.125629e-01	5.701839e+14	1.857731e+15	6.270734e+14	1.648428e+04	8.377760e+03	2.529631e+03	0	1.039464e-03
4.900000e+08	2.946414e+13	0.000000e+00	5.125629e-01	5.672503e+14	1.839306e+15	6.239241e+14	1.647321e+04	8.367123e+03	2.526419e+03	0	1.035610e-03
5.000000e+08	2.913793e+13	0.000000e+00	5.125629e-01	5.643508e+14	1.821323e+15	6.207973e+14	1.646219e+04	8.356684e+03	2.523267e+03	0	1.031773e-03
5.100000e+08	2.881564e+13	0.000000e+00	5.125629e-01	5.614848e+14	1.803765e+15	6.176928e+14	1.645123e+04	8.346436e+03	2.520173e+03	0	1.027955e-03
5.200000e+08	2.849720e+13	0.000000e+00	5.125629e-01	5.586515e+14	1.786616e+15	6.146105e+14	1.644033e+04	8.336374e+03	2.517134e+03	0	1.024155e-03
5.300000e+08	2.818252e+13	0.000000e+00	5.125629e-01	5.558503e+14	1.769861e+15	6.115501e+14	1.642948e+04	8.326491e+03	2.514151e+03	0	1.020371e-03
5.400000e+08	2.787154e+13	0.000000e+00	5.125629e-01	5.530805e+14	1.753486e+15	6.085116e+14	1.641869e+04	8.316784e+03	2.511219e+03	0	1.016604e-03
5.500000e+08	2.756417e+13	0.000000e+00	5.125629e-01	5.503415e+14	1.737478e+15	6.054947e+14	1.640795e+04	8.307245e+03	2.508339e+03	0	1.012853e-03
5.600000e+08	2.726034e+13	0.000000e+00	5.125629e-01	5.476326e+14	1.721824e+15	6.024992e+14	1.639726e+04	8.297871e+03	2.505509e+03	0	1.009118e-03
5.700000e+08	2.695998e+13	0.000000e+00	5.125629e-01	5.449533e+14	1.706511e+15	5.995250e+14	1.638662e+04	8.288656e+03	2.502726e+03	0	1.005398e-03
5.800000e+08	2.666302e+13	0.000000e+00	5.125629e-01	5.423030e+14	1.691528e+15	5.965719e+14	1.637604e+04	8.279597e+03	2.499991e+03	0	1.001693e-03
5.900000e+08	2.636940e+13	0.000000e+00	5.125629e-01	5.396810e+14	1.676863e+15	5.936397e+14	1.636551e+04	8.270687e+03	2.497301e+03	0	9.980023e-04
6.000000e+08	2.607904e+13	0.000000e+00	5.125629e-01	5.370870e+14	1.662506e+15	5.907283e+14	1.635503e+04	8.261924e+03	2.494655e+03	0	9.943257e-04
6.100000e+08	2.579188e+13	0.000000e+00	5.125629e-01	5.345202e+14	1.648447e+15	5.878375e+14	1.634460e+04	8.253302e+03	2.492051e+03	0	9.906627e-04
6.200000e+08	2.550787e+13	0.000000e+00	5.125629e-01	5.319803e+14	1.634675e+15	5.849671e+14	1.633422e+04	8.244819e+03	2.489490e+03	0	9.870130e-04
6.300000e+08	2.522693e+13	0.000000e+00	5.125629e-01	5.294667e+14	1.621181e+15	5.821170e+14	1.632389e+04	8.236470e+03	2.486969e+03	0	9.833761e-04
6.400000e+08	2.494903e+13	0.000000e+00	5.125629e-01	5.269790e+14	1.607957e+15	5.792869e+14	1.631361e+04	8.228251e+03	2.484487e+03	0	9.797517e-04
6.500000e+08	2.467409e+13	0.000000e+00	5.125629e-01	5.245165e+14	1.594994e+15	5.764768e+14	1.630337e+04	8.220159e+03	2.482044e+03	0	9.761394e-04
6.600000e+08	2.440206e+13	0.000000e+00	5.125629e-01	5.220790e+14	1.582283e+15	5.736865e+14	1.629319e+04	8.212190e+03	2.479638e+03	0	9.725389e-04
6.700000e+08	2.413289e+13	0.000000e+00	5.125629e-01	5.196659e+14	1.569816e+15	5.709158e+14	1.628305e+04	8.204341e+03	2.477268e+03	0	9.689498e-04
6.800000e+08	2.386653e+13	0.000000e+00	5.125629e-01	5.172768e+14	1.557587e+15	5.681646e+14	1.627295e+04	8.196609e+03	2.474933e+03	0	9.653717e-04
6.900000e+08	2.360292e+13	0.000000e+00	5.125629e-01	5.149113e+14	1.545587e+15	5.654327e+14	1.626291e+04	8.188992e+03	2.472633e+03	0	9.618043e-04
7.000000e+08	2.334202e+13	0.000000e+00	5.125629e-01	5.125689e+14	1.533810e+15	5.627199e+14	1.625291e+04	8.181484e+03	2.470366e+03	0	9.582474e-04
7.100000e+08	2.308378e+13	0.000000e+00	5.125629e-01	5.102493e+14	1.522249e+15	5.600261e+14	1.624295e+04	8.174085e+03	2.468132e+03	0	9.547004e-04
7.200000e+08	2.282815e+13	0.000000e+00	5.125629e-01	5.079520e+14	1.510897e+15	5.573511e+14	1.623304e+04	8.166791e+03	2.465930e+03	0	9.511632e-04
7.300000e+08	2.257508e+13	0.000000e+00	5.125629e-01	5.056767e+14	1.499750e+15	5.546948e+14	1.622318e+04	8.159599e+03	2.463758e+03	0	9.476354e-04
7.400000e+08	2.232454e+13	0.000000e+00	5.125629e-01	5.034230e+14	1.488799e+15	5.520571e+14	1.621336e+04	8.152507e+03	2.461617e+03	0	9.441166e-04
7.500000e+08	2.207647e+13	0.000000e+00	5.125629e-01	5.011906e+14	1.478041e+15	5.494378e+14	1.620358e+04	8.145513e+03	2.459505e+03	0	9.406066e-04
7.600000e+08	2.183084e+13	0.000000e+00	5.125629e-01	4.989790e+14	1.467468e+15	5.468367e+14	1.619385e+04	8.138613e+03	2.457421e+03	0	9.371051e-04
7.700000e+08	2.158761e+13	0.000000e+00	5.125629e-01	4.967880e+14	1.457077e+15	5.442537e+14	1.618416e+04	8.131806e+03	2.455366e+03	0	9.336118e-04
7.800000e+08	2.134673e+13	0.000000e+00	5.125629e-01	4.946172e+14	1.446862e+15	5.416887e+14	1.617451e+04	8.125089e+03	2.453338e+03	0	9.301263e-04
7.900000e+08	2.110816e+13	0.000000e+00	5.125629e-01	4.924662e+14	1.436817e+15	5.391414e+14	1.616490e+04	8.118460e+03	2.451336e+03	0	9.266484e-04
8.000000e+08	2.087188e+13	0.000000e+00	5.125629e-01	4.903348e+14	1.426939e+15	5.366119e+14	1.615534e+04	8.111917e+03	2.449361e+03	0	9.231777e-04
8.100000e+08	2.063783e+13	0.000000e+00	5.125629e-01	4.882226e+14	1.417223e+15	5.340999e+14	1.614581e+04	8.105457e+03	2.447410e+03	0	9.197141e-04
8.200000e+08	2.040599e+13	0.000000e+00	5.125629e-01	4.861293e+14	1.407664e+15	5.316052e+14	1.613633e+04	8.099080e+03	2.445485e+03	0	9.162571e-04
8.300000e+08	2.017631e+13	0.000000e+00	5.125629e-01	4.840547e+14	1.398259e+15	5.291278e+14	1.612689e+04	8.092782e+03	2.443583e+03	0	9.128066e-04
8.400000e+08	1.994877e+13	0.000000e+00	5.125629e-01	4.819984e+14	1.389002e+15	5.266675e+14	1.611749e+04	8.086563e+03	2.441705e+03	0	9.093622e-04
8.500000e+08	1.972333e+13	0.000000e+00	5.125629e-01	4.799602e+14	1.379891e+15	5.242242e+14	1.610813e+04	8.080419e+03	2.439850e+03	0	9.059236e-04
8.600000e+08	1.949996e+13	0.000000e+00	5.125629e-01	4.779398e+14	1.370922e+15	5.217978e+14	1.609880e+04	8.074351e+03	2.438018e+03	0	9.024907e-04
8.700000e+08	1.927862e+13	0.000000e+00	5.125629e-01	4.759368e+14	1.362090e+15	5.193880e+14	1.608952e+04	8.068354e+03	2.436207e+03	0	8.990631e-04
8.800000e+08	1.905929e+13	0.000000e+00	5.125629e-01	4.739511e+14	1.353392e+15	5.169948e+14	1.608028e+04	8.062429e+03	2.434418e+03	0	8.956405e-04
8.900000e+08	1.884193e+13	0.000000e+00	5.125629e-01	4.719824e+14	1.344825e+15	5.146181e+14	1.607107e+04	8.056573e+03	2.432650e+03	0	8.922227e-04
9.000000e+08	1.862651e+13	0.000000e+00	5.125629e-01	4.700304e+14	1.336386e+15	5.122576e+14	1.606190e+04	8.050785e+03	2.430902e+03	0	8.888095e-04
9.100000e+08	1.841301e+13	0.000000e+00	5.125629e-01	4.680949e+14	1.328071e+15	5.099134e+14	1.605277e+04	8.045064e+03	2.429175e+03	0	8.854005e-04
9.200000e+08	1.820139e+13	0.000000e+00	5.125629e-01	4.661756e+14	1.319878e+15	5.075852e+14	1.604368e+04	8.039407e+03	2.427467e+03	0	8.819954e-04
9.300000e+08	1.799163e+13	0.000000e+00	5.125629e-01	4.642724e+14	1.311803e+15	5.052729e+14	1.603463e+04	8.033814e+03	2.425778e+03	0	8.785942e-04
9.400000e+08	1.778370e+13	0.000000e+00	5.125629e-01	4.623849e+14	1.303843e+15	5.029764e+14	1.602561e+04	8.028283e+03	2.424108e+03	0	8.751964e-04
9.500000e+08	1.757757e+13	0.000000e+00	5.125629e-01	4.605129e+14	1.295996e+15	5.006956e+14	1.601663e+04	8.022812e+03	2.422456e+03	0	8.718018e-04
9.600000e+08	1.737322e+13	0.000000e+00	5.125629e-01	4.586563e+14	1.288259e+15	4.984304e+14	1.600768e+04	8.017401e+03	2.420822e+03	0	8.684102e-04
9.700000e+08	1.717062e+13	0.000000e+00	5.125629e-01	4.568148e+14	1.280630e+15	4.961806e+14	1.599877e+04	8.012048e+03	2.419206e+03	0	8.650212e-04
9.800000e+08	1.696974e+13	0.000000e+00	5.125629e-01	4.549882e+14	1.273106e+15	4.939461e+14	1.598990e+04	8.006752e+03	2.417607e+03	0	8.616348e-04
9.900000e+08	1.677057e+13	0.000000e+00	5.125629e-01	4.531762e+14	1.265684e+15	4.917267e+14	1.598106e+04	8.001512e+03	2.416024e+03	0	8.582505e-04
1.000000e+09	1.657307e+13	0.000000e+00	5.125629e-01	4.513788e+14	1.258362e+15	4.895225e+14	1.597226e+04	7.996326e+03	2.414459e+03	0	8.548682e-04
1.010000e+09	1.637723e+13	0.000000e+00	5.125629e-01	4.495956e+14	1.251138e+15	4.873332e+14	1.596349e+04	7.991194e+03	2.412909e+03	0	8.514876e-04
1.020000e+09	1.618302e+13	0.000000e+00	5.125629e-01	4.478266e+14	1.244010e+15	4.851587e+14	1.595476e+04	7.986114e+03	2.411375e+03	0	8.481084e-04
1.030000e+09	1.599042e+13	0.000000e+00	5.125629e-01	4.460714e+14	1.236975e+15	4.829990e+14	1.594606e+04	7.981086e+03	2.409857e+03	0	8.447303e-04
1.040000e+09	1.579940e+13	0.000000e+00	5.125629e-01	4.443300e+14	1.230032e+15	4.808538e+14	1.593740e+04	7.976107e+03	2.408353e+03	0	8.413533e-04
1.050000e+09	1.560995e+13	0.000000e+00	5.125629e-01	4.426021e+14	1.223178e+15	4.787231e+14	1.592876e+04	7.971178e+03	2.406865e+03	0	8.379768e-04
1.060000e+09	1.542205e+13	0.000000e+00	5.125629e-01	4.408875e+14	1.216411e+15	4.766068e+14	1.592017e+04	7.966297e+03	2.405391e+03	0	8.346008e-04
1.070000e+09	1.523566e+13	0.000000e+00	5.125629e-01	4.391861e+14	1.209730e+15	4.745048e+14	1.591160e+04	7.961463e+03	2.403932e+03	0	8.312250e-04
1.080000e+09	1.505078e+13	0.000000e+00	5.125629e-01	4.374977e+14	1.203133e+15	4.724169e+14	1.590307e+04	7.956675e+03	2.402486e+03	0	8.278491e-04
1.090000e+09	1.486738e+13	0.000000e+00	5.125629e-01	4.358222e+14	1.196618e+15	4.703430e+14	1.589457e+04	7.951933e+03	2.401054e+03	0	8.244728e-04
1.100000e+09	1.468545e+13	0.000000e+00	5.125629e-01	4.341594e+14	1.190183e+15	4.682831e+14	1.588611e+04	7.947236e+03	2.399636e+03	0	8.210959e-04
1.110000e+09	1.450496e+13	0.000000e+00	5.125629e-01	4.325090e+14	1.183826e+15	4.662369e+14	1.587767e+04	7.942582e+03	2.398231e+03	0	8.177182e-04
1.120000e+09	1.432589e+13	0.000000e+00	5.125629e-01	4.308710e+14	1.177547e+15	4.642045e+14	1.586927e+04	7.937971e+03	2.396838e+03	0	8.143393e-04
1.130000e+09	1.414824e+13	0.000000e+00	5.125629e-01	4.292452e+14	1.171343e+15	4.621857e+14	1.586090e+04	7.933402e+03	2.395459e+03	0	8.109590e-04
1.140000e+09	1.397197e+13	0.000000e+00	5.125629e-01	4.276314e+14	1.165212e+15	4.601804e+14	1.585256e+04	7.928874e+03	2.394092e+03	0	8.075771e-04
1.150000e+09	1.379707e+13	0.000000e+00	5.125629e-01	4.260296e+14	1.159154e+15	4.581884e+14	1.584426e+04	7.924387e+03	2.392737e+03	0	8.041933e-04
1.160000e+09	1.362353e+13	0.000000e+00	5.125629e-01	4.244395e+14	1.153167e+15	4.562098e+14	1.583598e+04	7.919939e+03	2.391394e+03	0	8.008073e-04
1.170000e+09	1.345132e+13	0.000000e+00	5.125629e-01	4.228609e+14	1.147249e+15	4.542443e+14	1.582774e+04	7.915530e+03	2.390062e+03	0	7.974188e-04
1.180000e+09	1.328044e+13	0.000000e+00	5.125629e-01	4.212939e+14	1.141399e+15	4.522919e+14	1.581952e+04	7.911160e+03	2.388743e+03	0	7.940276e-04
1.190000e+09	1.311085e+13	0.000000e+00	5.125629e-01	4.197381e+14	1.135616e+15	4.503525e+14	1.581134e+04	7.906827e+03	2.387434e+03	0	7.906334e-04
1.200000e+09	1.294256e+13	0.000000e+00	5.125629e-01	4.181936e+14	1.129898e+15	4.484260e+14	1.580318e+04	7.902530e+03	2.386137e+03	0	7.872359e-04
1.210000e+09	1.277554e+13	0.000000e+00	5.125629e-01	4.166601e+14	1.124244e+15	4.465123e+14	1.579506e+04	7.898271e+03	2.384851e+03	0	7.838349e-04
1.220000e+09	1.260977e+13	0.000000e+00	5.125629e-01	4.151375e+14	1.118653e+15	4.446112e+14	1.578696e+04	7.894046e+03	2.383575e+03	0	7.804300e-04
1.230000e+09	1.244525e+13	0.000000e+00	5.125629e-01	4.136257e+14	1.113124e+15	4.427227e+14	1.577890e+04	7.889857e+03	2.382310e+03	0	7.770209e-04
1.240000e+09	1.228196e+13	0.000000e+00	5.125629e-01	4.121246e+14	1.107656e+15	4.408467e+14	1.577087e+04	7.885701e+03	2.381056e+03	0	7.736075e-04
1.250000e+09	1.211987e+13	0.000000e+00	5.125629e-01	4.106340e+14	1.102247e+15	4.389830e+14	1.576286e+04	7.881580e+03	2.379811e+03	0	7.701893e-04
1.260000e+09	1.195898e+13	0.000000e+00	5.125629e-01	4.091538e+14	1.096896e+15	4.371317e+14	1.575488e+04	7.877492e+03	2.378577e+03	0	7.667661e-04
1.270000e+09	1.179928e+13	0.000000e+00	5.125629e-01	4.076840e+14	1.091603e+15	4.352925e+14	1.574693e+04	7.873436e+03	2.377352e+03	0	7.633376e-04
1.280000e+09	1.164075e+13	0.000000e+00	5.125629e-01	4.062243e+14	1.086365e+15	4.334655e+14	1.573901e+04	7.869412e+03	2.376137e+03	0	7.599034e-04
1.290000e+09	1.148337e+13	0.000000e+00	5.125629e-01	4.047746e+14	1.081183e+15	4.316504e+14	1.573112e+04	7.865419e+03	2.374932e+03	0	7.564634e-04
1.300000e+09	1.132713e+13	0.000000e+00	5.125629e-01	4.033349e+14	1.076055e+15	4.298473e+14	1.572326e+04	7.861458e+03	2.373736e+03	0	7.530170e-04
1.310000e+09	1.117202e+13	0.000000e+00	5.125629e-01	4.019051e+14	1.070981e+15	4.280560e+14	1.571542e+04	7.857527e+03	2.372549e+03	0	7.495641e-04
1.320000e+09	1.101803e+13	0.000000e+00	5.125629e-01	4.004850e+14	1.065958e+15	4.262764e+14	1.570761e+04	7.853626e+03	2.371371e+03	0	7.461043e-04
1.330000e+09	1.086515e+13	0.000000e+00	5.125629e-01	3.990745e+14	1.060987e+15	4.245085e+14	1.569983e+04	7.849754e+03	2.370201e+03	0	7.426372e-04
1.340000e+09	1.071335e+13	0.000000e+00	5.125629e-01	3.976735e+14	1.056066e+15	4.227521e+14	1.569208e+04	7.845911e+03	2.369041e+03	0	7.391625e-04
1.350000e+09	1.056264e+13	0.000000e+00	5.125629e-01	3.962819e+14	1.051195e+15	4.210071e+14	1.568436e+04	7.842096e+03	2.367889e+03	0	7.356799e-04
1.360000e+09	1.041299e+13	0.000000e+00	5.125629e-01	3.948996e+14	1.046373e+15	4.192736e+14	1.567666e+04	7.838309e+03	2.366746e+03	0	7.321891e-04
