#t		Qconv[W]	Ri[Rp]		R*[Rp]		Qc[W]		Qm[W]		Qr[W]		Tcmb[K]		Tl[K]		Tup[K]		RiFlag		Bs[T]
0.000000e+00	5.507666e+13	0.000000e+00	5.125627e-01	8.227988e+14	4.017677e+15	8.334421e+14	1.762514e+04	9.634717e+03	2.849101e+03	0	1.276797e-03
1.000000e+07	5.435537e+13	0.000000e+00	5.125627e-01	8.166160e+14	3.917892e+15	8.288242e+14	1.760996e+04	9.597793e+03	2.838183e+03	0	1.271199e-03
2.000000e+07	5.364717e+13	0.000000e+00	5.125627e-01	8.105420e+14	3.823331e+15	8.242408e+14	1.759489e+04	9.562249e+03	2.827672e+03	0	1.265654e-03
3.000000e+07	5.295179e+13	0.000000e+00	5.125627e-01	8.045746e+14	3.733609e+15	8.196917e+14	1.757994e+04	9.528004e+03	2.817545e+03	0	1.260162e-03
4.000000e+07	5.226897e+13	0.000000e+00	5.125627e-01	7.987115e+14	3.648377e+15	8.151766e+14	1.756509e+04	9.494987e+03	2.807782e+03	0	1.254722e-03
5.000000e+07	5.159843e+13	0.000000e+00	5.125627e-01	7.929504e+14	3.567316e+15	8.106952e+14	1.755035e+04	9.463132e+03	2.798362e+03	0	1.249333e-03
6.000000e+07	5.093987e+13	0.000000e+00	5.125627e-01	7.872890e+14	3.490138e+15	8.062471e+14	1.753572e+04	9.432376e+03	2.789267e+03	0	1.243995e-03
7.000000e+07	5.029302e+13	0.000000e+00	5.125627e-01	7.817248e+14	3.416578e+15	8.018322e+14	1.752119e+04	9.402661e+03	2.780480e+03	0	1.238707e-03
8.000000e+07	4.965759e+13	0.000000e+00	5.125627e-01	7.762556e+14	3.346395e+15	7.974501e+14	1.750677e+04	9.373934e+03	2.771985e+03	0	1.233468e-03
9.000000e+07	4.903328e+13	0.000000e+00	5.125627e-01	7.708790e+14	3.279368e+15	7.931006e+14	1.749245e+04	9.346145e+03	2.763767e+03	0	1.228277e-03
1.000000e+08	4.841983e+13	0.000000e+00	5.125627e-01	7.655926e+14	3.215293e+15	7.887834e+14	1.747822e+04	9.319247e+03	2.755813e+03	0	1.223133e-03
1.100000e+08	4.781695e+13	0.000000e+00	5.125627e-01	7.603942e+14	3.153985e+15	7.844982e+14	1.746409e+04	9.293196e+03	2.748110e+03	0	1.218036e-03
1.200000e+08	4.722436e+13	0.000000e+00	5.125627e-01	7.552814e+14	3.095273e+15	7.802448e+14	1.745006e+04	9.267951e+03	2.740644e+03	0	1.212983e-03
1.300000e+08	4.664180e+13	0.000000e+00	5.125627e-01	7.502522e+14	3.038997e+15	7.760229e+14	1.743612e+04	9.243475e+03	2.733406e+03	0	1.207975e-03
1.400000e+08	4.606901e+13	0.000000e+00	5.125627e-01	7.453042e+14	2.985012e+15	7.718322e+14	1.742228e+04	9.219730e+03	2.726385e+03	0	1.203009e-03
1.500000e+08	4.550573e+13	0.000000e+00	5.125627e-01	7.404354e+14	2.933184e+15	7.676725e+14	1.740852e+04	9.196685e+03	2.719570e+03	0	1.198086e-03
1.600000e+08	4.495171e+13	0.000000e+00	5.125627e-01	7.356438e+14	2.883388e+15	7.635435e+14	1.739486e+04	9.174306e+03	2.712952e+03	0	1.193204e-03
1.700000e+08	4.440671e+13	0.000000e+00	5.125627e-01	7.309273e+14	2.835508e+15	7.594450e+14	1.738128e+04	9.152565e+03	2.706523e+03	0	1.188362e-03
1.800000e+08	4.387049e+13	0.000000e+00	5.125627e-01	7.262840e+14	2.789437e+15	7.553768e+14	1.736779e+04	9.131432e+03	2.700274e+03	0	1.183560e-03
1.900000e+08	4.334282e+13	0.000000e+00	5.125627e-01	7.217120e+14	2.745076e+15	7.513384e+14	1.735439e+04	9.110883e+03	2.694197e+03	0	1.178795e-03
2.000000e+08	4.282347e+13	0.000000e+00	5.125627e-01	7.172094e+14	2.702331e+15	7.473298e+14	1.734107e+04	9.090891e+03	2.688286e+03	0	1.174068e-03
2.100000e+08	4.231224e+13	0.000000e+00	5.125627e-01	7.127745e+14	2.661117e+15	7.433507e+14	1.732783e+04	9.071434e+03	2.682532e+03	0	1.169377e-03
2.200000e+08	4.180891e+13	0.000000e+00	5.125627e-01	7.084055e+14	2.621353e+15	7.394008e+14	1.731468e+04	9.052488e+03	2.676929e+03	0	1.164722e-03
2.300000e+08	4.131328e+13	0.000000e+00	5.125627e-01	7.041008e+14	2.582965e+15	7.354799e+14	1.730160e+04	9.034034e+03	2.671472e+03	0	1.160101e-03
2.400000e+08	4.082515e+13	0.000000e+00	5.125627e-01	6.998587e+14	2.545881e+15	7.315877e+14	1.728861e+04	9.016050e+03	2.666154e+03	0	1.155514e-03
2.500000e+08	4.034433e+13	0.000000e+00	5.125627e-01	6.956776e+14	2.510038e+15	7.277241e+14	1.727569e+04	8.998519e+03	2.660970e+03	0	1.150960e-03
2.600000e+08	3.987064e+13	0.000000e+00	5.125627e-01	6.915561e+14	2.475372e+15	7.238887e+14	1.726285e+04	8.981422e+03	2.655914e+03	0	1.146438e-03
2.700000e+08	3.940390e+13	0.000000e+00	5.125627e-01	6.874926e+14	2.441827e+15	7.200813e+14	1.725009e+04	8.964743e+03	2.650982e+03	0	1.141946e-03
2.800000e+08	3.894393e+13	0.000000e+00	5.125627e-01	6.834858e+14	2.409350e+15	7.163018e+14	1.723740e+04	8.948465e+03	2.646169e+03	0	1.137486e-03
2.900000e+08	3.849057e+13	0.000000e+00	5.125627e-01	6.795342e+14	2.377889e+15	7.125498e+14	1.722478e+04	8.932574e+03	2.641469e+03	0	1.133054e-03
3.000000e+08	3.804365e+13	0.000000e+00	5.125627e-01	6.756365e+14	2.347397e+15	7.088252e+14	1.721224e+04	8.917054e+03	2.636880e+03	0	1.128652e-03
3.100000e+08	3.760302e+13	0.000000e+00	5.125627e-01	6.717914e+14	2.317829e+15	7.051278e+14	1.719977e+04	8.901891e+03	2.632396e+03	0	1.124278e-03
3.200000e+08	3.716852e+13	0.000000e+00	5.125627e-01	6.679977e+14	2.289143e+15	7.014572e+14	1.718737e+04	8.887073e+03	2.628014e+03	0	1.119931e-03
3.300000e+08	3.674002e+13	0.000000e+00	5.125627e-01	6.642541e+14	2.261301e+15	6.978133e+14	1.717504e+04	8.872588e+03	2.623731e+03	0	1.115610e-03
3.400000e+08	3.631736e+13	0.000000e+00	5.125627e-01	6.605595e+14	2.234263e+15	6.941959e+14	1.716278e+04	8.858422e+03	2.619542e+03	0	1.111316e-03
3.500000e+08	3.590041e+13	0.000000e+00	5.125627e-01	6.569127e+14	2.207996e+15	6.906047e+14	1.715058e+04	8.844566e+03	2.615444e+03	0	1.107046e-03
3.600000e+08	3.548903e+13	0.000000e+00	5.125627e-01	6.533126e+14	2.182466e+15	6.870396e+14	1.713846e+04	8.831007e+03	2.611435e+03	0	1.102802e-03
3.700000e+08	3.508311e+13	0.000000e+00	5.125627e-01	6.497582e+14	2.157642e+15	6.835003e+14	1.712640e+04	8.817736e+03	2.607511e+03	0	1.098581e-03
3.800000e+08	3.468250e+13	0.000000e+00	5.125627e-01	6.462484e+14	2.133493e+15	6.799866e+14	1.711440e+04	8.804743e+03	2.603668e+03	0	1.094383e-03
3.900000e+08	3.428709e+13	0.000000e+00	5.125627e-01	6.427823e+14	2.109993e+15	6.764983e+14	1.710248e+04	8.792018e+03	2.599905e+03	0	1.090208e-03
4.000000e+08	3.389677e+13	0.000000e+00	5.125627e-01	6.393587e+14	2.087114e+15	6.730352e+14	1.709061e+04	8.779553e+03	2.596219e+03	0	1.086056e-03
4.100000e+08	3.351141e+13	0.000000e+00	5.125627e-01	6.359769e+14	2.064832e+15	6.695970e+14	1.707881e+04	8.767338e+03	2.592607e+03	0	1.081924e-03
4.200000e+08	3.313091e+13	0.000000e+00	5.125627e-01	6.326359e+14	2.043121e+15	6.661837e+14	1.706707e+04	8.755365e+03	2.589067e+03	0	1.077814e-03
4.300000e+08	3.275517e+13	0.000000e+00	5.125627e-01	6.293348e+14	2.021961e+15	6.627949e+14	1.705539e+04	8.743627e+03	2.585595e+03	0	1.073724e-03
4.400000e+08	3.238408e+13	0.000000e+00	5.125627e-01	6.260728e+14	2.001329e+15	6.594305e+14	1.704377e+04	8.732116e+03	2.582191e+03	0	1.069654e-03
4.500000e+08	3.201753e+13	0.000000e+00	5.125627e-01	6.228490e+14	1.981205e+15	6.560903e+14	1.703221e+04	8.720824e+03	2.578852e+03	0	1.065603e-03
4.600000e+08	3.165543e+13	0.000000e+00	5.125627e-01	6.196626e+14	1.961570e+15	6.527741e+14	1.702072e+04	8.709745e+03	2.575576e+03	0	1.061570e-03
4.700000e+08	3.129770e+13	0.000000e+00	5.125627e-01	6.165129e+14	1.942405e+15	6.494816e+14	1.700928e+04	8.698872e+03	2.572361e+03	0	1.057556e-03
4.800000e+08	3.094422e+13	0.000000e+00	5.125627e-01	6.133990e+14	1.923692e+15	6.462127e+14	1.699790e+04	8.688199e+03	2.569205e+03	0	1.053560e-03
4.900000e+08	3.059493e+13	0.000000e+00	5.125627e-01	6.103204e+14	1.905416e+15	6.429673e+14	1.698657e+04	8.677719e+03	2.566106e+03	0	1.049581e-03
5.000000e+08	3.024972e+13	0.000000e+00	5.125627e-01	6.072761e+14	1.887560e+15	6.397450e+14	1.697531e+04	8.667427e+03	2.563062e+03	0	1.045618e-03
5.100000e+08	2.990853e+13	0.000000e+00	5.125627e-01	6.042656e+14	1.870109e+15	6.365458e+14	1.696409e+04	8.657317e+03	2.560072e+03	0	1.041672e-03
5.200000e+08	2.957126e+13	0.000000e+00	5.125627e-01	6.012882e+14	1.853048e+15	6.333694e+14	1.695294e+04	8.647383e+03	2.557135e+03	0	1.037742e-03
5.300000e+08	2.923783e+13	0.000000e+00	5.125627e-01	5.983432e+14	1.836365e+15	6.302156e+14	1.694184e+04	8.637620e+03	2.554248e+03	0	1.033827e-03
5.400000e+08	2.890818e+13	0.000000e+00	5.125627e-01	5.954300e+14	1.820045e+15	6.270844e+14	1.693079e+04	8.628023e+03	2.551410e+03	0	1.029927e-03
5.500000e+08	2.858222e+13	0.000000e+00	5.125627e-01	5.925480e+14	1.804077e+15	6.239754e+14	1.691980e+04	8.618588e+03	2.548620e+03	0	1.026041e-03
5.600000e+08	2.825989e+13	0.000000e+00	5.125627e-01	5.896965e+14	1.788448e+15	6.208885e+14	1.690886e+04	8.609310e+03	2.545876e+03	0	1.022169e-03
5.700000e+08	2.794111e+13	0.000000e+00	5.125627e-01	5.868750e+14	1.773146e+15	6.178235e+14	1.689797e+04	8.600184e+03	2.543178e+03	0	1.018311e-03
5.800000e+08	2.762582e+13	0.000000e+00	5.125627e-01	5.840830e+14	1.758162e+15	6.147802e+14	1.688714e+04	8.591205e+03	2.540523e+03	0	1.014467e-03
5.900000e+08	2.731395e+13	0.000000e+00	5.125627e-01	5.813198e+14	1.743484e+15	6.117586e+14	1.687636e+04	8.582371e+03	2.537910e+03	0	1.010635e-03
6.000000e+08	2.700544e+13	0.000000e+00	5.125627e-01	5.785850e+14	1.729103e+15	6.087583e+14	1.686562e+04	8.573676e+03	2.535339e+03	0	1.006815e-03
6.100000e+08	2.670021e+13	0.000000e+00	5.125627e-01	5.758780e+14	1.715008e+15	6.057793e+14	1.685494e+04	8.565117e+03	2.532808e+03	0	1.003008e-03
6.200000e+08	2.639822e+13	0.000000e+00	5.125627e-01	5.731984e+14	1.701192e+15	6.028213e+14	1.684431e+04	8.556690e+03	2.530316e+03	0	9.992119e-04
6.300000e+08	2.609941e+13	0.000000e+00	5.125627e-01	5.705455e+14	1.687644e+15	5.998841e+14	1.683373e+04	8.548392e+03	2.527862e+03	0	9.954273e-04
6.400000e+08	2.580370e+13	0.000000e+00	5.125627e-01	5.679190e+14	1.674357e+15	5.969677e+14	1.682319e+04	8.540218e+03	2.525445e+03	0	9.916537e-04
6.500000e+08	2.551106e+13	0.000000e+00	5.125627e-01	5.653184e+14	1.661322e+15	5.940719e+14	1.681271e+04	8.532167e+03	2.523064e+03	0	9.878906e-04
6.600000e+08	2.522142e+13	0.000000e+00	5.125627e-01	5.627432e+14	1.648532e+15	5.911964e+14	1.680227e+04	8.524234e+03	2.520718e+03	0	9.841376e-04
6.700000e+08	2.493473e+13	0.000000e+00	5.125627e-01	5.601930e+14	1.635980e+15	5.883411e+14	1.679188e+04	8.516416e+03	2.518407e+03	0	9.803945e-04
6.800000e+08	2.465093e+13	0.000000e+00	5.125627e-01	5.576673e+14	1.623657e+15	5.855059e+14	1.678154e+04	8.508711e+03	2.516128e+03	0	9.766609e-04
6.900000e+08	2.436999e+13	0.000000e+00	5.125627e-01	5.551657e+14	1.611558e+15	5.826906e+14	1.677124e+04	8.501116e+03	2.513882e+03	0	9.729365e-04
7.000000e+08	2.409185e+13	0.000000e+00	5.125627e-01	5.526879e+14	1.599676e+15	5.798950e+14	1.676099e+04	8.493626e+03	2.511667e+03	0	9.692208e-04
7.100000e+08	2.381646e+13	0.000000e+00	5.125627e-01	5.502334e+14	1.588004e+15	5.771190e+14	1.675079e+04	8.486241e+03	2.509483e+03	0	9.655136e-04
7.200000e+08	2.354377e+13	0.000000e+00	5.125627e-01	5.478019e+14	1.576536e+15	5.743624e+14	1.674063e+04	8.478958e+03	2.507330e+03	0	9.618146e-04
7.300000e+08	2.327374e+13	0.000000e+00	5.125627e-01	5.453929e+14	1.565267e+15	5.716251e+14	1.673051e+04	8.471773e+03	2.505205e+03	0	9.581233e-04
7.400000e+08	2.300633e+13	0.000000e+00	5.125627e-01	5.430060e+14	1.554190e+15	5.689068e+14	1.672044e+04	8.464684e+03	2.503109e+03	0	9.544396e-04
7.500000e+08	2.274148e+13	0.000000e+00	5.125627e-01	5.406410e+14	1.543301e+15	5.662075e+14	1.671042e+04	8.457689e+03	2.501040e+03	0	9.507630e-04
7.600000e+08	2.247917e+13	0.000000e+00	5.125627e-01	5.382975e+14	1.532594e+15	5.635271e+14	1.670043e+04	8.450786e+03	2.498999e+03	0	9.470933e-04
7.700000e+08	2.221934e+13	0.000000e+00	5.125627e-01	5.359751e+14	1.522065e+15	5.608652e+14	1.669049e+04	8.443973e+03	2.496984e+03	0	9.434301e-04
7.800000e+08	2.196196e+13	0.000000e+00	5.125627e-01	5.336735e+14	1.511708e+15	5.582219e+14	1.668060e+04	8.437246e+03	2.494995e+03	0	9.397732e-04
7.900000e+08	2.170699e+13	0.000000e+00	5.125627e-01	5.313924e+14	1.501518e+15	5.555969e+14	1.667074e+04	8.430605e+03	2.493031e+03	0	9.361222e-04
8.000000e+08	2.145439e+13	0.000000e+00	5.125627e-01	5.291314e+14	1.491492e+15	5.529902e+14	1.666093e+04	8.424047e+03	2.491092e+03	0	9.324769e-04
8.100000e+08	2.120412e+13	0.000000e+00	5.125627e-01	5.268903e+14	1.481624e+15	5.504015e+14	1.665116e+04	8.417571e+03	2.489177e+03	0	9.288369e-04
8.200000e+08	2.095615e+13	0.000000e+00	5.125627e-01	5.246686e+14	1.471912e+15	5.478307e+14	1.664143e+04	8.411173e+03	2.487285e+03	0	9.252019e-04
8.300000e+08	2.071044e+13	0.000000e+00	5.125627e-01	5.224663e+14	1.462349e+15	5.452777e+14	1.663175e+04	8.404853e+03	2.485416e+03	0	9.215717e-04
8.400000e+08	2.046695e+13	0.000000e+00	5.125627e-01	5.202828e+14	1.452934e+15	5.427423e+14	1.662210e+04	8.398609e+03	2.483569e+03	0	9.179459e-04
8.500000e+08	2.022566e+13	0.000000e+00	5.125627e-01	5.181180e+14	1.443662e+15	5.402244e+14	1.661249e+04	8.392439e+03	2.481745e+03	0	9.143242e-04
8.600000e+08	1.998652e+13	0.000000e+00	5.125627e-01	5.159716e+14	1.434529e+15	5.377239e+14	1.660292e+04	8.386340e+03	2.479942e+03	0	9.107064e-04
8.700000e+08	1.974951e+13	0.000000e+00	5.125627e-01	5.138434e+14	1.425532e+15	5.352406e+14	1.659340e+04	8.380313e+03	2.478159e+03	0	9.070922e-04
8.800000e+08	1.951459e+13	0.000000e+00	5.125627e-01	5.117329e+14	1.416668e+15	5.327743e+14	1.658391e+04	8.374355e+03	2.476397e+03	0	9.034813e-04
8.900000e+08	1.928174e+13	0.000000e+00	5.125627e-01	5.096401e+14	1.407932e+15	5.303251e+14	1.657446e+04	8.368464e+03	2.474655e+03	0	8.998734e-04
9.000000e+08	1.905091e+13	0.000000e+00	5.125627e-01	5.075645e+14	1.399323e+15	5.278926e+14	1.656505e+04	8.362639e+03	2.472933e+03	0	8.962681e-04
9.100000e+08	1.882210e+13	0.000000e+00	5.125627e-01	5.055061e+14	1.390837e+15	5.254768e+14	1.655568e+04	8.356879e+03	2.471229e+03	0	8.926653e-04
9.200000e+08	1.859525e+13	0.000000e+00	5.125627e-01	5.034645e+14	1.382471e+15	5.230775e+14	1.654634e+04	8.351182e+03	2.469545e+03	0	8.890647e-04
9.300000e+08	1.837035e+13	0.000000e+00	5.125627e-01	5.014395e+14	1.374223e+15	5.206947e+14	1.653704e+04	8.345547e+03	2.467878e+03	0	8.854659e-04
9.400000e+08	1.814737e+13	0.000000e+00	5.125627e-01	4.994309e+14	1.366088e+15	5.183281e+14	1.652778e+04	8.339973e+03	2.466230e+03	0	8.818686e-04
9.500000e+08	1.792627e+13	0.000000e+00	5.125627e-01	4.974384e+14	1.358066e+15	5.159777e+14	1.651856e+04	8.334457e+03	2.464599e+03	0	8.782727e-04
9.600000e+08	1.770705e+13	0.000000e+00	5.125627e-01	4.954619e+14	1.350152e+15	5.136433e+14	1.650938e+04	8.329000e+03	2.462985e+03	0	8.746777e-04
9.700000e+08	1.748966e+13	0.000000e+00	5.125627e-01	4.935010e+14	1.342346e+15	5.113248e+14	1.650023e+04	8.323599e+03	2.461388e+03	0	8.710835e-04
9.800000e+08	1.727408e+13	0.000000e+00	5.125627e-01	4.915557e+14	1.334643e+15	5.090221e+14	1.649111e+04	8.318254e+03	2.459808e+03	0	8.674896e-04
9.900000e+08	1.706028e+13	0.000000e+00	5.125627e-01	4.896256e+14	1.327043e+15	5.067351e+14	1.648204e+04	8.312964e+03	2.458243e+03	0	8.638960e-04
1.000000e+09	1.684826e+13	0.000000e+00	5.125627e-01	4.877106e+14	1.319542e+15	5.044635e+14	1.647299e+04	8.307727e+03	2.456695e+03	0	8.603021e-04
1.010000e+09	1.663797e+13	0.000000e+00	5.125627e-01	4.858105e+14	1.312138e+15	5.022074e+14	1.646399e+04	8.302542e+03	2.455161e+03	0	8.567079e-04
1.020000e+09	1.642939e+13	0.000000e+00	5.125627e-01	4.839251e+14	1.304830e+15	4.999666e+14	1.645502e+04	8.297408e+03	2.453643e+03	0	8.531129e-04
1.030000e+09	1.622251e+13	0.000000e+00	5.125627e-01	4.820541e+14	1.297615e+15	4.977409e+14	1.644608e+04	8.292324e+03	2.452140e+03	0	8.495169e-04
1.040000e+09	1.601729e+13	0.000000e+00	5.125627e-01	4.801975e+14	1.290491e+15	4.955303e+14	1.643718e+04	8.287290e+03	2.450651e+03	0	8.459196e-04
1.050000e+09	1.581373e+13	0.000000e+00	5.125627e-01	4.783549e+14	1.283456e+15	4.933346e+14	1.642831e+04	8.282304e+03	2.449177e+03	0	8.423206e-04
1.060000e+09	1.561179e+13	0.000000e+00	5.125627e-01	4.765263e+14	1.276509e+15	4.911537e+14	1.641948e+04	8.277365e+03	2.447716e+03	0	8.387198e-04
1.070000e+09	1.541145e+13	0.000000e+00	5.125627e-01	4.747115e+14	1.269647e+15	4.889875e+14	1.641068e+04	8.272472e+03	2.446269e+03	0	8.351168e-04
1.080000e+09	1.521270e+13	0.000000e+00	5.125627e-01	4.729102e+14	1.262869e+15	4.868358e+14	1.640191e+04	8.267625e+03	2.444836e+03	0	8.315113e-04
1.090000e+09	1.501552e+13	0.000000e+00	5.125627e-01	4.711223e+14	1.256172e+15	4.846987e+14	1.639318e+04	8.262822e+03	2.443416e+03	0	8.279030e-04
1.100000e+09	1.481987e+13	0.000000e+00	5.125627e-01	4.693477e+14	1.249556e+15	4.825758e+14	1.638448e+04	8.258063e+03	2.442009e+03	0	8.242915e-04
1.110000e+09	1.462575e+13	0.000000e+00	5.125627e-01	4.675862e+14	1.243018e+15	4.804673e+14	1.637581e+04	8.253347e+03	2.440614e+03	0	8.206767e-04
1.120000e+09	1.443314e+13	0.000000e+00	5.125627e-01	4.658376e+14	1.236558e+15	4.783728e+14	1.636717e+04	8.248674e+03	2.439232e+03	0	8.170581e-04
1.130000e+09	1.424201e+13	0.000000e+00	5.125627e-01	4.641017e+14	1.230173e+15	4.762924e+14	1.635857e+04	8.244041e+03	2.437862e+03	0	8.134354e-04
1.140000e+09	1.405235e+13	0.000000e+00	5.125627e-01	4.623784e+14	1.223861e+15	4.742259e+14	1.635000e+04	8.239449e+03	2.436504e+03	0	8.098084e-04
1.150000e+09	1.386413e+13	0.000000e+00	5.125627e-01	4.606676e+14	1.217623e+15	4.721731e+14	1.634146e+04	8.234896e+03	2.435158e+03	0	8.061767e-04
1.160000e+09	1.367735e+13	0.000000e+00	5.125627e-01	4.589691e+14	1.211455e+15	4.701341e+14	1.633295e+04	8.230383e+03	2.433823e+03	0	8.025400e-04
1.170000e+09	1.349198e+13	0.000000e+00	5.125627e-01	4.572827e+14	1.205357e+15	4.681086e+14	1.632448e+04	8.225908e+03	2.432500e+03	0	7.988979e-04
1.180000e+09	1.330801e+13	0.000000e+00	5.125627e-01	4.556083e+14	1.199327e+15	4.660967e+14	1.631603e+04	8.221471e+03	2.431188e+03	0	7.952501e-04
1.190000e+09	1.312542e+13	0.000000e+00	5.125627e-01	4.539458e+14	1.193365e+15	4.640980e+14	1.630762e+04	8.217070e+03	2.429886e+03	0	7.915963e-04
1.200000e+09	1.294419e+13	0.000000e+00	5.125627e-01	4.522951e+14	1.187468e+15	4.621127e+14	1.629923e+04	8.212706e+03	2.428596e+03	0	7.879361e-04
1.210000e+09	1.276431e+13	0.000000e+00	5.125627e-01	4.506559e+14	1.181635e+15	4.601405e+14	1.629088e+04	8.208378e+03	2.427316e+03	0	7.842691e-04
1.220000e+09	1.258576e+13	0.000000e+00	5.125627e-01	4.490282e+14	1.175866e+15	4.581814e+14	1.628256e+04	8.204085e+03	2.426046e+03	0	7.805951e-04
1.230000e+09	1.240852e+13	0.000000e+00	5.125627e-01	4.474118e+14	1.170159e+15	4.562353e+14	1.627427e+04	8.199826e+03	2.424787e+03	0	7.769135e-04
1.240000e+09	1.223258e+13	0.000000e+00	5.125627e-01	4.458065e+14	1.164513e+15	4.543020e+14	1.626600e+04	8.195601e+03	2.423538e+03	0	7.732242e-04
1.250000e+09	1.205793e+13	0.000000e+00	5.125627e-01	4.442124e+14	1.158927e+15	4.523815e+14	1.625777e+04	8.191409e+03	2.422298e+03	0	7.695266e-04
1.260000e+09	1.188455e+13	0.000000e+00	5.125627e-01	4.426292e+14	1.153400e+15	4.504737e+14	1.624957e+04	8.187250e+03	2.421068e+03	0	7.658204e-04
1.270000e+09	1.171242e+13	0.000000e+00	5.125627e-01	4.410568e+14	1.147931e+15	4.485784e+14	1.624139e+04	8.183123e+03	2.419848e+03	0	7.621052e-04
1.280000e+09	1.154154e+13	0.000000e+00	5.125627e-01	4.394951e+14	1.142518e+15	4.466956e+14	1.623324e+04	8.179028e+03	2.418637e+03	0	7.583807e-04
1.290000e+09	1.137188e+13	0.000000e+00	5.125627e-01	4.379440e+14	1.137160e+15	4.448251e+14	1.622513e+04	8.174964e+03	2.417435e+03	0	7.546463e-04
1.300000e+09	1.120343e+13	0.000000e+00	5.125627e-01	4.364034e+14	1.131858e+15	4.429669e+14	1.621704e+04	8.170930e+03	2.416242e+03	0	7.509016e-04
1.310000e+09	1.103618e+13	0.000000e+00	5.125627e-01	4.348731e+14	1.126609e+15	4.411210e+14	1.620898e+04	8.166927e+03	2.415058e+03	0	7.471463e-04
1.320000e+09	1.087012e+13	0.000000e+00	5.125627e-01	4.333530e+14	1.121413e+15	4.392871e+14	1.620095e+04	8.162953e+03	2.413883e+03	0	7.433799e-04
1.330000e+09	1.070523e+13	0.000000e+00	5.125627e-01	4.318430e+14	1.116269e+15	4.374652e+14	1.619294e+04	8.159008e+03	2.412717e+03	0	7.396019e-04
1.340000e+09	1.054150e+13	0.000000e+00	5.125627e-01	4.303431e+14	1.111176e+15	4.356552e+14	1.618497e+04	8.155092e+03	2.411558e+03	0	7.358119e-04
1.350000e+09	1.037892e+13	0.000000e+00	5.125627e-01	4.288530e+14	1.106134e+15	4.338570e+14	1.617702e+04	8.151203e+03	2.410409e+03	0	7.320094e-04
1.360000e+09	1.021746e+13	0.000000e+00	5.125627e-01	4.273728e+14	1.101140e+15	4.320705e+14	1.616910e+04	8.147343e+03	2.409267e+03	0	7.281940e-04
