#t		Qconv[W]	Ri[Rp]		R*[Rp]		Qc[W]		Qm[W]		Qr[W]		Tcmb[K]		Tl[K]		Tup[K]		RiFlag		Bs[T]
0.000000e+00	5.753070e+13	0.000000e+00	5.125627e-01	1.163719e+15	3.736344e+15	1.022269e+15	2.068708e+04	1.120197e+04	2.959461e+03	0	1.288634e-03
1.000000e+07	5.674465e+13	0.000000e+00	5.125627e-01	1.157340e+15	3.686569e+15	1.016605e+15	2.067167e+04	1.118138e+04	2.954019e+03	0	1.282738e-03
2.000000e+07	5.596877e+13	0.000000e+00	5.125627e-01	1.151040e+15	3.638367e+15	1.010983e+15	2.065635e+04	1.116128e+04	2.948709e+03	0	1.276865e-03
3.000000e+07	5.520286e+13	0.000000e+00	5.125627e-01	1.144816e+15	3.591665e+15	1.005403e+15	2.064111e+04	1.114165e+04	2.943525e+03	0	1.271014e-03
4.000000e+07	5.444670e+13	0.000000e+00	5.125627e-01	1.138668e+15	3.546391e+15	9.998651e+14	2.062596e+04	1.112249e+04	2.938463e+03	0	1.265184e-03
5.000000e+07	5.370011e+13	0.000000e+00	5.125627e-01	1.132594e+15	3.502481e+15	9.943683e+14	2.061088e+04	1.110378e+04	2.933519e+03	0	1.259374e-03
6.000000e+07	5.296288e+13	0.000000e+00	5.125627e-01	1.126592e+15	3.459873e+15	9.889125e+14	2.059589e+04	1.108549e+04	2.928687e+03	0	1.253585e-03
7.000000e+07	5.223482e+13	0.000000e+00	5.125627e-01	1.120661e+15	3.418508e+15	9.834973e+14	2.058098e+04	1.106761e+04	2.923964e+03	0	1.247814e-03
8.000000e+07	5.151574e+13	0.000000e+00	5.125627e-01	1.114800e+15	3.378331e+15	9.781224e+14	2.056614e+04	1.105013e+04	2.919345e+03	0	1.242061e-03
9.000000e+07	5.080546e+13	0.000000e+00	5.125627e-01	1.109006e+15	3.339291e+15	9.727875e+14	2.055138e+04	1.103303e+04	2.914828e+03	0	1.236327e-03
1.000000e+08	5.010381e+13	0.000000e+00	5.125627e-01	1.103279e+15	3.301338e+15	9.674921e+14	2.053670e+04	1.101630e+04	2.910408e+03	0	1.230609e-03
1.100000e+08	4.941061e+13	0.000000e+00	5.125627e-01	1.097617e+15	3.264427e+15	9.622361e+14	2.052209e+04	1.099993e+04	2.906083e+03	0	1.224907e-03
1.200000e+08	4.872568e+13	0.000000e+00	5.125627e-01	1.092020e+15	3.228514e+15	9.570190e+14	2.050756e+04	1.098390e+04	2.901848e+03	0	1.219221e-03
1.300000e+08	4.804887e+13	0.000000e+00	5.125627e-01	1.086485e+15	3.193557e+15	9.518406e+14	2.049310e+04	1.096820e+04	2.897701e+03	0	1.213550e-03
1.400000e+08	4.738002e+13	0.000000e+00	5.125627e-01	1.081012e+15	3.159517e+15	9.467005e+14	2.047872e+04	1.095283e+04	2.893639e+03	0	1.207892e-03
1.500000e+08	4.671896e+13	0.000000e+00	5.125627e-01	1.075599e+15	3.126357e+15	9.415983e+14	2.046441e+04	1.093776e+04	2.889658e+03	0	1.202248e-03
1.600000e+08	4.606555e+13	0.000000e+00	5.125627e-01	1.070246e+15	3.094043e+15	9.365339e+14	2.045017e+04	1.092299e+04	2.885757e+03	0	1.196617e-03
1.700000e+08	4.541963e+13	0.000000e+00	5.125627e-01	1.064951e+15	3.062540e+15	9.315068e+14	2.043600e+04	1.090852e+04	2.881932e+03	0	1.190998e-03
1.800000e+08	4.478106e+13	0.000000e+00	5.125627e-01	1.059712e+15	3.031817e+15	9.265168e+14	2.042190e+04	1.089432e+04	2.878182e+03	0	1.185390e-03
1.900000e+08	4.414971e+13	0.000000e+00	5.125627e-01	1.054530e+15	3.001845e+15	9.215636e+14	2.040787e+04	1.088039e+04	2.874503e+03	0	1.179793e-03
2.000000e+08	4.352542e+13	0.000000e+00	5.125627e-01	1.049403e+15	2.972594e+15	9.166468e+14	2.039391e+04	1.086673e+04	2.870893e+03	0	1.174205e-03
2.100000e+08	4.290807e+13	0.000000e+00	5.125627e-01	1.044329e+15	2.944037e+15	9.117661e+14	2.038001e+04	1.085332e+04	2.867351e+03	0	1.168627e-03
2.200000e+08	4.229753e+13	0.000000e+00	5.125627e-01	1.039308e+15	2.916149e+15	9.069213e+14	2.036619e+04	1.084016e+04	2.863874e+03	0	1.163058e-03
2.300000e+08	4.169367e+13	0.000000e+00	5.125627e-01	1.034339e+15	2.888904e+15	9.021121e+14	2.035243e+04	1.082724e+04	2.860459e+03	0	1.157497e-03
2.400000e+08	4.109636e+13	0.000000e+00	5.125627e-01	1.029422e+15	2.862280e+15	8.973381e+14	2.033873e+04	1.081455e+04	2.857106e+03	0	1.151943e-03
2.500000e+08	4.050549e+13	0.000000e+00	5.125627e-01	1.024554e+15	2.836255e+15	8.925991e+14	2.032510e+04	1.080208e+04	2.853813e+03	0	1.146395e-03
2.600000e+08	3.992094e+13	0.000000e+00	5.125627e-01	1.019735e+15	2.810806e+15	8.878947e+14	2.031154e+04	1.078983e+04	2.850577e+03	0	1.140854e-03
2.700000e+08	3.934259e+13	0.000000e+00	5.125627e-01	1.014965e+15	2.785915e+15	8.832248e+14	2.029803e+04	1.077779e+04	2.847396e+03	0	1.135318e-03
2.800000e+08	3.877033e+13	0.000000e+00	5.125627e-01	1.010242e+15	2.761560e+15	8.785889e+14	2.028459e+04	1.076596e+04	2.844270e+03	0	1.129786e-03
2.900000e+08	3.820405e+13	0.000000e+00	5.125627e-01	1.005565e+15	2.737725e+15	8.739869e+14	2.027122e+04	1.075432e+04	2.841196e+03	0	1.124259e-03
3.000000e+08	3.764365e+13	0.000000e+00	5.125627e-01	1.000935e+15	2.714390e+15	8.694185e+14	2.025790e+04	1.074288e+04	2.838173e+03	0	1.118734e-03
3.100000e+08	3.708902e+13	0.000000e+00	5.125627e-01	9.963489e+14	2.691541e+15	8.648833e+14	2.024465e+04	1.073163e+04	2.835200e+03	0	1.113213e-03
3.200000e+08	3.654006e+13	0.000000e+00	5.125627e-01	9.918075e+14	2.669159e+15	8.603811e+14	2.023146e+04	1.072055e+04	2.832275e+03	0	1.107693e-03
3.300000e+08	3.599667e+13	0.000000e+00	5.125627e-01	9.873096e+14	2.647230e+15	8.559117e+14	2.021833e+04	1.070966e+04	2.829396e+03	0	1.102175e-03
3.400000e+08	3.545877e+13	0.000000e+00	5.125627e-01	9.828544e+14	2.625740e+15	8.514747e+14	2.020525e+04	1.069894e+04	2.826563e+03	0	1.096657e-03
3.500000e+08	3.492624e+13	0.000000e+00	5.125627e-01	9.784412e+14	2.604673e+15	8.470699e+14	2.019224e+04	1.068838e+04	2.823774e+03	0	1.091140e-03
3.600000e+08	3.439901e+13	0.000000e+00	5.125627e-01	9.740694e+14	2.584017e+15	8.426970e+14	2.017928e+04	1.067799e+04	2.821028e+03	0	1.085621e-03
3.700000e+08	3.387698e+13	0.000000e+00	5.125627e-01	9.697382e+14	2.563758e+15	8.383558e+14	2.016638e+04	1.066775e+04	2.818324e+03	0	1.080102e-03
3.800000e+08	3.336006e+13	0.000000e+00	5.125627e-01	9.654469e+14	2.543884e+15	8.340461e+14	2.015354e+04	1.065767e+04	2.815660e+03	0	1.074580e-03
3.900000e+08	3.284818e+13	0.000000e+00	5.125627e-01	9.611951e+14	2.524384e+15	8.297674e+14	2.014076e+04	1.064774e+04	2.813036e+03	0	1.069055e-03
4.000000e+08	3.234124e+13	0.000000e+00	5.125627e-01	9.569819e+14	2.505245e+15	8.255197e+14	2.012803e+04	1.063795e+04	2.810451e+03	0	1.063527e-03
4.100000e+08	3.183918e+13	0.000000e+00	5.125627e-01	9.528068e+14	2.486457e+15	8.213026e+14	2.011536e+04	1.062830e+04	2.807903e+03	0	1.057995e-03
4.200000e+08	3.134190e+13	0.000000e+00	5.125627e-01	9.486692e+14	2.468009e+15	8.171159e+14	2.010274e+04	1.061880e+04	2.805391e+03	0	1.052458e-03
4.300000e+08	3.084933e+13	0.000000e+00	5.125627e-01	9.445685e+14	2.449892e+15	8.129594e+14	2.009018e+04	1.060942e+04	2.802915e+03	0	1.046916e-03
4.400000e+08	3.036140e+13	0.000000e+00	5.125627e-01	9.405041e+14	2.432094e+15	8.088328e+14	2.007767e+04	1.060018e+04	2.800473e+03	0	1.041367e-03
4.500000e+08	2.987804e+13	0.000000e+00	5.125627e-01	9.364755e+14	2.414608e+15	8.047358e+14	2.006522e+04	1.059107e+04	2.798066e+03	0	1.035811e-03
4.600000e+08	2.939916e+13	0.000000e+00	5.125627e-01	9.324821e+14	2.397424e+15	8.006682e+14	2.005282e+04	1.058208e+04	2.795691e+03	0	1.030247e-03
4.700000e+08	2.892471e+13	0.000000e+00	5.125627e-01	9.285233e+14	2.380534e+15	7.966298e+14	2.004047e+04	1.057321e+04	2.793348e+03	0	1.024675e-03
4.800000e+08	2.845461e+13	0.000000e+00	5.125627e-01	9.245987e+14	2.363929e+15	7.926203e+14	2.002817e+04	1.056446e+04	2.791036e+03	0	1.019093e-03
4.900000e+08	2.798880e+13	0.000000e+00	5.125627e-01	9.207078e+14	2.347600e+15	7.886396e+14	2.001593e+04	1.055582e+04	2.788754e+03	0	1.013502e-03
5.000000e+08	2.752721e+13	0.000000e+00	5.125627e-01	9.168500e+14	2.331542e+15	7.846873e+14	2.000374e+04	1.054730e+04	2.786503e+03	0	1.007899e-03
5.100000e+08	2.706978e+13	0.000000e+00	5.125627e-01	9.130248e+14	2.315745e+15	7.807632e+14	1.999160e+04	1.053889e+04	2.784280e+03	0	1.002285e-03
5.200000e+08	2.661644e+13	0.000000e+00	5.125627e-01	9.092318e+14	2.300204e+15	7.768672e+14	1.997951e+04	1.053058e+04	2.782086e+03	0	9.966586e-04
5.300000e+08	2.616713e+13	0.000000e+00	5.125627e-01	9.054706e+14	2.284911e+15	7.729989e+14	1.996746e+04	1.052238e+04	2.779919e+03	0	9.910186e-04
5.400000e+08	2.572180e+13	0.000000e+00	5.125627e-01	9.017405e+14	2.269859e+15	7.691582e+14	1.995547e+04	1.051428e+04	2.777779e+03	0	9.853645e-04
5.500000e+08	2.528039e+13	0.000000e+00	5.125627e-01	8.980413e+14	2.255042e+15	7.653448e+14	1.994353e+04	1.050628e+04	2.775665e+03	0	9.796953e-04
5.600000e+08	2.484283e+13	0.000000e+00	5.125627e-01	8.943724e+14	2.240454e+15	7.615585e+14	1.993164e+04	1.049838e+04	2.773577e+03	0	9.740101e-04
5.700000e+08	2.440908e+13	0.000000e+00	5.125627e-01	8.907335e+14	2.226089e+15	7.577991e+14	1.991980e+04	1.049057e+04	2.771514e+03	0	9.683081e-04
5.800000e+08	2.397907e+13	0.000000e+00	5.125627e-01	8.871241e+14	2.211942e+15	7.540664e+14	1.990800e+04	1.048285e+04	2.769475e+03	0	9.625883e-04
5.900000e+08	2.355276e+13	0.000000e+00	5.125627e-01	8.835437e+14	2.198006e+15	7.503601e+14	1.989625e+04	1.047522e+04	2.767461e+03	0	9.568497e-04
6.000000e+08	2.313009e+13	0.000000e+00	5.125627e-01	8.799921e+14	2.184277e+15	7.466801e+14	1.988455e+04	1.046769e+04	2.765469e+03	0	9.510913e-04
6.100000e+08	2.271102e+13	0.000000e+00	5.125627e-01	8.764688e+14	2.170749e+15	7.430261e+14	1.987290e+04	1.046024e+04	2.763501e+03	0	9.453123e-04
6.200000e+08	2.229548e+13	0.000000e+00	5.125627e-01	8.729734e+14	2.157417e+15	7.393980e+14	1.986129e+04	1.045287e+04	2.761555e+03	0	9.395114e-04
6.300000e+08	2.188344e+13	0.000000e+00	5.125627e-01	8.695056e+14	2.144276e+15	7.357954e+14	1.984973e+04	1.044559e+04	2.759630e+03	0	9.336876e-04
6.400000e+08	2.147483e+13	0.000000e+00	5.125627e-01	8.660649e+14	2.131322e+15	7.322183e+14	1.983821e+04	1.043838e+04	2.757727e+03	0	9.278399e-04
6.500000e+08	2.106963e+13	0.000000e+00	5.125627e-01	8.626510e+14	2.118551e+15	7.286663e+14	1.982674e+04	1.043126e+04	2.755845e+03	0	9.219671e-04
6.600000e+08	2.066778e+13	0.000000e+00	5.125627e-01	8.592636e+14	2.105957e+15	7.251393e+14	1.981532e+04	1.042421e+04	2.753983e+03	0	9.160679e-04
6.700000e+08	2.026923e+13	0.000000e+00	5.125627e-01	8.559023e+14	2.093537e+15	7.216372e+14	1.980394e+04	1.041724e+04	2.752142e+03	0	9.101413e-04
6.800000e+08	1.987394e+13	0.000000e+00	5.125627e-01	8.525668e+14	2.081287e+15	7.181596e+14	1.979260e+04	1.041034e+04	2.750319e+03	0	9.041860e-04
6.900000e+08	1.948187e+13	0.000000e+00	5.125627e-01	8.492567e+14	2.069202e+15	7.147065e+14	1.978131e+04	1.040352e+04	2.748516e+03	0	8.982006e-04
7.000000e+08	1.909298e+13	0.000000e+00	5.125627e-01	8.459717e+14	2.057279e+15	7.112775e+14	1.977006e+04	1.039676e+04	2.746732e+03	0	8.921838e-04
7.100000e+08	1.870722e+13	0.000000e+00	5.125627e-01	8.427115e+14	2.045515e+15	7.078725e+14	1.975886e+04	1.039008e+04	2.744965e+03	0	8.861342e-04
7.200000e+08	1.832455e+13	0.000000e+00	5.125627e-01	8.394758e+14	2.033905e+15	7.044914e+14	1.974770e+04	1.038346e+04	2.743217e+03	0	8.800503e-04
7.300000e+08	1.794493e+13	0.000000e+00	5.125627e-01	8.362642e+14	2.022445e+15	7.011339e+14	1.973658e+04	1.037691e+04	2.741487e+03	0	8.739307e-04
7.400000e+08	1.756833e+13	0.000000e+00	5.125627e-01	8.330765e+14	2.011134e+15	6.977998e+14	1.972551e+04	1.037042e+04	2.739773e+03	0	8.677738e-04
7.500000e+08	1.719470e+13	0.000000e+00	5.125627e-01	8.299124e+14	1.999967e+15	6.944890e+14	1.971447e+04	1.036400e+04	2.738076e+03	0	8.615780e-04
7.600000e+08	1.682400e+13	0.000000e+00	5.125627e-01	8.267715e+14	1.988942e+15	6.912012e+14	1.970348e+04	1.035764e+04	2.736396e+03	0	8.553415e-04
7.700000e+08	1.645621e+13	0.000000e+00	5.125627e-01	8.236536e+14	1.978054e+15	6.879363e+14	1.969253e+04	1.035134e+04	2.734732e+03	0	8.490626e-04
7.800000e+08	1.609128e+13	0.000000e+00	5.125627e-01	8.205585e+14	1.967302e+15	6.846941e+14	1.968162e+04	1.034511e+04	2.733084e+03	0	8.427394e-04
7.900000e+08	1.572918e+13	0.000000e+00	5.125627e-01	8.174857e+14	1.956682e+15	6.814744e+14	1.967075e+04	1.033893e+04	2.731452e+03	0	8.363700e-04
8.000000e+08	1.536987e+13	0.000000e+00	5.125627e-01	8.144351e+14	1.946192e+15	6.782770e+14	1.965993e+04	1.033280e+04	2.729834e+03	0	8.299524e-04
8.100000e+08	1.501332e+13	0.000000e+00	5.125627e-01	8.114064e+14	1.935828e+15	6.751018e+14	1.964914e+04	1.032674e+04	2.728232e+03	0	8.234844e-04
8.200000e+08	1.465949e+13	0.000000e+00	5.125627e-01	8.083994e+14	1.925589e+15	6.719486e+14	1.963839e+04	1.032073e+04	2.726644e+03	0	8.169637e-04
8.300000e+08	1.430836e+13	0.000000e+00	5.125627e-01	8.054137e+14	1.915472e+15	6.688172e+14	1.962769e+04	1.031477e+04	2.725070e+03	0	8.103881e-04
8.400000e+08	1.395988e+13	0.000000e+00	5.125627e-01	8.024491e+14	1.905473e+15	6.657074e+14	1.961702e+04	1.030887e+04	2.723511e+03	0	8.037550e-04
8.500000e+08	1.361403e+13	0.000000e+00	5.125627e-01	7.995055e+14	1.895592e+15	6.626190e+14	1.960639e+04	1.030302e+04	2.721965e+03	0	7.970619e-04
8.600000e+08	1.327078e+13	0.000000e+00	5.125627e-01	7.965824e+14	1.885824e+15	6.595520e+14	1.959580e+04	1.029722e+04	2.720433e+03	0	7.903059e-04
8.700000e+08	1.293009e+13	0.000000e+00	5.125627e-01	7.936798e+14	1.876169e+15	6.565060e+14	1.958525e+04	1.029147e+04	2.718915e+03	0	7.834843e-04
8.800000e+08	1.259194e+13	0.000000e+00	5.125627e-01	7.907973e+14	1.866624e+15	6.534810e+14	1.957474e+04	1.028577e+04	2.717409e+03	0	7.765938e-04
8.900000e+08	1.225629e+13	0.000000e+00	5.125627e-01	7.879348e+14	1.857186e+15	6.504768e+14	1.956426e+04	1.028012e+04	2.715916e+03	0	7.696313e-04
9.000000e+08	1.192311e+13	0.000000e+00	5.125627e-01	7.850919e+14	1.847854e+15	6.474932e+14	1.955383e+04	1.027452e+04	2.714436e+03	0	7.625932e-04
9.100000e+08	1.159238e+13	0.000000e+00	5.125627e-01	7.822686e+14	1.838626e+15	6.445301e+14	1.954343e+04	1.026896e+04	2.712968e+03	0	7.554760e-04
9.200000e+08	1.126407e+13	0.000000e+00	5.125627e-01	7.794645e+14	1.829499e+15	6.415873e+14	1.953307e+04	1.026345e+04	2.711512e+03	0	7.482756e-04
9.300000e+08	1.093815e+13	0.000000e+00	5.125627e-01	7.766795e+14	1.820472e+15	6.386646e+14	1.952274e+04	1.025798e+04	2.710068e+03	0	7.409879e-04
9.400000e+08	1.061460e+13	0.000000e+00	5.125627e-01	7.739133e+14	1.811543e+15	6.357618e+14	1.951246e+04	1.025256e+04	2.708635e+03	0	7.336084e-04
9.500000e+08	1.029338e+13	0.000000e+00	5.125627e-01	7.711658e+14	1.802710e+15	6.328789e+14	1.950221e+04	1.024719e+04	2.707215e+03	0	7.261324e-04
9.600000e+08	9.974475e+12	0.000000e+00	5.125627e-01	7.684367e+14	1.793971e+15	6.300156e+14	1.949199e+04	1.024185e+04	2.705805e+03	0	7.185546e-04
9.700000e+08	9.657853e+12	0.000000e+00	5.125627e-01	7.657258e+14	1.785324e+15	6.271719e+14	1.948181e+04	1.023656e+04	2.704406e+03	0	7.108696e-04
9.800000e+08	9.343489e+12	0.000000e+00	5.125627e-01	7.630329e+14	1.776768e+15	6.243475e+14	1.947167e+04	1.023130e+04	2.703019e+03	0	7.030715e-04
9.900000e+08	9.031360e+12	0.000000e+00	5.125627e-01	7.603579e+14	1.768302e+15	6.215422e+14	1.946156e+04	1.022609e+04	2.701642e+03	0	6.951537e-04
1.000000e+09	8.721441e+12	0.000000e+00	5.125627e-01	7.577006e+14	1.759923e+15	6.187561e+14	1.945149e+04	1.022092e+04	2.700276e+03	0	6.871093e-04
1.010000e+09	8.413707e+12	0.000000e+00	5.125627e-01	7.550607e+14	1.751629e+15	6.159888e+14	1.944146e+04	1.021579e+04	2.698919e+03	0	6.789309e-04
1.020000e+09	8.108134e+12	0.000000e+00	5.125627e-01	7.524380e+14	1.743421e+15	6.132403e+14	1.943145e+04	1.021069e+04	2.697574e+03	0	6.706101e-04
1.030000e+09	7.804699e+12	0.000000e+00	5.125627e-01	7.498325e+14	1.735295e+15	6.105103e+14	1.942149e+04	1.020564e+04	2.696238e+03	0	6.621380e-04
1.040000e+09	7.503380e+12	0.000000e+00	5.125627e-01	7.472439e+14	1.727251e+15	6.077989e+14	1.941156e+04	1.020062e+04	2.694912e+03	0	6.535047e-04
1.050000e+09	7.204153e+12	0.000000e+00	5.125627e-01	7.446720e+14	1.719287e+15	6.051057e+14	1.940166e+04	1.019563e+04	2.693595e+03	0	6.446996e-04
1.060000e+09	6.906996e+12	0.000000e+00	5.125627e-01	7.421167e+14	1.711401e+15	6.024307e+14	1.939179e+04	1.019069e+04	2.692288e+03	0	6.357107e-04
1.070000e+09	6.611887e+12	0.000000e+00	5.125627e-01	7.395778e+14	1.703593e+15	5.997737e+14	1.938196e+04	1.018578e+04	2.690991e+03	0	6.265247e-04
1.080000e+09	6.318804e+12	0.000000e+00	5.125627e-01	7.370551e+14	1.695862e+15	5.971346e+14	1.937217e+04	1.018090e+04	2.689702e+03	0	6.171273e-04
1.090000e+09	6.027726e+12	0.000000e+00	5.125627e-01	7.345485e+14	1.688205e+15	5.945132e+14	1.936240e+04	1.017606e+04	2.688423e+03	0	6.075019e-04
1.100000e+09	5.738633e+12	0.000000e+00	5.125627e-01	7.320577e+14	1.680621e+15	5.919094e+14	1.935267e+04	1.017125e+04	2.687153e+03	0	5.976303e-04
1.110000e+09	5.451503e+12	0.000000e+00	5.125627e-01	7.295827e+14	1.673110e+15	5.893231e+14	1.934298e+04	1.016647e+04	2.685891e+03	0	5.874919e-04
1.120000e+09	5.166316e+12	0.000000e+00	5.125627e-01	7.271233e+14	1.665670e+15	5.867542e+14	1.933331e+04	1.016173e+04	2.684638e+03	0	5.770633e-04
1.130000e+09	4.883053e+12	0.000000e+00	5.125627e-01	7.246793e+14	1.658300e+15	5.842024e+14	1.932368e+04	1.015702e+04	2.683393e+03	0	5.663178e-04
1.140000e+09	4.601692e+12	0.000000e+00	5.125627e-01	7.222506e+14	1.650999e+15	5.816677e+14	1.931408e+04	1.015234e+04	2.682157e+03	0	5.552249e-04
1.150000e+09	4.322216e+12	0.000000e+00	5.125627e-01	7.198370e+14	1.643766e+15	5.791499e+14	1.930451e+04	1.014769e+04	2.680929e+03	0	5.437492e-04
1.160000e+09	4.044605e+12	0.000000e+00	5.125627e-01	7.174383e+14	1.636600e+15	5.766488e+14	1.929498e+04	1.014307e+04	2.679710e+03	0	5.318491e-04
1.170000e+09	3.768840e+12	0.000000e+00	5.125627e-01	7.150545e+14	1.629499e+15	5.741645e+14	1.928548e+04	1.013849e+04	2.678498e+03	0	5.194762e-04
1.180000e+09	3.494902e+12	0.000000e+00	5.125627e-01	7.126853e+14	1.622463e+15	5.716967e+14	1.927600e+04	1.013393e+04	2.677294e+03	0	5.065723e-04
1.190000e+09	3.222773e+12	0.000000e+00	5.125627e-01	7.103307e+14	1.615490e+15	5.692453e+14	1.926656e+04	1.012940e+04	2.676098e+03	0	4.930675e-04
1.200000e+09	2.952436e+12	0.000000e+00	5.125627e-01	7.079905e+14	1.608580e+15	5.668101e+14	1.925715e+04	1.012490e+04	2.674909e+03	0	4.788762e-04
1.210000e+09	2.683872e+12	0.000000e+00	5.125627e-01	7.056646e+14	1.601732e+15	5.643912e+14	1.924778e+04	1.012043e+04	2.673728e+03	0	4.638922e-04
1.220000e+09	2.417064e+12	0.000000e+00	5.125627e-01	7.033527e+14	1.594945e+15	5.619882e+14	1.923843e+04	1.011599e+04	2.672554e+03	0	4.479805e-04
1.230000e+09	2.151995e+12	0.000000e+00	5.125627e-01	7.010549e+14	1.588217e+15	5.596011e+14	1.922911e+04	1.011158e+04	2.671388e+03	0	4.309665e-04
1.240000e+09	1.888647e+12	0.000000e+00	5.125627e-01	6.987709e+14	1.581549e+15	5.572298e+14	1.921982e+04	1.010719e+04	2.670229e+03	0	4.126166e-04
1.250000e+09	1.627004e+12	0.000000e+00	5.125627e-01	6.965006e+14	1.574938e+15	5.548742e+14	1.921057e+04	1.010283e+04	2.669077e+03	0	3.926082e-04
1.260000e+09	1.367050e+12	0.000000e+00	5.125627e-01	6.942439e+14	1.568384e+15	5.525341e+14	1.920134e+04	1.009849e+04	2.667932e+03	0	3.704741e-04
1.270000e+09	1.108768e+12	0.000000e+00	5.125627e-01	6.920007e+14	1.561887e+15	5.502094e+14	1.919214e+04	1.009419e+04	2.666794e+03	0	3.454962e-04
1.280000e+09	8.521415e+11	0.000000e+00	5.125627e-01	6.897708e+14	1.555446e+15	5.479000e+14	1.918298e+04	1.008990e+04	2.665662e+03	0	3.164708e-04
1.290000e+09	5.971555e+11	0.000000e+00	5.125627e-01	6.875541e+14	1.549059e+15	5.456058e+14	1.917384e+04	1.008565e+04	2.664538e+03	0	2.810987e-04
1.300000e+09	3.437941e+11	0.000000e+00	5.125627e-01	6.853506e+14	1.542726e+15	5.433267e+14	1.916473e+04	1.008142e+04	2.663420e+03	0	2.338456e-04
1.310000e+09	9.204182e+10	0.000000e+00	5.125627e-01	6.831600e+14	1.536446e+15	5.410624e+14	1.915565e+04	1.007721e+04	2.662308e+03	0	1.507156e-04
1.320000e+09	-1.581164e+11	0.000000e+00	5.125627e-01	6.809822e+14	1.530219e+15	5.388131e+14	1.914660e+04	1.007303e+04	2.661203e+03	0	-nan
