#t		Qconv[W]	Ri[Rp]		R*[Rp]		Qc[W]		Qm[W]		Qr[W]		Tcmb[K]		Tl[K]		Tup[K]		RiFlag		Bs[T]
0.000000e+00	5.711625e+13	0.000000e+00	5.075378e-01	1.313004e+15	3.530669e+15	1.091824e+15	2.212818e+04	1.193003e+04	3.002865e+03	0	1.294986e-03
1.000000e+07	5.631549e+13	0.000000e+00	5.075378e-01	1.306472e+15	3.497459e+15	1.085775e+15	2.211198e+04	1.191573e+04	2.999264e+03	0	1.288906e-03
2.000000e+07	5.552343e+13	0.000000e+00	5.075378e-01	1.300008e+15	3.465013e+15	1.079771e+15	2.209585e+04	1.190168e+04	2.995729e+03	0	1.282834e-03
3.000000e+07	5.473991e+13	0.000000e+00	5.075378e-01	1.293609e+15	3.433303e+15	1.073811e+15	2.207981e+04	1.188789e+04	2.992257e+03	0	1.276771e-03
4.000000e+07	5.396479e+13	0.000000e+00	5.075378e-01	1.287275e+15	3.402302e+15	1.067896e+15	2.206384e+04	1.187434e+04	2.988847e+03	0	1.270716e-03
5.000000e+07	5.319792e+13	0.000000e+00	5.075378e-01	1.281005e+15	3.371983e+15	1.062026e+15	2.204795e+04	1.186103e+04	2.985496e+03	0	1.264668e-03
6.000000e+07	5.243914e+13	0.000000e+00	5.075378e-01	1.274797e+15	3.342325e+15	1.056199e+15	2.203214e+04	1.184795e+04	2.982204e+03	0	1.258627e-03
7.000000e+07	5.168833e+13	0.000000e+00	5.075378e-01	1.268651e+15	3.313302e+15	1.050415e+15	2.201640e+04	1.183509e+04	2.978967e+03	0	1.252591e-03
8.000000e+07	5.094533e+13	0.000000e+00	5.075378e-01	1.262566e+15	3.284893e+15	1.044674e+15	2.200075e+04	1.182245e+04	2.975785e+03	0	1.246560e-03
9.000000e+07	5.021002e+13	0.000000e+00	5.075378e-01	1.256539e+15	3.257077e+15	1.038976e+15	2.198516e+04	1.181001e+04	2.972655e+03	0	1.240534e-03
1.000000e+08	4.948226e+13	0.000000e+00	5.075378e-01	1.250572e+15	3.229835e+15	1.033321e+15	2.196965e+04	1.179778e+04	2.969577e+03	0	1.234511e-03
1.100000e+08	4.876193e+13	0.000000e+00	5.075378e-01	1.244661e+15	3.203146e+15	1.027707e+15	2.195422e+04	1.178575e+04	2.966549e+03	0	1.228491e-03
1.200000e+08	4.804890e+13	0.000000e+00	5.075378e-01	1.238807e+15	3.176992e+15	1.022135e+15	2.193885e+04	1.177391e+04	2.963568e+03	0	1.222474e-03
1.300000e+08	4.734305e+13	0.000000e+00	5.075378e-01	1.233009e+15	3.151357e+15	1.016604e+15	2.192356e+04	1.176226e+04	2.960635e+03	0	1.216458e-03
1.400000e+08	4.664425e+13	0.000000e+00	5.075378e-01	1.227266e+15	3.126222e+15	1.011114e+15	2.190834e+04	1.175079e+04	2.957747e+03	0	1.210443e-03
1.500000e+08	4.595240e+13	0.000000e+00	5.075378e-01	1.221576e+15	3.101572e+15	1.005665e+15	2.189319e+04	1.173949e+04	2.954904e+03	0	1.204429e-03
1.600000e+08	4.526738e+13	0.000000e+00	5.075378e-01	1.215939e+15	3.077392e+15	1.000256e+15	2.187811e+04	1.172836e+04	2.952103e+03	0	1.198414e-03
1.700000e+08	4.458907e+13	0.000000e+00	5.075378e-01	1.210355e+15	3.053667e+15	9.948870e+14	2.186310e+04	1.171740e+04	2.949345e+03	0	1.192398e-03
1.800000e+08	4.391737e+13	0.000000e+00	5.075378e-01	1.204821e+15	3.030383e+15	9.895574e+14	2.184816e+04	1.170661e+04	2.946627e+03	0	1.186380e-03
1.900000e+08	4.325217e+13	0.000000e+00	5.075378e-01	1.199338e+15	3.007525e+15	9.842672e+14	2.183329e+04	1.169596e+04	2.943949e+03	0	1.180360e-03
2.000000e+08	4.259337e+13	0.000000e+00	5.075378e-01	1.193905e+15	2.985082e+15	9.790158e+14	2.181849e+04	1.168548e+04	2.941309e+03	0	1.174336e-03
2.100000e+08	4.194087e+13	0.000000e+00	5.075378e-01	1.188521e+15	2.963040e+15	9.738031e+14	2.180375e+04	1.167514e+04	2.938706e+03	0	1.168309e-03
2.200000e+08	4.129457e+13	0.000000e+00	5.075378e-01	1.183185e+15	2.941388e+15	9.686286e+14	2.178908e+04	1.166494e+04	2.936140e+03	0	1.162276e-03
2.300000e+08	4.065437e+13	0.000000e+00	5.075378e-01	1.177896e+15	2.920114e+15	9.634922e+14	2.177447e+04	1.165489e+04	2.933610e+03	0	1.156239e-03
2.400000e+08	4.002018e+13	0.000000e+00	5.075378e-01	1.172654e+15	2.899208e+15	9.583934e+14	2.175993e+04	1.164498e+04	2.931114e+03	0	1.150195e-03
2.500000e+08	3.939190e+13	0.000000e+00	5.075378e-01	1.167458e+15	2.878658e+15	9.533319e+14	2.174546e+04	1.163519e+04	2.928652e+03	0	1.144144e-03
2.600000e+08	3.876945e+13	0.000000e+00	5.075378e-01	1.162308e+15	2.858454e+15	9.483075e+14	2.173104e+04	1.162554e+04	2.926223e+03	0	1.138086e-03
2.700000e+08	3.815274e+13	0.000000e+00	5.075378e-01	1.157202e+15	2.838586e+15	9.433198e+14	2.171670e+04	1.161602e+04	2.923826e+03	0	1.132019e-03
2.800000e+08	3.754168e+13	0.000000e+00	5.075378e-01	1.152140e+15	2.819046e+15	9.383685e+14	2.170241e+04	1.160662e+04	2.921459e+03	0	1.125943e-03
2.900000e+08	3.693619e+13	0.000000e+00	5.075378e-01	1.147122e+15	2.799824e+15	9.334534e+14	2.168819e+04	1.159734e+04	2.919124e+03	0	1.119857e-03
3.000000e+08	3.633618e+13	0.000000e+00	5.075378e-01	1.142146e+15	2.780910e+15	9.285741e+14	2.167403e+04	1.158818e+04	2.916817e+03	0	1.113760e-03
3.100000e+08	3.574157e+13	0.000000e+00	5.075378e-01	1.137212e+15	2.762298e+15	9.237303e+14	2.165993e+04	1.157913e+04	2.914540e+03	0	1.107651e-03
3.200000e+08	3.515229e+13	0.000000e+00	5.075378e-01	1.132320e+15	2.743978e+15	9.189218e+14	2.164589e+04	1.157019e+04	2.912291e+03	0	1.101530e-03
3.300000e+08	3.456826e+13	0.000000e+00	5.075378e-01	1.127469e+15	2.725943e+15	9.141483e+14	2.163191e+04	1.156137e+04	2.910069e+03	0	1.095396e-03
3.400000e+08	3.398940e+13	0.000000e+00	5.075378e-01	1.122659e+15	2.708186e+15	9.094094e+14	2.161799e+04	1.155265e+04	2.907875e+03	0	1.089247e-03
3.500000e+08	3.341564e+13	0.000000e+00	5.075378e-01	1.117888e+15	2.690698e+15	9.047049e+14	2.160413e+04	1.154403e+04	2.905706e+03	0	1.083083e-03
3.600000e+08	3.284691e+13	0.000000e+00	5.075378e-01	1.113156e+15	2.673474e+15	9.000345e+14	2.159033e+04	1.153552e+04	2.903563e+03	0	1.076903e-03
3.700000e+08	3.228313e+13	0.000000e+00	5.075378e-01	1.108463e+15	2.656506e+15	8.953980e+14	2.157659e+04	1.152710e+04	2.901445e+03	0	1.070706e-03
3.800000e+08	3.172424e+13	0.000000e+00	5.075378e-01	1.103808e+15	2.639787e+15	8.907949e+14	2.156290e+04	1.151879e+04	2.899351e+03	0	1.064492e-03
3.900000e+08	3.117017e+13	0.000000e+00	5.075378e-01	1.099191e+15	2.623313e+15	8.862252e+14	2.154928e+04	1.151056e+04	2.897282e+03	0	1.058258e-03
4.000000e+08	3.062084e+13	0.000000e+00	5.075378e-01	1.094612e+15	2.607075e+15	8.816884e+14	2.153571e+04	1.150243e+04	2.895235e+03	0	1.052004e-03
4.100000e+08	3.007621e+13	0.000000e+00	5.075378e-01	1.090068e+15	2.591069e+15	8.771844e+14	2.152219e+04	1.149439e+04	2.893211e+03	0	1.045730e-03
4.200000e+08	2.953620e+13	0.000000e+00	5.075378e-01	1.085561e+15	2.575289e+15	8.727129e+14	2.150873e+04	1.148644e+04	2.891210e+03	0	1.039433e-03
4.300000e+08	2.900074e+13	0.000000e+00	5.075378e-01	1.081090e+15	2.559729e+15	8.682735e+14	2.149533e+04	1.147857e+04	2.889230e+03	0	1.033114e-03
4.400000e+08	2.846979e+13	0.000000e+00	5.075378e-01	1.076654e+15	2.544385e+15	8.638661e+14	2.148199e+04	1.147079e+04	2.887271e+03	0	1.026770e-03
4.500000e+08	2.794327e+13	0.000000e+00	5.075378e-01	1.072253e+15	2.529250e+15	8.594903e+14	2.146869e+04	1.146309e+04	2.885333e+03	0	1.020401e-03
4.600000e+08	2.742113e+13	0.000000e+00	5.075378e-01	1.067886e+15	2.514320e+15	8.551460e+14	2.145545e+04	1.145547e+04	2.883415e+03	0	1.014005e-03
4.700000e+08	2.690332e+13	0.000000e+00	5.075378e-01	1.063553e+15	2.499591e+15	8.508328e+14	2.144227e+04	1.144793e+04	2.881518e+03	0	1.007582e-03
4.800000e+08	2.638977e+13	0.000000e+00	5.075378e-01	1.059254e+15	2.485057e+15	8.465506e+14	2.142914e+04	1.144047e+04	2.879639e+03	0	1.001130e-03
4.900000e+08	2.588043e+13	0.000000e+00	5.075378e-01	1.054987e+15	2.470714e+15	8.422990e+14	2.141606e+04	1.143308e+04	2.877780e+03	0	9.946470e-04
5.000000e+08	2.537525e+13	0.000000e+00	5.075378e-01	1.050753e+15	2.456558e+15	8.380777e+14	2.140304e+04	1.142577e+04	2.875939e+03	0	9.881326e-04
5.100000e+08	2.487417e+13	0.000000e+00	5.075378e-01	1.046552e+15	2.442584e+15	8.338867e+14	2.139006e+04	1.141853e+04	2.874117e+03	0	9.815851e-04
5.200000e+08	2.437713e+13	0.000000e+00	5.075378e-01	1.042382e+15	2.428789e+15	8.297256e+14	2.137714e+04	1.141136e+04	2.872312e+03	0	9.750031e-04
5.300000e+08	2.388410e+13	0.000000e+00	5.075378e-01	1.038243e+15	2.415169e+15	8.255941e+14	2.136427e+04	1.140426e+04	2.870525e+03	0	9.683851e-04
5.400000e+08	2.339501e+13	0.000000e+00	5.075378e-01	1.034136e+15	2.401719e+15	8.214920e+14	2.135145e+04	1.139723e+04	2.868754e+03	0	9.617294e-04
5.500000e+08	2.290983e+13	0.000000e+00	5.075378e-01	1.030059e+15	2.388436e+15	8.174192e+14	2.133869e+04	1.139026e+04	2.867001e+03	0	9.550345e-04
5.600000e+08	2.242849e+13	0.000000e+00	5.075378e-01	1.026013e+15	2.375316e+15	8.133753e+14	2.132597e+04	1.138336e+04	2.865264e+03	0	9.482987e-04
5.700000e+08	2.195095e+13	0.000000e+00	5.075378e-01	1.021996e+15	2.362356e+15	8.093601e+14	2.131330e+04	1.137652e+04	2.863543e+03	0	9.415201e-04
5.800000e+08	2.147717e+13	0.000000e+00	5.075378e-01	1.018009e+15	2.349553e+15	8.053734e+14	2.130068e+04	1.136975e+04	2.861838e+03	0	9.346970e-04
5.900000e+08	2.100710e+13	0.000000e+00	5.075378e-01	1.014051e+15	2.336903e+15	8.014150e+14	2.128811e+04	1.136303e+04	2.860148e+03	0	9.278274e-04
6.000000e+08	2.054069e+13	0.000000e+00	5.075378e-01	1.010123e+15	2.324403e+15	7.974846e+14	2.127559e+04	1.135638e+04	2.858473e+03	0	9.209092e-04
6.100000e+08	2.007791e+13	0.000000e+00	5.075378e-01	1.006222e+15	2.312050e+15	7.935820e+14	2.126312e+04	1.134979e+04	2.856814e+03	0	9.139405e-04
6.200000e+08	1.961870e+13	0.000000e+00	5.075378e-01	1.002350e+15	2.299840e+15	7.897069e+14	2.125070e+04	1.134325e+04	2.855168e+03	0	9.069190e-04
6.300000e+08	1.916302e+13	0.000000e+00	5.075378e-01	9.985057e+14	2.287772e+15	7.858593e+14	2.123832e+04	1.133677e+04	2.853537e+03	0	8.998424e-04
6.400000e+08	1.871083e+13	0.000000e+00	5.075378e-01	9.946890e+14	2.275842e+15	7.820387e+14	2.122599e+04	1.133035e+04	2.851920e+03	0	8.927082e-04
6.500000e+08	1.826210e+13	0.000000e+00	5.075378e-01	9.908994e+14	2.264047e+15	7.782451e+14	2.121371e+04	1.132398e+04	2.850317e+03	0	8.855139e-04
6.600000e+08	1.781677e+13	0.000000e+00	5.075378e-01	9.871368e+14	2.252386e+15	7.744782e+14	2.120147e+04	1.131766e+04	2.848727e+03	0	8.782568e-04
6.700000e+08	1.737482e+13	0.000000e+00	5.075378e-01	9.834008e+14	2.240854e+15	7.707377e+14	2.118929e+04	1.131140e+04	2.847151e+03	0	8.709340e-04
6.800000e+08	1.693620e+13	0.000000e+00	5.075378e-01	9.796911e+14	2.229450e+15	7.670235e+14	2.117714e+04	1.130519e+04	2.845587e+03	0	8.635426e-04
6.900000e+08	1.650087e+13	0.000000e+00	5.075378e-01	9.760074e+14	2.218171e+15	7.633354e+14	2.116505e+04	1.129902e+04	2.844036e+03	0	8.560794e-04
7.000000e+08	1.606879e+13	0.000000e+00	5.075378e-01	9.723494e+14	2.207015e+15	7.596731e+14	2.115300e+04	1.129291e+04	2.842498e+03	0	8.485410e-04
7.100000e+08	1.563993e+13	0.000000e+00	5.075378e-01	9.687169e+14	2.195979e+15	7.560365e+14	2.114099e+04	1.128685e+04	2.840972e+03	0	8.409240e-04
7.200000e+08	1.521425e+13	0.000000e+00	5.075378e-01	9.651095e+14	2.185062e+15	7.524253e+14	2.112903e+04	1.128083e+04	2.839458e+03	0	8.332245e-04
7.300000e+08	1.479172e+13	0.000000e+00	5.075378e-01	9.615270e+14	2.174260e+15	7.488393e+14	2.111711e+04	1.127487e+04	2.837955e+03	0	8.254384e-04
7.400000e+08	1.437230e+13	0.000000e+00	5.075378e-01	9.579691e+14	2.163573e+15	7.452784e+14	2.110524e+04	1.126894e+04	2.836465e+03	0	8.175617e-04
7.500000e+08	1.395595e+13	0.000000e+00	5.075378e-01	9.544356e+14	2.152997e+15	7.417423e+14	2.109341e+04	1.126307e+04	2.834985e+03	0	8.095896e-04
7.600000e+08	1.354264e+13	0.000000e+00	5.075378e-01	9.509261e+14	2.142531e+15	7.382308e+14	2.108162e+04	1.125723e+04	2.833517e+03	0	8.015173e-04
7.700000e+08	1.313234e+13	0.000000e+00	5.075378e-01	9.474404e+14	2.132173e+15	7.347438e+14	2.106988e+04	1.125145e+04	2.832060e+03	0	7.933396e-04
7.800000e+08	1.272501e+13	0.000000e+00	5.075378e-01	9.439783e+14	2.121920e+15	7.312810e+14	2.105818e+04	1.124570e+04	2.830614e+03	0	7.850510e-04
7.900000e+08	1.232063e+13	0.000000e+00	5.075378e-01	9.405395e+14	2.111772e+15	7.278422e+14	2.104653e+04	1.124000e+04	2.829179e+03	0	7.766453e-04
8.000000e+08	1.191915e+13	0.000000e+00	5.075378e-01	9.371238e+14	2.101726e+15	7.244273e+14	2.103491e+04	1.123434e+04	2.827754e+03	0	7.681161e-04
8.100000e+08	1.152055e+13	0.000000e+00	5.075378e-01	9.337309e+14	2.091780e+15	7.210360e+14	2.102334e+04	1.122871e+04	2.826339e+03	0	7.594565e-04
8.200000e+08	1.112480e+13	0.000000e+00	5.075378e-01	9.303606e+14	2.081933e+15	7.176683e+14	2.101181e+04	1.122313e+04	2.824934e+03	0	7.506587e-04
8.300000e+08	1.073186e+13	0.000000e+00	5.075378e-01	9.270127e+14	2.072182e+15	7.143238e+14	2.100032e+04	1.121759e+04	2.823540e+03	0	7.417146e-04
8.400000e+08	1.034171e+13	0.000000e+00	5.075378e-01	9.236868e+14	2.062527e+15	7.110024e+14	2.098888e+04	1.121209e+04	2.822155e+03	0	7.326152e-04
8.500000e+08	9.954319e+12	0.000000e+00	5.075378e-01	9.203828e+14	2.052966e+15	7.077039e+14	2.097747e+04	1.120663e+04	2.820779e+03	0	7.233508e-04
8.600000e+08	9.569653e+12	0.000000e+00	5.075378e-01	9.171005e+14	2.043497e+15	7.044282e+14	2.096610e+04	1.120120e+04	2.819414e+03	0	7.139106e-04
8.700000e+08	9.187685e+12	0.000000e+00	5.075378e-01	9.138397e+14	2.034118e+15	7.011750e+14	2.095478e+04	1.119581e+04	2.818057e+03	0	7.042829e-04
8.800000e+08	8.808388e+12	0.000000e+00	5.075378e-01	9.106001e+14	2.024829e+15	6.979442e+14	2.094349e+04	1.119046e+04	2.816710e+03	0	6.944547e-04
8.900000e+08	8.431733e+12	0.000000e+00	5.075378e-01	9.073814e+14	2.015627e+15	6.947356e+14	2.093225e+04	1.118514e+04	2.815371e+03	0	6.844117e-04
9.000000e+08	8.057693e+12	0.000000e+00	5.075378e-01	9.041836e+14	2.006512e+15	6.915490e+14	2.092104e+04	1.117986e+04	2.814042e+03	0	6.741378e-04
9.100000e+08	7.686241e+12	0.000000e+00	5.075378e-01	9.010064e+14	1.997481e+15	6.883842e+14	2.090988e+04	1.117461e+04	2.812721e+03	0	6.636154e-04
9.200000e+08	7.317351e+12	0.000000e+00	5.075378e-01	8.978495e+14	1.988534e+15	6.852412e+14	2.089875e+04	1.116940e+04	2.811409e+03	0	6.528245e-04
9.300000e+08	6.950995e+12	0.000000e+00	5.075378e-01	8.947128e+14	1.979669e+15	6.821196e+14	2.088767e+04	1.116422e+04	2.810106e+03	0	6.417425e-04
9.400000e+08	6.587150e+12	0.000000e+00	5.075378e-01	8.915961e+14	1.970885e+15	6.790193e+14	2.087662e+04	1.115908e+04	2.808810e+03	0	6.303440e-04
9.500000e+08	6.225788e+12	0.000000e+00	5.075378e-01	8.884992e+14	1.962180e+15	6.759403e+14	2.086561e+04	1.115396e+04	2.807523e+03	0	6.186000e-04
9.600000e+08	5.866885e+12	0.000000e+00	5.075378e-01	8.854219e+14	1.953554e+15	6.728822e+14	2.085463e+04	1.114888e+04	2.806244e+03	0	6.064770e-04
9.700000e+08	5.510416e+12	0.000000e+00	5.075378e-01	8.823639e+14	1.945005e+15	6.698449e+14	2.084370e+04	1.114383e+04	2.804973e+03	0	5.939364e-04
9.800000e+08	5.156357e+12	0.000000e+00	5.075378e-01	8.793252e+14	1.936532e+15	6.668283e+14	2.083280e+04	1.113881e+04	2.803710e+03	0	5.809331e-04
9.900000e+08	4.804684e+12	0.000000e+00	5.075378e-01	8.763055e+14	1.928134e+15	6.638323e+14	2.082195e+04	1.113383e+04	2.802455e+03	0	5.674140e-04
1.000000e+09	4.455373e+12	0.000000e+00	5.075378e-01	8.733047e+14	1.919810e+15	6.608565e+14	2.081112e+04	1.112887e+04	2.801207e+03	0	5.533159e-04
1.010000e+09	4.108400e+12	0.000000e+00	5.075378e-01	8.703225e+14	1.911558e+15	6.579009e+14	2.080034e+04	1.112394e+04	2.799967e+03	0	5.385624e-04
1.020000e+09	3.763744e+12	0.000000e+00	5.075378e-01	8.673588e+14	1.903378e+15	6.549654e+14	2.078959e+04	1.111904e+04	2.798734e+03	0	5.230604e-04
1.030000e+09	3.421381e+12	0.000000e+00	5.075378e-01	8.644134e+14	1.895268e+15	6.520497e+14	2.077888e+04	1.111418e+04	2.797509e+03	0	5.066938e-04
1.040000e+09	3.081288e+12	0.000000e+00	5.075378e-01	8.614861e+14	1.887228e+15	6.491538e+14	2.076820e+04	1.110933e+04	2.796290e+03	0	4.893158e-04
1.050000e+09	2.743445e+12	0.000000e+00	5.075378e-01	8.585768e+14	1.879256e+15	6.462773e+14	2.075757e+04	1.110452e+04	2.795079e+03	0	4.707358e-04
1.060000e+09	2.407828e+12	0.000000e+00	5.075378e-01	8.556853e+14	1.871352e+15	6.434203e+14	2.074696e+04	1.109974e+04	2.793875e+03	0	4.506994e-04
1.070000e+09	2.074417e+12	0.000000e+00	5.075378e-01	8.528114e+14	1.863514e+15	6.405826e+14	2.073640e+04	1.109498e+04	2.792677e+03	0	4.288550e-04
1.080000e+09	1.743190e+12	0.000000e+00	5.075378e-01	8.499550e+14	1.855742e+15	6.377639e+14	2.072586e+04	1.109025e+04	2.791487e+03	0	4.046940e-04
1.090000e+09	1.414127e+12	0.000000e+00	5.075378e-01	8.471159e+14	1.848035e+15	6.349642e+14	2.071537e+04	1.108555e+04	2.790303e+03	0	3.774343e-04
1.100000e+09	1.087207e+12	0.000000e+00	5.075378e-01	8.442939e+14	1.840391e+15	6.321832e+14	2.070491e+04	1.108087e+04	2.789126e+03	0	3.457662e-04
1.110000e+09	7.624101e+11	0.000000e+00	5.075378e-01	8.414889e+14	1.832810e+15	6.294210e+14	2.069448e+04	1.107622e+04	2.787955e+03	0	3.071907e-04
1.120000e+09	4.397155e+11	0.000000e+00	5.075378e-01	8.387008e+14	1.825291e+15	6.266772e+14	2.068409e+04	1.107160e+04	2.786791e+03	0	2.557029e-04
1.130000e+09	1.191038e+11	0.000000e+00	5.075378e-01	8.359293e+14	1.817833e+15	6.239518e+14	2.067373e+04	1.106700e+04	2.785634e+03	0	1.654450e-04
1.140000e+09	-1.994444e+11	0.000000e+00	5.075378e-01	8.331743e+14	1.810436e+15	6.212446e+14	2.066341e+04	1.106242e+04	2.784482e+03	0	-nan
