#t		Qconv[W]	Ri[Rp]		R*[Rp]		Qc[W]		Qm[W]		Qr[W]		Tcmb[K]		Tl[K]		Tup[K]		RiFlag		Bs[T]
0.000000e+00	6.993586e+12	0.000000e+00	6.903226e-01	1.407948e+14	8.821464e+14	7.236954e+13	5.938121e+03	3.090344e+03	2.148805e+03	0	5.934450e-04
1.000000e+07	6.808895e+12	0.000000e+00	6.903226e-01	1.373079e+14	7.671468e+14	7.196856e+13	5.920013e+03	3.012555e+03	2.094716e+03	0	5.881743e-04
2.000000e+07	6.631400e+12	0.000000e+00	6.903226e-01	1.339564e+14	6.781397e+14	7.157058e+13	5.902351e+03	2.947193e+03	2.049267e+03	0	5.830184e-04
3.000000e+07	6.462687e+12	0.000000e+00	6.903226e-01	1.307699e+14	6.076345e+14	7.117557e+13	5.885117e+03	2.891472e+03	2.010523e+03	0	5.780315e-04
4.000000e+07	6.303104e+12	0.000000e+00	6.903226e-01	1.277551e+14	5.506783e+14	7.078351e+13	5.868290e+03	2.843390e+03	1.977091e+03	0	5.732341e-04
5.000000e+07	6.152417e+12	0.000000e+00	6.903226e-01	1.249073e+14	5.038878e+14	7.039438e+13	5.851849e+03	2.801469e+03	1.947941e+03	0	5.686291e-04
6.000000e+07	6.010133e+12	0.000000e+00	6.903226e-01	1.222175e+14	4.648867e+14	7.000814e+13	5.835772e+03	2.764591e+03	1.922300e+03	0	5.642114e-04
7.000000e+07	5.875658e+12	0.000000e+00	6.903226e-01	1.196744e+14	4.319644e+14	6.962479e+13	5.820039e+03	2.731899e+03	1.899568e+03	0	5.599716e-04
8.000000e+07	5.748381e+12	0.000000e+00	6.903226e-01	1.172665e+14	4.038624e+14	6.924428e+13	5.804632e+03	2.702719e+03	1.879278e+03	0	5.558988e-04
9.000000e+07	5.627713e+12	0.000000e+00	6.903226e-01	1.149829e+14	3.796375e+14	6.886660e+13	5.789534e+03	2.676515e+03	1.861057e+03	0	5.519815e-04
1.000000e+08	5.513105e+12	0.000000e+00	6.903226e-01	1.128132e+14	3.585705e+14	6.849173e+13	5.774728e+03	2.652857e+03	1.844607e+03	0	5.482087e-04
1.100000e+08	5.404053e+12	0.000000e+00	6.903226e-01	1.107479e+14	3.401045e+14	6.811964e+13	5.760199e+03	2.631394e+03	1.829683e+03	0	5.445700e-04
1.200000e+08	5.300100e+12	0.000000e+00	6.903226e-01	1.087785e+14	3.238029e+14	6.775031e+13	5.745936e+03	2.611835e+03	1.816083e+03	0	5.410556e-04
1.300000e+08	5.200837e+12	0.000000e+00	6.903226e-01	1.068973e+14	3.093185e+14	6.738371e+13	5.731925e+03	2.593940e+03	1.803641e+03	0	5.376565e-04
1.400000e+08	5.105892e+12	0.000000e+00	6.903226e-01	1.050973e+14	2.963728e+14	6.701982e+13	5.718155e+03	2.577507e+03	1.792214e+03	0	5.343647e-04
1.500000e+08	5.014934e+12	0.000000e+00	6.903226e-01	1.033724e+14	2.847396e+14	6.665863e+13	5.704616e+03	2.562365e+03	1.781686e+03	0	5.311725e-04
1.600000e+08	4.927664e+12	0.000000e+00	6.903226e-01	1.017168e+14	2.742338e+14	6.630010e+13	5.691298e+03	2.548368e+03	1.771953e+03	0	5.280733e-04
1.700000e+08	4.843814e+12	0.000000e+00	6.903226e-01	1.001255e+14	2.647024e+14	6.594422e+13	5.678193e+03	2.535393e+03	1.762931e+03	0	5.250609e-04
1.800000e+08	4.763140e+12	0.000000e+00	6.903226e-01	9.859412e+13	2.560183e+14	6.559096e+13	5.665291e+03	2.523330e+03	1.754544e+03	0	5.221296e-04
1.900000e+08	4.685426e+12	0.000000e+00	6.903226e-01	9.711841e+13	2.480748e+14	6.524031e+13	5.652586e+03	2.512088e+03	1.746726e+03	0	5.192743e-04
2.000000e+08	4.610473e+12	0.000000e+00	6.903226e-01	9.569470e+13	2.407818e+14	6.489223e+13	5.640071e+03	2.501584e+03	1.739423e+03	0	5.164905e-04
2.100000e+08	4.538103e+12	0.000000e+00	6.903226e-01	9.431963e+13	2.340630e+14	6.454671e+13	5.627738e+03	2.491748e+03	1.732584e+03	0	5.137738e-04
2.200000e+08	4.468152e+12	0.000000e+00	6.903226e-01	9.299014e+13	2.278529e+14	6.420374e+13	5.615581e+03	2.482518e+03	1.726166e+03	0	5.111203e-04
2.300000e+08	4.400474e+12	0.000000e+00	6.903226e-01	9.170347e+13	2.220957e+14	6.386327e+13	5.603596e+03	2.473837e+03	1.720130e+03	0	5.085266e-04
2.400000e+08	4.334933e+12	0.000000e+00	6.903226e-01	9.045708e+13	2.167429e+14	6.352531e+13	5.591775e+03	2.465658e+03	1.714443e+03	0	5.059893e-04
2.500000e+08	4.271406e+12	0.000000e+00	6.903226e-01	8.924864e+13	2.117526e+14	6.318982e+13	5.580114e+03	2.457937e+03	1.709074e+03	0	5.035054e-04
2.600000e+08	4.209780e+12	0.000000e+00	6.903226e-01	8.807604e+13	2.070885e+14	6.285679e+13	5.568609e+03	2.450634e+03	1.703996e+03	0	5.010722e-04
2.700000e+08	4.149951e+12	0.000000e+00	6.903226e-01	8.693734e+13	2.027184e+14	6.252619e+13	5.557254e+03	2.443716e+03	1.699186e+03	0	4.986871e-04
2.800000e+08	4.091824e+12	0.000000e+00	6.903226e-01	8.583073e+13	1.986145e+14	6.219800e+13	5.546045e+03	2.437151e+03	1.694621e+03	0	4.963479e-04
2.900000e+08	4.035312e+12	0.000000e+00	6.903226e-01	8.475456e+13	1.947522e+14	6.187221e+13	5.534979e+03	2.430912e+03	1.690283e+03	0	4.940522e-04
3.000000e+08	3.980332e+12	0.000000e+00	6.903226e-01	8.370732e+13	1.911095e+14	6.154880e+13	5.524050e+03	2.424973e+03	1.686153e+03	0	4.917982e-04
3.100000e+08	3.926810e+12	0.000000e+00	6.903226e-01	8.268759e+13	1.876672e+14	6.122774e+13	5.513256e+03	2.419311e+03	1.682216e+03	0	4.895839e-04
3.200000e+08	3.874676e+12	0.000000e+00	6.903226e-01	8.169405e+13	1.844081e+14	6.090901e+13	5.502594e+03	2.413906e+03	1.678458e+03	0	4.874076e-04
3.300000e+08	3.823866e+12	0.000000e+00	6.903226e-01	8.072551e+13	1.813168e+14	6.059261e+13	5.492058e+03	2.408739e+03	1.674865e+03	0	4.852677e-04
3.400000e+08	3.774319e+12	0.000000e+00	6.903226e-01	7.978082e+13	1.783798e+14	6.027850e+13	5.481648e+03	2.403792e+03	1.671426e+03	0	4.831627e-04
3.500000e+08	3.725980e+12	0.000000e+00	6.903226e-01	7.885893e+13	1.755845e+14	5.996667e+13	5.471358e+03	2.399051e+03	1.668129e+03	0	4.810911e-04
3.600000e+08	3.678796e+12	0.000000e+00	6.903226e-01	7.795886e+13	1.729201e+14	5.965710e+13	5.461187e+03	2.394501e+03	1.664965e+03	0	4.790517e-04
3.700000e+08	3.632719e+12	0.000000e+00	6.903226e-01	7.707970e+13	1.703765e+14	5.934978e+13	5.451132e+03	2.390129e+03	1.661925e+03	0	4.770433e-04
3.800000e+08	3.587702e+12	0.000000e+00	6.903226e-01	7.622058e+13	1.679448e+14	5.904467e+13	5.441190e+03	2.385924e+03	1.659001e+03	0	4.750646e-04
3.900000e+08	3.543704e+12	0.000000e+00	6.903226e-01	7.538070e+13	1.656167e+14	5.874178e+13	5.431358e+03	2.381874e+03	1.656185e+03	0	4.731146e-04
4.000000e+08	3.500684e+12	0.000000e+00	6.903226e-01	7.455930e+13	1.633850e+14	5.844107e+13	5.421634e+03	2.377969e+03	1.653470e+03	0	4.711922e-04
4.100000e+08	3.458603e+12	0.000000e+00	6.903226e-01	7.375568e+13	1.612429e+14	5.814253e+13	5.412016e+03	2.374200e+03	1.650849e+03	0	4.692966e-04
4.200000e+08	3.417428e+12	0.000000e+00	6.903226e-01	7.296916e+13	1.591842e+14	5.784614e+13	5.402501e+03	2.370559e+03	1.648318e+03	0	4.674268e-04
4.300000e+08	3.377123e+12	0.000000e+00	6.903226e-01	7.219911e+13	1.572034e+14	5.755188e+13	5.393087e+03	2.367038e+03	1.645869e+03	0	4.655820e-04
4.400000e+08	3.337658e+12	0.000000e+00	6.903226e-01	7.144493e+13	1.552955e+14	5.725975e+13	5.383772e+03	2.363629e+03	1.643499e+03	0	4.637612e-04
4.500000e+08	3.299003e+12	0.000000e+00	6.903226e-01	7.070608e+13	1.534557e+14	5.696971e+13	5.374555e+03	2.360327e+03	1.641203e+03	0	4.619639e-04
4.600000e+08	3.261129e+12	0.000000e+00	6.903226e-01	6.998201e+13	1.516797e+14	5.668175e+13	5.365432e+03	2.357123e+03	1.638975e+03	0	4.601893e-04
4.700000e+08	3.224009e+12	0.000000e+00	6.903226e-01	6.927222e+13	1.499637e+14	5.639586e+13	5.356402e+03	2.354014e+03	1.636813e+03	0	4.584366e-04
4.800000e+08	3.187620e+12	0.000000e+00	6.903226e-01	6.857623e+13	1.483040e+14	5.611202e+13	5.347463e+03	2.350993e+03	1.634713e+03	0	4.567053e-04
4.900000e+08	3.151935e+12	0.000000e+00	6.903226e-01	6.789360e+13	1.466973e+14	5.583021e+13	5.338615e+03	2.348056e+03	1.632671e+03	0	4.549946e-04
5.000000e+08	3.116934e+12	0.000000e+00	6.903226e-01	6.722389e+13	1.451406e+14	5.555041e+13	5.329853e+03	2.345198e+03	1.630683e+03	0	4.533042e-04
5.100000e+08	3.082593e+12	0.000000e+00	6.903226e-01	6.656669e+13	1.436310e+14	5.527262e+13	5.321178e+03	2.342415e+03	1.628748e+03	0	4.516333e-04
5.200000e+08	3.048893e+12	0.000000e+00	6.903226e-01	6.592162e+13	1.421658e+14	5.499681e+13	5.312588e+03	2.339702e+03	1.626862e+03	0	4.499814e-04
5.300000e+08	3.015813e+12	0.000000e+00	6.903226e-01	6.528830e+13	1.407427e+14	5.472296e+13	5.304080e+03	2.337057e+03	1.625022e+03	0	4.483481e-04
5.400000e+08	2.983335e+12	0.000000e+00	6.903226e-01	6.466638e+13	1.393594e+14	5.445106e+13	5.295654e+03	2.334474e+03	1.623227e+03	0	4.467328e-04
5.500000e+08	2.951441e+12	0.000000e+00	6.903226e-01	6.405553e+13	1.380139e+14	5.418110e+13	5.287308e+03	2.331953e+03	1.621473e+03	0	4.451351e-04
5.600000e+08	2.920114e+12	0.000000e+00	6.903226e-01	6.345542e+13	1.367041e+14	5.391306e+13	5.279041e+03	2.329488e+03	1.619760e+03	0	4.435546e-04
5.700000e+08	2.889337e+12	0.000000e+00	6.903226e-01	6.286574e+13	1.354283e+14	5.364692e+13	5.270851e+03	2.327078e+03	1.618084e+03	0	4.419908e-04
5.800000e+08	2.859096e+12	0.000000e+00	6.903226e-01	6.228621e+13	1.341848e+14	5.338267e+13	5.262737e+03	2.324720e+03	1.616444e+03	0	4.404434e-04
5.900000e+08	2.829375e+12	0.000000e+00	6.903226e-01	6.171653e+13	1.329720e+14	5.312029e+13	5.254697e+03	2.322411e+03	1.614839e+03	0	4.389119e-04
6.000000e+08	2.800159e+12	0.000000e+00	6.903226e-01	6.115644e+13	1.317885e+14	5.285977e+13	5.246730e+03	2.320148e+03	1.613266e+03	0	4.373959e-04
6.100000e+08	2.771436e+12	0.000000e+00	6.903226e-01	6.060568e+13	1.306330e+14	5.260110e+13	5.238836e+03	2.317931e+03	1.611724e+03	0	4.358952e-04
6.200000e+08	2.743191e+12	0.000000e+00	6.903226e-01	6.006400e+13	1.295040e+14	5.234425e+13	5.231013e+03	2.315756e+03	1.610212e+03	0	4.344094e-04
6.300000e+08	2.715413e+12	0.000000e+00	6.903226e-01	5.953116e+13	1.284005e+14	5.208921e+13	5.223259e+03	2.313622e+03	1.608728e+03	0	4.329381e-04
6.400000e+08	2.688089e+12	0.000000e+00	6.903226e-01	5.900694e+13	1.273213e+14	5.183597e+13	5.215574e+03	2.311527e+03	1.607271e+03	0	4.314810e-04
6.500000e+08	2.661207e+12	0.000000e+00	6.903226e-01	5.849111e+13	1.262654e+14	5.158452e+13	5.207956e+03	2.309470e+03	1.605840e+03	0	4.300379e-04
6.600000e+08	2.634756e+12	0.000000e+00	6.903226e-01	5.798346e+13	1.252317e+14	5.133483e+13	5.200405e+03	2.307447e+03	1.604434e+03	0	4.286084e-04
6.700000e+08	2.608726e+12	0.000000e+00	6.903226e-01	5.748379e+13	1.242194e+14	5.108691e+13	5.192919e+03	2.305459e+03	1.603052e+03	0	4.271922e-04
6.800000e+08	2.583106e+12	0.000000e+00	6.903226e-01	5.699191e+13	1.232276e+14	5.084072e+13	5.185497e+03	2.303504e+03	1.601692e+03	0	4.257892e-04
6.900000e+08	2.557886e+12	0.000000e+00	6.903226e-01	5.650761e+13	1.222554e+14	5.059626e+13	5.178139e+03	2.301580e+03	1.600355e+03	0	4.243989e-04
7.000000e+08	2.533057e+12	0.000000e+00	6.903226e-01	5.603073e+13	1.213021e+14	5.035351e+13	5.170843e+03	2.299686e+03	1.599038e+03	0	4.230212e-04
7.100000e+08	2.508608e+12	0.000000e+00	6.903226e-01	5.556108e+13	1.203670e+14	5.011246e+13	5.163608e+03	2.297821e+03	1.597741e+03	0	4.216558e-04
7.200000e+08	2.484531e+12	0.000000e+00	6.903226e-01	5.509849e+13	1.194494e+14	4.987310e+13	5.156434e+03	2.295984e+03	1.596463e+03	0	4.203025e-04
7.300000e+08	2.460818e+12	0.000000e+00	6.903226e-01	5.464281e+13	1.185486e+14	4.963541e+13	5.149320e+03	2.294173e+03	1.595204e+03	0	4.189611e-04
7.400000e+08	2.437460e+12	0.000000e+00	6.903226e-01	5.419386e+13	1.176639e+14	4.939938e+13	5.142264e+03	2.292388e+03	1.593963e+03	0	4.176313e-04
7.500000e+08	2.414449e+12	0.000000e+00	6.903226e-01	5.375151e+13	1.167950e+14	4.916500e+13	5.135266e+03	2.290628e+03	1.592739e+03	0	4.163129e-04
7.600000e+08	2.391777e+12	0.000000e+00	6.903226e-01	5.331560e+13	1.159411e+14	4.893225e+13	5.128325e+03	2.288891e+03	1.591531e+03	0	4.150057e-04
7.700000e+08	2.369436e+12	0.000000e+00	6.903226e-01	5.288598e+13	1.151017e+14	4.870112e+13	5.121440e+03	2.287177e+03	1.590340e+03	0	4.137095e-04
7.800000e+08	2.347420e+12	0.000000e+00	6.903226e-01	5.246253e+13	1.142764e+14	4.847159e+13	5.114610e+03	2.285485e+03	1.589163e+03	0	4.124241e-04
7.900000e+08	2.325720e+12	0.000000e+00	6.903226e-01	5.204510e+13	1.134648e+14	4.824366e+13	5.107835e+03	2.283815e+03	1.588002e+03	0	4.111494e-04
8.000000e+08	2.304331e+12	0.000000e+00	6.903226e-01	5.163356e+13	1.126662e+14	4.801731e+13	5.101114e+03	2.282165e+03	1.586855e+03	0	4.098851e-04
8.100000e+08	2.283245e+12	0.000000e+00	6.903226e-01	5.122780e+13	1.118805e+14	4.779252e+13	5.094446e+03	2.280535e+03	1.585722e+03	0	4.086310e-04
8.200000e+08	2.262456e+12	0.000000e+00	6.903226e-01	5.082768e+13	1.111070e+14	4.756930e+13	5.087830e+03	2.278925e+03	1.584602e+03	0	4.073871e-04
8.300000e+08	2.241959e+12	0.000000e+00	6.903226e-01	5.043309e+13	1.103455e+14	4.734761e+13	5.081265e+03	2.277333e+03	1.583494e+03	0	4.061530e-04
8.400000e+08	2.221745e+12	0.000000e+00	6.903226e-01	5.004391e+13	1.095955e+14	4.712746e+13	5.074751e+03	2.275758e+03	1.582400e+03	0	4.049288e-04
8.500000e+08	2.201811e+12	0.000000e+00	6.903226e-01	4.966004e+13	1.088569e+14	4.690883e+13	5.068288e+03	2.274202e+03	1.581317e+03	0	4.037141e-04
8.600000e+08	2.182150e+12	0.000000e+00	6.903226e-01	4.928136e+13	1.081291e+14	4.669170e+13	5.061874e+03	2.272662e+03	1.580247e+03	0	4.025088e-04
8.700000e+08	2.162757e+12	0.000000e+00	6.903226e-01	4.890777e+13	1.074119e+14	4.647607e+13	5.055509e+03	2.271138e+03	1.579187e+03	0	4.013128e-04
8.800000e+08	2.143625e+12	0.000000e+00	6.903226e-01	4.853917e+13	1.067050e+14	4.626192e+13	5.049191e+03	2.269630e+03	1.578139e+03	0	4.001260e-04
8.900000e+08	2.124751e+12	0.000000e+00	6.903226e-01	4.817546e+13	1.060081e+14	4.604925e+13	5.042922e+03	2.268138e+03	1.577101e+03	0	3.989482e-04
9.000000e+08	2.106128e+12	0.000000e+00	6.903226e-01	4.781653e+13	1.053209e+14	4.583803e+13	5.036699e+03	2.266660e+03	1.576074e+03	0	3.977792e-04
9.100000e+08	2.087752e+12	0.000000e+00	6.903226e-01	4.746231e+13	1.046432e+14	4.562826e+13	5.030522e+03	2.265197e+03	1.575057e+03	0	3.966190e-04
9.200000e+08	2.069619e+12	0.000000e+00	6.903226e-01	4.711269e+13	1.039748e+14	4.541993e+13	5.024391e+03	2.263749e+03	1.574049e+03	0	3.954674e-04
9.300000e+08	2.051723e+12	0.000000e+00	6.903226e-01	4.676760e+13	1.033153e+14	4.521302e+13	5.018306e+03	2.262313e+03	1.573051e+03	0	3.943242e-04
9.400000e+08	2.034059e+12	0.000000e+00	6.903226e-01	4.642693e+13	1.026645e+14	4.500753e+13	5.012264e+03	2.260892e+03	1.572063e+03	0	3.931893e-04
9.500000e+08	2.016624e+12	0.000000e+00	6.903226e-01	4.609061e+13	1.020223e+14	4.480344e+13	5.006267e+03	2.259483e+03	1.571083e+03	0	3.920627e-04
9.600000e+08	1.999413e+12	0.000000e+00	6.903226e-01	4.575856e+13	1.013883e+14	4.460074e+13	5.000313e+03	2.258086e+03	1.570112e+03	0	3.909441e-04
9.700000e+08	1.982422e+12	0.000000e+00	6.903226e-01	4.543069e+13	1.007625e+14	4.439942e+13	4.994401e+03	2.256702e+03	1.569150e+03	0	3.898336e-04
9.800000e+08	1.965647e+12	0.000000e+00	6.903226e-01	4.510694e+13	1.001446e+14	4.419947e+13	4.988532e+03	2.255330e+03	1.568196e+03	0	3.887309e-04
9.900000e+08	1.949084e+12	0.000000e+00	6.903226e-01	4.478721e+13	9.953446e+13	4.400088e+13	4.982705e+03	2.253970e+03	1.567250e+03	0	3.876359e-04
1.000000e+09	1.932728e+12	0.000000e+00	6.903226e-01	4.447145e+13	9.893183e+13	4.380364e+13	4.976918e+03	2.252621e+03	1.566312e+03	0	3.865486e-04
1.010000e+09	1.916577e+12	0.000000e+00	6.903226e-01	4.415957e+13	9.833657e+13	4.360773e+13	4.971173e+03	2.251283e+03	1.565382e+03	0	3.854688e-04
1.020000e+09	1.900626e+12	0.000000e+00	6.903226e-01	4.385152e+13	9.774852e+13	4.341316e+13	4.965468e+03	2.249956e+03	1.564459e+03	0	3.843965e-04
1.030000e+09	1.884871e+12	0.000000e+00	6.903226e-01	4.354721e+13	9.716751e+13	4.321990e+13	4.959802e+03	2.248640e+03	1.563544e+03	0	3.833314e-04
1.040000e+09	1.869311e+12	0.000000e+00	6.903226e-01	4.324659e+13	9.659338e+13	4.302794e+13	4.954176e+03	2.247334e+03	1.562635e+03	0	3.822736e-04
1.050000e+09	1.853939e+12	0.000000e+00	6.903226e-01	4.294958e+13	9.602600e+13	4.283728e+13	4.948588e+03	2.246038e+03	1.561734e+03	0	3.812229e-04
1.060000e+09	1.838755e+12	0.000000e+00	6.903226e-01	4.265613e+13	9.546520e+13	4.264791e+13	4.943039e+03	2.244752e+03	1.560840e+03	0	3.801793e-04
1.070000e+09	1.823754e+12	0.000000e+00	6.903226e-01	4.236617e+13	9.491087e+13	4.245982e+13	4.937527e+03	2.243475e+03	1.559953e+03	0	3.791426e-04
1.080000e+09	1.808932e+12	0.000000e+00	6.903226e-01	4.207964e+13	9.436285e+13	4.227298e+13	4.932053e+03	2.242208e+03	1.559072e+03	0	3.781127e-04
1.090000e+09	1.794288e+12	0.000000e+00	6.903226e-01	4.179649e+13	9.382102e+13	4.208741e+13	4.926616e+03	2.240951e+03	1.558197e+03	0	3.770896e-04
1.100000e+09	1.779818e+12	0.000000e+00	6.903226e-01	4.151665e+13	9.328526e+13	4.190308e+13	4.921215e+03	2.239702e+03	1.557329e+03	0	3.760732e-04
1.110000e+09	1.765518e+12	0.000000e+00	6.903226e-01	4.124008e+13	9.275545e+13	4.171999e+13	4.915851e+03	2.238462e+03	1.556467e+03	0	3.750633e-04
1.120000e+09	1.751387e+12	0.000000e+00	6.903226e-01	4.096670e+13	9.223146e+13	4.153812e+13	4.910522e+03	2.237231e+03	1.555611e+03	0	3.740599e-04
1.130000e+09	1.737421e+12	0.000000e+00	6.903226e-01	4.069648e+13	9.171318e+13	4.135748e+13	4.905228e+03	2.236009e+03	1.554761e+03	0	3.730630e-04
1.140000e+09	1.723617e+12	0.000000e+00	6.903226e-01	4.042936e+13	9.120051e+13	4.117803e+13	4.899969e+03	2.234795e+03	1.553917e+03	0	3.720724e-04
1.150000e+09	1.709973e+12	0.000000e+00	6.903226e-01	4.016528e+13	9.069334e+13	4.099979e+13	4.894745e+03	2.233589e+03	1.553078e+03	0	3.710880e-04
1.160000e+09	1.696486e+12	0.000000e+00	6.903226e-01	3.990420e+13	9.019156e+13	4.082274e+13	4.889554e+03	2.232391e+03	1.552245e+03	0	3.701098e-04
1.170000e+09	1.683153e+12	0.000000e+00	6.903226e-01	3.964606e+13	8.969507e+13	4.064686e+13	4.884398e+03	2.231201e+03	1.551418e+03	0	3.691377e-04
1.180000e+09	1.669973e+12	0.000000e+00	6.903226e-01	3.939083e+13	8.920378e+13	4.047216e+13	4.879274e+03	2.230019e+03	1.550596e+03	0	3.681716e-04
1.190000e+09	1.656942e+12	0.000000e+00	6.903226e-01	3.913845e+13	8.871760e+13	4.029862e+13	4.874184e+03	2.228844e+03	1.549779e+03	0	3.672115e-04
1.200000e+09	1.644058e+12	0.000000e+00	6.903226e-01	3.888888e+13	8.823643e+13	4.012623e+13	4.869126e+03	2.227677e+03	1.548968e+03	0	3.662572e-04
1.210000e+09	1.631318e+12	0.000000e+00	6.903226e-01	3.864206e+13	8.776018e+13	3.995498e+13	4.864100e+03	2.226518e+03	1.548161e+03	0	3.653088e-04
1.220000e+09	1.618722e+12	0.000000e+00	6.903226e-01	3.839797e+13	8.728877e+13	3.978486e+13	4.859106e+03	2.225365e+03	1.547360e+03	0	3.643660e-04
1.230000e+09	1.606265e+12	0.000000e+00	6.903226e-01	3.815655e+13	8.682212e+13	3.961588e+13	4.854143e+03	2.224220e+03	1.546564e+03	0	3.634290e-04
1.240000e+09	1.593946e+12	0.000000e+00	6.903226e-01	3.791776e+13	8.636014e+13	3.944801e+13	4.849212e+03	2.223081e+03	1.545772e+03	0	3.624975e-04
1.250000e+09	1.581763e+12	0.000000e+00	6.903226e-01	3.768157e+13	8.590276e+13	3.928124e+13	4.844311e+03	2.221950e+03	1.544985e+03	0	3.615716e-04
1.260000e+09	1.569713e+12	0.000000e+00	6.903226e-01	3.744792e+13	8.544989e+13	3.911558e+13	4.839441e+03	2.220825e+03	1.544203e+03	0	3.606511e-04
1.270000e+09	1.557795e+12	0.000000e+00	6.903226e-01	3.721679e+13	8.500147e+13	3.895101e+13	4.834601e+03	2.219707e+03	1.543426e+03	0	3.597360e-04
1.280000e+09	1.546006e+12	0.000000e+00	6.903226e-01	3.698813e+13	8.455742e+13	3.878752e+13	4.829791e+03	2.218596e+03	1.542653e+03	0	3.588263e-04
1.290000e+09	1.534345e+12	0.000000e+00	6.903226e-01	3.676191e+13	8.411767e+13	3.862511e+13	4.825011e+03	2.217491e+03	1.541885e+03	0	3.579218e-04
1.300000e+09	1.522810e+12	0.000000e+00	6.903226e-01	3.653808e+13	8.368215e+13	3.846376e+13	4.820259e+03	2.216392e+03	1.541121e+03	0	3.570226e-04
1.310000e+09	1.511398e+12	0.000000e+00	6.903226e-01	3.631661e+13	8.325080e+13	3.830347e+13	4.815536e+03	2.215300e+03	1.540361e+03	0	3.561285e-04
1.320000e+09	1.500107e+12	0.000000e+00	6.903226e-01	3.609747e+13	8.282354e+13	3.814423e+13	4.810842e+03	2.214213e+03	1.539606e+03	0	3.552395e-04
1.330000e+09	1.488937e+12	0.000000e+00	6.903226e-01	3.588063e+13	8.240032e+13	3.798603e+13	4.806177e+03	2.213133e+03	1.538855e+03	0	3.543556e-04
1.340000e+09	1.477884e+12	0.000000e+00	6.903226e-01	3.566603e+13	8.198107e+13	3.782886e+13	4.801539e+03	2.212059e+03	1.538108e+03	0	3.534766e-04
1.350000e+09	1.466948e+12	0.000000e+00	6.903226e-01	3.545366e+13	8.156574e+13	3.767272e+13	4.796929e+03	2.210991e+03	1.537365e+03	0	3.526026e-04
1.360000e+09	1.456127e+12	0.000000e+00	6.903226e-01	3.524349e+13	8.115426e+13	3.751760e+13	4.792346e+03	2.209928e+03	1.536626e+03	0	3.517334e-04
