#t		Qconv[W]	Ri[Rp]		R*[Rp]		Qc[W]		Qm[W]		Qr[W]		Tcmb[K]		Tl[K]		Tup[K]		RiFlag		Bs[T]
0.000000e+00	9.031744e+12	0.000000e+00	6.883118e-01	1.614693e+14	1.246089e+15	1.416609e+14	7.189435e+03	3.535522e+03	2.375493e+03	0	6.249174e-04
1.000000e+07	8.788448e+12	0.000000e+00	6.883118e-01	1.584134e+14	1.131098e+15	1.408760e+14	7.180166e+03	3.476936e+03	2.336129e+03	0	6.192550e-04
2.000000e+07	8.560191e+12	0.000000e+00	6.883118e-01	1.555436e+14	1.035246e+15	1.400970e+14	7.171072e+03	3.425057e+03	2.301272e+03	0	6.138467e-04
3.000000e+07	8.345989e+12	0.000000e+00	6.883118e-01	1.528477e+14	9.543626e+14	1.393237e+14	7.162142e+03	3.378774e+03	2.270175e+03	0	6.086833e-04
4.000000e+07	8.144761e+12	0.000000e+00	6.883118e-01	1.503124e+14	8.853717e+14	1.385563e+14	7.153367e+03	3.337215e+03	2.242252e+03	0	6.037515e-04
5.000000e+07	7.955429e+12	0.000000e+00	6.883118e-01	1.479244e+14	8.259594e+14	1.377946e+14	7.144736e+03	3.299682e+03	2.217034e+03	0	5.990365e-04
6.000000e+07	7.776970e+12	0.000000e+00	6.883118e-01	1.456710e+14	7.743579e+14	1.370385e+14	7.136243e+03	3.265611e+03	2.194142e+03	0	5.945233e-04
7.000000e+07	7.608435e+12	0.000000e+00	6.883118e-01	1.435405e+14	7.291961e+14	1.362881e+14	7.127878e+03	3.234541e+03	2.173266e+03	0	5.901973e-04
8.000000e+07	7.448961e+12	0.000000e+00	6.883118e-01	1.415222e+14	6.893968e+14	1.355433e+14	7.119636e+03	3.206090e+03	2.154150e+03	0	5.860446e-04
9.000000e+07	7.297765e+12	0.000000e+00	6.883118e-01	1.396065e+14	6.541032e+14	1.348040e+14	7.111509e+03	3.179940e+03	2.136580e+03	0	5.820524e-04
1.000000e+08	7.154144e+12	0.000000e+00	6.883118e-01	1.377847e+14	6.226267e+14	1.340702e+14	7.103492e+03	3.155823e+03	2.120376e+03	0	5.782087e-04
1.100000e+08	7.017463e+12	0.000000e+00	6.883118e-01	1.360489e+14	5.944078e+14	1.333419e+14	7.095579e+03	3.133513e+03	2.105386e+03	0	5.745028e-04
1.200000e+08	6.887155e+12	0.000000e+00	6.883118e-01	1.343922e+14	5.689883e+14	1.326189e+14	7.087766e+03	3.112813e+03	2.091478e+03	0	5.709246e-04
1.300000e+08	6.762710e+12	0.000000e+00	6.883118e-01	1.328082e+14	5.459895e+14	1.319013e+14	7.080047e+03	3.093559e+03	2.078541e+03	0	5.674649e-04
1.400000e+08	6.643669e+12	0.000000e+00	6.883118e-01	1.312913e+14	5.250961e+14	1.311890e+14	7.072420e+03	3.075605e+03	2.066478e+03	0	5.641156e-04
1.500000e+08	6.529618e+12	0.000000e+00	6.883118e-01	1.298363e+14	5.060436e+14	1.304820e+14	7.064879e+03	3.058825e+03	2.055204e+03	0	5.608689e-04
1.600000e+08	6.420186e+12	0.000000e+00	6.883118e-01	1.284388e+14	4.886088e+14	1.297802e+14	7.057422e+03	3.043109e+03	2.044644e+03	0	5.577180e-04
1.700000e+08	6.315037e+12	0.000000e+00	6.883118e-01	1.270944e+14	4.726021e+14	1.290836e+14	7.050044e+03	3.028362e+03	2.034736e+03	0	5.546564e-04
1.800000e+08	6.213866e+12	0.000000e+00	6.883118e-01	1.257994e+14	4.578615e+14	1.283921e+14	7.042744e+03	3.014497e+03	2.025420e+03	0	5.516785e-04
1.900000e+08	6.116397e+12	0.000000e+00	6.883118e-01	1.245506e+14	4.442478e+14	1.277057e+14	7.035518e+03	3.001439e+03	2.016646e+03	0	5.487788e-04
2.000000e+08	6.022382e+12	0.000000e+00	6.883118e-01	1.233446e+14	4.316410e+14	1.270243e+14	7.028364e+03	2.989121e+03	2.008370e+03	0	5.459525e-04
2.100000e+08	5.931590e+12	0.000000e+00	6.883118e-01	1.221788e+14	4.199370e+14	1.263480e+14	7.021279e+03	2.977482e+03	2.000550e+03	0	5.431951e-04
2.200000e+08	5.843816e+12	0.000000e+00	6.883118e-01	1.210505e+14	4.090451e+14	1.256766e+14	7.014260e+03	2.966470e+03	1.993151e+03	0	5.405024e-04
2.300000e+08	5.758868e+12	0.000000e+00	6.883118e-01	1.199574e+14	3.988860e+14	1.250102e+14	7.007306e+03	2.956035e+03	1.986140e+03	0	5.378706e-04
2.400000e+08	5.676574e+12	0.000000e+00	6.883118e-01	1.188974e+14	3.893899e+14	1.243486e+14	7.000415e+03	2.946135e+03	1.979488e+03	0	5.352962e-04
2.500000e+08	5.596773e+12	0.000000e+00	6.883118e-01	1.178685e+14	3.804956e+14	1.236919e+14	6.993585e+03	2.936729e+03	1.973168e+03	0	5.327760e-04
2.600000e+08	5.519321e+12	0.000000e+00	6.883118e-01	1.168689e+14	3.721488e+14	1.230400e+14	6.986813e+03	2.927783e+03	1.967157e+03	0	5.303069e-04
2.700000e+08	5.444082e+12	0.000000e+00	6.883118e-01	1.158968e+14	3.643013e+14	1.223929e+14	6.980099e+03	2.919263e+03	1.961433e+03	0	5.278862e-04
2.800000e+08	5.370932e+12	0.000000e+00	6.883118e-01	1.149509e+14	3.569103e+14	1.217505e+14	6.973441e+03	2.911141e+03	1.955976e+03	0	5.255112e-04
2.900000e+08	5.299757e+12	0.000000e+00	6.883118e-01	1.140296e+14	3.499375e+14	1.211127e+14	6.966837e+03	2.903389e+03	1.950767e+03	0	5.231795e-04
3.000000e+08	5.230451e+12	0.000000e+00	6.883118e-01	1.131316e+14	3.433487e+14	1.204797e+14	6.960286e+03	2.895983e+03	1.945791e+03	0	5.208890e-04
3.100000e+08	5.162916e+12	0.000000e+00	6.883118e-01	1.122558e+14	3.371131e+14	1.198512e+14	6.953786e+03	2.888900e+03	1.941032e+03	0	5.186374e-04
3.200000e+08	5.097062e+12	0.000000e+00	6.883118e-01	1.114010e+14	3.312031e+14	1.192273e+14	6.947336e+03	2.882120e+03	1.936477e+03	0	5.164228e-04
3.300000e+08	5.032804e+12	0.000000e+00	6.883118e-01	1.105661e+14	3.255937e+14	1.186080e+14	6.940936e+03	2.875624e+03	1.932112e+03	0	5.142435e-04
3.400000e+08	4.970064e+12	0.000000e+00	6.883118e-01	1.097503e+14	3.202625e+14	1.179931e+14	6.934583e+03	2.869393e+03	1.927926e+03	0	5.120976e-04
3.500000e+08	4.908768e+12	0.000000e+00	6.883118e-01	1.089525e+14	3.151889e+14	1.173827e+14	6.928277e+03	2.863412e+03	1.923907e+03	0	5.099837e-04
3.600000e+08	4.848849e+12	0.000000e+00	6.883118e-01	1.081720e+14	3.103544e+14	1.167767e+14	6.922017e+03	2.857666e+03	1.920047e+03	0	5.079001e-04
3.700000e+08	4.790244e+12	0.000000e+00	6.883118e-01	1.074080e+14	3.057422e+14	1.161752e+14	6.915802e+03	2.852142e+03	1.916334e+03	0	5.058456e-04
3.800000e+08	4.732892e+12	0.000000e+00	6.883118e-01	1.066596e+14	3.013368e+14	1.155779e+14	6.909630e+03	2.846825e+03	1.912762e+03	0	5.038187e-04
3.900000e+08	4.676740e+12	0.000000e+00	6.883118e-01	1.059263e+14	2.971243e+14	1.149850e+14	6.903502e+03	2.841705e+03	1.909322e+03	0	5.018183e-04
4.000000e+08	4.621733e+12	0.000000e+00	6.883118e-01	1.052074e+14	2.930917e+14	1.143964e+14	6.897415e+03	2.836770e+03	1.906006e+03	0	4.998431e-04
4.100000e+08	4.567825e+12	0.000000e+00	6.883118e-01	1.045023e+14	2.892272e+14	1.138120e+14	6.891370e+03	2.832010e+03	1.902808e+03	0	4.978921e-04
4.200000e+08	4.514970e+12	0.000000e+00	6.883118e-01	1.038104e+14	2.855202e+14	1.132318e+14	6.885365e+03	2.827415e+03	1.899721e+03	0	4.959643e-04
4.300000e+08	4.463123e+12	0.000000e+00	6.883118e-01	1.031312e+14	2.819605e+14	1.126558e+14	6.879399e+03	2.822977e+03	1.896739e+03	0	4.940585e-04
4.400000e+08	4.412246e+12	0.000000e+00	6.883118e-01	1.024642e+14	2.785392e+14	1.120840e+14	6.873473e+03	2.818687e+03	1.893856e+03	0	4.921740e-04
4.500000e+08	4.362300e+12	0.000000e+00	6.883118e-01	1.018089e+14	2.752476e+14	1.115163e+14	6.867585e+03	2.814537e+03	1.891068e+03	0	4.903098e-04
4.600000e+08	4.313249e+12	0.000000e+00	6.883118e-01	1.011648e+14	2.720781e+14	1.109526e+14	6.861735e+03	2.810521e+03	1.888370e+03	0	4.884652e-04
4.700000e+08	4.265059e+12	0.000000e+00	6.883118e-01	1.005317e+14	2.690235e+14	1.103930e+14	6.855921e+03	2.806630e+03	1.885756e+03	0	4.866392e-04
4.800000e+08	4.217700e+12	0.000000e+00	6.883118e-01	9.990892e+13	2.660770e+14	1.098374e+14	6.850144e+03	2.802859e+03	1.883222e+03	0	4.848313e-04
4.900000e+08	4.171139e+12	0.000000e+00	6.883118e-01	9.929626e+13	2.632325e+14	1.092857e+14	6.844403e+03	2.799203e+03	1.880765e+03	0	4.830406e-04
5.000000e+08	4.125350e+12	0.000000e+00	6.883118e-01	9.869333e+13	2.604843e+14	1.087380e+14	6.838696e+03	2.795654e+03	1.878381e+03	0	4.812666e-04
5.100000e+08	4.080305e+12	0.000000e+00	6.883118e-01	9.809980e+13	2.578271e+14	1.081943e+14	6.833025e+03	2.792208e+03	1.876066e+03	0	4.795085e-04
5.200000e+08	4.035979e+12	0.000000e+00	6.883118e-01	9.751533e+13	2.552557e+14	1.076544e+14	6.827387e+03	2.788861e+03	1.873816e+03	0	4.777658e-04
5.300000e+08	3.992347e+12	0.000000e+00	6.883118e-01	9.693964e+13	2.527658e+14	1.071183e+14	6.821783e+03	2.785606e+03	1.871630e+03	0	4.760379e-04
5.400000e+08	3.949387e+12	0.000000e+00	6.883118e-01	9.637244e+13	2.503529e+14	1.065861e+14	6.816212e+03	2.782440e+03	1.869503e+03	0	4.743243e-04
5.500000e+08	3.907077e+12	0.000000e+00	6.883118e-01	9.581345e+13	2.480131e+14	1.060577e+14	6.810673e+03	2.779359e+03	1.867433e+03	0	4.726243e-04
5.600000e+08	3.865396e+12	0.000000e+00	6.883118e-01	9.526242e+13	2.457425e+14	1.055330e+14	6.805167e+03	2.776359e+03	1.865417e+03	0	4.709377e-04
5.700000e+08	3.824324e+12	0.000000e+00	6.883118e-01	9.471911e+13	2.435378e+14	1.050120e+14	6.799692e+03	2.773436e+03	1.863453e+03	0	4.692637e-04
5.800000e+08	3.783843e+12	0.000000e+00	6.883118e-01	9.418327e+13	2.413956e+14	1.044948e+14	6.794248e+03	2.770586e+03	1.861538e+03	0	4.676021e-04
5.900000e+08	3.743935e+12	0.000000e+00	6.883118e-01	9.365470e+13	2.393128e+14	1.039812e+14	6.788835e+03	2.767807e+03	1.859671e+03	0	4.659524e-04
6.000000e+08	3.704583e+12	0.000000e+00	6.883118e-01	9.313318e+13	2.372866e+14	1.034712e+14	6.783453e+03	2.765095e+03	1.857848e+03	0	4.643141e-04
6.100000e+08	3.665771e+12	0.000000e+00	6.883118e-01	9.261850e+13	2.353143e+14	1.029648e+14	6.778100e+03	2.762447e+03	1.856069e+03	0	4.626869e-04
6.200000e+08	3.627484e+12	0.000000e+00	6.883118e-01	9.211048e+13	2.333933e+14	1.024621e+14	6.772777e+03	2.759860e+03	1.854331e+03	0	4.610704e-04
6.300000e+08	3.589706e+12	0.000000e+00	6.883118e-01	9.160892e+13	2.315212e+14	1.019628e+14	6.767483e+03	2.757332e+03	1.852633e+03	0	4.594642e-04
6.400000e+08	3.552424e+12	0.000000e+00	6.883118e-01	9.111367e+13	2.296959e+14	1.014671e+14	6.762217e+03	2.754861e+03	1.850972e+03	0	4.578681e-04
6.500000e+08	3.515624e+12	0.000000e+00	6.883118e-01	9.062454e+13	2.279151e+14	1.009749e+14	6.756981e+03	2.752443e+03	1.849348e+03	0	4.562815e-04
6.600000e+08	3.479294e+12	0.000000e+00	6.883118e-01	9.014138e+13	2.261770e+14	1.004862e+14	6.751772e+03	2.750077e+03	1.847758e+03	0	4.547044e-04
6.700000e+08	3.443420e+12	0.000000e+00	6.883118e-01	8.966403e+13	2.244797e+14	1.000009e+14	6.746591e+03	2.747761e+03	1.846202e+03	0	4.531362e-04
6.800000e+08	3.407992e+12	0.000000e+00	6.883118e-01	8.919235e+13	2.228213e+14	9.951897e+13	6.741437e+03	2.745492e+03	1.844677e+03	0	4.515768e-04
6.900000e+08	3.372998e+12	0.000000e+00	6.883118e-01	8.872620e+13	2.212003e+14	9.904045e+13	6.736311e+03	2.743268e+03	1.843183e+03	0	4.500259e-04
7.000000e+08	3.338428e+12	0.000000e+00	6.883118e-01	8.826543e+13	2.196150e+14	9.856528e+13	6.731211e+03	2.741089e+03	1.841719e+03	0	4.484831e-04
7.100000e+08	3.304270e+12	0.000000e+00	6.883118e-01	8.780993e+13	2.180640e+14	9.809343e+13	6.726137e+03	2.738951e+03	1.840282e+03	0	4.469483e-04
7.200000e+08	3.270515e+12	0.000000e+00	6.883118e-01	8.735956e+13	2.165459e+14	9.762489e+13	6.721090e+03	2.736853e+03	1.838873e+03	0	4.454211e-04
7.300000e+08	3.237154e+12	0.000000e+00	6.883118e-01	8.691421e+13	2.150593e+14	9.715962e+13	6.716069e+03	2.734795e+03	1.837490e+03	0	4.439014e-04
7.400000e+08	3.204176e+12	0.000000e+00	6.883118e-01	8.647377e+13	2.136029e+14	9.669760e+13	6.711073e+03	2.732773e+03	1.836132e+03	0	4.423889e-04
7.500000e+08	3.171574e+12	0.000000e+00	6.883118e-01	8.603811e+13	2.121757e+14	9.623881e+13	6.706102e+03	2.730788e+03	1.834798e+03	0	4.408834e-04
7.600000e+08	3.139339e+12	0.000000e+00	6.883118e-01	8.560714e+13	2.107764e+14	9.578320e+13	6.701157e+03	2.728837e+03	1.833487e+03	0	4.393846e-04
7.700000e+08	3.107463e+12	0.000000e+00	6.883118e-01	8.518076e+13	2.094040e+14	9.533077e+13	6.696236e+03	2.726919e+03	1.832198e+03	0	4.378924e-04
7.800000e+08	3.075938e+12	0.000000e+00	6.883118e-01	8.475886e+13	2.080575e+14	9.488148e+13	6.691339e+03	2.725033e+03	1.830931e+03	0	4.364066e-04
7.900000e+08	3.044756e+12	0.000000e+00	6.883118e-01	8.434135e+13	2.067359e+14	9.443531e+13	6.686467e+03	2.723178e+03	1.829685e+03	0	4.349269e-04
8.000000e+08	3.013909e+12	0.000000e+00	6.883118e-01	8.392813e+13	2.054383e+14	9.399224e+13	6.681619e+03	2.721352e+03	1.828458e+03	0	4.334531e-04
8.100000e+08	2.983392e+12	0.000000e+00	6.883118e-01	8.351913e+13	2.041639e+14	9.355223e+13	6.676795e+03	2.719555e+03	1.827251e+03	0	4.319852e-04
8.200000e+08	2.953197e+12	0.000000e+00	6.883118e-01	8.311426e+13	2.029117e+14	9.311527e+13	6.671994e+03	2.717786e+03	1.826062e+03	0	4.305229e-04
8.300000e+08	2.923318e+12	0.000000e+00	6.883118e-01	8.271342e+13	2.016811e+14	9.268134e+13	6.667216e+03	2.716043e+03	1.824891e+03	0	4.290660e-04
8.400000e+08	2.893748e+12	0.000000e+00	6.883118e-01	8.231655e+13	2.004712e+14	9.225040e+13	6.662461e+03	2.714326e+03	1.823737e+03	0	4.276144e-04
8.500000e+08	2.864481e+12	0.000000e+00	6.883118e-01	8.192357e+13	1.992814e+14	9.182243e+13	6.657729e+03	2.712633e+03	1.822600e+03	0	4.261679e-04
8.600000e+08	2.835512e+12	0.000000e+00	6.883118e-01	8.153440e+13	1.981109e+14	9.139741e+13	6.653020e+03	2.710965e+03	1.821479e+03	0	4.247264e-04
8.700000e+08	2.806834e+12	0.000000e+00	6.883118e-01	8.114898e+13	1.969592e+14	9.097532e+13	6.648333e+03	2.709319e+03	1.820373e+03	0	4.232897e-04
8.800000e+08	2.778442e+12	0.000000e+00	6.883118e-01	8.076722e+13	1.958256e+14	9.055613e+13	6.643668e+03	2.707696e+03	1.819282e+03	0	4.218576e-04
8.900000e+08	2.750331e+12	0.000000e+00	6.883118e-01	8.038907e+13	1.947095e+14	9.013983e+13	6.639025e+03	2.706094e+03	1.818206e+03	0	4.204300e-04
9.000000e+08	2.722495e+12	0.000000e+00	6.883118e-01	8.001446e+13	1.936104e+14	8.972638e+13	6.634403e+03	2.704514e+03	1.817144e+03	0	4.190069e-04
9.100000e+08	2.694930e+12	0.000000e+00	6.883118e-01	7.964333e+13	1.925277e+14	8.931576e+13	6.629803e+03	2.702953e+03	1.816096e+03	0	4.175879e-04
9.200000e+08	2.667631e+12	0.000000e+00	6.883118e-01	7.927561e+13	1.914609e+14	8.890796e+13	6.625225e+03	2.701412e+03	1.815060e+03	0	4.161731e-04
9.300000e+08	2.640593e+12	0.000000e+00	6.883118e-01	7.891125e+13	1.904096e+14	8.850294e+13	6.620668e+03	2.699890e+03	1.814037e+03	0	4.147623e-04
9.400000e+08	2.613811e+12	0.000000e+00	6.883118e-01	7.855019e+13	1.893732e+14	8.810069e+13	6.616131e+03	2.698386e+03	1.813027e+03	0	4.133553e-04
9.500000e+08	2.587281e+12	0.000000e+00	6.883118e-01	7.819237e+13	1.883513e+14	8.770119e+13	6.611615e+03	2.696899e+03	1.812028e+03	0	4.119520e-04
9.600000e+08	2.561000e+12	0.000000e+00	6.883118e-01	7.783774e+13	1.873436e+14	8.730442e+13	6.607120e+03	2.695430e+03	1.811041e+03	0	4.105524e-04
9.700000e+08	2.534961e+12	0.000000e+00	6.883118e-01	7.748625e+13	1.863494e+14	8.691034e+13	6.602645e+03	2.693978e+03	1.810065e+03	0	4.091563e-04
9.800000e+08	2.509162e+12	0.000000e+00	6.883118e-01	7.713785e+13	1.853686e+14	8.651895e+13	6.598190e+03	2.692542e+03	1.809100e+03	0	4.077635e-04
9.900000e+08	2.483599e+12	0.000000e+00	6.883118e-01	7.679248e+13	1.844007e+14	8.613022e+13	6.593756e+03	2.691121e+03	1.808146e+03	0	4.063740e-04
1.000000e+09	2.458268e+12	0.000000e+00	6.883118e-01	7.645010e+13	1.834453e+14	8.574412e+13	6.589341e+03	2.689715e+03	1.807202e+03	0	4.049877e-04
1.010000e+09	2.433164e+12	0.000000e+00	6.883118e-01	7.611067e+13	1.825021e+14	8.536065e+13	6.584946e+03	2.688325e+03	1.806267e+03	0	4.036044e-04
1.020000e+09	2.408285e+12	0.000000e+00	6.883118e-01	7.577413e+13	1.815708e+14	8.497977e+13	6.580570e+03	2.686948e+03	1.805342e+03	0	4.022241e-04
1.030000e+09	2.383628e+12	0.000000e+00	6.883118e-01	7.544044e+13	1.806511e+14	8.460147e+13	6.576213e+03	2.685586e+03	1.804427e+03	0	4.008466e-04
1.040000e+09	2.359187e+12	0.000000e+00	6.883118e-01	7.510956e+13	1.797426e+14	8.422572e+13	6.571876e+03	2.684236e+03	1.803520e+03	0	3.994719e-04
1.050000e+09	2.334961e+12	0.000000e+00	6.883118e-01	7.478144e+13	1.788451e+14	8.385252e+13	6.567558e+03	2.682900e+03	1.802623e+03	0	3.980998e-04
1.060000e+09	2.310946e+12	0.000000e+00	6.883118e-01	7.445606e+13	1.779582e+14	8.348183e+13	6.563258e+03	2.681577e+03	1.801733e+03	0	3.967303e-04
1.070000e+09	2.287138e+12	0.000000e+00	6.883118e-01	7.413335e+13	1.770818e+14	8.311364e+13	6.558978e+03	2.680266e+03	1.800853e+03	0	3.953632e-04
1.080000e+09	2.263536e+12	0.000000e+00	6.883118e-01	7.381330e+13	1.762155e+14	8.274792e+13	6.554715e+03	2.678967e+03	1.799980e+03	0	3.939985e-04
1.090000e+09	2.240135e+12	0.000000e+00	6.883118e-01	7.349585e+13	1.753591e+14	8.238467e+13	6.550472e+03	2.677680e+03	1.799115e+03	0	3.926360e-04
1.100000e+09	2.216932e+12	0.000000e+00	6.883118e-01	7.318097e+13	1.745123e+14	8.202385e+13	6.546246e+03	2.676405e+03	1.798258e+03	0	3.912757e-04
1.110000e+09	2.193926e+12	0.000000e+00	6.883118e-01	7.286863e+13	1.736750e+14	8.166545e+13	6.542038e+03	2.675140e+03	1.797408e+03	0	3.899175e-04
1.120000e+09	2.171113e+12	0.000000e+00	6.883118e-01	7.255879e+13	1.728469e+14	8.130946e+13	6.537849e+03	2.673886e+03	1.796566e+03	0	3.885613e-04
1.130000e+09	2.148490e+12	0.000000e+00	6.883118e-01	7.225142e+13	1.720278e+14	8.095584e+13	6.533677e+03	2.672643e+03	1.795731e+03	0	3.872070e-04
1.140000e+09	2.126056e+12	0.000000e+00	6.883118e-01	7.194648e+13	1.712174e+14	8.060459e+13	6.529523e+03	2.671410e+03	1.794902e+03	0	3.858546e-04
1.150000e+09	2.103806e+12	0.000000e+00	6.883118e-01	7.164394e+13	1.704157e+14	8.025569e+13	6.525386e+03	2.670187e+03	1.794081e+03	0	3.845038e-04
1.160000e+09	2.081739e+12	0.000000e+00	6.883118e-01	7.134376e+13	1.696223e+14	7.990911e+13	6.521267e+03	2.668974e+03	1.793265e+03	0	3.831547e-04
1.170000e+09	2.059852e+12	0.000000e+00	6.883118e-01	7.104592e+13	1.688372e+14	7.956484e+13	6.517165e+03	2.667770e+03	1.792457e+03	0	3.818072e-04
1.180000e+09	2.038143e+12	0.000000e+00	6.883118e-01	7.075039e+13	1.680601e+14	7.922287e+13	6.513080e+03	2.666576e+03	1.791654e+03	0	3.804611e-04
1.190000e+09	2.016609e+12	0.000000e+00	6.883118e-01	7.045713e+13	1.672909e+14	7.888316e+13	6.509012e+03	2.665391e+03	1.790858e+03	0	3.791165e-04
1.200000e+09	1.995249e+12	0.000000e+00	6.883118e-01	7.016612e+13	1.665293e+14	7.854571e+13	6.504961e+03	2.664214e+03	1.790067e+03	0	3.777732e-04
1.210000e+09	1.974059e+12	0.000000e+00	6.883118e-01	6.987733e+13	1.657753e+14	7.821050e+13	6.500926e+03	2.663046e+03	1.789283e+03	0	3.764311e-04
1.220000e+09	1.953038e+12	0.000000e+00	6.883118e-01	6.959072e+13	1.650287e+14	7.787751e+13	6.496908e+03	2.661887e+03	1.788504e+03	0	3.750902e-04
1.230000e+09	1.932183e+12	0.000000e+00	6.883118e-01	6.930628e+13	1.642893e+14	7.754673e+13	6.492907e+03	2.660736e+03	1.787730e+03	0	3.737503e-04
1.240000e+09	1.911493e+12	0.000000e+00	6.883118e-01	6.902397e+13	1.635570e+14	7.721812e+13	6.488922e+03	2.659593e+03	1.786962e+03	0	3.724114e-04
1.250000e+09	1.890965e+12	0.000000e+00	6.883118e-01	6.874377e+13	1.628316e+14	7.689169e+13	6.484953e+03	2.658458e+03	1.786200e+03	0	3.710735e-04
1.260000e+09	1.870597e+12	0.000000e+00	6.883118e-01	6.846565e+13	1.621131e+14	7.656741e+13	6.481000e+03	2.657331e+03	1.785442e+03	0	3.697364e-04
1.270000e+09	1.850388e+12	0.000000e+00	6.883118e-01	6.818959e+13	1.614013e+14	7.624527e+13	6.477063e+03	2.656211e+03	1.784690e+03	0	3.684001e-04
1.280000e+09	1.830335e+12	0.000000e+00	6.883118e-01	6.791557e+13	1.606960e+14	7.592525e+13	6.473143e+03	2.655098e+03	1.783942e+03	0	3.670644e-04
1.290000e+09	1.810436e+12	0.000000e+00	6.883118e-01	6.764355e+13	1.599971e+14	7.560732e+13	6.469237e+03	2.653993e+03	1.783200e+03	0	3.657294e-04
1.300000e+09	1.790690e+12	0.000000e+00	6.883118e-01	6.737351e+13	1.593045e+14	7.529149e+13	6.465348e+03	2.652895e+03	1.782462e+03	0	3.643948e-04
1.310000e+09	1.771094e+12	0.000000e+00	6.883118e-01	6.710544e+13	1.586182e+14	7.497773e+13	6.461474e+03	2.651804e+03	1.781729e+03	0	3.630608e-04
1.320000e+09	1.751647e+12	0.000000e+00	6.883118e-01	6.683931e+13	1.579379e+14	7.466602e+13	6.457615e+03	2.650720e+03	1.781000e+03	0	3.617270e-04
1.330000e+09	1.732348e+12	0.000000e+00	6.883118e-01	6.657509e+13	1.572637e+14	7.435635e+13	6.453772e+03	2.649642e+03	1.780276e+03	0	3.603936e-04
1.340000e+09	1.713193e+12	0.000000e+00	6.883118e-01	6.631276e+13	1.565953e+14	7.404870e+13	6.449943e+03	2.648571e+03	1.779557e+03	0	3.590604e-04
1.350000e+09	1.694183e+12	0.000000e+00	6.883118e-01	6.605231e+13	1.559326e+14	7.374306e+13	6.446130e+03	2.647506e+03	1.778841e+03	0	3.577274e-04
1.360000e+09	1.675314e+12	0.000000e+00	6.883118e-01	6.579371e+13	1.552757e+14	7.343941e+13	6.442332e+03	2.646447e+03	1.778130e+03	0	3.563944e-04
