#t		Qconv[W]	Ri[Rp]		R*[Rp]		Qc[W]		Qm[W]		Qr[W]		Tcmb[K]		Tl[K]		Tup[K]		RiFlag		Bs[T]
0.000000e+00	2.082596e+14	0.000000e+00	6.688309e-01	2.294641e+15	2.504080e+15	2.436703e+14	1.438630e+04	5.119900e+03	2.591877e+03	0	1.773331e-03
1.000000e+07	2.032300e+14	0.000000e+00	6.688309e-01	2.244698e+15	2.491049e+15	2.423202e+14	1.431349e+04	5.121284e+03	2.592578e+03	0	1.758939e-03
2.000000e+07	1.983488e+14	0.000000e+00	6.688309e-01	2.196217e+15	2.473781e+15	2.409802e+14	1.424225e+04	5.121100e+03	2.592485e+03	0	1.744742e-03
3.000000e+07	1.936143e+14	0.000000e+00	6.688309e-01	2.149180e+15	2.453029e+15	2.396502e+14	1.417253e+04	5.119581e+03	2.591716e+03	0	1.730748e-03
4.000000e+07	1.890240e+14	0.000000e+00	6.688309e-01	2.103563e+15	2.429447e+15	2.383301e+14	1.410430e+04	5.116927e+03	2.590373e+03	0	1.716961e-03
5.000000e+07	1.845750e+14	0.000000e+00	6.688309e-01	2.059337e+15	2.403597e+15	2.370199e+14	1.403751e+04	5.113314e+03	2.588543e+03	0	1.703383e-03
6.000000e+07	1.802639e+14	0.000000e+00	6.688309e-01	2.016468e+15	2.375959e+15	2.357194e+14	1.397211e+04	5.108890e+03	2.586304e+03	0	1.690017e-03
7.000000e+07	1.760868e+14	0.000000e+00	6.688309e-01	1.974920e+15	2.346941e+15	2.344287e+14	1.390806e+04	5.103783e+03	2.583719e+03	0	1.676861e-03
8.000000e+07	1.720401e+14	0.000000e+00	6.688309e-01	1.934653e+15	2.316890e+15	2.331475e+14	1.384532e+04	5.098105e+03	2.580844e+03	0	1.663916e-03
9.000000e+07	1.681196e+14	0.000000e+00	6.688309e-01	1.895629e+15	2.286098e+15	2.318758e+14	1.378386e+04	5.091951e+03	2.577729e+03	0	1.651179e-03
1.000000e+08	1.643212e+14	0.000000e+00	6.688309e-01	1.857806e+15	2.254810e+15	2.306136e+14	1.372363e+04	5.085401e+03	2.574413e+03	0	1.638649e-03
1.100000e+08	1.606408e+14	0.000000e+00	6.688309e-01	1.821146e+15	2.223229e+15	2.293608e+14	1.366459e+04	5.078526e+03	2.570933e+03	0	1.626323e-03
1.200000e+08	1.570745e+14	0.000000e+00	6.688309e-01	1.785608e+15	2.191528e+15	2.281172e+14	1.360670e+04	5.071385e+03	2.567318e+03	0	1.614197e-03
1.300000e+08	1.536181e+14	0.000000e+00	6.688309e-01	1.751152e+15	2.159845e+15	2.268829e+14	1.354994e+04	5.064031e+03	2.563594e+03	0	1.602269e-03
1.400000e+08	1.502676e+14	0.000000e+00	6.688309e-01	1.717740e+15	2.128299e+15	2.256577e+14	1.349427e+04	5.056506e+03	2.559785e+03	0	1.590535e-03
1.500000e+08	1.470193e+14	0.000000e+00	6.688309e-01	1.685333e+15	2.096984e+15	2.244415e+14	1.343966e+04	5.048849e+03	2.555909e+03	0	1.578991e-03
1.600000e+08	1.438694e+14	0.000000e+00	6.688309e-01	1.653896e+15	2.065976e+15	2.232344e+14	1.338607e+04	5.041091e+03	2.551982e+03	0	1.567633e-03
1.700000e+08	1.408143e+14	0.000000e+00	6.688309e-01	1.623391e+15	2.035340e+15	2.220361e+14	1.333347e+04	5.033261e+03	2.548018e+03	0	1.556457e-03
1.800000e+08	1.378504e+14	0.000000e+00	6.688309e-01	1.593786e+15	2.005123e+15	2.208467e+14	1.328184e+04	5.025383e+03	2.544029e+03	0	1.545459e-03
1.900000e+08	1.349743e+14	0.000000e+00	6.688309e-01	1.565046e+15	1.975366e+15	2.196660e+14	1.323114e+04	5.017475e+03	2.540026e+03	0	1.534635e-03
2.000000e+08	1.321828e+14	0.000000e+00	6.688309e-01	1.537139e+15	1.946098e+15	2.184940e+14	1.318135e+04	5.009556e+03	2.536018e+03	0	1.523982e-03
2.100000e+08	1.294726e+14	0.000000e+00	6.688309e-01	1.510035e+15	1.917341e+15	2.173306e+14	1.313245e+04	5.001641e+03	2.532010e+03	0	1.513494e-03
2.200000e+08	1.268408e+14	0.000000e+00	6.688309e-01	1.483703e+15	1.889112e+15	2.161758e+14	1.308440e+04	4.993741e+03	2.528011e+03	0	1.503169e-03
2.300000e+08	1.242845e+14	0.000000e+00	6.688309e-01	1.458116e+15	1.861421e+15	2.150295e+14	1.303718e+04	4.985867e+03	2.524025e+03	0	1.493002e-03
2.400000e+08	1.218008e+14	0.000000e+00	6.688309e-01	1.433245e+15	1.834276e+15	2.138915e+14	1.299078e+04	4.978029e+03	2.520058e+03	0	1.482990e-03
2.500000e+08	1.193871e+14	0.000000e+00	6.688309e-01	1.409064e+15	1.807679e+15	2.127619e+14	1.294516e+04	4.970234e+03	2.516111e+03	0	1.473128e-03
2.600000e+08	1.170407e+14	0.000000e+00	6.688309e-01	1.385548e+15	1.781630e+15	2.116406e+14	1.290031e+04	4.962489e+03	2.512190e+03	0	1.463414e-03
2.700000e+08	1.147593e+14	0.000000e+00	6.688309e-01	1.362673e+15	1.756127e+15	2.105275e+14	1.285620e+04	4.954798e+03	2.508297e+03	0	1.453843e-03
2.800000e+08	1.125405e+14	0.000000e+00	6.688309e-01	1.340416e+15	1.731166e+15	2.094225e+14	1.281281e+04	4.947166e+03	2.504433e+03	0	1.444412e-03
2.900000e+08	1.103820e+14	0.000000e+00	6.688309e-01	1.318754e+15	1.706739e+15	2.083255e+14	1.277014e+04	4.939597e+03	2.500601e+03	0	1.435118e-03
3.000000e+08	1.082815e+14	0.000000e+00	6.688309e-01	1.297666e+15	1.682840e+15	2.072366e+14	1.272814e+04	4.932093e+03	2.496803e+03	0	1.425956e-03
3.100000e+08	1.062372e+14	0.000000e+00	6.688309e-01	1.277132e+15	1.659461e+15	2.061556e+14	1.268682e+04	4.924658e+03	2.493039e+03	0	1.416925e-03
3.200000e+08	1.042469e+14	0.000000e+00	6.688309e-01	1.257132e+15	1.636592e+15	2.050824e+14	1.264614e+04	4.917293e+03	2.489311e+03	0	1.408021e-03
3.300000e+08	1.023088e+14	0.000000e+00	6.688309e-01	1.237648e+15	1.614223e+15	2.040171e+14	1.260610e+04	4.909999e+03	2.485618e+03	0	1.399241e-03
3.400000e+08	1.004210e+14	0.000000e+00	6.688309e-01	1.218661e+15	1.592344e+15	2.029594e+14	1.256668e+04	4.902778e+03	2.481963e+03	0	1.390581e-03
3.500000e+08	9.858181e+13	0.000000e+00	6.688309e-01	1.200155e+15	1.570944e+15	2.019095e+14	1.252786e+04	4.895631e+03	2.478345e+03	0	1.382039e-03
3.600000e+08	9.678953e+13	0.000000e+00	6.688309e-01	1.182113e+15	1.550012e+15	2.008672e+14	1.248963e+04	4.888557e+03	2.474764e+03	0	1.373612e-03
3.700000e+08	9.504254e+13	0.000000e+00	6.688309e-01	1.164519e+15	1.529538e+15	1.998324e+14	1.245196e+04	4.881558e+03	2.471220e+03	0	1.365298e-03
3.800000e+08	9.333933e+13	0.000000e+00	6.688309e-01	1.147358e+15	1.509510e+15	1.988051e+14	1.241486e+04	4.874633e+03	2.467715e+03	0	1.357093e-03
3.900000e+08	9.167840e+13	0.000000e+00	6.688309e-01	1.130616e+15	1.489917e+15	1.977853e+14	1.237830e+04	4.867782e+03	2.464246e+03	0	1.348995e-03
4.000000e+08	9.005836e+13	0.000000e+00	6.688309e-01	1.114278e+15	1.470749e+15	1.967728e+14	1.234227e+04	4.861005e+03	2.460816e+03	0	1.341002e-03
4.100000e+08	8.847783e+13	0.000000e+00	6.688309e-01	1.098332e+15	1.451993e+15	1.957676e+14	1.230676e+04	4.854302e+03	2.457422e+03	0	1.333111e-03
4.200000e+08	8.693552e+13	0.000000e+00	6.688309e-01	1.082764e+15	1.433640e+15	1.947696e+14	1.227175e+04	4.847671e+03	2.454065e+03	0	1.325319e-03
4.300000e+08	8.543018e+13	0.000000e+00	6.688309e-01	1.067563e+15	1.415680e+15	1.937789e+14	1.223724e+04	4.841113e+03	2.450745e+03	0	1.317625e-03
4.400000e+08	8.396060e+13	0.000000e+00	6.688309e-01	1.052716e+15	1.398100e+15	1.927952e+14	1.220321e+04	4.834626e+03	2.447462e+03	0	1.310026e-03
4.500000e+08	8.252565e+13	0.000000e+00	6.688309e-01	1.038212e+15	1.380892e+15	1.918186e+14	1.216965e+04	4.828211e+03	2.444214e+03	0	1.302520e-03
4.600000e+08	8.112422e+13	0.000000e+00	6.688309e-01	1.024041e+15	1.364046e+15	1.908491e+14	1.213655e+04	4.821866e+03	2.441002e+03	0	1.295105e-03
4.700000e+08	7.975524e+13	0.000000e+00	6.688309e-01	1.010191e+15	1.347551e+15	1.898865e+14	1.210391e+04	4.815590e+03	2.437825e+03	0	1.287779e-03
4.800000e+08	7.841769e+13	0.000000e+00	6.688309e-01	9.966534e+14	1.331398e+15	1.889308e+14	1.207170e+04	4.809382e+03	2.434682e+03	0	1.280539e-03
4.900000e+08	7.711060e+13	0.000000e+00	6.688309e-01	9.834178e+14	1.315579e+15	1.879819e+14	1.203992e+04	4.803242e+03	2.431574e+03	0	1.273384e-03
5.000000e+08	7.583302e+13	0.000000e+00	6.688309e-01	9.704752e+14	1.300083e+15	1.870398e+14	1.200856e+04	4.797169e+03	2.428500e+03	0	1.266313e-03
5.100000e+08	7.458406e+13	0.000000e+00	6.688309e-01	9.578166e+14	1.284902e+15	1.861045e+14	1.197761e+04	4.791162e+03	2.425459e+03	0	1.259322e-03
5.200000e+08	7.336282e+13	0.000000e+00	6.688309e-01	9.454335e+14	1.270028e+15	1.851758e+14	1.194707e+04	4.785219e+03	2.422450e+03	0	1.252411e-03
5.300000e+08	7.216849e+13	0.000000e+00	6.688309e-01	9.333175e+14	1.255453e+15	1.842538e+14	1.191691e+04	4.779341e+03	2.419474e+03	0	1.245577e-03
5.400000e+08	7.100025e+13	0.000000e+00	6.688309e-01	9.214607e+14	1.241168e+15	1.833383e+14	1.188715e+04	4.773525e+03	2.416530e+03	0	1.238820e-03
5.500000e+08	6.985733e+13	0.000000e+00	6.688309e-01	9.098556e+14	1.227165e+15	1.824293e+14	1.185776e+04	4.767771e+03	2.413617e+03	0	1.232136e-03
5.600000e+08	6.873898e+13	0.000000e+00	6.688309e-01	8.984947e+14	1.213438e+15	1.815268e+14	1.182873e+04	4.762078e+03	2.410735e+03	0	1.225526e-03
5.700000e+08	6.764448e+13	0.000000e+00	6.688309e-01	8.873710e+14	1.199978e+15	1.806307e+14	1.180007e+04	4.756445e+03	2.407884e+03	0	1.218987e-03
5.800000e+08	6.657314e+13	0.000000e+00	6.688309e-01	8.764775e+14	1.186779e+15	1.797410e+14	1.177176e+04	4.750871e+03	2.405062e+03	0	1.212517e-03
5.900000e+08	6.552429e+13	0.000000e+00	6.688309e-01	8.658079e+14	1.173833e+15	1.788576e+14	1.174380e+04	4.745355e+03	2.402270e+03	0	1.206115e-03
6.000000e+08	6.449728e+13	0.000000e+00	6.688309e-01	8.553556e+14	1.161134e+15	1.779804e+14	1.171618e+04	4.739897e+03	2.399506e+03	0	1.199781e-03
6.100000e+08	6.349150e+13	0.000000e+00	6.688309e-01	8.451145e+14	1.148676e+15	1.771094e+14	1.168889e+04	4.734495e+03	2.396771e+03	0	1.193512e-03
6.200000e+08	6.250635e+13	0.000000e+00	6.688309e-01	8.350789e+14	1.136452e+15	1.762446e+14	1.166192e+04	4.729148e+03	2.394065e+03	0	1.187306e-03
6.300000e+08	6.154125e+13	0.000000e+00	6.688309e-01	8.252429e+14	1.124456e+15	1.753859e+14	1.163528e+04	4.723855e+03	2.391385e+03	0	1.181164e-03
6.400000e+08	6.059565e+13	0.000000e+00	6.688309e-01	8.156010e+14	1.112683e+15	1.745332e+14	1.160894e+04	4.718616e+03	2.388733e+03	0	1.175083e-03
6.500000e+08	5.966899e+13	0.000000e+00	6.688309e-01	8.061481e+14	1.101126e+15	1.736866e+14	1.158291e+04	4.713430e+03	2.386108e+03	0	1.169062e-03
6.600000e+08	5.876078e+13	0.000000e+00	6.688309e-01	7.968789e+14	1.089779e+15	1.728459e+14	1.155719e+04	4.708295e+03	2.383509e+03	0	1.163101e-03
6.700000e+08	5.787050e+13	0.000000e+00	6.688309e-01	7.877885e+14	1.078639e+15	1.720111e+14	1.153176e+04	4.703212e+03	2.380935e+03	0	1.157197e-03
6.800000e+08	5.699768e+13	0.000000e+00	6.688309e-01	7.788721e+14	1.067698e+15	1.711822e+14	1.150661e+04	4.698179e+03	2.378387e+03	0	1.151349e-03
6.900000e+08	5.614184e+13	0.000000e+00	6.688309e-01	7.701252e+14	1.056954e+15	1.703591e+14	1.148175e+04	4.693195e+03	2.375864e+03	0	1.145558e-03
7.000000e+08	5.530253e+13	0.000000e+00	6.688309e-01	7.615432e+14	1.046399e+15	1.695417e+14	1.145717e+04	4.688259e+03	2.373365e+03	0	1.139820e-03
7.100000e+08	5.447932e+13	0.000000e+00	6.688309e-01	7.531218e+14	1.036030e+15	1.687301e+14	1.143286e+04	4.683371e+03	2.370891e+03	0	1.134137e-03
7.200000e+08	5.367179e+13	0.000000e+00	6.688309e-01	7.448569e+14	1.025843e+15	1.679242e+14	1.140882e+04	4.678530e+03	2.368440e+03	0	1.128505e-03
7.300000e+08	5.287952e+13	0.000000e+00	6.688309e-01	7.367445e+14	1.015832e+15	1.671239e+14	1.138505e+04	4.673736e+03	2.366013e+03	0	1.122925e-03
7.400000e+08	5.210213e+13	0.000000e+00	6.688309e-01	7.287806e+14	1.005993e+15	1.663291e+14	1.136153e+04	4.668987e+03	2.363609e+03	0	1.117395e-03
7.500000e+08	5.133923e+13	0.000000e+00	6.688309e-01	7.209614e+14	9.963228e+14	1.655400e+14	1.133826e+04	4.664282e+03	2.361227e+03	0	1.111914e-03
7.600000e+08	5.059045e+13	0.000000e+00	6.688309e-01	7.132834e+14	9.868165e+14	1.647563e+14	1.131524e+04	4.659621e+03	2.358868e+03	0	1.106482e-03
7.700000e+08	4.985543e+13	0.000000e+00	6.688309e-01	7.057429e+14	9.774704e+14	1.639781e+14	1.129247e+04	4.655004e+03	2.356531e+03	0	1.101097e-03
7.800000e+08	4.913383e+13	0.000000e+00	6.688309e-01	6.983366e+14	9.682806e+14	1.632052e+14	1.126993e+04	4.650429e+03	2.354215e+03	0	1.095759e-03
7.900000e+08	4.842532e+13	0.000000e+00	6.688309e-01	6.910611e+14	9.592435e+14	1.624378e+14	1.124764e+04	4.645896e+03	2.351920e+03	0	1.090466e-03
8.000000e+08	4.772957e+13	0.000000e+00	6.688309e-01	6.839133e+14	9.503555e+14	1.616757e+14	1.122557e+04	4.641405e+03	2.349646e+03	0	1.085219e-03
8.100000e+08	4.704626e+13	0.000000e+00	6.688309e-01	6.768900e+14	9.416130e+14	1.609188e+14	1.120373e+04	4.636954e+03	2.347393e+03	0	1.080015e-03
8.200000e+08	4.637509e+13	0.000000e+00	6.688309e-01	6.699882e+14	9.330128e+14	1.601672e+14	1.118212e+04	4.632543e+03	2.345160e+03	0	1.074855e-03
8.300000e+08	4.571576e+13	0.000000e+00	6.688309e-01	6.632049e+14	9.245514e+14	1.594208e+14	1.116072e+04	4.628171e+03	2.342947e+03	0	1.069736e-03
8.400000e+08	4.506800e+13	0.000000e+00	6.688309e-01	6.565374e+14	9.162258e+14	1.586795e+14	1.113954e+04	4.623838e+03	2.340753e+03	0	1.064660e-03
8.500000e+08	4.443151e+13	0.000000e+00	6.688309e-01	6.499830e+14	9.080328e+14	1.579434e+14	1.111857e+04	4.619543e+03	2.338579e+03	0	1.059624e-03
8.600000e+08	4.380604e+13	0.000000e+00	6.688309e-01	6.435388e+14	8.999695e+14	1.572123e+14	1.109781e+04	4.615285e+03	2.336424e+03	0	1.054628e-03
8.700000e+08	4.319132e+13	0.000000e+00	6.688309e-01	6.372024e+14	8.920328e+14	1.564863e+14	1.107726e+04	4.611065e+03	2.334287e+03	0	1.049672e-03
8.800000e+08	4.258710e+13	0.000000e+00	6.688309e-01	6.309713e+14	8.842200e+14	1.557652e+14	1.105691e+04	4.606881e+03	2.332169e+03	0	1.044754e-03
8.900000e+08	4.199314e+13	0.000000e+00	6.688309e-01	6.248430e+14	8.765284e+14	1.550491e+14	1.103676e+04	4.602732e+03	2.330069e+03	0	1.039874e-03
9.000000e+08	4.140919e+13	0.000000e+00	6.688309e-01	6.188151e+14	8.689551e+14	1.543380e+14	1.101680e+04	4.598619e+03	2.327987e+03	0	1.035032e-03
9.100000e+08	4.083503e+13	0.000000e+00	6.688309e-01	6.128854e+14	8.614977e+14	1.536317e+14	1.099703e+04	4.594541e+03	2.325922e+03	0	1.030226e-03
9.200000e+08	4.027042e+13	0.000000e+00	6.688309e-01	6.070516e+14	8.541536e+14	1.529302e+14	1.097745e+04	4.590497e+03	2.323875e+03	0	1.025456e-03
9.300000e+08	3.971516e+13	0.000000e+00	6.688309e-01	6.013116e+14	8.469204e+14	1.522335e+14	1.095806e+04	4.586486e+03	2.321844e+03	0	1.020721e-03
9.400000e+08	3.916903e+13	0.000000e+00	6.688309e-01	5.956633e+14	8.397956e+14	1.515416e+14	1.093885e+04	4.582509e+03	2.319831e+03	0	1.016020e-03
9.500000e+08	3.863183e+13	0.000000e+00	6.688309e-01	5.901047e+14	8.327770e+14	1.508545e+14	1.091982e+04	4.578565e+03	2.317834e+03	0	1.011354e-03
9.600000e+08	3.810335e+13	0.000000e+00	6.688309e-01	5.846336e+14	8.258622e+14	1.501720e+14	1.090097e+04	4.574652e+03	2.315854e+03	0	1.006721e-03
9.700000e+08	3.758340e+13	0.000000e+00	6.688309e-01	5.792484e+14	8.190491e+14	1.494941e+14	1.088229e+04	4.570772e+03	2.313889e+03	0	1.002121e-03
9.800000e+08	3.707180e+13	0.000000e+00	6.688309e-01	5.739469e+14	8.123355e+14	1.488209e+14	1.086378e+04	4.566923e+03	2.311941e+03	0	9.975530e-04
9.900000e+08	3.656835e+13	0.000000e+00	6.688309e-01	5.687276e+14	8.057194e+14	1.481522e+14	1.084545e+04	4.563104e+03	2.310008e+03	0	9.930167e-04
1.000000e+09	3.607289e+13	0.000000e+00	6.688309e-01	5.635884e+14	7.991988e+14	1.474881e+14	1.082728e+04	4.559316e+03	2.308090e+03	0	9.885116e-04
1.010000e+09	3.558524e+13	0.000000e+00	6.688309e-01	5.585279e+14	7.927716e+14	1.468285e+14	1.080927e+04	4.555558e+03	2.306188e+03	0	9.840369e-04
1.020000e+09	3.510522e+13	0.000000e+00	6.688309e-01	5.535442e+14	7.864360e+14	1.461733e+14	1.079142e+04	4.551830e+03	2.304300e+03	0	9.795923e-04
1.030000e+09	3.463269e+13	0.000000e+00	6.688309e-01	5.486357e+14	7.801900e+14	1.455226e+14	1.077373e+04	4.548131e+03	2.302427e+03	0	9.751771e-04
1.040000e+09	3.416747e+13	0.000000e+00	6.688309e-01	5.438010e+14	7.740319e+14	1.448763e+14	1.075620e+04	4.544460e+03	2.300569e+03	0	9.707909e-04
1.050000e+09	3.370941e+13	0.000000e+00	6.688309e-01	5.390383e+14	7.679599e+14	1.442344e+14	1.073882e+04	4.540818e+03	2.298725e+03	0	9.664332e-04
1.060000e+09	3.325836e+13	0.000000e+00	6.688309e-01	5.343463e+14	7.619722e+14	1.435967e+14	1.072160e+04	4.537204e+03	2.296896e+03	0	9.621034e-04
1.070000e+09	3.281418e+13	0.000000e+00	6.688309e-01	5.297234e+14	7.560673e+14	1.429634e+14	1.070452e+04	4.533617e+03	2.295080e+03	0	9.578010e-04
1.080000e+09	3.237672e+13	0.000000e+00	6.688309e-01	5.251683e+14	7.502434e+14	1.423344e+14	1.068759e+04	4.530057e+03	2.293278e+03	0	9.535257e-04
1.090000e+09	3.194584e+13	0.000000e+00	6.688309e-01	5.206795e+14	7.444989e+14	1.417095e+14	1.067081e+04	4.526524e+03	2.291489e+03	0	9.492768e-04
1.100000e+09	3.152140e+13	0.000000e+00	6.688309e-01	5.162557e+14	7.388324e+14	1.410889e+14	1.065417e+04	4.523018e+03	2.289714e+03	0	9.450540e-04
1.110000e+09	3.110329e+13	0.000000e+00	6.688309e-01	5.118956e+14	7.332422e+14	1.404724e+14	1.063767e+04	4.519537e+03	2.287952e+03	0	9.408568e-04
1.120000e+09	3.069135e+13	0.000000e+00	6.688309e-01	5.075979e+14	7.277269e+14	1.398601e+14	1.062131e+04	4.516083e+03	2.286204e+03	0	9.366848e-04
1.130000e+09	3.028548e+13	0.000000e+00	6.688309e-01	5.033614e+14	7.222851e+14	1.392518e+14	1.060509e+04	4.512653e+03	2.284468e+03	0	9.325374e-04
1.140000e+09	2.988555e+13	0.000000e+00	6.688309e-01	4.991848e+14	7.169154e+14	1.386476e+14	1.058900e+04	4.509249e+03	2.282744e+03	0	9.284144e-04
1.150000e+09	2.949143e+13	0.000000e+00	6.688309e-01	4.950670e+14	7.116164e+14	1.380475e+14	1.057304e+04	4.505870e+03	2.281033e+03	0	9.243152e-04
1.160000e+09	2.910302e+13	0.000000e+00	6.688309e-01	4.910068e+14	7.063867e+14	1.374513e+14	1.055722e+04	4.502514e+03	2.279335e+03	0	9.202394e-04
1.170000e+09	2.872021e+13	0.000000e+00	6.688309e-01	4.870031e+14	7.012251e+14	1.368592e+14	1.054152e+04	4.499183e+03	2.277648e+03	0	9.161866e-04
1.180000e+09	2.834287e+13	0.000000e+00	6.688309e-01	4.830548e+14	6.961302e+14	1.362709e+14	1.052596e+04	4.495876e+03	2.275974e+03	0	9.121565e-04
1.190000e+09	2.797090e+13	0.000000e+00	6.688309e-01	4.791607e+14	6.911009e+14	1.356866e+14	1.051051e+04	4.492592e+03	2.274312e+03	0	9.081486e-04
1.200000e+09	2.760421e+13	0.000000e+00	6.688309e-01	4.753200e+14	6.861360e+14	1.351062e+14	1.049520e+04	4.489331e+03	2.272661e+03	0	9.041626e-04
1.210000e+09	2.724268e+13	0.000000e+00	6.688309e-01	4.715315e+14	6.812342e+14	1.345296e+14	1.048000e+04	4.486093e+03	2.271022e+03	0	9.001980e-04
1.220000e+09	2.688621e+13	0.000000e+00	6.688309e-01	4.677943e+14	6.763943e+14	1.339568e+14	1.046493e+04	4.482878e+03	2.269394e+03	0	8.962545e-04
1.230000e+09	2.653472e+13	0.000000e+00	6.688309e-01	4.641073e+14	6.716154e+14	1.333878e+14	1.044997e+04	4.479685e+03	2.267777e+03	0	8.923316e-04
1.240000e+09	2.618810e+13	0.000000e+00	6.688309e-01	4.604697e+14	6.668963e+14	1.328226e+14	1.043514e+04	4.476513e+03	2.266172e+03	0	8.884291e-04
1.250000e+09	2.584627e+13	0.000000e+00	6.688309e-01	4.568806e+14	6.622358e+14	1.322611e+14	1.042041e+04	4.473364e+03	2.264578e+03	0	8.845466e-04
1.260000e+09	2.550912e+13	0.000000e+00	6.688309e-01	4.533389e+14	6.576330e+14	1.317033e+14	1.040581e+04	4.470236e+03	2.262994e+03	0	8.806837e-04
1.270000e+09	2.517659e+13	0.000000e+00	6.688309e-01	4.498439e+14	6.530868e+14	1.311492e+14	1.039131e+04	4.467129e+03	2.261421e+03	0	8.768401e-04
1.280000e+09	2.484856e+13	0.000000e+00	6.688309e-01	4.463947e+14	6.485963e+14	1.305987e+14	1.037693e+04	4.464043e+03	2.259859e+03	0	8.730154e-04
1.290000e+09	2.452498e+13	0.000000e+00	6.688309e-01	4.429904e+14	6.441604e+14	1.300518e+14	1.036266e+04	4.460978e+03	2.258307e+03	0	8.692092e-04
1.300000e+09	2.420574e+13	0.000000e+00	6.688309e-01	4.396302e+14	6.397782e+14	1.295086e+14	1.034850e+04	4.457933e+03	2.256766e+03	0	8.654213e-04
1.310000e+09	2.389078e+13	0.000000e+00	6.688309e-01	4.363134e+14	6.354487e+14	1.289689e+14	1.033444e+04	4.454908e+03	2.255235e+03	0	8.616513e-04
1.320000e+09	2.358001e+13	0.000000e+00	6.688309e-01	4.330391e+14	6.311711e+14	1.284327e+14	1.032049e+04	4.451903e+03	2.253713e+03	0	8.578989e-04
1.330000e+09	2.327336e+13	0.000000e+00	6.688309e-01	4.298066e+14	6.269445e+14	1.279000e+14	1.030664e+04	4.448918e+03	2.252202e+03	0	8.541638e-04
1.340000e+09	2.297076e+13	0.000000e+00	6.688309e-01	4.266151e+14	6.227679e+14	1.273709e+14	1.029290e+04	4.445952e+03	2.250701e+03	0	8.504456e-04
1.350000e+09	2.267212e+13	0.000000e+00	6.688309e-01	4.234640e+14	6.186406e+14	1.268451e+14	1.027926e+04	4.443006e+03	2.249209e+03	0	8.467440e-04
1.360000e+09	2.237738e+13	0.000000e+00	6.688309e-01	4.203524e+14	6.145617e+14	1.263228e+14	1.026572e+04	4.440078e+03	2.247727e+03	0	8.430588e-04
