#t		Qconv[W]	Ri[Rp]		R*[Rp]		Qc[W]		Qm[W]		Qr[W]		Tcmb[K]		Tl[K]		Tup[K]		RiFlag		Bs[T]
0.000000e+00	7.778061e+13	0.000000e+00	6.732024e-01	1.081995e+15	2.018522e+15	2.896228e+14	1.317501e+04	4.950499e+03	2.682761e+03	0	1.263665e-03
1.000000e+07	7.627417e+13	0.000000e+00	6.732024e-01	1.068102e+15	1.957061e+15	2.880181e+14	1.314878e+04	4.928469e+03	2.670823e+03	0	1.255454e-03
2.000000e+07	7.482139e+13	0.000000e+00	6.732024e-01	1.054686e+15	1.900839e+15	2.864254e+14	1.312289e+04	4.907983e+03	2.659721e+03	0	1.247432e-03
3.000000e+07	7.341839e+13	0.000000e+00	6.732024e-01	1.041712e+15	1.849212e+15	2.848445e+14	1.309732e+04	4.888885e+03	2.649371e+03	0	1.239586e-03
4.000000e+07	7.206170e+13	0.000000e+00	6.732024e-01	1.029150e+15	1.801633e+15	2.832755e+14	1.307207e+04	4.871036e+03	2.639699e+03	0	1.231903e-03
5.000000e+07	7.074821e+13	0.000000e+00	6.732024e-01	1.016973e+15	1.757638e+15	2.817182e+14	1.304712e+04	4.854315e+03	2.630638e+03	0	1.224372e-03
6.000000e+07	6.947512e+13	0.000000e+00	6.732024e-01	1.005155e+15	1.716826e+15	2.801725e+14	1.302246e+04	4.838617e+03	2.622130e+03	0	1.216983e-03
7.000000e+07	6.823988e+13	0.000000e+00	6.732024e-01	9.936751e+14	1.678853e+15	2.786383e+14	1.299809e+04	4.823847e+03	2.614126e+03	0	1.209728e-03
8.000000e+07	6.704023e+13	0.000000e+00	6.732024e-01	9.825127e+14	1.643422e+15	2.771155e+14	1.297400e+04	4.809922e+03	2.606580e+03	0	1.202597e-03
9.000000e+07	6.587406e+13	0.000000e+00	6.732024e-01	9.716495e+14	1.610272e+15	2.756041e+14	1.295017e+04	4.796767e+03	2.599451e+03	0	1.195583e-03
1.000000e+08	6.473949e+13	0.000000e+00	6.732024e-01	9.610688e+14	1.579179e+15	2.741038e+14	1.292661e+04	4.784317e+03	2.592704e+03	0	1.188679e-03
1.100000e+08	6.363479e+13	0.000000e+00	6.732024e-01	9.507554e+14	1.549943e+15	2.726147e+14	1.290331e+04	4.772512e+03	2.586307e+03	0	1.181879e-03
1.200000e+08	6.255836e+13	0.000000e+00	6.732024e-01	9.406953e+14	1.522391e+15	2.711366e+14	1.288025e+04	4.761299e+03	2.580230e+03	0	1.175177e-03
1.300000e+08	6.150877e+13	0.000000e+00	6.732024e-01	9.308758e+14	1.496368e+15	2.696695e+14	1.285744e+04	4.750630e+03	2.574449e+03	0	1.168568e-03
1.400000e+08	6.048468e+13	0.000000e+00	6.732024e-01	9.212850e+14	1.471738e+15	2.682133e+14	1.283486e+04	4.740462e+03	2.568938e+03	0	1.162046e-03
1.500000e+08	5.948485e+13	0.000000e+00	6.732024e-01	9.119121e+14	1.448380e+15	2.667678e+14	1.281252e+04	4.730756e+03	2.563679e+03	0	1.155608e-03
1.600000e+08	5.850814e+13	0.000000e+00	6.732024e-01	9.027470e+14	1.426185e+15	2.653329e+14	1.279040e+04	4.721477e+03	2.558650e+03	0	1.149248e-03
1.700000e+08	5.755352e+13	0.000000e+00	6.732024e-01	8.937806e+14	1.405059e+15	2.639087e+14	1.276850e+04	4.712593e+03	2.553836e+03	0	1.142963e-03
1.800000e+08	5.662000e+13	0.000000e+00	6.732024e-01	8.850041e+14	1.384913e+15	2.624950e+14	1.274683e+04	4.704074e+03	2.549219e+03	0	1.136750e-03
1.900000e+08	5.570668e+13	0.000000e+00	6.732024e-01	8.764096e+14	1.365672e+15	2.610916e+14	1.272536e+04	4.695895e+03	2.544787e+03	0	1.130604e-03
2.000000e+08	5.481271e+13	0.000000e+00	6.732024e-01	8.679896e+14	1.347265e+15	2.596986e+14	1.270410e+04	4.688031e+03	2.540525e+03	0	1.124524e-03
2.100000e+08	5.393732e+13	0.000000e+00	6.732024e-01	8.597372e+14	1.329629e+15	2.583159e+14	1.268305e+04	4.680461e+03	2.536423e+03	0	1.118505e-03
2.200000e+08	5.307977e+13	0.000000e+00	6.732024e-01	8.516459e+14	1.312708e+15	2.569433e+14	1.266219e+04	4.673163e+03	2.532468e+03	0	1.112546e-03
2.300000e+08	5.223937e+13	0.000000e+00	6.732024e-01	8.437096e+14	1.296449e+15	2.555808e+14	1.264153e+04	4.666120e+03	2.528651e+03	0	1.106643e-03
2.400000e+08	5.141548e+13	0.000000e+00	6.732024e-01	8.359227e+14	1.280808e+15	2.542282e+14	1.262106e+04	4.659315e+03	2.524963e+03	0	1.100794e-03
2.500000e+08	5.060750e+13	0.000000e+00	6.732024e-01	8.282797e+14	1.265740e+15	2.528856e+14	1.260078e+04	4.652731e+03	2.521396e+03	0	1.094998e-03
2.600000e+08	4.981486e+13	0.000000e+00	6.732024e-01	8.207756e+14	1.251208e+15	2.515528e+14	1.258069e+04	4.646356e+03	2.517941e+03	0	1.089251e-03
2.700000e+08	4.903703e+13	0.000000e+00	6.732024e-01	8.134058e+14	1.237176e+15	2.502297e+14	1.256078e+04	4.640175e+03	2.514591e+03	0	1.083552e-03
2.800000e+08	4.827350e+13	0.000000e+00	6.732024e-01	8.061657e+14	1.223611e+15	2.489163e+14	1.254104e+04	4.634177e+03	2.511341e+03	0	1.077898e-03
2.900000e+08	4.752381e+13	0.000000e+00	6.732024e-01	7.990512e+14	1.210486e+15	2.476125e+14	1.252148e+04	4.628351e+03	2.508183e+03	0	1.072289e-03
3.000000e+08	4.678751e+13	0.000000e+00	6.732024e-01	7.920582e+14	1.197772e+15	2.463182e+14	1.250209e+04	4.622685e+03	2.505113e+03	0	1.066723e-03
3.100000e+08	4.606416e+13	0.000000e+00	6.732024e-01	7.851831e+14	1.185444e+15	2.450333e+14	1.248288e+04	4.617171e+03	2.502125e+03	0	1.061197e-03
3.200000e+08	4.535338e+13	0.000000e+00	6.732024e-01	7.784221e+14	1.173480e+15	2.437578e+14	1.246382e+04	4.611799e+03	2.499214e+03	0	1.055710e-03
3.300000e+08	4.465477e+13	0.000000e+00	6.732024e-01	7.717719e+14	1.161859e+15	2.424915e+14	1.244494e+04	4.606562e+03	2.496376e+03	0	1.050262e-03
3.400000e+08	4.396798e+13	0.000000e+00	6.732024e-01	7.652293e+14	1.150562e+15	2.412345e+14	1.242621e+04	4.601452e+03	2.493606e+03	0	1.044850e-03
3.500000e+08	4.329266e+13	0.000000e+00	6.732024e-01	7.587913e+14	1.139570e+15	2.399865e+14	1.240764e+04	4.596461e+03	2.490902e+03	0	1.039472e-03
3.600000e+08	4.262848e+13	0.000000e+00	6.732024e-01	7.524548e+14	1.128867e+15	2.387477e+14	1.238923e+04	4.591584e+03	2.488259e+03	0	1.034129e-03
3.700000e+08	4.197514e+13	0.000000e+00	6.732024e-01	7.462172e+14	1.118438e+15	2.375177e+14	1.237097e+04	4.586814e+03	2.485674e+03	0	1.028819e-03
3.800000e+08	4.133233e+13	0.000000e+00	6.732024e-01	7.400757e+14	1.108269e+15	2.362967e+14	1.235286e+04	4.582145e+03	2.483144e+03	0	1.023540e-03
3.900000e+08	4.069977e+13	0.000000e+00	6.732024e-01	7.340278e+14	1.098346e+15	2.350845e+14	1.233490e+04	4.577572e+03	2.480666e+03	0	1.018292e-03
4.000000e+08	4.007719e+13	0.000000e+00	6.732024e-01	7.280711e+14	1.088658e+15	2.338811e+14	1.231708e+04	4.573091e+03	2.478237e+03	0	1.013073e-03
4.100000e+08	3.946433e+13	0.000000e+00	6.732024e-01	7.222032e+14	1.079192e+15	2.326863e+14	1.229941e+04	4.568697e+03	2.475856e+03	0	1.007882e-03
4.200000e+08	3.886094e+13	0.000000e+00	6.732024e-01	7.164220e+14	1.069939e+15	2.315002e+14	1.228189e+04	4.564384e+03	2.473519e+03	0	1.002719e-03
4.300000e+08	3.826679e+13	0.000000e+00	6.732024e-01	7.107253e+14	1.060889e+15	2.303226e+14	1.226450e+04	4.560150e+03	2.471225e+03	0	9.975827e-04
4.400000e+08	3.768163e+13	0.000000e+00	6.732024e-01	7.051110e+14	1.052032e+15	2.291534e+14	1.224725e+04	4.555991e+03	2.468971e+03	0	9.924717e-04
4.500000e+08	3.710526e+13	0.000000e+00	6.732024e-01	6.995772e+14	1.043360e+15	2.279927e+14	1.223014e+04	4.551903e+03	2.466755e+03	0	9.873854e-04
4.600000e+08	3.653745e+13	0.000000e+00	6.732024e-01	6.941220e+14	1.034864e+15	2.268403e+14	1.221316e+04	4.547883e+03	2.464576e+03	0	9.823231e-04
4.700000e+08	3.597802e+13	0.000000e+00	6.732024e-01	6.887435e+14	1.026538e+15	2.256962e+14	1.219631e+04	4.543927e+03	2.462433e+03	0	9.772837e-04
4.800000e+08	3.542676e+13	0.000000e+00	6.732024e-01	6.834400e+14	1.018374e+15	2.245602e+14	1.217959e+04	4.540034e+03	2.460323e+03	0	9.722667e-04
4.900000e+08	3.488349e+13	0.000000e+00	6.732024e-01	6.782099e+14	1.010366e+15	2.234324e+14	1.216300e+04	4.536199e+03	2.458245e+03	0	9.672711e-04
5.000000e+08	3.434802e+13	0.000000e+00	6.732024e-01	6.730514e+14	1.002507e+15	2.223127e+14	1.214654e+04	4.532421e+03	2.456198e+03	0	9.622963e-04
5.100000e+08	3.382018e+13	0.000000e+00	6.732024e-01	6.679631e+14	9.947916e+14	2.212010e+14	1.213020e+04	4.528697e+03	2.454180e+03	0	9.573415e-04
5.200000e+08	3.329980e+13	0.000000e+00	6.732024e-01	6.629433e+14	9.872146e+14	2.200971e+14	1.211399e+04	4.525026e+03	2.452190e+03	0	9.524060e-04
5.300000e+08	3.278672e+13	0.000000e+00	6.732024e-01	6.579907e+14	9.797706e+14	2.190012e+14	1.209789e+04	4.521404e+03	2.450227e+03	0	9.474891e-04
5.400000e+08	3.228078e+13	0.000000e+00	6.732024e-01	6.531038e+14	9.724548e+14	2.179131e+14	1.208192e+04	4.517830e+03	2.448290e+03	0	9.425902e-04
5.500000e+08	3.178183e+13	0.000000e+00	6.732024e-01	6.482812e+14	9.652625e+14	2.168327e+14	1.206607e+04	4.514302e+03	2.446379e+03	0	9.377085e-04
5.600000e+08	3.128972e+13	0.000000e+00	6.732024e-01	6.435217e+14	9.581896e+14	2.157600e+14	1.205033e+04	4.510819e+03	2.444491e+03	0	9.328435e-04
5.700000e+08	3.080431e+13	0.000000e+00	6.732024e-01	6.388239e+14	9.512319e+14	2.146949e+14	1.203471e+04	4.507378e+03	2.442626e+03	0	9.279945e-04
5.800000e+08	3.032546e+13	0.000000e+00	6.732024e-01	6.341867e+14	9.443856e+14	2.136374e+14	1.201920e+04	4.503978e+03	2.440783e+03	0	9.231608e-04
5.900000e+08	2.985304e+13	0.000000e+00	6.732024e-01	6.296087e+14	9.376469e+14	2.125873e+14	1.200380e+04	4.500617e+03	2.438962e+03	0	9.183420e-04
6.000000e+08	2.938692e+13	0.000000e+00	6.732024e-01	6.250888e+14	9.310125e+14	2.115447e+14	1.198851e+04	4.497295e+03	2.437162e+03	0	9.135373e-04
6.100000e+08	2.892697e+13	0.000000e+00	6.732024e-01	6.206260e+14	9.244790e+14	2.105095e+14	1.197334e+04	4.494009e+03	2.435381e+03	0	9.087461e-04
6.200000e+08	2.847308e+13	0.000000e+00	6.732024e-01	6.162190e+14	9.180434e+14	2.094816e+14	1.195827e+04	4.490759e+03	2.433620e+03	0	9.039680e-04
6.300000e+08	2.802512e+13	0.000000e+00	6.732024e-01	6.118669e+14	9.117027e+14	2.084610e+14	1.194331e+04	4.487544e+03	2.431878e+03	0	8.992023e-04
6.400000e+08	2.758298e+13	0.000000e+00	6.732024e-01	6.075686e+14	9.054541e+14	2.074475e+14	1.192845e+04	4.484361e+03	2.430153e+03	0	8.944484e-04
6.500000e+08	2.714654e+13	0.000000e+00	6.732024e-01	6.033230e+14	8.992948e+14	2.064412e+14	1.191370e+04	4.481211e+03	2.428446e+03	0	8.897058e-04
6.600000e+08	2.671571e+13	0.000000e+00	6.732024e-01	5.991293e+14	8.932225e+14	2.054419e+14	1.189905e+04	4.478092e+03	2.426756e+03	0	8.849739e-04
6.700000e+08	2.629037e+13	0.000000e+00	6.732024e-01	5.949864e+14	8.872346e+14	2.044497e+14	1.188451e+04	4.475003e+03	2.425082e+03	0	8.802523e-04
6.800000e+08	2.587042e+13	0.000000e+00	6.732024e-01	5.908934e+14	8.813288e+14	2.034645e+14	1.187006e+04	4.471944e+03	2.423424e+03	0	8.755402e-04
6.900000e+08	2.545577e+13	0.000000e+00	6.732024e-01	5.868495e+14	8.755030e+14	2.024862e+14	1.185571e+04	4.468913e+03	2.421781e+03	0	8.708372e-04
7.000000e+08	2.504631e+13	0.000000e+00	6.732024e-01	5.828537e+14	8.697550e+14	2.015147e+14	1.184146e+04	4.465909e+03	2.420154e+03	0	8.661428e-04
7.100000e+08	2.464195e+13	0.000000e+00	6.732024e-01	5.789052e+14	8.640828e+14	2.005500e+14	1.182731e+04	4.462933e+03	2.418541e+03	0	8.614564e-04
7.200000e+08	2.424260e+13	0.000000e+00	6.732024e-01	5.750031e+14	8.584845e+14	1.995921e+14	1.181325e+04	4.459982e+03	2.416942e+03	0	8.567774e-04
7.300000e+08	2.384818e+13	0.000000e+00	6.732024e-01	5.711467e+14	8.529583e+14	1.986409e+14	1.179929e+04	4.457057e+03	2.415356e+03	0	8.521054e-04
7.400000e+08	2.345858e+13	0.000000e+00	6.732024e-01	5.673352e+14	8.475023e+14	1.976963e+14	1.178542e+04	4.454157e+03	2.413785e+03	0	8.474398e-04
7.500000e+08	2.307374e+13	0.000000e+00	6.732024e-01	5.635678e+14	8.421150e+14	1.967583e+14	1.177164e+04	4.451280e+03	2.412226e+03	0	8.427800e-04
7.600000e+08	2.269355e+13	0.000000e+00	6.732024e-01	5.598436e+14	8.367946e+14	1.958268e+14	1.175796e+04	4.448427e+03	2.410680e+03	0	8.381256e-04
7.700000e+08	2.231796e+13	0.000000e+00	6.732024e-01	5.561621e+14	8.315396e+14	1.949018e+14	1.174436e+04	4.445597e+03	2.409146e+03	0	8.334759e-04
7.800000e+08	2.194686e+13	0.000000e+00	6.732024e-01	5.525225e+14	8.263486e+14	1.939832e+14	1.173085e+04	4.442789e+03	2.407625e+03	0	8.288305e-04
7.900000e+08	2.158020e+13	0.000000e+00	6.732024e-01	5.489240e+14	8.212201e+14	1.930711e+14	1.171744e+04	4.440003e+03	2.406115e+03	0	8.241889e-04
8.000000e+08	2.121789e+13	0.000000e+00	6.732024e-01	5.453661e+14	8.161526e+14	1.921652e+14	1.170411e+04	4.437239e+03	2.404616e+03	0	8.195504e-04
8.100000e+08	2.085986e+13	0.000000e+00	6.732024e-01	5.418480e+14	8.111450e+14	1.912656e+14	1.169086e+04	4.434494e+03	2.403129e+03	0	8.149145e-04
8.200000e+08	2.050604e+13	0.000000e+00	6.732024e-01	5.383690e+14	8.061959e+14	1.903723e+14	1.167770e+04	4.431771e+03	2.401653e+03	0	8.102807e-04
8.300000e+08	2.015636e+13	0.000000e+00	6.732024e-01	5.349286e+14	8.013040e+14	1.894851e+14	1.166463e+04	4.429067e+03	2.400188e+03	0	8.056485e-04
8.400000e+08	1.981074e+13	0.000000e+00	6.732024e-01	5.315262e+14	7.964682e+14	1.886040e+14	1.165163e+04	4.426382e+03	2.398733e+03	0	8.010172e-04
8.500000e+08	1.946913e+13	0.000000e+00	6.732024e-01	5.281610e+14	7.916874e+14	1.877291e+14	1.163873e+04	4.423717e+03	2.397289e+03	0	7.963863e-04
8.600000e+08	1.913146e+13	0.000000e+00	6.732024e-01	5.248326e+14	7.869604e+14	1.868601e+14	1.162590e+04	4.421070e+03	2.395854e+03	0	7.917553e-04
8.700000e+08	1.879767e+13	0.000000e+00	6.732024e-01	5.215403e+14	7.822862e+14	1.859972e+14	1.161315e+04	4.418441e+03	2.394430e+03	0	7.871235e-04
8.800000e+08	1.846768e+13	0.000000e+00	6.732024e-01	5.182836e+14	7.776637e+14	1.851402e+14	1.160048e+04	4.415831e+03	2.393015e+03	0	7.824905e-04
8.900000e+08	1.814145e+13	0.000000e+00	6.732024e-01	5.150618e+14	7.730919e+14	1.842890e+14	1.158789e+04	4.413237e+03	2.391610e+03	0	7.778555e-04
9.000000e+08	1.781891e+13	0.000000e+00	6.732024e-01	5.118746e+14	7.685699e+14	1.834437e+14	1.157538e+04	4.410661e+03	2.390214e+03	0	7.732180e-04
9.100000e+08	1.750000e+13	0.000000e+00	6.732024e-01	5.087213e+14	7.640968e+14	1.826042e+14	1.156295e+04	4.408102e+03	2.388827e+03	0	7.685774e-04
9.200000e+08	1.718467e+13	0.000000e+00	6.732024e-01	5.056014e+14	7.596716e+14	1.817705e+14	1.155060e+04	4.405559e+03	2.387449e+03	0	7.639331e-04
9.300000e+08	1.687286e+13	0.000000e+00	6.732024e-01	5.025144e+14	7.552934e+14	1.809425e+14	1.153831e+04	4.403033e+03	2.386080e+03	0	7.592844e-04
9.400000e+08	1.656451e+13	0.000000e+00	6.732024e-01	4.994599e+14	7.509615e+14	1.801201e+14	1.152611e+04	4.400522e+03	2.384719e+03	0	7.546307e-04
9.500000e+08	1.625958e+13	0.000000e+00	6.732024e-01	4.964372e+14	7.466750e+14	1.793033e+14	1.151398e+04	4.398027e+03	2.383367e+03	0	7.499714e-04
9.600000e+08	1.595800e+13	0.000000e+00	6.732024e-01	4.934460e+14	7.424330e+14	1.784921e+14	1.150192e+04	4.395548e+03	2.382023e+03	0	7.453057e-04
9.700000e+08	1.565974e+13	0.000000e+00	6.732024e-01	4.904858e+14	7.382349e+14	1.776864e+14	1.148993e+04	4.393083e+03	2.380688e+03	0	7.406330e-04
9.800000e+08	1.536473e+13	0.000000e+00	6.732024e-01	4.875560e+14	7.340798e+14	1.768862e+14	1.147802e+04	4.390634e+03	2.379361e+03	0	7.359527e-04
9.900000e+08	1.507293e+13	0.000000e+00	6.732024e-01	4.846563e+14	7.299670e+14	1.760915e+14	1.146617e+04	4.388199e+03	2.378041e+03	0	7.312639e-04
1.000000e+09	1.478429e+13	0.000000e+00	6.732024e-01	4.817863e+14	7.258959e+14	1.753021e+14	1.145440e+04	4.385779e+03	2.376729e+03	0	7.265660e-04
1.010000e+09	1.449876e+13	0.000000e+00	6.732024e-01	4.789454e+14	7.218657e+14	1.745181e+14	1.144270e+04	4.383373e+03	2.375426e+03	0	7.218582e-04
1.020000e+09	1.421630e+13	0.000000e+00	6.732024e-01	4.761333e+14	7.178758e+14	1.737394e+14	1.143106e+04	4.380980e+03	2.374129e+03	0	7.171397e-04
1.030000e+09	1.393686e+13	0.000000e+00	6.732024e-01	4.733495e+14	7.139254e+14	1.729660e+14	1.141950e+04	4.378602e+03	2.372840e+03	0	7.124099e-04
1.040000e+09	1.366040e+13	0.000000e+00	6.732024e-01	4.705936e+14	7.100141e+14	1.721978e+14	1.140800e+04	4.376237e+03	2.371559e+03	0	7.076677e-04
1.050000e+09	1.338687e+13	0.000000e+00	6.732024e-01	4.678653e+14	7.061411e+14	1.714348e+14	1.139656e+04	4.373885e+03	2.370284e+03	0	7.029125e-04
1.060000e+09	1.311623e+13	0.000000e+00	6.732024e-01	4.651641e+14	7.023058e+14	1.706769e+14	1.138520e+04	4.371547e+03	2.369017e+03	0	6.981433e-04
1.070000e+09	1.284844e+13	0.000000e+00	6.732024e-01	4.624897e+14	6.985077e+14	1.699241e+14	1.137390e+04	4.369222e+03	2.367757e+03	0	6.933593e-04
1.080000e+09	1.258345e+13	0.000000e+00	6.732024e-01	4.598417e+14	6.947462e+14	1.691764e+14	1.136266e+04	4.366909e+03	2.366504e+03	0	6.885596e-04
1.090000e+09	1.232123e+13	0.000000e+00	6.732024e-01	4.572197e+14	6.910207e+14	1.684338e+14	1.135149e+04	4.364609e+03	2.365257e+03	0	6.837432e-04
1.100000e+09	1.206174e+13	0.000000e+00	6.732024e-01	4.546233e+14	6.873306e+14	1.676961e+14	1.134038e+04	4.362321e+03	2.364017e+03	0	6.789091e-04
1.110000e+09	1.180494e+13	0.000000e+00	6.732024e-01	4.520522e+14	6.836755e+14	1.669633e+14	1.132934e+04	4.360046e+03	2.362784e+03	0	6.740563e-04
1.120000e+09	1.155079e+13	0.000000e+00	6.732024e-01	4.495060e+14	6.800549e+14	1.662355e+14	1.131836e+04	4.357783e+03	2.361558e+03	0	6.691838e-04
1.130000e+09	1.129924e+13	0.000000e+00	6.732024e-01	4.469844e+14	6.764682e+14	1.655126e+14	1.130743e+04	4.355532e+03	2.360338e+03	0	6.642905e-04
1.140000e+09	1.105028e+13	0.000000e+00	6.732024e-01	4.444871e+14	6.729148e+14	1.647944e+14	1.129657e+04	4.353292e+03	2.359124e+03	0	6.593753e-04
1.150000e+09	1.080385e+13	0.000000e+00	6.732024e-01	4.420137e+14	6.693945e+14	1.640811e+14	1.128578e+04	4.351064e+03	2.357917e+03	0	6.544369e-04
1.160000e+09	1.055993e+13	0.000000e+00	6.732024e-01	4.395639e+14	6.659066e+14	1.633725e+14	1.127504e+04	4.348848e+03	2.356716e+03	0	6.494742e-04
1.170000e+09	1.031848e+13	0.000000e+00	6.732024e-01	4.371374e+14	6.624507e+14	1.626687e+14	1.126436e+04	4.346643e+03	2.355521e+03	0	6.444859e-04
1.180000e+09	1.007946e+13	0.000000e+00	6.732024e-01	4.347338e+14	6.590263e+14	1.619695e+14	1.125374e+04	4.344450e+03	2.354333e+03	0	6.394707e-04
1.190000e+09	9.842840e+12	0.000000e+00	6.732024e-01	4.323530e+14	6.556331e+14	1.612750e+14	1.124317e+04	4.342267e+03	2.353150e+03	0	6.344271e-04
1.200000e+09	9.608592e+12	0.000000e+00	6.732024e-01	4.299944e+14	6.522705e+14	1.605851e+14	1.123267e+04	4.340096e+03	2.351973e+03	0	6.293538e-04
1.210000e+09	9.376681e+12	0.000000e+00	6.732024e-01	4.276579e+14	6.489382e+14	1.598998e+14	1.122222e+04	4.337935e+03	2.350802e+03	0	6.242491e-04
1.220000e+09	9.147074e+12	0.000000e+00	6.732024e-01	4.253432e+14	6.456357e+14	1.592190e+14	1.121183e+04	4.335785e+03	2.349637e+03	0	6.191116e-04
1.230000e+09	8.919740e+12	0.000000e+00	6.732024e-01	4.230500e+14	6.423627e+14	1.585427e+14	1.120149e+04	4.333646e+03	2.348478e+03	0	6.139396e-04
1.240000e+09	8.694649e+12	0.000000e+00	6.732024e-01	4.207779e+14	6.391187e+14	1.578709e+14	1.119122e+04	4.331517e+03	2.347324e+03	0	6.087312e-04
1.250000e+09	8.471771e+12	0.000000e+00	6.732024e-01	4.185268e+14	6.359033e+14	1.572035e+14	1.118099e+04	4.329398e+03	2.346176e+03	0	6.034848e-04
1.260000e+09	8.251075e+12	0.000000e+00	6.732024e-01	4.162963e+14	6.327162e+14	1.565405e+14	1.117082e+04	4.327290e+03	2.345033e+03	0	5.981982e-04
1.270000e+09	8.032534e+12	0.000000e+00	6.732024e-01	4.140862e+14	6.295570e+14	1.558819e+14	1.116071e+04	4.325192e+03	2.343896e+03	0	5.928695e-04
1.280000e+09	7.816118e+12	0.000000e+00	6.732024e-01	4.118962e+14	6.264253e+14	1.552276e+14	1.115064e+04	4.323104e+03	2.342765e+03	0	5.874965e-04
1.290000e+09	7.601800e+12	0.000000e+00	6.732024e-01	4.097260e+14	6.233208e+14	1.545776e+14	1.114064e+04	4.321026e+03	2.341639e+03	0	5.820769e-04
1.300000e+09	7.389551e+12	0.000000e+00	6.732024e-01	4.075755e+14	6.202431e+14	1.539319e+14	1.113068e+04	4.318958e+03	2.340518e+03	0	5.766083e-04
1.310000e+09	7.179344e+12	0.000000e+00	6.732024e-01	4.054443e+14	6.171918e+14	1.532904e+14	1.112078e+04	4.316899e+03	2.339402e+03	0	5.710882e-04
1.320000e+09	6.971154e+12	0.000000e+00	6.732024e-01	4.033322e+14	6.141667e+14	1.526531e+14	1.111092e+04	4.314850e+03	2.338292e+03	0	5.655137e-04
1.330000e+09	6.764953e+12	0.000000e+00	6.732024e-01	4.012389e+14	6.111674e+14	1.520200e+14	1.110112e+04	4.312811e+03	2.337187e+03	0	5.598820e-04
1.340000e+09	6.560717e+12	0.000000e+00	6.732024e-01	3.991643e+14	6.081936e+14	1.513911e+14	1.109137e+04	4.310781e+03	2.336087e+03	0	5.541900e-04
1.350000e+09	6.358418e+12	0.000000e+00	6.732024e-01	3.971081e+14	6.052449e+14	1.507662e+14	1.108167e+04	4.308760e+03	2.334992e+03	0	5.484343e-04
1.360000e+09	6.158034e+12	0.000000e+00	6.732024e-01	3.950700e+14	6.023210e+14	1.501454e+14	1.107202e+04	4.306749e+03	2.333902e+03	0	5.426114e-04
