#t		Qconv[W]	Ri[Rp]		R*[Rp]		Qc[W]		Qm[W]		Qr[W]		Tcmb[K]		Tl[K]		Tup[K]		RiFlag		Bs[T]
0.000000e+00	7.773131e+13	0.000000e+00	6.732026e-01	1.103518e+15	2.015138e+15	2.965942e+14	1.335952e+04	4.995886e+03	2.695467e+03	0	1.262565e-03
1.000000e+07	7.624093e+13	0.000000e+00	6.732026e-01	1.089879e+15	1.957913e+15	2.949508e+14	1.333369e+04	4.975370e+03	2.684398e+03	0	1.254444e-03
2.000000e+07	7.480127e+13	0.000000e+00	6.732026e-01	1.076685e+15	1.905334e+15	2.933198e+14	1.330817e+04	4.956236e+03	2.674074e+03	0	1.246498e-03
3.000000e+07	7.340880e+13	0.000000e+00	6.732026e-01	1.063907e+15	1.856851e+15	2.917009e+14	1.328297e+04	4.938348e+03	2.664423e+03	0	1.238714e-03
4.000000e+07	7.206036e+13	0.000000e+00	6.732026e-01	1.051516e+15	1.811997e+15	2.900941e+14	1.325806e+04	4.921584e+03	2.655378e+03	0	1.231083e-03
5.000000e+07	7.075309e+13	0.000000e+00	6.732026e-01	1.039488e+15	1.770369e+15	2.884993e+14	1.323344e+04	4.905841e+03	2.646884e+03	0	1.223593e-03
6.000000e+07	6.948444e+13	0.000000e+00	6.732026e-01	1.027801e+15	1.731621e+15	2.869164e+14	1.320910e+04	4.891025e+03	2.638890e+03	0	1.216236e-03
7.000000e+07	6.825205e+13	0.000000e+00	6.732026e-01	1.016435e+15	1.695451e+15	2.853453e+14	1.318503e+04	4.877052e+03	2.631351e+03	0	1.209002e-03
8.000000e+07	6.705383e+13	0.000000e+00	6.732026e-01	1.005370e+15	1.661599e+15	2.837858e+14	1.316123e+04	4.863849e+03	2.624228e+03	0	1.201885e-03
9.000000e+07	6.588783e+13	0.000000e+00	6.732026e-01	9.945904e+14	1.629836e+15	2.822380e+14	1.313769e+04	4.851351e+03	2.617485e+03	0	1.194878e-03
1.000000e+08	6.475230e+13	0.000000e+00	6.732026e-01	9.840806e+14	1.599961e+15	2.807016e+14	1.311440e+04	4.839498e+03	2.611090e+03	0	1.187974e-03
1.100000e+08	6.364562e+13	0.000000e+00	6.732026e-01	9.738266e+14	1.571798e+15	2.791767e+14	1.309136e+04	4.828238e+03	2.605014e+03	0	1.181167e-03
1.200000e+08	6.256632e+13	0.000000e+00	6.732026e-01	9.638154e+14	1.545191e+15	2.776630e+14	1.306855e+04	4.817522e+03	2.599233e+03	0	1.174452e-03
1.300000e+08	6.151303e+13	0.000000e+00	6.732026e-01	9.540352e+14	1.520002e+15	2.761606e+14	1.304598e+04	4.807308e+03	2.593722e+03	0	1.167824e-03
1.400000e+08	6.048451e+13	0.000000e+00	6.732026e-01	9.444750e+14	1.496108e+15	2.746693e+14	1.302363e+04	4.797557e+03	2.588461e+03	0	1.161279e-03
1.500000e+08	5.947959e+13	0.000000e+00	6.732026e-01	9.351248e+14	1.473399e+15	2.731890e+14	1.300151e+04	4.788234e+03	2.583431e+03	0	1.154812e-03
1.600000e+08	5.849720e+13	0.000000e+00	6.732026e-01	9.259752e+14	1.451779e+15	2.717196e+14	1.297961e+04	4.779307e+03	2.578614e+03	0	1.148419e-03
1.700000e+08	5.753636e+13	0.000000e+00	6.732026e-01	9.170176e+14	1.431159e+15	2.702611e+14	1.295792e+04	4.770746e+03	2.573995e+03	0	1.142096e-03
1.800000e+08	5.659613e+13	0.000000e+00	6.732026e-01	9.082438e+14	1.411461e+15	2.688133e+14	1.293644e+04	4.762525e+03	2.569560e+03	0	1.135841e-03
1.900000e+08	5.567567e+13	0.000000e+00	6.732026e-01	8.996463e+14	1.392613e+15	2.673762e+14	1.291517e+04	4.754621e+03	2.565295e+03	0	1.129649e-03
2.000000e+08	5.477417e+13	0.000000e+00	6.732026e-01	8.912183e+14	1.374553e+15	2.659497e+14	1.289410e+04	4.747011e+03	2.561190e+03	0	1.123519e-03
2.100000e+08	5.389088e+13	0.000000e+00	6.732026e-01	8.829530e+14	1.357221e+15	2.645337e+14	1.287322e+04	4.739675e+03	2.557231e+03	0	1.117447e-03
2.200000e+08	5.302511e+13	0.000000e+00	6.732026e-01	8.748444e+14	1.340567e+15	2.631280e+14	1.285254e+04	4.732595e+03	2.553411e+03	0	1.111431e-03
2.300000e+08	5.217620e+13	0.000000e+00	6.732026e-01	8.668868e+14	1.324541e+15	2.617327e+14	1.283204e+04	4.725753e+03	2.549720e+03	0	1.105468e-03
2.400000e+08	5.134354e+13	0.000000e+00	6.732026e-01	8.590747e+14	1.309102e+15	2.603476e+14	1.281173e+04	4.719134e+03	2.546149e+03	0	1.099555e-03
2.500000e+08	5.052655e+13	0.000000e+00	6.732026e-01	8.514032e+14	1.294209e+15	2.589727e+14	1.279161e+04	4.712724e+03	2.542690e+03	0	1.093692e-03
2.600000e+08	4.972469e+13	0.000000e+00	6.732026e-01	8.438674e+14	1.279827e+15	2.576078e+14	1.277166e+04	4.706510e+03	2.539338e+03	0	1.087876e-03
2.700000e+08	4.893744e+13	0.000000e+00	6.732026e-01	8.364628e+14	1.265924e+15	2.562529e+14	1.275189e+04	4.700479e+03	2.536084e+03	0	1.082104e-03
2.800000e+08	4.816433e+13	0.000000e+00	6.732026e-01	8.291852e+14	1.252467e+15	2.549079e+14	1.273229e+04	4.694620e+03	2.532922e+03	0	1.076375e-03
2.900000e+08	4.740489e+13	0.000000e+00	6.732026e-01	8.220306e+14	1.239432e+15	2.535727e+14	1.271286e+04	4.688923e+03	2.529849e+03	0	1.070688e-03
3.000000e+08	4.665870e+13	0.000000e+00	6.732026e-01	8.149952e+14	1.226791e+15	2.522472e+14	1.269360e+04	4.683378e+03	2.526857e+03	0	1.065040e-03
3.100000e+08	4.592534e+13	0.000000e+00	6.732026e-01	8.080753e+14	1.214522e+15	2.509314e+14	1.267451e+04	4.677976e+03	2.523943e+03	0	1.059431e-03
3.200000e+08	4.520443e+13	0.000000e+00	6.732026e-01	8.012676e+14	1.202604e+15	2.496252e+14	1.265557e+04	4.672710e+03	2.521101e+03	0	1.053858e-03
3.300000e+08	4.449560e+13	0.000000e+00	6.732026e-01	7.945687e+14	1.191016e+15	2.483284e+14	1.263680e+04	4.667571e+03	2.518328e+03	0	1.048321e-03
3.400000e+08	4.379849e+13	0.000000e+00	6.732026e-01	7.879757e+14	1.179740e+15	2.470411e+14	1.261818e+04	4.662552e+03	2.515621e+03	0	1.042817e-03
3.500000e+08	4.311279e+13	0.000000e+00	6.732026e-01	7.814856e+14	1.168760e+15	2.457631e+14	1.259971e+04	4.657647e+03	2.512974e+03	0	1.037347e-03
3.600000e+08	4.243815e+13	0.000000e+00	6.732026e-01	7.750955e+14	1.158060e+15	2.444944e+14	1.258140e+04	4.652850e+03	2.510386e+03	0	1.031907e-03
3.700000e+08	4.177430e+13	0.000000e+00	6.732026e-01	7.688028e+14	1.147625e+15	2.432349e+14	1.256324e+04	4.648154e+03	2.507853e+03	0	1.026498e-03
3.800000e+08	4.112092e+13	0.000000e+00	6.732026e-01	7.626049e+14	1.137442e+15	2.419845e+14	1.254522e+04	4.643556e+03	2.505371e+03	0	1.021118e-03
3.900000e+08	4.047776e+13	0.000000e+00	6.732026e-01	7.564993e+14	1.127498e+15	2.407431e+14	1.252735e+04	4.639049e+03	2.502940e+03	0	1.015767e-03
4.000000e+08	3.984454e+13	0.000000e+00	6.732026e-01	7.504838e+14	1.117783e+15	2.395107e+14	1.250962e+04	4.634629e+03	2.500555e+03	0	1.010442e-03
4.100000e+08	3.922100e+13	0.000000e+00	6.732026e-01	7.445561e+14	1.108284e+15	2.382872e+14	1.249203e+04	4.630292e+03	2.498215e+03	0	1.005144e-03
4.200000e+08	3.860692e+13	0.000000e+00	6.732026e-01	7.387140e+14	1.098993e+15	2.370725e+14	1.247458e+04	4.626033e+03	2.495917e+03	0	9.998700e-04
4.300000e+08	3.800205e+13	0.000000e+00	6.732026e-01	7.329555e+14	1.089899e+15	2.358665e+14	1.245727e+04	4.621850e+03	2.493660e+03	0	9.946207e-04
4.400000e+08	3.740617e+13	0.000000e+00	6.732026e-01	7.272786e+14	1.080994e+15	2.346693e+14	1.244009e+04	4.617738e+03	2.491442e+03	0	9.893947e-04
4.500000e+08	3.681906e+13	0.000000e+00	6.732026e-01	7.216813e+14	1.072270e+15	2.334806e+14	1.242305e+04	4.613694e+03	2.489260e+03	0	9.841910e-04
4.600000e+08	3.624052e+13	0.000000e+00	6.732026e-01	7.161619e+14	1.063719e+15	2.323005e+14	1.240613e+04	4.609715e+03	2.487113e+03	0	9.790090e-04
4.700000e+08	3.567036e+13	0.000000e+00	6.732026e-01	7.107186e+14	1.055334e+15	2.311288e+14	1.238934e+04	4.605799e+03	2.485000e+03	0	9.738476e-04
4.800000e+08	3.510837e+13	0.000000e+00	6.732026e-01	7.053496e+14	1.047107e+15	2.299655e+14	1.237269e+04	4.601941e+03	2.482919e+03	0	9.687062e-04
4.900000e+08	3.455437e+13	0.000000e+00	6.732026e-01	7.000534e+14	1.039034e+15	2.288106e+14	1.235615e+04	4.598141e+03	2.480869e+03	0	9.635839e-04
5.000000e+08	3.400820e+13	0.000000e+00	6.732026e-01	6.948284e+14	1.031107e+15	2.276639e+14	1.233974e+04	4.594395e+03	2.478847e+03	0	9.584800e-04
5.100000e+08	3.346967e+13	0.000000e+00	6.732026e-01	6.896729e+14	1.023322e+15	2.265254e+14	1.232346e+04	4.590702e+03	2.476855e+03	0	9.533938e-04
5.200000e+08	3.293861e+13	0.000000e+00	6.732026e-01	6.845856e+14	1.015672e+15	2.253950e+14	1.230729e+04	4.587058e+03	2.474889e+03	0	9.483245e-04
5.300000e+08	3.241488e+13	0.000000e+00	6.732026e-01	6.795651e+14	1.008154e+15	2.242727e+14	1.229124e+04	4.583462e+03	2.472949e+03	0	9.432714e-04
5.400000e+08	3.189831e+13	0.000000e+00	6.732026e-01	6.746098e+14	1.000762e+15	2.231584e+14	1.227531e+04	4.579913e+03	2.471034e+03	0	9.382338e-04
5.500000e+08	3.138875e+13	0.000000e+00	6.732026e-01	6.697186e+14	9.934918e+14	2.220520e+14	1.225950e+04	4.576408e+03	2.469143e+03	0	9.332111e-04
5.600000e+08	3.088607e+13	0.000000e+00	6.732026e-01	6.648901e+14	9.863393e+14	2.209534e+14	1.224380e+04	4.572946e+03	2.467275e+03	0	9.282025e-04
5.700000e+08	3.039012e+13	0.000000e+00	6.732026e-01	6.601231e+14	9.793007e+14	2.198627e+14	1.222821e+04	4.569525e+03	2.465429e+03	0	9.232074e-04
5.800000e+08	2.990075e+13	0.000000e+00	6.732026e-01	6.554163e+14	9.723721e+14	2.187797e+14	1.221274e+04	4.566144e+03	2.463605e+03	0	9.182252e-04
5.900000e+08	2.941785e+13	0.000000e+00	6.732026e-01	6.507687e+14	9.655500e+14	2.177044e+14	1.219737e+04	4.562801e+03	2.461801e+03	0	9.132553e-04
6.000000e+08	2.894129e+13	0.000000e+00	6.732026e-01	6.461789e+14	9.588312e+14	2.166367e+14	1.218211e+04	4.559494e+03	2.460017e+03	0	9.082969e-04
6.100000e+08	2.847094e+13	0.000000e+00	6.732026e-01	6.416460e+14	9.522123e+14	2.155766e+14	1.216696e+04	4.556224e+03	2.458253e+03	0	9.033494e-04
6.200000e+08	2.800667e+13	0.000000e+00	6.732026e-01	6.371688e+14	9.456904e+14	2.145239e+14	1.215192e+04	4.552988e+03	2.456507e+03	0	8.984123e-04
6.300000e+08	2.754838e+13	0.000000e+00	6.732026e-01	6.327463e+14	9.392627e+14	2.134787e+14	1.213698e+04	4.549785e+03	2.454779e+03	0	8.934849e-04
6.400000e+08	2.709595e+13	0.000000e+00	6.732026e-01	6.283775e+14	9.329263e+14	2.124409e+14	1.212215e+04	4.546615e+03	2.453068e+03	0	8.885666e-04
6.500000e+08	2.664927e+13	0.000000e+00	6.732026e-01	6.240614e+14	9.266787e+14	2.114103e+14	1.210741e+04	4.543476e+03	2.451374e+03	0	8.836568e-04
6.600000e+08	2.620823e+13	0.000000e+00	6.732026e-01	6.197971e+14	9.205174e+14	2.103870e+14	1.209278e+04	4.540367e+03	2.449697e+03	0	8.787549e-04
6.700000e+08	2.577273e+13	0.000000e+00	6.732026e-01	6.155836e+14	9.144401e+14	2.093709e+14	1.207825e+04	4.537287e+03	2.448036e+03	0	8.738603e-04
6.800000e+08	2.534267e+13	0.000000e+00	6.732026e-01	6.114199e+14	9.084444e+14	2.083620e+14	1.206382e+04	4.534236e+03	2.446389e+03	0	8.689724e-04
6.900000e+08	2.491795e+13	0.000000e+00	6.732026e-01	6.073053e+14	9.025284e+14	2.073601e+14	1.204948e+04	4.531213e+03	2.444758e+03	0	8.640906e-04
7.000000e+08	2.449847e+13	0.000000e+00	6.732026e-01	6.032389e+14	8.966898e+14	2.063652e+14	1.203524e+04	4.528216e+03	2.443142e+03	0	8.592143e-04
7.100000e+08	2.408413e+13	0.000000e+00	6.732026e-01	5.992197e+14	8.909267e+14	2.053774e+14	1.202109e+04	4.525246e+03	2.441539e+03	0	8.543429e-04
7.200000e+08	2.367486e+13	0.000000e+00	6.732026e-01	5.952471e+14	8.852373e+14	2.043964e+14	1.200704e+04	4.522301e+03	2.439950e+03	0	8.494757e-04
7.300000e+08	2.327055e+13	0.000000e+00	6.732026e-01	5.913201e+14	8.796198e+14	2.034222e+14	1.199309e+04	4.519381e+03	2.438374e+03	0	8.446123e-04
7.400000e+08	2.287113e+13	0.000000e+00	6.732026e-01	5.874380e+14	8.740724e+14	2.024549e+14	1.197922e+04	4.516485e+03	2.436812e+03	0	8.397520e-04
7.500000e+08	2.247650e+13	0.000000e+00	6.732026e-01	5.836002e+14	8.685934e+14	2.014943e+14	1.196544e+04	4.513612e+03	2.435262e+03	0	8.348941e-04
7.600000e+08	2.208659e+13	0.000000e+00	6.732026e-01	5.798057e+14	8.631814e+14	2.005404e+14	1.195176e+04	4.510762e+03	2.433724e+03	0	8.300382e-04
7.700000e+08	2.170131e+13	0.000000e+00	6.732026e-01	5.760539e+14	8.578347e+14	1.995932e+14	1.193816e+04	4.507935e+03	2.432199e+03	0	8.251835e-04
7.800000e+08	2.132059e+13	0.000000e+00	6.732026e-01	5.723441e+14	8.525519e+14	1.986525e+14	1.192465e+04	4.505129e+03	2.430685e+03	0	8.203294e-04
7.900000e+08	2.094435e+13	0.000000e+00	6.732026e-01	5.686756e+14	8.473316e+14	1.977184e+14	1.191123e+04	4.502345e+03	2.429183e+03	0	8.154753e-04
8.000000e+08	2.057251e+13	0.000000e+00	6.732026e-01	5.650477e+14	8.421724e+14	1.967907e+14	1.189790e+04	4.499582e+03	2.427692e+03	0	8.106206e-04
8.100000e+08	2.020501e+13	0.000000e+00	6.732026e-01	5.614598e+14	8.370731e+14	1.958695e+14	1.188464e+04	4.496838e+03	2.426212e+03	0	8.057646e-04
8.200000e+08	1.984177e+13	0.000000e+00	6.732026e-01	5.579112e+14	8.320323e+14	1.949546e+14	1.187148e+04	4.494115e+03	2.424743e+03	0	8.009068e-04
8.300000e+08	1.948271e+13	0.000000e+00	6.732026e-01	5.544013e+14	8.270489e+14	1.940461e+14	1.185839e+04	4.491411e+03	2.423284e+03	0	7.960463e-04
8.400000e+08	1.912778e+13	0.000000e+00	6.732026e-01	5.509295e+14	8.221217e+14	1.931438e+14	1.184539e+04	4.488726e+03	2.421835e+03	0	7.911826e-04
8.500000e+08	1.877691e+13	0.000000e+00	6.732026e-01	5.474951e+14	8.172496e+14	1.922478e+14	1.183247e+04	4.486060e+03	2.420396e+03	0	7.863150e-04
8.600000e+08	1.843003e+13	0.000000e+00	6.732026e-01	5.440977e+14	8.124314e+14	1.913580e+14	1.181963e+04	4.483412e+03	2.418968e+03	0	7.814428e-04
8.700000e+08	1.808707e+13	0.000000e+00	6.732026e-01	5.407365e+14	8.076662e+14	1.904742e+14	1.180687e+04	4.480781e+03	2.417549e+03	0	7.765652e-04
8.800000e+08	1.774798e+13	0.000000e+00	6.732026e-01	5.374112e+14	8.029529e+14	1.895966e+14	1.179419e+04	4.478169e+03	2.416139e+03	0	7.716817e-04
8.900000e+08	1.741270e+13	0.000000e+00	6.732026e-01	5.341210e+14	7.982905e+14	1.887250e+14	1.178158e+04	4.475573e+03	2.414739e+03	0	7.667913e-04
9.000000e+08	1.708116e+13	0.000000e+00	6.732026e-01	5.308655e+14	7.936780e+14	1.878593e+14	1.176906e+04	4.472995e+03	2.413347e+03	0	7.618935e-04
9.100000e+08	1.675330e+13	0.000000e+00	6.732026e-01	5.276441e+14	7.891147e+14	1.869996e+14	1.175660e+04	4.470433e+03	2.411965e+03	0	7.569874e-04
9.200000e+08	1.642907e+13	0.000000e+00	6.732026e-01	5.244563e+14	7.845995e+14	1.861458e+14	1.174423e+04	4.467887e+03	2.410591e+03	0	7.520722e-04
9.300000e+08	1.610842e+13	0.000000e+00	6.732026e-01	5.213017e+14	7.801316e+14	1.852978e+14	1.173193e+04	4.465357e+03	2.409226e+03	0	7.471472e-04
9.400000e+08	1.579129e+13	0.000000e+00	6.732026e-01	5.181796e+14	7.757101e+14	1.844556e+14	1.171970e+04	4.462843e+03	2.407870e+03	0	7.422115e-04
9.500000e+08	1.547762e+13	0.000000e+00	6.732026e-01	5.150898e+14	7.713343e+14	1.836192e+14	1.170755e+04	4.460344e+03	2.406522e+03	0	7.372643e-04
9.600000e+08	1.516736e+13	0.000000e+00	6.732026e-01	5.120315e+14	7.670034e+14	1.827885e+14	1.169546e+04	4.457860e+03	2.405182e+03	0	7.323048e-04
9.700000e+08	1.486047e+13	0.000000e+00	6.732026e-01	5.090045e+14	7.627165e+14	1.819634e+14	1.168345e+04	4.455391e+03	2.403850e+03	0	7.273319e-04
9.800000e+08	1.455688e+13	0.000000e+00	6.732026e-01	5.060082e+14	7.584730e+14	1.811440e+14	1.167151e+04	4.452937e+03	2.402526e+03	0	7.223449e-04
9.900000e+08	1.425656e+13	0.000000e+00	6.732026e-01	5.030422e+14	7.542721e+14	1.803301e+14	1.165964e+04	4.450498e+03	2.401209e+03	0	7.173428e-04
1.000000e+09	1.395944e+13	0.000000e+00	6.732026e-01	5.001060e+14	7.501131e+14	1.795217e+14	1.164784e+04	4.448072e+03	2.399901e+03	0	7.123245e-04
1.010000e+09	1.366550e+13	0.000000e+00	6.732026e-01	4.971993e+14	7.459954e+14	1.787188e+14	1.163611e+04	4.445661e+03	2.398600e+03	0	7.072892e-04
1.020000e+09	1.337467e+13	0.000000e+00	6.732026e-01	4.943215e+14	7.419182e+14	1.779214e+14	1.162445e+04	4.443263e+03	2.397306e+03	0	7.022357e-04
1.030000e+09	1.308692e+13	0.000000e+00	6.732026e-01	4.914724e+14	7.378809e+14	1.771293e+14	1.161285e+04	4.440879e+03	2.396019e+03	0	6.971630e-04
1.040000e+09	1.280219e+13	0.000000e+00	6.732026e-01	4.886514e+14	7.338829e+14	1.763427e+14	1.160133e+04	4.438508e+03	2.394740e+03	0	6.920699e-04
1.050000e+09	1.252045e+13	0.000000e+00	6.732026e-01	4.858582e+14	7.299236e+14	1.755613e+14	1.158986e+04	4.436150e+03	2.393468e+03	0	6.869553e-04
1.060000e+09	1.224165e+13	0.000000e+00	6.732026e-01	4.830924e+14	7.260024e+14	1.747852e+14	1.157846e+04	4.433805e+03	2.392203e+03	0	6.818181e-04
1.070000e+09	1.196575e+13	0.000000e+00	6.732026e-01	4.803536e+14	7.221186e+14	1.740143e+14	1.156713e+04	4.431473e+03	2.390945e+03	0	6.766569e-04
1.080000e+09	1.169271e+13	0.000000e+00	6.732026e-01	4.776415e+14	7.182718e+14	1.732486e+14	1.155586e+04	4.429154e+03	2.389694e+03	0	6.714705e-04
1.090000e+09	1.142249e+13	0.000000e+00	6.732026e-01	4.749556e+14	7.144613e+14	1.724880e+14	1.154466e+04	4.426847e+03	2.388449e+03	0	6.662574e-04
1.100000e+09	1.115504e+13	0.000000e+00	6.732026e-01	4.722956e+14	7.106867e+14	1.717326e+14	1.153352e+04	4.424553e+03	2.387211e+03	0	6.610164e-04
1.110000e+09	1.089033e+13	0.000000e+00	6.732026e-01	4.696612e+14	7.069473e+14	1.709822e+14	1.152244e+04	4.422270e+03	2.385980e+03	0	6.557459e-04
1.120000e+09	1.062833e+13	0.000000e+00	6.732026e-01	4.670519e+14	7.032427e+14	1.702369e+14	1.151142e+04	4.420000e+03	2.384755e+03	0	6.504443e-04
1.130000e+09	1.036898e+13	0.000000e+00	6.732026e-01	4.644675e+14	6.995723e+14	1.694965e+14	1.150046e+04	4.417741e+03	2.383536e+03	0	6.451101e-04
1.140000e+09	1.011226e+13	0.000000e+00	6.732026e-01	4.619076e+14	6.959358e+14	1.687611e+14	1.148956e+04	4.415494e+03	2.382324e+03	0	6.397416e-04
1.150000e+09	9.858131e+12	0.000000e+00	6.732026e-01	4.593720e+14	6.923325e+14	1.680306e+14	1.147873e+04	4.413259e+03	2.381118e+03	0	6.343370e-04
1.160000e+09	9.606555e+12	0.000000e+00	6.732026e-01	4.568601e+14	6.887621e+14	1.673050e+14	1.146795e+04	4.411035e+03	2.379918e+03	0	6.288944e-04
1.170000e+09	9.357497e+12	0.000000e+00	6.732026e-01	4.543719e+14	6.852240e+14	1.665842e+14	1.145723e+04	4.408822e+03	2.378724e+03	0	6.234119e-04
1.180000e+09	9.110923e+12	0.000000e+00	6.732026e-01	4.519068e+14	6.817178e+14	1.658682e+14	1.144657e+04	4.406620e+03	2.377536e+03	0	6.178874e-04
1.190000e+09	8.866800e+12	0.000000e+00	6.732026e-01	4.494647e+14	6.782431e+14	1.651570e+14	1.143597e+04	4.404429e+03	2.376354e+03	0	6.123186e-04
1.200000e+09	8.625094e+12	0.000000e+00	6.732026e-01	4.470452e+14	6.747994e+14	1.644505e+14	1.142542e+04	4.402250e+03	2.375178e+03	0	6.067034e-04
1.210000e+09	8.385773e+12	0.000000e+00	6.732026e-01	4.446480e+14	6.713863e+14	1.637486e+14	1.141493e+04	4.400080e+03	2.374007e+03	0	6.010393e-04
1.220000e+09	8.148804e+12	0.000000e+00	6.732026e-01	4.422729e+14	6.680035e+14	1.630515e+14	1.140450e+04	4.397922e+03	2.372843e+03	0	5.953237e-04
1.230000e+09	7.914157e+12	0.000000e+00	6.732026e-01	4.399195e+14	6.646504e+14	1.623589e+14	1.139412e+04	4.395774e+03	2.371684e+03	0	5.895537e-04
1.240000e+09	7.681800e+12	0.000000e+00	6.732026e-01	4.375875e+14	6.613267e+14	1.616709e+14	1.138380e+04	4.393636e+03	2.370531e+03	0	5.837266e-04
1.250000e+09	7.451703e+12	0.000000e+00	6.732026e-01	4.352768e+14	6.580320e+14	1.609875e+14	1.137354e+04	4.391509e+03	2.369383e+03	0	5.778392e-04
1.260000e+09	7.223836e+12	0.000000e+00	6.732026e-01	4.329869e+14	6.547660e+14	1.603085e+14	1.136332e+04	4.389392e+03	2.368240e+03	0	5.718882e-04
1.270000e+09	6.998170e+12	0.000000e+00	6.732026e-01	4.307178e+14	6.515282e+14	1.596340e+14	1.135316e+04	4.387285e+03	2.367104e+03	0	5.658700e-04
1.280000e+09	6.774676e+12	0.000000e+00	6.732026e-01	4.284690e+14	6.483183e+14	1.589640e+14	1.134306e+04	4.385187e+03	2.365972e+03	0	5.597808e-04
1.290000e+09	6.553325e+12	0.000000e+00	6.732026e-01	4.262403e+14	6.451359e+14	1.582984e+14	1.133300e+04	4.383100e+03	2.364846e+03	0	5.536166e-04
1.300000e+09	6.334090e+12	0.000000e+00	6.732026e-01	4.240315e+14	6.419807e+14	1.576371e+14	1.132300e+04	4.381022e+03	2.363725e+03	0	5.473729e-04
1.310000e+09	6.116943e+12	0.000000e+00	6.732026e-01	4.218423e+14	6.388524e+14	1.569802e+14	1.131305e+04	4.378954e+03	2.362609e+03	0	5.410449e-04
1.320000e+09	5.901858e+12	0.000000e+00	6.732026e-01	4.196724e+14	6.357505e+14	1.563276e+14	1.130315e+04	4.376896e+03	2.361499e+03	0	5.346277e-04
1.330000e+09	5.688808e+12	0.000000e+00	6.732026e-01	4.175218e+14	6.326748e+14	1.556792e+14	1.129331e+04	4.374847e+03	2.360393e+03	0	5.281155e-04
1.340000e+09	5.477766e+12	0.000000e+00	6.732026e-01	4.153900e+14	6.296249e+14	1.550351e+14	1.128351e+04	4.372807e+03	2.359293e+03	0	5.215024e-04
1.350000e+09	5.268708e+12	0.000000e+00	6.732026e-01	4.132768e+14	6.266005e+14	1.543952e+14	1.127376e+04	4.370777e+03	2.358197e+03	0	5.147818e-04
1.360000e+09	5.061608e+12	0.000000e+00	6.732026e-01	4.111821e+14	6.236013e+14	1.537594e+14	1.126406e+04	4.368756e+03	2.357107e+03	0	5.079465e-04
