#t		Qconv[W]	Ri[Rp]		R*[Rp]		Qc[W]		Qm[W]		Qr[W]		Tcmb[K]		Tl[K]		Tup[K]		RiFlag		Bs[T]
0.000000e+00	8.795819e+13	0.000000e+00	6.732026e-01	1.252025e+15	2.086063e+15	3.119104e+14	1.390933e+04	5.112072e+03	2.714133e+03	0	1.313065e-03
1.000000e+07	8.632595e+13	0.000000e+00	6.732026e-01	1.237321e+15	2.037344e+15	3.101822e+14	1.388223e+04	5.095378e+03	2.705269e+03	0	1.304892e-03
2.000000e+07	8.474276e+13	0.000000e+00	6.732026e-01	1.223041e+15	1.992098e+15	3.084669e+14	1.385544e+04	5.079704e+03	2.696947e+03	0	1.296865e-03
3.000000e+07	8.320558e+13	0.000000e+00	6.732026e-01	1.209158e+15	1.949948e+15	3.067645e+14	1.382896e+04	5.064955e+03	2.689117e+03	0	1.288976e-03
4.000000e+07	8.171165e+13	0.000000e+00	6.732026e-01	1.195649e+15	1.910571e+15	3.050747e+14	1.380279e+04	5.051048e+03	2.681733e+03	0	1.281215e-03
5.000000e+07	8.025848e+13	0.000000e+00	6.732026e-01	1.182494e+15	1.873683e+15	3.033975e+14	1.377690e+04	5.037907e+03	2.674756e+03	0	1.273575e-03
6.000000e+07	7.884381e+13	0.000000e+00	6.732026e-01	1.169672e+15	1.839037e+15	3.017329e+14	1.375130e+04	5.025465e+03	2.668151e+03	0	1.266047e-03
7.000000e+07	7.746555e+13	0.000000e+00	6.732026e-01	1.157166e+15	1.806419e+15	3.000806e+14	1.372597e+04	5.013663e+03	2.661885e+03	0	1.258627e-03
8.000000e+07	7.612182e+13	0.000000e+00	6.732026e-01	1.144960e+15	1.775636e+15	2.984407e+14	1.370091e+04	5.002448e+03	2.655930e+03	0	1.251307e-03
9.000000e+07	7.481086e+13	0.000000e+00	6.732026e-01	1.133038e+15	1.746522e+15	2.968129e+14	1.367612e+04	4.991771e+03	2.650261e+03	0	1.244082e-03
1.000000e+08	7.353108e+13	0.000000e+00	6.732026e-01	1.121388e+15	1.718927e+15	2.951972e+14	1.365159e+04	4.981589e+03	2.644856e+03	0	1.236947e-03
1.100000e+08	7.228100e+13	0.000000e+00	6.732026e-01	1.109997e+15	1.692720e+15	2.935935e+14	1.362730e+04	4.971862e+03	2.639692e+03	0	1.229897e-03
1.200000e+08	7.105926e+13	0.000000e+00	6.732026e-01	1.098853e+15	1.667784e+15	2.920017e+14	1.360326e+04	4.962557e+03	2.634751e+03	0	1.222928e-03
1.300000e+08	6.986461e+13	0.000000e+00	6.732026e-01	1.087944e+15	1.644012e+15	2.904217e+14	1.357947e+04	4.953640e+03	2.630017e+03	0	1.216036e-03
1.400000e+08	6.869587e+13	0.000000e+00	6.732026e-01	1.077263e+15	1.621311e+15	2.888533e+14	1.355590e+04	4.945082e+03	2.625473e+03	0	1.209217e-03
1.500000e+08	6.755195e+13	0.000000e+00	6.732026e-01	1.066798e+15	1.599596e+15	2.872966e+14	1.353257e+04	4.936858e+03	2.621107e+03	0	1.202468e-03
1.600000e+08	6.643184e+13	0.000000e+00	6.732026e-01	1.056541e+15	1.578792e+15	2.857513e+14	1.350947e+04	4.928943e+03	2.616904e+03	0	1.195784e-03
1.700000e+08	6.533461e+13	0.000000e+00	6.732026e-01	1.046484e+15	1.558831e+15	2.842175e+14	1.348658e+04	4.921315e+03	2.612855e+03	0	1.189164e-03
1.800000e+08	6.425936e+13	0.000000e+00	6.732026e-01	1.036620e+15	1.539650e+15	2.826950e+14	1.346392e+04	4.913954e+03	2.608947e+03	0	1.182605e-03
1.900000e+08	6.320528e+13	0.000000e+00	6.732026e-01	1.026942e+15	1.521193e+15	2.811837e+14	1.344146e+04	4.906842e+03	2.605171e+03	0	1.176103e-03
2.000000e+08	6.217160e+13	0.000000e+00	6.732026e-01	1.017443e+15	1.503411e+15	2.796835e+14	1.341922e+04	4.899962e+03	2.601518e+03	0	1.169656e-03
2.100000e+08	6.115758e+13	0.000000e+00	6.732026e-01	1.008116e+15	1.486255e+15	2.781943e+14	1.339718e+04	4.893299e+03	2.597980e+03	0	1.163262e-03
2.200000e+08	6.016254e+13	0.000000e+00	6.732026e-01	9.989560e+14	1.469686e+15	2.767161e+14	1.337534e+04	4.886838e+03	2.594550e+03	0	1.156919e-03
2.300000e+08	5.918585e+13	0.000000e+00	6.732026e-01	9.899574e+14	1.453664e+15	2.752487e+14	1.335370e+04	4.880567e+03	2.591221e+03	0	1.150624e-03
2.400000e+08	5.822689e+13	0.000000e+00	6.732026e-01	9.811148e+14	1.438154e+15	2.737921e+14	1.333226e+04	4.874474e+03	2.587985e+03	0	1.144376e-03
2.500000e+08	5.728510e+13	0.000000e+00	6.732026e-01	9.724234e+14	1.423124e+15	2.723461e+14	1.331100e+04	4.868547e+03	2.584839e+03	0	1.138172e-03
2.600000e+08	5.635992e+13	0.000000e+00	6.732026e-01	9.638784e+14	1.408546e+15	2.709108e+14	1.328994e+04	4.862777e+03	2.581775e+03	0	1.132012e-03
2.700000e+08	5.545086e+13	0.000000e+00	6.732026e-01	9.554755e+14	1.394392e+15	2.694859e+14	1.326905e+04	4.857153e+03	2.578790e+03	0	1.125892e-03
2.800000e+08	5.455741e+13	0.000000e+00	6.732026e-01	9.472105e+14	1.380638e+15	2.680714e+14	1.324835e+04	4.851669e+03	2.575878e+03	0	1.119813e-03
2.900000e+08	5.367913e+13	0.000000e+00	6.732026e-01	9.390793e+14	1.367260e+15	2.666673e+14	1.322783e+04	4.846314e+03	2.573035e+03	0	1.113771e-03
3.000000e+08	5.281557e+13	0.000000e+00	6.732026e-01	9.310782e+14	1.354238e+15	2.652734e+14	1.320748e+04	4.841083e+03	2.570257e+03	0	1.107766e-03
3.100000e+08	5.196630e+13	0.000000e+00	6.732026e-01	9.232035e+14	1.341553e+15	2.638896e+14	1.318731e+04	4.835967e+03	2.567541e+03	0	1.101796e-03
3.200000e+08	5.113095e+13	0.000000e+00	6.732026e-01	9.154519e+14	1.329186e+15	2.625159e+14	1.316731e+04	4.830962e+03	2.564884e+03	0	1.095861e-03
3.300000e+08	5.030912e+13	0.000000e+00	6.732026e-01	9.078200e+14	1.317122e+15	2.611522e+14	1.314747e+04	4.826060e+03	2.562281e+03	0	1.089958e-03
3.400000e+08	4.950045e+13	0.000000e+00	6.732026e-01	9.003047e+14	1.305344e+15	2.597984e+14	1.312780e+04	4.821257e+03	2.559731e+03	0	1.084086e-03
3.500000e+08	4.870460e+13	0.000000e+00	6.732026e-01	8.929029e+14	1.293838e+15	2.584545e+14	1.310829e+04	4.816546e+03	2.557230e+03	0	1.078245e-03
3.600000e+08	4.792123e+13	0.000000e+00	6.732026e-01	8.856119e+14	1.282593e+15	2.571202e+14	1.308894e+04	4.811924e+03	2.554776e+03	0	1.072433e-03
3.700000e+08	4.715003e+13	0.000000e+00	6.732026e-01	8.784289e+14	1.271594e+15	2.557957e+14	1.306975e+04	4.807386e+03	2.552367e+03	0	1.066649e-03
3.800000e+08	4.639068e+13	0.000000e+00	6.732026e-01	8.713511e+14	1.260831e+15	2.544807e+14	1.305072e+04	4.802928e+03	2.550000e+03	0	1.060892e-03
3.900000e+08	4.564291e+13	0.000000e+00	6.732026e-01	8.643761e+14	1.250293e+15	2.531752e+14	1.303183e+04	4.798546e+03	2.547673e+03	0	1.055160e-03
4.000000e+08	4.490643e+13	0.000000e+00	6.732026e-01	8.575015e+14	1.239970e+15	2.518792e+14	1.301310e+04	4.794236e+03	2.545385e+03	0	1.049454e-03
4.100000e+08	4.418097e+13	0.000000e+00	6.732026e-01	8.507249e+14	1.229853e+15	2.505925e+14	1.299452e+04	4.789995e+03	2.543134e+03	0	1.043772e-03
4.200000e+08	4.346626e+13	0.000000e+00	6.732026e-01	8.440440e+14	1.219933e+15	2.493150e+14	1.297608e+04	4.785820e+03	2.540917e+03	0	1.038113e-03
4.300000e+08	4.276207e+13	0.000000e+00	6.732026e-01	8.374567e+14	1.210203e+15	2.480468e+14	1.295779e+04	4.781708e+03	2.538734e+03	0	1.032477e-03
4.400000e+08	4.206815e+13	0.000000e+00	6.732026e-01	8.309608e+14	1.200654e+15	2.467877e+14	1.293964e+04	4.777656e+03	2.536582e+03	0	1.026861e-03
4.500000e+08	4.138427e+13	0.000000e+00	6.732026e-01	8.245545e+14	1.191279e+15	2.455376e+14	1.292163e+04	4.773661e+03	2.534462e+03	0	1.021267e-03
4.600000e+08	4.071020e+13	0.000000e+00	6.732026e-01	8.182356e+14	1.182072e+15	2.442966e+14	1.290376e+04	4.769722e+03	2.532370e+03	0	1.015691e-03
4.700000e+08	4.004573e+13	0.000000e+00	6.732026e-01	8.120024e+14	1.173026e+15	2.430644e+14	1.288602e+04	4.765835e+03	2.530307e+03	0	1.010135e-03
4.800000e+08	3.939065e+13	0.000000e+00	6.732026e-01	8.058530e+14	1.164136e+15	2.418410e+14	1.286842e+04	4.761999e+03	2.528270e+03	0	1.004597e-03
4.900000e+08	3.874476e+13	0.000000e+00	6.732026e-01	7.997856e+14	1.155396e+15	2.406264e+14	1.285096e+04	4.758212e+03	2.526259e+03	0	9.990757e-04
5.000000e+08	3.810787e+13	0.000000e+00	6.732026e-01	7.937986e+14	1.146801e+15	2.394205e+14	1.283362e+04	4.754472e+03	2.524273e+03	0	9.935711e-04
5.100000e+08	3.747979e+13	0.000000e+00	6.732026e-01	7.878904e+14	1.138345e+15	2.382232e+14	1.281641e+04	4.750776e+03	2.522311e+03	0	9.880822e-04
5.200000e+08	3.686032e+13	0.000000e+00	6.732026e-01	7.820592e+14	1.130024e+15	2.370345e+14	1.279934e+04	4.747124e+03	2.520372e+03	0	9.826083e-04
5.300000e+08	3.624931e+13	0.000000e+00	6.732026e-01	7.763036e+14	1.121834e+15	2.358542e+14	1.278238e+04	4.743513e+03	2.518455e+03	0	9.771487e-04
5.400000e+08	3.564657e+13	0.000000e+00	6.732026e-01	7.706221e+14	1.113770e+15	2.346824e+14	1.276556e+04	4.739943e+03	2.516560e+03	0	9.717025e-04
5.500000e+08	3.505194e+13	0.000000e+00	6.732026e-01	7.650132e+14	1.105829e+15	2.335188e+14	1.274885e+04	4.736412e+03	2.514685e+03	0	9.662691e-04
5.600000e+08	3.446526e+13	0.000000e+00	6.732026e-01	7.594756e+14	1.098006e+15	2.323636e+14	1.273227e+04	4.732918e+03	2.512830e+03	0	9.608478e-04
5.700000e+08	3.388638e+13	0.000000e+00	6.732026e-01	7.540078e+14	1.090299e+15	2.312165e+14	1.271580e+04	4.729460e+03	2.510994e+03	0	9.554379e-04
5.800000e+08	3.331513e+13	0.000000e+00	6.732026e-01	7.486085e+14	1.082703e+15	2.300776e+14	1.269946e+04	4.726037e+03	2.509177e+03	0	9.500386e-04
5.900000e+08	3.275138e+13	0.000000e+00	6.732026e-01	7.432764e+14	1.075216e+15	2.289468e+14	1.268323e+04	4.722649e+03	2.507378e+03	0	9.446493e-04
6.000000e+08	3.219499e+13	0.000000e+00	6.732026e-01	7.380103e+14	1.067834e+15	2.278240e+14	1.266711e+04	4.719293e+03	2.505596e+03	0	9.392693e-04
6.100000e+08	3.164580e+13	0.000000e+00	6.732026e-01	7.328090e+14	1.060555e+15	2.267091e+14	1.265111e+04	4.715969e+03	2.503831e+03	0	9.338979e-04
6.200000e+08	3.110369e+13	0.000000e+00	6.732026e-01	7.276712e+14	1.053375e+15	2.256021e+14	1.263523e+04	4.712676e+03	2.502083e+03	0	9.285345e-04
6.300000e+08	3.056852e+13	0.000000e+00	6.732026e-01	7.225958e+14	1.046293e+15	2.245029e+14	1.261945e+04	4.709413e+03	2.500350e+03	0	9.231782e-04
6.400000e+08	3.004017e+13	0.000000e+00	6.732026e-01	7.175817e+14	1.039305e+15	2.234114e+14	1.260378e+04	4.706179e+03	2.498633e+03	0	9.178285e-04
6.500000e+08	2.951852e+13	0.000000e+00	6.732026e-01	7.126278e+14	1.032410e+15	2.223276e+14	1.258823e+04	4.702973e+03	2.496931e+03	0	9.124847e-04
6.600000e+08	2.900343e+13	0.000000e+00	6.732026e-01	7.077330e+14	1.025604e+15	2.212515e+14	1.257278e+04	4.699795e+03	2.495244e+03	0	9.071460e-04
6.700000e+08	2.849480e+13	0.000000e+00	6.732026e-01	7.028963e+14	1.018885e+15	2.201830e+14	1.255743e+04	4.696644e+03	2.493571e+03	0	9.018118e-04
6.800000e+08	2.799250e+13	0.000000e+00	6.732026e-01	6.981166e+14	1.012253e+15	2.191219e+14	1.254219e+04	4.693519e+03	2.491912e+03	0	8.964814e-04
6.900000e+08	2.749642e+13	0.000000e+00	6.732026e-01	6.933930e+14	1.005704e+15	2.180683e+14	1.252705e+04	4.690419e+03	2.490266e+03	0	8.911541e-04
7.000000e+08	2.700647e+13	0.000000e+00	6.732026e-01	6.887246e+14	9.992358e+14	2.170220e+14	1.251202e+04	4.687345e+03	2.488634e+03	0	8.858292e-04
7.100000e+08	2.652252e+13	0.000000e+00	6.732026e-01	6.841103e+14	9.928477e+14	2.159831e+14	1.249709e+04	4.684294e+03	2.487014e+03	0	8.805060e-04
7.200000e+08	2.604447e+13	0.000000e+00	6.732026e-01	6.795492e+14	9.865374e+14	2.149515e+14	1.248225e+04	4.681267e+03	2.485407e+03	0	8.751837e-04
7.300000e+08	2.557223e+13	0.000000e+00	6.732026e-01	6.750405e+14	9.803033e+14	2.139271e+14	1.246752e+04	4.678263e+03	2.483812e+03	0	8.698618e-04
7.400000e+08	2.510569e+13	0.000000e+00	6.732026e-01	6.705833e+14	9.741437e+14	2.129098e+14	1.245288e+04	4.675281e+03	2.482229e+03	0	8.645393e-04
7.500000e+08	2.464475e+13	0.000000e+00	6.732026e-01	6.661767e+14	9.680569e+14	2.118996e+14	1.243834e+04	4.672322e+03	2.480658e+03	0	8.592157e-04
7.600000e+08	2.418933e+13	0.000000e+00	6.732026e-01	6.618199e+14	9.620415e+14	2.108964e+14	1.242389e+04	4.669384e+03	2.479098e+03	0	8.538901e-04
7.700000e+08	2.373932e+13	0.000000e+00	6.732026e-01	6.575121e+14	9.560959e+14	2.099003e+14	1.240954e+04	4.666467e+03	2.477549e+03	0	8.485618e-04
7.800000e+08	2.329464e+13	0.000000e+00	6.732026e-01	6.532524e+14	9.502187e+14	2.089110e+14	1.239528e+04	4.663571e+03	2.476012e+03	0	8.432301e-04
7.900000e+08	2.285521e+13	0.000000e+00	6.732026e-01	6.490402e+14	9.444086e+14	2.079286e+14	1.238112e+04	4.660695e+03	2.474485e+03	0	8.378941e-04
8.000000e+08	2.242093e+13	0.000000e+00	6.732026e-01	6.448746e+14	9.386642e+14	2.069531e+14	1.236704e+04	4.657838e+03	2.472968e+03	0	8.325530e-04
8.100000e+08	2.199171e+13	0.000000e+00	6.732026e-01	6.407548e+14	9.329842e+14	2.059843e+14	1.235306e+04	4.655002e+03	2.471462e+03	0	8.272062e-04
8.200000e+08	2.156749e+13	0.000000e+00	6.732026e-01	6.366803e+14	9.273674e+14	2.050222e+14	1.233916e+04	4.652184e+03	2.469966e+03	0	8.218526e-04
8.300000e+08	2.114817e+13	0.000000e+00	6.732026e-01	6.326501e+14	9.218126e+14	2.040667e+14	1.232535e+04	4.649384e+03	2.468480e+03	0	8.164915e-04
8.400000e+08	2.073368e+13	0.000000e+00	6.732026e-01	6.286638e+14	9.163185e+14	2.031179e+14	1.231163e+04	4.646604e+03	2.467003e+03	0	8.111220e-04
8.500000e+08	2.032394e+13	0.000000e+00	6.732026e-01	6.247205e+14	9.108842e+14	2.021756e+14	1.229800e+04	4.643841e+03	2.465536e+03	0	8.057433e-04
8.600000e+08	1.991888e+13	0.000000e+00	6.732026e-01	6.208196e+14	9.055085e+14	2.012398e+14	1.228445e+04	4.641095e+03	2.464079e+03	0	8.003544e-04
8.700000e+08	1.951841e+13	0.000000e+00	6.732026e-01	6.169604e+14	9.001903e+14	2.003104e+14	1.227099e+04	4.638367e+03	2.462630e+03	0	7.949544e-04
8.800000e+08	1.912248e+13	0.000000e+00	6.732026e-01	6.131424e+14	8.949286e+14	1.993874e+14	1.225760e+04	4.635657e+03	2.461191e+03	0	7.895424e-04
8.900000e+08	1.873101e+13	0.000000e+00	6.732026e-01	6.093648e+14	8.897225e+14	1.984708e+14	1.224431e+04	4.632962e+03	2.459761e+03	0	7.841174e-04
9.000000e+08	1.834392e+13	0.000000e+00	6.732026e-01	6.056272e+14	8.845709e+14	1.975605e+14	1.223109e+04	4.630285e+03	2.458339e+03	0	7.786784e-04
9.100000e+08	1.796115e+13	0.000000e+00	6.732026e-01	6.019287e+14	8.794729e+14	1.966564e+14	1.221796e+04	4.627623e+03	2.456926e+03	0	7.732243e-04
9.200000e+08	1.758264e+13	0.000000e+00	6.732026e-01	5.982690e+14	8.744276e+14	1.957585e+14	1.220490e+04	4.624978e+03	2.455522e+03	0	7.677541e-04
9.300000e+08	1.720832e+13	0.000000e+00	6.732026e-01	5.946473e+14	8.694342e+14	1.948667e+14	1.219192e+04	4.622348e+03	2.454125e+03	0	7.622667e-04
9.400000e+08	1.683813e+13	0.000000e+00	6.732026e-01	5.910632e+14	8.644917e+14	1.939810e+14	1.217903e+04	4.619734e+03	2.452737e+03	0	7.567609e-04
9.500000e+08	1.647200e+13	0.000000e+00	6.732026e-01	5.875161e+14	8.595993e+14	1.931014e+14	1.216621e+04	4.617134e+03	2.451357e+03	0	7.512356e-04
9.600000e+08	1.610987e+13	0.000000e+00	6.732026e-01	5.840054e+14	8.547562e+14	1.922278e+14	1.215346e+04	4.614550e+03	2.449985e+03	0	7.456896e-04
9.700000e+08	1.575168e+13	0.000000e+00	6.732026e-01	5.805306e+14	8.499616e+14	1.913601e+14	1.214079e+04	4.611981e+03	2.448621e+03	0	7.401216e-04
9.800000e+08	1.539738e+13	0.000000e+00	6.732026e-01	5.770911e+14	8.452148e+14	1.904983e+14	1.212820e+04	4.609426e+03	2.447265e+03	0	7.345302e-04
9.900000e+08	1.504690e+13	0.000000e+00	6.732026e-01	5.736866e+14	8.405149e+14	1.896424e+14	1.211568e+04	4.606886e+03	2.445916e+03	0	7.289142e-04
1.000000e+09	1.470019e+13	0.000000e+00	6.732026e-01	5.703164e+14	8.358613e+14	1.887923e+14	1.210324e+04	4.604360e+03	2.444575e+03	0	7.232722e-04
1.010000e+09	1.435720e+13	0.000000e+00	6.732026e-01	5.669801e+14	8.312533e+14	1.879480e+14	1.209087e+04	4.601847e+03	2.443241e+03	0	7.176026e-04
1.020000e+09	1.401787e+13	0.000000e+00	6.732026e-01	5.636771e+14	8.266900e+14	1.871093e+14	1.207857e+04	4.599349e+03	2.441914e+03	0	7.119039e-04
1.030000e+09	1.368214e+13	0.000000e+00	6.732026e-01	5.604071e+14	8.221709e+14	1.862764e+14	1.206634e+04	4.596864e+03	2.440595e+03	0	7.061745e-04
1.040000e+09	1.334996e+13	0.000000e+00	6.732026e-01	5.571695e+14	8.176953e+14	1.854491e+14	1.205419e+04	4.594392e+03	2.439283e+03	0	7.004128e-04
1.050000e+09	1.302129e+13	0.000000e+00	6.732026e-01	5.539640e+14	8.132626e+14	1.846273e+14	1.204210e+04	4.591934e+03	2.437978e+03	0	6.946170e-04
1.060000e+09	1.269607e+13	0.000000e+00	6.732026e-01	5.507899e+14	8.088720e+14	1.838112e+14	1.203008e+04	4.589489e+03	2.436679e+03	0	6.887852e-04
1.070000e+09	1.237425e+13	0.000000e+00	6.732026e-01	5.476470e+14	8.045231e+14	1.830005e+14	1.201814e+04	4.587056e+03	2.435388e+03	0	6.829156e-04
1.080000e+09	1.205579e+13	0.000000e+00	6.732026e-01	5.445347e+14	8.002151e+14	1.821952e+14	1.200625e+04	4.584637e+03	2.434103e+03	0	6.770061e-04
1.090000e+09	1.174063e+13	0.000000e+00	6.732026e-01	5.414527e+14	7.959475e+14	1.813954e+14	1.199444e+04	4.582230e+03	2.432826e+03	0	6.710546e-04
1.100000e+09	1.142873e+13	0.000000e+00	6.732026e-01	5.384006e+14	7.917197e+14	1.806010e+14	1.198270e+04	4.579835e+03	2.431554e+03	0	6.650588e-04
1.110000e+09	1.112005e+13	0.000000e+00	6.732026e-01	5.353778e+14	7.875312e+14	1.798118e+14	1.197102e+04	4.577453e+03	2.430289e+03	0	6.590165e-04
1.120000e+09	1.081453e+13	0.000000e+00	6.732026e-01	5.323841e+14	7.833813e+14	1.790280e+14	1.195940e+04	4.575083e+03	2.429031e+03	0	6.529250e-04
1.130000e+09	1.051214e+13	0.000000e+00	6.732026e-01	5.294190e+14	7.792697e+14	1.782494e+14	1.194785e+04	4.572725e+03	2.427779e+03	0	6.467819e-04
1.140000e+09	1.021284e+13	0.000000e+00	6.732026e-01	5.264821e+14	7.751956e+14	1.774760e+14	1.193637e+04	4.570379e+03	2.426534e+03	0	6.405842e-04
1.150000e+09	9.916568e+12	0.000000e+00	6.732026e-01	5.235731e+14	7.711586e+14	1.767078e+14	1.192494e+04	4.568044e+03	2.425294e+03	0	6.343289e-04
1.160000e+09	9.623296e+12	0.000000e+00	6.732026e-01	5.206916e+14	7.671582e+14	1.759447e+14	1.191358e+04	4.565722e+03	2.424061e+03	0	6.280131e-04
1.170000e+09	9.332980e+12	0.000000e+00	6.732026e-01	5.178372e+14	7.631940e+14	1.751867e+14	1.190229e+04	4.563410e+03	2.422834e+03	0	6.216332e-04
1.180000e+09	9.045580e+12	0.000000e+00	6.732026e-01	5.150096e+14	7.592653e+14	1.744337e+14	1.189105e+04	4.561110e+03	2.421613e+03	0	6.151857e-04
1.190000e+09	8.761056e+12	0.000000e+00	6.732026e-01	5.122083e+14	7.553718e+14	1.736858e+14	1.187988e+04	4.558822e+03	2.420398e+03	0	6.086667e-04
1.200000e+09	8.479369e+12	0.000000e+00	6.732026e-01	5.094332e+14	7.515129e+14	1.729428e+14	1.186877e+04	4.556544e+03	2.419188e+03	0	6.020722e-04
1.210000e+09	8.200480e+12	0.000000e+00	6.732026e-01	5.066837e+14	7.476882e+14	1.722047e+14	1.185771e+04	4.554278e+03	2.417985e+03	0	5.953977e-04
1.220000e+09	7.924353e+12	0.000000e+00	6.732026e-01	5.039596e+14	7.438973e+14	1.714715e+14	1.184672e+04	4.552022e+03	2.416787e+03	0	5.886385e-04
1.230000e+09	7.650949e+12	0.000000e+00	6.732026e-01	5.012606e+14	7.401397e+14	1.707432e+14	1.183579e+04	4.549777e+03	2.415595e+03	0	5.817894e-04
1.240000e+09	7.380234e+12	0.000000e+00	6.732026e-01	4.985863e+14	7.364150e+14	1.700197e+14	1.182491e+04	4.547543e+03	2.414409e+03	0	5.748450e-04
1.250000e+09	7.112171e+12	0.000000e+00	6.732026e-01	4.959364e+14	7.327228e+14	1.693009e+14	1.181409e+04	4.545319e+03	2.413229e+03	0	5.677992e-04
1.260000e+09	6.846724e+12	0.000000e+00	6.732026e-01	4.933106e+14	7.290625e+14	1.685869e+14	1.180333e+04	4.543106e+03	2.412054e+03	0	5.606455e-04
1.270000e+09	6.583861e+12	0.000000e+00	6.732026e-01	4.907086e+14	7.254340e+14	1.678776e+14	1.179263e+04	4.540903e+03	2.410884e+03	0	5.533768e-04
1.280000e+09	6.323545e+12	0.000000e+00	6.732026e-01	4.881300e+14	7.218366e+14	1.671730e+14	1.178198e+04	4.538710e+03	2.409720e+03	0	5.459853e-04
1.290000e+09	6.065746e+12	0.000000e+00	6.732026e-01	4.855746e+14	7.182701e+14	1.664730e+14	1.177139e+04	4.536528e+03	2.408561e+03	0	5.384625e-04
1.300000e+09	5.810428e+12	0.000000e+00	6.732026e-01	4.830421e+14	7.147340e+14	1.657776e+14	1.176085e+04	4.534356e+03	2.407408e+03	0	5.307990e-04
1.310000e+09	5.557561e+12	0.000000e+00	6.732026e-01	4.805322e+14	7.112280e+14	1.650867e+14	1.175037e+04	4.532193e+03	2.406260e+03	0	5.229845e-04
1.320000e+09	5.307113e+12	0.000000e+00	6.732026e-01	4.780447e+14	7.077517e+14	1.644004e+14	1.173995e+04	4.530041e+03	2.405117e+03	0	5.150074e-04
1.330000e+09	5.059052e+12	0.000000e+00	6.732026e-01	4.755791e+14	7.043048e+14	1.637186e+14	1.172957e+04	4.527898e+03	2.403979e+03	0	5.068551e-04
1.340000e+09	4.813348e+12	0.000000e+00	6.732026e-01	4.731353e+14	7.008868e+14	1.630412e+14	1.171925e+04	4.525765e+03	2.402847e+03	0	4.985130e-04
1.350000e+09	4.569970e+12	0.000000e+00	6.732026e-01	4.707130e+14	6.974974e+14	1.623682e+14	1.170899e+04	4.523642e+03	2.401719e+03	0	4.899652e-04
1.360000e+09	4.328890e+12	0.000000e+00	6.732026e-01	4.683119e+14	6.941363e+14	1.616997e+14	1.169877e+04	4.521528e+03	2.400597e+03	0	4.811933e-04
