#t		Qconv[W]	Ri[Rp]		R*[Rp]		Qc[W]		Qm[W]		Qr[W]		Tcmb[K]		Tl[K]		Tup[K]		RiFlag		Bs[T]
0.000000e+00	8.836462e+13	0.000000e+00	6.732027e-01	1.314663e+15	2.080510e+15	3.259526e+14	1.430834e+04	5.205637e+03	2.737670e+03	0	1.313560e-03
1.000000e+07	8.675830e+13	0.000000e+00	6.732027e-01	1.300351e+15	2.040439e+15	3.241466e+14	1.428171e+04	5.192094e+03	2.730548e+03	0	1.305552e-03
2.000000e+07	8.519452e+13	0.000000e+00	6.732027e-01	1.286402e+15	2.002825e+15	3.223541e+14	1.425536e+04	5.179279e+03	2.723809e+03	0	1.297661e-03
3.000000e+07	8.367098e+13	0.000000e+00	6.732027e-01	1.272795e+15	1.967428e+15	3.205750e+14	1.422931e+04	5.167132e+03	2.717420e+03	0	1.289879e-03
4.000000e+07	8.218554e+13	0.000000e+00	6.732027e-01	1.259513e+15	1.934039e+15	3.188092e+14	1.420352e+04	5.155595e+03	2.711353e+03	0	1.282200e-03
5.000000e+07	8.073627e+13	0.000000e+00	6.732027e-01	1.246539e+15	1.902471e+15	3.170565e+14	1.417800e+04	5.144618e+03	2.705580e+03	0	1.274618e-03
6.000000e+07	7.932140e+13	0.000000e+00	6.732027e-01	1.233860e+15	1.872562e+15	3.153169e+14	1.415275e+04	5.134155e+03	2.700077e+03	0	1.267129e-03
7.000000e+07	7.793927e+13	0.000000e+00	6.732027e-01	1.221460e+15	1.844165e+15	3.135903e+14	1.412775e+04	5.124165e+03	2.694824e+03	0	1.259726e-03
8.000000e+07	7.658837e+13	0.000000e+00	6.732027e-01	1.209327e+15	1.817153e+15	3.118765e+14	1.410300e+04	5.114611e+03	2.689799e+03	0	1.252405e-03
9.000000e+07	7.526732e+13	0.000000e+00	6.732027e-01	1.197451e+15	1.791408e+15	3.101754e+14	1.407850e+04	5.105461e+03	2.684987e+03	0	1.245163e-03
1.000000e+08	7.397480e+13	0.000000e+00	6.732027e-01	1.185819e+15	1.766829e+15	3.084870e+14	1.405424e+04	5.096682e+03	2.680370e+03	0	1.237994e-03
1.100000e+08	7.270962e+13	0.000000e+00	6.732027e-01	1.174421e+15	1.743322e+15	3.068111e+14	1.403021e+04	5.088248e+03	2.675935e+03	0	1.230896e-03
1.200000e+08	7.147065e+13	0.000000e+00	6.732027e-01	1.163249e+15	1.720804e+15	3.051476e+14	1.400641e+04	5.080134e+03	2.671668e+03	0	1.223864e-03
1.300000e+08	7.025686e+13	0.000000e+00	6.732027e-01	1.152293e+15	1.699201e+15	3.034965e+14	1.398284e+04	5.072316e+03	2.667556e+03	0	1.216896e-03
1.400000e+08	6.906726e+13	0.000000e+00	6.732027e-01	1.141545e+15	1.678444e+15	3.018575e+14	1.395949e+04	5.064774e+03	2.663590e+03	0	1.209989e-03
1.500000e+08	6.790096e+13	0.000000e+00	6.732027e-01	1.130998e+15	1.658472e+15	3.002307e+14	1.393636e+04	5.057489e+03	2.659758e+03	0	1.203139e-03
1.600000e+08	6.675709e+13	0.000000e+00	6.732027e-01	1.120644e+15	1.639231e+15	2.986159e+14	1.391344e+04	5.050443e+03	2.656053e+03	0	1.196345e-03
1.700000e+08	6.563485e+13	0.000000e+00	6.732027e-01	1.110477e+15	1.620669e+15	2.970130e+14	1.389073e+04	5.043619e+03	2.652464e+03	0	1.189603e-03
1.800000e+08	6.453350e+13	0.000000e+00	6.732027e-01	1.100490e+15	1.602741e+15	2.954219e+14	1.386822e+04	5.037005e+03	2.648986e+03	0	1.182912e-03
1.900000e+08	6.345232e+13	0.000000e+00	6.732027e-01	1.090678e+15	1.585405e+15	2.938426e+14	1.384592e+04	5.030585e+03	2.645609e+03	0	1.176268e-03
2.000000e+08	6.239065e+13	0.000000e+00	6.732027e-01	1.081034e+15	1.568624e+15	2.922748e+14	1.382381e+04	5.024347e+03	2.642329e+03	0	1.169671e-03
2.100000e+08	6.134785e+13	0.000000e+00	6.732027e-01	1.071553e+15	1.552361e+15	2.907186e+14	1.380190e+04	5.018281e+03	2.639139e+03	0	1.163118e-03
2.200000e+08	6.032334e+13	0.000000e+00	6.732027e-01	1.062231e+15	1.536585e+15	2.891738e+14	1.378018e+04	5.012375e+03	2.636033e+03	0	1.156607e-03
2.300000e+08	5.931654e+13	0.000000e+00	6.732027e-01	1.053062e+15	1.521268e+15	2.876404e+14	1.375865e+04	5.006620e+03	2.633006e+03	0	1.150136e-03
2.400000e+08	5.832693e+13	0.000000e+00	6.732027e-01	1.044042e+15	1.506382e+15	2.861182e+14	1.373731e+04	5.001007e+03	2.630054e+03	0	1.143704e-03
2.500000e+08	5.735399e+13	0.000000e+00	6.732027e-01	1.035167e+15	1.491902e+15	2.846072e+14	1.371615e+04	4.995527e+03	2.627172e+03	0	1.137309e-03
2.600000e+08	5.639724e+13	0.000000e+00	6.732027e-01	1.026433e+15	1.477805e+15	2.831072e+14	1.369516e+04	4.990173e+03	2.624357e+03	0	1.130950e-03
2.700000e+08	5.545623e+13	0.000000e+00	6.732027e-01	1.017835e+15	1.464072e+15	2.816181e+14	1.367435e+04	4.984938e+03	2.621604e+03	0	1.124624e-03
2.800000e+08	5.453051e+13	0.000000e+00	6.732027e-01	1.009370e+15	1.450682e+15	2.801400e+14	1.365372e+04	4.979815e+03	2.618909e+03	0	1.118331e-03
2.900000e+08	5.361968e+13	0.000000e+00	6.732027e-01	1.001035e+15	1.437617e+15	2.786726e+14	1.363326e+04	4.974798e+03	2.616271e+03	0	1.112070e-03
3.000000e+08	5.272333e+13	0.000000e+00	6.732027e-01	9.928258e+14	1.424861e+15	2.772160e+14	1.361297e+04	4.969881e+03	2.613685e+03	0	1.105838e-03
3.100000e+08	5.184108e+13	0.000000e+00	6.732027e-01	9.847395e+14	1.412399e+15	2.757699e+14	1.359284e+04	4.965059e+03	2.611149e+03	0	1.099635e-03
3.200000e+08	5.097257e+13	0.000000e+00	6.732027e-01	9.767730e+14	1.400216e+15	2.743344e+14	1.357288e+04	4.960328e+03	2.608661e+03	0	1.093460e-03
3.300000e+08	5.011745e+13	0.000000e+00	6.732027e-01	9.689233e+14	1.388299e+15	2.729093e+14	1.355307e+04	4.955682e+03	2.606217e+03	0	1.087311e-03
3.400000e+08	4.927539e+13	0.000000e+00	6.732027e-01	9.611876e+14	1.376635e+15	2.714946e+14	1.353343e+04	4.951117e+03	2.603817e+03	0	1.081187e-03
3.500000e+08	4.844606e+13	0.000000e+00	6.732027e-01	9.535631e+14	1.365214e+15	2.700901e+14	1.351394e+04	4.946629e+03	2.601457e+03	0	1.075087e-03
3.600000e+08	4.762917e+13	0.000000e+00	6.732027e-01	9.460472e+14	1.354024e+15	2.686958e+14	1.349461e+04	4.942215e+03	2.599136e+03	0	1.069010e-03
3.700000e+08	4.682441e+13	0.000000e+00	6.732027e-01	9.386374e+14	1.343055e+15	2.673116e+14	1.347543e+04	4.937872e+03	2.596851e+03	0	1.062955e-03
3.800000e+08	4.603151e+13	0.000000e+00	6.732027e-01	9.313313e+14	1.332299e+15	2.659374e+14	1.345640e+04	4.933595e+03	2.594602e+03	0	1.056921e-03
3.900000e+08	4.525018e+13	0.000000e+00	6.732027e-01	9.241265e+14	1.321746e+15	2.645732e+14	1.343751e+04	4.929382e+03	2.592386e+03	0	1.050906e-03
4.000000e+08	4.448016e+13	0.000000e+00	6.732027e-01	9.170208e+14	1.311388e+15	2.632188e+14	1.341877e+04	4.925230e+03	2.590203e+03	0	1.044911e-03
4.100000e+08	4.372121e+13	0.000000e+00	6.732027e-01	9.100121e+14	1.301218e+15	2.618741e+14	1.340018e+04	4.921137e+03	2.588050e+03	0	1.038934e-03
4.200000e+08	4.297307e+13	0.000000e+00	6.732027e-01	9.030981e+14	1.291228e+15	2.605392e+14	1.338173e+04	4.917099e+03	2.585927e+03	0	1.032974e-03
4.300000e+08	4.223551e+13	0.000000e+00	6.732027e-01	8.962770e+14	1.281412e+15	2.592139e+14	1.336341e+04	4.913116e+03	2.583832e+03	0	1.027030e-03
4.400000e+08	4.150831e+13	0.000000e+00	6.732027e-01	8.895467e+14	1.271763e+15	2.578981e+14	1.334524e+04	4.909183e+03	2.581764e+03	0	1.021102e-03
4.500000e+08	4.079124e+13	0.000000e+00	6.732027e-01	8.829054e+14	1.262275e+15	2.565918e+14	1.332720e+04	4.905300e+03	2.579722e+03	0	1.015187e-03
4.600000e+08	4.008408e+13	0.000000e+00	6.732027e-01	8.763512e+14	1.252942e+15	2.552948e+14	1.330930e+04	4.901464e+03	2.577704e+03	0	1.009287e-03
4.700000e+08	3.938664e+13	0.000000e+00	6.732027e-01	8.698823e+14	1.243760e+15	2.540072e+14	1.329152e+04	4.897674e+03	2.575711e+03	0	1.003399e-03
4.800000e+08	3.869871e+13	0.000000e+00	6.732027e-01	8.634972e+14	1.234723e+15	2.527287e+14	1.327388e+04	4.893928e+03	2.573741e+03	0	9.975226e-04
4.900000e+08	3.802009e+13	0.000000e+00	6.732027e-01	8.571940e+14	1.225827e+15	2.514595e+14	1.325637e+04	4.890224e+03	2.571793e+03	0	9.916574e-04
5.000000e+08	3.735061e+13	0.000000e+00	6.732027e-01	8.509711e+14	1.217066e+15	2.501993e+14	1.323899e+04	4.886561e+03	2.569867e+03	0	9.858023e-04
5.100000e+08	3.669008e+13	0.000000e+00	6.732027e-01	8.448271e+14	1.208438e+15	2.489481e+14	1.322173e+04	4.882938e+03	2.567961e+03	0	9.799566e-04
5.200000e+08	3.603832e+13	0.000000e+00	6.732027e-01	8.387604e+14	1.199937e+15	2.477058e+14	1.320460e+04	4.879352e+03	2.566075e+03	0	9.741193e-04
5.300000e+08	3.539517e+13	0.000000e+00	6.732027e-01	8.327695e+14	1.191560e+15	2.464724e+14	1.318758e+04	4.875803e+03	2.564209e+03	0	9.682896e-04
5.400000e+08	3.476045e+13	0.000000e+00	6.732027e-01	8.268531e+14	1.183303e+15	2.452478e+14	1.317069e+04	4.872290e+03	2.562361e+03	0	9.624667e-04
5.500000e+08	3.413401e+13	0.000000e+00	6.732027e-01	8.210096e+14	1.175163e+15	2.440319e+14	1.315392e+04	4.868810e+03	2.560532e+03	0	9.566499e-04
5.600000e+08	3.351568e+13	0.000000e+00	6.732027e-01	8.152377e+14	1.167136e+15	2.428246e+14	1.313727e+04	4.865365e+03	2.558719e+03	0	9.508382e-04
5.700000e+08	3.290532e+13	0.000000e+00	6.732027e-01	8.095363e+14	1.159220e+15	2.416259e+14	1.312074e+04	4.861951e+03	2.556924e+03	0	9.450308e-04
5.800000e+08	3.230277e+13	0.000000e+00	6.732027e-01	8.039038e+14	1.151411e+15	2.404357e+14	1.310432e+04	4.858569e+03	2.555145e+03	0	9.392269e-04
5.900000e+08	3.170790e+13	0.000000e+00	6.732027e-01	7.983392e+14	1.143707e+15	2.392540e+14	1.308801e+04	4.855217e+03	2.553383e+03	0	9.334257e-04
6.000000e+08	3.112056e+13	0.000000e+00	6.732027e-01	7.928412e+14	1.136105e+15	2.380806e+14	1.307182e+04	4.851895e+03	2.551635e+03	0	9.276263e-04
6.100000e+08	3.054061e+13	0.000000e+00	6.732027e-01	7.874086e+14	1.128602e+15	2.369155e+14	1.305574e+04	4.848601e+03	2.549903e+03	0	9.218279e-04
6.200000e+08	2.996793e+13	0.000000e+00	6.732027e-01	7.820403e+14	1.121196e+15	2.357587e+14	1.303976e+04	4.845335e+03	2.548186e+03	0	9.160296e-04
6.300000e+08	2.940238e+13	0.000000e+00	6.732027e-01	7.767351e+14	1.113884e+15	2.346100e+14	1.302390e+04	4.842097e+03	2.546483e+03	0	9.102306e-04
6.400000e+08	2.884384e+13	0.000000e+00	6.732027e-01	7.714920e+14	1.106664e+15	2.334694e+14	1.300815e+04	4.838885e+03	2.544793e+03	0	9.044300e-04
6.500000e+08	2.829217e+13	0.000000e+00	6.732027e-01	7.663099e+14	1.099535e+15	2.323368e+14	1.299250e+04	4.835699e+03	2.543118e+03	0	8.986268e-04
6.600000e+08	2.774727e+13	0.000000e+00	6.732027e-01	7.611878e+14	1.092493e+15	2.312123e+14	1.297695e+04	4.832537e+03	2.541455e+03	0	8.928203e-04
6.700000e+08	2.720902e+13	0.000000e+00	6.732027e-01	7.561246e+14	1.085537e+15	2.300956e+14	1.296151e+04	4.829401e+03	2.539806e+03	0	8.870094e-04
6.800000e+08	2.667730e+13	0.000000e+00	6.732027e-01	7.511193e+14	1.078665e+15	2.289868e+14	1.294617e+04	4.826288e+03	2.538169e+03	0	8.811933e-04
6.900000e+08	2.615199e+13	0.000000e+00	6.732027e-01	7.461710e+14	1.071876e+15	2.278857e+14	1.293093e+04	4.823198e+03	2.536544e+03	0	8.753711e-04
7.000000e+08	2.563300e+13	0.000000e+00	6.732027e-01	7.412788e+14	1.065166e+15	2.267924e+14	1.291580e+04	4.820132e+03	2.534931e+03	0	8.695417e-04
7.100000e+08	2.512021e+13	0.000000e+00	6.732027e-01	7.364416e+14	1.058536e+15	2.257067e+14	1.290076e+04	4.817088e+03	2.533330e+03	0	8.637041e-04
7.200000e+08	2.461351e+13	0.000000e+00	6.732027e-01	7.316587e+14	1.051982e+15	2.246286e+14	1.288582e+04	4.814065e+03	2.531741e+03	0	8.578575e-04
7.300000e+08	2.411282e+13	0.000000e+00	6.732027e-01	7.269291e+14	1.045504e+15	2.235581e+14	1.287097e+04	4.811064e+03	2.530163e+03	0	8.520007e-04
7.400000e+08	2.361803e+13	0.000000e+00	6.732027e-01	7.222520e+14	1.039100e+15	2.224950e+14	1.285623e+04	4.808084e+03	2.528595e+03	0	8.461327e-04
7.500000e+08	2.312904e+13	0.000000e+00	6.732027e-01	7.176265e+14	1.032768e+15	2.214393e+14	1.284157e+04	4.805125e+03	2.527039e+03	0	8.402524e-04
7.600000e+08	2.264575e+13	0.000000e+00	6.732027e-01	7.130518e+14	1.026507e+15	2.203910e+14	1.282701e+04	4.802185e+03	2.525493e+03	0	8.343588e-04
7.700000e+08	2.216808e+13	0.000000e+00	6.732027e-01	7.085272e+14	1.020316e+15	2.193500e+14	1.281255e+04	4.799265e+03	2.523957e+03	0	8.284506e-04
7.800000e+08	2.169593e+13	0.000000e+00	6.732027e-01	7.040517e+14	1.014193e+15	2.183162e+14	1.279817e+04	4.796365e+03	2.522432e+03	0	8.225268e-04
7.900000e+08	2.122922e+13	0.000000e+00	6.732027e-01	6.996247e+14	1.008137e+15	2.172896e+14	1.278389e+04	4.793483e+03	2.520916e+03	0	8.165861e-04
8.000000e+08	2.076786e+13	0.000000e+00	6.732027e-01	6.952454e+14	1.002147e+15	2.162701e+14	1.276969e+04	4.790620e+03	2.519411e+03	0	8.106272e-04
8.100000e+08	2.031176e+13	0.000000e+00	6.732027e-01	6.909130e+14	9.962219e+14	2.152577e+14	1.275559e+04	4.787775e+03	2.517915e+03	0	8.046490e-04
8.200000e+08	1.986084e+13	0.000000e+00	6.732027e-01	6.866269e+14	9.903598e+14	2.142523e+14	1.274157e+04	4.784948e+03	2.516428e+03	0	7.986500e-04
8.300000e+08	1.941502e+13	0.000000e+00	6.732027e-01	6.823863e+14	9.845599e+14	2.132538e+14	1.272763e+04	4.782139e+03	2.514951e+03	0	7.926289e-04
8.400000e+08	1.897423e+13	0.000000e+00	6.732027e-01	6.781905e+14	9.788212e+14	2.122622e+14	1.271379e+04	4.779347e+03	2.513482e+03	0	7.865843e-04
8.500000e+08	1.853837e+13	0.000000e+00	6.732027e-01	6.740389e+14	9.731426e+14	2.112775e+14	1.270003e+04	4.776573e+03	2.512023e+03	0	7.805147e-04
8.600000e+08	1.810738e+13	0.000000e+00	6.732027e-01	6.699308e+14	9.675231e+14	2.102996e+14	1.268635e+04	4.773815e+03	2.510573e+03	0	7.744186e-04
8.700000e+08	1.768118e+13	0.000000e+00	6.732027e-01	6.658655e+14	9.619616e+14	2.093284e+14	1.267276e+04	4.771073e+03	2.509131e+03	0	7.682944e-04
8.800000e+08	1.725970e+13	0.000000e+00	6.732027e-01	6.618424e+14	9.564572e+14	2.083639e+14	1.265925e+04	4.768348e+03	2.507698e+03	0	7.621404e-04
8.900000e+08	1.684286e+13	0.000000e+00	6.732027e-01	6.578609e+14	9.510090e+14	2.074060e+14	1.264582e+04	4.765638e+03	2.506273e+03	0	7.559549e-04
9.000000e+08	1.643060e+13	0.000000e+00	6.732027e-01	6.539204e+14	9.456159e+14	2.064546e+14	1.263247e+04	4.762944e+03	2.504856e+03	0	7.497361e-04
9.100000e+08	1.602285e+13	0.000000e+00	6.732027e-01	6.500202e+14	9.402772e+14	2.055098e+14	1.261920e+04	4.760266e+03	2.503448e+03	0	7.434821e-04
9.200000e+08	1.561954e+13	0.000000e+00	6.732027e-01	6.461598e+14	9.349918e+14	2.045715e+14	1.260601e+04	4.757603e+03	2.502047e+03	0	7.371909e-04
9.300000e+08	1.522060e+13	0.000000e+00	6.732027e-01	6.423386e+14	9.297591e+14	2.036396e+14	1.259289e+04	4.754956e+03	2.500655e+03	0	7.308605e-04
9.400000e+08	1.482596e+13	0.000000e+00	6.732027e-01	6.385560e+14	9.245781e+14	2.027140e+14	1.257986e+04	4.752323e+03	2.499270e+03	0	7.244887e-04
9.500000e+08	1.443558e+13	0.000000e+00	6.732027e-01	6.348115e+14	9.194481e+14	2.017948e+14	1.256690e+04	4.749704e+03	2.497893e+03	0	7.180731e-04
9.600000e+08	1.404938e+13	0.000000e+00	6.732027e-01	6.311046e+14	9.143682e+14	2.008819e+14	1.255402e+04	4.747100e+03	2.496523e+03	0	7.116115e-04
9.700000e+08	1.366730e+13	0.000000e+00	6.732027e-01	6.274346e+14	9.093377e+14	1.999751e+14	1.254121e+04	4.744510e+03	2.495161e+03	0	7.051012e-04
9.800000e+08	1.328928e+13	0.000000e+00	6.732027e-01	6.238012e+14	9.043559e+14	1.990746e+14	1.252848e+04	4.741935e+03	2.493807e+03	0	6.985396e-04
9.900000e+08	1.291526e+13	0.000000e+00	6.732027e-01	6.202036e+14	8.994219e+14	1.981801e+14	1.251582e+04	4.739373e+03	2.492460e+03	0	6.919239e-04
1.000000e+09	1.254519e+13	0.000000e+00	6.732027e-01	6.166416e+14	8.945352e+14	1.972917e+14	1.250323e+04	4.736825e+03	2.491120e+03	0	6.852510e-04
1.010000e+09	1.217901e+13	0.000000e+00	6.732027e-01	6.131145e+14	8.896949e+14	1.964094e+14	1.249072e+04	4.734290e+03	2.489787e+03	0	6.785177e-04
1.020000e+09	1.181666e+13	0.000000e+00	6.732027e-01	6.096219e+14	8.849005e+14	1.955330e+14	1.247827e+04	4.731769e+03	2.488461e+03	0	6.717208e-04
1.030000e+09	1.145808e+13	0.000000e+00	6.732027e-01	6.061632e+14	8.801512e+14	1.946626e+14	1.246590e+04	4.729261e+03	2.487142e+03	0	6.648565e-04
1.040000e+09	1.110324e+13	0.000000e+00	6.732027e-01	6.027381e+14	8.754464e+14	1.937980e+14	1.245360e+04	4.726765e+03	2.485829e+03	0	6.579211e-04
1.050000e+09	1.075207e+13	0.000000e+00	6.732027e-01	5.993461e+14	8.707854e+14	1.929393e+14	1.244137e+04	4.724283e+03	2.484524e+03	0	6.509104e-04
1.060000e+09	1.040451e+13	0.000000e+00	6.732027e-01	5.959867e+14	8.661677e+14	1.920863e+14	1.242920e+04	4.721814e+03	2.483225e+03	0	6.438201e-04
1.070000e+09	1.006053e+13	0.000000e+00	6.732027e-01	5.926595e+14	8.615926e+14	1.912392e+14	1.241711e+04	4.719357e+03	2.481933e+03	0	6.366453e-04
1.080000e+09	9.720070e+12	0.000000e+00	6.732027e-01	5.893640e+14	8.570596e+14	1.903977e+14	1.240508e+04	4.716912e+03	2.480647e+03	0	6.293811e-04
1.090000e+09	9.383080e+12	0.000000e+00	6.732027e-01	5.860998e+14	8.525680e+14	1.895618e+14	1.239312e+04	4.714480e+03	2.479368e+03	0	6.220220e-04
1.100000e+09	9.049514e+12	0.000000e+00	6.732027e-01	5.828665e+14	8.481173e+14	1.887316e+14	1.238122e+04	4.712059e+03	2.478095e+03	0	6.145620e-04
1.110000e+09	8.719326e+12	0.000000e+00	6.732027e-01	5.796637e+14	8.437069e+14	1.879070e+14	1.236939e+04	4.709651e+03	2.476829e+03	0	6.069947e-04
1.120000e+09	8.392467e+12	0.000000e+00	6.732027e-01	5.764909e+14	8.393363e+14	1.870878e+14	1.235762e+04	4.707255e+03	2.475569e+03	0	5.993132e-04
1.130000e+09	8.068895e+12	0.000000e+00	6.732027e-01	5.733478e+14	8.350049e+14	1.862742e+14	1.234592e+04	4.704870e+03	2.474315e+03	0	5.915098e-04
1.140000e+09	7.748562e+12	0.000000e+00	6.732027e-01	5.702340e+14	8.307123e+14	1.854660e+14	1.233429e+04	4.702497e+03	2.473067e+03	0	5.835763e-04
1.150000e+09	7.431427e+12	0.000000e+00	6.732027e-01	5.671492e+14	8.264578e+14	1.846632e+14	1.232271e+04	4.700136e+03	2.471825e+03	0	5.755035e-04
1.160000e+09	7.117445e+12	0.000000e+00	6.732027e-01	5.640928e+14	8.222410e+14	1.838657e+14	1.231120e+04	4.697786e+03	2.470589e+03	0	5.672815e-04
1.170000e+09	6.806575e+12	0.000000e+00	6.732027e-01	5.610645e+14	8.180615e+14	1.830736e+14	1.229975e+04	4.695447e+03	2.469359e+03	0	5.588992e-04
1.180000e+09	6.498774e+12	0.000000e+00	6.732027e-01	5.580641e+14	8.139186e+14	1.822867e+14	1.228836e+04	4.693119e+03	2.468135e+03	0	5.503442e-04
1.190000e+09	6.194003e+12	0.000000e+00	6.732027e-01	5.550911e+14	8.098120e+14	1.815051e+14	1.227703e+04	4.690803e+03	2.466916e+03	0	5.416030e-04
1.200000e+09	5.892220e+12	0.000000e+00	6.732027e-01	5.521451e+14	8.057411e+14	1.807287e+14	1.226577e+04	4.688497e+03	2.465704e+03	0	5.326602e-04
1.210000e+09	5.593387e+12	0.000000e+00	6.732027e-01	5.492258e+14	8.017056e+14	1.799574e+14	1.225456e+04	4.686202e+03	2.464497e+03	0	5.234986e-04
1.220000e+09	5.297464e+12	0.000000e+00	6.732027e-01	5.463330e+14	7.977049e+14	1.791912e+14	1.224341e+04	4.683918e+03	2.463295e+03	0	5.140988e-04
1.230000e+09	5.004413e+12	0.000000e+00	6.732027e-01	5.434662e+14	7.937387e+14	1.784300e+14	1.223232e+04	4.681644e+03	2.462100e+03	0	5.044386e-04
1.240000e+09	4.714198e+12	0.000000e+00	6.732027e-01	5.406250e+14	7.898064e+14	1.776740e+14	1.222129e+04	4.679381e+03	2.460910e+03	0	4.944927e-04
1.250000e+09	4.426780e+12	0.000000e+00	6.732027e-01	5.378093e+14	7.859077e+14	1.769229e+14	1.221031e+04	4.677128e+03	2.459725e+03	0	4.842317e-04
1.260000e+09	4.142124e+12	0.000000e+00	6.732027e-01	5.350187e+14	7.820422e+14	1.761767e+14	1.219940e+04	4.674886e+03	2.458546e+03	0	4.736217e-04
1.270000e+09	3.860194e+12	0.000000e+00	6.732027e-01	5.322528e+14	7.782094e+14	1.754355e+14	1.218854e+04	4.672654e+03	2.457372e+03	0	4.626227e-04
1.280000e+09	3.580955e+12	0.000000e+00	6.732027e-01	5.295113e+14	7.744089e+14	1.746991e+14	1.217773e+04	4.670431e+03	2.456203e+03	0	4.511873e-04
1.290000e+09	3.304372e+12	0.000000e+00	6.732027e-01	5.267940e+14	7.706404e+14	1.739676e+14	1.216698e+04	4.668219e+03	2.455040e+03	0	4.392586e-04
1.300000e+09	3.030412e+12	0.000000e+00	6.732027e-01	5.241005e+14	7.669034e+14	1.732409e+14	1.215629e+04	4.666017e+03	2.453882e+03	0	4.267673e-04
1.310000e+09	2.759041e+12	0.000000e+00	6.732027e-01	5.214306e+14	7.631975e+14	1.725189e+14	1.214565e+04	4.663825e+03	2.452729e+03	0	4.136280e-04
1.320000e+09	2.490226e+12	0.000000e+00	6.732027e-01	5.187839e+14	7.595225e+14	1.718017e+14	1.213506e+04	4.661642e+03	2.451581e+03	0	3.997332e-04
1.330000e+09	2.223935e+12	0.000000e+00	6.732027e-01	5.161602e+14	7.558779e+14	1.710892e+14	1.212453e+04	4.659470e+03	2.450438e+03	0	3.849444e-04
1.340000e+09	1.960137e+12	0.000000e+00	6.732027e-01	5.135592e+14	7.522633e+14	1.703813e+14	1.211405e+04	4.657306e+03	2.449300e+03	0	3.690791e-04
1.350000e+09	1.698799e+12	0.000000e+00	6.732027e-01	5.109806e+14	7.486785e+14	1.696781e+14	1.210363e+04	4.655153e+03	2.448168e+03	0	3.518881e-04
1.360000e+09	1.439892e+12	0.000000e+00	6.732027e-01	5.084242e+14	7.451230e+14	1.689794e+14	1.209325e+04	4.653008e+03	2.447040e+03	0	3.330176e-04
