#t		Qconv[W]	Ri[Rp]		R*[Rp]		Qc[W]		Qm[W]		Qr[W]		Tcmb[K]		Tl[K]		Tup[K]		RiFlag		Bs[T]
0.000000e+00	4.016765e+15	0.000000e+00	6.754967e-01	3.239546e+16	3.950420e+15	4.572851e+14	3.417502e+04	8.190934e+03	2.931518e+03	0	4.645462e-03
1.000000e+07	3.935965e+15	0.000000e+00	6.754967e-01	3.177663e+16	6.834139e+15	4.547514e+14	3.381499e+04	8.924146e+03	3.193933e+03	0	4.614102e-03
2.000000e+07	3.835523e+15	0.000000e+00	6.754967e-01	3.101681e+16	1.024485e+16	4.522366e+14	3.346174e+04	9.555598e+03	3.419928e+03	0	4.574514e-03
3.000000e+07	3.721717e+15	0.000000e+00	6.754967e-01	3.016145e+16	1.373187e+16	4.497407e+14	3.311684e+04	1.007328e+04	3.605204e+03	0	4.528815e-03
4.000000e+07	3.600754e+15	0.000000e+00	6.754967e-01	2.925542e+16	1.688864e+16	4.472633e+14	3.278135e+04	1.047826e+04	3.750148e+03	0	4.479208e-03
5.000000e+07	3.477624e+15	0.000000e+00	6.754967e-01	2.833475e+16	1.946857e+16	4.448045e+14	3.245583e+04	1.078176e+04	3.858770e+03	0	4.427558e-03
6.000000e+07	3.355739e+15	0.000000e+00	6.754967e-01	2.742409e+16	2.139468e+16	4.423640e+14	3.214046e+04	1.100023e+04	3.936959e+03	0	4.375216e-03
7.000000e+07	3.237138e+15	0.000000e+00	6.754967e-01	2.653812e+16	2.270785e+16	4.399417e+14	3.183512e+04	1.115112e+04	3.990963e+03	0	4.323053e-03
8.000000e+07	3.122885e+15	0.000000e+00	6.754967e-01	2.568447e+16	2.350629e+16	4.375373e+14	3.153956e+04	1.125030e+04	4.026458e+03	0	4.271582e-03
9.000000e+07	3.013432e+15	0.000000e+00	6.754967e-01	2.486640e+16	2.390212e+16	4.351509e+14	3.125342e+04	1.131093e+04	4.048156e+03	0	4.221083e-03
1.000000e+08	2.908883e+15	0.000000e+00	6.754967e-01	2.408459e+16	2.399813e+16	4.327822e+14	3.097630e+04	1.134333e+04	4.059755e+03	0	4.171691e-03
1.100000e+08	2.809154e+15	0.000000e+00	6.754967e-01	2.333843e+16	2.387901e+16	4.304310e+14	3.070782e+04	1.135535e+04	4.064057e+03	0	4.123462e-03
1.200000e+08	2.714072e+15	0.000000e+00	6.754967e-01	2.262659e+16	2.361031e+16	4.280973e+14	3.044759e+04	1.135278e+04	4.063135e+03	0	4.076404e-03
1.300000e+08	2.623418e+15	0.000000e+00	6.754967e-01	2.194748e+16	2.324086e+16	4.257808e+14	3.019522e+04	1.133984e+04	4.058505e+03	0	4.030503e-03
1.400000e+08	2.536962e+15	0.000000e+00	6.754967e-01	2.129940e+16	2.280616e+16	4.234815e+14	2.995036e+04	1.131962e+04	4.051267e+03	0	3.985732e-03
1.500000e+08	2.454474e+15	0.000000e+00	6.754967e-01	2.068066e+16	2.233158e+16	4.211992e+14	2.971266e+04	1.129431e+04	4.042211e+03	0	3.942057e-03
1.600000e+08	2.375729e+15	0.000000e+00	6.754967e-01	2.008960e+16	2.183501e+16	4.189338e+14	2.948182e+04	1.126553e+04	4.031909e+03	0	3.899442e-03
1.700000e+08	2.300516e+15	0.000000e+00	6.754967e-01	1.952467e+16	2.132893e+16	4.166851e+14	2.925752e+04	1.123441e+04	4.020771e+03	0	3.857849e-03
1.800000e+08	2.228633e+15	0.000000e+00	6.754967e-01	1.898438e+16	2.082196e+16	4.144529e+14	2.903947e+04	1.120178e+04	4.009094e+03	0	3.817241e-03
1.900000e+08	2.159890e+15	0.000000e+00	6.754967e-01	1.846734e+16	2.031995e+16	4.122372e+14	2.882740e+04	1.116824e+04	3.997091e+03	0	3.777583e-03
2.000000e+08	2.094111e+15	0.000000e+00	6.754967e-01	1.797224e+16	1.982684e+16	4.100378e+14	2.862107e+04	1.113422e+04	3.984914e+03	0	3.738838e-03
2.100000e+08	2.031130e+15	0.000000e+00	6.754967e-01	1.749788e+16	1.934517e+16	4.078546e+14	2.842023e+04	1.110002e+04	3.972675e+03	0	3.700974e-03
2.200000e+08	1.970792e+15	0.000000e+00	6.754967e-01	1.704311e+16	1.887653e+16	4.056874e+14	2.822464e+04	1.106587e+04	3.960452e+03	0	3.663957e-03
2.300000e+08	1.912951e+15	0.000000e+00	6.754967e-01	1.660685e+16	1.842183e+16	4.035361e+14	2.803410e+04	1.103193e+04	3.948303e+03	0	3.627756e-03
2.400000e+08	1.857473e+15	0.000000e+00	6.754967e-01	1.618812e+16	1.798151e+16	4.014006e+14	2.784840e+04	1.099830e+04	3.936267e+03	0	3.592342e-03
2.500000e+08	1.804231e+15	0.000000e+00	6.754967e-01	1.578598e+16	1.755569e+16	3.992807e+14	2.766734e+04	1.096506e+04	3.924373e+03	0	3.557685e-03
2.600000e+08	1.753106e+15	0.000000e+00	6.754967e-01	1.539955e+16	1.714425e+16	3.971763e+14	2.749075e+04	1.093228e+04	3.912639e+03	0	3.523758e-03
2.700000e+08	1.703987e+15	0.000000e+00	6.754967e-01	1.502803e+16	1.674694e+16	3.950874e+14	2.731845e+04	1.089998e+04	3.901080e+03	0	3.490536e-03
2.800000e+08	1.656771e+15	0.000000e+00	6.754967e-01	1.467064e+16	1.636340e+16	3.930136e+14	2.715028e+04	1.086819e+04	3.889703e+03	0	3.457994e-03
2.900000e+08	1.611359e+15	0.000000e+00	6.754967e-01	1.432667e+16	1.599319e+16	3.909551e+14	2.698608e+04	1.083692e+04	3.878512e+03	0	3.426107e-03
3.000000e+08	1.567662e+15	0.000000e+00	6.754967e-01	1.399544e+16	1.563586e+16	3.889115e+14	2.682570e+04	1.080618e+04	3.867510e+03	0	3.394853e-03
3.100000e+08	1.525594e+15	0.000000e+00	6.754967e-01	1.367633e+16	1.529094e+16	3.868828e+14	2.666900e+04	1.077597e+04	3.856697e+03	0	3.364210e-03
3.200000e+08	1.485073e+15	0.000000e+00	6.754967e-01	1.336873e+16	1.495793e+16	3.848689e+14	2.651586e+04	1.074628e+04	3.846072e+03	0	3.334157e-03
3.300000e+08	1.446025e+15	0.000000e+00	6.754967e-01	1.307210e+16	1.463635e+16	3.828696e+14	2.636613e+04	1.071711e+04	3.835632e+03	0	3.304674e-03
3.400000e+08	1.408379e+15	0.000000e+00	6.754967e-01	1.278591e+16	1.432572e+16	3.808848e+14	2.621970e+04	1.068846e+04	3.825375e+03	0	3.275744e-03
3.500000e+08	1.372067e+15	0.000000e+00	6.754967e-01	1.250967e+16	1.402560e+16	3.789144e+14	2.607646e+04	1.066030e+04	3.815298e+03	0	3.247346e-03
3.600000e+08	1.337028e+15	0.000000e+00	6.754967e-01	1.224291e+16	1.373552e+16	3.769584e+14	2.593629e+04	1.063263e+04	3.805396e+03	0	3.219464e-03
3.700000e+08	1.303202e+15	0.000000e+00	6.754967e-01	1.198520e+16	1.345506e+16	3.750164e+14	2.579909e+04	1.060545e+04	3.795667e+03	0	3.192082e-03
3.800000e+08	1.270533e+15	0.000000e+00	6.754967e-01	1.173612e+16	1.318381e+16	3.730886e+14	2.566476e+04	1.057873e+04	3.786105e+03	0	3.165182e-03
3.900000e+08	1.238968e+15	0.000000e+00	6.754967e-01	1.149529e+16	1.292138e+16	3.711746e+14	2.553321e+04	1.055247e+04	3.776707e+03	0	3.138751e-03
4.000000e+08	1.208459e+15	0.000000e+00	6.754967e-01	1.126233e+16	1.266739e+16	3.692745e+14	2.540434e+04	1.052666e+04	3.767470e+03	0	3.112773e-03
4.100000e+08	1.178958e+15	0.000000e+00	6.754967e-01	1.103690e+16	1.242147e+16	3.673881e+14	2.527806e+04	1.050129e+04	3.758388e+03	0	3.087234e-03
4.200000e+08	1.150420e+15	0.000000e+00	6.754967e-01	1.081868e+16	1.218330e+16	3.655153e+14	2.515430e+04	1.047633e+04	3.749457e+03	0	3.062120e-03
4.300000e+08	1.122805e+15	0.000000e+00	6.754967e-01	1.060735e+16	1.195255e+16	3.636560e+14	2.503296e+04	1.045180e+04	3.740675e+03	0	3.037420e-03
4.400000e+08	1.096071e+15	0.000000e+00	6.754967e-01	1.040261e+16	1.172890e+16	3.618101e+14	2.491399e+04	1.042766e+04	3.732037e+03	0	3.013119e-03
4.500000e+08	1.070183e+15	0.000000e+00	6.754967e-01	1.020420e+16	1.151207e+16	3.599774e+14	2.479729e+04	1.040392e+04	3.723539e+03	0	2.989207e-03
4.600000e+08	1.045103e+15	0.000000e+00	6.754967e-01	1.001185e+16	1.130177e+16	3.581579e+14	2.468281e+04	1.038055e+04	3.715178e+03	0	2.965672e-03
4.700000e+08	1.020799e+15	0.000000e+00	6.754967e-01	9.825305e+15	1.109774e+16	3.563514e+14	2.457048e+04	1.035756e+04	3.706950e+03	0	2.942503e-03
4.800000e+08	9.972387e+14	0.000000e+00	6.754967e-01	9.644331e+15	1.089973e+16	3.545579e+14	2.446022e+04	1.033494e+04	3.698851e+03	0	2.919688e-03
4.900000e+08	9.743915e+14	0.000000e+00	6.754967e-01	9.468704e+15	1.070750e+16	3.527772e+14	2.435199e+04	1.031266e+04	3.690879e+03	0	2.897219e-03
5.000000e+08	9.522287e+14	0.000000e+00	6.754967e-01	9.298209e+15	1.052082e+16	3.510092e+14	2.424571e+04	1.029073e+04	3.683030e+03	0	2.875084e-03
5.100000e+08	9.307231e+14	0.000000e+00	6.754967e-01	9.132644e+15	1.033947e+16	3.492539e+14	2.414134e+04	1.026913e+04	3.675301e+03	0	2.853275e-03
5.200000e+08	9.098486e+14	0.000000e+00	6.754967e-01	8.971817e+15	1.016324e+16	3.475111e+14	2.403881e+04	1.024787e+04	3.667689e+03	0	2.831782e-03
5.300000e+08	8.895805e+14	0.000000e+00	6.754967e-01	8.815542e+15	9.991952e+15	3.457807e+14	2.393808e+04	1.022691e+04	3.660191e+03	0	2.810597e-03
5.400000e+08	8.698953e+14	0.000000e+00	6.754967e-01	8.663647e+15	9.825400e+15	3.440627e+14	2.383910e+04	1.020628e+04	3.652804e+03	0	2.789710e-03
5.500000e+08	8.507707e+14	0.000000e+00	6.754967e-01	8.515965e+15	9.663412e+15	3.423569e+14	2.374181e+04	1.018594e+04	3.645526e+03	0	2.769115e-03
5.600000e+08	8.321853e+14	0.000000e+00	6.754967e-01	8.372337e+15	9.505817e+15	3.406632e+14	2.364618e+04	1.016590e+04	3.638353e+03	0	2.748802e-03
5.700000e+08	8.141189e+14	0.000000e+00	6.754967e-01	8.232613e+15	9.352453e+15	3.389815e+14	2.355214e+04	1.014614e+04	3.631283e+03	0	2.728764e-03
5.800000e+08	7.965521e+14	0.000000e+00	6.754967e-01	8.096649e+15	9.203165e+15	3.373118e+14	2.345967e+04	1.012667e+04	3.624314e+03	0	2.708995e-03
5.900000e+08	7.794665e+14	0.000000e+00	6.754967e-01	7.964307e+15	9.057804e+15	3.356539e+14	2.336872e+04	1.010748e+04	3.617444e+03	0	2.689486e-03
6.000000e+08	7.628444e+14	0.000000e+00	6.754967e-01	7.835457e+15	8.916231e+15	3.340077e+14	2.327925e+04	1.008855e+04	3.610669e+03	0	2.670230e-03
6.100000e+08	7.466691e+14	0.000000e+00	6.754967e-01	7.709973e+15	8.778310e+15	3.323732e+14	2.319121e+04	1.006988e+04	3.603988e+03	0	2.651222e-03
6.200000e+08	7.309245e+14	0.000000e+00	6.754967e-01	7.587737e+15	8.643912e+15	3.307502e+14	2.310458e+04	1.005147e+04	3.597399e+03	0	2.632455e-03
6.300000e+08	7.155953e+14	0.000000e+00	6.754967e-01	7.468633e+15	8.512914e+15	3.291387e+14	2.301932e+04	1.003331e+04	3.590899e+03	0	2.613922e-03
6.400000e+08	7.006669e+14	0.000000e+00	6.754967e-01	7.352553e+15	8.385199e+15	3.275386e+14	2.293539e+04	1.001539e+04	3.584486e+03	0	2.595617e-03
6.500000e+08	6.861253e+14	0.000000e+00	6.754967e-01	7.239393e+15	8.260654e+15	3.259497e+14	2.285275e+04	9.997710e+03	3.578159e+03	0	2.577535e-03
6.600000e+08	6.719570e+14	0.000000e+00	6.754967e-01	7.129052e+15	8.139171e+15	3.243720e+14	2.277138e+04	9.980265e+03	3.571915e+03	0	2.559670e-03
6.700000e+08	6.581493e+14	0.000000e+00	6.754967e-01	7.021436e+15	8.020647e+15	3.228054e+14	2.269125e+04	9.963047e+03	3.565753e+03	0	2.542016e-03
6.800000e+08	6.446899e+14	0.000000e+00	6.754967e-01	6.916452e+15	7.904983e+15	3.212498e+14	2.261232e+04	9.946052e+03	3.559671e+03	0	2.524568e-03
6.900000e+08	6.315670e+14	0.000000e+00	6.754967e-01	6.814013e+15	7.792085e+15	3.197051e+14	2.253456e+04	9.929274e+03	3.553666e+03	0	2.507321e-03
7.000000e+08	6.187694e+14	0.000000e+00	6.754967e-01	6.714035e+15	7.681861e+15	3.181713e+14	2.245795e+04	9.912711e+03	3.547738e+03	0	2.490270e-03
7.100000e+08	6.062864e+14	0.000000e+00	6.754967e-01	6.616438e+15	7.574226e+15	3.166482e+14	2.238246e+04	9.896355e+03	3.541884e+03	0	2.473410e-03
7.200000e+08	5.941075e+14	0.000000e+00	6.754967e-01	6.521144e+15	7.469095e+15	3.151357e+14	2.230807e+04	9.880204e+03	3.536104e+03	0	2.456736e-03
7.300000e+08	5.822229e+14	0.000000e+00	6.754967e-01	6.428079e+15	7.366388e+15	3.136338e+14	2.223474e+04	9.864253e+03	3.530395e+03	0	2.440244e-03
7.400000e+08	5.706231e+14	0.000000e+00	6.754967e-01	6.337173e+15	7.266029e+15	3.121424e+14	2.216245e+04	9.848497e+03	3.524756e+03	0	2.423929e-03
7.500000e+08	5.592989e+14	0.000000e+00	6.754967e-01	6.248356e+15	7.167943e+15	3.106614e+14	2.209117e+04	9.832933e+03	3.519186e+03	0	2.407787e-03
7.600000e+08	5.482416e+14	0.000000e+00	6.754967e-01	6.161564e+15	7.072061e+15	3.091907e+14	2.202090e+04	9.817557e+03	3.513682e+03	0	2.391814e-03
7.700000e+08	5.374427e+14	0.000000e+00	6.754967e-01	6.076734e+15	6.978313e+15	3.077302e+14	2.195159e+04	9.802364e+03	3.508245e+03	0	2.376006e-03
7.800000e+08	5.268943e+14	0.000000e+00	6.754967e-01	5.993804e+15	6.886636e+15	3.062799e+14	2.188324e+04	9.787351e+03	3.502872e+03	0	2.360358e-03
7.900000e+08	5.165884e+14	0.000000e+00	6.754967e-01	5.912718e+15	6.796964e+15	3.048396e+14	2.181581e+04	9.772514e+03	3.497562e+03	0	2.344868e-03
8.000000e+08	5.065178e+14	0.000000e+00	6.754967e-01	5.833418e+15	6.709239e+15	3.034094e+14	2.174929e+04	9.757850e+03	3.492314e+03	0	2.329530e-03
8.100000e+08	4.966750e+14	0.000000e+00	6.754967e-01	5.755852e+15	6.623402e+15	3.019890e+14	2.168366e+04	9.743356e+03	3.487126e+03	0	2.314342e-03
8.200000e+08	4.870534e+14	0.000000e+00	6.754967e-01	5.679967e+15	6.539396e+15	3.005785e+14	2.161890e+04	9.729027e+03	3.481998e+03	0	2.299300e-03
8.300000e+08	4.776462e+14	0.000000e+00	6.754967e-01	5.605714e+15	6.457169e+15	2.991778e+14	2.155499e+04	9.714861e+03	3.476928e+03	0	2.284400e-03
8.400000e+08	4.684470e+14	0.000000e+00	6.754967e-01	5.533045e+15	6.376668e+15	2.977867e+14	2.149191e+04	9.700855e+03	3.471915e+03	0	2.269640e-03
8.500000e+08	4.594498e+14	0.000000e+00	6.754967e-01	5.461913e+15	6.297844e+15	2.964052e+14	2.142964e+04	9.687005e+03	3.466958e+03	0	2.255015e-03
8.600000e+08	4.506484e+14	0.000000e+00	6.754967e-01	5.392275e+15	6.220647e+15	2.950332e+14	2.136818e+04	9.673309e+03	3.462056e+03	0	2.240523e-03
8.700000e+08	4.420373e+14	0.000000e+00	6.754967e-01	5.324087e+15	6.145032e+15	2.936707e+14	2.130749e+04	9.659763e+03	3.457208e+03	0	2.226160e-03
8.800000e+08	4.336110e+14	0.000000e+00	6.754967e-01	5.257308e+15	6.070955e+15	2.923176e+14	2.124757e+04	9.646365e+03	3.452413e+03	0	2.211924e-03
8.900000e+08	4.253641e+14	0.000000e+00	6.754967e-01	5.191898e+15	5.998370e+15	2.909737e+14	2.118839e+04	9.633112e+03	3.447670e+03	0	2.197811e-03
9.000000e+08	4.172915e+14	0.000000e+00	6.754967e-01	5.127819e+15	5.927239e+15	2.896391e+14	2.112995e+04	9.620001e+03	3.442978e+03	0	2.183819e-03
9.100000e+08	4.093883e+14	0.000000e+00	6.754967e-01	5.065033e+15	5.857519e+15	2.883136e+14	2.107223e+04	9.607030e+03	3.438335e+03	0	2.169944e-03
9.200000e+08	4.016498e+14	0.000000e+00	6.754967e-01	5.003506e+15	5.789173e+15	2.869972e+14	2.101521e+04	9.594196e+03	3.433742e+03	0	2.156185e-03
9.300000e+08	3.940713e+14	0.000000e+00	6.754967e-01	4.943202e+15	5.722162e+15	2.856898e+14	2.095889e+04	9.581496e+03	3.429197e+03	0	2.142537e-03
9.400000e+08	3.866484e+14	0.000000e+00	6.754967e-01	4.884088e+15	5.656452e+15	2.843913e+14	2.090323e+04	9.568929e+03	3.424699e+03	0	2.128999e-03
9.500000e+08	3.793768e+14	0.000000e+00	6.754967e-01	4.826132e+15	5.592006e+15	2.831017e+14	2.084824e+04	9.556492e+03	3.420248e+03	0	2.115568e-03
9.600000e+08	3.722525e+14	0.000000e+00	6.754967e-01	4.769303e+15	5.528792e+15	2.818209e+14	2.079391e+04	9.544182e+03	3.415842e+03	0	2.102242e-03
9.700000e+08	3.652714e+14	0.000000e+00	6.754967e-01	4.713571e+15	5.466777e+15	2.805488e+14	2.074020e+04	9.531997e+03	3.411481e+03	0	2.089017e-03
9.800000e+08	3.584297e+14	0.000000e+00	6.754967e-01	4.658907e+15	5.405929e+15	2.792854e+14	2.068713e+04	9.519935e+03	3.407164e+03	0	2.075892e-03
9.900000e+08	3.517237e+14	0.000000e+00	6.754967e-01	4.605282e+15	5.346218e+15	2.780306e+14	2.063466e+04	9.507994e+03	3.402891e+03	0	2.062864e-03
1.000000e+09	3.451497e+14	0.000000e+00	6.754967e-01	4.552671e+15	5.287614e+15	2.767843e+14	2.058280e+04	9.496172e+03	3.398660e+03	0	2.049931e-03
1.010000e+09	3.387042e+14	0.000000e+00	6.754967e-01	4.501046e+15	5.230090e+15	2.755464e+14	2.053153e+04	9.484467e+03	3.394471e+03	0	2.037090e-03
1.020000e+09	3.323840e+14	0.000000e+00	6.754967e-01	4.450381e+15	5.173617e+15	2.743169e+14	2.048084e+04	9.472877e+03	3.390322e+03	0	2.024340e-03
1.030000e+09	3.261858e+14	0.000000e+00	6.754967e-01	4.400654e+15	5.118169e+15	2.730957e+14	2.043072e+04	9.461399e+03	3.386215e+03	0	2.011678e-03
1.040000e+09	3.201063e+14	0.000000e+00	6.754967e-01	4.351839e+15	5.063720e+15	2.718828e+14	2.038115e+04	9.450033e+03	3.382146e+03	0	1.999101e-03
1.050000e+09	3.141426e+14	0.000000e+00	6.754967e-01	4.303914e+15	5.010245e+15	2.706781e+14	2.033213e+04	9.438775e+03	3.378117e+03	0	1.986609e-03
1.060000e+09	3.082918e+14	0.000000e+00	6.754967e-01	4.256857e+15	4.957720e+15	2.694815e+14	2.028365e+04	9.427625e+03	3.374127e+03	0	1.974198e-03
1.070000e+09	3.025508e+14	0.000000e+00	6.754967e-01	4.210646e+15	4.906122e+15	2.682930e+14	2.023570e+04	9.416580e+03	3.370174e+03	0	1.961867e-03
1.080000e+09	2.969171e+14	0.000000e+00	6.754967e-01	4.165260e+15	4.855427e+15	2.671124e+14	2.018827e+04	9.405639e+03	3.366258e+03	0	1.949613e-03
1.090000e+09	2.913879e+14	0.000000e+00	6.754967e-01	4.120678e+15	4.805615e+15	2.659398e+14	2.014135e+04	9.394800e+03	3.362379e+03	0	1.937436e-03
1.100000e+09	2.859607e+14	0.000000e+00	6.754967e-01	4.076882e+15	4.756663e+15	2.647751e+14	2.009492e+04	9.384062e+03	3.358536e+03	0	1.925332e-03
1.110000e+09	2.806328e+14	0.000000e+00	6.754967e-01	4.033853e+15	4.708552e+15	2.636182e+14	2.004899e+04	9.373422e+03	3.354728e+03	0	1.913299e-03
1.120000e+09	2.754019e+14	0.000000e+00	6.754967e-01	3.991571e+15	4.661260e+15	2.624690e+14	2.000355e+04	9.362880e+03	3.350955e+03	0	1.901337e-03
1.130000e+09	2.702657e+14	0.000000e+00	6.754967e-01	3.950019e+15	4.614769e+15	2.613276e+14	1.995857e+04	9.352433e+03	3.347216e+03	0	1.889443e-03
1.140000e+09	2.652217e+14	0.000000e+00	6.754967e-01	3.909180e+15	4.569060e+15	2.601937e+14	1.991407e+04	9.342081e+03	3.343511e+03	0	1.877615e-03
1.150000e+09	2.602679e+14	0.000000e+00	6.754967e-01	3.869036e+15	4.524114e+15	2.590675e+14	1.987002e+04	9.331821e+03	3.339839e+03	0	1.865851e-03
1.160000e+09	2.554021e+14	0.000000e+00	6.754967e-01	3.829572e+15	4.479914e+15	2.579487e+14	1.982642e+04	9.321653e+03	3.336200e+03	0	1.854150e-03
1.170000e+09	2.506221e+14	0.000000e+00	6.754967e-01	3.790772e+15	4.436443e+15	2.568374e+14	1.978327e+04	9.311575e+03	3.332593e+03	0	1.842510e-03
1.180000e+09	2.459259e+14	0.000000e+00	6.754967e-01	3.752621e+15	4.393684e+15	2.557335e+14	1.974055e+04	9.301585e+03	3.329017e+03	0	1.830929e-03
1.190000e+09	2.413117e+14	0.000000e+00	6.754967e-01	3.715103e+15	4.351620e+15	2.546369e+14	1.969826e+04	9.291682e+03	3.325473e+03	0	1.819406e-03
1.200000e+09	2.367774e+14	0.000000e+00	6.754967e-01	3.678203e+15	4.310237e+15	2.535476e+14	1.965639e+04	9.281865e+03	3.321960e+03	0	1.807938e-03
1.210000e+09	2.323212e+14	0.000000e+00	6.754967e-01	3.641909e+15	4.269518e+15	2.524655e+14	1.961494e+04	9.272133e+03	3.318476e+03	0	1.796524e-03
1.220000e+09	2.279413e+14	0.000000e+00	6.754967e-01	3.606206e+15	4.229449e+15	2.513906e+14	1.957389e+04	9.262484e+03	3.315023e+03	0	1.785163e-03
1.230000e+09	2.236361e+14	0.000000e+00	6.754967e-01	3.571081e+15	4.190015e+15	2.503228e+14	1.953325e+04	9.252917e+03	3.311599e+03	0	1.773852e-03
1.240000e+09	2.194037e+14	0.000000e+00	6.754967e-01	3.536522e+15	4.151203e+15	2.492621e+14	1.949300e+04	9.243430e+03	3.308204e+03	0	1.762590e-03
1.250000e+09	2.152425e+14	0.000000e+00	6.754967e-01	3.502515e+15	4.112999e+15	2.482084e+14	1.945313e+04	9.234024e+03	3.304837e+03	0	1.751376e-03
1.260000e+09	2.111509e+14	0.000000e+00	6.754967e-01	3.469048e+15	4.075389e+15	2.471616e+14	1.941365e+04	9.224696e+03	3.301499e+03	0	1.740208e-03
1.270000e+09	2.071275e+14	0.000000e+00	6.754967e-01	3.436110e+15	4.038360e+15	2.461217e+14	1.937455e+04	9.215445e+03	3.298188e+03	0	1.729084e-03
1.280000e+09	2.031705e+14	0.000000e+00	6.754967e-01	3.403689e+15	4.001901e+15	2.450887e+14	1.933582e+04	9.206270e+03	3.294904e+03	0	1.718002e-03
1.290000e+09	1.992787e+14	0.000000e+00	6.754967e-01	3.371774e+15	3.965999e+15	2.440624e+14	1.929745e+04	9.197171e+03	3.291648e+03	0	1.706961e-03
1.300000e+09	1.954505e+14	0.000000e+00	6.754967e-01	3.340355e+15	3.930642e+15	2.430429e+14	1.925944e+04	9.188146e+03	3.288418e+03	0	1.695960e-03
1.310000e+09	1.916846e+14	0.000000e+00	6.754967e-01	3.309419e+15	3.895819e+15	2.420301e+14	1.922178e+04	9.179193e+03	3.285214e+03	0	1.684997e-03
1.320000e+09	1.879797e+14	0.000000e+00	6.754967e-01	3.278958e+15	3.861518e+15	2.410238e+14	1.918447e+04	9.170313e+03	3.282035e+03	0	1.674070e-03
1.330000e+09	1.843343e+14	0.000000e+00	6.754967e-01	3.248961e+15	3.827728e+15	2.400242e+14	1.914750e+04	9.161504e+03	3.278883e+03	0	1.663178e-03
1.340000e+09	1.807472e+14	0.000000e+00	6.754967e-01	3.219419e+15	3.794439e+15	2.390311e+14	1.911087e+04	9.152764e+03	3.275755e+03	0	1.652319e-03
1.350000e+09	1.772172e+14	0.000000e+00	6.754967e-01	3.190321e+15	3.761641e+15	2.380445e+14	1.907457e+04	9.144094e+03	3.272652e+03	0	1.641492e-03
1.360000e+09	1.737431e+14	0.000000e+00	6.754967e-01	3.161659e+15	3.729323e+15	2.370643e+14	1.903860e+04	9.135492e+03	3.269573e+03	0	1.630694e-03
