#t		Qconv[W]	Ri[Rp]		R*[Rp]		Qc[W]		Qm[W]		Qr[W]		Tcmb[K]		Tl[K]		Tup[K]		RiFlag		Bs[T]
0.000000e+00	8.338742e+12	0.000000e+00	5.286624e-01	2.332293e+14	1.319229e+15	1.070906e+14	6.924356e+03	3.374341e+03	2.186593e+03	0	7.362386e-04
1.000000e+07	7.892314e+12	0.000000e+00	5.286624e-01	2.210056e+14	1.147917e+15	1.064973e+14	6.864009e+03	3.293914e+03	2.134476e+03	0	7.228583e-04
2.000000e+07	7.486506e+12	0.000000e+00	5.286624e-01	2.098922e+14	1.014720e+15	1.059083e+14	6.806775e+03	3.226001e+03	2.090467e+03	0	7.102504e-04
3.000000e+07	7.116927e+12	0.000000e+00	5.286624e-01	1.997690e+14	9.086868e+14	1.053238e+14	6.752376e+03	3.167784e+03	2.052743e+03	0	6.983652e-04
4.000000e+07	6.779397e+12	0.000000e+00	5.286624e-01	1.905218e+14	8.225881e+14	1.047437e+14	6.700563e+03	3.117244e+03	2.019993e+03	0	6.871456e-04
5.000000e+07	6.470163e+12	0.000000e+00	5.286624e-01	1.820482e+14	7.514850e+14	1.041678e+14	6.651116e+03	3.072894e+03	1.991254e+03	0	6.765348e-04
6.000000e+07	6.185940e+12	0.000000e+00	5.286624e-01	1.742584e+14	6.919061e+14	1.035963e+14	6.603839e+03	3.033613e+03	1.965800e+03	0	6.664798e-04
7.000000e+07	5.923879e+12	0.000000e+00	5.286624e-01	1.670745e+14	6.413489e+14	1.030290e+14	6.558559e+03	2.998540e+03	1.943072e+03	0	6.569321e-04
8.000000e+07	5.681525e+12	0.000000e+00	5.286624e-01	1.604296e+14	5.979700e+14	1.024660e+14	6.515123e+03	2.967000e+03	1.922634e+03	0	6.478484e-04
9.000000e+07	5.456753e+12	0.000000e+00	5.286624e-01	1.542655e+14	5.603845e+14	1.019071e+14	6.473393e+03	2.938459e+03	1.904139e+03	0	6.391898e-04
1.000000e+08	5.247730e+12	0.000000e+00	5.286624e-01	1.485322e+14	5.275346e+14	1.013523e+14	6.433249e+03	2.912487e+03	1.887309e+03	0	6.309218e-04
1.100000e+08	5.052862e+12	0.000000e+00	5.286624e-01	1.431860e+14	4.985997e+14	1.008017e+14	6.394579e+03	2.888733e+03	1.871916e+03	0	6.230136e-04
1.200000e+08	4.870762e+12	0.000000e+00	5.286624e-01	1.381893e+14	4.729345e+14	1.002552e+14	6.357287e+03	2.866909e+03	1.857774e+03	0	6.154376e-04
1.300000e+08	4.700220e+12	0.000000e+00	5.286624e-01	1.335087e+14	4.500253e+14	9.971273e+13	6.321281e+03	2.846776e+03	1.844728e+03	0	6.081693e-04
1.400000e+08	4.540172e+12	0.000000e+00	5.286624e-01	1.291152e+14	4.294584e+14	9.917426e+13	6.286483e+03	2.828132e+03	1.832646e+03	0	6.011864e-04
1.500000e+08	4.389681e+12	0.000000e+00	5.286624e-01	1.249834e+14	4.108976e+14	9.863977e+13	6.252818e+03	2.810807e+03	1.821420e+03	0	5.944692e-04
1.600000e+08	4.247919e+12	0.000000e+00	5.286624e-01	1.210904e+14	3.940667e+14	9.810923e+13	6.220220e+03	2.794658e+03	1.810955e+03	0	5.879998e-04
1.700000e+08	4.114152e+12	0.000000e+00	5.286624e-01	1.174163e+14	3.787373e+14	9.758261e+13	6.188627e+03	2.779560e+03	1.801172e+03	0	5.817618e-04
1.800000e+08	3.987726e+12	0.000000e+00	5.286624e-01	1.139432e+14	3.647186e+14	9.705986e+13	6.157983e+03	2.765407e+03	1.792000e+03	0	5.757406e-04
1.900000e+08	3.868056e+12	0.000000e+00	5.286624e-01	1.106550e+14	3.518505e+14	9.654097e+13	6.128238e+03	2.752107e+03	1.783381e+03	0	5.699227e-04
2.000000e+08	3.754619e+12	0.000000e+00	5.286624e-01	1.075375e+14	3.399973e+14	9.602590e+13	6.099344e+03	2.739578e+03	1.775263e+03	0	5.642961e-04
2.100000e+08	3.646945e+12	0.000000e+00	5.286624e-01	1.045778e+14	3.290437e+14	9.551461e+13	6.071256e+03	2.727750e+03	1.767598e+03	0	5.588494e-04
2.200000e+08	3.544610e+12	0.000000e+00	5.286624e-01	1.017644e+14	3.188909e+14	9.500708e+13	6.043934e+03	2.716560e+03	1.760347e+03	0	5.535726e-04
2.300000e+08	3.447230e+12	0.000000e+00	5.286624e-01	9.908662e+13	3.094537e+14	9.450328e+13	6.017341e+03	2.705956e+03	1.753475e+03	0	5.484560e-04
2.400000e+08	3.354457e+12	0.000000e+00	5.286624e-01	9.653512e+13	3.006587e+14	9.400316e+13	5.991442e+03	2.695886e+03	1.746950e+03	0	5.434912e-04
2.500000e+08	3.265978e+12	0.000000e+00	5.286624e-01	9.410122e+13	2.924419e+14	9.350671e+13	5.966205e+03	2.686309e+03	1.740744e+03	0	5.386700e-04
2.600000e+08	3.181504e+12	0.000000e+00	5.286624e-01	9.177707e+13	2.847474e+14	9.301390e+13	5.941598e+03	2.677185e+03	1.734832e+03	0	5.339852e-04
2.700000e+08	3.100773e+12	0.000000e+00	5.286624e-01	8.955550e+13	2.775262e+14	9.252468e+13	5.917595e+03	2.668479e+03	1.729190e+03	0	5.294298e-04
2.800000e+08	3.023546e+12	0.000000e+00	5.286624e-01	8.742994e+13	2.707352e+14	9.203904e+13	5.894168e+03	2.660162e+03	1.723801e+03	0	5.249975e-04
2.900000e+08	2.949602e+12	0.000000e+00	5.286624e-01	8.539441e+13	2.643365e+14	9.155695e+13	5.871293e+03	2.652203e+03	1.718644e+03	0	5.206824e-04
3.000000e+08	2.878742e+12	0.000000e+00	5.286624e-01	8.344336e+13	2.582961e+14	9.107837e+13	5.848946e+03	2.644579e+03	1.713703e+03	0	5.164790e-04
3.100000e+08	2.810778e+12	0.000000e+00	5.286624e-01	8.157175e+13	2.525842e+14	9.060327e+13	5.827106e+03	2.637266e+03	1.708964e+03	0	5.123821e-04
3.200000e+08	2.745541e+12	0.000000e+00	5.286624e-01	7.977488e+13	2.471738e+14	9.013163e+13	5.805753e+03	2.630243e+03	1.704413e+03	0	5.083869e-04
3.300000e+08	2.682873e+12	0.000000e+00	5.286624e-01	7.804844e+13	2.420410e+14	8.966342e+13	5.784866e+03	2.623491e+03	1.700038e+03	0	5.044891e-04
3.400000e+08	2.622627e+12	0.000000e+00	5.286624e-01	7.638845e+13	2.371643e+14	8.919861e+13	5.764428e+03	2.616992e+03	1.695827e+03	0	5.006842e-04
3.500000e+08	2.564669e+12	0.000000e+00	5.286624e-01	7.479121e+13	2.325243e+14	8.873718e+13	5.744422e+03	2.610732e+03	1.691770e+03	0	4.969685e-04
3.600000e+08	2.508874e+12	0.000000e+00	5.286624e-01	7.325329e+13	2.281035e+14	8.827909e+13	5.724831e+03	2.604694e+03	1.687857e+03	0	4.933382e-04
3.700000e+08	2.455126e+12	0.000000e+00	5.286624e-01	7.177152e+13	2.238862e+14	8.782431e+13	5.705641e+03	2.598866e+03	1.684080e+03	0	4.897897e-04
3.800000e+08	2.403317e+12	0.000000e+00	5.286624e-01	7.034293e+13	2.198579e+14	8.737283e+13	5.686836e+03	2.593235e+03	1.680432e+03	0	4.863199e-04
3.900000e+08	2.353345e+12	0.000000e+00	5.286624e-01	6.896478e+13	2.160057e+14	8.692461e+13	5.668403e+03	2.587790e+03	1.676903e+03	0	4.829257e-04
4.000000e+08	2.305118e+12	0.000000e+00	5.286624e-01	6.763449e+13	2.123177e+14	8.647963e+13	5.650329e+03	2.582521e+03	1.673489e+03	0	4.796040e-04
4.100000e+08	2.258548e+12	0.000000e+00	5.286624e-01	6.634967e+13	2.087831e+14	8.603786e+13	5.632601e+03	2.577417e+03	1.670181e+03	0	4.763522e-04
4.200000e+08	2.213552e+12	0.000000e+00	5.286624e-01	6.510808e+13	2.053920e+14	8.559927e+13	5.615207e+03	2.572470e+03	1.666976e+03	0	4.731676e-04
4.300000e+08	2.170055e+12	0.000000e+00	5.286624e-01	6.390762e+13	2.021353e+14	8.516384e+13	5.598138e+03	2.567671e+03	1.663866e+03	0	4.700478e-04
4.400000e+08	2.127985e+12	0.000000e+00	5.286624e-01	6.274633e+13	1.990047e+14	8.473154e+13	5.581381e+03	2.563013e+03	1.660848e+03	0	4.669904e-04
4.500000e+08	2.087275e+12	0.000000e+00	5.286624e-01	6.162237e+13	1.959926e+14	8.430235e+13	5.564926e+03	2.558489e+03	1.657916e+03	0	4.639932e-04
4.600000e+08	2.047861e+12	0.000000e+00	5.286624e-01	6.053400e+13	1.930920e+14	8.387624e+13	5.548765e+03	2.554091e+03	1.655066e+03	0	4.610541e-04
4.700000e+08	2.009684e+12	0.000000e+00	5.286624e-01	5.947962e+13	1.902963e+14	8.345318e+13	5.532887e+03	2.549813e+03	1.652294e+03	0	4.581711e-04
4.800000e+08	1.972689e+12	0.000000e+00	5.286624e-01	5.845768e+13	1.875995e+14	8.303316e+13	5.517285e+03	2.545650e+03	1.649597e+03	0	4.553422e-04
4.900000e+08	1.936823e+12	0.000000e+00	5.286624e-01	5.746675e+13	1.849962e+14	8.261615e+13	5.501949e+03	2.541597e+03	1.646970e+03	0	4.525658e-04
5.000000e+08	1.902037e+12	0.000000e+00	5.286624e-01	5.650549e+13	1.824811e+14	8.220211e+13	5.486871e+03	2.537647e+03	1.644410e+03	0	4.498400e-04
5.100000e+08	1.868283e+12	0.000000e+00	5.286624e-01	5.557260e+13	1.800496e+14	8.179104e+13	5.472044e+03	2.533796e+03	1.641915e+03	0	4.471631e-04
5.200000e+08	1.835519e+12	0.000000e+00	5.286624e-01	5.466689e+13	1.776971e+14	8.138290e+13	5.457461e+03	2.530040e+03	1.639481e+03	0	4.445337e-04
5.300000e+08	1.803703e+12	0.000000e+00	5.286624e-01	5.378722e+13	1.754197e+14	8.097766e+13	5.443114e+03	2.526374e+03	1.637105e+03	0	4.419503e-04
5.400000e+08	1.772795e+12	0.000000e+00	5.286624e-01	5.293251e+13	1.732133e+14	8.057532e+13	5.428996e+03	2.522795e+03	1.634786e+03	0	4.394113e-04
5.500000e+08	1.742758e+12	0.000000e+00	5.286624e-01	5.210175e+13	1.710745e+14	8.017584e+13	5.415102e+03	2.519298e+03	1.632520e+03	0	4.369154e-04
5.600000e+08	1.713557e+12	0.000000e+00	5.286624e-01	5.129396e+13	1.690000e+14	7.977919e+13	5.401425e+03	2.515881e+03	1.630306e+03	0	4.344614e-04
5.700000e+08	1.685158e+12	0.000000e+00	5.286624e-01	5.050824e+13	1.669865e+14	7.938537e+13	5.387958e+03	2.512539e+03	1.628140e+03	0	4.320480e-04
5.800000e+08	1.657531e+12	0.000000e+00	5.286624e-01	4.974372e+13	1.650313e+14	7.899434e+13	5.374697e+03	2.509270e+03	1.626022e+03	0	4.296739e-04
5.900000e+08	1.630645e+12	0.000000e+00	5.286624e-01	4.899958e+13	1.631315e+14	7.860608e+13	5.361635e+03	2.506071e+03	1.623949e+03	0	4.273381e-04
6.000000e+08	1.604472e+12	0.000000e+00	5.286624e-01	4.827503e+13	1.612846e+14	7.822057e+13	5.348768e+03	2.502938e+03	1.621919e+03	0	4.250393e-04
6.100000e+08	1.578985e+12	0.000000e+00	5.286624e-01	4.756935e+13	1.594882e+14	7.783778e+13	5.336091e+03	2.499870e+03	1.619931e+03	0	4.227767e-04
6.200000e+08	1.554157e+12	0.000000e+00	5.286624e-01	4.688181e+13	1.577401e+14	7.745770e+13	5.323597e+03	2.496864e+03	1.617983e+03	0	4.205491e-04
6.300000e+08	1.529965e+12	0.000000e+00	5.286624e-01	4.621176e+13	1.560380e+14	7.708031e+13	5.311283e+03	2.493917e+03	1.616073e+03	0	4.183556e-04
6.400000e+08	1.506386e+12	0.000000e+00	5.286624e-01	4.555855e+13	1.543801e+14	7.670557e+13	5.299145e+03	2.491028e+03	1.614201e+03	0	4.161952e-04
6.500000e+08	1.483396e+12	0.000000e+00	5.286624e-01	4.492157e+13	1.527644e+14	7.633348e+13	5.287177e+03	2.488193e+03	1.612364e+03	0	4.140671e-04
6.600000e+08	1.460976e+12	0.000000e+00	5.286624e-01	4.430026e+13	1.511892e+14	7.596400e+13	5.275376e+03	2.485411e+03	1.610561e+03	0	4.119704e-04
6.700000e+08	1.439104e+12	0.000000e+00	5.286624e-01	4.369404e+13	1.496527e+14	7.559712e+13	5.263737e+03	2.482681e+03	1.608792e+03	0	4.099043e-04
6.800000e+08	1.417762e+12	0.000000e+00	5.286624e-01	4.310241e+13	1.481535e+14	7.523282e+13	5.252257e+03	2.479999e+03	1.607054e+03	0	4.078679e-04
6.900000e+08	1.396932e+12	0.000000e+00	5.286624e-01	4.252485e+13	1.466900e+14	7.487108e+13	5.240931e+03	2.477365e+03	1.605347e+03	0	4.058605e-04
7.000000e+08	1.376595e+12	0.000000e+00	5.286624e-01	4.196088e+13	1.452608e+14	7.451187e+13	5.229757e+03	2.474777e+03	1.603670e+03	0	4.038814e-04
7.100000e+08	1.356736e+12	0.000000e+00	5.286624e-01	4.141005e+13	1.438645e+14	7.415517e+13	5.218730e+03	2.472233e+03	1.602022e+03	0	4.019298e-04
7.200000e+08	1.337338e+12	0.000000e+00	5.286624e-01	4.087192e+13	1.424999e+14	7.380097e+13	5.207847e+03	2.469732e+03	1.600401e+03	0	4.000050e-04
7.300000e+08	1.318385e+12	0.000000e+00	5.286624e-01	4.034606e+13	1.411658e+14	7.344924e+13	5.197105e+03	2.467272e+03	1.598807e+03	0	3.981064e-04
7.400000e+08	1.299864e+12	0.000000e+00	5.286624e-01	3.983208e+13	1.398611e+14	7.309997e+13	5.186500e+03	2.464853e+03	1.597239e+03	0	3.962334e-04
7.500000e+08	1.281760e+12	0.000000e+00	5.286624e-01	3.932959e+13	1.385847e+14	7.275313e+13	5.176030e+03	2.462471e+03	1.595696e+03	0	3.943853e-04
7.600000e+08	1.264060e+12	0.000000e+00	5.286624e-01	3.883822e+13	1.373355e+14	7.240871e+13	5.165692e+03	2.460127e+03	1.594177e+03	0	3.925615e-04
7.700000e+08	1.246752e+12	0.000000e+00	5.286624e-01	3.835762e+13	1.361125e+14	7.206669e+13	5.155482e+03	2.457820e+03	1.592682e+03	0	3.907614e-04
7.800000e+08	1.229821e+12	0.000000e+00	5.286624e-01	3.788746e+13	1.349149e+14	7.172704e+13	5.145398e+03	2.455547e+03	1.591209e+03	0	3.889846e-04
7.900000e+08	1.213258e+12	0.000000e+00	5.286624e-01	3.742740e+13	1.337418e+14	7.138976e+13	5.135437e+03	2.453309e+03	1.589759e+03	0	3.872304e-04
8.000000e+08	1.197050e+12	0.000000e+00	5.286624e-01	3.697714e+13	1.325922e+14	7.105481e+13	5.125596e+03	2.451103e+03	1.588329e+03	0	3.854983e-04
8.100000e+08	1.181187e+12	0.000000e+00	5.286624e-01	3.653637e+13	1.314655e+14	7.072218e+13	5.115874e+03	2.448929e+03	1.586921e+03	0	3.837879e-04
8.200000e+08	1.165658e+12	0.000000e+00	5.286624e-01	3.610482e+13	1.303608e+14	7.039186e+13	5.106266e+03	2.446786e+03	1.585532e+03	0	3.820986e-04
8.300000e+08	1.150453e+12	0.000000e+00	5.286624e-01	3.568220e+13	1.292775e+14	7.006381e+13	5.096772e+03	2.444673e+03	1.584163e+03	0	3.804299e-04
8.400000e+08	1.135562e+12	0.000000e+00	5.286624e-01	3.526825e+13	1.282147e+14	6.973804e+13	5.087389e+03	2.442590e+03	1.582813e+03	0	3.787815e-04
8.500000e+08	1.120977e+12	0.000000e+00	5.286624e-01	3.486271e+13	1.271720e+14	6.941451e+13	5.078114e+03	2.440534e+03	1.581481e+03	0	3.771528e-04
8.600000e+08	1.106688e+12	0.000000e+00	5.286624e-01	3.446534e+13	1.261485e+14	6.909321e+13	5.068945e+03	2.438507e+03	1.580167e+03	0	3.755435e-04
8.700000e+08	1.092687e+12	0.000000e+00	5.286624e-01	3.407591e+13	1.251438e+14	6.877413e+13	5.059880e+03	2.436506e+03	1.578870e+03	0	3.739530e-04
8.800000e+08	1.078966e+12	0.000000e+00	5.286624e-01	3.369419e+13	1.241571e+14	6.845724e+13	5.050917e+03	2.434530e+03	1.577590e+03	0	3.723811e-04
8.900000e+08	1.065516e+12	0.000000e+00	5.286624e-01	3.331995e+13	1.231881e+14	6.814252e+13	5.042055e+03	2.432581e+03	1.576327e+03	0	3.708273e-04
9.000000e+08	1.052330e+12	0.000000e+00	5.286624e-01	3.295299e+13	1.222361e+14	6.782997e+13	5.033290e+03	2.430655e+03	1.575079e+03	0	3.692913e-04
9.100000e+08	1.039400e+12	0.000000e+00	5.286624e-01	3.259311e+13	1.213006e+14	6.751956e+13	5.024622e+03	2.428754e+03	1.573847e+03	0	3.677726e-04
9.200000e+08	1.026720e+12	0.000000e+00	5.286624e-01	3.224011e+13	1.203812e+14	6.721127e+13	5.016047e+03	2.426876e+03	1.572630e+03	0	3.662709e-04
9.300000e+08	1.014283e+12	0.000000e+00	5.286624e-01	3.189381e+13	1.194774e+14	6.690509e+13	5.007566e+03	2.425020e+03	1.571428e+03	0	3.647859e-04
9.400000e+08	1.002081e+12	0.000000e+00	5.286624e-01	3.155401e+13	1.185886e+14	6.660101e+13	4.999175e+03	2.423187e+03	1.570240e+03	0	3.633173e-04
9.500000e+08	9.901092e+11	0.000000e+00	5.286624e-01	3.122055e+13	1.177146e+14	6.629900e+13	4.990873e+03	2.421375e+03	1.569066e+03	0	3.618646e-04
9.600000e+08	9.783607e+11	0.000000e+00	5.286624e-01	3.089325e+13	1.168549e+14	6.599905e+13	4.982659e+03	2.419584e+03	1.567905e+03	0	3.604276e-04
9.700000e+08	9.668297e+11	0.000000e+00	5.286624e-01	3.057196e+13	1.160090e+14	6.570115e+13	4.974530e+03	2.417814e+03	1.566758e+03	0	3.590060e-04
9.800000e+08	9.555105e+11	0.000000e+00	5.286624e-01	3.025652e+13	1.151766e+14	6.540527e+13	4.966486e+03	2.416063e+03	1.565623e+03	0	3.575995e-04
9.900000e+08	9.443976e+11	0.000000e+00	5.286624e-01	2.994677e+13	1.143574e+14	6.511140e+13	4.958524e+03	2.414332e+03	1.564502e+03	0	3.562077e-04
1.000000e+09	9.334855e+11	0.000000e+00	5.286624e-01	2.964257e+13	1.135509e+14	6.481952e+13	4.950643e+03	2.412620e+03	1.563392e+03	0	3.548305e-04
1.010000e+09	9.227693e+11	0.000000e+00	5.286624e-01	2.934377e+13	1.127569e+14	6.452963e+13	4.942843e+03	2.410926e+03	1.562294e+03	0	3.534675e-04
1.020000e+09	9.122438e+11	0.000000e+00	5.286624e-01	2.905024e+13	1.119750e+14	6.424170e+13	4.935120e+03	2.409250e+03	1.561209e+03	0	3.521184e-04
1.030000e+09	9.019042e+11	0.000000e+00	5.286624e-01	2.876184e+13	1.112049e+14	6.395572e+13	4.927475e+03	2.407592e+03	1.560134e+03	0	3.507830e-04
1.040000e+09	8.917459e+11	0.000000e+00	5.286624e-01	2.847845e+13	1.104463e+14	6.367167e+13	4.919905e+03	2.405952e+03	1.559071e+03	0	3.494610e-04
1.050000e+09	8.817643e+11	0.000000e+00	5.286624e-01	2.819995e+13	1.096989e+14	6.338954e+13	4.912410e+03	2.404327e+03	1.558018e+03	0	3.481523e-04
1.060000e+09	8.719551e+11	0.000000e+00	5.286624e-01	2.792620e+13	1.089624e+14	6.310931e+13	4.904988e+03	2.402720e+03	1.556977e+03	0	3.468565e-04
1.070000e+09	8.623141e+11	0.000000e+00	5.286624e-01	2.765710e+13	1.082365e+14	6.283097e+13	4.897637e+03	2.401128e+03	1.555945e+03	0	3.455733e-04
1.080000e+09	8.528371e+11	0.000000e+00	5.286624e-01	2.739254e+13	1.075211e+14	6.255450e+13	4.890357e+03	2.399552e+03	1.554924e+03	0	3.443027e-04
1.090000e+09	8.435202e+11	0.000000e+00	5.286624e-01	2.713239e+13	1.068157e+14	6.227990e+13	4.883147e+03	2.397992e+03	1.553913e+03	0	3.430443e-04
1.100000e+09	8.343595e+11	0.000000e+00	5.286624e-01	2.687657e+13	1.061203e+14	6.200713e+13	4.876004e+03	2.396446e+03	1.552911e+03	0	3.417980e-04
1.110000e+09	8.253514e+11	0.000000e+00	5.286624e-01	2.662496e+13	1.054345e+14	6.173620e+13	4.868929e+03	2.394915e+03	1.551919e+03	0	3.405634e-04
1.120000e+09	8.164921e+11	0.000000e+00	5.286624e-01	2.637747e+13	1.047581e+14	6.146708e+13	4.861920e+03	2.393399e+03	1.550937e+03	0	3.393405e-04
1.130000e+09	8.077783e+11	0.000000e+00	5.286624e-01	2.613400e+13	1.040909e+14	6.119976e+13	4.854976e+03	2.391897e+03	1.549963e+03	0	3.381290e-04
1.140000e+09	7.992066e+11	0.000000e+00	5.286624e-01	2.589445e+13	1.034328e+14	6.093422e+13	4.848096e+03	2.390408e+03	1.548999e+03	0	3.369288e-04
1.150000e+09	7.907736e+11	0.000000e+00	5.286624e-01	2.565874e+13	1.027834e+14	6.067046e+13	4.841278e+03	2.388933e+03	1.548043e+03	0	3.357395e-04
1.160000e+09	7.824761e+11	0.000000e+00	5.286624e-01	2.542678e+13	1.021425e+14	6.040846e+13	4.834523e+03	2.387471e+03	1.547095e+03	0	3.345611e-04
1.170000e+09	7.743111e+11	0.000000e+00	5.286624e-01	2.519848e+13	1.015101e+14	6.014821e+13	4.827828e+03	2.386022e+03	1.546156e+03	0	3.333933e-04
1.180000e+09	7.662756e+11	0.000000e+00	5.286624e-01	2.497377e+13	1.008859e+14	5.988969e+13	4.821193e+03	2.384585e+03	1.545225e+03	0	3.322360e-04
1.190000e+09	7.583667e+11	0.000000e+00	5.286624e-01	2.475255e+13	1.002697e+14	5.963288e+13	4.814617e+03	2.383161e+03	1.544303e+03	0	3.310891e-04
1.200000e+09	7.505814e+11	0.000000e+00	5.286624e-01	2.453476e+13	9.966136e+13	5.937778e+13	4.808100e+03	2.381750e+03	1.543388e+03	0	3.299522e-04
1.210000e+09	7.429172e+11	0.000000e+00	5.286624e-01	2.432031e+13	9.906070e+13	5.912438e+13	4.801639e+03	2.380350e+03	1.542481e+03	0	3.288253e-04
1.220000e+09	7.353712e+11	0.000000e+00	5.286624e-01	2.410914e+13	9.846756e+13	5.887265e+13	4.795235e+03	2.378962e+03	1.541581e+03	0	3.277082e-04
1.230000e+09	7.279410e+11	0.000000e+00	5.286624e-01	2.390117e+13	9.788177e+13	5.862258e+13	4.788886e+03	2.377585e+03	1.540689e+03	0	3.266007e-04
1.240000e+09	7.206240e+11	0.000000e+00	5.286624e-01	2.369633e+13	9.730319e+13	5.837417e+13	4.782592e+03	2.376219e+03	1.539804e+03	0	3.255027e-04
1.250000e+09	7.134178e+11	0.000000e+00	5.286624e-01	2.349456e+13	9.673166e+13	5.812740e+13	4.776351e+03	2.374865e+03	1.538927e+03	0	3.244141e-04
1.260000e+09	7.063200e+11	0.000000e+00	5.286624e-01	2.329579e+13	9.616704e+13	5.788226e+13	4.770164e+03	2.373522e+03	1.538056e+03	0	3.233346e-04
1.270000e+09	6.993282e+11	0.000000e+00	5.286624e-01	2.309996e+13	9.560919e+13	5.763873e+13	4.764029e+03	2.372189e+03	1.537192e+03	0	3.222642e-04
1.280000e+09	6.924402e+11	0.000000e+00	5.286624e-01	2.290700e+13	9.505798e+13	5.739680e+13	4.757945e+03	2.370866e+03	1.536335e+03	0	3.212027e-04
1.290000e+09	6.856539e+11	0.000000e+00	5.286624e-01	2.271685e+13	9.451326e+13	5.715647e+13	4.751912e+03	2.369554e+03	1.535485e+03	0	3.201499e-04
1.300000e+09	6.789671e+11	0.000000e+00	5.286624e-01	2.252946e+13	9.397492e+13	5.691771e+13	4.745928e+03	2.368252e+03	1.534641e+03	0	3.191058e-04
1.310000e+09	6.723778e+11	0.000000e+00	5.286624e-01	2.234477e+13	9.344282e+13	5.668051e+13	4.739994e+03	2.366960e+03	1.533804e+03	0	3.180701e-04
1.320000e+09	6.658839e+11	0.000000e+00	5.286624e-01	2.216273e+13	9.291685e+13	5.644487e+13	4.734109e+03	2.365677e+03	1.532973e+03	0	3.170428e-04
1.330000e+09	6.594835e+11	0.000000e+00	5.286624e-01	2.198327e+13	9.239688e+13	5.621077e+13	4.728271e+03	2.364404e+03	1.532148e+03	0	3.160237e-04
1.340000e+09	6.531746e+11	0.000000e+00	5.286624e-01	2.180635e+13	9.188281e+13	5.597820e+13	4.722481e+03	2.363141e+03	1.531329e+03	0	3.150128e-04
1.350000e+09	6.469555e+11	0.000000e+00	5.286624e-01	2.163191e+13	9.137452e+13	5.574715e+13	4.716737e+03	2.361886e+03	1.530516e+03	0	3.140098e-04
1.360000e+09	6.408243e+11	0.000000e+00	5.286624e-01	2.145991e+13	9.087190e+13	5.551760e+13	4.711038e+03	2.360641e+03	1.529709e+03	0	3.130147e-04
