#t		Qconv[W]	Ri[Rp]		R*[Rp]		Qc[W]		Qm[W]		Qr[W]		Tcmb[K]		Tl[K]		Tup[K]		RiFlag		Bs[T]
0.000000e+00	8.774873e+13	0.000000e+00	5.159234e-01	1.283594e+15	2.710625e+15	3.236953e+14	1.330276e+04	5.051783e+03	2.591477e+03	0	1.545082e-03
1.000000e+07	8.406616e+13	0.000000e+00	5.159234e-01	1.233415e+15	2.575572e+15	3.219018e+14	1.320356e+04	5.017173e+03	2.573723e+03	0	1.523158e-03
2.000000e+07	8.063375e+13	0.000000e+00	5.159234e-01	1.186621e+15	2.454271e+15	3.201217e+14	1.310819e+04	4.985108e+03	2.557274e+03	0	1.502139e-03
3.000000e+07	7.742736e+13	0.000000e+00	5.159234e-01	1.142887e+15	2.344695e+15	3.183549e+14	1.301640e+04	4.955278e+03	2.541972e+03	0	1.481958e-03
4.000000e+07	7.442590e+13	0.000000e+00	5.159234e-01	1.101928e+15	2.245196e+15	3.166013e+14	1.292795e+04	4.927421e+03	2.527682e+03	0	1.462556e-03
5.000000e+07	7.161081e+13	0.000000e+00	5.159234e-01	1.063493e+15	2.154421e+15	3.148608e+14	1.284263e+04	4.901315e+03	2.514290e+03	0	1.443879e-03
6.000000e+07	6.896574e+13	0.000000e+00	5.159234e-01	1.027362e+15	2.071249e+15	3.131332e+14	1.276026e+04	4.876774e+03	2.501701e+03	0	1.425878e-03
7.000000e+07	6.647618e+13	0.000000e+00	5.159234e-01	9.933382e+14	1.994743e+15	3.114186e+14	1.268066e+04	4.853637e+03	2.489832e+03	0	1.408510e-03
8.000000e+07	6.412922e+13	0.000000e+00	5.159234e-01	9.612478e+14	1.924115e+15	3.097166e+14	1.260367e+04	4.831764e+03	2.478612e+03	0	1.391735e-03
9.000000e+07	6.191337e+13	0.000000e+00	5.159234e-01	9.309351e+14	1.858696e+15	3.080273e+14	1.252914e+04	4.811036e+03	2.467979e+03	0	1.375517e-03
1.000000e+08	5.981830e+13	0.000000e+00	5.159234e-01	9.022608e+14	1.797917e+15	3.063506e+14	1.245693e+04	4.791348e+03	2.457879e+03	0	1.359823e-03
1.100000e+08	5.783475e+13	0.000000e+00	5.159234e-01	8.750998e+14	1.741289e+15	3.046863e+14	1.238693e+04	4.772609e+03	2.448266e+03	0	1.344624e-03
1.200000e+08	5.595438e+13	0.000000e+00	5.159234e-01	8.493390e+14	1.688388e+15	3.030344e+14	1.231902e+04	4.754736e+03	2.439098e+03	0	1.329891e-03
1.300000e+08	5.416966e+13	0.000000e+00	5.159234e-01	8.248767e+14	1.638849e+15	3.013946e+14	1.225308e+04	4.737660e+03	2.430338e+03	0	1.315598e-03
1.400000e+08	5.247374e+13	0.000000e+00	5.159234e-01	8.016204e+14	1.592352e+15	2.997671e+14	1.218903e+04	4.721317e+03	2.421954e+03	0	1.301723e-03
1.500000e+08	5.086044e+13	0.000000e+00	5.159234e-01	7.794863e+14	1.548617e+15	2.981515e+14	1.212677e+04	4.705651e+03	2.413918e+03	0	1.288243e-03
1.600000e+08	4.932411e+13	0.000000e+00	5.159234e-01	7.583981e+14	1.507398e+15	2.965479e+14	1.206621e+04	4.690611e+03	2.406203e+03	0	1.275139e-03
1.700000e+08	4.785960e+13	0.000000e+00	5.159234e-01	7.382860e+14	1.468478e+15	2.949561e+14	1.200727e+04	4.676153e+03	2.398786e+03	0	1.262392e-03
1.800000e+08	4.646221e+13	0.000000e+00	5.159234e-01	7.190865e+14	1.431664e+15	2.933760e+14	1.194989e+04	4.662235e+03	2.391646e+03	0	1.249984e-03
1.900000e+08	4.512764e+13	0.000000e+00	5.159234e-01	7.007411e+14	1.396785e+15	2.918076e+14	1.189398e+04	4.648821e+03	2.384765e+03	0	1.237899e-03
2.000000e+08	4.385193e+13	0.000000e+00	5.159234e-01	6.831965e+14	1.363686e+15	2.902507e+14	1.183949e+04	4.635878e+03	2.378125e+03	0	1.226123e-03
2.100000e+08	4.263145e+13	0.000000e+00	5.159234e-01	6.664034e+14	1.332231e+15	2.887053e+14	1.178636e+04	4.623376e+03	2.371712e+03	0	1.214641e-03
2.200000e+08	4.146287e+13	0.000000e+00	5.159234e-01	6.503164e+14	1.302298e+15	2.871712e+14	1.173451e+04	4.611287e+03	2.365511e+03	0	1.203440e-03
2.300000e+08	4.034308e+13	0.000000e+00	5.159234e-01	6.348940e+14	1.273773e+15	2.856484e+14	1.168391e+04	4.599586e+03	2.359508e+03	0	1.192507e-03
2.400000e+08	3.926926e+13	0.000000e+00	5.159234e-01	6.200973e+14	1.246558e+15	2.841367e+14	1.163450e+04	4.588251e+03	2.353693e+03	0	1.181831e-03
2.500000e+08	3.823875e+13	0.000000e+00	5.159234e-01	6.058907e+14	1.220561e+15	2.826362e+14	1.158624e+04	4.577260e+03	2.348055e+03	0	1.171401e-03
2.600000e+08	3.724912e+13	0.000000e+00	5.159234e-01	5.922412e+14	1.195700e+15	2.811466e+14	1.153907e+04	4.566595e+03	2.342584e+03	0	1.161208e-03
2.700000e+08	3.629811e+13	0.000000e+00	5.159234e-01	5.791179e+14	1.171900e+15	2.796679e+14	1.149296e+04	4.556236e+03	2.337270e+03	0	1.151240e-03
2.800000e+08	3.538361e+13	0.000000e+00	5.159234e-01	5.664924e+14	1.149091e+15	2.781999e+14	1.144786e+04	4.546169e+03	2.332106e+03	0	1.141489e-03
2.900000e+08	3.450367e+13	0.000000e+00	5.159234e-01	5.543382e+14	1.127211e+15	2.767427e+14	1.140373e+04	4.536378e+03	2.327083e+03	0	1.131948e-03
3.000000e+08	3.365646e+13	0.000000e+00	5.159234e-01	5.426304e+14	1.106204e+15	2.752962e+14	1.136055e+04	4.526848e+03	2.322195e+03	0	1.122606e-03
3.100000e+08	3.284029e+13	0.000000e+00	5.159234e-01	5.313460e+14	1.086015e+15	2.738601e+14	1.131827e+04	4.517568e+03	2.317434e+03	0	1.113457e-03
3.200000e+08	3.205356e+13	0.000000e+00	5.159234e-01	5.204636e+14	1.066597e+15	2.724345e+14	1.127687e+04	4.508524e+03	2.312795e+03	0	1.104494e-03
3.300000e+08	3.129480e+13	0.000000e+00	5.159234e-01	5.099629e+14	1.047904e+15	2.710193e+14	1.123630e+04	4.499706e+03	2.308271e+03	0	1.095709e-03
3.400000e+08	3.056262e+13	0.000000e+00	5.159234e-01	4.998252e+14	1.029897e+15	2.696144e+14	1.119656e+04	4.491103e+03	2.303858e+03	0	1.087096e-03
3.500000e+08	2.985572e+13	0.000000e+00	5.159234e-01	4.900328e+14	1.012535e+15	2.682196e+14	1.115759e+04	4.482706e+03	2.299551e+03	0	1.078649e-03
3.600000e+08	2.917288e+13	0.000000e+00	5.159234e-01	4.805692e+14	9.957846e+14	2.668350e+14	1.111939e+04	4.474504e+03	2.295343e+03	0	1.070363e-03
3.700000e+08	2.851297e+13	0.000000e+00	5.159234e-01	4.714189e+14	9.796124e+14	2.654604e+14	1.108191e+04	4.466491e+03	2.291233e+03	0	1.062230e-03
3.800000e+08	2.787490e+13	0.000000e+00	5.159234e-01	4.625672e+14	9.639881e+14	2.640957e+14	1.104515e+04	4.458657e+03	2.287214e+03	0	1.054247e-03
3.900000e+08	2.725768e+13	0.000000e+00	5.159234e-01	4.540006e+14	9.488834e+14	2.627409e+14	1.100907e+04	4.450995e+03	2.283283e+03	0	1.046407e-03
4.000000e+08	2.666034e+13	0.000000e+00	5.159234e-01	4.457060e+14	9.342719e+14	2.613959e+14	1.097366e+04	4.443498e+03	2.279438e+03	0	1.038707e-03
4.100000e+08	2.608201e+13	0.000000e+00	5.159234e-01	4.376713e+14	9.201290e+14	2.600606e+14	1.093889e+04	4.436159e+03	2.275673e+03	0	1.031141e-03
4.200000e+08	2.552183e+13	0.000000e+00	5.159234e-01	4.298851e+14	9.064318e+14	2.587349e+14	1.090474e+04	4.428973e+03	2.271986e+03	0	1.023706e-03
4.300000e+08	2.497902e+13	0.000000e+00	5.159234e-01	4.223366e+14	8.931588e+14	2.574187e+14	1.087120e+04	4.421932e+03	2.268375e+03	0	1.016396e-03
4.400000e+08	2.445282e+13	0.000000e+00	5.159234e-01	4.150156e+14	8.802900e+14	2.561121e+14	1.083824e+04	4.415033e+03	2.264835e+03	0	1.009208e-03
4.500000e+08	2.394252e+13	0.000000e+00	5.159234e-01	4.079124e+14	8.678065e+14	2.548148e+14	1.080585e+04	4.408268e+03	2.261365e+03	0	1.002139e-03
4.600000e+08	2.344745e+13	0.000000e+00	5.159234e-01	4.010179e+14	8.556907e+14	2.535268e+14	1.077401e+04	4.401634e+03	2.257962e+03	0	9.951833e-04
4.700000e+08	2.296699e+13	0.000000e+00	5.159234e-01	3.943235e+14	8.439260e+14	2.522481e+14	1.074271e+04	4.395125e+03	2.254623e+03	0	9.883389e-04
4.800000e+08	2.250053e+13	0.000000e+00	5.159234e-01	3.878210e+14	8.324969e+14	2.509785e+14	1.071192e+04	4.388737e+03	2.251346e+03	0	9.816019e-04
4.900000e+08	2.204750e+13	0.000000e+00	5.159234e-01	3.815027e+14	8.213887e+14	2.497180e+14	1.068164e+04	4.382467e+03	2.248130e+03	0	9.749693e-04
5.000000e+08	2.160736e+13	0.000000e+00	5.159234e-01	3.753612e+14	8.105875e+14	2.484665e+14	1.065186e+04	4.376309e+03	2.244971e+03	0	9.684378e-04
5.100000e+08	2.117960e+13	0.000000e+00	5.159234e-01	3.693896e+14	8.000804e+14	2.472240e+14	1.062254e+04	4.370260e+03	2.241868e+03	0	9.620046e-04
5.200000e+08	2.076375e+13	0.000000e+00	5.159234e-01	3.635813e+14	7.898552e+14	2.459904e+14	1.059370e+04	4.364316e+03	2.238819e+03	0	9.556666e-04
5.300000e+08	2.035933e+13	0.000000e+00	5.159234e-01	3.579300e+14	7.799001e+14	2.447655e+14	1.056530e+04	4.358474e+03	2.235822e+03	0	9.494213e-04
5.400000e+08	1.996590e+13	0.000000e+00	5.159234e-01	3.524297e+14	7.702042e+14	2.435493e+14	1.053734e+04	4.352731e+03	2.232876e+03	0	9.432660e-04
5.500000e+08	1.958306e+13	0.000000e+00	5.159234e-01	3.470747e+14	7.607572e+14	2.423419e+14	1.050981e+04	4.347083e+03	2.229978e+03	0	9.371981e-04
5.600000e+08	1.921041e+13	0.000000e+00	5.159234e-01	3.418596e+14	7.515493e+14	2.411430e+14	1.048270e+04	4.341527e+03	2.227128e+03	0	9.312152e-04
5.700000e+08	1.884756e+13	0.000000e+00	5.159234e-01	3.367793e+14	7.425712e+14	2.399526e+14	1.045599e+04	4.336061e+03	2.224324e+03	0	9.253149e-04
5.800000e+08	1.849416e+13	0.000000e+00	5.159234e-01	3.318289e+14	7.338140e+14	2.387706e+14	1.042968e+04	4.330681e+03	2.221565e+03	0	9.194951e-04
5.900000e+08	1.814987e+13	0.000000e+00	5.159234e-01	3.270037e+14	7.252694e+14	2.375971e+14	1.040375e+04	4.325386e+03	2.218848e+03	0	9.137534e-04
6.000000e+08	1.781436e+13	0.000000e+00	5.159234e-01	3.222992e+14	7.169295e+14	2.364318e+14	1.037820e+04	4.320172e+03	2.216174e+03	0	9.080879e-04
6.100000e+08	1.748731e+13	0.000000e+00	5.159234e-01	3.177113e+14	7.087867e+14	2.352748e+14	1.035301e+04	4.315037e+03	2.213540e+03	0	9.024965e-04
6.200000e+08	1.716844e+13	0.000000e+00	5.159234e-01	3.132357e+14	7.008338e+14	2.341260e+14	1.032818e+04	4.309980e+03	2.210945e+03	0	8.969773e-04
6.300000e+08	1.685745e+13	0.000000e+00	5.159234e-01	3.088687e+14	6.930640e+14	2.329852e+14	1.030369e+04	4.304997e+03	2.208389e+03	0	8.915283e-04
6.400000e+08	1.655407e+13	0.000000e+00	5.159234e-01	3.046065e+14	6.854709e+14	2.318525e+14	1.027955e+04	4.300086e+03	2.205870e+03	0	8.861477e-04
6.500000e+08	1.625805e+13	0.000000e+00	5.159234e-01	3.004456e+14	6.780481e+14	2.307278e+14	1.025574e+04	4.295246e+03	2.203387e+03	0	8.808339e-04
6.600000e+08	1.596914e+13	0.000000e+00	5.159234e-01	2.963827e+14	6.707899e+14	2.296110e+14	1.023225e+04	4.290475e+03	2.200940e+03	0	8.755850e-04
6.700000e+08	1.568709e+13	0.000000e+00	5.159234e-01	2.924143e+14	6.636906e+14	2.285021e+14	1.020908e+04	4.285771e+03	2.198526e+03	0	8.703996e-04
6.800000e+08	1.541169e+13	0.000000e+00	5.159234e-01	2.885375e+14	6.567449e+14	2.274010e+14	1.018622e+04	4.281131e+03	2.196146e+03	0	8.652759e-04
6.900000e+08	1.514271e+13	0.000000e+00	5.159234e-01	2.847493e+14	6.499475e+14	2.263075e+14	1.016366e+04	4.276555e+03	2.193799e+03	0	8.602125e-04
7.000000e+08	1.487995e+13	0.000000e+00	5.159234e-01	2.810468e+14	6.432937e+14	2.252218e+14	1.014139e+04	4.272040e+03	2.191483e+03	0	8.552078e-04
7.100000e+08	1.462320e+13	0.000000e+00	5.159234e-01	2.774273e+14	6.367788e+14	2.241436e+14	1.011941e+04	4.267585e+03	2.189197e+03	0	8.502605e-04
7.200000e+08	1.437228e+13	0.000000e+00	5.159234e-01	2.738881e+14	6.303981e+14	2.230730e+14	1.009772e+04	4.263188e+03	2.186942e+03	0	8.453691e-04
7.300000e+08	1.412699e+13	0.000000e+00	5.159234e-01	2.704268e+14	6.241476e+14	2.220099e+14	1.007630e+04	4.258849e+03	2.184716e+03	0	8.405323e-04
7.400000e+08	1.388717e+13	0.000000e+00	5.159234e-01	2.670409e+14	6.180231e+14	2.209541e+14	1.005515e+04	4.254565e+03	2.182518e+03	0	8.357488e-04
7.500000e+08	1.365265e+13	0.000000e+00	5.159234e-01	2.637282e+14	6.120206e+14	2.199058e+14	1.003426e+04	4.250335e+03	2.180348e+03	0	8.310174e-04
7.600000e+08	1.342325e+13	0.000000e+00	5.159234e-01	2.604863e+14	6.061364e+14	2.188647e+14	1.001363e+04	4.246158e+03	2.178206e+03	0	8.263368e-04
7.700000e+08	1.319883e+13	0.000000e+00	5.159234e-01	2.573132e+14	6.003669e+14	2.178309e+14	9.993256e+03	4.242032e+03	2.176089e+03	0	8.217058e-04
7.800000e+08	1.297924e+13	0.000000e+00	5.159234e-01	2.542067e+14	5.947086e+14	2.168043e+14	9.973127e+03	4.237957e+03	2.173999e+03	0	8.171233e-04
7.900000e+08	1.276432e+13	0.000000e+00	5.159234e-01	2.511650e+14	5.891582e+14	2.157848e+14	9.953240e+03	4.233931e+03	2.171933e+03	0	8.125881e-04
8.000000e+08	1.255395e+13	0.000000e+00	5.159234e-01	2.481860e+14	5.837126e+14	2.147724e+14	9.933589e+03	4.229953e+03	2.169893e+03	0	8.080992e-04
8.100000e+08	1.234799e+13	0.000000e+00	5.159234e-01	2.452681e+14	5.783687e+14	2.137670e+14	9.914171e+03	4.226021e+03	2.167876e+03	0	8.036555e-04
8.200000e+08	1.214631e+13	0.000000e+00	5.159234e-01	2.424094e+14	5.731234e+14	2.127685e+14	9.894981e+03	4.222136e+03	2.165883e+03	0	7.992561e-04
8.300000e+08	1.194878e+13	0.000000e+00	5.159234e-01	2.396082e+14	5.679741e+14	2.117770e+14	9.876013e+03	4.218295e+03	2.163912e+03	0	7.948998e-04
8.400000e+08	1.175529e+13	0.000000e+00	5.159234e-01	2.368629e+14	5.629179e+14	2.107923e+14	9.857263e+03	4.214498e+03	2.161964e+03	0	7.905857e-04
8.500000e+08	1.156572e+13	0.000000e+00	5.159234e-01	2.341719e+14	5.579524e+14	2.098144e+14	9.838728e+03	4.210743e+03	2.160039e+03	0	7.863130e-04
8.600000e+08	1.137997e+13	0.000000e+00	5.159234e-01	2.315337e+14	5.530749e+14	2.088432e+14	9.820402e+03	4.207031e+03	2.158134e+03	0	7.820806e-04
8.700000e+08	1.119792e+13	0.000000e+00	5.159234e-01	2.289468e+14	5.482830e+14	2.078787e+14	9.802282e+03	4.203359e+03	2.156250e+03	0	7.778877e-04
8.800000e+08	1.101947e+13	0.000000e+00	5.159234e-01	2.264099e+14	5.435745e+14	2.069209e+14	9.784363e+03	4.199727e+03	2.154387e+03	0	7.737335e-04
8.900000e+08	1.084452e+13	0.000000e+00	5.159234e-01	2.239215e+14	5.389470e+14	2.059696e+14	9.766643e+03	4.196135e+03	2.152544e+03	0	7.696170e-04
9.000000e+08	1.067298e+13	0.000000e+00	5.159234e-01	2.214804e+14	5.343984e+14	2.050249e+14	9.749116e+03	4.192580e+03	2.150721e+03	0	7.655375e-04
9.100000e+08	1.050476e+13	0.000000e+00	5.159234e-01	2.190853e+14	5.299266e+14	2.040866e+14	9.731780e+03	4.189063e+03	2.148917e+03	0	7.614942e-04
9.200000e+08	1.033977e+13	0.000000e+00	5.159234e-01	2.167349e+14	5.255296e+14	2.031548e+14	9.714630e+03	4.185583e+03	2.147132e+03	0	7.574862e-04
9.300000e+08	1.017791e+13	0.000000e+00	5.159234e-01	2.144281e+14	5.212055e+14	2.022293e+14	9.697664e+03	4.182139e+03	2.145365e+03	0	7.535129e-04
9.400000e+08	1.001911e+13	0.000000e+00	5.159234e-01	2.121637e+14	5.169524e+14	2.013102e+14	9.680878e+03	4.178730e+03	2.143616e+03	0	7.495735e-04
9.500000e+08	9.863286e+12	0.000000e+00	5.159234e-01	2.099407e+14	5.127685e+14	2.003973e+14	9.664268e+03	4.175356e+03	2.141885e+03	0	7.456672e-04
9.600000e+08	9.710362e+12	0.000000e+00	5.159234e-01	2.077580e+14	5.086520e+14	1.994907e+14	9.647832e+03	4.172016e+03	2.140172e+03	0	7.417934e-04
9.700000e+08	9.560263e+12	0.000000e+00	5.159234e-01	2.056145e+14	5.046013e+14	1.985902e+14	9.631566e+03	4.168708e+03	2.138475e+03	0	7.379514e-04
9.800000e+08	9.412915e+12	0.000000e+00	5.159234e-01	2.035092e+14	5.006147e+14	1.976959e+14	9.615467e+03	4.165434e+03	2.136795e+03	0	7.341406e-04
9.900000e+08	9.268248e+12	0.000000e+00	5.159234e-01	2.014412e+14	4.966906e+14	1.968076e+14	9.599533e+03	4.162191e+03	2.135132e+03	0	7.303601e-04
1.000000e+09	9.126196e+12	0.000000e+00	5.159234e-01	1.994096e+14	4.928276e+14	1.959254e+14	9.583760e+03	4.158979e+03	2.133484e+03	0	7.266096e-04
1.010000e+09	8.986691e+12	0.000000e+00	5.159234e-01	1.974134e+14	4.890241e+14	1.950492e+14	9.568145e+03	4.155798e+03	2.131853e+03	0	7.228882e-04
1.020000e+09	8.849671e+12	0.000000e+00	5.159234e-01	1.954518e+14	4.852788e+14	1.941789e+14	9.552687e+03	4.152647e+03	2.130236e+03	0	7.191954e-04
1.030000e+09	8.715074e+12	0.000000e+00	5.159234e-01	1.935238e+14	4.815902e+14	1.933145e+14	9.537381e+03	4.149526e+03	2.128635e+03	0	7.155306e-04
1.040000e+09	8.582841e+12	0.000000e+00	5.159234e-01	1.916288e+14	4.779571e+14	1.924559e+14	9.522226e+03	4.146433e+03	2.127049e+03	0	7.118932e-04
1.050000e+09	8.452913e+12	0.000000e+00	5.159234e-01	1.897660e+14	4.743780e+14	1.916031e+14	9.507218e+03	4.143369e+03	2.125477e+03	0	7.082827e-04
1.060000e+09	8.325235e+12	0.000000e+00	5.159234e-01	1.879344e+14	4.708519e+14	1.907561e+14	9.492356e+03	4.140333e+03	2.123919e+03	0	7.046985e-04
1.070000e+09	8.199754e+12	0.000000e+00	5.159234e-01	1.861334e+14	4.673774e+14	1.899148e+14	9.477637e+03	4.137325e+03	2.122376e+03	0	7.011401e-04
1.080000e+09	8.076415e+12	0.000000e+00	5.159234e-01	1.843624e+14	4.639534e+14	1.890791e+14	9.463059e+03	4.134343e+03	2.120846e+03	0	6.976068e-04
1.090000e+09	7.955169e+12	0.000000e+00	5.159234e-01	1.826204e+14	4.605788e+14	1.882491e+14	9.448619e+03	4.131388e+03	2.119330e+03	0	6.940983e-04
1.100000e+09	7.835967e+12	0.000000e+00	5.159234e-01	1.809070e+14	4.572524e+14	1.874246e+14	9.434315e+03	4.128458e+03	2.117828e+03	0	6.906140e-04
1.110000e+09	7.718760e+12	0.000000e+00	5.159234e-01	1.792214e+14	4.539732e+14	1.866057e+14	9.420145e+03	4.125555e+03	2.116338e+03	0	6.871534e-04
1.120000e+09	7.603502e+12	0.000000e+00	5.159234e-01	1.775630e+14	4.507402e+14	1.857922e+14	9.406106e+03	4.122676e+03	2.114861e+03	0	6.837160e-04
1.130000e+09	7.490148e+12	0.000000e+00	5.159234e-01	1.759312e+14	4.475523e+14	1.849842e+14	9.392197e+03	4.119822e+03	2.113397e+03	0	6.803013e-04
1.140000e+09	7.378654e+12	0.000000e+00	5.159234e-01	1.743254e+14	4.444086e+14	1.841816e+14	9.378415e+03	4.116992e+03	2.111946e+03	0	6.769089e-04
1.150000e+09	7.268978e+12	0.000000e+00	5.159234e-01	1.727449e+14	4.413081e+14	1.833843e+14	9.364759e+03	4.114186e+03	2.110506e+03	0	6.735383e-04
1.160000e+09	7.161079e+12	0.000000e+00	5.159234e-01	1.711892e+14	4.382499e+14	1.825924e+14	9.351226e+03	4.111403e+03	2.109079e+03	0	6.701891e-04
1.170000e+09	7.054917e+12	0.000000e+00	5.159234e-01	1.696579e+14	4.352331e+14	1.818058e+14	9.337814e+03	4.108643e+03	2.107663e+03	0	6.668607e-04
1.180000e+09	6.950453e+12	0.000000e+00	5.159234e-01	1.681502e+14	4.322568e+14	1.810243e+14	9.324522e+03	4.105906e+03	2.106259e+03	0	6.635529e-04
1.190000e+09	6.847649e+12	0.000000e+00	5.159234e-01	1.666658e+14	4.293203e+14	1.802481e+14	9.311348e+03	4.103191e+03	2.104866e+03	0	6.602651e-04
1.200000e+09	6.746469e+12	0.000000e+00	5.159234e-01	1.652040e+14	4.264226e+14	1.794770e+14	9.298290e+03	4.100499e+03	2.103485e+03	0	6.569970e-04
1.210000e+09	6.646878e+12	0.000000e+00	5.159234e-01	1.637645e+14	4.235630e+14	1.787111e+14	9.285346e+03	4.097827e+03	2.102114e+03	0	6.537481e-04
1.220000e+09	6.548839e+12	0.000000e+00	5.159234e-01	1.623467e+14	4.207407e+14	1.779502e+14	9.272515e+03	4.095177e+03	2.100755e+03	0	6.505180e-04
1.230000e+09	6.452321e+12	0.000000e+00	5.159234e-01	1.609502e+14	4.179550e+14	1.771944e+14	9.259794e+03	4.092548e+03	2.099406e+03	0	6.473063e-04
1.240000e+09	6.357290e+12	0.000000e+00	5.159234e-01	1.595745e+14	4.152051e+14	1.764435e+14	9.247182e+03	4.089939e+03	2.098068e+03	0	6.441127e-04
1.250000e+09	6.263714e+12	0.000000e+00	5.159234e-01	1.582192e+14	4.124903e+14	1.756976e+14	9.234678e+03	4.087350e+03	2.096740e+03	0	6.409367e-04
1.260000e+09	6.171563e+12	0.000000e+00	5.159234e-01	1.568839e+14	4.098099e+14	1.749566e+14	9.222280e+03	4.084782e+03	2.095422e+03	0	6.377781e-04
1.270000e+09	6.080807e+12	0.000000e+00	5.159234e-01	1.555680e+14	4.071633e+14	1.742205e+14	9.209986e+03	4.082232e+03	2.094115e+03	0	6.346363e-04
1.280000e+09	5.991415e+12	0.000000e+00	5.159234e-01	1.542714e+14	4.045498e+14	1.734893e+14	9.197795e+03	4.079703e+03	2.092817e+03	0	6.315111e-04
1.290000e+09	5.903361e+12	0.000000e+00	5.159234e-01	1.529934e+14	4.019687e+14	1.727628e+14	9.185705e+03	4.077192e+03	2.091529e+03	0	6.284021e-04
1.300000e+09	5.816615e+12	0.000000e+00	5.159234e-01	1.517338e+14	3.994195e+14	1.720411e+14	9.173715e+03	4.074700e+03	2.090250e+03	0	6.253089e-04
1.310000e+09	5.731151e+12	0.000000e+00	5.159234e-01	1.504922e+14	3.969014e+14	1.713242e+14	9.161823e+03	4.072226e+03	2.088981e+03	0	6.222312e-04
1.320000e+09	5.646943e+12	0.000000e+00	5.159234e-01	1.492682e+14	3.944141e+14	1.706119e+14	9.150029e+03	4.069770e+03	2.087722e+03	0	6.191687e-04
1.330000e+09	5.563966e+12	0.000000e+00	5.159234e-01	1.480615e+14	3.919567e+14	1.699043e+14	9.138330e+03	4.067333e+03	2.086471e+03	0	6.161210e-04
1.340000e+09	5.482193e+12	0.000000e+00	5.159234e-01	1.468717e+14	3.895289e+14	1.692014e+14	9.126726e+03	4.064912e+03	2.085230e+03	0	6.130877e-04
1.350000e+09	5.401602e+12	0.000000e+00	5.159234e-01	1.456985e+14	3.871301e+14	1.685030e+14	9.115214e+03	4.062510e+03	2.083997e+03	0	6.100686e-04
1.360000e+09	5.322168e+12	0.000000e+00	5.159234e-01	1.445415e+14	3.847596e+14	1.678091e+14	9.103794e+03	4.060124e+03	2.082773e+03	0	6.070634e-04
