#t		Qconv[W]	Ri[Rp]		R*[Rp]		Qc[W]		Qm[W]		Qr[W]		Tcmb[K]		Tl[K]		Tup[K]		RiFlag		Bs[T]
0.000000e+00	1.031479e+14	0.000000e+00	5.159237e-01	1.439474e+15	2.763805e+15	3.552708e+14	1.411034e+04	5.250556e+03	2.636922e+03	0	1.624819e-03
1.000000e+07	9.907612e+13	0.000000e+00	5.159237e-01	1.387163e+15	2.650057e+15	3.533023e+14	1.401114e+04	5.222488e+03	2.622826e+03	0	1.603151e-03
2.000000e+07	9.525830e+13	0.000000e+00	5.159237e-01	1.338089e+15	2.545900e+15	3.513486e+14	1.391551e+04	5.196105e+03	2.609576e+03	0	1.582289e-03
3.000000e+07	9.167224e+13	0.000000e+00	5.159237e-01	1.291970e+15	2.450138e+15	3.494094e+14	1.382323e+04	5.171228e+03	2.597082e+03	0	1.562179e-03
4.000000e+07	8.829821e+13	0.000000e+00	5.159237e-01	1.248555e+15	2.361770e+15	3.474848e+14	1.373409e+04	5.147707e+03	2.585270e+03	0	1.542774e-03
5.000000e+07	8.511865e+13	0.000000e+00	5.159237e-01	1.207620e+15	2.279948e+15	3.455745e+14	1.364791e+04	5.125411e+03	2.574072e+03	0	1.524029e-03
6.000000e+07	8.211787e+13	0.000000e+00	5.159237e-01	1.168968e+15	2.203950e+15	3.436784e+14	1.356453e+04	5.104226e+03	2.563433e+03	0	1.505905e-03
7.000000e+07	7.928181e+13	0.000000e+00	5.159237e-01	1.132418e+15	2.133160e+15	3.417965e+14	1.348380e+04	5.084053e+03	2.553301e+03	0	1.488365e-03
8.000000e+07	7.659784e+13	0.000000e+00	5.159237e-01	1.097810e+15	2.067043e+15	3.399285e+14	1.340556e+04	5.064805e+03	2.543635e+03	0	1.471376e-03
9.000000e+07	7.405456e+13	0.000000e+00	5.159237e-01	1.064999e+15	2.005140e+15	3.380744e+14	1.332969e+04	5.046406e+03	2.534394e+03	0	1.454908e-03
1.000000e+08	7.164169e+13	0.000000e+00	5.159237e-01	1.033854e+15	1.947048e+15	3.362341e+14	1.325606e+04	5.028787e+03	2.525546e+03	0	1.438932e-03
1.100000e+08	6.934990e+13	0.000000e+00	5.159237e-01	1.004257e+15	1.892416e+15	3.344075e+14	1.318457e+04	5.011889e+03	2.517059e+03	0	1.423421e-03
1.200000e+08	6.717071e+13	0.000000e+00	5.159237e-01	9.760988e+14	1.840935e+15	3.325944e+14	1.311511e+04	4.995657e+03	2.508908e+03	0	1.408353e-03
1.300000e+08	6.509641e+13	0.000000e+00	5.159237e-01	9.492825e+14	1.792331e+15	3.307947e+14	1.304758e+04	4.980044e+03	2.501067e+03	0	1.393704e-03
1.400000e+08	6.311998e+13	0.000000e+00	5.159237e-01	9.237181e+14	1.746365e+15	3.290084e+14	1.298188e+04	4.965007e+03	2.493514e+03	0	1.379454e-03
1.500000e+08	6.123498e+13	0.000000e+00	5.159237e-01	8.993236e+14	1.702820e+15	3.272352e+14	1.291794e+04	4.950506e+03	2.486232e+03	0	1.365583e-03
1.600000e+08	5.943553e+13	0.000000e+00	5.159237e-01	8.760241e+14	1.661506e+15	3.254752e+14	1.285568e+04	4.936506e+03	2.479201e+03	0	1.352073e-03
1.700000e+08	5.771621e+13	0.000000e+00	5.159237e-01	8.537508e+14	1.622250e+15	3.237281e+14	1.279501e+04	4.922975e+03	2.472405e+03	0	1.338908e-03
1.800000e+08	5.607208e+13	0.000000e+00	5.159237e-01	8.324402e+14	1.584898e+15	3.219939e+14	1.273588e+04	4.909884e+03	2.465831e+03	0	1.326072e-03
1.900000e+08	5.449855e+13	0.000000e+00	5.159237e-01	8.120343e+14	1.549310e+15	3.202725e+14	1.267820e+04	4.897208e+03	2.459464e+03	0	1.313550e-03
2.000000e+08	5.299141e+13	0.000000e+00	5.159237e-01	7.924791e+14	1.515363e+15	3.185638e+14	1.262193e+04	4.884920e+03	2.453293e+03	0	1.301328e-03
2.100000e+08	5.154676e+13	0.000000e+00	5.159237e-01	7.737250e+14	1.482941e+15	3.168676e+14	1.256701e+04	4.873000e+03	2.447307e+03	0	1.289393e-03
2.200000e+08	5.016100e+13	0.000000e+00	5.159237e-01	7.557261e+14	1.451942e+15	3.151839e+14	1.251337e+04	4.861427e+03	2.441495e+03	0	1.277733e-03
2.300000e+08	4.883080e+13	0.000000e+00	5.159237e-01	7.384397e+14	1.422272e+15	3.135125e+14	1.246098e+04	4.850182e+03	2.435847e+03	0	1.266338e-03
2.400000e+08	4.755306e+13	0.000000e+00	5.159237e-01	7.218265e+14	1.393844e+15	3.118534e+14	1.240977e+04	4.839248e+03	2.430356e+03	0	1.255195e-03
2.500000e+08	4.632490e+13	0.000000e+00	5.159237e-01	7.058497e+14	1.366580e+15	3.102064e+14	1.235971e+04	4.828608e+03	2.425013e+03	0	1.244294e-03
2.600000e+08	4.514366e+13	0.000000e+00	5.159237e-01	6.904751e+14	1.340409e+15	3.085715e+14	1.231074e+04	4.818249e+03	2.419810e+03	0	1.233627e-03
2.700000e+08	4.400684e+13	0.000000e+00	5.159237e-01	6.756710e+14	1.315264e+15	3.069486e+14	1.226284e+04	4.808156e+03	2.414741e+03	0	1.223183e-03
2.800000e+08	4.291212e+13	0.000000e+00	5.159237e-01	6.614077e+14	1.291085e+15	3.053375e+14	1.221595e+04	4.798317e+03	2.409800e+03	0	1.212956e-03
2.900000e+08	4.185735e+13	0.000000e+00	5.159237e-01	6.476577e+14	1.267815e+15	3.037381e+14	1.217005e+04	4.788720e+03	2.404980e+03	0	1.202935e-03
3.000000e+08	4.084048e+13	0.000000e+00	5.159237e-01	6.343949e+14	1.245404e+15	3.021504e+14	1.212510e+04	4.779353e+03	2.400276e+03	0	1.193114e-03
3.100000e+08	3.985963e+13	0.000000e+00	5.159237e-01	6.215953e+14	1.223803e+15	3.005743e+14	1.208106e+04	4.770207e+03	2.395682e+03	0	1.183485e-03
3.200000e+08	3.891304e+13	0.000000e+00	5.159237e-01	6.092362e+14	1.202968e+15	2.990097e+14	1.203790e+04	4.761271e+03	2.391195e+03	0	1.174041e-03
3.300000e+08	3.799903e+13	0.000000e+00	5.159237e-01	5.972963e+14	1.182858e+15	2.974564e+14	1.199559e+04	4.752537e+03	2.386808e+03	0	1.164776e-03
3.400000e+08	3.711606e+13	0.000000e+00	5.159237e-01	5.857557e+14	1.163435e+15	2.959144e+14	1.195411e+04	4.743996e+03	2.382519e+03	0	1.155683e-03
3.500000e+08	3.626265e+13	0.000000e+00	5.159237e-01	5.745958e+14	1.144663e+15	2.943836e+14	1.191343e+04	4.735640e+03	2.378322e+03	0	1.146757e-03
3.600000e+08	3.543743e+13	0.000000e+00	5.159237e-01	5.637989e+14	1.126510e+15	2.928639e+14	1.187351e+04	4.727462e+03	2.374215e+03	0	1.137991e-03
3.700000e+08	3.463912e+13	0.000000e+00	5.159237e-01	5.533484e+14	1.108945e+15	2.913552e+14	1.183434e+04	4.719454e+03	2.370193e+03	0	1.129381e-03
3.800000e+08	3.386649e+13	0.000000e+00	5.159237e-01	5.432289e+14	1.091938e+15	2.898574e+14	1.179590e+04	4.711610e+03	2.366254e+03	0	1.120921e-03
3.900000e+08	3.311840e+13	0.000000e+00	5.159237e-01	5.334256e+14	1.075464e+15	2.883705e+14	1.175815e+04	4.703924e+03	2.362394e+03	0	1.112606e-03
4.000000e+08	3.239376e+13	0.000000e+00	5.159237e-01	5.239247e+14	1.059496e+15	2.868942e+14	1.172108e+04	4.696390e+03	2.358610e+03	0	1.104431e-03
4.100000e+08	3.169156e+13	0.000000e+00	5.159237e-01	5.147130e+14	1.044011e+15	2.854287e+14	1.168466e+04	4.689002e+03	2.354900e+03	0	1.096393e-03
4.200000e+08	3.101082e+13	0.000000e+00	5.159237e-01	5.057783e+14	1.028988e+15	2.839737e+14	1.164888e+04	4.681754e+03	2.351260e+03	0	1.088485e-03
4.300000e+08	3.035065e+13	0.000000e+00	5.159237e-01	4.971089e+14	1.014405e+15	2.825291e+14	1.161372e+04	4.674643e+03	2.347688e+03	0	1.080706e-03
4.400000e+08	2.971017e+13	0.000000e+00	5.159237e-01	4.886937e+14	1.000242e+15	2.810950e+14	1.157916e+04	4.667662e+03	2.344182e+03	0	1.073050e-03
4.500000e+08	2.908857e+13	0.000000e+00	5.159237e-01	4.805223e+14	9.864816e+14	2.796712e+14	1.154518e+04	4.660808e+03	2.340740e+03	0	1.065514e-03
4.600000e+08	2.848508e+13	0.000000e+00	5.159237e-01	4.725847e+14	9.731062e+14	2.782575e+14	1.151176e+04	4.654076e+03	2.337359e+03	0	1.058093e-03
4.700000e+08	2.789896e+13	0.000000e+00	5.159237e-01	4.648716e+14	9.600995e+14	2.768541e+14	1.147890e+04	4.647462e+03	2.334038e+03	0	1.050786e-03
4.800000e+08	2.732953e+13	0.000000e+00	5.159237e-01	4.573741e+14	9.474460e+14	2.754607e+14	1.144656e+04	4.640962e+03	2.330773e+03	0	1.043588e-03
4.900000e+08	2.677612e+13	0.000000e+00	5.159237e-01	4.500837e+14	9.351312e+14	2.740772e+14	1.141475e+04	4.634573e+03	2.327565e+03	0	1.036496e-03
5.000000e+08	2.623811e+13	0.000000e+00	5.159237e-01	4.429923e+14	9.231413e+14	2.727037e+14	1.138344e+04	4.628290e+03	2.324409e+03	0	1.029506e-03
5.100000e+08	2.571490e+13	0.000000e+00	5.159237e-01	4.360924e+14	9.114632e+14	2.713399e+14	1.135262e+04	4.622112e+03	2.321306e+03	0	1.022617e-03
5.200000e+08	2.520593e+13	0.000000e+00	5.159237e-01	4.293768e+14	9.000847e+14	2.699859e+14	1.132228e+04	4.616033e+03	2.318254e+03	0	1.015826e-03
5.300000e+08	2.471066e+13	0.000000e+00	5.159237e-01	4.228384e+14	8.889940e+14	2.686416e+14	1.129240e+04	4.610052e+03	2.315250e+03	0	1.009128e-03
5.400000e+08	2.422858e+13	0.000000e+00	5.159237e-01	4.164707e+14	8.781801e+14	2.673068e+14	1.126298e+04	4.604166e+03	2.312294e+03	0	1.002523e-03
5.500000e+08	2.375919e+13	0.000000e+00	5.159237e-01	4.102675e+14	8.676325e+14	2.659815e+14	1.123400e+04	4.598370e+03	2.309383e+03	0	9.960063e-04
5.600000e+08	2.330205e+13	0.000000e+00	5.159237e-01	4.042228e+14	8.573412e+14	2.646657e+14	1.120544e+04	4.592664e+03	2.306517e+03	0	9.895769e-04
5.700000e+08	2.285669e+13	0.000000e+00	5.159237e-01	3.983309e+14	8.472967e+14	2.633592e+14	1.117731e+04	4.587044e+03	2.303695e+03	0	9.832320e-04
5.800000e+08	2.242271e+13	0.000000e+00	5.159237e-01	3.925863e+14	8.374900e+14	2.620619e+14	1.114958e+04	4.581508e+03	2.300914e+03	0	9.769693e-04
5.900000e+08	2.199969e+13	0.000000e+00	5.159237e-01	3.869840e+14	8.279126e+14	2.607739e+14	1.112225e+04	4.576053e+03	2.298175e+03	0	9.707866e-04
6.000000e+08	2.158726e+13	0.000000e+00	5.159237e-01	3.815189e+14	8.185561e+14	2.594950e+14	1.109531e+04	4.570677e+03	2.295475e+03	0	9.646818e-04
6.100000e+08	2.118505e+13	0.000000e+00	5.159237e-01	3.761864e+14	8.094130e+14	2.582251e+14	1.106875e+04	4.565379e+03	2.292814e+03	0	9.586528e-04
6.200000e+08	2.079270e+13	0.000000e+00	5.159237e-01	3.709818e+14	8.004757e+14	2.569642e+14	1.104256e+04	4.560155e+03	2.290191e+03	0	9.526978e-04
6.300000e+08	2.040988e+13	0.000000e+00	5.159237e-01	3.659010e+14	7.917372e+14	2.557122e+14	1.101673e+04	4.555004e+03	2.287604e+03	0	9.468147e-04
6.400000e+08	2.003626e+13	0.000000e+00	5.159237e-01	3.609397e+14	7.831908e+14	2.544690e+14	1.099125e+04	4.549924e+03	2.285053e+03	0	9.410018e-04
6.500000e+08	1.967155e+13	0.000000e+00	5.159237e-01	3.560940e+14	7.748299e+14	2.532346e+14	1.096611e+04	4.544913e+03	2.282536e+03	0	9.352572e-04
6.600000e+08	1.931545e+13	0.000000e+00	5.159237e-01	3.513601e+14	7.666485e+14	2.520089e+14	1.094131e+04	4.539970e+03	2.280053e+03	0	9.295793e-04
6.700000e+08	1.896766e+13	0.000000e+00	5.159237e-01	3.467344e+14	7.586407e+14	2.507918e+14	1.091684e+04	4.535092e+03	2.277604e+03	0	9.239664e-04
6.800000e+08	1.862794e+13	0.000000e+00	5.159237e-01	3.422134e+14	7.508008e+14	2.495832e+14	1.089269e+04	4.530278e+03	2.275186e+03	0	9.184168e-04
6.900000e+08	1.829601e+13	0.000000e+00	5.159237e-01	3.377938e+14	7.431234e+14	2.483831e+14	1.086885e+04	4.525526e+03	2.272799e+03	0	9.129289e-04
7.000000e+08	1.797162e+13	0.000000e+00	5.159237e-01	3.334723e+14	7.356034e+14	2.471914e+14	1.084532e+04	4.520835e+03	2.270444e+03	0	9.075014e-04
7.100000e+08	1.765455e+13	0.000000e+00	5.159237e-01	3.292460e+14	7.282359e+14	2.460081e+14	1.082209e+04	4.516204e+03	2.268117e+03	0	9.021327e-04
7.200000e+08	1.734455e+13	0.000000e+00	5.159237e-01	3.251118e+14	7.210161e+14	2.448331e+14	1.079915e+04	4.511630e+03	2.265820e+03	0	8.968213e-04
7.300000e+08	1.704142e+13	0.000000e+00	5.159237e-01	3.210669e+14	7.139395e+14	2.436662e+14	1.077650e+04	4.507112e+03	2.263552e+03	0	8.915660e-04
7.400000e+08	1.674494e+13	0.000000e+00	5.159237e-01	3.171087e+14	7.070018e+14	2.425075e+14	1.075413e+04	4.502650e+03	2.261311e+03	0	8.863653e-04
7.500000e+08	1.645491e+13	0.000000e+00	5.159237e-01	3.132344e+14	7.001987e+14	2.413569e+14	1.073203e+04	4.498242e+03	2.259097e+03	0	8.812180e-04
7.600000e+08	1.617113e+13	0.000000e+00	5.159237e-01	3.094417e+14	6.935263e+14	2.402143e+14	1.071021e+04	4.493886e+03	2.256909e+03	0	8.761228e-04
7.700000e+08	1.589342e+13	0.000000e+00	5.159237e-01	3.057280e+14	6.869807e+14	2.390796e+14	1.068864e+04	4.489582e+03	2.254748e+03	0	8.710785e-04
7.800000e+08	1.562159e+13	0.000000e+00	5.159237e-01	3.020911e+14	6.805583e+14	2.379529e+14	1.066734e+04	4.485328e+03	2.252611e+03	0	8.660839e-04
7.900000e+08	1.535548e+13	0.000000e+00	5.159237e-01	2.985287e+14	6.742554e+14	2.368339e+14	1.064628e+04	4.481123e+03	2.250499e+03	0	8.611378e-04
8.000000e+08	1.509491e+13	0.000000e+00	5.159237e-01	2.950386e+14	6.680688e+14	2.357227e+14	1.062548e+04	4.476966e+03	2.248411e+03	0	8.562392e-04
8.100000e+08	1.483974e+13	0.000000e+00	5.159237e-01	2.916189e+14	6.619950e+14	2.346193e+14	1.060491e+04	4.472855e+03	2.246347e+03	0	8.513868e-04
8.200000e+08	1.458979e+13	0.000000e+00	5.159237e-01	2.882675e+14	6.560309e+14	2.335234e+14	1.058458e+04	4.468791e+03	2.244306e+03	0	8.465798e-04
8.300000e+08	1.434493e+13	0.000000e+00	5.159237e-01	2.849824e+14	6.501735e+14	2.324351e+14	1.056449e+04	4.464772e+03	2.242288e+03	0	8.418169e-04
8.400000e+08	1.410500e+13	0.000000e+00	5.159237e-01	2.817619e+14	6.444199e+14	2.313544e+14	1.054462e+04	4.460796e+03	2.240291e+03	0	8.370973e-04
8.500000e+08	1.386988e+13	0.000000e+00	5.159237e-01	2.786041e+14	6.387672e+14	2.302811e+14	1.052498e+04	4.456864e+03	2.238316e+03	0	8.324200e-04
8.600000e+08	1.363943e+13	0.000000e+00	5.159237e-01	2.755074e+14	6.332127e+14	2.292152e+14	1.050556e+04	4.452974e+03	2.236362e+03	0	8.277839e-04
8.700000e+08	1.341352e+13	0.000000e+00	5.159237e-01	2.724700e+14	6.277538e+14	2.281566e+14	1.048635e+04	4.449125e+03	2.234429e+03	0	8.231882e-04
8.800000e+08	1.319202e+13	0.000000e+00	5.159237e-01	2.694903e+14	6.223880e+14	2.271053e+14	1.046735e+04	4.445316e+03	2.232517e+03	0	8.186319e-04
8.900000e+08	1.297482e+13	0.000000e+00	5.159237e-01	2.665668e+14	6.171129e+14	2.260613e+14	1.044856e+04	4.441548e+03	2.230624e+03	0	8.141143e-04
9.000000e+08	1.276181e+13	0.000000e+00	5.159237e-01	2.636981e+14	6.119260e+14	2.250244e+14	1.042998e+04	4.437817e+03	2.228750e+03	0	8.096343e-04
9.100000e+08	1.255286e+13	0.000000e+00	5.159237e-01	2.608826e+14	6.068252e+14	2.239946e+14	1.041159e+04	4.434125e+03	2.226896e+03	0	8.051913e-04
9.200000e+08	1.234787e+13	0.000000e+00	5.159237e-01	2.581190e+14	6.018082e+14	2.229719e+14	1.039340e+04	4.430470e+03	2.225061e+03	0	8.007843e-04
9.300000e+08	1.214674e+13	0.000000e+00	5.159237e-01	2.554059e+14	5.968728e+14	2.219562e+14	1.037540e+04	4.426852e+03	2.223243e+03	0	7.964125e-04
9.400000e+08	1.194936e+13	0.000000e+00	5.159237e-01	2.527421e+14	5.920172e+14	2.209474e+14	1.035759e+04	4.423269e+03	2.221444e+03	0	7.920753e-04
9.500000e+08	1.175565e+13	0.000000e+00	5.159237e-01	2.501262e+14	5.872393e+14	2.199455e+14	1.033996e+04	4.419721e+03	2.219662e+03	0	7.877717e-04
9.600000e+08	1.156550e+13	0.000000e+00	5.159237e-01	2.475570e+14	5.825371e+14	2.189504e+14	1.032252e+04	4.416208e+03	2.217898e+03	0	7.835012e-04
9.700000e+08	1.137882e+13	0.000000e+00	5.159237e-01	2.450334e+14	5.779089e+14	2.179621e+14	1.030525e+04	4.412729e+03	2.216151e+03	0	7.792629e-04
9.800000e+08	1.119554e+13	0.000000e+00	5.159237e-01	2.425542e+14	5.733528e+14	2.169805e+14	1.028816e+04	4.409283e+03	2.214420e+03	0	7.750561e-04
9.900000e+08	1.101555e+13	0.000000e+00	5.159237e-01	2.401183e+14	5.688671e+14	2.160056e+14	1.027124e+04	4.405869e+03	2.212706e+03	0	7.708802e-04
1.000000e+09	1.083878e+13	0.000000e+00	5.159237e-01	2.377247e+14	5.644502e+14	2.150373e+14	1.025449e+04	4.402487e+03	2.211007e+03	0	7.667345e-04
1.010000e+09	1.066515e+13	0.000000e+00	5.159237e-01	2.353723e+14	5.601004e+14	2.140756e+14	1.023791e+04	4.399137e+03	2.209325e+03	0	7.626183e-04
1.020000e+09	1.049458e+13	0.000000e+00	5.159237e-01	2.330602e+14	5.558162e+14	2.131204e+14	1.022149e+04	4.395817e+03	2.207657e+03	0	7.585309e-04
1.030000e+09	1.032700e+13	0.000000e+00	5.159237e-01	2.307872e+14	5.515961e+14	2.121717e+14	1.020523e+04	4.392528e+03	2.206005e+03	0	7.544718e-04
1.040000e+09	1.016234e+13	0.000000e+00	5.159237e-01	2.285526e+14	5.474385e+14	2.112293e+14	1.018913e+04	4.389268e+03	2.204368e+03	0	7.504402e-04
1.050000e+09	1.000052e+13	0.000000e+00	5.159237e-01	2.263553e+14	5.433420e+14	2.102934e+14	1.017319e+04	4.386038e+03	2.202746e+03	0	7.464357e-04
1.060000e+09	9.841475e+12	0.000000e+00	5.159237e-01	2.241946e+14	5.393054e+14	2.093637e+14	1.015739e+04	4.382836e+03	2.201138e+03	0	7.424575e-04
1.070000e+09	9.685141e+12	0.000000e+00	5.159237e-01	2.220695e+14	5.353271e+14	2.084403e+14	1.014175e+04	4.379662e+03	2.199544e+03	0	7.385051e-04
1.080000e+09	9.531454e+12	0.000000e+00	5.159237e-01	2.199793e+14	5.314060e+14	2.075232e+14	1.012626e+04	4.376516e+03	2.197964e+03	0	7.345780e-04
1.090000e+09	9.380351e+12	0.000000e+00	5.159237e-01	2.179230e+14	5.275408e+14	2.066122e+14	1.011091e+04	4.373397e+03	2.196397e+03	0	7.306755e-04
1.100000e+09	9.231772e+12	0.000000e+00	5.159237e-01	2.159000e+14	5.237302e+14	2.057073e+14	1.009570e+04	4.370304e+03	2.194844e+03	0	7.267972e-04
1.110000e+09	9.085659e+12	0.000000e+00	5.159237e-01	2.139095e+14	5.199730e+14	2.048084e+14	1.008064e+04	4.367238e+03	2.193304e+03	0	7.229424e-04
1.120000e+09	8.941956e+12	0.000000e+00	5.159237e-01	2.119506e+14	5.162682e+14	2.039156e+14	1.006571e+04	4.364198e+03	2.191778e+03	0	7.191106e-04
1.130000e+09	8.800606e+12	0.000000e+00	5.159237e-01	2.100229e+14	5.126146e+14	2.030288e+14	1.005092e+04	4.361183e+03	2.190263e+03	0	7.153014e-04
1.140000e+09	8.661558e+12	0.000000e+00	5.159237e-01	2.081254e+14	5.090111e+14	2.021479e+14	1.003627e+04	4.358193e+03	2.188762e+03	0	7.115142e-04
1.150000e+09	8.524758e+12	0.000000e+00	5.159237e-01	2.062576e+14	5.054566e+14	2.012729e+14	1.002174e+04	4.355228e+03	2.187273e+03	0	7.077484e-04
1.160000e+09	8.390157e+12	0.000000e+00	5.159237e-01	2.044188e+14	5.019502e+14	2.004037e+14	1.000735e+04	4.352287e+03	2.185795e+03	0	7.040036e-04
1.170000e+09	8.257706e+12	0.000000e+00	5.159237e-01	2.026084e+14	4.984908e+14	1.995403e+14	9.993083e+03	4.349369e+03	2.184330e+03	0	7.002794e-04
1.180000e+09	8.127357e+12	0.000000e+00	5.159237e-01	2.008257e+14	4.950774e+14	1.986827e+14	9.978942e+03	4.346475e+03	2.182877e+03	0	6.965752e-04
1.190000e+09	7.999064e+12	0.000000e+00	5.159237e-01	1.990701e+14	4.917092e+14	1.978308e+14	9.964926e+03	4.343604e+03	2.181435e+03	0	6.928905e-04
1.200000e+09	7.872783e+12	0.000000e+00	5.159237e-01	1.973412e+14	4.883852e+14	1.969845e+14	9.951032e+03	4.340756e+03	2.180004e+03	0	6.892249e-04
1.210000e+09	7.748469e+12	0.000000e+00	5.159237e-01	1.956382e+14	4.851045e+14	1.961438e+14	9.937258e+03	4.337930e+03	2.178585e+03	0	6.855779e-04
1.220000e+09	7.626080e+12	0.000000e+00	5.159237e-01	1.939606e+14	4.818663e+14	1.953087e+14	9.923603e+03	4.335125e+03	2.177177e+03	0	6.819492e-04
1.230000e+09	7.505575e+12	0.000000e+00	5.159237e-01	1.923079e+14	4.786697e+14	1.944791e+14	9.910065e+03	4.332343e+03	2.175779e+03	0	6.783381e-04
1.240000e+09	7.386914e+12	0.000000e+00	5.159237e-01	1.906797e+14	4.755139e+14	1.936550e+14	9.896641e+03	4.329582e+03	2.174393e+03	0	6.747443e-04
1.250000e+09	7.270058e+12	0.000000e+00	5.159237e-01	1.890753e+14	4.723980e+14	1.928364e+14	9.883331e+03	4.326841e+03	2.173016e+03	0	6.711674e-04
1.260000e+09	7.154969e+12	0.000000e+00	5.159237e-01	1.874942e+14	4.693214e+14	1.920231e+14	9.870133e+03	4.324122e+03	2.171651e+03	0	6.676069e-04
1.270000e+09	7.041610e+12	0.000000e+00	5.159237e-01	1.859361e+14	4.662833e+14	1.912152e+14	9.857044e+03	4.321423e+03	2.170295e+03	0	6.640624e-04
1.280000e+09	6.929944e+12	0.000000e+00	5.159237e-01	1.844004e+14	4.632829e+14	1.904126e+14	9.844064e+03	4.318743e+03	2.168949e+03	0	6.605334e-04
1.290000e+09	6.819938e+12	0.000000e+00	5.159237e-01	1.828867e+14	4.603195e+14	1.896153e+14	9.831191e+03	4.316084e+03	2.167614e+03	0	6.570196e-04
1.300000e+09	6.711557e+12	0.000000e+00	5.159237e-01	1.813944e+14	4.573924e+14	1.888232e+14	9.818423e+03	4.313444e+03	2.166288e+03	0	6.535206e-04
1.310000e+09	6.604767e+12	0.000000e+00	5.159237e-01	1.799233e+14	4.545010e+14	1.880363e+14	9.805760e+03	4.310823e+03	2.164972e+03	0	6.500360e-04
1.320000e+09	6.499537e+12	0.000000e+00	5.159237e-01	1.784729e+14	4.516445e+14	1.872546e+14	9.793198e+03	4.308221e+03	2.163665e+03	0	6.465652e-04
1.330000e+09	6.395835e+12	0.000000e+00	5.159237e-01	1.770427e+14	4.488224e+14	1.864780e+14	9.780738e+03	4.305637e+03	2.162367e+03	0	6.431081e-04
1.340000e+09	6.293631e+12	0.000000e+00	5.159237e-01	1.756323e+14	4.460339e+14	1.857064e+14	9.768377e+03	4.303072e+03	2.161079e+03	0	6.396641e-04
1.350000e+09	6.192894e+12	0.000000e+00	5.159237e-01	1.742415e+14	4.432786e+14	1.849399e+14	9.756114e+03	4.300525e+03	2.159800e+03	0	6.362328e-04
1.360000e+09	6.093595e+12	0.000000e+00	5.159237e-01	1.728697e+14	4.405557e+14	1.841784e+14	9.743949e+03	4.297996e+03	2.158530e+03	0	6.328140e-04
