#t		Qconv[W]	Ri[Rp]		R*[Rp]		Qc[W]		Qm[W]		Qr[W]		Tcmb[K]		Tl[K]		Tup[K]		RiFlag		Bs[T]
0.000000e+00	1.400837e+15	0.000000e+00	5.063292e-01	1.679511e+16	5.231212e+15	4.179017e+14	2.596518e+04	7.454137e+03	2.699794e+03	0	3.894298e-03
1.000000e+07	1.230720e+15	0.000000e+00	5.063292e-01	1.478426e+16	6.502912e+15	4.155862e+14	2.501010e+04	7.786920e+03	2.820324e+03	0	3.729807e-03
2.000000e+07	1.088166e+15	0.000000e+00	5.063292e-01	1.309863e+16	7.441506e+15	4.132880e+14	2.416520e+04	8.026561e+03	2.907119e+03	0	3.579852e-03
3.000000e+07	9.681911e+14	0.000000e+00	5.063292e-01	1.167945e+16	8.047195e+15	4.110070e+14	2.341336e+04	8.193017e+03	2.967407e+03	0	3.443132e-03
4.000000e+07	8.666888e+14	0.000000e+00	5.063292e-01	1.047831e+16	8.369584e+15	4.087431e+14	2.274037e+04	8.303615e+03	3.007465e+03	0	3.318341e-03
5.000000e+07	7.803043e+14	0.000000e+00	5.063292e-01	9.455625e+15	8.473212e+15	4.064960e+14	2.213451e+04	8.372426e+03	3.032387e+03	0	3.204212e-03
6.000000e+07	7.063203e+14	0.000000e+00	5.063292e-01	8.579365e+15	8.419055e+15	4.042657e+14	2.158610e+04	8.410404e+03	3.046142e+03	0	3.099563e-03
7.000000e+07	6.425490e+14	0.000000e+00	5.063292e-01	7.823720e+15	8.257342e+15	4.020520e+14	2.108712e+04	8.425852e+03	3.051737e+03	0	3.003323e-03
8.000000e+07	5.872325e+14	0.000000e+00	5.063292e-01	7.167954e+15	8.026437e+15	3.998547e+14	2.063095e+04	8.424965e+03	3.051416e+03	0	2.914540e-03
9.000000e+07	5.389570e+14	0.000000e+00	5.063292e-01	6.595385e+15	7.754284e+15	3.976738e+14	2.021207e+04	8.412325e+03	3.046838e+03	0	2.832379e-03
1.000000e+08	4.965816e+14	0.000000e+00	5.063292e-01	6.092551e+15	7.460565e+15	3.955091e+14	1.982586e+04	8.391309e+03	3.039227e+03	0	2.756112e-03
1.100000e+08	4.591817e+14	0.000000e+00	5.063292e-01	5.648541e+15	7.158770e+15	3.933604e+14	1.946842e+04	8.364400e+03	3.029480e+03	0	2.685106e-03
1.200000e+08	4.260034e+14	0.000000e+00	5.063292e-01	5.254456e+15	6.857906e+15	3.912277e+14	1.913646e+04	8.333422e+03	3.018260e+03	0	2.618812e-03
1.300000e+08	3.964290e+14	0.000000e+00	5.063292e-01	4.903002e+15	6.563800e+15	3.891107e+14	1.882717e+04	8.299720e+03	3.006054e+03	0	2.556751e-03
1.400000e+08	3.699485e+14	0.000000e+00	5.063292e-01	4.588157e+15	6.280065e+15	3.870095e+14	1.853815e+04	8.264284e+03	2.993219e+03	0	2.498506e-03
1.500000e+08	3.461388e+14	0.000000e+00	5.063292e-01	4.304924e+15	6.008791e+15	3.849237e+14	1.826732e+04	8.227840e+03	2.980020e+03	0	2.443712e-03
1.600000e+08	3.246468e+14	0.000000e+00	5.063292e-01	4.049130e+15	5.751032e+15	3.828534e+14	1.801290e+04	8.190926e+03	2.966650e+03	0	2.392050e-03
1.700000e+08	3.051755e+14	0.000000e+00	5.063292e-01	3.817269e+15	5.507151e+15	3.807983e+14	1.777331e+04	8.153933e+03	2.953252e+03	0	2.343239e-03
1.800000e+08	2.874746e+14	0.000000e+00	5.063292e-01	3.606380e+15	5.277059e+15	3.787584e+14	1.754721e+04	8.117149e+03	2.939929e+03	0	2.297029e-03
1.900000e+08	2.713312e+14	0.000000e+00	5.063292e-01	3.413949e+15	5.060375e+15	3.767336e+14	1.733337e+04	8.080779e+03	2.926756e+03	0	2.253201e-03
2.000000e+08	2.565639e+14	0.000000e+00	5.063292e-01	3.237827e+15	4.856544e+15	3.747236e+14	1.713076e+04	8.044974e+03	2.913788e+03	0	2.211559e-03
2.100000e+08	2.430169e+14	0.000000e+00	5.063292e-01	3.076176e+15	4.664911e+15	3.727284e+14	1.693844e+04	8.009834e+03	2.901061e+03	0	2.171928e-03
2.200000e+08	2.305562e+14	0.000000e+00	5.063292e-01	2.927409e+15	4.484772e+15	3.707478e+14	1.675556e+04	7.975432e+03	2.888601e+03	0	2.134153e-03
2.300000e+08	2.190657e+14	0.000000e+00	5.063292e-01	2.790154e+15	4.315413e+15	3.687818e+14	1.658139e+04	7.941811e+03	2.876424e+03	0	2.098093e-03
2.400000e+08	2.084448e+14	0.000000e+00	5.063292e-01	2.663219e+15	4.156128e+15	3.668302e+14	1.641527e+04	7.908998e+03	2.864540e+03	0	2.063623e-03
2.500000e+08	1.986055e+14	0.000000e+00	5.063292e-01	2.545562e+15	4.006235e+15	3.648929e+14	1.625660e+04	7.877005e+03	2.852952e+03	0	2.030628e-03
2.600000e+08	1.894710e+14	0.000000e+00	5.063292e-01	2.436274e+15	3.865086e+15	3.629698e+14	1.610484e+04	7.845833e+03	2.841662e+03	0	1.999006e-03
2.700000e+08	1.809735e+14	0.000000e+00	5.063292e-01	2.334554e+15	3.732069e+15	3.610607e+14	1.595950e+04	7.815477e+03	2.830667e+03	0	1.968664e-03
2.800000e+08	1.730535e+14	0.000000e+00	5.063292e-01	2.239696e+15	3.606610e+15	3.591656e+14	1.582016e+04	7.785924e+03	2.819963e+03	0	1.939516e-03
2.900000e+08	1.656583e+14	0.000000e+00	5.063292e-01	2.151076e+15	3.488176e+15	3.572843e+14	1.568640e+04	7.757158e+03	2.809545e+03	0	1.911486e-03
3.000000e+08	1.587413e+14	0.000000e+00	5.063292e-01	2.068141e+15	3.376271e+15	3.554167e+14	1.555786e+04	7.729161e+03	2.799405e+03	0	1.884502e-03
3.100000e+08	1.522607e+14	0.000000e+00	5.063292e-01	1.990398e+15	3.270437e+15	3.535628e+14	1.543422e+04	7.701911e+03	2.789535e+03	0	1.858500e-03
3.200000e+08	1.461796e+14	0.000000e+00	5.063292e-01	1.917407e+15	3.170252e+15	3.517223e+14	1.531517e+04	7.675387e+03	2.779928e+03	0	1.833421e-03
3.300000e+08	1.404648e+14	0.000000e+00	5.063292e-01	1.848774e+15	3.075323e+15	3.498952e+14	1.520044e+04	7.649566e+03	2.770576e+03	0	1.809211e-03
3.400000e+08	1.350864e+14	0.000000e+00	5.063292e-01	1.784148e+15	2.985291e+15	3.480813e+14	1.508976e+04	7.624424e+03	2.761470e+03	0	1.785818e-03
3.500000e+08	1.300178e+14	0.000000e+00	5.063292e-01	1.723210e+15	2.899825e+15	3.462807e+14	1.498291e+04	7.599939e+03	2.752602e+03	0	1.763197e-03
3.600000e+08	1.252349e+14	0.000000e+00	5.063292e-01	1.665674e+15	2.818617e+15	3.444931e+14	1.487967e+04	7.576088e+03	2.743964e+03	0	1.741306e-03
3.700000e+08	1.207158e+14	0.000000e+00	5.063292e-01	1.611284e+15	2.741386e+15	3.427184e+14	1.477984e+04	7.552848e+03	2.735546e+03	0	1.720104e-03
3.800000e+08	1.164409e+14	0.000000e+00	5.063292e-01	1.559803e+15	2.667872e+15	3.409566e+14	1.468323e+04	7.530198e+03	2.727343e+03	0	1.699555e-03
3.900000e+08	1.123923e+14	0.000000e+00	5.063292e-01	1.511022e+15	2.597835e+15	3.392075e+14	1.458968e+04	7.508115e+03	2.719345e+03	0	1.679624e-03
4.000000e+08	1.085539e+14	0.000000e+00	5.063292e-01	1.464746e+15	2.531054e+15	3.374710e+14	1.449902e+04	7.486580e+03	2.711545e+03	0	1.660281e-03
4.100000e+08	1.049107e+14	0.000000e+00	5.063292e-01	1.420800e+15	2.467324e+15	3.357471e+14	1.441111e+04	7.465573e+03	2.703936e+03	0	1.641496e-03
4.200000e+08	1.014493e+14	0.000000e+00	5.063292e-01	1.379025e+15	2.406455e+15	3.340355e+14	1.432581e+04	7.445073e+03	2.696512e+03	0	1.623241e-03
4.300000e+08	9.815751e+13	0.000000e+00	5.063292e-01	1.339273e+15	2.348274e+15	3.323364e+14	1.424300e+04	7.425063e+03	2.689264e+03	0	1.605491e-03
4.400000e+08	9.502391e+13	0.000000e+00	5.063292e-01	1.301411e+15	2.292619e+15	3.306494e+14	1.416255e+04	7.405525e+03	2.682188e+03	0	1.588221e-03
4.500000e+08	9.203822e+13	0.000000e+00	5.063292e-01	1.265315e+15	2.239339e+15	3.289746e+14	1.408436e+04	7.386442e+03	2.675276e+03	0	1.571409e-03
4.600000e+08	8.919094e+13	0.000000e+00	5.063292e-01	1.230874e+15	2.188295e+15	3.273117e+14	1.400831e+04	7.367797e+03	2.668523e+03	0	1.555035e-03
4.700000e+08	8.647335e+13	0.000000e+00	5.063292e-01	1.197983e+15	2.139358e+15	3.256608e+14	1.393431e+04	7.349575e+03	2.661924e+03	0	1.539078e-03
4.800000e+08	8.387740e+13	0.000000e+00	5.063292e-01	1.166547e+15	2.092409e+15	3.240218e+14	1.386228e+04	7.331761e+03	2.655471e+03	0	1.523520e-03
4.900000e+08	8.139569e+13	0.000000e+00	5.063292e-01	1.136477e+15	2.047336e+15	3.223945e+14	1.379212e+04	7.314340e+03	2.649162e+03	0	1.508344e-03
5.000000e+08	7.902137e+13	0.000000e+00	5.063292e-01	1.107692e+15	2.004035e+15	3.207788e+14	1.372375e+04	7.297298e+03	2.642990e+03	0	1.493533e-03
5.100000e+08	7.674811e+13	0.000000e+00	5.063292e-01	1.080116e+15	1.962409e+15	3.191746e+14	1.365710e+04	7.280623e+03	2.636950e+03	0	1.479072e-03
5.200000e+08	7.457004e+13	0.000000e+00	5.063292e-01	1.053681e+15	1.922369e+15	3.175819e+14	1.359209e+04	7.264302e+03	2.631039e+03	0	1.464945e-03
5.300000e+08	7.248173e+13	0.000000e+00	5.063292e-01	1.028320e+15	1.883830e+15	3.160006e+14	1.352866e+04	7.248322e+03	2.625251e+03	0	1.451141e-03
5.400000e+08	7.047814e+13	0.000000e+00	5.063292e-01	1.003974e+15	1.846714e+15	3.144305e+14	1.346675e+04	7.232672e+03	2.619583e+03	0	1.437644e-03
5.500000e+08	6.855457e+13	0.000000e+00	5.063292e-01	9.805877e+14	1.810947e+15	3.128716e+14	1.340629e+04	7.217341e+03	2.614030e+03	0	1.424444e-03
5.600000e+08	6.670666e+13	0.000000e+00	5.063292e-01	9.581082e+14	1.776461e+15	3.113238e+14	1.334723e+04	7.202319e+03	2.608589e+03	0	1.411529e-03
5.700000e+08	6.493035e+13	0.000000e+00	5.063292e-01	9.364873e+14	1.743191e+15	3.097869e+14	1.328951e+04	7.187595e+03	2.603256e+03	0	1.398887e-03
5.800000e+08	6.322186e+13	0.000000e+00	5.063292e-01	9.156798e+14	1.711078e+15	3.082610e+14	1.323308e+04	7.173160e+03	2.598028e+03	0	1.386508e-03
5.900000e+08	6.157763e+13	0.000000e+00	5.063292e-01	8.956437e+14	1.680064e+15	3.067459e+14	1.317790e+04	7.159004e+03	2.592901e+03	0	1.374382e-03
6.000000e+08	5.999438e+13	0.000000e+00	5.063292e-01	8.763394e+14	1.650097e+15	3.052415e+14	1.312392e+04	7.145119e+03	2.587872e+03	0	1.362501e-03
6.100000e+08	5.846900e+13	0.000000e+00	5.063292e-01	8.577301e+14	1.621127e+15	3.037478e+14	1.307109e+04	7.131495e+03	2.582938e+03	0	1.350854e-03
6.200000e+08	5.699860e+13	0.000000e+00	5.063292e-01	8.397813e+14	1.593106e+15	3.022646e+14	1.301937e+04	7.118126e+03	2.578095e+03	0	1.339434e-03
6.300000e+08	5.558049e+13	0.000000e+00	5.063292e-01	8.224605e+14	1.565992e+15	3.007919e+14	1.296874e+04	7.105002e+03	2.573342e+03	0	1.328232e-03
6.400000e+08	5.421210e+13	0.000000e+00	5.063292e-01	8.057376e+14	1.539742e+15	2.993295e+14	1.291913e+04	7.092116e+03	2.568675e+03	0	1.317241e-03
6.500000e+08	5.289106e+13	0.000000e+00	5.063292e-01	7.895839e+14	1.514318e+15	2.978775e+14	1.287053e+04	7.079462e+03	2.564092e+03	0	1.306454e-03
6.600000e+08	5.161512e+13	0.000000e+00	5.063292e-01	7.739727e+14	1.489682e+15	2.964357e+14	1.282290e+04	7.067032e+03	2.559590e+03	0	1.295863e-03
6.700000e+08	5.038218e+13	0.000000e+00	5.063292e-01	7.588788e+14	1.465799e+15	2.950040e+14	1.277620e+04	7.054819e+03	2.555166e+03	0	1.285461e-03
6.800000e+08	4.919025e+13	0.000000e+00	5.063292e-01	7.442785e+14	1.442638e+15	2.935824e+14	1.273041e+04	7.042817e+03	2.550820e+03	0	1.275243e-03
6.900000e+08	4.803746e+13	0.000000e+00	5.063292e-01	7.301494e+14	1.420167e+15	2.921707e+14	1.268549e+04	7.031021e+03	2.546547e+03	0	1.265202e-03
7.000000e+08	4.692205e+13	0.000000e+00	5.063292e-01	7.164706e+14	1.398356e+15	2.907690e+14	1.264142e+04	7.019423e+03	2.542347e+03	0	1.255333e-03
7.100000e+08	4.584237e+13	0.000000e+00	5.063292e-01	7.032220e+14	1.377179e+15	2.893770e+14	1.259817e+04	7.008019e+03	2.538216e+03	0	1.245630e-03
7.200000e+08	4.479684e+13	0.000000e+00	5.063292e-01	6.903851e+14	1.356608e+15	2.879948e+14	1.255572e+04	6.996803e+03	2.534154e+03	0	1.236087e-03
7.300000e+08	4.378398e+13	0.000000e+00	5.063292e-01	6.779421e+14	1.336618e+15	2.866223e+14	1.251403e+04	6.985770e+03	2.530158e+03	0	1.226700e-03
7.400000e+08	4.280239e+13	0.000000e+00	5.063292e-01	6.658762e+14	1.317187e+15	2.852593e+14	1.247309e+04	6.974914e+03	2.526226e+03	0	1.217464e-03
7.500000e+08	4.185076e+13	0.000000e+00	5.063292e-01	6.541716e+14	1.298292e+15	2.839059e+14	1.243288e+04	6.964232e+03	2.522357e+03	0	1.208373e-03
7.600000e+08	4.092782e+13	0.000000e+00	5.063292e-01	6.428132e+14	1.279911e+15	2.825618e+14	1.239337e+04	6.953717e+03	2.518549e+03	0	1.199424e-03
7.700000e+08	4.003239e+13	0.000000e+00	5.063292e-01	6.317870e+14	1.262025e+15	2.812271e+14	1.235454e+04	6.943366e+03	2.514800e+03	0	1.190613e-03
7.800000e+08	3.916335e+13	0.000000e+00	5.063292e-01	6.210793e+14	1.244615e+15	2.799017e+14	1.231637e+04	6.933174e+03	2.511108e+03	0	1.181934e-03
7.900000e+08	3.831963e+13	0.000000e+00	5.063292e-01	6.106775e+14	1.227661e+15	2.785855e+14	1.227885e+04	6.923137e+03	2.507473e+03	0	1.173385e-03
8.000000e+08	3.750021e+13	0.000000e+00	5.063292e-01	6.005694e+14	1.211148e+15	2.772784e+14	1.224195e+04	6.913251e+03	2.503892e+03	0	1.164960e-03
8.100000e+08	3.670414e+13	0.000000e+00	5.063292e-01	5.907434e+14	1.195057e+15	2.759804e+14	1.220566e+04	6.903512e+03	2.500365e+03	0	1.156658e-03
8.200000e+08	3.593050e+13	0.000000e+00	5.063292e-01	5.811888e+14	1.179375e+15	2.746914e+14	1.216995e+04	6.893917e+03	2.496890e+03	0	1.148474e-03
8.300000e+08	3.517843e+13	0.000000e+00	5.063292e-01	5.718949e+14	1.164085e+15	2.734113e+14	1.213483e+04	6.884461e+03	2.493465e+03	0	1.140404e-03
8.400000e+08	3.444710e+13	0.000000e+00	5.063292e-01	5.628520e+14	1.149174e+15	2.721400e+14	1.210026e+04	6.875141e+03	2.490090e+03	0	1.132446e-03
8.500000e+08	3.373572e+13	0.000000e+00	5.063292e-01	5.540506e+14	1.134628e+15	2.708775e+14	1.206623e+04	6.865955e+03	2.486762e+03	0	1.124596e-03
8.600000e+08	3.304355e+13	0.000000e+00	5.063292e-01	5.454818e+14	1.120434e+15	2.696237e+14	1.203274e+04	6.856897e+03	2.483482e+03	0	1.116852e-03
8.700000e+08	3.236988e+13	0.000000e+00	5.063292e-01	5.371369e+14	1.106580e+15	2.683785e+14	1.199976e+04	6.847966e+03	2.480247e+03	0	1.109210e-03
8.800000e+08	3.171402e+13	0.000000e+00	5.063292e-01	5.290080e+14	1.093054e+15	2.671419e+14	1.196728e+04	6.839159e+03	2.477057e+03	0	1.101667e-03
8.900000e+08	3.107534e+13	0.000000e+00	5.063292e-01	5.210871e+14	1.079844e+15	2.659138e+14	1.193529e+04	6.830471e+03	2.473911e+03	0	1.094222e-03
9.000000e+08	3.045321e+13	0.000000e+00	5.063292e-01	5.133669e+14	1.066941e+15	2.646941e+14	1.190378e+04	6.821902e+03	2.470807e+03	0	1.086870e-03
9.100000e+08	2.984704e+13	0.000000e+00	5.063292e-01	5.058403e+14	1.054333e+15	2.634828e+14	1.187273e+04	6.813446e+03	2.467744e+03	0	1.079610e-03
9.200000e+08	2.925627e+13	0.000000e+00	5.063292e-01	4.985006e+14	1.042010e+15	2.622797e+14	1.184213e+04	6.805103e+03	2.464723e+03	0	1.072440e-03
9.300000e+08	2.868037e+13	0.000000e+00	5.063292e-01	4.913412e+14	1.029964e+15	2.610849e+14	1.181198e+04	6.796870e+03	2.461740e+03	0	1.065356e-03
9.400000e+08	2.811882e+13	0.000000e+00	5.063292e-01	4.843560e+14	1.018186e+15	2.598983e+14	1.178226e+04	6.788743e+03	2.458797e+03	0	1.058357e-03
9.500000e+08	2.757112e+13	0.000000e+00	5.063292e-01	4.775392e+14	1.006665e+15	2.587198e+14	1.175295e+04	6.780720e+03	2.455891e+03	0	1.051441e-03
9.600000e+08	2.703682e+13	0.000000e+00	5.063292e-01	4.708850e+14	9.953956e+14	2.575493e+14	1.172406e+04	6.772800e+03	2.453023e+03	0	1.044604e-03
9.700000e+08	2.651545e+13	0.000000e+00	5.063292e-01	4.643880e+14	9.843682e+14	2.563868e+14	1.169557e+04	6.764980e+03	2.450190e+03	0	1.037846e-03
9.800000e+08	2.600660e+13	0.000000e+00	5.063292e-01	4.580430e+14	9.735756e+14	2.552321e+14	1.166747e+04	6.757257e+03	2.447393e+03	0	1.031164e-03
9.900000e+08	2.550984e+13	0.000000e+00	5.063292e-01	4.518452e+14	9.630105e+14	2.540854e+14	1.163975e+04	6.749630e+03	2.444631e+03	0	1.024556e-03
1.000000e+09	2.502478e+13	0.000000e+00	5.063292e-01	4.457897e+14	9.526658e+14	2.529464e+14	1.161241e+04	6.742096e+03	2.441902e+03	0	1.018021e-03
1.010000e+09	2.455104e+13	0.000000e+00	5.063292e-01	4.398720e+14	9.425348e+14	2.518151e+14	1.158543e+04	6.734653e+03	2.439207e+03	0	1.011556e-03
1.020000e+09	2.408826e+13	0.000000e+00	5.063292e-01	4.340877e+14	9.326111e+14	2.506915e+14	1.155880e+04	6.727300e+03	2.436543e+03	0	1.005160e-03
1.030000e+09	2.363610e+13	0.000000e+00	5.063292e-01	4.284326e+14	9.228884e+14	2.495755e+14	1.153253e+04	6.720035e+03	2.433912e+03	0	9.988307e-04
1.040000e+09	2.319421e+13	0.000000e+00	5.063292e-01	4.229027e+14	9.133608e+14	2.484671e+14	1.150660e+04	6.712855e+03	2.431311e+03	0	9.925670e-04
1.050000e+09	2.276228e+13	0.000000e+00	5.063292e-01	4.174940e+14	9.040225e+14	2.473661e+14	1.148099e+04	6.705759e+03	2.428741e+03	0	9.863670e-04
1.060000e+09	2.234000e+13	0.000000e+00	5.063292e-01	4.122030e+14	8.948680e+14	2.462726e+14	1.145572e+04	6.698745e+03	2.426201e+03	0	9.802292e-04
1.070000e+09	2.192706e+13	0.000000e+00	5.063292e-01	4.070260e+14	8.858919e+14	2.451864e+14	1.143076e+04	6.691811e+03	2.423690e+03	0	9.741521e-04
1.080000e+09	2.152320e+13	0.000000e+00	5.063292e-01	4.019596e+14	8.770893e+14	2.441076e+14	1.140612e+04	6.684957e+03	2.421207e+03	0	9.681342e-04
1.090000e+09	2.112813e+13	0.000000e+00	5.063292e-01	3.970005e+14	8.684550e+14	2.430359e+14	1.138178e+04	6.678179e+03	2.418752e+03	0	9.621740e-04
1.100000e+09	2.074158e+13	0.000000e+00	5.063292e-01	3.921455e+14	8.599845e+14	2.419715e+14	1.135774e+04	6.671477e+03	2.416325e+03	0	9.562701e-04
1.110000e+09	2.036332e+13	0.000000e+00	5.063292e-01	3.873916e+14	8.516731e+14	2.409143e+14	1.133400e+04	6.664850e+03	2.413925e+03	0	9.504213e-04
1.120000e+09	1.999309e+13	0.000000e+00	5.063292e-01	3.827357e+14	8.435164e+14	2.398641e+14	1.131053e+04	6.658295e+03	2.411550e+03	0	9.446261e-04
1.130000e+09	1.963066e+13	0.000000e+00	5.063292e-01	3.781752e+14	8.355103e+14	2.388209e+14	1.128736e+04	6.651811e+03	2.409202e+03	0	9.388832e-04
1.140000e+09	1.927580e+13	0.000000e+00	5.063292e-01	3.737072e+14	8.276504e+14	2.377847e+14	1.126445e+04	6.645397e+03	2.406879e+03	0	9.331915e-04
1.150000e+09	1.892830e+13	0.000000e+00	5.063292e-01	3.693292e+14	8.199331e+14	2.367554e+14	1.124182e+04	6.639052e+03	2.404581e+03	0	9.275496e-04
1.160000e+09	1.858794e+13	0.000000e+00	5.063292e-01	3.650386e+14	8.123543e+14	2.357330e+14	1.121945e+04	6.632774e+03	2.402307e+03	0	9.219565e-04
1.170000e+09	1.825453e+13	0.000000e+00	5.063292e-01	3.608329e+14	8.049105e+14	2.347174e+14	1.119733e+04	6.626561e+03	2.400057e+03	0	9.164108e-04
1.180000e+09	1.792787e+13	0.000000e+00	5.063292e-01	3.567099e+14	7.975982e+14	2.337086e+14	1.117548e+04	6.620414e+03	2.397830e+03	0	9.109116e-04
1.190000e+09	1.760778e+13	0.000000e+00	5.063292e-01	3.526671e+14	7.904137e+14	2.327065e+14	1.115387e+04	6.614330e+03	2.395627e+03	0	9.054576e-04
1.200000e+09	1.729406e+13	0.000000e+00	5.063292e-01	3.487026e+14	7.833540e+14	2.317110e+14	1.113250e+04	6.608308e+03	2.393446e+03	0	9.000478e-04
1.210000e+09	1.698655e+13	0.000000e+00	5.063292e-01	3.448140e+14	7.764157e+14	2.307221e+14	1.111138e+04	6.602347e+03	2.391287e+03	0	8.946812e-04
1.220000e+09	1.668507e+13	0.000000e+00	5.063292e-01	3.409995e+14	7.695958e+14	2.297398e+14	1.109048e+04	6.596446e+03	2.389150e+03	0	8.893567e-04
1.230000e+09	1.638948e+13	0.000000e+00	5.063292e-01	3.372569e+14	7.628913e+14	2.287640e+14	1.106982e+04	6.590605e+03	2.387034e+03	0	8.840734e-04
1.240000e+09	1.609959e+13	0.000000e+00	5.063292e-01	3.335845e+14	7.562993e+14	2.277946e+14	1.104939e+04	6.584821e+03	2.384939e+03	0	8.788301e-04
1.250000e+09	1.581528e+13	0.000000e+00	5.063292e-01	3.299804e+14	7.498169e+14	2.268316e+14	1.102917e+04	6.579094e+03	2.382865e+03	0	8.736260e-04
1.260000e+09	1.553638e+13	0.000000e+00	5.063292e-01	3.264428e+14	7.434416e+14	2.258750e+14	1.100918e+04	6.573422e+03	2.380811e+03	0	8.684602e-04
1.270000e+09	1.526276e+13	0.000000e+00	5.063292e-01	3.229699e+14	7.371706e+14	2.249246e+14	1.098939e+04	6.567806e+03	2.378776e+03	0	8.633317e-04
1.280000e+09	1.499428e+13	0.000000e+00	5.063292e-01	3.195602e+14	7.310015e+14	2.239806e+14	1.096982e+04	6.562243e+03	2.376762e+03	0	8.582395e-04
1.290000e+09	1.473081e+13	0.000000e+00	5.063292e-01	3.162120e+14	7.249318e+14	2.230427e+14	1.095045e+04	6.556733e+03	2.374766e+03	0	8.531829e-04
1.300000e+09	1.447221e+13	0.000000e+00	5.063292e-01	3.129237e+14	7.189591e+14	2.221110e+14	1.093129e+04	6.551275e+03	2.372789e+03	0	8.481610e-04
1.310000e+09	1.421838e+13	0.000000e+00	5.063292e-01	3.096939e+14	7.130811e+14	2.211854e+14	1.091232e+04	6.545869e+03	2.370831e+03	0	8.431729e-04
1.320000e+09	1.396917e+13	0.000000e+00	5.063292e-01	3.065210e+14	7.072956e+14	2.202658e+14	1.089355e+04	6.540512e+03	2.368891e+03	0	8.382177e-04
1.330000e+09	1.372449e+13	0.000000e+00	5.063292e-01	3.034038e+14	7.016004e+14	2.193523e+14	1.087497e+04	6.535205e+03	2.366969e+03	0	8.332947e-04
1.340000e+09	1.348421e+13	0.000000e+00	5.063292e-01	3.003408e+14	6.959934e+14	2.184447e+14	1.085658e+04	6.529946e+03	2.365064e+03	0	8.284031e-04
1.350000e+09	1.324822e+13	0.000000e+00	5.063292e-01	2.973307e+14	6.904726e+14	2.175431e+14	1.083838e+04	6.524736e+03	2.363177e+03	0	8.235421e-04
1.360000e+09	1.301643e+13	0.000000e+00	5.063292e-01	2.943722e+14	6.850361e+14	2.166473e+14	1.082035e+04	6.519572e+03	2.361307e+03	0	8.187110e-04
