#t		Qconv[W]	Ri[Rp]		R*[Rp]		Qc[W]		Qm[W]		Qr[W]		Tcmb[K]		Tl[K]		Tup[K]		RiFlag		Bs[T]
0.000000e+00	1.704029e+15	0.000000e+00	5.063291e-01	1.897343e+16	5.205509e+15	4.726049e+14	2.785043e+04	7.832971e+03	2.762556e+03	0	4.140016e-03
1.000000e+07	1.517018e+15	0.000000e+00	5.063291e-01	1.692778e+16	6.571625e+15	4.699863e+14	2.692350e+04	8.189231e+03	2.888202e+03	0	3.982660e-03
2.000000e+07	1.356885e+15	0.000000e+00	5.063291e-01	1.517551e+16	7.666943e+15	4.673873e+14	2.609311e+04	8.457953e+03	2.982976e+03	0	3.837284e-03
3.000000e+07	1.219454e+15	0.000000e+00	5.063291e-01	1.367107e+16	8.457764e+15	4.648077e+14	2.534596e+04	8.654866e+03	3.052424e+03	0	3.703094e-03
4.000000e+07	1.101143e+15	0.000000e+00	5.063291e-01	1.237539e+16	8.964262e+15	4.622474e+14	2.467066e+04	8.794590e+03	3.101702e+03	0	3.579241e-03
5.000000e+07	9.988997e+14	0.000000e+00	5.063291e-01	1.125516e+16	9.232274e+15	4.597062e+14	2.405756e+04	8.889747e+03	3.135262e+03	0	3.464843e-03
6.000000e+07	9.101507e+14	0.000000e+00	5.063291e-01	1.028231e+16	9.314050e+15	4.571839e+14	2.349847e+04	8.950710e+03	3.156763e+03	0	3.359032e-03
7.000000e+07	8.327480e+14	0.000000e+00	5.063291e-01	9.433426e+15	9.257972e+15	4.546804e+14	2.298646e+04	8.985725e+03	3.169112e+03	0	3.260975e-03
8.000000e+07	7.649101e+14	0.000000e+00	5.063291e-01	8.689059e+15	9.104442e+15	4.521956e+14	2.251568e+04	9.001210e+03	3.174573e+03	0	3.169906e-03
9.000000e+07	7.051644e+14	0.000000e+00	5.063291e-01	8.033144e+15	8.885198e+15	4.497292e+14	2.208119e+04	9.002096e+03	3.174886e+03	0	3.085128e-03
1.000000e+08	6.522945e+14	0.000000e+00	5.063291e-01	7.452405e+15	8.624185e+15	4.472811e+14	2.167875e+04	8.992141e+03	3.171375e+03	0	3.006013e-03
1.100000e+08	6.052936e+14	0.000000e+00	5.063291e-01	6.935855e+15	8.338953e+15	4.448512e+14	2.130478e+04	8.974196e+03	3.165046e+03	0	2.932007e-03
1.200000e+08	5.633269e+14	0.000000e+00	5.063291e-01	6.474380e+15	8.042071e+15	4.424392e+14	2.095618e+04	8.950418e+03	3.156660e+03	0	2.862616e-03
1.300000e+08	5.256990e+14	0.000000e+00	5.063291e-01	6.060385e+15	7.742347e+15	4.400452e+14	2.063031e+04	8.922442e+03	3.146793e+03	0	2.797405e-03
1.400000e+08	4.918283e+14	0.000000e+00	5.063291e-01	5.687521e+15	7.445814e+15	4.376689e+14	2.032488e+04	8.891504e+03	3.135882e+03	0	2.735988e-03
1.500000e+08	4.612265e+14	0.000000e+00	5.063291e-01	5.350451e+15	7.156487e+15	4.353101e+14	2.003788e+04	8.858542e+03	3.124257e+03	0	2.678024e-03
1.600000e+08	4.334811e+14	0.000000e+00	5.063291e-01	5.044672e+15	6.876929e+15	4.329688e+14	1.976759e+04	8.824263e+03	3.112167e+03	0	2.623210e-03
1.700000e+08	4.082425e+14	0.000000e+00	5.063291e-01	4.766361e+15	6.608675e+15	4.306447e+14	1.951246e+04	8.789204e+03	3.099803e+03	0	2.571278e-03
1.800000e+08	3.852130e+14	0.000000e+00	5.063291e-01	4.512262e+15	6.352536e+15	4.283378e+14	1.927118e+04	8.753773e+03	3.087307e+03	0	2.521990e-03
1.900000e+08	3.641375e+14	0.000000e+00	5.063291e-01	4.279590e+15	6.108819e+15	4.260478e+14	1.904254e+04	8.718274e+03	3.074787e+03	0	2.475131e-03
2.000000e+08	3.447969e+14	0.000000e+00	5.063291e-01	4.065947e+15	5.877488e+15	4.237748e+14	1.882551e+04	8.682937e+03	3.062324e+03	0	2.430510e-03
2.100000e+08	3.270022e+14	0.000000e+00	5.063291e-01	3.869265e+15	5.658278e+15	4.215184e+14	1.861914e+04	8.647933e+03	3.049979e+03	0	2.387957e-03
2.200000e+08	3.105893e+14	0.000000e+00	5.063291e-01	3.687749e+15	5.450776e+15	4.192786e+14	1.842260e+04	8.613390e+03	3.037796e+03	0	2.347317e-03
2.300000e+08	2.954156e+14	0.000000e+00	5.063291e-01	3.519840e+15	5.254477e+15	4.170552e+14	1.823515e+04	8.579398e+03	3.025807e+03	0	2.308452e-03
2.400000e+08	2.813566e+14	0.000000e+00	5.063291e-01	3.364173e+15	5.068829e+15	4.148482e+14	1.805611e+04	8.546023e+03	3.014037e+03	0	2.271235e-03
2.500000e+08	2.683031e+14	0.000000e+00	5.063291e-01	3.219553e+15	4.893254e+15	4.126573e+14	1.788487e+04	8.513309e+03	3.002499e+03	0	2.235552e-03
2.600000e+08	2.561590e+14	0.000000e+00	5.063291e-01	3.084929e+15	4.727175e+15	4.104824e+14	1.772090e+04	8.481286e+03	2.991205e+03	0	2.201301e-03
2.700000e+08	2.448396e+14	0.000000e+00	5.063291e-01	2.959372e+15	4.570024e+15	4.083234e+14	1.756369e+04	8.449969e+03	2.980160e+03	0	2.168387e-03
2.800000e+08	2.342700e+14	0.000000e+00	5.063291e-01	2.842062e+15	4.421250e+15	4.061803e+14	1.741280e+04	8.419367e+03	2.969367e+03	0	2.136725e-03
2.900000e+08	2.243837e+14	0.000000e+00	5.063291e-01	2.732267e+15	4.280330e+15	4.040527e+14	1.726781e+04	8.389479e+03	2.958826e+03	0	2.106234e-03
3.000000e+08	2.151212e+14	0.000000e+00	5.063291e-01	2.629340e+15	4.146765e+15	4.019407e+14	1.712835e+04	8.360301e+03	2.948536e+03	0	2.076845e-03
3.100000e+08	2.064299e+14	0.000000e+00	5.063291e-01	2.532701e+15	4.020085e+15	3.998440e+14	1.699409e+04	8.331822e+03	2.938492e+03	0	2.048490e-03
3.200000e+08	1.982622e+14	0.000000e+00	5.063291e-01	2.441829e+15	3.899850e+15	3.977626e+14	1.686470e+04	8.304032e+03	2.928690e+03	0	2.021109e-03
3.300000e+08	1.905759e+14	0.000000e+00	5.063291e-01	2.356260e+15	3.785647e+15	3.956963e+14	1.673990e+04	8.276914e+03	2.919127e+03	0	1.994645e-03
3.400000e+08	1.833326e+14	0.000000e+00	5.063291e-01	2.275574e+15	3.677093e+15	3.936451e+14	1.661942e+04	8.250454e+03	2.909794e+03	0	1.969048e-03
3.500000e+08	1.764980e+14	0.000000e+00	5.063291e-01	2.199394e+15	3.573827e+15	3.916087e+14	1.650303e+04	8.224633e+03	2.900688e+03	0	1.944268e-03
3.600000e+08	1.700409e+14	0.000000e+00	5.063291e-01	2.127377e+15	3.475518e+15	3.895871e+14	1.639049e+04	8.199435e+03	2.891801e+03	0	1.920263e-03
3.700000e+08	1.639332e+14	0.000000e+00	5.063291e-01	2.059216e+15	3.381855e+15	3.875801e+14	1.628159e+04	8.174841e+03	2.883127e+03	0	1.896991e-03
3.800000e+08	1.581494e+14	0.000000e+00	5.063291e-01	1.994628e+15	3.292550e+15	3.855877e+14	1.617615e+04	8.150832e+03	2.874660e+03	0	1.874414e-03
3.900000e+08	1.526662e+14	0.000000e+00	5.063291e-01	1.933360e+15	3.207335e+15	3.836096e+14	1.607398e+04	8.127391e+03	2.866392e+03	0	1.852496e-03
4.000000e+08	1.474626e+14	0.000000e+00	5.063291e-01	1.875180e+15	3.125962e+15	3.816458e+14	1.597491e+04	8.104499e+03	2.858319e+03	0	1.831205e-03
4.100000e+08	1.425192e+14	0.000000e+00	5.063291e-01	1.819874e+15	3.048201e+15	3.796962e+14	1.587880e+04	8.082139e+03	2.850433e+03	0	1.810509e-03
4.200000e+08	1.378183e+14	0.000000e+00	5.063291e-01	1.767249e+15	2.973836e+15	3.777607e+14	1.578550e+04	8.060293e+03	2.842728e+03	0	1.790380e-03
4.300000e+08	1.333440e+14	0.000000e+00	5.063291e-01	1.717129e+15	2.902669e+15	3.758391e+14	1.569487e+04	8.038945e+03	2.835199e+03	0	1.770792e-03
4.400000e+08	1.290813e+14	0.000000e+00	5.063291e-01	1.669349e+15	2.834513e+15	3.739313e+14	1.560678e+04	8.018077e+03	2.827839e+03	0	1.751717e-03
4.500000e+08	1.250167e+14	0.000000e+00	5.063291e-01	1.623762e+15	2.769197e+15	3.720372e+14	1.552112e+04	7.997675e+03	2.820644e+03	0	1.733135e-03
4.600000e+08	1.211377e+14	0.000000e+00	5.063291e-01	1.580228e+15	2.706559e+15	3.701567e+14	1.543779e+04	7.977721e+03	2.813606e+03	0	1.715021e-03
4.700000e+08	1.174328e+14	0.000000e+00	5.063291e-01	1.538622e+15	2.646451e+15	3.682897e+14	1.535666e+04	7.958203e+03	2.806723e+03	0	1.697355e-03
4.800000e+08	1.138913e+14	0.000000e+00	5.063291e-01	1.498827e+15	2.588732e+15	3.664361e+14	1.527765e+04	7.939104e+03	2.799987e+03	0	1.680118e-03
4.900000e+08	1.105036e+14	0.000000e+00	5.063291e-01	1.460735e+15	2.533273e+15	3.645958e+14	1.520067e+04	7.920412e+03	2.793394e+03	0	1.663292e-03
5.000000e+08	1.072604e+14	0.000000e+00	5.063291e-01	1.424245e+15	2.479952e+15	3.627686e+14	1.512563e+04	7.902112e+03	2.786940e+03	0	1.646858e-03
5.100000e+08	1.041535e+14	0.000000e+00	5.063291e-01	1.389266e+15	2.428656e+15	3.609545e+14	1.505245e+04	7.884193e+03	2.780620e+03	0	1.630801e-03
5.200000e+08	1.011750e+14	0.000000e+00	5.063291e-01	1.355712e+15	2.379278e+15	3.591533e+14	1.498105e+04	7.866641e+03	2.774430e+03	0	1.615105e-03
5.300000e+08	9.831774e+13	0.000000e+00	5.063291e-01	1.323502e+15	2.331720e+15	3.573649e+14	1.491136e+04	7.849444e+03	2.768365e+03	0	1.599755e-03
5.400000e+08	9.557494e+13	0.000000e+00	5.063291e-01	1.292563e+15	2.285889e+15	3.555893e+14	1.484332e+04	7.832592e+03	2.762422e+03	0	1.584739e-03
5.500000e+08	9.294038e+13	0.000000e+00	5.063291e-01	1.262826e+15	2.241697e+15	3.538264e+14	1.477685e+04	7.816073e+03	2.756596e+03	0	1.570041e-03
5.600000e+08	9.040824e+13	0.000000e+00	5.063291e-01	1.234227e+15	2.199064e+15	3.520759e+14	1.471190e+04	7.799877e+03	2.750884e+03	0	1.555652e-03
5.700000e+08	8.797310e+13	0.000000e+00	5.063291e-01	1.206706e+15	2.157912e+15	3.503379e+14	1.464841e+04	7.783994e+03	2.745282e+03	0	1.541557e-03
5.800000e+08	8.562988e+13	0.000000e+00	5.063291e-01	1.180206e+15	2.118170e+15	3.486123e+14	1.458633e+04	7.768413e+03	2.739787e+03	0	1.527747e-03
5.900000e+08	8.337387e+13	0.000000e+00	5.063291e-01	1.154676e+15	2.079770e+15	3.468988e+14	1.452559e+04	7.753126e+03	2.734395e+03	0	1.514211e-03
6.000000e+08	8.120062e+13	0.000000e+00	5.063291e-01	1.130067e+15	2.042649e+15	3.451975e+14	1.446617e+04	7.738123e+03	2.729104e+03	0	1.500938e-03
6.100000e+08	7.910600e+13	0.000000e+00	5.063291e-01	1.106333e+15	2.006747e+15	3.435082e+14	1.440800e+04	7.723395e+03	2.723910e+03	0	1.487920e-03
6.200000e+08	7.708613e+13	0.000000e+00	5.063291e-01	1.083431e+15	1.972008e+15	3.418309e+14	1.435104e+04	7.708936e+03	2.718810e+03	0	1.475146e-03
6.300000e+08	7.513737e+13	0.000000e+00	5.063291e-01	1.061321e+15	1.938380e+15	3.401654e+14	1.429526e+04	7.694736e+03	2.713802e+03	0	1.462609e-03
6.400000e+08	7.325629e+13	0.000000e+00	5.063291e-01	1.039965e+15	1.905811e+15	3.385117e+14	1.424060e+04	7.680787e+03	2.708883e+03	0	1.450300e-03
6.500000e+08	7.143969e+13	0.000000e+00	5.063291e-01	1.019328e+15	1.874255e+15	3.368696e+14	1.418704e+04	7.667083e+03	2.704050e+03	0	1.438212e-03
6.600000e+08	6.968454e+13	0.000000e+00	5.063291e-01	9.993758e+14	1.843668e+15	3.352390e+14	1.413453e+04	7.653616e+03	2.699300e+03	0	1.426336e-03
6.700000e+08	6.798802e+13	0.000000e+00	5.063291e-01	9.800773e+14	1.814007e+15	3.336199e+14	1.408304e+04	7.640380e+03	2.694632e+03	0	1.414666e-03
6.800000e+08	6.634743e+13	0.000000e+00	5.063291e-01	9.614030e+14	1.785233e+15	3.320122e+14	1.403255e+04	7.627367e+03	2.690043e+03	0	1.403194e-03
6.900000e+08	6.476027e+13	0.000000e+00	5.063291e-01	9.433250e+14	1.757309e+15	3.304158e+14	1.398300e+04	7.614573e+03	2.685530e+03	0	1.391914e-03
7.000000e+08	6.322415e+13	0.000000e+00	5.063291e-01	9.258168e+14	1.730198e+15	3.288305e+14	1.393439e+04	7.601989e+03	2.681092e+03	0	1.380821e-03
7.100000e+08	6.173683e+13	0.000000e+00	5.063291e-01	9.088538e+14	1.703867e+15	3.272564e+14	1.388667e+04	7.589611e+03	2.676727e+03	0	1.369907e-03
7.200000e+08	6.029619e+13	0.000000e+00	5.063291e-01	8.924122e+14	1.678284e+15	3.256933e+14	1.383982e+04	7.577433e+03	2.672432e+03	0	1.359167e-03
7.300000e+08	5.890022e+13	0.000000e+00	5.063291e-01	8.764701e+14	1.653419e+15	3.241410e+14	1.379381e+04	7.565450e+03	2.668205e+03	0	1.348596e-03
7.400000e+08	5.754704e+13	0.000000e+00	5.063291e-01	8.610063e+14	1.629243e+15	3.225997e+14	1.374862e+04	7.553656e+03	2.664046e+03	0	1.338189e-03
7.500000e+08	5.623484e+13	0.000000e+00	5.063291e-01	8.460010e+14	1.605729e+15	3.210690e+14	1.370422e+04	7.542046e+03	2.659951e+03	0	1.327939e-03
7.600000e+08	5.496193e+13	0.000000e+00	5.063291e-01	8.314354e+14	1.582852e+15	3.195491e+14	1.366059e+04	7.530615e+03	2.655920e+03	0	1.317843e-03
7.700000e+08	5.372670e+13	0.000000e+00	5.063291e-01	8.172915e+14	1.560585e+15	3.180397e+14	1.361770e+04	7.519359e+03	2.651950e+03	0	1.307895e-03
7.800000e+08	5.252762e+13	0.000000e+00	5.063291e-01	8.035525e+14	1.538907e+15	3.165408e+14	1.357555e+04	7.508273e+03	2.648040e+03	0	1.298092e-03
7.900000e+08	5.136325e+13	0.000000e+00	5.063291e-01	7.902022e+14	1.517795e+15	3.150523e+14	1.353409e+04	7.497353e+03	2.644189e+03	0	1.288429e-03
8.000000e+08	5.023221e+13	0.000000e+00	5.063291e-01	7.772255e+14	1.497227e+15	3.135741e+14	1.349332e+04	7.486594e+03	2.640394e+03	0	1.278901e-03
8.100000e+08	4.913319e+13	0.000000e+00	5.063291e-01	7.646078e+14	1.477184e+15	3.121062e+14	1.345322e+04	7.475993e+03	2.636655e+03	0	1.269506e-03
8.200000e+08	4.806495e+13	0.000000e+00	5.063291e-01	7.523353e+14	1.457646e+15	3.106484e+14	1.341377e+04	7.465544e+03	2.632970e+03	0	1.260238e-03
8.300000e+08	4.702632e+13	0.000000e+00	5.063291e-01	7.403950e+14	1.438595e+15	3.092007e+14	1.337494e+04	7.455246e+03	2.629338e+03	0	1.251094e-03
8.400000e+08	4.601616e+13	0.000000e+00	5.063291e-01	7.287742e+14	1.420014e+15	3.077630e+14	1.333673e+04	7.445093e+03	2.625758e+03	0	1.242071e-03
8.500000e+08	4.503342e+13	0.000000e+00	5.063291e-01	7.174612e+14	1.401886e+15	3.063353e+14	1.329911e+04	7.435083e+03	2.622227e+03	0	1.233165e-03
8.600000e+08	4.407706e+13	0.000000e+00	5.063291e-01	7.064446e+14	1.384194e+15	3.049173e+14	1.326208e+04	7.425212e+03	2.618746e+03	0	1.224373e-03
8.700000e+08	4.314612e+13	0.000000e+00	5.063291e-01	6.957137e+14	1.366925e+15	3.035092e+14	1.322561e+04	7.415476e+03	2.615312e+03	0	1.215692e-03
8.800000e+08	4.223968e+13	0.000000e+00	5.063291e-01	6.852581e+14	1.350063e+15	3.021107e+14	1.318969e+04	7.405873e+03	2.611925e+03	0	1.207118e-03
8.900000e+08	4.135685e+13	0.000000e+00	5.063291e-01	6.750679e+14	1.333594e+15	3.007218e+14	1.315431e+04	7.396399e+03	2.608584e+03	0	1.198649e-03
9.000000e+08	4.049679e+13	0.000000e+00	5.063291e-01	6.651339e+14	1.317505e+15	2.993425e+14	1.311945e+04	7.387051e+03	2.605287e+03	0	1.190282e-03
9.100000e+08	3.965870e+13	0.000000e+00	5.063291e-01	6.554471e+14	1.301784e+15	2.979726e+14	1.308510e+04	7.377827e+03	2.602034e+03	0	1.182014e-03
9.200000e+08	3.884180e+13	0.000000e+00	5.063291e-01	6.459989e+14	1.286418e+15	2.966121e+14	1.305125e+04	7.368722e+03	2.598823e+03	0	1.173841e-03
9.300000e+08	3.804536e+13	0.000000e+00	5.063291e-01	6.367811e+14	1.271396e+15	2.952609e+14	1.301789e+04	7.359736e+03	2.595654e+03	0	1.165763e-03
9.400000e+08	3.726869e+13	0.000000e+00	5.063291e-01	6.277860e+14	1.256707e+15	2.939189e+14	1.298500e+04	7.350865e+03	2.592525e+03	0	1.157775e-03
9.500000e+08	3.651110e+13	0.000000e+00	5.063291e-01	6.190059e+14	1.242339e+15	2.925861e+14	1.295257e+04	7.342106e+03	2.589436e+03	0	1.149877e-03
9.600000e+08	3.577195e+13	0.000000e+00	5.063291e-01	6.104338e+14	1.228283e+15	2.912624e+14	1.292060e+04	7.333458e+03	2.586386e+03	0	1.142064e-03
9.700000e+08	3.505064e+13	0.000000e+00	5.063291e-01	6.020628e+14	1.214529e+15	2.899477e+14	1.288906e+04	7.324916e+03	2.583373e+03	0	1.134336e-03
9.800000e+08	3.434657e+13	0.000000e+00	5.063291e-01	5.938863e+14	1.201067e+15	2.886419e+14	1.285795e+04	7.316481e+03	2.580398e+03	0	1.126689e-03
9.900000e+08	3.365917e+13	0.000000e+00	5.063291e-01	5.858981e+14	1.187889e+15	2.873451e+14	1.282727e+04	7.308148e+03	2.577459e+03	0	1.119122e-03
1.000000e+09	3.298791e+13	0.000000e+00	5.063291e-01	5.780920e+14	1.174985e+15	2.860570e+14	1.279699e+04	7.299916e+03	2.574556e+03	0	1.111633e-03
1.010000e+09	3.233226e+13	0.000000e+00	5.063291e-01	5.704623e+14	1.162348e+15	2.847776e+14	1.276712e+04	7.291782e+03	2.571687e+03	0	1.104219e-03
1.020000e+09	3.169174e+13	0.000000e+00	5.063291e-01	5.630034e+14	1.149969e+15	2.835070e+14	1.273764e+04	7.283745e+03	2.568853e+03	0	1.096878e-03
1.030000e+09	3.106585e+13	0.000000e+00	5.063291e-01	5.557101e+14	1.137840e+15	2.822449e+14	1.270855e+04	7.275803e+03	2.566052e+03	0	1.089609e-03
1.040000e+09	3.045414e+13	0.000000e+00	5.063291e-01	5.485771e+14	1.125955e+15	2.809914e+14	1.267982e+04	7.267953e+03	2.563283e+03	0	1.082410e-03
1.050000e+09	2.985618e+13	0.000000e+00	5.063291e-01	5.415996e+14	1.114306e+15	2.797463e+14	1.265147e+04	7.260194e+03	2.560547e+03	0	1.075279e-03
1.060000e+09	2.927153e+13	0.000000e+00	5.063291e-01	5.347728e+14	1.102887e+15	2.785096e+14	1.262347e+04	7.252523e+03	2.557841e+03	0	1.068214e-03
1.070000e+09	2.869980e+13	0.000000e+00	5.063291e-01	5.280922e+14	1.091690e+15	2.772812e+14	1.259583e+04	7.244940e+03	2.555167e+03	0	1.061213e-03
1.080000e+09	2.814059e+13	0.000000e+00	5.063291e-01	5.215533e+14	1.080709e+15	2.760612e+14	1.256853e+04	7.237441e+03	2.552522e+03	0	1.054275e-03
1.090000e+09	2.759352e+13	0.000000e+00	5.063291e-01	5.151521e+14	1.069939e+15	2.748493e+14	1.254157e+04	7.230027e+03	2.549907e+03	0	1.047399e-03
1.100000e+09	2.705824e+13	0.000000e+00	5.063291e-01	5.088845e+14	1.059373e+15	2.736455e+14	1.251493e+04	7.222694e+03	2.547321e+03	0	1.040582e-03
1.110000e+09	2.653439e+13	0.000000e+00	5.063291e-01	5.027465e+14	1.049006e+15	2.724499e+14	1.248862e+04	7.215441e+03	2.544763e+03	0	1.033823e-03
1.120000e+09	2.602165e+13	0.000000e+00	5.063291e-01	4.967345e+14	1.038831e+15	2.712622e+14	1.246263e+04	7.208267e+03	2.542233e+03	0	1.027120e-03
1.130000e+09	2.551968e+13	0.000000e+00	5.063291e-01	4.908448e+14	1.028845e+15	2.700825e+14	1.243694e+04	7.201171e+03	2.539730e+03	0	1.020473e-03
1.140000e+09	2.502819e+13	0.000000e+00	5.063291e-01	4.850739e+14	1.019042e+15	2.689106e+14	1.241156e+04	7.194150e+03	2.537254e+03	0	1.013879e-03
1.150000e+09	2.454686e+13	0.000000e+00	5.063291e-01	4.794185e+14	1.009416e+15	2.677466e+14	1.238647e+04	7.187203e+03	2.534804e+03	0	1.007337e-03
1.160000e+09	2.407541e+13	0.000000e+00	5.063291e-01	4.738753e+14	9.999641e+14	2.665904e+14	1.236168e+04	7.180329e+03	2.532380e+03	0	1.000847e-03
1.170000e+09	2.361357e+13	0.000000e+00	5.063291e-01	4.684413e+14	9.906804e+14	2.654419e+14	1.233717e+04	7.173527e+03	2.529981e+03	0	9.944056e-04
1.180000e+09	2.316107e+13	0.000000e+00	5.063291e-01	4.631135e+14	9.815610e+14	2.643010e+14	1.231294e+04	7.166795e+03	2.527606e+03	0	9.880126e-04
1.190000e+09	2.271764e+13	0.000000e+00	5.063291e-01	4.578888e+14	9.726015e+14	2.631677e+14	1.228899e+04	7.160131e+03	2.525256e+03	0	9.816666e-04
1.200000e+09	2.228303e+13	0.000000e+00	5.063291e-01	4.527646e+14	9.637978e+14	2.620419e+14	1.226531e+04	7.153536e+03	2.522930e+03	0	9.753663e-04
1.210000e+09	2.185702e+13	0.000000e+00	5.063291e-01	4.477382e+14	9.551459e+14	2.609235e+14	1.224189e+04	7.147006e+03	2.520627e+03	0	9.691105e-04
1.220000e+09	2.143936e+13	0.000000e+00	5.063291e-01	4.428069e+14	9.466420e+14	2.598126e+14	1.221872e+04	7.140542e+03	2.518348e+03	0	9.628979e-04
1.230000e+09	2.102983e+13	0.000000e+00	5.063291e-01	4.379681e+14	9.382824e+14	2.587091e+14	1.219582e+04	7.134142e+03	2.516090e+03	0	9.567275e-04
1.240000e+09	2.062821e+13	0.000000e+00	5.063291e-01	4.332196e+14	9.300634e+14	2.576128e+14	1.217316e+04	7.127804e+03	2.513855e+03	0	9.505979e-04
1.250000e+09	2.023430e+13	0.000000e+00	5.063291e-01	4.285589e+14	9.219816e+14	2.565238e+14	1.215074e+04	7.121529e+03	2.511642e+03	0	9.445082e-04
1.260000e+09	1.984789e+13	0.000000e+00	5.063291e-01	4.239837e+14	9.140336e+14	2.554419e+14	1.212857e+04	7.115314e+03	2.509450e+03	0	9.384571e-04
1.270000e+09	1.946879e+13	0.000000e+00	5.063291e-01	4.194919e+14	9.062161e+14	2.543672e+14	1.210663e+04	7.109158e+03	2.507279e+03	0	9.324437e-04
1.280000e+09	1.909680e+13	0.000000e+00	5.063291e-01	4.150813e+14	8.985260e+14	2.532995e+14	1.208493e+04	7.103061e+03	2.505129e+03	0	9.264668e-04
1.290000e+09	1.873175e+13	0.000000e+00	5.063291e-01	4.107499e+14	8.909602e+14	2.522389e+14	1.206345e+04	7.097022e+03	2.502999e+03	0	9.205253e-04
1.300000e+09	1.837345e+13	0.000000e+00	5.063291e-01	4.064957e+14	8.835158e+14	2.511852e+14	1.204219e+04	7.091039e+03	2.500889e+03	0	9.146183e-04
1.310000e+09	1.802174e+13	0.000000e+00	5.063291e-01	4.023167e+14	8.761899e+14	2.501385e+14	1.202116e+04	7.085112e+03	2.498798e+03	0	9.087447e-04
1.320000e+09	1.767645e+13	0.000000e+00	5.063291e-01	3.982111e+14	8.689797e+14	2.490985e+14	1.200034e+04	7.079240e+03	2.496727e+03	0	9.029035e-04
1.330000e+09	1.733742e+13	0.000000e+00	5.063291e-01	3.941771e+14	8.618824e+14	2.480654e+14	1.197973e+04	7.073421e+03	2.494675e+03	0	8.970937e-04
1.340000e+09	1.700449e+13	0.000000e+00	5.063291e-01	3.902129e+14	8.548956e+14	2.470391e+14	1.195933e+04	7.067655e+03	2.492641e+03	0	8.913143e-04
1.350000e+09	1.667752e+13	0.000000e+00	5.063291e-01	3.863169e+14	8.480166e+14	2.460194e+14	1.193913e+04	7.061941e+03	2.490626e+03	0	8.855644e-04
1.360000e+09	1.635636e+13	0.000000e+00	5.063291e-01	3.824873e+14	8.412430e+14	2.450064e+14	1.191914e+04	7.056278e+03	2.488629e+03	0	8.798431e-04
