#t		Qconv[W]	Ri[Rp]		R*[Rp]		Qc[W]		Qm[W]		Qr[W]		Tcmb[K]		Tl[K]		Tup[K]		RiFlag		Bs[T]
0.000000e+00	7.767141e+13	0.000000e+00	5.000001e-01	1.218530e+15	2.197519e+15	5.773906e+14	1.746553e+04	6.086546e+03	2.905907e+03	0	1.494265e-03
1.000000e+07	7.578966e+13	0.000000e+00	5.000001e-01	1.198602e+15	2.170234e+15	5.741914e+14	1.741430e+04	6.078995e+03	2.902301e+03	0	1.482099e-03
2.000000e+07	7.396104e+13	0.000000e+00	5.000001e-01	1.179221e+15	2.143536e+15	5.710161e+14	1.736390e+04	6.071519e+03	2.898732e+03	0	1.470082e-03
3.000000e+07	7.218353e+13	0.000000e+00	5.000001e-01	1.160366e+15	2.117408e+15	5.678646e+14	1.731431e+04	6.064120e+03	2.895200e+03	0	1.458210e-03
4.000000e+07	7.045521e+13	0.000000e+00	5.000001e-01	1.142018e+15	2.091838e+15	5.647366e+14	1.726551e+04	6.056797e+03	2.891704e+03	0	1.446478e-03
5.000000e+07	6.877423e+13	0.000000e+00	5.000001e-01	1.124158e+15	2.066808e+15	5.616320e+14	1.721748e+04	6.049549e+03	2.888243e+03	0	1.434881e-03
6.000000e+07	6.713884e+13	0.000000e+00	5.000001e-01	1.106768e+15	2.042305e+15	5.585505e+14	1.717020e+04	6.042377e+03	2.884819e+03	0	1.423416e-03
7.000000e+07	6.554736e+13	0.000000e+00	5.000001e-01	1.089831e+15	2.018315e+15	5.554919e+14	1.712364e+04	6.035278e+03	2.881430e+03	0	1.412079e-03
8.000000e+07	6.399821e+13	0.000000e+00	5.000001e-01	1.073330e+15	1.994823e+15	5.524561e+14	1.707779e+04	6.028253e+03	2.878076e+03	0	1.400866e-03
9.000000e+07	6.248986e+13	0.000000e+00	5.000001e-01	1.057251e+15	1.971817e+15	5.494429e+14	1.703263e+04	6.021302e+03	2.874757e+03	0	1.389773e-03
1.000000e+08	6.102085e+13	0.000000e+00	5.000001e-01	1.041578e+15	1.949283e+15	5.464520e+14	1.698815e+04	6.014423e+03	2.871473e+03	0	1.378796e-03
1.100000e+08	5.958979e+13	0.000000e+00	5.000001e-01	1.026298e+15	1.927209e+15	5.434833e+14	1.694432e+04	6.007615e+03	2.868222e+03	0	1.367932e-03
1.200000e+08	5.819537e+13	0.000000e+00	5.000001e-01	1.011396e+15	1.905581e+15	5.405366e+14	1.690113e+04	6.000878e+03	2.865006e+03	0	1.357178e-03
1.300000e+08	5.683629e+13	0.000000e+00	5.000001e-01	9.968595e+14	1.884388e+15	5.376118e+14	1.685857e+04	5.994211e+03	2.861823e+03	0	1.346530e-03
1.400000e+08	5.551136e+13	0.000000e+00	5.000001e-01	9.826765e+14	1.863619e+15	5.347086e+14	1.681661e+04	5.987613e+03	2.858673e+03	0	1.335984e-03
1.500000e+08	5.421940e+13	0.000000e+00	5.000001e-01	9.688349e+14	1.843261e+15	5.318268e+14	1.677525e+04	5.981083e+03	2.855555e+03	0	1.325538e-03
1.600000e+08	5.295931e+13	0.000000e+00	5.000001e-01	9.553233e+14	1.823303e+15	5.289664e+14	1.673447e+04	5.974621e+03	2.852470e+03	0	1.315189e-03
1.700000e+08	5.173001e+13	0.000000e+00	5.000001e-01	9.421309e+14	1.803736e+15	5.261270e+14	1.669426e+04	5.968225e+03	2.849417e+03	0	1.304933e-03
1.800000e+08	5.053049e+13	0.000000e+00	5.000001e-01	9.292471e+14	1.784549e+15	5.233086e+14	1.665459e+04	5.961895e+03	2.846394e+03	0	1.294768e-03
1.900000e+08	4.935976e+13	0.000000e+00	5.000001e-01	9.166620e+14	1.765730e+15	5.205109e+14	1.661547e+04	5.955630e+03	2.843403e+03	0	1.284690e-03
2.000000e+08	4.821689e+13	0.000000e+00	5.000001e-01	9.043659e+14	1.747272e+15	5.177339e+14	1.657688e+04	5.949428e+03	2.840442e+03	0	1.274697e-03
2.100000e+08	4.710098e+13	0.000000e+00	5.000001e-01	8.923497e+14	1.729163e+15	5.149772e+14	1.653880e+04	5.943289e+03	2.837511e+03	0	1.264787e-03
2.200000e+08	4.601116e+13	0.000000e+00	5.000001e-01	8.806045e+14	1.711396e+15	5.122408e+14	1.650122e+04	5.937212e+03	2.834610e+03	0	1.254956e-03
2.300000e+08	4.494661e+13	0.000000e+00	5.000001e-01	8.691217e+14	1.693961e+15	5.095245e+14	1.646414e+04	5.931196e+03	2.831738e+03	0	1.245201e-03
2.400000e+08	4.390652e+13	0.000000e+00	5.000001e-01	8.578934e+14	1.676848e+15	5.068281e+14	1.642753e+04	5.925240e+03	2.828894e+03	0	1.235522e-03
2.500000e+08	4.289014e+13	0.000000e+00	5.000001e-01	8.469115e+14	1.660051e+15	5.041514e+14	1.639140e+04	5.919344e+03	2.826079e+03	0	1.225913e-03
2.600000e+08	4.189672e+13	0.000000e+00	5.000001e-01	8.361687e+14	1.643561e+15	5.014943e+14	1.635573e+04	5.913506e+03	2.823292e+03	0	1.216375e-03
2.700000e+08	4.092557e+13	0.000000e+00	5.000001e-01	8.256576e+14	1.627370e+15	4.988567e+14	1.632051e+04	5.907725e+03	2.820532e+03	0	1.206903e-03
2.800000e+08	3.997601e+13	0.000000e+00	5.000001e-01	8.153713e+14	1.611470e+15	4.962383e+14	1.628573e+04	5.902002e+03	2.817799e+03	0	1.197495e-03
2.900000e+08	3.904738e+13	0.000000e+00	5.000001e-01	8.053031e+14	1.595853e+15	4.936390e+14	1.625138e+04	5.896333e+03	2.815093e+03	0	1.188150e-03
3.000000e+08	3.813905e+13	0.000000e+00	5.000001e-01	7.954466e+14	1.580514e+15	4.910587e+14	1.621746e+04	5.890720e+03	2.812413e+03	0	1.178865e-03
3.100000e+08	3.725042e+13	0.000000e+00	5.000001e-01	7.857956e+14	1.565444e+15	4.884972e+14	1.618395e+04	5.885161e+03	2.809759e+03	0	1.169637e-03
3.200000e+08	3.638092e+13	0.000000e+00	5.000001e-01	7.763440e+14	1.550637e+15	4.859543e+14	1.615084e+04	5.879655e+03	2.807131e+03	0	1.160465e-03
3.300000e+08	3.552997e+13	0.000000e+00	5.000001e-01	7.670862e+14	1.536087e+15	4.834299e+14	1.611813e+04	5.874202e+03	2.804527e+03	0	1.151345e-03
3.400000e+08	3.469705e+13	0.000000e+00	5.000001e-01	7.580167e+14	1.521787e+15	4.809238e+14	1.608581e+04	5.868800e+03	2.801948e+03	0	1.142277e-03
3.500000e+08	3.388162e+13	0.000000e+00	5.000001e-01	7.491300e+14	1.507731e+15	4.784360e+14	1.605387e+04	5.863449e+03	2.799393e+03	0	1.133258e-03
3.600000e+08	3.308320e+13	0.000000e+00	5.000001e-01	7.404210e+14	1.493912e+15	4.759661e+14	1.602230e+04	5.858148e+03	2.796862e+03	0	1.124285e-03
3.700000e+08	3.230130e+13	0.000000e+00	5.000001e-01	7.318848e+14	1.480326e+15	4.735142e+14	1.599109e+04	5.852897e+03	2.794355e+03	0	1.115357e-03
3.800000e+08	3.153545e+13	0.000000e+00	5.000001e-01	7.235165e+14	1.466967e+15	4.710799e+14	1.596025e+04	5.847693e+03	2.791871e+03	0	1.106472e-03
3.900000e+08	3.078521e+13	0.000000e+00	5.000001e-01	7.153117e+14	1.453829e+15	4.686633e+14	1.592976e+04	5.842538e+03	2.789410e+03	0	1.097627e-03
4.000000e+08	3.005014e+13	0.000000e+00	5.000001e-01	7.072657e+14	1.440906e+15	4.662641e+14	1.589961e+04	5.837430e+03	2.786971e+03	0	1.088820e-03
4.100000e+08	2.932982e+13	0.000000e+00	5.000001e-01	6.993744e+14	1.428194e+15	4.638823e+14	1.586980e+04	5.832367e+03	2.784554e+03	0	1.080050e-03
4.200000e+08	2.862386e+13	0.000000e+00	5.000001e-01	6.916335e+14	1.415689e+15	4.615176e+14	1.584032e+04	5.827351e+03	2.782159e+03	0	1.071314e-03
4.300000e+08	2.793186e+13	0.000000e+00	5.000001e-01	6.840391e+14	1.403384e+15	4.591699e+14	1.581116e+04	5.822379e+03	2.779785e+03	0	1.062610e-03
4.400000e+08	2.725345e+13	0.000000e+00	5.000001e-01	6.765872e+14	1.391275e+15	4.568391e+14	1.578233e+04	5.817452e+03	2.777433e+03	0	1.053937e-03
4.500000e+08	2.658826e+13	0.000000e+00	5.000001e-01	6.692742e+14	1.379358e+15	4.545251e+14	1.575380e+04	5.812567e+03	2.775101e+03	0	1.045291e-03
4.600000e+08	2.593594e+13	0.000000e+00	5.000001e-01	6.620963e+14	1.367628e+15	4.522277e+14	1.572559e+04	5.807726e+03	2.772789e+03	0	1.036672e-03
4.700000e+08	2.529616e+13	0.000000e+00	5.000001e-01	6.550502e+14	1.356082e+15	4.499467e+14	1.569767e+04	5.802927e+03	2.770498e+03	0	1.028077e-03
4.800000e+08	2.466858e+13	0.000000e+00	5.000001e-01	6.481324e+14	1.344714e+15	4.476821e+14	1.567006e+04	5.798170e+03	2.768227e+03	0	1.019503e-03
4.900000e+08	2.405289e+13	0.000000e+00	5.000001e-01	6.413397e+14	1.333521e+15	4.454338e+14	1.564273e+04	5.793453e+03	2.765975e+03	0	1.010950e-03
5.000000e+08	2.344879e+13	0.000000e+00	5.000001e-01	6.346689e+14	1.322499e+15	4.432015e+14	1.561569e+04	5.788777e+03	2.763742e+03	0	1.002415e-03
5.100000e+08	2.285597e+13	0.000000e+00	5.000001e-01	6.281169e+14	1.311644e+15	4.409851e+14	1.558892e+04	5.784140e+03	2.761528e+03	0	9.938950e-04
5.200000e+08	2.227415e+13	0.000000e+00	5.000001e-01	6.216807e+14	1.300953e+15	4.387846e+14	1.556244e+04	5.779542e+03	2.759333e+03	0	9.853890e-04
5.300000e+08	2.170305e+13	0.000000e+00	5.000001e-01	6.153575e+14	1.290421e+15	4.365997e+14	1.553622e+04	5.774983e+03	2.757157e+03	0	9.768943e-04
5.400000e+08	2.114241e+13	0.000000e+00	5.000001e-01	6.091446e+14	1.280046e+15	4.344304e+14	1.551027e+04	5.770462e+03	2.754998e+03	0	9.684090e-04
5.500000e+08	2.059196e+13	0.000000e+00	5.000001e-01	6.030391e+14	1.269824e+15	4.322766e+14	1.548458e+04	5.765978e+03	2.752857e+03	0	9.599306e-04
5.600000e+08	2.005144e+13	0.000000e+00	5.000001e-01	5.970386e+14	1.259751e+15	4.301380e+14	1.545915e+04	5.761531e+03	2.750734e+03	0	9.514571e-04
5.700000e+08	1.952063e+13	0.000000e+00	5.000001e-01	5.911405e+14	1.249825e+15	4.280147e+14	1.543397e+04	5.757120e+03	2.748628e+03	0	9.429860e-04
5.800000e+08	1.899927e+13	0.000000e+00	5.000001e-01	5.853422e+14	1.240042e+15	4.259064e+14	1.540904e+04	5.752745e+03	2.746539e+03	0	9.345151e-04
5.900000e+08	1.848715e+13	0.000000e+00	5.000001e-01	5.796416e+14	1.230399e+15	4.238131e+14	1.538435e+04	5.748405e+03	2.744467e+03	0	9.260418e-04
6.000000e+08	1.798403e+13	0.000000e+00	5.000001e-01	5.740362e+14	1.220893e+15	4.217345e+14	1.535990e+04	5.744099e+03	2.742412e+03	0	9.175639e-04
6.100000e+08	1.748970e+13	0.000000e+00	5.000001e-01	5.685238e+14	1.211522e+15	4.196707e+14	1.533569e+04	5.739828e+03	2.740373e+03	0	9.090787e-04
6.200000e+08	1.700396e+13	0.000000e+00	5.000001e-01	5.631023e+14	1.202283e+15	4.176215e+14	1.531171e+04	5.735591e+03	2.738350e+03	0	9.005836e-04
6.300000e+08	1.652660e+13	0.000000e+00	5.000001e-01	5.577695e+14	1.193172e+15	4.155867e+14	1.528795e+04	5.731387e+03	2.736342e+03	0	8.920760e-04
6.400000e+08	1.605743e+13	0.000000e+00	5.000001e-01	5.525234e+14	1.184188e+15	4.135663e+14	1.526442e+04	5.727215e+03	2.734351e+03	0	8.835531e-04
6.500000e+08	1.559625e+13	0.000000e+00	5.000001e-01	5.473620e+14	1.175327e+15	4.115601e+14	1.524111e+04	5.723076e+03	2.732375e+03	0	8.750120e-04
6.600000e+08	1.514287e+13	0.000000e+00	5.000001e-01	5.422835e+14	1.166588e+15	4.095680e+14	1.521802e+04	5.718968e+03	2.730413e+03	0	8.664498e-04
6.700000e+08	1.469713e+13	0.000000e+00	5.000001e-01	5.372859e+14	1.157967e+15	4.075900e+14	1.519514e+04	5.714892e+03	2.728467e+03	0	8.578634e-04
6.800000e+08	1.425884e+13	0.000000e+00	5.000001e-01	5.323674e+14	1.149463e+15	4.056258e+14	1.517248e+04	5.710846e+03	2.726536e+03	0	8.492496e-04
6.900000e+08	1.382783e+13	0.000000e+00	5.000001e-01	5.275263e+14	1.141073e+15	4.036754e+14	1.515001e+04	5.706832e+03	2.724619e+03	0	8.406051e-04
7.000000e+08	1.340395e+13	0.000000e+00	5.000001e-01	5.227609e+14	1.132794e+15	4.017387e+14	1.512776e+04	5.702847e+03	2.722717e+03	0	8.319264e-04
7.100000e+08	1.298703e+13	0.000000e+00	5.000001e-01	5.180695e+14	1.124626e+15	3.998155e+14	1.510570e+04	5.698891e+03	2.720828e+03	0	8.232098e-04
7.200000e+08	1.257691e+13	0.000000e+00	5.000001e-01	5.134504e+14	1.116564e+15	3.979058e+14	1.508384e+04	5.694965e+03	2.718954e+03	0	8.144516e-04
7.300000e+08	1.217344e+13	0.000000e+00	5.000001e-01	5.089022e+14	1.108608e+15	3.960094e+14	1.506217e+04	5.691068e+03	2.717093e+03	0	8.056476e-04
7.400000e+08	1.177649e+13	0.000000e+00	5.000001e-01	5.044232e+14	1.100755e+15	3.941263e+14	1.504070e+04	5.687199e+03	2.715246e+03	0	7.967937e-04
7.500000e+08	1.138590e+13	0.000000e+00	5.000001e-01	5.000120e+14	1.093004e+15	3.922563e+14	1.501941e+04	5.683358e+03	2.713412e+03	0	7.878854e-04
7.600000e+08	1.100153e+13	0.000000e+00	5.000001e-01	4.956672e+14	1.085352e+15	3.903993e+14	1.499831e+04	5.679545e+03	2.711592e+03	0	7.789180e-04
7.700000e+08	1.062326e+13	0.000000e+00	5.000001e-01	4.913874e+14	1.077798e+15	3.885552e+14	1.497740e+04	5.675759e+03	2.709784e+03	0	7.698863e-04
7.800000e+08	1.025095e+13	0.000000e+00	5.000001e-01	4.871711e+14	1.070339e+15	3.867240e+14	1.495666e+04	5.672000e+03	2.707990e+03	0	7.607852e-04
7.900000e+08	9.884476e+12	0.000000e+00	5.000001e-01	4.830171e+14	1.062975e+15	3.849055e+14	1.493610e+04	5.668268e+03	2.706208e+03	0	7.516088e-04
8.000000e+08	9.523709e+12	0.000000e+00	5.000001e-01	4.789241e+14	1.055702e+15	3.830996e+14	1.491572e+04	5.664562e+03	2.704438e+03	0	7.423511e-04
8.100000e+08	9.168531e+12	0.000000e+00	5.000001e-01	4.748907e+14	1.048520e+15	3.813062e+14	1.489550e+04	5.660881e+03	2.702681e+03	0	7.330055e-04
8.200000e+08	8.818824e+12	0.000000e+00	5.000001e-01	4.709159e+14	1.041427e+15	3.795252e+14	1.487546e+04	5.657226e+03	2.700936e+03	0	7.235650e-04
8.300000e+08	8.474475e+12	0.000000e+00	5.000001e-01	4.669983e+14	1.034421e+15	3.777565e+14	1.485558e+04	5.653596e+03	2.699203e+03	0	7.140220e-04
8.400000e+08	8.135371e+12	0.000000e+00	5.000001e-01	4.631369e+14	1.027500e+15	3.760001e+14	1.483587e+04	5.649991e+03	2.697482e+03	0	7.043683e-04
8.500000e+08	7.801405e+12	0.000000e+00	5.000001e-01	4.593304e+14	1.020664e+15	3.742557e+14	1.481632e+04	5.646411e+03	2.695772e+03	0	6.945949e-04
8.600000e+08	7.472472e+12	0.000000e+00	5.000001e-01	4.555779e+14	1.013910e+15	3.725234e+14	1.479694e+04	5.642855e+03	2.694075e+03	0	6.846922e-04
8.700000e+08	7.148467e+12	0.000000e+00	5.000001e-01	4.518781e+14	1.007237e+15	3.708030e+14	1.477771e+04	5.639322e+03	2.692388e+03	0	6.746496e-04
8.800000e+08	6.829292e+12	0.000000e+00	5.000001e-01	4.482301e+14	1.000644e+15	3.690945e+14	1.475863e+04	5.635814e+03	2.690713e+03	0	6.644555e-04
8.900000e+08	6.514848e+12	0.000000e+00	5.000001e-01	4.446329e+14	9.941287e+14	3.673977e+14	1.473971e+04	5.632328e+03	2.689049e+03	0	6.540969e-04
9.000000e+08	6.205042e+12	0.000000e+00	5.000001e-01	4.410854e+14	9.876906e+14	3.657125e+14	1.472094e+04	5.628866e+03	2.687396e+03	0	6.435598e-04
9.100000e+08	5.899779e+12	0.000000e+00	5.000001e-01	4.375867e+14	9.813281e+14	3.640389e+14	1.470232e+04	5.625426e+03	2.685754e+03	0	6.328283e-04
9.200000e+08	5.598970e+12	0.000000e+00	5.000001e-01	4.341359e+14	9.750397e+14	3.623767e+14	1.468385e+04	5.622009e+03	2.684122e+03	0	6.218849e-04
9.300000e+08	5.302527e+12	0.000000e+00	5.000001e-01	4.307319e+14	9.688243e+14	3.607260e+14	1.466552e+04	5.618613e+03	2.682501e+03	0	6.107099e-04
9.400000e+08	5.010365e+12	0.000000e+00	5.000001e-01	4.273740e+14	9.626805e+14	3.590864e+14	1.464734e+04	5.615240e+03	2.680890e+03	0	5.992809e-04
9.500000e+08	4.722398e+12	0.000000e+00	5.000001e-01	4.240612e+14	9.566073e+14	3.574581e+14	1.462929e+04	5.611888e+03	2.679290e+03	0	5.875726e-04
9.600000e+08	4.438547e+12	0.000000e+00	5.000001e-01	4.207927e+14	9.506033e+14	3.558409e+14	1.461139e+04	5.608558e+03	2.677700e+03	0	5.755560e-04
9.700000e+08	4.158731e+12	0.000000e+00	5.000001e-01	4.175677e+14	9.446674e+14	3.542347e+14	1.459363e+04	5.605249e+03	2.676120e+03	0	5.631978e-04
9.800000e+08	3.882873e+12	0.000000e+00	5.000001e-01	4.143853e+14	9.387985e+14	3.526395e+14	1.457600e+04	5.601960e+03	2.674550e+03	0	5.504591e-04
9.900000e+08	3.610897e+12	0.000000e+00	5.000001e-01	4.112447e+14	9.329954e+14	3.510550e+14	1.455850e+04	5.598692e+03	2.672990e+03	0	5.372945e-04
1.000000e+09	3.342730e+12	0.000000e+00	5.000001e-01	4.081452e+14	9.272571e+14	3.494814e+14	1.454114e+04	5.595445e+03	2.671440e+03	0	5.236499e-04
1.010000e+09	3.078298e+12	0.000000e+00	5.000001e-01	4.050860e+14	9.215825e+14	3.479184e+14	1.452390e+04	5.592217e+03	2.669899e+03	0	5.094609e-04
1.020000e+09	2.817533e+12	0.000000e+00	5.000001e-01	4.020664e+14	9.159705e+14	3.463660e+14	1.450680e+04	5.589010e+03	2.668367e+03	0	4.946488e-04
1.030000e+09	2.560364e+12	0.000000e+00	5.000001e-01	3.990857e+14	9.104202e+14	3.448241e+14	1.448982e+04	5.585822e+03	2.666845e+03	0	4.791166e-04
1.040000e+09	2.306726e+12	0.000000e+00	5.000001e-01	3.961430e+14	9.049305e+14	3.432926e+14	1.447297e+04	5.582653e+03	2.665332e+03	0	4.627424e-04
1.050000e+09	2.056552e+12	0.000000e+00	5.000001e-01	3.932379e+14	8.995005e+14	3.417715e+14	1.445624e+04	5.579503e+03	2.663829e+03	0	4.453696e-04
1.060000e+09	1.809780e+12	0.000000e+00	5.000001e-01	3.903695e+14	8.941291e+14	3.402606e+14	1.443964e+04	5.576373e+03	2.662334e+03	0	4.267916e-04
1.070000e+09	1.566345e+12	0.000000e+00	5.000001e-01	3.875372e+14	8.888156e+14	3.387599e+14	1.442315e+04	5.573261e+03	2.660848e+03	0	4.067271e-04
1.080000e+09	1.326189e+12	0.000000e+00	5.000001e-01	3.847405e+14	8.835589e+14	3.372693e+14	1.440679e+04	5.570168e+03	2.659372e+03	0	3.847770e-04
1.090000e+09	1.089250e+12	0.000000e+00	5.000001e-01	3.819785e+14	8.783582e+14	3.357887e+14	1.439054e+04	5.567093e+03	2.657903e+03	0	3.603433e-04
1.100000e+09	8.554704e+11	0.000000e+00	5.000001e-01	3.792509e+14	8.732125e+14	3.343181e+14	1.437441e+04	5.564036e+03	2.656444e+03	0	3.324622e-04
1.110000e+09	6.247942e+11	0.000000e+00	5.000001e-01	3.765568e+14	8.681211e+14	3.328573e+14	1.435839e+04	5.560997e+03	2.654993e+03	0	2.994008e-04
1.120000e+09	3.971653e+11	0.000000e+00	5.000001e-01	3.738959e+14	8.630830e+14	3.314063e+14	1.434249e+04	5.557975e+03	2.653551e+03	0	2.574331e-04
1.130000e+09	1.725295e+11	0.000000e+00	5.000001e-01	3.712674e+14	8.580975e+14	3.299650e+14	1.432670e+04	5.554972e+03	2.652116e+03	0	1.949673e-04
1.140000e+09	-4.916620e+10	0.000000e+00	5.000001e-01	3.686709e+14	8.531638e+14	3.285334e+14	1.431102e+04	5.551985e+03	2.650691e+03	0	nan
