#t		Qconv[W]	Ri[Rp]		R*[Rp]		Qc[W]		Qm[W]		Qr[W]		Tcmb[K]		Tl[K]		Tup[K]		RiFlag		Bs[T]
0.000000e+00	4.188514e+14	0.000000e+00	5.096774e-01	4.538819e+15	2.769575e+15	6.794704e+14	2.348611e+04	7.111857e+03	2.974457e+03	0	2.560814e-03
1.000000e+07	4.068276e+14	0.000000e+00	5.096774e-01	4.429848e+15	2.858451e+15	6.757057e+14	2.334512e+04	7.152779e+03	2.991572e+03	0	2.536072e-03
2.000000e+07	3.951637e+14	0.000000e+00	5.096774e-01	4.324104e+15	2.939776e+15	6.719691e+14	2.320748e+04	7.190313e+03	3.007270e+03	0	2.511600e-03
3.000000e+07	3.838522e+14	0.000000e+00	5.096774e-01	4.221518e+15	3.013581e+15	6.682604e+14	2.307309e+04	7.224644e+03	3.021629e+03	0	2.487403e-03
4.000000e+07	3.728854e+14	0.000000e+00	5.096774e-01	4.122021e+15	3.079978e+15	6.645794e+14	2.294187e+04	7.255956e+03	3.034725e+03	0	2.463485e-03
5.000000e+07	3.622553e+14	0.000000e+00	5.096774e-01	4.025540e+15	3.139146e+15	6.609258e+14	2.281371e+04	7.284427e+03	3.046632e+03	0	2.439849e-03
6.000000e+07	3.519538e+14	0.000000e+00	5.096774e-01	3.932003e+15	3.191320e+15	6.572995e+14	2.268852e+04	7.310232e+03	3.057425e+03	0	2.416499e-03
7.000000e+07	3.419727e+14	0.000000e+00	5.096774e-01	3.841333e+15	3.236777e+15	6.537002e+14	2.256621e+04	7.333539e+03	3.067173e+03	0	2.393436e-03
8.000000e+07	3.323034e+14	0.000000e+00	5.096774e-01	3.753456e+15	3.275825e+15	6.501277e+14	2.244670e+04	7.354511e+03	3.075944e+03	0	2.370662e-03
9.000000e+07	3.229375e+14	0.000000e+00	5.096774e-01	3.668294e+15	3.308797e+15	6.465817e+14	2.232991e+04	7.373303e+03	3.083804e+03	0	2.348177e-03
1.000000e+08	3.138663e+14	0.000000e+00	5.096774e-01	3.585771e+15	3.336040e+15	6.430621e+14	2.221573e+04	7.390063e+03	3.090814e+03	0	2.325982e-03
1.100000e+08	3.050813e+14	0.000000e+00	5.096774e-01	3.505808e+15	3.357909e+15	6.395686e+14	2.210411e+04	7.404933e+03	3.097033e+03	0	2.304075e-03
1.200000e+08	2.965739e+14	0.000000e+00	5.096774e-01	3.428330e+15	3.374762e+15	6.361009e+14	2.199496e+04	7.418045e+03	3.102517e+03	0	2.282456e-03
1.300000e+08	2.883355e+14	0.000000e+00	5.096774e-01	3.353259e+15	3.386950e+15	6.326590e+14	2.188820e+04	7.429527e+03	3.107319e+03	0	2.261123e-03
1.400000e+08	2.803575e+14	0.000000e+00	5.096774e-01	3.280520e+15	3.394823e+15	6.292425e+14	2.178375e+04	7.439496e+03	3.111488e+03	0	2.240073e-03
1.500000e+08	2.726318e+14	0.000000e+00	5.096774e-01	3.210038e+15	3.398714e+15	6.258513e+14	2.168156e+04	7.448064e+03	3.115072e+03	0	2.219305e-03
1.600000e+08	2.651499e+14	0.000000e+00	5.096774e-01	3.141738e+15	3.398950e+15	6.224851e+14	2.158154e+04	7.455335e+03	3.118113e+03	0	2.198814e-03
1.700000e+08	2.579037e+14	0.000000e+00	5.096774e-01	3.075549e+15	3.395841e+15	6.191438e+14	2.148364e+04	7.461408e+03	3.120653e+03	0	2.178599e-03
1.800000e+08	2.508853e+14	0.000000e+00	5.096774e-01	3.011400e+15	3.389679e+15	6.158271e+14	2.138778e+04	7.466374e+03	3.122730e+03	0	2.158655e-03
1.900000e+08	2.440869e+14	0.000000e+00	5.096774e-01	2.949220e+15	3.380746e+15	6.125348e+14	2.129391e+04	7.470317e+03	3.124379e+03	0	2.138978e-03
2.000000e+08	2.375009e+14	0.000000e+00	5.096774e-01	2.888943e+15	3.369302e+15	6.092667e+14	2.120197e+04	7.473318e+03	3.125634e+03	0	2.119564e-03
2.100000e+08	2.311199e+14	0.000000e+00	5.096774e-01	2.830502e+15	3.355593e+15	6.060227e+14	2.111188e+04	7.475451e+03	3.126526e+03	0	2.100409e-03
2.200000e+08	2.249367e+14	0.000000e+00	5.096774e-01	2.773833e+15	3.339849e+15	6.028025e+14	2.102361e+04	7.476783e+03	3.127083e+03	0	2.081509e-03
2.300000e+08	2.189443e+14	0.000000e+00	5.096774e-01	2.718874e+15	3.322283e+15	5.996060e+14	2.093709e+04	7.477379e+03	3.127332e+03	0	2.062858e-03
2.400000e+08	2.131359e+14	0.000000e+00	5.096774e-01	2.665565e+15	3.303093e+15	5.964329e+14	2.085228e+04	7.477298e+03	3.127298e+03	0	2.044452e-03
2.500000e+08	2.075050e+14	0.000000e+00	5.096774e-01	2.613847e+15	3.282462e+15	5.932830e+14	2.076911e+04	7.476594e+03	3.127004e+03	0	2.026287e-03
2.600000e+08	2.020452e+14	0.000000e+00	5.096774e-01	2.563663e+15	3.260558e+15	5.901561e+14	2.068755e+04	7.475319e+03	3.126471e+03	0	2.008357e-03
2.700000e+08	1.967502e+14	0.000000e+00	5.096774e-01	2.514959e+15	3.237538e+15	5.870522e+14	2.060755e+04	7.473519e+03	3.125718e+03	0	1.990657e-03
2.800000e+08	1.916144e+14	0.000000e+00	5.096774e-01	2.467682e+15	3.213544e+15	5.839709e+14	2.052905e+04	7.471239e+03	3.124764e+03	0	1.973183e-03
2.900000e+08	1.866318e+14	0.000000e+00	5.096774e-01	2.421781e+15	3.188708e+15	5.809121e+14	2.045202e+04	7.468518e+03	3.123626e+03	0	1.955930e-03
3.000000e+08	1.817970e+14	0.000000e+00	5.096774e-01	2.377207e+15	3.163147e+15	5.778756e+14	2.037642e+04	7.465393e+03	3.122320e+03	0	1.938892e-03
3.100000e+08	1.771046e+14	0.000000e+00	5.096774e-01	2.333912e+15	3.136973e+15	5.748612e+14	2.030219e+04	7.461900e+03	3.120859e+03	0	1.922065e-03
3.200000e+08	1.725496e+14	0.000000e+00	5.096774e-01	2.291852e+15	3.110284e+15	5.718687e+14	2.022931e+04	7.458070e+03	3.119257e+03	0	1.905443e-03
3.300000e+08	1.681270e+14	0.000000e+00	5.096774e-01	2.250982e+15	3.083172e+15	5.688980e+14	2.015774e+04	7.453932e+03	3.117526e+03	0	1.889023e-03
3.400000e+08	1.638320e+14	0.000000e+00	5.096774e-01	2.211259e+15	3.055718e+15	5.659489e+14	2.008743e+04	7.449514e+03	3.115678e+03	0	1.872798e-03
3.500000e+08	1.596602e+14	0.000000e+00	5.096774e-01	2.172644e+15	3.027997e+15	5.630211e+14	2.001836e+04	7.444841e+03	3.113724e+03	0	1.856765e-03
3.600000e+08	1.556071e+14	0.000000e+00	5.096774e-01	2.135097e+15	3.000077e+15	5.601146e+14	1.995049e+04	7.439937e+03	3.111673e+03	0	1.840918e-03
3.700000e+08	1.516685e+14	0.000000e+00	5.096774e-01	2.098581e+15	2.972019e+15	5.572292e+14	1.988378e+04	7.434821e+03	3.109533e+03	0	1.825254e-03
3.800000e+08	1.478403e+14	0.000000e+00	5.096774e-01	2.063059e+15	2.943878e+15	5.543646e+14	1.981821e+04	7.429516e+03	3.107314e+03	0	1.809766e-03
3.900000e+08	1.441187e+14	0.000000e+00	5.096774e-01	2.028497e+15	2.915703e+15	5.515207e+14	1.975374e+04	7.424038e+03	3.105023e+03	0	1.794451e-03
4.000000e+08	1.404999e+14	0.000000e+00	5.096774e-01	1.994862e+15	2.887539e+15	5.486974e+14	1.969034e+04	7.418404e+03	3.102667e+03	0	1.779304e-03
4.100000e+08	1.369803e+14	0.000000e+00	5.096774e-01	1.962121e+15	2.859426e+15	5.458944e+14	1.962799e+04	7.412631e+03	3.100252e+03	0	1.764321e-03
4.200000e+08	1.335565e+14	0.000000e+00	5.096774e-01	1.930244e+15	2.831399e+15	5.431117e+14	1.956666e+04	7.406733e+03	3.097785e+03	0	1.749497e-03
4.300000e+08	1.302252e+14	0.000000e+00	5.096774e-01	1.899201e+15	2.803491e+15	5.403490e+14	1.950631e+04	7.400722e+03	3.095272e+03	0	1.734828e-03
4.400000e+08	1.269831e+14	0.000000e+00	5.096774e-01	1.868964e+15	2.775730e+15	5.376061e+14	1.944694e+04	7.394612e+03	3.092716e+03	0	1.720310e-03
4.500000e+08	1.238272e+14	0.000000e+00	5.096774e-01	1.839505e+15	2.748140e+15	5.348830e+14	1.938850e+04	7.388414e+03	3.090124e+03	0	1.705939e-03
4.600000e+08	1.207545e+14	0.000000e+00	5.096774e-01	1.810799e+15	2.720744e+15	5.321794e+14	1.933098e+04	7.382138e+03	3.087499e+03	0	1.691710e-03
4.700000e+08	1.177623e+14	0.000000e+00	5.096774e-01	1.782819e+15	2.693562e+15	5.294952e+14	1.927435e+04	7.375793e+03	3.084845e+03	0	1.677620e-03
4.800000e+08	1.148479e+14	0.000000e+00	5.096774e-01	1.755542e+15	2.666611e+15	5.268302e+14	1.921859e+04	7.369389e+03	3.082167e+03	0	1.663664e-03
4.900000e+08	1.120085e+14	0.000000e+00	5.096774e-01	1.728945e+15	2.639905e+15	5.241843e+14	1.916368e+04	7.362934e+03	3.079467e+03	0	1.649840e-03
5.000000e+08	1.092418e+14	0.000000e+00	5.096774e-01	1.703005e+15	2.613458e+15	5.215573e+14	1.910960e+04	7.356436e+03	3.076749e+03	0	1.636142e-03
5.100000e+08	1.065453e+14	0.000000e+00	5.096774e-01	1.677701e+15	2.587281e+15	5.189492e+14	1.905633e+04	7.349900e+03	3.074016e+03	0	1.622568e-03
5.200000e+08	1.039167e+14	0.000000e+00	5.096774e-01	1.653011e+15	2.561383e+15	5.163596e+14	1.900384e+04	7.343335e+03	3.071270e+03	0	1.609113e-03
5.300000e+08	1.013537e+14	0.000000e+00	5.096774e-01	1.628917e+15	2.535772e+15	5.137884e+14	1.895213e+04	7.336746e+03	3.068514e+03	0	1.595774e-03
5.400000e+08	9.885430e+13	0.000000e+00	5.096774e-01	1.605399e+15	2.510455e+15	5.112356e+14	1.890116e+04	7.330138e+03	3.065751e+03	0	1.582547e-03
5.500000e+08	9.641638e+13	0.000000e+00	5.096774e-01	1.582438e+15	2.485438e+15	5.087010e+14	1.885092e+04	7.323517e+03	3.062981e+03	0	1.569429e-03
5.600000e+08	9.403797e+13	0.000000e+00	5.096774e-01	1.560018e+15	2.460724e+15	5.061844e+14	1.880140e+04	7.316886e+03	3.060208e+03	0	1.556417e-03
5.700000e+08	9.171718e+13	0.000000e+00	5.096774e-01	1.538121e+15	2.436318e+15	5.036856e+14	1.875258e+04	7.310251e+03	3.057433e+03	0	1.543506e-03
5.800000e+08	8.945216e+13	0.000000e+00	5.096774e-01	1.516730e+15	2.412221e+15	5.012046e+14	1.870444e+04	7.303615e+03	3.054658e+03	0	1.530694e-03
5.900000e+08	8.724118e+13	0.000000e+00	5.096774e-01	1.495830e+15	2.388436e+15	4.987412e+14	1.865697e+04	7.296982e+03	3.051883e+03	0	1.517977e-03
6.000000e+08	8.508253e+13	0.000000e+00	5.096774e-01	1.475406e+15	2.364963e+15	4.962952e+14	1.861014e+04	7.290355e+03	3.049112e+03	0	1.505353e-03
6.100000e+08	8.297459e+13	0.000000e+00	5.096774e-01	1.455443e+15	2.341802e+15	4.938665e+14	1.856396e+04	7.283738e+03	3.046344e+03	0	1.492817e-03
6.200000e+08	8.091579e+13	0.000000e+00	5.096774e-01	1.435928e+15	2.318954e+15	4.914550e+14	1.851839e+04	7.277132e+03	3.043581e+03	0	1.480366e-03
6.300000e+08	7.890462e+13	0.000000e+00	5.096774e-01	1.416846e+15	2.296418e+15	4.890604e+14	1.847344e+04	7.270541e+03	3.040825e+03	0	1.467998e-03
6.400000e+08	7.693964e+13	0.000000e+00	5.096774e-01	1.398185e+15	2.274193e+15	4.866828e+14	1.842908e+04	7.263967e+03	3.038075e+03	0	1.455710e-03
6.500000e+08	7.501944e+13	0.000000e+00	5.096774e-01	1.379932e+15	2.252276e+15	4.843219e+14	1.838530e+04	7.257412e+03	3.035334e+03	0	1.443497e-03
6.600000e+08	7.314268e+13	0.000000e+00	5.096774e-01	1.362075e+15	2.230666e+15	4.819777e+14	1.834209e+04	7.250879e+03	3.032601e+03	0	1.431358e-03
6.700000e+08	7.130806e+13	0.000000e+00	5.096774e-01	1.344603e+15	2.209361e+15	4.796499e+14	1.829943e+04	7.244368e+03	3.029878e+03	0	1.419289e-03
6.800000e+08	6.951433e+13	0.000000e+00	5.096774e-01	1.327503e+15	2.188358e+15	4.773385e+14	1.825732e+04	7.237881e+03	3.027165e+03	0	1.407288e-03
6.900000e+08	6.776028e+13	0.000000e+00	5.096774e-01	1.310766e+15	2.167655e+15	4.750433e+14	1.821575e+04	7.231421e+03	3.024463e+03	0	1.395350e-03
7.000000e+08	6.604475e+13	0.000000e+00	5.096774e-01	1.294381e+15	2.147247e+15	4.727641e+14	1.817469e+04	7.224988e+03	3.021772e+03	0	1.383473e-03
7.100000e+08	6.436662e+13	0.000000e+00	5.096774e-01	1.278338e+15	2.127133e+15	4.705010e+14	1.813415e+04	7.218583e+03	3.019094e+03	0	1.371655e-03
7.200000e+08	6.272481e+13	0.000000e+00	5.096774e-01	1.262627e+15	2.107309e+15	4.682536e+14	1.809411e+04	7.212208e+03	3.016428e+03	0	1.359892e-03
7.300000e+08	6.111827e+13	0.000000e+00	5.096774e-01	1.247239e+15	2.087770e+15	4.660220e+14	1.805456e+04	7.205864e+03	3.013774e+03	0	1.348182e-03
7.400000e+08	5.954601e+13	0.000000e+00	5.096774e-01	1.232164e+15	2.068515e+15	4.638059e+14	1.801548e+04	7.199551e+03	3.011134e+03	0	1.336521e-03
7.500000e+08	5.800705e+13	0.000000e+00	5.096774e-01	1.217394e+15	2.049538e+15	4.616053e+14	1.797688e+04	7.193271e+03	3.008507e+03	0	1.324906e-03
7.600000e+08	5.650045e+13	0.000000e+00	5.096774e-01	1.202921e+15	2.030836e+15	4.594200e+14	1.793874e+04	7.187024e+03	3.005894e+03	0	1.313335e-03
7.700000e+08	5.502531e+13	0.000000e+00	5.096774e-01	1.188737e+15	2.012406e+15	4.572500e+14	1.790105e+04	7.180810e+03	3.003296e+03	0	1.301804e-03
7.800000e+08	5.358076e+13	0.000000e+00	5.096774e-01	1.174833e+15	1.994242e+15	4.550950e+14	1.786380e+04	7.174631e+03	3.000711e+03	0	1.290311e-03
7.900000e+08	5.216594e+13	0.000000e+00	5.096774e-01	1.161202e+15	1.976343e+15	4.529549e+14	1.782699e+04	7.168486e+03	2.998141e+03	0	1.278852e-03
8.000000e+08	5.078006e+13	0.000000e+00	5.096774e-01	1.147836e+15	1.958702e+15	4.508297e+14	1.779060e+04	7.162377e+03	2.995586e+03	0	1.267426e-03
8.100000e+08	4.942231e+13	0.000000e+00	5.096774e-01	1.134729e+15	1.941317e+15	4.487193e+14	1.775463e+04	7.156303e+03	2.993046e+03	0	1.256027e-03
8.200000e+08	4.809194e+13	0.000000e+00	5.096774e-01	1.121874e+15	1.924184e+15	4.466234e+14	1.771907e+04	7.150266e+03	2.990521e+03	0	1.244655e-03
8.300000e+08	4.678822e+13	0.000000e+00	5.096774e-01	1.109264e+15	1.907298e+15	4.445421e+14	1.768391e+04	7.144264e+03	2.988011e+03	0	1.233304e-03
8.400000e+08	4.551042e+13	0.000000e+00	5.096774e-01	1.096892e+15	1.890655e+15	4.424751e+14	1.764915e+04	7.138299e+03	2.985516e+03	0	1.221973e-03
8.500000e+08	4.425787e+13	0.000000e+00	5.096774e-01	1.084753e+15	1.874252e+15	4.404224e+14	1.761477e+04	7.132370e+03	2.983036e+03	0	1.210658e-03
8.600000e+08	4.302990e+13	0.000000e+00	5.096774e-01	1.072840e+15	1.858085e+15	4.383838e+14	1.758076e+04	7.126478e+03	2.980572e+03	0	1.199356e-03
8.700000e+08	4.182587e+13	0.000000e+00	5.096774e-01	1.061147e+15	1.842149e+15	4.363592e+14	1.754714e+04	7.120623e+03	2.978123e+03	0	1.188064e-03
8.800000e+08	4.064514e+13	0.000000e+00	5.096774e-01	1.049670e+15	1.826441e+15	4.343486e+14	1.751387e+04	7.114804e+03	2.975690e+03	0	1.176777e-03
8.900000e+08	3.948713e+13	0.000000e+00	5.096774e-01	1.038402e+15	1.810957e+15	4.323518e+14	1.748097e+04	7.109023e+03	2.973272e+03	0	1.165494e-03
9.000000e+08	3.835124e+13	0.000000e+00	5.096774e-01	1.027338e+15	1.795693e+15	4.303687e+14	1.744841e+04	7.103278e+03	2.970869e+03	0	1.154209e-03
9.100000e+08	3.723692e+13	0.000000e+00	5.096774e-01	1.016474e+15	1.780646e+15	4.283992e+14	1.741621e+04	7.097571e+03	2.968482e+03	0	1.142920e-03
9.200000e+08	3.614362e+13	0.000000e+00	5.096774e-01	1.005804e+15	1.765811e+15	4.264432e+14	1.738434e+04	7.091900e+03	2.966110e+03	0	1.131623e-03
9.300000e+08	3.507080e+13	0.000000e+00	5.096774e-01	9.953227e+14	1.751185e+15	4.245006e+14	1.735280e+04	7.086265e+03	2.963753e+03	0	1.120314e-03
9.400000e+08	3.401795e+13	0.000000e+00	5.096774e-01	9.850266e+14	1.736764e+15	4.225712e+14	1.732160e+04	7.080668e+03	2.961412e+03	0	1.108990e-03
9.500000e+08	3.298458e+13	0.000000e+00	5.096774e-01	9.749106e+14	1.722546e+15	4.206550e+14	1.729071e+04	7.075107e+03	2.959087e+03	0	1.097645e-03
9.600000e+08	3.197020e+13	0.000000e+00	5.096774e-01	9.649706e+14	1.708525e+15	4.187519e+14	1.726014e+04	7.069582e+03	2.956776e+03	0	1.086275e-03
9.700000e+08	3.097436e+13	0.000000e+00	5.096774e-01	9.552022e+14	1.694699e+15	4.168617e+14	1.722988e+04	7.064094e+03	2.954481e+03	0	1.074877e-03
9.800000e+08	2.999659e+13	0.000000e+00	5.096774e-01	9.456013e+14	1.681065e+15	4.149844e+14	1.719993e+04	7.058642e+03	2.952200e+03	0	1.063446e-03
9.900000e+08	2.903645e+13	0.000000e+00	5.096774e-01	9.361641e+14	1.667618e+15	4.131199e+14	1.717027e+04	7.053226e+03	2.949935e+03	0	1.051976e-03
1.000000e+09	2.809353e+13	0.000000e+00	5.096774e-01	9.268865e+14	1.654357e+15	4.112680e+14	1.714091e+04	7.047845e+03	2.947685e+03	0	1.040464e-03
1.010000e+09	2.716741e+13	0.000000e+00	5.096774e-01	9.177650e+14	1.641276e+15	4.094287e+14	1.711185e+04	7.042501e+03	2.945449e+03	0	1.028902e-03
1.020000e+09	2.625769e+13	0.000000e+00	5.096774e-01	9.087957e+14	1.628374e+15	4.076018e+14	1.708306e+04	7.037191e+03	2.943229e+03	0	1.017287e-03
1.030000e+09	2.536397e+13	0.000000e+00	5.096774e-01	8.999753e+14	1.615647e+15	4.057873e+14	1.705456e+04	7.031917e+03	2.941023e+03	0	1.005612e-03
1.040000e+09	2.448589e+13	0.000000e+00	5.096774e-01	8.913002e+14	1.603092e+15	4.039851e+14	1.702633e+04	7.026677e+03	2.938831e+03	0	9.938711e-04
1.050000e+09	2.362308e+13	0.000000e+00	5.096774e-01	8.827672e+14	1.590706e+15	4.021950e+14	1.699837e+04	7.021472e+03	2.936654e+03	0	9.820576e-04
1.060000e+09	2.277518e+13	0.000000e+00	5.096774e-01	8.743730e+14	1.578486e+15	4.004170e+14	1.697068e+04	7.016302e+03	2.934492e+03	0	9.701645e-04
1.070000e+09	2.194185e+13	0.000000e+00	5.096774e-01	8.661146e+14	1.566429e+15	3.986510e+14	1.694326e+04	7.011166e+03	2.932344e+03	0	9.581846e-04
1.080000e+09	2.112276e+13	0.000000e+00	5.096774e-01	8.579887e+14	1.554532e+15	3.968969e+14	1.691609e+04	7.006064e+03	2.930210e+03	0	9.461100e-04
1.090000e+09	2.031757e+13	0.000000e+00	5.096774e-01	8.499926e+14	1.542792e+15	3.951545e+14	1.688917e+04	7.000995e+03	2.928090e+03	0	9.339321e-04
1.100000e+09	1.952597e+13	0.000000e+00	5.096774e-01	8.421232e+14	1.531207e+15	3.934239e+14	1.686251e+04	6.995960e+03	2.925984e+03	0	9.216420e-04
1.110000e+09	1.874765e+13	0.000000e+00	5.096774e-01	8.343779e+14	1.519774e+15	3.917049e+14	1.683609e+04	6.990959e+03	2.923892e+03	0	9.092299e-04
1.120000e+09	1.798233e+13	0.000000e+00	5.096774e-01	8.267539e+14	1.508490e+15	3.899973e+14	1.680991e+04	6.985990e+03	2.921814e+03	0	8.966853e-04
1.130000e+09	1.722970e+13	0.000000e+00	5.096774e-01	8.192485e+14	1.497353e+15	3.883012e+14	1.678398e+04	6.981053e+03	2.919750e+03	0	8.839967e-04
1.140000e+09	1.648948e+13	0.000000e+00	5.096774e-01	8.118592e+14	1.486359e+15	3.866165e+14	1.675827e+04	6.976150e+03	2.917699e+03	0	8.711517e-04
1.150000e+09	1.576141e+13	0.000000e+00	5.096774e-01	8.045835e+14	1.475508e+15	3.849430e+14	1.673280e+04	6.971278e+03	2.915661e+03	0	8.581366e-04
1.160000e+09	1.504521e+13	0.000000e+00	5.096774e-01	7.974189e+14	1.464795e+15	3.832806e+14	1.670756e+04	6.966438e+03	2.913637e+03	0	8.449367e-04
1.170000e+09	1.434063e+13	0.000000e+00	5.096774e-01	7.903631e+14	1.454219e+15	3.816294e+14	1.668253e+04	6.961629e+03	2.911626e+03	0	8.315355e-04
1.180000e+09	1.364740e+13	0.000000e+00	5.096774e-01	7.834138e+14	1.443777e+15	3.799891e+14	1.665774e+04	6.956852e+03	2.909628e+03	0	8.179149e-04
1.190000e+09	1.296530e+13	0.000000e+00	5.096774e-01	7.765688e+14	1.433467e+15	3.783597e+14	1.663315e+04	6.952106e+03	2.907643e+03	0	8.040548e-04
1.200000e+09	1.229408e+13	0.000000e+00	5.096774e-01	7.698258e+14	1.423287e+15	3.767412e+14	1.660878e+04	6.947391e+03	2.905671e+03	0	7.899327e-04
1.210000e+09	1.163351e+13	0.000000e+00	5.096774e-01	7.631828e+14	1.413234e+15	3.751333e+14	1.658463e+04	6.942706e+03	2.903711e+03	0	7.755235e-04
1.220000e+09	1.098335e+13	0.000000e+00	5.096774e-01	7.566376e+14	1.403307e+15	3.735362e+14	1.656068e+04	6.938051e+03	2.901765e+03	0	7.607986e-04
1.230000e+09	1.034340e+13	0.000000e+00	5.096774e-01	7.501883e+14	1.393503e+15	3.719496e+14	1.653693e+04	6.933427e+03	2.899830e+03	0	7.457259e-04
1.240000e+09	9.713438e+12	0.000000e+00	5.096774e-01	7.438329e+14	1.383820e+15	3.703734e+14	1.651339e+04	6.928832e+03	2.897908e+03	0	7.302682e-04
1.250000e+09	9.093255e+12	0.000000e+00	5.096774e-01	7.375695e+14	1.374256e+15	3.688077e+14	1.649005e+04	6.924266e+03	2.895999e+03	0	7.143832e-04
1.260000e+09	8.482648e+12	0.000000e+00	5.096774e-01	7.313963e+14	1.364808e+15	3.672523e+14	1.646690e+04	6.919729e+03	2.894101e+03	0	6.980211e-04
1.270000e+09	7.881420e+12	0.000000e+00	5.096774e-01	7.253113e+14	1.355476e+15	3.657072e+14	1.644394e+04	6.915221e+03	2.892216e+03	0	6.811241e-04
1.280000e+09	7.289378e+12	0.000000e+00	5.096774e-01	7.193130e+14	1.346257e+15	3.641722e+14	1.642118e+04	6.910742e+03	2.890343e+03	0	6.636232e-04
1.290000e+09	6.706335e+12	0.000000e+00	5.096774e-01	7.133994e+14	1.337149e+15	3.626473e+14	1.639860e+04	6.906291e+03	2.888481e+03	0	6.454360e-04
1.300000e+09	6.132108e+12	0.000000e+00	5.096774e-01	7.075691e+14	1.328150e+15	3.611324e+14	1.637621e+04	6.901868e+03	2.886631e+03	0	6.264619e-04
1.310000e+09	5.566519e+12	0.000000e+00	5.096774e-01	7.018203e+14	1.319259e+15	3.596275e+14	1.635400e+04	6.897472e+03	2.884793e+03	0	6.065770e-04
1.320000e+09	5.009394e+12	0.000000e+00	5.096774e-01	6.961514e+14	1.310474e+15	3.581324e+14	1.633197e+04	6.893104e+03	2.882966e+03	0	5.856253e-04
1.330000e+09	4.460564e+12	0.000000e+00	5.096774e-01	6.905609e+14	1.301792e+15	3.566470e+14	1.631012e+04	6.888764e+03	2.881150e+03	0	5.634058e-04
1.340000e+09	3.919864e+12	0.000000e+00	5.096774e-01	6.850472e+14	1.293213e+15	3.551714e+14	1.628844e+04	6.884450e+03	2.879346e+03	0	5.396536e-04
1.350000e+09	3.387133e+12	0.000000e+00	5.096774e-01	6.796090e+14	1.284735e+15	3.537054e+14	1.626694e+04	6.880163e+03	2.877553e+03	0	5.140068e-04
1.360000e+09	2.862215e+12	0.000000e+00	5.096774e-01	6.742447e+14	1.276355e+15	3.522490e+14	1.624561e+04	6.875902e+03	2.875771e+03	0	4.859506e-04
