#t		Qconv[W]	Ri[Rp]		R*[Rp]		Qc[W]		Qm[W]		Qr[W]		Tcmb[K]		Tl[K]		Tup[K]		RiFlag		Bs[T]
0.000000e+00	4.413614e+14	0.000000e+00	5.096775e-01	4.760949e+15	2.724402e+15	7.010904e+14	2.407263e+04	7.225566e+03	2.992144e+03	0	2.604128e-03
1.000000e+07	4.290064e+14	0.000000e+00	5.096775e-01	4.650571e+15	2.821286e+15	6.972059e+14	2.393106e+04	7.270132e+03	3.010599e+03	0	2.579599e-03
2.000000e+07	4.169984e+14	0.000000e+00	5.096775e-01	4.543263e+15	2.910985e+15	6.933504e+14	2.379275e+04	7.311239e+03	3.027622e+03	0	2.555303e-03
3.000000e+07	4.053315e+14	0.000000e+00	5.096775e-01	4.438969e+15	2.993419e+15	6.895237e+14	2.365759e+04	7.349059e+03	3.043283e+03	0	2.531246e-03
4.000000e+07	3.939996e+14	0.000000e+00	5.096775e-01	4.337635e+15	3.068598e+15	6.857256e+14	2.352551e+04	7.383766e+03	3.057656e+03	0	2.507434e-03
5.000000e+07	3.829961e+14	0.000000e+00	5.096775e-01	4.239203e+15	3.136607e+15	6.819558e+14	2.339642e+04	7.415528e+03	3.070809e+03	0	2.483871e-03
6.000000e+07	3.723144e+14	0.000000e+00	5.096775e-01	4.143611e+15	3.197594e+15	6.782141e+14	2.327023e+04	7.444515e+03	3.082812e+03	0	2.460562e-03
7.000000e+07	3.619476e+14	0.000000e+00	5.096775e-01	4.050798e+15	3.251764e+15	6.745003e+14	2.314686e+04	7.470888e+03	3.093733e+03	0	2.437509e-03
8.000000e+07	3.518884e+14	0.000000e+00	5.096775e-01	3.960700e+15	3.299360e+15	6.708141e+14	2.302624e+04	7.494808e+03	3.103639e+03	0	2.414715e-03
9.000000e+07	3.421295e+14	0.000000e+00	5.096775e-01	3.873251e+15	3.340661e+15	6.671553e+14	2.290827e+04	7.516426e+03	3.112591e+03	0	2.392183e-03
1.000000e+08	3.326634e+14	0.000000e+00	5.096775e-01	3.788385e+15	3.375969e+15	6.635236e+14	2.279289e+04	7.535891e+03	3.120651e+03	0	2.369914e-03
1.100000e+08	3.234826e+14	0.000000e+00	5.096775e-01	3.706034e+15	3.405604e+15	6.599189e+14	2.268001e+04	7.553343e+03	3.127878e+03	0	2.347909e-03
1.200000e+08	3.145793e+14	0.000000e+00	5.096775e-01	3.626132e+15	3.429893e+15	6.563410e+14	2.256957e+04	7.568916e+03	3.134327e+03	0	2.326168e-03
1.300000e+08	3.059459e+14	0.000000e+00	5.096775e-01	3.548608e+15	3.449171e+15	6.527895e+14	2.246149e+04	7.582739e+03	3.140051e+03	0	2.304690e-03
1.400000e+08	2.975746e+14	0.000000e+00	5.096775e-01	3.473396e+15	3.463769e+15	6.492643e+14	2.235570e+04	7.594932e+03	3.145101e+03	0	2.283475e-03
1.500000e+08	2.894578e+14	0.000000e+00	5.096775e-01	3.400427e+15	3.474016e+15	6.457652e+14	2.225214e+04	7.605610e+03	3.149522e+03	0	2.262521e-03
1.600000e+08	2.815876e+14	0.000000e+00	5.096775e-01	3.329634e+15	3.480233e+15	6.422919e+14	2.215074e+04	7.614880e+03	3.153361e+03	0	2.241827e-03
1.700000e+08	2.739567e+14	0.000000e+00	5.096775e-01	3.260950e+15	3.482729e+15	6.388442e+14	2.205143e+04	7.622844e+03	3.156659e+03	0	2.221391e-03
1.800000e+08	2.665575e+14	0.000000e+00	5.096775e-01	3.194309e+15	3.481804e+15	6.354220e+14	2.195415e+04	7.629596e+03	3.159455e+03	0	2.201209e-03
1.900000e+08	2.593826e+14	0.000000e+00	5.096775e-01	3.129646e+15	3.477743e+15	6.320250e+14	2.185885e+04	7.635227e+03	3.161787e+03	0	2.181279e-03
2.000000e+08	2.524247e+14	0.000000e+00	5.096775e-01	3.066898e+15	3.470817e+15	6.286529e+14	2.176547e+04	7.639819e+03	3.163688e+03	0	2.161598e-03
2.100000e+08	2.456768e+14	0.000000e+00	5.096775e-01	3.006003e+15	3.461283e+15	6.253057e+14	2.167394e+04	7.643450e+03	3.165192e+03	0	2.142162e-03
2.200000e+08	2.391320e+14	0.000000e+00	5.096775e-01	2.946898e+15	3.449383e+15	6.219831e+14	2.158422e+04	7.646193e+03	3.166328e+03	0	2.122968e-03
2.300000e+08	2.327834e+14	0.000000e+00	5.096775e-01	2.889526e+15	3.435343e+15	6.186848e+14	2.149625e+04	7.648116e+03	3.167124e+03	0	2.104012e-03
2.400000e+08	2.266245e+14	0.000000e+00	5.096775e-01	2.833828e+15	3.419375e+15	6.154107e+14	2.140998e+04	7.649282e+03	3.167607e+03	0	2.085291e-03
2.500000e+08	2.206488e+14	0.000000e+00	5.096775e-01	2.779748e+15	3.401676e+15	6.121606e+14	2.132536e+04	7.649749e+03	3.167801e+03	0	2.066799e-03
2.600000e+08	2.148501e+14	0.000000e+00	5.096775e-01	2.727230e+15	3.382431e+15	6.089343e+14	2.124235e+04	7.649573e+03	3.167728e+03	0	2.048532e-03
2.700000e+08	2.092222e+14	0.000000e+00	5.096775e-01	2.676222e+15	3.361809e+15	6.057315e+14	2.116089e+04	7.648803e+03	3.167409e+03	0	2.030487e-03
2.800000e+08	2.037595e+14	0.000000e+00	5.096775e-01	2.626672e+15	3.339967e+15	6.025522e+14	2.108095e+04	7.647488e+03	3.166864e+03	0	2.012659e-03
2.900000e+08	1.984560e+14	0.000000e+00	5.096775e-01	2.578530e+15	3.317051e+15	5.993961e+14	2.100248e+04	7.645671e+03	3.166112e+03	0	1.995044e-03
3.000000e+08	1.933064e+14	0.000000e+00	5.096775e-01	2.531749e+15	3.293195e+15	5.962629e+14	2.092544e+04	7.643392e+03	3.165168e+03	0	1.977636e-03
3.100000e+08	1.883053e+14	0.000000e+00	5.096775e-01	2.486281e+15	3.268520e+15	5.931526e+14	2.084978e+04	7.640689e+03	3.164049e+03	0	1.960432e-03
3.200000e+08	1.834476e+14	0.000000e+00	5.096775e-01	2.442081e+15	3.243140e+15	5.900649e+14	2.077548e+04	7.637597e+03	3.162768e+03	0	1.943427e-03
3.300000e+08	1.787283e+14	0.000000e+00	5.096775e-01	2.399106e+15	3.217158e+15	5.869997e+14	2.070249e+04	7.634149e+03	3.161340e+03	0	1.926617e-03
3.400000e+08	1.741426e+14	0.000000e+00	5.096775e-01	2.357313e+15	3.190668e+15	5.839567e+14	2.063078e+04	7.630373e+03	3.159777e+03	0	1.909997e-03
3.500000e+08	1.696859e+14	0.000000e+00	5.096775e-01	2.316663e+15	3.163756e+15	5.809359e+14	2.056030e+04	7.626299e+03	3.158090e+03	0	1.893562e-03
3.600000e+08	1.653538e+14	0.000000e+00	5.096775e-01	2.277117e+15	3.136500e+15	5.779369e+14	2.049104e+04	7.621951e+03	3.156289e+03	0	1.877309e-03
3.700000e+08	1.611419e+14	0.000000e+00	5.096775e-01	2.238635e+15	3.108972e+15	5.749596e+14	2.042295e+04	7.617354e+03	3.154386e+03	0	1.861232e-03
3.800000e+08	1.570462e+14	0.000000e+00	5.096775e-01	2.201184e+15	3.081237e+15	5.720039e+14	2.035601e+04	7.612530e+03	3.152388e+03	0	1.845327e-03
3.900000e+08	1.530626e+14	0.000000e+00	5.096775e-01	2.164727e+15	3.053352e+15	5.690695e+14	2.029018e+04	7.607499e+03	3.150304e+03	0	1.829591e-03
4.000000e+08	1.491873e+14	0.000000e+00	5.096775e-01	2.129230e+15	3.025372e+15	5.661564e+14	2.022543e+04	7.602279e+03	3.148143e+03	0	1.814018e-03
4.100000e+08	1.454166e+14	0.000000e+00	5.096775e-01	2.094663e+15	2.997344e+15	5.632642e+14	2.016174e+04	7.596889e+03	3.145911e+03	0	1.798604e-03
4.200000e+08	1.417470e+14	0.000000e+00	5.096775e-01	2.060992e+15	2.969311e+15	5.603929e+14	2.009908e+04	7.591344e+03	3.143615e+03	0	1.783346e-03
4.300000e+08	1.381750e+14	0.000000e+00	5.096775e-01	2.028189e+15	2.941313e+15	5.575423e+14	2.003742e+04	7.585660e+03	3.141261e+03	0	1.768238e-03
4.400000e+08	1.346975e+14	0.000000e+00	5.096775e-01	1.996225e+15	2.913385e+15	5.547121e+14	1.997673e+04	7.579850e+03	3.138855e+03	0	1.753278e-03
4.500000e+08	1.313111e+14	0.000000e+00	5.096775e-01	1.965071e+15	2.885557e+15	5.519024e+14	1.991700e+04	7.573928e+03	3.136403e+03	0	1.738460e-03
4.600000e+08	1.280129e+14	0.000000e+00	5.096775e-01	1.934701e+15	2.857858e+15	5.491127e+14	1.985819e+04	7.567904e+03	3.133908e+03	0	1.723781e-03
4.700000e+08	1.247999e+14	0.000000e+00	5.096775e-01	1.905090e+15	2.830313e+15	5.463431e+14	1.980029e+04	7.561791e+03	3.131377e+03	0	1.709237e-03
4.800000e+08	1.216693e+14	0.000000e+00	5.096775e-01	1.876213e+15	2.802944e+15	5.435934e+14	1.974327e+04	7.555598e+03	3.128812e+03	0	1.694824e-03
4.900000e+08	1.186185e+14	0.000000e+00	5.096775e-01	1.848045e+15	2.775771e+15	5.408633e+14	1.968711e+04	7.549335e+03	3.126219e+03	0	1.680538e-03
5.000000e+08	1.156448e+14	0.000000e+00	5.096775e-01	1.820564e+15	2.748810e+15	5.381527e+14	1.963179e+04	7.543010e+03	3.123599e+03	0	1.666376e-03
5.100000e+08	1.127456e+14	0.000000e+00	5.096775e-01	1.793748e+15	2.722078e+15	5.354615e+14	1.957729e+04	7.536631e+03	3.120958e+03	0	1.652333e-03
5.200000e+08	1.099187e+14	0.000000e+00	5.096775e-01	1.767576e+15	2.695587e+15	5.327896e+14	1.952358e+04	7.530206e+03	3.118297e+03	0	1.638406e-03
5.300000e+08	1.071616e+14	0.000000e+00	5.096775e-01	1.742027e+15	2.669350e+15	5.301366e+14	1.947066e+04	7.523742e+03	3.115620e+03	0	1.624591e-03
5.400000e+08	1.044722e+14	0.000000e+00	5.096775e-01	1.717082e+15	2.643375e+15	5.275026e+14	1.941849e+04	7.517245e+03	3.112930e+03	0	1.610885e-03
5.500000e+08	1.018482e+14	0.000000e+00	5.096775e-01	1.692721e+15	2.617672e+15	5.248873e+14	1.936707e+04	7.510721e+03	3.110228e+03	0	1.597284e-03
5.600000e+08	9.928766e+13	0.000000e+00	5.096775e-01	1.668927e+15	2.592248e+15	5.222906e+14	1.931638e+04	7.504175e+03	3.107517e+03	0	1.583784e-03
5.700000e+08	9.678853e+13	0.000000e+00	5.096775e-01	1.645682e+15	2.567108e+15	5.197124e+14	1.926639e+04	7.497612e+03	3.104800e+03	0	1.570383e-03
5.800000e+08	9.434890e+13	0.000000e+00	5.096775e-01	1.622969e+15	2.542258e+15	5.171524e+14	1.921710e+04	7.491037e+03	3.102077e+03	0	1.557076e-03
5.900000e+08	9.196693e+13	0.000000e+00	5.096775e-01	1.600772e+15	2.517702e+15	5.146106e+14	1.916849e+04	7.484455e+03	3.099351e+03	0	1.543861e-03
6.000000e+08	8.964084e+13	0.000000e+00	5.096775e-01	1.579075e+15	2.493442e+15	5.120867e+14	1.912053e+04	7.477868e+03	3.096624e+03	0	1.530733e-03
6.100000e+08	8.736890e+13	0.000000e+00	5.096775e-01	1.557862e+15	2.469481e+15	5.095808e+14	1.907323e+04	7.471282e+03	3.093896e+03	0	1.517691e-03
6.200000e+08	8.514949e+13	0.000000e+00	5.096775e-01	1.537121e+15	2.445821e+15	5.070925e+14	1.902656e+04	7.464698e+03	3.091170e+03	0	1.504729e-03
6.300000e+08	8.298099e+13	0.000000e+00	5.096775e-01	1.516836e+15	2.422462e+15	5.046218e+14	1.898050e+04	7.458121e+03	3.088446e+03	0	1.491845e-03
6.400000e+08	8.086189e+13	0.000000e+00	5.096775e-01	1.496993e+15	2.399405e+15	5.021685e+14	1.893505e+04	7.451553e+03	3.085726e+03	0	1.479037e-03
6.500000e+08	7.879070e+13	0.000000e+00	5.096775e-01	1.477581e+15	2.376650e+15	4.997325e+14	1.889019e+04	7.444996e+03	3.083011e+03	0	1.466299e-03
6.600000e+08	7.676601e+13	0.000000e+00	5.096775e-01	1.458586e+15	2.354195e+15	4.973137e+14	1.884591e+04	7.438453e+03	3.080302e+03	0	1.453630e-03
6.700000e+08	7.478643e+13	0.000000e+00	5.096775e-01	1.439996e+15	2.332041e+15	4.949118e+14	1.880220e+04	7.431927e+03	3.077599e+03	0	1.441026e-03
6.800000e+08	7.285065e+13	0.000000e+00	5.096775e-01	1.421800e+15	2.310184e+15	4.925269e+14	1.875904e+04	7.425419e+03	3.074904e+03	0	1.428484e-03
6.900000e+08	7.095739e+13	0.000000e+00	5.096775e-01	1.403986e+15	2.288624e+15	4.901586e+14	1.871643e+04	7.418931e+03	3.072218e+03	0	1.416001e-03
7.000000e+08	6.910542e+13	0.000000e+00	5.096775e-01	1.386544e+15	2.267359e+15	4.878070e+14	1.867435e+04	7.412465e+03	3.069540e+03	0	1.403573e-03
7.100000e+08	6.729355e+13	0.000000e+00	5.096775e-01	1.369462e+15	2.246385e+15	4.854718e+14	1.863279e+04	7.406022e+03	3.066872e+03	0	1.391197e-03
7.200000e+08	6.552063e+13	0.000000e+00	5.096775e-01	1.352731e+15	2.225702e+15	4.831529e+14	1.859173e+04	7.399603e+03	3.064214e+03	0	1.378871e-03
7.300000e+08	6.378557e+13	0.000000e+00	5.096775e-01	1.336341e+15	2.205305e+15	4.808503e+14	1.855118e+04	7.393211e+03	3.061567e+03	0	1.366591e-03
7.400000e+08	6.208728e+13	0.000000e+00	5.096775e-01	1.320283e+15	2.185191e+15	4.785637e+14	1.851112e+04	7.386846e+03	3.058931e+03	0	1.354353e-03
7.500000e+08	6.042474e+13	0.000000e+00	5.096775e-01	1.304546e+15	2.165359e+15	4.762931e+14	1.847153e+04	7.380509e+03	3.056307e+03	0	1.342155e-03
7.600000e+08	5.879695e+13	0.000000e+00	5.096775e-01	1.289124e+15	2.145804e+15	4.740383e+14	1.843242e+04	7.374202e+03	3.053695e+03	0	1.329993e-03
7.700000e+08	5.720295e+13	0.000000e+00	5.096775e-01	1.274006e+15	2.126523e+15	4.717992e+14	1.839377e+04	7.367924e+03	3.051095e+03	0	1.317863e-03
7.800000e+08	5.564181e+13	0.000000e+00	5.096775e-01	1.259186e+15	2.107513e+15	4.695756e+14	1.835556e+04	7.361678e+03	3.048509e+03	0	1.305764e-03
7.900000e+08	5.411264e+13	0.000000e+00	5.096775e-01	1.244654e+15	2.088770e+15	4.673675e+14	1.831781e+04	7.355462e+03	3.045935e+03	0	1.293691e-03
8.000000e+08	5.261456e+13	0.000000e+00	5.096775e-01	1.230403e+15	2.070290e+15	4.651747e+14	1.828048e+04	7.349279e+03	3.043375e+03	0	1.281641e-03
8.100000e+08	5.114673e+13	0.000000e+00	5.096775e-01	1.216426e+15	2.052071e+15	4.629970e+14	1.824358e+04	7.343129e+03	3.040828e+03	0	1.269610e-03
8.200000e+08	4.970836e+13	0.000000e+00	5.096775e-01	1.202716e+15	2.034107e+15	4.608345e+14	1.820710e+04	7.337012e+03	3.038295e+03	0	1.257595e-03
8.300000e+08	4.829864e+13	0.000000e+00	5.096775e-01	1.189265e+15	2.016397e+15	4.586869e+14	1.817103e+04	7.330929e+03	3.035776e+03	0	1.245592e-03
8.400000e+08	4.691682e+13	0.000000e+00	5.096775e-01	1.176066e+15	1.998935e+15	4.565542e+14	1.813536e+04	7.324880e+03	3.033271e+03	0	1.233598e-03
8.500000e+08	4.556217e+13	0.000000e+00	5.096775e-01	1.163114e+15	1.981719e+15	4.544361e+14	1.810008e+04	7.318865e+03	3.030780e+03	0	1.221610e-03
8.600000e+08	4.423398e+13	0.000000e+00	5.096775e-01	1.150403e+15	1.964743e+15	4.523327e+14	1.806519e+04	7.312884e+03	3.028303e+03	0	1.209622e-03
8.700000e+08	4.293156e+13	0.000000e+00	5.096775e-01	1.137925e+15	1.948006e+15	4.502437e+14	1.803068e+04	7.306939e+03	3.025841e+03	0	1.197631e-03
8.800000e+08	4.165424e+13	0.000000e+00	5.096775e-01	1.125674e+15	1.931503e+15	4.481691e+14	1.799655e+04	7.301028e+03	3.023394e+03	0	1.185634e-03
8.900000e+08	4.040139e+13	0.000000e+00	5.096775e-01	1.113647e+15	1.915229e+15	4.461088e+14	1.796278e+04	7.295153e+03	3.020961e+03	0	1.173626e-03
9.000000e+08	3.917237e+13	0.000000e+00	5.096775e-01	1.101835e+15	1.899183e+15	4.440626e+14	1.792937e+04	7.289313e+03	3.018542e+03	0	1.161603e-03
9.100000e+08	3.796659e+13	0.000000e+00	5.096775e-01	1.090236e+15	1.883359e+15	4.420304e+14	1.789631e+04	7.283509e+03	3.016139e+03	0	1.149560e-03
9.200000e+08	3.678346e+13	0.000000e+00	5.096775e-01	1.078842e+15	1.867755e+15	4.400122e+14	1.786360e+04	7.277739e+03	3.013750e+03	0	1.137492e-03
9.300000e+08	3.562241e+13	0.000000e+00	5.096775e-01	1.067649e+15	1.852366e+15	4.380077e+14	1.783123e+04	7.272006e+03	3.011375e+03	0	1.125396e-03
9.400000e+08	3.448289e+13	0.000000e+00	5.096775e-01	1.056652e+15	1.837190e+15	4.360170e+14	1.779919e+04	7.266308e+03	3.009016e+03	0	1.113266e-03
9.500000e+08	3.336438e+13	0.000000e+00	5.096775e-01	1.045847e+15	1.822222e+15	4.340398e+14	1.776749e+04	7.260645e+03	3.006671e+03	0	1.101096e-03
9.600000e+08	3.226635e+13	0.000000e+00	5.096775e-01	1.035229e+15	1.807459e+15	4.320761e+14	1.773610e+04	7.255017e+03	3.004340e+03	0	1.088882e-03
9.700000e+08	3.118830e+13	0.000000e+00	5.096775e-01	1.024793e+15	1.792898e+15	4.301258e+14	1.770504e+04	7.249425e+03	3.002025e+03	0	1.076618e-03
9.800000e+08	3.012976e+13	0.000000e+00	5.096775e-01	1.014535e+15	1.778535e+15	4.281888e+14	1.767428e+04	7.243869e+03	2.999723e+03	0	1.064297e-03
9.900000e+08	2.909024e+13	0.000000e+00	5.096775e-01	1.004451e+15	1.764368e+15	4.262649e+14	1.764384e+04	7.238347e+03	2.997437e+03	0	1.051914e-03
1.000000e+09	2.806930e+13	0.000000e+00	5.096775e-01	9.945365e+14	1.750392e+15	4.243541e+14	1.761369e+04	7.232860e+03	2.995165e+03	0	1.039461e-03
1.010000e+09	2.706649e+13	0.000000e+00	5.096775e-01	9.847879e+14	1.736604e+15	4.224563e+14	1.758384e+04	7.227409e+03	2.992907e+03	0	1.026932e-03
1.020000e+09	2.608138e+13	0.000000e+00	5.096775e-01	9.752013e+14	1.723002e+15	4.205713e+14	1.755429e+04	7.221992e+03	2.990664e+03	0	1.014319e-03
1.030000e+09	2.511356e+13	0.000000e+00	5.096775e-01	9.657729e+14	1.709582e+15	4.186990e+14	1.752502e+04	7.216609e+03	2.988435e+03	0	1.001614e-03
1.040000e+09	2.416262e+13	0.000000e+00	5.096775e-01	9.564991e+14	1.696340e+15	4.168395e+14	1.749603e+04	7.211261e+03	2.986221e+03	0	9.888087e-04
1.050000e+09	2.322816e+13	0.000000e+00	5.096775e-01	9.473765e+14	1.683275e+15	4.149924e+14	1.746732e+04	7.205947e+03	2.984020e+03	0	9.758938e-04
1.060000e+09	2.230982e+13	0.000000e+00	5.096775e-01	9.384015e+14	1.670382e+15	4.131579e+14	1.743888e+04	7.200668e+03	2.981834e+03	0	9.628596e-04
1.070000e+09	2.140720e+13	0.000000e+00	5.096775e-01	9.295709e+14	1.657660e+15	4.113356e+14	1.741071e+04	7.195422e+03	2.979661e+03	0	9.496952e-04
1.080000e+09	2.051997e+13	0.000000e+00	5.096775e-01	9.208815e+14	1.645104e+15	4.095257e+14	1.738280e+04	7.190209e+03	2.977503e+03	0	9.363894e-04
1.090000e+09	1.964776e+13	0.000000e+00	5.096775e-01	9.123301e+14	1.632713e+15	4.077279e+14	1.735516e+04	7.185031e+03	2.975358e+03	0	9.229297e-04
1.100000e+09	1.879023e+13	0.000000e+00	5.096775e-01	9.039137e+14	1.620483e+15	4.059422e+14	1.732777e+04	7.179885e+03	2.973227e+03	0	9.093024e-04
1.110000e+09	1.794707e+13	0.000000e+00	5.096775e-01	8.956293e+14	1.608411e+15	4.041685e+14	1.730063e+04	7.174772e+03	2.971110e+03	0	8.954928e-04
1.120000e+09	1.711794e+13	0.000000e+00	5.096775e-01	8.874740e+14	1.596496e+15	4.024066e+14	1.727374e+04	7.169692e+03	2.969007e+03	0	8.814847e-04
1.130000e+09	1.630253e+13	0.000000e+00	5.096775e-01	8.794451e+14	1.584733e+15	4.006566e+14	1.724710e+04	7.164645e+03	2.966916e+03	0	8.672600e-04
1.140000e+09	1.550055e+13	0.000000e+00	5.096775e-01	8.715398e+14	1.573122e+15	3.989182e+14	1.722069e+04	7.159630e+03	2.964840e+03	0	8.527989e-04
1.150000e+09	1.471169e+13	0.000000e+00	5.096775e-01	8.637555e+14	1.561658e+15	3.971915e+14	1.719452e+04	7.154647e+03	2.962776e+03	0	8.380793e-04
1.160000e+09	1.393567e+13	0.000000e+00	5.096775e-01	8.560896e+14	1.550340e+15	3.954762e+14	1.716859e+04	7.149695e+03	2.960726e+03	0	8.230766e-04
1.170000e+09	1.317221e+13	0.000000e+00	5.096775e-01	8.485396e+14	1.539165e+15	3.937724e+14	1.714288e+04	7.144775e+03	2.958688e+03	0	8.077628e-04
1.180000e+09	1.242105e+13	0.000000e+00	5.096775e-01	8.411030e+14	1.528130e+15	3.920799e+14	1.711740e+04	7.139887e+03	2.956664e+03	0	7.921067e-04
1.190000e+09	1.168190e+13	0.000000e+00	5.096775e-01	8.337776e+14	1.517234e+15	3.903987e+14	1.709215e+04	7.135029e+03	2.954653e+03	0	7.760723e-04
1.200000e+09	1.095453e+13	0.000000e+00	5.096775e-01	8.265609e+14	1.506474e+15	3.887287e+14	1.706711e+04	7.130203e+03	2.952654e+03	0	7.596185e-04
1.210000e+09	1.023868e+13	0.000000e+00	5.096775e-01	8.194507e+14	1.495847e+15	3.870697e+14	1.704229e+04	7.125406e+03	2.950668e+03	0	7.426979e-04
1.220000e+09	9.534097e+12	0.000000e+00	5.096775e-01	8.124449e+14	1.485352e+15	3.854217e+14	1.701768e+04	7.120640e+03	2.948694e+03	0	7.252551e-04
1.230000e+09	8.840557e+12	0.000000e+00	5.096775e-01	8.055412e+14	1.474986e+15	3.837846e+14	1.699328e+04	7.115905e+03	2.946733e+03	0	7.072248e-04
1.240000e+09	8.157824e+12	0.000000e+00	5.096775e-01	7.987377e+14	1.464747e+15	3.821583e+14	1.696909e+04	7.111198e+03	2.944784e+03	0	6.885293e-04
1.250000e+09	7.485676e+12	0.000000e+00	5.096775e-01	7.920323e+14	1.454632e+15	3.805428e+14	1.694510e+04	7.106522e+03	2.942847e+03	0	6.690747e-04
1.260000e+09	6.823891e+12	0.000000e+00	5.096775e-01	7.854230e+14	1.444641e+15	3.789379e+14	1.692131e+04	7.101874e+03	2.940923e+03	0	6.487464e-04
1.270000e+09	6.172258e+12	0.000000e+00	5.096775e-01	7.789079e+14	1.434771e+15	3.773436e+14	1.689772e+04	7.097256e+03	2.939010e+03	0	6.274016e-04
1.280000e+09	5.530569e+12	0.000000e+00	5.096775e-01	7.724852e+14	1.425019e+15	3.757598e+14	1.687432e+04	7.092666e+03	2.937110e+03	0	6.048591e-04
1.290000e+09	4.898622e+12	0.000000e+00	5.096775e-01	7.661529e+14	1.415384e+15	3.741863e+14	1.685112e+04	7.088105e+03	2.935221e+03	0	5.808833e-04
1.300000e+09	4.276219e+12	0.000000e+00	5.096775e-01	7.599094e+14	1.405864e+15	3.726233e+14	1.682811e+04	7.083572e+03	2.933344e+03	0	5.551593e-04
1.310000e+09	3.663168e+12	0.000000e+00	5.096775e-01	7.537528e+14	1.396457e+15	3.710704e+14	1.680528e+04	7.079066e+03	2.931478e+03	0	5.272500e-04
1.320000e+09	3.059282e+12	0.000000e+00	5.096775e-01	7.476816e+14	1.387161e+15	3.695277e+14	1.678264e+04	7.074589e+03	2.929624e+03	0	4.965208e-04
1.330000e+09	2.464379e+12	0.000000e+00	5.096775e-01	7.416940e+14	1.377975e+15	3.679952e+14	1.676018e+04	7.070139e+03	2.927781e+03	0	4.619909e-04
1.340000e+09	1.878280e+12	0.000000e+00	5.096775e-01	7.357884e+14	1.368896e+15	3.664726e+14	1.673790e+04	7.065716e+03	2.925950e+03	0	4.220051e-04
1.350000e+09	1.300812e+12	0.000000e+00	5.096775e-01	7.299633e+14	1.359923e+15	3.649600e+14	1.671580e+04	7.061320e+03	2.924129e+03	0	3.733669e-04
1.360000e+09	7.318051e+11	0.000000e+00	5.096775e-01	7.242171e+14	1.351054e+15	3.634572e+14	1.669387e+04	7.056951e+03	2.922320e+03	0	3.082214e-04
