#t		Qconv[W]	Ri[Rp]		R*[Rp]		Qc[W]		Qm[W]		Qr[W]		Tcmb[K]		Tl[K]		Tup[K]		RiFlag		Bs[T]
0.000000e+00	2.774186e+13	0.000000e+00	4.857142e-01	4.831656e+14	9.653824e+13	3.323510e+14	1.031377e+04	4.997121e+03	2.489994e+03	0	1.083698e-03
1.000000e+07	2.712907e+13	0.000000e+00	4.857142e-01	4.736949e+14	9.962703e+13	3.305096e+14	1.026871e+04	5.020485e+03	2.501636e+03	0	1.075660e-03
2.000000e+07	2.653327e+13	0.000000e+00	4.857142e-01	4.644845e+14	1.027262e+14	3.286819e+14	1.022452e+04	5.043380e+03	2.513044e+03	0	1.067727e-03
3.000000e+07	2.595384e+13	0.000000e+00	4.857142e-01	4.555247e+14	1.058337e+14	3.268678e+14	1.018119e+04	5.065814e+03	2.524223e+03	0	1.059897e-03
4.000000e+07	2.539018e+13	0.000000e+00	4.857142e-01	4.468064e+14	1.089475e+14	3.250673e+14	1.013869e+04	5.087795e+03	2.535176e+03	0	1.052168e-03
5.000000e+07	2.484171e+13	0.000000e+00	4.857142e-01	4.383209e+14	1.120653e+14	3.232803e+14	1.009700e+04	5.109332e+03	2.545907e+03	0	1.044537e-03
6.000000e+07	2.430791e+13	0.000000e+00	4.857142e-01	4.300601e+14	1.151853e+14	3.215065e+14	1.005609e+04	5.130432e+03	2.556421e+03	0	1.037001e-03
7.000000e+07	2.378824e+13	0.000000e+00	4.857142e-01	4.220160e+14	1.183055e+14	3.197460e+14	1.001595e+04	5.151104e+03	2.566722e+03	0	1.029558e-03
8.000000e+07	2.328223e+13	0.000000e+00	4.857142e-01	4.141813e+14	1.214239e+14	3.179985e+14	9.976552e+03	5.171354e+03	2.576812e+03	0	1.022205e-03
9.000000e+07	2.278940e+13	0.000000e+00	4.857142e-01	4.065487e+14	1.245386e+14	3.162641e+14	9.937883e+03	5.191191e+03	2.586696e+03	0	1.014941e-03
1.000000e+08	2.230931e+13	0.000000e+00	4.857142e-01	3.991114e+14	1.276479e+14	3.145425e+14	9.899922e+03	5.210621e+03	2.596378e+03	0	1.007763e-03
1.100000e+08	2.184153e+13	0.000000e+00	4.857142e-01	3.918630e+14	1.307499e+14	3.128337e+14	9.862652e+03	5.229651e+03	2.605861e+03	0	1.000670e-03
1.200000e+08	2.138565e+13	0.000000e+00	4.857142e-01	3.847972e+14	1.338429e+14	3.111376e+14	9.826054e+03	5.248288e+03	2.615147e+03	0	9.936589e-04
1.300000e+08	2.094128e+13	0.000000e+00	4.857142e-01	3.779081e+14	1.369252e+14	3.094540e+14	9.790112e+03	5.266540e+03	2.624242e+03	0	9.867284e-04
1.400000e+08	2.050806e+13	0.000000e+00	4.857142e-01	3.711899e+14	1.399951e+14	3.077829e+14	9.754809e+03	5.284411e+03	2.633147e+03	0	9.798766e-04
1.500000e+08	2.008562e+13	0.000000e+00	4.857142e-01	3.646373e+14	1.430511e+14	3.061242e+14	9.720130e+03	5.301909e+03	2.641866e+03	0	9.731017e-04
1.600000e+08	1.967362e+13	0.000000e+00	4.857142e-01	3.582451e+14	1.460916e+14	3.044776e+14	9.686060e+03	5.319040e+03	2.650402e+03	0	9.664023e-04
1.700000e+08	1.927173e+13	0.000000e+00	4.857142e-01	3.520082e+14	1.491152e+14	3.028433e+14	9.652584e+03	5.335811e+03	2.658758e+03	0	9.597765e-04
1.800000e+08	1.887965e+13	0.000000e+00	4.857142e-01	3.459219e+14	1.521203e+14	3.012210e+14	9.619687e+03	5.352227e+03	2.666938e+03	0	9.532230e-04
1.900000e+08	1.849707e+13	0.000000e+00	4.857142e-01	3.399815e+14	1.551056e+14	2.996106e+14	9.587356e+03	5.368293e+03	2.674944e+03	0	9.467402e-04
2.000000e+08	1.812370e+13	0.000000e+00	4.857142e-01	3.341827e+14	1.580698e+14	2.980121e+14	9.555577e+03	5.384017e+03	2.682779e+03	0	9.403268e-04
2.100000e+08	1.775926e+13	0.000000e+00	4.857142e-01	3.285211e+14	1.610116e+14	2.964254e+14	9.524337e+03	5.399404e+03	2.690446e+03	0	9.339813e-04
2.200000e+08	1.740350e+13	0.000000e+00	4.857142e-01	3.229928e+14	1.639297e+14	2.948503e+14	9.493624e+03	5.414458e+03	2.697947e+03	0	9.277025e-04
2.300000e+08	1.705614e+13	0.000000e+00	4.857142e-01	3.175938e+14	1.668231e+14	2.932867e+14	9.463424e+03	5.429187e+03	2.705286e+03	0	9.214889e-04
2.400000e+08	1.671695e+13	0.000000e+00	4.857142e-01	3.123204e+14	1.696905e+14	2.917346e+14	9.433727e+03	5.443595e+03	2.712466e+03	0	9.153396e-04
2.500000e+08	1.638569e+13	0.000000e+00	4.857142e-01	3.071689e+14	1.725309e+14	2.901939e+14	9.404520e+03	5.457687e+03	2.719488e+03	0	9.092531e-04
2.600000e+08	1.606213e+13	0.000000e+00	4.857142e-01	3.021359e+14	1.753432e+14	2.886645e+14	9.375792e+03	5.471469e+03	2.726355e+03	0	9.032284e-04
2.700000e+08	1.574605e+13	0.000000e+00	4.857142e-01	2.972179e+14	1.781265e+14	2.871463e+14	9.347533e+03	5.484947e+03	2.733071e+03	0	8.972644e-04
2.800000e+08	1.543724e+13	0.000000e+00	4.857142e-01	2.924117e+14	1.808800e+14	2.856391e+14	9.319732e+03	5.498124e+03	2.739637e+03	0	8.913599e-04
2.900000e+08	1.513549e+13	0.000000e+00	4.857142e-01	2.877143e+14	1.836025e+14	2.841429e+14	9.292377e+03	5.511006e+03	2.746056e+03	0	8.855140e-04
3.000000e+08	1.484062e+13	0.000000e+00	4.857142e-01	2.831226e+14	1.862935e+14	2.826577e+14	9.265461e+03	5.523598e+03	2.752330e+03	0	8.797255e-04
3.100000e+08	1.455242e+13	0.000000e+00	4.857142e-01	2.786336e+14	1.889521e+14	2.811832e+14	9.238971e+03	5.535905e+03	2.758462e+03	0	8.739936e-04
3.200000e+08	1.427071e+13	0.000000e+00	4.857142e-01	2.742447e+14	1.915775e+14	2.797195e+14	9.212900e+03	5.547931e+03	2.764455e+03	0	8.683173e-04
3.300000e+08	1.399533e+13	0.000000e+00	4.857142e-01	2.699530e+14	1.941691e+14	2.782665e+14	9.187237e+03	5.559682e+03	2.770310e+03	0	8.626956e-04
3.400000e+08	1.372609e+13	0.000000e+00	4.857142e-01	2.657560e+14	1.967263e+14	2.768239e+14	9.161974e+03	5.571162e+03	2.776031e+03	0	8.571276e-04
3.500000e+08	1.346283e+13	0.000000e+00	4.857142e-01	2.616511e+14	1.992484e+14	2.753919e+14	9.137102e+03	5.582375e+03	2.781618e+03	0	8.516125e-04
3.600000e+08	1.320540e+13	0.000000e+00	4.857142e-01	2.576359e+14	2.017350e+14	2.739702e+14	9.112612e+03	5.593326e+03	2.787075e+03	0	8.461493e-04
3.700000e+08	1.295363e+13	0.000000e+00	4.857142e-01	2.537080e+14	2.041854e+14	2.725589e+14	9.088497e+03	5.604020e+03	2.792403e+03	0	8.407374e-04
3.800000e+08	1.270738e+13	0.000000e+00	4.857142e-01	2.498651e+14	2.065993e+14	2.711577e+14	9.064747e+03	5.614460e+03	2.797605e+03	0	8.353758e-04
3.900000e+08	1.246650e+13	0.000000e+00	4.857142e-01	2.461051e+14	2.089762e+14	2.697667e+14	9.041356e+03	5.624651e+03	2.802683e+03	0	8.300637e-04
4.000000e+08	1.223086e+13	0.000000e+00	4.857142e-01	2.424257e+14	2.113158e+14	2.683857e+14	9.018315e+03	5.634598e+03	2.807640e+03	0	8.248005e-04
4.100000e+08	1.200032e+13	0.000000e+00	4.857142e-01	2.388249e+14	2.136177e+14	2.670147e+14	8.995617e+03	5.644304e+03	2.812476e+03	0	8.195852e-04
4.200000e+08	1.177474e+13	0.000000e+00	4.857142e-01	2.353006e+14	2.158815e+14	2.656535e+14	8.973254e+03	5.653773e+03	2.817195e+03	0	8.144173e-04
4.300000e+08	1.155401e+13	0.000000e+00	4.857142e-01	2.318510e+14	2.181071e+14	2.643022e+14	8.951220e+03	5.663011e+03	2.821797e+03	0	8.092960e-04
4.400000e+08	1.133799e+13	0.000000e+00	4.857142e-01	2.284741e+14	2.202942e+14	2.629606e+14	8.929508e+03	5.672020e+03	2.826286e+03	0	8.042206e-04
4.500000e+08	1.112656e+13	0.000000e+00	4.857142e-01	2.251681e+14	2.224426e+14	2.616286e+14	8.908111e+03	5.680804e+03	2.830664e+03	0	7.991903e-04
4.600000e+08	1.091962e+13	0.000000e+00	4.857142e-01	2.219312e+14	2.245521e+14	2.603062e+14	8.887022e+03	5.689368e+03	2.834931e+03	0	7.942046e-04
4.700000e+08	1.071705e+13	0.000000e+00	4.857142e-01	2.187617e+14	2.266226e+14	2.589933e+14	8.866235e+03	5.697716e+03	2.839090e+03	0	7.892627e-04
4.800000e+08	1.051873e+13	0.000000e+00	4.857142e-01	2.156579e+14	2.286541e+14	2.576897e+14	8.845744e+03	5.705850e+03	2.843144e+03	0	7.843641e-04
4.900000e+08	1.032457e+13	0.000000e+00	4.857142e-01	2.126182e+14	2.306463e+14	2.563955e+14	8.825543e+03	5.713776e+03	2.847093e+03	0	7.795080e-04
5.000000e+08	1.013446e+13	0.000000e+00	4.857142e-01	2.096410e+14	2.325995e+14	2.551106e+14	8.805624e+03	5.721495e+03	2.850940e+03	0	7.746939e-04
5.100000e+08	9.948306e+12	0.000000e+00	4.857142e-01	2.067248e+14	2.345134e+14	2.538349e+14	8.785984e+03	5.729013e+03	2.854686e+03	0	7.699211e-04
5.200000e+08	9.766002e+12	0.000000e+00	4.857142e-01	2.038681e+14	2.363880e+14	2.525682e+14	8.766616e+03	5.736333e+03	2.858333e+03	0	7.651892e-04
5.300000e+08	9.587459e+12	0.000000e+00	4.857142e-01	2.010695e+14	2.382236e+14	2.513106e+14	8.747514e+03	5.743458e+03	2.861883e+03	0	7.604973e-04
5.400000e+08	9.412583e+12	0.000000e+00	4.857142e-01	1.983274e+14	2.400200e+14	2.500619e+14	8.728674e+03	5.750391e+03	2.865338e+03	0	7.558451e-04
5.500000e+08	9.241288e+12	0.000000e+00	4.857142e-01	1.956407e+14	2.417775e+14	2.488222e+14	8.710090e+03	5.757137e+03	2.868699e+03	0	7.512319e-04
5.600000e+08	9.073486e+12	0.000000e+00	4.857142e-01	1.930079e+14	2.434961e+14	2.475912e+14	8.691756e+03	5.763698e+03	2.871969e+03	0	7.466572e-04
5.700000e+08	8.909094e+12	0.000000e+00	4.857142e-01	1.904278e+14	2.451759e+14	2.463690e+14	8.673668e+03	5.770078e+03	2.875148e+03	0	7.421204e-04
5.800000e+08	8.748029e+12	0.000000e+00	4.857142e-01	1.878990e+14	2.468172e+14	2.451554e+14	8.655821e+03	5.776280e+03	2.878238e+03	0	7.376210e-04
5.900000e+08	8.590212e+12	0.000000e+00	4.857142e-01	1.854205e+14	2.484200e+14	2.439505e+14	8.638211e+03	5.782307e+03	2.881241e+03	0	7.331584e-04
6.000000e+08	8.435567e+12	0.000000e+00	4.857142e-01	1.829910e+14	2.499847e+14	2.427541e+14	8.620831e+03	5.788162e+03	2.884159e+03	0	7.287322e-04
6.100000e+08	8.284018e+12	0.000000e+00	4.857142e-01	1.806092e+14	2.515113e+14	2.415661e+14	8.603679e+03	5.793849e+03	2.886992e+03	0	7.243418e-04
6.200000e+08	8.135491e+12	0.000000e+00	4.857142e-01	1.782743e+14	2.530003e+14	2.403866e+14	8.586749e+03	5.799370e+03	2.889744e+03	0	7.199867e-04
6.300000e+08	7.989916e+12	0.000000e+00	4.857142e-01	1.759849e+14	2.544517e+14	2.392153e+14	8.570037e+03	5.804729e+03	2.892414e+03	0	7.156664e-04
6.400000e+08	7.847223e+12	0.000000e+00	4.857142e-01	1.737401e+14	2.558658e+14	2.380523e+14	8.553539e+03	5.809929e+03	2.895005e+03	0	7.113804e-04
6.500000e+08	7.707346e+12	0.000000e+00	4.857142e-01	1.715388e+14	2.572430e+14	2.368976e+14	8.537250e+03	5.814972e+03	2.897518e+03	0	7.071282e-04
6.600000e+08	7.570218e+12	0.000000e+00	4.857142e-01	1.693801e+14	2.585835e+14	2.357509e+14	8.521168e+03	5.819862e+03	2.899954e+03	0	7.029094e-04
6.700000e+08	7.435775e+12	0.000000e+00	4.857142e-01	1.672628e+14	2.598876e+14	2.346123e+14	8.505287e+03	5.824600e+03	2.902315e+03	0	6.987234e-04
6.800000e+08	7.303956e+12	0.000000e+00	4.857142e-01	1.651862e+14	2.611557e+14	2.334817e+14	8.489603e+03	5.829191e+03	2.904603e+03	0	6.945698e-04
6.900000e+08	7.174699e+12	0.000000e+00	4.857142e-01	1.631492e+14	2.623881e+14	2.323591e+14	8.474114e+03	5.833637e+03	2.906818e+03	0	6.904482e-04
7.000000e+08	7.047947e+12	0.000000e+00	4.857142e-01	1.611509e+14	2.635851e+14	2.312443e+14	8.458816e+03	5.837940e+03	2.908962e+03	0	6.863581e-04
7.100000e+08	6.923640e+12	0.000000e+00	4.857142e-01	1.591905e+14	2.647470e+14	2.301373e+14	8.443704e+03	5.842103e+03	2.911037e+03	0	6.822990e-04
7.200000e+08	6.801724e+12	0.000000e+00	4.857142e-01	1.572671e+14	2.658743e+14	2.290380e+14	8.428775e+03	5.846129e+03	2.913043e+03	0	6.782704e-04
7.300000e+08	6.682144e+12	0.000000e+00	4.857142e-01	1.553798e+14	2.669673e+14	2.279465e+14	8.414026e+03	5.850020e+03	2.914982e+03	0	6.742720e-04
7.400000e+08	6.564846e+12	0.000000e+00	4.857142e-01	1.535278e+14	2.680264e+14	2.268625e+14	8.399453e+03	5.853780e+03	2.916855e+03	0	6.703033e-04
7.500000e+08	6.449779e+12	0.000000e+00	4.857142e-01	1.517104e+14	2.690519e+14	2.257861e+14	8.385054e+03	5.857409e+03	2.918663e+03	0	6.663639e-04
7.600000e+08	6.336893e+12	0.000000e+00	4.857142e-01	1.499268e+14	2.700443e+14	2.247172e+14	8.370824e+03	5.860912e+03	2.920409e+03	0	6.624534e-04
7.700000e+08	6.226137e+12	0.000000e+00	4.857142e-01	1.481761e+14	2.710039e+14	2.236558e+14	8.356761e+03	5.864290e+03	2.922092e+03	0	6.585712e-04
7.800000e+08	6.117464e+12	0.000000e+00	4.857142e-01	1.464577e+14	2.719312e+14	2.226017e+14	8.342862e+03	5.867545e+03	2.923714e+03	0	6.547171e-04
7.900000e+08	6.010828e+12	0.000000e+00	4.857142e-01	1.447709e+14	2.728265e+14	2.215549e+14	8.329123e+03	5.870680e+03	2.925276e+03	0	6.508906e-04
8.000000e+08	5.906183e+12	0.000000e+00	4.857142e-01	1.431149e+14	2.736903e+14	2.205154e+14	8.315543e+03	5.873698e+03	2.926780e+03	0	6.470912e-04
8.100000e+08	5.803484e+12	0.000000e+00	4.857142e-01	1.414891e+14	2.745229e+14	2.194832e+14	8.302117e+03	5.876600e+03	2.928226e+03	0	6.433186e-04
8.200000e+08	5.702688e+12	0.000000e+00	4.857142e-01	1.398927e+14	2.753249e+14	2.184580e+14	8.288843e+03	5.879390e+03	2.929616e+03	0	6.395724e-04
8.300000e+08	5.603753e+12	0.000000e+00	4.857142e-01	1.383252e+14	2.760966e+14	2.174399e+14	8.275718e+03	5.882068e+03	2.930950e+03	0	6.358522e-04
8.400000e+08	5.506637e+12	0.000000e+00	4.857142e-01	1.367859e+14	2.768384e+14	2.164289e+14	8.262740e+03	5.884637e+03	2.932231e+03	0	6.321576e-04
8.500000e+08	5.411301e+12	0.000000e+00	4.857142e-01	1.352742e+14	2.775508e+14	2.154249e+14	8.249906e+03	5.887099e+03	2.933458e+03	0	6.284882e-04
8.600000e+08	5.317705e+12	0.000000e+00	4.857142e-01	1.337895e+14	2.782342e+14	2.144277e+14	8.237214e+03	5.889457e+03	2.934632e+03	0	6.248435e-04
8.700000e+08	5.225810e+12	0.000000e+00	4.857142e-01	1.323311e+14	2.788890e+14	2.134375e+14	8.224660e+03	5.891712e+03	2.935756e+03	0	6.212233e-04
8.800000e+08	5.135581e+12	0.000000e+00	4.857142e-01	1.308986e+14	2.795157e+14	2.124540e+14	8.212243e+03	5.893867e+03	2.936830e+03	0	6.176272e-04
8.900000e+08	5.046979e+12	0.000000e+00	4.857142e-01	1.294913e+14	2.801146e+14	2.114773e+14	8.199959e+03	5.895923e+03	2.937854e+03	0	6.140547e-04
9.000000e+08	4.959970e+12	0.000000e+00	4.857142e-01	1.281088e+14	2.806863e+14	2.105073e+14	8.187808e+03	5.897882e+03	2.938830e+03	0	6.105055e-04
9.100000e+08	4.874520e+12	0.000000e+00	4.857142e-01	1.267504e+14	2.812311e+14	2.095440e+14	8.175786e+03	5.899746e+03	2.939759e+03	0	6.069792e-04
9.200000e+08	4.790593e+12	0.000000e+00	4.857142e-01	1.254157e+14	2.817495e+14	2.085872e+14	8.163890e+03	5.901517e+03	2.940642e+03	0	6.034755e-04
9.300000e+08	4.708158e+12	0.000000e+00	4.857142e-01	1.241041e+14	2.822419e+14	2.076370e+14	8.152120e+03	5.903198e+03	2.941479e+03	0	5.999940e-04
9.400000e+08	4.627182e+12	0.000000e+00	4.857142e-01	1.228152e+14	2.827087e+14	2.066933e+14	8.140473e+03	5.904789e+03	2.942272e+03	0	5.965343e-04
9.500000e+08	4.547634e+12	0.000000e+00	4.857142e-01	1.215484e+14	2.831503e+14	2.057560e+14	8.128946e+03	5.906292e+03	2.943021e+03	0	5.930960e-04
9.600000e+08	4.469482e+12	0.000000e+00	4.857142e-01	1.203034e+14	2.835673e+14	2.048251e+14	8.117537e+03	5.907710e+03	2.943728e+03	0	5.896789e-04
9.700000e+08	4.392698e+12	0.000000e+00	4.857142e-01	1.190795e+14	2.839599e+14	2.039006e+14	8.106246e+03	5.909044e+03	2.944392e+03	0	5.862826e-04
9.800000e+08	4.317252e+12	0.000000e+00	4.857142e-01	1.178765e+14	2.843287e+14	2.029823e+14	8.095068e+03	5.910295e+03	2.945016e+03	0	5.829066e-04
9.900000e+08	4.243115e+12	0.000000e+00	4.857142e-01	1.166938e+14	2.846739e+14	2.020703e+14	8.084004e+03	5.911466e+03	2.945599e+03	0	5.795508e-04
1.000000e+09	4.170260e+12	0.000000e+00	4.857142e-01	1.155310e+14	2.849962e+14	2.011645e+14	8.073050e+03	5.912557e+03	2.946143e+03	0	5.762146e-04
1.010000e+09	4.098659e+12	0.000000e+00	4.857142e-01	1.143877e+14	2.852958e+14	2.002648e+14	8.062204e+03	5.913571e+03	2.946648e+03	0	5.728978e-04
1.020000e+09	4.028286e+12	0.000000e+00	4.857142e-01	1.132635e+14	2.855732e+14	1.993713e+14	8.051466e+03	5.914509e+03	2.947116e+03	0	5.696000e-04
1.030000e+09	3.959116e+12	0.000000e+00	4.857142e-01	1.121580e+14	2.858288e+14	1.984837e+14	8.040833e+03	5.915373e+03	2.947546e+03	0	5.663209e-04
1.040000e+09	3.891122e+12	0.000000e+00	4.857142e-01	1.110708e+14	2.860629e+14	1.976022e+14	8.030304e+03	5.916164e+03	2.947940e+03	0	5.630602e-04
1.050000e+09	3.824280e+12	0.000000e+00	4.857142e-01	1.100015e+14	2.862760e+14	1.967266e+14	8.019876e+03	5.916884e+03	2.948299e+03	0	5.598174e-04
1.060000e+09	3.758566e+12	0.000000e+00	4.857142e-01	1.089498e+14	2.864686e+14	1.958570e+14	8.009549e+03	5.917533e+03	2.948622e+03	0	5.565924e-04
1.070000e+09	3.693957e+12	0.000000e+00	4.857142e-01	1.079152e+14	2.866409e+14	1.949931e+14	7.999320e+03	5.918114e+03	2.948912e+03	0	5.533847e-04
1.080000e+09	3.630429e+12	0.000000e+00	4.857142e-01	1.068975e+14	2.867934e+14	1.941351e+14	7.989188e+03	5.918628e+03	2.949168e+03	0	5.501940e-04
1.090000e+09	3.567960e+12	0.000000e+00	4.857142e-01	1.058962e+14	2.869264e+14	1.932829e+14	7.979151e+03	5.919076e+03	2.949391e+03	0	5.470200e-04
1.100000e+09	3.506528e+12	0.000000e+00	4.857142e-01	1.049111e+14	2.870404e+14	1.924364e+14	7.969208e+03	5.919460e+03	2.949583e+03	0	5.438623e-04
1.110000e+09	3.446112e+12	0.000000e+00	4.857142e-01	1.039418e+14	2.871356e+14	1.915955e+14	7.959357e+03	5.919781e+03	2.949742e+03	0	5.407207e-04
1.120000e+09	3.386691e+12	0.000000e+00	4.857142e-01	1.029880e+14	2.872126e+14	1.907603e+14	7.949597e+03	5.920040e+03	2.949871e+03	0	5.375948e-04
1.130000e+09	3.328244e+12	0.000000e+00	4.857142e-01	1.020494e+14	2.872716e+14	1.899307e+14	7.939926e+03	5.920239e+03	2.949970e+03	0	5.344843e-04
1.140000e+09	3.270752e+12	0.000000e+00	4.857142e-01	1.011256e+14	2.873130e+14	1.891067e+14	7.930343e+03	5.920378e+03	2.950040e+03	0	5.313888e-04
1.150000e+09	3.214195e+12	0.000000e+00	4.857142e-01	1.002164e+14	2.873372e+14	1.882881e+14	7.920847e+03	5.920459e+03	2.950080e+03	0	5.283081e-04
1.160000e+09	3.158553e+12	0.000000e+00	4.857142e-01	9.932152e+13	2.873445e+14	1.874750e+14	7.911436e+03	5.920484e+03	2.950093e+03	0	5.252418e-04
1.170000e+09	3.103809e+12	0.000000e+00	4.857142e-01	9.844059e+13	2.873353e+14	1.866673e+14	7.902108e+03	5.920453e+03	2.950077e+03	0	5.221896e-04
1.180000e+09	3.049944e+12	0.000000e+00	4.857142e-01	9.757336e+13	2.873100e+14	1.858650e+14	7.892863e+03	5.920368e+03	2.950035e+03	0	5.191512e-04
1.190000e+09	2.996941e+12	0.000000e+00	4.857142e-01	9.671956e+13	2.872688e+14	1.850680e+14	7.883700e+03	5.920229e+03	2.949966e+03	0	5.161262e-04
1.200000e+09	2.944782e+12	0.000000e+00	4.857142e-01	9.587892e+13	2.872121e+14	1.842763e+14	7.874616e+03	5.920038e+03	2.949871e+03	0	5.131144e-04
1.210000e+09	2.893450e+12	0.000000e+00	4.857142e-01	9.505119e+13	2.871403e+14	1.834899e+14	7.865611e+03	5.919797e+03	2.949750e+03	0	5.101155e-04
1.220000e+09	2.842928e+12	0.000000e+00	4.857142e-01	9.423610e+13	2.870537e+14	1.827086e+14	7.856684e+03	5.919505e+03	2.949605e+03	0	5.071290e-04
1.230000e+09	2.793201e+12	0.000000e+00	4.857142e-01	9.343340e+13	2.869525e+14	1.819326e+14	7.847833e+03	5.919164e+03	2.949435e+03	0	5.041548e-04
1.240000e+09	2.744252e+12	0.000000e+00	4.857142e-01	9.264286e+13	2.868372e+14	1.811617e+14	7.839057e+03	5.918776e+03	2.949241e+03	0	5.011925e-04
1.250000e+09	2.696067e+12	0.000000e+00	4.857142e-01	9.186423e+13	2.867080e+14	1.803958e+14	7.830355e+03	5.918340e+03	2.949025e+03	0	4.982417e-04
1.260000e+09	2.648629e+12	0.000000e+00	4.857142e-01	9.109728e+13	2.865652e+14	1.796350e+14	7.821726e+03	5.917859e+03	2.948785e+03	0	4.953022e-04
1.270000e+09	2.601925e+12	0.000000e+00	4.857142e-01	9.034177e+13	2.864093e+14	1.788792e+14	7.813169e+03	5.917333e+03	2.948523e+03	0	4.923736e-04
1.280000e+09	2.555939e+12	0.000000e+00	4.857142e-01	8.959750e+13	2.862403e+14	1.781284e+14	7.804683e+03	5.916763e+03	2.948239e+03	0	4.894557e-04
1.290000e+09	2.510659e+12	0.000000e+00	4.857142e-01	8.886423e+13	2.860588e+14	1.773826e+14	7.796267e+03	5.916150e+03	2.947933e+03	0	4.865481e-04
1.300000e+09	2.466069e+12	0.000000e+00	4.857142e-01	8.814176e+13	2.858648e+14	1.766416e+14	7.787919e+03	5.915495e+03	2.947607e+03	0	4.836505e-04
1.310000e+09	2.422156e+12	0.000000e+00	4.857142e-01	8.742988e+13	2.856588e+14	1.759055e+14	7.779639e+03	5.914799e+03	2.947260e+03	0	4.807625e-04
1.320000e+09	2.378908e+12	0.000000e+00	4.857142e-01	8.672838e+13	2.854410e+14	1.751742e+14	7.771426e+03	5.914063e+03	2.946893e+03	0	4.778839e-04
1.330000e+09	2.336312e+12	0.000000e+00	4.857142e-01	8.603707e+13	2.852118e+14	1.744476e+14	7.763278e+03	5.913287e+03	2.946507e+03	0	4.750144e-04
1.340000e+09	2.294354e+12	0.000000e+00	4.857142e-01	8.535574e+13	2.849712e+14	1.737259e+14	7.755195e+03	5.912473e+03	2.946101e+03	0	4.721536e-04
1.350000e+09	2.253022e+12	0.000000e+00	4.857142e-01	8.468421e+13	2.847197e+14	1.730088e+14	7.747177e+03	5.911621e+03	2.945676e+03	0	4.693012e-04
1.360000e+09	2.212305e+12	0.000000e+00	4.857142e-01	8.402230e+13	2.844576e+14	1.722964e+14	7.739221e+03	5.910732e+03	2.945234e+03	0	4.664569e-04
