#t		Qconv[W]	Ri[Rp]		R*[Rp]		Qc[W]		Qm[W]		Qr[W]		Tcmb[K]		Tl[K]		Tup[K]		RiFlag		Bs[T]
0.000000e+00	2.332396e+13	0.000000e+00	4.827587e-01	4.230931e+14	9.130228e+13	4.178897e+14	1.124537e+04	5.320904e+03	2.609800e+03	0	1.020809e-03
1.000000e+07	2.297233e+13	0.000000e+00	4.827587e-01	4.181963e+14	9.367000e+13	4.155743e+14	1.121480e+04	5.340482e+03	2.619403e+03	0	1.015653e-03
2.000000e+07	2.262587e+13	0.000000e+00	4.827587e-01	4.133705e+14	9.605333e+13	4.132762e+14	1.118458e+04	5.359810e+03	2.628882e+03	0	1.010521e-03
3.000000e+07	2.228449e+13	0.000000e+00	4.827587e-01	4.086144e+14	9.845131e+13	4.109953e+14	1.115471e+04	5.378888e+03	2.638240e+03	0	1.005413e-03
4.000000e+07	2.194810e+13	0.000000e+00	4.827587e-01	4.039268e+14	1.008630e+14	4.087314e+14	1.112517e+04	5.397720e+03	2.647476e+03	0	1.000328e-03
5.000000e+07	2.161661e+13	0.000000e+00	4.827587e-01	3.993065e+14	1.032874e+14	4.064844e+14	1.109598e+04	5.416306e+03	2.656593e+03	0	9.952666e-04
6.000000e+07	2.128993e+13	0.000000e+00	4.827587e-01	3.947523e+14	1.057237e+14	4.042541e+14	1.106712e+04	5.434648e+03	2.665589e+03	0	9.902275e-04
7.000000e+07	2.096798e+13	0.000000e+00	4.827587e-01	3.902630e+14	1.081707e+14	4.020405e+14	1.103859e+04	5.452750e+03	2.674468e+03	0	9.852106e-04
8.000000e+07	2.065067e+13	0.000000e+00	4.827587e-01	3.858376e+14	1.106276e+14	3.998433e+14	1.101038e+04	5.470611e+03	2.683228e+03	0	9.802157e-04
9.000000e+07	2.033793e+13	0.000000e+00	4.827587e-01	3.814750e+14	1.130935e+14	3.976624e+14	1.098249e+04	5.488235e+03	2.691873e+03	0	9.752423e-04
1.000000e+08	2.002969e+13	0.000000e+00	4.827587e-01	3.771741e+14	1.155673e+14	3.954978e+14	1.095491e+04	5.505623e+03	2.700401e+03	0	9.702902e-04
1.100000e+08	1.972585e+13	0.000000e+00	4.827587e-01	3.729338e+14	1.180482e+14	3.933492e+14	1.092764e+04	5.522777e+03	2.708815e+03	0	9.653590e-04
1.200000e+08	1.942636e+13	0.000000e+00	4.827587e-01	3.687533e+14	1.205351e+14	3.912165e+14	1.090068e+04	5.539698e+03	2.717114e+03	0	9.604485e-04
1.300000e+08	1.913114e+13	0.000000e+00	4.827587e-01	3.646314e+14	1.230271e+14	3.890996e+14	1.087402e+04	5.556390e+03	2.725301e+03	0	9.555583e-04
1.400000e+08	1.884011e+13	0.000000e+00	4.827587e-01	3.605672e+14	1.255234e+14	3.869984e+14	1.084765e+04	5.572852e+03	2.733376e+03	0	9.506881e-04
1.500000e+08	1.855321e+13	0.000000e+00	4.827587e-01	3.565599e+14	1.280230e+14	3.849127e+14	1.082158e+04	5.589088e+03	2.741339e+03	0	9.458377e-04
1.600000e+08	1.827038e+13	0.000000e+00	4.827587e-01	3.526084e+14	1.305250e+14	3.828425e+14	1.079579e+04	5.605099e+03	2.749192e+03	0	9.410068e-04
1.700000e+08	1.799154e+13	0.000000e+00	4.827587e-01	3.487119e+14	1.330284e+14	3.807875e+14	1.077029e+04	5.620887e+03	2.756936e+03	0	9.361951e-04
1.800000e+08	1.771663e+13	0.000000e+00	4.827587e-01	3.448696e+14	1.355324e+14	3.787476e+14	1.074508e+04	5.636454e+03	2.764571e+03	0	9.314023e-04
1.900000e+08	1.744560e+13	0.000000e+00	4.827587e-01	3.410805e+14	1.380361e+14	3.767228e+14	1.072013e+04	5.651801e+03	2.772098e+03	0	9.266283e-04
2.000000e+08	1.717838e+13	0.000000e+00	4.827587e-01	3.373439e+14	1.405386e+14	3.747129e+14	1.069547e+04	5.666930e+03	2.779519e+03	0	9.218728e-04
2.100000e+08	1.691491e+13	0.000000e+00	4.827587e-01	3.336589e+14	1.430390e+14	3.727177e+14	1.067107e+04	5.681843e+03	2.786834e+03	0	9.171354e-04
2.200000e+08	1.665513e+13	0.000000e+00	4.827587e-01	3.300247e+14	1.455366e+14	3.707372e+14	1.064693e+04	5.696543e+03	2.794043e+03	0	9.124160e-04
2.300000e+08	1.639898e+13	0.000000e+00	4.827587e-01	3.264406e+14	1.480304e+14	3.687713e+14	1.062306e+04	5.711030e+03	2.801149e+03	0	9.077144e-04
2.400000e+08	1.614642e+13	0.000000e+00	4.827587e-01	3.229057e+14	1.505196e+14	3.668197e+14	1.059944e+04	5.725306e+03	2.808151e+03	0	9.030304e-04
2.500000e+08	1.589738e+13	0.000000e+00	4.827587e-01	3.194194e+14	1.530034e+14	3.648825e+14	1.057609e+04	5.739374e+03	2.815052e+03	0	8.983636e-04
2.600000e+08	1.565181e+13	0.000000e+00	4.827587e-01	3.159809e+14	1.554811e+14	3.629594e+14	1.055298e+04	5.753235e+03	2.821850e+03	0	8.937139e-04
2.700000e+08	1.540967e+13	0.000000e+00	4.827587e-01	3.125895e+14	1.579518e+14	3.610504e+14	1.053012e+04	5.766891e+03	2.828548e+03	0	8.890810e-04
2.800000e+08	1.517089e+13	0.000000e+00	4.827587e-01	3.092445e+14	1.604147e+14	3.591553e+14	1.050750e+04	5.780344e+03	2.835146e+03	0	8.844649e-04
2.900000e+08	1.493542e+13	0.000000e+00	4.827587e-01	3.059451e+14	1.628692e+14	3.572741e+14	1.048513e+04	5.793595e+03	2.841646e+03	0	8.798651e-04
3.000000e+08	1.470323e+13	0.000000e+00	4.827587e-01	3.026908e+14	1.653144e+14	3.554066e+14	1.046299e+04	5.806647e+03	2.848047e+03	0	8.752817e-04
3.100000e+08	1.447425e+13	0.000000e+00	4.827587e-01	2.994809e+14	1.677496e+14	3.535527e+14	1.044109e+04	5.819500e+03	2.854352e+03	0	8.707142e-04
3.200000e+08	1.424845e+13	0.000000e+00	4.827587e-01	2.963146e+14	1.701742e+14	3.517122e+14	1.041942e+04	5.832157e+03	2.860560e+03	0	8.661627e-04
3.300000e+08	1.402577e+13	0.000000e+00	4.827587e-01	2.931914e+14	1.725874e+14	3.498852e+14	1.039797e+04	5.844620e+03	2.866673e+03	0	8.616267e-04
3.400000e+08	1.380617e+13	0.000000e+00	4.827587e-01	2.901106e+14	1.749886e+14	3.480714e+14	1.037676e+04	5.856891e+03	2.872691e+03	0	8.571063e-04
3.500000e+08	1.358961e+13	0.000000e+00	4.827587e-01	2.870716e+14	1.773771e+14	3.462708e+14	1.035576e+04	5.868970e+03	2.878616e+03	0	8.526011e-04
3.600000e+08	1.337603e+13	0.000000e+00	4.827587e-01	2.840739e+14	1.797523e+14	3.444832e+14	1.033498e+04	5.880861e+03	2.884448e+03	0	8.481110e-04
3.700000e+08	1.316540e+13	0.000000e+00	4.827587e-01	2.811167e+14	1.821135e+14	3.427086e+14	1.031442e+04	5.892564e+03	2.890188e+03	0	8.436358e-04
3.800000e+08	1.295768e+13	0.000000e+00	4.827587e-01	2.781996e+14	1.844601e+14	3.409468e+14	1.029408e+04	5.904082e+03	2.895838e+03	0	8.391753e-04
3.900000e+08	1.275282e+13	0.000000e+00	4.827587e-01	2.753219e+14	1.867916e+14	3.391978e+14	1.027394e+04	5.915416e+03	2.901397e+03	0	8.347293e-04
4.000000e+08	1.255078e+13	0.000000e+00	4.827587e-01	2.724831e+14	1.891074e+14	3.374614e+14	1.025401e+04	5.926569e+03	2.906867e+03	0	8.302976e-04
4.100000e+08	1.235152e+13	0.000000e+00	4.827587e-01	2.696826e+14	1.914069e+14	3.357375e+14	1.023429e+04	5.937541e+03	2.912248e+03	0	8.258801e-04
4.200000e+08	1.215499e+13	0.000000e+00	4.827587e-01	2.669199e+14	1.936895e+14	3.340260e+14	1.021477e+04	5.948335e+03	2.917542e+03	0	8.214766e-04
4.300000e+08	1.196117e+13	0.000000e+00	4.827587e-01	2.641944e+14	1.959549e+14	3.323269e+14	1.019544e+04	5.958952e+03	2.922750e+03	0	8.170868e-04
4.400000e+08	1.177002e+13	0.000000e+00	4.827587e-01	2.615056e+14	1.982024e+14	3.306399e+14	1.017632e+04	5.969394e+03	2.927872e+03	0	8.127107e-04
4.500000e+08	1.158148e+13	0.000000e+00	4.827587e-01	2.588530e+14	2.004316e+14	3.289652e+14	1.015739e+04	5.979663e+03	2.932909e+03	0	8.083479e-04
4.600000e+08	1.139554e+13	0.000000e+00	4.827587e-01	2.562361e+14	2.026420e+14	3.273024e+14	1.013865e+04	5.989761e+03	2.937861e+03	0	8.039984e-04
4.700000e+08	1.121214e+13	0.000000e+00	4.827587e-01	2.536544e+14	2.048332e+14	3.256515e+14	1.012009e+04	5.999689e+03	2.942731e+03	0	7.996620e-04
4.800000e+08	1.103126e+13	0.000000e+00	4.827587e-01	2.511073e+14	2.070047e+14	3.240125e+14	1.010173e+04	6.009449e+03	2.947518e+03	0	7.953384e-04
4.900000e+08	1.085286e+13	0.000000e+00	4.827587e-01	2.485944e+14	2.091562e+14	3.223852e+14	1.008355e+04	6.019044e+03	2.952224e+03	0	7.910276e-04
5.000000e+08	1.067690e+13	0.000000e+00	4.827587e-01	2.461151e+14	2.112872e+14	3.207696e+14	1.006555e+04	6.028473e+03	2.956849e+03	0	7.867292e-04
5.100000e+08	1.050334e+13	0.000000e+00	4.827587e-01	2.436691e+14	2.133973e+14	3.191655e+14	1.004773e+04	6.037740e+03	2.961394e+03	0	7.824431e-04
5.200000e+08	1.033216e+13	0.000000e+00	4.827587e-01	2.412559e+14	2.154863e+14	3.175728e+14	1.003008e+04	6.046847e+03	2.965861e+03	0	7.781692e-04
5.300000e+08	1.016333e+13	0.000000e+00	4.827587e-01	2.388749e+14	2.175537e+14	3.159916e+14	1.001261e+04	6.055793e+03	2.970249e+03	0	7.739072e-04
5.400000e+08	9.996796e+12	0.000000e+00	4.827587e-01	2.365257e+14	2.195993e+14	3.144215e+14	9.995312e+03	6.064583e+03	2.974560e+03	0	7.696570e-04
5.500000e+08	9.832541e+12	0.000000e+00	4.827587e-01	2.342079e+14	2.216226e+14	3.128627e+14	9.978183e+03	6.073216e+03	2.978795e+03	0	7.654183e-04
5.600000e+08	9.670527e+12	0.000000e+00	4.827587e-01	2.319211e+14	2.236236e+14	3.113149e+14	9.961222e+03	6.081696e+03	2.982953e+03	0	7.611910e-04
5.700000e+08	9.510725e+12	0.000000e+00	4.827587e-01	2.296647e+14	2.256017e+14	3.097781e+14	9.944425e+03	6.090023e+03	2.987038e+03	0	7.569749e-04
5.800000e+08	9.353101e+12	0.000000e+00	4.827587e-01	2.274384e+14	2.275568e+14	3.082522e+14	9.927792e+03	6.098199e+03	2.991048e+03	0	7.527697e-04
5.900000e+08	9.197627e+12	0.000000e+00	4.827587e-01	2.252418e+14	2.294887e+14	3.067371e+14	9.911319e+03	6.106226e+03	2.994985e+03	0	7.485753e-04
6.000000e+08	9.044270e+12	0.000000e+00	4.827587e-01	2.230744e+14	2.313971e+14	3.052328e+14	9.895005e+03	6.114106e+03	2.998850e+03	0	7.443916e-04
6.100000e+08	8.893002e+12	0.000000e+00	4.827587e-01	2.209358e+14	2.332818e+14	3.037391e+14	9.878847e+03	6.121840e+03	3.002643e+03	0	7.402181e-04
6.200000e+08	8.743792e+12	0.000000e+00	4.827587e-01	2.188256e+14	2.351427e+14	3.022559e+14	9.862844e+03	6.129430e+03	3.006366e+03	0	7.360549e-04
6.300000e+08	8.596612e+12	0.000000e+00	4.827587e-01	2.167434e+14	2.369794e+14	3.007833e+14	9.846993e+03	6.136877e+03	3.010019e+03	0	7.319016e-04
6.400000e+08	8.451432e+12	0.000000e+00	4.827587e-01	2.146888e+14	2.387918e+14	2.993210e+14	9.831293e+03	6.144184e+03	3.013603e+03	0	7.277581e-04
6.500000e+08	8.308225e+12	0.000000e+00	4.827587e-01	2.126614e+14	2.405799e+14	2.978690e+14	9.815741e+03	6.151351e+03	3.017118e+03	0	7.236241e-04
6.600000e+08	8.166962e+12	0.000000e+00	4.827587e-01	2.106609e+14	2.423434e+14	2.964272e+14	9.800336e+03	6.158381e+03	3.020566e+03	0	7.194994e-04
6.700000e+08	8.027615e+12	0.000000e+00	4.827587e-01	2.086868e+14	2.440823e+14	2.949956e+14	9.785074e+03	6.165275e+03	3.023948e+03	0	7.153838e-04
6.800000e+08	7.890158e+12	0.000000e+00	4.827587e-01	2.067388e+14	2.457964e+14	2.935740e+14	9.769956e+03	6.172035e+03	3.027263e+03	0	7.112771e-04
6.900000e+08	7.754563e+12	0.000000e+00	4.827587e-01	2.048165e+14	2.474856e+14	2.921624e+14	9.754978e+03	6.178662e+03	3.030514e+03	0	7.071790e-04
7.000000e+08	7.620805e+12	0.000000e+00	4.827587e-01	2.029196e+14	2.491499e+14	2.907607e+14	9.740140e+03	6.185158e+03	3.033700e+03	0	7.030894e-04
7.100000e+08	7.488856e+12	0.000000e+00	4.827587e-01	2.010477e+14	2.507890e+14	2.893688e+14	9.725438e+03	6.191524e+03	3.036822e+03	0	6.990079e-04
7.200000e+08	7.358691e+12	0.000000e+00	4.827587e-01	1.992004e+14	2.524031e+14	2.879866e+14	9.710871e+03	6.197763e+03	3.039882e+03	0	6.949344e-04
7.300000e+08	7.230286e+12	0.000000e+00	4.827587e-01	1.973773e+14	2.539921e+14	2.866141e+14	9.696438e+03	6.203875e+03	3.042880e+03	0	6.908685e-04
7.400000e+08	7.103613e+12	0.000000e+00	4.827587e-01	1.955782e+14	2.555558e+14	2.852512e+14	9.682137e+03	6.209862e+03	3.045816e+03	0	6.868101e-04
7.500000e+08	6.978650e+12	0.000000e+00	4.827587e-01	1.938027e+14	2.570943e+14	2.838977e+14	9.667966e+03	6.215725e+03	3.048692e+03	0	6.827589e-04
7.600000e+08	6.855371e+12	0.000000e+00	4.827587e-01	1.920505e+14	2.586077e+14	2.825537e+14	9.653923e+03	6.221467e+03	3.051509e+03	0	6.787147e-04
7.700000e+08	6.733752e+12	0.000000e+00	4.827587e-01	1.903212e+14	2.600957e+14	2.812191e+14	9.640006e+03	6.227089e+03	3.054266e+03	0	6.746771e-04
7.800000e+08	6.613770e+12	0.000000e+00	4.827587e-01	1.886145e+14	2.615586e+14	2.798937e+14	9.626215e+03	6.232592e+03	3.056965e+03	0	6.706459e-04
7.900000e+08	6.495401e+12	0.000000e+00	4.827587e-01	1.869301e+14	2.629962e+14	2.785776e+14	9.612547e+03	6.237977e+03	3.059606e+03	0	6.666209e-04
8.000000e+08	6.378622e+12	0.000000e+00	4.827587e-01	1.852677e+14	2.644086e+14	2.772705e+14	9.599000e+03	6.243247e+03	3.062191e+03	0	6.626017e-04
8.100000e+08	6.263410e+12	0.000000e+00	4.827587e-01	1.836269e+14	2.657960e+14	2.759725e+14	9.585574e+03	6.248402e+03	3.064720e+03	0	6.585881e-04
8.200000e+08	6.149743e+12	0.000000e+00	4.827587e-01	1.820074e+14	2.671582e+14	2.746835e+14	9.572267e+03	6.253444e+03	3.067193e+03	0	6.545798e-04
8.300000e+08	6.037598e+12	0.000000e+00	4.827587e-01	1.804090e+14	2.684953e+14	2.734035e+14	9.559076e+03	6.258375e+03	3.069611e+03	0	6.505764e-04
8.400000e+08	5.926953e+12	0.000000e+00	4.827587e-01	1.788314e+14	2.698075e+14	2.721322e+14	9.546001e+03	6.263196e+03	3.071976e+03	0	6.465778e-04
8.500000e+08	5.817788e+12	0.000000e+00	4.827587e-01	1.772741e+14	2.710948e+14	2.708697e+14	9.533040e+03	6.267909e+03	3.074287e+03	0	6.425835e-04
8.600000e+08	5.710080e+12	0.000000e+00	4.827587e-01	1.757371e+14	2.723573e+14	2.696160e+14	9.520192e+03	6.272514e+03	3.076546e+03	0	6.385932e-04
8.700000e+08	5.603808e+12	0.000000e+00	4.827587e-01	1.742198e+14	2.735950e+14	2.683708e+14	9.507455e+03	6.277013e+03	3.078753e+03	0	6.346067e-04
8.800000e+08	5.498953e+12	0.000000e+00	4.827587e-01	1.727222e+14	2.748081e+14	2.671343e+14	9.494827e+03	6.281408e+03	3.080909e+03	0	6.306236e-04
8.900000e+08	5.395492e+12	0.000000e+00	4.827587e-01	1.712438e+14	2.759967e+14	2.659062e+14	9.482308e+03	6.285701e+03	3.083014e+03	0	6.266436e-04
9.000000e+08	5.293407e+12	0.000000e+00	4.827587e-01	1.697845e+14	2.771608e+14	2.646865e+14	9.469895e+03	6.289891e+03	3.085069e+03	0	6.226663e-04
9.100000e+08	5.192677e+12	0.000000e+00	4.827587e-01	1.683439e+14	2.783006e+14	2.634752e+14	9.457588e+03	6.293981e+03	3.087075e+03	0	6.186913e-04
9.200000e+08	5.093283e+12	0.000000e+00	4.827587e-01	1.669217e+14	2.794163e+14	2.622722e+14	9.445386e+03	6.297973e+03	3.089033e+03	0	6.147184e-04
9.300000e+08	4.995205e+12	0.000000e+00	4.827587e-01	1.655178e+14	2.805080e+14	2.610775e+14	9.433286e+03	6.301867e+03	3.090943e+03	0	6.107470e-04
9.400000e+08	4.898424e+12	0.000000e+00	4.827587e-01	1.641318e+14	2.815756e+14	2.598909e+14	9.421287e+03	6.305664e+03	3.092806e+03	0	6.067769e-04
9.500000e+08	4.802922e+12	0.000000e+00	4.827587e-01	1.627636e+14	2.826196e+14	2.587124e+14	9.409389e+03	6.309367e+03	3.094622e+03	0	6.028077e-04
9.600000e+08	4.708679e+12	0.000000e+00	4.827587e-01	1.614127e+14	2.836399e+14	2.575419e+14	9.397590e+03	6.312976e+03	3.096392e+03	0	5.988388e-04
9.700000e+08	4.615678e+12	0.000000e+00	4.827587e-01	1.600790e+14	2.846368e+14	2.563794e+14	9.385889e+03	6.316492e+03	3.098117e+03	0	5.948700e-04
9.800000e+08	4.523901e+12	0.000000e+00	4.827587e-01	1.587623e+14	2.856104e+14	2.552248e+14	9.374284e+03	6.319918e+03	3.099797e+03	0	5.909008e-04
9.900000e+08	4.433328e+12	0.000000e+00	4.827587e-01	1.574622e+14	2.865608e+14	2.540781e+14	9.362774e+03	6.323253e+03	3.101433e+03	0	5.869308e-04
1.000000e+09	4.343944e+12	0.000000e+00	4.827587e-01	1.561786e+14	2.874882e+14	2.529392e+14	9.351358e+03	6.326500e+03	3.103025e+03	0	5.829594e-04
1.010000e+09	4.255731e+12	0.000000e+00	4.827587e-01	1.549112e+14	2.883929e+14	2.518079e+14	9.340035e+03	6.329660e+03	3.104575e+03	0	5.789863e-04
1.020000e+09	4.168671e+12	0.000000e+00	4.827587e-01	1.536597e+14	2.892750e+14	2.506844e+14	9.328804e+03	6.332734e+03	3.106083e+03	0	5.750110e-04
1.030000e+09	4.082749e+12	0.000000e+00	4.827587e-01	1.524240e+14	2.901346e+14	2.495684e+14	9.317663e+03	6.335722e+03	3.107549e+03	0	5.710329e-04
1.040000e+09	3.997946e+12	0.000000e+00	4.827587e-01	1.512039e+14	2.909719e+14	2.484600e+14	9.306611e+03	6.338627e+03	3.108973e+03	0	5.670516e-04
1.050000e+09	3.914248e+12	0.000000e+00	4.827587e-01	1.499990e+14	2.917872e+14	2.473591e+14	9.295648e+03	6.341449e+03	3.110358e+03	0	5.630665e-04
1.060000e+09	3.831637e+12	0.000000e+00	4.827587e-01	1.488092e+14	2.925807e+14	2.462656e+14	9.284772e+03	6.344190e+03	3.111702e+03	0	5.590771e-04
1.070000e+09	3.750098e+12	0.000000e+00	4.827587e-01	1.476342e+14	2.933524e+14	2.451794e+14	9.273982e+03	6.346851e+03	3.113007e+03	0	5.550828e-04
1.080000e+09	3.669616e+12	0.000000e+00	4.827587e-01	1.464739e+14	2.941027e+14	2.441006e+14	9.263277e+03	6.349433e+03	3.114273e+03	0	5.510831e-04
1.090000e+09	3.590174e+12	0.000000e+00	4.827587e-01	1.453280e+14	2.948317e+14	2.430290e+14	9.252657e+03	6.351936e+03	3.115501e+03	0	5.470774e-04
1.100000e+09	3.511758e+12	0.000000e+00	4.827587e-01	1.441963e+14	2.955396e+14	2.419646e+14	9.242118e+03	6.354363e+03	3.116692e+03	0	5.430649e-04
1.110000e+09	3.434352e+12	0.000000e+00	4.827587e-01	1.430786e+14	2.962266e+14	2.409074e+14	9.231662e+03	6.356714e+03	3.117845e+03	0	5.390452e-04
1.120000e+09	3.357942e+12	0.000000e+00	4.827587e-01	1.419747e+14	2.968930e+14	2.398572e+14	9.221287e+03	6.358991e+03	3.118961e+03	0	5.350175e-04
1.130000e+09	3.282514e+12	0.000000e+00	4.827587e-01	1.408845e+14	2.975389e+14	2.388141e+14	9.210991e+03	6.361194e+03	3.120042e+03	0	5.309812e-04
1.140000e+09	3.208052e+12	0.000000e+00	4.827587e-01	1.398076e+14	2.981646e+14	2.377779e+14	9.200775e+03	6.363325e+03	3.121087e+03	0	5.269354e-04
1.150000e+09	3.134543e+12	0.000000e+00	4.827587e-01	1.387440e+14	2.987702e+14	2.367487e+14	9.190636e+03	6.365384e+03	3.122097e+03	0	5.228796e-04
1.160000e+09	3.061973e+12	0.000000e+00	4.827587e-01	1.376933e+14	2.993561e+14	2.357263e+14	9.180574e+03	6.367373e+03	3.123072e+03	0	5.188128e-04
1.170000e+09	2.990328e+12	0.000000e+00	4.827587e-01	1.366556e+14	2.999223e+14	2.347107e+14	9.170589e+03	6.369292e+03	3.124014e+03	0	5.147344e-04
1.180000e+09	2.919594e+12	0.000000e+00	4.827587e-01	1.356304e+14	3.004692e+14	2.337019e+14	9.160678e+03	6.371143e+03	3.124922e+03	0	5.106434e-04
1.190000e+09	2.849759e+12	0.000000e+00	4.827587e-01	1.346178e+14	3.009968e+14	2.326998e+14	9.150842e+03	6.372927e+03	3.125797e+03	0	5.065391e-04
1.200000e+09	2.780808e+12	0.000000e+00	4.827587e-01	1.336174e+14	3.015056e+14	2.317044e+14	9.141079e+03	6.374645e+03	3.126639e+03	0	5.024204e-04
1.210000e+09	2.712730e+12	0.000000e+00	4.827587e-01	1.326291e+14	3.019956e+14	2.307155e+14	9.131388e+03	6.376297e+03	3.127450e+03	0	4.982865e-04
1.220000e+09	2.645511e+12	0.000000e+00	4.827587e-01	1.316528e+14	3.024671e+14	2.297332e+14	9.121769e+03	6.377885e+03	3.128229e+03	0	4.941363e-04
1.230000e+09	2.579138e+12	0.000000e+00	4.827587e-01	1.306882e+14	3.029203e+14	2.287574e+14	9.112220e+03	6.379410e+03	3.128977e+03	0	4.899688e-04
1.240000e+09	2.513600e+12	0.000000e+00	4.827587e-01	1.297352e+14	3.033555e+14	2.277881e+14	9.102741e+03	6.380873e+03	3.129694e+03	0	4.857830e-04
1.250000e+09	2.448884e+12	0.000000e+00	4.827587e-01	1.287936e+14	3.037728e+14	2.268251e+14	9.093331e+03	6.382274e+03	3.130381e+03	0	4.815777e-04
1.260000e+09	2.384978e+12	0.000000e+00	4.827587e-01	1.278633e+14	3.041724e+14	2.258685e+14	9.083990e+03	6.383614e+03	3.131039e+03	0	4.773516e-04
1.270000e+09	2.321870e+12	0.000000e+00	4.827587e-01	1.269441e+14	3.045547e+14	2.249182e+14	9.074715e+03	6.384895e+03	3.131667e+03	0	4.731036e-04
1.280000e+09	2.259549e+12	0.000000e+00	4.827587e-01	1.260358e+14	3.049198e+14	2.239742e+14	9.065508e+03	6.386117e+03	3.132266e+03	0	4.688323e-04
1.290000e+09	2.198003e+12	0.000000e+00	4.827587e-01	1.251383e+14	3.052680e+14	2.230363e+14	9.056366e+03	6.387281e+03	3.132837e+03	0	4.645364e-04
1.300000e+09	2.137221e+12	0.000000e+00	4.827587e-01	1.242514e+14	3.055994e+14	2.221046e+14	9.047289e+03	6.388389e+03	3.133380e+03	0	4.602143e-04
1.310000e+09	2.077192e+12	0.000000e+00	4.827587e-01	1.233750e+14	3.059143e+14	2.211790e+14	9.038276e+03	6.389440e+03	3.133896e+03	0	4.558645e-04
1.320000e+09	2.017904e+12	0.000000e+00	4.827587e-01	1.225089e+14	3.062129e+14	2.202595e+14	9.029326e+03	6.390437e+03	3.134385e+03	0	4.514854e-04
1.330000e+09	1.959346e+12	0.000000e+00	4.827587e-01	1.216529e+14	3.064954e+14	2.193460e+14	9.020439e+03	6.391379e+03	3.134847e+03	0	4.470753e-04
1.340000e+09	1.901509e+12	0.000000e+00	4.827587e-01	1.208070e+14	3.067621e+14	2.184385e+14	9.011615e+03	6.392267e+03	3.135283e+03	0	4.426323e-04
1.350000e+09	1.844382e+12	0.000000e+00	4.827587e-01	1.199710e+14	3.070131e+14	2.175369e+14	9.002851e+03	6.393103e+03	3.135693e+03	0	4.381544e-04
1.360000e+09	1.787954e+12	0.000000e+00	4.827587e-01	1.191447e+14	3.072487e+14	2.166411e+14	8.994148e+03	6.393887e+03	3.136077e+03	0	4.336397e-04
