#t		Qconv[W]	Ri[Rp]		R*[Rp]		Qc[W]		Qm[W]		Qr[W]		Tcmb[K]		Tl[K]		Tup[K]		RiFlag		Bs[T]
0.000000e+00	2.995456e+13	0.000000e+00	4.827586e-01	5.360049e+14	8.746372e+13	4.804960e+14	1.243726e+04	5.713136e+03	2.676269e+03	0	1.103847e-03
1.000000e+07	2.951035e+13	0.000000e+00	4.827586e-01	5.302681e+14	8.983206e+13	4.778336e+14	1.240487e+04	5.734656e+03	2.686350e+03	0	1.098363e-03
2.000000e+07	2.907203e+13	0.000000e+00	4.827586e-01	5.246063e+14	9.222116e+13	4.751913e+14	1.237282e+04	5.755927e+03	2.696314e+03	0	1.092898e-03
3.000000e+07	2.863952e+13	0.000000e+00	4.827586e-01	5.190182e+14	9.463020e+13	4.725686e+14	1.234111e+04	5.776949e+03	2.706161e+03	0	1.087451e-03
4.000000e+07	2.821272e+13	0.000000e+00	4.827586e-01	5.135027e+14	9.705831e+13	4.699656e+14	1.230974e+04	5.797724e+03	2.715894e+03	0	1.082022e-03
5.000000e+07	2.779154e+13	0.000000e+00	4.827586e-01	5.080587e+14	9.950464e+13	4.673819e+14	1.227870e+04	5.818255e+03	2.725511e+03	0	1.076611e-03
6.000000e+07	2.737589e+13	0.000000e+00	4.827586e-01	5.026850e+14	1.019683e+14	4.648175e+14	1.224798e+04	5.838542e+03	2.735014e+03	0	1.071217e-03
7.000000e+07	2.696569e+13	0.000000e+00	4.827586e-01	4.973805e+14	1.044485e+14	4.622722e+14	1.221759e+04	5.858588e+03	2.744405e+03	0	1.065839e-03
8.000000e+07	2.656085e+13	0.000000e+00	4.827586e-01	4.921443e+14	1.069443e+14	4.597459e+14	1.218752e+04	5.878394e+03	2.753682e+03	0	1.060479e-03
9.000000e+07	2.616129e+13	0.000000e+00	4.827586e-01	4.869752e+14	1.094548e+14	4.572383e+14	1.215777e+04	5.897961e+03	2.762849e+03	0	1.055134e-03
1.000000e+08	2.576693e+13	0.000000e+00	4.827586e-01	4.818723e+14	1.119792e+14	4.547493e+14	1.212833e+04	5.917292e+03	2.771904e+03	0	1.049805e-03
1.100000e+08	2.537769e+13	0.000000e+00	4.827586e-01	4.768345e+14	1.145165e+14	4.522788e+14	1.209919e+04	5.936388e+03	2.780849e+03	0	1.044492e-03
1.200000e+08	2.499350e+13	0.000000e+00	4.827586e-01	4.718610e+14	1.170659e+14	4.498267e+14	1.207036e+04	5.955251e+03	2.789686e+03	0	1.039195e-03
1.300000e+08	2.461428e+13	0.000000e+00	4.827586e-01	4.669508e+14	1.196266e+14	4.473926e+14	1.204182e+04	5.973882e+03	2.798413e+03	0	1.033912e-03
1.400000e+08	2.423995e+13	0.000000e+00	4.827586e-01	4.621029e+14	1.221975e+14	4.449766e+14	1.201358e+04	5.992283e+03	2.807033e+03	0	1.028644e-03
1.500000e+08	2.387045e+13	0.000000e+00	4.827586e-01	4.573164e+14	1.247780e+14	4.425785e+14	1.198564e+04	6.010456e+03	2.815546e+03	0	1.023391e-03
1.600000e+08	2.350570e+13	0.000000e+00	4.827586e-01	4.525905e+14	1.273669e+14	4.401981e+14	1.195798e+04	6.028402e+03	2.823953e+03	0	1.018151e-03
1.700000e+08	2.314565e+13	0.000000e+00	4.827586e-01	4.479244e+14	1.299636e+14	4.378352e+14	1.193061e+04	6.046123e+03	2.832254e+03	0	1.012926e-03
1.800000e+08	2.279021e+13	0.000000e+00	4.827586e-01	4.433171e+14	1.325671e+14	4.354897e+14	1.190351e+04	6.063621e+03	2.840451e+03	0	1.007714e-03
1.900000e+08	2.243933e+13	0.000000e+00	4.827586e-01	4.387678e+14	1.351766e+14	4.331616e+14	1.187670e+04	6.080897e+03	2.848543e+03	0	1.002516e-03
2.000000e+08	2.209294e+13	0.000000e+00	4.827586e-01	4.342757e+14	1.377911e+14	4.308505e+14	1.185016e+04	6.097952e+03	2.856533e+03	0	9.973305e-04
2.100000e+08	2.175098e+13	0.000000e+00	4.827586e-01	4.298401e+14	1.404099e+14	4.285565e+14	1.182389e+04	6.114789e+03	2.864420e+03	0	9.921581e-04
2.200000e+08	2.141339e+13	0.000000e+00	4.827586e-01	4.254602e+14	1.430321e+14	4.262793e+14	1.179789e+04	6.131409e+03	2.872205e+03	0	9.869983e-04
2.300000e+08	2.108010e+13	0.000000e+00	4.827586e-01	4.211351e+14	1.456568e+14	4.240188e+14	1.177215e+04	6.147814e+03	2.879890e+03	0	9.818508e-04
2.400000e+08	2.075107e+13	0.000000e+00	4.827586e-01	4.168642e+14	1.482832e+14	4.217749e+14	1.174667e+04	6.164005e+03	2.887474e+03	0	9.767154e-04
2.500000e+08	2.042622e+13	0.000000e+00	4.827586e-01	4.126467e+14	1.509105e+14	4.195474e+14	1.172145e+04	6.179984e+03	2.894960e+03	0	9.715919e-04
2.600000e+08	2.010550e+13	0.000000e+00	4.827586e-01	4.084819e+14	1.535378e+14	4.173362e+14	1.169648e+04	6.195752e+03	2.902346e+03	0	9.664801e-04
2.700000e+08	1.978887e+13	0.000000e+00	4.827586e-01	4.043691e+14	1.561644e+14	4.151412e+14	1.167177e+04	6.211311e+03	2.909635e+03	0	9.613795e-04
2.800000e+08	1.947625e+13	0.000000e+00	4.827586e-01	4.003075e+14	1.587894e+14	4.129622e+14	1.164730e+04	6.226663e+03	2.916826e+03	0	9.562902e-04
2.900000e+08	1.916760e+13	0.000000e+00	4.827586e-01	3.962966e+14	1.614120e+14	4.107992e+14	1.162308e+04	6.241809e+03	2.923921e+03	0	9.512117e-04
3.000000e+08	1.886287e+13	0.000000e+00	4.827586e-01	3.923356e+14	1.640316e+14	4.086519e+14	1.159910e+04	6.256751e+03	2.930921e+03	0	9.461439e-04
3.100000e+08	1.856201e+13	0.000000e+00	4.827586e-01	3.884239e+14	1.666472e+14	4.065202e+14	1.157536e+04	6.271491e+03	2.937825e+03	0	9.410865e-04
3.200000e+08	1.826496e+13	0.000000e+00	4.827586e-01	3.845608e+14	1.692582e+14	4.044040e+14	1.155185e+04	6.286030e+03	2.944636e+03	0	9.360394e-04
3.300000e+08	1.797167e+13	0.000000e+00	4.827586e-01	3.807457e+14	1.718638e+14	4.023033e+14	1.152858e+04	6.300369e+03	2.951353e+03	0	9.310022e-04
3.400000e+08	1.768209e+13	0.000000e+00	4.827586e-01	3.769780e+14	1.744632e+14	4.002178e+14	1.150554e+04	6.314511e+03	2.957978e+03	0	9.259747e-04
3.500000e+08	1.739618e+13	0.000000e+00	4.827586e-01	3.732570e+14	1.770558e+14	3.981474e+14	1.148272e+04	6.328456e+03	2.964510e+03	0	9.209567e-04
3.600000e+08	1.711389e+13	0.000000e+00	4.827586e-01	3.695822e+14	1.796408e+14	3.960920e+14	1.146013e+04	6.342208e+03	2.970952e+03	0	9.159479e-04
3.700000e+08	1.683516e+13	0.000000e+00	4.827586e-01	3.659529e+14	1.822176e+14	3.940515e+14	1.143776e+04	6.355766e+03	2.977303e+03	0	9.109482e-04
3.800000e+08	1.655997e+13	0.000000e+00	4.827586e-01	3.623686e+14	1.847853e+14	3.920258e+14	1.141561e+04	6.369133e+03	2.983565e+03	0	9.059573e-04
3.900000e+08	1.628825e+13	0.000000e+00	4.827586e-01	3.588287e+14	1.873435e+14	3.900147e+14	1.139368e+04	6.382310e+03	2.989738e+03	0	9.009749e-04
4.000000e+08	1.601996e+13	0.000000e+00	4.827586e-01	3.553325e+14	1.898914e+14	3.880182e+14	1.137196e+04	6.395300e+03	2.995823e+03	0	8.960008e-04
4.100000e+08	1.575507e+13	0.000000e+00	4.827586e-01	3.518797e+14	1.924284e+14	3.860360e+14	1.135045e+04	6.408103e+03	3.001820e+03	0	8.910348e-04
4.200000e+08	1.549352e+13	0.000000e+00	4.827586e-01	3.484696e+14	1.949538e+14	3.840682e+14	1.132915e+04	6.420721e+03	3.007731e+03	0	8.860767e-04
4.300000e+08	1.523528e+13	0.000000e+00	4.827586e-01	3.451016e+14	1.974671e+14	3.821145e+14	1.130805e+04	6.433155e+03	3.013556e+03	0	8.811261e-04
4.400000e+08	1.498030e+13	0.000000e+00	4.827586e-01	3.417752e+14	1.999677e+14	3.801748e+14	1.128716e+04	6.445408e+03	3.019295e+03	0	8.761829e-04
4.500000e+08	1.472854e+13	0.000000e+00	4.827586e-01	3.384899e+14	2.024549e+14	3.782491e+14	1.126647e+04	6.457481e+03	3.024951e+03	0	8.712467e-04
4.600000e+08	1.447996e+13	0.000000e+00	4.827586e-01	3.352452e+14	2.049282e+14	3.763372e+14	1.124597e+04	6.469376e+03	3.030523e+03	0	8.663174e-04
4.700000e+08	1.423452e+13	0.000000e+00	4.827586e-01	3.320406e+14	2.073871e+14	3.744391e+14	1.122568e+04	6.481093e+03	3.036012e+03	0	8.613947e-04
4.800000e+08	1.399218e+13	0.000000e+00	4.827586e-01	3.288755e+14	2.098309e+14	3.725545e+14	1.120557e+04	6.492636e+03	3.041419e+03	0	8.564782e-04
4.900000e+08	1.375289e+13	0.000000e+00	4.827586e-01	3.257495e+14	2.122593e+14	3.706834e+14	1.118566e+04	6.504004e+03	3.046744e+03	0	8.515679e-04
5.000000e+08	1.351663e+13	0.000000e+00	4.827586e-01	3.226620e+14	2.146716e+14	3.688258e+14	1.116593e+04	6.515201e+03	3.051989e+03	0	8.466634e-04
5.100000e+08	1.328336e+13	0.000000e+00	4.827586e-01	3.196126e+14	2.170674e+14	3.669813e+14	1.114640e+04	6.526227e+03	3.057154e+03	0	8.417643e-04
5.200000e+08	1.305302e+13	0.000000e+00	4.827586e-01	3.166008e+14	2.194462e+14	3.651501e+14	1.112704e+04	6.537083e+03	3.062240e+03	0	8.368706e-04
5.300000e+08	1.282560e+13	0.000000e+00	4.827586e-01	3.136261e+14	2.218076e+14	3.633319e+14	1.110787e+04	6.547773e+03	3.067247e+03	0	8.319818e-04
5.400000e+08	1.260105e+13	0.000000e+00	4.827586e-01	3.106881e+14	2.241511e+14	3.615266e+14	1.108888e+04	6.558297e+03	3.072177e+03	0	8.270977e-04
5.500000e+08	1.237933e+13	0.000000e+00	4.827586e-01	3.077862e+14	2.264762e+14	3.597342e+14	1.107006e+04	6.568656e+03	3.077030e+03	0	8.222180e-04
5.600000e+08	1.216041e+13	0.000000e+00	4.827586e-01	3.049201e+14	2.287826e+14	3.579546e+14	1.105142e+04	6.578853e+03	3.081806e+03	0	8.173423e-04
5.700000e+08	1.194426e+13	0.000000e+00	4.827586e-01	3.020892e+14	2.310699e+14	3.561875e+14	1.103296e+04	6.588889e+03	3.086508e+03	0	8.124705e-04
5.800000e+08	1.173083e+13	0.000000e+00	4.827586e-01	2.992932e+14	2.333377e+14	3.544331e+14	1.101466e+04	6.598765e+03	3.091134e+03	0	8.076022e-04
5.900000e+08	1.152010e+13	0.000000e+00	4.827586e-01	2.965316e+14	2.355855e+14	3.526910e+14	1.099653e+04	6.608483e+03	3.095686e+03	0	8.027371e-04
6.000000e+08	1.131203e+13	0.000000e+00	4.827586e-01	2.938039e+14	2.378131e+14	3.509613e+14	1.097857e+04	6.618044e+03	3.100165e+03	0	7.978748e-04
6.100000e+08	1.110658e+13	0.000000e+00	4.827586e-01	2.911098e+14	2.400201e+14	3.492438e+14	1.096078e+04	6.627451e+03	3.104572e+03	0	7.930150e-04
6.200000e+08	1.090373e+13	0.000000e+00	4.827586e-01	2.884487e+14	2.422062e+14	3.475385e+14	1.094314e+04	6.636705e+03	3.108907e+03	0	7.881574e-04
6.300000e+08	1.070344e+13	0.000000e+00	4.827586e-01	2.858204e+14	2.443711e+14	3.458452e+14	1.092567e+04	6.645806e+03	3.113170e+03	0	7.833017e-04
6.400000e+08	1.050568e+13	0.000000e+00	4.827586e-01	2.832244e+14	2.465144e+14	3.441638e+14	1.090836e+04	6.654758e+03	3.117363e+03	0	7.784475e-04
6.500000e+08	1.031041e+13	0.000000e+00	4.827586e-01	2.806602e+14	2.486359e+14	3.424943e+14	1.089120e+04	6.663560e+03	3.121487e+03	0	7.735943e-04
6.600000e+08	1.011761e+13	0.000000e+00	4.827586e-01	2.781274e+14	2.507354e+14	3.408365e+14	1.087420e+04	6.672216e+03	3.125541e+03	0	7.687420e-04
6.700000e+08	9.927243e+12	0.000000e+00	4.827586e-01	2.756258e+14	2.528125e+14	3.391904e+14	1.085735e+04	6.680725e+03	3.129528e+03	0	7.638899e-04
6.800000e+08	9.739276e+12	0.000000e+00	4.827586e-01	2.731548e+14	2.548671e+14	3.375558e+14	1.084065e+04	6.689091e+03	3.133446e+03	0	7.590379e-04
6.900000e+08	9.553681e+12	0.000000e+00	4.827586e-01	2.707141e+14	2.568989e+14	3.359327e+14	1.082411e+04	6.697313e+03	3.137298e+03	0	7.541855e-04
7.000000e+08	9.370427e+12	0.000000e+00	4.827586e-01	2.683033e+14	2.589077e+14	3.343210e+14	1.080771e+04	6.705395e+03	3.141084e+03	0	7.493322e-04
7.100000e+08	9.189484e+12	0.000000e+00	4.827586e-01	2.659220e+14	2.608932e+14	3.327206e+14	1.079145e+04	6.713337e+03	3.144804e+03	0	7.444776e-04
7.200000e+08	9.010823e+12	0.000000e+00	4.827586e-01	2.635698e+14	2.628554e+14	3.311314e+14	1.077534e+04	6.721141e+03	3.148460e+03	0	7.396213e-04
7.300000e+08	8.834415e+12	0.000000e+00	4.827586e-01	2.612465e+14	2.647941e+14	3.295532e+14	1.075937e+04	6.728808e+03	3.152051e+03	0	7.347628e-04
7.400000e+08	8.660231e+12	0.000000e+00	4.827586e-01	2.589515e+14	2.667090e+14	3.279861e+14	1.074354e+04	6.736339e+03	3.155580e+03	0	7.299017e-04
7.500000e+08	8.488242e+12	0.000000e+00	4.827586e-01	2.566846e+14	2.686000e+14	3.264299e+14	1.072785e+04	6.743737e+03	3.159045e+03	0	7.250375e-04
7.600000e+08	8.318420e+12	0.000000e+00	4.827586e-01	2.544453e+14	2.704670e+14	3.248846e+14	1.071230e+04	6.751003e+03	3.162449e+03	0	7.201697e-04
7.700000e+08	8.150738e+12	0.000000e+00	4.827586e-01	2.522334e+14	2.723099e+14	3.233500e+14	1.069688e+04	6.758138e+03	3.165791e+03	0	7.152978e-04
7.800000e+08	7.985167e+12	0.000000e+00	4.827586e-01	2.500484e+14	2.741285e+14	3.218261e+14	1.068160e+04	6.765143e+03	3.169072e+03	0	7.104212e-04
7.900000e+08	7.821681e+12	0.000000e+00	4.827586e-01	2.478901e+14	2.759229e+14	3.203127e+14	1.066644e+04	6.772021e+03	3.172294e+03	0	7.055394e-04
8.000000e+08	7.660253e+12	0.000000e+00	4.827586e-01	2.457581e+14	2.776927e+14	3.188098e+14	1.065142e+04	6.778771e+03	3.175457e+03	0	7.006519e-04
8.100000e+08	7.500855e+12	0.000000e+00	4.827586e-01	2.436520e+14	2.794381e+14	3.173174e+14	1.063653e+04	6.785397e+03	3.178560e+03	0	6.957579e-04
8.200000e+08	7.343463e+12	0.000000e+00	4.827586e-01	2.415715e+14	2.811589e+14	3.158353e+14	1.062176e+04	6.791899e+03	3.181606e+03	0	6.908571e-04
8.300000e+08	7.188049e+12	0.000000e+00	4.827586e-01	2.395164e+14	2.828551e+14	3.143634e+14	1.060713e+04	6.798279e+03	3.184595e+03	0	6.859486e-04
8.400000e+08	7.034588e+12	0.000000e+00	4.827586e-01	2.374861e+14	2.845266e+14	3.129017e+14	1.059261e+04	6.804537e+03	3.187526e+03	0	6.810319e-04
8.500000e+08	6.883055e+12	0.000000e+00	4.827586e-01	2.354805e+14	2.861734e+14	3.114501e+14	1.057822e+04	6.810677e+03	3.190402e+03	0	6.761063e-04
8.600000e+08	6.733425e+12	0.000000e+00	4.827586e-01	2.334993e+14	2.877955e+14	3.100085e+14	1.056395e+04	6.816698e+03	3.193223e+03	0	6.711711e-04
8.700000e+08	6.585673e+12	0.000000e+00	4.827586e-01	2.315420e+14	2.893928e+14	3.085769e+14	1.054979e+04	6.822602e+03	3.195989e+03	0	6.662256e-04
8.800000e+08	6.439774e+12	0.000000e+00	4.827586e-01	2.296084e+14	2.909653e+14	3.071550e+14	1.053576e+04	6.828391e+03	3.198700e+03	0	6.612689e-04
8.900000e+08	6.295704e+12	0.000000e+00	4.827586e-01	2.276982e+14	2.925131e+14	3.057430e+14	1.052184e+04	6.834066e+03	3.201359e+03	0	6.563004e-04
9.000000e+08	6.153439e+12	0.000000e+00	4.827586e-01	2.258111e+14	2.940361e+14	3.043406e+14	1.050804e+04	6.839628e+03	3.203964e+03	0	6.513192e-04
9.100000e+08	6.012956e+12	0.000000e+00	4.827586e-01	2.239468e+14	2.955345e+14	3.029478e+14	1.049436e+04	6.845078e+03	3.206517e+03	0	6.463245e-04
9.200000e+08	5.874231e+12	0.000000e+00	4.827586e-01	2.221049e+14	2.970081e+14	3.015646e+14	1.048078e+04	6.850419e+03	3.209019e+03	0	6.413153e-04
9.300000e+08	5.737242e+12	0.000000e+00	4.827586e-01	2.202853e+14	2.984571e+14	3.001908e+14	1.046732e+04	6.855651e+03	3.211470e+03	0	6.362908e-04
9.400000e+08	5.601964e+12	0.000000e+00	4.827586e-01	2.184875e+14	2.998815e+14	2.988265e+14	1.045397e+04	6.860775e+03	3.213871e+03	0	6.312499e-04
9.500000e+08	5.468376e+12	0.000000e+00	4.827586e-01	2.167113e+14	3.012813e+14	2.974714e+14	1.044072e+04	6.865794e+03	3.216221e+03	0	6.261918e-04
9.600000e+08	5.336456e+12	0.000000e+00	4.827586e-01	2.149565e+14	3.026566e+14	2.961256e+14	1.042759e+04	6.870707e+03	3.218523e+03	0	6.211153e-04
9.700000e+08	5.206181e+12	0.000000e+00	4.827586e-01	2.132227e+14	3.040075e+14	2.947890e+14	1.041456e+04	6.875517e+03	3.220776e+03	0	6.160193e-04
9.800000e+08	5.077529e+12	0.000000e+00	4.827586e-01	2.115097e+14	3.053340e+14	2.934614e+14	1.040163e+04	6.880225e+03	3.222981e+03	0	6.109027e-04
9.900000e+08	4.950480e+12	0.000000e+00	4.827586e-01	2.098172e+14	3.066363e+14	2.921429e+14	1.038881e+04	6.884831e+03	3.225139e+03	0	6.057643e-04
1.000000e+09	4.825011e+12	0.000000e+00	4.827586e-01	2.081449e+14	3.079145e+14	2.908333e+14	1.037609e+04	6.889338e+03	3.227251e+03	0	6.006028e-04
1.010000e+09	4.701103e+12	0.000000e+00	4.827586e-01	2.064926e+14	3.091685e+14	2.895326e+14	1.036347e+04	6.893746e+03	3.229315e+03	0	5.954169e-04
1.020000e+09	4.578733e+12	0.000000e+00	4.827586e-01	2.048599e+14	3.103985e+14	2.882407e+14	1.035095e+04	6.898057e+03	3.231335e+03	0	5.902052e-04
1.030000e+09	4.457882e+12	0.000000e+00	4.827586e-01	2.032467e+14	3.116047e+14	2.869575e+14	1.033853e+04	6.902272e+03	3.233309e+03	0	5.849662e-04
1.040000e+09	4.338530e+12	0.000000e+00	4.827586e-01	2.016527e+14	3.127871e+14	2.856831e+14	1.032621e+04	6.906392e+03	3.235239e+03	0	5.796984e-04
1.050000e+09	4.220656e+12	0.000000e+00	4.827586e-01	2.000776e+14	3.139458e+14	2.844172e+14	1.031398e+04	6.910418e+03	3.237125e+03	0	5.744002e-04
1.060000e+09	4.104241e+12	0.000000e+00	4.827586e-01	1.985212e+14	3.150810e+14	2.831599e+14	1.030185e+04	6.914351e+03	3.238968e+03	0	5.690698e-04
1.070000e+09	3.989265e+12	0.000000e+00	4.827586e-01	1.969833e+14	3.161929e+14	2.819110e+14	1.028982e+04	6.918194e+03	3.240768e+03	0	5.637054e-04
1.080000e+09	3.875709e+12	0.000000e+00	4.827586e-01	1.954635e+14	3.172814e+14	2.806705e+14	1.027787e+04	6.921946e+03	3.242525e+03	0	5.583052e-04
1.090000e+09	3.763554e+12	0.000000e+00	4.827586e-01	1.939616e+14	3.183469e+14	2.794384e+14	1.026602e+04	6.925609e+03	3.244241e+03	0	5.528670e-04
1.100000e+09	3.652781e+12	0.000000e+00	4.827586e-01	1.924775e+14	3.193893e+14	2.782146e+14	1.025426e+04	6.929184e+03	3.245916e+03	0	5.473887e-04
1.110000e+09	3.543372e+12	0.000000e+00	4.827586e-01	1.910108e+14	3.204090e+14	2.769989e+14	1.024259e+04	6.932672e+03	3.247550e+03	0	5.418680e-04
1.120000e+09	3.435309e+12	0.000000e+00	4.827586e-01	1.895614e+14	3.214060e+14	2.757915e+14	1.023101e+04	6.936075e+03	3.249144e+03	0	5.363025e-04
1.130000e+09	3.328572e+12	0.000000e+00	4.827586e-01	1.881290e+14	3.223805e+14	2.745920e+14	1.021952e+04	6.939393e+03	3.250698e+03	0	5.306896e-04
1.140000e+09	3.223145e+12	0.000000e+00	4.827586e-01	1.867133e+14	3.233326e+14	2.734007e+14	1.020811e+04	6.942628e+03	3.252214e+03	0	5.250264e-04
1.150000e+09	3.119009e+12	0.000000e+00	4.827586e-01	1.853142e+14	3.242625e+14	2.722172e+14	1.019679e+04	6.945780e+03	3.253690e+03	0	5.193101e-04
1.160000e+09	3.016148e+12	0.000000e+00	4.827586e-01	1.839315e+14	3.251703e+14	2.710417e+14	1.018555e+04	6.948851e+03	3.255129e+03	0	5.135375e-04
1.170000e+09	2.914544e+12	0.000000e+00	4.827586e-01	1.825648e+14	3.260563e+14	2.698739e+14	1.017440e+04	6.951842e+03	3.256530e+03	0	5.077050e-04
1.180000e+09	2.814181e+12	0.000000e+00	4.827586e-01	1.812141e+14	3.269206e+14	2.687140e+14	1.016332e+04	6.954754e+03	3.257894e+03	0	5.018091e-04
1.190000e+09	2.715040e+12	0.000000e+00	4.827586e-01	1.798791e+14	3.277634e+14	2.675618e+14	1.015233e+04	6.957588e+03	3.259222e+03	0	4.958458e-04
1.200000e+09	2.617107e+12	0.000000e+00	4.827586e-01	1.785595e+14	3.285849e+14	2.664172e+14	1.014143e+04	6.960345e+03	3.260513e+03	0	4.898109e-04
1.210000e+09	2.520364e+12	0.000000e+00	4.827586e-01	1.772553e+14	3.293851e+14	2.652802e+14	1.013060e+04	6.963026e+03	3.261769e+03	0	4.836995e-04
1.220000e+09	2.424796e+12	0.000000e+00	4.827586e-01	1.759660e+14	3.301645e+14	2.641507e+14	1.011985e+04	6.965632e+03	3.262990e+03	0	4.775069e-04
1.230000e+09	2.330386e+12	0.000000e+00	4.827586e-01	1.746917e+14	3.309230e+14	2.630287e+14	1.010918e+04	6.968164e+03	3.264176e+03	0	4.712274e-04
1.240000e+09	2.237120e+12	0.000000e+00	4.827586e-01	1.734320e+14	3.316609e+14	2.619142e+14	1.009858e+04	6.970623e+03	3.265328e+03	0	4.648551e-04
1.250000e+09	2.144980e+12	0.000000e+00	4.827586e-01	1.721868e+14	3.323784e+14	2.608070e+14	1.008806e+04	6.973010e+03	3.266446e+03	0	4.583835e-04
1.260000e+09	2.053953e+12	0.000000e+00	4.827586e-01	1.709559e+14	3.330757e+14	2.597070e+14	1.007762e+04	6.975326e+03	3.267531e+03	0	4.518054e-04
1.270000e+09	1.964023e+12	0.000000e+00	4.827586e-01	1.697391e+14	3.337529e+14	2.586144e+14	1.006725e+04	6.977573e+03	3.268583e+03	0	4.451128e-04
1.280000e+09	1.875175e+12	0.000000e+00	4.827586e-01	1.685362e+14	3.344103e+14	2.575289e+14	1.005696e+04	6.979750e+03	3.269603e+03	0	4.382970e-04
1.290000e+09	1.787394e+12	0.000000e+00	4.827586e-01	1.673469e+14	3.350481e+14	2.564505e+14	1.004674e+04	6.981859e+03	3.270591e+03	0	4.313482e-04
1.300000e+09	1.700667e+12	0.000000e+00	4.827586e-01	1.661712e+14	3.356665e+14	2.553793e+14	1.003659e+04	6.983900e+03	3.271547e+03	0	4.242557e-04
1.310000e+09	1.614978e+12	0.000000e+00	4.827586e-01	1.650089e+14	3.362655e+14	2.543150e+14	1.002651e+04	6.985876e+03	3.272473e+03	0	4.170071e-04
1.320000e+09	1.530314e+12	0.000000e+00	4.827586e-01	1.638597e+14	3.368456e+14	2.532577e+14	1.001650e+04	6.987786e+03	3.273368e+03	0	4.095888e-04
1.330000e+09	1.446660e+12	0.000000e+00	4.827586e-01	1.627235e+14	3.374067e+14	2.522074e+14	1.000656e+04	6.989632e+03	3.274232e+03	0	4.019852e-04
1.340000e+09	1.364003e+12	0.000000e+00	4.827586e-01	1.616002e+14	3.379492e+14	2.511639e+14	9.996689e+03	6.991414e+03	3.275067e+03	0	3.941786e-04
1.350000e+09	1.282330e+12	0.000000e+00	4.827586e-01	1.604895e+14	3.384733e+14	2.501272e+14	9.986887e+03	6.993134e+03	3.275873e+03	0	3.861486e-04
1.360000e+09	1.201627e+12	0.000000e+00	4.827586e-01	1.593912e+14	3.389792e+14	2.490973e+14	9.977152e+03	6.994791e+03	3.276649e+03	0	3.778717e-04
