#t		Qconv[W]	Ri[Rp]		R*[Rp]		Qc[W]		Qm[W]		Qr[W]		Tcmb[K]		Tl[K]		Tup[K]		RiFlag		Bs[T]
0.000000e+00	8.424481e+13	0.000000e+00	4.797689e-01	1.206490e+15	8.401491e+13	5.456816e+14	1.499020e+04	6.399613e+03	2.727083e+03	0	1.552094e-03
1.000000e+07	8.247689e+13	0.000000e+00	4.797689e-01	1.185848e+15	8.741656e+13	5.426582e+14	1.492692e+04	6.434921e+03	2.742128e+03	0	1.541160e-03
2.000000e+07	8.075187e+13	0.000000e+00	4.797689e-01	1.165698e+15	9.086591e+13	5.396573e+14	1.486472e+04	6.469654e+03	2.756929e+03	0	1.530339e-03
3.000000e+07	7.906833e+13	0.000000e+00	4.797689e-01	1.146025e+15	9.436096e+13	5.366789e+14	1.480356e+04	6.503823e+03	2.771490e+03	0	1.519630e-03
4.000000e+07	7.742491e+13	0.000000e+00	4.797689e-01	1.126813e+15	9.789974e+13	5.337226e+14	1.474343e+04	6.537437e+03	2.785814e+03	0	1.509027e-03
5.000000e+07	7.582034e+13	0.000000e+00	4.797689e-01	1.108047e+15	1.014802e+14	5.307885e+14	1.468430e+04	6.570506e+03	2.799906e+03	0	1.498530e-03
6.000000e+07	7.425336e+13	0.000000e+00	4.797689e-01	1.089713e+15	1.051004e+14	5.278762e+14	1.462615e+04	6.603039e+03	2.813769e+03	0	1.488135e-03
7.000000e+07	7.272279e+13	0.000000e+00	4.797689e-01	1.071797e+15	1.087582e+14	5.249856e+14	1.456896e+04	6.635044e+03	2.827407e+03	0	1.477839e-03
8.000000e+07	7.122750e+13	0.000000e+00	4.797689e-01	1.054288e+15	1.124516e+14	5.221165e+14	1.451270e+04	6.666530e+03	2.840825e+03	0	1.467640e-03
9.000000e+07	6.976640e+13	0.000000e+00	4.797689e-01	1.037171e+15	1.161786e+14	5.192688e+14	1.445736e+04	6.697506e+03	2.854024e+03	0	1.457535e-03
1.000000e+08	6.833844e+13	0.000000e+00	4.797689e-01	1.020437e+15	1.199372e+14	5.164421e+14	1.440290e+04	6.727979e+03	2.867010e+03	0	1.447522e-03
1.100000e+08	6.694264e+13	0.000000e+00	4.797689e-01	1.004072e+15	1.237253e+14	5.136365e+14	1.434932e+04	6.757957e+03	2.879785e+03	0	1.437599e-03
1.200000e+08	6.557802e+13	0.000000e+00	4.797689e-01	9.880672e+14	1.275408e+14	5.108516e+14	1.429660e+04	6.787448e+03	2.892352e+03	0	1.427764e-03
1.300000e+08	6.424366e+13	0.000000e+00	4.797689e-01	9.724108e+14	1.313820e+14	5.080874e+14	1.424471e+04	6.816460e+03	2.904715e+03	0	1.418013e-03
1.400000e+08	6.293870e+13	0.000000e+00	4.797689e-01	9.570931e+14	1.352465e+14	5.053437e+14	1.419363e+04	6.845000e+03	2.916876e+03	0	1.408346e-03
1.500000e+08	6.166226e+13	0.000000e+00	4.797689e-01	9.421045e+14	1.391327e+14	5.026202e+14	1.414336e+04	6.873075e+03	2.928840e+03	0	1.398761e-03
1.600000e+08	6.041355e+13	0.000000e+00	4.797689e-01	9.274356e+14	1.430383e+14	4.999168e+14	1.409387e+04	6.900692e+03	2.940609e+03	0	1.389254e-03
1.700000e+08	5.919176e+13	0.000000e+00	4.797689e-01	9.130774e+14	1.469616e+14	4.972334e+14	1.404515e+04	6.927858e+03	2.952185e+03	0	1.379825e-03
1.800000e+08	5.799616e+13	0.000000e+00	4.797689e-01	8.990215e+14	1.509005e+14	4.945697e+14	1.399717e+04	6.954579e+03	2.963571e+03	0	1.370471e-03
1.900000e+08	5.682601e+13	0.000000e+00	4.797689e-01	8.852594e+14	1.548531e+14	4.919257e+14	1.394993e+04	6.980862e+03	2.974772e+03	0	1.361192e-03
2.000000e+08	5.568061e+13	0.000000e+00	4.797689e-01	8.717833e+14	1.588176e+14	4.893012e+14	1.390341e+04	7.006713e+03	2.985788e+03	0	1.351984e-03
2.100000e+08	5.455930e+13	0.000000e+00	4.797689e-01	8.585854e+14	1.627920e+14	4.866959e+14	1.385759e+04	7.032139e+03	2.996623e+03	0	1.342847e-03
2.200000e+08	5.346141e+13	0.000000e+00	4.797689e-01	8.456582e+14	1.667746e+14	4.841098e+14	1.381247e+04	7.057146e+03	3.007279e+03	0	1.333778e-03
2.300000e+08	5.238633e+13	0.000000e+00	4.797689e-01	8.329948e+14	1.707636e+14	4.815426e+14	1.376802e+04	7.081739e+03	3.017759e+03	0	1.324777e-03
2.400000e+08	5.133345e+13	0.000000e+00	4.797689e-01	8.205880e+14	1.747570e+14	4.789943e+14	1.372423e+04	7.105925e+03	3.028065e+03	0	1.315842e-03
2.500000e+08	5.030219e+13	0.000000e+00	4.797689e-01	8.084314e+14	1.787532e+14	4.764646e+14	1.368109e+04	7.129710e+03	3.038200e+03	0	1.306971e-03
2.600000e+08	4.929199e+13	0.000000e+00	4.797689e-01	7.965185e+14	1.827505e+14	4.739535e+14	1.363859e+04	7.153098e+03	3.048167e+03	0	1.298162e-03
2.700000e+08	4.830231e+13	0.000000e+00	4.797689e-01	7.848431e+14	1.867471e+14	4.714607e+14	1.359671e+04	7.176096e+03	3.057967e+03	0	1.289415e-03
2.800000e+08	4.733262e+13	0.000000e+00	4.797689e-01	7.733991e+14	1.907414e+14	4.689861e+14	1.355544e+04	7.198709e+03	3.067603e+03	0	1.280729e-03
2.900000e+08	4.638242e+13	0.000000e+00	4.797689e-01	7.621809e+14	1.947317e+14	4.665296e+14	1.351476e+04	7.220942e+03	3.077077e+03	0	1.272100e-03
3.000000e+08	4.545122e+13	0.000000e+00	4.797689e-01	7.511828e+14	1.987165e+14	4.640909e+14	1.347468e+04	7.242801e+03	3.086392e+03	0	1.263530e-03
3.100000e+08	4.453854e+13	0.000000e+00	4.797689e-01	7.403993e+14	2.026941e+14	4.616701e+14	1.343517e+04	7.264290e+03	3.095550e+03	0	1.255015e-03
3.200000e+08	4.364394e+13	0.000000e+00	4.797689e-01	7.298253e+14	2.066631e+14	4.592669e+14	1.339623e+04	7.285416e+03	3.104552e+03	0	1.246555e-03
3.300000e+08	4.276696e+13	0.000000e+00	4.797689e-01	7.194557e+14	2.106219e+14	4.568811e+14	1.335784e+04	7.306183e+03	3.113401e+03	0	1.238149e-03
3.400000e+08	4.190719e+13	0.000000e+00	4.797689e-01	7.092855e+14	2.145691e+14	4.545126e+14	1.331999e+04	7.326595e+03	3.122100e+03	0	1.229796e-03
3.500000e+08	4.106420e+13	0.000000e+00	4.797689e-01	6.993101e+14	2.185032e+14	4.521614e+14	1.328268e+04	7.346658e+03	3.130649e+03	0	1.221494e-03
3.600000e+08	4.023759e+13	0.000000e+00	4.797689e-01	6.895248e+14	2.224230e+14	4.498272e+14	1.324588e+04	7.366377e+03	3.139052e+03	0	1.213242e-03
3.700000e+08	3.942698e+13	0.000000e+00	4.797689e-01	6.799251e+14	2.263269e+14	4.475099e+14	1.320960e+04	7.385755e+03	3.147310e+03	0	1.205040e-03
3.800000e+08	3.863199e+13	0.000000e+00	4.797689e-01	6.705067e+14	2.302138e+14	4.452093e+14	1.317383e+04	7.404799e+03	3.155425e+03	0	1.196886e-03
3.900000e+08	3.785226e+13	0.000000e+00	4.797689e-01	6.612655e+14	2.340823e+14	4.429254e+14	1.313854e+04	7.423512e+03	3.163399e+03	0	1.188778e-03
4.000000e+08	3.708742e+13	0.000000e+00	4.797689e-01	6.521973e+14	2.379312e+14	4.406580e+14	1.310374e+04	7.441899e+03	3.171234e+03	0	1.180717e-03
4.100000e+08	3.633714e+13	0.000000e+00	4.797689e-01	6.432982e+14	2.417593e+14	4.384070e+14	1.306942e+04	7.459964e+03	3.178933e+03	0	1.172701e-03
4.200000e+08	3.560108e+13	0.000000e+00	4.797689e-01	6.345644e+14	2.455655e+14	4.361721e+14	1.303556e+04	7.477713e+03	3.186496e+03	0	1.164728e-03
4.300000e+08	3.487892e+13	0.000000e+00	4.797689e-01	6.259921e+14	2.493485e+14	4.339534e+14	1.300216e+04	7.495148e+03	3.193925e+03	0	1.156799e-03
4.400000e+08	3.417035e+13	0.000000e+00	4.797689e-01	6.175777e+14	2.531074e+14	4.317506e+14	1.296921e+04	7.512274e+03	3.201224e+03	0	1.148912e-03
4.500000e+08	3.347505e+13	0.000000e+00	4.797689e-01	6.093178e+14	2.568411e+14	4.295637e+14	1.293670e+04	7.529097e+03	3.208392e+03	0	1.141066e-03
4.600000e+08	3.279274e+13	0.000000e+00	4.797689e-01	6.012088e+14	2.605485e+14	4.273924e+14	1.290462e+04	7.545619e+03	3.215433e+03	0	1.133260e-03
4.700000e+08	3.212312e+13	0.000000e+00	4.797689e-01	5.932475e+14	2.642287e+14	4.252367e+14	1.287297e+04	7.561844e+03	3.222347e+03	0	1.125493e-03
4.800000e+08	3.146592e+13	0.000000e+00	4.797689e-01	5.854307e+14	2.678808e+14	4.230965e+14	1.284174e+04	7.577778e+03	3.229137e+03	0	1.117765e-03
4.900000e+08	3.082086e+13	0.000000e+00	4.797689e-01	5.777551e+14	2.715039e+14	4.209716e+14	1.281091e+04	7.593423e+03	3.235804e+03	0	1.110074e-03
5.000000e+08	3.018767e+13	0.000000e+00	4.797689e-01	5.702178e+14	2.750970e+14	4.188619e+14	1.278049e+04	7.608785e+03	3.242350e+03	0	1.102419e-03
5.100000e+08	2.956611e+13	0.000000e+00	4.797689e-01	5.628158e+14	2.786594e+14	4.167672e+14	1.275046e+04	7.623866e+03	3.248776e+03	0	1.094800e-03
5.200000e+08	2.895591e+13	0.000000e+00	4.797689e-01	5.555462e+14	2.821903e+14	4.146875e+14	1.272083e+04	7.638670e+03	3.255085e+03	0	1.087216e-03
5.300000e+08	2.835684e+13	0.000000e+00	4.797689e-01	5.484061e+14	2.856890e+14	4.126227e+14	1.269157e+04	7.653202e+03	3.261277e+03	0	1.079666e-03
5.400000e+08	2.776865e+13	0.000000e+00	4.797689e-01	5.413929e+14	2.891546e+14	4.105725e+14	1.266269e+04	7.667465e+03	3.267355e+03	0	1.072149e-03
5.500000e+08	2.719112e+13	0.000000e+00	4.797689e-01	5.345038e+14	2.925865e+14	4.085370e+14	1.263417e+04	7.681463e+03	3.273320e+03	0	1.064664e-03
5.600000e+08	2.662402e+13	0.000000e+00	4.797689e-01	5.277363e+14	2.959841e+14	4.065159e+14	1.260602e+04	7.695199e+03	3.279174e+03	0	1.057210e-03
5.700000e+08	2.606712e+13	0.000000e+00	4.797689e-01	5.210878e+14	2.993468e+14	4.045091e+14	1.257822e+04	7.708678e+03	3.284917e+03	0	1.049787e-03
5.800000e+08	2.552023e+13	0.000000e+00	4.797689e-01	5.145559e+14	3.026740e+14	4.025166e+14	1.255077e+04	7.721902e+03	3.290553e+03	0	1.042394e-03
5.900000e+08	2.498312e+13	0.000000e+00	4.797689e-01	5.081381e+14	3.059651e+14	4.005382e+14	1.252367e+04	7.734875e+03	3.296081e+03	0	1.035029e-03
6.000000e+08	2.445559e+13	0.000000e+00	4.797689e-01	5.018320e+14	3.092194e+14	3.985739e+14	1.249690e+04	7.747601e+03	3.301504e+03	0	1.027692e-03
6.100000e+08	2.393745e+13	0.000000e+00	4.797689e-01	4.956355e+14	3.124368e+14	3.966234e+14	1.247046e+04	7.760083e+03	3.306823e+03	0	1.020382e-03
6.200000e+08	2.342851e+13	0.000000e+00	4.797689e-01	4.895462e+14	3.156166e+14	3.946867e+14	1.244435e+04	7.772325e+03	3.312039e+03	0	1.013099e-03
6.300000e+08	2.292856e+13	0.000000e+00	4.797689e-01	4.835620e+14	3.187585e+14	3.927637e+14	1.241855e+04	7.784329e+03	3.317155e+03	0	1.005841e-03
6.400000e+08	2.243744e+13	0.000000e+00	4.797689e-01	4.776807e+14	3.218619e+14	3.908542e+14	1.239307e+04	7.796100e+03	3.322171e+03	0	9.986071e-04
6.500000e+08	2.195495e+13	0.000000e+00	4.797689e-01	4.719003e+14	3.249267e+14	3.889582e+14	1.236790e+04	7.807640e+03	3.327089e+03	0	9.913973e-04
6.600000e+08	2.148093e+13	0.000000e+00	4.797689e-01	4.662187e+14	3.279523e+14	3.870755e+14	1.234304e+04	7.818953e+03	3.331909e+03	0	9.842104e-04
6.700000e+08	2.101521e+13	0.000000e+00	4.797689e-01	4.606340e+14	3.309386e+14	3.852061e+14	1.231847e+04	7.830042e+03	3.336635e+03	0	9.770455e-04
6.800000e+08	2.055760e+13	0.000000e+00	4.797689e-01	4.551442e+14	3.338852e+14	3.833498e+14	1.229419e+04	7.840911e+03	3.341266e+03	0	9.699018e-04
6.900000e+08	2.010797e+13	0.000000e+00	4.797689e-01	4.497475e+14	3.367919e+14	3.815065e+14	1.227021e+04	7.851561e+03	3.345805e+03	0	9.627783e-04
7.000000e+08	1.966613e+13	0.000000e+00	4.797689e-01	4.444419e+14	3.396585e+14	3.796761e+14	1.224650e+04	7.861997e+03	3.350252e+03	0	9.556743e-04
7.100000e+08	1.923195e+13	0.000000e+00	4.797689e-01	4.392258e+14	3.424846e+14	3.778586e+14	1.222308e+04	7.872221e+03	3.354609e+03	0	9.485888e-04
7.200000e+08	1.880526e+13	0.000000e+00	4.797689e-01	4.340972e+14	3.452703e+14	3.760537e+14	1.219993e+04	7.882237e+03	3.358877e+03	0	9.415210e-04
7.300000e+08	1.838591e+13	0.000000e+00	4.797689e-01	4.290546e+14	3.480153e+14	3.742615e+14	1.217705e+04	7.892047e+03	3.363057e+03	0	9.344699e-04
7.400000e+08	1.797377e+13	0.000000e+00	4.797689e-01	4.240962e+14	3.507194e+14	3.724818e+14	1.215443e+04	7.901655e+03	3.367151e+03	0	9.274347e-04
7.500000e+08	1.756869e+13	0.000000e+00	4.797689e-01	4.192204e+14	3.533826e+14	3.707145e+14	1.213208e+04	7.911063e+03	3.371160e+03	0	9.204144e-04
7.600000e+08	1.717054e+13	0.000000e+00	4.797689e-01	4.144255e+14	3.560048e+14	3.689595e+14	1.210998e+04	7.920274e+03	3.375086e+03	0	9.134081e-04
7.700000e+08	1.677917e+13	0.000000e+00	4.797689e-01	4.097101e+14	3.585859e+14	3.672167e+14	1.208813e+04	7.929292e+03	3.378928e+03	0	9.064149e-04
7.800000e+08	1.639445e+13	0.000000e+00	4.797689e-01	4.050725e+14	3.611260e+14	3.654860e+14	1.206653e+04	7.938118e+03	3.382689e+03	0	8.994337e-04
7.900000e+08	1.601625e+13	0.000000e+00	4.797689e-01	4.005113e+14	3.636248e+14	3.637674e+14	1.204517e+04	7.946756e+03	3.386370e+03	0	8.924637e-04
8.000000e+08	1.564446e+13	0.000000e+00	4.797689e-01	3.960249e+14	3.660825e+14	3.620607e+14	1.202406e+04	7.955208e+03	3.389972e+03	0	8.855037e-04
8.100000e+08	1.527893e+13	0.000000e+00	4.797689e-01	3.916121e+14	3.684991e+14	3.603657e+14	1.200318e+04	7.963477e+03	3.393496e+03	0	8.785529e-04
8.200000e+08	1.491956e+13	0.000000e+00	4.797689e-01	3.872713e+14	3.708745e+14	3.586826e+14	1.198253e+04	7.971566e+03	3.396943e+03	0	8.716101e-04
8.300000e+08	1.456622e+13	0.000000e+00	4.797689e-01	3.830011e+14	3.732090e+14	3.570110e+14	1.196211e+04	7.979478e+03	3.400314e+03	0	8.646743e-04
8.400000e+08	1.421880e+13	0.000000e+00	4.797689e-01	3.788003e+14	3.755025e+14	3.553510e+14	1.194191e+04	7.987215e+03	3.403611e+03	0	8.577445e-04
8.500000e+08	1.387719e+13	0.000000e+00	4.797689e-01	3.746675e+14	3.777551e+14	3.537025e+14	1.192194e+04	7.994779e+03	3.406834e+03	0	8.508194e-04
8.600000e+08	1.354126e+13	0.000000e+00	4.797689e-01	3.706014e+14	3.799668e+14	3.520653e+14	1.190218e+04	8.002173e+03	3.409985e+03	0	8.438980e-04
8.700000e+08	1.321092e+13	0.000000e+00	4.797689e-01	3.666007e+14	3.821380e+14	3.504394e+14	1.188263e+04	8.009400e+03	3.413065e+03	0	8.369791e-04
8.800000e+08	1.288606e+13	0.000000e+00	4.797689e-01	3.626643e+14	3.842685e+14	3.488247e+14	1.186330e+04	8.016463e+03	3.416075e+03	0	8.300616e-04
8.900000e+08	1.256657e+13	0.000000e+00	4.797689e-01	3.587909e+14	3.863587e+14	3.472211e+14	1.184417e+04	8.023363e+03	3.419015e+03	0	8.231441e-04
9.000000e+08	1.225236e+13	0.000000e+00	4.797689e-01	3.549793e+14	3.884087e+14	3.456284e+14	1.182525e+04	8.030103e+03	3.421887e+03	0	8.162254e-04
9.100000e+08	1.194331e+13	0.000000e+00	4.797689e-01	3.512284e+14	3.904186e+14	3.440467e+14	1.180653e+04	8.036685e+03	3.424692e+03	0	8.093042e-04
9.200000e+08	1.163934e+13	0.000000e+00	4.797689e-01	3.475371e+14	3.923887e+14	3.424759e+14	1.178800e+04	8.043112e+03	3.427431e+03	0	8.023792e-04
9.300000e+08	1.134035e+13	0.000000e+00	4.797689e-01	3.439041e+14	3.943191e+14	3.409157e+14	1.176967e+04	8.049387e+03	3.430105e+03	0	7.954490e-04
9.400000e+08	1.104624e+13	0.000000e+00	4.797689e-01	3.403285e+14	3.962099e+14	3.393663e+14	1.175153e+04	8.055511e+03	3.432714e+03	0	7.885121e-04
9.500000e+08	1.075692e+13	0.000000e+00	4.797689e-01	3.368092e+14	3.980616e+14	3.378274e+14	1.173358e+04	8.061486e+03	3.435261e+03	0	7.815671e-04
9.600000e+08	1.047231e+13	0.000000e+00	4.797689e-01	3.333450e+14	3.998743e+14	3.362990e+14	1.171582e+04	8.067316e+03	3.437745e+03	0	7.746124e-04
9.700000e+08	1.019232e+13	0.000000e+00	4.797689e-01	3.299351e+14	4.016482e+14	3.347810e+14	1.169823e+04	8.073002e+03	3.440168e+03	0	7.676464e-04
9.800000e+08	9.916848e+12	0.000000e+00	4.797689e-01	3.265784e+14	4.033837e+14	3.332733e+14	1.168083e+04	8.078546e+03	3.442530e+03	0	7.606674e-04
9.900000e+08	9.645826e+12	0.000000e+00	4.797689e-01	3.232739e+14	4.050808e+14	3.317759e+14	1.166360e+04	8.083951e+03	3.444834e+03	0	7.536737e-04
1.000000e+09	9.379166e+12	0.000000e+00	4.797689e-01	3.200207e+14	4.067400e+14	3.302887e+14	1.164654e+04	8.089219e+03	3.447078e+03	0	7.466636e-04
1.010000e+09	9.116787e+12	0.000000e+00	4.797689e-01	3.168178e+14	4.083615e+14	3.288115e+14	1.162966e+04	8.094351e+03	3.449265e+03	0	7.396351e-04
1.020000e+09	8.858609e+12	0.000000e+00	4.797689e-01	3.136643e+14	4.099455e+14	3.273444e+14	1.161294e+04	8.099350e+03	3.451396e+03	0	7.325862e-04
1.030000e+09	8.604556e+12	0.000000e+00	4.797689e-01	3.105593e+14	4.114925e+14	3.258872e+14	1.159639e+04	8.104218e+03	3.453470e+03	0	7.255150e-04
1.040000e+09	8.354551e+12	0.000000e+00	4.797689e-01	3.075019e+14	4.130027e+14	3.244398e+14	1.158001e+04	8.108957e+03	3.455490e+03	0	7.184192e-04
1.050000e+09	8.108520e+12	0.000000e+00	4.797689e-01	3.044912e+14	4.144764e+14	3.230022e+14	1.156378e+04	8.113569e+03	3.457455e+03	0	7.112967e-04
1.060000e+09	7.866389e+12	0.000000e+00	4.797689e-01	3.015264e+14	4.159137e+14	3.215743e+14	1.154772e+04	8.118056e+03	3.459367e+03	0	7.041449e-04
1.070000e+09	7.628086e+12	0.000000e+00	4.797689e-01	2.986067e+14	4.173154e+14	3.201560e+14	1.153181e+04	8.122420e+03	3.461226e+03	0	6.969615e-04
1.080000e+09	7.393543e+12	0.000000e+00	4.797689e-01	2.957312e+14	4.186813e+14	3.187473e+14	1.151605e+04	8.126662e+03	3.463034e+03	0	6.897437e-04
1.090000e+09	7.162689e+12	0.000000e+00	4.797689e-01	2.928992e+14	4.200121e+14	3.173480e+14	1.150045e+04	8.130786e+03	3.464791e+03	0	6.824889e-04
1.100000e+09	6.935458e+12	0.000000e+00	4.797689e-01	2.901098e+14	4.213080e+14	3.159581e+14	1.148499e+04	8.134791e+03	3.466498e+03	0	6.751941e-04
1.110000e+09	6.711783e+12	0.000000e+00	4.797689e-01	2.873623e+14	4.225694e+14	3.145775e+14	1.146968e+04	8.138681e+03	3.468156e+03	0	6.678561e-04
1.120000e+09	6.491600e+12	0.000000e+00	4.797689e-01	2.846559e+14	4.237965e+14	3.132062e+14	1.145452e+04	8.142457e+03	3.469765e+03	0	6.604716e-04
1.130000e+09	6.274846e+12	0.000000e+00	4.797689e-01	2.819900e+14	4.249898e+14	3.118441e+14	1.143949e+04	8.146122e+03	3.471327e+03	0	6.530372e-04
1.140000e+09	6.061457e+12	0.000000e+00	4.797689e-01	2.793637e+14	4.261495e+14	3.104911e+14	1.142461e+04	8.149676e+03	3.472841e+03	0	6.455491e-04
1.150000e+09	5.851374e+12	0.000000e+00	4.797689e-01	2.767764e+14	4.272762e+14	3.091471e+14	1.140987e+04	8.153121e+03	3.474309e+03	0	6.380032e-04
1.160000e+09	5.644537e+12	0.000000e+00	4.797689e-01	2.742273e+14	4.283700e+14	3.078121e+14	1.139526e+04	8.156459e+03	3.475732e+03	0	6.303954e-04
1.170000e+09	5.440886e+12	0.000000e+00	4.797689e-01	2.717158e+14	4.294313e+14	3.064859e+14	1.138079e+04	8.159693e+03	3.477110e+03	0	6.227209e-04
1.180000e+09	5.240365e+12	0.000000e+00	4.797689e-01	2.692413e+14	4.304606e+14	3.051686e+14	1.136645e+04	8.162823e+03	3.478443e+03	0	6.149750e-04
1.190000e+09	5.042918e+12	0.000000e+00	4.797689e-01	2.668030e+14	4.314581e+14	3.038601e+14	1.135223e+04	8.165851e+03	3.479734e+03	0	6.071522e-04
1.200000e+09	4.848489e+12	0.000000e+00	4.797689e-01	2.644003e+14	4.324243e+14	3.025602e+14	1.133815e+04	8.168779e+03	3.480982e+03	0	5.992468e-04
1.210000e+09	4.657024e+12	0.000000e+00	4.797689e-01	2.620326e+14	4.333595e+14	3.012690e+14	1.132420e+04	8.171608e+03	3.482187e+03	0	5.912526e-04
1.220000e+09	4.468470e+12	0.000000e+00	4.797689e-01	2.596993e+14	4.342641e+14	2.999863e+14	1.131036e+04	8.174341e+03	3.483352e+03	0	5.831628e-04
1.230000e+09	4.282775e+12	0.000000e+00	4.797689e-01	2.573997e+14	4.351384e+14	2.987121e+14	1.129666e+04	8.176978e+03	3.484475e+03	0	5.749702e-04
1.240000e+09	4.099888e+12	0.000000e+00	4.797689e-01	2.551334e+14	4.359828e+14	2.974463e+14	1.128307e+04	8.179521e+03	3.485559e+03	0	5.666666e-04
1.250000e+09	3.919760e+12	0.000000e+00	4.797689e-01	2.528996e+14	4.367977e+14	2.961889e+14	1.126960e+04	8.181971e+03	3.486603e+03	0	5.582431e-04
1.260000e+09	3.742341e+12	0.000000e+00	4.797689e-01	2.506978e+14	4.375834e+14	2.949398e+14	1.125625e+04	8.184331e+03	3.487609e+03	0	5.496902e-04
1.270000e+09	3.567583e+12	0.000000e+00	4.797689e-01	2.485275e+14	4.383404e+14	2.936989e+14	1.124302e+04	8.186601e+03	3.488576e+03	0	5.409971e-04
1.280000e+09	3.395439e+12	0.000000e+00	4.797689e-01	2.463881e+14	4.390689e+14	2.924661e+14	1.122990e+04	8.188783e+03	3.489506e+03	0	5.321518e-04
1.290000e+09	3.225864e+12	0.000000e+00	4.797689e-01	2.442790e+14	4.397693e+14	2.912415e+14	1.121689e+04	8.190879e+03	3.490399e+03	0	5.231412e-04
1.300000e+09	3.058810e+12	0.000000e+00	4.797689e-01	2.421998e+14	4.404421e+14	2.900249e+14	1.120399e+04	8.192889e+03	3.491256e+03	0	5.139503e-04
1.310000e+09	2.894236e+12	0.000000e+00	4.797689e-01	2.401499e+14	4.410875e+14	2.888162e+14	1.119121e+04	8.194816e+03	3.492077e+03	0	5.045624e-04
1.320000e+09	2.732096e+12	0.000000e+00	4.797689e-01	2.381289e+14	4.417060e+14	2.876155e+14	1.117853e+04	8.196660e+03	3.492863e+03	0	4.949586e-04
1.330000e+09	2.572347e+12	0.000000e+00	4.797689e-01	2.361361e+14	4.422980e+14	2.864227e+14	1.116595e+04	8.198423e+03	3.493614e+03	0	4.851173e-04
1.340000e+09	2.414949e+12	0.000000e+00	4.797689e-01	2.341712e+14	4.428636e+14	2.852376e+14	1.115349e+04	8.200107e+03	3.494331e+03	0	4.750138e-04
1.350000e+09	2.259860e+12	0.000000e+00	4.797689e-01	2.322336e+14	4.434035e+14	2.840603e+14	1.114112e+04	8.201712e+03	3.495015e+03	0	4.646195e-04
1.360000e+09	2.107040e+12	0.000000e+00	4.797689e-01	2.303229e+14	4.439179e+14	2.828906e+14	1.112886e+04	8.203240e+03	3.495666e+03	0	4.539010e-04
