#t		Qconv[W]	Ri[Rp]		R*[Rp]		Qc[W]		Qm[W]		Qr[W]		Tcmb[K]		Tl[K]		Tup[K]		RiFlag		Bs[T]
0.000000e+00	9.068477e+13	0.000000e+00	4.797687e-01	1.288886e+15	8.188730e+13	5.706225e+14	1.547984e+04	6.550458e+03	2.750295e+03	0	1.588440e-03
1.000000e+07	8.881527e+13	0.000000e+00	4.797687e-01	1.267572e+15	8.523320e+13	5.674609e+14	1.541609e+04	6.586655e+03	2.765492e+03	0	1.577449e-03
2.000000e+07	8.698938e+13	0.000000e+00	4.797687e-01	1.246746e+15	8.862914e+13	5.643229e+14	1.535338e+04	6.622285e+03	2.780452e+03	0	1.566564e-03
3.000000e+07	8.520574e+13	0.000000e+00	4.797687e-01	1.226394e+15	9.207326e+13	5.612083e+14	1.529169e+04	6.657356e+03	2.795177e+03	0	1.555783e-03
4.000000e+07	8.346302e+13	0.000000e+00	4.797687e-01	1.206500e+15	9.556370e+13	5.581170e+14	1.523101e+04	6.691877e+03	2.809671e+03	0	1.545103e-03
5.000000e+07	8.175993e+13	0.000000e+00	4.797687e-01	1.187050e+15	9.909859e+13	5.550487e+14	1.517130e+04	6.725858e+03	2.823939e+03	0	1.534522e-03
6.000000e+07	8.009528e+13	0.000000e+00	4.797687e-01	1.168031e+15	1.026760e+14	5.520033e+14	1.511255e+04	6.759308e+03	2.837983e+03	0	1.524036e-03
7.000000e+07	7.846790e+13	0.000000e+00	4.797687e-01	1.149429e+15	1.062940e+14	5.489806e+14	1.505474e+04	6.792234e+03	2.851807e+03	0	1.513643e-03
8.000000e+07	7.687666e+13	0.000000e+00	4.797687e-01	1.131234e+15	1.099508e+14	5.459804e+14	1.499784e+04	6.824646e+03	2.865416e+03	0	1.503342e-03
9.000000e+07	7.532049e+13	0.000000e+00	4.797687e-01	1.113432e+15	1.136443e+14	5.430024e+14	1.494184e+04	6.856550e+03	2.878811e+03	0	1.493129e-03
1.000000e+08	7.379837e+13	0.000000e+00	4.797687e-01	1.096012e+15	1.173726e+14	5.400466e+14	1.488671e+04	6.887954e+03	2.891997e+03	0	1.483002e-03
1.100000e+08	7.230931e+13	0.000000e+00	4.797687e-01	1.078964e+15	1.211339e+14	5.371128e+14	1.483244e+04	6.918867e+03	2.904976e+03	0	1.472960e-03
1.200000e+08	7.085235e+13	0.000000e+00	4.797687e-01	1.062276e+15	1.249261e+14	5.342006e+14	1.477901e+04	6.949296e+03	2.917752e+03	0	1.463000e-03
1.300000e+08	6.942658e+13	0.000000e+00	4.797687e-01	1.045939e+15	1.287474e+14	5.313101e+14	1.472640e+04	6.979247e+03	2.930327e+03	0	1.453120e-03
1.400000e+08	6.803112e+13	0.000000e+00	4.797687e-01	1.029943e+15	1.325958e+14	5.284409e+14	1.467459e+04	7.008728e+03	2.942705e+03	0	1.443318e-03
1.500000e+08	6.666514e+13	0.000000e+00	4.797687e-01	1.014279e+15	1.364693e+14	5.255929e+14	1.462357e+04	7.037745e+03	2.954888e+03	0	1.433593e-03
1.600000e+08	6.532781e+13	0.000000e+00	4.797687e-01	9.989364e+14	1.403662e+14	5.227660e+14	1.457332e+04	7.066306e+03	2.966880e+03	0	1.423942e-03
1.700000e+08	6.401835e+13	0.000000e+00	4.797687e-01	9.839080e+14	1.442845e+14	5.199599e+14	1.452383e+04	7.094417e+03	2.978683e+03	0	1.414363e-03
1.800000e+08	6.273601e+13	0.000000e+00	4.797687e-01	9.691850e+14	1.482223e+14	5.171745e+14	1.447508e+04	7.122083e+03	2.990299e+03	0	1.404856e-03
1.900000e+08	6.148007e+13	0.000000e+00	4.797687e-01	9.547593e+14	1.521777e+14	5.144097e+14	1.442706e+04	7.149313e+03	3.001731e+03	0	1.395418e-03
2.000000e+08	6.024982e+13	0.000000e+00	4.797687e-01	9.406232e+14	1.561489e+14	5.116651e+14	1.437974e+04	7.176111e+03	3.012983e+03	0	1.386047e-03
2.100000e+08	5.904458e+13	0.000000e+00	4.797687e-01	9.267690e+14	1.601341e+14	5.089408e+14	1.433313e+04	7.202484e+03	3.024056e+03	0	1.376743e-03
2.200000e+08	5.786372e+13	0.000000e+00	4.797687e-01	9.131896e+14	1.641314e+14	5.062365e+14	1.428719e+04	7.228437e+03	3.034953e+03	0	1.367503e-03
2.300000e+08	5.670659e+13	0.000000e+00	4.797687e-01	8.998780e+14	1.681391e+14	5.035520e+14	1.424193e+04	7.253977e+03	3.045676e+03	0	1.358326e-03
2.400000e+08	5.557260e+13	0.000000e+00	4.797687e-01	8.868274e+14	1.721553e+14	5.008872e+14	1.419732e+04	7.279108e+03	3.056228e+03	0	1.349211e-03
2.500000e+08	5.446115e+13	0.000000e+00	4.797687e-01	8.740312e+14	1.761784e+14	4.982419e+14	1.415336e+04	7.303838e+03	3.066611e+03	0	1.340155e-03
2.600000e+08	5.337168e+13	0.000000e+00	4.797687e-01	8.614832e+14	1.802066e+14	4.956160e+14	1.411002e+04	7.328170e+03	3.076827e+03	0	1.331159e-03
2.700000e+08	5.230365e+13	0.000000e+00	4.797687e-01	8.491773e+14	1.842382e+14	4.930092e+14	1.406731e+04	7.352111e+03	3.086879e+03	0	1.322219e-03
2.800000e+08	5.125652e+13	0.000000e+00	4.797687e-01	8.371075e+14	1.882716e+14	4.904215e+14	1.402520e+04	7.375666e+03	3.096769e+03	0	1.313336e-03
2.900000e+08	5.022979e+13	0.000000e+00	4.797687e-01	8.252682e+14	1.923050e+14	4.878527e+14	1.398369e+04	7.398839e+03	3.106498e+03	0	1.304508e-03
3.000000e+08	4.922295e+13	0.000000e+00	4.797687e-01	8.136538e+14	1.963370e+14	4.853027e+14	1.394276e+04	7.421636e+03	3.116070e+03	0	1.295733e-03
3.100000e+08	4.823554e+13	0.000000e+00	4.797687e-01	8.022590e+14	2.003659e+14	4.827712e+14	1.390241e+04	7.444063e+03	3.125486e+03	0	1.287010e-03
3.200000e+08	4.726708e+13	0.000000e+00	4.797687e-01	7.910785e+14	2.043902e+14	4.802581e+14	1.386262e+04	7.466123e+03	3.134748e+03	0	1.278338e-03
3.300000e+08	4.631714e+13	0.000000e+00	4.797687e-01	7.801075e+14	2.084083e+14	4.777633e+14	1.382338e+04	7.487822e+03	3.143859e+03	0	1.269716e-03
3.400000e+08	4.538526e+13	0.000000e+00	4.797687e-01	7.693410e+14	2.124188e+14	4.752866e+14	1.378468e+04	7.509165e+03	3.152820e+03	0	1.261143e-03
3.500000e+08	4.447104e+13	0.000000e+00	4.797687e-01	7.587743e+14	2.164202e+14	4.728279e+14	1.374651e+04	7.530156e+03	3.161634e+03	0	1.252618e-03
3.600000e+08	4.357407e+13	0.000000e+00	4.797687e-01	7.484028e+14	2.204110e+14	4.703870e+14	1.370887e+04	7.550800e+03	3.170301e+03	0	1.244139e-03
3.700000e+08	4.269394e+13	0.000000e+00	4.797687e-01	7.382222e+14	2.243900e+14	4.679638e+14	1.367174e+04	7.571102e+03	3.178825e+03	0	1.235705e-03
3.800000e+08	4.183028e+13	0.000000e+00	4.797687e-01	7.282280e+14	2.283557e+14	4.655581e+14	1.363511e+04	7.591066e+03	3.187207e+03	0	1.227316e-03
3.900000e+08	4.098271e+13	0.000000e+00	4.797687e-01	7.184161e+14	2.323068e+14	4.631698e+14	1.359897e+04	7.610696e+03	3.195449e+03	0	1.218970e-03
4.000000e+08	4.015087e+13	0.000000e+00	4.797687e-01	7.087826e+14	2.362421e+14	4.607987e+14	1.356332e+04	7.629997e+03	3.203553e+03	0	1.210666e-03
4.100000e+08	3.933440e+13	0.000000e+00	4.797687e-01	6.993233e+14	2.401603e+14	4.584448e+14	1.352815e+04	7.648973e+03	3.211520e+03	0	1.202404e-03
4.200000e+08	3.853298e+13	0.000000e+00	4.797687e-01	6.900346e+14	2.440601e+14	4.561078e+14	1.349344e+04	7.667628e+03	3.219353e+03	0	1.194182e-03
4.300000e+08	3.774626e+13	0.000000e+00	4.797687e-01	6.809126e+14	2.479405e+14	4.537876e+14	1.345919e+04	7.685967e+03	3.227053e+03	0	1.185998e-03
4.400000e+08	3.697392e+13	0.000000e+00	4.797687e-01	6.719538e+14	2.518002e+14	4.514842e+14	1.342540e+04	7.703994e+03	3.234622e+03	0	1.177854e-03
4.500000e+08	3.621566e+13	0.000000e+00	4.797687e-01	6.631547e+14	2.556381e+14	4.491973e+14	1.339204e+04	7.721713e+03	3.242061e+03	0	1.169746e-03
4.600000e+08	3.547116e+13	0.000000e+00	4.797687e-01	6.545118e+14	2.594532e+14	4.469268e+14	1.335912e+04	7.739128e+03	3.249373e+03	0	1.161675e-03
4.700000e+08	3.474013e+13	0.000000e+00	4.797687e-01	6.460218e+14	2.632445e+14	4.446726e+14	1.332663e+04	7.756243e+03	3.256559e+03	0	1.153639e-03
4.800000e+08	3.402228e+13	0.000000e+00	4.797687e-01	6.376815e+14	2.670108e+14	4.424345e+14	1.329456e+04	7.773061e+03	3.263620e+03	0	1.145638e-03
4.900000e+08	3.331734e+13	0.000000e+00	4.797687e-01	6.294878e+14	2.707514e+14	4.402125e+14	1.326290e+04	7.789588e+03	3.270559e+03	0	1.137670e-03
5.000000e+08	3.262502e+13	0.000000e+00	4.797687e-01	6.214374e+14	2.744651e+14	4.380064e+14	1.323164e+04	7.805826e+03	3.277377e+03	0	1.129735e-03
5.100000e+08	3.194507e+13	0.000000e+00	4.797687e-01	6.135276e+14	2.781512e+14	4.358160e+14	1.320079e+04	7.821779e+03	3.284075e+03	0	1.121831e-03
5.200000e+08	3.127723e+13	0.000000e+00	4.797687e-01	6.057553e+14	2.818087e+14	4.336412e+14	1.317032e+04	7.837452e+03	3.290656e+03	0	1.113958e-03
5.300000e+08	3.062123e+13	0.000000e+00	4.797687e-01	5.981178e+14	2.854368e+14	4.314820e+14	1.314024e+04	7.852848e+03	3.297120e+03	0	1.106115e-03
5.400000e+08	2.997685e+13	0.000000e+00	4.797687e-01	5.906122e+14	2.890348e+14	4.293381e+14	1.311054e+04	7.867970e+03	3.303469e+03	0	1.098301e-03
5.500000e+08	2.934383e+13	0.000000e+00	4.797687e-01	5.832358e+14	2.926018e+14	4.272095e+14	1.308120e+04	7.882823e+03	3.309705e+03	0	1.090515e-03
5.600000e+08	2.872195e+13	0.000000e+00	4.797687e-01	5.759862e+14	2.961372e+14	4.250961e+14	1.305224e+04	7.897409e+03	3.315829e+03	0	1.082756e-03
5.700000e+08	2.811097e+13	0.000000e+00	4.797687e-01	5.688606e+14	2.996403e+14	4.229976e+14	1.302363e+04	7.911733e+03	3.321843e+03	0	1.075024e-03
5.800000e+08	2.751069e+13	0.000000e+00	4.797687e-01	5.618566e+14	3.031102e+14	4.209140e+14	1.299537e+04	7.925797e+03	3.327748e+03	0	1.067317e-03
5.900000e+08	2.692087e+13	0.000000e+00	4.797687e-01	5.549717e+14	3.065466e+14	4.188452e+14	1.296747e+04	7.939606e+03	3.333546e+03	0	1.059634e-03
6.000000e+08	2.634131e+13	0.000000e+00	4.797687e-01	5.482037e+14	3.099487e+14	4.167911e+14	1.293990e+04	7.953163e+03	3.339238e+03	0	1.051975e-03
6.100000e+08	2.577180e+13	0.000000e+00	4.797687e-01	5.415500e+14	3.133160e+14	4.147514e+14	1.291266e+04	7.966470e+03	3.344826e+03	0	1.044338e-03
6.200000e+08	2.521215e+13	0.000000e+00	4.797687e-01	5.350086e+14	3.166479e+14	4.127262e+14	1.288576e+04	7.979532e+03	3.350310e+03	0	1.036723e-03
6.300000e+08	2.466215e+13	0.000000e+00	4.797687e-01	5.285771e+14	3.199440e+14	4.107153e+14	1.285918e+04	7.992352e+03	3.355693e+03	0	1.029129e-03
6.400000e+08	2.412162e+13	0.000000e+00	4.797687e-01	5.222535e+14	3.232036e+14	4.087186e+14	1.283292e+04	8.004933e+03	3.360975e+03	0	1.021555e-03
6.500000e+08	2.359036e+13	0.000000e+00	4.797687e-01	5.160355e+14	3.264265e+14	4.067359e+14	1.280697e+04	8.017279e+03	3.366158e+03	0	1.013999e-03
6.600000e+08	2.306820e+13	0.000000e+00	4.797687e-01	5.099212e+14	3.296122e+14	4.047672e+14	1.278133e+04	8.029391e+03	3.371244e+03	0	1.006462e-03
6.700000e+08	2.255496e+13	0.000000e+00	4.797687e-01	5.039086e+14	3.327602e+14	4.028123e+14	1.275599e+04	8.041275e+03	3.376233e+03	0	9.989417e-04
6.800000e+08	2.205046e+13	0.000000e+00	4.797687e-01	4.979956e+14	3.358703e+14	4.008711e+14	1.273095e+04	8.052932e+03	3.381128e+03	0	9.914375e-04
6.900000e+08	2.155453e+13	0.000000e+00	4.797687e-01	4.921803e+14	3.389420e+14	3.989436e+14	1.270621e+04	8.064366e+03	3.385928e+03	0	9.839484e-04
7.000000e+08	2.106700e+13	0.000000e+00	4.797687e-01	4.864609e+14	3.419752e+14	3.970296e+14	1.268175e+04	8.075580e+03	3.390637e+03	0	9.764734e-04
7.100000e+08	2.058772e+13	0.000000e+00	4.797687e-01	4.808355e+14	3.449694e+14	3.951290e+14	1.265757e+04	8.086577e+03	3.395254e+03	0	9.690115e-04
7.200000e+08	2.011653e+13	0.000000e+00	4.797687e-01	4.753023e+14	3.479245e+14	3.932416e+14	1.263367e+04	8.097360e+03	3.399781e+03	0	9.615617e-04
7.300000e+08	1.965326e+13	0.000000e+00	4.797687e-01	4.698596e+14	3.508401e+14	3.913675e+14	1.261005e+04	8.107932e+03	3.404220e+03	0	9.541229e-04
7.400000e+08	1.919777e+13	0.000000e+00	4.797687e-01	4.645057e+14	3.537161e+14	3.895064e+14	1.258670e+04	8.118295e+03	3.408571e+03	0	9.466942e-04
7.500000e+08	1.874990e+13	0.000000e+00	4.797687e-01	4.592388e+14	3.565524e+14	3.876584e+14	1.256361e+04	8.128453e+03	3.412836e+03	0	9.392744e-04
7.600000e+08	1.830952e+13	0.000000e+00	4.797687e-01	4.540574e+14	3.593486e+14	3.858232e+14	1.254078e+04	8.138409e+03	3.417016e+03	0	9.318625e-04
7.700000e+08	1.787648e+13	0.000000e+00	4.797687e-01	4.489597e+14	3.621048e+14	3.840007e+14	1.251821e+04	8.148165e+03	3.421112e+03	0	9.244572e-04
7.800000e+08	1.745064e+13	0.000000e+00	4.797687e-01	4.439443e+14	3.648207e+14	3.821909e+14	1.249590e+04	8.157724e+03	3.425126e+03	0	9.170576e-04
7.900000e+08	1.703186e+13	0.000000e+00	4.797687e-01	4.390096e+14	3.674963e+14	3.803937e+14	1.247383e+04	8.167089e+03	3.429058e+03	0	9.096623e-04
8.000000e+08	1.662002e+13	0.000000e+00	4.797687e-01	4.341541e+14	3.701316e+14	3.786090e+14	1.245200e+04	8.176263e+03	3.432910e+03	0	9.022703e-04
8.100000e+08	1.621497e+13	0.000000e+00	4.797687e-01	4.293763e+14	3.727263e+14	3.768366e+14	1.243042e+04	8.185248e+03	3.436682e+03	0	8.948802e-04
8.200000e+08	1.581660e+13	0.000000e+00	4.797687e-01	4.246748e+14	3.752806e+14	3.750765e+14	1.240907e+04	8.194047e+03	3.440377e+03	0	8.874908e-04
8.300000e+08	1.542478e+13	0.000000e+00	4.797687e-01	4.200481e+14	3.777943e+14	3.733286e+14	1.238796e+04	8.202663e+03	3.443994e+03	0	8.801009e-04
8.400000e+08	1.503938e+13	0.000000e+00	4.797687e-01	4.154949e+14	3.802676e+14	3.715927e+14	1.236707e+04	8.211098e+03	3.447536e+03	0	8.727090e-04
8.500000e+08	1.466029e+13	0.000000e+00	4.797687e-01	4.110138e+14	3.827003e+14	3.698688e+14	1.234641e+04	8.219354e+03	3.451002e+03	0	8.653139e-04
8.600000e+08	1.428739e+13	0.000000e+00	4.797687e-01	4.066035e+14	3.850925e+14	3.681568e+14	1.232598e+04	8.227435e+03	3.454395e+03	0	8.579140e-04
8.700000e+08	1.392056e+13	0.000000e+00	4.797687e-01	4.022627e+14	3.874444e+14	3.664566e+14	1.230576e+04	8.235343e+03	3.457715e+03	0	8.505079e-04
8.800000e+08	1.355969e+13	0.000000e+00	4.797687e-01	3.979900e+14	3.897560e+14	3.647681e+14	1.228575e+04	8.243080e+03	3.460964e+03	0	8.430942e-04
8.900000e+08	1.320467e+13	0.000000e+00	4.797687e-01	3.937844e+14	3.920272e+14	3.630911e+14	1.226596e+04	8.250649e+03	3.464142e+03	0	8.356711e-04
9.000000e+08	1.285540e+13	0.000000e+00	4.797687e-01	3.896445e+14	3.942583e+14	3.614257e+14	1.224638e+04	8.258052e+03	3.467250e+03	0	8.282371e-04
9.100000e+08	1.251176e+13	0.000000e+00	4.797687e-01	3.855691e+14	3.964493e+14	3.597717e+14	1.222700e+04	8.265292e+03	3.470290e+03	0	8.207905e-04
9.200000e+08	1.217366e+13	0.000000e+00	4.797687e-01	3.815571e+14	3.986004e+14	3.581291e+14	1.220783e+04	8.272371e+03	3.473262e+03	0	8.133296e-04
9.300000e+08	1.184099e+13	0.000000e+00	4.797687e-01	3.776073e+14	4.007119e+14	3.564976e+14	1.218885e+04	8.279290e+03	3.476167e+03	0	8.058524e-04
9.400000e+08	1.151366e+13	0.000000e+00	4.797687e-01	3.737185e+14	4.027836e+14	3.548773e+14	1.217007e+04	8.286054e+03	3.479007e+03	0	7.983572e-04
9.500000e+08	1.119155e+13	0.000000e+00	4.797687e-01	3.698898e+14	4.048158e+14	3.532681e+14	1.215148e+04	8.292663e+03	3.481782e+03	0	7.908418e-04
9.600000e+08	1.087459e+13	0.000000e+00	4.797687e-01	3.661200e+14	4.068088e+14	3.516699e+14	1.213309e+04	8.299121e+03	3.484493e+03	0	7.833042e-04
9.700000e+08	1.056268e+13	0.000000e+00	4.797687e-01	3.624080e+14	4.087627e+14	3.500825e+14	1.211488e+04	8.305429e+03	3.487142e+03	0	7.757423e-04
9.800000e+08	1.025572e+13	0.000000e+00	4.797687e-01	3.587528e+14	4.106777e+14	3.485059e+14	1.209685e+04	8.311589e+03	3.489728e+03	0	7.681538e-04
9.900000e+08	9.953621e+12	0.000000e+00	4.797687e-01	3.551534e+14	4.125540e+14	3.469401e+14	1.207900e+04	8.317604e+03	3.492254e+03	0	7.605361e-04
1.000000e+09	9.656302e+12	0.000000e+00	4.797687e-01	3.516088e+14	4.143919e+14	3.453849e+14	1.206134e+04	8.323476e+03	3.494719e+03	0	7.528870e-04
1.010000e+09	9.363674e+12	0.000000e+00	4.797687e-01	3.481179e+14	4.161915e+14	3.438402e+14	1.204385e+04	8.329207e+03	3.497125e+03	0	7.452036e-04
1.020000e+09	9.075652e+12	0.000000e+00	4.797687e-01	3.446800e+14	4.179532e+14	3.423060e+14	1.202653e+04	8.334799e+03	3.499473e+03	0	7.374831e-04
1.030000e+09	8.792152e+12	0.000000e+00	4.797687e-01	3.412939e+14	4.196770e+14	3.407821e+14	1.200938e+04	8.340254e+03	3.501763e+03	0	7.297228e-04
1.040000e+09	8.513094e+12	0.000000e+00	4.797687e-01	3.379588e+14	4.213635e+14	3.392686e+14	1.199240e+04	8.345574e+03	3.503997e+03	0	7.219193e-04
1.050000e+09	8.238398e+12	0.000000e+00	4.797687e-01	3.346738e+14	4.230127e+14	3.377653e+14	1.197559e+04	8.350761e+03	3.506175e+03	0	7.140694e-04
1.060000e+09	7.967986e+12	0.000000e+00	4.797687e-01	3.314379e+14	4.246249e+14	3.362721e+14	1.195894e+04	8.355818e+03	3.508298e+03	0	7.061696e-04
1.070000e+09	7.701780e+12	0.000000e+00	4.797687e-01	3.282504e+14	4.262005e+14	3.347890e+14	1.194245e+04	8.360746e+03	3.510367e+03	0	6.982161e-04
1.080000e+09	7.439707e+12	0.000000e+00	4.797687e-01	3.251103e+14	4.277397e+14	3.333159e+14	1.192612e+04	8.365546e+03	3.512383e+03	0	6.902050e-04
1.090000e+09	7.181691e+12	0.000000e+00	4.797687e-01	3.220169e+14	4.292428e+14	3.318527e+14	1.190994e+04	8.370222e+03	3.514346e+03	0	6.821320e-04
1.100000e+09	6.927662e+12	0.000000e+00	4.797687e-01	3.189692e+14	4.307101e+14	3.303993e+14	1.189392e+04	8.374775e+03	3.516257e+03	0	6.739925e-04
1.110000e+09	6.677547e+12	0.000000e+00	4.797687e-01	3.159666e+14	4.321419e+14	3.289556e+14	1.187805e+04	8.379206e+03	3.518118e+03	0	6.657816e-04
1.120000e+09	6.431278e+12	0.000000e+00	4.797687e-01	3.130082e+14	4.335386e+14	3.275216e+14	1.186233e+04	8.383518e+03	3.519928e+03	0	6.574942e-04
1.130000e+09	6.188786e+12	0.000000e+00	4.797687e-01	3.100932e+14	4.349004e+14	3.260973e+14	1.184675e+04	8.387712e+03	3.521689e+03	0	6.491245e-04
1.140000e+09	5.950005e+12	0.000000e+00	4.797687e-01	3.072208e+14	4.362276e+14	3.246824e+14	1.183132e+04	8.391790e+03	3.523402e+03	0	6.406664e-04
1.150000e+09	5.714869e+12	0.000000e+00	4.797687e-01	3.043905e+14	4.375206e+14	3.232770e+14	1.181603e+04	8.395754e+03	3.525066e+03	0	6.321133e-04
1.160000e+09	5.483313e+12	0.000000e+00	4.797687e-01	3.016013e+14	4.387797e+14	3.218809e+14	1.180088e+04	8.399606e+03	3.526683e+03	0	6.234579e-04
1.170000e+09	5.255275e+12	0.000000e+00	4.797687e-01	2.988526e+14	4.400052e+14	3.204942e+14	1.178588e+04	8.403347e+03	3.528254e+03	0	6.146926e-04
1.180000e+09	5.030693e+12	0.000000e+00	4.797687e-01	2.961436e+14	4.411975e+14	3.191167e+14	1.177100e+04	8.406980e+03	3.529779e+03	0	6.058086e-04
1.190000e+09	4.809506e+12	0.000000e+00	4.797687e-01	2.934738e+14	4.423569e+14	3.177483e+14	1.175626e+04	8.410505e+03	3.531259e+03	0	5.967965e-04
1.200000e+09	4.591654e+12	0.000000e+00	4.797687e-01	2.908424e+14	4.434838e+14	3.163890e+14	1.174166e+04	8.413924e+03	3.532695e+03	0	5.876461e-04
1.210000e+09	4.377079e+12	0.000000e+00	4.797687e-01	2.882487e+14	4.445785e+14	3.150388e+14	1.172718e+04	8.417240e+03	3.534087e+03	0	5.783459e-04
1.220000e+09	4.165725e+12	0.000000e+00	4.797687e-01	2.856922e+14	4.456411e+14	3.136975e+14	1.171284e+04	8.420453e+03	3.535436e+03	0	5.688831e-04
1.230000e+09	3.957534e+12	0.000000e+00	4.797687e-01	2.831721e+14	4.466724e+14	3.123650e+14	1.169862e+04	8.423565e+03	3.536743e+03	0	5.592436e-04
1.240000e+09	3.752452e+12	0.000000e+00	4.797687e-01	2.806878e+14	4.476725e+14	3.110414e+14	1.168452e+04	8.426578e+03	3.538008e+03	0	5.494116e-04
1.250000e+09	3.550424e+12	0.000000e+00	4.797687e-01	2.782388e+14	4.486418e+14	3.097265e+14	1.167055e+04	8.429494e+03	3.539232e+03	0	5.393693e-04
1.260000e+09	3.351397e+12	0.000000e+00	4.797687e-01	2.758243e+14	4.495805e+14	3.084203e+14	1.165670e+04	8.432313e+03	3.540416e+03	0	5.290964e-04
1.270000e+09	3.155320e+12	0.000000e+00	4.797687e-01	2.734439e+14	4.504892e+14	3.071226e+14	1.164298e+04	8.435037e+03	3.541560e+03	0	5.185699e-04
1.280000e+09	2.962142e+12	0.000000e+00	4.797687e-01	2.710969e+14	4.513680e+14	3.058336e+14	1.162936e+04	8.437669e+03	3.542664e+03	0	5.077635e-04
1.290000e+09	2.771811e+12	0.000000e+00	4.797687e-01	2.687829e+14	4.522175e+14	3.045529e+14	1.161587e+04	8.440208e+03	3.543731e+03	0	4.966465e-04
1.300000e+09	2.584280e+12	0.000000e+00	4.797687e-01	2.665011e+14	4.530379e+14	3.032807e+14	1.160249e+04	8.442658e+03	3.544759e+03	0	4.851835e-04
1.310000e+09	2.399500e+12	0.000000e+00	4.797687e-01	2.642510e+14	4.538296e+14	3.020169e+14	1.158922e+04	8.445018e+03	3.545750e+03	0	4.733326e-04
1.320000e+09	2.217423e+12	0.000000e+00	4.797687e-01	2.620323e+14	4.545930e+14	3.007613e+14	1.157607e+04	8.447292e+03	3.546705e+03	0	4.610439e-04
1.330000e+09	2.038003e+12	0.000000e+00	4.797687e-01	2.598442e+14	4.553283e+14	2.995139e+14	1.156303e+04	8.449479e+03	3.547623e+03	0	4.482577e-04
1.340000e+09	1.861195e+12	0.000000e+00	4.797687e-01	2.576862e+14	4.560359e+14	2.982747e+14	1.155009e+04	8.451581e+03	3.548506e+03	0	4.349007e-04
1.350000e+09	1.686953e+12	0.000000e+00	4.797687e-01	2.555580e+14	4.567163e+14	2.970435e+14	1.153726e+04	8.453600e+03	3.549353e+03	0	4.208821e-04
1.360000e+09	1.515234e+12	0.000000e+00	4.797687e-01	2.534589e+14	4.573698e+14	2.958204e+14	1.152454e+04	8.455537e+03	3.550166e+03	0	4.060873e-04
