#t		Qconv[W]	Ri[Rp]		R*[Rp]		Qc[W]		Qm[W]		Qr[W]		Tcmb[K]		Tl[K]		Tup[K]		RiFlag		Bs[T]
0.000000e+00	1.060099e+14	0.000000e+00	4.797689e-01	1.497064e+15	7.628856e+13	6.329036e+14	1.668896e+04	6.919090e+03	2.805422e+03	0	1.668234e-03
1.000000e+07	1.039110e+14	0.000000e+00	4.797689e-01	1.474349e+15	7.946401e+13	6.293968e+14	1.662442e+04	6.957325e+03	2.820924e+03	0	1.657151e-03
2.000000e+07	1.018565e+14	0.000000e+00	4.797689e-01	1.452104e+15	8.269364e+13	6.259163e+14	1.656086e+04	6.995011e+03	2.836205e+03	0	1.646156e-03
3.000000e+07	9.984490e+13	0.000000e+00	4.797689e-01	1.430314e+15	8.597594e+13	6.224618e+14	1.649824e+04	7.032157e+03	2.851266e+03	0	1.635248e-03
4.000000e+07	9.787512e+13	0.000000e+00	4.797689e-01	1.408967e+15	8.930941e+13	6.190331e+14	1.643656e+04	7.068771e+03	2.866111e+03	0	1.624423e-03
5.000000e+07	9.594595e+13	0.000000e+00	4.797689e-01	1.388051e+15	9.269246e+13	6.156299e+14	1.637580e+04	7.104860e+03	2.880744e+03	0	1.613679e-03
6.000000e+07	9.405627e+13	0.000000e+00	4.797689e-01	1.367554e+15	9.612356e+13	6.122521e+14	1.631593e+04	7.140433e+03	2.895167e+03	0	1.603015e-03
7.000000e+07	9.220501e+13	0.000000e+00	4.797689e-01	1.347465e+15	9.960108e+13	6.088995e+14	1.625694e+04	7.175496e+03	2.909384e+03	0	1.592428e-03
8.000000e+07	9.039111e+13	0.000000e+00	4.797689e-01	1.327773e+15	1.031234e+14	6.055718e+14	1.619881e+04	7.210057e+03	2.923397e+03	0	1.581916e-03
9.000000e+07	8.861358e+13	0.000000e+00	4.797689e-01	1.308467e+15	1.066888e+14	6.022689e+14	1.614153e+04	7.244123e+03	2.937210e+03	0	1.571478e-03
1.000000e+08	8.687145e+13	0.000000e+00	4.797689e-01	1.289538e+15	1.102958e+14	5.989904e+14	1.608507e+04	7.277700e+03	2.950824e+03	0	1.561112e-03
1.100000e+08	8.516379e+13	0.000000e+00	4.797689e-01	1.270975e+15	1.139426e+14	5.957363e+14	1.602943e+04	7.310796e+03	2.964243e+03	0	1.550815e-03
1.200000e+08	8.348969e+13	0.000000e+00	4.797689e-01	1.252769e+15	1.176276e+14	5.925064e+14	1.597458e+04	7.343417e+03	2.977470e+03	0	1.540586e-03
1.300000e+08	8.184830e+13	0.000000e+00	4.797689e-01	1.234912e+15	1.213490e+14	5.893003e+14	1.592051e+04	7.375570e+03	2.990506e+03	0	1.530423e-03
1.400000e+08	8.023877e+13	0.000000e+00	4.797689e-01	1.217394e+15	1.251052e+14	5.861180e+14	1.586721e+04	7.407260e+03	3.003355e+03	0	1.520325e-03
1.500000e+08	7.866030e+13	0.000000e+00	4.797689e-01	1.200206e+15	1.288944e+14	5.829592e+14	1.581467e+04	7.438494e+03	3.016020e+03	0	1.510289e-03
1.600000e+08	7.711211e+13	0.000000e+00	4.797689e-01	1.183341e+15	1.327149e+14	5.798237e+14	1.576286e+04	7.469278e+03	3.028501e+03	0	1.500315e-03
1.700000e+08	7.559346e+13	0.000000e+00	4.797689e-01	1.166792e+15	1.365651e+14	5.767113e+14	1.571177e+04	7.499618e+03	3.040803e+03	0	1.490400e-03
1.800000e+08	7.410360e+13	0.000000e+00	4.797689e-01	1.150549e+15	1.404433e+14	5.736219e+14	1.566139e+04	7.529519e+03	3.052927e+03	0	1.480544e-03
1.900000e+08	7.264184e+13	0.000000e+00	4.797689e-01	1.134606e+15	1.443476e+14	5.705553e+14	1.561172e+04	7.558987e+03	3.064875e+03	0	1.470744e-03
2.000000e+08	7.120750e+13	0.000000e+00	4.797689e-01	1.118955e+15	1.482765e+14	5.675112e+14	1.556272e+04	7.588028e+03	3.076650e+03	0	1.461000e-03
2.100000e+08	6.979993e+13	0.000000e+00	4.797689e-01	1.103591e+15	1.522281e+14	5.644895e+14	1.551440e+04	7.616647e+03	3.088254e+03	0	1.451309e-03
2.200000e+08	6.841848e+13	0.000000e+00	4.797689e-01	1.088505e+15	1.562009e+14	5.614900e+14	1.546674e+04	7.644850e+03	3.099689e+03	0	1.441671e-03
2.300000e+08	6.706255e+13	0.000000e+00	4.797689e-01	1.073692e+15	1.601932e+14	5.585126e+14	1.541973e+04	7.672641e+03	3.110957e+03	0	1.432083e-03
2.400000e+08	6.573153e+13	0.000000e+00	4.797689e-01	1.059145e+15	1.642033e+14	5.555569e+14	1.537336e+04	7.700026e+03	3.122061e+03	0	1.422545e-03
2.500000e+08	6.442486e+13	0.000000e+00	4.797689e-01	1.044859e+15	1.682295e+14	5.526229e+14	1.532761e+04	7.727010e+03	3.133002e+03	0	1.413056e-03
2.600000e+08	6.314197e+13	0.000000e+00	4.797689e-01	1.030826e+15	1.722702e+14	5.497104e+14	1.528247e+04	7.753598e+03	3.143782e+03	0	1.403614e-03
2.700000e+08	6.188232e+13	0.000000e+00	4.797689e-01	1.017043e+15	1.763237e+14	5.468191e+14	1.523794e+04	7.779794e+03	3.154403e+03	0	1.394217e-03
2.800000e+08	6.064539e+13	0.000000e+00	4.797689e-01	1.003502e+15	1.803885e+14	5.439490e+14	1.519400e+04	7.805604e+03	3.164868e+03	0	1.384865e-03
2.900000e+08	5.943068e+13	0.000000e+00	4.797689e-01	9.901998e+14	1.844630e+14	5.410998e+14	1.515064e+04	7.831033e+03	3.175179e+03	0	1.375557e-03
3.000000e+08	5.823767e+13	0.000000e+00	4.797689e-01	9.771296e+14	1.885454e+14	5.382714e+14	1.510786e+04	7.856084e+03	3.185336e+03	0	1.366290e-03
3.100000e+08	5.706591e+13	0.000000e+00	4.797689e-01	9.642869e+14	1.926345e+14	5.354636e+14	1.506563e+04	7.880763e+03	3.195342e+03	0	1.357064e-03
3.200000e+08	5.591492e+13	0.000000e+00	4.797689e-01	9.516668e+14	1.967285e+14	5.326762e+14	1.502396e+04	7.905074e+03	3.205199e+03	0	1.347879e-03
3.300000e+08	5.478426e+13	0.000000e+00	4.797689e-01	9.392646e+14	2.008260e+14	5.299091e+14	1.498283e+04	7.929021e+03	3.214909e+03	0	1.338732e-03
3.400000e+08	5.367348e+13	0.000000e+00	4.797689e-01	9.270755e+14	2.049254e+14	5.271621e+14	1.494224e+04	7.952609e+03	3.224473e+03	0	1.329622e-03
3.500000e+08	5.258216e+13	0.000000e+00	4.797689e-01	9.150951e+14	2.090253e+14	5.244350e+14	1.490217e+04	7.975843e+03	3.233893e+03	0	1.320549e-03
3.600000e+08	5.150989e+13	0.000000e+00	4.797689e-01	9.033190e+14	2.131243e+14	5.217277e+14	1.486261e+04	7.998725e+03	3.243172e+03	0	1.311511e-03
3.700000e+08	5.045627e+13	0.000000e+00	4.797689e-01	8.917430e+14	2.172208e+14	5.190400e+14	1.482357e+04	8.021262e+03	3.252309e+03	0	1.302507e-03
3.800000e+08	4.942090e+13	0.000000e+00	4.797689e-01	8.803630e+14	2.213136e+14	5.163718e+14	1.478502e+04	8.043456e+03	3.261308e+03	0	1.293536e-03
3.900000e+08	4.840341e+13	0.000000e+00	4.797689e-01	8.691748e+14	2.254013e+14	5.137228e+14	1.474696e+04	8.065313e+03	3.270170e+03	0	1.284597e-03
4.000000e+08	4.740343e+13	0.000000e+00	4.797689e-01	8.581747e+14	2.294824e+14	5.110930e+14	1.470938e+04	8.086835e+03	3.278897e+03	0	1.275689e-03
4.100000e+08	4.642060e+13	0.000000e+00	4.797689e-01	8.473587e+14	2.335557e+14	5.084821e+14	1.467228e+04	8.108027e+03	3.287489e+03	0	1.266811e-03
4.200000e+08	4.545457e+13	0.000000e+00	4.797689e-01	8.367233e+14	2.376199e+14	5.058900e+14	1.463564e+04	8.128894e+03	3.295950e+03	0	1.257962e-03
4.300000e+08	4.450499e+13	0.000000e+00	4.797689e-01	8.262647e+14	2.416736e+14	5.033167e+14	1.459946e+04	8.149438e+03	3.304280e+03	0	1.249140e-03
4.400000e+08	4.357155e+13	0.000000e+00	4.797689e-01	8.159795e+14	2.457158e+14	5.007618e+14	1.456373e+04	8.169663e+03	3.312480e+03	0	1.240345e-03
4.500000e+08	4.265391e+13	0.000000e+00	4.797689e-01	8.058642e+14	2.497451e+14	4.982253e+14	1.452844e+04	8.189575e+03	3.320553e+03	0	1.231576e-03
4.600000e+08	4.175176e+13	0.000000e+00	4.797689e-01	7.959155e+14	2.537604e+14	4.957070e+14	1.449359e+04	8.209175e+03	3.328501e+03	0	1.222831e-03
4.700000e+08	4.086479e+13	0.000000e+00	4.797689e-01	7.861301e+14	2.577606e+14	4.932067e+14	1.445917e+04	8.228468e+03	3.336323e+03	0	1.214110e-03
4.800000e+08	3.999271e+13	0.000000e+00	4.797689e-01	7.765049e+14	2.617445e+14	4.907244e+14	1.442517e+04	8.247458e+03	3.344023e+03	0	1.205411e-03
4.900000e+08	3.913523e+13	0.000000e+00	4.797689e-01	7.670368e+14	2.657109e+14	4.882599e+14	1.439158e+04	8.266149e+03	3.351601e+03	0	1.196734e-03
5.000000e+08	3.829206e+13	0.000000e+00	4.797689e-01	7.577227e+14	2.696589e+14	4.858129e+14	1.435840e+04	8.284543e+03	3.359059e+03	0	1.188077e-03
5.100000e+08	3.746291e+13	0.000000e+00	4.797689e-01	7.485597e+14	2.735874e+14	4.833835e+14	1.432562e+04	8.302644e+03	3.366399e+03	0	1.179439e-03
5.200000e+08	3.664754e+13	0.000000e+00	4.797689e-01	7.395449e+14	2.774954e+14	4.809714e+14	1.429324e+04	8.320457e+03	3.373621e+03	0	1.170819e-03
5.300000e+08	3.584566e+13	0.000000e+00	4.797689e-01	7.306755e+14	2.813820e+14	4.785765e+14	1.426125e+04	8.337983e+03	3.380727e+03	0	1.162217e-03
5.400000e+08	3.505702e+13	0.000000e+00	4.797689e-01	7.219487e+14	2.852461e+14	4.761986e+14	1.422964e+04	8.355228e+03	3.387719e+03	0	1.153630e-03
5.500000e+08	3.428138e+13	0.000000e+00	4.797689e-01	7.133620e+14	2.890869e+14	4.738377e+14	1.419840e+04	8.372194e+03	3.394598e+03	0	1.145058e-03
5.600000e+08	3.351847e+13	0.000000e+00	4.797689e-01	7.049126e+14	2.929035e+14	4.714935e+14	1.416754e+04	8.388884e+03	3.401366e+03	0	1.136501e-03
5.700000e+08	3.276808e+13	0.000000e+00	4.797689e-01	6.965980e+14	2.966950e+14	4.691660e+14	1.413704e+04	8.405303e+03	3.408023e+03	0	1.127955e-03
5.800000e+08	3.202995e+13	0.000000e+00	4.797689e-01	6.884158e+14	3.004605e+14	4.668550e+14	1.410689e+04	8.421452e+03	3.414571e+03	0	1.119422e-03
5.900000e+08	3.130387e+13	0.000000e+00	4.797689e-01	6.803634e+14	3.041994e+14	4.645604e+14	1.407710e+04	8.437337e+03	3.421011e+03	0	1.110898e-03
6.000000e+08	3.058960e+13	0.000000e+00	4.797689e-01	6.724384e+14	3.079108e+14	4.622821e+14	1.404766e+04	8.452958e+03	3.427345e+03	0	1.102384e-03
6.100000e+08	2.988694e+13	0.000000e+00	4.797689e-01	6.646387e+14	3.115939e+14	4.600198e+14	1.401856e+04	8.468321e+03	3.433574e+03	0	1.093878e-03
6.200000e+08	2.919566e+13	0.000000e+00	4.797689e-01	6.569617e+14	3.152482e+14	4.577736e+14	1.398980e+04	8.483428e+03	3.439700e+03	0	1.085378e-03
6.300000e+08	2.851555e+13	0.000000e+00	4.797689e-01	6.494055e+14	3.188727e+14	4.555432e+14	1.396136e+04	8.498282e+03	3.445722e+03	0	1.076884e-03
6.400000e+08	2.784642e+13	0.000000e+00	4.797689e-01	6.419676e+14	3.224671e+14	4.533285e+14	1.393326e+04	8.512887e+03	3.451644e+03	0	1.068394e-03
6.500000e+08	2.718806e+13	0.000000e+00	4.797689e-01	6.346461e+14	3.260305e+14	4.511294e+14	1.390547e+04	8.527245e+03	3.457466e+03	0	1.059907e-03
6.600000e+08	2.654028e+13	0.000000e+00	4.797689e-01	6.274388e+14	3.295624e+14	4.489458e+14	1.387800e+04	8.541359e+03	3.463188e+03	0	1.051421e-03
6.700000e+08	2.590288e+13	0.000000e+00	4.797689e-01	6.203437e+14	3.330622e+14	4.467776e+14	1.385084e+04	8.555233e+03	3.468814e+03	0	1.042936e-03
6.800000e+08	2.527568e+13	0.000000e+00	4.797689e-01	6.133587e+14	3.365293e+14	4.446245e+14	1.382399e+04	8.568869e+03	3.474343e+03	0	1.034449e-03
6.900000e+08	2.465849e+13	0.000000e+00	4.797689e-01	6.064819e+14	3.399633e+14	4.424866e+14	1.379744e+04	8.582271e+03	3.479776e+03	0	1.025960e-03
7.000000e+08	2.405114e+13	0.000000e+00	4.797689e-01	5.997115e+14	3.433638e+14	4.403637e+14	1.377118e+04	8.595441e+03	3.485116e+03	0	1.017466e-03
7.100000e+08	2.345344e+13	0.000000e+00	4.797689e-01	5.930454e+14	3.467300e+14	4.382556e+14	1.374522e+04	8.608382e+03	3.490363e+03	0	1.008967e-03
7.200000e+08	2.286523e+13	0.000000e+00	4.797689e-01	5.864818e+14	3.500616e+14	4.361623e+14	1.371954e+04	8.621097e+03	3.495519e+03	0	1.000461e-03
7.300000e+08	2.228634e+13	0.000000e+00	4.797689e-01	5.800191e+14	3.533584e+14	4.340836e+14	1.369415e+04	8.633589e+03	3.500584e+03	0	9.919455e-04
7.400000e+08	2.171660e+13	0.000000e+00	4.797689e-01	5.736553e+14	3.566197e+14	4.320194e+14	1.366904e+04	8.645861e+03	3.505560e+03	0	9.834196e-04
7.500000e+08	2.115585e+13	0.000000e+00	4.797689e-01	5.673887e+14	3.598453e+14	4.299696e+14	1.364420e+04	8.657915e+03	3.510447e+03	0	9.748813e-04
7.600000e+08	2.060393e+13	0.000000e+00	4.797689e-01	5.612178e+14	3.630348e+14	4.279341e+14	1.361963e+04	8.669755e+03	3.515248e+03	0	9.663289e-04
7.700000e+08	2.006069e+13	0.000000e+00	4.797689e-01	5.551407e+14	3.661878e+14	4.259128e+14	1.359533e+04	8.681382e+03	3.519962e+03	0	9.577604e-04
7.800000e+08	1.952597e+13	0.000000e+00	4.797689e-01	5.491558e+14	3.693042e+14	4.239055e+14	1.357129e+04	8.692800e+03	3.524592e+03	0	9.491739e-04
7.900000e+08	1.899963e+13	0.000000e+00	4.797689e-01	5.432616e+14	3.723836e+14	4.219121e+14	1.354751e+04	8.704012e+03	3.529138e+03	0	9.405675e-04
8.000000e+08	1.848151e+13	0.000000e+00	4.797689e-01	5.374565e+14	3.754256e+14	4.199326e+14	1.352398e+04	8.715019e+03	3.533601e+03	0	9.319389e-04
8.100000e+08	1.797148e+13	0.000000e+00	4.797689e-01	5.317390e+14	3.784303e+14	4.179667e+14	1.350071e+04	8.725825e+03	3.537982e+03	0	9.232859e-04
8.200000e+08	1.746940e+13	0.000000e+00	4.797689e-01	5.261075e+14	3.813972e+14	4.160145e+14	1.347768e+04	8.736433e+03	3.542283e+03	0	9.146063e-04
8.300000e+08	1.697512e+13	0.000000e+00	4.797689e-01	5.205605e+14	3.843262e+14	4.140758e+14	1.345489e+04	8.746843e+03	3.546504e+03	0	9.058977e-04
8.400000e+08	1.648851e+13	0.000000e+00	4.797689e-01	5.150967e+14	3.872172e+14	4.121505e+14	1.343235e+04	8.757061e+03	3.550647e+03	0	8.971575e-04
8.500000e+08	1.600943e+13	0.000000e+00	4.797689e-01	5.097145e+14	3.900700e+14	4.102384e+14	1.341004e+04	8.767087e+03	3.554712e+03	0	8.883830e-04
8.600000e+08	1.553777e+13	0.000000e+00	4.797689e-01	5.044127e+14	3.928844e+14	4.083396e+14	1.338796e+04	8.776924e+03	3.558701e+03	0	8.795715e-04
8.700000e+08	1.507339e+13	0.000000e+00	4.797689e-01	4.991898e+14	3.956603e+14	4.064538e+14	1.336611e+04	8.786575e+03	3.562614e+03	0	8.707200e-04
8.800000e+08	1.461616e+13	0.000000e+00	4.797689e-01	4.940444e+14	3.983977e+14	4.045810e+14	1.334449e+04	8.796042e+03	3.566452e+03	0	8.618255e-04
8.900000e+08	1.416596e+13	0.000000e+00	4.797689e-01	4.889753e+14	4.010964e+14	4.027210e+14	1.332309e+04	8.805328e+03	3.570217e+03	0	8.528846e-04
9.000000e+08	1.372268e+13	0.000000e+00	4.797689e-01	4.839812e+14	4.037564e+14	4.008738e+14	1.330190e+04	8.814434e+03	3.573910e+03	0	8.438940e-04
9.100000e+08	1.328619e+13	0.000000e+00	4.797689e-01	4.790608e+14	4.063777e+14	3.990393e+14	1.328094e+04	8.823364e+03	3.577530e+03	0	8.348499e-04
9.200000e+08	1.285638e+13	0.000000e+00	4.797689e-01	4.742129e+14	4.089603e+14	3.972173e+14	1.326018e+04	8.832120e+03	3.581080e+03	0	8.257485e-04
9.300000e+08	1.243313e+13	0.000000e+00	4.797689e-01	4.694362e+14	4.115039e+14	3.954078e+14	1.323964e+04	8.840703e+03	3.584561e+03	0	8.165856e-04
9.400000e+08	1.201633e+13	0.000000e+00	4.797689e-01	4.647295e+14	4.140089e+14	3.936107e+14	1.321930e+04	8.849117e+03	3.587972e+03	0	8.073569e-04
9.500000e+08	1.160588e+13	0.000000e+00	4.797689e-01	4.600917e+14	4.164751e+14	3.918258e+14	1.319917e+04	8.857363e+03	3.591316e+03	0	7.980576e-04
9.600000e+08	1.120166e+13	0.000000e+00	4.797689e-01	4.555216e+14	4.189025e+14	3.900531e+14	1.317923e+04	8.865444e+03	3.594592e+03	0	7.886828e-04
9.700000e+08	1.080357e+13	0.000000e+00	4.797689e-01	4.510180e+14	4.212913e+14	3.882925e+14	1.315950e+04	8.873362e+03	3.597803e+03	0	7.792270e-04
9.800000e+08	1.041150e+13	0.000000e+00	4.797689e-01	4.465799e+14	4.236414e+14	3.865439e+14	1.313996e+04	8.881119e+03	3.600948e+03	0	7.696845e-04
9.900000e+08	1.002536e+13	0.000000e+00	4.797689e-01	4.422062e+14	4.259530e+14	3.848071e+14	1.312061e+04	8.888717e+03	3.604028e+03	0	7.600490e-04
1.000000e+09	9.645043e+12	0.000000e+00	4.797689e-01	4.378957e+14	4.282261e+14	3.830822e+14	1.310144e+04	8.896158e+03	3.607046e+03	0	7.503138e-04
1.010000e+09	9.270450e+12	0.000000e+00	4.797689e-01	4.336475e+14	4.304609e+14	3.813689e+14	1.308247e+04	8.903446e+03	3.610000e+03	0	7.404718e-04
1.020000e+09	8.901486e+12	0.000000e+00	4.797689e-01	4.294604e+14	4.326574e+14	3.796672e+14	1.306368e+04	8.910580e+03	3.612893e+03	0	7.305149e-04
1.030000e+09	8.538056e+12	0.000000e+00	4.797689e-01	4.253336e+14	4.348157e+14	3.779771e+14	1.304507e+04	8.917565e+03	3.615725e+03	0	7.204346e-04
1.040000e+09	8.180068e+12	0.000000e+00	4.797689e-01	4.212659e+14	4.369361e+14	3.762984e+14	1.302664e+04	8.924401e+03	3.618497e+03	0	7.102216e-04
1.050000e+09	7.827430e+12	0.000000e+00	4.797689e-01	4.172564e+14	4.390187e+14	3.746310e+14	1.300838e+04	8.931091e+03	3.621209e+03	0	6.998656e-04
1.060000e+09	7.480053e+12	0.000000e+00	4.797689e-01	4.133042e+14	4.410635e+14	3.729748e+14	1.299030e+04	8.937637e+03	3.623864e+03	0	6.893553e-04
1.070000e+09	7.137848e+12	0.000000e+00	4.797689e-01	4.094082e+14	4.430708e+14	3.713298e+14	1.297239e+04	8.944040e+03	3.626460e+03	0	6.786784e-04
1.080000e+09	6.800730e+12	0.000000e+00	4.797689e-01	4.055676e+14	4.450408e+14	3.696959e+14	1.295464e+04	8.950303e+03	3.628999e+03	0	6.678210e-04
1.090000e+09	6.468613e+12	0.000000e+00	4.797689e-01	4.017814e+14	4.469736e+14	3.680730e+14	1.293706e+04	8.956428e+03	3.631483e+03	0	6.567680e-04
1.100000e+09	6.141414e+12	0.000000e+00	4.797689e-01	3.980488e+14	4.488693e+14	3.664610e+14	1.291965e+04	8.962416e+03	3.633911e+03	0	6.455022e-04
1.110000e+09	5.819051e+12	0.000000e+00	4.797689e-01	3.943689e+14	4.507283e+14	3.648597e+14	1.290240e+04	8.968270e+03	3.636284e+03	0	6.340044e-04
1.120000e+09	5.501444e+12	0.000000e+00	4.797689e-01	3.907408e+14	4.525509e+14	3.632692e+14	1.288530e+04	8.973991e+03	3.638604e+03	0	6.222532e-04
1.130000e+09	5.188514e+12	0.000000e+00	4.797689e-01	3.871636e+14	4.543370e+14	3.616894e+14	1.286837e+04	8.979581e+03	3.640870e+03	0	6.102239e-04
1.140000e+09	4.880183e+12	0.000000e+00	4.797689e-01	3.836365e+14	4.560870e+14	3.601201e+14	1.285159e+04	8.985042e+03	3.643085e+03	0	5.978886e-04
1.150000e+09	4.576375e+12	0.000000e+00	4.797689e-01	3.801588e+14	4.578010e+14	3.585613e+14	1.283496e+04	8.990376e+03	3.645247e+03	0	5.852150e-04
1.160000e+09	4.277015e+12	0.000000e+00	4.797689e-01	3.767295e+14	4.594795e+14	3.570129e+14	1.281848e+04	8.995585e+03	3.647359e+03	0	5.721657e-04
1.170000e+09	3.982030e+12	0.000000e+00	4.797689e-01	3.733479e+14	4.611225e+14	3.554748e+14	1.280215e+04	9.000669e+03	3.649421e+03	0	5.586971e-04
1.180000e+09	3.691348e+12	0.000000e+00	4.797689e-01	3.700133e+14	4.627303e+14	3.539469e+14	1.278596e+04	9.005632e+03	3.651433e+03	0	5.447575e-04
1.190000e+09	3.404896e+12	0.000000e+00	4.797689e-01	3.667248e+14	4.643033e+14	3.524292e+14	1.276992e+04	9.010475e+03	3.653397e+03	0	5.302852e-04
1.200000e+09	3.122607e+12	0.000000e+00	4.797689e-01	3.634818e+14	4.658415e+14	3.509216e+14	1.275403e+04	9.015199e+03	3.655312e+03	0	5.152057e-04
1.210000e+09	2.844411e+12	0.000000e+00	4.797689e-01	3.602834e+14	4.673455e+14	3.494239e+14	1.273827e+04	9.019806e+03	3.657180e+03	0	4.994274e-04
1.220000e+09	2.570241e+12	0.000000e+00	4.797689e-01	3.571290e+14	4.688153e+14	3.479362e+14	1.272265e+04	9.024298e+03	3.659001e+03	0	4.828359e-04
1.230000e+09	2.300031e+12	0.000000e+00	4.797689e-01	3.540178e+14	4.702514e+14	3.464584e+14	1.270717e+04	9.028676e+03	3.660776e+03	0	4.652854e-04
1.240000e+09	2.033716e+12	0.000000e+00	4.797689e-01	3.509491e+14	4.716538e+14	3.449902e+14	1.269182e+04	9.032943e+03	3.662506e+03	0	4.465859e-04
1.250000e+09	1.771232e+12	0.000000e+00	4.797689e-01	3.479223e+14	4.730231e+14	3.435318e+14	1.267660e+04	9.037099e+03	3.664191e+03	0	4.264813e-04
1.260000e+09	1.512516e+12	0.000000e+00	4.797689e-01	3.449367e+14	4.743593e+14	3.420830e+14	1.266152e+04	9.041146e+03	3.665832e+03	0	4.046146e-04
1.270000e+09	1.257507e+12	0.000000e+00	4.797689e-01	3.419916e+14	4.756628e+14	3.406438e+14	1.264656e+04	9.045086e+03	3.667430e+03	0	3.804624e-04
1.280000e+09	1.006145e+12	0.000000e+00	4.797689e-01	3.390863e+14	4.769340e+14	3.392140e+14	1.263173e+04	9.048920e+03	3.668985e+03	0	3.532063e-04
1.290000e+09	7.583696e+11	0.000000e+00	4.797689e-01	3.362203e+14	4.781731e+14	3.377936e+14	1.261703e+04	9.052651e+03	3.670497e+03	0	3.214414e-04
1.300000e+09	5.141225e+11	0.000000e+00	4.797689e-01	3.333928e+14	4.793803e+14	3.363826e+14	1.260245e+04	9.056278e+03	3.671968e+03	0	2.823777e-04
1.310000e+09	2.733466e+11	0.000000e+00	4.797689e-01	3.306033e+14	4.805561e+14	3.349807e+14	1.258800e+04	9.059804e+03	3.673398e+03	0	2.287597e-04
1.320000e+09	3.598519e+10	0.000000e+00	4.797689e-01	3.278512e+14	4.817007e+14	3.335881e+14	1.257366e+04	9.063231e+03	3.674787e+03	0	1.163723e-04
1.330000e+09	-1.980170e+11	0.000000e+00	4.797689e-01	3.251359e+14	4.828144e+14	3.322046e+14	1.255945e+04	9.066560e+03	3.676137e+03	0	nan
