#t		Qconv[W]	Ri[Rp]		R*[Rp]		Qc[W]		Qm[W]		Qr[W]		Tcmb[K]		Tl[K]		Tup[K]		RiFlag		Bs[T]
0.000000e+00	5.545905e+13	0.000000e+00	4.739884e-01	1.143376e+15	6.477299e+13	7.367014e+14	1.747553e+04	7.210989e+03	2.899903e+03	0	1.354762e-03
1.000000e+07	5.453439e+13	0.000000e+00	4.739884e-01	1.133202e+15	6.680964e+13	7.326196e+14	1.743362e+04	7.240212e+03	2.911655e+03	0	1.347190e-03
2.000000e+07	5.361972e+13	0.000000e+00	4.739884e-01	1.123134e+15	6.887717e+13	7.285682e+14	1.739208e+04	7.269172e+03	2.923301e+03	0	1.339616e-03
3.000000e+07	5.271490e+13	0.000000e+00	4.739884e-01	1.113172e+15	7.097520e+13	7.245472e+14	1.735091e+04	7.297871e+03	2.934843e+03	0	1.332038e-03
4.000000e+07	5.181979e+13	0.000000e+00	4.739884e-01	1.103314e+15	7.310332e+13	7.205561e+14	1.731010e+04	7.326311e+03	2.946280e+03	0	1.324455e-03
5.000000e+07	5.093428e+13	0.000000e+00	4.739884e-01	1.093559e+15	7.526111e+13	7.165949e+14	1.726966e+04	7.354494e+03	2.957613e+03	0	1.316868e-03
6.000000e+07	5.005824e+13	0.000000e+00	4.739884e-01	1.083906e+15	7.744813e+13	7.126631e+14	1.722957e+04	7.382420e+03	2.968844e+03	0	1.309274e-03
7.000000e+07	4.919154e+13	0.000000e+00	4.739884e-01	1.074352e+15	7.966393e+13	7.087606e+14	1.718983e+04	7.410092e+03	2.979972e+03	0	1.301674e-03
8.000000e+07	4.833407e+13	0.000000e+00	4.739884e-01	1.064898e+15	8.190806e+13	7.048872e+14	1.715044e+04	7.437512e+03	2.990999e+03	0	1.294067e-03
9.000000e+07	4.748571e+13	0.000000e+00	4.739884e-01	1.055542e+15	8.418004e+13	7.010426e+14	1.711140e+04	7.464680e+03	3.001925e+03	0	1.286451e-03
1.000000e+08	4.664635e+13	0.000000e+00	4.739884e-01	1.046283e+15	8.647937e+13	6.972265e+14	1.707270e+04	7.491599e+03	3.012750e+03	0	1.278826e-03
1.100000e+08	4.581587e+13	0.000000e+00	4.739884e-01	1.037118e+15	8.880556e+13	6.934387e+14	1.703433e+04	7.518270e+03	3.023476e+03	0	1.271191e-03
1.200000e+08	4.499416e+13	0.000000e+00	4.739884e-01	1.028049e+15	9.115812e+13	6.896790e+14	1.699630e+04	7.544694e+03	3.034103e+03	0	1.263545e-03
1.300000e+08	4.418112e+13	0.000000e+00	4.739884e-01	1.019072e+15	9.353649e+13	6.859471e+14	1.695861e+04	7.570874e+03	3.044631e+03	0	1.255888e-03
1.400000e+08	4.337664e+13	0.000000e+00	4.739884e-01	1.010187e+15	9.594017e+13	6.822429e+14	1.692124e+04	7.596811e+03	3.055061e+03	0	1.248219e-03
1.500000e+08	4.258061e+13	0.000000e+00	4.739884e-01	1.001394e+15	9.836860e+13	6.785660e+14	1.688419e+04	7.622506e+03	3.065394e+03	0	1.240536e-03
1.600000e+08	4.179293e+13	0.000000e+00	4.739884e-01	9.926897e+14	1.008212e+14	6.749163e+14	1.684747e+04	7.647960e+03	3.075631e+03	0	1.232839e-03
1.700000e+08	4.101351e+13	0.000000e+00	4.739884e-01	9.840746e+14	1.032975e+14	6.712935e+14	1.681106e+04	7.673176e+03	3.085771e+03	0	1.225127e-03
1.800000e+08	4.024224e+13	0.000000e+00	4.739884e-01	9.755474e+14	1.057969e+14	6.676975e+14	1.677497e+04	7.698154e+03	3.095817e+03	0	1.217399e-03
1.900000e+08	3.947902e+13	0.000000e+00	4.739884e-01	9.671069e+14	1.083187e+14	6.641279e+14	1.673919e+04	7.722897e+03	3.105767e+03	0	1.209653e-03
2.000000e+08	3.872377e+13	0.000000e+00	4.739884e-01	9.587521e+14	1.108625e+14	6.605846e+14	1.670372e+04	7.747406e+03	3.115623e+03	0	1.201890e-03
2.100000e+08	3.797639e+13	0.000000e+00	4.739884e-01	9.504821e+14	1.134276e+14	6.570673e+14	1.666855e+04	7.771681e+03	3.125385e+03	0	1.194107e-03
2.200000e+08	3.723679e+13	0.000000e+00	4.739884e-01	9.422959e+14	1.160134e+14	6.535759e+14	1.663369e+04	7.795726e+03	3.135055e+03	0	1.186305e-03
2.300000e+08	3.650487e+13	0.000000e+00	4.739884e-01	9.341925e+14	1.186193e+14	6.501101e+14	1.659913e+04	7.819540e+03	3.144632e+03	0	1.178481e-03
2.400000e+08	3.578056e+13	0.000000e+00	4.739884e-01	9.261711e+14	1.212447e+14	6.466697e+14	1.656486e+04	7.843126e+03	3.154117e+03	0	1.170634e-03
2.500000e+08	3.506376e+13	0.000000e+00	4.739884e-01	9.182306e+14	1.238891e+14	6.432545e+14	1.653088e+04	7.866484e+03	3.163511e+03	0	1.162764e-03
2.600000e+08	3.435439e+13	0.000000e+00	4.739884e-01	9.103703e+14	1.265517e+14	6.398643e+14	1.649720e+04	7.889617e+03	3.172813e+03	0	1.154869e-03
2.700000e+08	3.365236e+13	0.000000e+00	4.739884e-01	9.025891e+14	1.292319e+14	6.364989e+14	1.646380e+04	7.912526e+03	3.182026e+03	0	1.146949e-03
2.800000e+08	3.295759e+13	0.000000e+00	4.739884e-01	8.948862e+14	1.319292e+14	6.331581e+14	1.643069e+04	7.935212e+03	3.191149e+03	0	1.139001e-03
2.900000e+08	3.227001e+13	0.000000e+00	4.739884e-01	8.872609e+14	1.346429e+14	6.298416e+14	1.639785e+04	7.957676e+03	3.200183e+03	0	1.131024e-03
3.000000e+08	3.158953e+13	0.000000e+00	4.739884e-01	8.797121e+14	1.373723e+14	6.265493e+14	1.636530e+04	7.979920e+03	3.209129e+03	0	1.123017e-03
3.100000e+08	3.091607e+13	0.000000e+00	4.739884e-01	8.722391e+14	1.401168e+14	6.232810e+14	1.633303e+04	8.001945e+03	3.217986e+03	0	1.114980e-03
3.200000e+08	3.024956e+13	0.000000e+00	4.739884e-01	8.648410e+14	1.428758e+14	6.200365e+14	1.630102e+04	8.023753e+03	3.226756e+03	0	1.106909e-03
3.300000e+08	2.958992e+13	0.000000e+00	4.739884e-01	8.575172e+14	1.456487e+14	6.168156e+14	1.626929e+04	8.045345e+03	3.235440e+03	0	1.098804e-03
3.400000e+08	2.893708e+13	0.000000e+00	4.739884e-01	8.502666e+14	1.484347e+14	6.136181e+14	1.623782e+04	8.066723e+03	3.244036e+03	0	1.090662e-03
3.500000e+08	2.829096e+13	0.000000e+00	4.739884e-01	8.430887e+14	1.512333e+14	6.104438e+14	1.620662e+04	8.087887e+03	3.252548e+03	0	1.082484e-03
3.600000e+08	2.765149e+13	0.000000e+00	4.739884e-01	8.359825e+14	1.540439e+14	6.072924e+14	1.617569e+04	8.108839e+03	3.260973e+03	0	1.074266e-03
3.700000e+08	2.701860e+13	0.000000e+00	4.739884e-01	8.289474e+14	1.568656e+14	6.041640e+14	1.614501e+04	8.129580e+03	3.269314e+03	0	1.066006e-03
3.800000e+08	2.639222e+13	0.000000e+00	4.739884e-01	8.219825e+14	1.596980e+14	6.010581e+14	1.611459e+04	8.150112e+03	3.277571e+03	0	1.057704e-03
3.900000e+08	2.577228e+13	0.000000e+00	4.739884e-01	8.150872e+14	1.625404e+14	5.979747e+14	1.608442e+04	8.170436e+03	3.285745e+03	0	1.049357e-03
4.000000e+08	2.515871e+13	0.000000e+00	4.739884e-01	8.082607e+14	1.653922e+14	5.949135e+14	1.605451e+04	8.190553e+03	3.293835e+03	0	1.040962e-03
4.100000e+08	2.455145e+13	0.000000e+00	4.739884e-01	8.015023e+14	1.682526e+14	5.918745e+14	1.602485e+04	8.210466e+03	3.301843e+03	0	1.032519e-03
4.200000e+08	2.395043e+13	0.000000e+00	4.739884e-01	7.948113e+14	1.711211e+14	5.888573e+14	1.599543e+04	8.230174e+03	3.309768e+03	0	1.024023e-03
4.300000e+08	2.335558e+13	0.000000e+00	4.739884e-01	7.881870e+14	1.739970e+14	5.858619e+14	1.596626e+04	8.249679e+03	3.317612e+03	0	1.015475e-03
4.400000e+08	2.276684e+13	0.000000e+00	4.739884e-01	7.816287e+14	1.768797e+14	5.828880e+14	1.593733e+04	8.268983e+03	3.325376e+03	0	1.006869e-03
4.500000e+08	2.218415e+13	0.000000e+00	4.739884e-01	7.751357e+14	1.797686e+14	5.799355e+14	1.590864e+04	8.288087e+03	3.333058e+03	0	9.982050e-04
4.600000e+08	2.160744e+13	0.000000e+00	4.739884e-01	7.687074e+14	1.826629e+14	5.770042e+14	1.588019e+04	8.306992e+03	3.340661e+03	0	9.894791e-04
4.700000e+08	2.103666e+13	0.000000e+00	4.739884e-01	7.623431e+14	1.855622e+14	5.740939e+14	1.585198e+04	8.325700e+03	3.348184e+03	0	9.806885e-04
4.800000e+08	2.047174e+13	0.000000e+00	4.739884e-01	7.560421e+14	1.884658e+14	5.712045e+14	1.582399e+04	8.344212e+03	3.355629e+03	0	9.718302e-04
4.900000e+08	1.991262e+13	0.000000e+00	4.739884e-01	7.498037e+14	1.913730e+14	5.683357e+14	1.579624e+04	8.362528e+03	3.362995e+03	0	9.629009e-04
5.000000e+08	1.935924e+13	0.000000e+00	4.739884e-01	7.436275e+14	1.942834e+14	5.654875e+14	1.576871e+04	8.380651e+03	3.370283e+03	0	9.538972e-04
5.100000e+08	1.881155e+13	0.000000e+00	4.739884e-01	7.375126e+14	1.971961e+14	5.626596e+14	1.574142e+04	8.398582e+03	3.377494e+03	0	9.448154e-04
5.200000e+08	1.826948e+13	0.000000e+00	4.739884e-01	7.314586e+14	2.001107e+14	5.598519e+14	1.571434e+04	8.416322e+03	3.384628e+03	0	9.356517e-04
5.300000e+08	1.773298e+13	0.000000e+00	4.739884e-01	7.254647e+14	2.030265e+14	5.570642e+14	1.568749e+04	8.433872e+03	3.391686e+03	0	9.264018e-04
5.400000e+08	1.720200e+13	0.000000e+00	4.739884e-01	7.195305e+14	2.059430e+14	5.542964e+14	1.566086e+04	8.451233e+03	3.398668e+03	0	9.170615e-04
5.500000e+08	1.667647e+13	0.000000e+00	4.739884e-01	7.136552e+14	2.088595e+14	5.515483e+14	1.563444e+04	8.468408e+03	3.405574e+03	0	9.076259e-04
5.600000e+08	1.615635e+13	0.000000e+00	4.739884e-01	7.078383e+14	2.117755e+14	5.488197e+14	1.560824e+04	8.485396e+03	3.412406e+03	0	8.980901e-04
5.700000e+08	1.564158e+13	0.000000e+00	4.739884e-01	7.020792e+14	2.146905e+14	5.461105e+14	1.558225e+04	8.502200e+03	3.419164e+03	0	8.884486e-04
5.800000e+08	1.513210e+13	0.000000e+00	4.739884e-01	6.963773e+14	2.176037e+14	5.434205e+14	1.555647e+04	8.518820e+03	3.425848e+03	0	8.786957e-04
5.900000e+08	1.462786e+13	0.000000e+00	4.739884e-01	6.907321e+14	2.205147e+14	5.407496e+14	1.553090e+04	8.535258e+03	3.432458e+03	0	8.688252e-04
6.000000e+08	1.412881e+13	0.000000e+00	4.739884e-01	6.851430e+14	2.234230e+14	5.380975e+14	1.550554e+04	8.551516e+03	3.438996e+03	0	8.588303e-04
6.100000e+08	1.363491e+13	0.000000e+00	4.739884e-01	6.796094e+14	2.263279e+14	5.354643e+14	1.548039e+04	8.567594e+03	3.445462e+03	0	8.487039e-04
6.200000e+08	1.314608e+13	0.000000e+00	4.739884e-01	6.741308e+14	2.292289e+14	5.328496e+14	1.545543e+04	8.583493e+03	3.451856e+03	0	8.384380e-04
6.300000e+08	1.266230e+13	0.000000e+00	4.739884e-01	6.687067e+14	2.321255e+14	5.302534e+14	1.543068e+04	8.599215e+03	3.458179e+03	0	8.280241e-04
6.400000e+08	1.218350e+13	0.000000e+00	4.739884e-01	6.633364e+14	2.350172e+14	5.276755e+14	1.540612e+04	8.614762e+03	3.464431e+03	0	8.174531e-04
6.500000e+08	1.170964e+13	0.000000e+00	4.739884e-01	6.580195e+14	2.379034e+14	5.251158e+14	1.538176e+04	8.630134e+03	3.470612e+03	0	8.067147e-04
6.600000e+08	1.124067e+13	0.000000e+00	4.739884e-01	6.527554e+14	2.407836e+14	5.225741e+14	1.535760e+04	8.645332e+03	3.476724e+03	0	7.957980e-04
6.700000e+08	1.077653e+13	0.000000e+00	4.739884e-01	6.475436e+14	2.436573e+14	5.200503e+14	1.533363e+04	8.660358e+03	3.482767e+03	0	7.846907e-04
6.800000e+08	1.031719e+13	0.000000e+00	4.739884e-01	6.423836e+14	2.465241e+14	5.175441e+14	1.530985e+04	8.675214e+03	3.488741e+03	0	7.733794e-04
6.900000e+08	9.862592e+12	0.000000e+00	4.739884e-01	6.372749e+14	2.493833e+14	5.150556e+14	1.528626e+04	8.689900e+03	3.494647e+03	0	7.618495e-04
7.000000e+08	9.412692e+12	0.000000e+00	4.739884e-01	6.322170e+14	2.522347e+14	5.125845e+14	1.526285e+04	8.704417e+03	3.500486e+03	0	7.500843e-04
7.100000e+08	8.967442e+12	0.000000e+00	4.739884e-01	6.272093e+14	2.550775e+14	5.101307e+14	1.523963e+04	8.718767e+03	3.506257e+03	0	7.380657e-04
7.200000e+08	8.526797e+12	0.000000e+00	4.739884e-01	6.222514e+14	2.579115e+14	5.076941e+14	1.521660e+04	8.732952e+03	3.511961e+03	0	7.257730e-04
7.300000e+08	8.090712e+12	0.000000e+00	4.739884e-01	6.173428e+14	2.607361e+14	5.052745e+14	1.519374e+04	8.746971e+03	3.517599e+03	0	7.131831e-04
7.400000e+08	7.659141e+12	0.000000e+00	4.739884e-01	6.124830e+14	2.635509e+14	5.028718e+14	1.517107e+04	8.760827e+03	3.523171e+03	0	7.002700e-04
7.500000e+08	7.232040e+12	0.000000e+00	4.739884e-01	6.076714e+14	2.663555e+14	5.004858e+14	1.514857e+04	8.774521e+03	3.528678e+03	0	6.870037e-04
7.600000e+08	6.809365e+12	0.000000e+00	4.739884e-01	6.029078e+14	2.691494e+14	4.981164e+14	1.512625e+04	8.788054e+03	3.534120e+03	0	6.733502e-04
7.700000e+08	6.391071e+12	0.000000e+00	4.739884e-01	5.981914e+14	2.719322e+14	4.957636e+14	1.510411e+04	8.801427e+03	3.539498e+03	0	6.592701e-04
7.800000e+08	5.977117e+12	0.000000e+00	4.739884e-01	5.935220e+14	2.747035e+14	4.934271e+14	1.508213e+04	8.814641e+03	3.544812e+03	0	6.447174e-04
7.900000e+08	5.567458e+12	0.000000e+00	4.739884e-01	5.888990e+14	2.774628e+14	4.911068e+14	1.506033e+04	8.827698e+03	3.550063e+03	0	6.296383e-04
8.000000e+08	5.162052e+12	0.000000e+00	4.739884e-01	5.843219e+14	2.802099e+14	4.888026e+14	1.503870e+04	8.840598e+03	3.555251e+03	0	6.139687e-04
8.100000e+08	4.760857e+12	0.000000e+00	4.739884e-01	5.797904e+14	2.829443e+14	4.865144e+14	1.501724e+04	8.853344e+03	3.560376e+03	0	5.976320e-04
8.200000e+08	4.363832e+12	0.000000e+00	4.739884e-01	5.753039e+14	2.856655e+14	4.842420e+14	1.499594e+04	8.865935e+03	3.565440e+03	0	5.805346e-04
8.300000e+08	3.970935e+12	0.000000e+00	4.739884e-01	5.708621e+14	2.883733e+14	4.819853e+14	1.497481e+04	8.878374e+03	3.570443e+03	0	5.625611e-04
8.400000e+08	3.582125e+12	0.000000e+00	4.739884e-01	5.664644e+14	2.910673e+14	4.797442e+14	1.495383e+04	8.890662e+03	3.575384e+03	0	5.435661e-04
8.500000e+08	3.197362e+12	0.000000e+00	4.739884e-01	5.621105e+14	2.937471e+14	4.775186e+14	1.493302e+04	8.902799e+03	3.580265e+03	0	5.233627e-04
8.600000e+08	2.816606e+12	0.000000e+00	4.739884e-01	5.577999e+14	2.964124e+14	4.753083e+14	1.491237e+04	8.914788e+03	3.585086e+03	0	5.017039e-04
8.700000e+08	2.439816e+12	0.000000e+00	4.739884e-01	5.535321e+14	2.990629e+14	4.731133e+14	1.489188e+04	8.926628e+03	3.589848e+03	0	4.782532e-04
8.800000e+08	2.066954e+12	0.000000e+00	4.739884e-01	5.493068e+14	3.016981e+14	4.709333e+14	1.487155e+04	8.938322e+03	3.594550e+03	0	4.525318e-04
8.900000e+08	1.697980e+12	0.000000e+00	4.739884e-01	5.451235e+14	3.043179e+14	4.687683e+14	1.485136e+04	8.949870e+03	3.599195e+03	0	4.238215e-04
9.000000e+08	1.332855e+12	0.000000e+00	4.739884e-01	5.409818e+14	3.069218e+14	4.666182e+14	1.483134e+04	8.961274e+03	3.603781e+03	0	3.909607e-04
9.100000e+08	9.715418e+11	0.000000e+00	4.739884e-01	5.368813e+14	3.095097e+14	4.644828e+14	1.481146e+04	8.972534e+03	3.608309e+03	0	3.518514e-04
9.200000e+08	6.140014e+11	0.000000e+00	4.739884e-01	5.328216e+14	3.120812e+14	4.623620e+14	1.479174e+04	8.983653e+03	3.612780e+03	0	3.019455e-04
9.300000e+08	2.601963e+11	0.000000e+00	4.739884e-01	5.288022e+14	3.146360e+14	4.602558e+14	1.477216e+04	8.994630e+03	3.617195e+03	0	2.267980e-04
9.400000e+08	-8.991083e+10	0.000000e+00	4.739884e-01	5.248229e+14	3.171738e+14	4.581639e+14	1.475273e+04	9.005468e+03	3.621553e+03	0	nan
