#t		Qconv[W]	Ri[Rp]		R*[Rp]		Qc[W]		Qm[W]		Qr[W]		Tcmb[K]		Tl[K]		Tup[K]		RiFlag		Bs[T]
0.000000e+00	1.527377e+14	0.000000e+00	4.797688e-01	2.395124e+15	5.657219e+13	8.590948e+14	2.113765e+04	8.221780e+03	2.973012e+03	0	1.870160e-03
1.000000e+07	1.498631e+14	0.000000e+00	4.797688e-01	2.367542e+15	5.910182e+13	8.543348e+14	2.107014e+04	8.267626e+03	2.989590e+03	0	1.858353e-03
2.000000e+07	1.470308e+14	0.000000e+00	4.797688e-01	2.340353e+15	6.169074e+13	8.496104e+14	2.100341e+04	8.312971e+03	3.005987e+03	0	1.846571e-03
3.000000e+07	1.442398e+14	0.000000e+00	4.797688e-01	2.313550e+15	6.433845e+13	8.449213e+14	2.093744e+04	8.357821e+03	3.022205e+03	0	1.834813e-03
4.000000e+07	1.414894e+14	0.000000e+00	4.797688e-01	2.287126e+15	6.704445e+13	8.402672e+14	2.087222e+04	8.402180e+03	3.038246e+03	0	1.823076e-03
5.000000e+07	1.387789e+14	0.000000e+00	4.797688e-01	2.261074e+15	6.980813e+13	8.356478e+14	2.080774e+04	8.446055e+03	3.054111e+03	0	1.811359e-03
6.000000e+07	1.361075e+14	0.000000e+00	4.797688e-01	2.235388e+15	7.262891e+13	8.310629e+14	2.074399e+04	8.489449e+03	3.069802e+03	0	1.799661e-03
7.000000e+07	1.334745e+14	0.000000e+00	4.797688e-01	2.210060e+15	7.550611e+13	8.265120e+14	2.068097e+04	8.532369e+03	3.085322e+03	0	1.787981e-03
8.000000e+07	1.308792e+14	0.000000e+00	4.797688e-01	2.185085e+15	7.843905e+13	8.219951e+14	2.061865e+04	8.574817e+03	3.100672e+03	0	1.776316e-03
9.000000e+07	1.283209e+14	0.000000e+00	4.797688e-01	2.160456e+15	8.142701e+13	8.175117e+14	2.055703e+04	8.616801e+03	3.115853e+03	0	1.764666e-03
1.000000e+08	1.257990e+14	0.000000e+00	4.797688e-01	2.136168e+15	8.446920e+13	8.130616e+14	2.049611e+04	8.658323e+03	3.130868e+03	0	1.753029e-03
1.100000e+08	1.233128e+14	0.000000e+00	4.797688e-01	2.112213e+15	8.756484e+13	8.086445e+14	2.043587e+04	8.699389e+03	3.145717e+03	0	1.741404e-03
1.200000e+08	1.208617e+14	0.000000e+00	4.797688e-01	2.088588e+15	9.071308e+13	8.042602e+14	2.037629e+04	8.740004e+03	3.160403e+03	0	1.729788e-03
1.300000e+08	1.184450e+14	0.000000e+00	4.797688e-01	2.065285e+15	9.391307e+13	7.999083e+14	2.031739e+04	8.780171e+03	3.174928e+03	0	1.718181e-03
1.400000e+08	1.160622e+14	0.000000e+00	4.797688e-01	2.042300e+15	9.716389e+13	7.955887e+14	2.025913e+04	8.819895e+03	3.189292e+03	0	1.706581e-03
1.500000e+08	1.137127e+14	0.000000e+00	4.797688e-01	2.019626e+15	1.004646e+14	7.913010e+14	2.020153e+04	8.859180e+03	3.203498e+03	0	1.694987e-03
1.600000e+08	1.113959e+14	0.000000e+00	4.797688e-01	1.997260e+15	1.038144e+14	7.870449e+14	2.014455e+04	8.898031e+03	3.217546e+03	0	1.683397e-03
1.700000e+08	1.091112e+14	0.000000e+00	4.797688e-01	1.975196e+15	1.072121e+14	7.828202e+14	2.008821e+04	8.936451e+03	3.231439e+03	0	1.671809e-03
1.800000e+08	1.068582e+14	0.000000e+00	4.797688e-01	1.953428e+15	1.106567e+14	7.786267e+14	2.003249e+04	8.974445e+03	3.245178e+03	0	1.660221e-03
1.900000e+08	1.046362e+14	0.000000e+00	4.797688e-01	1.931952e+15	1.141474e+14	7.744641e+14	1.997737e+04	9.012017e+03	3.258764e+03	0	1.648633e-03
2.000000e+08	1.024448e+14	0.000000e+00	4.797688e-01	1.910764e+15	1.176829e+14	7.703321e+14	1.992286e+04	9.049171e+03	3.272199e+03	0	1.637043e-03
2.100000e+08	1.002834e+14	0.000000e+00	4.797688e-01	1.889857e+15	1.212623e+14	7.662305e+14	1.986895e+04	9.085910e+03	3.285484e+03	0	1.625448e-03
2.200000e+08	9.815164e+13	0.000000e+00	4.797688e-01	1.869229e+15	1.248844e+14	7.621591e+14	1.981562e+04	9.122240e+03	3.298621e+03	0	1.613848e-03
2.300000e+08	9.604892e+13	0.000000e+00	4.797688e-01	1.848875e+15	1.285482e+14	7.581175e+14	1.976288e+04	9.158162e+03	3.311610e+03	0	1.602240e-03
2.400000e+08	9.397480e+13	0.000000e+00	4.797688e-01	1.828789e+15	1.322525e+14	7.541055e+14	1.971070e+04	9.193682e+03	3.324454e+03	0	1.590623e-03
2.500000e+08	9.192882e+13	0.000000e+00	4.797688e-01	1.808969e+15	1.359961e+14	7.501229e+14	1.965909e+04	9.228802e+03	3.337154e+03	0	1.578994e-03
2.600000e+08	8.991054e+13	0.000000e+00	4.797688e-01	1.789409e+15	1.397781e+14	7.461695e+14	1.960803e+04	9.263527e+03	3.349710e+03	0	1.567353e-03
2.700000e+08	8.791951e+13	0.000000e+00	4.797688e-01	1.770106e+15	1.435970e+14	7.422449e+14	1.955753e+04	9.297860e+03	3.362125e+03	0	1.555697e-03
2.800000e+08	8.595530e+13	0.000000e+00	4.797688e-01	1.751056e+15	1.474518e+14	7.383491e+14	1.950757e+04	9.331805e+03	3.374400e+03	0	1.544025e-03
2.900000e+08	8.401749e+13	0.000000e+00	4.797688e-01	1.732254e+15	1.513413e+14	7.344816e+14	1.945814e+04	9.365365e+03	3.386535e+03	0	1.532333e-03
3.000000e+08	8.210567e+13	0.000000e+00	4.797688e-01	1.713698e+15	1.552643e+14	7.306424e+14	1.940924e+04	9.398544e+03	3.398533e+03	0	1.520621e-03
3.100000e+08	8.021944e+13	0.000000e+00	4.797688e-01	1.695383e+15	1.592195e+14	7.268311e+14	1.936087e+04	9.431345e+03	3.410394e+03	0	1.508887e-03
3.200000e+08	7.835840e+13	0.000000e+00	4.797688e-01	1.677305e+15	1.632059e+14	7.230476e+14	1.931301e+04	9.463772e+03	3.422119e+03	0	1.497127e-03
3.300000e+08	7.652217e+13	0.000000e+00	4.797688e-01	1.659462e+15	1.672221e+14	7.192915e+14	1.926565e+04	9.495828e+03	3.433711e+03	0	1.485340e-03
3.400000e+08	7.471036e+13	0.000000e+00	4.797688e-01	1.641849e+15	1.712668e+14	7.155628e+14	1.921880e+04	9.527516e+03	3.445169e+03	0	1.473523e-03
3.500000e+08	7.292261e+13	0.000000e+00	4.797688e-01	1.624464e+15	1.753390e+14	7.118611e+14	1.917245e+04	9.558839e+03	3.456496e+03	0	1.461675e-03
3.600000e+08	7.115856e+13	0.000000e+00	4.797688e-01	1.607302e+15	1.794374e+14	7.081862e+14	1.912658e+04	9.589802e+03	3.467692e+03	0	1.449792e-03
3.700000e+08	6.941785e+13	0.000000e+00	4.797688e-01	1.590361e+15	1.835607e+14	7.045380e+14	1.908119e+04	9.620406e+03	3.478759e+03	0	1.437873e-03
3.800000e+08	6.770013e+13	0.000000e+00	4.797688e-01	1.573637e+15	1.877076e+14	7.009161e+14	1.903629e+04	9.650656e+03	3.489697e+03	0	1.425914e-03
3.900000e+08	6.600506e+13	0.000000e+00	4.797688e-01	1.557127e+15	1.918771e+14	6.973204e+14	1.899185e+04	9.680555e+03	3.500508e+03	0	1.413912e-03
4.000000e+08	6.433232e+13	0.000000e+00	4.797688e-01	1.540828e+15	1.960677e+14	6.937507e+14	1.894788e+04	9.710104e+03	3.511194e+03	0	1.401866e-03
4.100000e+08	6.268156e+13	0.000000e+00	4.797688e-01	1.524737e+15	2.002784e+14	6.902068e+14	1.890436e+04	9.739309e+03	3.521754e+03	0	1.389771e-03
4.200000e+08	6.105248e+13	0.000000e+00	4.797688e-01	1.508851e+15	2.045078e+14	6.866884e+14	1.886130e+04	9.768171e+03	3.532191e+03	0	1.377625e-03
4.300000e+08	5.944475e+13	0.000000e+00	4.797688e-01	1.493167e+15	2.087548e+14	6.831953e+14	1.881869e+04	9.796695e+03	3.542505e+03	0	1.365425e-03
4.400000e+08	5.785808e+13	0.000000e+00	4.797688e-01	1.477682e+15	2.130180e+14	6.797273e+14	1.877651e+04	9.824882e+03	3.552697e+03	0	1.353167e-03
4.500000e+08	5.629214e+13	0.000000e+00	4.797688e-01	1.462394e+15	2.172965e+14	6.762843e+14	1.873478e+04	9.852736e+03	3.562769e+03	0	1.340847e-03
4.600000e+08	5.474666e+13	0.000000e+00	4.797688e-01	1.447299e+15	2.215888e+14	6.728660e+14	1.869347e+04	9.880259e+03	3.572722e+03	0	1.328462e-03
4.700000e+08	5.322133e+13	0.000000e+00	4.797688e-01	1.432395e+15	2.258938e+14	6.694722e+14	1.865259e+04	9.907456e+03	3.582556e+03	0	1.316008e-03
4.800000e+08	5.171588e+13	0.000000e+00	4.797688e-01	1.417679e+15	2.302103e+14	6.661027e+14	1.861213e+04	9.934328e+03	3.592273e+03	0	1.303481e-03
4.900000e+08	5.023002e+13	0.000000e+00	4.797688e-01	1.403149e+15	2.345371e+14	6.627574e+14	1.857208e+04	9.960879e+03	3.601874e+03	0	1.290876e-03
5.000000e+08	4.876347e+13	0.000000e+00	4.797688e-01	1.388801e+15	2.388731e+14	6.594359e+14	1.853244e+04	9.987111e+03	3.611360e+03	0	1.278188e-03
5.100000e+08	4.731596e+13	0.000000e+00	4.797688e-01	1.374635e+15	2.432171e+14	6.561382e+14	1.849320e+04	1.001303e+04	3.620731e+03	0	1.265414e-03
5.200000e+08	4.588724e+13	0.000000e+00	4.797688e-01	1.360646e+15	2.475679e+14	6.528641e+14	1.845437e+04	1.003863e+04	3.629989e+03	0	1.252547e-03
5.300000e+08	4.447703e+13	0.000000e+00	4.797688e-01	1.346832e+15	2.519243e+14	6.496133e+14	1.841592e+04	1.006392e+04	3.639135e+03	0	1.239582e-03
5.400000e+08	4.308509e+13	0.000000e+00	4.797688e-01	1.333192e+15	2.562853e+14	6.463856e+14	1.837787e+04	1.008891e+04	3.648170e+03	0	1.226514e-03
5.500000e+08	4.171115e+13	0.000000e+00	4.797688e-01	1.319722e+15	2.606498e+14	6.431809e+14	1.834020e+04	1.011359e+04	3.657095e+03	0	1.213335e-03
5.600000e+08	4.035498e+13	0.000000e+00	4.797688e-01	1.306421e+15	2.650166e+14	6.399990e+14	1.830291e+04	1.013797e+04	3.665911e+03	0	1.200040e-03
5.700000e+08	3.901632e+13	0.000000e+00	4.797688e-01	1.293286e+15	2.693845e+14	6.368397e+14	1.826600e+04	1.016205e+04	3.674618e+03	0	1.186621e-03
5.800000e+08	3.769494e+13	0.000000e+00	4.797688e-01	1.280315e+15	2.737527e+14	6.337028e+14	1.822945e+04	1.018583e+04	3.683219e+03	0	1.173071e-03
5.900000e+08	3.639061e+13	0.000000e+00	4.797688e-01	1.267506e+15	2.781198e+14	6.305881e+14	1.819327e+04	1.020933e+04	3.691713e+03	0	1.159382e-03
6.000000e+08	3.510309e+13	0.000000e+00	4.797688e-01	1.254856e+15	2.824851e+14	6.274955e+14	1.815745e+04	1.023252e+04	3.700102e+03	0	1.145544e-03
6.100000e+08	3.383215e+13	0.000000e+00	4.797688e-01	1.242364e+15	2.868473e+14	6.244247e+14	1.812199e+04	1.025544e+04	3.708386e+03	0	1.131549e-03
6.200000e+08	3.257757e+13	0.000000e+00	4.797688e-01	1.230026e+15	2.912054e+14	6.213757e+14	1.808688e+04	1.027806e+04	3.716568e+03	0	1.117385e-03
6.300000e+08	3.133913e+13	0.000000e+00	4.797688e-01	1.217842e+15	2.955585e+14	6.183482e+14	1.805211e+04	1.030040e+04	3.724646e+03	0	1.103043e-03
6.400000e+08	3.011662e+13	0.000000e+00	4.797688e-01	1.205809e+15	2.999055e+14	6.153420e+14	1.801769e+04	1.032246e+04	3.732624e+03	0	1.088509e-03
6.500000e+08	2.890981e+13	0.000000e+00	4.797688e-01	1.193926e+15	3.042455e+14	6.123570e+14	1.798361e+04	1.034425e+04	3.740500e+03	0	1.073771e-03
6.600000e+08	2.771851e+13	0.000000e+00	4.797688e-01	1.182189e+15	3.085776e+14	6.093930e+14	1.794987e+04	1.036575e+04	3.748278e+03	0	1.058815e-03
6.700000e+08	2.654249e+13	0.000000e+00	4.797688e-01	1.170598e+15	3.129007e+14	6.064499e+14	1.791645e+04	1.038699e+04	3.755956e+03	0	1.043624e-03
6.800000e+08	2.538157e+13	0.000000e+00	4.797688e-01	1.159150e+15	3.172139e+14	6.035274e+14	1.788336e+04	1.040795e+04	3.763537e+03	0	1.028181e-03
6.900000e+08	2.423553e+13	0.000000e+00	4.797688e-01	1.147843e+15	3.215164e+14	6.006254e+14	1.785060e+04	1.042865e+04	3.771020e+03	0	1.012467e-03
7.000000e+08	2.310419e+13	0.000000e+00	4.797688e-01	1.136676e+15	3.258072e+14	5.977438e+14	1.781815e+04	1.044908e+04	3.778408e+03	0	9.964609e-04
7.100000e+08	2.198734e+13	0.000000e+00	4.797688e-01	1.125647e+15	3.300855e+14	5.948823e+14	1.778602e+04	1.046925e+04	3.785701e+03	0	9.801388e-04
7.200000e+08	2.088479e+13	0.000000e+00	4.797688e-01	1.114754e+15	3.343503e+14	5.920409e+14	1.775419e+04	1.048915e+04	3.792899e+03	0	9.634742e-04
7.300000e+08	1.979637e+13	0.000000e+00	4.797688e-01	1.103995e+15	3.386011e+14	5.892193e+14	1.772268e+04	1.050880e+04	3.800004e+03	0	9.464373e-04
7.400000e+08	1.872187e+13	0.000000e+00	4.797688e-01	1.093368e+15	3.428367e+14	5.864174e+14	1.769147e+04	1.052820e+04	3.807017e+03	0	9.289944e-04
7.500000e+08	1.766112e+13	0.000000e+00	4.797688e-01	1.082872e+15	3.470563e+14	5.836350e+14	1.766056e+04	1.054734e+04	3.813938e+03	0	9.111071e-04
7.600000e+08	1.661394e+13	0.000000e+00	4.797688e-01	1.072505e+15	3.512595e+14	5.808720e+14	1.762994e+04	1.056622e+04	3.820768e+03	0	8.927316e-04
7.700000e+08	1.558014e+13	0.000000e+00	4.797688e-01	1.062265e+15	3.554451e+14	5.781283e+14	1.759962e+04	1.058486e+04	3.827509e+03	0	8.738171e-04
7.800000e+08	1.455956e+13	0.000000e+00	4.797688e-01	1.052151e+15	3.596127e+14	5.754036e+14	1.756958e+04	1.060326e+04	3.834160e+03	0	8.543047e-04
7.900000e+08	1.355202e+13	0.000000e+00	4.797688e-01	1.042161e+15	3.637613e+14	5.726978e+14	1.753983e+04	1.062141e+04	3.840724e+03	0	8.341255e-04
8.000000e+08	1.255735e+13	0.000000e+00	4.797688e-01	1.032293e+15	3.678903e+14	5.700108e+14	1.751036e+04	1.063932e+04	3.847199e+03	0	8.131976e-04
8.100000e+08	1.157538e+13	0.000000e+00	4.797688e-01	1.022546e+15	3.719991e+14	5.673425e+14	1.748117e+04	1.065699e+04	3.853589e+03	0	7.914227e-04
8.200000e+08	1.060595e+13	0.000000e+00	4.797688e-01	1.012918e+15	3.760869e+14	5.646925e+14	1.745226e+04	1.067442e+04	3.859893e+03	0	7.686818e-04
8.300000e+08	9.648893e+12	0.000000e+00	4.797688e-01	1.003408e+15	3.801531e+14	5.620610e+14	1.742361e+04	1.069162e+04	3.866112e+03	0	7.448278e-04
8.400000e+08	8.704046e+12	0.000000e+00	4.797688e-01	9.940147e+14	3.841969e+14	5.594475e+14	1.739524e+04	1.070859e+04	3.872247e+03	0	7.196761e-04
8.500000e+08	7.771252e+12	0.000000e+00	4.797688e-01	9.847357e+14	3.882178e+14	5.568522e+14	1.736713e+04	1.072532e+04	3.878298e+03	0	6.929901e-04
8.600000e+08	6.850355e+12	0.000000e+00	4.797688e-01	9.755698e+14	3.922154e+14	5.542747e+14	1.733928e+04	1.074183e+04	3.884268e+03	0	6.644583e-04
8.700000e+08	5.941198e+12	0.000000e+00	4.797688e-01	9.665157e+14	3.961888e+14	5.517149e+14	1.731169e+04	1.075811e+04	3.890155e+03	0	6.336577e-04
8.800000e+08	5.043631e+12	0.000000e+00	4.797688e-01	9.575720e+14	4.001375e+14	5.491728e+14	1.728436e+04	1.077417e+04	3.895962e+03	0	5.999907e-04
8.900000e+08	4.157503e+12	0.000000e+00	4.797688e-01	9.487371e+14	4.040611e+14	5.466481e+14	1.725727e+04	1.079001e+04	3.901689e+03	0	5.625670e-04
9.000000e+08	3.282665e+12	0.000000e+00	4.797688e-01	9.400097e+14	4.079589e+14	5.441408e+14	1.723044e+04	1.080563e+04	3.907337e+03	0	5.199627e-04
9.100000e+08	2.418970e+12	0.000000e+00	4.797688e-01	9.313884e+14	4.118305e+14	5.416506e+14	1.720385e+04	1.082103e+04	3.912906e+03	0	4.696491e-04
9.200000e+08	1.566275e+12	0.000000e+00	4.797688e-01	9.228718e+14	4.156754e+14	5.391775e+14	1.717751e+04	1.083622e+04	3.918398e+03	0	4.063055e-04
9.300000e+08	7.244362e+11	0.000000e+00	4.797688e-01	9.144587e+14	4.194929e+14	5.367213e+14	1.715141e+04	1.085119e+04	3.923813e+03	0	3.142173e-04
9.400000e+08	-1.066864e+11	0.000000e+00	4.797688e-01	9.061476e+14	4.232828e+14	5.342819e+14	1.712554e+04	1.086595e+04	3.929151e+03	0	nan
