#t		Qconv[W]	Ri[Rp]		R*[Rp]		Qc[W]		Qm[W]		Qr[W]		Tcmb[K]		Tl[K]		Tup[K]		RiFlag		Bs[T]
0.000000e+00	1.521364e+12	0.000000e+00	7.236843e-01	6.540670e+13	2.053104e+13	1.663351e+13	5.998498e+03	2.382406e+03	2.184544e+03	0	3.956353e-04
1.000000e+07	1.489339e+12	0.000000e+00	7.236843e-01	6.403941e+13	2.219463e+13	1.654135e+13	5.962227e+03	2.411939e+03	2.211624e+03	0	3.928396e-04
2.000000e+07	1.457639e+12	0.000000e+00	7.236843e-01	6.268602e+13	2.386393e+13	1.644988e+13	5.926707e+03	2.439949e+03	2.237308e+03	0	3.900324e-04
3.000000e+07	1.426314e+12	0.000000e+00	7.236843e-01	6.134868e+13	2.552775e+13	1.635909e+13	5.891932e+03	2.466444e+03	2.261602e+03	0	3.872183e-04
4.000000e+07	1.395411e+12	0.000000e+00	7.236843e-01	6.002937e+13	2.717529e+13	1.626898e+13	5.857892e+03	2.491436e+03	2.284519e+03	0	3.844013e-04
5.000000e+07	1.364972e+12	0.000000e+00	7.236843e-01	5.872990e+13	2.879634e+13	1.617954e+13	5.824578e+03	2.514946e+03	2.306076e+03	0	3.815856e-04
6.000000e+07	1.335036e+12	0.000000e+00	7.236843e-01	5.745189e+13	3.038139e+13	1.609077e+13	5.791979e+03	2.536998e+03	2.326297e+03	0	3.787753e-04
7.000000e+07	1.305635e+12	0.000000e+00	7.236843e-01	5.619679e+13	3.192182e+13	1.600266e+13	5.760083e+03	2.557624e+03	2.345209e+03	0	3.759742e-04
8.000000e+07	1.276800e+12	0.000000e+00	7.236843e-01	5.496582e+13	3.340993e+13	1.591520e+13	5.728879e+03	2.576857e+03	2.362846e+03	0	3.731857e-04
9.000000e+07	1.248555e+12	0.000000e+00	7.236843e-01	5.376005e+13	3.483905e+13	1.582839e+13	5.698353e+03	2.594738e+03	2.379241e+03	0	3.704133e-04
1.000000e+08	1.220920e+12	0.000000e+00	7.236843e-01	5.258033e+13	3.620352e+13	1.574223e+13	5.668491e+03	2.611309e+03	2.394436e+03	0	3.676601e-04
1.100000e+08	1.193912e+12	0.000000e+00	7.236843e-01	5.142735e+13	3.749872e+13	1.565671e+13	5.639279e+03	2.626616e+03	2.408472e+03	0	3.649288e-04
1.200000e+08	1.167541e+12	0.000000e+00	7.236843e-01	5.030160e+13	3.872106e+13	1.557182e+13	5.610703e+03	2.640706e+03	2.421392e+03	0	3.622220e-04
1.300000e+08	1.141817e+12	0.000000e+00	7.236843e-01	4.920344e+13	3.986791e+13	1.548756e+13	5.582748e+03	2.653630e+03	2.433242e+03	0	3.595420e-04
1.400000e+08	1.116744e+12	0.000000e+00	7.236843e-01	4.813304e+13	4.093756e+13	1.540393e+13	5.555399e+03	2.665438e+03	2.444070e+03	0	3.568907e-04
1.500000e+08	1.092323e+12	0.000000e+00	7.236843e-01	4.709047e+13	4.192913e+13	1.532091e+13	5.528640e+03	2.676182e+03	2.453922e+03	0	3.542700e-04
1.600000e+08	1.068552e+12	0.000000e+00	7.236843e-01	4.607565e+13	4.284253e+13	1.523851e+13	5.502456e+03	2.685915e+03	2.462846e+03	0	3.516813e-04
1.700000e+08	1.045427e+12	0.000000e+00	7.236843e-01	4.508841e+13	4.367832e+13	1.515671e+13	5.476832e+03	2.694687e+03	2.470889e+03	0	3.491259e-04
1.800000e+08	1.022943e+12	0.000000e+00	7.236843e-01	4.412847e+13	4.443768e+13	1.507552e+13	5.451754e+03	2.702550e+03	2.478099e+03	0	3.466048e-04
1.900000e+08	1.001090e+12	0.000000e+00	7.236843e-01	4.319547e+13	4.512230e+13	1.499492e+13	5.427206e+03	2.709554e+03	2.484522e+03	0	3.441188e-04
2.000000e+08	9.798579e+11	0.000000e+00	7.236843e-01	4.228898e+13	4.573428e+13	1.491492e+13	5.403173e+03	2.715750e+03	2.490203e+03	0	3.416686e-04
2.100000e+08	9.592359e+11	0.000000e+00	7.236843e-01	4.140850e+13	4.627608e+13	1.483550e+13	5.379641e+03	2.721184e+03	2.495186e+03	0	3.392547e-04
2.200000e+08	9.392110e+11	0.000000e+00	7.236843e-01	4.055350e+13	4.675044e+13	1.475667e+13	5.356595e+03	2.725903e+03	2.499513e+03	0	3.368773e-04
2.300000e+08	9.197696e+11	0.000000e+00	7.236843e-01	3.972339e+13	4.716031e+13	1.467842e+13	5.334022e+03	2.729952e+03	2.503226e+03	0	3.345367e-04
2.400000e+08	9.008974e+11	0.000000e+00	7.236843e-01	3.891756e+13	4.750879e+13	1.460074e+13	5.311908e+03	2.733375e+03	2.506364e+03	0	3.322328e-04
2.500000e+08	8.825796e+11	0.000000e+00	7.236843e-01	3.813538e+13	4.779907e+13	1.452363e+13	5.290240e+03	2.736212e+03	2.508965e+03	0	3.299656e-04
2.600000e+08	8.648008e+11	0.000000e+00	7.236843e-01	3.737620e+13	4.803440e+13	1.444709e+13	5.269004e+03	2.738502e+03	2.511066e+03	0	3.277350e-04
2.700000e+08	8.475456e+11	0.000000e+00	7.236843e-01	3.663935e+13	4.821804e+13	1.437110e+13	5.248188e+03	2.740284e+03	2.512699e+03	0	3.255406e-04
2.800000e+08	8.307983e+11	0.000000e+00	7.236843e-01	3.592418e+13	4.835322e+13	1.429567e+13	5.227780e+03	2.741592e+03	2.513899e+03	0	3.233821e-04
2.900000e+08	8.145435e+11	0.000000e+00	7.236843e-01	3.523001e+13	4.844314e+13	1.422079e+13	5.207767e+03	2.742461e+03	2.514696e+03	0	3.212591e-04
3.000000e+08	7.987655e+11	0.000000e+00	7.236843e-01	3.455618e+13	4.849088e+13	1.414646e+13	5.188139e+03	2.742922e+03	2.515118e+03	0	3.191713e-04
3.100000e+08	7.834490e+11	0.000000e+00	7.236843e-01	3.390204e+13	4.849947e+13	1.407267e+13	5.168884e+03	2.743004e+03	2.515194e+03	0	3.171181e-04
3.200000e+08	7.685789e+11	0.000000e+00	7.236843e-01	3.326694e+13	4.847182e+13	1.399941e+13	5.149991e+03	2.742738e+03	2.514949e+03	0	3.150989e-04
3.300000e+08	7.541403e+11	0.000000e+00	7.236843e-01	3.265025e+13	4.841071e+13	1.392669e+13	5.131450e+03	2.742148e+03	2.514408e+03	0	3.131133e-04
3.400000e+08	7.401186e+11	0.000000e+00	7.236843e-01	3.205135e+13	4.831881e+13	1.385449e+13	5.113250e+03	2.741259e+03	2.513594e+03	0	3.111605e-04
3.500000e+08	7.264997e+11	0.000000e+00	7.236843e-01	3.146963e+13	4.819866e+13	1.378282e+13	5.095382e+03	2.740096e+03	2.512527e+03	0	3.092402e-04
3.600000e+08	7.132697e+11	0.000000e+00	7.236843e-01	3.090450e+13	4.805264e+13	1.371167e+13	5.077837e+03	2.738679e+03	2.511228e+03	0	3.073515e-04
3.700000e+08	7.004152e+11	0.000000e+00	7.236843e-01	3.035540e+13	4.788304e+13	1.364103e+13	5.060605e+03	2.737030e+03	2.509716e+03	0	3.054939e-04
3.800000e+08	6.879232e+11	0.000000e+00	7.236843e-01	2.982176e+13	4.769198e+13	1.357091e+13	5.043677e+03	2.735166e+03	2.508007e+03	0	3.036669e-04
3.900000e+08	6.757811e+11	0.000000e+00	7.236843e-01	2.930304e+13	4.748147e+13	1.350129e+13	5.027045e+03	2.733107e+03	2.506119e+03	0	3.018696e-04
4.000000e+08	6.639765e+11	0.000000e+00	7.236843e-01	2.879873e+13	4.725338e+13	1.343217e+13	5.010700e+03	2.730868e+03	2.504066e+03	0	3.001016e-04
4.100000e+08	6.524979e+11	0.000000e+00	7.236843e-01	2.830833e+13	4.700945e+13	1.336356e+13	4.994635e+03	2.728465e+03	2.501862e+03	0	2.983622e-04
4.200000e+08	6.413337e+11	0.000000e+00	7.236843e-01	2.783134e+13	4.675134e+13	1.329543e+13	4.978843e+03	2.725912e+03	2.499521e+03	0	2.966507e-04
4.300000e+08	6.304730e+11	0.000000e+00	7.236843e-01	2.736730e+13	4.648055e+13	1.322780e+13	4.963314e+03	2.723222e+03	2.497055e+03	0	2.949666e-04
4.400000e+08	6.199052e+11	0.000000e+00	7.236843e-01	2.691576e+13	4.619851e+13	1.316066e+13	4.948044e+03	2.720408e+03	2.494475e+03	0	2.933093e-04
4.500000e+08	6.096201e+11	0.000000e+00	7.236843e-01	2.647628e+13	4.590650e+13	1.309400e+13	4.933023e+03	2.717482e+03	2.491791e+03	0	2.916781e-04
4.600000e+08	5.996081e+11	0.000000e+00	7.236843e-01	2.604845e+13	4.560575e+13	1.302781e+13	4.918247e+03	2.714454e+03	2.489014e+03	0	2.900725e-04
4.700000e+08	5.898595e+11	0.000000e+00	7.236843e-01	2.563186e+13	4.529737e+13	1.296210e+13	4.903708e+03	2.711333e+03	2.486153e+03	0	2.884919e-04
4.800000e+08	5.803654e+11	0.000000e+00	7.236843e-01	2.522614e+13	4.498240e+13	1.289686e+13	4.889401e+03	2.708129e+03	2.483215e+03	0	2.869357e-04
4.900000e+08	5.711170e+11	0.000000e+00	7.236843e-01	2.483090e+13	4.466177e+13	1.283209e+13	4.875318e+03	2.704851e+03	2.480210e+03	0	2.854034e-04
5.000000e+08	5.621061e+11	0.000000e+00	7.236843e-01	2.444579e+13	4.433638e+13	1.276778e+13	4.861456e+03	2.701507e+03	2.477143e+03	0	2.838944e-04
5.100000e+08	5.533244e+11	0.000000e+00	7.236843e-01	2.407046e+13	4.400701e+13	1.270393e+13	4.847807e+03	2.698103e+03	2.474021e+03	0	2.824082e-04
5.200000e+08	5.447643e+11	0.000000e+00	7.236843e-01	2.370459e+13	4.367441e+13	1.264054e+13	4.834366e+03	2.694646e+03	2.470852e+03	0	2.809443e-04
5.300000e+08	5.364184e+11	0.000000e+00	7.236843e-01	2.334786e+13	4.333924e+13	1.257760e+13	4.821129e+03	2.691143e+03	2.467640e+03	0	2.795022e-04
5.400000e+08	5.282795e+11	0.000000e+00	7.236843e-01	2.299997e+13	4.300213e+13	1.251511e+13	4.808090e+03	2.687599e+03	2.464391e+03	0	2.780814e-04
5.500000e+08	5.203408e+11	0.000000e+00	7.236843e-01	2.266061e+13	4.266364e+13	1.245306e+13	4.795244e+03	2.684021e+03	2.461109e+03	0	2.766814e-04
5.600000e+08	5.125956e+11	0.000000e+00	7.236843e-01	2.232952e+13	4.232428e+13	1.239145e+13	4.782587e+03	2.680412e+03	2.457800e+03	0	2.753018e-04
5.700000e+08	5.050377e+11	0.000000e+00	7.236843e-01	2.200642e+13	4.198451e+13	1.233028e+13	4.770114e+03	2.676777e+03	2.454467e+03	0	2.739420e-04
5.800000e+08	4.976609e+11	0.000000e+00	7.236843e-01	2.169105e+13	4.164477e+13	1.226955e+13	4.757820e+03	2.673120e+03	2.451114e+03	0	2.726017e-04
5.900000e+08	4.904594e+11	0.000000e+00	7.236843e-01	2.138317e+13	4.130543e+13	1.220924e+13	4.745702e+03	2.669446e+03	2.447745e+03	0	2.712804e-04
6.000000e+08	4.834276e+11	0.000000e+00	7.236843e-01	2.108252e+13	4.096684e+13	1.214936e+13	4.733755e+03	2.665758e+03	2.444363e+03	0	2.699777e-04
6.100000e+08	4.765601e+11	0.000000e+00	7.236843e-01	2.078889e+13	4.062932e+13	1.208991e+13	4.721975e+03	2.662059e+03	2.440971e+03	0	2.686932e-04
6.200000e+08	4.698517e+11	0.000000e+00	7.236843e-01	2.050205e+13	4.029316e+13	1.203087e+13	4.710358e+03	2.658352e+03	2.437572e+03	0	2.674264e-04
6.300000e+08	4.632973e+11	0.000000e+00	7.236843e-01	2.022179e+13	3.995861e+13	1.197225e+13	4.698901e+03	2.654640e+03	2.434169e+03	0	2.661771e-04
6.400000e+08	4.568923e+11	0.000000e+00	7.236843e-01	1.994790e+13	3.962590e+13	1.191405e+13	4.687600e+03	2.650926e+03	2.430763e+03	0	2.649448e-04
6.500000e+08	4.506319e+11	0.000000e+00	7.236843e-01	1.968018e+13	3.929523e+13	1.185626e+13	4.676451e+03	2.647211e+03	2.427357e+03	0	2.637291e-04
6.600000e+08	4.445118e+11	0.000000e+00	7.236843e-01	1.941845e+13	3.896679e+13	1.179887e+13	4.665451e+03	2.643499e+03	2.423953e+03	0	2.625297e-04
6.700000e+08	4.385276e+11	0.000000e+00	7.236843e-01	1.916252e+13	3.864074e+13	1.174188e+13	4.654596e+03	2.639790e+03	2.420552e+03	0	2.613463e-04
6.800000e+08	4.326752e+11	0.000000e+00	7.236843e-01	1.891222e+13	3.831723e+13	1.168530e+13	4.643884e+03	2.636088e+03	2.417157e+03	0	2.601785e-04
6.900000e+08	4.269508e+11	0.000000e+00	7.236843e-01	1.866738e+13	3.799639e+13	1.162911e+13	4.633312e+03	2.632393e+03	2.413769e+03	0	2.590260e-04
7.000000e+08	4.213503e+11	0.000000e+00	7.236843e-01	1.842784e+13	3.767831e+13	1.157332e+13	4.622875e+03	2.628707e+03	2.410389e+03	0	2.578884e-04
7.100000e+08	4.158703e+11	0.000000e+00	7.236843e-01	1.819344e+13	3.736310e+13	1.151792e+13	4.612572e+03	2.625031e+03	2.407019e+03	0	2.567655e-04
7.200000e+08	4.105070e+11	0.000000e+00	7.236843e-01	1.796402e+13	3.705086e+13	1.146290e+13	4.602400e+03	2.621368e+03	2.403660e+03	0	2.556570e-04
7.300000e+08	4.052573e+11	0.000000e+00	7.236843e-01	1.773945e+13	3.674164e+13	1.140827e+13	4.592355e+03	2.617717e+03	2.400312e+03	0	2.545625e-04
7.400000e+08	4.001176e+11	0.000000e+00	7.236843e-01	1.751958e+13	3.643550e+13	1.135402e+13	4.582435e+03	2.614080e+03	2.396977e+03	0	2.534817e-04
7.500000e+08	3.950849e+11	0.000000e+00	7.236843e-01	1.730427e+13	3.613251e+13	1.130015e+13	4.572638e+03	2.610458e+03	2.393656e+03	0	2.524145e-04
7.600000e+08	3.901562e+11	0.000000e+00	7.236843e-01	1.709341e+13	3.583269e+13	1.124665e+13	4.562960e+03	2.606852e+03	2.390349e+03	0	2.513604e-04
7.700000e+08	3.853284e+11	0.000000e+00	7.236843e-01	1.688685e+13	3.553610e+13	1.119353e+13	4.553400e+03	2.603262e+03	2.387058e+03	0	2.503193e-04
7.800000e+08	3.805987e+11	0.000000e+00	7.236843e-01	1.668449e+13	3.524273e+13	1.114078e+13	4.543955e+03	2.599690e+03	2.383782e+03	0	2.492910e-04
7.900000e+08	3.759645e+11	0.000000e+00	7.236843e-01	1.648619e+13	3.495263e+13	1.108839e+13	4.534623e+03	2.596136e+03	2.380523e+03	0	2.482750e-04
8.000000e+08	3.714229e+11	0.000000e+00	7.236843e-01	1.629186e+13	3.466579e+13	1.103636e+13	4.525401e+03	2.592600e+03	2.377281e+03	0	2.472713e-04
8.100000e+08	3.669716e+11	0.000000e+00	7.236843e-01	1.610138e+13	3.438224e+13	1.098470e+13	4.516287e+03	2.589083e+03	2.374056e+03	0	2.462795e-04
8.200000e+08	3.626080e+11	0.000000e+00	7.236843e-01	1.591465e+13	3.410197e+13	1.093339e+13	4.507279e+03	2.585585e+03	2.370849e+03	0	2.452994e-04
8.300000e+08	3.583297e+11	0.000000e+00	7.236843e-01	1.573155e+13	3.382497e+13	1.088244e+13	4.498376e+03	2.582108e+03	2.367660e+03	0	2.443309e-04
8.400000e+08	3.541345e+11	0.000000e+00	7.236843e-01	1.555201e+13	3.355124e+13	1.083184e+13	4.489575e+03	2.578650e+03	2.364490e+03	0	2.433736e-04
8.500000e+08	3.500200e+11	0.000000e+00	7.236843e-01	1.537592e+13	3.328077e+13	1.078159e+13	4.480873e+03	2.575213e+03	2.361338e+03	0	2.424274e-04
8.600000e+08	3.459843e+11	0.000000e+00	7.236843e-01	1.520318e+13	3.301354e+13	1.073168e+13	4.472270e+03	2.571797e+03	2.358206e+03	0	2.414921e-04
8.700000e+08	3.420251e+11	0.000000e+00	7.236843e-01	1.503372e+13	3.274954e+13	1.068212e+13	4.463763e+03	2.568402e+03	2.355093e+03	0	2.405674e-04
8.800000e+08	3.381405e+11	0.000000e+00	7.236843e-01	1.486744e+13	3.248874e+13	1.063290e+13	4.455350e+03	2.565028e+03	2.351999e+03	0	2.396531e-04
8.900000e+08	3.343285e+11	0.000000e+00	7.236843e-01	1.470427e+13	3.223113e+13	1.058402e+13	4.447031e+03	2.561675e+03	2.348925e+03	0	2.387492e-04
9.000000e+08	3.305873e+11	0.000000e+00	7.236843e-01	1.454412e+13	3.197668e+13	1.053547e+13	4.438802e+03	2.558344e+03	2.345870e+03	0	2.378553e-04
9.100000e+08	3.269151e+11	0.000000e+00	7.236843e-01	1.438691e+13	3.172536e+13	1.048726e+13	4.430662e+03	2.555035e+03	2.342836e+03	0	2.369713e-04
9.200000e+08	3.233101e+11	0.000000e+00	7.236843e-01	1.423257e+13	3.147714e+13	1.043938e+13	4.422610e+03	2.551747e+03	2.339821e+03	0	2.360970e-04
9.300000e+08	3.197705e+11	0.000000e+00	7.236843e-01	1.408103e+13	3.123199e+13	1.039182e+13	4.414644e+03	2.548481e+03	2.336826e+03	0	2.352323e-04
9.400000e+08	3.162948e+11	0.000000e+00	7.236843e-01	1.393222e+13	3.098989e+13	1.034459e+13	4.406763e+03	2.545237e+03	2.333851e+03	0	2.343769e-04
9.500000e+08	3.128813e+11	0.000000e+00	7.236843e-01	1.378607e+13	3.075080e+13	1.029768e+13	4.398964e+03	2.542014e+03	2.330896e+03	0	2.335307e-04
9.600000e+08	3.095286e+11	0.000000e+00	7.236843e-01	1.364250e+13	3.051469e+13	1.025109e+13	4.391248e+03	2.538813e+03	2.327961e+03	0	2.326935e-04
9.700000e+08	3.062350e+11	0.000000e+00	7.236843e-01	1.350147e+13	3.028151e+13	1.020482e+13	4.383611e+03	2.535634e+03	2.325046e+03	0	2.318653e-04
9.800000e+08	3.029992e+11	0.000000e+00	7.236843e-01	1.336291e+13	3.005125e+13	1.015887e+13	4.376053e+03	2.532477e+03	2.322151e+03	0	2.310457e-04
9.900000e+08	2.998197e+11	0.000000e+00	7.236843e-01	1.322675e+13	2.982386e+13	1.011322e+13	4.368572e+03	2.529341e+03	2.319276e+03	0	2.302347e-04
1.000000e+09	2.966953e+11	0.000000e+00	7.236843e-01	1.309294e+13	2.959930e+13	1.006789e+13	4.361167e+03	2.526227e+03	2.316421e+03	0	2.294322e-04
1.010000e+09	2.936245e+11	0.000000e+00	7.236843e-01	1.296143e+13	2.937754e+13	1.002286e+13	4.353836e+03	2.523135e+03	2.313585e+03	0	2.286379e-04
1.020000e+09	2.906061e+11	0.000000e+00	7.236843e-01	1.283215e+13	2.915855e+13	9.978139e+12	4.346580e+03	2.520063e+03	2.310769e+03	0	2.278517e-04
1.030000e+09	2.876389e+11	0.000000e+00	7.236843e-01	1.270506e+13	2.894228e+13	9.933719e+12	4.339395e+03	2.517014e+03	2.307972e+03	0	2.270736e-04
1.040000e+09	2.847216e+11	0.000000e+00	7.236843e-01	1.258011e+13	2.872870e+13	9.889600e+12	4.332281e+03	2.513985e+03	2.305195e+03	0	2.263033e-04
1.050000e+09	2.818531e+11	0.000000e+00	7.236843e-01	1.245723e+13	2.851778e+13	9.845779e+12	4.325237e+03	2.510977e+03	2.302437e+03	0	2.255407e-04
1.060000e+09	2.790322e+11	0.000000e+00	7.236843e-01	1.233640e+13	2.830946e+13	9.802254e+12	4.318261e+03	2.507991e+03	2.299699e+03	0	2.247858e-04
1.070000e+09	2.762579e+11	0.000000e+00	7.236843e-01	1.221755e+13	2.810374e+13	9.759022e+12	4.311353e+03	2.505025e+03	2.296979e+03	0	2.240383e-04
1.080000e+09	2.735291e+11	0.000000e+00	7.236843e-01	1.210065e+13	2.790055e+13	9.716080e+12	4.304511e+03	2.502080e+03	2.294279e+03	0	2.232982e-04
1.090000e+09	2.708447e+11	0.000000e+00	7.236843e-01	1.198564e+13	2.769986e+13	9.673427e+12	4.297735e+03	2.499156e+03	2.291597e+03	0	2.225653e-04
1.100000e+09	2.682038e+11	0.000000e+00	7.236843e-01	1.187249e+13	2.750165e+13	9.631061e+12	4.291022e+03	2.496252e+03	2.288935e+03	0	2.218396e-04
1.110000e+09	2.656053e+11	0.000000e+00	7.236843e-01	1.176116e+13	2.730586e+13	9.588979e+12	4.284373e+03	2.493368e+03	2.286290e+03	0	2.211208e-04
1.120000e+09	2.630483e+11	0.000000e+00	7.236843e-01	1.165160e+13	2.711248e+13	9.547179e+12	4.277786e+03	2.490504e+03	2.283664e+03	0	2.204090e-04
1.130000e+09	2.605319e+11	0.000000e+00	7.236843e-01	1.154377e+13	2.692145e+13	9.505658e+12	4.271260e+03	2.487661e+03	2.281057e+03	0	2.197039e-04
1.140000e+09	2.580552e+11	0.000000e+00	7.236843e-01	1.143764e+13	2.673276e+13	9.464415e+12	4.264794e+03	2.484837e+03	2.278468e+03	0	2.190055e-04
1.150000e+09	2.556173e+11	0.000000e+00	7.236843e-01	1.133317e+13	2.654635e+13	9.423448e+12	4.258388e+03	2.482032e+03	2.275896e+03	0	2.183136e-04
1.160000e+09	2.532174e+11	0.000000e+00	7.236843e-01	1.123032e+13	2.636220e+13	9.382753e+12	4.252040e+03	2.479248e+03	2.273343e+03	0	2.176283e-04
1.170000e+09	2.508547e+11	0.000000e+00	7.236843e-01	1.112906e+13	2.618027e+13	9.342330e+12	4.245749e+03	2.476482e+03	2.270807e+03	0	2.169492e-04
1.180000e+09	2.485282e+11	0.000000e+00	7.236843e-01	1.102936e+13	2.600053e+13	9.302176e+12	4.239515e+03	2.473736e+03	2.268289e+03	0	2.162765e-04
1.190000e+09	2.462374e+11	0.000000e+00	7.236843e-01	1.093117e+13	2.582294e+13	9.262288e+12	4.233336e+03	2.471008e+03	2.265788e+03	0	2.156099e-04
1.200000e+09	2.439814e+11	0.000000e+00	7.236843e-01	1.083447e+13	2.564748e+13	9.222666e+12	4.227213e+03	2.468300e+03	2.263304e+03	0	2.149494e-04
1.210000e+09	2.417594e+11	0.000000e+00	7.236843e-01	1.073923e+13	2.547410e+13	9.183306e+12	4.221143e+03	2.465610e+03	2.260837e+03	0	2.142949e-04
1.220000e+09	2.395708e+11	0.000000e+00	7.236843e-01	1.064541e+13	2.530278e+13	9.144207e+12	4.215126e+03	2.462938e+03	2.258388e+03	0	2.136463e-04
1.230000e+09	2.374148e+11	0.000000e+00	7.236843e-01	1.055299e+13	2.513349e+13	9.105367e+12	4.209162e+03	2.460285e+03	2.255955e+03	0	2.130035e-04
1.240000e+09	2.352908e+11	0.000000e+00	7.236843e-01	1.046193e+13	2.496619e+13	9.066783e+12	4.203250e+03	2.457650e+03	2.253539e+03	0	2.123664e-04
1.250000e+09	2.331982e+11	0.000000e+00	7.236843e-01	1.037222e+13	2.480086e+13	9.028454e+12	4.197388e+03	2.455032e+03	2.251139e+03	0	2.117349e-04
1.260000e+09	2.311362e+11	0.000000e+00	7.236843e-01	1.028381e+13	2.463746e+13	8.990378e+12	4.191577e+03	2.452433e+03	2.248755e+03	0	2.111090e-04
1.270000e+09	2.291042e+11	0.000000e+00	7.236843e-01	1.019669e+13	2.447596e+13	8.952553e+12	4.185815e+03	2.449851e+03	2.246388e+03	0	2.104885e-04
1.280000e+09	2.271017e+11	0.000000e+00	7.236843e-01	1.011083e+13	2.431633e+13	8.914976e+12	4.180101e+03	2.447286e+03	2.244036e+03	0	2.098735e-04
1.290000e+09	2.251280e+11	0.000000e+00	7.236843e-01	1.002620e+13	2.415856e+13	8.877647e+12	4.174436e+03	2.444739e+03	2.241700e+03	0	2.092637e-04
1.300000e+09	2.231826e+11	0.000000e+00	7.236843e-01	9.942783e+12	2.400259e+13	8.840562e+12	4.168818e+03	2.442209e+03	2.239380e+03	0	2.086592e-04
1.310000e+09	2.212649e+11	0.000000e+00	7.236843e-01	9.860546e+12	2.384842e+13	8.803721e+12	4.163246e+03	2.439696e+03	2.237076e+03	0	2.080598e-04
1.320000e+09	2.193743e+11	0.000000e+00	7.236843e-01	9.779470e+12	2.369600e+13	8.767121e+12	4.157720e+03	2.437199e+03	2.234786e+03	0	2.074656e-04
1.330000e+09	2.175103e+11	0.000000e+00	7.236843e-01	9.699531e+12	2.354533e+13	8.730760e+12	4.152240e+03	2.434719e+03	2.232512e+03	0	2.068763e-04
1.340000e+09	2.156725e+11	0.000000e+00	7.236843e-01	9.620708e+12	2.339635e+13	8.694636e+12	4.146804e+03	2.432255e+03	2.230253e+03	0	2.062920e-04
1.350000e+09	2.138601e+11	0.000000e+00	7.236843e-01	9.542978e+12	2.324906e+13	8.658749e+12	4.141413e+03	2.429808e+03	2.228009e+03	0	2.057125e-04
1.360000e+09	2.120729e+11	0.000000e+00	7.236843e-01	9.466320e+12	2.310343e+13	8.623095e+12	4.136065e+03	2.427376e+03	2.225779e+03	0	2.051378e-04
