#t		Qconv[W]	Ri[Rp]		R*[Rp]		Qc[W]		Qm[W]		Qr[W]		Tcmb[K]		Tl[K]		Tup[K]		RiFlag		Bs[T]
0.000000e+00	3.305720e+14	0.000000e+00	7.142857e-01	1.056160e+16	2.473233e+13	2.623766e+13	2.479179e+04	2.970970e+03	2.298499e+03	0	2.317927e-03
1.000000e+07	2.210203e+14	0.000000e+00	7.142857e-01	7.062688e+15	1.406784e+15	2.609229e+13	2.158245e+04	6.330866e+03	4.897893e+03	0	2.026851e-03
2.000000e+07	1.520084e+14	0.000000e+00	7.142857e-01	4.858505e+15	3.559531e+15	2.594800e+13	1.936001e+04	7.866312e+03	6.085795e+03	0	1.789096e-03
3.000000e+07	1.146473e+14	0.000000e+00	7.142857e-01	3.665138e+15	4.195925e+15	2.580479e+13	1.779672e+04	8.190081e+03	6.336280e+03	0	1.628542e-03
4.000000e+07	9.215120e+13	0.000000e+00	7.142857e-01	2.946516e+15	3.948754e+15	2.566265e+13	1.660021e+04	8.068522e+03	6.242236e+03	0	1.514182e-03
5.000000e+07	7.663296e+13	0.000000e+00	7.142857e-01	2.450763e+15	3.491442e+15	2.552157e+13	1.562802e+04	7.829433e+03	6.057263e+03	0	1.423911e-03
6.000000e+07	6.504131e+13	0.000000e+00	7.142857e-01	2.080429e+15	3.045092e+15	2.538154e+13	1.481239e+04	7.574836e+03	5.860294e+03	0	1.348158e-03
7.000000e+07	5.600522e+13	0.000000e+00	7.142857e-01	1.791725e+15	2.659265e+15	2.524255e+13	1.411492e+04	7.333630e+03	5.673684e+03	0	1.282588e-03
8.000000e+07	4.877724e+13	0.000000e+00	7.142857e-01	1.560780e+15	2.336098e+15	2.510460e+13	1.351040e+04	7.112666e+03	5.502734e+03	0	1.224852e-03
9.000000e+07	4.289012e+13	0.000000e+00	7.142857e-01	1.372669e+15	2.066822e+15	2.496767e+13	1.298086e+04	6.912128e+03	5.347588e+03	0	1.173447e-03
1.000000e+08	3.802686e+13	0.000000e+00	7.142857e-01	1.217265e+15	1.841609e+15	2.483176e+13	1.251282e+04	6.730283e+03	5.206903e+03	0	1.127304e-03
1.100000e+08	3.396170e+13	0.000000e+00	7.142857e-01	1.087359e+15	1.651960e+15	2.469686e+13	1.209594e+04	6.565005e+03	5.079035e+03	0	1.085611e-03
1.200000e+08	3.052874e+13	0.000000e+00	7.142857e-01	9.776490e+14	1.491024e+15	2.456295e+13	1.172208e+04	6.414255e+03	4.962407e+03	0	1.047725e-03
1.300000e+08	2.760325e+13	0.000000e+00	7.142857e-01	8.841528e+14	1.353394e+15	2.443004e+13	1.138474e+04	6.276227e+03	4.855621e+03	0	1.013128e-03
1.400000e+08	2.508986e+13	0.000000e+00	7.142857e-01	8.038231e+14	1.234818e+15	2.429812e+13	1.107867e+04	6.149361e+03	4.757471e+03	0	9.813949e-04
1.500000e+08	2.291456e+13	0.000000e+00	7.142857e-01	7.342955e+14	1.131949e+15	2.416717e+13	1.079960e+04	6.032322e+03	4.666923e+03	0	9.521709e-04
1.600000e+08	2.101920e+13	0.000000e+00	7.142857e-01	6.737123e+14	1.042127e+15	2.403718e+13	1.054400e+04	5.923972e+03	4.583098e+03	0	9.251591e-04
1.700000e+08	1.935757e+13	0.000000e+00	7.142857e-01	6.205974e+14	9.632247e+14	2.390816e+13	1.030891e+04	5.823340e+03	4.505244e+03	0	9.001081e-04
1.800000e+08	1.789260e+13	0.000000e+00	7.142857e-01	5.737666e+14	8.935295e+14	2.378008e+13	1.009187e+04	5.729592e+03	4.432715e+03	0	8.768034e-04
1.900000e+08	1.659427e+13	0.000000e+00	7.142857e-01	5.322607e+14	8.316498e+14	2.365295e+13	9.890796e+03	5.642008e+03	4.364956e+03	0	8.550610e-04
2.000000e+08	1.543807e+13	0.000000e+00	7.142857e-01	4.952965e+14	7.764459e+14	2.352676e+13	9.703917e+03	5.559969e+03	4.301486e+03	0	8.347224e-04
2.100000e+08	1.440382e+13	0.000000e+00	7.142857e-01	4.622297e+14	7.269788e+14	2.340149e+13	9.529713e+03	5.482935e+03	4.241889e+03	0	8.156496e-04
2.200000e+08	1.347482e+13	0.000000e+00	7.142857e-01	4.325260e+14	6.824692e+14	2.327714e+13	9.366875e+03	5.410435e+03	4.185799e+03	0	7.977228e-04
2.300000e+08	1.263710e+13	0.000000e+00	7.142857e-01	4.057398e+14	6.422653e+14	2.315371e+13	9.214273e+03	5.342056e+03	4.132897e+03	0	7.808367e-04
2.400000e+08	1.187897e+13	0.000000e+00	7.142857e-01	3.814969e+14	6.058198e+14	2.303118e+13	9.070921e+03	5.277435e+03	4.082903e+03	0	7.648987e-04
2.500000e+08	1.119053e+13	0.000000e+00	7.142857e-01	3.594815e+14	5.726701e+14	2.290954e+13	8.935958e+03	5.216252e+03	4.035568e+03	0	7.498272e-04
2.600000e+08	1.056338e+13	0.000000e+00	7.142857e-01	3.394252e+14	5.424224e+14	2.278880e+13	8.808629e+03	5.158220e+03	3.990672e+03	0	7.355497e-04
2.700000e+08	9.990364e+12	0.000000e+00	7.142857e-01	3.210990e+14	5.147410e+14	2.266894e+13	8.688265e+03	5.103086e+03	3.948018e+03	0	7.220016e-04
2.800000e+08	9.465335e+12	0.000000e+00	7.142857e-01	3.043066e+14	4.893369e+14	2.254996e+13	8.574278e+03	5.050625e+03	3.907431e+03	0	7.091254e-04
2.900000e+08	8.982996e+12	0.000000e+00	7.142857e-01	2.888788e+14	4.659615e+14	2.243184e+13	8.466144e+03	5.000633e+03	3.868754e+03	0	6.968695e-04
3.000000e+08	8.538768e+12	0.000000e+00	7.142857e-01	2.746692e+14	4.443992e+14	2.231459e+13	8.363394e+03	4.952928e+03	3.831847e+03	0	6.851875e-04
3.100000e+08	8.128671e+12	0.000000e+00	7.142857e-01	2.615507e+14	4.244626e+14	2.219819e+13	8.265610e+03	4.907345e+03	3.796582e+03	0	6.740378e-04
3.200000e+08	7.749234e+12	0.000000e+00	7.142857e-01	2.494123e+14	4.059883e+14	2.208264e+13	8.172419e+03	4.863736e+03	3.762843e+03	0	6.633824e-04
3.300000e+08	7.397419e+12	0.000000e+00	7.142857e-01	2.381569e+14	3.888324e+14	2.196792e+13	8.083481e+03	4.821965e+03	3.730528e+03	0	6.531874e-04
3.400000e+08	7.070558e+12	0.000000e+00	7.142857e-01	2.276993e+14	3.728694e+14	2.185404e+13	7.998492e+03	4.781911e+03	3.699540e+03	0	6.434216e-04
3.500000e+08	6.766299e+12	0.000000e+00	7.142857e-01	2.179643e+14	3.579879e+14	2.174099e+13	7.917178e+03	4.743462e+03	3.669793e+03	0	6.340567e-04
3.600000e+08	6.482562e+12	0.000000e+00	7.142857e-01	2.088854e+14	3.440894e+14	2.162875e+13	7.839286e+03	4.706516e+03	3.641210e+03	0	6.250670e-04
3.700000e+08	6.217503e+12	0.000000e+00	7.142857e-01	2.004037e+14	3.310867e+14	2.151733e+13	7.764591e+03	4.670980e+03	3.613717e+03	0	6.164290e-04
3.800000e+08	5.969484e+12	0.000000e+00	7.142857e-01	1.924668e+14	3.189019e+14	2.140672e+13	7.692884e+03	4.636768e+03	3.587249e+03	0	6.081210e-04
3.900000e+08	5.737041e+12	0.000000e+00	7.142857e-01	1.850280e+14	3.074658e+14	2.129690e+13	7.623978e+03	4.603803e+03	3.561745e+03	0	6.001231e-04
4.000000e+08	5.518867e+12	0.000000e+00	7.142857e-01	1.780454e+14	2.967162e+14	2.118788e+13	7.557697e+03	4.572011e+03	3.537149e+03	0	5.924172e-04
4.100000e+08	5.313791e+12	0.000000e+00	7.142857e-01	1.714817e+14	2.865973e+14	2.107964e+13	7.493884e+03	4.541326e+03	3.513410e+03	0	5.849865e-04
4.200000e+08	5.120760e+12	0.000000e+00	7.142857e-01	1.653031e+14	2.770592e+14	2.097219e+13	7.432391e+03	4.511687e+03	3.490480e+03	0	5.778155e-04
4.300000e+08	4.938825e+12	0.000000e+00	7.142857e-01	1.594794e+14	2.680565e+14	2.086550e+13	7.373086e+03	4.483037e+03	3.468315e+03	0	5.708898e-04
4.400000e+08	4.767131e+12	0.000000e+00	7.142857e-01	1.539832e+14	2.595486e+14	2.075959e+13	7.315843e+03	4.455323e+03	3.446874e+03	0	5.641961e-04
4.500000e+08	4.604904e+12	0.000000e+00	7.142857e-01	1.487897e+14	2.514985e+14	2.065444e+13	7.260549e+03	4.428497e+03	3.426119e+03	0	5.577222e-04
4.600000e+08	4.451443e+12	0.000000e+00	7.142857e-01	1.438766e+14	2.438728e+14	2.055004e+13	7.207096e+03	4.402512e+03	3.406016e+03	0	5.514566e-04
4.700000e+08	4.306110e+12	0.000000e+00	7.142857e-01	1.392235e+14	2.366409e+14	2.044639e+13	7.155387e+03	4.377326e+03	3.386531e+03	0	5.453886e-04
4.800000e+08	4.168326e+12	0.000000e+00	7.142857e-01	1.348118e+14	2.297751e+14	2.034348e+13	7.105331e+03	4.352900e+03	3.367634e+03	0	5.395085e-04
4.900000e+08	4.037563e+12	0.000000e+00	7.142857e-01	1.306247e+14	2.232501e+14	2.024131e+13	7.056843e+03	4.329198e+03	3.349297e+03	0	5.338069e-04
5.000000e+08	3.913339e+12	0.000000e+00	7.142857e-01	1.266467e+14	2.170429e+14	2.013987e+13	7.009844e+03	4.306184e+03	3.331492e+03	0	5.282752e-04
5.100000e+08	3.795212e+12	0.000000e+00	7.142857e-01	1.228638e+14	2.111324e+14	2.003915e+13	6.964260e+03	4.283827e+03	3.314195e+03	0	5.229053e-04
5.200000e+08	3.682779e+12	0.000000e+00	7.142857e-01	1.192630e+14	2.054990e+14	1.993916e+13	6.920023e+03	4.262095e+03	3.297383e+03	0	5.176898e-04
5.300000e+08	3.575669e+12	0.000000e+00	7.142857e-01	1.158325e+14	2.001250e+14	1.983987e+13	6.877068e+03	4.240962e+03	3.281033e+03	0	5.126215e-04
5.400000e+08	3.473542e+12	0.000000e+00	7.142857e-01	1.125613e+14	1.949940e+14	1.974130e+13	6.835336e+03	4.220401e+03	3.265125e+03	0	5.076938e-04
5.500000e+08	3.376083e+12	0.000000e+00	7.142857e-01	1.094396e+14	1.900909e+14	1.964342e+13	6.794770e+03	4.200385e+03	3.249640e+03	0	5.029005e-04
5.600000e+08	3.283004e+12	0.000000e+00	7.142857e-01	1.064579e+14	1.854019e+14	1.954624e+13	6.755318e+03	4.180893e+03	3.234560e+03	0	4.982357e-04
5.700000e+08	3.194038e+12	0.000000e+00	7.142857e-01	1.036079e+14	1.809140e+14	1.944976e+13	6.716930e+03	4.161902e+03	3.219868e+03	0	4.936939e-04
5.800000e+08	3.108940e+12	0.000000e+00	7.142857e-01	1.008816e+14	1.766155e+14	1.935395e+13	6.679559e+03	4.143391e+03	3.205546e+03	0	4.892699e-04
5.900000e+08	3.027481e+12	0.000000e+00	7.142857e-01	9.827169e+13	1.724952e+14	1.925883e+13	6.643162e+03	4.125340e+03	3.191581e+03	0	4.849588e-04
6.000000e+08	2.949450e+12	0.000000e+00	7.142857e-01	9.577151e+13	1.685430e+14	1.916437e+13	6.607698e+03	4.107730e+03	3.177958e+03	0	4.807560e-04
6.100000e+08	2.874651e+12	0.000000e+00	7.142857e-01	9.337475e+13	1.647496e+14	1.907059e+13	6.573128e+03	4.090545e+03	3.164662e+03	0	4.766571e-04
6.200000e+08	2.802903e+12	0.000000e+00	7.142857e-01	9.107561e+13	1.611059e+14	1.897747e+13	6.539414e+03	4.073768e+03	3.151682e+03	0	4.726581e-04
6.300000e+08	2.734036e+12	0.000000e+00	7.142857e-01	8.886868e+13	1.576039e+14	1.888501e+13	6.506524e+03	4.057382e+03	3.139006e+03	0	4.687549e-04
6.400000e+08	2.667894e+12	0.000000e+00	7.142857e-01	8.674892e+13	1.542359e+14	1.879319e+13	6.474423e+03	4.041374e+03	3.126620e+03	0	4.649439e-04
6.500000e+08	2.604329e+12	0.000000e+00	7.142857e-01	8.471165e+13	1.509949e+14	1.870203e+13	6.443081e+03	4.025728e+03	3.114516e+03	0	4.612216e-04
6.600000e+08	2.543205e+12	0.000000e+00	7.142857e-01	8.275250e+13	1.478742e+14	1.861151e+13	6.412469e+03	4.010431e+03	3.102682e+03	0	4.575847e-04
6.700000e+08	2.484394e+12	0.000000e+00	7.142857e-01	8.086739e+13	1.448676e+14	1.852162e+13	6.382558e+03	3.995471e+03	3.091108e+03	0	4.540300e-04
6.800000e+08	2.427777e+12	0.000000e+00	7.142857e-01	7.905250e+13	1.419693e+14	1.843236e+13	6.353324e+03	3.980835e+03	3.079785e+03	0	4.505545e-04
6.900000e+08	2.373243e+12	0.000000e+00	7.142857e-01	7.730426e+13	1.391739e+14	1.834373e+13	6.324740e+03	3.966513e+03	3.068704e+03	0	4.471554e-04
7.000000e+08	2.320687e+12	0.000000e+00	7.142857e-01	7.561934e+13	1.364764e+14	1.825573e+13	6.296782e+03	3.952492e+03	3.057857e+03	0	4.438299e-04
7.100000e+08	2.270011e+12	0.000000e+00	7.142857e-01	7.399461e+13	1.338719e+14	1.816833e+13	6.269430e+03	3.938763e+03	3.047236e+03	0	4.405756e-04
7.200000e+08	2.221124e+12	0.000000e+00	7.142857e-01	7.242712e+13	1.313559e+14	1.808155e+13	6.242660e+03	3.925316e+03	3.036832e+03	0	4.373898e-04
7.300000e+08	2.173939e+12	0.000000e+00	7.142857e-01	7.091413e+13	1.289244e+14	1.799538e+13	6.216453e+03	3.912140e+03	3.026639e+03	0	4.342704e-04
7.400000e+08	2.128376e+12	0.000000e+00	7.142857e-01	6.945305e+13	1.265733e+14	1.790981e+13	6.190789e+03	3.899228e+03	3.016649e+03	0	4.312150e-04
7.500000e+08	2.084358e+12	0.000000e+00	7.142857e-01	6.804143e+13	1.242989e+14	1.782483e+13	6.165650e+03	3.886570e+03	3.006856e+03	0	4.282215e-04
7.600000e+08	2.041813e+12	0.000000e+00	7.142857e-01	6.667700e+13	1.220978e+14	1.774044e+13	6.141018e+03	3.874158e+03	2.997254e+03	0	4.252879e-04
7.700000e+08	2.000675e+12	0.000000e+00	7.142857e-01	6.535758e+13	1.199666e+14	1.765665e+13	6.116876e+03	3.861984e+03	2.987835e+03	0	4.224123e-04
7.800000e+08	1.960880e+12	0.000000e+00	7.142857e-01	6.408116e+13	1.179022e+14	1.757343e+13	6.093208e+03	3.850041e+03	2.978596e+03	0	4.195928e-04
7.900000e+08	1.922367e+12	0.000000e+00	7.142857e-01	6.284580e+13	1.159017e+14	1.749080e+13	6.069999e+03	3.838322e+03	2.969529e+03	0	4.168276e-04
8.000000e+08	1.885081e+12	0.000000e+00	7.142857e-01	6.164970e+13	1.139623e+14	1.740873e+13	6.047234e+03	3.826819e+03	2.960630e+03	0	4.141150e-04
8.100000e+08	1.848967e+12	0.000000e+00	7.142857e-01	6.049116e+13	1.120814e+14	1.732724e+13	6.024900e+03	3.815526e+03	2.951893e+03	0	4.114535e-04
8.200000e+08	1.813975e+12	0.000000e+00	7.142857e-01	5.936854e+13	1.102565e+14	1.724631e+13	6.002982e+03	3.804436e+03	2.943313e+03	0	4.088413e-04
8.300000e+08	1.780058e+12	0.000000e+00	7.142857e-01	5.828034e+13	1.084854e+14	1.716593e+13	5.981468e+03	3.793544e+03	2.934886e+03	0	4.062772e-04
8.400000e+08	1.747170e+12	0.000000e+00	7.142857e-01	5.722509e+13	1.067656e+14	1.708612e+13	5.960346e+03	3.782844e+03	2.926608e+03	0	4.037595e-04
8.500000e+08	1.715268e+12	0.000000e+00	7.142857e-01	5.620143e+13	1.050953e+14	1.700685e+13	5.939604e+03	3.772329e+03	2.918473e+03	0	4.012870e-04
8.600000e+08	1.684312e+12	0.000000e+00	7.142857e-01	5.520806e+13	1.034723e+14	1.692813e+13	5.919230e+03	3.761995e+03	2.910478e+03	0	3.988583e-04
8.700000e+08	1.654264e+12	0.000000e+00	7.142857e-01	5.424375e+13	1.018948e+14	1.684996e+13	5.899214e+03	3.751837e+03	2.902619e+03	0	3.964721e-04
8.800000e+08	1.625086e+12	0.000000e+00	7.142857e-01	5.330734e+13	1.003609e+14	1.677232e+13	5.879546e+03	3.741849e+03	2.894892e+03	0	3.941273e-04
8.900000e+08	1.596745e+12	0.000000e+00	7.142857e-01	5.239770e+13	9.886906e+13	1.669521e+13	5.860214e+03	3.732026e+03	2.887293e+03	0	3.918227e-04
9.000000e+08	1.569207e+12	0.000000e+00	7.142857e-01	5.151380e+13	9.741756e+13	1.661863e+13	5.841211e+03	3.722365e+03	2.879819e+03	0	3.895571e-04
9.100000e+08	1.542441e+12	0.000000e+00	7.142857e-01	5.065463e+13	9.600484e+13	1.654258e+13	5.822526e+03	3.712861e+03	2.872465e+03	0	3.873295e-04
9.200000e+08	1.516418e+12	0.000000e+00	7.142857e-01	4.981923e+13	9.462948e+13	1.646705e+13	5.804150e+03	3.703508e+03	2.865230e+03	0	3.851389e-04
9.300000e+08	1.491108e+12	0.000000e+00	7.142857e-01	4.900671e+13	9.329008e+13	1.639203e+13	5.786076e+03	3.694305e+03	2.858110e+03	0	3.829841e-04
9.400000e+08	1.466486e+12	0.000000e+00	7.142857e-01	4.821620e+13	9.198531e+13	1.631753e+13	5.768295e+03	3.685245e+03	2.851101e+03	0	3.808644e-04
9.500000e+08	1.442525e+12	0.000000e+00	7.142857e-01	4.744688e+13	9.071386e+13	1.624354e+13	5.750799e+03	3.676326e+03	2.844201e+03	0	3.787786e-04
9.600000e+08	1.419201e+12	0.000000e+00	7.142857e-01	4.669797e+13	8.947458e+13	1.617005e+13	5.733580e+03	3.667544e+03	2.837406e+03	0	3.767261e-04
9.700000e+08	1.396491e+12	0.000000e+00	7.142857e-01	4.596872e+13	8.826629e+13	1.609706e+13	5.716632e+03	3.658896e+03	2.830715e+03	0	3.747058e-04
9.800000e+08	1.374372e+12	0.000000e+00	7.142857e-01	4.525842e+13	8.708787e+13	1.602457e+13	5.699946e+03	3.650377e+03	2.824125e+03	0	3.727170e-04
9.900000e+08	1.352824e+12	0.000000e+00	7.142857e-01	4.456640e+13	8.593832e+13	1.595257e+13	5.683517e+03	3.641985e+03	2.817632e+03	0	3.707588e-04
1.000000e+09	1.331826e+12	0.000000e+00	7.142857e-01	4.389200e+13	8.481660e+13	1.588106e+13	5.667338e+03	3.633717e+03	2.811236e+03	0	3.688305e-04
1.010000e+09	1.311358e+12	0.000000e+00	7.142857e-01	4.323460e+13	8.372178e+13	1.581004e+13	5.651402e+03	3.625569e+03	2.804932e+03	0	3.669313e-04
1.020000e+09	1.291403e+12	0.000000e+00	7.142857e-01	4.259362e+13	8.265292e+13	1.573949e+13	5.635704e+03	3.617538e+03	2.798719e+03	0	3.650606e-04
1.030000e+09	1.271942e+12	0.000000e+00	7.142857e-01	4.196849e+13	8.160914e+13	1.566942e+13	5.620236e+03	3.609622e+03	2.792594e+03	0	3.632176e-04
1.040000e+09	1.252959e+12	0.000000e+00	7.142857e-01	4.135866e+13	8.058961e+13	1.559983e+13	5.604995e+03	3.601818e+03	2.786557e+03	0	3.614015e-04
1.050000e+09	1.234438e+12	0.000000e+00	7.142857e-01	4.076363e+13	7.959354e+13	1.553071e+13	5.589974e+03	3.594122e+03	2.780603e+03	0	3.596119e-04
1.060000e+09	1.216362e+12	0.000000e+00	7.142857e-01	4.018289e+13	7.862015e+13	1.546205e+13	5.575168e+03	3.586534e+03	2.774732e+03	0	3.578481e-04
1.070000e+09	1.198718e+12	0.000000e+00	7.142857e-01	3.961597e+13	7.766871e+13	1.539386e+13	5.560572e+03	3.579049e+03	2.768942e+03	0	3.561094e-04
1.080000e+09	1.181491e+12	0.000000e+00	7.142857e-01	3.906242e+13	7.673850e+13	1.532612e+13	5.546180e+03	3.571666e+03	2.763230e+03	0	3.543952e-04
1.090000e+09	1.164667e+12	0.000000e+00	7.142857e-01	3.852180e+13	7.582885e+13	1.525884e+13	5.531989e+03	3.564382e+03	2.757595e+03	0	3.527051e-04
1.100000e+09	1.148234e+12	0.000000e+00	7.142857e-01	3.799369e+13	7.493912e+13	1.519201e+13	5.517993e+03	3.557196e+03	2.752035e+03	0	3.510383e-04
1.110000e+09	1.132179e+12	0.000000e+00	7.142857e-01	3.747770e+13	7.406868e+13	1.512563e+13	5.504187e+03	3.550104e+03	2.746548e+03	0	3.493945e-04
1.120000e+09	1.116490e+12	0.000000e+00	7.142857e-01	3.697344e+13	7.321692e+13	1.505970e+13	5.490569e+03	3.543104e+03	2.741133e+03	0	3.477731e-04
1.130000e+09	1.101155e+12	0.000000e+00	7.142857e-01	3.648054e+13	7.238329e+13	1.499420e+13	5.477132e+03	3.536195e+03	2.735788e+03	0	3.461735e-04
1.140000e+09	1.086163e+12	0.000000e+00	7.142857e-01	3.599864e+13	7.156721e+13	1.492915e+13	5.463874e+03	3.529375e+03	2.730511e+03	0	3.445953e-04
1.150000e+09	1.071504e+12	0.000000e+00	7.142857e-01	3.552741e+13	7.076818e+13	1.486452e+13	5.450790e+03	3.522642e+03	2.725302e+03	0	3.430381e-04
1.160000e+09	1.057168e+12	0.000000e+00	7.142857e-01	3.506652e+13	6.998567e+13	1.480033e+13	5.437877e+03	3.515993e+03	2.720158e+03	0	3.415013e-04
1.170000e+09	1.043144e+12	0.000000e+00	7.142857e-01	3.461566e+13	6.921919e+13	1.473657e+13	5.425130e+03	3.509427e+03	2.715078e+03	0	3.399845e-04
1.180000e+09	1.029424e+12	0.000000e+00	7.142857e-01	3.417452e+13	6.846829e+13	1.467323e+13	5.412546e+03	3.502942e+03	2.710061e+03	0	3.384874e-04
1.190000e+09	1.015998e+12	0.000000e+00	7.142857e-01	3.374281e+13	6.773248e+13	1.461031e+13	5.400122e+03	3.496536e+03	2.705105e+03	0	3.370094e-04
1.200000e+09	1.002857e+12	0.000000e+00	7.142857e-01	3.332026e+13	6.701135e+13	1.454781e+13	5.387854e+03	3.490208e+03	2.700210e+03	0	3.355501e-04
1.210000e+09	9.899937e+11	0.000000e+00	7.142857e-01	3.290659e+13	6.630447e+13	1.448572e+13	5.375739e+03	3.483957e+03	2.695373e+03	0	3.341093e-04
1.220000e+09	9.773992e+11	0.000000e+00	7.142857e-01	3.250155e+13	6.561145e+13	1.442405e+13	5.363774e+03	3.477780e+03	2.690594e+03	0	3.326864e-04
1.230000e+09	9.650660e+11	0.000000e+00	7.142857e-01	3.210489e+13	6.493188e+13	1.436278e+13	5.351955e+03	3.471675e+03	2.685872e+03	0	3.312811e-04
1.240000e+09	9.529865e+11	0.000000e+00	7.142857e-01	3.171636e+13	6.426538e+13	1.430192e+13	5.340280e+03	3.465643e+03	2.681205e+03	0	3.298932e-04
1.250000e+09	9.411536e+11	0.000000e+00	7.142857e-01	3.133574e+13	6.361162e+13	1.424146e+13	5.328746e+03	3.459680e+03	2.676592e+03	0	3.285221e-04
1.260000e+09	9.295601e+11	0.000000e+00	7.142857e-01	3.096280e+13	6.297022e+13	1.418140e+13	5.317349e+03	3.453786e+03	2.672032e+03	0	3.271675e-04
1.270000e+09	9.181996e+11	0.000000e+00	7.142857e-01	3.059733e+13	6.234086e+13	1.412174e+13	5.306087e+03	3.447960e+03	2.667524e+03	0	3.258293e-04
1.280000e+09	9.070654e+11	0.000000e+00	7.142857e-01	3.023912e+13	6.172319e+13	1.406246e+13	5.294958e+03	3.442199e+03	2.663067e+03	0	3.245069e-04
1.290000e+09	8.961513e+11	0.000000e+00	7.142857e-01	2.988796e+13	6.111693e+13	1.400358e+13	5.283958e+03	3.436503e+03	2.658660e+03	0	3.232001e-04
1.300000e+09	8.854513e+11	0.000000e+00	7.142857e-01	2.954368e+13	6.052175e+13	1.394508e+13	5.273086e+03	3.430870e+03	2.654303e+03	0	3.219086e-04
1.310000e+09	8.749595e+11	0.000000e+00	7.142857e-01	2.920608e+13	5.993737e+13	1.388697e+13	5.262338e+03	3.425300e+03	2.649993e+03	0	3.206321e-04
1.320000e+09	8.646705e+11	0.000000e+00	7.142857e-01	2.887497e+13	5.936351e+13	1.382923e+13	5.251713e+03	3.419790e+03	2.645731e+03	0	3.193703e-04
1.330000e+09	8.545786e+11	0.000000e+00	7.142857e-01	2.855020e+13	5.879988e+13	1.377188e+13	5.241207e+03	3.414341e+03	2.641514e+03	0	3.181230e-04
1.340000e+09	8.446788e+11	0.000000e+00	7.142857e-01	2.823158e+13	5.824623e+13	1.371490e+13	5.230819e+03	3.408950e+03	2.637344e+03	0	3.168898e-04
1.350000e+09	8.349658e+11	0.000000e+00	7.142857e-01	2.791896e+13	5.770230e+13	1.365829e+13	5.220547e+03	3.403616e+03	2.633217e+03	0	3.156705e-04
1.360000e+09	8.254350e+11	0.000000e+00	7.142857e-01	2.761217e+13	5.716785e+13	1.360205e+13	5.210388e+03	3.398339e+03	2.629135e+03	0	3.144648e-04
