#t		Qconv[W]	Ri[Rp]		R*[Rp]		Qc[W]		Qm[W]		Qr[W]		Tcmb[K]		Tl[K]		Tup[K]		RiFlag		Bs[T]
0.000000e+00	7.335107e+13	0.000000e+00	7.105263e-01	1.234853e+15	2.700151e+13	7.077935e+13	1.499362e+04	3.182227e+03	2.695323e+03	0	1.336050e-03
1.000000e+07	7.171837e+13	0.000000e+00	7.105263e-01	1.207689e+15	3.746754e+13	7.038718e+13	1.483969e+04	3.333514e+03	2.823462e+03	0	1.326063e-03
2.000000e+07	7.007054e+13	0.000000e+00	7.105263e-01	1.180283e+15	5.034085e+13	6.999794e+13	1.468908e+04	3.480144e+03	2.947656e+03	0	1.315828e-03
3.000000e+07	6.841074e+13	0.000000e+00	7.105263e-01	1.152686e+15	6.574221e+13	6.961162e+13	1.454185e+04	3.621793e+03	3.067631e+03	0	1.305355e-03
4.000000e+07	6.674245e+13	0.000000e+00	7.105263e-01	1.124954e+15	8.371160e+13	6.922817e+13	1.439800e+04	3.758136e+03	3.183113e+03	0	1.294657e-03
5.000000e+07	6.506940e+13	0.000000e+00	7.105263e-01	1.097151e+15	1.042012e+14	6.884759e+13	1.425757e+04	3.888855e+03	3.293831e+03	0	1.283747e-03
6.000000e+07	6.339563e+13	0.000000e+00	7.105263e-01	1.069342e+15	1.270733e+14	6.846984e+13	1.412056e+04	4.013648e+03	3.399530e+03	0	1.272644e-03
7.000000e+07	6.172542e+13	0.000000e+00	7.105263e-01	1.041597e+15	1.521044e+14	6.809491e+13	1.398698e+04	4.132246e+03	3.499981e+03	0	1.261369e-03
8.000000e+07	6.006326e+13	0.000000e+00	7.105263e-01	1.013992e+15	1.789935e+14	6.772276e+13	1.385681e+04	4.244417e+03	3.594989e+03	0	1.249943e-03
9.000000e+07	5.841369e+13	0.000000e+00	7.105263e-01	9.865995e+14	2.073757e+14	6.735339e+13	1.373005e+04	4.349978e+03	3.684398e+03	0	1.238394e-03
1.000000e+08	5.678127e+13	0.000000e+00	7.105263e-01	9.594956e+14	2.368396e+14	6.698675e+13	1.360668e+04	4.448801e+03	3.768101e+03	0	1.226749e-03
1.100000e+08	5.517040e+13	0.000000e+00	7.105263e-01	9.327529e+14	2.669458e+14	6.662283e+13	1.348665e+04	4.540818e+03	3.846039e+03	0	1.215037e-03
1.200000e+08	5.358527e+13	0.000000e+00	7.105263e-01	9.064399e+14	2.972470e+14	6.626162e+13	1.336993e+04	4.626023e+03	3.918207e+03	0	1.203287e-03
1.300000e+08	5.202974e+13	0.000000e+00	7.105263e-01	8.806200e+14	3.273066e+14	6.590308e+13	1.325646e+04	4.704471e+03	3.984651e+03	0	1.191529e-03
1.400000e+08	5.050724e+13	0.000000e+00	7.105263e-01	8.553500e+14	3.567147e+14	6.554719e+13	1.314619e+04	4.776272e+03	4.045467e+03	0	1.179791e-03
1.500000e+08	4.902075e+13	0.000000e+00	7.105263e-01	8.306786e+14	3.851028e+14	6.519393e+13	1.303905e+04	4.841593e+03	4.100793e+03	0	1.168102e-03
1.600000e+08	4.757276e+13	0.000000e+00	7.105263e-01	8.066466e+14	4.121518e+14	6.484328e+13	1.293497e+04	4.900646e+03	4.150810e+03	0	1.156485e-03
1.700000e+08	4.616523e+13	0.000000e+00	7.105263e-01	7.832864e+14	4.375992e+14	6.449522e+13	1.283387e+04	4.953681e+03	4.195731e+03	0	1.144965e-03
1.800000e+08	4.479965e+13	0.000000e+00	7.105263e-01	7.606220e+14	4.612412e+14	6.414972e+13	1.273566e+04	5.000982e+03	4.235794e+03	0	1.133563e-03
1.900000e+08	4.347699e+13	0.000000e+00	7.105263e-01	7.386696e+14	4.829317e+14	6.380677e+13	1.264027e+04	5.042856e+03	4.271261e+03	0	1.122295e-03
2.000000e+08	4.219782e+13	0.000000e+00	7.105263e-01	7.174382e+14	5.025790e+14	6.346634e+13	1.254760e+04	5.079625e+03	4.302404e+03	0	1.111179e-03
2.100000e+08	4.096228e+13	0.000000e+00	7.105263e-01	6.969301e+14	5.201411e+14	6.312842e+13	1.245757e+04	5.111621e+03	4.329504e+03	0	1.100226e-03
2.200000e+08	3.977020e+13	0.000000e+00	7.105263e-01	6.771422e+14	5.356185e+14	6.279298e+13	1.237009e+04	5.139178e+03	4.352845e+03	0	1.089448e-03
2.300000e+08	3.862109e+13	0.000000e+00	7.105263e-01	6.580662e+14	5.490489e+14	6.246000e+13	1.228507e+04	5.162627e+03	4.372706e+03	0	1.078853e-03
2.400000e+08	3.751421e+13	0.000000e+00	7.105263e-01	6.396901e+14	5.604987e+14	6.212946e+13	1.220243e+04	5.182293e+03	4.389363e+03	0	1.068446e-03
2.500000e+08	3.644863e+13	0.000000e+00	7.105263e-01	6.219983e+14	5.700570e+14	6.180134e+13	1.212207e+04	5.198490e+03	4.403081e+03	0	1.058232e-03
2.600000e+08	3.542328e+13	0.000000e+00	7.105263e-01	6.049728e+14	5.778297e+14	6.147562e+13	1.204391e+04	5.211517e+03	4.414115e+03	0	1.048215e-03
2.700000e+08	3.443696e+13	0.000000e+00	7.105263e-01	5.885937e+14	5.839341e+14	6.115229e+13	1.196787e+04	5.221659e+03	4.422706e+03	0	1.038394e-03
2.800000e+08	3.348837e+13	0.000000e+00	7.105263e-01	5.728398e+14	5.884934e+14	6.083131e+13	1.189387e+04	5.229185e+03	4.429080e+03	0	1.028771e-03
2.900000e+08	3.257618e+13	0.000000e+00	7.105263e-01	5.576889e+14	5.916341e+14	6.051268e+13	1.182184e+04	5.234344e+03	4.433450e+03	0	1.019344e-03
3.000000e+08	3.169903e+13	0.000000e+00	7.105263e-01	5.431182e+14	5.934817e+14	6.019637e+13	1.175170e+04	5.237370e+03	4.436013e+03	0	1.010112e-03
3.100000e+08	3.085553e+13	0.000000e+00	7.105263e-01	5.291050e+14	5.941596e+14	5.988237e+13	1.168337e+04	5.238479e+03	4.436952e+03	0	1.001071e-03
3.200000e+08	3.004432e+13	0.000000e+00	7.105263e-01	5.156266e+14	5.937859e+14	5.957065e+13	1.161679e+04	5.237868e+03	4.436435e+03	0	9.922203e-04
3.300000e+08	2.926402e+13	0.000000e+00	7.105263e-01	5.026604e+14	5.924735e+14	5.926120e+13	1.155189e+04	5.235720e+03	4.434615e+03	0	9.835550e-04
3.400000e+08	2.851333e+13	0.000000e+00	7.105263e-01	4.901846e+14	5.903279e+14	5.895399e+13	1.148861e+04	5.232201e+03	4.431635e+03	0	9.750719e-04
3.500000e+08	2.779094e+13	0.000000e+00	7.105263e-01	4.781777e+14	5.874476e+14	5.864901e+13	1.142689e+04	5.227462e+03	4.427621e+03	0	9.667668e-04
3.600000e+08	2.709560e+13	0.000000e+00	7.105263e-01	4.666190e+14	5.839237e+14	5.834625e+13	1.136667e+04	5.221642e+03	4.422691e+03	0	9.586357e-04
3.700000e+08	2.642611e+13	0.000000e+00	7.105263e-01	4.554885e+14	5.798399e+14	5.804567e+13	1.130790e+04	5.214865e+03	4.416951e+03	0	9.506743e-04
3.800000e+08	2.578131e+13	0.000000e+00	7.105263e-01	4.447670e+14	5.752724e+14	5.774728e+13	1.125051e+04	5.207244e+03	4.410497e+03	0	9.428783e-04
3.900000e+08	2.516007e+13	0.000000e+00	7.105263e-01	4.344360e+14	5.702902e+14	5.745103e+13	1.119447e+04	5.198882e+03	4.403414e+03	0	9.352433e-04
4.000000e+08	2.456134e+13	0.000000e+00	7.105263e-01	4.244780e+14	5.649563e+14	5.715693e+13	1.113972e+04	5.189871e+03	4.395782e+03	0	9.277651e-04
4.100000e+08	2.398410e+13	0.000000e+00	7.105263e-01	4.148761e+14	5.593265e+14	5.686495e+13	1.108621e+04	5.180293e+03	4.387669e+03	0	9.204393e-04
4.200000e+08	2.342738e+13	0.000000e+00	7.105263e-01	4.056142e+14	5.534515e+14	5.657508e+13	1.103390e+04	5.170224e+03	4.379140e+03	0	9.132616e-04
4.300000e+08	2.289025e+13	0.000000e+00	7.105263e-01	3.966771e+14	5.473765e+14	5.628729e+13	1.098276e+04	5.159730e+03	4.370252e+03	0	9.062280e-04
4.400000e+08	2.237183e+13	0.000000e+00	7.105263e-01	3.880501e+14	5.411411e+14	5.600157e+13	1.093273e+04	5.148871e+03	4.361055e+03	0	8.993344e-04
4.500000e+08	2.187130e+13	0.000000e+00	7.105263e-01	3.797196e+14	5.347812e+14	5.571790e+13	1.088378e+04	5.137702e+03	4.351595e+03	0	8.925767e-04
4.600000e+08	2.138785e+13	0.000000e+00	7.105263e-01	3.716723e+14	5.283282e+14	5.543627e+13	1.083588e+04	5.126271e+03	4.341912e+03	0	8.859510e-04
4.700000e+08	2.092073e+13	0.000000e+00	7.105263e-01	3.638957e+14	5.218099e+14	5.515667e+13	1.078899e+04	5.114620e+03	4.332045e+03	0	8.794536e-04
4.800000e+08	2.046922e+13	0.000000e+00	7.105263e-01	3.563779e+14	5.152502e+14	5.487906e+13	1.074307e+04	5.102790e+03	4.322025e+03	0	8.730808e-04
4.900000e+08	2.003265e+13	0.000000e+00	7.105263e-01	3.491078e+14	5.086710e+14	5.460344e+13	1.069809e+04	5.090815e+03	4.311882e+03	0	8.668291e-04
5.000000e+08	1.961036e+13	0.000000e+00	7.105263e-01	3.420746e+14	5.020907e+14	5.432980e+13	1.065402e+04	5.078724e+03	4.301641e+03	0	8.606949e-04
5.100000e+08	1.920175e+13	0.000000e+00	7.105263e-01	3.352681e+14	4.955254e+14	5.405810e+13	1.061084e+04	5.066547e+03	4.291327e+03	0	8.546749e-04
5.200000e+08	1.880623e+13	0.000000e+00	7.105263e-01	3.286788e+14	4.889893e+14	5.378835e+13	1.056850e+04	5.054306e+03	4.280959e+03	0	8.487659e-04
5.300000e+08	1.842325e+13	0.000000e+00	7.105263e-01	3.222974e+14	4.824943e+14	5.352052e+13	1.052700e+04	5.042025e+03	4.270558e+03	0	8.429647e-04
5.400000e+08	1.805227e+13	0.000000e+00	7.105263e-01	3.161152e+14	4.760511e+14	5.325460e+13	1.048630e+04	5.029723e+03	4.260138e+03	0	8.372683e-04
5.500000e+08	1.769282e+13	0.000000e+00	7.105263e-01	3.101241e+14	4.696681e+14	5.299057e+13	1.044637e+04	5.017417e+03	4.249714e+03	0	8.316737e-04
5.600000e+08	1.734440e+13	0.000000e+00	7.105263e-01	3.043161e+14	4.633532e+14	5.272842e+13	1.040719e+04	5.005122e+03	4.239300e+03	0	8.261782e-04
5.700000e+08	1.700657e+13	0.000000e+00	7.105263e-01	2.986837e+14	4.571127e+14	5.246813e+13	1.036875e+04	4.992851e+03	4.228907e+03	0	8.207789e-04
5.800000e+08	1.667890e+13	0.000000e+00	7.105263e-01	2.932200e+14	4.509516e+14	5.220968e+13	1.033101e+04	4.980617e+03	4.218545e+03	0	8.154733e-04
5.900000e+08	1.636098e+13	0.000000e+00	7.105263e-01	2.879181e+14	4.448745e+14	5.195307e+13	1.029395e+04	4.968430e+03	4.208223e+03	0	8.102588e-04
6.000000e+08	1.605242e+13	0.000000e+00	7.105263e-01	2.827715e+14	4.388847e+14	5.169828e+13	1.025757e+04	4.956300e+03	4.197949e+03	0	8.051328e-04
6.100000e+08	1.575287e+13	0.000000e+00	7.105263e-01	2.777743e+14	4.329852e+14	5.144528e+13	1.022182e+04	4.944234e+03	4.187729e+03	0	8.000931e-04
6.200000e+08	1.546195e+13	0.000000e+00	7.105263e-01	2.729206e+14	4.271780e+14	5.119408e+13	1.018671e+04	4.932240e+03	4.177570e+03	0	7.951373e-04
6.300000e+08	1.517935e+13	0.000000e+00	7.105263e-01	2.682048e+14	4.214647e+14	5.094464e+13	1.015221e+04	4.920324e+03	4.167477e+03	0	7.902631e-04
6.400000e+08	1.490474e+13	0.000000e+00	7.105263e-01	2.636217e+14	4.158466e+14	5.069697e+13	1.011830e+04	4.908491e+03	4.157455e+03	0	7.854685e-04
6.500000e+08	1.463781e+13	0.000000e+00	7.105263e-01	2.591662e+14	4.103242e+14	5.045104e+13	1.008497e+04	4.896746e+03	4.147507e+03	0	7.807513e-04
6.600000e+08	1.437829e+13	0.000000e+00	7.105263e-01	2.548336e+14	4.048978e+14	5.020685e+13	1.005219e+04	4.885093e+03	4.137637e+03	0	7.761096e-04
6.700000e+08	1.412589e+13	0.000000e+00	7.105263e-01	2.506192e+14	3.995676e+14	4.996436e+13	1.001996e+04	4.873535e+03	4.127847e+03	0	7.715414e-04
6.800000e+08	1.388034e+13	0.000000e+00	7.105263e-01	2.465187e+14	3.943333e+14	4.972359e+13	9.988266e+03	4.862075e+03	4.118141e+03	0	7.670448e-04
6.900000e+08	1.364140e+13	0.000000e+00	7.105263e-01	2.425280e+14	3.891943e+14	4.948450e+13	9.957083e+03	4.850715e+03	4.108519e+03	0	7.626180e-04
7.000000e+08	1.340884e+13	0.000000e+00	7.105263e-01	2.386430e+14	3.841498e+14	4.924708e+13	9.926403e+03	4.839458e+03	4.098985e+03	0	7.582592e-04
7.100000e+08	1.318240e+13	0.000000e+00	7.105263e-01	2.348600e+14	3.791991e+14	4.901133e+13	9.896211e+03	4.828305e+03	4.089538e+03	0	7.539668e-04
7.200000e+08	1.296189e+13	0.000000e+00	7.105263e-01	2.311753e+14	3.743411e+14	4.877723e+13	9.866496e+03	4.817257e+03	4.080181e+03	0	7.497390e-04
7.300000e+08	1.274709e+13	0.000000e+00	7.105263e-01	2.275854e+14	3.695747e+14	4.854477e+13	9.837244e+03	4.806316e+03	4.070913e+03	0	7.455744e-04
7.400000e+08	1.253780e+13	0.000000e+00	7.105263e-01	2.240871e+14	3.648985e+14	4.831392e+13	9.808444e+03	4.795481e+03	4.061736e+03	0	7.414714e-04
7.500000e+08	1.233382e+13	0.000000e+00	7.105263e-01	2.206772e+14	3.603114e+14	4.808469e+13	9.780085e+03	4.784753e+03	4.052650e+03	0	7.374284e-04
7.600000e+08	1.213498e+13	0.000000e+00	7.105263e-01	2.173526e+14	3.558118e+14	4.785705e+13	9.752155e+03	4.774133e+03	4.043655e+03	0	7.334441e-04
7.700000e+08	1.194110e+13	0.000000e+00	7.105263e-01	2.141105e+14	3.513982e+14	4.763100e+13	9.724644e+03	4.763620e+03	4.034750e+03	0	7.295171e-04
7.800000e+08	1.175201e+13	0.000000e+00	7.105263e-01	2.109479e+14	3.470691e+14	4.740652e+13	9.697541e+03	4.753215e+03	4.025937e+03	0	7.256459e-04
7.900000e+08	1.156756e+13	0.000000e+00	7.105263e-01	2.078624e+14	3.428230e+14	4.718359e+13	9.670836e+03	4.742916e+03	4.017214e+03	0	7.218293e-04
8.000000e+08	1.138757e+13	0.000000e+00	7.105263e-01	2.048512e+14	3.386585e+14	4.696221e+13	9.644521e+03	4.732725e+03	4.008582e+03	0	7.180661e-04
8.100000e+08	1.121192e+13	0.000000e+00	7.105263e-01	2.019121e+14	3.345736e+14	4.674237e+13	9.618584e+03	4.722639e+03	4.000040e+03	0	7.143549e-04
8.200000e+08	1.104046e+13	0.000000e+00	7.105263e-01	1.990425e+14	3.305671e+14	4.652405e+13	9.593018e+03	4.712658e+03	3.991586e+03	0	7.106946e-04
8.300000e+08	1.087304e+13	0.000000e+00	7.105263e-01	1.962404e+14	3.266372e+14	4.630724e+13	9.567814e+03	4.702783e+03	3.983221e+03	0	7.070841e-04
8.400000e+08	1.070955e+13	0.000000e+00	7.105263e-01	1.935034e+14	3.227823e+14	4.609192e+13	9.542963e+03	4.693011e+03	3.974945e+03	0	7.035221e-04
8.500000e+08	1.054986e+13	0.000000e+00	7.105263e-01	1.908295e+14	3.190009e+14	4.587809e+13	9.518456e+03	4.683342e+03	3.966755e+03	0	7.000077e-04
8.600000e+08	1.039384e+13	0.000000e+00	7.105263e-01	1.882168e+14	3.152914e+14	4.566574e+13	9.494287e+03	4.673774e+03	3.958652e+03	0	6.965398e-04
8.700000e+08	1.024138e+13	0.000000e+00	7.105263e-01	1.856634e+14	3.116522e+14	4.545485e+13	9.470448e+03	4.664308e+03	3.950634e+03	0	6.931173e-04
8.800000e+08	1.009237e+13	0.000000e+00	7.105263e-01	1.831673e+14	3.080818e+14	4.524540e+13	9.446930e+03	4.654942e+03	3.942701e+03	0	6.897393e-04
8.900000e+08	9.946698e+12	0.000000e+00	7.105263e-01	1.807268e+14	3.045786e+14	4.503740e+13	9.423727e+03	4.645674e+03	3.934851e+03	0	6.864048e-04
9.000000e+08	9.804272e+12	0.000000e+00	7.105263e-01	1.783402e+14	3.011410e+14	4.483082e+13	9.400832e+03	4.636504e+03	3.927084e+03	0	6.831128e-04
9.100000e+08	9.664988e+12	0.000000e+00	7.105263e-01	1.760060e+14	2.977678e+14	4.462566e+13	9.378238e+03	4.627431e+03	3.919399e+03	0	6.798625e-04
9.200000e+08	9.528751e+12	0.000000e+00	7.105263e-01	1.737224e+14	2.944573e+14	4.442191e+13	9.355938e+03	4.618453e+03	3.911795e+03	0	6.766530e-04
9.300000e+08	9.395470e+12	0.000000e+00	7.105263e-01	1.714881e+14	2.912083e+14	4.421955e+13	9.333926e+03	4.609569e+03	3.904270e+03	0	6.734833e-04
9.400000e+08	9.265059e+12	0.000000e+00	7.105263e-01	1.693015e+14	2.880192e+14	4.401857e+13	9.312197e+03	4.600778e+03	3.896825e+03	0	6.703527e-04
9.500000e+08	9.137431e+12	0.000000e+00	7.105263e-01	1.671612e+14	2.848887e+14	4.381896e+13	9.290743e+03	4.592079e+03	3.889457e+03	0	6.672604e-04
9.600000e+08	9.012506e+12	0.000000e+00	7.105263e-01	1.650659e+14	2.818154e+14	4.362072e+13	9.269559e+03	4.583471e+03	3.882165e+03	0	6.642056e-04
9.700000e+08	8.890206e+12	0.000000e+00	7.105263e-01	1.630143e+14	2.787981e+14	4.342382e+13	9.248640e+03	4.574952e+03	3.874950e+03	0	6.611874e-04
9.800000e+08	8.770454e+12	0.000000e+00	7.105263e-01	1.610052e+14	2.758354e+14	4.322827e+13	9.227979e+03	4.566521e+03	3.867809e+03	0	6.582053e-04
9.900000e+08	8.653179e+12	0.000000e+00	7.105263e-01	1.590373e+14	2.729260e+14	4.303404e+13	9.207573e+03	4.558177e+03	3.860742e+03	0	6.552583e-04
1.000000e+09	8.538310e+12	0.000000e+00	7.105263e-01	1.571095e+14	2.700689e+14	4.284113e+13	9.187414e+03	4.549919e+03	3.853747e+03	0	6.523459e-04
1.010000e+09	8.425779e+12	0.000000e+00	7.105263e-01	1.552206e+14	2.672626e+14	4.264953e+13	9.167499e+03	4.541745e+03	3.846824e+03	0	6.494674e-04
1.020000e+09	8.315521e+12	0.000000e+00	7.105263e-01	1.533695e+14	2.645061e+14	4.245923e+13	9.147823e+03	4.533654e+03	3.839971e+03	0	6.466220e-04
1.030000e+09	8.207473e+12	0.000000e+00	7.105263e-01	1.515553e+14	2.617983e+14	4.227022e+13	9.128380e+03	4.525646e+03	3.833188e+03	0	6.438092e-04
1.040000e+09	8.101575e+12	0.000000e+00	7.105263e-01	1.497769e+14	2.591379e+14	4.208248e+13	9.109166e+03	4.517719e+03	3.826474e+03	0	6.410282e-04
1.050000e+09	7.997767e+12	0.000000e+00	7.105263e-01	1.480333e+14	2.565239e+14	4.189601e+13	9.090177e+03	4.509871e+03	3.819827e+03	0	6.382785e-04
1.060000e+09	7.895993e+12	0.000000e+00	7.105263e-01	1.463236e+14	2.539552e+14	4.171080e+13	9.071408e+03	4.502102e+03	3.813246e+03	0	6.355596e-04
1.070000e+09	7.796199e+12	0.000000e+00	7.105263e-01	1.446469e+14	2.514309e+14	4.152684e+13	9.052856e+03	4.494410e+03	3.806732e+03	0	6.328707e-04
1.080000e+09	7.698331e+12	0.000000e+00	7.105263e-01	1.430023e+14	2.489498e+14	4.134411e+13	9.034514e+03	4.486795e+03	3.800282e+03	0	6.302113e-04
1.090000e+09	7.602339e+12	0.000000e+00	7.105263e-01	1.413890e+14	2.465111e+14	4.116262e+13	9.016381e+03	4.479255e+03	3.793895e+03	0	6.275809e-04
1.100000e+09	7.508172e+12	0.000000e+00	7.105263e-01	1.398061e+14	2.441137e+14	4.098234e+13	8.998451e+03	4.471789e+03	3.787572e+03	0	6.249790e-04
1.110000e+09	7.415784e+12	0.000000e+00	7.105263e-01	1.382528e+14	2.417567e+14	4.080327e+13	8.980722e+03	4.464396e+03	3.781310e+03	0	6.224049e-04
1.120000e+09	7.325127e+12	0.000000e+00	7.105263e-01	1.367284e+14	2.394392e+14	4.062540e+13	8.963188e+03	4.457075e+03	3.775109e+03	0	6.198582e-04
1.130000e+09	7.236158e+12	0.000000e+00	7.105263e-01	1.352322e+14	2.371603e+14	4.044872e+13	8.945848e+03	4.449825e+03	3.768968e+03	0	6.173385e-04
1.140000e+09	7.148834e+12	0.000000e+00	7.105263e-01	1.337633e+14	2.349190e+14	4.027322e+13	8.928696e+03	4.442645e+03	3.762886e+03	0	6.148451e-04
1.150000e+09	7.063112e+12	0.000000e+00	7.105263e-01	1.323212e+14	2.327147e+14	4.009890e+13	8.911730e+03	4.435533e+03	3.756863e+03	0	6.123777e-04
1.160000e+09	6.978951e+12	0.000000e+00	7.105263e-01	1.309051e+14	2.305465e+14	3.992573e+13	8.894946e+03	4.428489e+03	3.750897e+03	0	6.099357e-04
1.170000e+09	6.896314e+12	0.000000e+00	7.105263e-01	1.295145e+14	2.284135e+14	3.975372e+13	8.878341e+03	4.421512e+03	3.744987e+03	0	6.075187e-04
1.180000e+09	6.815161e+12	0.000000e+00	7.105263e-01	1.281486e+14	2.263150e+14	3.958286e+13	8.861912e+03	4.414600e+03	3.739133e+03	0	6.051263e-04
1.190000e+09	6.735457e+12	0.000000e+00	7.105263e-01	1.268068e+14	2.242503e+14	3.941313e+13	8.845656e+03	4.407754e+03	3.733334e+03	0	6.027580e-04
1.200000e+09	6.657165e+12	0.000000e+00	7.105263e-01	1.254886e+14	2.222185e+14	3.924452e+13	8.829569e+03	4.400971e+03	3.727589e+03	0	6.004135e-04
1.210000e+09	6.580251e+12	0.000000e+00	7.105263e-01	1.241934e+14	2.202190e+14	3.907704e+13	8.813649e+03	4.394251e+03	3.721898e+03	0	5.980922e-04
1.220000e+09	6.504682e+12	0.000000e+00	7.105263e-01	1.229207e+14	2.182511e+14	3.891067e+13	8.797893e+03	4.387593e+03	3.716258e+03	0	5.957938e-04
1.230000e+09	6.430425e+12	0.000000e+00	7.105263e-01	1.216698e+14	2.163140e+14	3.874539e+13	8.782297e+03	4.380996e+03	3.710671e+03	0	5.935180e-04
1.240000e+09	6.357449e+12	0.000000e+00	7.105263e-01	1.204404e+14	2.144071e+14	3.858121e+13	8.766860e+03	4.374459e+03	3.705134e+03	0	5.912642e-04
1.250000e+09	6.285723e+12	0.000000e+00	7.105263e-01	1.192318e+14	2.125298e+14	3.841811e+13	8.751578e+03	4.367982e+03	3.699648e+03	0	5.890322e-04
1.260000e+09	6.215218e+12	0.000000e+00	7.105263e-01	1.180435e+14	2.106815e+14	3.825609e+13	8.736449e+03	4.361563e+03	3.694211e+03	0	5.868216e-04
1.270000e+09	6.145905e+12	0.000000e+00	7.105263e-01	1.168752e+14	2.088615e+14	3.809513e+13	8.721471e+03	4.355201e+03	3.688823e+03	0	5.846320e-04
1.280000e+09	6.077757e+12	0.000000e+00	7.105263e-01	1.157263e+14	2.070691e+14	3.793524e+13	8.706640e+03	4.348896e+03	3.683482e+03	0	5.824631e-04
1.290000e+09	6.010746e+12	0.000000e+00	7.105263e-01	1.145964e+14	2.053039e+14	3.777639e+13	8.691954e+03	4.342647e+03	3.678190e+03	0	5.803145e-04
1.300000e+09	5.944847e+12	0.000000e+00	7.105263e-01	1.134851e+14	2.035653e+14	3.761859e+13	8.677412e+03	4.336453e+03	3.672943e+03	0	5.781860e-04
1.310000e+09	5.880033e+12	0.000000e+00	7.105263e-01	1.123919e+14	2.018527e+14	3.746182e+13	8.663009e+03	4.330314e+03	3.667743e+03	0	5.760771e-04
1.320000e+09	5.816280e+12	0.000000e+00	7.105263e-01	1.113164e+14	2.001655e+14	3.730608e+13	8.648746e+03	4.324228e+03	3.662588e+03	0	5.739875e-04
1.330000e+09	5.753565e+12	0.000000e+00	7.105263e-01	1.102583e+14	1.985033e+14	3.715135e+13	8.634618e+03	4.318194e+03	3.657478e+03	0	5.719170e-04
1.340000e+09	5.691863e+12	0.000000e+00	7.105263e-01	1.092171e+14	1.968655e+14	3.699764e+13	8.620624e+03	4.312213e+03	3.652412e+03	0	5.698652e-04
1.350000e+09	5.631153e+12	0.000000e+00	7.105263e-01	1.081924e+14	1.952516e+14	3.684493e+13	8.606762e+03	4.306283e+03	3.647389e+03	0	5.678319e-04
1.360000e+09	5.571412e+12	0.000000e+00	7.105263e-01	1.071839e+14	1.936612e+14	3.669322e+13	8.593029e+03	4.300403e+03	3.642409e+03	0	5.658167e-04
