#t		Qconv[W]	Ri[Rp]		R*[Rp]		Qc[W]		Qm[W]		Qr[W]		Tcmb[K]		Tl[K]		Tup[K]		RiFlag		Bs[T]
0.000000e+00	9.027103e+13	0.000000e+00	7.105263e-01	1.439818e+15	2.619292e+13	7.629590e+13	1.589723e+04	3.242521e+03	2.731357e+03	0	1.428139e-03
1.000000e+07	8.828008e+13	0.000000e+00	7.105263e-01	1.408450e+15	3.725352e+13	7.587316e+13	1.573140e+04	3.406859e+03	2.869788e+03	0	1.417561e-03
2.000000e+07	8.626717e+13	0.000000e+00	7.105263e-01	1.376749e+15	5.111872e+13	7.545359e+13	1.556913e+04	3.566301e+03	3.004095e+03	0	1.406704e-03
3.000000e+07	8.423623e+13	0.000000e+00	7.105263e-01	1.344773e+15	6.797893e+13	7.503715e+13	1.541045e+04	3.720488e+03	3.133975e+03	0	1.395577e-03
4.000000e+07	8.219150e+13	0.000000e+00	7.105263e-01	1.312590e+15	8.792892e+13	7.462382e+13	1.525540e+04	3.869053e+03	3.259120e+03	0	1.384193e-03
5.000000e+07	8.013760e+13	0.000000e+00	7.105263e-01	1.280273e+15	1.109561e+14	7.421358e+13	1.510401e+04	4.011630e+03	3.379221e+03	0	1.372565e-03
6.000000e+07	7.807959e+13	0.000000e+00	7.105263e-01	1.247898e+15	1.369353e+14	7.380639e+13	1.495629e+04	4.147871e+03	3.493984e+03	0	1.360714e-03
7.000000e+07	7.602284e+13	0.000000e+00	7.105263e-01	1.215552e+15	1.656304e+14	7.340223e+13	1.481226e+04	4.277455e+03	3.603140e+03	0	1.348659e-03
8.000000e+07	7.397304e+13	0.000000e+00	7.105263e-01	1.183321e+15	1.967031e+14	7.300108e+13	1.467191e+04	4.400103e+03	3.706453e+03	0	1.336427e-03
9.000000e+07	7.193603e+13	0.000000e+00	7.105263e-01	1.151297e+15	2.297287e+14	7.260292e+13	1.453523e+04	4.515587e+03	3.803732e+03	0	1.324046e-03
1.000000e+08	6.991770e+13	0.000000e+00	7.105263e-01	1.119572e+15	2.642158e+14	7.220770e+13	1.440221e+04	4.623740e+03	3.894835e+03	0	1.311545e-03
1.100000e+08	6.792381e+13	0.000000e+00	7.105263e-01	1.088236e+15	2.996310e+14	7.181543e+13	1.427280e+04	4.724464e+03	3.979681e+03	0	1.298957e-03
1.200000e+08	6.595989e+13	0.000000e+00	7.105263e-01	1.057373e+15	3.354235e+14	7.142606e+13	1.414698e+04	4.817730e+03	4.058244e+03	0	1.286316e-03
1.300000e+08	6.403103e+13	0.000000e+00	7.105263e-01	1.027065e+15	3.710498e+14	7.103957e+13	1.402468e+04	4.903579e+03	4.130560e+03	0	1.273653e-03
1.400000e+08	6.214186e+13	0.000000e+00	7.105263e-01	9.973819e+14	4.059960e+14	7.065594e+13	1.390585e+04	4.982120e+03	4.196719e+03	0	1.261002e-03
1.500000e+08	6.029639e+13	0.000000e+00	7.105263e-01	9.683870e+14	4.397957e+14	7.027515e+13	1.379042e+04	5.053523e+03	4.256865e+03	0	1.248393e-03
1.600000e+08	5.849800e+13	0.000000e+00	7.105263e-01	9.401325e+14	4.720437e+14	6.989717e+13	1.367830e+04	5.118015e+03	4.311191e+03	0	1.235856e-03
1.700000e+08	5.674940e+13	0.000000e+00	7.105263e-01	9.126605e+14	5.024046e+14	6.952198e+13	1.356942e+04	5.175869e+03	4.359925e+03	0	1.223417e-03
1.800000e+08	5.505263e+13	0.000000e+00	7.105263e-01	8.860028e+14	5.306165e+14	6.914956e+13	1.346369e+04	5.227397e+03	4.403329e+03	0	1.211101e-03
1.900000e+08	5.340913e+13	0.000000e+00	7.105263e-01	8.601813e+14	5.564904e+14	6.877988e+13	1.336102e+04	5.272936e+03	4.441690e+03	0	1.198927e-03
2.000000e+08	5.181973e+13	0.000000e+00	7.105263e-01	8.352089e+14	5.799065e+14	6.841292e+13	1.326131e+04	5.312848e+03	4.475309e+03	0	1.186914e-03
2.100000e+08	5.028473e+13	0.000000e+00	7.105263e-01	8.110902e+14	6.008080e+14	6.804865e+13	1.316447e+04	5.347500e+03	4.504499e+03	0	1.175077e-03
2.200000e+08	4.880399e+13	0.000000e+00	7.105263e-01	7.878226e+14	6.191930e+14	6.768707e+13	1.307039e+04	5.377268e+03	4.529574e+03	0	1.163427e-03
2.300000e+08	4.737696e+13	0.000000e+00	7.105263e-01	7.653975e+14	6.351055e+14	6.732814e+13	1.297899e+04	5.402522e+03	4.550847e+03	0	1.151976e-03
2.400000e+08	4.600276e+13	0.000000e+00	7.105263e-01	7.438009e+14	6.486272e+14	6.697183e+13	1.289017e+04	5.423625e+03	4.568623e+03	0	1.140728e-03
2.500000e+08	4.468027e+13	0.000000e+00	7.105263e-01	7.230150e+14	6.598677e+14	6.661814e+13	1.280382e+04	5.440927e+03	4.583198e+03	0	1.129690e-03
2.600000e+08	4.340812e+13	0.000000e+00	7.105263e-01	7.030186e+14	6.689581e+14	6.626704e+13	1.271987e+04	5.454765e+03	4.594854e+03	0	1.118866e-03
2.700000e+08	4.218483e+13	0.000000e+00	7.105263e-01	6.837882e+14	6.760427e+14	6.591850e+13	1.263822e+04	5.465456e+03	4.603860e+03	0	1.108255e-03
2.800000e+08	4.100878e+13	0.000000e+00	7.105263e-01	6.652984e+14	6.812741e+14	6.557251e+13	1.255879e+04	5.473299e+03	4.610467e+03	0	1.097859e-03
2.900000e+08	3.987828e+13	0.000000e+00	7.105263e-01	6.475229e+14	6.848080e+14	6.522905e+13	1.248148e+04	5.478573e+03	4.614909e+03	0	1.087676e-03
3.000000e+08	3.879161e+13	0.000000e+00	7.105263e-01	6.304345e+14	6.867993e+14	6.488809e+13	1.240622e+04	5.481536e+03	4.617405e+03	0	1.077706e-03
3.100000e+08	3.774703e+13	0.000000e+00	7.105263e-01	6.140060e+14	6.873990e+14	6.454961e+13	1.233293e+04	5.482427e+03	4.618155e+03	0	1.067944e-03
3.200000e+08	3.674281e+13	0.000000e+00	7.105263e-01	5.982102e+14	6.867518e+14	6.421359e+13	1.226154e+04	5.481465e+03	4.617345e+03	0	1.058388e-03
3.300000e+08	3.577723e+13	0.000000e+00	7.105263e-01	5.830203e+14	6.849952e+14	6.388002e+13	1.219196e+04	5.478851e+03	4.615144e+03	0	1.049035e-03
3.400000e+08	3.484862e+13	0.000000e+00	7.105263e-01	5.684101e+14	6.822576e+14	6.354887e+13	1.212414e+04	5.474769e+03	4.611705e+03	0	1.039879e-03
3.500000e+08	3.395535e+13	0.000000e+00	7.105263e-01	5.543540e+14	6.786589e+14	6.322012e+13	1.205800e+04	5.469384e+03	4.607168e+03	0	1.030917e-03
3.600000e+08	3.309584e+13	0.000000e+00	7.105263e-01	5.408273e+14	6.743086e+14	6.289376e+13	1.199349e+04	5.462847e+03	4.601662e+03	0	1.022144e-03
3.700000e+08	3.226857e+13	0.000000e+00	7.105263e-01	5.278061e+14	6.693075e+14	6.256976e+13	1.193054e+04	5.455295e+03	4.595300e+03	0	1.013555e-03
3.800000e+08	3.147207e+13	0.000000e+00	7.105263e-01	5.152675e+14	6.637475e+14	6.224810e+13	1.186909e+04	5.446850e+03	4.588187e+03	0	1.005146e-03
3.900000e+08	3.070494e+13	0.000000e+00	7.105263e-01	5.031896e+14	6.577113e+14	6.192877e+13	1.180909e+04	5.437624e+03	4.580415e+03	0	9.969123e-04
4.000000e+08	2.996584e+13	0.000000e+00	7.105263e-01	4.915514e+14	6.512731e+14	6.161175e+13	1.175049e+04	5.427716e+03	4.572070e+03	0	9.888484e-04
4.100000e+08	2.925350e+13	0.000000e+00	7.105263e-01	4.803328e+14	6.445000e+14	6.129701e+13	1.169323e+04	5.417217e+03	4.563225e+03	0	9.809499e-04
4.200000e+08	2.856669e+13	0.000000e+00	7.105263e-01	4.695148e+14	6.374517e+14	6.098454e+13	1.163727e+04	5.406206e+03	4.553950e+03	0	9.732122e-04
4.300000e+08	2.790426e+13	0.000000e+00	7.105263e-01	4.590791e+14	6.301813e+14	6.067432e+13	1.158256e+04	5.394756e+03	4.544305e+03	0	9.656307e-04
4.400000e+08	2.726510e+13	0.000000e+00	7.105263e-01	4.490086e+14	6.227359e+14	6.036634e+13	1.152906e+04	5.382931e+03	4.534344e+03	0	9.582009e-04
4.500000e+08	2.664816e+13	0.000000e+00	7.105263e-01	4.392867e+14	6.151572e+14	6.006056e+13	1.147672e+04	5.370789e+03	4.524116e+03	0	9.509185e-04
4.600000e+08	2.605245e+13	0.000000e+00	7.105263e-01	4.298980e+14	6.074818e+14	5.975698e+13	1.142551e+04	5.358381e+03	4.513665e+03	0	9.437792e-04
4.700000e+08	2.547702e+13	0.000000e+00	7.105263e-01	4.208274e+14	5.997416e+14	5.945558e+13	1.137538e+04	5.345754e+03	4.503028e+03	0	9.367788e-04
4.800000e+08	2.492097e+13	0.000000e+00	7.105263e-01	4.120612e+14	5.919650e+14	5.915634e+13	1.132631e+04	5.332948e+03	4.492241e+03	0	9.299135e-04
4.900000e+08	2.438346e+13	0.000000e+00	7.105263e-01	4.035858e+14	5.841768e+14	5.885924e+13	1.127825e+04	5.320000e+03	4.481334e+03	0	9.231791e-04
5.000000e+08	2.386367e+13	0.000000e+00	7.105263e-01	3.953886e+14	5.763979e+14	5.856427e+13	1.123117e+04	5.306943e+03	4.470335e+03	0	9.165721e-04
5.100000e+08	2.336084e+13	0.000000e+00	7.105263e-01	3.874576e+14	5.686470e+14	5.827140e+13	1.118504e+04	5.293805e+03	4.459269e+03	0	9.100887e-04
5.200000e+08	2.287425e+13	0.000000e+00	7.105263e-01	3.797815e+14	5.609399e+14	5.798062e+13	1.113983e+04	5.280613e+03	4.448156e+03	0	9.037254e-04
5.300000e+08	2.240319e+13	0.000000e+00	7.105263e-01	3.723493e+14	5.532903e+14	5.769192e+13	1.109551e+04	5.267388e+03	4.437016e+03	0	8.974787e-04
5.400000e+08	2.194702e+13	0.000000e+00	7.105263e-01	3.651508e+14	5.457098e+14	5.740527e+13	1.105206e+04	5.254152e+03	4.425867e+03	0	8.913454e-04
5.500000e+08	2.150510e+13	0.000000e+00	7.105263e-01	3.581763e+14	5.382084e+14	5.712066e+13	1.100943e+04	5.240923e+03	4.414723e+03	0	8.853223e-04
5.600000e+08	2.107686e+13	0.000000e+00	7.105263e-01	3.514164e+14	5.307941e+14	5.683808e+13	1.096762e+04	5.227715e+03	4.403597e+03	0	8.794062e-04
5.700000e+08	2.066173e+13	0.000000e+00	7.105263e-01	3.448625e+14	5.234743e+14	5.655750e+13	1.092659e+04	5.214543e+03	4.392502e+03	0	8.735942e-04
5.800000e+08	2.025917e+13	0.000000e+00	7.105263e-01	3.385060e+14	5.162540e+14	5.627891e+13	1.088632e+04	5.201419e+03	4.381447e+03	0	8.678834e-04
5.900000e+08	1.986867e+13	0.000000e+00	7.105263e-01	3.323390e+14	5.091383e+14	5.600230e+13	1.084679e+04	5.188355e+03	4.370442e+03	0	8.622711e-04
6.000000e+08	1.948976e+13	0.000000e+00	7.105263e-01	3.263540e+14	5.021306e+14	5.572764e+13	1.080798e+04	5.175358e+03	4.359494e+03	0	8.567545e-04
6.100000e+08	1.912197e+13	0.000000e+00	7.105263e-01	3.205438e+14	4.952340e+14	5.545493e+13	1.076986e+04	5.162439e+03	4.348612e+03	0	8.513310e-04
6.200000e+08	1.876487e+13	0.000000e+00	7.105263e-01	3.149015e+14	4.884504e+14	5.518415e+13	1.073242e+04	5.149603e+03	4.337799e+03	0	8.459981e-04
6.300000e+08	1.841804e+13	0.000000e+00	7.105263e-01	3.094206e+14	4.817814e+14	5.491528e+13	1.069563e+04	5.136858e+03	4.327063e+03	0	8.407535e-04
6.400000e+08	1.808108e+13	0.000000e+00	7.105263e-01	3.040949e+14	4.752279e+14	5.464830e+13	1.065947e+04	5.124207e+03	4.316407e+03	0	8.355947e-04
6.500000e+08	1.775362e+13	0.000000e+00	7.105263e-01	2.989184e+14	4.687905e+14	5.438320e+13	1.062394e+04	5.111657e+03	4.305835e+03	0	8.305196e-04
6.600000e+08	1.743530e+13	0.000000e+00	7.105263e-01	2.938855e+14	4.624692e+14	5.411997e+13	1.058901e+04	5.099210e+03	4.295351e+03	0	8.255259e-04
6.700000e+08	1.712577e+13	0.000000e+00	7.105263e-01	2.889909e+14	4.562636e+14	5.385859e+13	1.055466e+04	5.086871e+03	4.284956e+03	0	8.206115e-04
6.800000e+08	1.682471e+13	0.000000e+00	7.105263e-01	2.842294e+14	4.501732e+14	5.359905e+13	1.052088e+04	5.074641e+03	4.274655e+03	0	8.157744e-04
6.900000e+08	1.653180e+13	0.000000e+00	7.105263e-01	2.795961e+14	4.441971e+14	5.334133e+13	1.048765e+04	5.062524e+03	4.264447e+03	0	8.110126e-04
7.000000e+08	1.624675e+13	0.000000e+00	7.105263e-01	2.750863e+14	4.383344e+14	5.308541e+13	1.045497e+04	5.050520e+03	4.254336e+03	0	8.063242e-04
7.100000e+08	1.596927e+13	0.000000e+00	7.105263e-01	2.706956e+14	4.325837e+14	5.283128e+13	1.042281e+04	5.038632e+03	4.244322e+03	0	8.017074e-04
7.200000e+08	1.569909e+13	0.000000e+00	7.105263e-01	2.664197e+14	4.269435e+14	5.257894e+13	1.039115e+04	5.026859e+03	4.234405e+03	0	7.971603e-04
7.300000e+08	1.543595e+13	0.000000e+00	7.105263e-01	2.622545e+14	4.214124e+14	5.232835e+13	1.036000e+04	5.015204e+03	4.224588e+03	0	7.926813e-04
7.400000e+08	1.517960e+13	0.000000e+00	7.105263e-01	2.581962e+14	4.159887e+14	5.207951e+13	1.032933e+04	5.003667e+03	4.214869e+03	0	7.882688e-04
7.500000e+08	1.492981e+13	0.000000e+00	7.105263e-01	2.542410e+14	4.106707e+14	5.183241e+13	1.029913e+04	4.992247e+03	4.205249e+03	0	7.839209e-04
7.600000e+08	1.468634e+13	0.000000e+00	7.105263e-01	2.503853e+14	4.054564e+14	5.158703e+13	1.026940e+04	4.980945e+03	4.195729e+03	0	7.796363e-04
7.700000e+08	1.444899e+13	0.000000e+00	7.105263e-01	2.466258e+14	4.003440e+14	5.134336e+13	1.024011e+04	4.969761e+03	4.186308e+03	0	7.754135e-04
7.800000e+08	1.421753e+13	0.000000e+00	7.105263e-01	2.429592e+14	3.953317e+14	5.110138e+13	1.021126e+04	4.958694e+03	4.176986e+03	0	7.712508e-04
7.900000e+08	1.399178e+13	0.000000e+00	7.105263e-01	2.393823e+14	3.904176e+14	5.086109e+13	1.018283e+04	4.947743e+03	4.167761e+03	0	7.671470e-04
8.000000e+08	1.377155e+13	0.000000e+00	7.105263e-01	2.358921e+14	3.855996e+14	5.062245e+13	1.015482e+04	4.936909e+03	4.158635e+03	0	7.631006e-04
8.100000e+08	1.355664e+13	0.000000e+00	7.105263e-01	2.324859e+14	3.808758e+14	5.038548e+13	1.012722e+04	4.926190e+03	4.149606e+03	0	7.591103e-04
8.200000e+08	1.334688e+13	0.000000e+00	7.105263e-01	2.291608e+14	3.762442e+14	5.015014e+13	1.010002e+04	4.915586e+03	4.140674e+03	0	7.551748e-04
8.300000e+08	1.314211e+13	0.000000e+00	7.105263e-01	2.259141e+14	3.717029e+14	4.991643e+13	1.007320e+04	4.905096e+03	4.131837e+03	0	7.512929e-04
8.400000e+08	1.294217e+13	0.000000e+00	7.105263e-01	2.227435e+14	3.672498e+14	4.968433e+13	1.004676e+04	4.894718e+03	4.123095e+03	0	7.474634e-04
8.500000e+08	1.274690e+13	0.000000e+00	7.105263e-01	2.196463e+14	3.628830e+14	4.945384e+13	1.002069e+04	4.884451e+03	4.114447e+03	0	7.436850e-04
8.600000e+08	1.255614e+13	0.000000e+00	7.105263e-01	2.166204e+14	3.586008e+14	4.922493e+13	9.994985e+03	4.874295e+03	4.105892e+03	0	7.399567e-04
8.700000e+08	1.236977e+13	0.000000e+00	7.105263e-01	2.136634e+14	3.544010e+14	4.899760e+13	9.969628e+03	4.864248e+03	4.097429e+03	0	7.362773e-04
8.800000e+08	1.218764e+13	0.000000e+00	7.105263e-01	2.107733e+14	3.502819e+14	4.877183e+13	9.944617e+03	4.854309e+03	4.089057e+03	0	7.326458e-04
8.900000e+08	1.200961e+13	0.000000e+00	7.105263e-01	2.079478e+14	3.462416e+14	4.854762e+13	9.919942e+03	4.844477e+03	4.080774e+03	0	7.290611e-04
9.000000e+08	1.183557e+13	0.000000e+00	7.105263e-01	2.051851e+14	3.422783e+14	4.832494e+13	9.895596e+03	4.834750e+03	4.072581e+03	0	7.255221e-04
9.100000e+08	1.166540e+13	0.000000e+00	7.105263e-01	2.024833e+14	3.383902e+14	4.810379e+13	9.871573e+03	4.825128e+03	4.064475e+03	0	7.220280e-04
9.200000e+08	1.149896e+13	0.000000e+00	7.105263e-01	1.998405e+14	3.345756e+14	4.788416e+13	9.847864e+03	4.815608e+03	4.056456e+03	0	7.185778e-04
9.300000e+08	1.133616e+13	0.000000e+00	7.105263e-01	1.972549e+14	3.308328e+14	4.766602e+13	9.824464e+03	4.806189e+03	4.048523e+03	0	7.151705e-04
9.400000e+08	1.117689e+13	0.000000e+00	7.105263e-01	1.947248e+14	3.271601e+14	4.744938e+13	9.801365e+03	4.796871e+03	4.040673e+03	0	7.118052e-04
9.500000e+08	1.102103e+13	0.000000e+00	7.105263e-01	1.922486e+14	3.235557e+14	4.723422e+13	9.778561e+03	4.787652e+03	4.032907e+03	0	7.084811e-04
9.600000e+08	1.086849e+13	0.000000e+00	7.105263e-01	1.898248e+14	3.200182e+14	4.702052e+13	9.756045e+03	4.778530e+03	4.025223e+03	0	7.051973e-04
9.700000e+08	1.071917e+13	0.000000e+00	7.105263e-01	1.874517e+14	3.165459e+14	4.680828e+13	9.733813e+03	4.769504e+03	4.017620e+03	0	7.019529e-04
9.800000e+08	1.057299e+13	0.000000e+00	7.105263e-01	1.851280e+14	3.131374e+14	4.659748e+13	9.711857e+03	4.760573e+03	4.010097e+03	0	6.987472e-04
9.900000e+08	1.042984e+13	0.000000e+00	7.105263e-01	1.828522e+14	3.097911e+14	4.638812e+13	9.690172e+03	4.751735e+03	4.002652e+03	0	6.955795e-04
1.000000e+09	1.028964e+13	0.000000e+00	7.105263e-01	1.806230e+14	3.065055e+14	4.618017e+13	9.668753e+03	4.742989e+03	3.995285e+03	0	6.924488e-04
1.010000e+09	1.015232e+13	0.000000e+00	7.105263e-01	1.784390e+14	3.032792e+14	4.597364e+13	9.647594e+03	4.734334e+03	3.987995e+03	0	6.893545e-04
1.020000e+09	1.001778e+13	0.000000e+00	7.105263e-01	1.762991e+14	3.001110e+14	4.576851e+13	9.626690e+03	4.725768e+03	3.980779e+03	0	6.862959e-04
1.030000e+09	9.885959e+12	0.000000e+00	7.105263e-01	1.742018e+14	2.969992e+14	4.556476e+13	9.606035e+03	4.717290e+03	3.973638e+03	0	6.832723e-04
1.040000e+09	9.756771e+12	0.000000e+00	7.105263e-01	1.721462e+14	2.939427e+14	4.536239e+13	9.585625e+03	4.708899e+03	3.966570e+03	0	6.802829e-04
1.050000e+09	9.630147e+12	0.000000e+00	7.105263e-01	1.701310e+14	2.909402e+14	4.516139e+13	9.565456e+03	4.700593e+03	3.959573e+03	0	6.773272e-04
1.060000e+09	9.506018e+12	0.000000e+00	7.105263e-01	1.681552e+14	2.879903e+14	4.496175e+13	9.545521e+03	4.692372e+03	3.952648e+03	0	6.744044e-04
1.070000e+09	9.384315e+12	0.000000e+00	7.105263e-01	1.662177e+14	2.850920e+14	4.476344e+13	9.525817e+03	4.684234e+03	3.945792e+03	0	6.715140e-04
1.080000e+09	9.264974e+12	0.000000e+00	7.105263e-01	1.643175e+14	2.822438e+14	4.456648e+13	9.506339e+03	4.676177e+03	3.939006e+03	0	6.686553e-04
1.090000e+09	9.147933e+12	0.000000e+00	7.105263e-01	1.624535e+14	2.794448e+14	4.437084e+13	9.487083e+03	4.668200e+03	3.932287e+03	0	6.658277e-04
1.100000e+09	9.033129e+12	0.000000e+00	7.105263e-01	1.606249e+14	2.766938e+14	4.417651e+13	9.468044e+03	4.660303e+03	3.925635e+03	0	6.630307e-04
1.110000e+09	8.920505e+12	0.000000e+00	7.105263e-01	1.588306e+14	2.739897e+14	4.398348e+13	9.449219e+03	4.652484e+03	3.919048e+03	0	6.602636e-04
1.120000e+09	8.810003e+12	0.000000e+00	7.105263e-01	1.570699e+14	2.713313e+14	4.379175e+13	9.430604e+03	4.644742e+03	3.912527e+03	0	6.575260e-04
1.130000e+09	8.701569e+12	0.000000e+00	7.105263e-01	1.553418e+14	2.687178e+14	4.360130e+13	9.412194e+03	4.637076e+03	3.906069e+03	0	6.548172e-04
1.140000e+09	8.595149e+12	0.000000e+00	7.105263e-01	1.536456e+14	2.661480e+14	4.341212e+13	9.393986e+03	4.629484e+03	3.899674e+03	0	6.521368e-04
1.150000e+09	8.490692e+12	0.000000e+00	7.105263e-01	1.519803e+14	2.636209e+14	4.322421e+13	9.375976e+03	4.621965e+03	3.893340e+03	0	6.494842e-04
1.160000e+09	8.388148e+12	0.000000e+00	7.105263e-01	1.503452e+14	2.611355e+14	4.303755e+13	9.358160e+03	4.614519e+03	3.887068e+03	0	6.468589e-04
1.170000e+09	8.287470e+12	0.000000e+00	7.105263e-01	1.487396e+14	2.586911e+14	4.285213e+13	9.340536e+03	4.607145e+03	3.880856e+03	0	6.442605e-04
1.180000e+09	8.188609e+12	0.000000e+00	7.105263e-01	1.471628e+14	2.562866e+14	4.266795e+13	9.323099e+03	4.599840e+03	3.874703e+03	0	6.416885e-04
1.190000e+09	8.091522e+12	0.000000e+00	7.105263e-01	1.456139e+14	2.539211e+14	4.248499e+13	9.305846e+03	4.592604e+03	3.868608e+03	0	6.391424e-04
1.200000e+09	7.996164e+12	0.000000e+00	7.105263e-01	1.440924e+14	2.515937e+14	4.230325e+13	9.288775e+03	4.585437e+03	3.862570e+03	0	6.366217e-04
1.210000e+09	7.902493e+12	0.000000e+00	7.105263e-01	1.425975e+14	2.493038e+14	4.212271e+13	9.271881e+03	4.578336e+03	3.856589e+03	0	6.341260e-04
1.220000e+09	7.810468e+12	0.000000e+00	7.105263e-01	1.411286e+14	2.470503e+14	4.194337e+13	9.255161e+03	4.571302e+03	3.850664e+03	0	6.316549e-04
1.230000e+09	7.720049e+12	0.000000e+00	7.105263e-01	1.396851e+14	2.448325e+14	4.176521e+13	9.238614e+03	4.564333e+03	3.844793e+03	0	6.292080e-04
1.240000e+09	7.631198e+12	0.000000e+00	7.105263e-01	1.382664e+14	2.426496e+14	4.158823e+13	9.222235e+03	4.557428e+03	3.838977e+03	0	6.267848e-04
1.250000e+09	7.543876e+12	0.000000e+00	7.105263e-01	1.368719e+14	2.405010e+14	4.141242e+13	9.206021e+03	4.550586e+03	3.833213e+03	0	6.243849e-04
1.260000e+09	7.458048e+12	0.000000e+00	7.105263e-01	1.355010e+14	2.383857e+14	4.123777e+13	9.189971e+03	4.543806e+03	3.827502e+03	0	6.220080e-04
1.270000e+09	7.373679e+12	0.000000e+00	7.105263e-01	1.341531e+14	2.363031e+14	4.106427e+13	9.174081e+03	4.537088e+03	3.821843e+03	0	6.196536e-04
1.280000e+09	7.290735e+12	0.000000e+00	7.105263e-01	1.328278e+14	2.342526e+14	4.089191e+13	9.158349e+03	4.530430e+03	3.816235e+03	0	6.173214e-04
1.290000e+09	7.209181e+12	0.000000e+00	7.105263e-01	1.315245e+14	2.322334e+14	4.072069e+13	9.142771e+03	4.523831e+03	3.810676e+03	0	6.150110e-04
1.300000e+09	7.128987e+12	0.000000e+00	7.105263e-01	1.302426e+14	2.302449e+14	4.055058e+13	9.127346e+03	4.517291e+03	3.805168e+03	0	6.127220e-04
1.310000e+09	7.050120e+12	0.000000e+00	7.105263e-01	1.289818e+14	2.282864e+14	4.038160e+13	9.112071e+03	4.510809e+03	3.799707e+03	0	6.104542e-04
1.320000e+09	6.972551e+12	0.000000e+00	7.105263e-01	1.277415e+14	2.263572e+14	4.021372e+13	9.096943e+03	4.504384e+03	3.794295e+03	0	6.082071e-04
1.330000e+09	6.896250e+12	0.000000e+00	7.105263e-01	1.265213e+14	2.244569e+14	4.004693e+13	9.081960e+03	4.498015e+03	3.788930e+03	0	6.059804e-04
1.340000e+09	6.821189e+12	0.000000e+00	7.105263e-01	1.253206e+14	2.225847e+14	3.988124e+13	9.067120e+03	4.491701e+03	3.783612e+03	0	6.037738e-04
1.350000e+09	6.747339e+12	0.000000e+00	7.105263e-01	1.241392e+14	2.207401e+14	3.971663e+13	9.052420e+03	4.485442e+03	3.778339e+03	0	6.015869e-04
1.360000e+09	6.674675e+12	0.000000e+00	7.105263e-01	1.229765e+14	2.189226e+14	3.955309e+13	9.037858e+03	4.479237e+03	3.773112e+03	0	5.994196e-04
