#t		Qconv[W]	Ri[Rp]		R*[Rp]		Qc[W]		Qm[W]		Qr[W]		Tcmb[K]		Tl[K]		Tup[K]		RiFlag		Bs[T]
0.000000e+00	9.903090e+13	0.000000e+00	7.105263e-01	1.535029e+15	2.549717e+13	7.975106e+13	1.638583e+04	3.279549e+03	2.755295e+03	0	1.470434e-03
1.000000e+07	9.692193e+13	0.000000e+00	7.105263e-01	1.502756e+15	3.649176e+13	7.930918e+13	1.621766e+04	3.447511e+03	2.896408e+03	0	1.459921e-03
2.000000e+07	9.478609e+13	0.000000e+00	7.105263e-01	1.470084e+15	5.036224e+13	7.887061e+13	1.605297e+04	3.610689e+03	3.033501e+03	0	1.449117e-03
3.000000e+07	9.262742e+13	0.000000e+00	7.105263e-01	1.437076e+15	6.733143e+13	7.843531e+13	1.589180e+04	3.768723e+03	3.166272e+03	0	1.438032e-03
4.000000e+07	9.045028e+13	0.000000e+00	7.105263e-01	1.403796e+15	8.752802e+13	7.800326e+13	1.573420e+04	3.921241e+03	3.294410e+03	0	1.426676e-03
5.000000e+07	8.825948e+13	0.000000e+00	7.105263e-01	1.370318e+15	1.109728e+14	7.757444e+13	1.558019e+04	4.067870e+03	3.417600e+03	0	1.415063e-03
6.000000e+07	8.606024e+13	0.000000e+00	7.105263e-01	1.336721e+15	1.375710e+14	7.714881e+13	1.542980e+04	4.208250e+03	3.535539e+03	0	1.403210e-03
7.000000e+07	8.385820e+13	0.000000e+00	7.105263e-01	1.303090e+15	1.671119e+14	7.672635e+13	1.528305e+04	4.342044e+03	3.647945e+03	0	1.391139e-03
8.000000e+07	8.165936e+13	0.000000e+00	7.105263e-01	1.269516e+15	1.992753e+14	7.630704e+13	1.513994e+04	4.468953e+03	3.754567e+03	0	1.378872e-03
9.000000e+07	7.946993e+13	0.000000e+00	7.105263e-01	1.236092e+15	2.336456e+14	7.589084e+13	1.500048e+04	4.588726e+03	3.855194e+03	0	1.366437e-03
1.000000e+08	7.729626e+13	0.000000e+00	7.105263e-01	1.202915e+15	2.697308e+14	7.547773e+13	1.486464e+04	4.701171e+03	3.949663e+03	0	1.353863e-03
1.100000e+08	7.514462e+13	0.000000e+00	7.105263e-01	1.170080e+15	3.069862e+14	7.506768e+13	1.473240e+04	4.806161e+03	4.037870e+03	0	1.341183e-03
1.200000e+08	7.302109e+13	0.000000e+00	7.105263e-01	1.137677e+15	3.448402e+14	7.466068e+13	1.460373e+04	4.903638e+03	4.119765e+03	0	1.328428e-03
1.300000e+08	7.093137e+13	0.000000e+00	7.105263e-01	1.105794e+15	3.827201e+14	7.425669e+13	1.447858e+04	4.993616e+03	4.195360e+03	0	1.315633e-03
1.400000e+08	6.888070e+13	0.000000e+00	7.105263e-01	1.074509e+15	4.200755e+14	7.385569e+13	1.435690e+04	5.076177e+03	4.264723e+03	0	1.302830e-03
1.500000e+08	6.687372e+13	0.000000e+00	7.105263e-01	1.043893e+15	4.563989e+14	7.345765e+13	1.423862e+04	5.151468e+03	4.327978e+03	0	1.290052e-03
1.600000e+08	6.491439e+13	0.000000e+00	7.105263e-01	1.014005e+15	4.912420e+14	7.306256e+13	1.412368e+04	5.219693e+03	4.385297e+03	0	1.277328e-03
1.700000e+08	6.300602e+13	0.000000e+00	7.105263e-01	9.848947e+14	5.242254e+14	7.267038e+13	1.401199e+04	5.281107e+03	4.436894e+03	0	1.264686e-03
1.800000e+08	6.115118e+13	0.000000e+00	7.105263e-01	9.566011e+14	5.550457e+14	7.228109e+13	1.390348e+04	5.336007e+03	4.483018e+03	0	1.252151e-03
1.900000e+08	5.935176e+13	0.000000e+00	7.105263e-01	9.291526e+14	5.834752e+14	7.189467e+13	1.379805e+04	5.384723e+03	4.523946e+03	0	1.239747e-03
2.000000e+08	5.760904e+13	0.000000e+00	7.105263e-01	9.025681e+14	6.093604e+14	7.151109e+13	1.369562e+04	5.427606e+03	4.559974e+03	0	1.227492e-03
2.100000e+08	5.592366e+13	0.000000e+00	7.105263e-01	8.768574e+14	6.326158e+14	7.113033e+13	1.359609e+04	5.465022e+03	4.591409e+03	0	1.215403e-03
2.200000e+08	5.429579e+13	0.000000e+00	7.105263e-01	8.520225e+14	6.532169e+14	7.075237e+13	1.349937e+04	5.497347e+03	4.618566e+03	0	1.203494e-03
2.300000e+08	5.272509e+13	0.000000e+00	7.105263e-01	8.280584e+14	6.711899e+14	7.037718e+13	1.340536e+04	5.524952e+03	4.641759e+03	0	1.191775e-03
2.400000e+08	5.121089e+13	0.000000e+00	7.105263e-01	8.049544e+14	6.866053e+14	7.000474e+13	1.331397e+04	5.548207e+03	4.661296e+03	0	1.180256e-03
2.500000e+08	4.975217e+13	0.000000e+00	7.105263e-01	7.826951e+14	6.995653e+14	6.963503e+13	1.322511e+04	5.567468e+03	4.677478e+03	0	1.168941e-03
2.600000e+08	4.834767e+13	0.000000e+00	7.105263e-01	7.612611e+14	7.101980e+14	6.926803e+13	1.313868e+04	5.583079e+03	4.690594e+03	0	1.157836e-03
2.700000e+08	4.699593e+13	0.000000e+00	7.105263e-01	7.406302e+14	7.186492e+14	6.890371e+13	1.305460e+04	5.595368e+03	4.700918e+03	0	1.146943e-03
2.800000e+08	4.569534e+13	0.000000e+00	7.105263e-01	7.207780e+14	7.250752e+14	6.854205e+13	1.297278e+04	5.604642e+03	4.708710e+03	0	1.136264e-03
2.900000e+08	4.444422e+13	0.000000e+00	7.105263e-01	7.016785e+14	7.296377e+14	6.818303e+13	1.289313e+04	5.611191e+03	4.714212e+03	0	1.125798e-03
3.000000e+08	4.324077e+13	0.000000e+00	7.105263e-01	6.833048e+14	7.324997e+14	6.782663e+13	1.281557e+04	5.615284e+03	4.717651e+03	0	1.115543e-03
3.100000e+08	4.208321e+13	0.000000e+00	7.105263e-01	6.656295e+14	7.338211e+14	6.747282e+13	1.274003e+04	5.617170e+03	4.719236e+03	0	1.105499e-03
3.200000e+08	4.096973e+13	0.000000e+00	7.105263e-01	6.486249e+14	7.337570e+14	6.712159e+13	1.266642e+04	5.617079e+03	4.719159e+03	0	1.095661e-03
3.300000e+08	3.989851e+13	0.000000e+00	7.105263e-01	6.322638e+14	7.324545e+14	6.677291e+13	1.259468e+04	5.615220e+03	4.717597e+03	0	1.086028e-03
3.400000e+08	3.886779e+13	0.000000e+00	7.105263e-01	6.165191e+14	7.300533e+14	6.642677e+13	1.252474e+04	5.611786e+03	4.714712e+03	0	1.076594e-03
3.500000e+08	3.787584e+13	0.000000e+00	7.105263e-01	6.013644e+14	7.266826e+14	6.608313e+13	1.245652e+04	5.606953e+03	4.710652e+03	0	1.067356e-03
3.600000e+08	3.692096e+13	0.000000e+00	7.105263e-01	5.867742e+14	7.224631e+14	6.574199e+13	1.238997e+04	5.600880e+03	4.705549e+03	0	1.058310e-03
3.700000e+08	3.600153e+13	0.000000e+00	7.105263e-01	5.727235e+14	7.175047e+14	6.540332e+13	1.232502e+04	5.593710e+03	4.699525e+03	0	1.049451e-03
3.800000e+08	3.511597e+13	0.000000e+00	7.105263e-01	5.591885e+14	7.119082e+14	6.506709e+13	1.226161e+04	5.585574e+03	4.692690e+03	0	1.040775e-03
3.900000e+08	3.426277e+13	0.000000e+00	7.105263e-01	5.461462e+14	7.057647e+14	6.473330e+13	1.219969e+04	5.576591e+03	4.685143e+03	0	1.032277e-03
4.000000e+08	3.344048e+13	0.000000e+00	7.105263e-01	5.335745e+14	6.991572e+14	6.440192e+13	1.213920e+04	5.566866e+03	4.676972e+03	0	1.023952e-03
4.100000e+08	3.264771e+13	0.000000e+00	7.105263e-01	5.214523e+14	6.921597e+14	6.407293e+13	1.208009e+04	5.556494e+03	4.668258e+03	0	1.015795e-03
4.200000e+08	3.188314e+13	0.000000e+00	7.105263e-01	5.097595e+14	6.848386e+14	6.374631e+13	1.202232e+04	5.545561e+03	4.659073e+03	0	1.007803e-03
4.300000e+08	3.114551e+13	0.000000e+00	7.105263e-01	4.984770e+14	6.772532e+14	6.342204e+13	1.196583e+04	5.534144e+03	4.649482e+03	0	9.999702e-04
4.400000e+08	3.043361e+13	0.000000e+00	7.105263e-01	4.875863e+14	6.694561e+14	6.310011e+13	1.191059e+04	5.522312e+03	4.639541e+03	0	9.922926e-04
4.500000e+08	2.974629e+13	0.000000e+00	7.105263e-01	4.770702e+14	6.614942e+14	6.278049e+13	1.185654e+04	5.510127e+03	4.629304e+03	0	9.847656e-04
4.600000e+08	2.908248e+13	0.000000e+00	7.105263e-01	4.669120e+14	6.534088e+14	6.246316e+13	1.180365e+04	5.497644e+03	4.618816e+03	0	9.773852e-04
4.700000e+08	2.844113e+13	0.000000e+00	7.105263e-01	4.570961e+14	6.452359e+14	6.214811e+13	1.175188e+04	5.484913e+03	4.608120e+03	0	9.701470e-04
4.800000e+08	2.782126e+13	0.000000e+00	7.105263e-01	4.476074e+14	6.370076e+14	6.183531e+13	1.170119e+04	5.471976e+03	4.597252e+03	0	9.630471e-04
4.900000e+08	2.722194e+13	0.000000e+00	7.105263e-01	4.384318e+14	6.287516e+14	6.152476e+13	1.165155e+04	5.458875e+03	4.586244e+03	0	9.560816e-04
5.000000e+08	2.664227e+13	0.000000e+00	7.105263e-01	4.295557e+14	6.204925e+14	6.121643e+13	1.160291e+04	5.445643e+03	4.575128e+03	0	9.492466e-04
5.100000e+08	2.608143e+13	0.000000e+00	7.105263e-01	4.209664e+14	6.122511e+14	6.091030e+13	1.155526e+04	5.432312e+03	4.563928e+03	0	9.425384e-04
5.200000e+08	2.553860e+13	0.000000e+00	7.105263e-01	4.126516e+14	6.040458e+14	6.060635e+13	1.150855e+04	5.418910e+03	4.552669e+03	0	9.359535e-04
5.300000e+08	2.501302e+13	0.000000e+00	7.105263e-01	4.045998e+14	5.958922e+14	6.030457e+13	1.146276e+04	5.405462e+03	4.541370e+03	0	9.294884e-04
5.400000e+08	2.450397e+13	0.000000e+00	7.105263e-01	3.968000e+14	5.878040e+14	6.000494e+13	1.141785e+04	5.391989e+03	4.530050e+03	0	9.231398e-04
5.500000e+08	2.401078e+13	0.000000e+00	7.105263e-01	3.892418e+14	5.797923e+14	5.970745e+13	1.137381e+04	5.378510e+03	4.518727e+03	0	9.169043e-04
5.600000e+08	2.353277e+13	0.000000e+00	7.105263e-01	3.819151e+14	5.718670e+14	5.941206e+13	1.133060e+04	5.365044e+03	4.507413e+03	0	9.107789e-04
5.700000e+08	2.306933e+13	0.000000e+00	7.105263e-01	3.748107e+14	5.640363e+14	5.911878e+13	1.128819e+04	5.351605e+03	4.496122e+03	0	9.047605e-04
5.800000e+08	2.261988e+13	0.000000e+00	7.105263e-01	3.679194e+14	5.563068e+14	5.882758e+13	1.124658e+04	5.338206e+03	4.484865e+03	0	8.988462e-04
5.900000e+08	2.218385e+13	0.000000e+00	7.105263e-01	3.612329e+14	5.486840e+14	5.853844e+13	1.120572e+04	5.324860e+03	4.473652e+03	0	8.930331e-04
6.000000e+08	2.176070e+13	0.000000e+00	7.105263e-01	3.547428e+14	5.411726e+14	5.825135e+13	1.116560e+04	5.311576e+03	4.462492e+03	0	8.873186e-04
6.100000e+08	2.134994e+13	0.000000e+00	7.105263e-01	3.484416e+14	5.337761e+14	5.796628e+13	1.112620e+04	5.298364e+03	4.451392e+03	0	8.816999e-04
6.200000e+08	2.095107e+13	0.000000e+00	7.105263e-01	3.423218e+14	5.264970e+14	5.768324e+13	1.108749e+04	5.285232e+03	4.440359e+03	0	8.761746e-04
6.300000e+08	2.056363e+13	0.000000e+00	7.105263e-01	3.363764e+14	5.193377e+14	5.740219e+13	1.104946e+04	5.272187e+03	4.429399e+03	0	8.707400e-04
6.400000e+08	2.018719e+13	0.000000e+00	7.105263e-01	3.305988e+14	5.122993e+14	5.712312e+13	1.101208e+04	5.259234e+03	4.418517e+03	0	8.653940e-04
6.500000e+08	1.982132e+13	0.000000e+00	7.105263e-01	3.249826e+14	5.053827e+14	5.684602e+13	1.097535e+04	5.246378e+03	4.407716e+03	0	8.601340e-04
6.600000e+08	1.946563e+13	0.000000e+00	7.105263e-01	3.195217e+14	4.985883e+14	5.657087e+13	1.093923e+04	5.233625e+03	4.397002e+03	0	8.549580e-04
6.700000e+08	1.911974e+13	0.000000e+00	7.105263e-01	3.142103e+14	4.919161e+14	5.629765e+13	1.090372e+04	5.220977e+03	4.386376e+03	0	8.498637e-04
6.800000e+08	1.878329e+13	0.000000e+00	7.105263e-01	3.090429e+14	4.853656e+14	5.602635e+13	1.086880e+04	5.208438e+03	4.375842e+03	0	8.448491e-04
6.900000e+08	1.845592e+13	0.000000e+00	7.105263e-01	3.040142e+14	4.789360e+14	5.575696e+13	1.083444e+04	5.196011e+03	4.365401e+03	0	8.399121e-04
7.000000e+08	1.813731e+13	0.000000e+00	7.105263e-01	2.991192e+14	4.726266e+14	5.548945e+13	1.080064e+04	5.183698e+03	4.355056e+03	0	8.350508e-04
7.100000e+08	1.782714e+13	0.000000e+00	7.105263e-01	2.943531e+14	4.664362e+14	5.522382e+13	1.076739e+04	5.171499e+03	4.344807e+03	0	8.302633e-04
7.200000e+08	1.752511e+13	0.000000e+00	7.105263e-01	2.897113e+14	4.603634e+14	5.496004e+13	1.073466e+04	5.159418e+03	4.334657e+03	0	8.255478e-04
7.300000e+08	1.723094e+13	0.000000e+00	7.105263e-01	2.851893e+14	4.544066e+14	5.469811e+13	1.070244e+04	5.147454e+03	4.324606e+03	0	8.209025e-04
7.400000e+08	1.694433e+13	0.000000e+00	7.105263e-01	2.807830e+14	4.485642e+14	5.443801e+13	1.067073e+04	5.135608e+03	4.314654e+03	0	8.163257e-04
7.500000e+08	1.666504e+13	0.000000e+00	7.105263e-01	2.764884e+14	4.428346e+14	5.417971e+13	1.063950e+04	5.123881e+03	4.304801e+03	0	8.118157e-04
7.600000e+08	1.639281e+13	0.000000e+00	7.105263e-01	2.723017e+14	4.372157e+14	5.392322e+13	1.060875e+04	5.112273e+03	4.295049e+03	0	8.073709e-04
7.700000e+08	1.612740e+13	0.000000e+00	7.105263e-01	2.682190e+14	4.317057e+14	5.366852e+13	1.057846e+04	5.100784e+03	4.285396e+03	0	8.029898e-04
7.800000e+08	1.586857e+13	0.000000e+00	7.105263e-01	2.642370e+14	4.263027e+14	5.341558e+13	1.054862e+04	5.089414e+03	4.275844e+03	0	7.986709e-04
7.900000e+08	1.561611e+13	0.000000e+00	7.105263e-01	2.603522e+14	4.210047e+14	5.316440e+13	1.051923e+04	5.078162e+03	4.266390e+03	0	7.944127e-04
8.000000e+08	1.536980e+13	0.000000e+00	7.105263e-01	2.565615e+14	4.158096e+14	5.291496e+13	1.049026e+04	5.067027e+03	4.257036e+03	0	7.902139e-04
8.100000e+08	1.512943e+13	0.000000e+00	7.105263e-01	2.528616e+14	4.107154e+14	5.266725e+13	1.046171e+04	5.056010e+03	4.247780e+03	0	7.860729e-04
8.200000e+08	1.489482e+13	0.000000e+00	7.105263e-01	2.492497e+14	4.057199e+14	5.242126e+13	1.043358e+04	5.045109e+03	4.238622e+03	0	7.819886e-04
8.300000e+08	1.466578e+13	0.000000e+00	7.105263e-01	2.457228e+14	4.008212e+14	5.217696e+13	1.040584e+04	5.034324e+03	4.229561e+03	0	7.779595e-04
8.400000e+08	1.444213e+13	0.000000e+00	7.105263e-01	2.422783e+14	3.960172e+14	5.193435e+13	1.037849e+04	5.023654e+03	4.220596e+03	0	7.739846e-04
8.500000e+08	1.422368e+13	0.000000e+00	7.105263e-01	2.389135e+14	3.913059e+14	5.169342e+13	1.035153e+04	5.013097e+03	4.211726e+03	0	7.700625e-04
8.600000e+08	1.401029e+13	0.000000e+00	7.105263e-01	2.356259e+14	3.866852e+14	5.145415e+13	1.032494e+04	5.002652e+03	4.202951e+03	0	7.661921e-04
8.700000e+08	1.380179e+13	0.000000e+00	7.105263e-01	2.324131e+14	3.821531e+14	5.121652e+13	1.029871e+04	4.992319e+03	4.194270e+03	0	7.623723e-04
8.800000e+08	1.359803e+13	0.000000e+00	7.105263e-01	2.292727e+14	3.777078e+14	5.098053e+13	1.027284e+04	4.982096e+03	4.185681e+03	0	7.586018e-04
8.900000e+08	1.339885e+13	0.000000e+00	7.105263e-01	2.262026e+14	3.733471e+14	5.074616e+13	1.024731e+04	4.971981e+03	4.177183e+03	0	7.548798e-04
9.000000e+08	1.320413e+13	0.000000e+00	7.105263e-01	2.232005e+14	3.690692e+14	5.051340e+13	1.022213e+04	4.961975e+03	4.168776e+03	0	7.512051e-04
9.100000e+08	1.301372e+13	0.000000e+00	7.105263e-01	2.202644e+14	3.648721e+14	5.028224e+13	1.019728e+04	4.952074e+03	4.160459e+03	0	7.475767e-04
9.200000e+08	1.282749e+13	0.000000e+00	7.105263e-01	2.173923e+14	3.607541e+14	5.005265e+13	1.017275e+04	4.942279e+03	4.152229e+03	0	7.439936e-04
9.300000e+08	1.264532e+13	0.000000e+00	7.105263e-01	2.145823e+14	3.567133e+14	4.982464e+13	1.014855e+04	4.932588e+03	4.144087e+03	0	7.404549e-04
9.400000e+08	1.246709e+13	0.000000e+00	7.105263e-01	2.118325e+14	3.527479e+14	4.959819e+13	1.012465e+04	4.922999e+03	4.136031e+03	0	7.369596e-04
9.500000e+08	1.229269e+13	0.000000e+00	7.105263e-01	2.091412e+14	3.488562e+14	4.937328e+13	1.010106e+04	4.913511e+03	4.128060e+03	0	7.335069e-04
9.600000e+08	1.212199e+13	0.000000e+00	7.105263e-01	2.065067e+14	3.450365e+14	4.914991e+13	1.007777e+04	4.904122e+03	4.120172e+03	0	7.300958e-04
9.700000e+08	1.195489e+13	0.000000e+00	7.105263e-01	2.039273e+14	3.412869e+14	4.892805e+13	1.005477e+04	4.894832e+03	4.112367e+03	0	7.267256e-04
9.800000e+08	1.179129e+13	0.000000e+00	7.105263e-01	2.014015e+14	3.376062e+14	4.870771e+13	1.003206e+04	4.885639e+03	4.104644e+03	0	7.233953e-04
9.900000e+08	1.163109e+13	0.000000e+00	7.105263e-01	1.989277e+14	3.339923e+14	4.848887e+13	1.000962e+04	4.876542e+03	4.097000e+03	0	7.201042e-04
1.000000e+09	1.147418e+13	0.000000e+00	7.105263e-01	1.965044e+14	3.304439e+14	4.827151e+13	9.987466e+03	4.867538e+03	4.089436e+03	0	7.168515e-04
1.010000e+09	1.132049e+13	0.000000e+00	7.105263e-01	1.941302e+14	3.269595e+14	4.805562e+13	9.965576e+03	4.858628e+03	4.081950e+03	0	7.136364e-04
1.020000e+09	1.116991e+13	0.000000e+00	7.105263e-01	1.918038e+14	3.235375e+14	4.784120e+13	9.943949e+03	4.849809e+03	4.074541e+03	0	7.104582e-04
1.030000e+09	1.102237e+13	0.000000e+00	7.105263e-01	1.895238e+14	3.201765e+14	4.762822e+13	9.922581e+03	4.841081e+03	4.067208e+03	0	7.073162e-04
1.040000e+09	1.087777e+13	0.000000e+00	7.105263e-01	1.872889e+14	3.168751e+14	4.741669e+13	9.901466e+03	4.832441e+03	4.059950e+03	0	7.042096e-04
1.050000e+09	1.073604e+13	0.000000e+00	7.105263e-01	1.850980e+14	3.136319e+14	4.720659e+13	9.880598e+03	4.823889e+03	4.052765e+03	0	7.011377e-04
1.060000e+09	1.059710e+13	0.000000e+00	7.105263e-01	1.829498e+14	3.104455e+14	4.699790e+13	9.859974e+03	4.815424e+03	4.045652e+03	0	6.981000e-04
1.070000e+09	1.046087e+13	0.000000e+00	7.105263e-01	1.808432e+14	3.073146e+14	4.679062e+13	9.839588e+03	4.807043e+03	4.038612e+03	0	6.950957e-04
1.080000e+09	1.032729e+13	0.000000e+00	7.105263e-01	1.787770e+14	3.042379e+14	4.658473e+13	9.819437e+03	4.798746e+03	4.031641e+03	0	6.921242e-04
1.090000e+09	1.019627e+13	0.000000e+00	7.105263e-01	1.767503e+14	3.012143e+14	4.638023e+13	9.799514e+03	4.790532e+03	4.024740e+03	0	6.891849e-04
1.100000e+09	1.006776e+13	0.000000e+00	7.105263e-01	1.747619e+14	2.982424e+14	4.617710e+13	9.779817e+03	4.782400e+03	4.017907e+03	0	6.862773e-04
1.110000e+09	9.941689e+12	0.000000e+00	7.105263e-01	1.728109e+14	2.953211e+14	4.597533e+13	9.760340e+03	4.774347e+03	4.011142e+03	0	6.834006e-04
1.120000e+09	9.817990e+12	0.000000e+00	7.105263e-01	1.708963e+14	2.924493e+14	4.577492e+13	9.741080e+03	4.766373e+03	4.004443e+03	0	6.805543e-04
1.130000e+09	9.696602e+12	0.000000e+00	7.105263e-01	1.690171e+14	2.896256e+14	4.557584e+13	9.722032e+03	4.758477e+03	3.997809e+03	0	6.777379e-04
1.140000e+09	9.577468e+12	0.000000e+00	7.105263e-01	1.671725e+14	2.868493e+14	4.537810e+13	9.703193e+03	4.750658e+03	3.991240e+03	0	6.749509e-04
1.150000e+09	9.460530e+12	0.000000e+00	7.105263e-01	1.653615e+14	2.841192e+14	4.518167e+13	9.684560e+03	4.742914e+03	3.984733e+03	0	6.721927e-04
1.160000e+09	9.345732e+12	0.000000e+00	7.105263e-01	1.635834e+14	2.814340e+14	4.498656e+13	9.666127e+03	4.735244e+03	3.978290e+03	0	6.694627e-04
1.170000e+09	9.233020e+12	0.000000e+00	7.105263e-01	1.618373e+14	2.787930e+14	4.479275e+13	9.647891e+03	4.727647e+03	3.971908e+03	0	6.667605e-04
1.180000e+09	9.122343e+12	0.000000e+00	7.105263e-01	1.601223e+14	2.761952e+14	4.460022e+13	9.629850e+03	4.720123e+03	3.965586e+03	0	6.640856e-04
1.190000e+09	9.013649e+12	0.000000e+00	7.105263e-01	1.584378e+14	2.736395e+14	4.440898e+13	9.611999e+03	4.712670e+03	3.959324e+03	0	6.614375e-04
1.200000e+09	8.906890e+12	0.000000e+00	7.105263e-01	1.567830e+14	2.711249e+14	4.421901e+13	9.594336e+03	4.705286e+03	3.953121e+03	0	6.588158e-04
1.210000e+09	8.802019e+12	0.000000e+00	7.105263e-01	1.551572e+14	2.686508e+14	4.403029e+13	9.576856e+03	4.697972e+03	3.946976e+03	0	6.562199e-04
1.220000e+09	8.698989e+12	0.000000e+00	7.105263e-01	1.535596e+14	2.662160e+14	4.384283e+13	9.559557e+03	4.690725e+03	3.940888e+03	0	6.536494e-04
1.230000e+09	8.597757e+12	0.000000e+00	7.105263e-01	1.519896e+14	2.638199e+14	4.365660e+13	9.542435e+03	4.683546e+03	3.934856e+03	0	6.511039e-04
1.240000e+09	8.498278e+12	0.000000e+00	7.105263e-01	1.504465e+14	2.614614e+14	4.347161e+13	9.525488e+03	4.676432e+03	3.928879e+03	0	6.485830e-04
1.250000e+09	8.400511e+12	0.000000e+00	7.105263e-01	1.489296e+14	2.591398e+14	4.328784e+13	9.508712e+03	4.669383e+03	3.922957e+03	0	6.460863e-04
1.260000e+09	8.304416e+12	0.000000e+00	7.105263e-01	1.474385e+14	2.568544e+14	4.310528e+13	9.492105e+03	4.662398e+03	3.917089e+03	0	6.436133e-04
1.270000e+09	8.209953e+12	0.000000e+00	7.105263e-01	1.459724e+14	2.546043e+14	4.292392e+13	9.475664e+03	4.655476e+03	3.911274e+03	0	6.411636e-04
1.280000e+09	8.117085e+12	0.000000e+00	7.105263e-01	1.445308e+14	2.523888e+14	4.274376e+13	9.459385e+03	4.648617e+03	3.905510e+03	0	6.387368e-04
1.290000e+09	8.025773e+12	0.000000e+00	7.105263e-01	1.431131e+14	2.502071e+14	4.256478e+13	9.443267e+03	4.641818e+03	3.899799e+03	0	6.363327e-04
1.300000e+09	7.935982e+12	0.000000e+00	7.105263e-01	1.417187e+14	2.480586e+14	4.238697e+13	9.427306e+03	4.635080e+03	3.894138e+03	0	6.339507e-04
1.310000e+09	7.847677e+12	0.000000e+00	7.105263e-01	1.403472e+14	2.459426e+14	4.221033e+13	9.411501e+03	4.628402e+03	3.888527e+03	0	6.315906e-04
1.320000e+09	7.760825e+12	0.000000e+00	7.105263e-01	1.389980e+14	2.438583e+14	4.203485e+13	9.395848e+03	4.621781e+03	3.882965e+03	0	6.292519e-04
1.330000e+09	7.675392e+12	0.000000e+00	7.105263e-01	1.376706e+14	2.418050e+14	4.186051e+13	9.380344e+03	4.615219e+03	3.877452e+03	0	6.269344e-04
1.340000e+09	7.591346e+12	0.000000e+00	7.105263e-01	1.363645e+14	2.397823e+14	4.168732e+13	9.364989e+03	4.608714e+03	3.871986e+03	0	6.246377e-04
1.350000e+09	7.508656e+12	0.000000e+00	7.105263e-01	1.350792e+14	2.377893e+14	4.151525e+13	9.349778e+03	4.602264e+03	3.866568e+03	0	6.223615e-04
1.360000e+09	7.427293e+12	0.000000e+00	7.105263e-01	1.338144e+14	2.358256e+14	4.134430e+13	9.334711e+03	4.595870e+03	3.861196e+03	0	6.201053e-04
