#t		Qconv[W]	Ri[Rp]		R*[Rp]		Qc[W]		Qm[W]		Qr[W]		Tcmb[K]		Tl[K]		Tup[K]		RiFlag		Bs[T]
0.000000e+00	1.395216e+14	0.000000e+00	7.200000e-01	1.937080e+15	2.316031e+13	8.969663e+13	1.818207e+04	3.385671e+03	2.831269e+03	0	1.625824e-03
1.000000e+07	1.371450e+14	0.000000e+00	7.200000e-01	1.904532e+15	3.450583e+13	8.919964e+13	1.800930e+04	3.574365e+03	2.989065e+03	0	1.616540e-03
2.000000e+07	1.346920e+14	0.000000e+00	7.200000e-01	1.870962e+15	4.934291e+13	8.870638e+13	1.783939e+04	3.758707e+03	3.143221e+03	0	1.606844e-03
3.000000e+07	1.321674e+14	0.000000e+00	7.200000e-01	1.836440e+15	6.809142e+13	8.821679e+13	1.767242e+04	3.938250e+03	3.293364e+03	0	1.596741e-03
4.000000e+07	1.295769e+14	0.000000e+00	7.200000e-01	1.801041e+15	9.107054e+13	8.773087e+13	1.750850e+04	4.112519e+03	3.439096e+03	0	1.586240e-03
5.000000e+07	1.269269e+14	0.000000e+00	7.200000e-01	1.764851e+15	1.184703e+14	8.724857e+13	1.734768e+04	4.281021e+03	3.580007e+03	0	1.575352e-03
6.000000e+07	1.242245e+14	0.000000e+00	7.200000e-01	1.727967e+15	1.503294e+14	8.676986e+13	1.719006e+04	4.443263e+03	3.715681e+03	0	1.564092e-03
7.000000e+07	1.214779e+14	0.000000e+00	7.200000e-01	1.690498e+15	1.865226e+14	8.629471e+13	1.703568e+04	4.598762e+03	3.845718e+03	0	1.552478e-03
8.000000e+07	1.186959e+14	0.000000e+00	7.200000e-01	1.652563e+15	2.267577e+14	8.582311e+13	1.688461e+04	4.747067e+03	3.969738e+03	0	1.540536e-03
9.000000e+07	1.158883e+14	0.000000e+00	7.200000e-01	1.614294e+15	2.705841e+14	8.535500e+13	1.673689e+04	4.887773e+03	4.087403e+03	0	1.528292e-03
1.000000e+08	1.130652e+14	0.000000e+00	7.200000e-01	1.575828e+15	3.174124e+14	8.489038e+13	1.659255e+04	5.020535e+03	4.198426e+03	0	1.515780e-03
1.100000e+08	1.102371e+14	0.000000e+00	7.200000e-01	1.537307e+15	3.665421e+14	8.442920e+13	1.645161e+04	5.145085e+03	4.302581e+03	0	1.503035e-03
1.200000e+08	1.074147e+14	0.000000e+00	7.200000e-01	1.498873e+15	4.171970e+14	8.397144e+13	1.631407e+04	5.261237e+03	4.399713e+03	0	1.490097e-03
1.300000e+08	1.046084e+14	0.000000e+00	7.200000e-01	1.460666e+15	4.685638e+14	8.351707e+13	1.617994e+04	5.368892e+03	4.489740e+03	0	1.477005e-03
1.400000e+08	1.018280e+14	0.000000e+00	7.200000e-01	1.422819e+15	5.198301e+14	8.306606e+13	1.604919e+04	5.468045e+03	4.572656e+03	0	1.463802e-03
1.500000e+08	9.908282e+13	0.000000e+00	7.200000e-01	1.385457e+15	5.702206e+14	8.261839e+13	1.592179e+04	5.558776e+03	4.648530e+03	0	1.450527e-03
1.600000e+08	9.638109e+13	0.000000e+00	7.200000e-01	1.348691e+15	6.190264e+14	8.217402e+13	1.579770e+04	5.641247e+03	4.717497e+03	0	1.437222e-03
1.700000e+08	9.373013e+13	0.000000e+00	7.200000e-01	1.312618e+15	6.656278e+14	8.173293e+13	1.567687e+04	5.715696e+03	4.779754e+03	0	1.423922e-03
1.800000e+08	9.113616e+13	0.000000e+00	7.200000e-01	1.277323e+15	7.095104e+14	8.129509e+13	1.555924e+04	5.782420e+03	4.835552e+03	0	1.410663e-03
1.900000e+08	8.860427e+13	0.000000e+00	7.200000e-01	1.242874e+15	7.502703e+14	8.086048e+13	1.544475e+04	5.841770e+03	4.885184e+03	0	1.397477e-03
2.000000e+08	8.613849e+13	0.000000e+00	7.200000e-01	1.209324e+15	7.876166e+14	8.042907e+13	1.533331e+04	5.894135e+03	4.928975e+03	0	1.384391e-03
2.100000e+08	8.374178e+13	0.000000e+00	7.200000e-01	1.176714e+15	8.213638e+14	8.000083e+13	1.522485e+04	5.939934e+03	4.967274e+03	0	1.371431e-03
2.200000e+08	8.141619e+13	0.000000e+00	7.200000e-01	1.145071e+15	8.514238e+14	7.957573e+13	1.511930e+04	5.979599e+03	5.000444e+03	0	1.358616e-03
2.300000e+08	7.916290e+13	0.000000e+00	7.200000e-01	1.114409e+15	8.777930e+14	7.915375e+13	1.501655e+04	6.013571e+03	5.028853e+03	0	1.345965e-03
2.400000e+08	7.698235e+13	0.000000e+00	7.200000e-01	1.084736e+15	9.005386e+14	7.873487e+13	1.491653e+04	6.042289e+03	5.052868e+03	0	1.333491e-03
2.500000e+08	7.487436e+13	0.000000e+00	7.200000e-01	1.056048e+15	9.197841e+14	7.831906e+13	1.481915e+04	6.066183e+03	5.072850e+03	0	1.321207e-03
2.600000e+08	7.283822e+13	0.000000e+00	7.200000e-01	1.028335e+15	9.356975e+14	7.790628e+13	1.472432e+04	6.085670e+03	5.089145e+03	0	1.309120e-03
2.700000e+08	7.087279e+13	0.000000e+00	7.200000e-01	1.001581e+15	9.484765e+14	7.749653e+13	1.463196e+04	6.101146e+03	5.102088e+03	0	1.297238e-03
2.800000e+08	6.897659e+13	0.000000e+00	7.200000e-01	9.757675e+14	9.583400e+14	7.708977e+13	1.454199e+04	6.112990e+03	5.111992e+03	0	1.285564e-03
2.900000e+08	6.714789e+13	0.000000e+00	7.200000e-01	9.508697e+14	9.655178e+14	7.668598e+13	1.445431e+04	6.121554e+03	5.119153e+03	0	1.274101e-03
3.000000e+08	6.538476e+13	0.000000e+00	7.200000e-01	9.268616e+14	9.702444e+14	7.628513e+13	1.436885e+04	6.127168e+03	5.123848e+03	0	1.262851e-03
3.100000e+08	6.368513e+13	0.000000e+00	7.200000e-01	9.037152e+14	9.727501e+14	7.588720e+13	1.428553e+04	6.130136e+03	5.126330e+03	0	1.251812e-03
3.200000e+08	6.204686e+13	0.000000e+00	7.200000e-01	8.814013e+14	9.732603e+14	7.549217e+13	1.420428e+04	6.130740e+03	5.126835e+03	0	1.240985e-03
3.300000e+08	6.046775e+13	0.000000e+00	7.200000e-01	8.598901e+14	9.719899e+14	7.510001e+13	1.412502e+04	6.129236e+03	5.125578e+03	0	1.230366e-03
3.400000e+08	5.894558e+13	0.000000e+00	7.200000e-01	8.391514e+14	9.691413e+14	7.471069e+13	1.404767e+04	6.125860e+03	5.122754e+03	0	1.219954e-03
3.500000e+08	5.747814e+13	0.000000e+00	7.200000e-01	8.191554e+14	9.649040e+14	7.432420e+13	1.397218e+04	6.120823e+03	5.118542e+03	0	1.209746e-03
3.600000e+08	5.606325e+13	0.000000e+00	7.200000e-01	7.998726e+14	9.594523e+14	7.394052e+13	1.389847e+04	6.114320e+03	5.113104e+03	0	1.199737e-03
3.700000e+08	5.469879e+13	0.000000e+00	7.200000e-01	7.812739e+14	9.529474e+14	7.355961e+13	1.382648e+04	6.106525e+03	5.106586e+03	0	1.189924e-03
3.800000e+08	5.338266e+13	0.000000e+00	7.200000e-01	7.633312e+14	9.455340e+14	7.318146e+13	1.375616e+04	6.097596e+03	5.099119e+03	0	1.180302e-03
3.900000e+08	5.211285e+13	0.000000e+00	7.200000e-01	7.460172e+14	9.373452e+14	7.280604e+13	1.368744e+04	6.087674e+03	5.090821e+03	0	1.170868e-03
4.000000e+08	5.088741e+13	0.000000e+00	7.200000e-01	7.293054e+14	9.285003e+14	7.243333e+13	1.362026e+04	6.076886e+03	5.081800e+03	0	1.161618e-03
4.100000e+08	4.970447e+13	0.000000e+00	7.200000e-01	7.131703e+14	9.191055e+14	7.206331e+13	1.355458e+04	6.065347e+03	5.072150e+03	0	1.152546e-03
4.200000e+08	4.856221e+13	0.000000e+00	7.200000e-01	6.975875e+14	9.092562e+14	7.169596e+13	1.349034e+04	6.053157e+03	5.061957e+03	0	1.143649e-03
4.300000e+08	4.745890e+13	0.000000e+00	7.200000e-01	6.825334e+14	8.990372e+14	7.133126e+13	1.342750e+04	6.040410e+03	5.051297e+03	0	1.134921e-03
4.400000e+08	4.639288e+13	0.000000e+00	7.200000e-01	6.679857e+14	8.885238e+14	7.096917e+13	1.336600e+04	6.027185e+03	5.040238e+03	0	1.126359e-03
4.500000e+08	4.536258e+13	0.000000e+00	7.200000e-01	6.539229e+14	8.777816e+14	7.060969e+13	1.330581e+04	6.013557e+03	5.028841e+03	0	1.117959e-03
4.600000e+08	4.436647e+13	0.000000e+00	7.200000e-01	6.403244e+14	8.668697e+14	7.025279e+13	1.324687e+04	5.999589e+03	5.017160e+03	0	1.109715e-03
4.700000e+08	4.340311e+13	0.000000e+00	7.200000e-01	6.271707e+14	8.558387e+14	6.989845e+13	1.318915e+04	5.985339e+03	5.005244e+03	0	1.101624e-03
4.800000e+08	4.247113e+13	0.000000e+00	7.200000e-01	6.144430e+14	8.447335e+14	6.954665e+13	1.313261e+04	5.970859e+03	4.993135e+03	0	1.093682e-03
4.900000e+08	4.156920e+13	0.000000e+00	7.200000e-01	6.021236e+14	8.335926e+14	6.919737e+13	1.307721e+04	5.956195e+03	4.980872e+03	0	1.085885e-03
5.000000e+08	4.069608e+13	0.000000e+00	7.200000e-01	5.901955e+14	8.224505e+14	6.885058e+13	1.302291e+04	5.941386e+03	4.968488e+03	0	1.078228e-03
5.100000e+08	3.985058e+13	0.000000e+00	7.200000e-01	5.786425e+14	8.113357e+14	6.850628e+13	1.296968e+04	5.926469e+03	4.956014e+03	0	1.070709e-03
5.200000e+08	3.903156e+13	0.000000e+00	7.200000e-01	5.674493e+14	8.002740e+14	6.816443e+13	1.291749e+04	5.911476e+03	4.943475e+03	0	1.063323e-03
5.300000e+08	3.823793e+13	0.000000e+00	7.200000e-01	5.566012e+14	7.892862e+14	6.782501e+13	1.286630e+04	5.896434e+03	4.930897e+03	0	1.056067e-03
5.400000e+08	3.746867e+13	0.000000e+00	7.200000e-01	5.460842e+14	7.783913e+14	6.748802e+13	1.281608e+04	5.881369e+03	4.918299e+03	0	1.048937e-03
5.500000e+08	3.672279e+13	0.000000e+00	7.200000e-01	5.358850e+14	7.676044e+14	6.715342e+13	1.276681e+04	5.866304e+03	4.905700e+03	0	1.041930e-03
5.600000e+08	3.599936e+13	0.000000e+00	7.200000e-01	5.259909e+14	7.569389e+14	6.682120e+13	1.271845e+04	5.851256e+03	4.893116e+03	0	1.035042e-03
5.700000e+08	3.529750e+13	0.000000e+00	7.200000e-01	5.163899e+14	7.464053e+14	6.649135e+13	1.267097e+04	5.836243e+03	4.880562e+03	0	1.028272e-03
5.800000e+08	3.461634e+13	0.000000e+00	7.200000e-01	5.070704e+14	7.360128e+14	6.616383e+13	1.262436e+04	5.821281e+03	4.868050e+03	0	1.021614e-03
5.900000e+08	3.395509e+13	0.000000e+00	7.200000e-01	4.980216e+14	7.257690e+14	6.583863e+13	1.257859e+04	5.806382e+03	4.855591e+03	0	1.015067e-03
6.000000e+08	3.331297e+13	0.000000e+00	7.200000e-01	4.892329e+14	7.156792e+14	6.551573e+13	1.253363e+04	5.791558e+03	4.843194e+03	0	1.008628e-03
6.100000e+08	3.268925e+13	0.000000e+00	7.200000e-01	4.806943e+14	7.057482e+14	6.519512e+13	1.248945e+04	5.776818e+03	4.830868e+03	0	1.002293e-03
6.200000e+08	3.208322e+13	0.000000e+00	7.200000e-01	4.723964e+14	6.959796e+14	6.487678e+13	1.244604e+04	5.762172e+03	4.818620e+03	0	9.960607e-04
6.300000e+08	3.149422e+13	0.000000e+00	7.200000e-01	4.643301e+14	6.863756e+14	6.456068e+13	1.240338e+04	5.747628e+03	4.806457e+03	0	9.899276e-04
6.400000e+08	3.092161e+13	0.000000e+00	7.200000e-01	4.564868e+14	6.769379e+14	6.424681e+13	1.236145e+04	5.733190e+03	4.794384e+03	0	9.838915e-04
6.500000e+08	3.036478e+13	0.000000e+00	7.200000e-01	4.488581e+14	6.676673e+14	6.393515e+13	1.232021e+04	5.718866e+03	4.782406e+03	0	9.779498e-04
6.600000e+08	2.982315e+13	0.000000e+00	7.200000e-01	4.414363e+14	6.585643e+14	6.362569e+13	1.227966e+04	5.704660e+03	4.770525e+03	0	9.721001e-04
6.700000e+08	2.929617e+13	0.000000e+00	7.200000e-01	4.342136e+14	6.496282e+14	6.331840e+13	1.223978e+04	5.690575e+03	4.758747e+03	0	9.663403e-04
6.800000e+08	2.878329e+13	0.000000e+00	7.200000e-01	4.271831e+14	6.408589e+14	6.301327e+13	1.220055e+04	5.676615e+03	4.747073e+03	0	9.606680e-04
6.900000e+08	2.828403e+13	0.000000e+00	7.200000e-01	4.203378e+14	6.322544e+14	6.271028e+13	1.216195e+04	5.662782e+03	4.735505e+03	0	9.550811e-04
7.000000e+08	2.779788e+13	0.000000e+00	7.200000e-01	4.136710e+14	6.238138e+14	6.240941e+13	1.212397e+04	5.649079e+03	4.724046e+03	0	9.495775e-04
7.100000e+08	2.732440e+13	0.000000e+00	7.200000e-01	4.071766e+14	6.155351e+14	6.211065e+13	1.208658e+04	5.635508e+03	4.712697e+03	0	9.441551e-04
7.200000e+08	2.686313e+13	0.000000e+00	7.200000e-01	4.008485e+14	6.074162e+14	6.181398e+13	1.204978e+04	5.622070e+03	4.701459e+03	0	9.388121e-04
7.300000e+08	2.641365e+13	0.000000e+00	7.200000e-01	3.946809e+14	5.994550e+14	6.151938e+13	1.201355e+04	5.608765e+03	4.690333e+03	0	9.335465e-04
7.400000e+08	2.597555e+13	0.000000e+00	7.200000e-01	3.886684e+14	5.916491e+14	6.122684e+13	1.197787e+04	5.595594e+03	4.679319e+03	0	9.283564e-04
7.500000e+08	2.554845e+13	0.000000e+00	7.200000e-01	3.828056e+14	5.839962e+14	6.093634e+13	1.194274e+04	5.582558e+03	4.668418e+03	0	9.232402e-04
7.600000e+08	2.513198e+13	0.000000e+00	7.200000e-01	3.770875e+14	5.764932e+14	6.064786e+13	1.190813e+04	5.569656e+03	4.657629e+03	0	9.181960e-04
7.700000e+08	2.472577e+13	0.000000e+00	7.200000e-01	3.715093e+14	5.691377e+14	6.036139e+13	1.187403e+04	5.556889e+03	4.646952e+03	0	9.132221e-04
7.800000e+08	2.432949e+13	0.000000e+00	7.200000e-01	3.660663e+14	5.619267e+14	6.007691e+13	1.184044e+04	5.544255e+03	4.636387e+03	0	9.083171e-04
7.900000e+08	2.394280e+13	0.000000e+00	7.200000e-01	3.607540e+14	5.548577e+14	5.979441e+13	1.180734e+04	5.531755e+03	4.625934e+03	0	9.034792e-04
8.000000e+08	2.356540e+13	0.000000e+00	7.200000e-01	3.555682e+14	5.479275e+14	5.951386e+13	1.177471e+04	5.519388e+03	4.615592e+03	0	8.987069e-04
8.100000e+08	2.319697e+13	0.000000e+00	7.200000e-01	3.505049e+14	5.411339e+14	5.923526e+13	1.174255e+04	5.507153e+03	4.605360e+03	0	8.939988e-04
8.200000e+08	2.283724e+13	0.000000e+00	7.200000e-01	3.455600e+14	5.344731e+14	5.895859e+13	1.171085e+04	5.495048e+03	4.595238e+03	0	8.893534e-04
8.300000e+08	2.248592e+13	0.000000e+00	7.200000e-01	3.407297e+14	5.279429e+14	5.868383e+13	1.167959e+04	5.483073e+03	4.585224e+03	0	8.847693e-04
8.400000e+08	2.214275e+13	0.000000e+00	7.200000e-01	3.360106e+14	5.215401e+14	5.841096e+13	1.164877e+04	5.471227e+03	4.575317e+03	0	8.802453e-04
8.500000e+08	2.180747e+13	0.000000e+00	7.200000e-01	3.313990e+14	5.152620e+14	5.813999e+13	1.161838e+04	5.459508e+03	4.565517e+03	0	8.757798e-04
8.600000e+08	2.147983e+13	0.000000e+00	7.200000e-01	3.268917e+14	5.091062e+14	5.787087e+13	1.158839e+04	5.447915e+03	4.555823e+03	0	8.713717e-04
8.700000e+08	2.115960e+13	0.000000e+00	7.200000e-01	3.224853e+14	5.030692e+14	5.760362e+13	1.155882e+04	5.436447e+03	4.546232e+03	0	8.670198e-04
8.800000e+08	2.084655e+13	0.000000e+00	7.200000e-01	3.181769e+14	4.971490e+14	5.733819e+13	1.152964e+04	5.425102e+03	4.536745e+03	0	8.627228e-04
8.900000e+08	2.054047e+13	0.000000e+00	7.200000e-01	3.139635e+14	4.913423e+14	5.707460e+13	1.150085e+04	5.413879e+03	4.527360e+03	0	8.584795e-04
9.000000e+08	2.024113e+13	0.000000e+00	7.200000e-01	3.098421e+14	4.856468e+14	5.681281e+13	1.147244e+04	5.402776e+03	4.518075e+03	0	8.542888e-04
9.100000e+08	1.994834e+13	0.000000e+00	7.200000e-01	3.058101e+14	4.800600e+14	5.655282e+13	1.144440e+04	5.391792e+03	4.508889e+03	0	8.501497e-04
9.200000e+08	1.966190e+13	0.000000e+00	7.200000e-01	3.018648e+14	4.745791e+14	5.629460e+13	1.141672e+04	5.380925e+03	4.499802e+03	0	8.460610e-04
9.300000e+08	1.938163e+13	0.000000e+00	7.200000e-01	2.980036e+14	4.692018e+14	5.603816e+13	1.138940e+04	5.370174e+03	4.490812e+03	0	8.420216e-04
9.400000e+08	1.910734e+13	0.000000e+00	7.200000e-01	2.942240e+14	4.639257e+14	5.578346e+13	1.136243e+04	5.359538e+03	4.481917e+03	0	8.380307e-04
9.500000e+08	1.883886e+13	0.000000e+00	7.200000e-01	2.905238e+14	4.587482e+14	5.553051e+13	1.133579e+04	5.349013e+03	4.473116e+03	0	8.340871e-04
9.600000e+08	1.857603e+13	0.000000e+00	7.200000e-01	2.869007e+14	4.536672e+14	5.527928e+13	1.130950e+04	5.338600e+03	4.464408e+03	0	8.301899e-04
9.700000e+08	1.831868e+13	0.000000e+00	7.200000e-01	2.833523e+14	4.486802e+14	5.502976e+13	1.128352e+04	5.328297e+03	4.455792e+03	0	8.263382e-04
9.800000e+08	1.806665e+13	0.000000e+00	7.200000e-01	2.798767e+14	4.437852e+14	5.478194e+13	1.125787e+04	5.318102e+03	4.447266e+03	0	8.225311e-04
9.900000e+08	1.781979e+13	0.000000e+00	7.200000e-01	2.764717e+14	4.389797e+14	5.453580e+13	1.123253e+04	5.308013e+03	4.438829e+03	0	8.187677e-04
1.000000e+09	1.757797e+13	0.000000e+00	7.200000e-01	2.731354e+14	4.342620e+14	5.429133e+13	1.120750e+04	5.298028e+03	4.430480e+03	0	8.150471e-04
1.010000e+09	1.734103e+13	0.000000e+00	7.200000e-01	2.698659e+14	4.296297e+14	5.404852e+13	1.118277e+04	5.288148e+03	4.422217e+03	0	8.113685e-04
1.020000e+09	1.710885e+13	0.000000e+00	7.200000e-01	2.666614e+14	4.250810e+14	5.380736e+13	1.115833e+04	5.278369e+03	4.414039e+03	0	8.077311e-04
1.030000e+09	1.688130e+13	0.000000e+00	7.200000e-01	2.635200e+14	4.206137e+14	5.356783e+13	1.113419e+04	5.268690e+03	4.405946e+03	0	8.041340e-04
1.040000e+09	1.665824e+13	0.000000e+00	7.200000e-01	2.604401e+14	4.162262e+14	5.332992e+13	1.111032e+04	5.259111e+03	4.397935e+03	0	8.005766e-04
1.050000e+09	1.643956e+13	0.000000e+00	7.200000e-01	2.574201e+14	4.119164e+14	5.309361e+13	1.108674e+04	5.249628e+03	4.390005e+03	0	7.970579e-04
1.060000e+09	1.622514e+13	0.000000e+00	7.200000e-01	2.544582e+14	4.076824e+14	5.285890e+13	1.106343e+04	5.240242e+03	4.382156e+03	0	7.935774e-04
1.070000e+09	1.601486e+13	0.000000e+00	7.200000e-01	2.515530e+14	4.035227e+14	5.262577e+13	1.104038e+04	5.230950e+03	4.374386e+03	0	7.901343e-04
1.080000e+09	1.580862e+13	0.000000e+00	7.200000e-01	2.487030e+14	3.994354e+14	5.239420e+13	1.101760e+04	5.221752e+03	4.366693e+03	0	7.867278e-04
1.090000e+09	1.560631e+13	0.000000e+00	7.200000e-01	2.459067e+14	3.954188e+14	5.216420e+13	1.099507e+04	5.212645e+03	4.359077e+03	0	7.833574e-04
1.100000e+09	1.540783e+13	0.000000e+00	7.200000e-01	2.431627e+14	3.914714e+14	5.193574e+13	1.097279e+04	5.203628e+03	4.351537e+03	0	7.800223e-04
1.110000e+09	1.521308e+13	0.000000e+00	7.200000e-01	2.404698e+14	3.875915e+14	5.170881e+13	1.095077e+04	5.194700e+03	4.344071e+03	0	7.767219e-04
1.120000e+09	1.502196e+13	0.000000e+00	7.200000e-01	2.378265e+14	3.837776e+14	5.148340e+13	1.092898e+04	5.185860e+03	4.336679e+03	0	7.734555e-04
1.130000e+09	1.483438e+13	0.000000e+00	7.200000e-01	2.352316e+14	3.800280e+14	5.125950e+13	1.090744e+04	5.177106e+03	4.329358e+03	0	7.702226e-04
1.140000e+09	1.465025e+13	0.000000e+00	7.200000e-01	2.326839e+14	3.763416e+14	5.103709e+13	1.088613e+04	5.168437e+03	4.322109e+03	0	7.670225e-04
1.150000e+09	1.446948e+13	0.000000e+00	7.200000e-01	2.301823e+14	3.727166e+14	5.081618e+13	1.086505e+04	5.159851e+03	4.314929e+03	0	7.638547e-04
1.160000e+09	1.429199e+13	0.000000e+00	7.200000e-01	2.277255e+14	3.691519e+14	5.059673e+13	1.084419e+04	5.151349e+03	4.307819e+03	0	7.607186e-04
1.170000e+09	1.411770e+13	0.000000e+00	7.200000e-01	2.253125e+14	3.656458e+14	5.037875e+13	1.082356e+04	5.142927e+03	4.300776e+03	0	7.576136e-04
1.180000e+09	1.394652e+13	0.000000e+00	7.200000e-01	2.229421e+14	3.621974e+14	5.016221e+13	1.080314e+04	5.134585e+03	4.293800e+03	0	7.545392e-04
1.190000e+09	1.377839e+13	0.000000e+00	7.200000e-01	2.206134e+14	3.588051e+14	4.994712e+13	1.078294e+04	5.126322e+03	4.286890e+03	0	7.514948e-04
1.200000e+09	1.361323e+13	0.000000e+00	7.200000e-01	2.183253e+14	3.554679e+14	4.973345e+13	1.076295e+04	5.118137e+03	4.280045e+03	0	7.484800e-04
1.210000e+09	1.345096e+13	0.000000e+00	7.200000e-01	2.160768e+14	3.521842e+14	4.952121e+13	1.074317e+04	5.110028e+03	4.273264e+03	0	7.454941e-04
1.220000e+09	1.329151e+13	0.000000e+00	7.200000e-01	2.138671e+14	3.489532e+14	4.931036e+13	1.072359e+04	5.101994e+03	4.266546e+03	0	7.425368e-04
1.230000e+09	1.313483e+13	0.000000e+00	7.200000e-01	2.116951e+14	3.457736e+14	4.910092e+13	1.070421e+04	5.094034e+03	4.259889e+03	0	7.396075e-04
1.240000e+09	1.298084e+13	0.000000e+00	7.200000e-01	2.095600e+14	3.426443e+14	4.889285e+13	1.068502e+04	5.086148e+03	4.253294e+03	0	7.367058e-04
1.250000e+09	1.282948e+13	0.000000e+00	7.200000e-01	2.074609e+14	3.395642e+14	4.868616e+13	1.066603e+04	5.078333e+03	4.246759e+03	0	7.338311e-04
1.260000e+09	1.268068e+13	0.000000e+00	7.200000e-01	2.053970e+14	3.365321e+14	4.848084e+13	1.064722e+04	5.070589e+03	4.240284e+03	0	7.309831e-04
1.270000e+09	1.253440e+13	0.000000e+00	7.200000e-01	2.033675e+14	3.335473e+14	4.827686e+13	1.062861e+04	5.062916e+03	4.233866e+03	0	7.281614e-04
1.280000e+09	1.239056e+13	0.000000e+00	7.200000e-01	2.013715e+14	3.306084e+14	4.807423e+13	1.061017e+04	5.055311e+03	4.227507e+03	0	7.253653e-04
1.290000e+09	1.224912e+13	0.000000e+00	7.200000e-01	1.994083e+14	3.277146e+14	4.787293e+13	1.059192e+04	5.047773e+03	4.221204e+03	0	7.225947e-04
1.300000e+09	1.211001e+13	0.000000e+00	7.200000e-01	1.974772e+14	3.248650e+14	4.767295e+13	1.057385e+04	5.040303e+03	4.214957e+03	0	7.198489e-04
1.310000e+09	1.197319e+13	0.000000e+00	7.200000e-01	1.955774e+14	3.220585e+14	4.747428e+13	1.055595e+04	5.032899e+03	4.208765e+03	0	7.171277e-04
1.320000e+09	1.183861e+13	0.000000e+00	7.200000e-01	1.937082e+14	3.192944e+14	4.727691e+13	1.053822e+04	5.025559e+03	4.202627e+03	0	7.144306e-04
1.330000e+09	1.170621e+13	0.000000e+00	7.200000e-01	1.918690e+14	3.165716e+14	4.708084e+13	1.052066e+04	5.018283e+03	4.196543e+03	0	7.117572e-04
1.340000e+09	1.157594e+13	0.000000e+00	7.200000e-01	1.900591e+14	3.138894e+14	4.688604e+13	1.050326e+04	5.011071e+03	4.190511e+03	0	7.091073e-04
1.350000e+09	1.144776e+13	0.000000e+00	7.200000e-01	1.882778e+14	3.112469e+14	4.669252e+13	1.048603e+04	5.003920e+03	4.184532e+03	0	7.064803e-04
1.360000e+09	1.132163e+13	0.000000e+00	7.200000e-01	1.865245e+14	3.086434e+14	4.650026e+13	1.046896e+04	4.996831e+03	4.178603e+03	0	7.038759e-04
