#t		Qconv[W]	Ri[Rp]		R*[Rp]		Qc[W]		Qm[W]		Qr[W]		Tcmb[K]		Tl[K]		Tup[K]		RiFlag		Bs[T]
0.000000e+00	1.903711e+14	0.000000e+00	7.162162e-01	2.583178e+15	2.018175e+13	9.639357e+13	2.038085e+04	3.481829e+03	2.893789e+03	0	1.813025e-03
1.000000e+07	1.868736e+14	0.000000e+00	7.162162e-01	2.536320e+15	3.287320e+13	9.585948e+13	2.016632e+04	3.716214e+03	3.088588e+03	0	1.801853e-03
2.000000e+07	1.832556e+14	0.000000e+00	7.162162e-01	2.487888e+15	5.053974e+13	9.532938e+13	1.995560e+04	3.945078e+03	3.278800e+03	0	1.790149e-03
3.000000e+07	1.795255e+14	0.000000e+00	7.162162e-01	2.437996e+15	7.400581e+13	9.480324e+13	1.974885e+04	4.167807e+03	3.463912e+03	0	1.777919e-03
4.000000e+07	1.756927e+14	0.000000e+00	7.162162e-01	2.386768e+15	1.039379e+14	9.428104e+13	1.954617e+04	4.383728e+03	3.643367e+03	0	1.765176e-03
5.000000e+07	1.717680e+14	0.000000e+00	7.162162e-01	2.334345e+15	1.407789e+14	9.376273e+13	1.934768e+04	4.592133e+03	3.816575e+03	0	1.751933e-03
6.000000e+07	1.677633e+14	0.000000e+00	7.162162e-01	2.280885e+15	1.846947e+14	9.324828e+13	1.915349e+04	4.792295e+03	3.982932e+03	0	1.738211e-03
7.000000e+07	1.636924e+14	0.000000e+00	7.162162e-01	2.226569e+15	2.355409e+14	9.273766e+13	1.896368e+04	4.983503e+03	4.141847e+03	0	1.724036e-03
8.000000e+07	1.595706e+14	0.000000e+00	7.162162e-01	2.171599e+15	2.928520e+14	9.223084e+13	1.877833e+04	5.165088e+03	4.292764e+03	0	1.709442e-03
9.000000e+07	1.554144e+14	0.000000e+00	7.162162e-01	2.116195e+15	3.558566e+14	9.172779e+13	1.859750e+04	5.336453e+03	4.435188e+03	0	1.694470e-03
1.000000e+08	1.512416e+14	0.000000e+00	7.162162e-01	2.060588e+15	4.235177e+14	9.122847e+13	1.842122e+04	5.497101e+03	4.568704e+03	0	1.679167e-03
1.100000e+08	1.470703e+14	0.000000e+00	7.162162e-01	2.005018e+15	4.945935e+14	9.073286e+13	1.824951e+04	5.646657e+03	4.693002e+03	0	1.663585e-03
1.200000e+08	1.429186e+14	0.000000e+00	7.162162e-01	1.949723e+15	5.677127e+14	9.024092e+13	1.808238e+04	5.784883e+03	4.807883e+03	0	1.647781e-03
1.300000e+08	1.388039e+14	0.000000e+00	7.162162e-01	1.894934e+15	6.414557e+14	8.975263e+13	1.791981e+04	5.911684e+03	4.913269e+03	0	1.631814e-03
1.400000e+08	1.347427e+14	0.000000e+00	7.162162e-01	1.840865e+15	7.144344e+14	8.926794e+13	1.776175e+04	6.027114e+03	5.009204e+03	0	1.615741e-03
1.500000e+08	1.307498e+14	0.000000e+00	7.162162e-01	1.787712e+15	7.853609e+14	8.878685e+13	1.760815e+04	6.131360e+03	5.095844e+03	0	1.599621e-03
1.600000e+08	1.268380e+14	0.000000e+00	7.162162e-01	1.735644e+15	8.531021e+14	8.830930e+13	1.745894e+04	6.224737e+03	5.173451e+03	0	1.583507e-03
1.700000e+08	1.230184e+14	0.000000e+00	7.162162e-01	1.684805e+15	9.167185e+14	8.783528e+13	1.731402e+04	6.307664e+03	5.242373e+03	0	1.567449e-03
1.800000e+08	1.192997e+14	0.000000e+00	7.162162e-01	1.635311e+15	9.754790e+14	8.736475e+13	1.717331e+04	6.380650e+03	5.303032e+03	0	1.551493e-03
1.900000e+08	1.156887e+14	0.000000e+00	7.162162e-01	1.587250e+15	1.028869e+15	8.689769e+13	1.703669e+04	6.444265e+03	5.355903e+03	0	1.535679e-03
2.000000e+08	1.121901e+14	0.000000e+00	7.162162e-01	1.540685e+15	1.076573e+15	8.643407e+13	1.690405e+04	6.499126e+03	5.401499e+03	0	1.520039e-03
2.100000e+08	1.088070e+14	0.000000e+00	7.162162e-01	1.495655e+15	1.118461e+15	8.597385e+13	1.677525e+04	6.545875e+03	5.440353e+03	0	1.504604e-03
2.200000e+08	1.055408e+14	0.000000e+00	7.162162e-01	1.452178e+15	1.154557e+15	8.551702e+13	1.665019e+04	6.585161e+03	5.473004e+03	0	1.489396e-03
2.300000e+08	1.023917e+14	0.000000e+00	7.162162e-01	1.410257e+15	1.185012e+15	8.506354e+13	1.652873e+04	6.617628e+03	5.499988e+03	0	1.474433e-03
2.400000e+08	9.935879e+13	0.000000e+00	7.162162e-01	1.369878e+15	1.210075e+15	8.461338e+13	1.641074e+04	6.643901e+03	5.521823e+03	0	1.459729e-03
2.500000e+08	9.644021e+13	0.000000e+00	7.162162e-01	1.331018e+15	1.230066e+15	8.416652e+13	1.629609e+04	6.664579e+03	5.539009e+03	0	1.445294e-03
2.600000e+08	9.363344e+13	0.000000e+00	7.162162e-01	1.293642e+15	1.245352e+15	8.372293e+13	1.618467e+04	6.680229e+03	5.552016e+03	0	1.431134e-03
2.700000e+08	9.093547e+13	0.000000e+00	7.162162e-01	1.257710e+15	1.256327e+15	8.328258e+13	1.607635e+04	6.691380e+03	5.561284e+03	0	1.417254e-03
2.800000e+08	8.834286e+13	0.000000e+00	7.162162e-01	1.223176e+15	1.263395e+15	8.284545e+13	1.597101e+04	6.698524e+03	5.567220e+03	0	1.403656e-03
2.900000e+08	8.585198e+13	0.000000e+00	7.162162e-01	1.189993e+15	1.266953e+15	8.241151e+13	1.586854e+04	6.702110e+03	5.570202e+03	0	1.390337e-03
3.000000e+08	8.345898e+13	0.000000e+00	7.162162e-01	1.158109e+15	1.267393e+15	8.198074e+13	1.576883e+04	6.702553e+03	5.570569e+03	0	1.377297e-03
3.100000e+08	8.116000e+13	0.000000e+00	7.162162e-01	1.127473e+15	1.265082e+15	8.155310e+13	1.567176e+04	6.700225e+03	5.568635e+03	0	1.364533e-03
3.200000e+08	7.895111e+13	0.000000e+00	7.162162e-01	1.098033e+15	1.260366e+15	8.112857e+13	1.557724e+04	6.695466e+03	5.564679e+03	0	1.352040e-03
3.300000e+08	7.682846e+13	0.000000e+00	7.162162e-01	1.069738e+15	1.253563e+15	8.070713e+13	1.548517e+04	6.688578e+03	5.558955e+03	0	1.339813e-03
3.400000e+08	7.478825e+13	0.000000e+00	7.162162e-01	1.042537e+15	1.244966e+15	8.028875e+13	1.539545e+04	6.679835e+03	5.551689e+03	0	1.327846e-03
3.500000e+08	7.282679e+13	0.000000e+00	7.162162e-01	1.016381e+15	1.234839e+15	7.987340e+13	1.530799e+04	6.669481e+03	5.543083e+03	0	1.316135e-03
3.600000e+08	7.094049e+13	0.000000e+00	7.162162e-01	9.912234e+14	1.223420e+15	7.946107e+13	1.522271e+04	6.657732e+03	5.533318e+03	0	1.304672e-03
3.700000e+08	6.912591e+13	0.000000e+00	7.162162e-01	9.670179e+14	1.210921e+15	7.905172e+13	1.513953e+04	6.644781e+03	5.522555e+03	0	1.293452e-03
3.800000e+08	6.737975e+13	0.000000e+00	7.162162e-01	9.437207e+14	1.197530e+15	7.864534e+13	1.505836e+04	6.630801e+03	5.510935e+03	0	1.282468e-03
3.900000e+08	6.569882e+13	0.000000e+00	7.162162e-01	9.212898e+14	1.183415e+15	7.824189e+13	1.497913e+04	6.615941e+03	5.498585e+03	0	1.271713e-03
4.000000e+08	6.408011e+13	0.000000e+00	7.162162e-01	8.996853e+14	1.168722e+15	7.784136e+13	1.490177e+04	6.600338e+03	5.485617e+03	0	1.261182e-03
4.100000e+08	6.252074e+13	0.000000e+00	7.162162e-01	8.788687e+14	1.153579e+15	7.744371e+13	1.482621e+04	6.584109e+03	5.472129e+03	0	1.250868e-03
4.200000e+08	6.101795e+13	0.000000e+00	7.162162e-01	8.588039e+14	1.138098e+15	7.704893e+13	1.475238e+04	6.567358e+03	5.458208e+03	0	1.240764e-03
4.300000e+08	5.956916e+13	0.000000e+00	7.162162e-01	8.394561e+14	1.122376e+15	7.665700e+13	1.468023e+04	6.550179e+03	5.443930e+03	0	1.230865e-03
4.400000e+08	5.817186e+13	0.000000e+00	7.162162e-01	8.207927e+14	1.106497e+15	7.626788e+13	1.460969e+04	6.532652e+03	5.429363e+03	0	1.221165e-03
4.500000e+08	5.682373e+13	0.000000e+00	7.162162e-01	8.027823e+14	1.090533e+15	7.588156e+13	1.454071e+04	6.514849e+03	5.414566e+03	0	1.211658e-03
4.600000e+08	5.552252e+13	0.000000e+00	7.162162e-01	7.853955e+14	1.074547e+15	7.549801e+13	1.447324e+04	6.496832e+03	5.399592e+03	0	1.202338e-03
4.700000e+08	5.426612e+13	0.000000e+00	7.162162e-01	7.686041e+14	1.058591e+15	7.511722e+13	1.440721e+04	6.478655e+03	5.384485e+03	0	1.193199e-03
4.800000e+08	5.305253e+13	0.000000e+00	7.162162e-01	7.523817e+14	1.042711e+15	7.473915e+13	1.434259e+04	6.460368e+03	5.369287e+03	0	1.184237e-03
4.900000e+08	5.187984e+13	0.000000e+00	7.162162e-01	7.367030e+14	1.026944e+15	7.436379e+13	1.427932e+04	6.442012e+03	5.354031e+03	0	1.175447e-03
5.000000e+08	5.074625e+13	0.000000e+00	7.162162e-01	7.215440e+14	1.011322e+15	7.399111e+13	1.421736e+04	6.423625e+03	5.338749e+03	0	1.166822e-03
5.100000e+08	4.965006e+13	0.000000e+00	7.162162e-01	7.068821e+14	9.958722e+14	7.362110e+13	1.415666e+04	6.405238e+03	5.323467e+03	0	1.158359e-03
5.200000e+08	4.858963e+13	0.000000e+00	7.162162e-01	6.926959e+14	9.806169e+14	7.325372e+13	1.409720e+04	6.386879e+03	5.308209e+03	0	1.150053e-03
5.300000e+08	4.756344e+13	0.000000e+00	7.162162e-01	6.789648e+14	9.655731e+14	7.288897e+13	1.403891e+04	6.368572e+03	5.292994e+03	0	1.141899e-03
5.400000e+08	4.657002e+13	0.000000e+00	7.162162e-01	6.656696e+14	9.507562e+14	7.252682e+13	1.398178e+04	6.350339e+03	5.277840e+03	0	1.133893e-03
5.500000e+08	4.560799e+13	0.000000e+00	7.162162e-01	6.527919e+14	9.361772e+14	7.216724e+13	1.392576e+04	6.332198e+03	5.262763e+03	0	1.126031e-03
5.600000e+08	4.467604e+13	0.000000e+00	7.162162e-01	6.403143e+14	9.218454e+14	7.181021e+13	1.387081e+04	6.314164e+03	5.247775e+03	0	1.118308e-03
5.700000e+08	4.377291e+13	0.000000e+00	7.162162e-01	6.282201e+14	9.077667e+14	7.145573e+13	1.381691e+04	6.296252e+03	5.232888e+03	0	1.110721e-03
5.800000e+08	4.289742e+13	0.000000e+00	7.162162e-01	6.164937e+14	8.939463e+14	7.110376e+13	1.376402e+04	6.278472e+03	5.218110e+03	0	1.103267e-03
5.900000e+08	4.204845e+13	0.000000e+00	7.162162e-01	6.051201e+14	8.803872e+14	7.075428e+13	1.371211e+04	6.260834e+03	5.203451e+03	0	1.095940e-03
6.000000e+08	4.122492e+13	0.000000e+00	7.162162e-01	5.940852e+14	8.670911e+14	7.040728e+13	1.366116e+04	6.243346e+03	5.188917e+03	0	1.088738e-03
6.100000e+08	4.042582e+13	0.000000e+00	7.162162e-01	5.833753e+14	8.540586e+14	7.006273e+13	1.361112e+04	6.226016e+03	5.174514e+03	0	1.081657e-03
6.200000e+08	3.965018e+13	0.000000e+00	7.162162e-01	5.729777e+14	8.412890e+14	6.972061e+13	1.356199e+04	6.208849e+03	5.160246e+03	0	1.074695e-03
6.300000e+08	3.889708e+13	0.000000e+00	7.162162e-01	5.628801e+14	8.287802e+14	6.938091e+13	1.351372e+04	6.191850e+03	5.146118e+03	0	1.067847e-03
6.400000e+08	3.816563e+13	0.000000e+00	7.162162e-01	5.530709e+14	8.165311e+14	6.904361e+13	1.346630e+04	6.175022e+03	5.132132e+03	0	1.061111e-03
6.500000e+08	3.745502e+13	0.000000e+00	7.162162e-01	5.435390e+14	8.045382e+14	6.870868e+13	1.341970e+04	6.158368e+03	5.118291e+03	0	1.054484e-03
6.600000e+08	3.676443e+13	0.000000e+00	7.162162e-01	5.342739e+14	7.927985e+14	6.837611e+13	1.337391e+04	6.141891e+03	5.104597e+03	0	1.047963e-03
6.700000e+08	3.609311e+13	0.000000e+00	7.162162e-01	5.252654e+14	7.813082e+14	6.804588e+13	1.332888e+04	6.125592e+03	5.091050e+03	0	1.041545e-03
6.800000e+08	3.544034e+13	0.000000e+00	7.162162e-01	5.165040e+14	7.700634e+14	6.771797e+13	1.328461e+04	6.109472e+03	5.077653e+03	0	1.035228e-03
6.900000e+08	3.480543e+13	0.000000e+00	7.162162e-01	5.079804e+14	7.590597e+14	6.739236e+13	1.324108e+04	6.093532e+03	5.064405e+03	0	1.029009e-03
7.000000e+08	3.418772e+13	0.000000e+00	7.162162e-01	4.996861e+14	7.482924e+14	6.706903e+13	1.319826e+04	6.077771e+03	5.051306e+03	0	1.022885e-03
7.100000e+08	3.358658e+13	0.000000e+00	7.162162e-01	4.916126e+14	7.377575e+14	6.674796e+13	1.315614e+04	6.062191e+03	5.038357e+03	0	1.016854e-03
7.200000e+08	3.300142e+13	0.000000e+00	7.162162e-01	4.837519e+14	7.274495e+14	6.642914e+13	1.311469e+04	6.046789e+03	5.025556e+03	0	1.010914e-03
7.300000e+08	3.243165e+13	0.000000e+00	7.162162e-01	4.760965e+14	7.173639e+14	6.611255e+13	1.307391e+04	6.031565e+03	5.012904e+03	0	1.005062e-03
7.400000e+08	3.187674e+13	0.000000e+00	7.162162e-01	4.686391e+14	7.074960e+14	6.579816e+13	1.303376e+04	6.016518e+03	5.000398e+03	0	9.992972e-04
7.500000e+08	3.133616e+13	0.000000e+00	7.162162e-01	4.613728e+14	6.978401e+14	6.548597e+13	1.299424e+04	6.001648e+03	4.988039e+03	0	9.936161e-04
7.600000e+08	3.080941e+13	0.000000e+00	7.162162e-01	4.542908e+14	6.883924e+14	6.517596e+13	1.295533e+04	5.986951e+03	4.975824e+03	0	9.880172e-04
7.700000e+08	3.029601e+13	0.000000e+00	7.162162e-01	4.473868e+14	6.791467e+14	6.486810e+13	1.291702e+04	5.972427e+03	4.963753e+03	0	9.824984e-04
7.800000e+08	2.979550e+13	0.000000e+00	7.162162e-01	4.406548e+14	6.700991e+14	6.456238e+13	1.287928e+04	5.958074e+03	4.951824e+03	0	9.770578e-04
7.900000e+08	2.930745e+13	0.000000e+00	7.162162e-01	4.340889e+14	6.612445e+14	6.425878e+13	1.284211e+04	5.943890e+03	4.940036e+03	0	9.716937e-04
8.000000e+08	2.883143e+13	0.000000e+00	7.162162e-01	4.276836e+14	6.525779e+14	6.395729e+13	1.280549e+04	5.929873e+03	4.928386e+03	0	9.664041e-04
8.100000e+08	2.836704e+13	0.000000e+00	7.162162e-01	4.214334e+14	6.440948e+14	6.365789e+13	1.276941e+04	5.916021e+03	4.916873e+03	0	9.611874e-04
8.200000e+08	2.791390e+13	0.000000e+00	7.162162e-01	4.153333e+14	6.357907e+14	6.336056e+13	1.273385e+04	5.902332e+03	4.905496e+03	0	9.560418e-04
8.300000e+08	2.747164e+13	0.000000e+00	7.162162e-01	4.093783e+14	6.276610e+14	6.306528e+13	1.269881e+04	5.888803e+03	4.894253e+03	0	9.509658e-04
8.400000e+08	2.703990e+13	0.000000e+00	7.162162e-01	4.035637e+14	6.197011e+14	6.277205e+13	1.266426e+04	5.875433e+03	4.883141e+03	0	9.459577e-04
8.500000e+08	2.661834e+13	0.000000e+00	7.162162e-01	3.978851e+14	6.119066e+14	6.248084e+13	1.263021e+04	5.862220e+03	4.872159e+03	0	9.410161e-04
8.600000e+08	2.620664e+13	0.000000e+00	7.162162e-01	3.923380e+14	6.042735e+14	6.219163e+13	1.259663e+04	5.849160e+03	4.861305e+03	0	9.361393e-04
8.700000e+08	2.580448e+13	0.000000e+00	7.162162e-01	3.869184e+14	5.967978e+14	6.190442e+13	1.256351e+04	5.836252e+03	4.850577e+03	0	9.313260e-04
8.800000e+08	2.541156e+13	0.000000e+00	7.162162e-01	3.816221e+14	5.894748e+14	6.161918e+13	1.253086e+04	5.823494e+03	4.839973e+03	0	9.265748e-04
8.900000e+08	2.502760e+13	0.000000e+00	7.162162e-01	3.764454e+14	5.823012e+14	6.133591e+13	1.249864e+04	5.810883e+03	4.829492e+03	0	9.218843e-04
9.000000e+08	2.465231e+13	0.000000e+00	7.162162e-01	3.713845e+14	5.752727e+14	6.105457e+13	1.246687e+04	5.798417e+03	4.819131e+03	0	9.172532e-04
9.100000e+08	2.428543e+13	0.000000e+00	7.162162e-01	3.664360e+14	5.683860e+14	6.077517e+13	1.243551e+04	5.786093e+03	4.808889e+03	0	9.126802e-04
9.200000e+08	2.392670e+13	0.000000e+00	7.162162e-01	3.615964e+14	5.616369e+14	6.049768e+13	1.240458e+04	5.773910e+03	4.798764e+03	0	9.081640e-04
9.300000e+08	2.357587e+13	0.000000e+00	7.162162e-01	3.568624e+14	5.550222e+14	6.022208e+13	1.237405e+04	5.761866e+03	4.788753e+03	0	9.037035e-04
9.400000e+08	2.323272e+13	0.000000e+00	7.162162e-01	3.522308e+14	5.485381e+14	5.994837e+13	1.234392e+04	5.749957e+03	4.778856e+03	0	8.992975e-04
9.500000e+08	2.289700e+13	0.000000e+00	7.162162e-01	3.476986e+14	5.421817e+14	5.967653e+13	1.231417e+04	5.738182e+03	4.769070e+03	0	8.949448e-04
9.600000e+08	2.256850e+13	0.000000e+00	7.162162e-01	3.432630e+14	5.359494e+14	5.940654e+13	1.228481e+04	5.726539e+03	4.759393e+03	0	8.906443e-04
9.700000e+08	2.224701e+13	0.000000e+00	7.162162e-01	3.389210e+14	5.298382e+14	5.913839e+13	1.225583e+04	5.715025e+03	4.749824e+03	0	8.863949e-04
9.800000e+08	2.193232e+13	0.000000e+00	7.162162e-01	3.346700e+14	5.238448e+14	5.887207e+13	1.222720e+04	5.703639e+03	4.740360e+03	0	8.821957e-04
9.900000e+08	2.162424e+13	0.000000e+00	7.162162e-01	3.305073e+14	5.179664e+14	5.860755e+13	1.219894e+04	5.692378e+03	4.731001e+03	0	8.780455e-04
1.000000e+09	2.132258e+13	0.000000e+00	7.162162e-01	3.264304e+14	5.121999e+14	5.834484e+13	1.217102e+04	5.681241e+03	4.721745e+03	0	8.739433e-04
1.010000e+09	2.102715e+13	0.000000e+00	7.162162e-01	3.224369e+14	5.065425e+14	5.808390e+13	1.214345e+04	5.670224e+03	4.712589e+03	0	8.698883e-04
1.020000e+09	2.073778e+13	0.000000e+00	7.162162e-01	3.185244e+14	5.009915e+14	5.782473e+13	1.211621e+04	5.659327e+03	4.703532e+03	0	8.658795e-04
1.030000e+09	2.045430e+13	0.000000e+00	7.162162e-01	3.146907e+14	4.955442e+14	5.756731e+13	1.208931e+04	5.648547e+03	4.694573e+03	0	8.619159e-04
1.040000e+09	2.017654e+13	0.000000e+00	7.162162e-01	3.109336e+14	4.901980e+14	5.731164e+13	1.206272e+04	5.637883e+03	4.685710e+03	0	8.579967e-04
1.050000e+09	1.990436e+13	0.000000e+00	7.162162e-01	3.072511e+14	4.849504e+14	5.705769e+13	1.203645e+04	5.627332e+03	4.676941e+03	0	8.541210e-04
1.060000e+09	1.963758e+13	0.000000e+00	7.162162e-01	3.036409e+14	4.797990e+14	5.680545e+13	1.201050e+04	5.616893e+03	4.668264e+03	0	8.502880e-04
1.070000e+09	1.937608e+13	0.000000e+00	7.162162e-01	3.001013e+14	4.747413e+14	5.655491e+13	1.198484e+04	5.606563e+03	4.659679e+03	0	8.464968e-04
1.080000e+09	1.911969e+13	0.000000e+00	7.162162e-01	2.966302e+14	4.697751e+14	5.630606e+13	1.195948e+04	5.596341e+03	4.651184e+03	0	8.427466e-04
1.090000e+09	1.886830e+13	0.000000e+00	7.162162e-01	2.932260e+14	4.648980e+14	5.605888e+13	1.193442e+04	5.586226e+03	4.642777e+03	0	8.390367e-04
1.100000e+09	1.862176e+13	0.000000e+00	7.162162e-01	2.898867e+14	4.601080e+14	5.581337e+13	1.190964e+04	5.576215e+03	4.634457e+03	0	8.353663e-04
1.110000e+09	1.837994e+13	0.000000e+00	7.162162e-01	2.866107e+14	4.554028e+14	5.556949e+13	1.188515e+04	5.566307e+03	4.626222e+03	0	8.317346e-04
1.120000e+09	1.814273e+13	0.000000e+00	7.162162e-01	2.833963e+14	4.507806e+14	5.532726e+13	1.186092e+04	5.556499e+03	4.618071e+03	0	8.281410e-04
1.130000e+09	1.791000e+13	0.000000e+00	7.162162e-01	2.802420e+14	4.462392e+14	5.508664e+13	1.183697e+04	5.546792e+03	4.610003e+03	0	8.245847e-04
1.140000e+09	1.768164e+13	0.000000e+00	7.162162e-01	2.771462e+14	4.417767e+14	5.484763e+13	1.181329e+04	5.537182e+03	4.602016e+03	0	8.210650e-04
1.150000e+09	1.745753e+13	0.000000e+00	7.162162e-01	2.741073e+14	4.373913e+14	5.461022e+13	1.178987e+04	5.527668e+03	4.594109e+03	0	8.175814e-04
1.160000e+09	1.723757e+13	0.000000e+00	7.162162e-01	2.711240e+14	4.330813e+14	5.437439e+13	1.176670e+04	5.518249e+03	4.586281e+03	0	8.141330e-04
1.170000e+09	1.702164e+13	0.000000e+00	7.162162e-01	2.681949e+14	4.288447e+14	5.414013e+13	1.174378e+04	5.508923e+03	4.578530e+03	0	8.107193e-04
1.180000e+09	1.680966e+13	0.000000e+00	7.162162e-01	2.653185e+14	4.246797e+14	5.390743e+13	1.172111e+04	5.499689e+03	4.570855e+03	0	8.073397e-04
1.190000e+09	1.660151e+13	0.000000e+00	7.162162e-01	2.624936e+14	4.205849e+14	5.367628e+13	1.169868e+04	5.490545e+03	4.563256e+03	0	8.039936e-04
1.200000e+09	1.639711e+13	0.000000e+00	7.162162e-01	2.597189e+14	4.165584e+14	5.344666e+13	1.167649e+04	5.481490e+03	4.555730e+03	0	8.006803e-04
1.210000e+09	1.619636e+13	0.000000e+00	7.162162e-01	2.569932e+14	4.125988e+14	5.321856e+13	1.165454e+04	5.472522e+03	4.548277e+03	0	7.973993e-04
1.220000e+09	1.599918e+13	0.000000e+00	7.162162e-01	2.543152e+14	4.087046e+14	5.299198e+13	1.163281e+04	5.463641e+03	4.540895e+03	0	7.941501e-04
1.230000e+09	1.580547e+13	0.000000e+00	7.162162e-01	2.516839e+14	4.048742e+14	5.276689e+13	1.161131e+04	5.454843e+03	4.533584e+03	0	7.909320e-04
1.240000e+09	1.561515e+13	0.000000e+00	7.162162e-01	2.490980e+14	4.011061e+14	5.254330e+13	1.159003e+04	5.446130e+03	4.526341e+03	0	7.877446e-04
1.250000e+09	1.542814e+13	0.000000e+00	7.162162e-01	2.465566e+14	3.973992e+14	5.232117e+13	1.156897e+04	5.437498e+03	4.519167e+03	0	7.845872e-04
1.260000e+09	1.524436e+13	0.000000e+00	7.162162e-01	2.440585e+14	3.937517e+14	5.210052e+13	1.154812e+04	5.428947e+03	4.512061e+03	0	7.814595e-04
1.270000e+09	1.506374e+13	0.000000e+00	7.162162e-01	2.416027e+14	3.901627e+14	5.188131e+13	1.152749e+04	5.420475e+03	4.505020e+03	0	7.783609e-04
1.280000e+09	1.488620e+13	0.000000e+00	7.162162e-01	2.391883e+14	3.866305e+14	5.166355e+13	1.150706e+04	5.412082e+03	4.498044e+03	0	7.752909e-04
1.290000e+09	1.471167e+13	0.000000e+00	7.162162e-01	2.368142e+14	3.831541e+14	5.144722e+13	1.148683e+04	5.403766e+03	4.491132e+03	0	7.722490e-04
1.300000e+09	1.454007e+13	0.000000e+00	7.162162e-01	2.344796e+14	3.797321e+14	5.123231e+13	1.146680e+04	5.395526e+03	4.484284e+03	0	7.692347e-04
1.310000e+09	1.437135e+13	0.000000e+00	7.162162e-01	2.321835e+14	3.763635e+14	5.101881e+13	1.144698e+04	5.387360e+03	4.477497e+03	0	7.662477e-04
1.320000e+09	1.420542e+13	0.000000e+00	7.162162e-01	2.299251e+14	3.730471e+14	5.080671e+13	1.142734e+04	5.379268e+03	4.470772e+03	0	7.632874e-04
1.330000e+09	1.404224e+13	0.000000e+00	7.162162e-01	2.277034e+14	3.697817e+14	5.059599e+13	1.140789e+04	5.371249e+03	4.464107e+03	0	7.603535e-04
1.340000e+09	1.388174e+13	0.000000e+00	7.162162e-01	2.255177e+14	3.665662e+14	5.038665e+13	1.138864e+04	5.363301e+03	4.457502e+03	0	7.574454e-04
1.350000e+09	1.372385e+13	0.000000e+00	7.162162e-01	2.233672e+14	3.633995e+14	5.017868e+13	1.136956e+04	5.355424e+03	4.450954e+03	0	7.545628e-04
1.360000e+09	1.356853e+13	0.000000e+00	7.162162e-01	2.212511e+14	3.602808e+14	4.997206e+13	1.135067e+04	5.347615e+03	4.444465e+03	0	7.517053e-04
