#t		Qconv[W]	Ri[Rp]		R*[Rp]		Qc[W]		Qm[W]		Qr[W]		Tcmb[K]		Tl[K]		Tup[K]		RiFlag		Bs[T]
0.000000e+00	1.825873e+15	0.000000e+00	7.066666e-01	2.347221e+16	2.180612e+13	1.060702e+14	3.622623e+04	3.748717e+03	2.880915e+03	0	3.840123e-03
1.000000e+07	1.631917e+15	0.000000e+00	7.066666e-01	2.098732e+16	3.577086e+14	1.054825e+14	3.445822e+04	5.687665e+03	4.371010e+03	0	3.699028e-03
2.000000e+07	1.443032e+15	0.000000e+00	7.066666e-01	1.856794e+16	1.495034e+15	1.048992e+14	3.286800e+04	7.363179e+03	5.658654e+03	0	3.550424e-03
3.000000e+07	1.267992e+15	0.000000e+00	7.066666e-01	1.632613e+16	3.452294e+15	1.043202e+14	3.145359e+04	8.709341e+03	6.693189e+03	0	3.400638e-03
4.000000e+07	1.113737e+15	0.000000e+00	7.066666e-01	1.435051e+16	5.697868e+15	1.037456e+14	3.020408e+04	9.692350e+03	7.448638e+03	0	3.256735e-03
5.000000e+07	9.830753e+14	0.000000e+00	7.066666e-01	1.267689e+16	7.620489e+15	1.031753e+14	2.910123e+04	1.033643e+04	7.943619e+03	0	3.124044e-03
6.000000e+07	8.746277e+14	0.000000e+00	7.066666e-01	1.128754e+16	8.911280e+15	1.026092e+14	2.812349e+04	1.070817e+04	8.229299e+03	0	3.004665e-03
7.000000e+07	7.848280e+14	0.000000e+00	7.066666e-01	1.013684e+16	9.573140e+15	1.020473e+14	2.725016e+04	1.088460e+04	8.364892e+03	0	2.898098e-03
8.000000e+07	7.098183e+14	0.000000e+00	7.066666e-01	9.175427e+15	9.755396e+15	1.014896e+14	2.646369e+04	1.093172e+04	8.401102e+03	0	2.802661e-03
9.000000e+07	6.463398e+14	0.000000e+00	7.066666e-01	8.361615e+15	9.624130e+15	1.009360e+14	2.575004e+04	1.089785e+04	8.375070e+03	0	2.716493e-03
1.000000e+08	5.919026e+14	0.000000e+00	7.066666e-01	7.663552e+15	9.309948e+15	1.003866e+14	2.509823e+04	1.081547e+04	8.311763e+03	0	2.637981e-03
1.100000e+08	5.446673e+14	0.000000e+00	7.066666e-01	7.057707e+15	8.901256e+15	9.984124e+13	2.449963e+04	1.070542e+04	8.227192e+03	0	2.565854e-03
1.200000e+08	5.032753e+14	0.000000e+00	7.066666e-01	6.526695e+15	8.453170e+15	9.929992e+13	2.394732e+04	1.058073e+04	8.131363e+03	0	2.499137e-03
1.300000e+08	4.667072e+14	0.000000e+00	7.066666e-01	6.057471e+15	7.998202e+15	9.876261e+13	2.343568e+04	1.044940e+04	8.030438e+03	0	2.437080e-03
1.400000e+08	4.341812e+14	0.000000e+00	7.066666e-01	5.640032e+15	7.554579e+15	9.822927e+13	2.296007e+04	1.031633e+04	7.928170e+03	0	2.379096e-03
1.500000e+08	4.050848e+14	0.000000e+00	7.066666e-01	5.266533e+15	7.131842e+15	9.769987e+13	2.251659e+04	1.018444e+04	7.826810e+03	0	2.324718e-03
1.600000e+08	3.789280e+14	0.000000e+00	7.066666e-01	4.930703e+15	6.734408e+15	9.717439e+13	2.210190e+04	1.005545e+04	7.727679e+03	0	2.273564e-03
1.700000e+08	3.553121e+14	0.000000e+00	7.066666e-01	4.627438e+15	6.363694e+15	9.665278e+13	2.171315e+04	9.930321e+03	7.631520e+03	0	2.225315e-03
1.800000e+08	3.339082e+14	0.000000e+00	7.066666e-01	4.352526e+15	6.019478e+15	9.613502e+13	2.134788e+04	9.809561e+03	7.538715e+03	0	2.179703e-03
1.900000e+08	3.144417e+14	0.000000e+00	7.066666e-01	4.102449e+15	5.700623e+15	9.562107e+13	2.100392e+04	9.693373e+03	7.449424e+03	0	2.136494e-03
2.000000e+08	2.966809e+14	0.000000e+00	7.066666e-01	3.874242e+15	5.405556e+15	9.511091e+13	2.067938e+04	9.581786e+03	7.363668e+03	0	2.095486e-03
2.100000e+08	2.804288e+14	0.000000e+00	7.066666e-01	3.665380e+15	5.132536e+15	9.460449e+13	2.037259e+04	9.474720e+03	7.281388e+03	0	2.056502e-03
2.200000e+08	2.655169e+14	0.000000e+00	7.066666e-01	3.473703e+15	4.879791e+15	9.410180e+13	2.008206e+04	9.372032e+03	7.202471e+03	0	2.019384e-03
2.300000e+08	2.517998e+14	0.000000e+00	7.066666e-01	3.297351e+15	4.645613e+15	9.360279e+13	1.980648e+04	9.273543e+03	7.126782e+03	0	1.983993e-03
2.400000e+08	2.391517e+14	0.000000e+00	7.066666e-01	3.134712e+15	4.428391e+15	9.310745e+13	1.954468e+04	9.179057e+03	7.054168e+03	0	1.950201e-03
2.500000e+08	2.274631e+14	0.000000e+00	7.066666e-01	2.984381e+15	4.226641e+15	9.261573e+13	1.929559e+04	9.088371e+03	6.984476e+03	0	1.917897e-03
2.600000e+08	2.166383e+14	0.000000e+00	7.066666e-01	2.845133e+15	4.039001e+15	9.212761e+13	1.905826e+04	9.001285e+03	6.917550e+03	0	1.886977e-03
2.700000e+08	2.065934e+14	0.000000e+00	7.066666e-01	2.715891e+15	3.864237e+15	9.164306e+13	1.883185e+04	8.917603e+03	6.853239e+03	0	1.857350e-03
2.800000e+08	1.972543e+14	0.000000e+00	7.066666e-01	2.595707e+15	3.701230e+15	9.116204e+13	1.861558e+04	8.837137e+03	6.791401e+03	0	1.828930e-03
2.900000e+08	1.885557e+14	0.000000e+00	7.066666e-01	2.483745e+15	3.548962e+15	9.068454e+13	1.840875e+04	8.759709e+03	6.731897e+03	0	1.801641e-03
3.000000e+08	1.804398e+14	0.000000e+00	7.066666e-01	2.379261e+15	3.406529e+15	9.021052e+13	1.821071e+04	8.685151e+03	6.674598e+03	0	1.775411e-03
3.100000e+08	1.728549e+14	0.000000e+00	7.066666e-01	2.281595e+15	3.273102e+15	8.973995e+13	1.802090e+04	8.613304e+03	6.619384e+03	0	1.750178e-03
3.200000e+08	1.657553e+14	0.000000e+00	7.066666e-01	2.190158e+15	3.147939e+15	8.927281e+13	1.783878e+04	8.544020e+03	6.566138e+03	0	1.725881e-03
3.300000e+08	1.590999e+14	0.000000e+00	7.066666e-01	2.104426e+15	3.030374e+15	8.880906e+13	1.766386e+04	8.477161e+03	6.514756e+03	0	1.702465e-03
3.400000e+08	1.528518e+14	0.000000e+00	7.066666e-01	2.023925e+15	2.919796e+15	8.834868e+13	1.749570e+04	8.412595e+03	6.465137e+03	0	1.679881e-03
3.500000e+08	1.469782e+14	0.000000e+00	7.066666e-01	1.948233e+15	2.815663e+15	8.789164e+13	1.733390e+04	8.350203e+03	6.417188e+03	0	1.658082e-03
3.600000e+08	1.414492e+14	0.000000e+00	7.066666e-01	1.876968e+15	2.717473e+15	8.743791e+13	1.717808e+04	8.289870e+03	6.370822e+03	0	1.637024e-03
3.700000e+08	1.362381e+14	0.000000e+00	7.066666e-01	1.809786e+15	2.624781e+15	8.698747e+13	1.702789e+04	8.231491e+03	6.325957e+03	0	1.616669e-03
3.800000e+08	1.313205e+14	0.000000e+00	7.066666e-01	1.746376e+15	2.537174e+15	8.654029e+13	1.688302e+04	8.174967e+03	6.282518e+03	0	1.596979e-03
3.900000e+08	1.266745e+14	0.000000e+00	7.066666e-01	1.686456e+15	2.454284e+15	8.609634e+13	1.674316e+04	8.120206e+03	6.240434e+03	0	1.577919e-03
4.000000e+08	1.222802e+14	0.000000e+00	7.066666e-01	1.629770e+15	2.375771e+15	8.565560e+13	1.660805e+04	8.067121e+03	6.199638e+03	0	1.559458e-03
4.100000e+08	1.181193e+14	0.000000e+00	7.066666e-01	1.576085e+15	2.301327e+15	8.521804e+13	1.647744e+04	8.015631e+03	6.160068e+03	0	1.541565e-03
4.200000e+08	1.141755e+14	0.000000e+00	7.066666e-01	1.525189e+15	2.230668e+15	8.478363e+13	1.635108e+04	7.965661e+03	6.121665e+03	0	1.524214e-03
4.300000e+08	1.104335e+14	0.000000e+00	7.066666e-01	1.476889e+15	2.163537e+15	8.435235e+13	1.622875e+04	7.917139e+03	6.084375e+03	0	1.507377e-03
4.400000e+08	1.068797e+14	0.000000e+00	7.066666e-01	1.431007e+15	2.099699e+15	8.392417e+13	1.611027e+04	7.869998e+03	6.048148e+03	0	1.491031e-03
4.500000e+08	1.035013e+14	0.000000e+00	7.066666e-01	1.387383e+15	2.038934e+15	8.349907e+13	1.599542e+04	7.824177e+03	6.012934e+03	0	1.475152e-03
4.600000e+08	1.002869e+14	0.000000e+00	7.066666e-01	1.345866e+15	1.981046e+15	8.307702e+13	1.588404e+04	7.779615e+03	5.978688e+03	0	1.459720e-03
4.700000e+08	9.722568e+13	0.000000e+00	7.066666e-01	1.306320e+15	1.925849e+15	8.265799e+13	1.577597e+04	7.736259e+03	5.945368e+03	0	1.444714e-03
4.800000e+08	9.430801e+13	0.000000e+00	7.066666e-01	1.268621e+15	1.873176e+15	8.224197e+13	1.567104e+04	7.694055e+03	5.912934e+03	0	1.430116e-03
4.900000e+08	9.152484e+13	0.000000e+00	7.066666e-01	1.232652e+15	1.822871e+15	8.182893e+13	1.556910e+04	7.652954e+03	5.881348e+03	0	1.415907e-03
5.000000e+08	8.886786e+13	0.000000e+00	7.066666e-01	1.198306e+15	1.774790e+15	8.141884e+13	1.547004e+04	7.612911e+03	5.850575e+03	0	1.402070e-03
5.100000e+08	8.632941e+13	0.000000e+00	7.066666e-01	1.165486e+15	1.728799e+15	8.101168e+13	1.537370e+04	7.573882e+03	5.820580e+03	0	1.388592e-03
5.200000e+08	8.390239e+13	0.000000e+00	7.066666e-01	1.134100e+15	1.684776e+15	8.060743e+13	1.527998e+04	7.535825e+03	5.791333e+03	0	1.375455e-03
5.300000e+08	8.158025e+13	0.000000e+00	7.066666e-01	1.104064e+15	1.642607e+15	8.020606e+13	1.518877e+04	7.498701e+03	5.762803e+03	0	1.362647e-03
5.400000e+08	7.935689e+13	0.000000e+00	7.066666e-01	1.075300e+15	1.602187e+15	7.980755e+13	1.509995e+04	7.462473e+03	5.734962e+03	0	1.350153e-03
5.500000e+08	7.722667e+13	0.000000e+00	7.066666e-01	1.047735e+15	1.563415e+15	7.941188e+13	1.501342e+04	7.427107e+03	5.707783e+03	0	1.337963e-03
5.600000e+08	7.518435e+13	0.000000e+00	7.066666e-01	1.021302e+15	1.526200e+15	7.901901e+13	1.492909e+04	7.392570e+03	5.681240e+03	0	1.326063e-03
5.700000e+08	7.322505e+13	0.000000e+00	7.066666e-01	9.959375e+14	1.490459e+15	7.862894e+13	1.484687e+04	7.358829e+03	5.655310e+03	0	1.314442e-03
5.800000e+08	7.134423e+13	0.000000e+00	7.066666e-01	9.715841e+14	1.456112e+15	7.824163e+13	1.476668e+04	7.325855e+03	5.629970e+03	0	1.303090e-03
5.900000e+08	6.953766e+13	0.000000e+00	7.066666e-01	9.481872e+14	1.423084e+15	7.785707e+13	1.468843e+04	7.293620e+03	5.605197e+03	0	1.291997e-03
6.000000e+08	6.780139e+13	0.000000e+00	7.066666e-01	9.256959e+14	1.391307e+15	7.747524e+13	1.461206e+04	7.262097e+03	5.580972e+03	0	1.281153e-03
6.100000e+08	6.613173e+13	0.000000e+00	7.066666e-01	9.040629e+14	1.360716e+15	7.709610e+13	1.453747e+04	7.231261e+03	5.557274e+03	0	1.270549e-03
6.200000e+08	6.452524e+13	0.000000e+00	7.066666e-01	8.832439e+14	1.331250e+15	7.671964e+13	1.446462e+04	7.201087e+03	5.534085e+03	0	1.260177e-03
6.300000e+08	6.297870e+13	0.000000e+00	7.066666e-01	8.631975e+14	1.302853e+15	7.634584e+13	1.439344e+04	7.171552e+03	5.511387e+03	0	1.250027e-03
6.400000e+08	6.148909e+13	0.000000e+00	7.066666e-01	8.438848e+14	1.275472e+15	7.597468e+13	1.432386e+04	7.142634e+03	5.489163e+03	0	1.240093e-03
6.500000e+08	6.005357e+13	0.000000e+00	7.066666e-01	8.252695e+14	1.249058e+15	7.560613e+13	1.425582e+04	7.114312e+03	5.467397e+03	0	1.230367e-03
6.600000e+08	5.866951e+13	0.000000e+00	7.066666e-01	8.073175e+14	1.223562e+15	7.524017e+13	1.418927e+04	7.086565e+03	5.446074e+03	0	1.220841e-03
6.700000e+08	5.733439e+13	0.000000e+00	7.066666e-01	7.899967e+14	1.198942e+15	7.487679e+13	1.412416e+04	7.059376e+03	5.425179e+03	0	1.211509e-03
6.800000e+08	5.604589e+13	0.000000e+00	7.066666e-01	7.732770e+14	1.175157e+15	7.451596e+13	1.406044e+04	7.032725e+03	5.404698e+03	0	1.202365e-03
6.900000e+08	5.480181e+13	0.000000e+00	7.066666e-01	7.571302e+14	1.152168e+15	7.415766e+13	1.399806e+04	7.006596e+03	5.384617e+03	0	1.193401e-03
7.000000e+08	5.360006e+13	0.000000e+00	7.066666e-01	7.415295e+14	1.129938e+15	7.380187e+13	1.393697e+04	6.980970e+03	5.364924e+03	0	1.184614e-03
7.100000e+08	5.243871e+13	0.000000e+00	7.066666e-01	7.264500e+14	1.108432e+15	7.344858e+13	1.387713e+04	6.955834e+03	5.345606e+03	0	1.175995e-03
7.200000e+08	5.131592e+13	0.000000e+00	7.066666e-01	7.118678e+14	1.087619e+15	7.309775e+13	1.381850e+04	6.931170e+03	5.326652e+03	0	1.167541e-03
7.300000e+08	5.022995e+13	0.000000e+00	7.066666e-01	6.977609e+14	1.067468e+15	7.274938e+13	1.376103e+04	6.906965e+03	5.308050e+03	0	1.159247e-03
7.400000e+08	4.917916e+13	0.000000e+00	7.066666e-01	6.841080e+14	1.047950e+15	7.240343e+13	1.370470e+04	6.883205e+03	5.289790e+03	0	1.151106e-03
7.500000e+08	4.816201e+13	0.000000e+00	7.066666e-01	6.708893e+14	1.029036e+15	7.205990e+13	1.364947e+04	6.859875e+03	5.271861e+03	0	1.143115e-03
7.600000e+08	4.717705e+13	0.000000e+00	7.066666e-01	6.580861e+14	1.010703e+15	7.171876e+13	1.359529e+04	6.836965e+03	5.254254e+03	0	1.135268e-03
7.700000e+08	4.622289e+13	0.000000e+00	7.066666e-01	6.456805e+14	9.929241e+14	7.138000e+13	1.354214e+04	6.814460e+03	5.236959e+03	0	1.127562e-03
7.800000e+08	4.529821e+13	0.000000e+00	7.066666e-01	6.336557e+14	9.756776e+14	7.104359e+13	1.348999e+04	6.792349e+03	5.219967e+03	0	1.119993e-03
7.900000e+08	4.440180e+13	0.000000e+00	7.066666e-01	6.219959e+14	9.589406e+14	7.070951e+13	1.343881e+04	6.770621e+03	5.203269e+03	0	1.112556e-03
8.000000e+08	4.353247e+13	0.000000e+00	7.066666e-01	6.106858e+14	9.426931e+14	7.037776e+13	1.338855e+04	6.749265e+03	5.186856e+03	0	1.105247e-03
8.100000e+08	4.268912e+13	0.000000e+00	7.066666e-01	5.997112e+14	9.269153e+14	7.004830e+13	1.333921e+04	6.728270e+03	5.170721e+03	0	1.098063e-03
8.200000e+08	4.187068e+13	0.000000e+00	7.066666e-01	5.890586e+14	9.115879e+14	6.972112e+13	1.329075e+04	6.707626e+03	5.154857e+03	0	1.091000e-03
8.300000e+08	4.107617e+13	0.000000e+00	7.066666e-01	5.787150e+14	8.966934e+14	6.939621e+13	1.324315e+04	6.687324e+03	5.139254e+03	0	1.084056e-03
8.400000e+08	4.030462e+13	0.000000e+00	7.066666e-01	5.686682e+14	8.822149e+14	6.907353e+13	1.319637e+04	6.667354e+03	5.123907e+03	0	1.077225e-03
8.500000e+08	3.955514e+13	0.000000e+00	7.066666e-01	5.589066e+14	8.681363e+14	6.875309e+13	1.315040e+04	6.647707e+03	5.108808e+03	0	1.070506e-03
8.600000e+08	3.882687e+13	0.000000e+00	7.066666e-01	5.494192e+14	8.544424e+14	6.843485e+13	1.310522e+04	6.628375e+03	5.093951e+03	0	1.063896e-03
8.700000e+08	3.811899e+13	0.000000e+00	7.066666e-01	5.401953e+14	8.411185e+14	6.811881e+13	1.306080e+04	6.609348e+03	5.079330e+03	0	1.057390e-03
8.800000e+08	3.743072e+13	0.000000e+00	7.066666e-01	5.312250e+14	8.281510e+14	6.780494e+13	1.301712e+04	6.590620e+03	5.064937e+03	0	1.050988e-03
8.900000e+08	3.676133e+13	0.000000e+00	7.066666e-01	5.224988e+14	8.155264e+14	6.749322e+13	1.297417e+04	6.572183e+03	5.050768e+03	0	1.044685e-03
9.000000e+08	3.611011e+13	0.000000e+00	7.066666e-01	5.140076e+14	8.032323e+14	6.718365e+13	1.293191e+04	6.554028e+03	5.036815e+03	0	1.038479e-03
9.100000e+08	3.547639e+13	0.000000e+00	7.066666e-01	5.057427e+14	7.912566e+14	6.687619e+13	1.289034e+04	6.536149e+03	5.023075e+03	0	1.032368e-03
9.200000e+08	3.485953e+13	0.000000e+00	7.066666e-01	4.976959e+14	7.795879e+14	6.657084e+13	1.284943e+04	6.518538e+03	5.009542e+03	0	1.026350e-03
9.300000e+08	3.425892e+13	0.000000e+00	7.066666e-01	4.898592e+14	7.682152e+14	6.626758e+13	1.280917e+04	6.501190e+03	4.996209e+03	0	1.020421e-03
9.400000e+08	3.367397e+13	0.000000e+00	7.066666e-01	4.822253e+14	7.571283e+14	6.596640e+13	1.276954e+04	6.484097e+03	4.983073e+03	0	1.014580e-03
9.500000e+08	3.310413e+13	0.000000e+00	7.066666e-01	4.747868e+14	7.463170e+14	6.566727e+13	1.273053e+04	6.467253e+03	4.970129e+03	0	1.008825e-03
9.600000e+08	3.254887e+13	0.000000e+00	7.066666e-01	4.675370e+14	7.357716e+14	6.537018e+13	1.269211e+04	6.450653e+03	4.957371e+03	0	1.003152e-03
9.700000e+08	3.200767e+13	0.000000e+00	7.066666e-01	4.604693e+14	7.254836e+14	6.507511e+13	1.265428e+04	6.434290e+03	4.944796e+03	0	9.975614e-04
9.800000e+08	3.148006e+13	0.000000e+00	7.066666e-01	4.535774e+14	7.154437e+14	6.478205e+13	1.261702e+04	6.418158e+03	4.932399e+03	0	9.920497e-04
9.900000e+08	3.096556e+13	0.000000e+00	7.066666e-01	4.468553e+14	7.056437e+14	6.449098e+13	1.258031e+04	6.402253e+03	4.920175e+03	0	9.866154e-04
1.000000e+09	3.046373e+13	0.000000e+00	7.066666e-01	4.402973e+14	6.960757e+14	6.420189e+13	1.254414e+04	6.386568e+03	4.908122e+03	0	9.812567e-04
1.010000e+09	2.997415e+13	0.000000e+00	7.066666e-01	4.338979e+14	6.867321e+14	6.391476e+13	1.250850e+04	6.371100e+03	4.896234e+03	0	9.759717e-04
1.020000e+09	2.949641e+13	0.000000e+00	7.066666e-01	4.276518e+14	6.776052e+14	6.362957e+13	1.247338e+04	6.355842e+03	4.884508e+03	0	9.707587e-04
1.030000e+09	2.903011e+13	0.000000e+00	7.066666e-01	4.215540e+14	6.686887e+14	6.334631e+13	1.243876e+04	6.340790e+03	4.872940e+03	0	9.656161e-04
1.040000e+09	2.857489e+13	0.000000e+00	7.066666e-01	4.155996e+14	6.599752e+14	6.306497e+13	1.240463e+04	6.325939e+03	4.861528e+03	0	9.605422e-04
1.050000e+09	2.813038e+13	0.000000e+00	7.066666e-01	4.097840e+14	6.514584e+14	6.278553e+13	1.237098e+04	6.311285e+03	4.850266e+03	0	9.555354e-04
1.060000e+09	2.769624e+13	0.000000e+00	7.066666e-01	4.041028e+14	6.431323e+14	6.250797e+13	1.233780e+04	6.296823e+03	4.839152e+03	0	9.505942e-04
1.070000e+09	2.727214e+13	0.000000e+00	7.066666e-01	3.985518e+14	6.349908e+14	6.223228e+13	1.230508e+04	6.282550e+03	4.828183e+03	0	9.457172e-04
1.080000e+09	2.685775e+13	0.000000e+00	7.066666e-01	3.931267e+14	6.270281e+14	6.195845e+13	1.227280e+04	6.268461e+03	4.817355e+03	0	9.409029e-04
1.090000e+09	2.645279e+13	0.000000e+00	7.066666e-01	3.878237e+14	6.192386e+14	6.168646e+13	1.224096e+04	6.254552e+03	4.806666e+03	0	9.361499e-04
1.100000e+09	2.605695e+13	0.000000e+00	7.066666e-01	3.826390e+14	6.116176e+14	6.141629e+13	1.220955e+04	6.240819e+03	4.796112e+03	0	9.314569e-04
1.110000e+09	2.566995e+13	0.000000e+00	7.066666e-01	3.775689e+14	6.041592e+14	6.114794e+13	1.217856e+04	6.227258e+03	4.785691e+03	0	9.268225e-04
1.120000e+09	2.529152e+13	0.000000e+00	7.066666e-01	3.726101e+14	5.968593e+14	6.088138e+13	1.214798e+04	6.213866e+03	4.775399e+03	0	9.222456e-04
1.130000e+09	2.492141e+13	0.000000e+00	7.066666e-01	3.677590e+14	5.897128e+14	6.061661e+13	1.211779e+04	6.200640e+03	4.765234e+03	0	9.177248e-04
1.140000e+09	2.455936e+13	0.000000e+00	7.066666e-01	3.630126e+14	5.827152e+14	6.035361e+13	1.208800e+04	6.187575e+03	4.755194e+03	0	9.132590e-04
1.150000e+09	2.420514e+13	0.000000e+00	7.066666e-01	3.583677e+14	5.758620e+14	6.009236e+13	1.205859e+04	6.174669e+03	4.745276e+03	0	9.088470e-04
1.160000e+09	2.385850e+13	0.000000e+00	7.066666e-01	3.538212e+14	5.691495e+14	5.983286e+13	1.202956e+04	6.161918e+03	4.735477e+03	0	9.044877e-04
1.170000e+09	2.351924e+13	0.000000e+00	7.066666e-01	3.493704e+14	5.625732e+14	5.957508e+13	1.200089e+04	6.149319e+03	4.725794e+03	0	9.001799e-04
1.180000e+09	2.318713e+13	0.000000e+00	7.066666e-01	3.450125e+14	5.561294e+14	5.931902e+13	1.197258e+04	6.136869e+03	4.716226e+03	0	8.959227e-04
1.190000e+09	2.286196e+13	0.000000e+00	7.066666e-01	3.407447e+14	5.498145e+14	5.906467e+13	1.194462e+04	6.124566e+03	4.706771e+03	0	8.917150e-04
1.200000e+09	2.254355e+13	0.000000e+00	7.066666e-01	3.365646e+14	5.436246e+14	5.881200e+13	1.191701e+04	6.112405e+03	4.697425e+03	0	8.875558e-04
1.210000e+09	2.223169e+13	0.000000e+00	7.066666e-01	3.324695e+14	5.375562e+14	5.856100e+13	1.188973e+04	6.100385e+03	4.688188e+03	0	8.834441e-04
1.220000e+09	2.192620e+13	0.000000e+00	7.066666e-01	3.284573e+14	5.316063e+14	5.831167e+13	1.186279e+04	6.088502e+03	4.679056e+03	0	8.793789e-04
1.230000e+09	2.162691e+13	0.000000e+00	7.066666e-01	3.245255e+14	5.257715e+14	5.806399e+13	1.183617e+04	6.076754e+03	4.670027e+03	0	8.753594e-04
1.240000e+09	2.133364e+13	0.000000e+00	7.066666e-01	3.206718e+14	5.200486e+14	5.781795e+13	1.180986e+04	6.065139e+03	4.661101e+03	0	8.713846e-04
1.250000e+09	2.104622e+13	0.000000e+00	7.066666e-01	3.168943e+14	5.144344e+14	5.757353e+13	1.178387e+04	6.053653e+03	4.652274e+03	0	8.674537e-04
1.260000e+09	2.076450e+13	0.000000e+00	7.066666e-01	3.131908e+14	5.089264e+14	5.733072e+13	1.175818e+04	6.042294e+03	4.643545e+03	0	8.635658e-04
1.270000e+09	2.048832e+13	0.000000e+00	7.066666e-01	3.095592e+14	5.035216e+14	5.708951e+13	1.173280e+04	6.031061e+03	4.634912e+03	0	8.597201e-04
1.280000e+09	2.021754e+13	0.000000e+00	7.066666e-01	3.059977e+14	4.982173e+14	5.684989e+13	1.170770e+04	6.019950e+03	4.626373e+03	0	8.559157e-04
1.290000e+09	1.995199e+13	0.000000e+00	7.066666e-01	3.025045e+14	4.930107e+14	5.661185e+13	1.168289e+04	6.008959e+03	4.617927e+03	0	8.521519e-04
1.300000e+09	1.969156e+13	0.000000e+00	7.066666e-01	2.990776e+14	4.878995e+14	5.637536e+13	1.165837e+04	5.998087e+03	4.609571e+03	0	8.484279e-04
1.310000e+09	1.943610e+13	0.000000e+00	7.066666e-01	2.957153e+14	4.828811e+14	5.614043e+13	1.163412e+04	5.987331e+03	4.601305e+03	0	8.447430e-04
1.320000e+09	1.918548e+13	0.000000e+00	7.066666e-01	2.924161e+14	4.779531e+14	5.590703e+13	1.161014e+04	5.976688e+03	4.593126e+03	0	8.410965e-04
1.330000e+09	1.893958e+13	0.000000e+00	7.066666e-01	2.891781e+14	4.731134e+14	5.567516e+13	1.158643e+04	5.966157e+03	4.585033e+03	0	8.374875e-04
1.340000e+09	1.869827e+13	0.000000e+00	7.066666e-01	2.860000e+14	4.683595e+14	5.544481e+13	1.156298e+04	5.955736e+03	4.577024e+03	0	8.339155e-04
1.350000e+09	1.846144e+13	0.000000e+00	7.066666e-01	2.828800e+14	4.636895e+14	5.521596e+13	1.153979e+04	5.945423e+03	4.569098e+03	0	8.303798e-04
1.360000e+09	1.822897e+13	0.000000e+00	7.066666e-01	2.798169e+14	4.591012e+14	5.498860e+13	1.151685e+04	5.935215e+03	4.561254e+03	0	8.268797e-04
