#t		Qconv[W]	Ri[Rp]		R*[Rp]		Qc[W]		Qm[W]		Qr[W]		Tcmb[K]		Tl[K]		Tup[K]		RiFlag		Bs[T]
0.000000e+00	2.305944e+15	0.000000e+00	7.066666e-01	2.734555e+16	1.896036e+13	1.200754e+14	3.924193e+04	3.870878e+03	2.953501e+03	0	4.135325e-03
1.000000e+07	2.082241e+15	0.000000e+00	7.066666e-01	2.470342e+16	3.349223e+14	1.194101e+14	3.745139e+04	5.875496e+03	4.483036e+03	0	3.997027e-03
2.000000e+07	1.860730e+15	0.000000e+00	7.066666e-01	2.208796e+16	1.474229e+15	1.187497e+14	3.582544e+04	7.636190e+03	5.826455e+03	0	3.849945e-03
3.000000e+07	1.651316e+15	0.000000e+00	7.066666e-01	1.961573e+16	3.556967e+15	1.180943e+14	3.436477e+04	9.086491e+03	6.933043e+03	0	3.699731e-03
4.000000e+07	1.462650e+15	0.000000e+00	7.066666e-01	1.738852e+16	6.103767e+15	1.174438e+14	3.306210e+04	1.018238e+04	7.769216e+03	0	3.553095e-03
5.000000e+07	1.299496e+15	0.000000e+00	7.066666e-01	1.546231e+16	8.439888e+15	1.167982e+14	3.190300e+04	1.093264e+04	8.341667e+03	0	3.415742e-03
6.000000e+07	1.161832e+15	0.000000e+00	7.066666e-01	1.383674e+16	1.013924e+16	1.161573e+14	3.086890e+04	1.139224e+04	8.692344e+03	0	3.290596e-03
7.000000e+07	1.046516e+15	0.000000e+00	7.066666e-01	1.247473e+16	1.112229e+16	1.155213e+14	2.994083e+04	1.163438e+04	8.877096e+03	0	3.177914e-03
8.000000e+07	9.494517e+14	0.000000e+00	7.066666e-01	1.132798e+16	1.151452e+16	1.148899e+14	2.910196e+04	1.172692e+04	8.947702e+03	0	3.076458e-03
9.000000e+07	8.668785e+14	0.000000e+00	7.066666e-01	1.035217e+16	1.149511e+16	1.142633e+14	2.833846e+04	1.172239e+04	8.944247e+03	0	2.984554e-03
1.000000e+08	7.957878e+14	0.000000e+00	7.066666e-01	9.511840e+15	1.121978e+16	1.136413e+14	2.763927e+04	1.165759e+04	8.894803e+03	0	2.900631e-03
1.100000e+08	7.338991e+14	0.000000e+00	7.066666e-01	8.780092e+15	1.080083e+16	1.130239e+14	2.699561e+04	1.155687e+04	8.817958e+03	0	2.823399e-03
1.200000e+08	6.795042e+14	0.000000e+00	7.066666e-01	8.136792e+15	1.031182e+16	1.124111e+14	2.640044e+04	1.143588e+04	8.725639e+03	0	2.751846e-03
1.300000e+08	6.313128e+14	0.000000e+00	7.066666e-01	7.566724e+15	9.798065e+15	1.118029e+14	2.584799e+04	1.130446e+04	8.625368e+03	0	2.685190e-03
1.400000e+08	5.883325e+14	0.000000e+00	7.066666e-01	7.058183e+15	9.286281e+15	1.111991e+14	2.533347e+04	1.116877e+04	8.521834e+03	0	2.622815e-03
1.500000e+08	5.497842e+14	0.000000e+00	7.066666e-01	6.601980e+15	8.791385e+15	1.105998e+14	2.485287e+04	1.103259e+04	8.417930e+03	0	2.564233e-03
1.600000e+08	5.150444e+14	0.000000e+00	7.066666e-01	6.190759e+15	8.321133e+15	1.100050e+14	2.440274e+04	1.089823e+04	8.315410e+03	0	2.509044e-03
1.700000e+08	4.836050e+14	0.000000e+00	7.066666e-01	5.818525e+15	7.878969e+15	1.094145e+14	2.398014e+04	1.076705e+04	8.215315e+03	0	2.456916e-03
1.800000e+08	4.550465e+14	0.000000e+00	7.066666e-01	5.480327e+15	7.465810e+15	1.088284e+14	2.358250e+04	1.063981e+04	8.118232e+03	0	2.407569e-03
1.900000e+08	4.290177e+14	0.000000e+00	7.066666e-01	5.172019e+15	7.081155e+15	1.082466e+14	2.320757e+04	1.051691e+04	8.024459e+03	0	2.360760e-03
2.000000e+08	4.052219e+14	0.000000e+00	7.066666e-01	4.890100e+15	6.723709e+15	1.076690e+14	2.285338e+04	1.039850e+04	7.934114e+03	0	2.316280e-03
2.100000e+08	3.834061e+14	0.000000e+00	7.066666e-01	4.631584e+15	6.391805e+15	1.070958e+14	2.251818e+04	1.028460e+04	7.847205e+03	0	2.273944e-03
2.200000e+08	3.633534e+14	0.000000e+00	7.066666e-01	4.393909e+15	6.083621e+15	1.065267e+14	2.220041e+04	1.017511e+04	7.763668e+03	0	2.233588e-03
2.300000e+08	3.448763e+14	0.000000e+00	7.066666e-01	4.174862e+15	5.797328e+15	1.059618e+14	2.189869e+04	1.006991e+04	7.683396e+03	0	2.195067e-03
2.400000e+08	3.278121e+14	0.000000e+00	7.066666e-01	3.972520e+15	5.531154e+15	1.054010e+14	2.161179e+04	9.968814e+03	7.606261e+03	0	2.158250e-03
2.500000e+08	3.120186e+14	0.000000e+00	7.066666e-01	3.785207e+15	5.283428e+15	1.048444e+14	2.133859e+04	9.871648e+03	7.532122e+03	0	2.123018e-03
2.600000e+08	2.973716e+14	0.000000e+00	7.066666e-01	3.611452e+15	5.052605e+15	1.042918e+14	2.107808e+04	9.778219e+03	7.460835e+03	0	2.089264e-03
2.700000e+08	2.837615e+14	0.000000e+00	7.066666e-01	3.449963e+15	4.837255e+15	1.037433e+14	2.082935e+04	9.688339e+03	7.392256e+03	0	2.056891e-03
2.800000e+08	2.710919e+14	0.000000e+00	7.066666e-01	3.299600e+15	4.636083e+15	1.031988e+14	2.059160e+04	9.601823e+03	7.326244e+03	0	2.025811e-03
2.900000e+08	2.592770e+14	0.000000e+00	7.066666e-01	3.159350e+15	4.447910e+15	1.026582e+14	2.036407e+04	9.518494e+03	7.262664e+03	0	1.995943e-03
3.000000e+08	2.482410e+14	0.000000e+00	7.066666e-01	3.028317e+15	4.271653e+15	1.021216e+14	2.014608e+04	9.438182e+03	7.201386e+03	0	1.967212e-03
3.100000e+08	2.379162e+14	0.000000e+00	7.066666e-01	2.905700e+15	4.106349e+15	1.015889e+14	1.993701e+04	9.360729e+03	7.142288e+03	0	1.939552e-03
3.200000e+08	2.282420e+14	0.000000e+00	7.066666e-01	2.790786e+15	3.951109e+15	1.010601e+14	1.973630e+04	9.285981e+03	7.085255e+03	0	1.912898e-03
3.300000e+08	2.191643e+14	0.000000e+00	7.066666e-01	2.682932e+15	3.805136e+15	1.005351e+14	1.954344e+04	9.213798e+03	7.030179e+03	0	1.887195e-03
3.400000e+08	2.106346e+14	0.000000e+00	7.066666e-01	2.581566e+15	3.667709e+15	1.000139e+14	1.935793e+04	9.144045e+03	6.976957e+03	0	1.862387e-03
3.500000e+08	2.026089e+14	0.000000e+00	7.066666e-01	2.486170e+15	3.538170e+15	9.949656e+13	1.917935e+04	9.076598e+03	6.925495e+03	0	1.838427e-03
3.600000e+08	1.950480e+14	0.000000e+00	7.066666e-01	2.396277e+15	3.415923e+15	9.898293e+13	1.900729e+04	9.011339e+03	6.875702e+03	0	1.815267e-03
3.700000e+08	1.879161e+14	0.000000e+00	7.066666e-01	2.311465e+15	3.300422e+15	9.847301e+13	1.884138e+04	8.948158e+03	6.827494e+03	0	1.792867e-03
3.800000e+08	1.811810e+14	0.000000e+00	7.066666e-01	2.231354e+15	3.191177e+15	9.796679e+13	1.868128e+04	8.886952e+03	6.780794e+03	0	1.771187e-03
3.900000e+08	1.748133e+14	0.000000e+00	7.066666e-01	2.155596e+15	3.087737e+15	9.746422e+13	1.852666e+04	8.827624e+03	6.735527e+03	0	1.750189e-03
4.000000e+08	1.687865e+14	0.000000e+00	7.066666e-01	2.083876e+15	2.989693e+15	9.696528e+13	1.837724e+04	8.770086e+03	6.691624e+03	0	1.729840e-03
4.100000e+08	1.630762e+14	0.000000e+00	7.066666e-01	2.015909e+15	2.896668e+15	9.646994e+13	1.823274e+04	8.714250e+03	6.649021e+03	0	1.710108e-03
4.200000e+08	1.576604e+14	0.000000e+00	7.066666e-01	1.951431e+15	2.808318e+15	9.597818e+13	1.809290e+04	8.660039e+03	6.607658e+03	0	1.690964e-03
4.300000e+08	1.525188e+14	0.000000e+00	7.066666e-01	1.890204e+15	2.724332e+15	9.548995e+13	1.795748e+04	8.607376e+03	6.567476e+03	0	1.672378e-03
4.400000e+08	1.476329e+14	0.000000e+00	7.066666e-01	1.832008e+15	2.644419e+15	9.500524e+13	1.782628e+04	8.556193e+03	6.528423e+03	0	1.654326e-03
4.500000e+08	1.429858e+14	0.000000e+00	7.066666e-01	1.776644e+15	2.568314e+15	9.452401e+13	1.769907e+04	8.506423e+03	6.490448e+03	0	1.636783e-03
4.600000e+08	1.385619e+14	0.000000e+00	7.066666e-01	1.723927e+15	2.495775e+15	9.404623e+13	1.757567e+04	8.458004e+03	6.453504e+03	0	1.619725e-03
4.700000e+08	1.343469e+14	0.000000e+00	7.066666e-01	1.673687e+15	2.426574e+15	9.357188e+13	1.745589e+04	8.410877e+03	6.417546e+03	0	1.603132e-03
4.800000e+08	1.303276e+14	0.000000e+00	7.066666e-01	1.625769e+15	2.360509e+15	9.310093e+13	1.733958e+04	8.364987e+03	6.382532e+03	0	1.586983e-03
4.900000e+08	1.264919e+14	0.000000e+00	7.066666e-01	1.580029e+15	2.297384e+15	9.263335e+13	1.722656e+04	8.320283e+03	6.348422e+03	0	1.571258e-03
5.000000e+08	1.228285e+14	0.000000e+00	7.066666e-01	1.536334e+15	2.237026e+15	9.216912e+13	1.711670e+04	8.276715e+03	6.315179e+03	0	1.555941e-03
5.100000e+08	1.193271e+14	0.000000e+00	7.066666e-01	1.494561e+15	2.179267e+15	9.170820e+13	1.700984e+04	8.234236e+03	6.282768e+03	0	1.541013e-03
5.200000e+08	1.159780e+14	0.000000e+00	7.066666e-01	1.454596e+15	2.123961e+15	9.125057e+13	1.690587e+04	8.192804e+03	6.251155e+03	0	1.526460e-03
5.300000e+08	1.127725e+14	0.000000e+00	7.066666e-01	1.416335e+15	2.070963e+15	9.079620e+13	1.680465e+04	8.152377e+03	6.220309e+03	0	1.512265e-03
5.400000e+08	1.097023e+14	0.000000e+00	7.066666e-01	1.379680e+15	2.020145e+15	9.034507e+13	1.670607e+04	8.112914e+03	6.190199e+03	0	1.498414e-03
5.500000e+08	1.067596e+14	0.000000e+00	7.066666e-01	1.344540e+15	1.971382e+15	8.989716e+13	1.661002e+04	8.074380e+03	6.160797e+03	0	1.484895e-03
5.600000e+08	1.039374e+14	0.000000e+00	7.066666e-01	1.310830e+15	1.924566e+15	8.945242e+13	1.651640e+04	8.036739e+03	6.132077e+03	0	1.471694e-03
5.700000e+08	1.012291e+14	0.000000e+00	7.066666e-01	1.278473e+15	1.879588e+15	8.901084e+13	1.642510e+04	7.999958e+03	6.104012e+03	0	1.458798e-03
5.800000e+08	9.862847e+13	0.000000e+00	7.066666e-01	1.247395e+15	1.836352e+15	8.857240e+13	1.633604e+04	7.964004e+03	6.076579e+03	0	1.446197e-03
5.900000e+08	9.612976e+13	0.000000e+00	7.066666e-01	1.217528e+15	1.794765e+15	8.813706e+13	1.624913e+04	7.928848e+03	6.049755e+03	0	1.433880e-03
6.000000e+08	9.372760e+13	0.000000e+00	7.066666e-01	1.188808e+15	1.754741e+15	8.770481e+13	1.616428e+04	7.894460e+03	6.023517e+03	0	1.421835e-03
6.100000e+08	9.141698e+13	0.000000e+00	7.066666e-01	1.161176e+15	1.716202e+15	8.727561e+13	1.608142e+04	7.860814e+03	5.997845e+03	0	1.410054e-03
6.200000e+08	8.919320e+13	0.000000e+00	7.066666e-01	1.134576e+15	1.679071e+15	8.684945e+13	1.600047e+04	7.827884e+03	5.972719e+03	0	1.398526e-03
6.300000e+08	8.705186e+13	0.000000e+00	7.066666e-01	1.108956e+15	1.643279e+15	8.642629e+13	1.592137e+04	7.795644e+03	5.948120e+03	0	1.387244e-03
6.400000e+08	8.498885e+13	0.000000e+00	7.066666e-01	1.084268e+15	1.608759e+15	8.600612e+13	1.584403e+04	7.764072e+03	5.924030e+03	0	1.376197e-03
6.500000e+08	8.300030e+13	0.000000e+00	7.066666e-01	1.060464e+15	1.575451e+15	8.558891e+13	1.576840e+04	7.733145e+03	5.900432e+03	0	1.365379e-03
6.600000e+08	8.108258e+13	0.000000e+00	7.066666e-01	1.037503e+15	1.543295e+15	8.517464e+13	1.569443e+04	7.702840e+03	5.877310e+03	0	1.354782e-03
6.700000e+08	7.923230e+13	0.000000e+00	7.066666e-01	1.015344e+15	1.512237e+15	8.476327e+13	1.562204e+04	7.673139e+03	5.854648e+03	0	1.344397e-03
6.800000e+08	7.744625e+13	0.000000e+00	7.066666e-01	9.939490e+14	1.482228e+15	8.435480e+13	1.555119e+04	7.644021e+03	5.832431e+03	0	1.334218e-03
6.900000e+08	7.572143e+13	0.000000e+00	7.066666e-01	9.732824e+14	1.453216e+15	8.394919e+13	1.548182e+04	7.615467e+03	5.810644e+03	0	1.324239e-03
7.000000e+08	7.405499e+13	0.000000e+00	7.066666e-01	9.533106e+14	1.425157e+15	8.354643e+13	1.541388e+04	7.587460e+03	5.789274e+03	0	1.314452e-03
7.100000e+08	7.244427e+13	0.000000e+00	7.066666e-01	9.340017e+14	1.398009e+15	8.314648e+13	1.534733e+04	7.559983e+03	5.768309e+03	0	1.304853e-03
7.200000e+08	7.088674e+13	0.000000e+00	7.066666e-01	9.153261e+14	1.371730e+15	8.274933e+13	1.528211e+04	7.533018e+03	5.747735e+03	0	1.295433e-03
7.300000e+08	6.938004e+13	0.000000e+00	7.066666e-01	8.972554e+14	1.346284e+15	8.235496e+13	1.521819e+04	7.506551e+03	5.727540e+03	0	1.286189e-03
7.400000e+08	6.792192e+13	0.000000e+00	7.066666e-01	8.797630e+14	1.321632e+15	8.196334e+13	1.515553e+04	7.480566e+03	5.707714e+03	0	1.277115e-03
7.500000e+08	6.651026e+13	0.000000e+00	7.066666e-01	8.628239e+14	1.297742e+15	8.157445e+13	1.509408e+04	7.455049e+03	5.688244e+03	0	1.268205e-03
7.600000e+08	6.514305e+13	0.000000e+00	7.066666e-01	8.464142e+14	1.274580e+15	8.118827e+13	1.503380e+04	7.429986e+03	5.669121e+03	0	1.259455e-03
7.700000e+08	6.381841e+13	0.000000e+00	7.066666e-01	8.305114e+14	1.252117e+15	8.080478e+13	1.497467e+04	7.405364e+03	5.650334e+03	0	1.250860e-03
7.800000e+08	6.253453e+13	0.000000e+00	7.066666e-01	8.150942e+14	1.230324e+15	8.042395e+13	1.491664e+04	7.381170e+03	5.631874e+03	0	1.242415e-03
7.900000e+08	6.128971e+13	0.000000e+00	7.066666e-01	8.001424e+14	1.209172e+15	8.004576e+13	1.485968e+04	7.357391e+03	5.613731e+03	0	1.234116e-03
8.000000e+08	6.008235e+13	0.000000e+00	7.066666e-01	7.856369e+14	1.188637e+15	7.967020e+13	1.480375e+04	7.334017e+03	5.595896e+03	0	1.225958e-03
8.100000e+08	5.891092e+13	0.000000e+00	7.066666e-01	7.715595e+14	1.168693e+15	7.929724e+13	1.474884e+04	7.311035e+03	5.578361e+03	0	1.217938e-03
8.200000e+08	5.777396e+13	0.000000e+00	7.066666e-01	7.578931e+14	1.149316e+15	7.892687e+13	1.469490e+04	7.288435e+03	5.561117e+03	0	1.210052e-03
8.300000e+08	5.667010e+13	0.000000e+00	7.066666e-01	7.446213e+14	1.130485e+15	7.855905e+13	1.464192e+04	7.266207e+03	5.544156e+03	0	1.202296e-03
8.400000e+08	5.559804e+13	0.000000e+00	7.066666e-01	7.317285e+14	1.112177e+15	7.819377e+13	1.458985e+04	7.244339e+03	5.527471e+03	0	1.194666e-03
8.500000e+08	5.455652e+13	0.000000e+00	7.066666e-01	7.191999e+14	1.094375e+15	7.783102e+13	1.453868e+04	7.222823e+03	5.511054e+03	0	1.187159e-03
8.600000e+08	5.354438e+13	0.000000e+00	7.066666e-01	7.070217e+14	1.077057e+15	7.747076e+13	1.448839e+04	7.201649e+03	5.494899e+03	0	1.179772e-03
8.700000e+08	5.256047e+13	0.000000e+00	7.066666e-01	6.951802e+14	1.060205e+15	7.711299e+13	1.443894e+04	7.180809e+03	5.478997e+03	0	1.172501e-03
8.800000e+08	5.160374e+13	0.000000e+00	7.066666e-01	6.836630e+14	1.043803e+15	7.675768e+13	1.439031e+04	7.160293e+03	5.463343e+03	0	1.165343e-03
8.900000e+08	5.067316e+13	0.000000e+00	7.066666e-01	6.724577e+14	1.027834e+15	7.640480e+13	1.434249e+04	7.140092e+03	5.447930e+03	0	1.158296e-03
9.000000e+08	4.976776e+13	0.000000e+00	7.066666e-01	6.615530e+14	1.012281e+15	7.605435e+13	1.429544e+04	7.120200e+03	5.432753e+03	0	1.151356e-03
9.100000e+08	4.888662e+13	0.000000e+00	7.066666e-01	6.509377e+14	9.971307e+14	7.570630e+13	1.424916e+04	7.100609e+03	5.417804e+03	0	1.144520e-03
9.200000e+08	4.802885e+13	0.000000e+00	7.066666e-01	6.406013e+14	9.823675e+14	7.536064e+13	1.420361e+04	7.081309e+03	5.403079e+03	0	1.137787e-03
9.300000e+08	4.719360e+13	0.000000e+00	7.066666e-01	6.305340e+14	9.679779e+14	7.501734e+13	1.415878e+04	7.062296e+03	5.388571e+03	0	1.131152e-03
9.400000e+08	4.638008e+13	0.000000e+00	7.066666e-01	6.207259e+14	9.539489e+14	7.467638e+13	1.411465e+04	7.043560e+03	5.374276e+03	0	1.124615e-03
9.500000e+08	4.558752e+13	0.000000e+00	7.066666e-01	6.111681e+14	9.402685e+14	7.433775e+13	1.407121e+04	7.025097e+03	5.360188e+03	0	1.118172e-03
9.600000e+08	4.481517e+13	0.000000e+00	7.066666e-01	6.018518e+14	9.269239e+14	7.400144e+13	1.402843e+04	7.006898e+03	5.346302e+03	0	1.111822e-03
9.700000e+08	4.406234e+13	0.000000e+00	7.066666e-01	5.927686e+14	9.139040e+14	7.366741e+13	1.398630e+04	6.988958e+03	5.332614e+03	0	1.105561e-03
9.800000e+08	4.332836e+13	0.000000e+00	7.066666e-01	5.839106e+14	9.011974e+14	7.333565e+13	1.394480e+04	6.971271e+03	5.319119e+03	0	1.099388e-03
9.900000e+08	4.261258e+13	0.000000e+00	7.066666e-01	5.752700e+14	8.887944e+14	7.300615e+13	1.390392e+04	6.953830e+03	5.305811e+03	0	1.093300e-03
1.000000e+09	4.191439e+13	0.000000e+00	7.066666e-01	5.668396e+14	8.766844e+14	7.267889e+13	1.386364e+04	6.936630e+03	5.292688e+03	0	1.087296e-03
1.010000e+09	4.123319e+13	0.000000e+00	7.066666e-01	5.586125e+14	8.648581e+14	7.235385e+13	1.382395e+04	6.919666e+03	5.279744e+03	0	1.081374e-03
1.020000e+09	4.056844e+13	0.000000e+00	7.066666e-01	5.505817e+14	8.533058e+14	7.203101e+13	1.378483e+04	6.902932e+03	5.266975e+03	0	1.075531e-03
1.030000e+09	3.991957e+13	0.000000e+00	7.066666e-01	5.427410e+14	8.420189e+14	7.171035e+13	1.374628e+04	6.886422e+03	5.254378e+03	0	1.069766e-03
1.040000e+09	3.928609e+13	0.000000e+00	7.066666e-01	5.350842e+14	8.309889e+14	7.139186e+13	1.370826e+04	6.870132e+03	5.241949e+03	0	1.064077e-03
1.050000e+09	3.866748e+13	0.000000e+00	7.066666e-01	5.276053e+14	8.202080e+14	7.107552e+13	1.367079e+04	6.854057e+03	5.229684e+03	0	1.058462e-03
1.060000e+09	3.806328e+13	0.000000e+00	7.066666e-01	5.202986e+14	8.096679e+14	7.076131e+13	1.363383e+04	6.838192e+03	5.217578e+03	0	1.052920e-03
1.070000e+09	3.747302e+13	0.000000e+00	7.066666e-01	5.131588e+14	7.993609e+14	7.044923e+13	1.359738e+04	6.822532e+03	5.205630e+03	0	1.047449e-03
1.080000e+09	3.689627e+13	0.000000e+00	7.066666e-01	5.061806e+14	7.892805e+14	7.013924e+13	1.356143e+04	6.807074e+03	5.193835e+03	0	1.042048e-03
1.090000e+09	3.633260e+13	0.000000e+00	7.066666e-01	4.993589e+14	7.794195e+14	6.983133e+13	1.352597e+04	6.791812e+03	5.182190e+03	0	1.036714e-03
1.100000e+09	3.578161e+13	0.000000e+00	7.066666e-01	4.926890e+14	7.697711e+14	6.952549e+13	1.349098e+04	6.776742e+03	5.170692e+03	0	1.031447e-03
1.110000e+09	3.524292e+13	0.000000e+00	7.066666e-01	4.861662e+14	7.603289e+14	6.922171e+13	1.345646e+04	6.761861e+03	5.159338e+03	0	1.026244e-03
1.120000e+09	3.471614e+13	0.000000e+00	7.066666e-01	4.797860e+14	7.510868e+14	6.891996e+13	1.342240e+04	6.747164e+03	5.148124e+03	0	1.021105e-03
1.130000e+09	3.420091e+13	0.000000e+00	7.066666e-01	4.735442e+14	7.420389e+14	6.862023e+13	1.338878e+04	6.732648e+03	5.137048e+03	0	1.016029e-03
1.140000e+09	3.369690e+13	0.000000e+00	7.066666e-01	4.674366e+14	7.331797e+14	6.832250e+13	1.335559e+04	6.718309e+03	5.126107e+03	0	1.011013e-03
1.150000e+09	3.320376e+13	0.000000e+00	7.066666e-01	4.614593e+14	7.245031e+14	6.802676e+13	1.332283e+04	6.704143e+03	5.115299e+03	0	1.006057e-03
1.160000e+09	3.272117e+13	0.000000e+00	7.066666e-01	4.556084e+14	7.160046e+14	6.773299e+13	1.329049e+04	6.690147e+03	5.104619e+03	0	1.001159e-03
1.170000e+09	3.224884e+13	0.000000e+00	7.066666e-01	4.498803e+14	7.076784e+14	6.744118e+13	1.325855e+04	6.676317e+03	5.094067e+03	0	9.963183e-04
1.180000e+09	3.178645e+13	0.000000e+00	7.066666e-01	4.442714e+14	6.995201e+14	6.715131e+13	1.322702e+04	6.662650e+03	5.083639e+03	0	9.915336e-04
1.190000e+09	3.133373e+13	0.000000e+00	7.066666e-01	4.387783e+14	6.915248e+14	6.686337e+13	1.319588e+04	6.649142e+03	5.073333e+03	0	9.868037e-04
1.200000e+09	3.089039e+13	0.000000e+00	7.066666e-01	4.333977e+14	6.836879e+14	6.657734e+13	1.316512e+04	6.635792e+03	5.063146e+03	0	9.821275e-04
1.210000e+09	3.045618e+13	0.000000e+00	7.066666e-01	4.281264e+14	6.760051e+14	6.629321e+13	1.313473e+04	6.622594e+03	5.053076e+03	0	9.775040e-04
1.220000e+09	3.003083e+13	0.000000e+00	7.066666e-01	4.229614e+14	6.684723e+14	6.601095e+13	1.310472e+04	6.609547e+03	5.043122e+03	0	9.729320e-04
1.230000e+09	2.961409e+13	0.000000e+00	7.066666e-01	4.178998e+14	6.610848e+14	6.573057e+13	1.307506e+04	6.596648e+03	5.033279e+03	0	9.684106e-04
1.240000e+09	2.920574e+13	0.000000e+00	7.066666e-01	4.129386e+14	6.538391e+14	6.545204e+13	1.304576e+04	6.583894e+03	5.023548e+03	0	9.639388e-04
1.250000e+09	2.880553e+13	0.000000e+00	7.066666e-01	4.080751e+14	6.467317e+14	6.517535e+13	1.301681e+04	6.571281e+03	5.013924e+03	0	9.595156e-04
1.260000e+09	2.841325e+13	0.000000e+00	7.066666e-01	4.033067e+14	6.397582e+14	6.490048e+13	1.298819e+04	6.558808e+03	5.004407e+03	0	9.551400e-04
1.270000e+09	2.802868e+13	0.000000e+00	7.066666e-01	3.986308e+14	6.329158e+14	6.462742e+13	1.295991e+04	6.546472e+03	4.994995e+03	0	9.508112e-04
1.280000e+09	2.765161e+13	0.000000e+00	7.066666e-01	3.940449e+14	6.262003e+14	6.435616e+13	1.293195e+04	6.534270e+03	4.985684e+03	0	9.465282e-04
1.290000e+09	2.728184e+13	0.000000e+00	7.066666e-01	3.895467e+14	6.196089e+14	6.408669e+13	1.290432e+04	6.522200e+03	4.976475e+03	0	9.422901e-04
1.300000e+09	2.691918e+13	0.000000e+00	7.066666e-01	3.851338e+14	6.131381e+14	6.381898e+13	1.287700e+04	6.510259e+03	4.967364e+03	0	9.380962e-04
1.310000e+09	2.656345e+13	0.000000e+00	7.066666e-01	3.808041e+14	6.067850e+14	6.355302e+13	1.284998e+04	6.498444e+03	4.958349e+03	0	9.339456e-04
1.320000e+09	2.621446e+13	0.000000e+00	7.066666e-01	3.765552e+14	6.005467e+14	6.328881e+13	1.282327e+04	6.486755e+03	4.949430e+03	0	9.298375e-04
1.330000e+09	2.587203e+13	0.000000e+00	7.066666e-01	3.723852e+14	5.944200e+14	6.302633e+13	1.279686e+04	6.475188e+03	4.940605e+03	0	9.257710e-04
1.340000e+09	2.553600e+13	0.000000e+00	7.066666e-01	3.682920e+14	5.884022e+14	6.276556e+13	1.277074e+04	6.463741e+03	4.931871e+03	0	9.217455e-04
1.350000e+09	2.520620e+13	0.000000e+00	7.066666e-01	3.642738e+14	5.824907e+14	6.250649e+13	1.274490e+04	6.452413e+03	4.923227e+03	0	9.177602e-04
1.360000e+09	2.488248e+13	0.000000e+00	7.066666e-01	3.603284e+14	5.766824e+14	6.224911e+13	1.271935e+04	6.441200e+03	4.914672e+03	0	9.138144e-04
