#t		Qconv[W]	Ri[Rp]		R*[Rp]		Qc[W]		Qm[W]		Qr[W]		Tcmb[K]		Tl[K]		Tup[K]		RiFlag		Bs[T]
0.000000e+00	2.220868e+13	0.000000e+00	8.048781e-01	4.200570e+14	6.491411e+14	3.401371e+13	7.984549e+03	2.950195e+03	2.163796e+03	0	8.218104e-04
1.000000e+07	2.148153e+13	0.000000e+00	8.048781e-01	4.065653e+14	5.926115e+14	3.382525e+13	7.931071e+03	2.906100e+03	2.131455e+03	0	8.127415e-04
2.000000e+07	2.080814e+13	0.000000e+00	8.048781e-01	3.940683e+14	5.497515e+14	3.363820e+13	7.879295e+03	2.871404e+03	2.106007e+03	0	8.041588e-04
3.000000e+07	2.018025e+13	0.000000e+00	8.048781e-01	3.824134e+14	5.160830e+14	3.345255e+13	7.829097e+03	2.843399e+03	2.085467e+03	0	7.959875e-04
4.000000e+07	1.959145e+13	0.000000e+00	8.048781e-01	3.714820e+14	4.888282e+14	3.326828e+13	7.780371e+03	2.820276e+03	2.068508e+03	0	7.881695e-04
5.000000e+07	1.903674e+13	0.000000e+00	8.048781e-01	3.611815e+14	4.661879e+14	3.308538e+13	7.733026e+03	2.800786e+03	2.054213e+03	0	7.806594e-04
6.000000e+07	1.851213e+13	0.000000e+00	8.048781e-01	3.514385e+14	4.469559e+14	3.290386e+13	7.686983e+03	2.784047e+03	2.041936e+03	0	7.734215e-04
7.000000e+07	1.801442e+13	0.000000e+00	8.048781e-01	3.421936e+14	4.302998e+14	3.272368e+13	7.642173e+03	2.769423e+03	2.031211e+03	0	7.664271e-04
8.000000e+07	1.754099e+13	0.000000e+00	8.048781e-01	3.333985e+14	4.156313e+14	3.254484e+13	7.598531e+03	2.756447e+03	2.021694e+03	0	7.596534e-04
9.000000e+07	1.708966e+13	0.000000e+00	8.048781e-01	3.250127e+14	4.025255e+14	3.236733e+13	7.556003e+03	2.744772e+03	2.013131e+03	0	7.530814e-04
1.000000e+08	1.665860e+13	0.000000e+00	8.048781e-01	3.170023e+14	3.906704e+14	3.219114e+13	7.514536e+03	2.734137e+03	2.005330e+03	0	7.466955e-04
1.100000e+08	1.624622e+13	0.000000e+00	8.048781e-01	3.093383e+14	3.798329e+14	3.201626e+13	7.474084e+03	2.724343e+03	1.998147e+03	0	7.404826e-04
1.200000e+08	1.585118e+13	0.000000e+00	8.048781e-01	3.019956e+14	3.698363e+14	3.184267e+13	7.434602e+03	2.715236e+03	1.991468e+03	0	7.344315e-04
1.300000e+08	1.547228e+13	0.000000e+00	8.048781e-01	2.949520e+14	3.605451e+14	3.167037e+13	7.396050e+03	2.706699e+03	1.985206e+03	0	7.285324e-04
1.400000e+08	1.510848e+13	0.000000e+00	8.048781e-01	2.881882e+14	3.518537e+14	3.149934e+13	7.358391e+03	2.698638e+03	1.979294e+03	0	7.227770e-04
1.500000e+08	1.475883e+13	0.000000e+00	8.048781e-01	2.816869e+14	3.436789e+14	3.132958e+13	7.321590e+03	2.690981e+03	1.973678e+03	0	7.171578e-04
1.600000e+08	1.442249e+13	0.000000e+00	8.048781e-01	2.754323e+14	3.359547e+14	3.116107e+13	7.285613e+03	2.683668e+03	1.968314e+03	0	7.116682e-04
1.700000e+08	1.409871e+13	0.000000e+00	8.048781e-01	2.694104e+14	3.286277e+14	3.099381e+13	7.250429e+03	2.676654e+03	1.963170e+03	0	7.063021e-04
1.800000e+08	1.378677e+13	0.000000e+00	8.048781e-01	2.636083e+14	3.216544e+14	3.082778e+13	7.216010e+03	2.669901e+03	1.958217e+03	0	7.010543e-04
1.900000e+08	1.348606e+13	0.000000e+00	8.048781e-01	2.580142e+14	3.149989e+14	3.066297e+13	7.182326e+03	2.663378e+03	1.953433e+03	0	6.959196e-04
2.000000e+08	1.319597e+13	0.000000e+00	8.048781e-01	2.526173e+14	3.086315e+14	3.049937e+13	7.149353e+03	2.657062e+03	1.948800e+03	0	6.908937e-04
2.100000e+08	1.291598e+13	0.000000e+00	8.048781e-01	2.474076e+14	3.025271e+14	3.033698e+13	7.117065e+03	2.650930e+03	1.944302e+03	0	6.859722e-04
2.200000e+08	1.264557e+13	0.000000e+00	8.048781e-01	2.423757e+14	2.966643e+14	3.017578e+13	7.085438e+03	2.644965e+03	1.939928e+03	0	6.811513e-04
2.300000e+08	1.238429e+13	0.000000e+00	8.048781e-01	2.375130e+14	2.910248e+14	3.001576e+13	7.054451e+03	2.639155e+03	1.935666e+03	0	6.764273e-04
2.400000e+08	1.213170e+13	0.000000e+00	8.048781e-01	2.328115e+14	2.855927e+14	2.985692e+13	7.024081e+03	2.633485e+03	1.931508e+03	0	6.717968e-04
2.500000e+08	1.188739e+13	0.000000e+00	8.048781e-01	2.282637e+14	2.803542e+14	2.969924e+13	6.994309e+03	2.627947e+03	1.927446e+03	0	6.672566e-04
2.600000e+08	1.165098e+13	0.000000e+00	8.048781e-01	2.238624e+14	2.752969e+14	2.954271e+13	6.965114e+03	2.622531e+03	1.923474e+03	0	6.628036e-04
2.700000e+08	1.142211e+13	0.000000e+00	8.048781e-01	2.196012e+14	2.704101e+14	2.938733e+13	6.936479e+03	2.617230e+03	1.919586e+03	0	6.584350e-04
2.800000e+08	1.120046e+13	0.000000e+00	8.048781e-01	2.154738e+14	2.656839e+14	2.923308e+13	6.908386e+03	2.612037e+03	1.915777e+03	0	6.541480e-04
2.900000e+08	1.098570e+13	0.000000e+00	8.048781e-01	2.114743e+14	2.611096e+14	2.907996e+13	6.880818e+03	2.606946e+03	1.912043e+03	0	6.499401e-04
3.000000e+08	1.077754e+13	0.000000e+00	8.048781e-01	2.075973e+14	2.566792e+14	2.892796e+13	6.853759e+03	2.601952e+03	1.908380e+03	0	6.458088e-04
3.100000e+08	1.057570e+13	0.000000e+00	8.048781e-01	2.038375e+14	2.523853e+14	2.877706e+13	6.827192e+03	2.597050e+03	1.904785e+03	0	6.417518e-04
3.200000e+08	1.037990e+13	0.000000e+00	8.048781e-01	2.001900e+14	2.482215e+14	2.862726e+13	6.801104e+03	2.592237e+03	1.901255e+03	0	6.377667e-04
3.300000e+08	1.018991e+13	0.000000e+00	8.048781e-01	1.966503e+14	2.441815e+14	2.847855e+13	6.775480e+03	2.587508e+03	1.897786e+03	0	6.338516e-04
3.400000e+08	1.000549e+13	0.000000e+00	8.048781e-01	1.932138e+14	2.402596e+14	2.833092e+13	6.750307e+03	2.582860e+03	1.894378e+03	0	6.300043e-04
3.500000e+08	9.826402e+12	0.000000e+00	8.048781e-01	1.898764e+14	2.364505e+14	2.818436e+13	6.725571e+03	2.578291e+03	1.891026e+03	0	6.262229e-04
3.600000e+08	9.652443e+12	0.000000e+00	8.048781e-01	1.866343e+14	2.327494e+14	2.803886e+13	6.701260e+03	2.573797e+03	1.887730e+03	0	6.225055e-04
3.700000e+08	9.483409e+12	0.000000e+00	8.048781e-01	1.834836e+14	2.291517e+14	2.789442e+13	6.677362e+03	2.569375e+03	1.884487e+03	0	6.188503e-04
3.800000e+08	9.319108e+12	0.000000e+00	8.048781e-01	1.804208e+14	2.256531e+14	2.775102e+13	6.653866e+03	2.565024e+03	1.881296e+03	0	6.152555e-04
3.900000e+08	9.159358e+12	0.000000e+00	8.048781e-01	1.774425e+14	2.222494e+14	2.760866e+13	6.630759e+03	2.560741e+03	1.878154e+03	0	6.117197e-04
4.000000e+08	9.003986e+12	0.000000e+00	8.048781e-01	1.745454e+14	2.189370e+14	2.746732e+13	6.608032e+03	2.556523e+03	1.875061e+03	0	6.082410e-04
4.100000e+08	8.852826e+12	0.000000e+00	8.048781e-01	1.717266e+14	2.157123e+14	2.732701e+13	6.585673e+03	2.552370e+03	1.872015e+03	0	6.048180e-04
4.200000e+08	8.705721e+12	0.000000e+00	8.048781e-01	1.689832e+14	2.125718e+14	2.718771e+13	6.563674e+03	2.548278e+03	1.869014e+03	0	6.014493e-04
4.300000e+08	8.562522e+12	0.000000e+00	8.048781e-01	1.663123e+14	2.095124e+14	2.704941e+13	6.542025e+03	2.544247e+03	1.866057e+03	0	5.981333e-04
4.400000e+08	8.423087e+12	0.000000e+00	8.048781e-01	1.637112e+14	2.065311e+14	2.691210e+13	6.520716e+03	2.540274e+03	1.863143e+03	0	5.948688e-04
4.500000e+08	8.287279e+12	0.000000e+00	8.048781e-01	1.611776e+14	2.036248e+14	2.677579e+13	6.499739e+03	2.536357e+03	1.860271e+03	0	5.916544e-04
4.600000e+08	8.154968e+12	0.000000e+00	8.048781e-01	1.587090e+14	2.007911e+14	2.664045e+13	6.479085e+03	2.532497e+03	1.857439e+03	0	5.884888e-04
4.700000e+08	8.026032e+12	0.000000e+00	8.048781e-01	1.563030e+14	1.980271e+14	2.650608e+13	6.458745e+03	2.528690e+03	1.854647e+03	0	5.853708e-04
4.800000e+08	7.900350e+12	0.000000e+00	8.048781e-01	1.539575e+14	1.953305e+14	2.637267e+13	6.438713e+03	2.524935e+03	1.851893e+03	0	5.822992e-04
4.900000e+08	7.777812e+12	0.000000e+00	8.048781e-01	1.516704e+14	1.926990e+14	2.624022e+13	6.418979e+03	2.521232e+03	1.849177e+03	0	5.792729e-04
5.000000e+08	7.658307e+12	0.000000e+00	8.048781e-01	1.494397e+14	1.901301e+14	2.610872e+13	6.399537e+03	2.517579e+03	1.846498e+03	0	5.762908e-04
5.100000e+08	7.541734e+12	0.000000e+00	8.048781e-01	1.472635e+14	1.876219e+14	2.597815e+13	6.380380e+03	2.513975e+03	1.843854e+03	0	5.733518e-04
5.200000e+08	7.427992e+12	0.000000e+00	8.048781e-01	1.451399e+14	1.851723e+14	2.584852e+13	6.361501e+03	2.510417e+03	1.841245e+03	0	5.704548e-04
5.300000e+08	7.316989e+12	0.000000e+00	8.048781e-01	1.430671e+14	1.827793e+14	2.571981e+13	6.342892e+03	2.506907e+03	1.838670e+03	0	5.675989e-04
5.400000e+08	7.208632e+12	0.000000e+00	8.048781e-01	1.410436e+14	1.804411e+14	2.559202e+13	6.324548e+03	2.503441e+03	1.836128e+03	0	5.647831e-04
5.500000e+08	7.102835e+12	0.000000e+00	8.048781e-01	1.390677e+14	1.781558e+14	2.546514e+13	6.306463e+03	2.500020e+03	1.833619e+03	0	5.620065e-04
5.600000e+08	6.999514e+12	0.000000e+00	8.048781e-01	1.371378e+14	1.759218e+14	2.533916e+13	6.288629e+03	2.496642e+03	1.831142e+03	0	5.592681e-04
5.700000e+08	6.898591e+12	0.000000e+00	8.048781e-01	1.352524e+14	1.737374e+14	2.521407e+13	6.271042e+03	2.493307e+03	1.828695e+03	0	5.565671e-04
5.800000e+08	6.799988e+12	0.000000e+00	8.048781e-01	1.334102e+14	1.716010e+14	2.508988e+13	6.253696e+03	2.490012e+03	1.826279e+03	0	5.539027e-04
5.900000e+08	6.703632e+12	0.000000e+00	8.048781e-01	1.316098e+14	1.695112e+14	2.496656e+13	6.236584e+03	2.486758e+03	1.823892e+03	0	5.512739e-04
6.000000e+08	6.609452e+12	0.000000e+00	8.048781e-01	1.298499e+14	1.674664e+14	2.484411e+13	6.219703e+03	2.483544e+03	1.821535e+03	0	5.486801e-04
6.100000e+08	6.517381e+12	0.000000e+00	8.048781e-01	1.281291e+14	1.654654e+14	2.472254e+13	6.203047e+03	2.480368e+03	1.819205e+03	0	5.461205e-04
6.200000e+08	6.427353e+12	0.000000e+00	8.048781e-01	1.264464e+14	1.635067e+14	2.460182e+13	6.186610e+03	2.477230e+03	1.816904e+03	0	5.435942e-04
6.300000e+08	6.339307e+12	0.000000e+00	8.048781e-01	1.248005e+14	1.615891e+14	2.448195e+13	6.170388e+03	2.474129e+03	1.814629e+03	0	5.411006e-04
6.400000e+08	6.253182e+12	0.000000e+00	8.048781e-01	1.231903e+14	1.597114e+14	2.436293e+13	6.154377e+03	2.471064e+03	1.812381e+03	0	5.386390e-04
6.500000e+08	6.168920e+12	0.000000e+00	8.048781e-01	1.216148e+14	1.578724e+14	2.424474e+13	6.138571e+03	2.468034e+03	1.810159e+03	0	5.362086e-04
6.600000e+08	6.086465e+12	0.000000e+00	8.048781e-01	1.200730e+14	1.560710e+14	2.412739e+13	6.122966e+03	2.465040e+03	1.807963e+03	0	5.338089e-04
6.700000e+08	6.005765e+12	0.000000e+00	8.048781e-01	1.185637e+14	1.543059e+14	2.401087e+13	6.107559e+03	2.462079e+03	1.805792e+03	0	5.314391e-04
6.800000e+08	5.926768e+12	0.000000e+00	8.048781e-01	1.170861e+14	1.525763e+14	2.389516e+13	6.092344e+03	2.459152e+03	1.803645e+03	0	5.290987e-04
6.900000e+08	5.849423e+12	0.000000e+00	8.048781e-01	1.156393e+14	1.508811e+14	2.378026e+13	6.077318e+03	2.456257e+03	1.801522e+03	0	5.267871e-04
7.000000e+08	5.773685e+12	0.000000e+00	8.048781e-01	1.142224e+14	1.492193e+14	2.366617e+13	6.062478e+03	2.453395e+03	1.799422e+03	0	5.245036e-04
7.100000e+08	5.699505e+12	0.000000e+00	8.048781e-01	1.128345e+14	1.475900e+14	2.355288e+13	6.047818e+03	2.450563e+03	1.797346e+03	0	5.222476e-04
7.200000e+08	5.626841e+12	0.000000e+00	8.048781e-01	1.114748e+14	1.459922e+14	2.344038e+13	6.033335e+03	2.447763e+03	1.795292e+03	0	5.200187e-04
7.300000e+08	5.555649e+12	0.000000e+00	8.048781e-01	1.101424e+14	1.444251e+14	2.332866e+13	6.019027e+03	2.444993e+03	1.793260e+03	0	5.178163e-04
7.400000e+08	5.485889e+12	0.000000e+00	8.048781e-01	1.088368e+14	1.428879e+14	2.321773e+13	6.004889e+03	2.442252e+03	1.791250e+03	0	5.156398e-04
7.500000e+08	5.417520e+12	0.000000e+00	8.048781e-01	1.075570e+14	1.413797e+14	2.310757e+13	5.990918e+03	2.439541e+03	1.789261e+03	0	5.134887e-04
7.600000e+08	5.350504e+12	0.000000e+00	8.048781e-01	1.063024e+14	1.398998e+14	2.299818e+13	5.977110e+03	2.436858e+03	1.787293e+03	0	5.113626e-04
7.700000e+08	5.284805e+12	0.000000e+00	8.048781e-01	1.050723e+14	1.384474e+14	2.288954e+13	5.963463e+03	2.434202e+03	1.785346e+03	0	5.092610e-04
7.800000e+08	5.220386e+12	0.000000e+00	8.048781e-01	1.038660e+14	1.370218e+14	2.278167e+13	5.949973e+03	2.431575e+03	1.783418e+03	0	5.071833e-04
7.900000e+08	5.157213e+12	0.000000e+00	8.048781e-01	1.026830e+14	1.356222e+14	2.267454e+13	5.936638e+03	2.428974e+03	1.781511e+03	0	5.051292e-04
8.000000e+08	5.095253e+12	0.000000e+00	8.048781e-01	1.015225e+14	1.342480e+14	2.256815e+13	5.923454e+03	2.426399e+03	1.779623e+03	0	5.030981e-04
8.100000e+08	5.034474e+12	0.000000e+00	8.048781e-01	1.003840e+14	1.328985e+14	2.246251e+13	5.910418e+03	2.423851e+03	1.777754e+03	0	5.010897e-04
8.200000e+08	4.974844e+12	0.000000e+00	8.048781e-01	9.926694e+13	1.315731e+14	2.235759e+13	5.897528e+03	2.421328e+03	1.775903e+03	0	4.991034e-04
8.300000e+08	4.916333e+12	0.000000e+00	8.048781e-01	9.817069e+13	1.302712e+14	2.225340e+13	5.884781e+03	2.418830e+03	1.774071e+03	0	4.971390e-04
8.400000e+08	4.858913e+12	0.000000e+00	8.048781e-01	9.709476e+13	1.289922e+14	2.214993e+13	5.872174e+03	2.416357e+03	1.772257e+03	0	4.951960e-04
8.500000e+08	4.802555e+12	0.000000e+00	8.048781e-01	9.603861e+13	1.277355e+14	2.204717e+13	5.859705e+03	2.413908e+03	1.770461e+03	0	4.932740e-04
8.600000e+08	4.747232e+12	0.000000e+00	8.048781e-01	9.500174e+13	1.265005e+14	2.194512e+13	5.847370e+03	2.411482e+03	1.768682e+03	0	4.913726e-04
8.700000e+08	4.692918e+12	0.000000e+00	8.048781e-01	9.398366e+13	1.252867e+14	2.184377e+13	5.835169e+03	2.409080e+03	1.766920e+03	0	4.894914e-04
8.800000e+08	4.639587e+12	0.000000e+00	8.048781e-01	9.298390e+13	1.240937e+14	2.174312e+13	5.823098e+03	2.406701e+03	1.765175e+03	0	4.876301e-04
8.900000e+08	4.587215e+12	0.000000e+00	8.048781e-01	9.200200e+13	1.229208e+14	2.164316e+13	5.811155e+03	2.404344e+03	1.763446e+03	0	4.857884e-04
9.000000e+08	4.535778e+12	0.000000e+00	8.048781e-01	9.103752e+13	1.217676e+14	2.154389e+13	5.799337e+03	2.402009e+03	1.761734e+03	0	4.839658e-04
9.100000e+08	4.485253e+12	0.000000e+00	8.048781e-01	9.009003e+13	1.206336e+14	2.144530e+13	5.787643e+03	2.399697e+03	1.760038e+03	0	4.821621e-04
9.200000e+08	4.435618e+12	0.000000e+00	8.048781e-01	8.915911e+13	1.195184e+14	2.134738e+13	5.776071e+03	2.397405e+03	1.758357e+03	0	4.803769e-04
9.300000e+08	4.386850e+12	0.000000e+00	8.048781e-01	8.824436e+13	1.184214e+14	2.125014e+13	5.764617e+03	2.395135e+03	1.756692e+03	0	4.786099e-04
9.400000e+08	4.338929e+12	0.000000e+00	8.048781e-01	8.734540e+13	1.173424e+14	2.115356e+13	5.753281e+03	2.392885e+03	1.755042e+03	0	4.768608e-04
9.500000e+08	4.291834e+12	0.000000e+00	8.048781e-01	8.646183e+13	1.162809e+14	2.105763e+13	5.742060e+03	2.390656e+03	1.753407e+03	0	4.751292e-04
9.600000e+08	4.245546e+12	0.000000e+00	8.048781e-01	8.559330e+13	1.152364e+14	2.096236e+13	5.730951e+03	2.388446e+03	1.751786e+03	0	4.734149e-04
9.700000e+08	4.200045e+12	0.000000e+00	8.048781e-01	8.473945e+13	1.142085e+14	2.086774e+13	5.719954e+03	2.386257e+03	1.750180e+03	0	4.717176e-04
9.800000e+08	4.155314e+12	0.000000e+00	8.048781e-01	8.389994e+13	1.131970e+14	2.077377e+13	5.709067e+03	2.384086e+03	1.748588e+03	0	4.700370e-04
9.900000e+08	4.111334e+12	0.000000e+00	8.048781e-01	8.307442e+13	1.122014e+14	2.068043e+13	5.698287e+03	2.381935e+03	1.747011e+03	0	4.683728e-04
1.000000e+09	4.068087e+12	0.000000e+00	8.048781e-01	8.226258e+13	1.112213e+14	2.058773e+13	5.687612e+03	2.379803e+03	1.745447e+03	0	4.667247e-04
1.010000e+09	4.025556e+12	0.000000e+00	8.048781e-01	8.146410e+13	1.102564e+14	2.049565e+13	5.677042e+03	2.377689e+03	1.743896e+03	0	4.650926e-04
1.020000e+09	3.983726e+12	0.000000e+00	8.048781e-01	8.067868e+13	1.093064e+14	2.040420e+13	5.666574e+03	2.375593e+03	1.742359e+03	0	4.634760e-04
1.030000e+09	3.942580e+12	0.000000e+00	8.048781e-01	7.990601e+13	1.083710e+14	2.031337e+13	5.656206e+03	2.373515e+03	1.740835e+03	0	4.618748e-04
1.040000e+09	3.902103e+12	0.000000e+00	8.048781e-01	7.914581e+13	1.074498e+14	2.022315e+13	5.645938e+03	2.371455e+03	1.739324e+03	0	4.602887e-04
1.050000e+09	3.862279e+12	0.000000e+00	8.048781e-01	7.839780e+13	1.065424e+14	2.013354e+13	5.635767e+03	2.369412e+03	1.737825e+03	0	4.587175e-04
1.060000e+09	3.823095e+12	0.000000e+00	8.048781e-01	7.766171e+13	1.056487e+14	2.004454e+13	5.625691e+03	2.367386e+03	1.736340e+03	0	4.571609e-04
1.070000e+09	3.784535e+12	0.000000e+00	8.048781e-01	7.693727e+13	1.047683e+14	1.995613e+13	5.615710e+03	2.365377e+03	1.734866e+03	0	4.556187e-04
1.080000e+09	3.746586e+12	0.000000e+00	8.048781e-01	7.622423e+13	1.039010e+14	1.986832e+13	5.605822e+03	2.363384e+03	1.733405e+03	0	4.540907e-04
1.090000e+09	3.709235e+12	0.000000e+00	8.048781e-01	7.552233e+13	1.030463e+14	1.978110e+13	5.596025e+03	2.361408e+03	1.731955e+03	0	4.525767e-04
1.100000e+09	3.672468e+12	0.000000e+00	8.048781e-01	7.483134e+13	1.022042e+14	1.969446e+13	5.586318e+03	2.359448e+03	1.730518e+03	0	4.510764e-04
1.110000e+09	3.636273e+12	0.000000e+00	8.048781e-01	7.415102e+13	1.013743e+14	1.960841e+13	5.576700e+03	2.357504e+03	1.729092e+03	0	4.495896e-04
1.120000e+09	3.600637e+12	0.000000e+00	8.048781e-01	7.348114e+13	1.005564e+14	1.952293e+13	5.567169e+03	2.355575e+03	1.727677e+03	0	4.481161e-04
1.130000e+09	3.565549e+12	0.000000e+00	8.048781e-01	7.282147e+13	9.975015e+13	1.943803e+13	5.557723e+03	2.353662e+03	1.726274e+03	0	4.466557e-04
1.140000e+09	3.530997e+12	0.000000e+00	8.048781e-01	7.217180e+13	9.895540e+13	1.935369e+13	5.548362e+03	2.351764e+03	1.724882e+03	0	4.452082e-04
1.150000e+09	3.496969e+12	0.000000e+00	8.048781e-01	7.153191e+13	9.817191e+13	1.926992e+13	5.539085e+03	2.349881e+03	1.723501e+03	0	4.437735e-04
1.160000e+09	3.463455e+12	0.000000e+00	8.048781e-01	7.090161e+13	9.739942e+13	1.918670e+13	5.529889e+03	2.348013e+03	1.722131e+03	0	4.423513e-04
1.170000e+09	3.430443e+12	0.000000e+00	8.048781e-01	7.028070e+13	9.663773e+13	1.910404e+13	5.520775e+03	2.346159e+03	1.720771e+03	0	4.409414e-04
1.180000e+09	3.397924e+12	0.000000e+00	8.048781e-01	6.966896e+13	9.588662e+13	1.902193e+13	5.511740e+03	2.344319e+03	1.719422e+03	0	4.395436e-04
1.190000e+09	3.365887e+12	0.000000e+00	8.048781e-01	6.906623e+13	9.514586e+13	1.894037e+13	5.502783e+03	2.342494e+03	1.718083e+03	0	4.381578e-04
1.200000e+09	3.334321e+12	0.000000e+00	8.048781e-01	6.847231e+13	9.441527e+13	1.885934e+13	5.493903e+03	2.340683e+03	1.716754e+03	0	4.367838e-04
1.210000e+09	3.303219e+12	0.000000e+00	8.048781e-01	6.788703e+13	9.369464e+13	1.877886e+13	5.485100e+03	2.338885e+03	1.715436e+03	0	4.354215e-04
1.220000e+09	3.272569e+12	0.000000e+00	8.048781e-01	6.731020e+13	9.298377e+13	1.869890e+13	5.476372e+03	2.337101e+03	1.714127e+03	0	4.340706e-04
1.230000e+09	3.242363e+12	0.000000e+00	8.048781e-01	6.674166e+13	9.228247e+13	1.861948e+13	5.467717e+03	2.335330e+03	1.712828e+03	0	4.327310e-04
1.240000e+09	3.212592e+12	0.000000e+00	8.048781e-01	6.618125e+13	9.159056e+13	1.854058e+13	5.459136e+03	2.333572e+03	1.711539e+03	0	4.314025e-04
1.250000e+09	3.183248e+12	0.000000e+00	8.048781e-01	6.562879e+13	9.090786e+13	1.846220e+13	5.450626e+03	2.331827e+03	1.710260e+03	0	4.300849e-04
1.260000e+09	3.154321e+12	0.000000e+00	8.048781e-01	6.508414e+13	9.023419e+13	1.838434e+13	5.442188e+03	2.330096e+03	1.708989e+03	0	4.287782e-04
1.270000e+09	3.125804e+12	0.000000e+00	8.048781e-01	6.454714e+13	8.956938e+13	1.830699e+13	5.433819e+03	2.328376e+03	1.707729e+03	0	4.274822e-04
1.280000e+09	3.097689e+12	0.000000e+00	8.048781e-01	6.401763e+13	8.891326e+13	1.823015e+13	5.425519e+03	2.326670e+03	1.706477e+03	0	4.261966e-04
1.290000e+09	3.069967e+12	0.000000e+00	8.048781e-01	6.349548e+13	8.826567e+13	1.815382e+13	5.417287e+03	2.324975e+03	1.705234e+03	0	4.249214e-04
1.300000e+09	3.042631e+12	0.000000e+00	8.048781e-01	6.298054e+13	8.762645e+13	1.807798e+13	5.409121e+03	2.323293e+03	1.704000e+03	0	4.236565e-04
1.310000e+09	3.015674e+12	0.000000e+00	8.048781e-01	6.247267e+13	8.699545e+13	1.800264e+13	5.401022e+03	2.321623e+03	1.702775e+03	0	4.224016e-04
1.320000e+09	2.989087e+12	0.000000e+00	8.048781e-01	6.197174e+13	8.637250e+13	1.792780e+13	5.392988e+03	2.319964e+03	1.701559e+03	0	4.211566e-04
1.330000e+09	2.962866e+12	0.000000e+00	8.048781e-01	6.147761e+13	8.575747e+13	1.785345e+13	5.385018e+03	2.318318e+03	1.700351e+03	0	4.199215e-04
1.340000e+09	2.937001e+12	0.000000e+00	8.048781e-01	6.099015e+13	8.515021e+13	1.777958e+13	5.377112e+03	2.316682e+03	1.699152e+03	0	4.186960e-04
1.350000e+09	2.911487e+12	0.000000e+00	8.048781e-01	6.050925e+13	8.455058e+13	1.770619e+13	5.369268e+03	2.315059e+03	1.697961e+03	0	4.174800e-04
1.360000e+09	2.886316e+12	0.000000e+00	8.048781e-01	6.003477e+13	8.395844e+13	1.763329e+13	5.361486e+03	2.313446e+03	1.696778e+03	0	4.162735e-04
