#t		Qconv[W]	Ri[Rp]		R*[Rp]		Qc[W]		Qm[W]		Qr[W]		Tcmb[K]		Tl[K]		Tup[K]		RiFlag		Bs[T]
0.000000e+00	4.221538e+13	0.000000e+00	8.048780e-01	6.343568e+14	8.715448e+14	5.042330e+13	9.250224e+03	3.206025e+03	2.289509e+03	0	9.952182e-04
1.000000e+07	4.108672e+13	0.000000e+00	8.048780e-01	6.179747e+14	8.215103e+14	5.014392e+13	9.199803e+03	3.176668e+03	2.268544e+03	0	9.862687e-04
2.000000e+07	4.002538e+13	0.000000e+00	8.048780e-01	6.025645e+14	7.809531e+14	4.986662e+13	9.150674e+03	3.152434e+03	2.251238e+03	0	9.777022e-04
3.000000e+07	3.902218e+13	0.000000e+00	8.048780e-01	5.879943e+14	7.472612e+14	4.959140e+13	9.102762e+03	3.132043e+03	2.236677e+03	0	9.694646e-04
4.000000e+07	3.806999e+13	0.000000e+00	8.048780e-01	5.741611e+14	7.186630e+14	4.931824e+13	9.056000e+03	3.114578e+03	2.224204e+03	0	9.615141e-04
5.000000e+07	3.716310e+13	0.000000e+00	8.048780e-01	5.609828e+14	6.939242e+14	4.904711e+13	9.010331e+03	3.099372e+03	2.213345e+03	0	9.538178e-04
6.000000e+07	3.629695e+13	0.000000e+00	8.048780e-01	5.483934e+14	6.721651e+14	4.877800e+13	8.965703e+03	3.085930e+03	2.203746e+03	0	9.463493e-04
7.000000e+07	3.546777e+13	0.000000e+00	8.048780e-01	5.363387e+14	6.527464e+14	4.851090e+13	8.922070e+03	3.073884e+03	2.195144e+03	0	9.390875e-04
8.000000e+07	3.467244e+13	0.000000e+00	8.048780e-01	5.247737e+14	6.351959e+14	4.824578e+13	8.879390e+03	3.062952e+03	2.187337e+03	0	9.320150e-04
9.000000e+07	3.390832e+13	0.000000e+00	8.048780e-01	5.136604e+14	6.191593e+14	4.798264e+13	8.837623e+03	3.052919e+03	2.180172e+03	0	9.251174e-04
1.000000e+08	3.317317e+13	0.000000e+00	8.048780e-01	5.029662e+14	6.043676e+14	4.772144e+13	8.796736e+03	3.043619e+03	2.173530e+03	0	9.183828e-04
1.100000e+08	3.246503e+13	0.000000e+00	8.048780e-01	4.926630e+14	5.906140e+14	4.746219e+13	8.756694e+03	3.034922e+03	2.167320e+03	0	9.118009e-04
1.200000e+08	3.178219e+13	0.000000e+00	8.048780e-01	4.827262e+14	5.777376e+14	4.720486e+13	8.717468e+03	3.026728e+03	2.161469e+03	0	9.053629e-04
1.300000e+08	3.112315e+13	0.000000e+00	8.048780e-01	4.731340e+14	5.656118e+14	4.694943e+13	8.679028e+03	3.018957e+03	2.155919e+03	0	8.990612e-04
1.400000e+08	3.048655e+13	0.000000e+00	8.048780e-01	4.638669e+14	5.541362e+14	4.669590e+13	8.641346e+03	3.011544e+03	2.150625e+03	0	8.928891e-04
1.500000e+08	2.987119e+13	0.000000e+00	8.048780e-01	4.549073e+14	5.432304e+14	4.644424e+13	8.604399e+03	3.004438e+03	2.145550e+03	0	8.868407e-04
1.600000e+08	2.927596e+13	0.000000e+00	8.048780e-01	4.462394e+14	5.328289e+14	4.619443e+13	8.568161e+03	2.997599e+03	2.140666e+03	0	8.809106e-04
1.700000e+08	2.869986e+13	0.000000e+00	8.048780e-01	4.378486e+14	5.228783e+14	4.594647e+13	8.532609e+03	2.990992e+03	2.135948e+03	0	8.750940e-04
1.800000e+08	2.814196e+13	0.000000e+00	8.048780e-01	4.297216e+14	5.133346e+14	4.570034e+13	8.497722e+03	2.984592e+03	2.131378e+03	0	8.693864e-04
1.900000e+08	2.760140e+13	0.000000e+00	8.048780e-01	4.218460e+14	5.041609e+14	4.545602e+13	8.463478e+03	2.978375e+03	2.126938e+03	0	8.637840e-04
2.000000e+08	2.707741e+13	0.000000e+00	8.048780e-01	4.142104e+14	4.953262e+14	4.521350e+13	8.429859e+03	2.972324e+03	2.122617e+03	0	8.582829e-04
2.100000e+08	2.656924e+13	0.000000e+00	8.048780e-01	4.068042e+14	4.868042e+14	4.497276e+13	8.396844e+03	2.966422e+03	2.118402e+03	0	8.528798e-04
2.200000e+08	2.607620e+13	0.000000e+00	8.048780e-01	3.996174e+14	4.785721e+14	4.473380e+13	8.364417e+03	2.960657e+03	2.114285e+03	0	8.475713e-04
2.300000e+08	2.559766e+13	0.000000e+00	8.048780e-01	3.926407e+14	4.706103e+14	4.449658e+13	8.332559e+03	2.955019e+03	2.110259e+03	0	8.423544e-04
2.400000e+08	2.513300e+13	0.000000e+00	8.048780e-01	3.858654e+14	4.629019e+14	4.426110e+13	8.301255e+03	2.949498e+03	2.106316e+03	0	8.372264e-04
2.500000e+08	2.468167e+13	0.000000e+00	8.048780e-01	3.792832e+14	4.554315e+14	4.402735e+13	8.270487e+03	2.944085e+03	2.102451e+03	0	8.321844e-04
2.600000e+08	2.424311e+13	0.000000e+00	8.048780e-01	3.728864e+14	4.481859e+14	4.379531e+13	8.240242e+03	2.938776e+03	2.098659e+03	0	8.272261e-04
2.700000e+08	2.381683e+13	0.000000e+00	8.048780e-01	3.666677e+14	4.411530e+14	4.356497e+13	8.210504e+03	2.933563e+03	2.094937e+03	0	8.223488e-04
2.800000e+08	2.340235e+13	0.000000e+00	8.048780e-01	3.606201e+14	4.343219e+14	4.333630e+13	8.181260e+03	2.928442e+03	2.091279e+03	0	8.175504e-04
2.900000e+08	2.299920e+13	0.000000e+00	8.048780e-01	3.547370e+14	4.276829e+14	4.310931e+13	8.152495e+03	2.923407e+03	2.087684e+03	0	8.128287e-04
3.000000e+08	2.260697e+13	0.000000e+00	8.048780e-01	3.490122e+14	4.212271e+14	4.288397e+13	8.124197e+03	2.918456e+03	2.084148e+03	0	8.081815e-04
3.100000e+08	2.222524e+13	0.000000e+00	8.048780e-01	3.434399e+14	4.149461e+14	4.266027e+13	8.096353e+03	2.913584e+03	2.080669e+03	0	8.036068e-04
3.200000e+08	2.185363e+13	0.000000e+00	8.048780e-01	3.380143e+14	4.088324e+14	4.243821e+13	8.068952e+03	2.908788e+03	2.077244e+03	0	7.991027e-04
3.300000e+08	2.149175e+13	0.000000e+00	8.048780e-01	3.327301e+14	4.028790e+14	4.221775e+13	8.041982e+03	2.904066e+03	2.073872e+03	0	7.946674e-04
3.400000e+08	2.113927e+13	0.000000e+00	8.048780e-01	3.275822e+14	3.970793e+14	4.199890e+13	8.015431e+03	2.899414e+03	2.070550e+03	0	7.902990e-04
3.500000e+08	2.079584e+13	0.000000e+00	8.048780e-01	3.225657e+14	3.914272e+14	4.178163e+13	7.989288e+03	2.894830e+03	2.067277e+03	0	7.859959e-04
3.600000e+08	2.046115e+13	0.000000e+00	8.048780e-01	3.176761e+14	3.859171e+14	4.156594e+13	7.963545e+03	2.890313e+03	2.064050e+03	0	7.817564e-04
3.700000e+08	2.013489e+13	0.000000e+00	8.048780e-01	3.129088e+14	3.805435e+14	4.135181e+13	7.938189e+03	2.885859e+03	2.060870e+03	0	7.775789e-04
3.800000e+08	1.981676e+13	0.000000e+00	8.048780e-01	3.082597e+14	3.753013e+14	4.113923e+13	7.913212e+03	2.881467e+03	2.057734e+03	0	7.734620e-04
3.900000e+08	1.950649e+13	0.000000e+00	8.048780e-01	3.037246e+14	3.701859e+14	4.092819e+13	7.888605e+03	2.877136e+03	2.054641e+03	0	7.694040e-04
4.000000e+08	1.920381e+13	0.000000e+00	8.048780e-01	2.992999e+14	3.651927e+14	4.071867e+13	7.864358e+03	2.872863e+03	2.051589e+03	0	7.654037e-04
4.100000e+08	1.890847e+13	0.000000e+00	8.048780e-01	2.949816e+14	3.603175e+14	4.051066e+13	7.840462e+03	2.868647e+03	2.048579e+03	0	7.614596e-04
4.200000e+08	1.862021e+13	0.000000e+00	8.048780e-01	2.907664e+14	3.555560e+14	4.030415e+13	7.816910e+03	2.864487e+03	2.045607e+03	0	7.575704e-04
4.300000e+08	1.833882e+13	0.000000e+00	8.048780e-01	2.866508e+14	3.509046e+14	4.009913e+13	7.793692e+03	2.860380e+03	2.042675e+03	0	7.537348e-04
4.400000e+08	1.806406e+13	0.000000e+00	8.048780e-01	2.826316e+14	3.463594e+14	3.989559e+13	7.770802e+03	2.856326e+03	2.039780e+03	0	7.499516e-04
4.500000e+08	1.779572e+13	0.000000e+00	8.048780e-01	2.787056e+14	3.419171e+14	3.969350e+13	7.748231e+03	2.852324e+03	2.036922e+03	0	7.462195e-04
4.600000e+08	1.753359e+13	0.000000e+00	8.048780e-01	2.748700e+14	3.375742e+14	3.949287e+13	7.725973e+03	2.848372e+03	2.034099e+03	0	7.425375e-04
4.700000e+08	1.727748e+13	0.000000e+00	8.048780e-01	2.711217e+14	3.333276e+14	3.929368e+13	7.704019e+03	2.844468e+03	2.031312e+03	0	7.389044e-04
4.800000e+08	1.702719e+13	0.000000e+00	8.048780e-01	2.674581e+14	3.291742e+14	3.909591e+13	7.682363e+03	2.840613e+03	2.028558e+03	0	7.353190e-04
4.900000e+08	1.678255e+13	0.000000e+00	8.048780e-01	2.638766e+14	3.251110e+14	3.889956e+13	7.660999e+03	2.836804e+03	2.025838e+03	0	7.317804e-04
5.000000e+08	1.654338e+13	0.000000e+00	8.048780e-01	2.603746e+14	3.211354e+14	3.870461e+13	7.639920e+03	2.833041e+03	2.023151e+03	0	7.282875e-04
5.100000e+08	1.630951e+13	0.000000e+00	8.048780e-01	2.569496e+14	3.172444e+14	3.851106e+13	7.619119e+03	2.829322e+03	2.020495e+03	0	7.248393e-04
5.200000e+08	1.608077e+13	0.000000e+00	8.048780e-01	2.535994e+14	3.134357e+14	3.831889e+13	7.598591e+03	2.825647e+03	2.017871e+03	0	7.214348e-04
5.300000e+08	1.585703e+13	0.000000e+00	8.048780e-01	2.503216e+14	3.097068e+14	3.812809e+13	7.578329e+03	2.822015e+03	2.015277e+03	0	7.180732e-04
5.400000e+08	1.563812e+13	0.000000e+00	8.048780e-01	2.471142e+14	3.060552e+14	3.793864e+13	7.558328e+03	2.818425e+03	2.012714e+03	0	7.147534e-04
5.500000e+08	1.542390e+13	0.000000e+00	8.048780e-01	2.439750e+14	3.024786e+14	3.775055e+13	7.538582e+03	2.814876e+03	2.010179e+03	0	7.114747e-04
5.600000e+08	1.521423e+13	0.000000e+00	8.048780e-01	2.409020e+14	2.989749e+14	3.756379e+13	7.519086e+03	2.811367e+03	2.007673e+03	0	7.082362e-04
5.700000e+08	1.500899e+13	0.000000e+00	8.048780e-01	2.378934e+14	2.955421e+14	3.737836e+13	7.499835e+03	2.807898e+03	2.005196e+03	0	7.050370e-04
5.800000e+08	1.480804e+13	0.000000e+00	8.048780e-01	2.349472e+14	2.921779e+14	3.719424e+13	7.480823e+03	2.804467e+03	2.002745e+03	0	7.018764e-04
5.900000e+08	1.461126e+13	0.000000e+00	8.048780e-01	2.320616e+14	2.888805e+14	3.701143e+13	7.462046e+03	2.801073e+03	2.000322e+03	0	6.987534e-04
6.000000e+08	1.441853e+13	0.000000e+00	8.048780e-01	2.292350e+14	2.856481e+14	3.682992e+13	7.443498e+03	2.797717e+03	1.997925e+03	0	6.956675e-04
6.100000e+08	1.422973e+13	0.000000e+00	8.048780e-01	2.264657e+14	2.824787e+14	3.664968e+13	7.425175e+03	2.794397e+03	1.995555e+03	0	6.926178e-04
6.200000e+08	1.404476e+13	0.000000e+00	8.048780e-01	2.237520e+14	2.793707e+14	3.647072e+13	7.407073e+03	2.791113e+03	1.993209e+03	0	6.896036e-04
6.300000e+08	1.386351e+13	0.000000e+00	8.048780e-01	2.210925e+14	2.763223e+14	3.629303e+13	7.389187e+03	2.787864e+03	1.990889e+03	0	6.866243e-04
6.400000e+08	1.368588e+13	0.000000e+00	8.048780e-01	2.184856e+14	2.733319e+14	3.611659e+13	7.371512e+03	2.784649e+03	1.988593e+03	0	6.836791e-04
6.500000e+08	1.351176e+13	0.000000e+00	8.048780e-01	2.159299e+14	2.703981e+14	3.594139e+13	7.354046e+03	2.781467e+03	1.986321e+03	0	6.807673e-04
6.600000e+08	1.334106e+13	0.000000e+00	8.048780e-01	2.134240e+14	2.675191e+14	3.576742e+13	7.336782e+03	2.778319e+03	1.984072e+03	0	6.778884e-04
6.700000e+08	1.317369e+13	0.000000e+00	8.048780e-01	2.109666e+14	2.646937e+14	3.559468e+13	7.319719e+03	2.775203e+03	1.981847e+03	0	6.750417e-04
6.800000e+08	1.300956e+13	0.000000e+00	8.048780e-01	2.085563e+14	2.619204e+14	3.542315e+13	7.302851e+03	2.772118e+03	1.979645e+03	0	6.722266e-04
6.900000e+08	1.284859e+13	0.000000e+00	8.048780e-01	2.061919e+14	2.591978e+14	3.525282e+13	7.286175e+03	2.769065e+03	1.977464e+03	0	6.694424e-04
7.000000e+08	1.269068e+13	0.000000e+00	8.048780e-01	2.038723e+14	2.565245e+14	3.508369e+13	7.269688e+03	2.766043e+03	1.975306e+03	0	6.666887e-04
7.100000e+08	1.253577e+13	0.000000e+00	8.048780e-01	2.015962e+14	2.538995e+14	3.491574e+13	7.253385e+03	2.763050e+03	1.973169e+03	0	6.639648e-04
7.200000e+08	1.238376e+13	0.000000e+00	8.048780e-01	1.993625e+14	2.513213e+14	3.474896e+13	7.237264e+03	2.760088e+03	1.971053e+03	0	6.612702e-04
7.300000e+08	1.223459e+13	0.000000e+00	8.048780e-01	1.971701e+14	2.487888e+14	3.458335e+13	7.221320e+03	2.757154e+03	1.968958e+03	0	6.586043e-04
7.400000e+08	1.208818e+13	0.000000e+00	8.048780e-01	1.950180e+14	2.463009e+14	3.441890e+13	7.205551e+03	2.754249e+03	1.966884e+03	0	6.559667e-04
7.500000e+08	1.194447e+13	0.000000e+00	8.048780e-01	1.929051e+14	2.438564e+14	3.425559e+13	7.189954e+03	2.751372e+03	1.964829e+03	0	6.533568e-04
7.600000e+08	1.180338e+13	0.000000e+00	8.048780e-01	1.908304e+14	2.414544e+14	3.409342e+13	7.174526e+03	2.748522e+03	1.962794e+03	0	6.507741e-04
7.700000e+08	1.166485e+13	0.000000e+00	8.048780e-01	1.887930e+14	2.390936e+14	3.393238e+13	7.159262e+03	2.745700e+03	1.960778e+03	0	6.482181e-04
7.800000e+08	1.152881e+13	0.000000e+00	8.048780e-01	1.867920e+14	2.367732e+14	3.377246e+13	7.144161e+03	2.742904e+03	1.958782e+03	0	6.456884e-04
7.900000e+08	1.139521e+13	0.000000e+00	8.048780e-01	1.848265e+14	2.344921e+14	3.361365e+13	7.129220e+03	2.740134e+03	1.956804e+03	0	6.431845e-04
8.000000e+08	1.126398e+13	0.000000e+00	8.048780e-01	1.828955e+14	2.322494e+14	3.345594e+13	7.114435e+03	2.737390e+03	1.954844e+03	0	6.407059e-04
8.100000e+08	1.113506e+13	0.000000e+00	8.048780e-01	1.809983e+14	2.300441e+14	3.329932e+13	7.099804e+03	2.734672e+03	1.952903e+03	0	6.382522e-04
8.200000e+08	1.100841e+13	0.000000e+00	8.048780e-01	1.791340e+14	2.278755e+14	3.314379e+13	7.085324e+03	2.731978e+03	1.950979e+03	0	6.358230e-04
8.300000e+08	1.088395e+13	0.000000e+00	8.048780e-01	1.773018e+14	2.257426e+14	3.298933e+13	7.070993e+03	2.729309e+03	1.949073e+03	0	6.334178e-04
8.400000e+08	1.076165e+13	0.000000e+00	8.048780e-01	1.755010e+14	2.236445e+14	3.283594e+13	7.056808e+03	2.726664e+03	1.947184e+03	0	6.310363e-04
8.500000e+08	1.064144e+13	0.000000e+00	8.048780e-01	1.737309e+14	2.215806e+14	3.268361e+13	7.042767e+03	2.724042e+03	1.945312e+03	0	6.286780e-04
8.600000e+08	1.052329e+13	0.000000e+00	8.048780e-01	1.719906e+14	2.195499e+14	3.253233e+13	7.028867e+03	2.721444e+03	1.943457e+03	0	6.263426e-04
8.700000e+08	1.040714e+13	0.000000e+00	8.048780e-01	1.702795e+14	2.175518e+14	3.238209e+13	7.015105e+03	2.718869e+03	1.941618e+03	0	6.240297e-04
8.800000e+08	1.029294e+13	0.000000e+00	8.048780e-01	1.685970e+14	2.155854e+14	3.223288e+13	7.001480e+03	2.716316e+03	1.939795e+03	0	6.217388e-04
8.900000e+08	1.018066e+13	0.000000e+00	8.048780e-01	1.669423e+14	2.136501e+14	3.208470e+13	6.987990e+03	2.713786e+03	1.937988e+03	0	6.194696e-04
9.000000e+08	1.007024e+13	0.000000e+00	8.048780e-01	1.653149e+14	2.117452e+14	3.193753e+13	6.974631e+03	2.711278e+03	1.936197e+03	0	6.172219e-04
9.100000e+08	9.961637e+12	0.000000e+00	8.048780e-01	1.637140e+14	2.098699e+14	3.179138e+13	6.961402e+03	2.708791e+03	1.934421e+03	0	6.149951e-04
9.200000e+08	9.854821e+12	0.000000e+00	8.048780e-01	1.621391e+14	2.080237e+14	3.164622e+13	6.948301e+03	2.706325e+03	1.932660e+03	0	6.127891e-04
9.300000e+08	9.749745e+12	0.000000e+00	8.048780e-01	1.605897e+14	2.062059e+14	3.150206e+13	6.935325e+03	2.703880e+03	1.930914e+03	0	6.106033e-04
9.400000e+08	9.646371e+12	0.000000e+00	8.048780e-01	1.590651e+14	2.044158e+14	3.135888e+13	6.922473e+03	2.701456e+03	1.929183e+03	0	6.084377e-04
9.500000e+08	9.544661e+12	0.000000e+00	8.048780e-01	1.575648e+14	2.026529e+14	3.121668e+13	6.909743e+03	2.699052e+03	1.927466e+03	0	6.062917e-04
9.600000e+08	9.444578e+12	0.000000e+00	8.048780e-01	1.560882e+14	2.009166e+14	3.107545e+13	6.897132e+03	2.696668e+03	1.925764e+03	0	6.041651e-04
9.700000e+08	9.346086e+12	0.000000e+00	8.048780e-01	1.546349e+14	1.992063e+14	3.093518e+13	6.884639e+03	2.694304e+03	1.924075e+03	0	6.020576e-04
9.800000e+08	9.249150e+12	0.000000e+00	8.048780e-01	1.532042e+14	1.975215e+14	3.079587e+13	6.872262e+03	2.691959e+03	1.922401e+03	0	5.999689e-04
9.900000e+08	9.153737e+12	0.000000e+00	8.048780e-01	1.517959e+14	1.958615e+14	3.065750e+13	6.860000e+03	2.689633e+03	1.920740e+03	0	5.978986e-04
1.000000e+09	9.059812e+12	0.000000e+00	8.048780e-01	1.504092e+14	1.942260e+14	3.052008e+13	6.847849e+03	2.687326e+03	1.919092e+03	0	5.958466e-04
1.010000e+09	8.967344e+12	0.000000e+00	8.048780e-01	1.490439e+14	1.926143e+14	3.038358e+13	6.835810e+03	2.685038e+03	1.917458e+03	0	5.938126e-04
1.020000e+09	8.876303e+12	0.000000e+00	8.048780e-01	1.476994e+14	1.910260e+14	3.024801e+13	6.823879e+03	2.682768e+03	1.915837e+03	0	5.917961e-04
1.030000e+09	8.786657e+12	0.000000e+00	8.048780e-01	1.463752e+14	1.894606e+14	3.011336e+13	6.812056e+03	2.680515e+03	1.914228e+03	0	5.897971e-04
1.040000e+09	8.698377e+12	0.000000e+00	8.048780e-01	1.450710e+14	1.879177e+14	2.997961e+13	6.800338e+03	2.678281e+03	1.912633e+03	0	5.878152e-04
1.050000e+09	8.611434e+12	0.000000e+00	8.048780e-01	1.437864e+14	1.863967e+14	2.984677e+13	6.788724e+03	2.676064e+03	1.911050e+03	0	5.858502e-04
1.060000e+09	8.525800e+12	0.000000e+00	8.048780e-01	1.425209e+14	1.848972e+14	2.971483e+13	6.777213e+03	2.673864e+03	1.909479e+03	0	5.839018e-04
1.070000e+09	8.441448e+12	0.000000e+00	8.048780e-01	1.412741e+14	1.834189e+14	2.958377e+13	6.765803e+03	2.671682e+03	1.907920e+03	0	5.819698e-04
1.080000e+09	8.358352e+12	0.000000e+00	8.048780e-01	1.400457e+14	1.819612e+14	2.945360e+13	6.754493e+03	2.669516e+03	1.906373e+03	0	5.800539e-04
1.090000e+09	8.276486e+12	0.000000e+00	8.048780e-01	1.388353e+14	1.805237e+14	2.932430e+13	6.743280e+03	2.667366e+03	1.904838e+03	0	5.781538e-04
1.100000e+09	8.195824e+12	0.000000e+00	8.048780e-01	1.376424e+14	1.791061e+14	2.919587e+13	6.732164e+03	2.665233e+03	1.903315e+03	0	5.762695e-04
1.110000e+09	8.116342e+12	0.000000e+00	8.048780e-01	1.364669e+14	1.777080e+14	2.906830e+13	6.721144e+03	2.663116e+03	1.901803e+03	0	5.744006e-04
1.120000e+09	8.038016e+12	0.000000e+00	8.048780e-01	1.353082e+14	1.763290e+14	2.894159e+13	6.710217e+03	2.661015e+03	1.900303e+03	0	5.725469e-04
1.130000e+09	7.960824e+12	0.000000e+00	8.048780e-01	1.341661e+14	1.749686e+14	2.881572e+13	6.699383e+03	2.658930e+03	1.898814e+03	0	5.707082e-04
1.140000e+09	7.884741e+12	0.000000e+00	8.048780e-01	1.330402e+14	1.736267e+14	2.869069e+13	6.688640e+03	2.656860e+03	1.897335e+03	0	5.688843e-04
1.150000e+09	7.809747e+12	0.000000e+00	8.048780e-01	1.319303e+14	1.723027e+14	2.856650e+13	6.677987e+03	2.654805e+03	1.895868e+03	0	5.670749e-04
1.160000e+09	7.735820e+12	0.000000e+00	8.048780e-01	1.308359e+14	1.709964e+14	2.844314e+13	6.667422e+03	2.652765e+03	1.894411e+03	0	5.652799e-04
1.170000e+09	7.662938e+12	0.000000e+00	8.048780e-01	1.297569e+14	1.697074e+14	2.832060e+13	6.656945e+03	2.650740e+03	1.892965e+03	0	5.634991e-04
1.180000e+09	7.591082e+12	0.000000e+00	8.048780e-01	1.286928e+14	1.684353e+14	2.819888e+13	6.646554e+03	2.648730e+03	1.891530e+03	0	5.617322e-04
1.190000e+09	7.520231e+12	0.000000e+00	8.048780e-01	1.276435e+14	1.671800e+14	2.807796e+13	6.636248e+03	2.646734e+03	1.890105e+03	0	5.599791e-04
1.200000e+09	7.450367e+12	0.000000e+00	8.048780e-01	1.266086e+14	1.659410e+14	2.795785e+13	6.626026e+03	2.644753e+03	1.888690e+03	0	5.582396e-04
1.210000e+09	7.381469e+12	0.000000e+00	8.048780e-01	1.255878e+14	1.647181e+14	2.783853e+13	6.615887e+03	2.642786e+03	1.887285e+03	0	5.565135e-04
1.220000e+09	7.313519e+12	0.000000e+00	8.048780e-01	1.245809e+14	1.635109e+14	2.772001e+13	6.605829e+03	2.640832e+03	1.885890e+03	0	5.548006e-04
1.230000e+09	7.246500e+12	0.000000e+00	8.048780e-01	1.235877e+14	1.623192e+14	2.760226e+13	6.595851e+03	2.638892e+03	1.884504e+03	0	5.531007e-04
1.240000e+09	7.180394e+12	0.000000e+00	8.048780e-01	1.226078e+14	1.611427e+14	2.748530e+13	6.585953e+03	2.636966e+03	1.883129e+03	0	5.514137e-04
1.250000e+09	7.115183e+12	0.000000e+00	8.048780e-01	1.216410e+14	1.599811e+14	2.736911e+13	6.576133e+03	2.635053e+03	1.881763e+03	0	5.497393e-04
1.260000e+09	7.050851e+12	0.000000e+00	8.048780e-01	1.206871e+14	1.588342e+14	2.725369e+13	6.566390e+03	2.633154e+03	1.880406e+03	0	5.480775e-04
1.270000e+09	6.987382e+12	0.000000e+00	8.048780e-01	1.197458e+14	1.577016e+14	2.713902e+13	6.556724e+03	2.631267e+03	1.879059e+03	0	5.464280e-04
1.280000e+09	6.924759e+12	0.000000e+00	8.048780e-01	1.188169e+14	1.565831e+14	2.702511e+13	6.547133e+03	2.629393e+03	1.877721e+03	0	5.447907e-04
1.290000e+09	6.862967e+12	0.000000e+00	8.048780e-01	1.179002e+14	1.554785e+14	2.691195e+13	6.537616e+03	2.627533e+03	1.876392e+03	0	5.431654e-04
1.300000e+09	6.801990e+12	0.000000e+00	8.048780e-01	1.169954e+14	1.543876e+14	2.679953e+13	6.528172e+03	2.625684e+03	1.875072e+03	0	5.415519e-04
1.310000e+09	6.741815e+12	0.000000e+00	8.048780e-01	1.161024e+14	1.533100e+14	2.668785e+13	6.518800e+03	2.623848e+03	1.873761e+03	0	5.399502e-04
1.320000e+09	6.682425e+12	0.000000e+00	8.048780e-01	1.152208e+14	1.522456e+14	2.657690e+13	6.509500e+03	2.622025e+03	1.872459e+03	0	5.383600e-04
1.330000e+09	6.623807e+12	0.000000e+00	8.048780e-01	1.143506e+14	1.511941e+14	2.646667e+13	6.500270e+03	2.620213e+03	1.871165e+03	0	5.367812e-04
1.340000e+09	6.565948e+12	0.000000e+00	8.048780e-01	1.134915e+14	1.501553e+14	2.635717e+13	6.491110e+03	2.618413e+03	1.869880e+03	0	5.352137e-04
1.350000e+09	6.508833e+12	0.000000e+00	8.048780e-01	1.126433e+14	1.491290e+14	2.624837e+13	6.482019e+03	2.616626e+03	1.868603e+03	0	5.336573e-04
1.360000e+09	6.452449e+12	0.000000e+00	8.048780e-01	1.118058e+14	1.481149e+14	2.614029e+13	6.472995e+03	2.614850e+03	1.867335e+03	0	5.321119e-04
