#t		Qconv[W]	Ri[Rp]		R*[Rp]		Qc[W]		Qm[W]		Qr[W]		Tcmb[K]		Tl[K]		Tup[K]		RiFlag		Bs[T]
0.000000e+00	1.792123e+14	0.000000e+00	7.886178e-01	2.164978e+15	1.418690e+15	8.232683e+13	1.361759e+04	3.802545e+03	2.467543e+03	0	1.602907e-03
1.000000e+07	1.749306e+14	0.000000e+00	7.886178e-01	2.114774e+15	1.596315e+15	8.187067e+13	1.351031e+04	3.886755e+03	2.522189e+03	0	1.590038e-03
2.000000e+07	1.704411e+14	0.000000e+00	7.886178e-01	2.062186e+15	1.727343e+15	8.141794e+13	1.340549e+04	3.947247e+03	2.561443e+03	0	1.576318e-03
3.000000e+07	1.658650e+14	0.000000e+00	7.886178e-01	2.008616e+15	1.815950e+15	8.096858e+13	1.330325e+04	3.988948e+03	2.588504e+03	0	1.562082e-03
4.000000e+07	1.612896e+14	0.000000e+00	7.886178e-01	1.955073e+15	1.869353e+15	8.052258e+13	1.320364e+04	4.016261e+03	2.606227e+03	0	1.547585e-03
5.000000e+07	1.567749e+14	0.000000e+00	7.886178e-01	1.902249e+15	1.895303e+15	8.007990e+13	1.310666e+04	4.032819e+03	2.616972e+03	0	1.533008e-03
6.000000e+07	1.523600e+14	0.000000e+00	7.886178e-01	1.850596e+15	1.900772e+15	7.964053e+13	1.301228e+04	4.041475e+03	2.622590e+03	0	1.518481e-03
7.000000e+07	1.480693e+14	0.000000e+00	7.886178e-01	1.800395e+15	1.891476e+15	7.920442e+13	1.292045e+04	4.044397e+03	2.624486e+03	0	1.504090e-03
8.000000e+07	1.439167e+14	0.000000e+00	7.886178e-01	1.751806e+15	1.871842e+15	7.877157e+13	1.283108e+04	4.043197e+03	2.623707e+03	0	1.489896e-03
9.000000e+07	1.399090e+14	0.000000e+00	7.886178e-01	1.704909e+15	1.845186e+15	7.834192e+13	1.274410e+04	4.039058e+03	2.621021e+03	0	1.475936e-03
1.000000e+08	1.360485e+14	0.000000e+00	7.886178e-01	1.659726e+15	1.813929e+15	7.791547e+13	1.265943e+04	4.032842e+03	2.616987e+03	0	1.462234e-03
1.100000e+08	1.323341e+14	0.000000e+00	7.886178e-01	1.616248e+15	1.779815e+15	7.749219e+13	1.257699e+04	4.025173e+03	2.612011e+03	0	1.448804e-03
1.200000e+08	1.287628e+14	0.000000e+00	7.886178e-01	1.574436e+15	1.744080e+15	7.707204e+13	1.249669e+04	4.016505e+03	2.606386e+03	0	1.435652e-03
1.300000e+08	1.253303e+14	0.000000e+00	7.886178e-01	1.534243e+15	1.707596e+15	7.665500e+13	1.241846e+04	4.007163e+03	2.600324e+03	0	1.422779e-03
1.400000e+08	1.220316e+14	0.000000e+00	7.886178e-01	1.495610e+15	1.670969e+15	7.624105e+13	1.234220e+04	3.997384e+03	2.593978e+03	0	1.410186e-03
1.500000e+08	1.188614e+14	0.000000e+00	7.886178e-01	1.458473e+15	1.634616e+15	7.583016e+13	1.226785e+04	3.987338e+03	2.587459e+03	0	1.397867e-03
1.600000e+08	1.158140e+14	0.000000e+00	7.886178e-01	1.422768e+15	1.598818e+15	7.542230e+13	1.219533e+04	3.977150e+03	2.580848e+03	0	1.385817e-03
1.700000e+08	1.128839e+14	0.000000e+00	7.886178e-01	1.388430e+15	1.563764e+15	7.501745e+13	1.212457e+04	3.966908e+03	2.574202e+03	0	1.374030e-03
1.800000e+08	1.100658e+14	0.000000e+00	7.886178e-01	1.355397e+15	1.529571e+15	7.461559e+13	1.205551e+04	3.956676e+03	2.567562e+03	0	1.362499e-03
1.900000e+08	1.073542e+14	0.000000e+00	7.886178e-01	1.323606e+15	1.496310e+15	7.421669e+13	1.198808e+04	3.946501e+03	2.560959e+03	0	1.351217e-03
2.000000e+08	1.047441e+14	0.000000e+00	7.886178e-01	1.292999e+15	1.464020e+15	7.382072e+13	1.192222e+04	3.936415e+03	2.554414e+03	0	1.340177e-03
2.100000e+08	1.022306e+14	0.000000e+00	7.886178e-01	1.263518e+15	1.432714e+15	7.342766e+13	1.185787e+04	3.926441e+03	2.547942e+03	0	1.329370e-03
2.200000e+08	9.980919e+13	0.000000e+00	7.886178e-01	1.235110e+15	1.402389e+15	7.303750e+13	1.179498e+04	3.916595e+03	2.541552e+03	0	1.318790e-03
2.300000e+08	9.747536e+13	0.000000e+00	7.886178e-01	1.207724e+15	1.373034e+15	7.265019e+13	1.173349e+04	3.906887e+03	2.535253e+03	0	1.308430e-03
2.400000e+08	9.522499e+13	0.000000e+00	7.886178e-01	1.181311e+15	1.344625e+15	7.226572e+13	1.167336e+04	3.897326e+03	2.529048e+03	0	1.298283e-03
2.500000e+08	9.305412e+13	0.000000e+00	7.886178e-01	1.155826e+15	1.317139e+15	7.188407e+13	1.161453e+04	3.887913e+03	2.522940e+03	0	1.288341e-03
2.600000e+08	9.095902e+13	0.000000e+00	7.886178e-01	1.131225e+15	1.290545e+15	7.150522e+13	1.155697e+04	3.878653e+03	2.516931e+03	0	1.278599e-03
2.700000e+08	8.893619e+13	0.000000e+00	7.886178e-01	1.107467e+15	1.264813e+15	7.112913e+13	1.150062e+04	3.869544e+03	2.511020e+03	0	1.269049e-03
2.800000e+08	8.698228e+13	0.000000e+00	7.886178e-01	1.084513e+15	1.239911e+15	7.075579e+13	1.144545e+04	3.860586e+03	2.505207e+03	0	1.259687e-03
2.900000e+08	8.509416e+13	0.000000e+00	7.886178e-01	1.062328e+15	1.215809e+15	7.038518e+13	1.139141e+04	3.851778e+03	2.499491e+03	0	1.250505e-03
3.000000e+08	8.326885e+13	0.000000e+00	7.886178e-01	1.040875e+15	1.192476e+15	7.001726e+13	1.133847e+04	3.843117e+03	2.493871e+03	0	1.241499e-03
3.100000e+08	8.150355e+13	0.000000e+00	7.886178e-01	1.020123e+15	1.169879e+15	6.965203e+13	1.128660e+04	3.834601e+03	2.488345e+03	0	1.232663e-03
3.200000e+08	7.979560e+13	0.000000e+00	7.886178e-01	1.000040e+15	1.147991e+15	6.928945e+13	1.123575e+04	3.826227e+03	2.482911e+03	0	1.223992e-03
3.300000e+08	7.814249e+13	0.000000e+00	7.886178e-01	9.805980e+14	1.126783e+15	6.892951e+13	1.118590e+04	3.817992e+03	2.477567e+03	0	1.215481e-03
3.400000e+08	7.654184e+13	0.000000e+00	7.886178e-01	9.617686e+14	1.106226e+15	6.857219e+13	1.113701e+04	3.809893e+03	2.472311e+03	0	1.207124e-03
3.500000e+08	7.499142e+13	0.000000e+00	7.886178e-01	9.435258e+14	1.086295e+15	6.821745e+13	1.108905e+04	3.801926e+03	2.467142e+03	0	1.198918e-03
3.600000e+08	7.348908e+13	0.000000e+00	7.886178e-01	9.258447e+14	1.066964e+15	6.786529e+13	1.104200e+04	3.794090e+03	2.462056e+03	0	1.190858e-03
3.700000e+08	7.203282e+13	0.000000e+00	7.886178e-01	9.087019e+14	1.048210e+15	6.751568e+13	1.099582e+04	3.786380e+03	2.457053e+03	0	1.182939e-03
3.800000e+08	7.062073e+13	0.000000e+00	7.886178e-01	8.920752e+14	1.030008e+15	6.716860e+13	1.095050e+04	3.778793e+03	2.452130e+03	0	1.175158e-03
3.900000e+08	6.925098e+13	0.000000e+00	7.886178e-01	8.759434e+14	1.012338e+15	6.682403e+13	1.090600e+04	3.771326e+03	2.447285e+03	0	1.167511e-03
4.000000e+08	6.792186e+13	0.000000e+00	7.886178e-01	8.602864e+14	9.951773e+14	6.648194e+13	1.086230e+04	3.763976e+03	2.442515e+03	0	1.159993e-03
4.100000e+08	6.663174e+13	0.000000e+00	7.886178e-01	8.450853e+14	9.785068e+14	6.614233e+13	1.081937e+04	3.756741e+03	2.437820e+03	0	1.152602e-03
4.200000e+08	6.537906e+13	0.000000e+00	7.886178e-01	8.303220e+14	9.623073e+14	6.580516e+13	1.077720e+04	3.749617e+03	2.433197e+03	0	1.145333e-03
4.300000e+08	6.416235e+13	0.000000e+00	7.886178e-01	8.159793e+14	9.465605e+14	6.547042e+13	1.073576e+04	3.742602e+03	2.428645e+03	0	1.138184e-03
4.400000e+08	6.298022e+13	0.000000e+00	7.886178e-01	8.020409e+14	9.312492e+14	6.513809e+13	1.069504e+04	3.735692e+03	2.424161e+03	0	1.131150e-03
4.500000e+08	6.183132e+13	0.000000e+00	7.886178e-01	7.884912e+14	9.163568e+14	6.480814e+13	1.065501e+04	3.728886e+03	2.419744e+03	0	1.124230e-03
4.600000e+08	6.071439e+13	0.000000e+00	7.886178e-01	7.753154e+14	9.018675e+14	6.448057e+13	1.061565e+04	3.722180e+03	2.415393e+03	0	1.117419e-03
4.700000e+08	5.962822e+13	0.000000e+00	7.886178e-01	7.624995e+14	8.877664e+14	6.415534e+13	1.057694e+04	3.715572e+03	2.411105e+03	0	1.110716e-03
4.800000e+08	5.857165e+13	0.000000e+00	7.886178e-01	7.500300e+14	8.740391e+14	6.383244e+13	1.053887e+04	3.709060e+03	2.406879e+03	0	1.104116e-03
4.900000e+08	5.754360e+13	0.000000e+00	7.886178e-01	7.378942e+14	8.606720e+14	6.351186e+13	1.050142e+04	3.702642e+03	2.402714e+03	0	1.097618e-03
5.000000e+08	5.654302e+13	0.000000e+00	7.886178e-01	7.260798e+14	8.476520e+14	6.319357e+13	1.046457e+04	3.696315e+03	2.398608e+03	0	1.091219e-03
5.100000e+08	5.556890e+13	0.000000e+00	7.886178e-01	7.145753e+14	8.349666e+14	6.287755e+13	1.042831e+04	3.690076e+03	2.394560e+03	0	1.084916e-03
5.200000e+08	5.462030e+13	0.000000e+00	7.886178e-01	7.033694e+14	8.226040e+14	6.256379e+13	1.039262e+04	3.683925e+03	2.390568e+03	0	1.078707e-03
5.300000e+08	5.369630e+13	0.000000e+00	7.886178e-01	6.924516e+14	8.105528e+14	6.225226e+13	1.035749e+04	3.677858e+03	2.386631e+03	0	1.072590e-03
5.400000e+08	5.279604e+13	0.000000e+00	7.886178e-01	6.818119e+14	7.988022e+14	6.194296e+13	1.032290e+04	3.671874e+03	2.382748e+03	0	1.066562e-03
5.500000e+08	5.191869e+13	0.000000e+00	7.886178e-01	6.714403e+14	7.873416e+14	6.163585e+13	1.028884e+04	3.665971e+03	2.378918e+03	0	1.060621e-03
5.600000e+08	5.106345e+13	0.000000e+00	7.886178e-01	6.613278e+14	7.761613e+14	6.133093e+13	1.025530e+04	3.660146e+03	2.375138e+03	0	1.054765e-03
5.700000e+08	5.022956e+13	0.000000e+00	7.886178e-01	6.514655e+14	7.652517e+14	6.102817e+13	1.022225e+04	3.654400e+03	2.371409e+03	0	1.048992e-03
5.800000e+08	4.941631e+13	0.000000e+00	7.886178e-01	6.418449e+14	7.546037e+14	6.072756e+13	1.018970e+04	3.648728e+03	2.367728e+03	0	1.043300e-03
5.900000e+08	4.862298e+13	0.000000e+00	7.886178e-01	6.324578e+14	7.442086e+14	6.042909e+13	1.015763e+04	3.643130e+03	2.364096e+03	0	1.037686e-03
6.000000e+08	4.784892e+13	0.000000e+00	7.886178e-01	6.232965e+14	7.340580e+14	6.013272e+13	1.012602e+04	3.637604e+03	2.360510e+03	0	1.032150e-03
6.100000e+08	4.709349e+13	0.000000e+00	7.886178e-01	6.143536e+14	7.241440e+14	5.983845e+13	1.009487e+04	3.632149e+03	2.356970e+03	0	1.026690e-03
6.200000e+08	4.635608e+13	0.000000e+00	7.886178e-01	6.056218e+14	7.144588e+14	5.954626e+13	1.006417e+04	3.626763e+03	2.353475e+03	0	1.021303e-03
6.300000e+08	4.563610e+13	0.000000e+00	7.886178e-01	5.970945e+14	7.049952e+14	5.925614e+13	1.003390e+04	3.621444e+03	2.350024e+03	0	1.015988e-03
6.400000e+08	4.493299e+13	0.000000e+00	7.886178e-01	5.887649e+14	6.957460e+14	5.896806e+13	1.000405e+04	3.616191e+03	2.346615e+03	0	1.010743e-03
6.500000e+08	4.424620e+13	0.000000e+00	7.886178e-01	5.806269e+14	6.867045e+14	5.868201e+13	9.974618e+03	3.611003e+03	2.343248e+03	0	1.005567e-03
6.600000e+08	4.357523e+13	0.000000e+00	7.886178e-01	5.726743e+14	6.778642e+14	5.839797e+13	9.945591e+03	3.605878e+03	2.339922e+03	0	1.000458e-03
6.700000e+08	4.291958e+13	0.000000e+00	7.886178e-01	5.649014e+14	6.692188e+14	5.811593e+13	9.916959e+03	3.600815e+03	2.336637e+03	0	9.954148e-04
6.800000e+08	4.227876e+13	0.000000e+00	7.886178e-01	5.573026e+14	6.607624e+14	5.783587e+13	9.888715e+03	3.595813e+03	2.333391e+03	0	9.904358e-04
6.900000e+08	4.165232e+13	0.000000e+00	7.886178e-01	5.498725e+14	6.524892e+14	5.755777e+13	9.860849e+03	3.590870e+03	2.330183e+03	0	9.855198e-04
7.000000e+08	4.103982e+13	0.000000e+00	7.886178e-01	5.426059e+14	6.443937e+14	5.728162e+13	9.833353e+03	3.585985e+03	2.327013e+03	0	9.806652e-04
7.100000e+08	4.044083e+13	0.000000e+00	7.886178e-01	5.354981e+14	6.364704e+14	5.700741e+13	9.806218e+03	3.581157e+03	2.323880e+03	0	9.758708e-04
7.200000e+08	3.985496e+13	0.000000e+00	7.886178e-01	5.285440e+14	6.287144e+14	5.673512e+13	9.779438e+03	3.576384e+03	2.320783e+03	0	9.711352e-04
7.300000e+08	3.928179e+13	0.000000e+00	7.886178e-01	5.217393e+14	6.211206e+14	5.646472e+13	9.753004e+03	3.571667e+03	2.317722e+03	0	9.664574e-04
7.400000e+08	3.872097e+13	0.000000e+00	7.886178e-01	5.150794e+14	6.136844e+14	5.619622e+13	9.726909e+03	3.567003e+03	2.314695e+03	0	9.618360e-04
7.500000e+08	3.817212e+13	0.000000e+00	7.886178e-01	5.085602e+14	6.064011e+14	5.592959e+13	9.701145e+03	3.562391e+03	2.311703e+03	0	9.572698e-04
7.600000e+08	3.763490e+13	0.000000e+00	7.886178e-01	5.021776e+14	5.992663e+14	5.566481e+13	9.675707e+03	3.557831e+03	2.308744e+03	0	9.527578e-04
7.700000e+08	3.710897e+13	0.000000e+00	7.886178e-01	4.959275e+14	5.922759e+14	5.540188e+13	9.650586e+03	3.553322e+03	2.305818e+03	0	9.482988e-04
7.800000e+08	3.659400e+13	0.000000e+00	7.886178e-01	4.898063e+14	5.854257e+14	5.514077e+13	9.625777e+03	3.548862e+03	2.302923e+03	0	9.438918e-04
7.900000e+08	3.608968e+13	0.000000e+00	7.886178e-01	4.838102e+14	5.787118e+14	5.488148e+13	9.601272e+03	3.544450e+03	2.300061e+03	0	9.395357e-04
8.000000e+08	3.559571e+13	0.000000e+00	7.886178e-01	4.779358e+14	5.721303e+14	5.462398e+13	9.577067e+03	3.540087e+03	2.297229e+03	0	9.352294e-04
8.100000e+08	3.511181e+13	0.000000e+00	7.886178e-01	4.721796e+14	5.656777e+14	5.436827e+13	9.553154e+03	3.535770e+03	2.294428e+03	0	9.309721e-04
8.200000e+08	3.463768e+13	0.000000e+00	7.886178e-01	4.665383e+14	5.593504e+14	5.411433e+13	9.529528e+03	3.531499e+03	2.291656e+03	0	9.267627e-04
8.300000e+08	3.417306e+13	0.000000e+00	7.886178e-01	4.610089e+14	5.531450e+14	5.386215e+13	9.506184e+03	3.527273e+03	2.288914e+03	0	9.226002e-04
8.400000e+08	3.371769e+13	0.000000e+00	7.886178e-01	4.555882e+14	5.470581e+14	5.361171e+13	9.483115e+03	3.523091e+03	2.286200e+03	0	9.184839e-04
8.500000e+08	3.327131e+13	0.000000e+00	7.886178e-01	4.502733e+14	5.410867e+14	5.336299e+13	9.460316e+03	3.518953e+03	2.283515e+03	0	9.144127e-04
8.600000e+08	3.283369e+13	0.000000e+00	7.886178e-01	4.450613e+14	5.352276e+14	5.311599e+13	9.437782e+03	3.514857e+03	2.280857e+03	0	9.103859e-04
8.700000e+08	3.240459e+13	0.000000e+00	7.886178e-01	4.399496e+14	5.294779e+14	5.287069e+13	9.415508e+03	3.510803e+03	2.278226e+03	0	9.064025e-04
8.800000e+08	3.198377e+13	0.000000e+00	7.886178e-01	4.349353e+14	5.238347e+14	5.262708e+13	9.393489e+03	3.506790e+03	2.275622e+03	0	9.024618e-04
8.900000e+08	3.157103e+13	0.000000e+00	7.886178e-01	4.300161e+14	5.182952e+14	5.238514e+13	9.371720e+03	3.502818e+03	2.273045e+03	0	8.985630e-04
9.000000e+08	3.116615e+13	0.000000e+00	7.886178e-01	4.251893e+14	5.128568e+14	5.214486e+13	9.350196e+03	3.498885e+03	2.270493e+03	0	8.947052e-04
9.100000e+08	3.076892e+13	0.000000e+00	7.886178e-01	4.204526e+14	5.075169e+14	5.190623e+13	9.328913e+03	3.494991e+03	2.267966e+03	0	8.908878e-04
9.200000e+08	3.037914e+13	0.000000e+00	7.886178e-01	4.158037e+14	5.022729e+14	5.166923e+13	9.307867e+03	3.491136e+03	2.265464e+03	0	8.871099e-04
9.300000e+08	2.999663e+13	0.000000e+00	7.886178e-01	4.112403e+14	4.971225e+14	5.143386e+13	9.287052e+03	3.487318e+03	2.262987e+03	0	8.833709e-04
9.400000e+08	2.962120e+13	0.000000e+00	7.886178e-01	4.067603e+14	4.920632e+14	5.120009e+13	9.266464e+03	3.483537e+03	2.260533e+03	0	8.796701e-04
9.500000e+08	2.925267e+13	0.000000e+00	7.886178e-01	4.023615e+14	4.870929e+14	5.096792e+13	9.246101e+03	3.479793e+03	2.258103e+03	0	8.760067e-04
9.600000e+08	2.889086e+13	0.000000e+00	7.886178e-01	3.980419e+14	4.822093e+14	5.073733e+13	9.225956e+03	3.476084e+03	2.255697e+03	0	8.723801e-04
9.700000e+08	2.853561e+13	0.000000e+00	7.886178e-01	3.937995e+14	4.774103e+14	5.050831e+13	9.206028e+03	3.472410e+03	2.253313e+03	0	8.687897e-04
9.800000e+08	2.818675e+13	0.000000e+00	7.886178e-01	3.896325e+14	4.726938e+14	5.028085e+13	9.186310e+03	3.468771e+03	2.250951e+03	0	8.652347e-04
9.900000e+08	2.784413e+13	0.000000e+00	7.886178e-01	3.855390e+14	4.680579e+14	5.005494e+13	9.166801e+03	3.465166e+03	2.248612e+03	0	8.617147e-04
1.000000e+09	2.750759e+13	0.000000e+00	7.886178e-01	3.815171e+14	4.635006e+14	4.983056e+13	9.147496e+03	3.461595e+03	2.246294e+03	0	8.582289e-04
1.010000e+09	2.717699e+13	0.000000e+00	7.886178e-01	3.775652e+14	4.590199e+14	4.960770e+13	9.128392e+03	3.458056e+03	2.243998e+03	0	8.547768e-04
1.020000e+09	2.685218e+13	0.000000e+00	7.886178e-01	3.736816e+14	4.546142e+14	4.938635e+13	9.109485e+03	3.454550e+03	2.241722e+03	0	8.513578e-04
1.030000e+09	2.653302e+13	0.000000e+00	7.886178e-01	3.698646e+14	4.502817e+14	4.916650e+13	9.090772e+03	3.451075e+03	2.239468e+03	0	8.479713e-04
1.040000e+09	2.621938e+13	0.000000e+00	7.886178e-01	3.661127e+14	4.460205e+14	4.894813e+13	9.072249e+03	3.447632e+03	2.237233e+03	0	8.446169e-04
1.050000e+09	2.591113e+13	0.000000e+00	7.886178e-01	3.624243e+14	4.418292e+14	4.873124e+13	9.053914e+03	3.444219e+03	2.235019e+03	0	8.412938e-04
1.060000e+09	2.560813e+13	0.000000e+00	7.886178e-01	3.587980e+14	4.377060e+14	4.851582e+13	9.035763e+03	3.440837e+03	2.232824e+03	0	8.380017e-04
1.070000e+09	2.531027e+13	0.000000e+00	7.886178e-01	3.552322e+14	4.336494e+14	4.830184e+13	9.017792e+03	3.437485e+03	2.230649e+03	0	8.347400e-04
1.080000e+09	2.501743e+13	0.000000e+00	7.886178e-01	3.517256e+14	4.296579e+14	4.808930e+13	9.000000e+03	3.434162e+03	2.228493e+03	0	8.315082e-04
1.090000e+09	2.472949e+13	0.000000e+00	7.886178e-01	3.482769e+14	4.257299e+14	4.787820e+13	8.982383e+03	3.430868e+03	2.226355e+03	0	8.283057e-04
1.100000e+09	2.444634e+13	0.000000e+00	7.886178e-01	3.448846e+14	4.218642e+14	4.766851e+13	8.964938e+03	3.427603e+03	2.224236e+03	0	8.251322e-04
1.110000e+09	2.416787e+13	0.000000e+00	7.886178e-01	3.415476e+14	4.180593e+14	4.746022e+13	8.947662e+03	3.424366e+03	2.222136e+03	0	8.219872e-04
1.120000e+09	2.389397e+13	0.000000e+00	7.886178e-01	3.382646e+14	4.143138e+14	4.725333e+13	8.930553e+03	3.421156e+03	2.220053e+03	0	8.188701e-04
1.130000e+09	2.362454e+13	0.000000e+00	7.886178e-01	3.350343e+14	4.106264e+14	4.704783e+13	8.913608e+03	3.417974e+03	2.217988e+03	0	8.157806e-04
1.140000e+09	2.335948e+13	0.000000e+00	7.886178e-01	3.318557e+14	4.069959e+14	4.684370e+13	8.896825e+03	3.414818e+03	2.215940e+03	0	8.127182e-04
1.150000e+09	2.309869e+13	0.000000e+00	7.886178e-01	3.287274e+14	4.034210e+14	4.664093e+13	8.880200e+03	3.411689e+03	2.213909e+03	0	8.096824e-04
1.160000e+09	2.284208e+13	0.000000e+00	7.886178e-01	3.256486e+14	3.999005e+14	4.643952e+13	8.863731e+03	3.408586e+03	2.211896e+03	0	8.066729e-04
1.170000e+09	2.258955e+13	0.000000e+00	7.886178e-01	3.226180e+14	3.964333e+14	4.623944e+13	8.847416e+03	3.405508e+03	2.209898e+03	0	8.036892e-04
1.180000e+09	2.234102e+13	0.000000e+00	7.886178e-01	3.196346e+14	3.930182e+14	4.604070e+13	8.831253e+03	3.402456e+03	2.207918e+03	0	8.007310e-04
1.190000e+09	2.209640e+13	0.000000e+00	7.886178e-01	3.166974e+14	3.896541e+14	4.584328e+13	8.815238e+03	3.399428e+03	2.205953e+03	0	7.977978e-04
1.200000e+09	2.185561e+13	0.000000e+00	7.886178e-01	3.138055e+14	3.863399e+14	4.564717e+13	8.799370e+03	3.396425e+03	2.204005e+03	0	7.948892e-04
1.210000e+09	2.161856e+13	0.000000e+00	7.886178e-01	3.109577e+14	3.830746e+14	4.545236e+13	8.783647e+03	3.393447e+03	2.202072e+03	0	7.920049e-04
1.220000e+09	2.138517e+13	0.000000e+00	7.886178e-01	3.081533e+14	3.798572e+14	4.525884e+13	8.768066e+03	3.390492e+03	2.200154e+03	0	7.891445e-04
1.230000e+09	2.115537e+13	0.000000e+00	7.886178e-01	3.053912e+14	3.766866e+14	4.506661e+13	8.752625e+03	3.387561e+03	2.198252e+03	0	7.863076e-04
1.240000e+09	2.092908e+13	0.000000e+00	7.886178e-01	3.026707e+14	3.735619e+14	4.487564e+13	8.737322e+03	3.384652e+03	2.196365e+03	0	7.834939e-04
1.250000e+09	2.070622e+13	0.000000e+00	7.886178e-01	2.999908e+14	3.704823e+14	4.468593e+13	8.722155e+03	3.381767e+03	2.194493e+03	0	7.807031e-04
1.260000e+09	2.048673e+13	0.000000e+00	7.886178e-01	2.973507e+14	3.674466e+14	4.449747e+13	8.707121e+03	3.378904e+03	2.192635e+03	0	7.779347e-04
1.270000e+09	2.027053e+13	0.000000e+00	7.886178e-01	2.947495e+14	3.644542e+14	4.431026e+13	8.692220e+03	3.376064e+03	2.190792e+03	0	7.751885e-04
1.280000e+09	2.005756e+13	0.000000e+00	7.886178e-01	2.921866e+14	3.615040e+14	4.412428e+13	8.677449e+03	3.373245e+03	2.188962e+03	0	7.724641e-04
1.290000e+09	1.984775e+13	0.000000e+00	7.886178e-01	2.896610e+14	3.585953e+14	4.393951e+13	8.662806e+03	3.370448e+03	2.187147e+03	0	7.697612e-04
1.300000e+09	1.964103e+13	0.000000e+00	7.886178e-01	2.871721e+14	3.557272e+14	4.375597e+13	8.648289e+03	3.367672e+03	2.185346e+03	0	7.670795e-04
1.310000e+09	1.943735e+13	0.000000e+00	7.886178e-01	2.847190e+14	3.528989e+14	4.357362e+13	8.633896e+03	3.364918e+03	2.183559e+03	0	7.644186e-04
1.320000e+09	1.923664e+13	0.000000e+00	7.886178e-01	2.823012e+14	3.501096e+14	4.339247e+13	8.619626e+03	3.362184e+03	2.181784e+03	0	7.617784e-04
1.330000e+09	1.903884e+13	0.000000e+00	7.886178e-01	2.799178e+14	3.473587e+14	4.321250e+13	8.605477e+03	3.359470e+03	2.180024e+03	0	7.591584e-04
1.340000e+09	1.884389e+13	0.000000e+00	7.886178e-01	2.775682e+14	3.446453e+14	4.303371e+13	8.591447e+03	3.356777e+03	2.178276e+03	0	7.565584e-04
1.350000e+09	1.865175e+13	0.000000e+00	7.886178e-01	2.752518e+14	3.419687e+14	4.285609e+13	8.577534e+03	3.354104e+03	2.176541e+03	0	7.539782e-04
1.360000e+09	1.846234e+13	0.000000e+00	7.886178e-01	2.729678e+14	3.393282e+14	4.267962e+13	8.563738e+03	3.351450e+03	2.174819e+03	0	7.514173e-04
