#t		Qconv[W]	Ri[Rp]		R*[Rp]		Qc[W]		Qm[W]		Qr[W]		Tcmb[K]		Tl[K]		Tup[K]		RiFlag		Bs[T]
0.000000e+00	1.309738e+14	0.000000e+00	7.886178e-01	1.480621e+15	1.328385e+15	1.007251e+14	1.286353e+04	3.810301e+03	2.540191e+03	0	1.426781e-03
1.000000e+07	1.287456e+14	0.000000e+00	7.886178e-01	1.457179e+15	1.365812e+15	1.001670e+14	1.280672e+04	3.831568e+03	2.554369e+03	0	1.418643e-03
2.000000e+07	1.264928e+14	0.000000e+00	7.886178e-01	1.433495e+15	1.392562e+15	9.961312e+13	1.275080e+04	3.847643e+03	2.565086e+03	0	1.410320e-03
3.000000e+07	1.242336e+14	0.000000e+00	7.886178e-01	1.409756e+15	1.410216e+15	9.906334e+13	1.269579e+04	3.859424e+03	2.572940e+03	0	1.401873e-03
4.000000e+07	1.219824e+14	0.000000e+00	7.886178e-01	1.386108e+15	1.420276e+15	9.851766e+13	1.264168e+04	3.867681e+03	2.578444e+03	0	1.393354e-03
5.000000e+07	1.197503e+14	0.000000e+00	7.886178e-01	1.362666e+15	1.424101e+15	9.797606e+13	1.258847e+04	3.873062e+03	2.582032e+03	0	1.384803e-03
6.000000e+07	1.175459e+14	0.000000e+00	7.886178e-01	1.339516e+15	1.422878e+15	9.743850e+13	1.253616e+04	3.876112e+03	2.584065e+03	0	1.376253e-03
7.000000e+07	1.153753e+14	0.000000e+00	7.886178e-01	1.316724e+15	1.417620e+15	9.690493e+13	1.248474e+04	3.877278e+03	2.584842e+03	0	1.367729e-03
8.000000e+07	1.132433e+14	0.000000e+00	7.886178e-01	1.294335e+15	1.409175e+15	9.637534e+13	1.243418e+04	3.876927e+03	2.584608e+03	0	1.359252e-03
9.000000e+07	1.111531e+14	0.000000e+00	7.886178e-01	1.272385e+15	1.398244e+15	9.584968e+13	1.238448e+04	3.875361e+03	2.583564e+03	0	1.350837e-03
1.000000e+08	1.091069e+14	0.000000e+00	7.886178e-01	1.250893e+15	1.385401e+15	9.532793e+13	1.233562e+04	3.872823e+03	2.581872e+03	0	1.342497e-03
1.100000e+08	1.071060e+14	0.000000e+00	7.886178e-01	1.229875e+15	1.371112e+15	9.481004e+13	1.228757e+04	3.869513e+03	2.579665e+03	0	1.334239e-03
1.200000e+08	1.051511e+14	0.000000e+00	7.886178e-01	1.209337e+15	1.355750e+15	9.429600e+13	1.224033e+04	3.865589e+03	2.577050e+03	0	1.326072e-03
1.300000e+08	1.032425e+14	0.000000e+00	7.886178e-01	1.189281e+15	1.339618e+15	9.378576e+13	1.219388e+04	3.861183e+03	2.574112e+03	0	1.317999e-03
1.400000e+08	1.013798e+14	0.000000e+00	7.886178e-01	1.169705e+15	1.322954e+15	9.327930e+13	1.214819e+04	3.856399e+03	2.570923e+03	0	1.310025e-03
1.500000e+08	9.956273e+13	0.000000e+00	7.886178e-01	1.150604e+15	1.305950e+15	9.277659e+13	1.210325e+04	3.851322e+03	2.567538e+03	0	1.302151e-03
1.600000e+08	9.779053e+13	0.000000e+00	7.886178e-01	1.131970e+15	1.288757e+15	9.227758e+13	1.205904e+04	3.846020e+03	2.564004e+03	0	1.294379e-03
1.700000e+08	9.606239e+13	0.000000e+00	7.886178e-01	1.113795e+15	1.271492e+15	9.178226e+13	1.201554e+04	3.840550e+03	2.560357e+03	0	1.286709e-03
1.800000e+08	9.437733e+13	0.000000e+00	7.886178e-01	1.096070e+15	1.254251e+15	9.129059e+13	1.197274e+04	3.834956e+03	2.556627e+03	0	1.279141e-03
1.900000e+08	9.273435e+13	0.000000e+00	7.886178e-01	1.078782e+15	1.237105e+15	9.080254e+13	1.193061e+04	3.829273e+03	2.552839e+03	0	1.271675e-03
2.000000e+08	9.113236e+13	0.000000e+00	7.886178e-01	1.061922e+15	1.220111e+15	9.031808e+13	1.188915e+04	3.823533e+03	2.549012e+03	0	1.264309e-03
2.100000e+08	8.957026e+13	0.000000e+00	7.886178e-01	1.045478e+15	1.203311e+15	8.983719e+13	1.184833e+04	3.817757e+03	2.545161e+03	0	1.257044e-03
2.200000e+08	8.804693e+13	0.000000e+00	7.886178e-01	1.029437e+15	1.186739e+15	8.935983e+13	1.180814e+04	3.811965e+03	2.541300e+03	0	1.249877e-03
2.300000e+08	8.656126e+13	0.000000e+00	7.886178e-01	1.013789e+15	1.170418e+15	8.888597e+13	1.176856e+04	3.806173e+03	2.537439e+03	0	1.242807e-03
2.400000e+08	8.511212e+13	0.000000e+00	7.886178e-01	9.985218e+14	1.154366e+15	8.841558e+13	1.172958e+04	3.800392e+03	2.533585e+03	0	1.235832e-03
2.500000e+08	8.369842e+13	0.000000e+00	7.886178e-01	9.836239e+14	1.138596e+15	8.794864e+13	1.169119e+04	3.794634e+03	2.529746e+03	0	1.228952e-03
2.600000e+08	8.231910e+13	0.000000e+00	7.886178e-01	9.690843e+14	1.123115e+15	8.748512e+13	1.165336e+04	3.788905e+03	2.525927e+03	0	1.222163e-03
2.700000e+08	8.097309e+13	0.000000e+00	7.886178e-01	9.548920e+14	1.107928e+15	8.702498e+13	1.161610e+04	3.783212e+03	2.522131e+03	0	1.215466e-03
2.800000e+08	7.965937e+13	0.000000e+00	7.886178e-01	9.410364e+14	1.093037e+15	8.656821e+13	1.157937e+04	3.777559e+03	2.518363e+03	0	1.208856e-03
2.900000e+08	7.837695e+13	0.000000e+00	7.886178e-01	9.275072e+14	1.078443e+15	8.611477e+13	1.154318e+04	3.771952e+03	2.514625e+03	0	1.202334e-03
3.000000e+08	7.712485e+13	0.000000e+00	7.886178e-01	9.142942e+14	1.064143e+15	8.566463e+13	1.150750e+04	3.766393e+03	2.510919e+03	0	1.195897e-03
3.100000e+08	7.590215e+13	0.000000e+00	7.886178e-01	9.013879e+14	1.050135e+15	8.521778e+13	1.147233e+04	3.760884e+03	2.507246e+03	0	1.189544e-03
3.200000e+08	7.470794e+13	0.000000e+00	7.886178e-01	8.887788e+14	1.036414e+15	8.477418e+13	1.143766e+04	3.755426e+03	2.503608e+03	0	1.183272e-03
3.300000e+08	7.354133e+13	0.000000e+00	7.886178e-01	8.764577e+14	1.022978e+15	8.433380e+13	1.140347e+04	3.750022e+03	2.500005e+03	0	1.177081e-03
3.400000e+08	7.240149e+13	0.000000e+00	7.886178e-01	8.644159e+14	1.009819e+15	8.389662e+13	1.136975e+04	3.744672e+03	2.496438e+03	0	1.170968e-03
3.500000e+08	7.128760e+13	0.000000e+00	7.886178e-01	8.526450e+14	9.969339e+14	8.346261e+13	1.133649e+04	3.739376e+03	2.492908e+03	0	1.164932e-03
3.600000e+08	7.019886e+13	0.000000e+00	7.886178e-01	8.411366e+14	9.843154e+14	8.303175e+13	1.130368e+04	3.734135e+03	2.489414e+03	0	1.158971e-03
3.700000e+08	6.913453e+13	0.000000e+00	7.886178e-01	8.298830e+14	9.719580e+14	8.260400e+13	1.127131e+04	3.728949e+03	2.485956e+03	0	1.153083e-03
3.800000e+08	6.809385e+13	0.000000e+00	7.886178e-01	8.188765e+14	9.598557e+14	8.217936e+13	1.123938e+04	3.723817e+03	2.482535e+03	0	1.147268e-03
3.900000e+08	6.707613e+13	0.000000e+00	7.886178e-01	8.081097e+14	9.480022e+14	8.175778e+13	1.120786e+04	3.718740e+03	2.479150e+03	0	1.141524e-03
4.000000e+08	6.608069e+13	0.000000e+00	7.886178e-01	7.975756e+14	9.363916e+14	8.133925e+13	1.117676e+04	3.713716e+03	2.475801e+03	0	1.135849e-03
4.100000e+08	6.510686e+13	0.000000e+00	7.886178e-01	7.872673e+14	9.250178e+14	8.092373e+13	1.114606e+04	3.708746e+03	2.472488e+03	0	1.130242e-03
4.200000e+08	6.415402e+13	0.000000e+00	7.886178e-01	7.771782e+14	9.138746e+14	8.051122e+13	1.111576e+04	3.703829e+03	2.469210e+03	0	1.124701e-03
4.300000e+08	6.322155e+13	0.000000e+00	7.886178e-01	7.673021e+14	9.029563e+14	8.010167e+13	1.108584e+04	3.698964e+03	2.465967e+03	0	1.119225e-03
4.400000e+08	6.230885e+13	0.000000e+00	7.886178e-01	7.576326e+14	8.922570e+14	7.969507e+13	1.105630e+04	3.694151e+03	2.462758e+03	0	1.113813e-03
4.500000e+08	6.141538e+13	0.000000e+00	7.886178e-01	7.481640e+14	8.817709e+14	7.929139e+13	1.102714e+04	3.689389e+03	2.459583e+03	0	1.108464e-03
4.600000e+08	6.054056e+13	0.000000e+00	7.886178e-01	7.388906e+14	8.714926e+14	7.889060e+13	1.099833e+04	3.684677e+03	2.456442e+03	0	1.103175e-03
4.700000e+08	5.968388e+13	0.000000e+00	7.886178e-01	7.298068e+14	8.614166e+14	7.849270e+13	1.096989e+04	3.680015e+03	2.453334e+03	0	1.097947e-03
4.800000e+08	5.884482e+13	0.000000e+00	7.886178e-01	7.209072e+14	8.515375e+14	7.809764e+13	1.094179e+04	3.675401e+03	2.450258e+03	0	1.092778e-03
4.900000e+08	5.802290e+13	0.000000e+00	7.886178e-01	7.121869e+14	8.418502e+14	7.770541e+13	1.091403e+04	3.670836e+03	2.447215e+03	0	1.087666e-03
5.000000e+08	5.721762e+13	0.000000e+00	7.886178e-01	7.036409e+14	8.323498e+14	7.731599e+13	1.088660e+04	3.666318e+03	2.444203e+03	0	1.082611e-03
5.100000e+08	5.642855e+13	0.000000e+00	7.886178e-01	6.952643e+14	8.230313e+14	7.692935e+13	1.085951e+04	3.661846e+03	2.441222e+03	0	1.077611e-03
5.200000e+08	5.565523e+13	0.000000e+00	7.886178e-01	6.870525e+14	8.138900e+14	7.654547e+13	1.083273e+04	3.657421e+03	2.438271e+03	0	1.072666e-03
5.300000e+08	5.489723e+13	0.000000e+00	7.886178e-01	6.790012e+14	8.049213e+14	7.616432e+13	1.080627e+04	3.653040e+03	2.435351e+03	0	1.067774e-03
5.400000e+08	5.415414e+13	0.000000e+00	7.886178e-01	6.711059e+14	7.961207e+14	7.578589e+13	1.078012e+04	3.648704e+03	2.432460e+03	0	1.062934e-03
5.500000e+08	5.342557e+13	0.000000e+00	7.886178e-01	6.633626e+14	7.874840e+14	7.541016e+13	1.075428e+04	3.644411e+03	2.429598e+03	0	1.058146e-03
5.600000e+08	5.271111e+13	0.000000e+00	7.886178e-01	6.557672e+14	7.790068e+14	7.503709e+13	1.072872e+04	3.640161e+03	2.426765e+03	0	1.053408e-03
5.700000e+08	5.201041e+13	0.000000e+00	7.886178e-01	6.483158e+14	7.706853e+14	7.466667e+13	1.070347e+04	3.635953e+03	2.423960e+03	0	1.048719e-03
5.800000e+08	5.132310e+13	0.000000e+00	7.886178e-01	6.410047e+14	7.625153e+14	7.429889e+13	1.067849e+04	3.631787e+03	2.421182e+03	0	1.044079e-03
5.900000e+08	5.064883e+13	0.000000e+00	7.886178e-01	6.338303e+14	7.544931e+14	7.393370e+13	1.065380e+04	3.627662e+03	2.418432e+03	0	1.039487e-03
6.000000e+08	4.998726e+13	0.000000e+00	7.886178e-01	6.267889e+14	7.466150e+14	7.357111e+13	1.062938e+04	3.623576e+03	2.415708e+03	0	1.034941e-03
6.100000e+08	4.933807e+13	0.000000e+00	7.886178e-01	6.198773e+14	7.388773e+14	7.321108e+13	1.060524e+04	3.619531e+03	2.413011e+03	0	1.030441e-03
6.200000e+08	4.870094e+13	0.000000e+00	7.886178e-01	6.130921e+14	7.312767e+14	7.285359e+13	1.058135e+04	3.615524e+03	2.410340e+03	0	1.025986e-03
6.300000e+08	4.807557e+13	0.000000e+00	7.886178e-01	6.064301e+14	7.238096e+14	7.249863e+13	1.055773e+04	3.611555e+03	2.407694e+03	0	1.021576e-03
6.400000e+08	4.746165e+13	0.000000e+00	7.886178e-01	5.998883e+14	7.164730e+14	7.214617e+13	1.053437e+04	3.607624e+03	2.405073e+03	0	1.017209e-03
6.500000e+08	4.685891e+13	0.000000e+00	7.886178e-01	5.934637e+14	7.092635e+14	7.179619e+13	1.051125e+04	3.603730e+03	2.402477e+03	0	1.012884e-03
6.600000e+08	4.626705e+13	0.000000e+00	7.886178e-01	5.871533e+14	7.021781e+14	7.144867e+13	1.048839e+04	3.599872e+03	2.399905e+03	0	1.008602e-03
6.700000e+08	4.568583e+13	0.000000e+00	7.886178e-01	5.809544e+14	6.952138e+14	7.110360e+13	1.046576e+04	3.596050e+03	2.397357e+03	0	1.004360e-03
6.800000e+08	4.511496e+13	0.000000e+00	7.886178e-01	5.748642e+14	6.883677e+14	7.076096e+13	1.044337e+04	3.592263e+03	2.394833e+03	0	1.000160e-03
6.900000e+08	4.455421e+13	0.000000e+00	7.886178e-01	5.688802e+14	6.816371e+14	7.042071e+13	1.042122e+04	3.588510e+03	2.392331e+03	0	9.959985e-04
7.000000e+08	4.400333e+13	0.000000e+00	7.886178e-01	5.629997e+14	6.750191e+14	7.008285e+13	1.039930e+04	3.584792e+03	2.389852e+03	0	9.918765e-04
7.100000e+08	4.346207e+13	0.000000e+00	7.886178e-01	5.572203e+14	6.685112e+14	6.974736e+13	1.037760e+04	3.581108e+03	2.387396e+03	0	9.877929e-04
7.200000e+08	4.293021e+13	0.000000e+00	7.886178e-01	5.515397e+14	6.621107e+14	6.941421e+13	1.035612e+04	3.577456e+03	2.384962e+03	0	9.837470e-04
7.300000e+08	4.240753e+13	0.000000e+00	7.886178e-01	5.459553e+14	6.558153e+14	6.908339e+13	1.033487e+04	3.573837e+03	2.382549e+03	0	9.797383e-04
7.400000e+08	4.189381e+13	0.000000e+00	7.886178e-01	5.404651e+14	6.496224e+14	6.875488e+13	1.031382e+04	3.570250e+03	2.380157e+03	0	9.757661e-04
7.500000e+08	4.138884e+13	0.000000e+00	7.886178e-01	5.350668e+14	6.435298e+14	6.842866e+13	1.029299e+04	3.566694e+03	2.377787e+03	0	9.718297e-04
7.600000e+08	4.089241e+13	0.000000e+00	7.886178e-01	5.297583e+14	6.375351e+14	6.810471e+13	1.027237e+04	3.563170e+03	2.375437e+03	0	9.679286e-04
7.700000e+08	4.040433e+13	0.000000e+00	7.886178e-01	5.245375e+14	6.316361e+14	6.778302e+13	1.025195e+04	3.559676e+03	2.373108e+03	0	9.640622e-04
7.800000e+08	3.992441e+13	0.000000e+00	7.886178e-01	5.194024e+14	6.258308e+14	6.746356e+13	1.023173e+04	3.556212e+03	2.370799e+03	0	9.602300e-04
7.900000e+08	3.945246e+13	0.000000e+00	7.886178e-01	5.143511e+14	6.201169e+14	6.714632e+13	1.021170e+04	3.552777e+03	2.368509e+03	0	9.564313e-04
8.000000e+08	3.898829e+13	0.000000e+00	7.886178e-01	5.093817e+14	6.144926e+14	6.683128e+13	1.019188e+04	3.549372e+03	2.366239e+03	0	9.526656e-04
8.100000e+08	3.853174e+13	0.000000e+00	7.886178e-01	5.044924e+14	6.089557e+14	6.651843e+13	1.017224e+04	3.545996e+03	2.363988e+03	0	9.489324e-04
8.200000e+08	3.808263e+13	0.000000e+00	7.886178e-01	4.996813e+14	6.035045e+14	6.620774e+13	1.015279e+04	3.542647e+03	2.361756e+03	0	9.452312e-04
8.300000e+08	3.764079e+13	0.000000e+00	7.886178e-01	4.949467e+14	5.981369e+14	6.589920e+13	1.013352e+04	3.539327e+03	2.359542e+03	0	9.415614e-04
8.400000e+08	3.720607e+13	0.000000e+00	7.886178e-01	4.902870e+14	5.928513e+14	6.559278e+13	1.011444e+04	3.536034e+03	2.357347e+03	0	9.379226e-04
8.500000e+08	3.677830e+13	0.000000e+00	7.886178e-01	4.857005e+14	5.876459e+14	6.528849e+13	1.009554e+04	3.532769e+03	2.355170e+03	0	9.343143e-04
8.600000e+08	3.635734e+13	0.000000e+00	7.886178e-01	4.811856e+14	5.825189e+14	6.498629e+13	1.007681e+04	3.529530e+03	2.353011e+03	0	9.307359e-04
8.700000e+08	3.594304e+13	0.000000e+00	7.886178e-01	4.767408e+14	5.774687e+14	6.468617e+13	1.005826e+04	3.526317e+03	2.350869e+03	0	9.271870e-04
8.800000e+08	3.553524e+13	0.000000e+00	7.886178e-01	4.723646e+14	5.724937e+14	6.438811e+13	1.003987e+04	3.523130e+03	2.348745e+03	0	9.236672e-04
8.900000e+08	3.513383e+13	0.000000e+00	7.886178e-01	4.680554e+14	5.675923e+14	6.409211e+13	1.002166e+04	3.519969e+03	2.346637e+03	0	9.201760e-04
9.000000e+08	3.473864e+13	0.000000e+00	7.886178e-01	4.638120e+14	5.627629e+14	6.379813e+13	1.000361e+04	3.516833e+03	2.344546e+03	0	9.167130e-04
9.100000e+08	3.434956e+13	0.000000e+00	7.886178e-01	4.596328e+14	5.580041e+14	6.350617e+13	9.985725e+03	3.513722e+03	2.342472e+03	0	9.132776e-04
9.200000e+08	3.396646e+13	0.000000e+00	7.886178e-01	4.555166e+14	5.533145e+14	6.321621e+13	9.968000e+03	3.510635e+03	2.340414e+03	0	9.098696e-04
9.300000e+08	3.358920e+13	0.000000e+00	7.886178e-01	4.514620e+14	5.486925e+14	6.292823e+13	9.950433e+03	3.507572e+03	2.338373e+03	0	9.064885e-04
9.400000e+08	3.321767e+13	0.000000e+00	7.886178e-01	4.474677e+14	5.441368e+14	6.264222e+13	9.933022e+03	3.504534e+03	2.336347e+03	0	9.031339e-04
9.500000e+08	3.285174e+13	0.000000e+00	7.886178e-01	4.435325e+14	5.396462e+14	6.235816e+13	9.915765e+03	3.501518e+03	2.334337e+03	0	8.998053e-04
9.600000e+08	3.249131e+13	0.000000e+00	7.886178e-01	4.396553e+14	5.352192e+14	6.207604e+13	9.898659e+03	3.498526e+03	2.332342e+03	0	8.965025e-04
9.700000e+08	3.213626e+13	0.000000e+00	7.886178e-01	4.358347e+14	5.308546e+14	6.179585e+13	9.881702e+03	3.495557e+03	2.330362e+03	0	8.932250e-04
9.800000e+08	3.178647e+13	0.000000e+00	7.886178e-01	4.320697e+14	5.265512e+14	6.151755e+13	9.864892e+03	3.492610e+03	2.328398e+03	0	8.899724e-04
9.900000e+08	3.144185e+13	0.000000e+00	7.886178e-01	4.283592e+14	5.223077e+14	6.124115e+13	9.848227e+03	3.489686e+03	2.326448e+03	0	8.867444e-04
1.000000e+09	3.110228e+13	0.000000e+00	7.886178e-01	4.247020e+14	5.181230e+14	6.096663e+13	9.831705e+03	3.486783e+03	2.324513e+03	0	8.835406e-04
1.010000e+09	3.076767e+13	0.000000e+00	7.886178e-01	4.210971e+14	5.139959e+14	6.069397e+13	9.815323e+03	3.483902e+03	2.322592e+03	0	8.803607e-04
1.020000e+09	3.043791e+13	0.000000e+00	7.886178e-01	4.175434e+14	5.099254e+14	6.042315e+13	9.799080e+03	3.481042e+03	2.320686e+03	0	8.772042e-04
1.030000e+09	3.011292e+13	0.000000e+00	7.886178e-01	4.140400e+14	5.059102e+14	6.015417e+13	9.782974e+03	3.478204e+03	2.318794e+03	0	8.740710e-04
1.040000e+09	2.979259e+13	0.000000e+00	7.886178e-01	4.105859e+14	5.019494e+14	5.988700e+13	9.767002e+03	3.475386e+03	2.316915e+03	0	8.709606e-04
1.050000e+09	2.947683e+13	0.000000e+00	7.886178e-01	4.071800e+14	4.980420e+14	5.962164e+13	9.751163e+03	3.472589e+03	2.315050e+03	0	8.678727e-04
1.060000e+09	2.916556e+13	0.000000e+00	7.886178e-01	4.038215e+14	4.941868e+14	5.935807e+13	9.735456e+03	3.469812e+03	2.313199e+03	0	8.648070e-04
1.070000e+09	2.885868e+13	0.000000e+00	7.886178e-01	4.005094e+14	4.903829e+14	5.909628e+13	9.719877e+03	3.467055e+03	2.311361e+03	0	8.617632e-04
1.080000e+09	2.855612e+13	0.000000e+00	7.886178e-01	3.972429e+14	4.866294e+14	5.883624e+13	9.704426e+03	3.464318e+03	2.309536e+03	0	8.587409e-04
1.090000e+09	2.825779e+13	0.000000e+00	7.886178e-01	3.940210e+14	4.829253e+14	5.857796e+13	9.689101e+03	3.461600e+03	2.307724e+03	0	8.557399e-04
1.100000e+09	2.796360e+13	0.000000e+00	7.886178e-01	3.908430e+14	4.792697e+14	5.832140e+13	9.673900e+03	3.458901e+03	2.305925e+03	0	8.527599e-04
1.110000e+09	2.767348e+13	0.000000e+00	7.886178e-01	3.877080e+14	4.756617e+14	5.806657e+13	9.658820e+03	3.456222e+03	2.304139e+03	0	8.498006e-04
1.120000e+09	2.738736e+13	0.000000e+00	7.886178e-01	3.846152e+14	4.721005e+14	5.781345e+13	9.643862e+03	3.453561e+03	2.302365e+03	0	8.468616e-04
1.130000e+09	2.710515e+13	0.000000e+00	7.886178e-01	3.815638e+14	4.685851e+14	5.756202e+13	9.629023e+03	3.450919e+03	2.300604e+03	0	8.439428e-04
1.140000e+09	2.682678e+13	0.000000e+00	7.886178e-01	3.785531e+14	4.651147e+14	5.731227e+13	9.614301e+03	3.448295e+03	2.298854e+03	0	8.410438e-04
1.150000e+09	2.655218e+13	0.000000e+00	7.886178e-01	3.755822e+14	4.616885e+14	5.706419e+13	9.599694e+03	3.445689e+03	2.297117e+03	0	8.381643e-04
1.160000e+09	2.628129e+13	0.000000e+00	7.886178e-01	3.726505e+14	4.583058e+14	5.681776e+13	9.585203e+03	3.443101e+03	2.295392e+03	0	8.353042e-04
1.170000e+09	2.601403e+13	0.000000e+00	7.886178e-01	3.697572e+14	4.549657e+14	5.657298e+13	9.570824e+03	3.440531e+03	2.293678e+03	0	8.324630e-04
1.180000e+09	2.575033e+13	0.000000e+00	7.886178e-01	3.669017e+14	4.516675e+14	5.632982e+13	9.556556e+03	3.437978e+03	2.291976e+03	0	8.296407e-04
1.190000e+09	2.549014e+13	0.000000e+00	7.886178e-01	3.640832e+14	4.484104e+14	5.608828e+13	9.542398e+03	3.435442e+03	2.290286e+03	0	8.268368e-04
1.200000e+09	2.523338e+13	0.000000e+00	7.886178e-01	3.613011e+14	4.451938e+14	5.584835e+13	9.528349e+03	3.432923e+03	2.288607e+03	0	8.240513e-04
1.210000e+09	2.498000e+13	0.000000e+00	7.886178e-01	3.585547e+14	4.420169e+14	5.561000e+13	9.514407e+03	3.430421e+03	2.286939e+03	0	8.212837e-04
1.220000e+09	2.472993e+13	0.000000e+00	7.886178e-01	3.558434e+14	4.388790e+14	5.537323e+13	9.500571e+03	3.427936e+03	2.285282e+03	0	8.185339e-04
1.230000e+09	2.448311e+13	0.000000e+00	7.886178e-01	3.531666e+14	4.357795e+14	5.513804e+13	9.486838e+03	3.425467e+03	2.283636e+03	0	8.158017e-04
1.240000e+09	2.423949e+13	0.000000e+00	7.886178e-01	3.505236e+14	4.327176e+14	5.490439e+13	9.473209e+03	3.423014e+03	2.282001e+03	0	8.130868e-04
1.250000e+09	2.399902e+13	0.000000e+00	7.886178e-01	3.479139e+14	4.296928e+14	5.467229e+13	9.459682e+03	3.420577e+03	2.280376e+03	0	8.103890e-04
1.260000e+09	2.376162e+13	0.000000e+00	7.886178e-01	3.453369e+14	4.267043e+14	5.444172e+13	9.446255e+03	3.418156e+03	2.278762e+03	0	8.077081e-04
1.270000e+09	2.352726e+13	0.000000e+00	7.886178e-01	3.427920e+14	4.237517e+14	5.421266e+13	9.432928e+03	3.415751e+03	2.277159e+03	0	8.050438e-04
1.280000e+09	2.329587e+13	0.000000e+00	7.886178e-01	3.402787e+14	4.208342e+14	5.398511e+13	9.419698e+03	3.413361e+03	2.275566e+03	0	8.023960e-04
1.290000e+09	2.306741e+13	0.000000e+00	7.886178e-01	3.377964e+14	4.179514e+14	5.375906e+13	9.406565e+03	3.410987e+03	2.273983e+03	0	7.997643e-04
1.300000e+09	2.284182e+13	0.000000e+00	7.886178e-01	3.353445e+14	4.151025e+14	5.353450e+13	9.393528e+03	3.408628e+03	2.272410e+03	0	7.971487e-04
1.310000e+09	2.261906e+13	0.000000e+00	7.886178e-01	3.329226e+14	4.122871e+14	5.331140e+13	9.380585e+03	3.406283e+03	2.270847e+03	0	7.945488e-04
1.320000e+09	2.239907e+13	0.000000e+00	7.886178e-01	3.305302e+14	4.095045e+14	5.308977e+13	9.367736e+03	3.403953e+03	2.269294e+03	0	7.919646e-04
1.330000e+09	2.218182e+13	0.000000e+00	7.886178e-01	3.281667e+14	4.067544e+14	5.286958e+13	9.354978e+03	3.401638e+03	2.267750e+03	0	7.893957e-04
1.340000e+09	2.196724e+13	0.000000e+00	7.886178e-01	3.258317e+14	4.040360e+14	5.265084e+13	9.342312e+03	3.399338e+03	2.266217e+03	0	7.868421e-04
1.350000e+09	2.175530e+13	0.000000e+00	7.886178e-01	3.235247e+14	4.013489e+14	5.243352e+13	9.329735e+03	3.397051e+03	2.264692e+03	0	7.843035e-04
1.360000e+09	2.154596e+13	0.000000e+00	7.886178e-01	3.212452e+14	3.986926e+14	5.221761e+13	9.317247e+03	3.394779e+03	2.263178e+03	0	7.817796e-04
