#t		Qconv[W]	Ri[Rp]		R*[Rp]		Qc[W]		Qm[W]		Qr[W]		Tcmb[K]		Tl[K]		Tup[K]		RiFlag		Bs[T]
0.000000e+00	3.836992e+14	0.000000e+00	7.851238e-01	4.011928e+15	1.452856e+15	2.074013e+14	2.044136e+04	4.755354e+03	2.898702e+03	0	2.001955e-03
1.000000e+07	3.844010e+14	0.000000e+00	7.851238e-01	4.014003e+15	1.723703e+15	2.062521e+14	2.038579e+04	4.878321e+03	2.973658e+03	0	2.003175e-03
2.000000e+07	3.842785e+14	0.000000e+00	7.851238e-01	4.009944e+15	1.994512e+15	2.051116e+14	2.033020e+04	4.988620e+03	3.040892e+03	0	2.002962e-03
3.000000e+07	3.833877e+14	0.000000e+00	7.851238e-01	4.000173e+15	2.256604e+15	2.039795e+14	2.027466e+04	5.086169e+03	3.100355e+03	0	2.001413e-03
4.000000e+07	3.818000e+14	0.000000e+00	7.851238e-01	3.985224e+15	2.502728e+15	2.028560e+14	2.021926e+04	5.171281e+03	3.152237e+03	0	1.998647e-03
5.000000e+07	3.795955e+14	0.000000e+00	7.851238e-01	3.965698e+15	2.727520e+15	2.017407e+14	2.016406e+04	5.244595e+03	3.196926e+03	0	1.994793e-03
6.000000e+07	3.768575e+14	0.000000e+00	7.851238e-01	3.942218e+15	2.927616e+15	2.006339e+14	2.010913e+04	5.306977e+03	3.234952e+03	0	1.989985e-03
7.000000e+07	3.736682e+14	0.000000e+00	7.851238e-01	3.915399e+15	3.101496e+15	1.995352e+14	2.005453e+04	5.359443e+03	3.266933e+03	0	1.984355e-03
8.000000e+07	3.701049e+14	0.000000e+00	7.851238e-01	3.885817e+15	3.249156e+15	1.984447e+14	2.000030e+04	5.403067e+03	3.293525e+03	0	1.978027e-03
9.000000e+07	3.662381e+14	0.000000e+00	7.851238e-01	3.854002e+15	3.371721e+15	1.973624e+14	1.994647e+04	5.438928e+03	3.315385e+03	0	1.971115e-03
1.000000e+08	3.621306e+14	0.000000e+00	7.851238e-01	3.820420e+15	3.471060e+15	1.962880e+14	1.989309e+04	5.468054e+03	3.333139e+03	0	1.963718e-03
1.100000e+08	3.578370e+14	0.000000e+00	7.851238e-01	3.785480e+15	3.549464e+15	1.952217e+14	1.984016e+04	5.491401e+03	3.347371e+03	0	1.955926e-03
1.200000e+08	3.534042e+14	0.000000e+00	7.851238e-01	3.749531e+15	3.609391e+15	1.941632e+14	1.978772e+04	5.509828e+03	3.358603e+03	0	1.947816e-03
1.300000e+08	3.488716e+14	0.000000e+00	7.851238e-01	3.712868e+15	3.653282e+15	1.931126e+14	1.973578e+04	5.524098e+03	3.367302e+03	0	1.939453e-03
1.400000e+08	3.442723e+14	0.000000e+00	7.851238e-01	3.675738e+15	3.683452e+15	1.920697e+14	1.968434e+04	5.534875e+03	3.373871e+03	0	1.930892e-03
1.500000e+08	3.396336e+14	0.000000e+00	7.851238e-01	3.638343e+15	3.702011e+15	1.910346e+14	1.963341e+04	5.542731e+03	3.378660e+03	0	1.922181e-03
1.600000e+08	3.349778e+14	0.000000e+00	7.851238e-01	3.600851e+15	3.710844e+15	1.900071e+14	1.958300e+04	5.548153e+03	3.381965e+03	0	1.913357e-03
1.700000e+08	3.303232e+14	0.000000e+00	7.851238e-01	3.563396e+15	3.711596e+15	1.889872e+14	1.953311e+04	5.551553e+03	3.384037e+03	0	1.904454e-03
1.800000e+08	3.256844e+14	0.000000e+00	7.851238e-01	3.526089e+15	3.705684e+15	1.879748e+14	1.948374e+04	5.553280e+03	3.385090e+03	0	1.895497e-03
1.900000e+08	3.210733e+14	0.000000e+00	7.851238e-01	3.489016e+15	3.694318e+15	1.869699e+14	1.943488e+04	5.553623e+03	3.385299e+03	0	1.886509e-03
2.000000e+08	3.164991e+14	0.000000e+00	7.851238e-01	3.452248e+15	3.678516e+15	1.859723e+14	1.938653e+04	5.552825e+03	3.384813e+03	0	1.877507e-03
2.100000e+08	3.119693e+14	0.000000e+00	7.851238e-01	3.415838e+15	3.659135e+15	1.849821e+14	1.933869e+04	5.551089e+03	3.383754e+03	0	1.868507e-03
2.200000e+08	3.074894e+14	0.000000e+00	7.851238e-01	3.379828e+15	3.636886e+15	1.839992e+14	1.929135e+04	5.548581e+03	3.382226e+03	0	1.859520e-03
2.300000e+08	3.030640e+14	0.000000e+00	7.851238e-01	3.344252e+15	3.612364e+15	1.830235e+14	1.924451e+04	5.545442e+03	3.380312e+03	0	1.850556e-03
2.400000e+08	2.986963e+14	0.000000e+00	7.851238e-01	3.309132e+15	3.586058e+15	1.820549e+14	1.919817e+04	5.541787e+03	3.378084e+03	0	1.841623e-03
2.500000e+08	2.943886e+14	0.000000e+00	7.851238e-01	3.274487e+15	3.558371e+15	1.810935e+14	1.915230e+04	5.537711e+03	3.375600e+03	0	1.832727e-03
2.600000e+08	2.901427e+14	0.000000e+00	7.851238e-01	3.240329e+15	3.529638e+15	1.801390e+14	1.910692e+04	5.533294e+03	3.372907e+03	0	1.823873e-03
2.700000e+08	2.859596e+14	0.000000e+00	7.851238e-01	3.206664e+15	3.500131e+15	1.791916e+14	1.906200e+04	5.528600e+03	3.370046e+03	0	1.815065e-03
2.800000e+08	2.818399e+14	0.000000e+00	7.851238e-01	3.173498e+15	3.470075e+15	1.782510e+14	1.901756e+04	5.523685e+03	3.367050e+03	0	1.806307e-03
2.900000e+08	2.777840e+14	0.000000e+00	7.851238e-01	3.140832e+15	3.439651e+15	1.773174e+14	1.897357e+04	5.518594e+03	3.363947e+03	0	1.797600e-03
3.000000e+08	2.737917e+14	0.000000e+00	7.851238e-01	3.108665e+15	3.409011e+15	1.763905e+14	1.893003e+04	5.513363e+03	3.360758e+03	0	1.788947e-03
3.100000e+08	2.698628e+14	0.000000e+00	7.851238e-01	3.076994e+15	3.378277e+15	1.754704e+14	1.888694e+04	5.508024e+03	3.357504e+03	0	1.780349e-03
3.200000e+08	2.659967e+14	0.000000e+00	7.851238e-01	3.045816e+15	3.347546e+15	1.745570e+14	1.884428e+04	5.502602e+03	3.354198e+03	0	1.771806e-03
3.300000e+08	2.621928e+14	0.000000e+00	7.851238e-01	3.015125e+15	3.316899e+15	1.736502e+14	1.880205e+04	5.497118e+03	3.350856e+03	0	1.763319e-03
3.400000e+08	2.584504e+14	0.000000e+00	7.851238e-01	2.984915e+15	3.286401e+15	1.727500e+14	1.876025e+04	5.491590e+03	3.347486e+03	0	1.754890e-03
3.500000e+08	2.547686e+14	0.000000e+00	7.851238e-01	2.955180e+15	3.256104e+15	1.718564e+14	1.871887e+04	5.486033e+03	3.344098e+03	0	1.746517e-03
3.600000e+08	2.511466e+14	0.000000e+00	7.851238e-01	2.925913e+15	3.226049e+15	1.709692e+14	1.867790e+04	5.480458e+03	3.340700e+03	0	1.738200e-03
3.700000e+08	2.475833e+14	0.000000e+00	7.851238e-01	2.897106e+15	3.196270e+15	1.700884e+14	1.863733e+04	5.474876e+03	3.337297e+03	0	1.729940e-03
3.800000e+08	2.440777e+14	0.000000e+00	7.851238e-01	2.868751e+15	3.166791e+15	1.692140e+14	1.859716e+04	5.469294e+03	3.333895e+03	0	1.721737e-03
3.900000e+08	2.406289e+14	0.000000e+00	7.851238e-01	2.840840e+15	3.137634e+15	1.683460e+14	1.855738e+04	5.463720e+03	3.330497e+03	0	1.713589e-03
4.000000e+08	2.372358e+14	0.000000e+00	7.851238e-01	2.813365e+15	3.108812e+15	1.674842e+14	1.851799e+04	5.458159e+03	3.327108e+03	0	1.705496e-03
4.100000e+08	2.338974e+14	0.000000e+00	7.851238e-01	2.786319e+15	3.080338e+15	1.666286e+14	1.847898e+04	5.452617e+03	3.323729e+03	0	1.697458e-03
4.200000e+08	2.306125e+14	0.000000e+00	7.851238e-01	2.759692e+15	3.052219e+15	1.657792e+14	1.844034e+04	5.447096e+03	3.320364e+03	0	1.689475e-03
4.300000e+08	2.273802e+14	0.000000e+00	7.851238e-01	2.733478e+15	3.024460e+15	1.649359e+14	1.840207e+04	5.441599e+03	3.317013e+03	0	1.681544e-03
4.400000e+08	2.241995e+14	0.000000e+00	7.851238e-01	2.707667e+15	2.997066e+15	1.640987e+14	1.836416e+04	5.436131e+03	3.313680e+03	0	1.673667e-03
4.500000e+08	2.210693e+14	0.000000e+00	7.851238e-01	2.682253e+15	2.970037e+15	1.632675e+14	1.832661e+04	5.430691e+03	3.310364e+03	0	1.665841e-03
4.600000e+08	2.179885e+14	0.000000e+00	7.851238e-01	2.657226e+15	2.943372e+15	1.624422e+14	1.828941e+04	5.425283e+03	3.307068e+03	0	1.658066e-03
4.700000e+08	2.149563e+14	0.000000e+00	7.851238e-01	2.632581e+15	2.917072e+15	1.616229e+14	1.825256e+04	5.419908e+03	3.303791e+03	0	1.650343e-03
4.800000e+08	2.119717e+14	0.000000e+00	7.851238e-01	2.608308e+15	2.891134e+15	1.608094e+14	1.821604e+04	5.414565e+03	3.300534e+03	0	1.642669e-03
4.900000e+08	2.090336e+14	0.000000e+00	7.851238e-01	2.584401e+15	2.865555e+15	1.600018e+14	1.817987e+04	5.409257e+03	3.297299e+03	0	1.635044e-03
5.000000e+08	2.061411e+14	0.000000e+00	7.851238e-01	2.560851e+15	2.840331e+15	1.592000e+14	1.814402e+04	5.403984e+03	3.294085e+03	0	1.627467e-03
5.100000e+08	2.032933e+14	0.000000e+00	7.851238e-01	2.537653e+15	2.815459e+15	1.584038e+14	1.810850e+04	5.398747e+03	3.290892e+03	0	1.619938e-03
5.200000e+08	2.004894e+14	0.000000e+00	7.851238e-01	2.514800e+15	2.790934e+15	1.576134e+14	1.807330e+04	5.393545e+03	3.287721e+03	0	1.612456e-03
5.300000e+08	1.977284e+14	0.000000e+00	7.851238e-01	2.492283e+15	2.766751e+15	1.568286e+14	1.803842e+04	5.388379e+03	3.284572e+03	0	1.605020e-03
5.400000e+08	1.950094e+14	0.000000e+00	7.851238e-01	2.470097e+15	2.742906e+15	1.560494e+14	1.800384e+04	5.383248e+03	3.281445e+03	0	1.597629e-03
5.500000e+08	1.923316e+14	0.000000e+00	7.851238e-01	2.448235e+15	2.719393e+15	1.552757e+14	1.796958e+04	5.378154e+03	3.278339e+03	0	1.590283e-03
5.600000e+08	1.896943e+14	0.000000e+00	7.851238e-01	2.426690e+15	2.696207e+15	1.545075e+14	1.793562e+04	5.373096e+03	3.275256e+03	0	1.582980e-03
5.700000e+08	1.870965e+14	0.000000e+00	7.851238e-01	2.405457e+15	2.673344e+15	1.537448e+14	1.790195e+04	5.368073e+03	3.272194e+03	0	1.575721e-03
5.800000e+08	1.845375e+14	0.000000e+00	7.851238e-01	2.384529e+15	2.650797e+15	1.529875e+14	1.786858e+04	5.363086e+03	3.269154e+03	0	1.568504e-03
5.900000e+08	1.820165e+14	0.000000e+00	7.851238e-01	2.363901e+15	2.628561e+15	1.522356e+14	1.783550e+04	5.358134e+03	3.266136e+03	0	1.561329e-03
6.000000e+08	1.795329e+14	0.000000e+00	7.851238e-01	2.343566e+15	2.606632e+15	1.514889e+14	1.780270e+04	5.353217e+03	3.263139e+03	0	1.554194e-03
6.100000e+08	1.770857e+14	0.000000e+00	7.851238e-01	2.323518e+15	2.585003e+15	1.507476e+14	1.777019e+04	5.348336e+03	3.260163e+03	0	1.547101e-03
6.200000e+08	1.746744e+14	0.000000e+00	7.851238e-01	2.303753e+15	2.563670e+15	1.500115e+14	1.773795e+04	5.343488e+03	3.257208e+03	0	1.540046e-03
6.300000e+08	1.722981e+14	0.000000e+00	7.851238e-01	2.284265e+15	2.542627e+15	1.492806e+14	1.770599e+04	5.338676e+03	3.254275e+03	0	1.533031e-03
6.400000e+08	1.699564e+14	0.000000e+00	7.851238e-01	2.265048e+15	2.521869e+15	1.485549e+14	1.767429e+04	5.333897e+03	3.251361e+03	0	1.526054e-03
6.500000e+08	1.676484e+14	0.000000e+00	7.851238e-01	2.246097e+15	2.501392e+15	1.478342e+14	1.764286e+04	5.329152e+03	3.248469e+03	0	1.519114e-03
6.600000e+08	1.653735e+14	0.000000e+00	7.851238e-01	2.227408e+15	2.481190e+15	1.471187e+14	1.761170e+04	5.324440e+03	3.245597e+03	0	1.512212e-03
6.700000e+08	1.631311e+14	0.000000e+00	7.851238e-01	2.208974e+15	2.461258e+15	1.464082e+14	1.758079e+04	5.319761e+03	3.242745e+03	0	1.505346e-03
6.800000e+08	1.609205e+14	0.000000e+00	7.851238e-01	2.190793e+15	2.441591e+15	1.457026e+14	1.755014e+04	5.315115e+03	3.239913e+03	0	1.498515e-03
6.900000e+08	1.587412e+14	0.000000e+00	7.851238e-01	2.172858e+15	2.422185e+15	1.450020e+14	1.751974e+04	5.310501e+03	3.237100e+03	0	1.491720e-03
7.000000e+08	1.565926e+14	0.000000e+00	7.851238e-01	2.155165e+15	2.403035e+15	1.443063e+14	1.748959e+04	5.305919e+03	3.234307e+03	0	1.484959e-03
7.100000e+08	1.544740e+14	0.000000e+00	7.851238e-01	2.137711e+15	2.384137e+15	1.436155e+14	1.745968e+04	5.301369e+03	3.231534e+03	0	1.478232e-03
7.200000e+08	1.523850e+14	0.000000e+00	7.851238e-01	2.120489e+15	2.365486e+15	1.429296e+14	1.743001e+04	5.296850e+03	3.228779e+03	0	1.471538e-03
7.300000e+08	1.503250e+14	0.000000e+00	7.851238e-01	2.103496e+15	2.347077e+15	1.422484e+14	1.740058e+04	5.292362e+03	3.226043e+03	0	1.464877e-03
7.400000e+08	1.482934e+14	0.000000e+00	7.851238e-01	2.086729e+15	2.328907e+15	1.415719e+14	1.737139e+04	5.287904e+03	3.223326e+03	0	1.458248e-03
7.500000e+08	1.462896e+14	0.000000e+00	7.851238e-01	2.070182e+15	2.310970e+15	1.409002e+14	1.734243e+04	5.283477e+03	3.220627e+03	0	1.451650e-03
7.600000e+08	1.443133e+14	0.000000e+00	7.851238e-01	2.053851e+15	2.293264e+15	1.402332e+14	1.731370e+04	5.279080e+03	3.217947e+03	0	1.445083e-03
7.700000e+08	1.423639e+14	0.000000e+00	7.851238e-01	2.037734e+15	2.275784e+15	1.395708e+14	1.728520e+04	5.274712e+03	3.215285e+03	0	1.438547e-03
7.800000e+08	1.404408e+14	0.000000e+00	7.851238e-01	2.021826e+15	2.258526e+15	1.389130e+14	1.725691e+04	5.270374e+03	3.212640e+03	0	1.432040e-03
7.900000e+08	1.385437e+14	0.000000e+00	7.851238e-01	2.006123e+15	2.241485e+15	1.382598e+14	1.722885e+04	5.266064e+03	3.210013e+03	0	1.425563e-03
8.000000e+08	1.366721e+14	0.000000e+00	7.851238e-01	1.990621e+15	2.224660e+15	1.376111e+14	1.720101e+04	5.261783e+03	3.207404e+03	0	1.419114e-03
8.100000e+08	1.348254e+14	0.000000e+00	7.851238e-01	1.975318e+15	2.208044e+15	1.369669e+14	1.717338e+04	5.257531e+03	3.204811e+03	0	1.412693e-03
8.200000e+08	1.330032e+14	0.000000e+00	7.851238e-01	1.960209e+15	2.191636e+15	1.363272e+14	1.714596e+04	5.253306e+03	3.202236e+03	0	1.406300e-03
8.300000e+08	1.312052e+14	0.000000e+00	7.851238e-01	1.945292e+15	2.175431e+15	1.356918e+14	1.711875e+04	5.249109e+03	3.199678e+03	0	1.399935e-03
8.400000e+08	1.294309e+14	0.000000e+00	7.851238e-01	1.930562e+15	2.159426e+15	1.350609e+14	1.709175e+04	5.244939e+03	3.197136e+03	0	1.393595e-03
8.500000e+08	1.276798e+14	0.000000e+00	7.851238e-01	1.916017e+15	2.143618e+15	1.344343e+14	1.706495e+04	5.240796e+03	3.194611e+03	0	1.387282e-03
8.600000e+08	1.259515e+14	0.000000e+00	7.851238e-01	1.901653e+15	2.128003e+15	1.338121e+14	1.703835e+04	5.236680e+03	3.192102e+03	0	1.380994e-03
8.700000e+08	1.242458e+14	0.000000e+00	7.851238e-01	1.887468e+15	2.112578e+15	1.331941e+14	1.701196e+04	5.232591e+03	3.189609e+03	0	1.374732e-03
8.800000e+08	1.225620e+14	0.000000e+00	7.851238e-01	1.873458e+15	2.097339e+15	1.325804e+14	1.698576e+04	5.228527e+03	3.187132e+03	0	1.368493e-03
8.900000e+08	1.209000e+14	0.000000e+00	7.851238e-01	1.859620e+15	2.082284e+15	1.319709e+14	1.695975e+04	5.224490e+03	3.184671e+03	0	1.362279e-03
9.000000e+08	1.192592e+14	0.000000e+00	7.851238e-01	1.845951e+15	2.067410e+15	1.313656e+14	1.693393e+04	5.220478e+03	3.182225e+03	0	1.356089e-03
9.100000e+08	1.176394e+14	0.000000e+00	7.851238e-01	1.832449e+15	2.052713e+15	1.307644e+14	1.690831e+04	5.216491e+03	3.179795e+03	0	1.349921e-03
9.200000e+08	1.160402e+14	0.000000e+00	7.851238e-01	1.819111e+15	2.038191e+15	1.301674e+14	1.688287e+04	5.212529e+03	3.177380e+03	0	1.343776e-03
9.300000e+08	1.144612e+14	0.000000e+00	7.851238e-01	1.805934e+15	2.023840e+15	1.295744e+14	1.685761e+04	5.208593e+03	3.174980e+03	0	1.337653e-03
9.400000e+08	1.129021e+14	0.000000e+00	7.851238e-01	1.792915e+15	2.009659e+15	1.289855e+14	1.683254e+04	5.204680e+03	3.172595e+03	0	1.331552e-03
9.500000e+08	1.113625e+14	0.000000e+00	7.851238e-01	1.780051e+15	1.995643e+15	1.284006e+14	1.680765e+04	5.200792e+03	3.170225e+03	0	1.325471e-03
9.600000e+08	1.098422e+14	0.000000e+00	7.851238e-01	1.767341e+15	1.981792e+15	1.278197e+14	1.678294e+04	5.196927e+03	3.167870e+03	0	1.319412e-03
9.700000e+08	1.083407e+14	0.000000e+00	7.851238e-01	1.754781e+15	1.968100e+15	1.272427e+14	1.675840e+04	5.193087e+03	3.165529e+03	0	1.313373e-03
9.800000e+08	1.068578e+14	0.000000e+00	7.851238e-01	1.742369e+15	1.954568e+15	1.266697e+14	1.673403e+04	5.189270e+03	3.163202e+03	0	1.307353e-03
9.900000e+08	1.053932e+14	0.000000e+00	7.851238e-01	1.730103e+15	1.941190e+15	1.261006e+14	1.670984e+04	5.185476e+03	3.160889e+03	0	1.301353e-03
1.000000e+09	1.039466e+14	0.000000e+00	7.851238e-01	1.717980e+15	1.927966e+15	1.255353e+14	1.668582e+04	5.181704e+03	3.158590e+03	0	1.295371e-03
1.010000e+09	1.025177e+14	0.000000e+00	7.851238e-01	1.705999e+15	1.914893e+15	1.249739e+14	1.666197e+04	5.177956e+03	3.156305e+03	0	1.289408e-03
1.020000e+09	1.011061e+14	0.000000e+00	7.851238e-01	1.694156e+15	1.901968e+15	1.244162e+14	1.663828e+04	5.174230e+03	3.154034e+03	0	1.283462e-03
1.030000e+09	9.971165e+13	0.000000e+00	7.851238e-01	1.682450e+15	1.889189e+15	1.238624e+14	1.661476e+04	5.170526e+03	3.151776e+03	0	1.277535e-03
1.040000e+09	9.833401e+13	0.000000e+00	7.851238e-01	1.670877e+15	1.876554e+15	1.233123e+14	1.659139e+04	5.166845e+03	3.149532e+03	0	1.271624e-03
1.050000e+09	9.697293e+13	0.000000e+00	7.851238e-01	1.659438e+15	1.864061e+15	1.227659e+14	1.656819e+04	5.163185e+03	3.147301e+03	0	1.265729e-03
1.060000e+09	9.562814e+13	0.000000e+00	7.851238e-01	1.648128e+15	1.851706e+15	1.222231e+14	1.654515e+04	5.159546e+03	3.145083e+03	0	1.259851e-03
1.070000e+09	9.429938e+13	0.000000e+00	7.851238e-01	1.636946e+15	1.839489e+15	1.216841e+14	1.652226e+04	5.155929e+03	3.142879e+03	0	1.253989e-03
1.080000e+09	9.298638e+13	0.000000e+00	7.851238e-01	1.625891e+15	1.827407e+15	1.211486e+14	1.649953e+04	5.152333e+03	3.140687e+03	0	1.248142e-03
1.090000e+09	9.168890e+13	0.000000e+00	7.851238e-01	1.614960e+15	1.815458e+15	1.206168e+14	1.647696e+04	5.148758e+03	3.138507e+03	0	1.242309e-03
1.100000e+09	9.040669e+13	0.000000e+00	7.851238e-01	1.604151e+15	1.803640e+15	1.200886e+14	1.645453e+04	5.145204e+03	3.136341e+03	0	1.236491e-03
1.110000e+09	8.913952e+13	0.000000e+00	7.851238e-01	1.593462e+15	1.791951e+15	1.195638e+14	1.643225e+04	5.141670e+03	3.134187e+03	0	1.230687e-03
1.120000e+09	8.788714e+13	0.000000e+00	7.851238e-01	1.582891e+15	1.780388e+15	1.190426e+14	1.641012e+04	5.138156e+03	3.132045e+03	0	1.224896e-03
1.130000e+09	8.664932e+13	0.000000e+00	7.851238e-01	1.572438e+15	1.768951e+15	1.185249e+14	1.638814e+04	5.134663e+03	3.129915e+03	0	1.219118e-03
1.140000e+09	8.542585e+13	0.000000e+00	7.851238e-01	1.562099e+15	1.757637e+15	1.180107e+14	1.636631e+04	5.131189e+03	3.127798e+03	0	1.213353e-03
1.150000e+09	8.421648e+13	0.000000e+00	7.851238e-01	1.551873e+15	1.746444e+15	1.174998e+14	1.634461e+04	5.127735e+03	3.125692e+03	0	1.207600e-03
1.160000e+09	8.302102e+13	0.000000e+00	7.851238e-01	1.541759e+15	1.735371e+15	1.169924e+14	1.632306e+04	5.124300e+03	3.123599e+03	0	1.201859e-03
1.170000e+09	8.183923e+13	0.000000e+00	7.851238e-01	1.531754e+15	1.724415e+15	1.164884e+14	1.630165e+04	5.120885e+03	3.121517e+03	0	1.196129e-03
1.180000e+09	8.067092e+13	0.000000e+00	7.851238e-01	1.521858e+15	1.713576e+15	1.159877e+14	1.628037e+04	5.117489e+03	3.119446e+03	0	1.190410e-03
1.190000e+09	7.951588e+13	0.000000e+00	7.851238e-01	1.512068e+15	1.702851e+15	1.154904e+14	1.625924e+04	5.114111e+03	3.117388e+03	0	1.184701e-03
1.200000e+09	7.837390e+13	0.000000e+00	7.851238e-01	1.502383e+15	1.692238e+15	1.149963e+14	1.623824e+04	5.110753e+03	3.115340e+03	0	1.179002e-03
1.210000e+09	7.724479e+13	0.000000e+00	7.851238e-01	1.492801e+15	1.681737e+15	1.145056e+14	1.621737e+04	5.107412e+03	3.113304e+03	0	1.173313e-03
1.220000e+09	7.612836e+13	0.000000e+00	7.851238e-01	1.483321e+15	1.671345e+15	1.140180e+14	1.619664e+04	5.104091e+03	3.111280e+03	0	1.167633e-03
1.230000e+09	7.502441e+13	0.000000e+00	7.851238e-01	1.473941e+15	1.661060e+15	1.135337e+14	1.617604e+04	5.100787e+03	3.109266e+03	0	1.161961e-03
1.240000e+09	7.393275e+13	0.000000e+00	7.851238e-01	1.464661e+15	1.650882e+15	1.130526e+14	1.615556e+04	5.097502e+03	3.107263e+03	0	1.156298e-03
1.250000e+09	7.285320e+13	0.000000e+00	7.851238e-01	1.455477e+15	1.640809e+15	1.125747e+14	1.613522e+04	5.094234e+03	3.105271e+03	0	1.150642e-03
1.260000e+09	7.178559e+13	0.000000e+00	7.851238e-01	1.446390e+15	1.630838e+15	1.121000e+14	1.611500e+04	5.090984e+03	3.103290e+03	0	1.144994e-03
1.270000e+09	7.072974e+13	0.000000e+00	7.851238e-01	1.437397e+15	1.620970e+15	1.116283e+14	1.609491e+04	5.087751e+03	3.101320e+03	0	1.139352e-03
1.280000e+09	6.968547e+13	0.000000e+00	7.851238e-01	1.428497e+15	1.611202e+15	1.111598e+14	1.607495e+04	5.084536e+03	3.099360e+03	0	1.133717e-03
1.290000e+09	6.865261e+13	0.000000e+00	7.851238e-01	1.419690e+15	1.601532e+15	1.106943e+14	1.605511e+04	5.081338e+03	3.097410e+03	0	1.128088e-03
1.300000e+09	6.763100e+13	0.000000e+00	7.851238e-01	1.410973e+15	1.591960e+15	1.102319e+14	1.603539e+04	5.078157e+03	3.095471e+03	0	1.122465e-03
1.310000e+09	6.662047e+13	0.000000e+00	7.851238e-01	1.402345e+15	1.582485e+15	1.097725e+14	1.601579e+04	5.074993e+03	3.093542e+03	0	1.116846e-03
1.320000e+09	6.562086e+13	0.000000e+00	7.851238e-01	1.393805e+15	1.573104e+15	1.093162e+14	1.599631e+04	5.071845e+03	3.091624e+03	0	1.111232e-03
1.330000e+09	6.463201e+13	0.000000e+00	7.851238e-01	1.385352e+15	1.563816e+15	1.088628e+14	1.597695e+04	5.068714e+03	3.089715e+03	0	1.105622e-03
1.340000e+09	6.365378e+13	0.000000e+00	7.851238e-01	1.376985e+15	1.554621e+15	1.084124e+14	1.595770e+04	5.065599e+03	3.087817e+03	0	1.100015e-03
1.350000e+09	6.268600e+13	0.000000e+00	7.851238e-01	1.368701e+15	1.545516e+15	1.079649e+14	1.593858e+04	5.062501e+03	3.085928e+03	0	1.094412e-03
1.360000e+09	6.172853e+13	0.000000e+00	7.851238e-01	1.360502e+15	1.536502e+15	1.075203e+14	1.591956e+04	5.059419e+03	3.084049e+03	0	1.088811e-03
