#t		Qconv[W]	Ri[Rp]		R*[Rp]		Qc[W]		Qm[W]		Qr[W]		Tcmb[K]		Tl[K]		Tup[K]		RiFlag		Bs[T]
0.000000e+00	1.108635e+14	0.000000e+00	7.882353e-01	1.427939e+15	8.538756e+13	7.768864e+13	9.701402e+03	4.360199e+03	2.151860e+03	0	1.338049e-03
1.000000e+07	1.070774e+14	0.000000e+00	7.882353e-01	1.380872e+15	1.117792e+14	7.725819e+13	9.630690e+03	4.552655e+03	2.246841e+03	0	1.322640e-03
2.000000e+07	1.030921e+14	0.000000e+00	7.882353e-01	1.331366e+15	1.419410e+14	7.683096e+13	9.562297e+03	4.734747e+03	2.336708e+03	0	1.306023e-03
3.000000e+07	9.898742e+13	0.000000e+00	7.882353e-01	1.280408e+15	1.753810e+14	7.640692e+13	9.496343e+03	4.905656e+03	2.421055e+03	0	1.288454e-03
4.000000e+07	9.483910e+13	0.000000e+00	7.882353e-01	1.228929e+15	2.114334e+14	7.598604e+13	9.432901e+03	5.064781e+03	2.499587e+03	0	1.270198e-03
5.000000e+07	9.071539e+13	0.000000e+00	7.882353e-01	1.177769e+15	2.493124e+14	7.556831e+13	9.371997e+03	5.211746e+03	2.572118e+03	0	1.251515e-03
6.000000e+07	8.667503e+13	0.000000e+00	7.882353e-01	1.127652e+15	2.881737e+14	7.515369e+13	9.313617e+03	5.346402e+03	2.638574e+03	0	1.232651e-03
7.000000e+07	8.276595e+13	0.000000e+00	7.882353e-01	1.079167e+15	3.271754e+14	7.474215e+13	9.257710e+03	5.468816e+03	2.698988e+03	0	1.213835e-03
8.000000e+07	7.902492e+13	0.000000e+00	7.882353e-01	1.032766e+15	3.655301e+14	7.433368e+13	9.204196e+03	5.579245e+03	2.753487e+03	0	1.195263e-03
9.000000e+07	7.547795e+13	0.000000e+00	7.882353e-01	9.887696e+14	4.025454e+14	7.392824e+13	9.152972e+03	5.678113e+03	2.802281e+03	0	1.177106e-03
1.000000e+08	7.214128e+13	0.000000e+00	7.882353e-01	9.473756e+14	4.376496e+14	7.352582e+13	9.103922e+03	5.765971e+03	2.845641e+03	0	1.159499e-03
1.100000e+08	6.902270e+13	0.000000e+00	7.882353e-01	9.086796e+14	4.704030e+14	7.312638e+13	9.056915e+03	5.843468e+03	2.883887e+03	0	1.142544e-03
1.200000e+08	6.612309e+13	0.000000e+00	7.882353e-01	8.726916e+14	5.004981e+14	7.272990e+13	9.011821e+03	5.911318e+03	2.917373e+03	0	1.126315e-03
1.300000e+08	6.343791e+13	0.000000e+00	7.882353e-01	8.393548e+14	5.277496e+14	7.233636e+13	8.968505e+03	5.970268e+03	2.946466e+03	0	1.110858e-03
1.400000e+08	6.095864e+13	0.000000e+00	7.882353e-01	8.085636e+14	5.520794e+14	7.194573e+13	8.926836e+03	6.021077e+03	2.971542e+03	0	1.096194e-03
1.500000e+08	5.867405e+13	0.000000e+00	7.882353e-01	7.801787e+14	5.734981e+14	7.155799e+13	8.886689e+03	6.064492e+03	2.992968e+03	0	1.082325e-03
1.600000e+08	5.657120e+13	0.000000e+00	7.882353e-01	7.540402e+14	5.920862e+14	7.117311e+13	8.847946e+03	6.101237e+03	3.011103e+03	0	1.069237e-03
1.700000e+08	5.463631e+13	0.000000e+00	7.882353e-01	7.299777e+14	6.079758e+14	7.079107e+13	8.810495e+03	6.131998e+03	3.026284e+03	0	1.056905e-03
1.800000e+08	5.285537e+13	0.000000e+00	7.882353e-01	7.078181e+14	6.213344e+14	7.041185e+13	8.774234e+03	6.157417e+03	3.038828e+03	0	1.045295e-03
1.900000e+08	5.121465e+13	0.000000e+00	7.882353e-01	6.873917e+14	6.323515e+14	7.003542e+13	8.739069e+03	6.178087e+03	3.049030e+03	0	1.034365e-03
2.000000e+08	4.970097e+13	0.000000e+00	7.882353e-01	6.685358e+14	6.412273e+14	6.966176e+13	8.704914e+03	6.194553e+03	3.057156e+03	0	1.024072e-03
2.100000e+08	4.830196e+13	0.000000e+00	7.882353e-01	6.510975e+14	6.481644e+14	6.929085e+13	8.671692e+03	6.207310e+03	3.063452e+03	0	1.014372e-03
2.200000e+08	4.700614e+13	0.000000e+00	7.882353e-01	6.349351e+14	6.533613e+14	6.892266e+13	8.639333e+03	6.216802e+03	3.068137e+03	0	1.005219e-03
2.300000e+08	4.580300e+13	0.000000e+00	7.882353e-01	6.199189e+14	6.570077e+14	6.855717e+13	8.607773e+03	6.223431e+03	3.071408e+03	0	9.965680e-04
2.400000e+08	4.468299e+13	0.000000e+00	7.882353e-01	6.059308e+14	6.592821e+14	6.819437e+13	8.576956e+03	6.227552e+03	3.073442e+03	0	9.883779e-04
2.500000e+08	4.363750e+13	0.000000e+00	7.882353e-01	5.928645e+14	6.603498e+14	6.783422e+13	8.546831e+03	6.229483e+03	3.074395e+03	0	9.806084e-04
2.600000e+08	4.265882e+13	0.000000e+00	7.882353e-01	5.806248e+14	6.603619e+14	6.747671e+13	8.517353e+03	6.229505e+03	3.074406e+03	0	9.732219e-04
2.700000e+08	4.174003e+13	0.000000e+00	7.882353e-01	5.691265e+14	6.594560e+14	6.712181e+13	8.488480e+03	6.227866e+03	3.073597e+03	0	9.661841e-04
2.800000e+08	4.087503e+13	0.000000e+00	7.882353e-01	5.582938e+14	6.577550e+14	6.676950e+13	8.460177e+03	6.224786e+03	3.072077e+03	0	9.594632e-04
2.900000e+08	4.005835e+13	0.000000e+00	7.882353e-01	5.480596e+14	6.553694e+14	6.641977e+13	8.432409e+03	6.220456e+03	3.069940e+03	0	9.530301e-04
3.000000e+08	3.928518e+13	0.000000e+00	7.882353e-01	5.383644e+14	6.523973e+14	6.607258e+13	8.405149e+03	6.215045e+03	3.067269e+03	0	9.468588e-04
3.100000e+08	3.855127e+13	0.000000e+00	7.882353e-01	5.291554e+14	6.489253e+14	6.572793e+13	8.378368e+03	6.208703e+03	3.064139e+03	0	9.409254e-04
3.200000e+08	3.785283e+13	0.000000e+00	7.882353e-01	5.203861e+14	6.450300e+14	6.538578e+13	8.352042e+03	6.201558e+03	3.060613e+03	0	9.352084e-04
3.300000e+08	3.718655e+13	0.000000e+00	7.882353e-01	5.120155e+14	6.407786e+14	6.504612e+13	8.326151e+03	6.193725e+03	3.056747e+03	0	9.296888e-04
3.400000e+08	3.654948e+13	0.000000e+00	7.882353e-01	5.040071e+14	6.362300e+14	6.470892e+13	8.300675e+03	6.185303e+03	3.052591e+03	0	9.243491e-04
3.500000e+08	3.593901e+13	0.000000e+00	7.882353e-01	4.963289e+14	6.314355e+14	6.437417e+13	8.275594e+03	6.176378e+03	3.048186e+03	0	9.191739e-04
3.600000e+08	3.535287e+13	0.000000e+00	7.882353e-01	4.889525e+14	6.264398e+14	6.404185e+13	8.250894e+03	6.167028e+03	3.043572e+03	0	9.141494e-04
3.700000e+08	3.478900e+13	0.000000e+00	7.882353e-01	4.818528e+14	6.212820e+14	6.371194e+13	8.226559e+03	6.157318e+03	3.038779e+03	0	9.092632e-04
3.800000e+08	3.424561e+13	0.000000e+00	7.882353e-01	4.750073e+14	6.159958e+14	6.338441e+13	8.202576e+03	6.147306e+03	3.033838e+03	0	9.045042e-04
3.900000e+08	3.372109e+13	0.000000e+00	7.882353e-01	4.683965e+14	6.106107e+14	6.305925e+13	8.178932e+03	6.137043e+03	3.028773e+03	0	8.998626e-04
4.000000e+08	3.321404e+13	0.000000e+00	7.882353e-01	4.620027e+14	6.051517e+14	6.273644e+13	8.155615e+03	6.126573e+03	3.023606e+03	0	8.953294e-04
4.100000e+08	3.272317e+13	0.000000e+00	7.882353e-01	4.558103e+14	5.996410e+14	6.241596e+13	8.132615e+03	6.115935e+03	3.018356e+03	0	8.908968e-04
4.200000e+08	3.224736e+13	0.000000e+00	7.882353e-01	4.498052e+14	5.940972e+14	6.209778e+13	8.109921e+03	6.105163e+03	3.013040e+03	0	8.865577e-04
4.300000e+08	3.178561e+13	0.000000e+00	7.882353e-01	4.439751e+14	5.885366e+14	6.178190e+13	8.087525e+03	6.094285e+03	3.007671e+03	0	8.823058e-04
4.400000e+08	3.133700e+13	0.000000e+00	7.882353e-01	4.383087e+14	5.829731e+14	6.146829e+13	8.065418e+03	6.083327e+03	3.002264e+03	0	8.781353e-04
4.500000e+08	3.090073e+13	0.000000e+00	7.882353e-01	4.327960e+14	5.774184e+14	6.115694e+13	8.043591e+03	6.072312e+03	2.996827e+03	0	8.740411e-04
4.600000e+08	3.047606e+13	0.000000e+00	7.882353e-01	4.274280e+14	5.718829e+14	6.084782e+13	8.022038e+03	6.061259e+03	2.991373e+03	0	8.700187e-04
4.700000e+08	3.006235e+13	0.000000e+00	7.882353e-01	4.221964e+14	5.663750e+14	6.054091e+13	8.000750e+03	6.050185e+03	2.985907e+03	0	8.660639e-04
4.800000e+08	2.965898e+13	0.000000e+00	7.882353e-01	4.170940e+14	5.609022e+14	6.023621e+13	7.979722e+03	6.039105e+03	2.980439e+03	0	8.621729e-04
4.900000e+08	2.926543e+13	0.000000e+00	7.882353e-01	4.121140e+14	5.554705e+14	5.993369e+13	7.958947e+03	6.028030e+03	2.974973e+03	0	8.583424e-04
5.000000e+08	2.888119e+13	0.000000e+00	7.882353e-01	4.072503e+14	5.500850e+14	5.963333e+13	7.938418e+03	6.016973e+03	2.969516e+03	0	8.545694e-04
5.100000e+08	2.850583e+13	0.000000e+00	7.882353e-01	4.024974e+14	5.447500e+14	5.933511e+13	7.918130e+03	6.005943e+03	2.964072e+03	0	8.508510e-04
5.200000e+08	2.813893e+13	0.000000e+00	7.882353e-01	3.978502e+14	5.394691e+14	5.903903e+13	7.898079e+03	5.994948e+03	2.958646e+03	0	8.471848e-04
5.300000e+08	2.778011e+13	0.000000e+00	7.882353e-01	3.933040e+14	5.342452e+14	5.874505e+13	7.878257e+03	5.983995e+03	2.953241e+03	0	8.435684e-04
5.400000e+08	2.742904e+13	0.000000e+00	7.882353e-01	3.888546e+14	5.290808e+14	5.845317e+13	7.858661e+03	5.973091e+03	2.947859e+03	0	8.399997e-04
5.500000e+08	2.708538e+13	0.000000e+00	7.882353e-01	3.844979e+14	5.239774e+14	5.816337e+13	7.839285e+03	5.962241e+03	2.942504e+03	0	8.364769e-04
5.600000e+08	2.674885e+13	0.000000e+00	7.882353e-01	3.802304e+14	5.189367e+14	5.787563e+13	7.820126e+03	5.951449e+03	2.937178e+03	0	8.329981e-04
5.700000e+08	2.641918e+13	0.000000e+00	7.882353e-01	3.760487e+14	5.139596e+14	5.758993e+13	7.801178e+03	5.940719e+03	2.931883e+03	0	8.295617e-04
5.800000e+08	2.609610e+13	0.000000e+00	7.882353e-01	3.719496e+14	5.090468e+14	5.730625e+13	7.782437e+03	5.930054e+03	2.926620e+03	0	8.261664e-04
5.900000e+08	2.577939e+13	0.000000e+00	7.882353e-01	3.679301e+14	5.041991e+14	5.702459e+13	7.763900e+03	5.919457e+03	2.921390e+03	0	8.228105e-04
6.000000e+08	2.546883e+13	0.000000e+00	7.882353e-01	3.639875e+14	4.994165e+14	5.674492e+13	7.745562e+03	5.908931e+03	2.916195e+03	0	8.194930e-04
6.100000e+08	2.516420e+13	0.000000e+00	7.882353e-01	3.601193e+14	4.946991e+14	5.646723e+13	7.727420e+03	5.898477e+03	2.911036e+03	0	8.162126e-04
6.200000e+08	2.486531e+13	0.000000e+00	7.882353e-01	3.563230e+14	4.900469e+14	5.619151e+13	7.709469e+03	5.888097e+03	2.905913e+03	0	8.129682e-04
6.300000e+08	2.457198e+13	0.000000e+00	7.882353e-01	3.525964e+14	4.854595e+14	5.591773e+13	7.691707e+03	5.877792e+03	2.900827e+03	0	8.097588e-04
6.400000e+08	2.428404e+13	0.000000e+00	7.882353e-01	3.489374e+14	4.809365e+14	5.564588e+13	7.674130e+03	5.867563e+03	2.895779e+03	0	8.065834e-04
6.500000e+08	2.400132e+13	0.000000e+00	7.882353e-01	3.453438e+14	4.764775e+14	5.537594e+13	7.656734e+03	5.857410e+03	2.890768e+03	0	8.034411e-04
6.600000e+08	2.372368e+13	0.000000e+00	7.882353e-01	3.418139e+14	4.720819e+14	5.510790e+13	7.639517e+03	5.847334e+03	2.885796e+03	0	8.003310e-04
6.700000e+08	2.345097e+13	0.000000e+00	7.882353e-01	3.383457e+14	4.677491e+14	5.484175e+13	7.622475e+03	5.837337e+03	2.880861e+03	0	7.972525e-04
6.800000e+08	2.318304e+13	0.000000e+00	7.882353e-01	3.349376e+14	4.634785e+14	5.457747e+13	7.605604e+03	5.827416e+03	2.875965e+03	0	7.942046e-04
6.900000e+08	2.291976e+13	0.000000e+00	7.882353e-01	3.315878e+14	4.592690e+14	5.431504e+13	7.588903e+03	5.817574e+03	2.871108e+03	0	7.911867e-04
7.000000e+08	2.266102e+13	0.000000e+00	7.882353e-01	3.282950e+14	4.551201e+14	5.405445e+13	7.572369e+03	5.807809e+03	2.866289e+03	0	7.881982e-04
7.100000e+08	2.240668e+13	0.000000e+00	7.882353e-01	3.250574e+14	4.510308e+14	5.379569e+13	7.555998e+03	5.798121e+03	2.861508e+03	0	7.852383e-04
7.200000e+08	2.215664e+13	0.000000e+00	7.882353e-01	3.218738e+14	4.470003e+14	5.353874e+13	7.539787e+03	5.788511e+03	2.856765e+03	0	7.823065e-04
7.300000e+08	2.191079e+13	0.000000e+00	7.882353e-01	3.187428e+14	4.430278e+14	5.328358e+13	7.523735e+03	5.778977e+03	2.852060e+03	0	7.794022e-04
7.400000e+08	2.166901e+13	0.000000e+00	7.882353e-01	3.156629e+14	4.391124e+14	5.303020e+13	7.507838e+03	5.769520e+03	2.847392e+03	0	7.765248e-04
7.500000e+08	2.143122e+13	0.000000e+00	7.882353e-01	3.126331e+14	4.352532e+14	5.277859e+13	7.492093e+03	5.760138e+03	2.842762e+03	0	7.736738e-04
7.600000e+08	2.119730e+13	0.000000e+00	7.882353e-01	3.096520e+14	4.314490e+14	5.252873e+13	7.476500e+03	5.750832e+03	2.838170e+03	0	7.708487e-04
7.700000e+08	2.096717e+13	0.000000e+00	7.882353e-01	3.067185e+14	4.276994e+14	5.228061e+13	7.461054e+03	5.741601e+03	2.833614e+03	0	7.680490e-04
7.800000e+08	2.074075e+13	0.000000e+00	7.882353e-01	3.038315e+14	4.240030e+14	5.203421e+13	7.445754e+03	5.732444e+03	2.829094e+03	0	7.652742e-04
7.900000e+08	2.051793e+13	0.000000e+00	7.882353e-01	3.009899e+14	4.203592e+14	5.178953e+13	7.430598e+03	5.723360e+03	2.824611e+03	0	7.625239e-04
8.000000e+08	2.029864e+13	0.000000e+00	7.882353e-01	2.981926e+14	4.167670e+14	5.154654e+13	7.415582e+03	5.714349e+03	2.820164e+03	0	7.597977e-04
8.100000e+08	2.008280e+13	0.000000e+00	7.882353e-01	2.954387e+14	4.132255e+14	5.130524e+13	7.400706e+03	5.705410e+03	2.815752e+03	0	7.570950e-04
8.200000e+08	1.987033e+13	0.000000e+00	7.882353e-01	2.927271e+14	4.097338e+14	5.106560e+13	7.385966e+03	5.696542e+03	2.811376e+03	0	7.544156e-04
8.300000e+08	1.966116e+13	0.000000e+00	7.882353e-01	2.900570e+14	4.062911e+14	5.082763e+13	7.371361e+03	5.687745e+03	2.807035e+03	0	7.517590e-04
8.400000e+08	1.945520e+13	0.000000e+00	7.882353e-01	2.874274e+14	4.028964e+14	5.059129e+13	7.356889e+03	5.679018e+03	2.802728e+03	0	7.491248e-04
8.500000e+08	1.925240e+13	0.000000e+00	7.882353e-01	2.848375e+14	3.995490e+14	5.035659e+13	7.342547e+03	5.670360e+03	2.798455e+03	0	7.465127e-04
8.600000e+08	1.905267e+13	0.000000e+00	7.882353e-01	2.822863e+14	3.962479e+14	5.012351e+13	7.328334e+03	5.661771e+03	2.794216e+03	0	7.439224e-04
8.700000e+08	1.885597e+13	0.000000e+00	7.882353e-01	2.797731e+14	3.929924e+14	4.989203e+13	7.314248e+03	5.653249e+03	2.790010e+03	0	7.413533e-04
8.800000e+08	1.866222e+13	0.000000e+00	7.882353e-01	2.772970e+14	3.897816e+14	4.966214e+13	7.300286e+03	5.644794e+03	2.785837e+03	0	7.388054e-04
8.900000e+08	1.847135e+13	0.000000e+00	7.882353e-01	2.748573e+14	3.866147e+14	4.943383e+13	7.286448e+03	5.636405e+03	2.781697e+03	0	7.362781e-04
9.000000e+08	1.828332e+13	0.000000e+00	7.882353e-01	2.724532e+14	3.834910e+14	4.920709e+13	7.272731e+03	5.628082e+03	2.777589e+03	0	7.337712e-04
9.100000e+08	1.809806e+13	0.000000e+00	7.882353e-01	2.700840e+14	3.804095e+14	4.898190e+13	7.259133e+03	5.619823e+03	2.773513e+03	0	7.312843e-04
9.200000e+08	1.791551e+13	0.000000e+00	7.882353e-01	2.677490e+14	3.773697e+14	4.875826e+13	7.245653e+03	5.611628e+03	2.769469e+03	0	7.288173e-04
9.300000e+08	1.773561e+13	0.000000e+00	7.882353e-01	2.654475e+14	3.743707e+14	4.853614e+13	7.232290e+03	5.603496e+03	2.765455e+03	0	7.263697e-04
9.400000e+08	1.755833e+13	0.000000e+00	7.882353e-01	2.631787e+14	3.714119e+14	4.831554e+13	7.219040e+03	5.595426e+03	2.761473e+03	0	7.239413e-04
9.500000e+08	1.738359e+13	0.000000e+00	7.882353e-01	2.609422e+14	3.684923e+14	4.809645e+13	7.205904e+03	5.587418e+03	2.757521e+03	0	7.215317e-04
9.600000e+08	1.721135e+13	0.000000e+00	7.882353e-01	2.587371e+14	3.656115e+14	4.787885e+13	7.192878e+03	5.579471e+03	2.753599e+03	0	7.191409e-04
9.700000e+08	1.704157e+13	0.000000e+00	7.882353e-01	2.565629e+14	3.627686e+14	4.766274e+13	7.179962e+03	5.571584e+03	2.749706e+03	0	7.167684e-04
9.800000e+08	1.687419e+13	0.000000e+00	7.882353e-01	2.544190e+14	3.599630e+14	4.744809e+13	7.167155e+03	5.563756e+03	2.745843e+03	0	7.144139e-04
9.900000e+08	1.670916e+13	0.000000e+00	7.882353e-01	2.523047e+14	3.571941e+14	4.723491e+13	7.154454e+03	5.555987e+03	2.742009e+03	0	7.120774e-04
1.000000e+09	1.654645e+13	0.000000e+00	7.882353e-01	2.502196e+14	3.544612e+14	4.702317e+13	7.141858e+03	5.548276e+03	2.738203e+03	0	7.097584e-04
1.010000e+09	1.638600e+13	0.000000e+00	7.882353e-01	2.481631e+14	3.517636e+14	4.681287e+13	7.129365e+03	5.540622e+03	2.734426e+03	0	7.074568e-04
1.020000e+09	1.622777e+13	0.000000e+00	7.882353e-01	2.461346e+14	3.491006e+14	4.660399e+13	7.116975e+03	5.533025e+03	2.730677e+03	0	7.051723e-04
1.030000e+09	1.607172e+13	0.000000e+00	7.882353e-01	2.441335e+14	3.464718e+14	4.639652e+13	7.104686e+03	5.525484e+03	2.726955e+03	0	7.029046e-04
1.040000e+09	1.591781e+13	0.000000e+00	7.882353e-01	2.421595e+14	3.438766e+14	4.619046e+13	7.092497e+03	5.517998e+03	2.723260e+03	0	7.006536e-04
1.050000e+09	1.576599e+13	0.000000e+00	7.882353e-01	2.402118e+14	3.413142e+14	4.598579e+13	7.080405e+03	5.510567e+03	2.719593e+03	0	6.984190e-04
1.060000e+09	1.561624e+13	0.000000e+00	7.882353e-01	2.382902e+14	3.387842e+14	4.578250e+13	7.068411e+03	5.503189e+03	2.715952e+03	0	6.962006e-04
1.070000e+09	1.546850e+13	0.000000e+00	7.882353e-01	2.363941e+14	3.362860e+14	4.558058e+13	7.056512e+03	5.495865e+03	2.712337e+03	0	6.939982e-04
1.080000e+09	1.532275e+13	0.000000e+00	7.882353e-01	2.345229e+14	3.338189e+14	4.538002e+13	7.044707e+03	5.488594e+03	2.708749e+03	0	6.918116e-04
1.090000e+09	1.517894e+13	0.000000e+00	7.882353e-01	2.326763e+14	3.313826e+14	4.518080e+13	7.032995e+03	5.481374e+03	2.705186e+03	0	6.896405e-04
1.100000e+09	1.503704e+13	0.000000e+00	7.882353e-01	2.308539e+14	3.289765e+14	4.498292e+13	7.021376e+03	5.474206e+03	2.701648e+03	0	6.874848e-04
1.110000e+09	1.489702e+13	0.000000e+00	7.882353e-01	2.290551e+14	3.266000e+14	4.478638e+13	7.009847e+03	5.467089e+03	2.698136e+03	0	6.853442e-04
1.120000e+09	1.475884e+13	0.000000e+00	7.882353e-01	2.272796e+14	3.242526e+14	4.459114e+13	6.998407e+03	5.460022e+03	2.694648e+03	0	6.832186e-04
1.130000e+09	1.462247e+13	0.000000e+00	7.882353e-01	2.255269e+14	3.219338e+14	4.439722e+13	6.987056e+03	5.453005e+03	2.691185e+03	0	6.811078e-04
1.140000e+09	1.448787e+13	0.000000e+00	7.882353e-01	2.237966e+14	3.196433e+14	4.420459e+13	6.975792e+03	5.446037e+03	2.687746e+03	0	6.790116e-04
1.150000e+09	1.435502e+13	0.000000e+00	7.882353e-01	2.220884e+14	3.173804e+14	4.401324e+13	6.964614e+03	5.439117e+03	2.684331e+03	0	6.769297e-04
1.160000e+09	1.422388e+13	0.000000e+00	7.882353e-01	2.204018e+14	3.151447e+14	4.382318e+13	6.953521e+03	5.432245e+03	2.680939e+03	0	6.748620e-04
1.170000e+09	1.409443e+13	0.000000e+00	7.882353e-01	2.187364e+14	3.129358e+14	4.363438e+13	6.942512e+03	5.425420e+03	2.677571e+03	0	6.728084e-04
1.180000e+09	1.396662e+13	0.000000e+00	7.882353e-01	2.170920e+14	3.107532e+14	4.344683e+13	6.931586e+03	5.418642e+03	2.674226e+03	0	6.707686e-04
1.190000e+09	1.384044e+13	0.000000e+00	7.882353e-01	2.154681e+14	3.085965e+14	4.326053e+13	6.920742e+03	5.411911e+03	2.670904e+03	0	6.687426e-04
1.200000e+09	1.371586e+13	0.000000e+00	7.882353e-01	2.138643e+14	3.064652e+14	4.307547e+13	6.909979e+03	5.405225e+03	2.667604e+03	0	6.667300e-04
1.210000e+09	1.359285e+13	0.000000e+00	7.882353e-01	2.122804e+14	3.043590e+14	4.289164e+13	6.899295e+03	5.398584e+03	2.664327e+03	0	6.647307e-04
1.220000e+09	1.347137e+13	0.000000e+00	7.882353e-01	2.107160e+14	3.022774e+14	4.270902e+13	6.888690e+03	5.391988e+03	2.661072e+03	0	6.627447e-04
1.230000e+09	1.335142e+13	0.000000e+00	7.882353e-01	2.091707e+14	3.002200e+14	4.252761e+13	6.878163e+03	5.385436e+03	2.657838e+03	0	6.607717e-04
1.240000e+09	1.323295e+13	0.000000e+00	7.882353e-01	2.076443e+14	2.981865e+14	4.234740e+13	6.867714e+03	5.378928e+03	2.654626e+03	0	6.588115e-04
1.250000e+09	1.311594e+13	0.000000e+00	7.882353e-01	2.061364e+14	2.961764e+14	4.216838e+13	6.857340e+03	5.372463e+03	2.651435e+03	0	6.568640e-04
1.260000e+09	1.300038e+13	0.000000e+00	7.882353e-01	2.046467e+14	2.941894e+14	4.199055e+13	6.847041e+03	5.366041e+03	2.648266e+03	0	6.549291e-04
1.270000e+09	1.288623e+13	0.000000e+00	7.882353e-01	2.031749e+14	2.922250e+14	4.181388e+13	6.836816e+03	5.359660e+03	2.645117e+03	0	6.530066e-04
1.280000e+09	1.277347e+13	0.000000e+00	7.882353e-01	2.017206e+14	2.902830e+14	4.163837e+13	6.826664e+03	5.353322e+03	2.641989e+03	0	6.510963e-04
1.290000e+09	1.266208e+13	0.000000e+00	7.882353e-01	2.002837e+14	2.883630e+14	4.146402e+13	6.816585e+03	5.347025e+03	2.638881e+03	0	6.491981e-04
1.300000e+09	1.255203e+13	0.000000e+00	7.882353e-01	1.988639e+14	2.864646e+14	4.129081e+13	6.806578e+03	5.340769e+03	2.635794e+03	0	6.473119e-04
1.310000e+09	1.244331e+13	0.000000e+00	7.882353e-01	1.974607e+14	2.845875e+14	4.111874e+13	6.796641e+03	5.334553e+03	2.632726e+03	0	6.454376e-04
1.320000e+09	1.233589e+13	0.000000e+00	7.882353e-01	1.960741e+14	2.827314e+14	4.094780e+13	6.786774e+03	5.328377e+03	2.629678e+03	0	6.435748e-04
1.330000e+09	1.222974e+13	0.000000e+00	7.882353e-01	1.947036e+14	2.808958e+14	4.077797e+13	6.776976e+03	5.322240e+03	2.626649e+03	0	6.417237e-04
1.340000e+09	1.212486e+13	0.000000e+00	7.882353e-01	1.933491e+14	2.790806e+14	4.060925e+13	6.767247e+03	5.316142e+03	2.623640e+03	0	6.398839e-04
1.350000e+09	1.202122e+13	0.000000e+00	7.882353e-01	1.920103e+14	2.772854e+14	4.044163e+13	6.757585e+03	5.310084e+03	2.620650e+03	0	6.380555e-04
1.360000e+09	1.191879e+13	0.000000e+00	7.882353e-01	1.906870e+14	2.755099e+14	4.027511e+13	6.747989e+03	5.304063e+03	2.617678e+03	0	6.362381e-04
