#t		Qconv[W]	Ri[Rp]		R*[Rp]		Qc[W]		Qm[W]		Qr[W]		Tcmb[K]		Tl[K]		Tup[K]		RiFlag		Bs[T]
0.000000e+00	2.630750e+14	0.000000e+00	7.764706e-01	2.761340e+15	1.002272e+14	1.478584e+14	1.262775e+04	5.296419e+03	2.365357e+03	0	1.753281e-03
1.000000e+07	2.582074e+14	0.000000e+00	7.764706e-01	2.714562e+15	1.289085e+14	1.470392e+14	1.256644e+04	5.505683e+03	2.458814e+03	0	1.742400e-03
2.000000e+07	2.527274e+14	0.000000e+00	7.764706e-01	2.662117e+15	1.623200e+14	1.462261e+14	1.250616e+04	5.709061e+03	2.549641e+03	0	1.729985e-03
3.000000e+07	2.467190e+14	0.000000e+00	7.764706e-01	2.604790e+15	2.004363e+14	1.454190e+14	1.244705e+04	5.905773e+03	2.637492e+03	0	1.716166e-03
4.000000e+07	2.402729e+14	0.000000e+00	7.764706e-01	2.543427e+15	2.430735e+14	1.446180e+14	1.238920e+04	6.095108e+03	2.722049e+03	0	1.701087e-03
5.000000e+07	2.334829e+14	0.000000e+00	7.764706e-01	2.478900e+15	2.898930e+14	1.438230e+14	1.233271e+04	6.276438e+03	2.803030e+03	0	1.684910e-03
6.000000e+07	2.264431e+14	0.000000e+00	7.764706e-01	2.412088e+15	3.404153e+14	1.430338e+14	1.227765e+04	6.449231e+03	2.880198e+03	0	1.667803e-03
7.000000e+07	2.192453e+14	0.000000e+00	7.764706e-01	2.343844e+15	3.940423e+14	1.422506e+14	1.222407e+04	6.613060e+03	2.953364e+03	0	1.649941e-03
8.000000e+07	2.119760e+14	0.000000e+00	7.764706e-01	2.274974e+15	4.500866e+14	1.414732e+14	1.217200e+04	6.767611e+03	3.022385e+03	0	1.631501e-03
9.000000e+07	2.047147e+14	0.000000e+00	7.764706e-01	2.206217e+15	5.078039e+14	1.407016e+14	1.212145e+04	6.912684e+03	3.087174e+03	0	1.612655e-03
1.000000e+08	1.975322e+14	0.000000e+00	7.764706e-01	2.138229e+15	5.664280e+14	1.399357e+14	1.207243e+04	7.048191e+03	3.147691e+03	0	1.593569e-03
1.100000e+08	1.904894e+14	0.000000e+00	7.764706e-01	2.071578e+15	6.252015e+14	1.391754e+14	1.202492e+04	7.174151e+03	3.203944e+03	0	1.574401e-03
1.200000e+08	1.836370e+14	0.000000e+00	7.764706e-01	2.006734e+15	6.834063e+14	1.384209e+14	1.197888e+04	7.290680e+03	3.255986e+03	0	1.555291e-03
1.300000e+08	1.770156e+14	0.000000e+00	7.764706e-01	1.944073e+15	7.403848e+14	1.376719e+14	1.193428e+04	7.397981e+03	3.303906e+03	0	1.536369e-03
1.400000e+08	1.706561e+14	0.000000e+00	7.764706e-01	1.883880e+15	7.955582e+14	1.369284e+14	1.189107e+04	7.496333e+03	3.347829e+03	0	1.517745e-03
1.500000e+08	1.645802e+14	0.000000e+00	7.764706e-01	1.826357e+15	8.484363e+14	1.361904e+14	1.184919e+04	7.586073e+03	3.387907e+03	0	1.499515e-03
1.600000e+08	1.588015e+14	0.000000e+00	7.764706e-01	1.771629e+15	8.986231e+14	1.354579e+14	1.180859e+04	7.667590e+03	3.424312e+03	0	1.481755e-03
1.700000e+08	1.533267e+14	0.000000e+00	7.764706e-01	1.719756e+15	9.458162e+14	1.347308e+14	1.176920e+04	7.741307e+03	3.457234e+03	0	1.464528e-03
1.800000e+08	1.481566e+14	0.000000e+00	7.764706e-01	1.670743e+15	9.898022e+14	1.340091e+14	1.173096e+04	7.807670e+03	3.486871e+03	0	1.447878e-03
1.900000e+08	1.432871e+14	0.000000e+00	7.764706e-01	1.624552e+15	1.030450e+15	1.332927e+14	1.169381e+04	7.867139e+03	3.513430e+03	0	1.431838e-03
2.000000e+08	1.387102e+14	0.000000e+00	7.764706e-01	1.581106e+15	1.067702e+15	1.325815e+14	1.165768e+04	7.920179e+03	3.537117e+03	0	1.416428e-03
2.100000e+08	1.344153e+14	0.000000e+00	7.764706e-01	1.540305e+15	1.101561e+15	1.318756e+14	1.162251e+04	7.967249e+03	3.558139e+03	0	1.401655e-03
2.200000e+08	1.303893e+14	0.000000e+00	7.764706e-01	1.502027e+15	1.132083e+15	1.311748e+14	1.158825e+04	8.008802e+03	3.576696e+03	0	1.387519e-03
2.300000e+08	1.266182e+14	0.000000e+00	7.764706e-01	1.466139e+15	1.159367e+15	1.304792e+14	1.155484e+04	8.045271e+03	3.592983e+03	0	1.374012e-03
2.400000e+08	1.230868e+14	0.000000e+00	7.764706e-01	1.432499e+15	1.183541e+15	1.297888e+14	1.152223e+04	8.077075e+03	3.607186e+03	0	1.361117e-03
2.500000e+08	1.197798e+14	0.000000e+00	7.764706e-01	1.400962e+15	1.204759e+15	1.291033e+14	1.149036e+04	8.104609e+03	3.619483e+03	0	1.348816e-03
2.600000e+08	1.166817e+14	0.000000e+00	7.764706e-01	1.371386e+15	1.223191e+15	1.284229e+14	1.145919e+04	8.128247e+03	3.630040e+03	0	1.337086e-03
2.700000e+08	1.137775e+14	0.000000e+00	7.764706e-01	1.343628e+15	1.239014e+15	1.277474e+14	1.142868e+04	8.148338e+03	3.639012e+03	0	1.325899e-03
2.800000e+08	1.110526e+14	0.000000e+00	7.764706e-01	1.317552e+15	1.252411e+15	1.270769e+14	1.139878e+04	8.165206e+03	3.646545e+03	0	1.315229e-03
2.900000e+08	1.084932e+14	0.000000e+00	7.764706e-01	1.293029e+15	1.263566e+15	1.264113e+14	1.136946e+04	8.179152e+03	3.652774e+03	0	1.305046e-03
3.000000e+08	1.060861e+14	0.000000e+00	7.764706e-01	1.269935e+15	1.272659e+15	1.257505e+14	1.134069e+04	8.190456e+03	3.657822e+03	0	1.295322e-03
3.100000e+08	1.038189e+14	0.000000e+00	7.764706e-01	1.248155e+15	1.279863e+15	1.250946e+14	1.131242e+04	8.199371e+03	3.661803e+03	0	1.286028e-03
3.200000e+08	1.016803e+14	0.000000e+00	7.764706e-01	1.227581e+15	1.285346e+15	1.244434e+14	1.128465e+04	8.206132e+03	3.664823e+03	0	1.277136e-03
3.300000e+08	9.965944e+13	0.000000e+00	7.764706e-01	1.208114e+15	1.289265e+15	1.237969e+14	1.125732e+04	8.210952e+03	3.666975e+03	0	1.268619e-03
3.400000e+08	9.774663e+13	0.000000e+00	7.764706e-01	1.189661e+15	1.291769e+15	1.231552e+14	1.123043e+04	8.214027e+03	3.668348e+03	0	1.260450e-03
3.500000e+08	9.593280e+13	0.000000e+00	7.764706e-01	1.172139e+15	1.292997e+15	1.225181e+14	1.120395e+04	8.215532e+03	3.669021e+03	0	1.252605e-03
3.600000e+08	9.420965e+13	0.000000e+00	7.764706e-01	1.155470e+15	1.293076e+15	1.218856e+14	1.117786e+04	8.215629e+03	3.669064e+03	0	1.245060e-03
3.700000e+08	9.256964e+13	0.000000e+00	7.764706e-01	1.139582e+15	1.292126e+15	1.212577e+14	1.115214e+04	8.214464e+03	3.668544e+03	0	1.237793e-03
3.800000e+08	9.100585e+13	0.000000e+00	7.764706e-01	1.124412e+15	1.290256e+15	1.206344e+14	1.112677e+04	8.212169e+03	3.667519e+03	0	1.230783e-03
3.900000e+08	8.951200e+13	0.000000e+00	7.764706e-01	1.109900e+15	1.287564e+15	1.200155e+14	1.110173e+04	8.208862e+03	3.666042e+03	0	1.224011e-03
4.000000e+08	8.808239e+13	0.000000e+00	7.764706e-01	1.095993e+15	1.284143e+15	1.194011e+14	1.107702e+04	8.204651e+03	3.664161e+03	0	1.217460e-03
4.100000e+08	8.671183e+13	0.000000e+00	7.764706e-01	1.082643e+15	1.280076e+15	1.187912e+14	1.105262e+04	8.199634e+03	3.661921e+03	0	1.211112e-03
4.200000e+08	8.539563e+13	0.000000e+00	7.764706e-01	1.069806e+15	1.275437e+15	1.181856e+14	1.102851e+04	8.193898e+03	3.659359e+03	0	1.204953e-03
4.300000e+08	8.412950e+13	0.000000e+00	7.764706e-01	1.057441e+15	1.270294e+15	1.175844e+14	1.100469e+04	8.187522e+03	3.656511e+03	0	1.198968e-03
4.400000e+08	8.290960e+13	0.000000e+00	7.764706e-01	1.045513e+15	1.264709e+15	1.169876e+14	1.098114e+04	8.180577e+03	3.653410e+03	0	1.193145e-03
4.500000e+08	8.173243e+13	0.000000e+00	7.764706e-01	1.033989e+15	1.258738e+15	1.163950e+14	1.095786e+04	8.173127e+03	3.650083e+03	0	1.187471e-03
4.600000e+08	8.059480e+13	0.000000e+00	7.764706e-01	1.022838e+15	1.252430e+15	1.158067e+14	1.093483e+04	8.165230e+03	3.646556e+03	0	1.181936e-03
4.700000e+08	7.949385e+13	0.000000e+00	7.764706e-01	1.012035e+15	1.245831e+15	1.152226e+14	1.091205e+04	8.156937e+03	3.642852e+03	0	1.176530e-03
4.800000e+08	7.842698e+13	0.000000e+00	7.764706e-01	1.001554e+15	1.238980e+15	1.146426e+14	1.088951e+04	8.148295e+03	3.638993e+03	0	1.171243e-03
4.900000e+08	7.739182e+13	0.000000e+00	7.764706e-01	9.913742e+14	1.231915e+15	1.140669e+14	1.086720e+04	8.139347e+03	3.634997e+03	0	1.166067e-03
5.000000e+08	7.638624e+13	0.000000e+00	7.764706e-01	9.814747e+14	1.224666e+15	1.134952e+14	1.084512e+04	8.130129e+03	3.630880e+03	0	1.160994e-03
5.100000e+08	7.540828e+13	0.000000e+00	7.764706e-01	9.718375e+14	1.217265e+15	1.129277e+14	1.082326e+04	8.120676e+03	3.626658e+03	0	1.156018e-03
5.200000e+08	7.445619e+13	0.000000e+00	7.764706e-01	9.624460e+14	1.209736e+15	1.123641e+14	1.080161e+04	8.111018e+03	3.622345e+03	0	1.151132e-03
5.300000e+08	7.352836e+13	0.000000e+00	7.764706e-01	9.532853e+14	1.202103e+15	1.118046e+14	1.078017e+04	8.101182e+03	3.617952e+03	0	1.146331e-03
5.400000e+08	7.262333e+13	0.000000e+00	7.764706e-01	9.443416e+14	1.194387e+15	1.112491e+14	1.075894e+04	8.091193e+03	3.613491e+03	0	1.141608e-03
5.500000e+08	7.173976e+13	0.000000e+00	7.764706e-01	9.356024e+14	1.186606e+15	1.106976e+14	1.073790e+04	8.081074e+03	3.608972e+03	0	1.136959e-03
5.600000e+08	7.087646e+13	0.000000e+00	7.764706e-01	9.270564e+14	1.178776e+15	1.101499e+14	1.071706e+04	8.070843e+03	3.604403e+03	0	1.132380e-03
5.700000e+08	7.003230e+13	0.000000e+00	7.764706e-01	9.186931e+14	1.170912e+15	1.096062e+14	1.069640e+04	8.060519e+03	3.599792e+03	0	1.127867e-03
5.800000e+08	6.920629e+13	0.000000e+00	7.764706e-01	9.105030e+14	1.163028e+15	1.090663e+14	1.067593e+04	8.050118e+03	3.595147e+03	0	1.123415e-03
5.900000e+08	6.839749e+13	0.000000e+00	7.764706e-01	9.024775e+14	1.155134e+15	1.085302e+14	1.065565e+04	8.039654e+03	3.590474e+03	0	1.119021e-03
6.000000e+08	6.760505e+13	0.000000e+00	7.764706e-01	8.946086e+14	1.147242e+15	1.079980e+14	1.063554e+04	8.029140e+03	3.585779e+03	0	1.114683e-03
6.100000e+08	6.682819e+13	0.000000e+00	7.764706e-01	8.868889e+14	1.139359e+15	1.074695e+14	1.061560e+04	8.018588e+03	3.581066e+03	0	1.110397e-03
6.200000e+08	6.606621e+13	0.000000e+00	7.764706e-01	8.793116e+14	1.131494e+15	1.069447e+14	1.059584e+04	8.008008e+03	3.576341e+03	0	1.106160e-03
6.300000e+08	6.531843e+13	0.000000e+00	7.764706e-01	8.718707e+14	1.123655e+15	1.064236e+14	1.057625e+04	7.997409e+03	3.571608e+03	0	1.101971e-03
6.400000e+08	6.458426e+13	0.000000e+00	7.764706e-01	8.645604e+14	1.115847e+15	1.059062e+14	1.055682e+04	7.986800e+03	3.566870e+03	0	1.097827e-03
6.500000e+08	6.386313e+13	0.000000e+00	7.764706e-01	8.573753e+14	1.108076e+15	1.053925e+14	1.053755e+04	7.976188e+03	3.562131e+03	0	1.093726e-03
6.600000e+08	6.315453e+13	0.000000e+00	7.764706e-01	8.503106e+14	1.100347e+15	1.048824e+14	1.051845e+04	7.965580e+03	3.557393e+03	0	1.089665e-03
6.700000e+08	6.245796e+13	0.000000e+00	7.764706e-01	8.433618e+14	1.092664e+15	1.043758e+14	1.049950e+04	7.954982e+03	3.552660e+03	0	1.085644e-03
6.800000e+08	6.177299e+13	0.000000e+00	7.764706e-01	8.365247e+14	1.085030e+15	1.038728e+14	1.048070e+04	7.944400e+03	3.547934e+03	0	1.081661e-03
6.900000e+08	6.109920e+13	0.000000e+00	7.764706e-01	8.297952e+14	1.077449e+15	1.033734e+14	1.046206e+04	7.933837e+03	3.543217e+03	0	1.077714e-03
7.000000e+08	6.043621e+13	0.000000e+00	7.764706e-01	8.231698e+14	1.069923e+15	1.028774e+14	1.044356e+04	7.923299e+03	3.538511e+03	0	1.073802e-03
7.100000e+08	5.978364e+13	0.000000e+00	7.764706e-01	8.166450e+14	1.062455e+15	1.023849e+14	1.042522e+04	7.912790e+03	3.533817e+03	0	1.069923e-03
7.200000e+08	5.914118e+13	0.000000e+00	7.764706e-01	8.102178e+14	1.055047e+15	1.018959e+14	1.040701e+04	7.902311e+03	3.529138e+03	0	1.066076e-03
7.300000e+08	5.850849e+13	0.000000e+00	7.764706e-01	8.038849e+14	1.047700e+15	1.014103e+14	1.038895e+04	7.891868e+03	3.524474e+03	0	1.062261e-03
7.400000e+08	5.788528e+13	0.000000e+00	7.764706e-01	7.976438e+14	1.040416e+15	1.009280e+14	1.037103e+04	7.881462e+03	3.519826e+03	0	1.058476e-03
7.500000e+08	5.727127e+13	0.000000e+00	7.764706e-01	7.914916e+14	1.033196e+15	1.004492e+14	1.035325e+04	7.871095e+03	3.515197e+03	0	1.054720e-03
7.600000e+08	5.666621e+13	0.000000e+00	7.764706e-01	7.854260e+14	1.026041e+15	9.997362e+13	1.033561e+04	7.860770e+03	3.510586e+03	0	1.050993e-03
7.700000e+08	5.606984e+13	0.000000e+00	7.764706e-01	7.794446e+14	1.018951e+15	9.950140e+13	1.031810e+04	7.850489e+03	3.505994e+03	0	1.047293e-03
7.800000e+08	5.548194e+13	0.000000e+00	7.764706e-01	7.735451e+14	1.011928e+15	9.903245e+13	1.030073e+04	7.840253e+03	3.501423e+03	0	1.043620e-03
7.900000e+08	5.490227e+13	0.000000e+00	7.764706e-01	7.677255e+14	1.004971e+15	9.856676e+13	1.028348e+04	7.830064e+03	3.496872e+03	0	1.039972e-03
8.000000e+08	5.433063e+13	0.000000e+00	7.764706e-01	7.619838e+14	9.980812e+14	9.810430e+13	1.026636e+04	7.819922e+03	3.492343e+03	0	1.036350e-03
8.100000e+08	5.376682e+13	0.000000e+00	7.764706e-01	7.563180e+14	9.912581e+14	9.764505e+13	1.024938e+04	7.809830e+03	3.487836e+03	0	1.032753e-03
8.200000e+08	5.321065e+13	0.000000e+00	7.764706e-01	7.507264e+14	9.845023e+14	9.718898e+13	1.023251e+04	7.799787e+03	3.483351e+03	0	1.029180e-03
8.300000e+08	5.266194e+13	0.000000e+00	7.764706e-01	7.452073e+14	9.778130e+14	9.673605e+13	1.021578e+04	7.789795e+03	3.478888e+03	0	1.025630e-03
8.400000e+08	5.212052e+13	0.000000e+00	7.764706e-01	7.397589e+14	9.711908e+14	9.628626e+13	1.019916e+04	7.779854e+03	3.474449e+03	0	1.022103e-03
8.500000e+08	5.158623e+13	0.000000e+00	7.764706e-01	7.343799e+14	9.646352e+14	9.583957e+13	1.018267e+04	7.769965e+03	3.470032e+03	0	1.018598e-03
8.600000e+08	5.105890e+13	0.000000e+00	7.764706e-01	7.290686e+14	9.581456e+14	9.539596e+13	1.016629e+04	7.760129e+03	3.465639e+03	0	1.015116e-03
8.700000e+08	5.053839e+13	0.000000e+00	7.764706e-01	7.238236e+14	9.517221e+14	9.495540e+13	1.015004e+04	7.750344e+03	3.461270e+03	0	1.011654e-03
8.800000e+08	5.002455e+13	0.000000e+00	7.764706e-01	7.186435e+14	9.453640e+14	9.451788e+13	1.013390e+04	7.740613e+03	3.456924e+03	0	1.008214e-03
8.900000e+08	4.951725e+13	0.000000e+00	7.764706e-01	7.135270e+14	9.390708e+14	9.408336e+13	1.011787e+04	7.730935e+03	3.452602e+03	0	1.004794e-03
9.000000e+08	4.901635e+13	0.000000e+00	7.764706e-01	7.084729e+14	9.328425e+14	9.365182e+13	1.010196e+04	7.721310e+03	3.448303e+03	0	1.001395e-03
9.100000e+08	4.852172e+13	0.000000e+00	7.764706e-01	7.034799e+14	9.266781e+14	9.322324e+13	1.008616e+04	7.711739e+03	3.444029e+03	0	9.980150e-04
9.200000e+08	4.803324e+13	0.000000e+00	7.764706e-01	6.985469e+14	9.205768e+14	9.279759e+13	1.007047e+04	7.702220e+03	3.439778e+03	0	9.946546e-04
9.300000e+08	4.755078e+13	0.000000e+00	7.764706e-01	6.936726e+14	9.145388e+14	9.237486e+13	1.005489e+04	7.692756e+03	3.435551e+03	0	9.913132e-04
9.400000e+08	4.707425e+13	0.000000e+00	7.764706e-01	6.888560e+14	9.085628e+14	9.195501e+13	1.003942e+04	7.683344e+03	3.431348e+03	0	9.879905e-04
9.500000e+08	4.660351e+13	0.000000e+00	7.764706e-01	6.840960e+14	9.026486e+14	9.153803e+13	1.002406e+04	7.673985e+03	3.427168e+03	0	9.846863e-04
9.600000e+08	4.613848e+13	0.000000e+00	7.764706e-01	6.793917e+14	8.967954e+14	9.112390e+13	1.000880e+04	7.664680e+03	3.423013e+03	0	9.814001e-04
9.700000e+08	4.567903e+13	0.000000e+00	7.764706e-01	6.747419e+14	8.910025e+14	9.071258e+13	9.993650e+03	7.655427e+03	3.418880e+03	0	9.781316e-04
9.800000e+08	4.522507e+13	0.000000e+00	7.764706e-01	6.701457e+14	8.852694e+14	9.030407e+13	9.978601e+03	7.646227e+03	3.414772e+03	0	9.748806e-04
9.900000e+08	4.477651e+13	0.000000e+00	7.764706e-01	6.656023e+14	8.795954e+14	8.989833e+13	9.963654e+03	7.637080e+03	3.410686e+03	0	9.716468e-04
1.000000e+09	4.433325e+13	0.000000e+00	7.764706e-01	6.611106e+14	8.739796e+14	8.949534e+13	9.948808e+03	7.627984e+03	3.406624e+03	0	9.684299e-04
1.010000e+09	4.389519e+13	0.000000e+00	7.764706e-01	6.566697e+14	8.684217e+14	8.909509e+13	9.934062e+03	7.618940e+03	3.402586e+03	0	9.652296e-04
1.020000e+09	4.346224e+13	0.000000e+00	7.764706e-01	6.522789e+14	8.629207e+14	8.869755e+13	9.919414e+03	7.609949e+03	3.398570e+03	0	9.620457e-04
1.030000e+09	4.303433e+13	0.000000e+00	7.764706e-01	6.479373e+14	8.574759e+14	8.830270e+13	9.904865e+03	7.601008e+03	3.394577e+03	0	9.588780e-04
1.040000e+09	4.261136e+13	0.000000e+00	7.764706e-01	6.436441e+14	8.520869e+14	8.791052e+13	9.890411e+03	7.592118e+03	3.390607e+03	0	9.557261e-04
1.050000e+09	4.219325e+13	0.000000e+00	7.764706e-01	6.393984e+14	8.467529e+14	8.752098e+13	9.876054e+03	7.583280e+03	3.386659e+03	0	9.525899e-04
1.060000e+09	4.177992e+13	0.000000e+00	7.764706e-01	6.351996e+14	8.414731e+14	8.713408e+13	9.861790e+03	7.574491e+03	3.382735e+03	0	9.494692e-04
1.070000e+09	4.137130e+13	0.000000e+00	7.764706e-01	6.310467e+14	8.362471e+14	8.674978e+13	9.847620e+03	7.565753e+03	3.378832e+03	0	9.463636e-04
1.080000e+09	4.096730e+13	0.000000e+00	7.764706e-01	6.269392e+14	8.310740e+14	8.636806e+13	9.833543e+03	7.557064e+03	3.374952e+03	0	9.432731e-04
1.090000e+09	4.056785e+13	0.000000e+00	7.764706e-01	6.228763e+14	8.259530e+14	8.598892e+13	9.819556e+03	7.548424e+03	3.371093e+03	0	9.401973e-04
1.100000e+09	4.017288e+13	0.000000e+00	7.764706e-01	6.188573e+14	8.208840e+14	8.561231e+13	9.805660e+03	7.539834e+03	3.367257e+03	0	9.371361e-04
1.110000e+09	3.978232e+13	0.000000e+00	7.764706e-01	6.148815e+14	8.158658e+14	8.523824e+13	9.791854e+03	7.531292e+03	3.363442e+03	0	9.340892e-04
1.120000e+09	3.939610e+13	0.000000e+00	7.764706e-01	6.109482e+14	8.108977e+14	8.486667e+13	9.778135e+03	7.522798e+03	3.359649e+03	0	9.310566e-04
1.130000e+09	3.901415e+13	0.000000e+00	7.764706e-01	6.070569e+14	8.059796e+14	8.449758e+13	9.764505e+03	7.514352e+03	3.355877e+03	0	9.280379e-04
1.140000e+09	3.863640e+13	0.000000e+00	7.764706e-01	6.032067e+14	8.011104e+14	8.413097e+13	9.750961e+03	7.505954e+03	3.352126e+03	0	9.250330e-04
1.150000e+09	3.826279e+13	0.000000e+00	7.764706e-01	5.993972e+14	7.962896e+14	8.376680e+13	9.737502e+03	7.497603e+03	3.348397e+03	0	9.220417e-04
1.160000e+09	3.789326e+13	0.000000e+00	7.764706e-01	5.956277e+14	7.915166e+14	8.340506e+13	9.724128e+03	7.489299e+03	3.344688e+03	0	9.190638e-04
1.170000e+09	3.752774e+13	0.000000e+00	7.764706e-01	5.918976e+14	7.867907e+14	8.304573e+13	9.710839e+03	7.481040e+03	3.341000e+03	0	9.160992e-04
1.180000e+09	3.716618e+13	0.000000e+00	7.764706e-01	5.882063e+14	7.821114e+14	8.268879e+13	9.697632e+03	7.472828e+03	3.337332e+03	0	9.131476e-04
1.190000e+09	3.680851e+13	0.000000e+00	7.764706e-01	5.845533e+14	7.774780e+14	8.233422e+13	9.684507e+03	7.464662e+03	3.333685e+03	0	9.102089e-04
1.200000e+09	3.645468e+13	0.000000e+00	7.764706e-01	5.809380e+14	7.728900e+14	8.198201e+13	9.671463e+03	7.456541e+03	3.330058e+03	0	9.072830e-04
1.210000e+09	3.610463e+13	0.000000e+00	7.764706e-01	5.773598e+14	7.683467e+14	8.163214e+13	9.658500e+03	7.448464e+03	3.326452e+03	0	9.043696e-04
1.220000e+09	3.575830e+13	0.000000e+00	7.764706e-01	5.738182e+14	7.638478e+14	8.128458e+13	9.645617e+03	7.440432e+03	3.322865e+03	0	9.014686e-04
1.230000e+09	3.541564e+13	0.000000e+00	7.764706e-01	5.703127e+14	7.593924e+14	8.093932e+13	9.632812e+03	7.432445e+03	3.319297e+03	0	8.985799e-04
1.240000e+09	3.507659e+13	0.000000e+00	7.764706e-01	5.668428e+14	7.549800e+14	8.059634e+13	9.620085e+03	7.424500e+03	3.315749e+03	0	8.957032e-04
1.250000e+09	3.474111e+13	0.000000e+00	7.764706e-01	5.634079e+14	7.506102e+14	8.025563e+13	9.607436e+03	7.416600e+03	3.312221e+03	0	8.928385e-04
1.260000e+09	3.440914e+13	0.000000e+00	7.764706e-01	5.600076e+14	7.462823e+14	7.991716e+13	9.594863e+03	7.408742e+03	3.308712e+03	0	8.899855e-04
1.270000e+09	3.408063e+13	0.000000e+00	7.764706e-01	5.566413e+14	7.419958e+14	7.958093e+13	9.582365e+03	7.400927e+03	3.305222e+03	0	8.871442e-04
1.280000e+09	3.375553e+13	0.000000e+00	7.764706e-01	5.533086e+14	7.377501e+14	7.924690e+13	9.569943e+03	7.393154e+03	3.301750e+03	0	8.843143e-04
1.290000e+09	3.343380e+13	0.000000e+00	7.764706e-01	5.500090e+14	7.335448e+14	7.891507e+13	9.557594e+03	7.385423e+03	3.298298e+03	0	8.814958e-04
1.300000e+09	3.311538e+13	0.000000e+00	7.764706e-01	5.467421e+14	7.293794e+14	7.858542e+13	9.545319e+03	7.377734e+03	3.294864e+03	0	8.786884e-04
1.310000e+09	3.280023e+13	0.000000e+00	7.764706e-01	5.435074e+14	7.252532e+14	7.825793e+13	9.533117e+03	7.370086e+03	3.291448e+03	0	8.758921e-04
1.320000e+09	3.248830e+13	0.000000e+00	7.764706e-01	5.403044e+14	7.211659e+14	7.793258e+13	9.520987e+03	7.362478e+03	3.288051e+03	0	8.731067e-04
1.330000e+09	3.217955e+13	0.000000e+00	7.764706e-01	5.371328e+14	7.171169e+14	7.760936e+13	9.508928e+03	7.354911e+03	3.284671e+03	0	8.703321e-04
1.340000e+09	3.187394e+13	0.000000e+00	7.764706e-01	5.339920e+14	7.131056e+14	7.728826e+13	9.496939e+03	7.347385e+03	3.281310e+03	0	8.675681e-04
1.350000e+09	3.157141e+13	0.000000e+00	7.764706e-01	5.308818e+14	7.091318e+14	7.696925e+13	9.485021e+03	7.339898e+03	3.277966e+03	0	8.648146e-04
1.360000e+09	3.127194e+13	0.000000e+00	7.764706e-01	5.278016e+14	7.051949e+14	7.665232e+13	9.473172e+03	7.332450e+03	3.274640e+03	0	8.620714e-04
