#t		Qconv[W]	Ri[Rp]		R*[Rp]		Qc[W]		Qm[W]		Qr[W]		Tcmb[K]		Tl[K]		Tup[K]		RiFlag		Bs[T]
0.000000e+00	3.033544e+14	0.000000e+00	7.764708e-01	3.136425e+15	1.018798e+14	1.578553e+14	1.320137e+04	5.461696e+03	2.389113e+03	0	1.833810e-03
1.000000e+07	2.979921e+14	0.000000e+00	7.764708e-01	3.086010e+15	1.325317e+14	1.569807e+14	1.313861e+04	5.686361e+03	2.487388e+03	0	1.822940e-03
2.000000e+07	2.918621e+14	0.000000e+00	7.764708e-01	3.028671e+15	1.685910e+14	1.561126e+14	1.307685e+04	5.905043e+03	2.583047e+03	0	1.810354e-03
3.000000e+07	2.850629e+14	0.000000e+00	7.764708e-01	2.965305e+15	2.100919e+14	1.552510e+14	1.301624e+04	6.116868e+03	2.675705e+03	0	1.796185e-03
4.000000e+07	2.777021e+14	0.000000e+00	7.764708e-01	2.896891e+15	2.568840e+14	1.543958e+14	1.295689e+04	6.321029e+03	2.765011e+03	0	1.780590e-03
5.000000e+07	2.698927e+14	0.000000e+00	7.764708e-01	2.824452e+15	3.086320e+14	1.535470e+14	1.289891e+04	6.516807e+03	2.850651e+03	0	1.763740e-03
6.000000e+07	2.617489e+14	0.000000e+00	7.764708e-01	2.749029e+15	3.648287e+14	1.527046e+14	1.284238e+04	6.703585e+03	2.932353e+03	0	1.745819e-03
7.000000e+07	2.533833e+14	0.000000e+00	7.764708e-01	2.671641e+15	4.248182e+14	1.518684e+14	1.278734e+04	6.880859e+03	3.009898e+03	0	1.727018e-03
8.000000e+07	2.449028e+14	0.000000e+00	7.764708e-01	2.593258e+15	4.878291e+14	1.510384e+14	1.273386e+04	7.048249e+03	3.083120e+03	0	1.707532e-03
9.000000e+07	2.364063e+14	0.000000e+00	7.764708e-01	2.514776e+15	5.530121e+14	1.502146e+14	1.268194e+04	7.205502e+03	3.151907e+03	0	1.687552e-03
1.000000e+08	2.279822e+14	0.000000e+00	7.764708e-01	2.436996e+15	6.194810e+14	1.493969e+14	1.263158e+04	7.352488e+03	3.216203e+03	0	1.667264e-03
1.100000e+08	2.197074e+14	0.000000e+00	7.764708e-01	2.360613e+15	6.863513e+14	1.485853e+14	1.258278e+04	7.489197e+03	3.276004e+03	0	1.646844e-03
1.200000e+08	2.116461e+14	0.000000e+00	7.764708e-01	2.286210e+15	7.527753e+14	1.477797e+14	1.253551e+04	7.615732e+03	3.331354e+03	0	1.626451e-03
1.300000e+08	2.038503e+14	0.000000e+00	7.764708e-01	2.214255e+15	8.179720e+14	1.469800e+14	1.248972e+04	7.732291e+03	3.382340e+03	0	1.606231e-03
1.400000e+08	1.963595e+14	0.000000e+00	7.764708e-01	2.145104e+15	8.812477e+14	1.461863e+14	1.244537e+04	7.839159e+03	3.429088e+03	0	1.586310e-03
1.500000e+08	1.892021e+14	0.000000e+00	7.764708e-01	2.079014e+15	9.420116e+14	1.453985e+14	1.240240e+04	7.936693e+03	3.471752e+03	0	1.566797e-03
1.600000e+08	1.823963e+14	0.000000e+00	7.764708e-01	2.016147e+15	9.997813e+14	1.446164e+14	1.236075e+04	8.025305e+03	3.510514e+03	0	1.547781e-03
1.700000e+08	1.759516e+14	0.000000e+00	7.764708e-01	1.956588e+15	1.054186e+15	1.438402e+14	1.232035e+04	8.105448e+03	3.545571e+03	0	1.529333e-03
1.800000e+08	1.698699e+14	0.000000e+00	7.764708e-01	1.900351e+15	1.104959e+15	1.430696e+14	1.228115e+04	8.177604e+03	3.577134e+03	0	1.511505e-03
1.900000e+08	1.641470e+14	0.000000e+00	7.764708e-01	1.847397e+15	1.151932e+15	1.423048e+14	1.224307e+04	8.242272e+03	3.605422e+03	0	1.494337e-03
2.000000e+08	1.587739e+14	0.000000e+00	7.764708e-01	1.797643e+15	1.195026e+15	1.415455e+14	1.220605e+04	8.299956e+03	3.630654e+03	0	1.477851e-03
2.100000e+08	1.537379e+14	0.000000e+00	7.764708e-01	1.750971e+15	1.234234e+15	1.407919e+14	1.217002e+04	8.351158e+03	3.653052e+03	0	1.462058e-03
2.200000e+08	1.490238e+14	0.000000e+00	7.764708e-01	1.707241e+15	1.269612e+15	1.400438e+14	1.213493e+04	8.396369e+03	3.672829e+03	0	1.446958e-03
2.300000e+08	1.446143e+14	0.000000e+00	7.764708e-01	1.666296e+15	1.301267e+15	1.393011e+14	1.210071e+04	8.436065e+03	3.690193e+03	0	1.432544e-03
2.400000e+08	1.404914e+14	0.000000e+00	7.764708e-01	1.627971e+15	1.329345e+15	1.385639e+14	1.206730e+04	8.470702e+03	3.705344e+03	0	1.418799e-03
2.500000e+08	1.366365e+14	0.000000e+00	7.764708e-01	1.592096e+15	1.354020e+15	1.378322e+14	1.203467e+04	8.500712e+03	3.718472e+03	0	1.405702e-03
2.600000e+08	1.330310e+14	0.000000e+00	7.764708e-01	1.558500e+15	1.375485e+15	1.371057e+14	1.200275e+04	8.526503e+03	3.729753e+03	0	1.393227e-03
2.700000e+08	1.296565e+14	0.000000e+00	7.764708e-01	1.527018e+15	1.393946e+15	1.363846e+14	1.197150e+04	8.548456e+03	3.739356e+03	0	1.381345e-03
2.800000e+08	1.264956e+14	0.000000e+00	7.764708e-01	1.497487e+15	1.409615e+15	1.356688e+14	1.194088e+04	8.566926e+03	3.747435e+03	0	1.370028e-03
2.900000e+08	1.235314e+14	0.000000e+00	7.764708e-01	1.469756e+15	1.422702e+15	1.349581e+14	1.191086e+04	8.582241e+03	3.754135e+03	0	1.359241e-03
3.000000e+08	1.207479e+14	0.000000e+00	7.764708e-01	1.443678e+15	1.433416e+15	1.342527e+14	1.188138e+04	8.594704e+03	3.759586e+03	0	1.348955e-03
3.100000e+08	1.181303e+14	0.000000e+00	7.764708e-01	1.419118e+15	1.441959e+15	1.335524e+14	1.185243e+04	8.604593e+03	3.763912e+03	0	1.339136e-03
3.200000e+08	1.156648e+14	0.000000e+00	7.764708e-01	1.395949e+15	1.448522e+15	1.328572e+14	1.182397e+04	8.612163e+03	3.767223e+03	0	1.329754e-03
3.300000e+08	1.133384e+14	0.000000e+00	7.764708e-01	1.374054e+15	1.453288e+15	1.321670e+14	1.179597e+04	8.617645e+03	3.769622e+03	0	1.320778e-03
3.400000e+08	1.111394e+14	0.000000e+00	7.764708e-01	1.353326e+15	1.456430e+15	1.314819e+14	1.176842e+04	8.621252e+03	3.771199e+03	0	1.312180e-03
3.500000e+08	1.090568e+14	0.000000e+00	7.764708e-01	1.333664e+15	1.458107e+15	1.308017e+14	1.174127e+04	8.623174e+03	3.772040e+03	0	1.303933e-03
3.600000e+08	1.070808e+14	0.000000e+00	7.764708e-01	1.314979e+15	1.458467e+15	1.301265e+14	1.171452e+04	8.623587e+03	3.772221e+03	0	1.296009e-03
3.700000e+08	1.052021e+14	0.000000e+00	7.764708e-01	1.297187e+15	1.457647e+15	1.294561e+14	1.168814e+04	8.622647e+03	3.771810e+03	0	1.288385e-03
3.800000e+08	1.034127e+14	0.000000e+00	7.764708e-01	1.280213e+15	1.455773e+15	1.287906e+14	1.166212e+04	8.620498e+03	3.770869e+03	0	1.281038e-03
3.900000e+08	1.017049e+14	0.000000e+00	7.764708e-01	1.263989e+15	1.452960e+15	1.281299e+14	1.163643e+04	8.617268e+03	3.769456e+03	0	1.273947e-03
4.000000e+08	1.000719e+14	0.000000e+00	7.764708e-01	1.248452e+15	1.449311e+15	1.274740e+14	1.161108e+04	8.613072e+03	3.767621e+03	0	1.267092e-03
4.100000e+08	9.850764e+13	0.000000e+00	7.764708e-01	1.233547e+15	1.444924e+15	1.268228e+14	1.158603e+04	8.608017e+03	3.765410e+03	0	1.260455e-03
4.200000e+08	9.700641e+13	0.000000e+00	7.764708e-01	1.219221e+15	1.439883e+15	1.261763e+14	1.156128e+04	8.602194e+03	3.762863e+03	0	1.254020e-03
4.300000e+08	9.556319e+13	0.000000e+00	7.764708e-01	1.205429e+15	1.434267e+15	1.255345e+14	1.153681e+04	8.595691e+03	3.760018e+03	0	1.247770e-03
4.400000e+08	9.417338e+13	0.000000e+00	7.764708e-01	1.192129e+15	1.428146e+15	1.248972e+14	1.151263e+04	8.588582e+03	3.756908e+03	0	1.241691e-03
4.500000e+08	9.283286e+13	0.000000e+00	7.764708e-01	1.179283e+15	1.421584e+15	1.242646e+14	1.148870e+04	8.580936e+03	3.753564e+03	0	1.235771e-03
4.600000e+08	9.153786e+13	0.000000e+00	7.764708e-01	1.166857e+15	1.414637e+15	1.236365e+14	1.146504e+04	8.572815e+03	3.750011e+03	0	1.229998e-03
4.700000e+08	9.028501e+13	0.000000e+00	7.764708e-01	1.154820e+15	1.407358e+15	1.230129e+14	1.144162e+04	8.564274e+03	3.746275e+03	0	1.224361e-03
4.800000e+08	8.907123e+13	0.000000e+00	7.764708e-01	1.143144e+15	1.399791e+15	1.223938e+14	1.141845e+04	8.555363e+03	3.742377e+03	0	1.218849e-03
4.900000e+08	8.789376e+13	0.000000e+00	7.764708e-01	1.131804e+15	1.391979e+15	1.217791e+14	1.139551e+04	8.546127e+03	3.738337e+03	0	1.213455e-03
5.000000e+08	8.675007e+13	0.000000e+00	7.764708e-01	1.120776e+15	1.383959e+15	1.211688e+14	1.137279e+04	8.536605e+03	3.734172e+03	0	1.208168e-03
5.100000e+08	8.563790e+13	0.000000e+00	7.764708e-01	1.110041e+15	1.375762e+15	1.205628e+14	1.135030e+04	8.526834e+03	3.729898e+03	0	1.202983e-03
5.200000e+08	8.455519e+13	0.000000e+00	7.764708e-01	1.099578e+15	1.367419e+15	1.199612e+14	1.132802e+04	8.516846e+03	3.725529e+03	0	1.197892e-03
5.300000e+08	8.350006e+13	0.000000e+00	7.764708e-01	1.089372e+15	1.358956e+15	1.193639e+14	1.130594e+04	8.506670e+03	3.721078e+03	0	1.192888e-03
5.400000e+08	8.247081e+13	0.000000e+00	7.764708e-01	1.079406e+15	1.350397e+15	1.187708e+14	1.128408e+04	8.496332e+03	3.716555e+03	0	1.187967e-03
5.500000e+08	8.146590e+13	0.000000e+00	7.764708e-01	1.069666e+15	1.341763e+15	1.181820e+14	1.126241e+04	8.485855e+03	3.711973e+03	0	1.183122e-03
5.600000e+08	8.048393e+13	0.000000e+00	7.764708e-01	1.060139e+15	1.333072e+15	1.175973e+14	1.124094e+04	8.475261e+03	3.707338e+03	0	1.178349e-03
5.700000e+08	7.952361e+13	0.000000e+00	7.764708e-01	1.050815e+15	1.324341e+15	1.170168e+14	1.121966e+04	8.464568e+03	3.702661e+03	0	1.173644e-03
5.800000e+08	7.858377e+13	0.000000e+00	7.764708e-01	1.041681e+15	1.315584e+15	1.164404e+14	1.119856e+04	8.453793e+03	3.697947e+03	0	1.169002e-03
5.900000e+08	7.766336e+13	0.000000e+00	7.764708e-01	1.032729e+15	1.306814e+15	1.158681e+14	1.117765e+04	8.442951e+03	3.693205e+03	0	1.164420e-03
6.000000e+08	7.676138e+13	0.000000e+00	7.764708e-01	1.023949e+15	1.298044e+15	1.152998e+14	1.115691e+04	8.432056e+03	3.688439e+03	0	1.159894e-03
6.100000e+08	7.587696e+13	0.000000e+00	7.764708e-01	1.015333e+15	1.289283e+15	1.147356e+14	1.113636e+04	8.421119e+03	3.683655e+03	0	1.155423e-03
6.200000e+08	7.500927e+13	0.000000e+00	7.764708e-01	1.006874e+15	1.280541e+15	1.141754e+14	1.111597e+04	8.410153e+03	3.678858e+03	0	1.151001e-03
6.300000e+08	7.415755e+13	0.000000e+00	7.764708e-01	9.985642e+14	1.271824e+15	1.136191e+14	1.109575e+04	8.399166e+03	3.674052e+03	0	1.146628e-03
6.400000e+08	7.332112e+13	0.000000e+00	7.764708e-01	9.903979e+14	1.263141e+15	1.130667e+14	1.107570e+04	8.388168e+03	3.669241e+03	0	1.142301e-03
6.500000e+08	7.249933e+13	0.000000e+00	7.764708e-01	9.823691e+14	1.254498e+15	1.125182e+14	1.105582e+04	8.377166e+03	3.664428e+03	0	1.138017e-03
6.600000e+08	7.169159e+13	0.000000e+00	7.764708e-01	9.744723e+14	1.245899e+15	1.119736e+14	1.103609e+04	8.366167e+03	3.659617e+03	0	1.133775e-03
6.700000e+08	7.089737e+13	0.000000e+00	7.764708e-01	9.667025e+14	1.237350e+15	1.114328e+14	1.101652e+04	8.355177e+03	3.654810e+03	0	1.129573e-03
6.800000e+08	7.011614e+13	0.000000e+00	7.764708e-01	9.590550e+14	1.228855e+15	1.108958e+14	1.099711e+04	8.344203e+03	3.650009e+03	0	1.125409e-03
6.900000e+08	6.934746e+13	0.000000e+00	7.764708e-01	9.515256e+14	1.220417e+15	1.103626e+14	1.097785e+04	8.333248e+03	3.645218e+03	0	1.121281e-03
7.000000e+08	6.859087e+13	0.000000e+00	7.764708e-01	9.441102e+14	1.212039e+15	1.098331e+14	1.095874e+04	8.322318e+03	3.640437e+03	0	1.117188e-03
7.100000e+08	6.784597e+13	0.000000e+00	7.764708e-01	9.368050e+14	1.203724e+15	1.093073e+14	1.093978e+04	8.311417e+03	3.635668e+03	0	1.113129e-03
7.200000e+08	6.711238e+13	0.000000e+00	7.764708e-01	9.296067e+14	1.195474e+15	1.087852e+14	1.092097e+04	8.300548e+03	3.630913e+03	0	1.109103e-03
7.300000e+08	6.638975e+13	0.000000e+00	7.764708e-01	9.225117e+14	1.187292e+15	1.082667e+14	1.090230e+04	8.289713e+03	3.626174e+03	0	1.105108e-03
7.400000e+08	6.567775e+13	0.000000e+00	7.764708e-01	9.155172e+14	1.179178e+15	1.077519e+14	1.088377e+04	8.278917e+03	3.621451e+03	0	1.101143e-03
7.500000e+08	6.497605e+13	0.000000e+00	7.764708e-01	9.086203e+14	1.171133e+15	1.072407e+14	1.086538e+04	8.268161e+03	3.616746e+03	0	1.097207e-03
7.600000e+08	6.428438e+13	0.000000e+00	7.764708e-01	9.018181e+14	1.163160e+15	1.067330e+14	1.084713e+04	8.257448e+03	3.612060e+03	0	1.093300e-03
7.700000e+08	6.360245e+13	0.000000e+00	7.764708e-01	8.951082e+14	1.155259e+15	1.062288e+14	1.082902e+04	8.246779e+03	3.607393e+03	0	1.089420e-03
7.800000e+08	6.293000e+13	0.000000e+00	7.764708e-01	8.884881e+14	1.147430e+15	1.057282e+14	1.081104e+04	8.236156e+03	3.602746e+03	0	1.085567e-03
7.900000e+08	6.226679e+13	0.000000e+00	7.764708e-01	8.819556e+14	1.139674e+15	1.052310e+14	1.079319e+04	8.225581e+03	3.598121e+03	0	1.081740e-03
8.000000e+08	6.161258e+13	0.000000e+00	7.764708e-01	8.755085e+14	1.131991e+15	1.047373e+14	1.077547e+04	8.215054e+03	3.593516e+03	0	1.077938e-03
8.100000e+08	6.096715e+13	0.000000e+00	7.764708e-01	8.691447e+14	1.124382e+15	1.042470e+14	1.075789e+04	8.204578e+03	3.588933e+03	0	1.074161e-03
8.200000e+08	6.033029e+13	0.000000e+00	7.764708e-01	8.628622e+14	1.116846e+15	1.037601e+14	1.074043e+04	8.194152e+03	3.584373e+03	0	1.070408e-03
8.300000e+08	5.970180e+13	0.000000e+00	7.764708e-01	8.566593e+14	1.109384e+15	1.032765e+14	1.072309e+04	8.183778e+03	3.579835e+03	0	1.066678e-03
8.400000e+08	5.908149e+13	0.000000e+00	7.764708e-01	8.505342e+14	1.101995e+15	1.027963e+14	1.070588e+04	8.173457e+03	3.575320e+03	0	1.062971e-03
8.500000e+08	5.846918e+13	0.000000e+00	7.764708e-01	8.444850e+14	1.094678e+15	1.023194e+14	1.068880e+04	8.163189e+03	3.570828e+03	0	1.059286e-03
8.600000e+08	5.786469e+13	0.000000e+00	7.764708e-01	8.385103e+14	1.087435e+15	1.018458e+14	1.067183e+04	8.152973e+03	3.566360e+03	0	1.055623e-03
8.700000e+08	5.726786e+13	0.000000e+00	7.764708e-01	8.326085e+14	1.080263e+15	1.013755e+14	1.065498e+04	8.142812e+03	3.561915e+03	0	1.051981e-03
8.800000e+08	5.667853e+13	0.000000e+00	7.764708e-01	8.267781e+14	1.073164e+15	1.009084e+14	1.063825e+04	8.132705e+03	3.557494e+03	0	1.048360e-03
8.900000e+08	5.609653e+13	0.000000e+00	7.764708e-01	8.210176e+14	1.066136e+15	1.004445e+14	1.062164e+04	8.122652e+03	3.553096e+03	0	1.044759e-03
9.000000e+08	5.552174e+13	0.000000e+00	7.764708e-01	8.153257e+14	1.059179e+15	9.998374e+13	1.060515e+04	8.112653e+03	3.548723e+03	0	1.041179e-03
9.100000e+08	5.495400e+13	0.000000e+00	7.764708e-01	8.097010e+14	1.052292e+15	9.952618e+13	1.058876e+04	8.102709e+03	3.544373e+03	0	1.037618e-03
9.200000e+08	5.439318e+13	0.000000e+00	7.764708e-01	8.041423e+14	1.045475e+15	9.907176e+13	1.057250e+04	8.092819e+03	3.540047e+03	0	1.034076e-03
9.300000e+08	5.383914e+13	0.000000e+00	7.764708e-01	7.986483e+14	1.038727e+15	9.862045e+13	1.055634e+04	8.082984e+03	3.535744e+03	0	1.030553e-03
9.400000e+08	5.329176e+13	0.000000e+00	7.764708e-01	7.932179e+14	1.032047e+15	9.817221e+13	1.054029e+04	8.073203e+03	3.531466e+03	0	1.027048e-03
9.500000e+08	5.275092e+13	0.000000e+00	7.764708e-01	7.878499e+14	1.025436e+15	9.772704e+13	1.052435e+04	8.063477e+03	3.527211e+03	0	1.023562e-03
9.600000e+08	5.221650e+13	0.000000e+00	7.764708e-01	7.825432e+14	1.018891e+15	9.728491e+13	1.050852e+04	8.053804e+03	3.522980e+03	0	1.020094e-03
9.700000e+08	5.168837e+13	0.000000e+00	7.764708e-01	7.772967e+14	1.012412e+15	9.684578e+13	1.049279e+04	8.044186e+03	3.518773e+03	0	1.016643e-03
9.800000e+08	5.116644e+13	0.000000e+00	7.764708e-01	7.721093e+14	1.006000e+15	9.640965e+13	1.047717e+04	8.034622e+03	3.514589e+03	0	1.013209e-03
9.900000e+08	5.065059e+13	0.000000e+00	7.764708e-01	7.669801e+14	9.996523e+14	9.597647e+13	1.046165e+04	8.025111e+03	3.510429e+03	0	1.009793e-03
1.000000e+09	5.014071e+13	0.000000e+00	7.764708e-01	7.619080e+14	9.933685e+14	9.554624e+13	1.044624e+04	8.015653e+03	3.506292e+03	0	1.006393e-03
1.010000e+09	4.963671e+13	0.000000e+00	7.764708e-01	7.568922e+14	9.871486e+14	9.511893e+13	1.043093e+04	8.006249e+03	3.502178e+03	0	1.003010e-03
1.020000e+09	4.913849e+13	0.000000e+00	7.764708e-01	7.519316e+14	9.809914e+14	9.469451e+13	1.041572e+04	7.996897e+03	3.498087e+03	0	9.996427e-04
1.030000e+09	4.864594e+13	0.000000e+00	7.764708e-01	7.470254e+14	9.748960e+14	9.427296e+13	1.040060e+04	7.987598e+03	3.494020e+03	0	9.962914e-04
1.040000e+09	4.815898e+13	0.000000e+00	7.764708e-01	7.421726e+14	9.688620e+14	9.385427e+13	1.038559e+04	7.978351e+03	3.489975e+03	0	9.929559e-04
1.050000e+09	4.767751e+13	0.000000e+00	7.764708e-01	7.373725e+14	9.628885e+14	9.343839e+13	1.037067e+04	7.969156e+03	3.485953e+03	0	9.896358e-04
1.060000e+09	4.720145e+13	0.000000e+00	7.764708e-01	7.326242e+14	9.569748e+14	9.302533e+13	1.035585e+04	7.960013e+03	3.481953e+03	0	9.863309e-04
1.070000e+09	4.673071e+13	0.000000e+00	7.764708e-01	7.279268e+14	9.511203e+14	9.261505e+13	1.034113e+04	7.950920e+03	3.477976e+03	0	9.830410e-04
1.080000e+09	4.626519e+13	0.000000e+00	7.764708e-01	7.232796e+14	9.453240e+14	9.220752e+13	1.032650e+04	7.941879e+03	3.474021e+03	0	9.797659e-04
1.090000e+09	4.580483e+13	0.000000e+00	7.764708e-01	7.186818e+14	9.395855e+14	9.180274e+13	1.031196e+04	7.932888e+03	3.470088e+03	0	9.765054e-04
1.100000e+09	4.534954e+13	0.000000e+00	7.764708e-01	7.141326e+14	9.339036e+14	9.140068e+13	1.029751e+04	7.923947e+03	3.466177e+03	0	9.732592e-04
1.110000e+09	4.489924e+13	0.000000e+00	7.764708e-01	7.096313e+14	9.282784e+14	9.100131e+13	1.028316e+04	7.915055e+03	3.462287e+03	0	9.700271e-04
1.120000e+09	4.445386e+13	0.000000e+00	7.764708e-01	7.051772e+14	9.227083e+14	9.060462e+13	1.026889e+04	7.906213e+03	3.458420e+03	0	9.668090e-04
1.130000e+09	4.401331e+13	0.000000e+00	7.764708e-01	7.007695e+14	9.171932e+14	9.021058e+13	1.025472e+04	7.897421e+03	3.454573e+03	0	9.636046e-04
1.140000e+09	4.357753e+13	0.000000e+00	7.764708e-01	6.964076e+14	9.117319e+14	8.981917e+13	1.024063e+04	7.888676e+03	3.450748e+03	0	9.604138e-04
1.150000e+09	4.314644e+13	0.000000e+00	7.764708e-01	6.920908e+14	9.063242e+14	8.943038e+13	1.022663e+04	7.879980e+03	3.446944e+03	0	9.572364e-04
1.160000e+09	4.271998e+13	0.000000e+00	7.764708e-01	6.878184e+14	9.009692e+14	8.904419e+13	1.021272e+04	7.871332e+03	3.443161e+03	0	9.540721e-04
1.170000e+09	4.229807e+13	0.000000e+00	7.764708e-01	6.835898e+14	8.956663e+14	8.866056e+13	1.019889e+04	7.862731e+03	3.439399e+03	0	9.509208e-04
1.180000e+09	4.188064e+13	0.000000e+00	7.764708e-01	6.794043e+14	8.904145e+14	8.827949e+13	1.018515e+04	7.854178e+03	3.435658e+03	0	9.477824e-04
1.190000e+09	4.146764e+13	0.000000e+00	7.764708e-01	6.752613e+14	8.852139e+14	8.790095e+13	1.017149e+04	7.845671e+03	3.431936e+03	0	9.446566e-04
1.200000e+09	4.105899e+13	0.000000e+00	7.764708e-01	6.711602e+14	8.800632e+14	8.752493e+13	1.015791e+04	7.837210e+03	3.428235e+03	0	9.415433e-04
1.210000e+09	4.065464e+13	0.000000e+00	7.764708e-01	6.671004e+14	8.749618e+14	8.715139e+13	1.014442e+04	7.828796e+03	3.424555e+03	0	9.384423e-04
1.220000e+09	4.025451e+13	0.000000e+00	7.764708e-01	6.630813e+14	8.699096e+14	8.678034e+13	1.013101e+04	7.820427e+03	3.420894e+03	0	9.353534e-04
1.230000e+09	3.985856e+13	0.000000e+00	7.764708e-01	6.591024e+14	8.649053e+14	8.641173e+13	1.011767e+04	7.812103e+03	3.417253e+03	0	9.322765e-04
1.240000e+09	3.946671e+13	0.000000e+00	7.764708e-01	6.551630e+14	8.599486e+14	8.604557e+13	1.010442e+04	7.803824e+03	3.413631e+03	0	9.292114e-04
1.250000e+09	3.907892e+13	0.000000e+00	7.764708e-01	6.512627e+14	8.550389e+14	8.568182e+13	1.009125e+04	7.795589e+03	3.410029e+03	0	9.261579e-04
1.260000e+09	3.869512e+13	0.000000e+00	7.764708e-01	6.474008e+14	8.501758e+14	8.532047e+13	1.007815e+04	7.787399e+03	3.406446e+03	0	9.231160e-04
1.270000e+09	3.831526e+13	0.000000e+00	7.764708e-01	6.435769e+14	8.453582e+14	8.496150e+13	1.006514e+04	7.779252e+03	3.402883e+03	0	9.200853e-04
1.280000e+09	3.793928e+13	0.000000e+00	7.764708e-01	6.397904e+14	8.405861e+14	8.460489e+13	1.005220e+04	7.771149e+03	3.399338e+03	0	9.170659e-04
1.290000e+09	3.756713e+13	0.000000e+00	7.764708e-01	6.360408e+14	8.358585e+14	8.425062e+13	1.003933e+04	7.763088e+03	3.395812e+03	0	9.140575e-04
1.300000e+09	3.719875e+13	0.000000e+00	7.764708e-01	6.323276e+14	8.311749e+14	8.389868e+13	1.002654e+04	7.755070e+03	3.392305e+03	0	9.110600e-04
1.310000e+09	3.683410e+13	0.000000e+00	7.764708e-01	6.286503e+14	8.265350e+14	8.354905e+13	1.001383e+04	7.747095e+03	3.388816e+03	0	9.080732e-04
1.320000e+09	3.647312e+13	0.000000e+00	7.764708e-01	6.250085e+14	8.219379e+14	8.320171e+13	1.000119e+04	7.739161e+03	3.385346e+03	0	9.050971e-04
1.330000e+09	3.611576e+13	0.000000e+00	7.764708e-01	6.214016e+14	8.173832e+14	8.285664e+13	9.988617e+03	7.731269e+03	3.381893e+03	0	9.021314e-04
1.340000e+09	3.576197e+13	0.000000e+00	7.764708e-01	6.178292e+14	8.128706e+14	8.251382e+13	9.976121e+03	7.723418e+03	3.378459e+03	0	8.991760e-04
1.350000e+09	3.541171e+13	0.000000e+00	7.764708e-01	6.142908e+14	8.083990e+14	8.217324e+13	9.963696e+03	7.715608e+03	3.375043e+03	0	8.962307e-04
1.360000e+09	3.506492e+13	0.000000e+00	7.764708e-01	6.107860e+14	8.039687e+14	8.183488e+13	9.951343e+03	7.707838e+03	3.371644e+03	0	8.932955e-04
