#t		Qconv[W]	Ri[Rp]		R*[Rp]		Qc[W]		Qm[W]		Qr[W]		Tcmb[K]		Tl[K]		Tup[K]		RiFlag		Bs[T]
0.000000e+00	4.302636e+14	0.000000e+00	7.647058e-01	4.443190e+15	1.023179e+14	2.191217e+14	1.553367e+04	6.157900e+03	2.519845e+03	0	2.059741e-03
1.000000e+07	4.255089e+14	0.000000e+00	7.647058e-01	4.400438e+15	1.320639e+14	2.179076e+14	1.547427e+04	6.395720e+03	2.617163e+03	0	2.052126e-03
2.000000e+07	4.196712e+14	0.000000e+00	7.647058e-01	4.348746e+15	1.673044e+14	2.167026e+14	1.541545e+04	6.629542e+03	2.712844e+03	0	2.042698e-03
3.000000e+07	4.128278e+14	0.000000e+00	7.647058e-01	4.288762e+15	2.083043e+14	2.155066e+14	1.535732e+04	6.858604e+03	2.806577e+03	0	2.031534e-03
4.000000e+07	4.050699e+14	0.000000e+00	7.647058e-01	4.221246e+15	2.551956e+14	2.143195e+14	1.529998e+04	7.082166e+03	2.898060e+03	0	2.018728e-03
5.000000e+07	3.965003e+14	0.000000e+00	7.647058e-01	4.147055e+15	3.079622e+14	2.131413e+14	1.524355e+04	7.299526e+03	2.987005e+03	0	2.004390e-03
6.000000e+07	3.872303e+14	0.000000e+00	7.647058e-01	4.067119e+15	3.664344e+14	2.119718e+14	1.518811e+04	7.510032e+03	3.073145e+03	0	1.988646e-03
7.000000e+07	3.773771e+14	0.000000e+00	7.647058e-01	3.982411e+15	4.302884e+14	2.108111e+14	1.513373e+04	7.713093e+03	3.156239e+03	0	1.971634e-03
8.000000e+07	3.670606e+14	0.000000e+00	7.647058e-01	3.893927e+15	4.990570e+14	2.096590e+14	1.508048e+04	7.908190e+03	3.236074e+03	0	1.953501e-03
9.000000e+07	3.563998e+14	0.000000e+00	7.647058e-01	3.802659e+15	5.721449e+14	2.085154e+14	1.502842e+04	8.094885e+03	3.312470e+03	0	1.934403e-03
1.000000e+08	3.455107e+14	0.000000e+00	7.647058e-01	3.709568e+15	6.488523e+14	2.073804e+14	1.497757e+04	8.272822e+03	3.385283e+03	0	1.914498e-03
1.100000e+08	3.345031e+14	0.000000e+00	7.647058e-01	3.615565e+15	7.284005e+14	2.062538e+14	1.492796e+04	8.441738e+03	3.454404e+03	0	1.893947e-03
1.200000e+08	3.234785e+14	0.000000e+00	7.647058e-01	3.521493e+15	8.099625e+14	2.051355e+14	1.487961e+04	8.601460e+03	3.519763e+03	0	1.872907e-03
1.300000e+08	3.125291e+14	0.000000e+00	7.647058e-01	3.428114e+15	8.926914e+14	2.040255e+14	1.483251e+04	8.751899e+03	3.581324e+03	0	1.851532e-03
1.400000e+08	3.017358e+14	0.000000e+00	7.647058e-01	3.336100e+15	9.757488e+14	2.029237e+14	1.478666e+04	8.893053e+03	3.639085e+03	0	1.829967e-03
1.500000e+08	2.911683e+14	0.000000e+00	7.647058e-01	3.246025e+15	1.058331e+15	2.018301e+14	1.474204e+04	9.024999e+03	3.693078e+03	0	1.808350e-03
1.600000e+08	2.808844e+14	0.000000e+00	7.647058e-01	3.158368e+15	1.139687e+15	2.007445e+14	1.469862e+04	9.147883e+03	3.743363e+03	0	1.786804e-03
1.700000e+08	2.709308e+14	0.000000e+00	7.647058e-01	3.073514e+15	1.219141e+15	1.996670e+14	1.465637e+04	9.261914e+03	3.790025e+03	0	1.765444e-03
1.800000e+08	2.613433e+14	0.000000e+00	7.647058e-01	2.991757e+15	1.296098e+15	1.985974e+14	1.461525e+04	9.367354e+03	3.833171e+03	0	1.744368e-03
1.900000e+08	2.521477e+14	0.000000e+00	7.647058e-01	2.913308e+15	1.370053e+15	1.975357e+14	1.457523e+04	9.464511e+03	3.872928e+03	0	1.723665e-03
2.000000e+08	2.433609e+14	0.000000e+00	7.647058e-01	2.838306e+15	1.440593e+15	1.964818e+14	1.453625e+04	9.553724e+03	3.909435e+03	0	1.703405e-03
2.100000e+08	2.349918e+14	0.000000e+00	7.647058e-01	2.766821e+15	1.507399e+15	1.954356e+14	1.449827e+04	9.635364e+03	3.942842e+03	0	1.683651e-03
2.200000e+08	2.270428e+14	0.000000e+00	7.647058e-01	2.698870e+15	1.570237e+15	1.943971e+14	1.446125e+04	9.709815e+03	3.973308e+03	0	1.664448e-03
2.300000e+08	2.195104e+14	0.000000e+00	7.647058e-01	2.634422e+15	1.628954e+15	1.933663e+14	1.442513e+04	9.777476e+03	4.000995e+03	0	1.645834e-03
2.400000e+08	2.123864e+14	0.000000e+00	7.647058e-01	2.573407e+15	1.683469e+15	1.923430e+14	1.438988e+04	9.838747e+03	4.026068e+03	0	1.627834e-03
2.500000e+08	2.056594e+14	0.000000e+00	7.647058e-01	2.515726e+15	1.733766e+15	1.913272e+14	1.435544e+04	9.894030e+03	4.048690e+03	0	1.610462e-03
2.600000e+08	1.993147e+14	0.000000e+00	7.647058e-01	2.461256e+15	1.779883e+15	1.903188e+14	1.432177e+04	9.943719e+03	4.069023e+03	0	1.593728e-03
2.700000e+08	1.933359e+14	0.000000e+00	7.647058e-01	2.409859e+15	1.821905e+15	1.893178e+14	1.428883e+04	9.988200e+03	4.087225e+03	0	1.577630e-03
2.800000e+08	1.877050e+14	0.000000e+00	7.647058e-01	2.361384e+15	1.859952e+15	1.883241e+14	1.425657e+04	1.002784e+04	4.103447e+03	0	1.562163e-03
2.900000e+08	1.824034e+14	0.000000e+00	7.647058e-01	2.315673e+15	1.894171e+15	1.873377e+14	1.422496e+04	1.006301e+04	4.117837e+03	0	1.547315e-03
3.000000e+08	1.774120e+14	0.000000e+00	7.647058e-01	2.272567e+15	1.924736e+15	1.863585e+14	1.419397e+04	1.009404e+04	4.130533e+03	0	1.533070e-03
3.100000e+08	1.727117e+14	0.000000e+00	7.647058e-01	2.231904e+15	1.951831e+15	1.853864e+14	1.416354e+04	1.012125e+04	4.141669e+03	0	1.519410e-03
3.200000e+08	1.682837e+14	0.000000e+00	7.647058e-01	2.193529e+15	1.975652e+15	1.844213e+14	1.413366e+04	1.014495e+04	4.151368e+03	0	1.506313e-03
3.300000e+08	1.641097e+14	0.000000e+00	7.647058e-01	2.157287e+15	1.996399e+15	1.834633e+14	1.410430e+04	1.016543e+04	4.159748e+03	0	1.493754e-03
3.400000e+08	1.601721e+14	0.000000e+00	7.647058e-01	2.123030e+15	2.014274e+15	1.825122e+14	1.407542e+04	1.018295e+04	4.166918e+03	0	1.481711e-03
3.500000e+08	1.564540e+14	0.000000e+00	7.647058e-01	2.090619e+15	2.029477e+15	1.815681e+14	1.404699e+04	1.019777e+04	4.172980e+03	0	1.470156e-03
3.600000e+08	1.529396e+14	0.000000e+00	7.647058e-01	2.059919e+15	2.042200e+15	1.806308e+14	1.401900e+04	1.021011e+04	4.178030e+03	0	1.459064e-03
3.700000e+08	1.496136e+14	0.000000e+00	7.647058e-01	2.030804e+15	2.052636e+15	1.797002e+14	1.399142e+04	1.022019e+04	4.182154e+03	0	1.448410e-03
3.800000e+08	1.464621e+14	0.000000e+00	7.647058e-01	2.003155e+15	2.060964e+15	1.787764e+14	1.396422e+04	1.022820e+04	4.185435e+03	0	1.438167e-03
3.900000e+08	1.434717e+14	0.000000e+00	7.647058e-01	1.976864e+15	2.067354e+15	1.778593e+14	1.393740e+04	1.023434e+04	4.187946e+03	0	1.428312e-03
4.000000e+08	1.406303e+14	0.000000e+00	7.647058e-01	1.951825e+15	2.071972e+15	1.769488e+14	1.391093e+04	1.023876e+04	4.189757e+03	0	1.418820e-03
4.100000e+08	1.379264e+14	0.000000e+00	7.647058e-01	1.927946e+15	2.074969e+15	1.760449e+14	1.388479e+04	1.024163e+04	4.190931e+03	0	1.409668e-03
4.200000e+08	1.353495e+14	0.000000e+00	7.647058e-01	1.905136e+15	2.076490e+15	1.751475e+14	1.385897e+04	1.024309e+04	4.191526e+03	0	1.400834e-03
4.300000e+08	1.328898e+14	0.000000e+00	7.647058e-01	1.883314e+15	2.076668e+15	1.742565e+14	1.383346e+04	1.024326e+04	4.191596e+03	0	1.392296e-03
4.400000e+08	1.305383e+14	0.000000e+00	7.647058e-01	1.862406e+15	2.075628e+15	1.733720e+14	1.380823e+04	1.024226e+04	4.191189e+03	0	1.384035e-03
4.500000e+08	1.282869e+14	0.000000e+00	7.647058e-01	1.842343e+15	2.073483e+15	1.724938e+14	1.378329e+04	1.024021e+04	4.190349e+03	0	1.376032e-03
4.600000e+08	1.261279e+14	0.000000e+00	7.647058e-01	1.823060e+15	2.070341e+15	1.716219e+14	1.375861e+04	1.023720e+04	4.189118e+03	0	1.368269e-03
4.700000e+08	1.240544e+14	0.000000e+00	7.647058e-01	1.804500e+15	2.066300e+15	1.707563e+14	1.373420e+04	1.023333e+04	4.187532e+03	0	1.360729e-03
4.800000e+08	1.220600e+14	0.000000e+00	7.647058e-01	1.786610e+15	2.061450e+15	1.698969e+14	1.371003e+04	1.022867e+04	4.185626e+03	0	1.353398e-03
4.900000e+08	1.201388e+14	0.000000e+00	7.647058e-01	1.769339e+15	2.055871e+15	1.690436e+14	1.368609e+04	1.022330e+04	4.183430e+03	0	1.346260e-03
5.000000e+08	1.182855e+14	0.000000e+00	7.647058e-01	1.752645e+15	2.049642e+15	1.681965e+14	1.366239e+04	1.021730e+04	4.180972e+03	0	1.339301e-03
5.100000e+08	1.164952e+14	0.000000e+00	7.647058e-01	1.736485e+15	2.042830e+15	1.673554e+14	1.363892e+04	1.021071e+04	4.178279e+03	0	1.332510e-03
5.200000e+08	1.147635e+14	0.000000e+00	7.647058e-01	1.720822e+15	2.035499e+15	1.665202e+14	1.361565e+04	1.020361e+04	4.175373e+03	0	1.325874e-03
5.300000e+08	1.130862e+14	0.000000e+00	7.647058e-01	1.705622e+15	2.027706e+15	1.656911e+14	1.359260e+04	1.019605e+04	4.172276e+03	0	1.319383e-03
5.400000e+08	1.114596e+14	0.000000e+00	7.647058e-01	1.690853e+15	2.019503e+15	1.648678e+14	1.356975e+04	1.018806e+04	4.169007e+03	0	1.313027e-03
5.500000e+08	1.098803e+14	0.000000e+00	7.647058e-01	1.676488e+15	2.010939e+15	1.640504e+14	1.354710e+04	1.017969e+04	4.165584e+03	0	1.306796e-03
5.600000e+08	1.083451e+14	0.000000e+00	7.647058e-01	1.662499e+15	2.002057e+15	1.632389e+14	1.352464e+04	1.017099e+04	4.162022e+03	0	1.300681e-03
5.700000e+08	1.068512e+14	0.000000e+00	7.647058e-01	1.648862e+15	1.992896e+15	1.624330e+14	1.350237e+04	1.016198e+04	4.158337e+03	0	1.294675e-03
5.800000e+08	1.053960e+14	0.000000e+00	7.647058e-01	1.635557e+15	1.983492e+15	1.616329e+14	1.348028e+04	1.015271e+04	4.154542e+03	0	1.288771e-03
5.900000e+08	1.039770e+14	0.000000e+00	7.647058e-01	1.622561e+15	1.973877e+15	1.608385e+14	1.345836e+04	1.014319e+04	4.150648e+03	0	1.282961e-03
6.000000e+08	1.025921e+14	0.000000e+00	7.647058e-01	1.609858e+15	1.964080e+15	1.600497e+14	1.343662e+04	1.013346e+04	4.146667e+03	0	1.277240e-03
6.100000e+08	1.012393e+14	0.000000e+00	7.647058e-01	1.597430e+15	1.954129e+15	1.592665e+14	1.341505e+04	1.012354e+04	4.142608e+03	0	1.271601e-03
6.200000e+08	9.991665e+13	0.000000e+00	7.647058e-01	1.585262e+15	1.944047e+15	1.584888e+14	1.339365e+04	1.011346e+04	4.138481e+03	0	1.266039e-03
6.300000e+08	9.862255e+13	0.000000e+00	7.647058e-01	1.573339e+15	1.933857e+15	1.577166e+14	1.337241e+04	1.010323e+04	4.134294e+03	0	1.260549e-03
6.400000e+08	9.735541e+13	0.000000e+00	7.647058e-01	1.561648e+15	1.923577e+15	1.569498e+14	1.335132e+04	1.009287e+04	4.130055e+03	0	1.255127e-03
6.500000e+08	9.611382e+13	0.000000e+00	7.647058e-01	1.550178e+15	1.913226e+15	1.561885e+14	1.333040e+04	1.008239e+04	4.125769e+03	0	1.249769e-03
6.600000e+08	9.489645e+13	0.000000e+00	7.647058e-01	1.538918e+15	1.902820e+15	1.554325e+14	1.330963e+04	1.007182e+04	4.121444e+03	0	1.244470e-03
6.700000e+08	9.370210e+13	0.000000e+00	7.647058e-01	1.527856e+15	1.892373e+15	1.546818e+14	1.328900e+04	1.006117e+04	4.117085e+03	0	1.239227e-03
6.800000e+08	9.252966e+13	0.000000e+00	7.647058e-01	1.516985e+15	1.881898e+15	1.539364e+14	1.326853e+04	1.005045e+04	4.112697e+03	0	1.234037e-03
6.900000e+08	9.137811e+13	0.000000e+00	7.647058e-01	1.506295e+15	1.871408e+15	1.531962e+14	1.324820e+04	1.003967e+04	4.108285e+03	0	1.228896e-03
7.000000e+08	9.024649e+13	0.000000e+00	7.647058e-01	1.495778e+15	1.860911e+15	1.524612e+14	1.322801e+04	1.002884e+04	4.103853e+03	0	1.223802e-03
7.100000e+08	8.913393e+13	0.000000e+00	7.647058e-01	1.485427e+15	1.850419e+15	1.517313e+14	1.320797e+04	1.001797e+04	4.099405e+03	0	1.218752e-03
7.200000e+08	8.803963e+13	0.000000e+00	7.647058e-01	1.475235e+15	1.839939e+15	1.510066e+14	1.318806e+04	1.000706e+04	4.094944e+03	0	1.213744e-03
7.300000e+08	8.696283e+13	0.000000e+00	7.647058e-01	1.465195e+15	1.829479e+15	1.502869e+14	1.316829e+04	9.996139e+03	4.090473e+03	0	1.208775e-03
7.400000e+08	8.590284e+13	0.000000e+00	7.647058e-01	1.455303e+15	1.819047e+15	1.495723e+14	1.314865e+04	9.985198e+03	4.085996e+03	0	1.203844e-03
7.500000e+08	8.485902e+13	0.000000e+00	7.647058e-01	1.445552e+15	1.808648e+15	1.488626e+14	1.312915e+04	9.974247e+03	4.081515e+03	0	1.198948e-03
7.600000e+08	8.383076e+13	0.000000e+00	7.647058e-01	1.435937e+15	1.798288e+15	1.481579e+14	1.310977e+04	9.963292e+03	4.077032e+03	0	1.194086e-03
7.700000e+08	8.281751e+13	0.000000e+00	7.647058e-01	1.426454e+15	1.787971e+15	1.474580e+14	1.309052e+04	9.952338e+03	4.072550e+03	0	1.189255e-03
7.800000e+08	8.181875e+13	0.000000e+00	7.647058e-01	1.417098e+15	1.777702e+15	1.467631e+14	1.307140e+04	9.941390e+03	4.068070e+03	0	1.184455e-03
7.900000e+08	8.083399e+13	0.000000e+00	7.647058e-01	1.407865e+15	1.767485e+15	1.460729e+14	1.305241e+04	9.930452e+03	4.063594e+03	0	1.179684e-03
8.000000e+08	7.986278e+13	0.000000e+00	7.647058e-01	1.398751e+15	1.757323e+15	1.453876e+14	1.303354e+04	9.919528e+03	4.059124e+03	0	1.174941e-03
8.100000e+08	7.890470e+13	0.000000e+00	7.647058e-01	1.389753e+15	1.747218e+15	1.447070e+14	1.301479e+04	9.908621e+03	4.054661e+03	0	1.170223e-03
8.200000e+08	7.795934e+13	0.000000e+00	7.647058e-01	1.380867e+15	1.737175e+15	1.440311e+14	1.299616e+04	9.897736e+03	4.050206e+03	0	1.165531e-03
8.300000e+08	7.702634e+13	0.000000e+00	7.647058e-01	1.372091e+15	1.727195e+15	1.433599e+14	1.297765e+04	9.886874e+03	4.045761e+03	0	1.160863e-03
8.400000e+08	7.610534e+13	0.000000e+00	7.647058e-01	1.363420e+15	1.717280e+15	1.426933e+14	1.295926e+04	9.876038e+03	4.041327e+03	0	1.156217e-03
8.500000e+08	7.519602e+13	0.000000e+00	7.647058e-01	1.354853e+15	1.707432e+15	1.420313e+14	1.294098e+04	9.865231e+03	4.036905e+03	0	1.151594e-03
8.600000e+08	7.429806e+13	0.000000e+00	7.647058e-01	1.346386e+15	1.697652e+15	1.413739e+14	1.292282e+04	9.854455e+03	4.032495e+03	0	1.146992e-03
8.700000e+08	7.341117e+13	0.000000e+00	7.647058e-01	1.338018e+15	1.687942e+15	1.407210e+14	1.290477e+04	9.843711e+03	4.028099e+03	0	1.142409e-03
8.800000e+08	7.253507e+13	0.000000e+00	7.647058e-01	1.329745e+15	1.678302e+15	1.400726e+14	1.288683e+04	9.833001e+03	4.023716e+03	0	1.137847e-03
8.900000e+08	7.166950e+13	0.000000e+00	7.647058e-01	1.321565e+15	1.668734e+15	1.394287e+14	1.286900e+04	9.822327e+03	4.019349e+03	0	1.133303e-03
9.000000e+08	7.081421e+13	0.000000e+00	7.647058e-01	1.313477e+15	1.659237e+15	1.387891e+14	1.285129e+04	9.811691e+03	4.014996e+03	0	1.128776e-03
9.100000e+08	6.996896e+13	0.000000e+00	7.647058e-01	1.305479e+15	1.649814e+15	1.381540e+14	1.283368e+04	9.801093e+03	4.010659e+03	0	1.124267e-03
9.200000e+08	6.913352e+13	0.000000e+00	7.647058e-01	1.297567e+15	1.640465e+15	1.375232e+14	1.281617e+04	9.790534e+03	4.006339e+03	0	1.119775e-03
9.300000e+08	6.830769e+13	0.000000e+00	7.647058e-01	1.289741e+15	1.631189e+15	1.368967e+14	1.279878e+04	9.780016e+03	4.002035e+03	0	1.115298e-03
9.400000e+08	6.749126e+13	0.000000e+00	7.647058e-01	1.281999e+15	1.621986e+15	1.362745e+14	1.278148e+04	9.769539e+03	3.997747e+03	0	1.110837e-03
9.500000e+08	6.668404e+13	0.000000e+00	7.647058e-01	1.274340e+15	1.612858e+15	1.356566e+14	1.276430e+04	9.759104e+03	3.993477e+03	0	1.106390e-03
9.600000e+08	6.588583e+13	0.000000e+00	7.647058e-01	1.266760e+15	1.603803e+15	1.350428e+14	1.274721e+04	9.748712e+03	3.989225e+03	0	1.101958e-03
9.700000e+08	6.509645e+13	0.000000e+00	7.647058e-01	1.259260e+15	1.594823e+15	1.344333e+14	1.273022e+04	9.738363e+03	3.984990e+03	0	1.097540e-03
9.800000e+08	6.431575e+13	0.000000e+00	7.647058e-01	1.251837e+15	1.585916e+15	1.338279e+14	1.271334e+04	9.728057e+03	3.980773e+03	0	1.093134e-03
9.900000e+08	6.354355e+13	0.000000e+00	7.647058e-01	1.244490e+15	1.577083e+15	1.332266e+14	1.269655e+04	9.717796e+03	3.976574e+03	0	1.088742e-03
1.000000e+09	6.277969e+13	0.000000e+00	7.647058e-01	1.237218e+15	1.568323e+15	1.326294e+14	1.267987e+04	9.707579e+03	3.972393e+03	0	1.084362e-03
1.010000e+09	6.202403e+13	0.000000e+00	7.647058e-01	1.230019e+15	1.559637e+15	1.320362e+14	1.266328e+04	9.697407e+03	3.968231e+03	0	1.079993e-03
1.020000e+09	6.127641e+13	0.000000e+00	7.647058e-01	1.222892e+15	1.551023e+15	1.314471e+14	1.264678e+04	9.687280e+03	3.964087e+03	0	1.075636e-03
1.030000e+09	6.053670e+13	0.000000e+00	7.647058e-01	1.215836e+15	1.542481e+15	1.308619e+14	1.263039e+04	9.677198e+03	3.959961e+03	0	1.071291e-03
1.040000e+09	5.980476e+13	0.000000e+00	7.647058e-01	1.208850e+15	1.534012e+15	1.302807e+14	1.261408e+04	9.667162e+03	3.955854e+03	0	1.066956e-03
1.050000e+09	5.908046e+13	0.000000e+00	7.647058e-01	1.201933e+15	1.525615e+15	1.297034e+14	1.259787e+04	9.657171e+03	3.951766e+03	0	1.062631e-03
1.060000e+09	5.836368e+13	0.000000e+00	7.647058e-01	1.195082e+15	1.517288e+15	1.291301e+14	1.258175e+04	9.647225e+03	3.947696e+03	0	1.058316e-03
1.070000e+09	5.765428e+13	0.000000e+00	7.647058e-01	1.188299e+15	1.509031e+15	1.285605e+14	1.256573e+04	9.637325e+03	3.943645e+03	0	1.054010e-03
1.080000e+09	5.695215e+13	0.000000e+00	7.647058e-01	1.181580e+15	1.500845e+15	1.279948e+14	1.254979e+04	9.627470e+03	3.939612e+03	0	1.049714e-03
1.090000e+09	5.625718e+13	0.000000e+00	7.647058e-01	1.174927e+15	1.492728e+15	1.274330e+14	1.253394e+04	9.617661e+03	3.935598e+03	0	1.045427e-03
1.100000e+09	5.556925e+13	0.000000e+00	7.647058e-01	1.168336e+15	1.484680e+15	1.268748e+14	1.251819e+04	9.607897e+03	3.931603e+03	0	1.041148e-03
1.110000e+09	5.488825e+13	0.000000e+00	7.647058e-01	1.161808e+15	1.476701e+15	1.263205e+14	1.250252e+04	9.598179e+03	3.927626e+03	0	1.036878e-03
1.120000e+09	5.421408e+13	0.000000e+00	7.647058e-01	1.155341e+15	1.468789e+15	1.257698e+14	1.248694e+04	9.588506e+03	3.923668e+03	0	1.032615e-03
1.130000e+09	5.354664e+13	0.000000e+00	7.647058e-01	1.148935e+15	1.460945e+15	1.252228e+14	1.247144e+04	9.578878e+03	3.919728e+03	0	1.028360e-03
1.140000e+09	5.288582e+13	0.000000e+00	7.647058e-01	1.142589e+15	1.453167e+15	1.246795e+14	1.245603e+04	9.569295e+03	3.915806e+03	0	1.024112e-03
1.150000e+09	5.223152e+13	0.000000e+00	7.647058e-01	1.136301e+15	1.445455e+15	1.241398e+14	1.244071e+04	9.559756e+03	3.911903e+03	0	1.019871e-03
1.160000e+09	5.158366e+13	0.000000e+00	7.647058e-01	1.130072e+15	1.437809e+15	1.236038e+14	1.242547e+04	9.550263e+03	3.908018e+03	0	1.015637e-03
1.170000e+09	5.094215e+13	0.000000e+00	7.647058e-01	1.123900e+15	1.430227e+15	1.230712e+14	1.241031e+04	9.540814e+03	3.904152e+03	0	1.011409e-03
1.180000e+09	5.030688e+13	0.000000e+00	7.647058e-01	1.117784e+15	1.422709e+15	1.225423e+14	1.239524e+04	9.531409e+03	3.900303e+03	0	1.007187e-03
1.190000e+09	4.967777e+13	0.000000e+00	7.647058e-01	1.111724e+15	1.415255e+15	1.220168e+14	1.238024e+04	9.522048e+03	3.896473e+03	0	1.002971e-03
1.200000e+09	4.905473e+13	0.000000e+00	7.647058e-01	1.105719e+15	1.407864e+15	1.214948e+14	1.236533e+04	9.512731e+03	3.892660e+03	0	9.987605e-04
1.210000e+09	4.843769e+13	0.000000e+00	7.647058e-01	1.099768e+15	1.400535e+15	1.209763e+14	1.235050e+04	9.503458e+03	3.888866e+03	0	9.945552e-04
1.220000e+09	4.782656e+13	0.000000e+00	7.647058e-01	1.093871e+15	1.393268e+15	1.204613e+14	1.233575e+04	9.494228e+03	3.885089e+03	0	9.903547e-04
1.230000e+09	4.722125e+13	0.000000e+00	7.647058e-01	1.088026e+15	1.386061e+15	1.199496e+14	1.232108e+04	9.485042e+03	3.881330e+03	0	9.861589e-04
1.240000e+09	4.662169e+13	0.000000e+00	7.647058e-01	1.082233e+15	1.378916e+15	1.194413e+14	1.230648e+04	9.475898e+03	3.877588e+03	0	9.819674e-04
1.250000e+09	4.602781e+13	0.000000e+00	7.647058e-01	1.076492e+15	1.371829e+15	1.189364e+14	1.229197e+04	9.466797e+03	3.873864e+03	0	9.777800e-04
1.260000e+09	4.543952e+13	0.000000e+00	7.647058e-01	1.070802e+15	1.364802e+15	1.184348e+14	1.227753e+04	9.457739e+03	3.870157e+03	0	9.735965e-04
1.270000e+09	4.485675e+13	0.000000e+00	7.647058e-01	1.065161e+15	1.357833e+15	1.179365e+14	1.226316e+04	9.448723e+03	3.866468e+03	0	9.694164e-04
1.280000e+09	4.427944e+13	0.000000e+00	7.647058e-01	1.059570e+15	1.350923e+15	1.174415e+14	1.224887e+04	9.439749e+03	3.862795e+03	0	9.652395e-04
1.290000e+09	4.370750e+13	0.000000e+00	7.647058e-01	1.054028e+15	1.344069e+15	1.169497e+14	1.223466e+04	9.430816e+03	3.859140e+03	0	9.610657e-04
1.300000e+09	4.314087e+13	0.000000e+00	7.647058e-01	1.048534e+15	1.337273e+15	1.164612e+14	1.222052e+04	9.421925e+03	3.855502e+03	0	9.568945e-04
1.310000e+09	4.257949e+13	0.000000e+00	7.647058e-01	1.043087e+15	1.330532e+15	1.159759e+14	1.220645e+04	9.413076e+03	3.851881e+03	0	9.527257e-04
1.320000e+09	4.202328e+13	0.000000e+00	7.647058e-01	1.037688e+15	1.323847e+15	1.154937e+14	1.219246e+04	9.404267e+03	3.848276e+03	0	9.485591e-04
1.330000e+09	4.147217e+13	0.000000e+00	7.647058e-01	1.032334e+15	1.317217e+15	1.150147e+14	1.217854e+04	9.395498e+03	3.844688e+03	0	9.443942e-04
1.340000e+09	4.092611e+13	0.000000e+00	7.647058e-01	1.027027e+15	1.310642e+15	1.145388e+14	1.216469e+04	9.386771e+03	3.841117e+03	0	9.402310e-04
1.350000e+09	4.038503e+13	0.000000e+00	7.647058e-01	1.021765e+15	1.304119e+15	1.140661e+14	1.215091e+04	9.378083e+03	3.837562e+03	0	9.360690e-04
1.360000e+09	3.984887e+13	0.000000e+00	7.647058e-01	1.016548e+15	1.297651e+15	1.135964e+14	1.213721e+04	9.369435e+03	3.834023e+03	0	9.319081e-04
