#t		Qconv[W]	Ri[Rp]		R*[Rp]		Qc[W]		Qm[W]		Qr[W]		Tcmb[K]		Tl[K]		Tup[K]		RiFlag		Bs[T]
0.000000e+00	4.315107e+14	0.000000e+00	7.647061e-01	4.494692e+15	1.020788e+14	2.242592e+14	1.568393e+04	6.205065e+03	2.531051e+03	0	2.060448e-03
1.000000e+07	4.270903e+14	0.000000e+00	7.647061e-01	4.454833e+15	1.312957e+14	2.230166e+14	1.562620e+04	6.440631e+03	2.627139e+03	0	2.053388e-03
2.000000e+07	4.215952e+14	0.000000e+00	7.647061e-01	4.406157e+15	1.658661e+14	2.217833e+14	1.556898e+04	6.672463e+03	2.721703e+03	0	2.044543e-03
3.000000e+07	4.150963e+14	0.000000e+00	7.647061e-01	4.349254e+15	2.060616e+14	2.205593e+14	1.551238e+04	6.899828e+03	2.814446e+03	0	2.033983e-03
4.000000e+07	4.076780e+14	0.000000e+00	7.647061e-01	4.284826e+15	2.520313e+14	2.193444e+14	1.545652e+04	7.122014e+03	2.905076e+03	0	2.021794e-03
5.000000e+07	3.994362e+14	0.000000e+00	7.647061e-01	4.213668e+15	3.037863e+14	2.181385e+14	1.540148e+04	7.338339e+03	2.993315e+03	0	2.008076e-03
6.000000e+07	3.904759e+14	0.000000e+00	7.647061e-01	4.136650e+15	3.611927e+14	2.169417e+14	1.534735e+04	7.548167e+03	3.078904e+03	0	1.992947e-03
7.000000e+07	3.809084e+14	0.000000e+00	7.647061e-01	4.054693e+15	4.239701e+14	2.157537e+14	1.529421e+04	7.750915e+03	3.161605e+03	0	1.976535e-03
8.000000e+07	3.708483e+14	0.000000e+00	7.647061e-01	3.968743e+15	4.916996e+14	2.145746e+14	1.524212e+04	7.946066e+03	3.241207e+03	0	1.958979e-03
9.000000e+07	3.604106e+14	0.000000e+00	7.647061e-01	3.879752e+15	5.638362e+14	2.134043e+14	1.519113e+04	8.133177e+03	3.317530e+03	0	1.940425e-03
1.000000e+08	3.497082e+14	0.000000e+00	7.647061e-01	3.788649e+15	6.397297e+14	2.122426e+14	1.514129e+04	8.311882e+03	3.390424e+03	0	1.921025e-03
1.100000e+08	3.388489e+14	0.000000e+00	7.647061e-01	3.696325e+15	7.186477e+14	2.110896e+14	1.509261e+04	8.481900e+03	3.459774e+03	0	1.900931e-03
1.200000e+08	3.279337e+14	0.000000e+00	7.647061e-01	3.603611e+15	7.998028e+14	2.099451e+14	1.504511e+04	8.643034e+03	3.525501e+03	0	1.880297e-03
1.300000e+08	3.170547e+14	0.000000e+00	7.647061e-01	3.511268e+15	8.823802e+14	2.088091e+14	1.499881e+04	8.795171e+03	3.587558e+03	0	1.859270e-03
1.400000e+08	3.062944e+14	0.000000e+00	7.647061e-01	3.419973e+15	9.655646e+14	2.076814e+14	1.495368e+04	8.938278e+03	3.645931e+03	0	1.837994e-03
1.500000e+08	2.957244e+14	0.000000e+00	7.647061e-01	3.330314e+15	1.048564e+15	2.065622e+14	1.490973e+04	9.072398e+03	3.700639e+03	0	1.816604e-03
1.600000e+08	2.854054e+14	0.000000e+00	7.647061e-01	3.242791e+15	1.130633e+15	2.054512e+14	1.486693e+04	9.197645e+03	3.751727e+03	0	1.795223e-03
1.700000e+08	2.753871e+14	0.000000e+00	7.647061e-01	3.157811e+15	1.211087e+15	2.043484e+14	1.482525e+04	9.314193e+03	3.799267e+03	0	1.773967e-03
1.800000e+08	2.657090e+14	0.000000e+00	7.647061e-01	3.075697e+15	1.289317e+15	2.032537e+14	1.478467e+04	9.422272e+03	3.843353e+03	0	1.752938e-03
1.900000e+08	2.564005e+14	0.000000e+00	7.647061e-01	2.996689e+15	1.364798e+15	2.021671e+14	1.474513e+04	9.522155e+03	3.884095e+03	0	1.732224e-03
2.000000e+08	2.474821e+14	0.000000e+00	7.647061e-01	2.920954e+15	1.437092e+15	2.010884e+14	1.470661e+04	9.614156e+03	3.921622e+03	0	1.711902e-03
2.100000e+08	2.389664e+14	0.000000e+00	7.647061e-01	2.848592e+15	1.505846e+15	2.000178e+14	1.466906e+04	9.698613e+03	3.956073e+03	0	1.692038e-03
2.200000e+08	2.308590e+14	0.000000e+00	7.647061e-01	2.779648e+15	1.570798e+15	1.989549e+14	1.463244e+04	9.775889e+03	3.987594e+03	0	1.672682e-03
2.300000e+08	2.231596e+14	0.000000e+00	7.647061e-01	2.714116e+15	1.631760e+15	1.978999e+14	1.459670e+04	9.846358e+03	4.016338e+03	0	1.653876e-03
2.400000e+08	2.158631e+14	0.000000e+00	7.647061e-01	2.651950e+15	1.688619e+15	1.968526e+14	1.456180e+04	9.910402e+03	4.042462e+03	0	1.635651e-03
2.500000e+08	2.089601e+14	0.000000e+00	7.647061e-01	2.593072e+15	1.741329e+15	1.958130e+14	1.452770e+04	9.968407e+03	4.066122e+03	0	1.618026e-03
2.600000e+08	2.024384e+14	0.000000e+00	7.647061e-01	2.537379e+15	1.789899e+15	1.947810e+14	1.449436e+04	1.002075e+04	4.087474e+03	0	1.601015e-03
2.700000e+08	1.962834e+14	0.000000e+00	7.647061e-01	2.484748e+15	1.834385e+15	1.937565e+14	1.446173e+04	1.006781e+04	4.106670e+03	0	1.584622e-03
2.800000e+08	1.904787e+14	0.000000e+00	7.647061e-01	2.435041e+15	1.874886e+15	1.927395e+14	1.442978e+04	1.010995e+04	4.123858e+03	0	1.568845e-03
2.900000e+08	1.850069e+14	0.000000e+00	7.647061e-01	2.388112e+15	1.911529e+15	1.917300e+14	1.439846e+04	1.014752e+04	4.139182e+03	0	1.553676e-03
3.000000e+08	1.798499e+14	0.000000e+00	7.647061e-01	2.343812e+15	1.944469e+15	1.907278e+14	1.436775e+04	1.018085e+04	4.152780e+03	0	1.539103e-03
3.100000e+08	1.749894e+14	0.000000e+00	7.647061e-01	2.301986e+15	1.973875e+15	1.897329e+14	1.433761e+04	1.021028e+04	4.164780e+03	0	1.525112e-03
3.200000e+08	1.704071e+14	0.000000e+00	7.647061e-01	2.262484e+15	1.999933e+15	1.887452e+14	1.430800e+04	1.023608e+04	4.175308e+03	0	1.511682e-03
3.300000e+08	1.660852e+14	0.000000e+00	7.647061e-01	2.225155e+15	2.022833e+15	1.877647e+14	1.427890e+04	1.025857e+04	4.184479e+03	0	1.498792e-03
3.400000e+08	1.620063e+14	0.000000e+00	7.647061e-01	2.189856e+15	2.042770e+15	1.867914e+14	1.425028e+04	1.027800e+04	4.192404e+03	0	1.486421e-03
3.500000e+08	1.581537e+14	0.000000e+00	7.647061e-01	2.156447e+15	2.059939e+15	1.858251e+14	1.422211e+04	1.029462e+04	4.199184e+03	0	1.474543e-03
3.600000e+08	1.545115e+14	0.000000e+00	7.647061e-01	2.124796e+15	2.074532e+15	1.848658e+14	1.419437e+04	1.030867e+04	4.204916e+03	0	1.463136e-03
3.700000e+08	1.510645e+14	0.000000e+00	7.647061e-01	2.094776e+15	2.086735e+15	1.839135e+14	1.416703e+04	1.032037e+04	4.209686e+03	0	1.452174e-03
3.800000e+08	1.477984e+14	0.000000e+00	7.647061e-01	2.066269e+15	2.096730e+15	1.829680e+14	1.414008e+04	1.032991e+04	4.213579e+03	0	1.441632e-03
3.900000e+08	1.446999e+14	0.000000e+00	7.647061e-01	2.039164e+15	2.104690e+15	1.820294e+14	1.411350e+04	1.033749e+04	4.216669e+03	0	1.431486e-03
4.000000e+08	1.417566e+14	0.000000e+00	7.647061e-01	2.013356e+15	2.110778e+15	1.810975e+14	1.408727e+04	1.034327e+04	4.219028e+03	0	1.421714e-03
4.100000e+08	1.389566e+14	0.000000e+00	7.647061e-01	1.988749e+15	2.115152e+15	1.801724e+14	1.406136e+04	1.034741e+04	4.220719e+03	0	1.412291e-03
4.200000e+08	1.362893e+14	0.000000e+00	7.647061e-01	1.965253e+15	2.117958e+15	1.792540e+14	1.403577e+04	1.035007e+04	4.221803e+03	0	1.403196e-03
4.300000e+08	1.337446e+14	0.000000e+00	7.647061e-01	1.942784e+15	2.119332e+15	1.783421e+14	1.401049e+04	1.035137e+04	4.222333e+03	0	1.394408e-03
4.400000e+08	1.313132e+14	0.000000e+00	7.647061e-01	1.921266e+15	2.119402e+15	1.774369e+14	1.398549e+04	1.035144e+04	4.222360e+03	0	1.385906e-03
4.500000e+08	1.289866e+14	0.000000e+00	7.647061e-01	1.900627e+15	2.118288e+15	1.765381e+14	1.396077e+04	1.035038e+04	4.221930e+03	0	1.377672e-03
4.600000e+08	1.267570e+14	0.000000e+00	7.647061e-01	1.880802e+15	2.116099e+15	1.756458e+14	1.393631e+04	1.034831e+04	4.221085e+03	0	1.369688e-03
4.700000e+08	1.246170e+14	0.000000e+00	7.647061e-01	1.861731e+15	2.112939e+15	1.747598e+14	1.391211e+04	1.034532e+04	4.219864e+03	0	1.361936e-03
4.800000e+08	1.225601e+14	0.000000e+00	7.647061e-01	1.843357e+15	2.108900e+15	1.738803e+14	1.388815e+04	1.034149e+04	4.218301e+03	0	1.354401e-03
4.900000e+08	1.205801e+14	0.000000e+00	7.647061e-01	1.825632e+15	2.104069e+15	1.730070e+14	1.386443e+04	1.033690e+04	4.216429e+03	0	1.347068e-03
5.000000e+08	1.186714e+14	0.000000e+00	7.647061e-01	1.808507e+15	2.098525e+15	1.721400e+14	1.384094e+04	1.033162e+04	4.214277e+03	0	1.339923e-03
5.100000e+08	1.168290e+14	0.000000e+00	7.647061e-01	1.791941e+15	2.092342e+15	1.712791e+14	1.381766e+04	1.032572e+04	4.211872e+03	0	1.332952e-03
5.200000e+08	1.150480e+14	0.000000e+00	7.647061e-01	1.775894e+15	2.085585e+15	1.704244e+14	1.379460e+04	1.031927e+04	4.209238e+03	0	1.326144e-03
5.300000e+08	1.133243e+14	0.000000e+00	7.647061e-01	1.760330e+15	2.078317e+15	1.695758e+14	1.377174e+04	1.031230e+04	4.206398e+03	0	1.319488e-03
5.400000e+08	1.116538e+14	0.000000e+00	7.647061e-01	1.745216e+15	2.070593e+15	1.687333e+14	1.374909e+04	1.030488e+04	4.203371e+03	0	1.312972e-03
5.500000e+08	1.100329e+14	0.000000e+00	7.647061e-01	1.730523e+15	2.062463e+15	1.678967e+14	1.372662e+04	1.029706e+04	4.200178e+03	0	1.306588e-03
5.600000e+08	1.084584e+14	0.000000e+00	7.647061e-01	1.716222e+15	2.053974e+15	1.670661e+14	1.370435e+04	1.028886e+04	4.196833e+03	0	1.300326e-03
5.700000e+08	1.069272e+14	0.000000e+00	7.647061e-01	1.702289e+15	2.045169e+15	1.662414e+14	1.368226e+04	1.028033e+04	4.193354e+03	0	1.294177e-03
5.800000e+08	1.054365e+14	0.000000e+00	7.647061e-01	1.688701e+15	2.036084e+15	1.654225e+14	1.366035e+04	1.027150e+04	4.189753e+03	0	1.288135e-03
5.900000e+08	1.039837e+14	0.000000e+00	7.647061e-01	1.675435e+15	2.026756e+15	1.646095e+14	1.363861e+04	1.026240e+04	4.186043e+03	0	1.282192e-03
6.000000e+08	1.025667e+14	0.000000e+00	7.647061e-01	1.662474e+15	2.017216e+15	1.638022e+14	1.361705e+04	1.025307e+04	4.182237e+03	0	1.276340e-03
6.100000e+08	1.011832e+14	0.000000e+00	7.647061e-01	1.649798e+15	2.007494e+15	1.630006e+14	1.359565e+04	1.024353e+04	4.178344e+03	0	1.270576e-03
6.200000e+08	9.983118e+13	0.000000e+00	7.647061e-01	1.637392e+15	1.997614e+15	1.622047e+14	1.357441e+04	1.023380e+04	4.174375e+03	0	1.264891e-03
6.300000e+08	9.850897e+13	0.000000e+00	7.647061e-01	1.625240e+15	1.987600e+15	1.614144e+14	1.355333e+04	1.022390e+04	4.170338e+03	0	1.259282e-03
6.400000e+08	9.721486e+13	0.000000e+00	7.647061e-01	1.613330e+15	1.977475e+15	1.606296e+14	1.353241e+04	1.021386e+04	4.166240e+03	0	1.253743e-03
6.500000e+08	9.594735e+13	0.000000e+00	7.647061e-01	1.601647e+15	1.967257e+15	1.598504e+14	1.351164e+04	1.020368e+04	4.162091e+03	0	1.248271e-03
6.600000e+08	9.470504e+13	0.000000e+00	7.647061e-01	1.590181e+15	1.956964e+15	1.590767e+14	1.349102e+04	1.019340e+04	4.157895e+03	0	1.242860e-03
6.700000e+08	9.348664e+13	0.000000e+00	7.647061e-01	1.578920e+15	1.946613e+15	1.583084e+14	1.347055e+04	1.018301e+04	4.153659e+03	0	1.237507e-03
6.800000e+08	9.229097e+13	0.000000e+00	7.647061e-01	1.567856e+15	1.936216e+15	1.575455e+14	1.345022e+04	1.017254e+04	4.149389e+03	0	1.232208e-03
6.900000e+08	9.111693e+13	0.000000e+00	7.647061e-01	1.556978e+15	1.925789e+15	1.567880e+14	1.343003e+04	1.016200e+04	4.145089e+03	0	1.226961e-03
7.000000e+08	8.996353e+13	0.000000e+00	7.647061e-01	1.546278e+15	1.915341e+15	1.560358e+14	1.340999e+04	1.015140e+04	4.140764e+03	0	1.221762e-03
7.100000e+08	8.882982e+13	0.000000e+00	7.647061e-01	1.535749e+15	1.904883e+15	1.552888e+14	1.339008e+04	1.014075e+04	4.136419e+03	0	1.216608e-03
7.200000e+08	8.771496e+13	0.000000e+00	7.647061e-01	1.525383e+15	1.894426e+15	1.545471e+14	1.337030e+04	1.013005e+04	4.132056e+03	0	1.211497e-03
7.300000e+08	8.661814e+13	0.000000e+00	7.647061e-01	1.515173e+15	1.883977e+15	1.538105e+14	1.335066e+04	1.011932e+04	4.127680e+03	0	1.206426e-03
7.400000e+08	8.553863e+13	0.000000e+00	7.647061e-01	1.505114e+15	1.873545e+15	1.530791e+14	1.333115e+04	1.010857e+04	4.123293e+03	0	1.201393e-03
7.500000e+08	8.447575e+13	0.000000e+00	7.647061e-01	1.495199e+15	1.863136e+15	1.523528e+14	1.331177e+04	1.009779e+04	4.118899e+03	0	1.196396e-03
7.600000e+08	8.342885e+13	0.000000e+00	7.647061e-01	1.485424e+15	1.852756e+15	1.516316e+14	1.329252e+04	1.008701e+04	4.114500e+03	0	1.191434e-03
7.700000e+08	8.239734e+13	0.000000e+00	7.647061e-01	1.475783e+15	1.842411e+15	1.509153e+14	1.327339e+04	1.007622e+04	4.110097e+03	0	1.186503e-03
7.800000e+08	8.138068e+13	0.000000e+00	7.647061e-01	1.466271e+15	1.832107e+15	1.502041e+14	1.325439e+04	1.006542e+04	4.105694e+03	0	1.181603e-03
7.900000e+08	8.037836e+13	0.000000e+00	7.647061e-01	1.456885e+15	1.821846e+15	1.494977e+14	1.323551e+04	1.005463e+04	4.101293e+03	0	1.176732e-03
8.000000e+08	7.938989e+13	0.000000e+00	7.647061e-01	1.447621e+15	1.811634e+15	1.487963e+14	1.321675e+04	1.004385e+04	4.096894e+03	0	1.171888e-03
8.100000e+08	7.841483e+13	0.000000e+00	7.647061e-01	1.438473e+15	1.801473e+15	1.480998e+14	1.319811e+04	1.003308e+04	4.092501e+03	0	1.167071e-03
8.200000e+08	7.745275e+13	0.000000e+00	7.647061e-01	1.429440e+15	1.791367e+15	1.474080e+14	1.317958e+04	1.002232e+04	4.088113e+03	0	1.162278e-03
8.300000e+08	7.650327e+13	0.000000e+00	7.647061e-01	1.420518e+15	1.781319e+15	1.467211e+14	1.316117e+04	1.001158e+04	4.083732e+03	0	1.157509e-03
8.400000e+08	7.556601e+13	0.000000e+00	7.647061e-01	1.411703e+15	1.771330e+15	1.460389e+14	1.314288e+04	1.000086e+04	4.079361e+03	0	1.152763e-03
8.500000e+08	7.464063e+13	0.000000e+00	7.647061e-01	1.402992e+15	1.761404e+15	1.453614e+14	1.312470e+04	9.990168e+03	4.074998e+03	0	1.148038e-03
8.600000e+08	7.372681e+13	0.000000e+00	7.647061e-01	1.394383e+15	1.751542e+15	1.446885e+14	1.310663e+04	9.979500e+03	4.070647e+03	0	1.143333e-03
8.700000e+08	7.282423e+13	0.000000e+00	7.647061e-01	1.385874e+15	1.741745e+15	1.440203e+14	1.308867e+04	9.968860e+03	4.066307e+03	0	1.138649e-03
8.800000e+08	7.193260e+13	0.000000e+00	7.647061e-01	1.377461e+15	1.732016e+15	1.433567e+14	1.307082e+04	9.958250e+03	4.061979e+03	0	1.133983e-03
8.900000e+08	7.105166e+13	0.000000e+00	7.647061e-01	1.369143e+15	1.722354e+15	1.426977e+14	1.305308e+04	9.947672e+03	4.057664e+03	0	1.129334e-03
9.000000e+08	7.018114e+13	0.000000e+00	7.647061e-01	1.360917e+15	1.712760e+15	1.420432e+14	1.303545e+04	9.937127e+03	4.053363e+03	0	1.124703e-03
9.100000e+08	6.932079e+13	0.000000e+00	7.647061e-01	1.352781e+15	1.703237e+15	1.413931e+14	1.301792e+04	9.926617e+03	4.049076e+03	0	1.120088e-03
9.200000e+08	6.847038e+13	0.000000e+00	7.647061e-01	1.344733e+15	1.693784e+15	1.407476e+14	1.300049e+04	9.916143e+03	4.044803e+03	0	1.115489e-03
9.300000e+08	6.762969e+13	0.000000e+00	7.647061e-01	1.336772e+15	1.684403e+15	1.401064e+14	1.298317e+04	9.905706e+03	4.040546e+03	0	1.110905e-03
9.400000e+08	6.679851e+13	0.000000e+00	7.647061e-01	1.328895e+15	1.675092e+15	1.394696e+14	1.296596e+04	9.895308e+03	4.036305e+03	0	1.106335e-03
9.500000e+08	6.597664e+13	0.000000e+00	7.647061e-01	1.321100e+15	1.665853e+15	1.388372e+14	1.294884e+04	9.884948e+03	4.032079e+03	0	1.101779e-03
9.600000e+08	6.516388e+13	0.000000e+00	7.647061e-01	1.313387e+15	1.656687e+15	1.382090e+14	1.293182e+04	9.874628e+03	4.027870e+03	0	1.097236e-03
9.700000e+08	6.436005e+13	0.000000e+00	7.647061e-01	1.305753e+15	1.647592e+15	1.375852e+14	1.291490e+04	9.864349e+03	4.023677e+03	0	1.092706e-03
9.800000e+08	6.356497e+13	0.000000e+00	7.647061e-01	1.298197e+15	1.638569e+15	1.369656e+14	1.289808e+04	9.854111e+03	4.019500e+03	0	1.088187e-03
9.900000e+08	6.277847e+13	0.000000e+00	7.647061e-01	1.290717e+15	1.629618e+15	1.363502e+14	1.288136e+04	9.843914e+03	4.015341e+03	0	1.083681e-03
1.000000e+09	6.200040e+13	0.000000e+00	7.647061e-01	1.283313e+15	1.620738e+15	1.357390e+14	1.286473e+04	9.833760e+03	4.011199e+03	0	1.079185e-03
1.010000e+09	6.123060e+13	0.000000e+00	7.647061e-01	1.275982e+15	1.611931e+15	1.351319e+14	1.284820e+04	9.823647e+03	4.007074e+03	0	1.074700e-03
1.020000e+09	6.046891e+13	0.000000e+00	7.647061e-01	1.268724e+15	1.603195e+15	1.345290e+14	1.283176e+04	9.813578e+03	4.002967e+03	0	1.070225e-03
1.030000e+09	5.971520e+13	0.000000e+00	7.647061e-01	1.261537e+15	1.594531e+15	1.339301e+14	1.281542e+04	9.803552e+03	3.998877e+03	0	1.065760e-03
1.040000e+09	5.896932e+13	0.000000e+00	7.647061e-01	1.254420e+15	1.585936e+15	1.333353e+14	1.279917e+04	9.793569e+03	3.994805e+03	0	1.061304e-03
1.050000e+09	5.823115e+13	0.000000e+00	7.647061e-01	1.247372e+15	1.577413e+15	1.327444e+14	1.278301e+04	9.783629e+03	3.990751e+03	0	1.056857e-03
1.060000e+09	5.750055e+13	0.000000e+00	7.647061e-01	1.240392e+15	1.568959e+15	1.321576e+14	1.276694e+04	9.773733e+03	3.986714e+03	0	1.052418e-03
1.070000e+09	5.677739e+13	0.000000e+00	7.647061e-01	1.233479e+15	1.560575e+15	1.315747e+14	1.275096e+04	9.763881e+03	3.982695e+03	0	1.047988e-03
1.080000e+09	5.606156e+13	0.000000e+00	7.647061e-01	1.226631e+15	1.552261e+15	1.309958e+14	1.273507e+04	9.754072e+03	3.978695e+03	0	1.043565e-03
1.090000e+09	5.535295e+13	0.000000e+00	7.647061e-01	1.219848e+15	1.544015e+15	1.304207e+14	1.271926e+04	9.744307e+03	3.974711e+03	0	1.039149e-03
1.100000e+09	5.465142e+13	0.000000e+00	7.647061e-01	1.213128e+15	1.535838e+15	1.298495e+14	1.270355e+04	9.734586e+03	3.970746e+03	0	1.034741e-03
1.110000e+09	5.395689e+13	0.000000e+00	7.647061e-01	1.206471e+15	1.527728e+15	1.292822e+14	1.268792e+04	9.724909e+03	3.966799e+03	0	1.030339e-03
1.120000e+09	5.326923e+13	0.000000e+00	7.647061e-01	1.199876e+15	1.519685e+15	1.287186e+14	1.267237e+04	9.715275e+03	3.962869e+03	0	1.025943e-03
1.130000e+09	5.258835e+13	0.000000e+00	7.647061e-01	1.193342e+15	1.511709e+15	1.281588e+14	1.265691e+04	9.705685e+03	3.958957e+03	0	1.021553e-03
1.140000e+09	5.191414e+13	0.000000e+00	7.647061e-01	1.186868e+15	1.503800e+15	1.276027e+14	1.264154e+04	9.696139e+03	3.955063e+03	0	1.017169e-03
1.150000e+09	5.124651e+13	0.000000e+00	7.647061e-01	1.180453e+15	1.495955e+15	1.270504e+14	1.262625e+04	9.686636e+03	3.951187e+03	0	1.012790e-03
1.160000e+09	5.058536e+13	0.000000e+00	7.647061e-01	1.174096e+15	1.488176e+15	1.265018e+14	1.261104e+04	9.677176e+03	3.947329e+03	0	1.008415e-03
1.170000e+09	4.993060e+13	0.000000e+00	7.647061e-01	1.167797e+15	1.480461e+15	1.259568e+14	1.259591e+04	9.667759e+03	3.943487e+03	0	1.004045e-03
1.180000e+09	4.928214e+13	0.000000e+00	7.647061e-01	1.161554e+15	1.472810e+15	1.254154e+14	1.258086e+04	9.658386e+03	3.939664e+03	0	9.996799e-04
1.190000e+09	4.863988e+13	0.000000e+00	7.647061e-01	1.155368e+15	1.465223e+15	1.248776e+14	1.256589e+04	9.649055e+03	3.935858e+03	0	9.953182e-04
1.200000e+09	4.800374e+13	0.000000e+00	7.647061e-01	1.149236e+15	1.457698e+15	1.243434e+14	1.255101e+04	9.639767e+03	3.932069e+03	0	9.909600e-04
1.210000e+09	4.737365e+13	0.000000e+00	7.647061e-01	1.143159e+15	1.450234e+15	1.238127e+14	1.253620e+04	9.630521e+03	3.928298e+03	0	9.866051e-04
1.220000e+09	4.674950e+13	0.000000e+00	7.647061e-01	1.137136e+15	1.442833e+15	1.232856e+14	1.252147e+04	9.621318e+03	3.924544e+03	0	9.822531e-04
1.230000e+09	4.613123e+13	0.000000e+00	7.647061e-01	1.131166e+15	1.435492e+15	1.227619e+14	1.250681e+04	9.612157e+03	3.920807e+03	0	9.779038e-04
1.240000e+09	4.551875e+13	0.000000e+00	7.647061e-01	1.125248e+15	1.428212e+15	1.222417e+14	1.249224e+04	9.603037e+03	3.917087e+03	0	9.735566e-04
1.250000e+09	4.491200e+13	0.000000e+00	7.647061e-01	1.119382e+15	1.420991e+15	1.217250e+14	1.247774e+04	9.593960e+03	3.913384e+03	0	9.692115e-04
1.260000e+09	4.431088e+13	0.000000e+00	7.647061e-01	1.113566e+15	1.413829e+15	1.212116e+14	1.246331e+04	9.584923e+03	3.909699e+03	0	9.648680e-04
1.270000e+09	4.371533e+13	0.000000e+00	7.647061e-01	1.107801e+15	1.406726e+15	1.207016e+14	1.244896e+04	9.575928e+03	3.906029e+03	0	9.605258e-04
1.280000e+09	4.312528e+13	0.000000e+00	7.647061e-01	1.102086e+15	1.399681e+15	1.201950e+14	1.243468e+04	9.566974e+03	3.902377e+03	0	9.561846e-04
1.290000e+09	4.254065e+13	0.000000e+00	7.647061e-01	1.096420e+15	1.392693e+15	1.196917e+14	1.242048e+04	9.558061e+03	3.898741e+03	0	9.518440e-04
1.300000e+09	4.196137e+13	0.000000e+00	7.647061e-01	1.090802e+15	1.385762e+15	1.191917e+14	1.240635e+04	9.549188e+03	3.895122e+03	0	9.475039e-04
1.310000e+09	4.138738e+13	0.000000e+00	7.647061e-01	1.085232e+15	1.378887e+15	1.186950e+14	1.239229e+04	9.540355e+03	3.891519e+03	0	9.431637e-04
1.320000e+09	4.081861e+13	0.000000e+00	7.647061e-01	1.079709e+15	1.372067e+15	1.182016e+14	1.237831e+04	9.531563e+03	3.887933e+03	0	9.388233e-04
1.330000e+09	4.025500e+13	0.000000e+00	7.647061e-01	1.074233e+15	1.365303e+15	1.177113e+14	1.236439e+04	9.522810e+03	3.884362e+03	0	9.344822e-04
1.340000e+09	3.969647e+13	0.000000e+00	7.647061e-01	1.068803e+15	1.358594e+15	1.172243e+14	1.235055e+04	9.514097e+03	3.880808e+03	0	9.301402e-04
1.350000e+09	3.914297e+13	0.000000e+00	7.647061e-01	1.063419e+15	1.351937e+15	1.167405e+14	1.233677e+04	9.505423e+03	3.877270e+03	0	9.257968e-04
1.360000e+09	3.859443e+13	0.000000e+00	7.647061e-01	1.058080e+15	1.345334e+15	1.162598e+14	1.232307e+04	9.496788e+03	3.873748e+03	0	9.214519e-04
