#t		Qconv[W]	Ri[Rp]		R*[Rp]		Qc[W]		Qm[W]		Qr[W]		Tcmb[K]		Tl[K]		Tup[K]		RiFlag		Bs[T]
0.000000e+00	3.802820e+14	0.000000e+00	7.619052e-01	6.485105e+15	8.592630e+13	3.392733e+14	1.975194e+04	7.223229e+03	2.751397e+03	0	1.964046e-03
1.000000e+07	3.822727e+14	0.000000e+00	7.619052e-01	6.493490e+15	1.080611e+14	3.373934e+14	1.971233e+04	7.456549e+03	2.840271e+03	0	1.967467e-03
2.000000e+07	3.831497e+14	0.000000e+00	7.619052e-01	6.493212e+15	1.342858e+14	3.355277e+14	1.967267e+04	7.689258e+03	2.928913e+03	0	1.968971e-03
3.000000e+07	3.829100e+14	0.000000e+00	7.619052e-01	6.484260e+15	1.649974e+14	3.336758e+14	1.963300e+04	7.920907e+03	3.017150e+03	0	1.968560e-03
4.000000e+07	3.815610e+14	0.000000e+00	7.619052e-01	6.466701e+15	2.005650e+14	3.318378e+14	1.959340e+04	8.151033e+03	3.104807e+03	0	1.966246e-03
5.000000e+07	3.791209e+14	0.000000e+00	7.619052e-01	6.440683e+15	2.413174e+14	3.300136e+14	1.955390e+04	8.379164e+03	3.191704e+03	0	1.962045e-03
6.000000e+07	3.756179e+14	0.000000e+00	7.619052e-01	6.406436e+15	2.875300e+14	3.282029e+14	1.951456e+04	8.604822e+03	3.277660e+03	0	1.955984e-03
7.000000e+07	3.710908e+14	0.000000e+00	7.619052e-01	6.364271e+15	3.394140e+14	3.264057e+14	1.947543e+04	8.827530e+03	3.362491e+03	0	1.948094e-03
8.000000e+07	3.655881e+14	0.000000e+00	7.619052e-01	6.314573e+15	3.971052e+14	3.246218e+14	1.943655e+04	9.046812e+03	3.446018e+03	0	1.938417e-03
9.000000e+07	3.591674e+14	0.000000e+00	7.619052e-01	6.257796e+15	4.606564e+14	3.228513e+14	1.939798e+04	9.262208e+03	3.528064e+03	0	1.927002e-03
1.000000e+08	3.518943e+14	0.000000e+00	7.619052e-01	6.194459e+15	5.300309e+14	3.210938e+14	1.935976e+04	9.473267e+03	3.608459e+03	0	1.913906e-03
1.100000e+08	3.438413e+14	0.000000e+00	7.619052e-01	6.125133e+15	6.050994e+14	3.193494e+14	1.932192e+04	9.679564e+03	3.687039e+03	0	1.899193e-03
1.200000e+08	3.350868e+14	0.000000e+00	7.619052e-01	6.050433e+15	6.856396e+14	3.176180e+14	1.928451e+04	9.880697e+03	3.763653e+03	0	1.882936e-03
1.300000e+08	3.257131e+14	0.000000e+00	7.619052e-01	5.971003e+15	7.713391e+14	3.158993e+14	1.924755e+04	1.007630e+04	3.838158e+03	0	1.865212e-03
1.400000e+08	3.158054e+14	0.000000e+00	7.619052e-01	5.887512e+15	8.618006e+14	3.141934e+14	1.921108e+04	1.026602e+04	3.910427e+03	0	1.846105e-03
1.500000e+08	3.054502e+14	0.000000e+00	7.619052e-01	5.800635e+15	9.565508e+14	3.125001e+14	1.917512e+04	1.044958e+04	3.980347e+03	0	1.825702e-03
1.600000e+08	2.947336e+14	0.000000e+00	7.619052e-01	5.711045e+15	1.055050e+15	3.108193e+14	1.913968e+04	1.062672e+04	4.047820e+03	0	1.804096e-03
1.700000e+08	2.837401e+14	0.000000e+00	7.619052e-01	5.619401e+15	1.156707e+15	3.091509e+14	1.910480e+04	1.079722e+04	4.112764e+03	0	1.781380e-03
1.800000e+08	2.725514e+14	0.000000e+00	7.619052e-01	5.526341e+15	1.260888e+15	3.074948e+14	1.907047e+04	1.096091e+04	4.175115e+03	0	1.757651e-03
1.900000e+08	2.612452e+14	0.000000e+00	7.619052e-01	5.432470e+15	1.366937e+15	3.058509e+14	1.903671e+04	1.111767e+04	4.234826e+03	0	1.733003e-03
2.000000e+08	2.498943e+14	0.000000e+00	7.619052e-01	5.338354e+15	1.474186e+15	3.042191e+14	1.900353e+04	1.126741e+04	4.291865e+03	0	1.707531e-03
2.100000e+08	2.385659e+14	0.000000e+00	7.619052e-01	5.244515e+15	1.581970e+15	3.025993e+14	1.897091e+04	1.141010e+04	4.346218e+03	0	1.681328e-03
2.200000e+08	2.273209e+14	0.000000e+00	7.619052e-01	5.151427e+15	1.689639e+15	3.009914e+14	1.893887e+04	1.154575e+04	4.397886e+03	0	1.654485e-03
2.300000e+08	2.162139e+14	0.000000e+00	7.619052e-01	5.059512e+15	1.796571e+15	2.993953e+14	1.890740e+04	1.167438e+04	4.446885e+03	0	1.627088e-03
2.400000e+08	2.052927e+14	0.000000e+00	7.619052e-01	4.969141e+15	1.902182e+15	2.978109e+14	1.887649e+04	1.179609e+04	4.493243e+03	0	1.599218e-03
2.500000e+08	1.945987e+14	0.000000e+00	7.619052e-01	4.880633e+15	2.005932e+15	2.962381e+14	1.884613e+04	1.191097e+04	4.537004e+03	0	1.570952e-03
2.600000e+08	1.841664e+14	0.000000e+00	7.619052e-01	4.794256e+15	2.107333e+15	2.946768e+14	1.881632e+04	1.201917e+04	4.578218e+03	0	1.542363e-03
2.700000e+08	1.740243e+14	0.000000e+00	7.619052e-01	4.710227e+15	2.205950e+15	2.931270e+14	1.878702e+04	1.212085e+04	4.616949e+03	0	1.513514e-03
2.800000e+08	1.641951e+14	0.000000e+00	7.619052e-01	4.628721e+15	2.301409e+15	2.915884e+14	1.875825e+04	1.221620e+04	4.653267e+03	0	1.484464e-03
2.900000e+08	1.546958e+14	0.000000e+00	7.619052e-01	4.549866e+15	2.393393e+15	2.900611e+14	1.872997e+04	1.230541e+04	4.687250e+03	0	1.455267e-03
3.000000e+08	1.455385e+14	0.000000e+00	7.619052e-01	4.473755e+15	2.481644e+15	2.885449e+14	1.870217e+04	1.238871e+04	4.718979e+03	0	1.425966e-03
3.100000e+08	1.367310e+14	0.000000e+00	7.619052e-01	4.400444e+15	2.565954e+15	2.870397e+14	1.867483e+04	1.246632e+04	4.748543e+03	0	1.396600e-03
3.200000e+08	1.282768e+14	0.000000e+00	7.619052e-01	4.329958e+15	2.646176e+15	2.855455e+14	1.864794e+04	1.253849e+04	4.776031e+03	0	1.367201e-03
3.300000e+08	1.201762e+14	0.000000e+00	7.619052e-01	4.262296e+15	2.722208e+15	2.840622e+14	1.862149e+04	1.260545e+04	4.801537e+03	0	1.337794e-03
3.400000e+08	1.124263e+14	0.000000e+00	7.619052e-01	4.197433e+15	2.793991e+15	2.825897e+14	1.859544e+04	1.266744e+04	4.825152e+03	0	1.308396e-03
3.500000e+08	1.050219e+14	0.000000e+00	7.619052e-01	4.135323e+15	2.861511e+15	2.811278e+14	1.856979e+04	1.272472e+04	4.846970e+03	0	1.279017e-03
3.600000e+08	9.795544e+13	0.000000e+00	7.619052e-01	4.075908e+15	2.924788e+15	2.796765e+14	1.854452e+04	1.277753e+04	4.867084e+03	0	1.249662e-03
3.700000e+08	9.121791e+13	0.000000e+00	7.619052e-01	4.019112e+15	2.983872e+15	2.782357e+14	1.851962e+04	1.282610e+04	4.885586e+03	0	1.220328e-03
3.800000e+08	8.479882e+13	0.000000e+00	7.619052e-01	3.964853e+15	3.038840e+15	2.768054e+14	1.849506e+04	1.287068e+04	4.902565e+03	0	1.191004e-03
3.900000e+08	7.868673e+13	0.000000e+00	7.619052e-01	3.913038e+15	3.089795e+15	2.753854e+14	1.847083e+04	1.291149e+04	4.918109e+03	0	1.161672e-03
4.000000e+08	7.286943e+13	0.000000e+00	7.619052e-01	3.863569e+15	3.136853e+15	2.739756e+14	1.844691e+04	1.294875e+04	4.932302e+03	0	1.132309e-03
4.100000e+08	6.733422e+13	0.000000e+00	7.619052e-01	3.816346e+15	3.180148e+15	2.725761e+14	1.842330e+04	1.298268e+04	4.945227e+03	0	1.102880e-03
4.200000e+08	6.206813e+13	0.000000e+00	7.619052e-01	3.771266e+15	3.219824e+15	2.711866e+14	1.839998e+04	1.301348e+04	4.956960e+03	0	1.073345e-03
4.300000e+08	5.705809e+13	0.000000e+00	7.619052e-01	3.728223e+15	3.256032e+15	2.698071e+14	1.837693e+04	1.304136e+04	4.967579e+03	0	1.043652e-03
4.400000e+08	5.229105e+13	0.000000e+00	7.619052e-01	3.687116e+15	3.288933e+15	2.684375e+14	1.835415e+04	1.306650e+04	4.977155e+03	0	1.013738e-03
4.500000e+08	4.775416e+13	0.000000e+00	7.619052e-01	3.647841e+15	3.318686e+15	2.670778e+14	1.833161e+04	1.308908e+04	4.985755e+03	0	9.835282e-04
4.600000e+08	4.343479e+13	0.000000e+00	7.619052e-01	3.610299e+15	3.345454e+15	2.657279e+14	1.830932e+04	1.310927e+04	4.993445e+03	0	9.529329e-04
4.700000e+08	3.932069e+13	0.000000e+00	7.619052e-01	3.574393e+15	3.369396e+15	2.643876e+14	1.828725e+04	1.312723e+04	5.000287e+03	0	9.218427e-04
4.800000e+08	3.540001e+13	0.000000e+00	7.619052e-01	3.540028e+15	3.390672e+15	2.630569e+14	1.826541e+04	1.314311e+04	5.006338e+03	0	8.901248e-04
4.900000e+08	3.166132e+13	0.000000e+00	7.619052e-01	3.507115e+15	3.409441e+15	2.617358e+14	1.824377e+04	1.315707e+04	5.011653e+03	0	8.576158e-04
5.000000e+08	2.809370e+13	0.000000e+00	7.619052e-01	3.475567e+15	3.425852e+15	2.604241e+14	1.822234e+04	1.316922e+04	5.016284e+03	0	8.241117e-04
5.100000e+08	2.468672e+13	0.000000e+00	7.619052e-01	3.445302e+15	3.440055e+15	2.591217e+14	1.820109e+04	1.317971e+04	5.020278e+03	0	7.893524e-04
5.200000e+08	2.143045e+13	0.000000e+00	7.619052e-01	3.416240e+15	3.452188e+15	2.578287e+14	1.818004e+04	1.318864e+04	5.023682e+03	0	7.529975e-04
5.300000e+08	1.831549e+13	0.000000e+00	7.619052e-01	3.388308e+15	3.462391e+15	2.565449e+14	1.815916e+04	1.319614e+04	5.026537e+03	0	7.145883e-04
5.400000e+08	1.533292e+13	0.000000e+00	7.619052e-01	3.361434e+15	3.470790e+15	2.552702e+14	1.813845e+04	1.320230e+04	5.028883e+03	0	6.734801e-04
5.500000e+08	1.247437e+13	0.000000e+00	7.619052e-01	3.335554e+15	3.477513e+15	2.540046e+14	1.811790e+04	1.320722e+04	5.030758e+03	0	6.287181e-04
5.600000e+08	9.731914e+12	0.000000e+00	7.619052e-01	3.310603e+15	3.482675e+15	2.527480e+14	1.809751e+04	1.321100e+04	5.032195e+03	0	5.787831e-04
5.700000e+08	7.098131e+12	0.000000e+00	7.619052e-01	3.286525e+15	3.486386e+15	2.515004e+14	1.807728e+04	1.321371e+04	5.033228e+03	0	5.209921e-04
5.800000e+08	4.566050e+12	0.000000e+00	7.619052e-01	3.263262e+15	3.488753e+15	2.502615e+14	1.805719e+04	1.321544e+04	5.033887e+03	0	4.497419e-04
5.900000e+08	2.129139e+12	0.000000e+00	7.619052e-01	3.240764e+15	3.489874e+15	2.490315e+14	1.803724e+04	1.321625e+04	5.034198e+03	0	3.487528e-04
6.000000e+08	-2.187138e+11	0.000000e+00	7.619052e-01	3.218983e+15	3.489842e+15	2.478102e+14	1.801743e+04	1.321623e+04	5.034189e+03	0	nan
