#t		Qconv[W]	Ri[Rp]		R*[Rp]		Qc[W]		Qm[W]		Qr[W]		Tcmb[K]		Tl[K]		Tup[K]		RiFlag		Bs[T]
0.000000e+00	3.792806e+14	0.000000e+00	7.619043e-01	8.242646e+15	8.158187e+13	3.753674e+14	2.159130e+04	7.681597e+03	2.798971e+03	0	1.958610e-03
1.000000e+07	3.833331e+14	0.000000e+00	7.619043e-01	8.264726e+15	1.051957e+14	3.732876e+14	2.155116e+04	7.953207e+03	2.897939e+03	0	1.965562e-03
2.000000e+07	3.858373e+14	0.000000e+00	7.619043e-01	8.274607e+15	1.337658e+14	3.712233e+14	2.151091e+04	8.224624e+03	2.996836e+03	0	1.969832e-03
3.000000e+07	3.867775e+14	0.000000e+00	7.619043e-01	8.272180e+15	1.678730e+14	3.691745e+14	2.147062e+04	8.495294e+03	3.095461e+03	0	1.971431e-03
4.000000e+07	3.861533e+14	0.000000e+00	7.619043e-01	8.257458e+15	2.080739e+14	3.671410e+14	2.143034e+04	8.764639e+03	3.193603e+03	0	1.970370e-03
5.000000e+07	3.839805e+14	0.000000e+00	7.619043e-01	8.230578e+15	2.548821e+14	3.651226e+14	2.139012e+04	9.032066e+03	3.291046e+03	0	1.966667e-03
6.000000e+07	3.802912e+14	0.000000e+00	7.619043e-01	8.191807e+15	3.087479e+14	3.631193e+14	2.135004e+04	9.296969e+03	3.387570e+03	0	1.960349e-03
7.000000e+07	3.751337e+14	0.000000e+00	7.619043e-01	8.141540e+15	3.700403e+14	3.611309e+14	2.131015e+04	9.558740e+03	3.482953e+03	0	1.951446e-03
8.000000e+07	3.685716e+14	0.000000e+00	7.619043e-01	8.080289e+15	4.390296e+14	3.591573e+14	2.127050e+04	9.816771e+03	3.576972e+03	0	1.940000e-03
9.000000e+07	3.606833e+14	0.000000e+00	7.619043e-01	8.008685e+15	5.158718e+14	3.571983e+14	2.123115e+04	1.007047e+04	3.669412e+03	0	1.926060e-03
1.000000e+08	3.515603e+14	0.000000e+00	7.619043e-01	7.927457e+15	6.005984e+14	3.552539e+14	2.119215e+04	1.031924e+04	3.760060e+03	0	1.909682e-03
1.100000e+08	3.413053e+14	0.000000e+00	7.619043e-01	7.837427e+15	6.931075e+14	3.533240e+14	2.115355e+04	1.056255e+04	3.848713e+03	0	1.890930e-03
1.200000e+08	3.300308e+14	0.000000e+00	7.619043e-01	7.739488e+15	7.931620e+14	3.514083e+14	2.111538e+04	1.079985e+04	3.935181e+03	0	1.869875e-03
1.300000e+08	3.178561e+14	0.000000e+00	7.619043e-01	7.634589e+15	9.003906e+14	3.495068e+14	2.107769e+04	1.103067e+04	4.019285e+03	0	1.846594e-03
1.400000e+08	3.049055e+14	0.000000e+00	7.619043e-01	7.523713e+15	1.014295e+15	3.476194e+14	2.104051e+04	1.125456e+04	4.100866e+03	0	1.821166e-03
1.500000e+08	2.913056e+14	0.000000e+00	7.619043e-01	7.407865e+15	1.134260e+15	3.457460e+14	2.100387e+04	1.147114e+04	4.179780e+03	0	1.793677e-03
1.600000e+08	2.771831e+14	0.000000e+00	7.619043e-01	7.288045e+15	1.259569e+15	3.438864e+14	2.096780e+04	1.168005e+04	4.255903e+03	0	1.764209e-03
1.700000e+08	2.626625e+14	0.000000e+00	7.619043e-01	7.165237e+15	1.389424e+15	3.420405e+14	2.093230e+04	1.188102e+04	4.329131e+03	0	1.732848e-03
1.800000e+08	2.478639e+14	0.000000e+00	7.619043e-01	7.040389e+15	1.522959e+15	3.402082e+14	2.089741e+04	1.207382e+04	4.399382e+03	0	1.699674e-03
1.900000e+08	2.329015e+14	0.000000e+00	7.619043e-01	6.914402e+15	1.659271e+15	3.383894e+14	2.086312e+04	1.225828e+04	4.466595e+03	0	1.664761e-03
2.000000e+08	2.178821e+14	0.000000e+00	7.619043e-01	6.788116e+15	1.797433e+15	3.365840e+14	2.082944e+04	1.243430e+04	4.530730e+03	0	1.628177e-03
2.100000e+08	2.029038e+14	0.000000e+00	7.619043e-01	6.662302e+15	1.936521e+15	3.347919e+14	2.079638e+04	1.260181e+04	4.591768e+03	0	1.589978e-03
2.200000e+08	1.880550e+14	0.000000e+00	7.619043e-01	6.537656e+15	2.075629e+15	3.330129e+14	2.076394e+04	1.276083e+04	4.649709e+03	0	1.550206e-03
2.300000e+08	1.734145e+14	0.000000e+00	7.619043e-01	6.414795e+15	2.213893e+15	3.312470e+14	2.073209e+04	1.291139e+04	4.704571e+03	0	1.508886e-03
2.400000e+08	1.590506e+14	0.000000e+00	7.619043e-01	6.294255e+15	2.350496e+15	3.294940e+14	2.070085e+04	1.305361e+04	4.756390e+03	0	1.466019e-03
2.500000e+08	1.450218e+14	0.000000e+00	7.619043e-01	6.176491e+15	2.484690e+15	3.277539e+14	2.067019e+04	1.318761e+04	4.805216e+03	0	1.421583e-03
2.600000e+08	1.313763e+14	0.000000e+00	7.619043e-01	6.061882e+15	2.615798e+15	3.260265e+14	2.064011e+04	1.331357e+04	4.851115e+03	0	1.375520e-03
2.700000e+08	1.181531e+14	0.000000e+00	7.619043e-01	5.950728e+15	2.743225e+15	3.243118e+14	2.061058e+04	1.343171e+04	4.894161e+03	0	1.327729e-03
2.800000e+08	1.053826e+14	0.000000e+00	7.619043e-01	5.843265e+15	2.866456e+15	3.226095e+14	2.058160e+04	1.354226e+04	4.934441e+03	0	1.278059e-03
2.900000e+08	9.308681e+13	0.000000e+00	7.619043e-01	5.739661e+15	2.985063e+15	3.209197e+14	2.055313e+04	1.364547e+04	4.972050e+03	0	1.226283e-03
3.000000e+08	8.128051e+13	0.000000e+00	7.619043e-01	5.640029e+15	3.098697e+15	3.192422e+14	2.052517e+04	1.374163e+04	5.007087e+03	0	1.172078e-03
3.100000e+08	6.997198e+13	0.000000e+00	7.619043e-01	5.544428e+15	3.207090e+15	3.175769e+14	2.049770e+04	1.383102e+04	5.039660e+03	0	1.114986e-03
3.200000e+08	5.916379e+13	0.000000e+00	7.619043e-01	5.452875e+15	3.310049e+15	3.159238e+14	2.047069e+04	1.391395e+04	5.069875e+03	0	1.054338e-03
3.300000e+08	4.885359e+13	0.000000e+00	7.619043e-01	5.365345e+15	3.407449e+15	3.142826e+14	2.044413e+04	1.399071e+04	5.097846e+03	0	9.891451e-04
3.400000e+08	3.903485e+13	0.000000e+00	7.619043e-01	5.281782e+15	3.499228e+15	3.126534e+14	2.041799e+04	1.406162e+04	5.123683e+03	0	9.178648e-04
3.500000e+08	2.969763e+13	0.000000e+00	7.619043e-01	5.202105e+15	3.585379e+15	3.110360e+14	2.039226e+04	1.412698e+04	5.147497e+03	0	8.379185e-04
3.600000e+08	2.082914e+13	0.000000e+00	7.619043e-01	5.126206e+15	3.665945e+15	3.094304e+14	2.036692e+04	1.418709e+04	5.169400e+03	0	7.444776e-04
3.700000e+08	1.241442e+13	0.000000e+00	7.619043e-01	5.053966e+15	3.741008e+15	3.078363e+14	2.034195e+04	1.424225e+04	5.189500e+03	0	6.265225e-04
3.800000e+08	4.436805e+12	0.000000e+00	7.619043e-01	4.985247e+15	3.810690e+15	3.062538e+14	2.031732e+04	1.429275e+04	5.207902e+03	0	4.446155e-04
3.900000e+08	-3.121592e+12	0.000000e+00	7.619043e-01	4.919906e+15	3.875139e+15	3.046827e+14	2.029304e+04	1.433888e+04	5.224710e+03	0	nan
