#t		Qconv[W]	Ri[Rp]		R*[Rp]		Qc[W]		Qm[W]		Qr[W]		Tcmb[K]		Tl[K]		Tup[K]		RiFlag		Bs[T]
0.000000e+00	2.904318e+11	0.000000e+00	4.221105e-01	1.338127e+13	1.350345e+15	1.092875e+14	4.418098e+03	3.102562e+03	2.049997e+03	0	2.766402e-04
1.000000e+07	2.883384e+11	0.000000e+00	4.221105e-01	1.328719e+13	1.153603e+15	1.086819e+14	4.410769e+03	3.003234e+03	1.984366e+03	0	2.759739e-04
2.000000e+07	2.839428e+11	0.000000e+00	4.221105e-01	1.309046e+13	1.001527e+15	1.080809e+14	4.403491e+03	2.919110e+03	1.928782e+03	0	2.745644e-04
3.000000e+07	2.783581e+11	0.000000e+00	4.221105e-01	1.284069e+13	8.813789e+14	1.074844e+14	4.396319e+03	2.846851e+03	1.881037e+03	0	2.727523e-04
4.000000e+07	2.722187e+11	0.000000e+00	4.221105e-01	1.256621e+13	7.846573e+14	1.068923e+14	4.389282e+03	2.784038e+03	1.839534e+03	0	2.707322e-04
5.000000e+07	2.658904e+11	0.000000e+00	4.221105e-01	1.228331e+13	7.055196e+14	1.063047e+14	4.382395e+03	2.728876e+03	1.803086e+03	0	2.686178e-04
6.000000e+07	2.595847e+11	0.000000e+00	4.221105e-01	1.200144e+13	6.398466e+14	1.057214e+14	4.375662e+03	2.680005e+03	1.770795e+03	0	2.664773e-04
7.000000e+07	2.534217e+11	0.000000e+00	4.221105e-01	1.172594e+13	5.846670e+14	1.051425e+14	4.369083e+03	2.636376e+03	1.741967e+03	0	2.643515e-04
8.000000e+07	2.474676e+11	0.000000e+00	4.221105e-01	1.145978e+13	5.377934e+14	1.045679e+14	4.362653e+03	2.597163e+03	1.716058e+03	0	2.622648e-04
9.000000e+07	2.417557e+11	0.000000e+00	4.221105e-01	1.120443e+13	4.975860e+14	1.039976e+14	4.356369e+03	2.561712e+03	1.692633e+03	0	2.602313e-04
1.000000e+08	2.362996e+11	0.000000e+00	4.221105e-01	1.096050e+13	4.627956e+14	1.034315e+14	4.350225e+03	2.529491e+03	1.671344e+03	0	2.582586e-04
1.100000e+08	2.311007e+11	0.000000e+00	4.221105e-01	1.072806e+13	4.324561e+14	1.028696e+14	4.344213e+03	2.500069e+03	1.651903e+03	0	2.563506e-04
1.200000e+08	2.261535e+11	0.000000e+00	4.221105e-01	1.050686e+13	4.058109e+14	1.023118e+14	4.338328e+03	2.473088e+03	1.634076e+03	0	2.545081e-04
1.300000e+08	2.214485e+11	0.000000e+00	4.221105e-01	1.029647e+13	3.822597e+14	1.017582e+14	4.332565e+03	2.448251e+03	1.617665e+03	0	2.527308e-04
1.400000e+08	2.169738e+11	0.000000e+00	4.221105e-01	1.009636e+13	3.613217e+14	1.012087e+14	4.326916e+03	2.425309e+03	1.602506e+03	0	2.510169e-04
1.500000e+08	2.127168e+11	0.000000e+00	4.221105e-01	9.905967e+12	3.426074e+14	1.006632e+14	4.321376e+03	2.404048e+03	1.588458e+03	0	2.493644e-04
1.600000e+08	2.086645e+11	0.000000e+00	4.221105e-01	9.724713e+12	3.257986e+14	1.001218e+14	4.315941e+03	2.384290e+03	1.575403e+03	0	2.477708e-04
1.700000e+08	2.048040e+11	0.000000e+00	4.221105e-01	9.552028e+12	3.106331e+14	9.958439e+13	4.310605e+03	2.365878e+03	1.563237e+03	0	2.462333e-04
1.800000e+08	2.011232e+11	0.000000e+00	4.221105e-01	9.387361e+12	2.968932e+14	9.905092e+13	4.305363e+03	2.348678e+03	1.551873e+03	0	2.447492e-04
1.900000e+08	1.976103e+11	0.000000e+00	4.221105e-01	9.230193e+12	2.843966e+14	9.852139e+13	4.300211e+03	2.332574e+03	1.541232e+03	0	2.433158e-04
2.000000e+08	1.942543e+11	0.000000e+00	4.221105e-01	9.080035e+12	2.729901e+14	9.799575e+13	4.295145e+03	2.317464e+03	1.531248e+03	0	2.419306e-04
2.100000e+08	1.910451e+11	0.000000e+00	4.221105e-01	8.936428e+12	2.625438e+14	9.747397e+13	4.290161e+03	2.303259e+03	1.521862e+03	0	2.405909e-04
2.200000e+08	1.879731e+11	0.000000e+00	4.221105e-01	8.798947e+12	2.529469e+14	9.695603e+13	4.285256e+03	2.289879e+03	1.513022e+03	0	2.392944e-04
2.300000e+08	1.850295e+11	0.000000e+00	4.221105e-01	8.667197e+12	2.441045e+14	9.644189e+13	4.280426e+03	2.277255e+03	1.504680e+03	0	2.380387e-04
2.400000e+08	1.822059e+11	0.000000e+00	4.221105e-01	8.540813e+12	2.359349e+14	9.593152e+13	4.275668e+03	2.265324e+03	1.496797e+03	0	2.368216e-04
2.500000e+08	1.794950e+11	0.000000e+00	4.221105e-01	8.419456e+12	2.283676e+14	9.542488e+13	4.270979e+03	2.254032e+03	1.489336e+03	0	2.356413e-04
2.600000e+08	1.768896e+11	0.000000e+00	4.221105e-01	8.302814e+12	2.213409e+14	9.492196e+13	4.266357e+03	2.243329e+03	1.482264e+03	0	2.344956e-04
2.700000e+08	1.743834e+11	0.000000e+00	4.221105e-01	8.190597e+12	2.148013e+14	9.442271e+13	4.261799e+03	2.233170e+03	1.475551e+03	0	2.333828e-04
2.800000e+08	1.719702e+11	0.000000e+00	4.221105e-01	8.082539e+12	2.087019e+14	9.392711e+13	4.257302e+03	2.223514e+03	1.469172e+03	0	2.323013e-04
2.900000e+08	1.696446e+11	0.000000e+00	4.221105e-01	7.978392e+12	2.030013e+14	9.343512e+13	4.252864e+03	2.214326e+03	1.463101e+03	0	2.312494e-04
3.000000e+08	1.674015e+11	0.000000e+00	4.221105e-01	7.877928e+12	1.976630e+14	9.294672e+13	4.248483e+03	2.205573e+03	1.457317e+03	0	2.302256e-04
3.100000e+08	1.652360e+11	0.000000e+00	4.221105e-01	7.780934e+12	1.926547e+14	9.246188e+13	4.244157e+03	2.197225e+03	1.451801e+03	0	2.292286e-04
3.200000e+08	1.631439e+11	0.000000e+00	4.221105e-01	7.687215e+12	1.879478e+14	9.198057e+13	4.239884e+03	2.189254e+03	1.446534e+03	0	2.282570e-04
3.300000e+08	1.611210e+11	0.000000e+00	4.221105e-01	7.596587e+12	1.835166e+14	9.150275e+13	4.235663e+03	2.181635e+03	1.441500e+03	0	2.273097e-04
3.400000e+08	1.591635e+11	0.000000e+00	4.221105e-01	7.508883e+12	1.793383e+14	9.102841e+13	4.231491e+03	2.174347e+03	1.436685e+03	0	2.263854e-04
3.500000e+08	1.572679e+11	0.000000e+00	4.221105e-01	7.423945e+12	1.753925e+14	9.055751e+13	4.227367e+03	2.167367e+03	1.432073e+03	0	2.254831e-04
3.600000e+08	1.554310e+11	0.000000e+00	4.221105e-01	7.341627e+12	1.716607e+14	9.009002e+13	4.223290e+03	2.160678e+03	1.427653e+03	0	2.246017e-04
3.700000e+08	1.536497e+11	0.000000e+00	4.221105e-01	7.261792e+12	1.681264e+14	8.962592e+13	4.219258e+03	2.154261e+03	1.423413e+03	0	2.237404e-04
3.800000e+08	1.519211e+11	0.000000e+00	4.221105e-01	7.184315e+12	1.647745e+14	8.916517e+13	4.215269e+03	2.148100e+03	1.419342e+03	0	2.228982e-04
3.900000e+08	1.502426e+11	0.000000e+00	4.221105e-01	7.109076e+12	1.615917e+14	8.870776e+13	4.211323e+03	2.142180e+03	1.415430e+03	0	2.220743e-04
4.000000e+08	1.486118e+11	0.000000e+00	4.221105e-01	7.035966e+12	1.585655e+14	8.825365e+13	4.207419e+03	2.136487e+03	1.411669e+03	0	2.212679e-04
4.100000e+08	1.470263e+11	0.000000e+00	4.221105e-01	6.964880e+12	1.556849e+14	8.780281e+13	4.203554e+03	2.131008e+03	1.408049e+03	0	2.204781e-04
4.200000e+08	1.454839e+11	0.000000e+00	4.221105e-01	6.895723e+12	1.529397e+14	8.735523e+13	4.199728e+03	2.125732e+03	1.404563e+03	0	2.197045e-04
4.300000e+08	1.439827e+11	0.000000e+00	4.221105e-01	6.828403e+12	1.503205e+14	8.691087e+13	4.195940e+03	2.120647e+03	1.401203e+03	0	2.189461e-04
4.400000e+08	1.425207e+11	0.000000e+00	4.221105e-01	6.762836e+12	1.478191e+14	8.646970e+13	4.192189e+03	2.115743e+03	1.397962e+03	0	2.182025e-04
4.500000e+08	1.410961e+11	0.000000e+00	4.221105e-01	6.698943e+12	1.454275e+14	8.603170e+13	4.188474e+03	2.111010e+03	1.394835e+03	0	2.174731e-04
4.600000e+08	1.397073e+11	0.000000e+00	4.221105e-01	6.636648e+12	1.431388e+14	8.559685e+13	4.184794e+03	2.106440e+03	1.391815e+03	0	2.167572e-04
4.700000e+08	1.383527e+11	0.000000e+00	4.221105e-01	6.575882e+12	1.409462e+14	8.516512e+13	4.181148e+03	2.102023e+03	1.388897e+03	0	2.160544e-04
4.800000e+08	1.370308e+11	0.000000e+00	4.221105e-01	6.516578e+12	1.388440e+14	8.473648e+13	4.177536e+03	2.097753e+03	1.386076e+03	0	2.153641e-04
4.900000e+08	1.357402e+11	0.000000e+00	4.221105e-01	6.458674e+12	1.368265e+14	8.431091e+13	4.173956e+03	2.093622e+03	1.383346e+03	0	2.146858e-04
5.000000e+08	1.344796e+11	0.000000e+00	4.221105e-01	6.402111e+12	1.348885e+14	8.388838e+13	4.170407e+03	2.089623e+03	1.380704e+03	0	2.140192e-04
5.100000e+08	1.332479e+11	0.000000e+00	4.221105e-01	6.346835e+12	1.330255e+14	8.346888e+13	4.166890e+03	2.085749e+03	1.378145e+03	0	2.133637e-04
5.200000e+08	1.320437e+11	0.000000e+00	4.221105e-01	6.292792e+12	1.312330e+14	8.305236e+13	4.163403e+03	2.081995e+03	1.375664e+03	0	2.127191e-04
5.300000e+08	1.308660e+11	0.000000e+00	4.221105e-01	6.239934e+12	1.295070e+14	8.263882e+13	4.159945e+03	2.078355e+03	1.373259e+03	0	2.120848e-04
5.400000e+08	1.297137e+11	0.000000e+00	4.221105e-01	6.188215e+12	1.278437e+14	8.222822e+13	4.156517e+03	2.074824e+03	1.370926e+03	0	2.114605e-04
5.500000e+08	1.285860e+11	0.000000e+00	4.221105e-01	6.137589e+12	1.262397e+14	8.182054e+13	4.153117e+03	2.071396e+03	1.368660e+03	0	2.108459e-04
5.600000e+08	1.274818e+11	0.000000e+00	4.221105e-01	6.088016e+12	1.246917e+14	8.141576e+13	4.149745e+03	2.068067e+03	1.366461e+03	0	2.102406e-04
5.700000e+08	1.264002e+11	0.000000e+00	4.221105e-01	6.039455e+12	1.231967e+14	8.101386e+13	4.146399e+03	2.064832e+03	1.364323e+03	0	2.096443e-04
5.800000e+08	1.253404e+11	0.000000e+00	4.221105e-01	5.991870e+12	1.217518e+14	8.061481e+13	4.143081e+03	2.061687e+03	1.362245e+03	0	2.090568e-04
5.900000e+08	1.243016e+11	0.000000e+00	4.221105e-01	5.945224e+12	1.203545e+14	8.021858e+13	4.139788e+03	2.058628e+03	1.360224e+03	0	2.084777e-04
6.000000e+08	1.232832e+11	0.000000e+00	4.221105e-01	5.899484e+12	1.190024e+14	7.982516e+13	4.136522e+03	2.055652e+03	1.358258e+03	0	2.079067e-04
6.100000e+08	1.222842e+11	0.000000e+00	4.221105e-01	5.854618e+12	1.176930e+14	7.943453e+13	4.133280e+03	2.052755e+03	1.356343e+03	0	2.073436e-04
6.200000e+08	1.213041e+11	0.000000e+00	4.221105e-01	5.810596e+12	1.164244e+14	7.904665e+13	4.130063e+03	2.049933e+03	1.354479e+03	0	2.067882e-04
6.300000e+08	1.203422e+11	0.000000e+00	4.221105e-01	5.767388e+12	1.151944e+14	7.866151e+13	4.126870e+03	2.047183e+03	1.352662e+03	0	2.062401e-04
6.400000e+08	1.193979e+11	0.000000e+00	4.221105e-01	5.724967e+12	1.140012e+14	7.827909e+13	4.123700e+03	2.044503e+03	1.350891e+03	0	2.056993e-04
6.500000e+08	1.184706e+11	0.000000e+00	4.221105e-01	5.683307e+12	1.128431e+14	7.789936e+13	4.120554e+03	2.041889e+03	1.349164e+03	0	2.051654e-04
6.600000e+08	1.175598e+11	0.000000e+00	4.221105e-01	5.642382e+12	1.117183e+14	7.752231e+13	4.117431e+03	2.039338e+03	1.347479e+03	0	2.046382e-04
6.700000e+08	1.166648e+11	0.000000e+00	4.221105e-01	5.602169e+12	1.106254e+14	7.714790e+13	4.114330e+03	2.036849e+03	1.345834e+03	0	2.041176e-04
6.800000e+08	1.157853e+11	0.000000e+00	4.221105e-01	5.562645e+12	1.095628e+14	7.677613e+13	4.111251e+03	2.034418e+03	1.344228e+03	0	2.036034e-04
6.900000e+08	1.149207e+11	0.000000e+00	4.221105e-01	5.523788e+12	1.085292e+14	7.640696e+13	4.108194e+03	2.032044e+03	1.342659e+03	0	2.030953e-04
7.000000e+08	1.140705e+11	0.000000e+00	4.221105e-01	5.485578e+12	1.075233e+14	7.604038e+13	4.105158e+03	2.029724e+03	1.341126e+03	0	2.025933e-04
7.100000e+08	1.132343e+11	0.000000e+00	4.221105e-01	5.447994e+12	1.065438e+14	7.567637e+13	4.102144e+03	2.027456e+03	1.339628e+03	0	2.020970e-04
7.200000e+08	1.124118e+11	0.000000e+00	4.221105e-01	5.411018e+12	1.055897e+14	7.531490e+13	4.099149e+03	2.025238e+03	1.338162e+03	0	2.016065e-04
7.300000e+08	1.116024e+11	0.000000e+00	4.221105e-01	5.374632e+12	1.046597e+14	7.495596e+13	4.096176e+03	2.023068e+03	1.336728e+03	0	2.011214e-04
7.400000e+08	1.108057e+11	0.000000e+00	4.221105e-01	5.338818e+12	1.037530e+14	7.459952e+13	4.093222e+03	2.020944e+03	1.335325e+03	0	2.006417e-04
7.500000e+08	1.100215e+11	0.000000e+00	4.221105e-01	5.303559e+12	1.028685e+14	7.424557e+13	4.090287e+03	2.018865e+03	1.333951e+03	0	2.001673e-04
7.600000e+08	1.092494e+11	0.000000e+00	4.221105e-01	5.268840e+12	1.020052e+14	7.389409e+13	4.087372e+03	2.016829e+03	1.332606e+03	0	1.996979e-04
7.700000e+08	1.084890e+11	0.000000e+00	4.221105e-01	5.234646e+12	1.011624e+14	7.354505e+13	4.084476e+03	2.014834e+03	1.331288e+03	0	1.992335e-04
7.800000e+08	1.077399e+11	0.000000e+00	4.221105e-01	5.200961e+12	1.003392e+14	7.319843e+13	4.081599e+03	2.012879e+03	1.329996e+03	0	1.987739e-04
7.900000e+08	1.070020e+11	0.000000e+00	4.221105e-01	5.167772e+12	9.953483e+13	7.285423e+13	4.078741e+03	2.010962e+03	1.328729e+03	0	1.983191e-04
8.000000e+08	1.062748e+11	0.000000e+00	4.221105e-01	5.135066e+12	9.874851e+13	7.251241e+13	4.075900e+03	2.009082e+03	1.327487e+03	0	1.978688e-04
8.100000e+08	1.055581e+11	0.000000e+00	4.221105e-01	5.102829e+12	9.797956e+13	7.217296e+13	4.073078e+03	2.007238e+03	1.326269e+03	0	1.974230e-04
8.200000e+08	1.048516e+11	0.000000e+00	4.221105e-01	5.071048e+12	9.722731e+13	7.183586e+13	4.070273e+03	2.005428e+03	1.325073e+03	0	1.969815e-04
8.300000e+08	1.041550e+11	0.000000e+00	4.221105e-01	5.039713e+12	9.649113e+13	7.150108e+13	4.067485e+03	2.003652e+03	1.323899e+03	0	1.965444e-04
8.400000e+08	1.034682e+11	0.000000e+00	4.221105e-01	5.008812e+12	9.577042e+13	7.116863e+13	4.064715e+03	2.001908e+03	1.322747e+03	0	1.961114e-04
8.500000e+08	1.027907e+11	0.000000e+00	4.221105e-01	4.978333e+12	9.506459e+13	7.083846e+13	4.061962e+03	2.000194e+03	1.321615e+03	0	1.956824e-04
8.600000e+08	1.021225e+11	0.000000e+00	4.221105e-01	4.948265e+12	9.437312e+13	7.051057e+13	4.059225e+03	1.998511e+03	1.320502e+03	0	1.952575e-04
8.700000e+08	1.014632e+11	0.000000e+00	4.221105e-01	4.918600e+12	9.369547e+13	7.018494e+13	4.056505e+03	1.996857e+03	1.319409e+03	0	1.948364e-04
8.800000e+08	1.008127e+11	0.000000e+00	4.221105e-01	4.889326e+12	9.303115e+13	6.986155e+13	4.053801e+03	1.995230e+03	1.318335e+03	0	1.944191e-04
8.900000e+08	1.001707e+11	0.000000e+00	4.221105e-01	4.860434e+12	9.237970e+13	6.954038e+13	4.051114e+03	1.993631e+03	1.317278e+03	0	1.940056e-04
9.000000e+08	9.953709e+10	0.000000e+00	4.221105e-01	4.831916e+12	9.174066e+13	6.922141e+13	4.048442e+03	1.992057e+03	1.316238e+03	0	1.935956e-04
9.100000e+08	9.891159e+10	0.000000e+00	4.221105e-01	4.803762e+12	9.111360e+13	6.890463e+13	4.045786e+03	1.990510e+03	1.315215e+03	0	1.931892e-04
9.200000e+08	9.829402e+10	0.000000e+00	4.221105e-01	4.775964e+12	9.049812e+13	6.859002e+13	4.043145e+03	1.988986e+03	1.314209e+03	0	1.927863e-04
9.300000e+08	9.768422e+10	0.000000e+00	4.221105e-01	4.748513e+12	8.989382e+13	6.827757e+13	4.040519e+03	1.987486e+03	1.313218e+03	0	1.923868e-04
9.400000e+08	9.708200e+10	0.000000e+00	4.221105e-01	4.721402e+12	8.930034e+13	6.796725e+13	4.037909e+03	1.986010e+03	1.312242e+03	0	1.919907e-04
9.500000e+08	9.648720e+10	0.000000e+00	4.221105e-01	4.694624e+12	8.871731e+13	6.765904e+13	4.035313e+03	1.984555e+03	1.311281e+03	0	1.915978e-04
9.600000e+08	9.589964e+10	0.000000e+00	4.221105e-01	4.668169e+12	8.814440e+13	6.735294e+13	4.032733e+03	1.983122e+03	1.310334e+03	0	1.912081e-04
9.700000e+08	9.531917e+10	0.000000e+00	4.221105e-01	4.642033e+12	8.758129e+13	6.704892e+13	4.030166e+03	1.981710e+03	1.309401e+03	0	1.908215e-04
9.800000e+08	9.474563e+10	0.000000e+00	4.221105e-01	4.616207e+12	8.702765e+13	6.674697e+13	4.027614e+03	1.980318e+03	1.308481e+03	0	1.904380e-04
9.900000e+08	9.417888e+10	0.000000e+00	4.221105e-01	4.590684e+12	8.648319e+13	6.644708e+13	4.025076e+03	1.978946e+03	1.307575e+03	0	1.900575e-04
1.000000e+09	9.361876e+10	0.000000e+00	4.221105e-01	4.565460e+12	8.594764e+13	6.614921e+13	4.022553e+03	1.977592e+03	1.306681e+03	0	1.896800e-04
1.010000e+09	9.306515e+10	0.000000e+00	4.221105e-01	4.540526e+12	8.542071e+13	6.585337e+13	4.020043e+03	1.976258e+03	1.305799e+03	0	1.893054e-04
1.020000e+09	9.251790e+10	0.000000e+00	4.221105e-01	4.515878e+12	8.490214e+13	6.555954e+13	4.017546e+03	1.974941e+03	1.304929e+03	0	1.889336e-04
1.030000e+09	9.197688e+10	0.000000e+00	4.221105e-01	4.491509e+12	8.439168e+13	6.526769e+13	4.015063e+03	1.973641e+03	1.304070e+03	0	1.885646e-04
1.040000e+09	9.144197e+10	0.000000e+00	4.221105e-01	4.467413e+12	8.388910e+13	6.497781e+13	4.012594e+03	1.972359e+03	1.303222e+03	0	1.881983e-04
1.050000e+09	9.091304e+10	0.000000e+00	4.221105e-01	4.443586e+12	8.339416e+13	6.468990e+13	4.010138e+03	1.971093e+03	1.302386e+03	0	1.878347e-04
1.060000e+09	9.038998e+10	0.000000e+00	4.221105e-01	4.420021e+12	8.290664e+13	6.440392e+13	4.007695e+03	1.969842e+03	1.301560e+03	0	1.874738e-04
1.070000e+09	8.987266e+10	0.000000e+00	4.221105e-01	4.396714e+12	8.242633e+13	6.411987e+13	4.005265e+03	1.968608e+03	1.300744e+03	0	1.871155e-04
1.080000e+09	8.936098e+10	0.000000e+00	4.221105e-01	4.373660e+12	8.195302e+13	6.383773e+13	4.002847e+03	1.967388e+03	1.299938e+03	0	1.867597e-04
1.090000e+09	8.885483e+10	0.000000e+00	4.221105e-01	4.350853e+12	8.148652e+13	6.355749e+13	4.000443e+03	1.966183e+03	1.299142e+03	0	1.864064e-04
1.100000e+09	8.835410e+10	0.000000e+00	4.221105e-01	4.328290e+12	8.102664e+13	6.327913e+13	3.998050e+03	1.964992e+03	1.298355e+03	0	1.860556e-04
1.110000e+09	8.785869e+10	0.000000e+00	4.221105e-01	4.305965e+12	8.057321e+13	6.300264e+13	3.995671e+03	1.963815e+03	1.297577e+03	0	1.857072e-04
1.120000e+09	8.736850e+10	0.000000e+00	4.221105e-01	4.283874e+12	8.012603e+13	6.272799e+13	3.993303e+03	1.962651e+03	1.296808e+03	0	1.853612e-04
1.130000e+09	8.688343e+10	0.000000e+00	4.221105e-01	4.262012e+12	7.968496e+13	6.245519e+13	3.990948e+03	1.961501e+03	1.296048e+03	0	1.850175e-04
1.140000e+09	8.640340e+10	0.000000e+00	4.221105e-01	4.240376e+12	7.924983e+13	6.218421e+13	3.988604e+03	1.960363e+03	1.295296e+03	0	1.846762e-04
1.150000e+09	8.592830e+10	0.000000e+00	4.221105e-01	4.218962e+12	7.882048e+13	6.191504e+13	3.986273e+03	1.959238e+03	1.294553e+03	0	1.843370e-04
1.160000e+09	8.545805e+10	0.000000e+00	4.221105e-01	4.197765e+12	7.839676e+13	6.164767e+13	3.983953e+03	1.958125e+03	1.293817e+03	0	1.840002e-04
1.170000e+09	8.499257e+10	0.000000e+00	4.221105e-01	4.176781e+12	7.797853e+13	6.138207e+13	3.981645e+03	1.957023e+03	1.293090e+03	0	1.836655e-04
1.180000e+09	8.453176e+10	0.000000e+00	4.221105e-01	4.156008e+12	7.756566e+13	6.111825e+13	3.979348e+03	1.955933e+03	1.292369e+03	0	1.833329e-04
1.190000e+09	8.407556e+10	0.000000e+00	4.221105e-01	4.135440e+12	7.715800e+13	6.085618e+13	3.977063e+03	1.954854e+03	1.291656e+03	0	1.830025e-04
1.200000e+09	8.362387e+10	0.000000e+00	4.221105e-01	4.115075e+12	7.675543e+13	6.059584e+13	3.974789e+03	1.953786e+03	1.290951e+03	0	1.826742e-04
1.210000e+09	8.317663e+10	0.000000e+00	4.221105e-01	4.094910e+12	7.635784e+13	6.033724e+13	3.972526e+03	1.952729e+03	1.290252e+03	0	1.823480e-04
1.220000e+09	8.273375e+10	0.000000e+00	4.221105e-01	4.074940e+12	7.596508e+13	6.008034e+13	3.970274e+03	1.951682e+03	1.289560e+03	0	1.820238e-04
1.230000e+09	8.229516e+10	0.000000e+00	4.221105e-01	4.055162e+12	7.557706e+13	5.982515e+13	3.968034e+03	1.950645e+03	1.288875e+03	0	1.817016e-04
1.240000e+09	8.186080e+10	0.000000e+00	4.221105e-01	4.035574e+12	7.519367e+13	5.957164e+13	3.965804e+03	1.949618e+03	1.288197e+03	0	1.813813e-04
1.250000e+09	8.143059e+10	0.000000e+00	4.221105e-01	4.016173e+12	7.481478e+13	5.931981e+13	3.963585e+03	1.948601e+03	1.287524e+03	0	1.810630e-04
1.260000e+09	8.100447e+10	0.000000e+00	4.221105e-01	3.996954e+12	7.444031e+13	5.906964e+13	3.961376e+03	1.947593e+03	1.286858e+03	0	1.807466e-04
1.270000e+09	8.058236e+10	0.000000e+00	4.221105e-01	3.977916e+12	7.407014e+13	5.882111e+13	3.959178e+03	1.946594e+03	1.286198e+03	0	1.804321e-04
1.280000e+09	8.016421e+10	0.000000e+00	4.221105e-01	3.959055e+12	7.370419e+13	5.857422e+13	3.956991e+03	1.945604e+03	1.285544e+03	0	1.801195e-04
1.290000e+09	7.974995e+10	0.000000e+00	4.221105e-01	3.940369e+12	7.334235e+13	5.832896e+13	3.954814e+03	1.944623e+03	1.284896e+03	0	1.798087e-04
1.300000e+09	7.933953e+10	0.000000e+00	4.221105e-01	3.921855e+12	7.298455e+13	5.808530e+13	3.952647e+03	1.943650e+03	1.284253e+03	0	1.794997e-04
1.310000e+09	7.893287e+10	0.000000e+00	4.221105e-01	3.903509e+12	7.263069e+13	5.784324e+13	3.950490e+03	1.942686e+03	1.283616e+03	0	1.791925e-04
1.320000e+09	7.852992e+10	0.000000e+00	4.221105e-01	3.885331e+12	7.228068e+13	5.760276e+13	3.948344e+03	1.941730e+03	1.282984e+03	0	1.788871e-04
1.330000e+09	7.813064e+10	0.000000e+00	4.221105e-01	3.867316e+12	7.193445e+13	5.736386e+13	3.946207e+03	1.940781e+03	1.282358e+03	0	1.785834e-04
1.340000e+09	7.773495e+10	0.000000e+00	4.221105e-01	3.849463e+12	7.159192e+13	5.712652e+13	3.944080e+03	1.939841e+03	1.281737e+03	0	1.782814e-04
1.350000e+09	7.734280e+10	0.000000e+00	4.221105e-01	3.831769e+12	7.125300e+13	5.689073e+13	3.941963e+03	1.938908e+03	1.281120e+03	0	1.779811e-04
1.360000e+09	7.695415e+10	0.000000e+00	4.221105e-01	3.814231e+12	7.091763e+13	5.665647e+13	3.939856e+03	1.937983e+03	1.280509e+03	0	1.776825e-04
