#t		Qconv[W]	Ri[Rp]		R*[Rp]		Qc[W]		Qm[W]		Qr[W]		Tcmb[K]		Tl[K]		Tup[K]		RiFlag		Bs[T]
0.000000e+00	4.138164e+11	0.000000e+00	4.170854e-01	1.795636e+13	1.536796e+15	1.251406e+14	4.765081e+03	3.262880e+03	2.081299e+03	0	3.109833e-04
1.000000e+07	4.082046e+11	0.000000e+00	4.170854e-01	1.771984e+13	1.319404e+15	1.244472e+14	4.756408e+03	3.162309e+03	2.017148e+03	0	3.095711e-04
2.000000e+07	4.002762e+11	0.000000e+00	4.170854e-01	1.738615e+13	1.150149e+15	1.237590e+14	4.747848e+03	3.076728e+03	1.962558e+03	0	3.075537e-04
3.000000e+07	3.912409e+11	0.000000e+00	4.170854e-01	1.700603e+13	1.015606e+15	1.230760e+14	4.739447e+03	3.002920e+03	1.915478e+03	0	3.052220e-04
4.000000e+07	3.817834e+11	0.000000e+00	4.170854e-01	1.660823e+13	9.067251e+14	1.223981e+14	4.731228e+03	2.938538e+03	1.874411e+03	0	3.027426e-04
5.000000e+07	3.722934e+11	0.000000e+00	4.170854e-01	1.620908e+13	8.172323e+14	1.217252e+14	4.723200e+03	2.881828e+03	1.838237e+03	0	3.002130e-04
6.000000e+07	3.629903e+11	0.000000e+00	4.170854e-01	1.581780e+13	7.426707e+14	1.210573e+14	4.715364e+03	2.831453e+03	1.806105e+03	0	2.976913e-04
7.000000e+07	3.539937e+11	0.000000e+00	4.170854e-01	1.543941e+13	6.798039e+14	1.203944e+14	4.707716e+03	2.786375e+03	1.777351e+03	0	2.952113e-04
8.000000e+07	3.453644e+11	0.000000e+00	4.170854e-01	1.507644e+13	6.262350e+14	1.197364e+14	4.700249e+03	2.745776e+03	1.751453e+03	0	2.927927e-04
9.000000e+07	3.371278e+11	0.000000e+00	4.170854e-01	1.472998e+13	5.801579e+14	1.190834e+14	4.692958e+03	2.709000e+03	1.727995e+03	0	2.904464e-04
1.000000e+08	3.292883e+11	0.000000e+00	4.170854e-01	1.440019e+13	5.401901e+14	1.184351e+14	4.685833e+03	2.675519e+03	1.706638e+03	0	2.881774e-04
1.100000e+08	3.218378e+11	0.000000e+00	4.170854e-01	1.408674e+13	5.052579e+14	1.177917e+14	4.678867e+03	2.644897e+03	1.687105e+03	0	2.859873e-04
1.200000e+08	3.147617e+11	0.000000e+00	4.170854e-01	1.378902e+13	4.745173e+14	1.171531e+14	4.672052e+03	2.616774e+03	1.669167e+03	0	2.838758e-04
1.300000e+08	3.080414e+11	0.000000e+00	4.170854e-01	1.350624e+13	4.472965e+14	1.165192e+14	4.665380e+03	2.590851e+03	1.652631e+03	0	2.818410e-04
1.400000e+08	3.016567e+11	0.000000e+00	4.170854e-01	1.323756e+13	4.230553e+14	1.158899e+14	4.658845e+03	2.566875e+03	1.637338e+03	0	2.798801e-04
1.500000e+08	2.955870e+11	0.000000e+00	4.170854e-01	1.298212e+13	4.013552e+14	1.152654e+14	4.652439e+03	2.544630e+03	1.623148e+03	0	2.779903e-04
1.600000e+08	2.898124e+11	0.000000e+00	4.170854e-01	1.273907e+13	3.818370e+14	1.146454e+14	4.646156e+03	2.523933e+03	1.609946e+03	0	2.761680e-04
1.700000e+08	2.843132e+11	0.000000e+00	4.170854e-01	1.250759e+13	3.642038e+14	1.140300e+14	4.639990e+03	2.504626e+03	1.597631e+03	0	2.744101e-04
1.800000e+08	2.790713e+11	0.000000e+00	4.170854e-01	1.228691e+13	3.482087e+14	1.134192e+14	4.633936e+03	2.486573e+03	1.586115e+03	0	2.727132e-04
1.900000e+08	2.740694e+11	0.000000e+00	4.170854e-01	1.207632e+13	3.336446e+14	1.128128e+14	4.627989e+03	2.469653e+03	1.575322e+03	0	2.710740e-04
2.000000e+08	2.692914e+11	0.000000e+00	4.170854e-01	1.187513e+13	3.203369e+14	1.122109e+14	4.622142e+03	2.453763e+03	1.565186e+03	0	2.694895e-04
2.100000e+08	2.647224e+11	0.000000e+00	4.170854e-01	1.168273e+13	3.081373e+14	1.116135e+14	4.616393e+03	2.438811e+03	1.555649e+03	0	2.679567e-04
2.200000e+08	2.603488e+11	0.000000e+00	4.170854e-01	1.149853e+13	2.969193e+14	1.110204e+14	4.610737e+03	2.424716e+03	1.546658e+03	0	2.664728e-04
2.300000e+08	2.561577e+11	0.000000e+00	4.170854e-01	1.132201e+13	2.865743e+14	1.104317e+14	4.605170e+03	2.411406e+03	1.538168e+03	0	2.650352e-04
2.400000e+08	2.521375e+11	0.000000e+00	4.170854e-01	1.115266e+13	2.770087e+14	1.098473e+14	4.599688e+03	2.398818e+03	1.530139e+03	0	2.636414e-04
2.500000e+08	2.482773e+11	0.000000e+00	4.170854e-01	1.099003e+13	2.681414e+14	1.092671e+14	4.594287e+03	2.386894e+03	1.522533e+03	0	2.622890e-04
2.600000e+08	2.445671e+11	0.000000e+00	4.170854e-01	1.083371e+13	2.599017e+14	1.086913e+14	4.588966e+03	2.375584e+03	1.515318e+03	0	2.609759e-04
2.700000e+08	2.409977e+11	0.000000e+00	4.170854e-01	1.068330e+13	2.522279e+14	1.081196e+14	4.583719e+03	2.364841e+03	1.508466e+03	0	2.597001e-04
2.800000e+08	2.375605e+11	0.000000e+00	4.170854e-01	1.053846e+13	2.450659e+14	1.075521e+14	4.578545e+03	2.354623e+03	1.501948e+03	0	2.584595e-04
2.900000e+08	2.342478e+11	0.000000e+00	4.170854e-01	1.039884e+13	2.383681e+14	1.069887e+14	4.573441e+03	2.344894e+03	1.495742e+03	0	2.572525e-04
3.000000e+08	2.310522e+11	0.000000e+00	4.170854e-01	1.026414e+13	2.320924e+14	1.064295e+14	4.568405e+03	2.335620e+03	1.489826e+03	0	2.560773e-04
3.100000e+08	2.279671e+11	0.000000e+00	4.170854e-01	1.013409e+13	2.262013e+14	1.058743e+14	4.563434e+03	2.326768e+03	1.484180e+03	0	2.549325e-04
3.200000e+08	2.249861e+11	0.000000e+00	4.170854e-01	1.000841e+13	2.206618e+14	1.053232e+14	4.558525e+03	2.318311e+03	1.478786e+03	0	2.538164e-04
3.300000e+08	2.221036e+11	0.000000e+00	4.170854e-01	9.886874e+12	2.154443e+14	1.047761e+14	4.553677e+03	2.310224e+03	1.473627e+03	0	2.527278e-04
3.400000e+08	2.193141e+11	0.000000e+00	4.170854e-01	9.769247e+12	2.105222e+14	1.042329e+14	4.548888e+03	2.302482e+03	1.468689e+03	0	2.516653e-04
3.500000e+08	2.166128e+11	0.000000e+00	4.170854e-01	9.655322e+12	2.058718e+14	1.036937e+14	4.544155e+03	2.295065e+03	1.463958e+03	0	2.506277e-04
3.600000e+08	2.139948e+11	0.000000e+00	4.170854e-01	9.544905e+12	2.014718e+14	1.031584e+14	4.539478e+03	2.287951e+03	1.459420e+03	0	2.496140e-04
3.700000e+08	2.114560e+11	0.000000e+00	4.170854e-01	9.437816e+12	1.973030e+14	1.026270e+14	4.534854e+03	2.281124e+03	1.455065e+03	0	2.486229e-04
3.800000e+08	2.089924e+11	0.000000e+00	4.170854e-01	9.333884e+12	1.933479e+14	1.020994e+14	4.530282e+03	2.274565e+03	1.450881e+03	0	2.476536e-04
3.900000e+08	2.066000e+11	0.000000e+00	4.170854e-01	9.232953e+12	1.895907e+14	1.015756e+14	4.525760e+03	2.268260e+03	1.446859e+03	0	2.467050e-04
4.000000e+08	2.042756e+11	0.000000e+00	4.170854e-01	9.134875e+12	1.860173e+14	1.010556e+14	4.521286e+03	2.262193e+03	1.442990e+03	0	2.457763e-04
4.100000e+08	2.020158e+11	0.000000e+00	4.170854e-01	9.039514e+12	1.826147e+14	1.005394e+14	4.516860e+03	2.256352e+03	1.439264e+03	0	2.448666e-04
4.200000e+08	1.998175e+11	0.000000e+00	4.170854e-01	8.946741e+12	1.793709e+14	1.000269e+14	4.512480e+03	2.250724e+03	1.435674e+03	0	2.439752e-04
4.300000e+08	1.976779e+11	0.000000e+00	4.170854e-01	8.856434e+12	1.762753e+14	9.951808e+13	4.508145e+03	2.245298e+03	1.432213e+03	0	2.431012e-04
4.400000e+08	1.955943e+11	0.000000e+00	4.170854e-01	8.768482e+12	1.733178e+14	9.901292e+13	4.503854e+03	2.240062e+03	1.428873e+03	0	2.422441e-04
4.500000e+08	1.935641e+11	0.000000e+00	4.170854e-01	8.682778e+12	1.704896e+14	9.851139e+13	4.499605e+03	2.235007e+03	1.425648e+03	0	2.414030e-04
4.600000e+08	1.915850e+11	0.000000e+00	4.170854e-01	8.599222e+12	1.677822e+14	9.801346e+13	4.495398e+03	2.230123e+03	1.422533e+03	0	2.405775e-04
4.700000e+08	1.896548e+11	0.000000e+00	4.170854e-01	8.517722e+12	1.651881e+14	9.751910e+13	4.491231e+03	2.225402e+03	1.419522e+03	0	2.397668e-04
4.800000e+08	1.877713e+11	0.000000e+00	4.170854e-01	8.438189e+12	1.627003e+14	9.702828e+13	4.487103e+03	2.220836e+03	1.416609e+03	0	2.389705e-04
4.900000e+08	1.859327e+11	0.000000e+00	4.170854e-01	8.360539e+12	1.603122e+14	9.654098e+13	4.483014e+03	2.216416e+03	1.413790e+03	0	2.381879e-04
5.000000e+08	1.841370e+11	0.000000e+00	4.170854e-01	8.284696e+12	1.580179e+14	9.605716e+13	4.478962e+03	2.212136e+03	1.411059e+03	0	2.374186e-04
5.100000e+08	1.823824e+11	0.000000e+00	4.170854e-01	8.210584e+12	1.558118e+14	9.557680e+13	4.474947e+03	2.207988e+03	1.408414e+03	0	2.366621e-04
5.200000e+08	1.806674e+11	0.000000e+00	4.170854e-01	8.138135e+12	1.536889e+14	9.509986e+13	4.470968e+03	2.203968e+03	1.405849e+03	0	2.359180e-04
5.300000e+08	1.789903e+11	0.000000e+00	4.170854e-01	8.067282e+12	1.516445e+14	9.462633e+13	4.467024e+03	2.200067e+03	1.403361e+03	0	2.351857e-04
5.400000e+08	1.773497e+11	0.000000e+00	4.170854e-01	7.997964e+12	1.496740e+14	9.415617e+13	4.463114e+03	2.196282e+03	1.400947e+03	0	2.344649e-04
5.500000e+08	1.757442e+11	0.000000e+00	4.170854e-01	7.930121e+12	1.477735e+14	9.368936e+13	4.459238e+03	2.192607e+03	1.398602e+03	0	2.337553e-04
5.600000e+08	1.741724e+11	0.000000e+00	4.170854e-01	7.863698e+12	1.459391e+14	9.322586e+13	4.455394e+03	2.189036e+03	1.396325e+03	0	2.330563e-04
5.700000e+08	1.726330e+11	0.000000e+00	4.170854e-01	7.798642e+12	1.441674e+14	9.276566e+13	4.451583e+03	2.185566e+03	1.394111e+03	0	2.323677e-04
5.800000e+08	1.711250e+11	0.000000e+00	4.170854e-01	7.734903e+12	1.424549e+14	9.230872e+13	4.447803e+03	2.182191e+03	1.391958e+03	0	2.316891e-04
5.900000e+08	1.696472e+11	0.000000e+00	4.170854e-01	7.672433e+12	1.407987e+14	9.185502e+13	4.444053e+03	2.178907e+03	1.389864e+03	0	2.310202e-04
6.000000e+08	1.681984e+11	0.000000e+00	4.170854e-01	7.611187e+12	1.391958e+14	9.140453e+13	4.440334e+03	2.175711e+03	1.387825e+03	0	2.303607e-04
6.100000e+08	1.667777e+11	0.000000e+00	4.170854e-01	7.551121e+12	1.376435e+14	9.095723e+13	4.436645e+03	2.172599e+03	1.385840e+03	0	2.297103e-04
6.200000e+08	1.653841e+11	0.000000e+00	4.170854e-01	7.492196e+12	1.361395e+14	9.051309e+13	4.432985e+03	2.169568e+03	1.383906e+03	0	2.290686e-04
6.300000e+08	1.640166e+11	0.000000e+00	4.170854e-01	7.434373e+12	1.346812e+14	9.007208e+13	4.429353e+03	2.166613e+03	1.382022e+03	0	2.284356e-04
6.400000e+08	1.626744e+11	0.000000e+00	4.170854e-01	7.377614e+12	1.332664e+14	8.963419e+13	4.425749e+03	2.163732e+03	1.380184e+03	0	2.278107e-04
6.500000e+08	1.613567e+11	0.000000e+00	4.170854e-01	7.321884e+12	1.318932e+14	8.919938e+13	4.422173e+03	2.160921e+03	1.378391e+03	0	2.271940e-04
6.600000e+08	1.600626e+11	0.000000e+00	4.170854e-01	7.267149e+12	1.305595e+14	8.876762e+13	4.418624e+03	2.158179e+03	1.376642e+03	0	2.265850e-04
6.700000e+08	1.587915e+11	0.000000e+00	4.170854e-01	7.213378e+12	1.292636e+14	8.833891e+13	4.415101e+03	2.155502e+03	1.374934e+03	0	2.259835e-04
6.800000e+08	1.575424e+11	0.000000e+00	4.170854e-01	7.160540e+12	1.280036e+14	8.791320e+13	4.411604e+03	2.152887e+03	1.373266e+03	0	2.253895e-04
6.900000e+08	1.563149e+11	0.000000e+00	4.170854e-01	7.108606e+12	1.267781e+14	8.749049e+13	4.408132e+03	2.150333e+03	1.371637e+03	0	2.248025e-04
7.000000e+08	1.551081e+11	0.000000e+00	4.170854e-01	7.057548e+12	1.255853e+14	8.707073e+13	4.404686e+03	2.147836e+03	1.370044e+03	0	2.242226e-04
7.100000e+08	1.539215e+11	0.000000e+00	4.170854e-01	7.007339e+12	1.244240e+14	8.665391e+13	4.401265e+03	2.145395e+03	1.368487e+03	0	2.236493e-04
7.200000e+08	1.527545e+11	0.000000e+00	4.170854e-01	6.957953e+12	1.232927e+14	8.624001e+13	4.397867e+03	2.143007e+03	1.366964e+03	0	2.230826e-04
7.300000e+08	1.516065e+11	0.000000e+00	4.170854e-01	6.909367e+12	1.221902e+14	8.582900e+13	4.394494e+03	2.140670e+03	1.365474e+03	0	2.225224e-04
7.400000e+08	1.504768e+11	0.000000e+00	4.170854e-01	6.861556e+12	1.211152e+14	8.542086e+13	4.391144e+03	2.138384e+03	1.364015e+03	0	2.219683e-04
7.500000e+08	1.493651e+11	0.000000e+00	4.170854e-01	6.814499e+12	1.200665e+14	8.501557e+13	4.387817e+03	2.136145e+03	1.362587e+03	0	2.214203e-04
7.600000e+08	1.482708e+11	0.000000e+00	4.170854e-01	6.768174e+12	1.190432e+14	8.461310e+13	4.384513e+03	2.133951e+03	1.361188e+03	0	2.208782e-04
7.700000e+08	1.471933e+11	0.000000e+00	4.170854e-01	6.722561e+12	1.180442e+14	8.421343e+13	4.381232e+03	2.131803e+03	1.359817e+03	0	2.203419e-04
7.800000e+08	1.461323e+11	0.000000e+00	4.170854e-01	6.677639e+12	1.170685e+14	8.381653e+13	4.377972e+03	2.129696e+03	1.358474e+03	0	2.198112e-04
7.900000e+08	1.450872e+11	0.000000e+00	4.170854e-01	6.633390e+12	1.161151e+14	8.342240e+13	4.374735e+03	2.127631e+03	1.357156e+03	0	2.192859e-04
8.000000e+08	1.440577e+11	0.000000e+00	4.170854e-01	6.589796e+12	1.151833e+14	8.303099e+13	4.371518e+03	2.125606e+03	1.355864e+03	0	2.187660e-04
8.100000e+08	1.430433e+11	0.000000e+00	4.170854e-01	6.546838e+12	1.142721e+14	8.264230e+13	4.368323e+03	2.123619e+03	1.354597e+03	0	2.182513e-04
8.200000e+08	1.420436e+11	0.000000e+00	4.170854e-01	6.504501e+12	1.133808e+14	8.225630e+13	4.365149e+03	2.121669e+03	1.353353e+03	0	2.177417e-04
8.300000e+08	1.410582e+11	0.000000e+00	4.170854e-01	6.462769e+12	1.125086e+14	8.187297e+13	4.361995e+03	2.119755e+03	1.352132e+03	0	2.172371e-04
8.400000e+08	1.400869e+11	0.000000e+00	4.170854e-01	6.421624e+12	1.116548e+14	8.149228e+13	4.358861e+03	2.117875e+03	1.350933e+03	0	2.167373e-04
8.500000e+08	1.391291e+11	0.000000e+00	4.170854e-01	6.381054e+12	1.108188e+14	8.111423e+13	4.355747e+03	2.116028e+03	1.349755e+03	0	2.162422e-04
8.600000e+08	1.381846e+11	0.000000e+00	4.170854e-01	6.341043e+12	1.099999e+14	8.073877e+13	4.352653e+03	2.114214e+03	1.348598e+03	0	2.157518e-04
8.700000e+08	1.372531e+11	0.000000e+00	4.170854e-01	6.301577e+12	1.091974e+14	8.036591e+13	4.349578e+03	2.112431e+03	1.347460e+03	0	2.152659e-04
8.800000e+08	1.363342e+11	0.000000e+00	4.170854e-01	6.262644e+12	1.084108e+14	7.999560e+13	4.346522e+03	2.110678e+03	1.346342e+03	0	2.147844e-04
8.900000e+08	1.354276e+11	0.000000e+00	4.170854e-01	6.224229e+12	1.076395e+14	7.962785e+13	4.343486e+03	2.108954e+03	1.345242e+03	0	2.143072e-04
9.000000e+08	1.345330e+11	0.000000e+00	4.170854e-01	6.186322e+12	1.068831e+14	7.926261e+13	4.340467e+03	2.107258e+03	1.344161e+03	0	2.138343e-04
9.100000e+08	1.336502e+11	0.000000e+00	4.170854e-01	6.148909e+12	1.061409e+14	7.889988e+13	4.337467e+03	2.105589e+03	1.343096e+03	0	2.133655e-04
9.200000e+08	1.327788e+11	0.000000e+00	4.170854e-01	6.111980e+12	1.054125e+14	7.853963e+13	4.334486e+03	2.103947e+03	1.342049e+03	0	2.129008e-04
9.300000e+08	1.319187e+11	0.000000e+00	4.170854e-01	6.075523e+12	1.046975e+14	7.818185e+13	4.331522e+03	2.102331e+03	1.341018e+03	0	2.124401e-04
9.400000e+08	1.310695e+11	0.000000e+00	4.170854e-01	6.039527e+12	1.039954e+14	7.782651e+13	4.328575e+03	2.100739e+03	1.340003e+03	0	2.119833e-04
9.500000e+08	1.302309e+11	0.000000e+00	4.170854e-01	6.003982e+12	1.033057e+14	7.747360e+13	4.325646e+03	2.099172e+03	1.339003e+03	0	2.115303e-04
9.600000e+08	1.294029e+11	0.000000e+00	4.170854e-01	5.968878e+12	1.026281e+14	7.712310e+13	4.322735e+03	2.097627e+03	1.338018e+03	0	2.110810e-04
9.700000e+08	1.285851e+11	0.000000e+00	4.170854e-01	5.934206e+12	1.019622e+14	7.677498e+13	4.319840e+03	2.096105e+03	1.337047e+03	0	2.106354e-04
9.800000e+08	1.277772e+11	0.000000e+00	4.170854e-01	5.899955e+12	1.013076e+14	7.642923e+13	4.316962e+03	2.094605e+03	1.336090e+03	0	2.101933e-04
9.900000e+08	1.269792e+11	0.000000e+00	4.170854e-01	5.866117e+12	1.006640e+14	7.608583e+13	4.314101e+03	2.093127e+03	1.335147e+03	0	2.097548e-04
1.000000e+09	1.261908e+11	0.000000e+00	4.170854e-01	5.832683e+12	1.000310e+14	7.574476e+13	4.311256e+03	2.091669e+03	1.334217e+03	0	2.093198e-04
1.010000e+09	1.254117e+11	0.000000e+00	4.170854e-01	5.799645e+12	9.940825e+13	7.540601e+13	4.308427e+03	2.090230e+03	1.333299e+03	0	2.088881e-04
1.020000e+09	1.246418e+11	0.000000e+00	4.170854e-01	5.766994e+12	9.879552e+13	7.506955e+13	4.305614e+03	2.088812e+03	1.332394e+03	0	2.084598e-04
1.030000e+09	1.238809e+11	0.000000e+00	4.170854e-01	5.734722e+12	9.819248e+13	7.473536e+13	4.302817e+03	2.087412e+03	1.331501e+03	0	2.080347e-04
1.040000e+09	1.231288e+11	0.000000e+00	4.170854e-01	5.702821e+12	9.759884e+13	7.440344e+13	4.300036e+03	2.086030e+03	1.330620e+03	0	2.076129e-04
1.050000e+09	1.223853e+11	0.000000e+00	4.170854e-01	5.671285e+12	9.701433e+13	7.407375e+13	4.297270e+03	2.084666e+03	1.329750e+03	0	2.071942e-04
1.060000e+09	1.216503e+11	0.000000e+00	4.170854e-01	5.640105e+12	9.643868e+13	7.374629e+13	4.294519e+03	2.083320e+03	1.328891e+03	0	2.067786e-04
1.070000e+09	1.209236e+11	0.000000e+00	4.170854e-01	5.609275e+12	9.587164e+13	7.342104e+13	4.291784e+03	2.081990e+03	1.328043e+03	0	2.063660e-04
1.080000e+09	1.202050e+11	0.000000e+00	4.170854e-01	5.578788e+12	9.531297e+13	7.309798e+13	4.289063e+03	2.080677e+03	1.327205e+03	0	2.059564e-04
1.090000e+09	1.194944e+11	0.000000e+00	4.170854e-01	5.548637e+12	9.476243e+13	7.277708e+13	4.286357e+03	2.079379e+03	1.326378e+03	0	2.055498e-04
1.100000e+09	1.187916e+11	0.000000e+00	4.170854e-01	5.518815e+12	9.421981e+13	7.245834e+13	4.283666e+03	2.078097e+03	1.325560e+03	0	2.051460e-04
1.110000e+09	1.180965e+11	0.000000e+00	4.170854e-01	5.489318e+12	9.368487e+13	7.214174e+13	4.280989e+03	2.076830e+03	1.324752e+03	0	2.047451e-04
1.120000e+09	1.174089e+11	0.000000e+00	4.170854e-01	5.460137e+12	9.315742e+13	7.182726e+13	4.278327e+03	2.075577e+03	1.323953e+03	0	2.043469e-04
1.130000e+09	1.167287e+11	0.000000e+00	4.170854e-01	5.431269e+12	9.263726e+13	7.151489e+13	4.275678e+03	2.074339e+03	1.323163e+03	0	2.039515e-04
1.140000e+09	1.160557e+11	0.000000e+00	4.170854e-01	5.402706e+12	9.212420e+13	7.120460e+13	4.273044e+03	2.073115e+03	1.322382e+03	0	2.035588e-04
1.150000e+09	1.153898e+11	0.000000e+00	4.170854e-01	5.374443e+12	9.161804e+13	7.089638e+13	4.270423e+03	2.071904e+03	1.321609e+03	0	2.031688e-04
1.160000e+09	1.147309e+11	0.000000e+00	4.170854e-01	5.346475e+12	9.111861e+13	7.059022e+13	4.267817e+03	2.070706e+03	1.320845e+03	0	2.027813e-04
1.170000e+09	1.140789e+11	0.000000e+00	4.170854e-01	5.318796e+12	9.062575e+13	7.028610e+13	4.265223e+03	2.069521e+03	1.320090e+03	0	2.023965e-04
1.180000e+09	1.134337e+11	0.000000e+00	4.170854e-01	5.291402e+12	9.013928e+13	6.998401e+13	4.262643e+03	2.068349e+03	1.319342e+03	0	2.020141e-04
1.190000e+09	1.127950e+11	0.000000e+00	4.170854e-01	5.264288e+12	8.965904e+13	6.968392e+13	4.260077e+03	2.067188e+03	1.318602e+03	0	2.016343e-04
1.200000e+09	1.121629e+11	0.000000e+00	4.170854e-01	5.237448e+12	8.918489e+13	6.938582e+13	4.257523e+03	2.066040e+03	1.317869e+03	0	2.012569e-04
1.210000e+09	1.115371e+11	0.000000e+00	4.170854e-01	5.210878e+12	8.871667e+13	6.908970e+13	4.254983e+03	2.064903e+03	1.317144e+03	0	2.008819e-04
1.220000e+09	1.109176e+11	0.000000e+00	4.170854e-01	5.184573e+12	8.825425e+13	6.879555e+13	4.252455e+03	2.063777e+03	1.316426e+03	0	2.005093e-04
1.230000e+09	1.103043e+11	0.000000e+00	4.170854e-01	5.158528e+12	8.779747e+13	6.850333e+13	4.249940e+03	2.062663e+03	1.315715e+03	0	2.001391e-04
1.240000e+09	1.096971e+11	0.000000e+00	4.170854e-01	5.132740e+12	8.734622e+13	6.821305e+13	4.247438e+03	2.061559e+03	1.315011e+03	0	1.997712e-04
1.250000e+09	1.090959e+11	0.000000e+00	4.170854e-01	5.107205e+12	8.690036e+13	6.792469e+13	4.244948e+03	2.060466e+03	1.314313e+03	0	1.994055e-04
1.260000e+09	1.085005e+11	0.000000e+00	4.170854e-01	5.081917e+12	8.645976e+13	6.763823e+13	4.242470e+03	2.059382e+03	1.313622e+03	0	1.990421e-04
1.270000e+09	1.079109e+11	0.000000e+00	4.170854e-01	5.056873e+12	8.602432e+13	6.735365e+13	4.240005e+03	2.058309e+03	1.312938e+03	0	1.986809e-04
1.280000e+09	1.073270e+11	0.000000e+00	4.170854e-01	5.032069e+12	8.559390e+13	6.707095e+13	4.237552e+03	2.057246e+03	1.312259e+03	0	1.983219e-04
1.290000e+09	1.067486e+11	0.000000e+00	4.170854e-01	5.007501e+12	8.516840e+13	6.679010e+13	4.235111e+03	2.056192e+03	1.311587e+03	0	1.979651e-04
1.300000e+09	1.061758e+11	0.000000e+00	4.170854e-01	4.983166e+12	8.474772e+13	6.651110e+13	4.232682e+03	2.055147e+03	1.310921e+03	0	1.976103e-04
1.310000e+09	1.056084e+11	0.000000e+00	4.170854e-01	4.959059e+12	8.433174e+13	6.623393e+13	4.230264e+03	2.054112e+03	1.310260e+03	0	1.972577e-04
1.320000e+09	1.050463e+11	0.000000e+00	4.170854e-01	4.935177e+12	8.392037e+13	6.595857e+13	4.227858e+03	2.053085e+03	1.309606e+03	0	1.969071e-04
1.330000e+09	1.044895e+11	0.000000e+00	4.170854e-01	4.911518e+12	8.351350e+13	6.568501e+13	4.225464e+03	2.052068e+03	1.308956e+03	0	1.965586e-04
1.340000e+09	1.039379e+11	0.000000e+00	4.170854e-01	4.888076e+12	8.311105e+13	6.541324e+13	4.223082e+03	2.051058e+03	1.308313e+03	0	1.962121e-04
1.350000e+09	1.033913e+11	0.000000e+00	4.170854e-01	4.864849e+12	8.271292e+13	6.514325e+13	4.220710e+03	2.050057e+03	1.307674e+03	0	1.958675e-04
1.360000e+09	1.028497e+11	0.000000e+00	4.170854e-01	4.841834e+12	8.231901e+13	6.487501e+13	4.218350e+03	2.049064e+03	1.307041e+03	0	1.955249e-04
