#t		Qconv[W]	Ri[Rp]		R*[Rp]		Qc[W]		Qm[W]		Qr[W]		Tcmb[K]		Tl[K]		Tup[K]		RiFlag		Bs[T]
0.000000e+00	1.194384e+12	0.000000e+00	4.120605e-01	3.994273e+13	2.213207e+15	1.877887e+14	5.962756e+03	3.827747e+03	2.184954e+03	0	4.344150e-04
1.000000e+07	1.166211e+12	0.000000e+00	4.120605e-01	3.903649e+13	1.935139e+15	1.867482e+14	5.950107e+03	3.726172e+03	2.126973e+03	0	4.309722e-04
2.000000e+07	1.136267e+12	0.000000e+00	4.120605e-01	3.807356e+13	1.712742e+15	1.857155e+14	5.937742e+03	3.638207e+03	2.076761e+03	0	4.272515e-04
3.000000e+07	1.106020e+12	0.000000e+00	4.120605e-01	3.710103e+13	1.531836e+15	1.846905e+14	5.925679e+03	3.561199e+03	2.032803e+03	0	4.234263e-04
4.000000e+07	1.076289e+12	0.000000e+00	4.120605e-01	3.614509e+13	1.382491e+15	1.836732e+14	5.913922e+03	3.493150e+03	1.993960e+03	0	4.195977e-04
5.000000e+07	1.047514e+12	0.000000e+00	4.120605e-01	3.521988e+13	1.257594e+15	1.826634e+14	5.902466e+03	3.432530e+03	1.959356e+03	0	4.158245e-04
6.000000e+07	1.019918e+12	0.000000e+00	4.120605e-01	3.433254e+13	1.151941e+15	1.816612e+14	5.891301e+03	3.378142e+03	1.928311e+03	0	4.121405e-04
7.000000e+07	9.935960e+11	0.000000e+00	4.120605e-01	3.348609e+13	1.061656e+15	1.806664e+14	5.880416e+03	3.329040e+03	1.900282e+03	0	4.085640e-04
8.000000e+07	9.685663e+11	0.000000e+00	4.120605e-01	3.268112e+13	9.838005e+14	1.796791e+14	5.869798e+03	3.284463e+03	1.874837e+03	0	4.051041e-04
9.000000e+07	9.448042e+11	0.000000e+00	4.120605e-01	3.191684e+13	9.161144e+14	1.786991e+14	5.859434e+03	3.243793e+03	1.851622e+03	0	4.017638e-04
1.000000e+08	9.222606e+11	0.000000e+00	4.120605e-01	3.119167e+13	8.568361e+14	1.777263e+14	5.849311e+03	3.206523e+03	1.830347e+03	0	3.985426e-04
1.100000e+08	9.008739e+11	0.000000e+00	4.120605e-01	3.050363e+13	8.045749e+14	1.767608e+14	5.839417e+03	3.172230e+03	1.810772e+03	0	3.954378e-04
1.200000e+08	8.805771e+11	0.000000e+00	4.120605e-01	2.985057e+13	7.582205e+14	1.758024e+14	5.829740e+03	3.140561e+03	1.792695e+03	0	3.924454e-04
1.300000e+08	8.613018e+11	0.000000e+00	4.120605e-01	2.923031e+13	7.168775e+14	1.748512e+14	5.820270e+03	3.111220e+03	1.775946e+03	0	3.895608e-04
1.400000e+08	8.429813e+11	0.000000e+00	4.120605e-01	2.864069e+13	6.798168e+14	1.739069e+14	5.810995e+03	3.083951e+03	1.760381e+03	0	3.867789e-04
1.500000e+08	8.255515e+11	0.000000e+00	4.120605e-01	2.807966e+13	6.464396e+14	1.729697e+14	5.801907e+03	3.058539e+03	1.745875e+03	0	3.840946e-04
1.600000e+08	8.089520e+11	0.000000e+00	4.120605e-01	2.754529e+13	6.162503e+14	1.720394e+14	5.792995e+03	3.034795e+03	1.732321e+03	0	3.815028e-04
1.700000e+08	7.931261e+11	0.000000e+00	4.120605e-01	2.703575e+13	5.888353e+14	1.711159e+14	5.784253e+03	3.012557e+03	1.719628e+03	0	3.789986e-04
1.800000e+08	7.780213e+11	0.000000e+00	4.120605e-01	2.654936e+13	5.638476e+14	1.701992e+14	5.775672e+03	2.991685e+03	1.707713e+03	0	3.765772e-04
1.900000e+08	7.635891e+11	0.000000e+00	4.120605e-01	2.608456e+13	5.409938e+14	1.692893e+14	5.767244e+03	2.972054e+03	1.696507e+03	0	3.742341e-04
2.000000e+08	7.497844e+11	0.000000e+00	4.120605e-01	2.563992e+13	5.200244e+14	1.683861e+14	5.758964e+03	2.953555e+03	1.685948e+03	0	3.719652e-04
2.100000e+08	7.365659e+11	0.000000e+00	4.120605e-01	2.521409e+13	5.007262e+14	1.674896e+14	5.750824e+03	2.936091e+03	1.675979e+03	0	3.697663e-04
2.200000e+08	7.238955e+11	0.000000e+00	4.120605e-01	2.480587e+13	4.829160e+14	1.665996e+14	5.742819e+03	2.919577e+03	1.666552e+03	0	3.676338e-04
2.300000e+08	7.117381e+11	0.000000e+00	4.120605e-01	2.441412e+13	4.664355e+14	1.657161e+14	5.734943e+03	2.903936e+03	1.657625e+03	0	3.655641e-04
2.400000e+08	7.000613e+11	0.000000e+00	4.120605e-01	2.403780e+13	4.511475e+14	1.648392e+14	5.727191e+03	2.889101e+03	1.649156e+03	0	3.635539e-04
2.500000e+08	6.888354e+11	0.000000e+00	4.120605e-01	2.367596e+13	4.369325e+14	1.639686e+14	5.719558e+03	2.875011e+03	1.641113e+03	0	3.616002e-04
2.600000e+08	6.780329e+11	0.000000e+00	4.120605e-01	2.332773e+13	4.236857e+14	1.631044e+14	5.712039e+03	2.861609e+03	1.633463e+03	0	3.597000e-04
2.700000e+08	6.676285e+11	0.000000e+00	4.120605e-01	2.299228e+13	4.113154e+14	1.622466e+14	5.704631e+03	2.848847e+03	1.626178e+03	0	3.578506e-04
2.800000e+08	6.575989e+11	0.000000e+00	4.120605e-01	2.266886e+13	3.997405e+14	1.613950e+14	5.697329e+03	2.836679e+03	1.619232e+03	0	3.560496e-04
2.900000e+08	6.479224e+11	0.000000e+00	4.120605e-01	2.235679e+13	3.888896e+14	1.605496e+14	5.690129e+03	2.825064e+03	1.612603e+03	0	3.542946e-04
3.000000e+08	6.385789e+11	0.000000e+00	4.120605e-01	2.205542e+13	3.786991e+14	1.597104e+14	5.683028e+03	2.813966e+03	1.606267e+03	0	3.525833e-04
3.100000e+08	6.295501e+11	0.000000e+00	4.120605e-01	2.176416e+13	3.691124e+14	1.588773e+14	5.676022e+03	2.803350e+03	1.600208e+03	0	3.509137e-04
3.200000e+08	6.208187e+11	0.000000e+00	4.120605e-01	2.148245e+13	3.600791e+14	1.580502e+14	5.669109e+03	2.793185e+03	1.594406e+03	0	3.492838e-04
3.300000e+08	6.123688e+11	0.000000e+00	4.120605e-01	2.120979e+13	3.515541e+14	1.572292e+14	5.662285e+03	2.783444e+03	1.588845e+03	0	3.476919e-04
3.400000e+08	6.041854e+11	0.000000e+00	4.120605e-01	2.094569e+13	3.434968e+14	1.564142e+14	5.655547e+03	2.774099e+03	1.583511e+03	0	3.461361e-04
3.500000e+08	5.962550e+11	0.000000e+00	4.120605e-01	2.068972e+13	3.358707e+14	1.556050e+14	5.648893e+03	2.765128e+03	1.578390e+03	0	3.446150e-04
3.600000e+08	5.885646e+11	0.000000e+00	4.120605e-01	2.044146e+13	3.286431e+14	1.548017e+14	5.642320e+03	2.756507e+03	1.573469e+03	0	3.431270e-04
3.700000e+08	5.811022e+11	0.000000e+00	4.120605e-01	2.020053e+13	3.217840e+14	1.540042e+14	5.635825e+03	2.748217e+03	1.568737e+03	0	3.416706e-04
3.800000e+08	5.738566e+11	0.000000e+00	4.120605e-01	1.996658e+13	3.152667e+14	1.532126e+14	5.629407e+03	2.740238e+03	1.564182e+03	0	3.402446e-04
3.900000e+08	5.668175e+11	0.000000e+00	4.120605e-01	1.973925e+13	3.090666e+14	1.524266e+14	5.623063e+03	2.732553e+03	1.559796e+03	0	3.388477e-04
4.000000e+08	5.599750e+11	0.000000e+00	4.120605e-01	1.951825e+13	3.031615e+14	1.516463e+14	5.616791e+03	2.725147e+03	1.555568e+03	0	3.374787e-04
4.100000e+08	5.533199e+11	0.000000e+00	4.120605e-01	1.930327e+13	2.975312e+14	1.508716e+14	5.610589e+03	2.718003e+03	1.551490e+03	0	3.361365e-04
4.200000e+08	5.468438e+11	0.000000e+00	4.120605e-01	1.909404e+13	2.921570e+14	1.501025e+14	5.604455e+03	2.711108e+03	1.547555e+03	0	3.348199e-04
4.300000e+08	5.405385e+11	0.000000e+00	4.120605e-01	1.889031e+13	2.870221e+14	1.493390e+14	5.598388e+03	2.704450e+03	1.543754e+03	0	3.335281e-04
4.400000e+08	5.343966e+11	0.000000e+00	4.120605e-01	1.869183e+13	2.821109e+14	1.485809e+14	5.592385e+03	2.698015e+03	1.540080e+03	0	3.322600e-04
4.500000e+08	5.284108e+11	0.000000e+00	4.120605e-01	1.849837e+13	2.774092e+14	1.478283e+14	5.586445e+03	2.691792e+03	1.536528e+03	0	3.310148e-04
4.600000e+08	5.225745e+11	0.000000e+00	4.120605e-01	1.830971e+13	2.729039e+14	1.470811e+14	5.580566e+03	2.685771e+03	1.533091e+03	0	3.297916e-04
4.700000e+08	5.168813e+11	0.000000e+00	4.120605e-01	1.812567e+13	2.685828e+14	1.463393e+14	5.574747e+03	2.679942e+03	1.529764e+03	0	3.285896e-04
4.800000e+08	5.113255e+11	0.000000e+00	4.120605e-01	1.794603e+13	2.644349e+14	1.456027e+14	5.568986e+03	2.674295e+03	1.526541e+03	0	3.274080e-04
4.900000e+08	5.059013e+11	0.000000e+00	4.120605e-01	1.777063e+13	2.604499e+14	1.448715e+14	5.563282e+03	2.668823e+03	1.523417e+03	0	3.262462e-04
5.000000e+08	5.006035e+11	0.000000e+00	4.120605e-01	1.759930e+13	2.566183e+14	1.441454e+14	5.557634e+03	2.663516e+03	1.520388e+03	0	3.251034e-04
5.100000e+08	4.954270e+11	0.000000e+00	4.120605e-01	1.743187e+13	2.529313e+14	1.434246e+14	5.552040e+03	2.658367e+03	1.517448e+03	0	3.239789e-04
5.200000e+08	4.903672e+11	0.000000e+00	4.120605e-01	1.726819e+13	2.493807e+14	1.427089e+14	5.546499e+03	2.653368e+03	1.514595e+03	0	3.228722e-04
5.300000e+08	4.854195e+11	0.000000e+00	4.120605e-01	1.710812e+13	2.459589e+14	1.419983e+14	5.541011e+03	2.648514e+03	1.511824e+03	0	3.217826e-04
5.400000e+08	4.805798e+11	0.000000e+00	4.120605e-01	1.695152e+13	2.426589e+14	1.412928e+14	5.535572e+03	2.643796e+03	1.509131e+03	0	3.207096e-04
5.500000e+08	4.758440e+11	0.000000e+00	4.120605e-01	1.679826e+13	2.394741e+14	1.405923e+14	5.530184e+03	2.639211e+03	1.506514e+03	0	3.196527e-04
5.600000e+08	4.712083e+11	0.000000e+00	4.120605e-01	1.664823e+13	2.363985e+14	1.398967e+14	5.524844e+03	2.634750e+03	1.503968e+03	0	3.186113e-04
5.700000e+08	4.666690e+11	0.000000e+00	4.120605e-01	1.650130e+13	2.334262e+14	1.392061e+14	5.519552e+03	2.630410e+03	1.501491e+03	0	3.175849e-04
5.800000e+08	4.622228e+11	0.000000e+00	4.120605e-01	1.635737e+13	2.305521e+14	1.385205e+14	5.514306e+03	2.626186e+03	1.499079e+03	0	3.165731e-04
5.900000e+08	4.578664e+11	0.000000e+00	4.120605e-01	1.621632e+13	2.277712e+14	1.378396e+14	5.509106e+03	2.622071e+03	1.496730e+03	0	3.155754e-04
6.000000e+08	4.535967e+11	0.000000e+00	4.120605e-01	1.607807e+13	2.250787e+14	1.371636e+14	5.503951e+03	2.618062e+03	1.494442e+03	0	3.145914e-04
6.100000e+08	4.494107e+11	0.000000e+00	4.120605e-01	1.594251e+13	2.224704e+14	1.364924e+14	5.498839e+03	2.614155e+03	1.492211e+03	0	3.136206e-04
6.200000e+08	4.453055e+11	0.000000e+00	4.120605e-01	1.580955e+13	2.199422e+14	1.358259e+14	5.493770e+03	2.610345e+03	1.490037e+03	0	3.126628e-04
6.300000e+08	4.412786e+11	0.000000e+00	4.120605e-01	1.567911e+13	2.174901e+14	1.351641e+14	5.488744e+03	2.606628e+03	1.487915e+03	0	3.117175e-04
6.400000e+08	4.373273e+11	0.000000e+00	4.120605e-01	1.555111e+13	2.151108e+14	1.345070e+14	5.483759e+03	2.603000e+03	1.485844e+03	0	3.107843e-04
6.500000e+08	4.334492e+11	0.000000e+00	4.120605e-01	1.542546e+13	2.128006e+14	1.338545e+14	5.478815e+03	2.599459e+03	1.483823e+03	0	3.098629e-04
6.600000e+08	4.296420e+11	0.000000e+00	4.120605e-01	1.530210e+13	2.105566e+14	1.332066e+14	5.473910e+03	2.596001e+03	1.481849e+03	0	3.089530e-04
6.700000e+08	4.259035e+11	0.000000e+00	4.120605e-01	1.518094e+13	2.083757e+14	1.325633e+14	5.469045e+03	2.592622e+03	1.479920e+03	0	3.080543e-04
6.800000e+08	4.222315e+11	0.000000e+00	4.120605e-01	1.506193e+13	2.062550e+14	1.319244e+14	5.464218e+03	2.589320e+03	1.478035e+03	0	3.071664e-04
6.900000e+08	4.186239e+11	0.000000e+00	4.120605e-01	1.494500e+13	2.041919e+14	1.312901e+14	5.459429e+03	2.586091e+03	1.476192e+03	0	3.062891e-04
7.000000e+08	4.150789e+11	0.000000e+00	4.120605e-01	1.483007e+13	2.021840e+14	1.306602e+14	5.454677e+03	2.582934e+03	1.474390e+03	0	3.054221e-04
7.100000e+08	4.115945e+11	0.000000e+00	4.120605e-01	1.471711e+13	2.002289e+14	1.300347e+14	5.449961e+03	2.579844e+03	1.472626e+03	0	3.045650e-04
7.200000e+08	4.081691e+11	0.000000e+00	4.120605e-01	1.460604e+13	1.983242e+14	1.294136e+14	5.445281e+03	2.576821e+03	1.470901e+03	0	3.037178e-04
7.300000e+08	4.048008e+11	0.000000e+00	4.120605e-01	1.449681e+13	1.964679e+14	1.287969e+14	5.440637e+03	2.573861e+03	1.469211e+03	0	3.028800e-04
7.400000e+08	4.014880e+11	0.000000e+00	4.120605e-01	1.438937e+13	1.946581e+14	1.281844e+14	5.436027e+03	2.570962e+03	1.467556e+03	0	3.020515e-04
7.500000e+08	3.982292e+11	0.000000e+00	4.120605e-01	1.428367e+13	1.928928e+14	1.275762e+14	5.431451e+03	2.568122e+03	1.465935e+03	0	3.012321e-04
7.600000e+08	3.950228e+11	0.000000e+00	4.120605e-01	1.417966e+13	1.911701e+14	1.269722e+14	5.426909e+03	2.565339e+03	1.464346e+03	0	3.004214e-04
7.700000e+08	3.918674e+11	0.000000e+00	4.120605e-01	1.407729e+13	1.894885e+14	1.263725e+14	5.422399e+03	2.562611e+03	1.462789e+03	0	2.996194e-04
7.800000e+08	3.887617e+11	0.000000e+00	4.120605e-01	1.397652e+13	1.878463e+14	1.257769e+14	5.417922e+03	2.559936e+03	1.461262e+03	0	2.988257e-04
7.900000e+08	3.857041e+11	0.000000e+00	4.120605e-01	1.387730e+13	1.862420e+14	1.251854e+14	5.413478e+03	2.557312e+03	1.459764e+03	0	2.980403e-04
8.000000e+08	3.826936e+11	0.000000e+00	4.120605e-01	1.377960e+13	1.846741e+14	1.245981e+14	5.409064e+03	2.554738e+03	1.458295e+03	0	2.972628e-04
8.100000e+08	3.797288e+11	0.000000e+00	4.120605e-01	1.368338e+13	1.831413e+14	1.240148e+14	5.404682e+03	2.552211e+03	1.456853e+03	0	2.964932e-04
8.200000e+08	3.768085e+11	0.000000e+00	4.120605e-01	1.358859e+13	1.816422e+14	1.234356e+14	5.400330e+03	2.549731e+03	1.455437e+03	0	2.957311e-04
8.300000e+08	3.739316e+11	0.000000e+00	4.120605e-01	1.349519e+13	1.801756e+14	1.228603e+14	5.396008e+03	2.547295e+03	1.454047e+03	0	2.949766e-04
8.400000e+08	3.710970e+11	0.000000e+00	4.120605e-01	1.340316e+13	1.787402e+14	1.222891e+14	5.391716e+03	2.544903e+03	1.452681e+03	0	2.942294e-04
8.500000e+08	3.683037e+11	0.000000e+00	4.120605e-01	1.331246e+13	1.773351e+14	1.217218e+14	5.387454e+03	2.542552e+03	1.451339e+03	0	2.934892e-04
8.600000e+08	3.655505e+11	0.000000e+00	4.120605e-01	1.322306e+13	1.759590e+14	1.211583e+14	5.383219e+03	2.540242e+03	1.450021e+03	0	2.927561e-04
8.700000e+08	3.628365e+11	0.000000e+00	4.120605e-01	1.313492e+13	1.746110e+14	1.205988e+14	5.379014e+03	2.537971e+03	1.448724e+03	0	2.920298e-04
8.800000e+08	3.601609e+11	0.000000e+00	4.120605e-01	1.304802e+13	1.732901e+14	1.200431e+14	5.374836e+03	2.535739e+03	1.447450e+03	0	2.913102e-04
8.900000e+08	3.575225e+11	0.000000e+00	4.120605e-01	1.296232e+13	1.719953e+14	1.194913e+14	5.370686e+03	2.533542e+03	1.446196e+03	0	2.905971e-04
9.000000e+08	3.549206e+11	0.000000e+00	4.120605e-01	1.287779e+13	1.707258e+14	1.189432e+14	5.366563e+03	2.531382e+03	1.444963e+03	0	2.898905e-04
9.100000e+08	3.523543e+11	0.000000e+00	4.120605e-01	1.279441e+13	1.694806e+14	1.183989e+14	5.362467e+03	2.529256e+03	1.443750e+03	0	2.891901e-04
9.200000e+08	3.498228e+11	0.000000e+00	4.120605e-01	1.271216e+13	1.682591e+14	1.178583e+14	5.358397e+03	2.527164e+03	1.442555e+03	0	2.884958e-04
9.300000e+08	3.473252e+11	0.000000e+00	4.120605e-01	1.263100e+13	1.670604e+14	1.173214e+14	5.354354e+03	2.525104e+03	1.441379e+03	0	2.878076e-04
9.400000e+08	3.448608e+11	0.000000e+00	4.120605e-01	1.255091e+13	1.658838e+14	1.167881e+14	5.350336e+03	2.523076e+03	1.440222e+03	0	2.871253e-04
9.500000e+08	3.424289e+11	0.000000e+00	4.120605e-01	1.247186e+13	1.647285e+14	1.162586e+14	5.346344e+03	2.521078e+03	1.439081e+03	0	2.864488e-04
9.600000e+08	3.400287e+11	0.000000e+00	4.120605e-01	1.239384e+13	1.635939e+14	1.157326e+14	5.342376e+03	2.519110e+03	1.437958e+03	0	2.857779e-04
9.700000e+08	3.376595e+11	0.000000e+00	4.120605e-01	1.231683e+13	1.624793e+14	1.152102e+14	5.338434e+03	2.517170e+03	1.436851e+03	0	2.851126e-04
9.800000e+08	3.353206e+11	0.000000e+00	4.120605e-01	1.224079e+13	1.613841e+14	1.146913e+14	5.334516e+03	2.515259e+03	1.435760e+03	0	2.844528e-04
9.900000e+08	3.330114e+11	0.000000e+00	4.120605e-01	1.216570e+13	1.603078e+14	1.141760e+14	5.330622e+03	2.513375e+03	1.434684e+03	0	2.837984e-04
1.000000e+09	3.307313e+11	0.000000e+00	4.120605e-01	1.209156e+13	1.592496e+14	1.136642e+14	5.326752e+03	2.511517e+03	1.433624e+03	0	2.831492e-04
1.010000e+09	3.284796e+11	0.000000e+00	4.120605e-01	1.201833e+13	1.582092e+14	1.131559e+14	5.322905e+03	2.509685e+03	1.432578e+03	0	2.825051e-04
1.020000e+09	3.262558e+11	0.000000e+00	4.120605e-01	1.194600e+13	1.571859e+14	1.126510e+14	5.319082e+03	2.507877e+03	1.431546e+03	0	2.818661e-04
1.030000e+09	3.240592e+11	0.000000e+00	4.120605e-01	1.187456e+13	1.561792e+14	1.121495e+14	5.315282e+03	2.506094e+03	1.430528e+03	0	2.812321e-04
1.040000e+09	3.218893e+11	0.000000e+00	4.120605e-01	1.180397e+13	1.551887e+14	1.116514e+14	5.311504e+03	2.504335e+03	1.429524e+03	0	2.806030e-04
1.050000e+09	3.197455e+11	0.000000e+00	4.120605e-01	1.173423e+13	1.542139e+14	1.111567e+14	5.307749e+03	2.502598e+03	1.428533e+03	0	2.799787e-04
1.060000e+09	3.176274e+11	0.000000e+00	4.120605e-01	1.166531e+13	1.532544e+14	1.106653e+14	5.304016e+03	2.500884e+03	1.427554e+03	0	2.793591e-04
1.070000e+09	3.155344e+11	0.000000e+00	4.120605e-01	1.159721e+13	1.523096e+14	1.101772e+14	5.300305e+03	2.499192e+03	1.426588e+03	0	2.787441e-04
1.080000e+09	3.134660e+11	0.000000e+00	4.120605e-01	1.152990e+13	1.513793e+14	1.096924e+14	5.296615e+03	2.497520e+03	1.425634e+03	0	2.781337e-04
1.090000e+09	3.114218e+11	0.000000e+00	4.120605e-01	1.146337e+13	1.504630e+14	1.092109e+14	5.292947e+03	2.495869e+03	1.424692e+03	0	2.775278e-04
1.100000e+09	3.094012e+11	0.000000e+00	4.120605e-01	1.139760e+13	1.495603e+14	1.087326e+14	5.289300e+03	2.494238e+03	1.423761e+03	0	2.769263e-04
1.110000e+09	3.074039e+11	0.000000e+00	4.120605e-01	1.133259e+13	1.486708e+14	1.082575e+14	5.285674e+03	2.492627e+03	1.422841e+03	0	2.763291e-04
1.120000e+09	3.054293e+11	0.000000e+00	4.120605e-01	1.126831e+13	1.477943e+14	1.077855e+14	5.282068e+03	2.491035e+03	1.421932e+03	0	2.757362e-04
1.130000e+09	3.034770e+11	0.000000e+00	4.120605e-01	1.120475e+13	1.469303e+14	1.073168e+14	5.278483e+03	2.489461e+03	1.421034e+03	0	2.751474e-04
1.140000e+09	3.015467e+11	0.000000e+00	4.120605e-01	1.114190e+13	1.460786e+14	1.068512e+14	5.274918e+03	2.487905e+03	1.420146e+03	0	2.745628e-04
1.150000e+09	2.996379e+11	0.000000e+00	4.120605e-01	1.107974e+13	1.452387e+14	1.063886e+14	5.271373e+03	2.486367e+03	1.419268e+03	0	2.739822e-04
1.160000e+09	2.977502e+11	0.000000e+00	4.120605e-01	1.101827e+13	1.444105e+14	1.059292e+14	5.267848e+03	2.484846e+03	1.418399e+03	0	2.734057e-04
1.170000e+09	2.958832e+11	0.000000e+00	4.120605e-01	1.095746e+13	1.435935e+14	1.054728e+14	5.264343e+03	2.483341e+03	1.417541e+03	0	2.728330e-04
1.180000e+09	2.940366e+11	0.000000e+00	4.120605e-01	1.089732e+13	1.427876e+14	1.050195e+14	5.260856e+03	2.481853e+03	1.416691e+03	0	2.722643e-04
1.190000e+09	2.922100e+11	0.000000e+00	4.120605e-01	1.083782e+13	1.419925e+14	1.045692e+14	5.257389e+03	2.480381e+03	1.415851e+03	0	2.716993e-04
1.200000e+09	2.904030e+11	0.000000e+00	4.120605e-01	1.077895e+13	1.412078e+14	1.041219e+14	5.253941e+03	2.478925e+03	1.415019e+03	0	2.711381e-04
1.210000e+09	2.886153e+11	0.000000e+00	4.120605e-01	1.072071e+13	1.404334e+14	1.036775e+14	5.250511e+03	2.477483e+03	1.414197e+03	0	2.705806e-04
1.220000e+09	2.868466e+11	0.000000e+00	4.120605e-01	1.066308e+13	1.396690e+14	1.032361e+14	5.247100e+03	2.476056e+03	1.413382e+03	0	2.700267e-04
1.230000e+09	2.850965e+11	0.000000e+00	4.120605e-01	1.060605e+13	1.389143e+14	1.027976e+14	5.243707e+03	2.474644e+03	1.412576e+03	0	2.694764e-04
1.240000e+09	2.833647e+11	0.000000e+00	4.120605e-01	1.054961e+13	1.381691e+14	1.023620e+14	5.240332e+03	2.473246e+03	1.411778e+03	0	2.689297e-04
1.250000e+09	2.816508e+11	0.000000e+00	4.120605e-01	1.049376e+13	1.374332e+14	1.019293e+14	5.236975e+03	2.471862e+03	1.410988e+03	0	2.683864e-04
1.260000e+09	2.799547e+11	0.000000e+00	4.120605e-01	1.043848e+13	1.367064e+14	1.014994e+14	5.233636e+03	2.470491e+03	1.410205e+03	0	2.678466e-04
1.270000e+09	2.782760e+11	0.000000e+00	4.120605e-01	1.038376e+13	1.359885e+14	1.010723e+14	5.230315e+03	2.469133e+03	1.409430e+03	0	2.673101e-04
1.280000e+09	2.766144e+11	0.000000e+00	4.120605e-01	1.032959e+13	1.352793e+14	1.006481e+14	5.227010e+03	2.467788e+03	1.408663e+03	0	2.667770e-04
1.290000e+09	2.749696e+11	0.000000e+00	4.120605e-01	1.027597e+13	1.345785e+14	1.002267e+14	5.223724e+03	2.466456e+03	1.407902e+03	0	2.662472e-04
1.300000e+09	2.733414e+11	0.000000e+00	4.120605e-01	1.022288e+13	1.338860e+14	9.980799e+13	5.220454e+03	2.465136e+03	1.407149e+03	0	2.657206e-04
1.310000e+09	2.717294e+11	0.000000e+00	4.120605e-01	1.017031e+13	1.332017e+14	9.939206e+13	5.217201e+03	2.463828e+03	1.406402e+03	0	2.651973e-04
1.320000e+09	2.701334e+11	0.000000e+00	4.120605e-01	1.011827e+13	1.325253e+14	9.897885e+13	5.213964e+03	2.462532e+03	1.405662e+03	0	2.646771e-04
1.330000e+09	2.685533e+11	0.000000e+00	4.120605e-01	1.006673e+13	1.318566e+14	9.856835e+13	5.210744e+03	2.461247e+03	1.404929e+03	0	2.641600e-04
1.340000e+09	2.669886e+11	0.000000e+00	4.120605e-01	1.001570e+13	1.311955e+14	9.816052e+13	5.207541e+03	2.459974e+03	1.404202e+03	0	2.636459e-04
1.350000e+09	2.654392e+11	0.000000e+00	4.120605e-01	9.965161e+12	1.305419e+14	9.775536e+13	5.204354e+03	2.458711e+03	1.403481e+03	0	2.631349e-04
1.360000e+09	2.639048e+11	0.000000e+00	4.120605e-01	9.915107e+12	1.298956e+14	9.735284e+13	5.201183e+03	2.457460e+03	1.402767e+03	0	2.626269e-04
