#t		Qconv[W]	Ri[Rp]		R*[Rp]		Qc[W]		Qm[W]		Qr[W]		Tcmb[K]		Tl[K]		Tup[K]		RiFlag		Bs[T]
0.000000e+00	4.259112e+12	0.000000e+00	4.070351e-01	1.029527e+14	3.274724e+15	3.129627e+14	8.147068e+03	4.874286e+03	2.348202e+03	0	6.492905e-04
1.000000e+07	4.145647e+12	0.000000e+00	4.070351e-01	1.003666e+14	2.950318e+15	3.112287e+14	8.128316e+03	4.778109e+03	2.301868e+03	0	6.434727e-04
2.000000e+07	4.034725e+12	0.000000e+00	4.070351e-01	9.783844e+13	2.678945e+15	3.095076e+14	8.110032e+03	4.692379e+03	2.260568e+03	0	6.376817e-04
3.000000e+07	3.927498e+12	0.000000e+00	4.070351e-01	9.539444e+13	2.449369e+15	3.077994e+14	8.092205e+03	4.615417e+03	2.223491e+03	0	6.319820e-04
4.000000e+07	3.824552e+12	0.000000e+00	4.070351e-01	9.304776e+13	2.253193e+15	3.061039e+14	8.074821e+03	4.545891e+03	2.189997e+03	0	6.264112e-04
5.000000e+07	3.726122e+12	0.000000e+00	4.070351e-01	9.080378e+13	2.084046e+15	3.044211e+14	8.057862e+03	4.482729e+03	2.159568e+03	0	6.209906e-04
6.000000e+07	3.632237e+12	0.000000e+00	4.070351e-01	8.866311e+13	1.937020e+15	3.027509e+14	8.041309e+03	4.425063e+03	2.131788e+03	0	6.157306e-04
7.000000e+07	3.542802e+12	0.000000e+00	4.070351e-01	8.662360e+13	1.808285e+15	3.010930e+14	8.025145e+03	4.372178e+03	2.106310e+03	0	6.106349e-04
8.000000e+07	3.457652e+12	0.000000e+00	4.070351e-01	8.468148e+13	1.694816e+15	2.994475e+14	8.009350e+03	4.323479e+03	2.082849e+03	0	6.057031e-04
9.000000e+07	3.376584e+12	0.000000e+00	4.070351e-01	8.283214e+13	1.594196e+15	2.978143e+14	7.993907e+03	4.278470e+03	2.061166e+03	0	6.009318e-04
1.000000e+08	3.299377e+12	0.000000e+00	4.070351e-01	8.107057e+13	1.504477e+15	2.961931e+14	7.978800e+03	4.236732e+03	2.041058e+03	0	5.963162e-04
1.100000e+08	3.225806e+12	0.000000e+00	4.070351e-01	7.939166e+13	1.424071e+15	2.945840e+14	7.964013e+03	4.197908e+03	2.022355e+03	0	5.918506e-04
1.200000e+08	3.155652e+12	0.000000e+00	4.070351e-01	7.779039e+13	1.351674e+15	2.929868e+14	7.949530e+03	4.161692e+03	2.004908e+03	0	5.875286e-04
1.300000e+08	3.088699e+12	0.000000e+00	4.070351e-01	7.626192e+13	1.286207e+15	2.914015e+14	7.935338e+03	4.127822e+03	1.988591e+03	0	5.833437e-04
1.400000e+08	3.024746e+12	0.000000e+00	4.070351e-01	7.480166e+13	1.226771e+15	2.898278e+14	7.921424e+03	4.096070e+03	1.973294e+03	0	5.792895e-04
1.500000e+08	2.963603e+12	0.000000e+00	4.070351e-01	7.340526e+13	1.172609e+15	2.882658e+14	7.907775e+03	4.066236e+03	1.958921e+03	0	5.753596e-04
1.600000e+08	2.905091e+12	0.000000e+00	4.070351e-01	7.206870e+13	1.123083e+15	2.867154e+14	7.894380e+03	4.038147e+03	1.945389e+03	0	5.715478e-04
1.700000e+08	2.849043e+12	0.000000e+00	4.070351e-01	7.078819e+13	1.077651e+15	2.851764e+14	7.881227e+03	4.011649e+03	1.932624e+03	0	5.678483e-04
1.800000e+08	2.795307e+12	0.000000e+00	4.070351e-01	6.956023e+13	1.035847e+15	2.836487e+14	7.868308e+03	3.986608e+03	1.920560e+03	0	5.642556e-04
1.900000e+08	2.743739e+12	0.000000e+00	4.070351e-01	6.838157e+13	9.972749e+14	2.821323e+14	7.855611e+03	3.962903e+03	1.909140e+03	0	5.607642e-04
2.000000e+08	2.694206e+12	0.000000e+00	4.070351e-01	6.724921e+13	9.615892e+14	2.806270e+14	7.843129e+03	3.940427e+03	1.898313e+03	0	5.573691e-04
2.100000e+08	2.646586e+12	0.000000e+00	4.070351e-01	6.616036e+13	9.284919e+14	2.791329e+14	7.830852e+03	3.919084e+03	1.888031e+03	0	5.540658e-04
2.200000e+08	2.600765e+12	0.000000e+00	4.070351e-01	6.511245e+13	8.977231e+14	2.776496e+14	7.818774e+03	3.898789e+03	1.878254e+03	0	5.508496e-04
2.300000e+08	2.556639e+12	0.000000e+00	4.070351e-01	6.410308e+13	8.690553e+14	2.761773e+14	7.806886e+03	3.879465e+03	1.868944e+03	0	5.477165e-04
2.400000e+08	2.514109e+12	0.000000e+00	4.070351e-01	6.313005e+13	8.422891e+14	2.747158e+14	7.795182e+03	3.861042e+03	1.860069e+03	0	5.446624e-04
2.500000e+08	2.473087e+12	0.000000e+00	4.070351e-01	6.219130e+13	8.172486e+14	2.732650e+14	7.783654e+03	3.843456e+03	1.851597e+03	0	5.416837e-04
2.600000e+08	2.433487e+12	0.000000e+00	4.070351e-01	6.128494e+13	7.937784e+14	2.718247e+14	7.772298e+03	3.826652e+03	1.843501e+03	0	5.387770e-04
2.700000e+08	2.395233e+12	0.000000e+00	4.070351e-01	6.040919e+13	7.717405e+14	2.703951e+14	7.761106e+03	3.810575e+03	1.835756e+03	0	5.359388e-04
2.800000e+08	2.358252e+12	0.000000e+00	4.070351e-01	5.956243e+13	7.510124e+14	2.689758e+14	7.750074e+03	3.795180e+03	1.828340e+03	0	5.331663e-04
2.900000e+08	2.322476e+12	0.000000e+00	4.070351e-01	5.874311e+13	7.314844e+14	2.675669e+14	7.739196e+03	3.780423e+03	1.821230e+03	0	5.304565e-04
3.000000e+08	2.287845e+12	0.000000e+00	4.070351e-01	5.794983e+13	7.130586e+14	2.661683e+14	7.728467e+03	3.766264e+03	1.814409e+03	0	5.278067e-04
3.100000e+08	2.254299e+12	0.000000e+00	4.070351e-01	5.718125e+13	6.956472e+14	2.647799e+14	7.717882e+03	3.752666e+03	1.807858e+03	0	5.252142e-04
3.200000e+08	2.221783e+12	0.000000e+00	4.070351e-01	5.643615e+13	6.791709e+14	2.634016e+14	7.707437e+03	3.739596e+03	1.801562e+03	0	5.226768e-04
3.300000e+08	2.190248e+12	0.000000e+00	4.070351e-01	5.571337e+13	6.635585e+14	2.620333e+14	7.697128e+03	3.727023e+03	1.795505e+03	0	5.201921e-04
3.400000e+08	2.159646e+12	0.000000e+00	4.070351e-01	5.501183e+13	6.487456e+14	2.606749e+14	7.686951e+03	3.714919e+03	1.789674e+03	0	5.177580e-04
3.500000e+08	2.129932e+12	0.000000e+00	4.070351e-01	5.433052e+13	6.346738e+14	2.593264e+14	7.676901e+03	3.703257e+03	1.784055e+03	0	5.153725e-04
3.600000e+08	2.101065e+12	0.000000e+00	4.070351e-01	5.366851e+13	6.212900e+14	2.579877e+14	7.666975e+03	3.692013e+03	1.778638e+03	0	5.130336e-04
3.700000e+08	2.073006e+12	0.000000e+00	4.070351e-01	5.302490e+13	6.085461e+14	2.566587e+14	7.657170e+03	3.681164e+03	1.773412e+03	0	5.107396e-04
3.800000e+08	2.045718e+12	0.000000e+00	4.070351e-01	5.239887e+13	5.963981e+14	2.553392e+14	7.647482e+03	3.670689e+03	1.768365e+03	0	5.084887e-04
3.900000e+08	2.019168e+12	0.000000e+00	4.070351e-01	5.178963e+13	5.848059e+14	2.540294e+14	7.637908e+03	3.660568e+03	1.763490e+03	0	5.062793e-04
4.000000e+08	1.993322e+12	0.000000e+00	4.070351e-01	5.119644e+13	5.737327e+14	2.527289e+14	7.628445e+03	3.650784e+03	1.758776e+03	0	5.041098e-04
4.100000e+08	1.968151e+12	0.000000e+00	4.070351e-01	5.061863e+13	5.631450e+14	2.514379e+14	7.619090e+03	3.641318e+03	1.754216e+03	0	5.019789e-04
4.200000e+08	1.943625e+12	0.000000e+00	4.070351e-01	5.005554e+13	5.530119e+14	2.501562e+14	7.609840e+03	3.632156e+03	1.749802e+03	0	4.998851e-04
4.300000e+08	1.919719e+12	0.000000e+00	4.070351e-01	4.950655e+13	5.433049e+14	2.488836e+14	7.600693e+03	3.623282e+03	1.745527e+03	0	4.978271e-04
4.400000e+08	1.896406e+12	0.000000e+00	4.070351e-01	4.897109e+13	5.339980e+14	2.476203e+14	7.591646e+03	3.614683e+03	1.741385e+03	0	4.958037e-04
4.500000e+08	1.873662e+12	0.000000e+00	4.070351e-01	4.844861e+13	5.250671e+14	2.463660e+14	7.582697e+03	3.606346e+03	1.737368e+03	0	4.938136e-04
4.600000e+08	1.851465e+12	0.000000e+00	4.070351e-01	4.793860e+13	5.164898e+14	2.451208e+14	7.573842e+03	3.598257e+03	1.733471e+03	0	4.918559e-04
4.700000e+08	1.829793e+12	0.000000e+00	4.070351e-01	4.744057e+13	5.082457e+14	2.438844e+14	7.565081e+03	3.590406e+03	1.729689e+03	0	4.899292e-04
4.800000e+08	1.808627e+12	0.000000e+00	4.070351e-01	4.695405e+13	5.003156e+14	2.426569e+14	7.556410e+03	3.582783e+03	1.726016e+03	0	4.880328e-04
4.900000e+08	1.787946e+12	0.000000e+00	4.070351e-01	4.647861e+13	4.926819e+14	2.414382e+14	7.547828e+03	3.575376e+03	1.722448e+03	0	4.861655e-04
5.000000e+08	1.767732e+12	0.000000e+00	4.070351e-01	4.601383e+13	4.853281e+14	2.402283e+14	7.539333e+03	3.568176e+03	1.718979e+03	0	4.843264e-04
5.100000e+08	1.747969e+12	0.000000e+00	4.070351e-01	4.555931e+13	4.782391e+14	2.390269e+14	7.530923e+03	3.561174e+03	1.715606e+03	0	4.825148e-04
5.200000e+08	1.728640e+12	0.000000e+00	4.070351e-01	4.511470e+13	4.714006e+14	2.378342e+14	7.522595e+03	3.554362e+03	1.712325e+03	0	4.807296e-04
5.300000e+08	1.709728e+12	0.000000e+00	4.070351e-01	4.467962e+13	4.647994e+14	2.366499e+14	7.514348e+03	3.547731e+03	1.709130e+03	0	4.789701e-04
5.400000e+08	1.691220e+12	0.000000e+00	4.070351e-01	4.425375e+13	4.584232e+14	2.354741e+14	7.506181e+03	3.541275e+03	1.706020e+03	0	4.772355e-04
5.500000e+08	1.673102e+12	0.000000e+00	4.070351e-01	4.383676e+13	4.522605e+14	2.343067e+14	7.498091e+03	3.534985e+03	1.702990e+03	0	4.755251e-04
5.600000e+08	1.655359e+12	0.000000e+00	4.070351e-01	4.342834e+13	4.463004e+14	2.331475e+14	7.490077e+03	3.528855e+03	1.700037e+03	0	4.738382e-04
5.700000e+08	1.637978e+12	0.000000e+00	4.070351e-01	4.302821e+13	4.405330e+14	2.319966e+14	7.482138e+03	3.522879e+03	1.697158e+03	0	4.721740e-04
5.800000e+08	1.620949e+12	0.000000e+00	4.070351e-01	4.263608e+13	4.349487e+14	2.308538e+14	7.474272e+03	3.517050e+03	1.694350e+03	0	4.705320e-04
5.900000e+08	1.604259e+12	0.000000e+00	4.070351e-01	4.225170e+13	4.295388e+14	2.297192e+14	7.466477e+03	3.511363e+03	1.691610e+03	0	4.689114e-04
6.000000e+08	1.587897e+12	0.000000e+00	4.070351e-01	4.187481e+13	4.242950e+14	2.285926e+14	7.458752e+03	3.505811e+03	1.688935e+03	0	4.673118e-04
6.100000e+08	1.571852e+12	0.000000e+00	4.070351e-01	4.150517e+13	4.192095e+14	2.274739e+14	7.451096e+03	3.500391e+03	1.686324e+03	0	4.657326e-04
6.200000e+08	1.556115e+12	0.000000e+00	4.070351e-01	4.114254e+13	4.142749e+14	2.263632e+14	7.443508e+03	3.495096e+03	1.683773e+03	0	4.641730e-04
6.300000e+08	1.540676e+12	0.000000e+00	4.070351e-01	4.078671e+13	4.094844e+14	2.252603e+14	7.435985e+03	3.489923e+03	1.681281e+03	0	4.626328e-04
6.400000e+08	1.525525e+12	0.000000e+00	4.070351e-01	4.043747e+13	4.048314e+14	2.241651e+14	7.428528e+03	3.484866e+03	1.678845e+03	0	4.611113e-04
6.500000e+08	1.510653e+12	0.000000e+00	4.070351e-01	4.009462e+13	4.003100e+14	2.230777e+14	7.421134e+03	3.479921e+03	1.676463e+03	0	4.596080e-04
6.600000e+08	1.496053e+12	0.000000e+00	4.070351e-01	3.975796e+13	3.959143e+14	2.219980e+14	7.413802e+03	3.475085e+03	1.674133e+03	0	4.581225e-04
6.700000e+08	1.481715e+12	0.000000e+00	4.070351e-01	3.942730e+13	3.916389e+14	2.209258e+14	7.406532e+03	3.470353e+03	1.671853e+03	0	4.566543e-04
6.800000e+08	1.467633e+12	0.000000e+00	4.070351e-01	3.910248e+13	3.874786e+14	2.198611e+14	7.399323e+03	3.465722e+03	1.669622e+03	0	4.552030e-04
6.900000e+08	1.453798e+12	0.000000e+00	4.070351e-01	3.878332e+13	3.834286e+14	2.188040e+14	7.392172e+03	3.461188e+03	1.667438e+03	0	4.537682e-04
7.000000e+08	1.440204e+12	0.000000e+00	4.070351e-01	3.846966e+13	3.794844e+14	2.177542e+14	7.385080e+03	3.456747e+03	1.665298e+03	0	4.523494e-04
7.100000e+08	1.426844e+12	0.000000e+00	4.070351e-01	3.816134e+13	3.756415e+14	2.167118e+14	7.378045e+03	3.452397e+03	1.663203e+03	0	4.509463e-04
7.200000e+08	1.413711e+12	0.000000e+00	4.070351e-01	3.785821e+13	3.718960e+14	2.156767e+14	7.371067e+03	3.448134e+03	1.661149e+03	0	4.495585e-04
7.300000e+08	1.400799e+12	0.000000e+00	4.070351e-01	3.756012e+13	3.682437e+14	2.146488e+14	7.364143e+03	3.443956e+03	1.659136e+03	0	4.481856e-04
7.400000e+08	1.388101e+12	0.000000e+00	4.070351e-01	3.726695e+13	3.646812e+14	2.136281e+14	7.357274e+03	3.439859e+03	1.657163e+03	0	4.468273e-04
7.500000e+08	1.375612e+12	0.000000e+00	4.070351e-01	3.697855e+13	3.612049e+14	2.126145e+14	7.350459e+03	3.435841e+03	1.655227e+03	0	4.454832e-04
7.600000e+08	1.363327e+12	0.000000e+00	4.070351e-01	3.669480e+13	3.578114e+14	2.116080e+14	7.343696e+03	3.431899e+03	1.653328e+03	0	4.441531e-04
7.700000e+08	1.351239e+12	0.000000e+00	4.070351e-01	3.641557e+13	3.544976e+14	2.106084e+14	7.336985e+03	3.428031e+03	1.651465e+03	0	4.428365e-04
7.800000e+08	1.339344e+12	0.000000e+00	4.070351e-01	3.614075e+13	3.512605e+14	2.096158e+14	7.330325e+03	3.424235e+03	1.649636e+03	0	4.415332e-04
7.900000e+08	1.327636e+12	0.000000e+00	4.070351e-01	3.587021e+13	3.480972e+14	2.086301e+14	7.323715e+03	3.420508e+03	1.647840e+03	0	4.402429e-04
8.000000e+08	1.316111e+12	0.000000e+00	4.070351e-01	3.560386e+13	3.450051e+14	2.076513e+14	7.317154e+03	3.416847e+03	1.646076e+03	0	4.389653e-04
8.100000e+08	1.304765e+12	0.000000e+00	4.070351e-01	3.534158e+13	3.419815e+14	2.066792e+14	7.310642e+03	3.413251e+03	1.644344e+03	0	4.377002e-04
8.200000e+08	1.293591e+12	0.000000e+00	4.070351e-01	3.508327e+13	3.390239e+14	2.057139e+14	7.304178e+03	3.409719e+03	1.642642e+03	0	4.364472e-04
8.300000e+08	1.282588e+12	0.000000e+00	4.070351e-01	3.482884e+13	3.361301e+14	2.047552e+14	7.297761e+03	3.406247e+03	1.640970e+03	0	4.352061e-04
8.400000e+08	1.271749e+12	0.000000e+00	4.070351e-01	3.457818e+13	3.332978e+14	2.038031e+14	7.291390e+03	3.402834e+03	1.639325e+03	0	4.339767e-04
8.500000e+08	1.261071e+12	0.000000e+00	4.070351e-01	3.433120e+13	3.305248e+14	2.028577e+14	7.285065e+03	3.399478e+03	1.637709e+03	0	4.327587e-04
8.600000e+08	1.250550e+12	0.000000e+00	4.070351e-01	3.408782e+13	3.278091e+14	2.019187e+14	7.278785e+03	3.396178e+03	1.636119e+03	0	4.315519e-04
8.700000e+08	1.240183e+12	0.000000e+00	4.070351e-01	3.384796e+13	3.251488e+14	2.009862e+14	7.272550e+03	3.392932e+03	1.634555e+03	0	4.303560e-04
8.800000e+08	1.229965e+12	0.000000e+00	4.070351e-01	3.361152e+13	3.225419e+14	2.000601e+14	7.266358e+03	3.389738e+03	1.633016e+03	0	4.291709e-04
8.900000e+08	1.219893e+12	0.000000e+00	4.070351e-01	3.337842e+13	3.199868e+14	1.991404e+14	7.260210e+03	3.386594e+03	1.631502e+03	0	4.279963e-04
9.000000e+08	1.209965e+12	0.000000e+00	4.070351e-01	3.314860e+13	3.174818e+14	1.982270e+14	7.254104e+03	3.383500e+03	1.630012e+03	0	4.268319e-04
9.100000e+08	1.200176e+12	0.000000e+00	4.070351e-01	3.292197e+13	3.150251e+14	1.973198e+14	7.248040e+03	3.380454e+03	1.628544e+03	0	4.256777e-04
9.200000e+08	1.190523e+12	0.000000e+00	4.070351e-01	3.269847e+13	3.126152e+14	1.964189e+14	7.242018e+03	3.377454e+03	1.627099e+03	0	4.245334e-04
9.300000e+08	1.181003e+12	0.000000e+00	4.070351e-01	3.247801e+13	3.102508e+14	1.955241e+14	7.236036e+03	3.374500e+03	1.625676e+03	0	4.233988e-04
9.400000e+08	1.171614e+12	0.000000e+00	4.070351e-01	3.226054e+13	3.079302e+14	1.946355e+14	7.230094e+03	3.371589e+03	1.624273e+03	0	4.222738e-04
9.500000e+08	1.162352e+12	0.000000e+00	4.070351e-01	3.204599e+13	3.056522e+14	1.937529e+14	7.224193e+03	3.368722e+03	1.622892e+03	0	4.211581e-04
9.600000e+08	1.153214e+12	0.000000e+00	4.070351e-01	3.183429e+13	3.034154e+14	1.928763e+14	7.218330e+03	3.365895e+03	1.621530e+03	0	4.200516e-04
9.700000e+08	1.144199e+12	0.000000e+00	4.070351e-01	3.162538e+13	3.012187e+14	1.920057e+14	7.212506e+03	3.363109e+03	1.620188e+03	0	4.189542e-04
9.800000e+08	1.135303e+12	0.000000e+00	4.070351e-01	3.141921e+13	2.990607e+14	1.911410e+14	7.206720e+03	3.360363e+03	1.618865e+03	0	4.178655e-04
9.900000e+08	1.126523e+12	0.000000e+00	4.070351e-01	3.121571e+13	2.969403e+14	1.902822e+14	7.200972e+03	3.357654e+03	1.617560e+03	0	4.167856e-04
1.000000e+09	1.117858e+12	0.000000e+00	4.070351e-01	3.101483e+13	2.948565e+14	1.894292e+14	7.195261e+03	3.354983e+03	1.616273e+03	0	4.157142e-04
1.010000e+09	1.109304e+12	0.000000e+00	4.070351e-01	3.081651e+13	2.928081e+14	1.885820e+14	7.189586e+03	3.352348e+03	1.615004e+03	0	4.146512e-04
1.020000e+09	1.100860e+12	0.000000e+00	4.070351e-01	3.062070e+13	2.907941e+14	1.877406e+14	7.183948e+03	3.349749e+03	1.613752e+03	0	4.135964e-04
1.030000e+09	1.092523e+12	0.000000e+00	4.070351e-01	3.042735e+13	2.888136e+14	1.869048e+14	7.178346e+03	3.347183e+03	1.612516e+03	0	4.125497e-04
1.040000e+09	1.084292e+12	0.000000e+00	4.070351e-01	3.023641e+13	2.868655e+14	1.860747e+14	7.172779e+03	3.344652e+03	1.611296e+03	0	4.115109e-04
1.050000e+09	1.076163e+12	0.000000e+00	4.070351e-01	3.004783e+13	2.849491e+14	1.852502e+14	7.167246e+03	3.342152e+03	1.610092e+03	0	4.104800e-04
1.060000e+09	1.068135e+12	0.000000e+00	4.070351e-01	2.986157e+13	2.830633e+14	1.844313e+14	7.161748e+03	3.339685e+03	1.608903e+03	0	4.094568e-04
1.070000e+09	1.060206e+12	0.000000e+00	4.070351e-01	2.967757e+13	2.812074e+14	1.836179e+14	7.156285e+03	3.337249e+03	1.607730e+03	0	4.084411e-04
1.080000e+09	1.052374e+12	0.000000e+00	4.070351e-01	2.949579e+13	2.793805e+14	1.828099e+14	7.150854e+03	3.334843e+03	1.606571e+03	0	4.074329e-04
1.090000e+09	1.044637e+12	0.000000e+00	4.070351e-01	2.931620e+13	2.775819e+14	1.820074e+14	7.145457e+03	3.332466e+03	1.605426e+03	0	4.064319e-04
1.100000e+09	1.036993e+12	0.000000e+00	4.070351e-01	2.913874e+13	2.758108e+14	1.812103e+14	7.140093e+03	3.330118e+03	1.604294e+03	0	4.054382e-04
1.110000e+09	1.029441e+12	0.000000e+00	4.070351e-01	2.896337e+13	2.740665e+14	1.804185e+14	7.134761e+03	3.327798e+03	1.603177e+03	0	4.044515e-04
1.120000e+09	1.021978e+12	0.000000e+00	4.070351e-01	2.879007e+13	2.723483e+14	1.796320e+14	7.129462e+03	3.325506e+03	1.602073e+03	0	4.034718e-04
1.130000e+09	1.014603e+12	0.000000e+00	4.070351e-01	2.861878e+13	2.706554e+14	1.788508e+14	7.124193e+03	3.323240e+03	1.600981e+03	0	4.024990e-04
1.140000e+09	1.007315e+12	0.000000e+00	4.070351e-01	2.844948e+13	2.689874e+14	1.780748e+14	7.118957e+03	3.321000e+03	1.599902e+03	0	4.015328e-04
1.150000e+09	1.000111e+12	0.000000e+00	4.070351e-01	2.828211e+13	2.673434e+14	1.773040e+14	7.113751e+03	3.318786e+03	1.598835e+03	0	4.005734e-04
1.160000e+09	9.929902e+11	0.000000e+00	4.070351e-01	2.811666e+13	2.657230e+14	1.765383e+14	7.108575e+03	3.316597e+03	1.597781e+03	0	3.996204e-04
1.170000e+09	9.859511e+11	0.000000e+00	4.070351e-01	2.795308e+13	2.641255e+14	1.757777e+14	7.103430e+03	3.314432e+03	1.596738e+03	0	3.986739e-04
1.180000e+09	9.789922e+11	0.000000e+00	4.070351e-01	2.779134e+13	2.625504e+14	1.750222e+14	7.098315e+03	3.312290e+03	1.595706e+03	0	3.977337e-04
1.190000e+09	9.721119e+11	0.000000e+00	4.070351e-01	2.763140e+13	2.609971e+14	1.742717e+14	7.093229e+03	3.310172e+03	1.594686e+03	0	3.967998e-04
1.200000e+09	9.653088e+11	0.000000e+00	4.070351e-01	2.747324e+13	2.594651e+14	1.735262e+14	7.088173e+03	3.308077e+03	1.593676e+03	0	3.958720e-04
1.210000e+09	9.585817e+11	0.000000e+00	4.070351e-01	2.731682e+13	2.579539e+14	1.727857e+14	7.083145e+03	3.306004e+03	1.592677e+03	0	3.949502e-04
1.220000e+09	9.519292e+11	0.000000e+00	4.070351e-01	2.716212e+13	2.564629e+14	1.720500e+14	7.078146e+03	3.303952e+03	1.591689e+03	0	3.940345e-04
1.230000e+09	9.453499e+11	0.000000e+00	4.070351e-01	2.700909e+13	2.549918e+14	1.713192e+14	7.073175e+03	3.301921e+03	1.590711e+03	0	3.931246e-04
1.240000e+09	9.388426e+11	0.000000e+00	4.070351e-01	2.685772e+13	2.535401e+14	1.705933e+14	7.068232e+03	3.299912e+03	1.589742e+03	0	3.922205e-04
1.250000e+09	9.324060e+11	0.000000e+00	4.070351e-01	2.670798e+13	2.521072e+14	1.698721e+14	7.063317e+03	3.297922e+03	1.588784e+03	0	3.913221e-04
1.260000e+09	9.260390e+11	0.000000e+00	4.070351e-01	2.655983e+13	2.506929e+14	1.691557e+14	7.058429e+03	3.295952e+03	1.587835e+03	0	3.904293e-04
1.270000e+09	9.197403e+11	0.000000e+00	4.070351e-01	2.641325e+13	2.492966e+14	1.684440e+14	7.053569e+03	3.294002e+03	1.586895e+03	0	3.895421e-04
1.280000e+09	9.135088e+11	0.000000e+00	4.070351e-01	2.626822e+13	2.479179e+14	1.677370e+14	7.048735e+03	3.292071e+03	1.585965e+03	0	3.886604e-04
1.290000e+09	9.073434e+11	0.000000e+00	4.070351e-01	2.612470e+13	2.465565e+14	1.670346e+14	7.043927e+03	3.290158e+03	1.585044e+03	0	3.877840e-04
1.300000e+09	9.012430e+11	0.000000e+00	4.070351e-01	2.598268e+13	2.452120e+14	1.663369e+14	7.039146e+03	3.288263e+03	1.584131e+03	0	3.869130e-04
1.310000e+09	8.952065e+11	0.000000e+00	4.070351e-01	2.584213e+13	2.438840e+14	1.656437e+14	7.034391e+03	3.286387e+03	1.583227e+03	0	3.860472e-04
1.320000e+09	8.892329e+11	0.000000e+00	4.070351e-01	2.570302e+13	2.425722e+14	1.649551e+14	7.029661e+03	3.284527e+03	1.582331e+03	0	3.851866e-04
1.330000e+09	8.833210e+11	0.000000e+00	4.070351e-01	2.556533e+13	2.412761e+14	1.642709e+14	7.024957e+03	3.282685e+03	1.581443e+03	0	3.843311e-04
1.340000e+09	8.774701e+11	0.000000e+00	4.070351e-01	2.542904e+13	2.399956e+14	1.635913e+14	7.020278e+03	3.280859e+03	1.580564e+03	0	3.834806e-04
1.350000e+09	8.716790e+11	0.000000e+00	4.070351e-01	2.529413e+13	2.387302e+14	1.629160e+14	7.015623e+03	3.279050e+03	1.579692e+03	0	3.826351e-04
1.360000e+09	8.659468e+11	0.000000e+00	4.070351e-01	2.516057e+13	2.374796e+14	1.622452e+14	7.010994e+03	3.277257e+03	1.578829e+03	0	3.817946e-04
