#t		Qconv[W]	Ri[Rp]		R*[Rp]		Qc[W]		Qm[W]		Qr[W]		Tcmb[K]		Tl[K]		Tup[K]		RiFlag		Bs[T]
0.000000e+00	7.373876e+12	0.000000e+00	4.070353e-01	1.543853e+14	3.748376e+15	3.903264e+14	9.428925e+03	5.495924e+03	2.431813e+03	0	7.709042e-04
1.000000e+07	7.184574e+12	0.000000e+00	4.070353e-01	1.507007e+14	3.428290e+15	3.881637e+14	9.407327e+03	5.405624e+03	2.391857e+03	0	7.642500e-04
2.000000e+07	7.001478e+12	0.000000e+00	4.070353e-01	1.471365e+14	3.154295e+15	3.860172e+14	9.386241e+03	5.323949e+03	2.355718e+03	0	7.577019e-04
3.000000e+07	6.825330e+12	0.000000e+00	4.070353e-01	1.437073e+14	2.917698e+15	3.838867e+14	9.365651e+03	5.249669e+03	2.322851e+03	0	7.512936e-04
4.000000e+07	6.656432e+12	0.000000e+00	4.070353e-01	1.404188e+14	2.711776e+15	3.817721e+14	9.345538e+03	5.181782e+03	2.292813e+03	0	7.450446e-04
5.000000e+07	6.494809e+12	0.000000e+00	4.070353e-01	1.372713e+14	2.531269e+15	3.796733e+14	9.325882e+03	5.119463e+03	2.265238e+03	0	7.389651e-04
6.000000e+07	6.340318e+12	0.000000e+00	4.070353e-01	1.342623e+14	2.372009e+15	3.775902e+14	9.306664e+03	5.062026e+03	2.239824e+03	0	7.330588e-04
7.000000e+07	6.192718e+12	0.000000e+00	4.070353e-01	1.313868e+14	2.230660e+15	3.755225e+14	9.287866e+03	5.008896e+03	2.216315e+03	0	7.273256e-04
8.000000e+07	6.051709e+12	0.000000e+00	4.070353e-01	1.286393e+14	2.104525e+15	3.734703e+14	9.269467e+03	4.959586e+03	2.194496e+03	0	7.217628e-04
9.000000e+07	5.916967e+12	0.000000e+00	4.070353e-01	1.260133e+14	1.991405e+15	3.714332e+14	9.251452e+03	4.913682e+03	2.174185e+03	0	7.163658e-04
1.000000e+08	5.788156e+12	0.000000e+00	4.070353e-01	1.235023e+14	1.889488e+15	3.694114e+14	9.233802e+03	4.870829e+03	2.155224e+03	0	7.111292e-04
1.100000e+08	5.664944e+12	0.000000e+00	4.070353e-01	1.211000e+14	1.797275e+15	3.674045e+14	9.216503e+03	4.830722e+03	2.137477e+03	0	7.060471e-04
1.200000e+08	5.547008e+12	0.000000e+00	4.070353e-01	1.188000e+14	1.713512e+15	3.654125e+14	9.199538e+03	4.793095e+03	2.120828e+03	0	7.011131e-04
1.300000e+08	5.434040e+12	0.000000e+00	4.070353e-01	1.165964e+14	1.637147e+15	3.634352e+14	9.182894e+03	4.757716e+03	2.105174e+03	0	6.963208e-04
1.400000e+08	5.325744e+12	0.000000e+00	4.070353e-01	1.144834e+14	1.567288e+15	3.614726e+14	9.166558e+03	4.724383e+03	2.090425e+03	0	6.916641e-04
1.500000e+08	5.221846e+12	0.000000e+00	4.070353e-01	1.124558e+14	1.503177e+15	3.595245e+14	9.150516e+03	4.692917e+03	2.076502e+03	0	6.871367e-04
1.600000e+08	5.122086e+12	0.000000e+00	4.070353e-01	1.105085e+14	1.444166e+15	3.575908e+14	9.134757e+03	4.663160e+03	2.063335e+03	0	6.827328e-04
1.700000e+08	5.026221e+12	0.000000e+00	4.070353e-01	1.086368e+14	1.389698e+15	3.556713e+14	9.119269e+03	4.634971e+03	2.050862e+03	0	6.784466e-04
1.800000e+08	4.934025e+12	0.000000e+00	4.070353e-01	1.068363e+14	1.339290e+15	3.537660e+14	9.104043e+03	4.608227e+03	2.039028e+03	0	6.742727e-04
1.900000e+08	4.845287e+12	0.000000e+00	4.070353e-01	1.051030e+14	1.292525e+15	3.518748e+14	9.089069e+03	4.582814e+03	2.027784e+03	0	6.702060e-04
2.000000e+08	4.759811e+12	0.000000e+00	4.070353e-01	1.034329e+14	1.249039e+15	3.499974e+14	9.074336e+03	4.558633e+03	2.017085e+03	0	6.662415e-04
2.100000e+08	4.677414e+12	0.000000e+00	4.070353e-01	1.018227e+14	1.208512e+15	3.481339e+14	9.059836e+03	4.535594e+03	2.006890e+03	0	6.623747e-04
2.200000e+08	4.597926e+12	0.000000e+00	4.070353e-01	1.002689e+14	1.170664e+15	3.462840e+14	9.045561e+03	4.513615e+03	1.997165e+03	0	6.586011e-04
2.300000e+08	4.521189e+12	0.000000e+00	4.070353e-01	9.876858e+13	1.135250e+15	3.444477e+14	9.031504e+03	4.492622e+03	1.987876e+03	0	6.549166e-04
2.400000e+08	4.447056e+12	0.000000e+00	4.070353e-01	9.731881e+13	1.102049e+15	3.426249e+14	9.017655e+03	4.472549e+03	1.978994e+03	0	6.513174e-04
2.500000e+08	4.375389e+12	0.000000e+00	4.070353e-01	9.591695e+13	1.070869e+15	3.408154e+14	9.004010e+03	4.453334e+03	1.970492e+03	0	6.477996e-04
2.600000e+08	4.306061e+12	0.000000e+00	4.070353e-01	9.456051e+13	1.041537e+15	3.390192e+14	8.990560e+03	4.434922e+03	1.962345e+03	0	6.443599e-04
2.700000e+08	4.238951e+12	0.000000e+00	4.070353e-01	9.324718e+13	1.013899e+15	3.372361e+14	8.977299e+03	4.417262e+03	1.954531e+03	0	6.409949e-04
2.800000e+08	4.173949e+12	0.000000e+00	4.070353e-01	9.197479e+13	9.878171e+14	3.354660e+14	8.964222e+03	4.400307e+03	1.947029e+03	0	6.377016e-04
2.900000e+08	4.110950e+12	0.000000e+00	4.070353e-01	9.074134e+13	9.631678e+14	3.337089e+14	8.951323e+03	4.384015e+03	1.939820e+03	0	6.344770e-04
3.000000e+08	4.049857e+12	0.000000e+00	4.070353e-01	8.954492e+13	9.398398e+14	3.319645e+14	8.938596e+03	4.368347e+03	1.932888e+03	0	6.313183e-04
3.100000e+08	3.990578e+12	0.000000e+00	4.070353e-01	8.838377e+13	9.177324e+14	3.302329e+14	8.926037e+03	4.353265e+03	1.926214e+03	0	6.282229e-04
3.200000e+08	3.933029e+12	0.000000e+00	4.070353e-01	8.725624e+13	8.967551e+14	3.285138e+14	8.913640e+03	4.338738e+03	1.919786e+03	0	6.251883e-04
3.300000e+08	3.877129e+12	0.000000e+00	4.070353e-01	8.616077e+13	8.768255e+14	3.268073e+14	8.901400e+03	4.324733e+03	1.913589e+03	0	6.222122e-04
3.400000e+08	3.822803e+12	0.000000e+00	4.070353e-01	8.509590e+13	8.578688e+14	3.251132e+14	8.889314e+03	4.311222e+03	1.907611e+03	0	6.192924e-04
3.500000e+08	3.769980e+12	0.000000e+00	4.070353e-01	8.406026e+13	8.398173e+14	3.234313e+14	8.877376e+03	4.298179e+03	1.901840e+03	0	6.164267e-04
3.600000e+08	3.718594e+12	0.000000e+00	4.070353e-01	8.305257e+13	8.226088e+14	3.217616e+14	8.865583e+03	4.285578e+03	1.896264e+03	0	6.136132e-04
3.700000e+08	3.668582e+12	0.000000e+00	4.070353e-01	8.207161e+13	8.061869e+14	3.201041e+14	8.853932e+03	4.273397e+03	1.890875e+03	0	6.108500e-04
3.800000e+08	3.619887e+12	0.000000e+00	4.070353e-01	8.111624e+13	7.904997e+14	3.184585e+14	8.842417e+03	4.261615e+03	1.885661e+03	0	6.081352e-04
3.900000e+08	3.572451e+12	0.000000e+00	4.070353e-01	8.018540e+13	7.754997e+14	3.168248e+14	8.831036e+03	4.250211e+03	1.880615e+03	0	6.054671e-04
4.000000e+08	3.526224e+12	0.000000e+00	4.070353e-01	7.927805e+13	7.611435e+14	3.152029e+14	8.819785e+03	4.239167e+03	1.875728e+03	0	6.028442e-04
4.100000e+08	3.481155e+12	0.000000e+00	4.070353e-01	7.839326e+13	7.473910e+14	3.135928e+14	8.808661e+03	4.228464e+03	1.870993e+03	0	6.002649e-04
4.200000e+08	3.437198e+12	0.000000e+00	4.070353e-01	7.753010e+13	7.342052e+14	3.119942e+14	8.797661e+03	4.218088e+03	1.866402e+03	0	5.977276e-04
4.300000e+08	3.394310e+12	0.000000e+00	4.070353e-01	7.668773e+13	7.215521e+14	3.104071e+14	8.786781e+03	4.208022e+03	1.861948e+03	0	5.952311e-04
4.400000e+08	3.352447e+12	0.000000e+00	4.070353e-01	7.586533e+13	7.094004e+14	3.088315e+14	8.776020e+03	4.198253e+03	1.857625e+03	0	5.927739e-04
4.500000e+08	3.311571e+12	0.000000e+00	4.070353e-01	7.506214e+13	6.977208e+14	3.072671e+14	8.765373e+03	4.188766e+03	1.853427e+03	0	5.903549e-04
4.600000e+08	3.271644e+12	0.000000e+00	4.070353e-01	7.427743e+13	6.864866e+14	3.057140e+14	8.754839e+03	4.179549e+03	1.849349e+03	0	5.879727e-04
4.700000e+08	3.232631e+12	0.000000e+00	4.070353e-01	7.351051e+13	6.756726e+14	3.041721e+14	8.744415e+03	4.170590e+03	1.845385e+03	0	5.856262e-04
4.800000e+08	3.194498e+12	0.000000e+00	4.070353e-01	7.276074e+13	6.652558e+14	3.026412e+14	8.734098e+03	4.161878e+03	1.841530e+03	0	5.833144e-04
4.900000e+08	3.157213e+12	0.000000e+00	4.070353e-01	7.202747e+13	6.552146e+14	3.011212e+14	8.723886e+03	4.153402e+03	1.837779e+03	0	5.810361e-04
5.000000e+08	3.120745e+12	0.000000e+00	4.070353e-01	7.131013e+13	6.455289e+14	2.996121e+14	8.713776e+03	4.145151e+03	1.834129e+03	0	5.787903e-04
5.100000e+08	3.085066e+12	0.000000e+00	4.070353e-01	7.060816e+13	6.361800e+14	2.981138e+14	8.703767e+03	4.137118e+03	1.830574e+03	0	5.765761e-04
5.200000e+08	3.050149e+12	0.000000e+00	4.070353e-01	6.992101e+13	6.271504e+14	2.966262e+14	8.693856e+03	4.129292e+03	1.827111e+03	0	5.743925e-04
5.300000e+08	3.015966e+12	0.000000e+00	4.070353e-01	6.924818e+13	6.184240e+14	2.951492e+14	8.684042e+03	4.121665e+03	1.823737e+03	0	5.722387e-04
5.400000e+08	2.982493e+12	0.000000e+00	4.070353e-01	6.858919e+13	6.099854e+14	2.936828e+14	8.674321e+03	4.114229e+03	1.820447e+03	0	5.701138e-04
5.500000e+08	2.949706e+12	0.000000e+00	4.070353e-01	6.794357e+13	6.018204e+14	2.922267e+14	8.664693e+03	4.106976e+03	1.817237e+03	0	5.680170e-04
5.600000e+08	2.917582e+12	0.000000e+00	4.070353e-01	6.731087e+13	5.939157e+14	2.907810e+14	8.655155e+03	4.099900e+03	1.814106e+03	0	5.659475e-04
5.700000e+08	2.886100e+12	0.000000e+00	4.070353e-01	6.669069e+13	5.862588e+14	2.893456e+14	8.645706e+03	4.092994e+03	1.811050e+03	0	5.639045e-04
5.800000e+08	2.855239e+12	0.000000e+00	4.070353e-01	6.608262e+13	5.788379e+14	2.879204e+14	8.636343e+03	4.086250e+03	1.808066e+03	0	5.618874e-04
5.900000e+08	2.824979e+12	0.000000e+00	4.070353e-01	6.548626e+13	5.716420e+14	2.865052e+14	8.627066e+03	4.079663e+03	1.805152e+03	0	5.598954e-04
6.000000e+08	2.795301e+12	0.000000e+00	4.070353e-01	6.490126e+13	5.646607e+14	2.851001e+14	8.617872e+03	4.073226e+03	1.802304e+03	0	5.579278e-04
6.100000e+08	2.766188e+12	0.000000e+00	4.070353e-01	6.432727e+13	5.578843e+14	2.837049e+14	8.608760e+03	4.066935e+03	1.799520e+03	0	5.559841e-04
6.200000e+08	2.737621e+12	0.000000e+00	4.070353e-01	6.376394e+13	5.513036e+14	2.823196e+14	8.599729e+03	4.060784e+03	1.796798e+03	0	5.540636e-04
6.300000e+08	2.709585e+12	0.000000e+00	4.070353e-01	6.321095e+13	5.449099e+14	2.809441e+14	8.590776e+03	4.054768e+03	1.794136e+03	0	5.521656e-04
6.400000e+08	2.682063e+12	0.000000e+00	4.070353e-01	6.266800e+13	5.386952e+14	2.795782e+14	8.581901e+03	4.048881e+03	1.791532e+03	0	5.502898e-04
6.500000e+08	2.655040e+12	0.000000e+00	4.070353e-01	6.213479e+13	5.326516e+14	2.782220e+14	8.573102e+03	4.043120e+03	1.788983e+03	0	5.484354e-04
6.600000e+08	2.628501e+12	0.000000e+00	4.070353e-01	6.161103e+13	5.267719e+14	2.768753e+14	8.564377e+03	4.037480e+03	1.786487e+03	0	5.466020e-04
6.700000e+08	2.602433e+12	0.000000e+00	4.070353e-01	6.109646e+13	5.210492e+14	2.755381e+14	8.555726e+03	4.031957e+03	1.784043e+03	0	5.447890e-04
6.800000e+08	2.576822e+12	0.000000e+00	4.070353e-01	6.059080e+13	5.154771e+14	2.742103e+14	8.547147e+03	4.026547e+03	1.781649e+03	0	5.429960e-04
6.900000e+08	2.551655e+12	0.000000e+00	4.070353e-01	6.009382e+13	5.100494e+14	2.728918e+14	8.538639e+03	4.021246e+03	1.779304e+03	0	5.412224e-04
7.000000e+08	2.526920e+12	0.000000e+00	4.070353e-01	5.960526e+13	5.047602e+14	2.715826e+14	8.530200e+03	4.016050e+03	1.777005e+03	0	5.394679e-04
7.100000e+08	2.502604e+12	0.000000e+00	4.070353e-01	5.912490e+13	4.996040e+14	2.702825e+14	8.521830e+03	4.010955e+03	1.774750e+03	0	5.377320e-04
7.200000e+08	2.478697e+12	0.000000e+00	4.070353e-01	5.865250e+13	4.945756e+14	2.689915e+14	8.513527e+03	4.005959e+03	1.772540e+03	0	5.360142e-04
7.300000e+08	2.455187e+12	0.000000e+00	4.070353e-01	5.818787e+13	4.896700e+14	2.677095e+14	8.505290e+03	4.001059e+03	1.770371e+03	0	5.343141e-04
7.400000e+08	2.432063e+12	0.000000e+00	4.070353e-01	5.773079e+13	4.848825e+14	2.664365e+14	8.497119e+03	3.996250e+03	1.768244e+03	0	5.326314e-04
7.500000e+08	2.409316e+12	0.000000e+00	4.070353e-01	5.728106e+13	4.802086e+14	2.651723e+14	8.489011e+03	3.991531e+03	1.766156e+03	0	5.309656e-04
7.600000e+08	2.386935e+12	0.000000e+00	4.070353e-01	5.683849e+13	4.756440e+14	2.639169e+14	8.480967e+03	3.986898e+03	1.764106e+03	0	5.293164e-04
7.700000e+08	2.364911e+12	0.000000e+00	4.070353e-01	5.640289e+13	4.711848e+14	2.626703e+14	8.472984e+03	3.982349e+03	1.762093e+03	0	5.276834e-04
7.800000e+08	2.343235e+12	0.000000e+00	4.070353e-01	5.597410e+13	4.668269e+14	2.614324e+14	8.465063e+03	3.977880e+03	1.760116e+03	0	5.260662e-04
7.900000e+08	2.321898e+12	0.000000e+00	4.070353e-01	5.555192e+13	4.625668e+14	2.602030e+14	8.457201e+03	3.973491e+03	1.758173e+03	0	5.244646e-04
8.000000e+08	2.300892e+12	0.000000e+00	4.070353e-01	5.513621e+13	4.584009e+14	2.589822e+14	8.449399e+03	3.969177e+03	1.756265e+03	0	5.228782e-04
8.100000e+08	2.280208e+12	0.000000e+00	4.070353e-01	5.472680e+13	4.543259e+14	2.577698e+14	8.441655e+03	3.964937e+03	1.754389e+03	0	5.213066e-04
8.200000e+08	2.259838e+12	0.000000e+00	4.070353e-01	5.432353e+13	4.503387e+14	2.565659e+14	8.433968e+03	3.960769e+03	1.752544e+03	0	5.197497e-04
8.300000e+08	2.239775e+12	0.000000e+00	4.070353e-01	5.392626e+13	4.464361e+14	2.553702e+14	8.426338e+03	3.956671e+03	1.750731e+03	0	5.182069e-04
8.400000e+08	2.220011e+12	0.000000e+00	4.070353e-01	5.353484e+13	4.426153e+14	2.541828e+14	8.418763e+03	3.952640e+03	1.748947e+03	0	5.166782e-04
8.500000e+08	2.200539e+12	0.000000e+00	4.070353e-01	5.314914e+13	4.388736e+14	2.530036e+14	8.411244e+03	3.948674e+03	1.747193e+03	0	5.151632e-04
8.600000e+08	2.181352e+12	0.000000e+00	4.070353e-01	5.276901e+13	4.352082e+14	2.518325e+14	8.403778e+03	3.944772e+03	1.745466e+03	0	5.136616e-04
8.700000e+08	2.162444e+12	0.000000e+00	4.070353e-01	5.239433e+13	4.316166e+14	2.506695e+14	8.396366e+03	3.940932e+03	1.743767e+03	0	5.121731e-04
8.800000e+08	2.143808e+12	0.000000e+00	4.070353e-01	5.202498e+13	4.280965e+14	2.495145e+14	8.389006e+03	3.937152e+03	1.742094e+03	0	5.106975e-04
8.900000e+08	2.125438e+12	0.000000e+00	4.070353e-01	5.166082e+13	4.246455e+14	2.483674e+14	8.381698e+03	3.933430e+03	1.740447e+03	0	5.092346e-04
9.000000e+08	2.107328e+12	0.000000e+00	4.070353e-01	5.130175e+13	4.212613e+14	2.472282e+14	8.374441e+03	3.929764e+03	1.738825e+03	0	5.077841e-04
9.100000e+08	2.089471e+12	0.000000e+00	4.070353e-01	5.094765e+13	4.179420e+14	2.460968e+14	8.367234e+03	3.926154e+03	1.737228e+03	0	5.063458e-04
9.200000e+08	2.071863e+12	0.000000e+00	4.070353e-01	5.059841e+13	4.146854e+14	2.449732e+14	8.360077e+03	3.922598e+03	1.735654e+03	0	5.049195e-04
9.300000e+08	2.054497e+12	0.000000e+00	4.070353e-01	5.025391e+13	4.114895e+14	2.438572e+14	8.352969e+03	3.919093e+03	1.734104e+03	0	5.035048e-04
9.400000e+08	2.037369e+12	0.000000e+00	4.070353e-01	4.991407e+13	4.083526e+14	2.427489e+14	8.345910e+03	3.915640e+03	1.732576e+03	0	5.021017e-04
9.500000e+08	2.020473e+12	0.000000e+00	4.070353e-01	4.957877e+13	4.052728e+14	2.416481e+14	8.338897e+03	3.912236e+03	1.731069e+03	0	5.007099e-04
9.600000e+08	2.003804e+12	0.000000e+00	4.070353e-01	4.924793e+13	4.022484e+14	2.405549e+14	8.331932e+03	3.908880e+03	1.729584e+03	0	4.993291e-04
9.700000e+08	1.987358e+12	0.000000e+00	4.070353e-01	4.892143e+13	3.992778e+14	2.394690e+14	8.325014e+03	3.905570e+03	1.728120e+03	0	4.979593e-04
9.800000e+08	1.971129e+12	0.000000e+00	4.070353e-01	4.859920e+13	3.963594e+14	2.383906e+14	8.318141e+03	3.902307e+03	1.726676e+03	0	4.966001e-04
9.900000e+08	1.955114e+12	0.000000e+00	4.070353e-01	4.828115e+13	3.934915e+14	2.373195e+14	8.311313e+03	3.899087e+03	1.725252e+03	0	4.952515e-04
1.000000e+09	1.939307e+12	0.000000e+00	4.070353e-01	4.796718e+13	3.906729e+14	2.362557e+14	8.304530e+03	3.895911e+03	1.723846e+03	0	4.939132e-04
1.010000e+09	1.923704e+12	0.000000e+00	4.070353e-01	4.765721e+13	3.879021e+14	2.351991e+14	8.297790e+03	3.892777e+03	1.722460e+03	0	4.925850e-04
1.020000e+09	1.908302e+12	0.000000e+00	4.070353e-01	4.735117e+13	3.851777e+14	2.341496e+14	8.291095e+03	3.889684e+03	1.721091e+03	0	4.912669e-04
1.030000e+09	1.893095e+12	0.000000e+00	4.070353e-01	4.704897e+13	3.824984e+14	2.331073e+14	8.284442e+03	3.886632e+03	1.719740e+03	0	4.899585e-04
1.040000e+09	1.878081e+12	0.000000e+00	4.070353e-01	4.675054e+13	3.798630e+14	2.320720e+14	8.277831e+03	3.883618e+03	1.718407e+03	0	4.886598e-04
1.050000e+09	1.863255e+12	0.000000e+00	4.070353e-01	4.645580e+13	3.772702e+14	2.310436e+14	8.271263e+03	3.880643e+03	1.717090e+03	0	4.873705e-04
1.060000e+09	1.848614e+12	0.000000e+00	4.070353e-01	4.616467e+13	3.747190e+14	2.300223e+14	8.264736e+03	3.877704e+03	1.715790e+03	0	4.860906e-04
1.070000e+09	1.834154e+12	0.000000e+00	4.070353e-01	4.587710e+13	3.722081e+14	2.290078e+14	8.258249e+03	3.874802e+03	1.714506e+03	0	4.848198e-04
1.080000e+09	1.819871e+12	0.000000e+00	4.070353e-01	4.559300e+13	3.697366e+14	2.280001e+14	8.251803e+03	3.871935e+03	1.713237e+03	0	4.835581e-04
1.090000e+09	1.805762e+12	0.000000e+00	4.070353e-01	4.531232e+13	3.673033e+14	2.269992e+14	8.245397e+03	3.869103e+03	1.711984e+03	0	4.823052e-04
1.100000e+09	1.791824e+12	0.000000e+00	4.070353e-01	4.503499e+13	3.649073e+14	2.260050e+14	8.239030e+03	3.866305e+03	1.710746e+03	0	4.810611e-04
1.110000e+09	1.778053e+12	0.000000e+00	4.070353e-01	4.476093e+13	3.625476e+14	2.250175e+14	8.232702e+03	3.863539e+03	1.709522e+03	0	4.798256e-04
1.120000e+09	1.764447e+12	0.000000e+00	4.070353e-01	4.449011e+13	3.602233e+14	2.240366e+14	8.226412e+03	3.860806e+03	1.708313e+03	0	4.785985e-04
1.130000e+09	1.751002e+12	0.000000e+00	4.070353e-01	4.422244e+13	3.579334e+14	2.230623e+14	8.220160e+03	3.858104e+03	1.707117e+03	0	4.773798e-04
1.140000e+09	1.737715e+12	0.000000e+00	4.070353e-01	4.395788e+13	3.556771e+14	2.220945e+14	8.213946e+03	3.855433e+03	1.705935e+03	0	4.761692e-04
1.150000e+09	1.724583e+12	0.000000e+00	4.070353e-01	4.369636e+13	3.534537e+14	2.211331e+14	8.207769e+03	3.852792e+03	1.704767e+03	0	4.749667e-04
1.160000e+09	1.711604e+12	0.000000e+00	4.070353e-01	4.343784e+13	3.512621e+14	2.201782e+14	8.201629e+03	3.850180e+03	1.703611e+03	0	4.737722e-04
1.170000e+09	1.698775e+12	0.000000e+00	4.070353e-01	4.318226e+13	3.491018e+14	2.192296e+14	8.195525e+03	3.847596e+03	1.702468e+03	0	4.725855e-04
1.180000e+09	1.686092e+12	0.000000e+00	4.070353e-01	4.292956e+13	3.469718e+14	2.182873e+14	8.189457e+03	3.845041e+03	1.701337e+03	0	4.714065e-04
1.190000e+09	1.673554e+12	0.000000e+00	4.070353e-01	4.267969e+13	3.448716e+14	2.173513e+14	8.183424e+03	3.842513e+03	1.700219e+03	0	4.702351e-04
1.200000e+09	1.661158e+12	0.000000e+00	4.070353e-01	4.243261e+13	3.428003e+14	2.164215e+14	8.177426e+03	3.840012e+03	1.699112e+03	0	4.690712e-04
1.210000e+09	1.648901e+12	0.000000e+00	4.070353e-01	4.218826e+13	3.407573e+14	2.154979e+14	8.171463e+03	3.837538e+03	1.698017e+03	0	4.679146e-04
1.220000e+09	1.636780e+12	0.000000e+00	4.070353e-01	4.194660e+13	3.387420e+14	2.145804e+14	8.165535e+03	3.835088e+03	1.696934e+03	0	4.667653e-04
1.230000e+09	1.624795e+12	0.000000e+00	4.070353e-01	4.170758e+13	3.367536e+14	2.136689e+14	8.159640e+03	3.832664e+03	1.695861e+03	0	4.656232e-04
1.240000e+09	1.612941e+12	0.000000e+00	4.070353e-01	4.147116e+13	3.347917e+14	2.127635e+14	8.153778e+03	3.830265e+03	1.694799e+03	0	4.644882e-04
1.250000e+09	1.601218e+12	0.000000e+00	4.070353e-01	4.123729e+13	3.328555e+14	2.118641e+14	8.147950e+03	3.827889e+03	1.693748e+03	0	4.633600e-04
1.260000e+09	1.589622e+12	0.000000e+00	4.070353e-01	4.100593e+13	3.309445e+14	2.109706e+14	8.142155e+03	3.825538e+03	1.692708e+03	0	4.622388e-04
1.270000e+09	1.578151e+12	0.000000e+00	4.070353e-01	4.077703e+13	3.290581e+14	2.100830e+14	8.136392e+03	3.823209e+03	1.691677e+03	0	4.611243e-04
1.280000e+09	1.566804e+12	0.000000e+00	4.070353e-01	4.055056e+13	3.271958e+14	2.092012e+14	8.130661e+03	3.820903e+03	1.690657e+03	0	4.600165e-04
1.290000e+09	1.555579e+12	0.000000e+00	4.070353e-01	4.032648e+13	3.253571e+14	2.083252e+14	8.124962e+03	3.818618e+03	1.689646e+03	0	4.589152e-04
1.300000e+09	1.544472e+12	0.000000e+00	4.070353e-01	4.010474e+13	3.235415e+14	2.074550e+14	8.119294e+03	3.816356e+03	1.688645e+03	0	4.578204e-04
1.310000e+09	1.533484e+12	0.000000e+00	4.070353e-01	3.988531e+13	3.217483e+14	2.065904e+14	8.113658e+03	3.814115e+03	1.687653e+03	0	4.567321e-04
1.320000e+09	1.522610e+12	0.000000e+00	4.070353e-01	3.966814e+13	3.199773e+14	2.057316e+14	8.108052e+03	3.811894e+03	1.686671e+03	0	4.556500e-04
1.330000e+09	1.511850e+12	0.000000e+00	4.070353e-01	3.945322e+13	3.182278e+14	2.048783e+14	8.102477e+03	3.809694e+03	1.685697e+03	0	4.545742e-04
1.340000e+09	1.501203e+12	0.000000e+00	4.070353e-01	3.924049e+13	3.164996e+14	2.040306e+14	8.096932e+03	3.807514e+03	1.684733e+03	0	4.535045e-04
1.350000e+09	1.490665e+12	0.000000e+00	4.070353e-01	3.902992e+13	3.147920e+14	2.031885e+14	8.091417e+03	3.805354e+03	1.683777e+03	0	4.524408e-04
1.360000e+09	1.480235e+12	0.000000e+00	4.070353e-01	3.882148e+13	3.131047e+14	2.023518e+14	8.085931e+03	3.803213e+03	1.682829e+03	0	4.513831e-04
