#t		Qconv[W]	Ri[Rp]		R*[Rp]		Qc[W]		Qm[W]		Qr[W]		Tcmb[K]		Tl[K]		Tup[K]		RiFlag		Bs[T]
0.000000e+00	1.430840e+13	0.000000e+00	4.020101e-01	2.572511e+14	4.279640e+15	5.159568e+14	1.148999e+04	6.500002e+03	2.549310e+03	0	9.573068e-04
1.000000e+07	1.396575e+13	0.000000e+00	4.020101e-01	2.516442e+14	3.992455e+15	5.130981e+14	1.146324e+04	6.420602e+03	2.518170e+03	0	9.496035e-04
2.000000e+07	1.363597e+13	0.000000e+00	4.020101e-01	2.462469e+14	3.738926e+15	5.102607e+14	1.143706e+04	6.347379e+03	2.489452e+03	0	9.420693e-04
3.000000e+07	1.331903e+13	0.000000e+00	4.020101e-01	2.410587e+14	3.513802e+15	5.074445e+14	1.141145e+04	6.279608e+03	2.462872e+03	0	9.347132e-04
4.000000e+07	1.301469e+13	0.000000e+00	4.020101e-01	2.360756e+14	3.312829e+15	5.046493e+14	1.138637e+04	6.216674e+03	2.438189e+03	0	9.275388e-04
5.000000e+07	1.272256e+13	0.000000e+00	4.020101e-01	2.312914e+14	3.132531e+15	5.018750e+14	1.136181e+04	6.158055e+03	2.415198e+03	0	9.205463e-04
6.000000e+07	1.244217e+13	0.000000e+00	4.020101e-01	2.266985e+14	2.970043e+15	4.991213e+14	1.133774e+04	6.103302e+03	2.393724e+03	0	9.137335e-04
7.000000e+07	1.217303e+13	0.000000e+00	4.020101e-01	2.222886e+14	2.822991e+15	4.963882e+14	1.131415e+04	6.052028e+03	2.373615e+03	0	9.070970e-04
8.000000e+07	1.191460e+13	0.000000e+00	4.020101e-01	2.180532e+14	2.689387e+15	4.936754e+14	1.129101e+04	6.003898e+03	2.354738e+03	0	9.006318e-04
9.000000e+07	1.166635e+13	0.000000e+00	4.020101e-01	2.139836e+14	2.567561e+15	4.909827e+14	1.126831e+04	5.958618e+03	2.336979e+03	0	8.943329e-04
1.000000e+08	1.142777e+13	0.000000e+00	4.020101e-01	2.100715e+14	2.456097e+15	4.883101e+14	1.124603e+04	5.915932e+03	2.320237e+03	0	8.881944e-04
1.100000e+08	1.119836e+13	0.000000e+00	4.020101e-01	2.063086e+14	2.353791e+15	4.856573e+14	1.122416e+04	5.875614e+03	2.304425e+03	0	8.822106e-04
1.200000e+08	1.097762e+13	0.000000e+00	4.020101e-01	2.026871e+14	2.259614e+15	4.830241e+14	1.120268e+04	5.837463e+03	2.289462e+03	0	8.763755e-04
1.300000e+08	1.076510e+13	0.000000e+00	4.020101e-01	1.991996e+14	2.172677e+15	4.804105e+14	1.118158e+04	5.801303e+03	2.275280e+03	0	8.706834e-04
1.400000e+08	1.056038e+13	0.000000e+00	4.020101e-01	1.958389e+14	2.092215e+15	4.778162e+14	1.116083e+04	5.766975e+03	2.261816e+03	0	8.651285e-04
1.500000e+08	1.036302e+13	0.000000e+00	4.020101e-01	1.925984e+14	2.017561e+15	4.752411e+14	1.114044e+04	5.734337e+03	2.249016e+03	0	8.597054e-04
1.600000e+08	1.017266e+13	0.000000e+00	4.020101e-01	1.894718e+14	1.948137e+15	4.726849e+14	1.112038e+04	5.703263e+03	2.236828e+03	0	8.544087e-04
1.700000e+08	9.988917e+12	0.000000e+00	4.020101e-01	1.864531e+14	1.883434e+15	4.701477e+14	1.110064e+04	5.673638e+03	2.225209e+03	0	8.492332e-04
1.800000e+08	9.811460e+12	0.000000e+00	4.020101e-01	1.835369e+14	1.823007e+15	4.676291e+14	1.108122e+04	5.645359e+03	2.214118e+03	0	8.441741e-04
1.900000e+08	9.639964e+12	0.000000e+00	4.020101e-01	1.807178e+14	1.766461e+15	4.651292e+14	1.106210e+04	5.618333e+03	2.203519e+03	0	8.392267e-04
2.000000e+08	9.474130e+12	0.000000e+00	4.020101e-01	1.779911e+14	1.713449e+15	4.626476e+14	1.104327e+04	5.592475e+03	2.193377e+03	0	8.343865e-04
2.100000e+08	9.313675e+12	0.000000e+00	4.020101e-01	1.753521e+14	1.663662e+15	4.601842e+14	1.102473e+04	5.567707e+03	2.183663e+03	0	8.296493e-04
2.200000e+08	9.158335e+12	0.000000e+00	4.020101e-01	1.727965e+14	1.616825e+15	4.577390e+14	1.100646e+04	5.543960e+03	2.174349e+03	0	8.250109e-04
2.300000e+08	9.007861e+12	0.000000e+00	4.020101e-01	1.703203e+14	1.572693e+15	4.553116e+14	1.098845e+04	5.521168e+03	2.165410e+03	0	8.204675e-04
2.400000e+08	8.862021e+12	0.000000e+00	4.020101e-01	1.679196e+14	1.531045e+15	4.529021e+14	1.097070e+04	5.499274e+03	2.156823e+03	0	8.160155e-04
2.500000e+08	8.720595e+12	0.000000e+00	4.020101e-01	1.655910e+14	1.491685e+15	4.505103e+14	1.095320e+04	5.478222e+03	2.148567e+03	0	8.116514e-04
2.600000e+08	8.583379e+12	0.000000e+00	4.020101e-01	1.633311e+14	1.454435e+15	4.481359e+14	1.093594e+04	5.457964e+03	2.140622e+03	0	8.073718e-04
2.700000e+08	8.450180e+12	0.000000e+00	4.020101e-01	1.611367e+14	1.419134e+15	4.457789e+14	1.091892e+04	5.438453e+03	2.132969e+03	0	8.031737e-04
2.800000e+08	8.320815e+12	0.000000e+00	4.020101e-01	1.590049e+14	1.385639e+15	4.434391e+14	1.090213e+04	5.419646e+03	2.125593e+03	0	7.990540e-04
2.900000e+08	8.195114e+12	0.000000e+00	4.020101e-01	1.569330e+14	1.353817e+15	4.411164e+14	1.088555e+04	5.401506e+03	2.118479e+03	0	7.950098e-04
3.000000e+08	8.072917e+12	0.000000e+00	4.020101e-01	1.549182e+14	1.323549e+15	4.388106e+14	1.086919e+04	5.383994e+03	2.111611e+03	0	7.910386e-04
3.100000e+08	7.954071e+12	0.000000e+00	4.020101e-01	1.529582e+14	1.294728e+15	4.365216e+14	1.085304e+04	5.367079e+03	2.104976e+03	0	7.871376e-04
3.200000e+08	7.838434e+12	0.000000e+00	4.020101e-01	1.510505e+14	1.267254e+15	4.342493e+14	1.083710e+04	5.350727e+03	2.098563e+03	0	7.833045e-04
3.300000e+08	7.725871e+12	0.000000e+00	4.020101e-01	1.491931e+14	1.241037e+15	4.319935e+14	1.082135e+04	5.334911e+03	2.092360e+03	0	7.795368e-04
3.400000e+08	7.616254e+12	0.000000e+00	4.020101e-01	1.473838e+14	1.215994e+15	4.297541e+14	1.080580e+04	5.319603e+03	2.086357e+03	0	7.758325e-04
3.500000e+08	7.509464e+12	0.000000e+00	4.020101e-01	1.456206e+14	1.192050e+15	4.275309e+14	1.079043e+04	5.304778e+03	2.080542e+03	0	7.721893e-04
3.600000e+08	7.405386e+12	0.000000e+00	4.020101e-01	1.439018e+14	1.169135e+15	4.253238e+14	1.077525e+04	5.290413e+03	2.074908e+03	0	7.686053e-04
3.700000e+08	7.303912e+12	0.000000e+00	4.020101e-01	1.422256e+14	1.147185e+15	4.231328e+14	1.076024e+04	5.276484e+03	2.069445e+03	0	7.650785e-04
3.800000e+08	7.204942e+12	0.000000e+00	4.020101e-01	1.405903e+14	1.126141e+15	4.209576e+14	1.074541e+04	5.262972e+03	2.064146e+03	0	7.616071e-04
3.900000e+08	7.108377e+12	0.000000e+00	4.020101e-01	1.389942e+14	1.105949e+15	4.187981e+14	1.073075e+04	5.249857e+03	2.059002e+03	0	7.581893e-04
4.000000e+08	7.014127e+12	0.000000e+00	4.020101e-01	1.374361e+14	1.086559e+15	4.166542e+14	1.071626e+04	5.237120e+03	2.054006e+03	0	7.548234e-04
4.100000e+08	6.922105e+12	0.000000e+00	4.020101e-01	1.359144e+14	1.067924e+15	4.145257e+14	1.070192e+04	5.224745e+03	2.049153e+03	0	7.515079e-04
4.200000e+08	6.832228e+12	0.000000e+00	4.020101e-01	1.344277e+14	1.050002e+15	4.124126e+14	1.068775e+04	5.212716e+03	2.044435e+03	0	7.482412e-04
4.300000e+08	6.744418e+12	0.000000e+00	4.020101e-01	1.329748e+14	1.032752e+15	4.103147e+14	1.067373e+04	5.201017e+03	2.039847e+03	0	7.450218e-04
4.400000e+08	6.658599e+12	0.000000e+00	4.020101e-01	1.315546e+14	1.016137e+15	4.082320e+14	1.065986e+04	5.189634e+03	2.035382e+03	0	7.418483e-04
4.500000e+08	6.574702e+12	0.000000e+00	4.020101e-01	1.301657e+14	1.000124e+15	4.061641e+14	1.064614e+04	5.178554e+03	2.031037e+03	0	7.387194e-04
4.600000e+08	6.492659e+12	0.000000e+00	4.020101e-01	1.288072e+14	9.846795e+14	4.041112e+14	1.063256e+04	5.167763e+03	2.026805e+03	0	7.356338e-04
4.700000e+08	6.412405e+12	0.000000e+00	4.020101e-01	1.274780e+14	9.697742e+14	4.020729e+14	1.061912e+04	5.157251e+03	2.022681e+03	0	7.325903e-04
4.800000e+08	6.333879e+12	0.000000e+00	4.020101e-01	1.261771e+14	9.553802e+14	4.000493e+14	1.060583e+04	5.147005e+03	2.018663e+03	0	7.295876e-04
4.900000e+08	6.257023e+12	0.000000e+00	4.020101e-01	1.249035e+14	9.414715e+14	3.980401e+14	1.059266e+04	5.137014e+03	2.014745e+03	0	7.266246e-04
5.000000e+08	6.181781e+12	0.000000e+00	4.020101e-01	1.236563e+14	9.280238e+14	3.960453e+14	1.057964e+04	5.127270e+03	2.010923e+03	0	7.237002e-04
5.100000e+08	6.108099e+12	0.000000e+00	4.020101e-01	1.224347e+14	9.150143e+14	3.940648e+14	1.056674e+04	5.117761e+03	2.007194e+03	0	7.208134e-04
5.200000e+08	6.035927e+12	0.000000e+00	4.020101e-01	1.212378e+14	9.024217e+14	3.920984e+14	1.055396e+04	5.108479e+03	2.003553e+03	0	7.179632e-04
5.300000e+08	5.965217e+12	0.000000e+00	4.020101e-01	1.200649e+14	8.902260e+14	3.901460e+14	1.054131e+04	5.099415e+03	1.999998e+03	0	7.151485e-04
5.400000e+08	5.895921e+12	0.000000e+00	4.020101e-01	1.189151e+14	8.784085e+14	3.882075e+14	1.052879e+04	5.090561e+03	1.996526e+03	0	7.123685e-04
5.500000e+08	5.827996e+12	0.000000e+00	4.020101e-01	1.177878e+14	8.669516e+14	3.862828e+14	1.051638e+04	5.081909e+03	1.993132e+03	0	7.096223e-04
5.600000e+08	5.761398e+12	0.000000e+00	4.020101e-01	1.166822e+14	8.558386e+14	3.843718e+14	1.050409e+04	5.073452e+03	1.989815e+03	0	7.069089e-04
5.700000e+08	5.696088e+12	0.000000e+00	4.020101e-01	1.155977e+14	8.450541e+14	3.824744e+14	1.049192e+04	5.065181e+03	1.986572e+03	0	7.042276e-04
5.800000e+08	5.632025e+12	0.000000e+00	4.020101e-01	1.145337e+14	8.345833e+14	3.805904e+14	1.047985e+04	5.057092e+03	1.983399e+03	0	7.015776e-04
5.900000e+08	5.569173e+12	0.000000e+00	4.020101e-01	1.134895e+14	8.244124e+14	3.787198e+14	1.046790e+04	5.049177e+03	1.980295e+03	0	6.989580e-04
6.000000e+08	5.507496e+12	0.000000e+00	4.020101e-01	1.124646e+14	8.145284e+14	3.768624e+14	1.045606e+04	5.041429e+03	1.977256e+03	0	6.963681e-04
6.100000e+08	5.446959e+12	0.000000e+00	4.020101e-01	1.114584e+14	8.049189e+14	3.750182e+14	1.044433e+04	5.033845e+03	1.974281e+03	0	6.938073e-04
6.200000e+08	5.387529e+12	0.000000e+00	4.020101e-01	1.104703e+14	7.955724e+14	3.731870e+14	1.043270e+04	5.026416e+03	1.971368e+03	0	6.912748e-04
6.300000e+08	5.329174e+12	0.000000e+00	4.020101e-01	1.094999e+14	7.864778e+14	3.713687e+14	1.042117e+04	5.019139e+03	1.968514e+03	0	6.887699e-04
6.400000e+08	5.271865e+12	0.000000e+00	4.020101e-01	1.085466e+14	7.776247e+14	3.695633e+14	1.040974e+04	5.012008e+03	1.965717e+03	0	6.862920e-04
6.500000e+08	5.215571e+12	0.000000e+00	4.020101e-01	1.076100e+14	7.690033e+14	3.677706e+14	1.039841e+04	5.005018e+03	1.962976e+03	0	6.838404e-04
6.600000e+08	5.160264e+12	0.000000e+00	4.020101e-01	1.066896e+14	7.606042e+14	3.659904e+14	1.038718e+04	4.998165e+03	1.960288e+03	0	6.814147e-04
6.700000e+08	5.105918e+12	0.000000e+00	4.020101e-01	1.057849e+14	7.524187e+14	3.642228e+14	1.037605e+04	4.991445e+03	1.957652e+03	0	6.790141e-04
6.800000e+08	5.052505e+12	0.000000e+00	4.020101e-01	1.048956e+14	7.444384e+14	3.624676e+14	1.036501e+04	4.984852e+03	1.955066e+03	0	6.766381e-04
6.900000e+08	5.000002e+12	0.000000e+00	4.020101e-01	1.040212e+14	7.366552e+14	3.607248e+14	1.035406e+04	4.978382e+03	1.952529e+03	0	6.742861e-04
7.000000e+08	4.948384e+12	0.000000e+00	4.020101e-01	1.031613e+14	7.290616e+14	3.589941e+14	1.034320e+04	4.972033e+03	1.950039e+03	0	6.719577e-04
7.100000e+08	4.897627e+12	0.000000e+00	4.020101e-01	1.023156e+14	7.216505e+14	3.572756e+14	1.033243e+04	4.965800e+03	1.947594e+03	0	6.696523e-04
7.200000e+08	4.847709e+12	0.000000e+00	4.020101e-01	1.014837e+14	7.144150e+14	3.555691e+14	1.032176e+04	4.959679e+03	1.945194e+03	0	6.673695e-04
7.300000e+08	4.798608e+12	0.000000e+00	4.020101e-01	1.006652e+14	7.073487e+14	3.538745e+14	1.031116e+04	4.953667e+03	1.942836e+03	0	6.651086e-04
7.400000e+08	4.750304e+12	0.000000e+00	4.020101e-01	9.985971e+13	7.004453e+14	3.521917e+14	1.030066e+04	4.947761e+03	1.940519e+03	0	6.628694e-04
7.500000e+08	4.702776e+12	0.000000e+00	4.020101e-01	9.906703e+13	6.936990e+14	3.505206e+14	1.029023e+04	4.941958e+03	1.938243e+03	0	6.606512e-04
7.600000e+08	4.656005e+12	0.000000e+00	4.020101e-01	9.828678e+13	6.871041e+14	3.488613e+14	1.027989e+04	4.936253e+03	1.936006e+03	0	6.584538e-04
7.700000e+08	4.609972e+12	0.000000e+00	4.020101e-01	9.751867e+13	6.806553e+14	3.472134e+14	1.026963e+04	4.930646e+03	1.933807e+03	0	6.562766e-04
7.800000e+08	4.564658e+12	0.000000e+00	4.020101e-01	9.676238e+13	6.743476e+14	3.455770e+14	1.025945e+04	4.925132e+03	1.931644e+03	0	6.541192e-04
7.900000e+08	4.520047e+12	0.000000e+00	4.020101e-01	9.601764e+13	6.681760e+14	3.439520e+14	1.024935e+04	4.919709e+03	1.929517e+03	0	6.519813e-04
8.000000e+08	4.476122e+12	0.000000e+00	4.020101e-01	9.528417e+13	6.621358e+14	3.423382e+14	1.023933e+04	4.914374e+03	1.927425e+03	0	6.498625e-04
8.100000e+08	4.432865e+12	0.000000e+00	4.020101e-01	9.456170e+13	6.562228e+14	3.407356e+14	1.022938e+04	4.909126e+03	1.925366e+03	0	6.477623e-04
8.200000e+08	4.390262e+12	0.000000e+00	4.020101e-01	9.384997e+13	6.504325e+14	3.391441e+14	1.021951e+04	4.903960e+03	1.923341e+03	0	6.456804e-04
8.300000e+08	4.348296e+12	0.000000e+00	4.020101e-01	9.314872e+13	6.447611e+14	3.375636e+14	1.020971e+04	4.898876e+03	1.921346e+03	0	6.436165e-04
8.400000e+08	4.306953e+12	0.000000e+00	4.020101e-01	9.245773e+13	6.392045e+14	3.359941e+14	1.019999e+04	4.893870e+03	1.919383e+03	0	6.415702e-04
8.500000e+08	4.266218e+12	0.000000e+00	4.020101e-01	9.177675e+13	6.337590e+14	3.344353e+14	1.019033e+04	4.888941e+03	1.917450e+03	0	6.395412e-04
8.600000e+08	4.226079e+12	0.000000e+00	4.020101e-01	9.110555e+13	6.284212e+14	3.328873e+14	1.018075e+04	4.884087e+03	1.915546e+03	0	6.375291e-04
8.700000e+08	4.186520e+12	0.000000e+00	4.020101e-01	9.044392e+13	6.231875e+14	3.313500e+14	1.017124e+04	4.879305e+03	1.913671e+03	0	6.355337e-04
8.800000e+08	4.147529e+12	0.000000e+00	4.020101e-01	8.979164e+13	6.180549e+14	3.298232e+14	1.016180e+04	4.874594e+03	1.911823e+03	0	6.335545e-04
8.900000e+08	4.109094e+12	0.000000e+00	4.020101e-01	8.914850e+13	6.130200e+14	3.283070e+14	1.015242e+04	4.869951e+03	1.910002e+03	0	6.315914e-04
9.000000e+08	4.071203e+12	0.000000e+00	4.020101e-01	8.851431e+13	6.080799e+14	3.268011e+14	1.014311e+04	4.865375e+03	1.908207e+03	0	6.296440e-04
9.100000e+08	4.033842e+12	0.000000e+00	4.020101e-01	8.788887e+13	6.032318e+14	3.253056e+14	1.013387e+04	4.860865e+03	1.906438e+03	0	6.277120e-04
9.200000e+08	3.997001e+12	0.000000e+00	4.020101e-01	8.727198e+13	5.984728e+14	3.238203e+14	1.012469e+04	4.856417e+03	1.904694e+03	0	6.257952e-04
9.300000e+08	3.960669e+12	0.000000e+00	4.020101e-01	8.666347e+13	5.938004e+14	3.223451e+14	1.011558e+04	4.852032e+03	1.902974e+03	0	6.238933e-04
9.400000e+08	3.924835e+12	0.000000e+00	4.020101e-01	8.606317e+13	5.892119e+14	3.208800e+14	1.010653e+04	4.847707e+03	1.901278e+03	0	6.220061e-04
9.500000e+08	3.889488e+12	0.000000e+00	4.020101e-01	8.547089e+13	5.847050e+14	3.194250e+14	1.009755e+04	4.843440e+03	1.899605e+03	0	6.201332e-04
9.600000e+08	3.854617e+12	0.000000e+00	4.020101e-01	8.488646e+13	5.802772e+14	3.179798e+14	1.008862e+04	4.839231e+03	1.897954e+03	0	6.182744e-04
9.700000e+08	3.820214e+12	0.000000e+00	4.020101e-01	8.430974e+13	5.759264e+14	3.165446e+14	1.007976e+04	4.835078e+03	1.896325e+03	0	6.164295e-04
9.800000e+08	3.786268e+12	0.000000e+00	4.020101e-01	8.374055e+13	5.716503e+14	3.151190e+14	1.007095e+04	4.830979e+03	1.894717e+03	0	6.145982e-04
9.900000e+08	3.752770e+12	0.000000e+00	4.020101e-01	8.317875e+13	5.674468e+14	3.137032e+14	1.006221e+04	4.826933e+03	1.893131e+03	0	6.127804e-04
1.000000e+09	3.719712e+12	0.000000e+00	4.020101e-01	8.262419e+13	5.633139e+14	3.122969e+14	1.005352e+04	4.822939e+03	1.891564e+03	0	6.109757e-04
1.010000e+09	3.687083e+12	0.000000e+00	4.020101e-01	8.207672e+13	5.592498e+14	3.109003e+14	1.004489e+04	4.818996e+03	1.890018e+03	0	6.091840e-04
1.020000e+09	3.654875e+12	0.000000e+00	4.020101e-01	8.153619e+13	5.552524e+14	3.095130e+14	1.003632e+04	4.815102e+03	1.888490e+03	0	6.074050e-04
1.030000e+09	3.623081e+12	0.000000e+00	4.020101e-01	8.100248e+13	5.513201e+14	3.081352e+14	1.002781e+04	4.811256e+03	1.886982e+03	0	6.056386e-04
1.040000e+09	3.591692e+12	0.000000e+00	4.020101e-01	8.047545e+13	5.474511e+14	3.067666e+14	1.001935e+04	4.807458e+03	1.885492e+03	0	6.038844e-04
1.050000e+09	3.560699e+12	0.000000e+00	4.020101e-01	7.995497e+13	5.436436e+14	3.054074e+14	1.001094e+04	4.803705e+03	1.884020e+03	0	6.021425e-04
1.060000e+09	3.530096e+12	0.000000e+00	4.020101e-01	7.944091e+13	5.398962e+14	3.040572e+14	1.000259e+04	4.799997e+03	1.882566e+03	0	6.004124e-04
1.070000e+09	3.499875e+12	0.000000e+00	4.020101e-01	7.893316e+13	5.362072e+14	3.027162e+14	9.994298e+03	4.796333e+03	1.881129e+03	0	5.986941e-04
1.080000e+09	3.470028e+12	0.000000e+00	4.020101e-01	7.843158e+13	5.325751e+14	3.013842e+14	9.986054e+03	4.792712e+03	1.879709e+03	0	5.969874e-04
1.090000e+09	3.440549e+12	0.000000e+00	4.020101e-01	7.793607e+13	5.289986e+14	3.000612e+14	9.977863e+03	4.789133e+03	1.878305e+03	0	5.952920e-04
1.100000e+09	3.411430e+12	0.000000e+00	4.020101e-01	7.744651e+13	5.254761e+14	2.987470e+14	9.969723e+03	4.785594e+03	1.876917e+03	0	5.936079e-04
1.110000e+09	3.382665e+12	0.000000e+00	4.020101e-01	7.696279e+13	5.220063e+14	2.974416e+14	9.961634e+03	4.782096e+03	1.875545e+03	0	5.919347e-04
1.120000e+09	3.354247e+12	0.000000e+00	4.020101e-01	7.648481e+13	5.185880e+14	2.961450e+14	9.953596e+03	4.778637e+03	1.874189e+03	0	5.902724e-04
1.130000e+09	3.326169e+12	0.000000e+00	4.020101e-01	7.601245e+13	5.152198e+14	2.948571e+14	9.945608e+03	4.775217e+03	1.872847e+03	0	5.886208e-04
1.140000e+09	3.298427e+12	0.000000e+00	4.020101e-01	7.554561e+13	5.119006e+14	2.935778e+14	9.937669e+03	4.771833e+03	1.871520e+03	0	5.869797e-04
1.150000e+09	3.271012e+12	0.000000e+00	4.020101e-01	7.508420e+13	5.086292e+14	2.923070e+14	9.929778e+03	4.768487e+03	1.870208e+03	0	5.853490e-04
1.160000e+09	3.243921e+12	0.000000e+00	4.020101e-01	7.462812e+13	5.054043e+14	2.910447e+14	9.921936e+03	4.765176e+03	1.868909e+03	0	5.837285e-04
1.170000e+09	3.217145e+12	0.000000e+00	4.020101e-01	7.417728e+13	5.022250e+14	2.897908e+14	9.914141e+03	4.761901e+03	1.867625e+03	0	5.821180e-04
1.180000e+09	3.190681e+12	0.000000e+00	4.020101e-01	7.373157e+13	4.990902e+14	2.885453e+14	9.906393e+03	4.758660e+03	1.866354e+03	0	5.805175e-04
1.190000e+09	3.164523e+12	0.000000e+00	4.020101e-01	7.329091e+13	4.959988e+14	2.873080e+14	9.898691e+03	4.755452e+03	1.865096e+03	0	5.789267e-04
1.200000e+09	3.138665e+12	0.000000e+00	4.020101e-01	7.285522e+13	4.929498e+14	2.860789e+14	9.891036e+03	4.752278e+03	1.863851e+03	0	5.773455e-04
1.210000e+09	3.113101e+12	0.000000e+00	4.020101e-01	7.242441e+13	4.899422e+14	2.848580e+14	9.883426e+03	4.749136e+03	1.862618e+03	0	5.757738e-04
1.220000e+09	3.087828e+12	0.000000e+00	4.020101e-01	7.199838e+13	4.869752e+14	2.836452e+14	9.875861e+03	4.746025e+03	1.861398e+03	0	5.742115e-04
1.230000e+09	3.062839e+12	0.000000e+00	4.020101e-01	7.157707e+13	4.840477e+14	2.824404e+14	9.868340e+03	4.742945e+03	1.860190e+03	0	5.726583e-04
1.240000e+09	3.038131e+12	0.000000e+00	4.020101e-01	7.116039e+13	4.811590e+14	2.812436e+14	9.860863e+03	4.739896e+03	1.858994e+03	0	5.711142e-04
1.250000e+09	3.013698e+12	0.000000e+00	4.020101e-01	7.074826e+13	4.783081e+14	2.800547e+14	9.853430e+03	4.736877e+03	1.857810e+03	0	5.695791e-04
1.260000e+09	2.989535e+12	0.000000e+00	4.020101e-01	7.034061e+13	4.754943e+14	2.788736e+14	9.846039e+03	4.733886e+03	1.856637e+03	0	5.680528e-04
1.270000e+09	2.965638e+12	0.000000e+00	4.020101e-01	6.993736e+13	4.727167e+14	2.777003e+14	9.838691e+03	4.730925e+03	1.855476e+03	0	5.665352e-04
1.280000e+09	2.942003e+12	0.000000e+00	4.020101e-01	6.953844e+13	4.699746e+14	2.765347e+14	9.831386e+03	4.727991e+03	1.854325e+03	0	5.650261e-04
1.290000e+09	2.918625e+12	0.000000e+00	4.020101e-01	6.914377e+13	4.672671e+14	2.753767e+14	9.824121e+03	4.725085e+03	1.853185e+03	0	5.635255e-04
1.300000e+09	2.895501e+12	0.000000e+00	4.020101e-01	6.875330e+13	4.645936e+14	2.742264e+14	9.816898e+03	4.722205e+03	1.852056e+03	0	5.620333e-04
1.310000e+09	2.872625e+12	0.000000e+00	4.020101e-01	6.836694e+13	4.619534e+14	2.730836e+14	9.809716e+03	4.719352e+03	1.850937e+03	0	5.605493e-04
1.320000e+09	2.849994e+12	0.000000e+00	4.020101e-01	6.798464e+13	4.593458e+14	2.719483e+14	9.802574e+03	4.716526e+03	1.849828e+03	0	5.590734e-04
1.330000e+09	2.827604e+12	0.000000e+00	4.020101e-01	6.760633e+13	4.567700e+14	2.708204e+14	9.795471e+03	4.713724e+03	1.848730e+03	0	5.576054e-04
1.340000e+09	2.805451e+12	0.000000e+00	4.020101e-01	6.723195e+13	4.542254e+14	2.696999e+14	9.788409e+03	4.710948e+03	1.847641e+03	0	5.561454e-04
1.350000e+09	2.783531e+12	0.000000e+00	4.020101e-01	6.686142e+13	4.517115e+14	2.685867e+14	9.781385e+03	4.708196e+03	1.846561e+03	0	5.546932e-04
1.360000e+09	2.761841e+12	0.000000e+00	4.020101e-01	6.649470e+13	4.492276e+14	2.674808e+14	9.774400e+03	4.705468e+03	1.845492e+03	0	5.532487e-04
