#t		Qconv[W]	Ri[Rp]		R*[Rp]		Qc[W]		Qm[W]		Qr[W]		Tcmb[K]		Tl[K]		Tup[K]		RiFlag		Bs[T]
0.000000e+00	3.766589e+13	0.000000e+00	3.969848e-01	5.496845e+14	4.648908e+15	7.820907e+14	1.571544e+04	8.592620e+03	2.748373e+03	0	1.312475e-03
1.000000e+07	3.691188e+13	0.000000e+00	3.969848e-01	5.401733e+14	4.466739e+15	7.777574e+14	1.568006e+04	8.538185e+03	2.730962e+03	0	1.303658e-03
2.000000e+07	3.618257e+13	0.000000e+00	3.969848e-01	5.309708e+14	4.298067e+15	7.734564e+14	1.564529e+04	8.486475e+03	2.714423e+03	0	1.295015e-03
3.000000e+07	3.547696e+13	0.000000e+00	3.969848e-01	5.220644e+14	4.141515e+15	7.691876e+14	1.561110e+04	8.437279e+03	2.698687e+03	0	1.286542e-03
4.000000e+07	3.479408e+13	0.000000e+00	3.969848e-01	5.134421e+14	3.995877e+15	7.649507e+14	1.557749e+04	8.390409e+03	2.683696e+03	0	1.278233e-03
5.000000e+07	3.413296e+13	0.000000e+00	3.969848e-01	5.050918e+14	3.860100e+15	7.607454e+14	1.554443e+04	8.345696e+03	2.669394e+03	0	1.270086e-03
6.000000e+07	3.349268e+13	0.000000e+00	3.969848e-01	4.970020e+14	3.733256e+15	7.565714e+14	1.551190e+04	8.302985e+03	2.655733e+03	0	1.262094e-03
7.000000e+07	3.287236e+13	0.000000e+00	3.969848e-01	4.891617e+14	3.614529e+15	7.524285e+14	1.547989e+04	8.262138e+03	2.642668e+03	0	1.254254e-03
8.000000e+07	3.227114e+13	0.000000e+00	3.969848e-01	4.815602e+14	3.503192e+15	7.483164e+14	1.544839e+04	8.223029e+03	2.630159e+03	0	1.246560e-03
9.000000e+07	3.168819e+13	0.000000e+00	3.969848e-01	4.741873e+14	3.398603e+15	7.442349e+14	1.541737e+04	8.185543e+03	2.618169e+03	0	1.239008e-03
1.000000e+08	3.112275e+13	0.000000e+00	3.969848e-01	4.670332e+14	3.300190e+15	7.401836e+14	1.538682e+04	8.149577e+03	2.606665e+03	0	1.231594e-03
1.100000e+08	3.057406e+13	0.000000e+00	3.969848e-01	4.600889e+14	3.207439e+15	7.361625e+14	1.535674e+04	8.115033e+03	2.595616e+03	0	1.224314e-03
1.200000e+08	3.004143e+13	0.000000e+00	3.969848e-01	4.533453e+14	3.119894e+15	7.321711e+14	1.532709e+04	8.081825e+03	2.584994e+03	0	1.217163e-03
1.300000e+08	2.952416e+13	0.000000e+00	3.969848e-01	4.467941e+14	3.037141e+15	7.282094e+14	1.529789e+04	8.049872e+03	2.574774e+03	0	1.210136e-03
1.400000e+08	2.902164e+13	0.000000e+00	3.969848e-01	4.404273e+14	2.958810e+15	7.242769e+14	1.526910e+04	8.019100e+03	2.564932e+03	0	1.203231e-03
1.500000e+08	2.853324e+13	0.000000e+00	3.969848e-01	4.342373e+14	2.884568e+15	7.203735e+14	1.524072e+04	7.989442e+03	2.555445e+03	0	1.196443e-03
1.600000e+08	2.805838e+13	0.000000e+00	3.969848e-01	4.282170e+14	2.814110e+15	7.164989e+14	1.521273e+04	7.960833e+03	2.546295e+03	0	1.189769e-03
1.700000e+08	2.759653e+13	0.000000e+00	3.969848e-01	4.223595e+14	2.747164e+15	7.126529e+14	1.518514e+04	7.933217e+03	2.537461e+03	0	1.183205e-03
1.800000e+08	2.714715e+13	0.000000e+00	3.969848e-01	4.166582e+14	2.683479e+15	7.088353e+14	1.515792e+04	7.906538e+03	2.528928e+03	0	1.176747e-03
1.900000e+08	2.670975e+13	0.000000e+00	3.969848e-01	4.111070e+14	2.622829e+15	7.050458e+14	1.513106e+04	7.880748e+03	2.520679e+03	0	1.170393e-03
2.000000e+08	2.628387e+13	0.000000e+00	3.969848e-01	4.057000e+14	2.565008e+15	7.012842e+14	1.510456e+04	7.855799e+03	2.512699e+03	0	1.164139e-03
2.100000e+08	2.586905e+13	0.000000e+00	3.969848e-01	4.004316e+14	2.509826e+15	6.975502e+14	1.507841e+04	7.831649e+03	2.504975e+03	0	1.157982e-03
2.200000e+08	2.546486e+13	0.000000e+00	3.969848e-01	3.952966e+14	2.457111e+15	6.938437e+14	1.505260e+04	7.808256e+03	2.497492e+03	0	1.151920e-03
2.300000e+08	2.507091e+13	0.000000e+00	3.969848e-01	3.902899e+14	2.406704e+15	6.901644e+14	1.502711e+04	7.785585e+03	2.490241e+03	0	1.145949e-03
2.400000e+08	2.468681e+13	0.000000e+00	3.969848e-01	3.854066e+14	2.358460e+15	6.865120e+14	1.500195e+04	7.763599e+03	2.483209e+03	0	1.140066e-03
2.500000e+08	2.431219e+13	0.000000e+00	3.969848e-01	3.806423e+14	2.312244e+15	6.828864e+14	1.497710e+04	7.742266e+03	2.476385e+03	0	1.134270e-03
2.600000e+08	2.394671e+13	0.000000e+00	3.969848e-01	3.759925e+14	2.267933e+15	6.792873e+14	1.495256e+04	7.721555e+03	2.469761e+03	0	1.128557e-03
2.700000e+08	2.359002e+13	0.000000e+00	3.969848e-01	3.714531e+14	2.225414e+15	6.757146e+14	1.492832e+04	7.701437e+03	2.463326e+03	0	1.122926e-03
2.800000e+08	2.324182e+13	0.000000e+00	3.969848e-01	3.670202e+14	2.184581e+15	6.721679e+14	1.490436e+04	7.681885e+03	2.457072e+03	0	1.117374e-03
2.900000e+08	2.290181e+13	0.000000e+00	3.969848e-01	3.626900e+14	2.145338e+15	6.686471e+14	1.488070e+04	7.662874e+03	2.450992e+03	0	1.111898e-03
3.000000e+08	2.256969e+13	0.000000e+00	3.969848e-01	3.584589e+14	2.107594e+15	6.651520e+14	1.485731e+04	7.644380e+03	2.445076e+03	0	1.106497e-03
3.100000e+08	2.224519e+13	0.000000e+00	3.969848e-01	3.543235e+14	2.071265e+15	6.616823e+14	1.483419e+04	7.626381e+03	2.439319e+03	0	1.101169e-03
3.200000e+08	2.192806e+13	0.000000e+00	3.969848e-01	3.502805e+14	2.036274e+15	6.582379e+14	1.481134e+04	7.608855e+03	2.433713e+03	0	1.095911e-03
3.300000e+08	2.161803e+13	0.000000e+00	3.969848e-01	3.463268e+14	2.002549e+15	6.548186e+14	1.478875e+04	7.591782e+03	2.428253e+03	0	1.090721e-03
3.400000e+08	2.131488e+13	0.000000e+00	3.969848e-01	3.424594e+14	1.970022e+15	6.514240e+14	1.476641e+04	7.575144e+03	2.422931e+03	0	1.085599e-03
3.500000e+08	2.101837e+13	0.000000e+00	3.969848e-01	3.386755e+14	1.938632e+15	6.480541e+14	1.474432e+04	7.558922e+03	2.417742e+03	0	1.080541e-03
3.600000e+08	2.072829e+13	0.000000e+00	3.969848e-01	3.349723e+14	1.908319e+15	6.447087e+14	1.472247e+04	7.543100e+03	2.412682e+03	0	1.075547e-03
3.700000e+08	2.044442e+13	0.000000e+00	3.969848e-01	3.313473e+14	1.879029e+15	6.413874e+14	1.470087e+04	7.527662e+03	2.407744e+03	0	1.070615e-03
3.800000e+08	2.016657e+13	0.000000e+00	3.969848e-01	3.277979e+14	1.850711e+15	6.380902e+14	1.467949e+04	7.512593e+03	2.402924e+03	0	1.065743e-03
3.900000e+08	1.989455e+13	0.000000e+00	3.969848e-01	3.243217e+14	1.823317e+15	6.348168e+14	1.465835e+04	7.497879e+03	2.398217e+03	0	1.060929e-03
4.000000e+08	1.962816e+13	0.000000e+00	3.969848e-01	3.209165e+14	1.796803e+15	6.315671e+14	1.463742e+04	7.483505e+03	2.393620e+03	0	1.056173e-03
4.100000e+08	1.936725e+13	0.000000e+00	3.969848e-01	3.175801e+14	1.771126e+15	6.283408e+14	1.461672e+04	7.469459e+03	2.389127e+03	0	1.051472e-03
4.200000e+08	1.911163e+13	0.000000e+00	3.969848e-01	3.143103e+14	1.746247e+15	6.251377e+14	1.459623e+04	7.455729e+03	2.384736e+03	0	1.046826e-03
4.300000e+08	1.886115e+13	0.000000e+00	3.969848e-01	3.111051e+14	1.722130e+15	6.219578e+14	1.457595e+04	7.442304e+03	2.380441e+03	0	1.042232e-03
4.400000e+08	1.861565e+13	0.000000e+00	3.969848e-01	3.079627e+14	1.698739e+15	6.188007e+14	1.455588e+04	7.429171e+03	2.376241e+03	0	1.037690e-03
4.500000e+08	1.837499e+13	0.000000e+00	3.969848e-01	3.048810e+14	1.676041e+15	6.156662e+14	1.453601e+04	7.416321e+03	2.372131e+03	0	1.033199e-03
4.600000e+08	1.813901e+13	0.000000e+00	3.969848e-01	3.018585e+14	1.654007e+15	6.125543e+14	1.451633e+04	7.403743e+03	2.368108e+03	0	1.028757e-03
4.700000e+08	1.790759e+13	0.000000e+00	3.969848e-01	2.988932e+14	1.632606e+15	6.094647e+14	1.449685e+04	7.391428e+03	2.364169e+03	0	1.024364e-03
4.800000e+08	1.768060e+13	0.000000e+00	3.969848e-01	2.959837e+14	1.611811e+15	6.063973e+14	1.447757e+04	7.379367e+03	2.360311e+03	0	1.020017e-03
4.900000e+08	1.745789e+13	0.000000e+00	3.969848e-01	2.931282e+14	1.591597e+15	6.033518e+14	1.445847e+04	7.367552e+03	2.356532e+03	0	1.015716e-03
5.000000e+08	1.723936e+13	0.000000e+00	3.969848e-01	2.903254e+14	1.571939e+15	6.003281e+14	1.443955e+04	7.355973e+03	2.352828e+03	0	1.011460e-03
5.100000e+08	1.702489e+13	0.000000e+00	3.969848e-01	2.875736e+14	1.552814e+15	5.973259e+14	1.442081e+04	7.344623e+03	2.349198e+03	0	1.007248e-03
5.200000e+08	1.681436e+13	0.000000e+00	3.969848e-01	2.848715e+14	1.534200e+15	5.943453e+14	1.440225e+04	7.333494e+03	2.345639e+03	0	1.003079e-03
5.300000e+08	1.660766e+13	0.000000e+00	3.969848e-01	2.822178e+14	1.516076e+15	5.913858e+14	1.438387e+04	7.322580e+03	2.342148e+03	0	9.989519e-04
5.400000e+08	1.640469e+13	0.000000e+00	3.969848e-01	2.796111e+14	1.498423e+15	5.884475e+14	1.436565e+04	7.311873e+03	2.338723e+03	0	9.948657e-04
5.500000e+08	1.620536e+13	0.000000e+00	3.969848e-01	2.770502e+14	1.481222e+15	5.855300e+14	1.434761e+04	7.301366e+03	2.335362e+03	0	9.908196e-04
5.600000e+08	1.600955e+13	0.000000e+00	3.969848e-01	2.745338e+14	1.464455e+15	5.826333e+14	1.432972e+04	7.291053e+03	2.332064e+03	0	9.868128e-04
5.700000e+08	1.581718e+13	0.000000e+00	3.969848e-01	2.720608e+14	1.448107e+15	5.797572e+14	1.431200e+04	7.280929e+03	2.328825e+03	0	9.828444e-04
5.800000e+08	1.562816e+13	0.000000e+00	3.969848e-01	2.696300e+14	1.432160e+15	5.769015e+14	1.429444e+04	7.270986e+03	2.325645e+03	0	9.789136e-04
5.900000e+08	1.544240e+13	0.000000e+00	3.969848e-01	2.672403e+14	1.416599e+15	5.740660e+14	1.427704e+04	7.261221e+03	2.322522e+03	0	9.750197e-04
6.000000e+08	1.525982e+13	0.000000e+00	3.969848e-01	2.648908e+14	1.401411e+15	5.712505e+14	1.425979e+04	7.251626e+03	2.319453e+03	0	9.711617e-04
6.100000e+08	1.508033e+13	0.000000e+00	3.969848e-01	2.625803e+14	1.386582e+15	5.684551e+14	1.424269e+04	7.242198e+03	2.316437e+03	0	9.673390e-04
6.200000e+08	1.490386e+13	0.000000e+00	3.969848e-01	2.603080e+14	1.372098e+15	5.656793e+14	1.422574e+04	7.232931e+03	2.313473e+03	0	9.635510e-04
6.300000e+08	1.473033e+13	0.000000e+00	3.969848e-01	2.580727e+14	1.357948e+15	5.629232e+14	1.420893e+04	7.223821e+03	2.310559e+03	0	9.597967e-04
6.400000e+08	1.455967e+13	0.000000e+00	3.969848e-01	2.558737e+14	1.344118e+15	5.601864e+14	1.419227e+04	7.214862e+03	2.307694e+03	0	9.560756e-04
6.500000e+08	1.439180e+13	0.000000e+00	3.969848e-01	2.537101e+14	1.330599e+15	5.574690e+14	1.417575e+04	7.206051e+03	2.304875e+03	0	9.523871e-04
6.600000e+08	1.422667e+13	0.000000e+00	3.969848e-01	2.515809e+14	1.317380e+15	5.547707e+14	1.415937e+04	7.197383e+03	2.302103e+03	0	9.487304e-04
6.700000e+08	1.406419e+13	0.000000e+00	3.969848e-01	2.494853e+14	1.304449e+15	5.520913e+14	1.414313e+04	7.188855e+03	2.299375e+03	0	9.451049e-04
6.800000e+08	1.390432e+13	0.000000e+00	3.969848e-01	2.474226e+14	1.291797e+15	5.494308e+14	1.412702e+04	7.180462e+03	2.296691e+03	0	9.415101e-04
6.900000e+08	1.374698e+13	0.000000e+00	3.969848e-01	2.453920e+14	1.279416e+15	5.467890e+14	1.411105e+04	7.172200e+03	2.294048e+03	0	9.379452e-04
7.000000e+08	1.359211e+13	0.000000e+00	3.969848e-01	2.433927e+14	1.267295e+15	5.441656e+14	1.409520e+04	7.164066e+03	2.291446e+03	0	9.344098e-04
7.100000e+08	1.343967e+13	0.000000e+00	3.969848e-01	2.414239e+14	1.255427e+15	5.415606e+14	1.407949e+04	7.156057e+03	2.288885e+03	0	9.309033e-04
7.200000e+08	1.328958e+13	0.000000e+00	3.969848e-01	2.394851e+14	1.243803e+15	5.389739e+14	1.406390e+04	7.148169e+03	2.286362e+03	0	9.274251e-04
7.300000e+08	1.314181e+13	0.000000e+00	3.969848e-01	2.375754e+14	1.232416e+15	5.364052e+14	1.404843e+04	7.140398e+03	2.283876e+03	0	9.239747e-04
7.400000e+08	1.299628e+13	0.000000e+00	3.969848e-01	2.356943e+14	1.221257e+15	5.338545e+14	1.403309e+04	7.132743e+03	2.281428e+03	0	9.205516e-04
7.500000e+08	1.285296e+13	0.000000e+00	3.969848e-01	2.338410e+14	1.210320e+15	5.313215e+14	1.401787e+04	7.125199e+03	2.279015e+03	0	9.171552e-04
7.600000e+08	1.271180e+13	0.000000e+00	3.969848e-01	2.320150e+14	1.199597e+15	5.288062e+14	1.400277e+04	7.117764e+03	2.276636e+03	0	9.137851e-04
7.700000e+08	1.257274e+13	0.000000e+00	3.969848e-01	2.302157e+14	1.189083e+15	5.263083e+14	1.398779e+04	7.110434e+03	2.274292e+03	0	9.104408e-04
7.800000e+08	1.243574e+13	0.000000e+00	3.969848e-01	2.284424e+14	1.178770e+15	5.238279e+14	1.397292e+04	7.103209e+03	2.271981e+03	0	9.071218e-04
7.900000e+08	1.230075e+13	0.000000e+00	3.969848e-01	2.266947e+14	1.168653e+15	5.213646e+14	1.395817e+04	7.096083e+03	2.269702e+03	0	9.038276e-04
8.000000e+08	1.216773e+13	0.000000e+00	3.969848e-01	2.249719e+14	1.158726e+15	5.189185e+14	1.394353e+04	7.089056e+03	2.267454e+03	0	9.005579e-04
8.100000e+08	1.203664e+13	0.000000e+00	3.969848e-01	2.232735e+14	1.148983e+15	5.164893e+14	1.392900e+04	7.082125e+03	2.265237e+03	0	8.973121e-04
8.200000e+08	1.190744e+13	0.000000e+00	3.969848e-01	2.215990e+14	1.139419e+15	5.140769e+14	1.391458e+04	7.075287e+03	2.263050e+03	0	8.940899e-04
8.300000e+08	1.178008e+13	0.000000e+00	3.969848e-01	2.199479e+14	1.130029e+15	5.116812e+14	1.390027e+04	7.068540e+03	2.260892e+03	0	8.908907e-04
8.400000e+08	1.165452e+13	0.000000e+00	3.969848e-01	2.183197e+14	1.120807e+15	5.093020e+14	1.388607e+04	7.061881e+03	2.258762e+03	0	8.877143e-04
8.500000e+08	1.153073e+13	0.000000e+00	3.969848e-01	2.167139e+14	1.111749e+15	5.069393e+14	1.387197e+04	7.055310e+03	2.256660e+03	0	8.845602e-04
8.600000e+08	1.140868e+13	0.000000e+00	3.969848e-01	2.151301e+14	1.102850e+15	5.045928e+14	1.385797e+04	7.048823e+03	2.254586e+03	0	8.814281e-04
8.700000e+08	1.128832e+13	0.000000e+00	3.969848e-01	2.135678e+14	1.094106e+15	5.022625e+14	1.384407e+04	7.042419e+03	2.252537e+03	0	8.783174e-04
8.800000e+08	1.116962e+13	0.000000e+00	3.969848e-01	2.120265e+14	1.085513e+15	4.999482e+14	1.383028e+04	7.036095e+03	2.250514e+03	0	8.752280e-04
8.900000e+08	1.105255e+13	0.000000e+00	3.969848e-01	2.105059e+14	1.077066e+15	4.976498e+14	1.381658e+04	7.029850e+03	2.248517e+03	0	8.721594e-04
9.000000e+08	1.093707e+13	0.000000e+00	3.969848e-01	2.090055e+14	1.068761e+15	4.953672e+14	1.380299e+04	7.023682e+03	2.246544e+03	0	8.691112e-04
9.100000e+08	1.082315e+13	0.000000e+00	3.969848e-01	2.075249e+14	1.060595e+15	4.931003e+14	1.378949e+04	7.017589e+03	2.244595e+03	0	8.660832e-04
9.200000e+08	1.071076e+13	0.000000e+00	3.969848e-01	2.060638e+14	1.052565e+15	4.908488e+14	1.377608e+04	7.011570e+03	2.242670e+03	0	8.630750e-04
9.300000e+08	1.059987e+13	0.000000e+00	3.969848e-01	2.046217e+14	1.044665e+15	4.886128e+14	1.376277e+04	7.005623e+03	2.240768e+03	0	8.600861e-04
9.400000e+08	1.049045e+13	0.000000e+00	3.969848e-01	2.031983e+14	1.036893e+15	4.863921e+14	1.374955e+04	6.999745e+03	2.238888e+03	0	8.571165e-04
9.500000e+08	1.038248e+13	0.000000e+00	3.969848e-01	2.017932e+14	1.029246e+15	4.841865e+14	1.373643e+04	6.993937e+03	2.237030e+03	0	8.541656e-04
9.600000e+08	1.027591e+13	0.000000e+00	3.969848e-01	2.004060e+14	1.021721e+15	4.819959e+14	1.372339e+04	6.988196e+03	2.235194e+03	0	8.512332e-04
9.700000e+08	1.017074e+13	0.000000e+00	3.969848e-01	1.990365e+14	1.014313e+15	4.798203e+14	1.371045e+04	6.982520e+03	2.233378e+03	0	8.483190e-04
9.800000e+08	1.006692e+13	0.000000e+00	3.969848e-01	1.976842e+14	1.007022e+15	4.776595e+14	1.369759e+04	6.976909e+03	2.231584e+03	0	8.454228e-04
9.900000e+08	9.964435e+12	0.000000e+00	3.969848e-01	1.963489e+14	9.998422e+14	4.755133e+14	1.368482e+04	6.971360e+03	2.229809e+03	0	8.425441e-04
1.000000e+09	9.863259e+12	0.000000e+00	3.969848e-01	1.950302e+14	9.927726e+14	4.733817e+14	1.367213e+04	6.965873e+03	2.228054e+03	0	8.396827e-04
1.010000e+09	9.763367e+12	0.000000e+00	3.969848e-01	1.937279e+14	9.858100e+14	4.712646e+14	1.365953e+04	6.960446e+03	2.226318e+03	0	8.368384e-04
1.020000e+09	9.664734e+12	0.000000e+00	3.969848e-01	1.924416e+14	9.789519e+14	4.691619e+14	1.364702e+04	6.955079e+03	2.224601e+03	0	8.340109e-04
1.030000e+09	9.567338e+12	0.000000e+00	3.969848e-01	1.911710e+14	9.721956e+14	4.670733e+14	1.363459e+04	6.949769e+03	2.222903e+03	0	8.311999e-04
1.040000e+09	9.471156e+12	0.000000e+00	3.969848e-01	1.899158e+14	9.655389e+14	4.649989e+14	1.362223e+04	6.944515e+03	2.221223e+03	0	8.284051e-04
1.050000e+09	9.376165e+12	0.000000e+00	3.969848e-01	1.886758e+14	9.589793e+14	4.629385e+14	1.360996e+04	6.939317e+03	2.219560e+03	0	8.256262e-04
1.060000e+09	9.282343e+12	0.000000e+00	3.969848e-01	1.874507e+14	9.525146e+14	4.608919e+14	1.359777e+04	6.934174e+03	2.217915e+03	0	8.228632e-04
1.070000e+09	9.189669e+12	0.000000e+00	3.969848e-01	1.862402e+14	9.461425e+14	4.588592e+14	1.358566e+04	6.929083e+03	2.216286e+03	0	8.201155e-04
1.080000e+09	9.098124e+12	0.000000e+00	3.969848e-01	1.850441e+14	9.398609e+14	4.568401e+14	1.357363e+04	6.924044e+03	2.214675e+03	0	8.173832e-04
1.090000e+09	9.007686e+12	0.000000e+00	3.969848e-01	1.838621e+14	9.336678e+14	4.548347e+14	1.356167e+04	6.919057e+03	2.213080e+03	0	8.146658e-04
1.100000e+09	8.918336e+12	0.000000e+00	3.969848e-01	1.826939e+14	9.275611e+14	4.528426e+14	1.354980e+04	6.914120e+03	2.211500e+03	0	8.119632e-04
1.110000e+09	8.830054e+12	0.000000e+00	3.969848e-01	1.815394e+14	9.215389e+14	4.508640e+14	1.353799e+04	6.909232e+03	2.209937e+03	0	8.092752e-04
1.120000e+09	8.742823e+12	0.000000e+00	3.969848e-01	1.803982e+14	9.155993e+14	4.488986e+14	1.352626e+04	6.904391e+03	2.208389e+03	0	8.066014e-04
1.130000e+09	8.656623e+12	0.000000e+00	3.969848e-01	1.792702e+14	9.097405e+14	4.469463e+14	1.351460e+04	6.899598e+03	2.206856e+03	0	8.039418e-04
1.140000e+09	8.571437e+12	0.000000e+00	3.969848e-01	1.781551e+14	9.039607e+14	4.450071e+14	1.350302e+04	6.894852e+03	2.205338e+03	0	8.012960e-04
1.150000e+09	8.487247e+12	0.000000e+00	3.969848e-01	1.770527e+14	8.982583e+14	4.430809e+14	1.349151e+04	6.890151e+03	2.203834e+03	0	7.986639e-04
1.160000e+09	8.404037e+12	0.000000e+00	3.969848e-01	1.759628e+14	8.926314e+14	4.411675e+14	1.348007e+04	6.885494e+03	2.202344e+03	0	7.960452e-04
1.170000e+09	8.321789e+12	0.000000e+00	3.969848e-01	1.748851e+14	8.870786e+14	4.392668e+14	1.346870e+04	6.880881e+03	2.200869e+03	0	7.934398e-04
1.180000e+09	8.240487e+12	0.000000e+00	3.969848e-01	1.738196e+14	8.815982e+14	4.373788e+14	1.345740e+04	6.876311e+03	2.199407e+03	0	7.908474e-04
1.190000e+09	8.160116e+12	0.000000e+00	3.969848e-01	1.727659e+14	8.761888e+14	4.355033e+14	1.344617e+04	6.871783e+03	2.197959e+03	0	7.882679e-04
1.200000e+09	8.080659e+12	0.000000e+00	3.969848e-01	1.717238e+14	8.708488e+14	4.336403e+14	1.343500e+04	6.867296e+03	2.196524e+03	0	7.857011e-04
1.210000e+09	8.002102e+12	0.000000e+00	3.969848e-01	1.706933e+14	8.655768e+14	4.317897e+14	1.342390e+04	6.862850e+03	2.195102e+03	0	7.831467e-04
1.220000e+09	7.924429e+12	0.000000e+00	3.969848e-01	1.696740e+14	8.603713e+14	4.299513e+14	1.341287e+04	6.858444e+03	2.193692e+03	0	7.806046e-04
1.230000e+09	7.847627e+12	0.000000e+00	3.969848e-01	1.686659e+14	8.552312e+14	4.281250e+14	1.340191e+04	6.854077e+03	2.192296e+03	0	7.780745e-04
1.240000e+09	7.771680e+12	0.000000e+00	3.969848e-01	1.676687e+14	8.501549e+14	4.263109e+14	1.339101e+04	6.849749e+03	2.190911e+03	0	7.755564e-04
1.250000e+09	7.696576e+12	0.000000e+00	3.969848e-01	1.666822e+14	8.451413e+14	4.245087e+14	1.338017e+04	6.845458e+03	2.189539e+03	0	7.730500e-04
1.260000e+09	7.622300e+12	0.000000e+00	3.969848e-01	1.657063e+14	8.401891e+14	4.227184e+14	1.336940e+04	6.841204e+03	2.188178e+03	0	7.705552e-04
1.270000e+09	7.548838e+12	0.000000e+00	3.969848e-01	1.647409e+14	8.352971e+14	4.209399e+14	1.335869e+04	6.836987e+03	2.186829e+03	0	7.680717e-04
1.280000e+09	7.476179e+12	0.000000e+00	3.969848e-01	1.637856e+14	8.304640e+14	4.191731e+14	1.334805e+04	6.832805e+03	2.185492e+03	0	7.655995e-04
1.290000e+09	7.404309e+12	0.000000e+00	3.969848e-01	1.628405e+14	8.256889e+14	4.174179e+14	1.333746e+04	6.828659e+03	2.184166e+03	0	7.631383e-04
1.300000e+09	7.333215e+12	0.000000e+00	3.969848e-01	1.619053e+14	8.209704e+14	4.156742e+14	1.332694e+04	6.824547e+03	2.182850e+03	0	7.606880e-04
1.310000e+09	7.262887e+12	0.000000e+00	3.969848e-01	1.609799e+14	8.163076e+14	4.139419e+14	1.331647e+04	6.820470e+03	2.181546e+03	0	7.582484e-04
1.320000e+09	7.193310e+12	0.000000e+00	3.969848e-01	1.600641e+14	8.116994e+14	4.122210e+14	1.330607e+04	6.816426e+03	2.180253e+03	0	7.558194e-04
1.330000e+09	7.124475e+12	0.000000e+00	3.969848e-01	1.591577e+14	8.071448e+14	4.105114e+14	1.329573e+04	6.812414e+03	2.178970e+03	0	7.534007e-04
1.340000e+09	7.056369e+12	0.000000e+00	3.969848e-01	1.582607e+14	8.026427e+14	4.088129e+14	1.328544e+04	6.808435e+03	2.177697e+03	0	7.509923e-04
1.350000e+09	6.988980e+12	0.000000e+00	3.969848e-01	1.573729e+14	7.981921e+14	4.071255e+14	1.327521e+04	6.804488e+03	2.176434e+03	0	7.485940e-04
1.360000e+09	6.922300e+12	0.000000e+00	3.969848e-01	1.564942e+14	7.937922e+14	4.054491e+14	1.326504e+04	6.800572e+03	2.175182e+03	0	7.462057e-04
