#t		Qconv[W]	Ri[Rp]		R*[Rp]		Qc[W]		Qm[W]		Qr[W]		Tcmb[K]		Tl[K]		Tup[K]		RiFlag		Bs[T]
0.000000e+00	4.665045e+13	0.000000e+00	3.969849e-01	6.525384e+14	4.610492e+15	8.595365e+14	1.693990e+04	9.206942e+03	2.798125e+03	0	1.405805e-03
1.000000e+07	4.576599e+13	0.000000e+00	3.969849e-01	6.420408e+14	4.458368e+15	8.547740e+14	1.690278e+04	9.159635e+03	2.783748e+03	0	1.396863e-03
2.000000e+07	4.490851e+13	0.000000e+00	3.969849e-01	6.318599e+14	4.315979e+15	8.500471e+14	1.686625e+04	9.114392e+03	2.769998e+03	0	1.388084e-03
3.000000e+07	4.407691e+13	0.000000e+00	3.969849e-01	6.219828e+14	4.182456e+15	8.453556e+14	1.683030e+04	9.071074e+03	2.756833e+03	0	1.379463e-03
4.000000e+07	4.327014e+13	0.000000e+00	3.969849e-01	6.123971e+14	4.057027e+15	8.406991e+14	1.679490e+04	9.029554e+03	2.744214e+03	0	1.370995e-03
5.000000e+07	4.248719e+13	0.000000e+00	3.969849e-01	6.030912e+14	3.939004e+15	8.360774e+14	1.676005e+04	8.989715e+03	2.732106e+03	0	1.362675e-03
6.000000e+07	4.172708e+13	0.000000e+00	3.969849e-01	5.940535e+14	3.827773e+15	8.314901e+14	1.672573e+04	8.951451e+03	2.720478e+03	0	1.354500e-03
7.000000e+07	4.098889e+13	0.000000e+00	3.969849e-01	5.852733e+14	3.722785e+15	8.269369e+14	1.669192e+04	8.914666e+03	2.709298e+03	0	1.346465e-03
8.000000e+07	4.027172e+13	0.000000e+00	3.969849e-01	5.767401e+14	3.623544e+15	8.224176e+14	1.665860e+04	8.879270e+03	2.698540e+03	0	1.338566e-03
9.000000e+07	3.957474e+13	0.000000e+00	3.969849e-01	5.684441e+14	3.529607e+15	8.179319e+14	1.662577e+04	8.845180e+03	2.688180e+03	0	1.330799e-03
1.000000e+08	3.889713e+13	0.000000e+00	3.969849e-01	5.603757e+14	3.440571e+15	8.134795e+14	1.659341e+04	8.812322e+03	2.678194e+03	0	1.323160e-03
1.100000e+08	3.823813e+13	0.000000e+00	3.969849e-01	5.525260e+14	3.356075e+15	8.090602e+14	1.656151e+04	8.780625e+03	2.668561e+03	0	1.315645e-03
1.200000e+08	3.759699e+13	0.000000e+00	3.969849e-01	5.448864e+14	3.275789e+15	8.046736e+14	1.653005e+04	8.750026e+03	2.659261e+03	0	1.308250e-03
1.300000e+08	3.697303e+13	0.000000e+00	3.969849e-01	5.374487e+14	3.199414e+15	8.003195e+14	1.649903e+04	8.720464e+03	2.650277e+03	0	1.300972e-03
1.400000e+08	3.636557e+13	0.000000e+00	3.969849e-01	5.302051e+14	3.126678e+15	7.959976e+14	1.646842e+04	8.691884e+03	2.641591e+03	0	1.293808e-03
1.500000e+08	3.577398e+13	0.000000e+00	3.969849e-01	5.231482e+14	3.057334e+15	7.917077e+14	1.643823e+04	8.664234e+03	2.633188e+03	0	1.286754e-03
1.600000e+08	3.519767e+13	0.000000e+00	3.969849e-01	5.162709e+14	2.991155e+15	7.874495e+14	1.640844e+04	8.637468e+03	2.625053e+03	0	1.279806e-03
1.700000e+08	3.463604e+13	0.000000e+00	3.969849e-01	5.095666e+14	2.927932e+15	7.832226e+14	1.637903e+04	8.611539e+03	2.617173e+03	0	1.272963e-03
1.800000e+08	3.408856e+13	0.000000e+00	3.969849e-01	5.030287e+14	2.867478e+15	7.790270e+14	1.635001e+04	8.586407e+03	2.609535e+03	0	1.266220e-03
1.900000e+08	3.355471e+13	0.000000e+00	3.969849e-01	4.966512e+14	2.809616e+15	7.748622e+14	1.632136e+04	8.562032e+03	2.602127e+03	0	1.259575e-03
2.000000e+08	3.303398e+13	0.000000e+00	3.969849e-01	4.904283e+14	2.754186e+15	7.707281e+14	1.629307e+04	8.538379e+03	2.594939e+03	0	1.253026e-03
2.100000e+08	3.252590e+13	0.000000e+00	3.969849e-01	4.843543e+14	2.701041e+15	7.666244e+14	1.626513e+04	8.515413e+03	2.587959e+03	0	1.246568e-03
2.200000e+08	3.203003e+13	0.000000e+00	3.969849e-01	4.784240e+14	2.650043e+15	7.625508e+14	1.623754e+04	8.493103e+03	2.581179e+03	0	1.240201e-03
2.300000e+08	3.154592e+13	0.000000e+00	3.969849e-01	4.726324e+14	2.601068e+15	7.585072e+14	1.621029e+04	8.471418e+03	2.574589e+03	0	1.233921e-03
2.400000e+08	3.107316e+13	0.000000e+00	3.969849e-01	4.669746e+14	2.553998e+15	7.544931e+14	1.618336e+04	8.450331e+03	2.568180e+03	0	1.227726e-03
2.500000e+08	3.061137e+13	0.000000e+00	3.969849e-01	4.614459e+14	2.508725e+15	7.505085e+14	1.615676e+04	8.429815e+03	2.561945e+03	0	1.221614e-03
2.600000e+08	3.016017e+13	0.000000e+00	3.969849e-01	4.560421e+14	2.465149e+15	7.465530e+14	1.613046e+04	8.409846e+03	2.555876e+03	0	1.215582e-03
2.700000e+08	2.971919e+13	0.000000e+00	3.969849e-01	4.507589e+14	2.423178e+15	7.426265e+14	1.610448e+04	8.390399e+03	2.549966e+03	0	1.209629e-03
2.800000e+08	2.928811e+13	0.000000e+00	3.969849e-01	4.455922e+14	2.382724e+15	7.387286e+14	1.607879e+04	8.371453e+03	2.544208e+03	0	1.203751e-03
2.900000e+08	2.886657e+13	0.000000e+00	3.969849e-01	4.405383e+14	2.343707e+15	7.348592e+14	1.605340e+04	8.352987e+03	2.538595e+03	0	1.197948e-03
3.000000e+08	2.845428e+13	0.000000e+00	3.969849e-01	4.355933e+14	2.306053e+15	7.310180e+14	1.602830e+04	8.334981e+03	2.533123e+03	0	1.192218e-03
3.100000e+08	2.805094e+13	0.000000e+00	3.969849e-01	4.307540e+14	2.269690e+15	7.272047e+14	1.600347e+04	8.317417e+03	2.527785e+03	0	1.186558e-03
3.200000e+08	2.765625e+13	0.000000e+00	3.969849e-01	4.260167e+14	2.234554e+15	7.234193e+14	1.597892e+04	8.300277e+03	2.522576e+03	0	1.180966e-03
3.300000e+08	2.726994e+13	0.000000e+00	3.969849e-01	4.213784e+14	2.200584e+15	7.196613e+14	1.595464e+04	8.283544e+03	2.517491e+03	0	1.175442e-03
3.400000e+08	2.689174e+13	0.000000e+00	3.969849e-01	4.168359e+14	2.167721e+15	7.159306e+14	1.593063e+04	8.267203e+03	2.512525e+03	0	1.169982e-03
3.500000e+08	2.652141e+13	0.000000e+00	3.969849e-01	4.123863e+14	2.135914e+15	7.122270e+14	1.590687e+04	8.251239e+03	2.507673e+03	0	1.164587e-03
3.600000e+08	2.615870e+13	0.000000e+00	3.969849e-01	4.080266e+14	2.105110e+15	7.085503e+14	1.588336e+04	8.235636e+03	2.502931e+03	0	1.159253e-03
3.700000e+08	2.580338e+13	0.000000e+00	3.969849e-01	4.037542e+14	2.075264e+15	7.049001e+14	1.586010e+04	8.220383e+03	2.498295e+03	0	1.153981e-03
3.800000e+08	2.545522e+13	0.000000e+00	3.969849e-01	3.995665e+14	2.046331e+15	7.012764e+14	1.583709e+04	8.205465e+03	2.493761e+03	0	1.148767e-03
3.900000e+08	2.511401e+13	0.000000e+00	3.969849e-01	3.954610e+14	2.018268e+15	6.976789e+14	1.581431e+04	8.190872e+03	2.489326e+03	0	1.143611e-03
4.000000e+08	2.477955e+13	0.000000e+00	3.969849e-01	3.914351e+14	1.991038e+15	6.941073e+14	1.579177e+04	8.176590e+03	2.484986e+03	0	1.138512e-03
4.100000e+08	2.445163e+13	0.000000e+00	3.969849e-01	3.874866e+14	1.964603e+15	6.905616e+14	1.576945e+04	8.162609e+03	2.480737e+03	0	1.133467e-03
4.200000e+08	2.413007e+13	0.000000e+00	3.969849e-01	3.836133e+14	1.938927e+15	6.870413e+14	1.574736e+04	8.148919e+03	2.476576e+03	0	1.128477e-03
4.300000e+08	2.381468e+13	0.000000e+00	3.969849e-01	3.798131e+14	1.913979e+15	6.835465e+14	1.572549e+04	8.135510e+03	2.472501e+03	0	1.123538e-03
4.400000e+08	2.350529e+13	0.000000e+00	3.969849e-01	3.760837e+14	1.889728e+15	6.800767e+14	1.570383e+04	8.122371e+03	2.468508e+03	0	1.118652e-03
4.500000e+08	2.320173e+13	0.000000e+00	3.969849e-01	3.724233e+14	1.866143e+15	6.766319e+14	1.568239e+04	8.109494e+03	2.464594e+03	0	1.113815e-03
4.600000e+08	2.290383e+13	0.000000e+00	3.969849e-01	3.688300e+14	1.843197e+15	6.732119e+14	1.566116e+04	8.096870e+03	2.460758e+03	0	1.109028e-03
4.700000e+08	2.261144e+13	0.000000e+00	3.969849e-01	3.653019e+14	1.820865e+15	6.698163e+14	1.564012e+04	8.084490e+03	2.456995e+03	0	1.104288e-03
4.800000e+08	2.232441e+13	0.000000e+00	3.969849e-01	3.618372e+14	1.799121e+15	6.664451e+14	1.561929e+04	8.072347e+03	2.453305e+03	0	1.099596e-03
4.900000e+08	2.204259e+13	0.000000e+00	3.969849e-01	3.584342e+14	1.777941e+15	6.630981e+14	1.559866e+04	8.060433e+03	2.449684e+03	0	1.094949e-03
5.000000e+08	2.176585e+13	0.000000e+00	3.969849e-01	3.550913e+14	1.757304e+15	6.597749e+14	1.557822e+04	8.048741e+03	2.446131e+03	0	1.090347e-03
5.100000e+08	2.149404e+13	0.000000e+00	3.969849e-01	3.518068e+14	1.737188e+15	6.564755e+14	1.555797e+04	8.037263e+03	2.442642e+03	0	1.085790e-03
5.200000e+08	2.122703e+13	0.000000e+00	3.969849e-01	3.485793e+14	1.717574e+15	6.531997e+14	1.553791e+04	8.025994e+03	2.439217e+03	0	1.081275e-03
5.300000e+08	2.096471e+13	0.000000e+00	3.969849e-01	3.454073e+14	1.698441e+15	6.499472e+14	1.551803e+04	8.014925e+03	2.435854e+03	0	1.076802e-03
5.400000e+08	2.070694e+13	0.000000e+00	3.969849e-01	3.422893e+14	1.679773e+15	6.467179e+14	1.549833e+04	8.004052e+03	2.432549e+03	0	1.072371e-03
5.500000e+08	2.045361e+13	0.000000e+00	3.969849e-01	3.392239e+14	1.661552e+15	6.435115e+14	1.547881e+04	7.993368e+03	2.429302e+03	0	1.067980e-03
5.600000e+08	2.020461e+13	0.000000e+00	3.969849e-01	3.362099e+14	1.643760e+15	6.403280e+14	1.545946e+04	7.982868e+03	2.426111e+03	0	1.063628e-03
5.700000e+08	1.995983e+13	0.000000e+00	3.969849e-01	3.332458e+14	1.626384e+15	6.371670e+14	1.544028e+04	7.972547e+03	2.422974e+03	0	1.059315e-03
5.800000e+08	1.971917e+13	0.000000e+00	3.969849e-01	3.303306e+14	1.609407e+15	6.340285e+14	1.542128e+04	7.962398e+03	2.419890e+03	0	1.055041e-03
5.900000e+08	1.948251e+13	0.000000e+00	3.969849e-01	3.274629e+14	1.592817e+15	6.309122e+14	1.540243e+04	7.952417e+03	2.416856e+03	0	1.050803e-03
6.000000e+08	1.924976e+13	0.000000e+00	3.969849e-01	3.246417e+14	1.576598e+15	6.278180e+14	1.538376e+04	7.942600e+03	2.413873e+03	0	1.046602e-03
6.100000e+08	1.902083e+13	0.000000e+00	3.969849e-01	3.218657e+14	1.560739e+15	6.247457e+14	1.536524e+04	7.932941e+03	2.410937e+03	0	1.042436e-03
6.200000e+08	1.879562e+13	0.000000e+00	3.969849e-01	3.191340e+14	1.545227e+15	6.216951e+14	1.534688e+04	7.923436e+03	2.408049e+03	0	1.038306e-03
6.300000e+08	1.857405e+13	0.000000e+00	3.969849e-01	3.164454e+14	1.530050e+15	6.186660e+14	1.532867e+04	7.914080e+03	2.405205e+03	0	1.034210e-03
6.400000e+08	1.835602e+13	0.000000e+00	3.969849e-01	3.137989e+14	1.515197e+15	6.156583e+14	1.531062e+04	7.904871e+03	2.402406e+03	0	1.030147e-03
6.500000e+08	1.814146e+13	0.000000e+00	3.969849e-01	3.111936e+14	1.500658e+15	6.126718e+14	1.529272e+04	7.895802e+03	2.399650e+03	0	1.026117e-03
6.600000e+08	1.793028e+13	0.000000e+00	3.969849e-01	3.086284e+14	1.486422e+15	6.097063e+14	1.527496e+04	7.886872e+03	2.396936e+03	0	1.022120e-03
6.700000e+08	1.772240e+13	0.000000e+00	3.969849e-01	3.061025e+14	1.472478e+15	6.067616e+14	1.525736e+04	7.878076e+03	2.394263e+03	0	1.018155e-03
6.800000e+08	1.751775e+13	0.000000e+00	3.969849e-01	3.036150e+14	1.458819e+15	6.038376e+14	1.523989e+04	7.869410e+03	2.391629e+03	0	1.014221e-03
6.900000e+08	1.731625e+13	0.000000e+00	3.969849e-01	3.011649e+14	1.445434e+15	6.009342e+14	1.522257e+04	7.860871e+03	2.389034e+03	0	1.010317e-03
7.000000e+08	1.711783e+13	0.000000e+00	3.969849e-01	2.987515e+14	1.432316e+15	5.980511e+14	1.520539e+04	7.852455e+03	2.386477e+03	0	1.006443e-03
7.100000e+08	1.692243e+13	0.000000e+00	3.969849e-01	2.963739e+14	1.419455e+15	5.951881e+14	1.518834e+04	7.844160e+03	2.383956e+03	0	1.002599e-03
7.200000e+08	1.672997e+13	0.000000e+00	3.969849e-01	2.940314e+14	1.406845e+15	5.923452e+14	1.517143e+04	7.835983e+03	2.381470e+03	0	9.987836e-04
7.300000e+08	1.654039e+13	0.000000e+00	3.969849e-01	2.917231e+14	1.394477e+15	5.895222e+14	1.515466e+04	7.827920e+03	2.379020e+03	0	9.949966e-04
7.400000e+08	1.635363e+13	0.000000e+00	3.969849e-01	2.894483e+14	1.382343e+15	5.867188e+14	1.513801e+04	7.819968e+03	2.376603e+03	0	9.912375e-04
7.500000e+08	1.616962e+13	0.000000e+00	3.969849e-01	2.872062e+14	1.370438e+15	5.839350e+14	1.512150e+04	7.812126e+03	2.374220e+03	0	9.875056e-04
7.600000e+08	1.598830e+13	0.000000e+00	3.969849e-01	2.849963e+14	1.358754e+15	5.811706e+14	1.510511e+04	7.804389e+03	2.371868e+03	0	9.838007e-04
7.700000e+08	1.580962e+13	0.000000e+00	3.969849e-01	2.828177e+14	1.347285e+15	5.784255e+14	1.508885e+04	7.796755e+03	2.369549e+03	0	9.801221e-04
7.800000e+08	1.563352e+13	0.000000e+00	3.969849e-01	2.806699e+14	1.336025e+15	5.756994e+14	1.507271e+04	7.789223e+03	2.367259e+03	0	9.764694e-04
7.900000e+08	1.545995e+13	0.000000e+00	3.969849e-01	2.785522e+14	1.324967e+15	5.729922e+14	1.505669e+04	7.781789e+03	2.365000e+03	0	9.728421e-04
8.000000e+08	1.528884e+13	0.000000e+00	3.969849e-01	2.764639e+14	1.314106e+15	5.703038e+14	1.504080e+04	7.774451e+03	2.362770e+03	0	9.692398e-04
8.100000e+08	1.512016e+13	0.000000e+00	3.969849e-01	2.744044e+14	1.303437e+15	5.676341e+14	1.502502e+04	7.767206e+03	2.360568e+03	0	9.656621e-04
8.200000e+08	1.495385e+13	0.000000e+00	3.969849e-01	2.723732e+14	1.292954e+15	5.649828e+14	1.500936e+04	7.760054e+03	2.358394e+03	0	9.621085e-04
8.300000e+08	1.478986e+13	0.000000e+00	3.969849e-01	2.703696e+14	1.282651e+15	5.623499e+14	1.499382e+04	7.752991e+03	2.356248e+03	0	9.585786e-04
8.400000e+08	1.462814e+13	0.000000e+00	3.969849e-01	2.683932e+14	1.272524e+15	5.597351e+14	1.497839e+04	7.746015e+03	2.354128e+03	0	9.550719e-04
8.500000e+08	1.446865e+13	0.000000e+00	3.969849e-01	2.664433e+14	1.262569e+15	5.571384e+14	1.496307e+04	7.739124e+03	2.352034e+03	0	9.515882e-04
8.600000e+08	1.431135e+13	0.000000e+00	3.969849e-01	2.645195e+14	1.252780e+15	5.545596e+14	1.494786e+04	7.732317e+03	2.349965e+03	0	9.481270e-04
8.700000e+08	1.415618e+13	0.000000e+00	3.969849e-01	2.626212e+14	1.243153e+15	5.519985e+14	1.493276e+04	7.725592e+03	2.347921e+03	0	9.446879e-04
8.800000e+08	1.400310e+13	0.000000e+00	3.969849e-01	2.607479e+14	1.233685e+15	5.494551e+14	1.491778e+04	7.718946e+03	2.345901e+03	0	9.412705e-04
8.900000e+08	1.385209e+13	0.000000e+00	3.969849e-01	2.588991e+14	1.224370e+15	5.469291e+14	1.490289e+04	7.712378e+03	2.343905e+03	0	9.378745e-04
9.000000e+08	1.370308e+13	0.000000e+00	3.969849e-01	2.570743e+14	1.215205e+15	5.444205e+14	1.488812e+04	7.705887e+03	2.341932e+03	0	9.344995e-04
9.100000e+08	1.355605e+13	0.000000e+00	3.969849e-01	2.552731e+14	1.206186e+15	5.419290e+14	1.487344e+04	7.699470e+03	2.339982e+03	0	9.311452e-04
9.200000e+08	1.341096e+13	0.000000e+00	3.969849e-01	2.534951e+14	1.197309e+15	5.394546e+14	1.485887e+04	7.693126e+03	2.338054e+03	0	9.278112e-04
9.300000e+08	1.326776e+13	0.000000e+00	3.969849e-01	2.517397e+14	1.188571e+15	5.369972e+14	1.484440e+04	7.686853e+03	2.336148e+03	0	9.244972e-04
9.400000e+08	1.312643e+13	0.000000e+00	3.969849e-01	2.500066e+14	1.179968e+15	5.345565e+14	1.483004e+04	7.680650e+03	2.334262e+03	0	9.212028e-04
9.500000e+08	1.298693e+13	0.000000e+00	3.969849e-01	2.482953e+14	1.171497e+15	5.321325e+14	1.481577e+04	7.674515e+03	2.332398e+03	0	9.179278e-04
9.600000e+08	1.284922e+13	0.000000e+00	3.969849e-01	2.466054e+14	1.163155e+15	5.297251e+14	1.480159e+04	7.668448e+03	2.330554e+03	0	9.146717e-04
9.700000e+08	1.271327e+13	0.000000e+00	3.969849e-01	2.449366e+14	1.154939e+15	5.273340e+14	1.478752e+04	7.662446e+03	2.328730e+03	0	9.114344e-04
9.800000e+08	1.257904e+13	0.000000e+00	3.969849e-01	2.432884e+14	1.146845e+15	5.249592e+14	1.477353e+04	7.656508e+03	2.326925e+03	0	9.082154e-04
9.900000e+08	1.244651e+13	0.000000e+00	3.969849e-01	2.416605e+14	1.138870e+15	5.226005e+14	1.475965e+04	7.650633e+03	2.325140e+03	0	9.050145e-04
1.000000e+09	1.231564e+13	0.000000e+00	3.969849e-01	2.400524e+14	1.131013e+15	5.202579e+14	1.474585e+04	7.644819e+03	2.323373e+03	0	9.018315e-04
1.010000e+09	1.218641e+13	0.000000e+00	3.969849e-01	2.384639e+14	1.123269e+15	5.179311e+14	1.473215e+04	7.639066e+03	2.321625e+03	0	8.986659e-04
1.020000e+09	1.205878e+13	0.000000e+00	3.969849e-01	2.368946e+14	1.115637e+15	5.156201e+14	1.471853e+04	7.633372e+03	2.319894e+03	0	8.955175e-04
1.030000e+09	1.193272e+13	0.000000e+00	3.969849e-01	2.353441e+14	1.108114e+15	5.133248e+14	1.470501e+04	7.627736e+03	2.318181e+03	0	8.923861e-04
1.040000e+09	1.180821e+13	0.000000e+00	3.969849e-01	2.338121e+14	1.100697e+15	5.110449e+14	1.469158e+04	7.622157e+03	2.316486e+03	0	8.892714e-04
1.050000e+09	1.168521e+13	0.000000e+00	3.969849e-01	2.322983e+14	1.093385e+15	5.087805e+14	1.467823e+04	7.616633e+03	2.314807e+03	0	8.861730e-04
1.060000e+09	1.156371e+13	0.000000e+00	3.969849e-01	2.308023e+14	1.086174e+15	5.065313e+14	1.466497e+04	7.611164e+03	2.313145e+03	0	8.830909e-04
1.070000e+09	1.144367e+13	0.000000e+00	3.969849e-01	2.293239e+14	1.079062e+15	5.042973e+14	1.465179e+04	7.605749e+03	2.311499e+03	0	8.800246e-04
1.080000e+09	1.132507e+13	0.000000e+00	3.969849e-01	2.278627e+14	1.072047e+15	5.020783e+14	1.463870e+04	7.600386e+03	2.309869e+03	0	8.769739e-04
1.090000e+09	1.120789e+13	0.000000e+00	3.969849e-01	2.264185e+14	1.065128e+15	4.998742e+14	1.462569e+04	7.595075e+03	2.308255e+03	0	8.739386e-04
1.100000e+09	1.109209e+13	0.000000e+00	3.969849e-01	2.249909e+14	1.058301e+15	4.976849e+14	1.461276e+04	7.589814e+03	2.306656e+03	0	8.709185e-04
1.110000e+09	1.097766e+13	0.000000e+00	3.969849e-01	2.235797e+14	1.051566e+15	4.955103e+14	1.459992e+04	7.584603e+03	2.305072e+03	0	8.679132e-04
1.120000e+09	1.086457e+13	0.000000e+00	3.969849e-01	2.221845e+14	1.044919e+15	4.933503e+14	1.458715e+04	7.579440e+03	2.303503e+03	0	8.649226e-04
1.130000e+09	1.075281e+13	0.000000e+00	3.969849e-01	2.208052e+14	1.038360e+15	4.912047e+14	1.457446e+04	7.574325e+03	2.301949e+03	0	8.619464e-04
1.140000e+09	1.064233e+13	0.000000e+00	3.969849e-01	2.194415e+14	1.031886e+15	4.890735e+14	1.456186e+04	7.569257e+03	2.300409e+03	0	8.589845e-04
1.150000e+09	1.053314e+13	0.000000e+00	3.969849e-01	2.180930e+14	1.025495e+15	4.869565e+14	1.454933e+04	7.564235e+03	2.298882e+03	0	8.560365e-04
1.160000e+09	1.042520e+13	0.000000e+00	3.969849e-01	2.167596e+14	1.019187e+15	4.848536e+14	1.453688e+04	7.559259e+03	2.297370e+03	0	8.531023e-04
1.170000e+09	1.031849e+13	0.000000e+00	3.969849e-01	2.154409e+14	1.012958e+15	4.827647e+14	1.452450e+04	7.554327e+03	2.295871e+03	0	8.501816e-04
1.180000e+09	1.021299e+13	0.000000e+00	3.969849e-01	2.141368e+14	1.006808e+15	4.806898e+14	1.451220e+04	7.549438e+03	2.294385e+03	0	8.472742e-04
1.190000e+09	1.010869e+13	0.000000e+00	3.969849e-01	2.128471e+14	1.000735e+15	4.786286e+14	1.449997e+04	7.544592e+03	2.292912e+03	0	8.443800e-04
1.200000e+09	1.000556e+13	0.000000e+00	3.969849e-01	2.115714e+14	9.947372e+14	4.765811e+14	1.448782e+04	7.539788e+03	2.291453e+03	0	8.414986e-04
1.210000e+09	9.903578e+12	0.000000e+00	3.969849e-01	2.103096e+14	9.888133e+14	4.745472e+14	1.447574e+04	7.535026e+03	2.290005e+03	0	8.386300e-04
1.220000e+09	9.802736e+12	0.000000e+00	3.969849e-01	2.090614e+14	9.829618e+14	4.725267e+14	1.446373e+04	7.530304e+03	2.288570e+03	0	8.357739e-04
1.230000e+09	9.703011e+12	0.000000e+00	3.969849e-01	2.078266e+14	9.771813e+14	4.705197e+14	1.445179e+04	7.525623e+03	2.287147e+03	0	8.329300e-04
1.240000e+09	9.604385e+12	0.000000e+00	3.969849e-01	2.066050e+14	9.714705e+14	4.685259e+14	1.443992e+04	7.520980e+03	2.285736e+03	0	8.300983e-04
1.250000e+09	9.506840e+12	0.000000e+00	3.969849e-01	2.053964e+14	9.658279e+14	4.665452e+14	1.442812e+04	7.516376e+03	2.284337e+03	0	8.272785e-04
1.260000e+09	9.410360e+12	0.000000e+00	3.969849e-01	2.042006e+14	9.602523e+14	4.645776e+14	1.441640e+04	7.511810e+03	2.282950e+03	0	8.244705e-04
1.270000e+09	9.314928e+12	0.000000e+00	3.969849e-01	2.030174e+14	9.547423e+14	4.626230e+14	1.440473e+04	7.507282e+03	2.281573e+03	0	8.216739e-04
1.280000e+09	9.220526e+12	0.000000e+00	3.969849e-01	2.018467e+14	9.492968e+14	4.606812e+14	1.439314e+04	7.502790e+03	2.280208e+03	0	8.188888e-04
1.290000e+09	9.127140e+12	0.000000e+00	3.969849e-01	2.006881e+14	9.439145e+14	4.587522e+14	1.438161e+04	7.498334e+03	2.278854e+03	0	8.161148e-04
1.300000e+09	9.034752e+12	0.000000e+00	3.969849e-01	1.995415e+14	9.385943e+14	4.568359e+14	1.437015e+04	7.493913e+03	2.277510e+03	0	8.133518e-04
1.310000e+09	8.943349e+12	0.000000e+00	3.969849e-01	1.984068e+14	9.333350e+14	4.549321e+14	1.435876e+04	7.489528e+03	2.276178e+03	0	8.105996e-04
1.320000e+09	8.852914e+12	0.000000e+00	3.969849e-01	1.972837e+14	9.281356e+14	4.530408e+14	1.434743e+04	7.485177e+03	2.274855e+03	0	8.078581e-04
1.330000e+09	8.763434e+12	0.000000e+00	3.969849e-01	1.961721e+14	9.229948e+14	4.511618e+14	1.433616e+04	7.480860e+03	2.273543e+03	0	8.051271e-04
1.340000e+09	8.674893e+12	0.000000e+00	3.969849e-01	1.950718e+14	9.179116e+14	4.492952e+14	1.432496e+04	7.476576e+03	2.272241e+03	0	8.024064e-04
1.350000e+09	8.587277e+12	0.000000e+00	3.969849e-01	1.939826e+14	9.128851e+14	4.474407e+14	1.431382e+04	7.472324e+03	2.270949e+03	0	7.996958e-04
1.360000e+09	8.500572e+12	0.000000e+00	3.969849e-01	1.929045e+14	9.079142e+14	4.455983e+14	1.430274e+04	7.468105e+03	2.269667e+03	0	7.969952e-04
