#t		Qconv[W]	Ri[Rp]		R*[Rp]		Qc[W]		Qm[W]		Qr[W]		Tcmb[K]		Tl[K]		Tup[K]		RiFlag		Bs[T]
0.000000e+00	5.618196e+13	0.000000e+00	3.969850e-01	7.595938e+14	4.541836e+15	9.369226e+14	1.812864e+04	9.806337e+03	2.843703e+03	0	1.491795e-03
1.000000e+07	5.516901e+13	0.000000e+00	3.969850e-01	7.482075e+14	4.416196e+15	9.317314e+14	1.809009e+04	9.765711e+03	2.831922e+03	0	1.482775e-03
2.000000e+07	5.418474e+13	0.000000e+00	3.969850e-01	7.371395e+14	4.297467e+15	9.265789e+14	1.805212e+04	9.726626e+03	2.820588e+03	0	1.473904e-03
3.000000e+07	5.322801e+13	0.000000e+00	3.969850e-01	7.263771e+14	4.185112e+15	9.214650e+14	1.801470e+04	9.688990e+03	2.809674e+03	0	1.465178e-03
4.000000e+07	5.229775e+13	0.000000e+00	3.969850e-01	7.159086e+14	4.078646e+15	9.163893e+14	1.797783e+04	9.652719e+03	2.799156e+03	0	1.456592e-03
5.000000e+07	5.139294e+13	0.000000e+00	3.969850e-01	7.057226e+14	3.977631e+15	9.113514e+14	1.794148e+04	9.617735e+03	2.789011e+03	0	1.448143e-03
6.000000e+07	5.051258e+13	0.000000e+00	3.969850e-01	6.958082e+14	3.881670e+15	9.063511e+14	1.790565e+04	9.583966e+03	2.779219e+03	0	1.439827e-03
7.000000e+07	4.965575e+13	0.000000e+00	3.969850e-01	6.861550e+14	3.790402e+15	9.013880e+14	1.787032e+04	9.551345e+03	2.769759e+03	0	1.431639e-03
8.000000e+07	4.882155e+13	0.000000e+00	3.969850e-01	6.767532e+14	3.703500e+15	8.964619e+14	1.783548e+04	9.519811e+03	2.760615e+03	0	1.423577e-03
9.000000e+07	4.800912e+13	0.000000e+00	3.969850e-01	6.675934e+14	3.620665e+15	8.915723e+14	1.780112e+04	9.489307e+03	2.751769e+03	0	1.415636e-03
1.000000e+08	4.721764e+13	0.000000e+00	3.969850e-01	6.586664e+14	3.541624e+15	8.867191e+14	1.776722e+04	9.459778e+03	2.743206e+03	0	1.407813e-03
1.100000e+08	4.644635e+13	0.000000e+00	3.969850e-01	6.499637e+14	3.466127e+15	8.819018e+14	1.773377e+04	9.431176e+03	2.734912e+03	0	1.400106e-03
1.200000e+08	4.569449e+13	0.000000e+00	3.969850e-01	6.414771e+14	3.393946e+15	8.771203e+14	1.770076e+04	9.403454e+03	2.726873e+03	0	1.392510e-03
1.300000e+08	4.496137e+13	0.000000e+00	3.969850e-01	6.331988e+14	3.324871e+15	8.723742e+14	1.766818e+04	9.376570e+03	2.719077e+03	0	1.385022e-03
1.400000e+08	4.424629e+13	0.000000e+00	3.969850e-01	6.251212e+14	3.258709e+15	8.676632e+14	1.763601e+04	9.350482e+03	2.711511e+03	0	1.377641e-03
1.500000e+08	4.354863e+13	0.000000e+00	3.969850e-01	6.172373e+14	3.195281e+15	8.629871e+14	1.760426e+04	9.325153e+03	2.704166e+03	0	1.370361e-03
1.600000e+08	4.286776e+13	0.000000e+00	3.969850e-01	6.095403e+14	3.134425e+15	8.583454e+14	1.757290e+04	9.300547e+03	2.697031e+03	0	1.363182e-03
1.700000e+08	4.220309e+13	0.000000e+00	3.969850e-01	6.020236e+14	3.075988e+15	8.537381e+14	1.754194e+04	9.276632e+03	2.690096e+03	0	1.356100e-03
1.800000e+08	4.155406e+13	0.000000e+00	3.969850e-01	5.946809e+14	3.019831e+15	8.491647e+14	1.751135e+04	9.253377e+03	2.683352e+03	0	1.349112e-03
1.900000e+08	4.092014e+13	0.000000e+00	3.969850e-01	5.875065e+14	2.965824e+15	8.446249e+14	1.748114e+04	9.230751e+03	2.676791e+03	0	1.342217e-03
2.000000e+08	4.030082e+13	0.000000e+00	3.969850e-01	5.804945e+14	2.913847e+15	8.401186e+14	1.745129e+04	9.208728e+03	2.670405e+03	0	1.335411e-03
2.100000e+08	3.969559e+13	0.000000e+00	3.969850e-01	5.736396e+14	2.863788e+15	8.356455e+14	1.742179e+04	9.187281e+03	2.664185e+03	0	1.328692e-03
2.200000e+08	3.910399e+13	0.000000e+00	3.969850e-01	5.669365e+14	2.815544e+15	8.312051e+14	1.739265e+04	9.166386e+03	2.658126e+03	0	1.322058e-03
2.300000e+08	3.852558e+13	0.000000e+00	3.969850e-01	5.603803e+14	2.769017e+15	8.267974e+14	1.736384e+04	9.146020e+03	2.652220e+03	0	1.315508e-03
2.400000e+08	3.795991e+13	0.000000e+00	3.969850e-01	5.539661e+14	2.724118e+15	8.224220e+14	1.733536e+04	9.126161e+03	2.646462e+03	0	1.309037e-03
2.500000e+08	3.740659e+13	0.000000e+00	3.969850e-01	5.476896e+14	2.680763e+15	8.180786e+14	1.730721e+04	9.106789e+03	2.640844e+03	0	1.302646e-03
2.600000e+08	3.686520e+13	0.000000e+00	3.969850e-01	5.415462e+14	2.638874e+15	8.137670e+14	1.727937e+04	9.087884e+03	2.635362e+03	0	1.296331e-03
2.700000e+08	3.633539e+13	0.000000e+00	3.969850e-01	5.355317e+14	2.598377e+15	8.094869e+14	1.725185e+04	9.069428e+03	2.630010e+03	0	1.290091e-03
2.800000e+08	3.581678e+13	0.000000e+00	3.969850e-01	5.296423e+14	2.559204e+15	8.052381e+14	1.722463e+04	9.051403e+03	2.624783e+03	0	1.283924e-03
2.900000e+08	3.530902e+13	0.000000e+00	3.969850e-01	5.238739e+14	2.521291e+15	8.010203e+14	1.719771e+04	9.033792e+03	2.619676e+03	0	1.277827e-03
3.000000e+08	3.481179e+13	0.000000e+00	3.969850e-01	5.182229e+14	2.484577e+15	7.968333e+14	1.717108e+04	9.016580e+03	2.614685e+03	0	1.271801e-03
3.100000e+08	3.432476e+13	0.000000e+00	3.969850e-01	5.126858e+14	2.449006e+15	7.926767e+14	1.714474e+04	8.999752e+03	2.609805e+03	0	1.265842e-03
3.200000e+08	3.384762e+13	0.000000e+00	3.969850e-01	5.072592e+14	2.414524e+15	7.885504e+14	1.711867e+04	8.983294e+03	2.605032e+03	0	1.259949e-03
3.300000e+08	3.338008e+13	0.000000e+00	3.969850e-01	5.019397e+14	2.381083e+15	7.844541e+14	1.709289e+04	8.967193e+03	2.600363e+03	0	1.254121e-03
3.400000e+08	3.292186e+13	0.000000e+00	3.969850e-01	4.967243e+14	2.348635e+15	7.803876e+14	1.706737e+04	8.951434e+03	2.595793e+03	0	1.248356e-03
3.500000e+08	3.247268e+13	0.000000e+00	3.969850e-01	4.916098e+14	2.317136e+15	7.763505e+14	1.704212e+04	8.936007e+03	2.591319e+03	0	1.242652e-03
3.600000e+08	3.203228e+13	0.000000e+00	3.969850e-01	4.865935e+14	2.286544e+15	7.723427e+14	1.701712e+04	8.920900e+03	2.586939e+03	0	1.237009e-03
3.700000e+08	3.160041e+13	0.000000e+00	3.969850e-01	4.816725e+14	2.256820e+15	7.683640e+14	1.699238e+04	8.906101e+03	2.582647e+03	0	1.231425e-03
3.800000e+08	3.117682e+13	0.000000e+00	3.969850e-01	4.768440e+14	2.227927e+15	7.644140e+14	1.696789e+04	8.891600e+03	2.578442e+03	0	1.225898e-03
3.900000e+08	3.076129e+13	0.000000e+00	3.969850e-01	4.721056e+14	2.199830e+15	7.604926e+14	1.694365e+04	8.877386e+03	2.574320e+03	0	1.220427e-03
4.000000e+08	3.035358e+13	0.000000e+00	3.969850e-01	4.674547e+14	2.172496e+15	7.565995e+14	1.691964e+04	8.863451e+03	2.570279e+03	0	1.215011e-03
4.100000e+08	2.995348e+13	0.000000e+00	3.969850e-01	4.628889e+14	2.145893e+15	7.527345e+14	1.689587e+04	8.849785e+03	2.566316e+03	0	1.209649e-03
4.200000e+08	2.956079e+13	0.000000e+00	3.969850e-01	4.584059e+14	2.119992e+15	7.488973e+14	1.687233e+04	8.836380e+03	2.562429e+03	0	1.204340e-03
4.300000e+08	2.917529e+13	0.000000e+00	3.969850e-01	4.540035e+14	2.094764e+15	7.450878e+14	1.684902e+04	8.823225e+03	2.558614e+03	0	1.199082e-03
4.400000e+08	2.879680e+13	0.000000e+00	3.969850e-01	4.496794e+14	2.070184e+15	7.413057e+14	1.682593e+04	8.810315e+03	2.554870e+03	0	1.193874e-03
4.500000e+08	2.842513e+13	0.000000e+00	3.969850e-01	4.454318e+14	2.046226e+15	7.375507e+14	1.680306e+04	8.797640e+03	2.551195e+03	0	1.188715e-03
4.600000e+08	2.806010e+13	0.000000e+00	3.969850e-01	4.412584e+14	2.022865e+15	7.338228e+14	1.678041e+04	8.785195e+03	2.547586e+03	0	1.183605e-03
4.700000e+08	2.770154e+13	0.000000e+00	3.969850e-01	4.371574e+14	2.000080e+15	7.301215e+14	1.675797e+04	8.772970e+03	2.544041e+03	0	1.178542e-03
4.800000e+08	2.734927e+13	0.000000e+00	3.969850e-01	4.331270e+14	1.977848e+15	7.264468e+14	1.673573e+04	8.760961e+03	2.540558e+03	0	1.173525e-03
4.900000e+08	2.700314e+13	0.000000e+00	3.969850e-01	4.291653e+14	1.956149e+15	7.227984e+14	1.671370e+04	8.749159e+03	2.537136e+03	0	1.168553e-03
5.000000e+08	2.666298e+13	0.000000e+00	3.969850e-01	4.252706e+14	1.934963e+15	7.191760e+14	1.669187e+04	8.737560e+03	2.533772e+03	0	1.163625e-03
5.100000e+08	2.632866e+13	0.000000e+00	3.969850e-01	4.214412e+14	1.914272e+15	7.155796e+14	1.667024e+04	8.726156e+03	2.530466e+03	0	1.158741e-03
5.200000e+08	2.600001e+13	0.000000e+00	3.969850e-01	4.176754e+14	1.894058e+15	7.120088e+14	1.664881e+04	8.714943e+03	2.527214e+03	0	1.153900e-03
5.300000e+08	2.567690e+13	0.000000e+00	3.969850e-01	4.139718e+14	1.874304e+15	7.084635e+14	1.662756e+04	8.703914e+03	2.524016e+03	0	1.149100e-03
5.400000e+08	2.535919e+13	0.000000e+00	3.969850e-01	4.103287e+14	1.854994e+15	7.049434e+14	1.660650e+04	8.693065e+03	2.520870e+03	0	1.144341e-03
5.500000e+08	2.504675e+13	0.000000e+00	3.969850e-01	4.067447e+14	1.836113e+15	7.014484e+14	1.658563e+04	8.682390e+03	2.517774e+03	0	1.139622e-03
5.600000e+08	2.473946e+13	0.000000e+00	3.969850e-01	4.032185e+14	1.817645e+15	6.979782e+14	1.656494e+04	8.671884e+03	2.514727e+03	0	1.134942e-03
5.700000e+08	2.443718e+13	0.000000e+00	3.969850e-01	3.997485e+14	1.799577e+15	6.945327e+14	1.654442e+04	8.661543e+03	2.511729e+03	0	1.130301e-03
5.800000e+08	2.413979e+13	0.000000e+00	3.969850e-01	3.963335e+14	1.781896e+15	6.911116e+14	1.652409e+04	8.651362e+03	2.508776e+03	0	1.125697e-03
5.900000e+08	2.384719e+13	0.000000e+00	3.969850e-01	3.929721e+14	1.764588e+15	6.877148e+14	1.650392e+04	8.641337e+03	2.505869e+03	0	1.121130e-03
6.000000e+08	2.355926e+13	0.000000e+00	3.969850e-01	3.896632e+14	1.747641e+15	6.843420e+14	1.648393e+04	8.631463e+03	2.503006e+03	0	1.116600e-03
6.100000e+08	2.327589e+13	0.000000e+00	3.969850e-01	3.864055e+14	1.731045e+15	6.809931e+14	1.646410e+04	8.621736e+03	2.500185e+03	0	1.112105e-03
6.200000e+08	2.299697e+13	0.000000e+00	3.969850e-01	3.831978e+14	1.714786e+15	6.776678e+14	1.644444e+04	8.612153e+03	2.497406e+03	0	1.107645e-03
6.300000e+08	2.272241e+13	0.000000e+00	3.969850e-01	3.800391e+14	1.698856e+15	6.743660e+14	1.642495e+04	8.602709e+03	2.494668e+03	0	1.103219e-03
6.400000e+08	2.245209e+13	0.000000e+00	3.969850e-01	3.769281e+14	1.683242e+15	6.710875e+14	1.640561e+04	8.593402e+03	2.491969e+03	0	1.098827e-03
6.500000e+08	2.218594e+13	0.000000e+00	3.969850e-01	3.738638e+14	1.667937e+15	6.678321e+14	1.638643e+04	8.584227e+03	2.489308e+03	0	1.094468e-03
6.600000e+08	2.192384e+13	0.000000e+00	3.969850e-01	3.708452e+14	1.652929e+15	6.645996e+14	1.636741e+04	8.575180e+03	2.486685e+03	0	1.090141e-03
6.700000e+08	2.166572e+13	0.000000e+00	3.969850e-01	3.678713e+14	1.638210e+15	6.613898e+14	1.634854e+04	8.566260e+03	2.484098e+03	0	1.085845e-03
6.800000e+08	2.141148e+13	0.000000e+00	3.969850e-01	3.649411e+14	1.623772e+15	6.582026e+14	1.632982e+04	8.557463e+03	2.481547e+03	0	1.081581e-03
6.900000e+08	2.116104e+13	0.000000e+00	3.969850e-01	3.620536e+14	1.609606e+15	6.550377e+14	1.631125e+04	8.548784e+03	2.479030e+03	0	1.077348e-03
7.000000e+08	2.091432e+13	0.000000e+00	3.969850e-01	3.592079e+14	1.595703e+15	6.518950e+14	1.629282e+04	8.540223e+03	2.476548e+03	0	1.073145e-03
7.100000e+08	2.067124e+13	0.000000e+00	3.969850e-01	3.564031e+14	1.582057e+15	6.487743e+14	1.627454e+04	8.531775e+03	2.474098e+03	0	1.068971e-03
7.200000e+08	2.043171e+13	0.000000e+00	3.969850e-01	3.536384e+14	1.568659e+15	6.456755e+14	1.625641e+04	8.523438e+03	2.471680e+03	0	1.064826e-03
7.300000e+08	2.019566e+13	0.000000e+00	3.969850e-01	3.509129e+14	1.555503e+15	6.425983e+14	1.623841e+04	8.515210e+03	2.469294e+03	0	1.060709e-03
7.400000e+08	1.996302e+13	0.000000e+00	3.969850e-01	3.482257e+14	1.542582e+15	6.395425e+14	1.622055e+04	8.507087e+03	2.466939e+03	0	1.056621e-03
7.500000e+08	1.973372e+13	0.000000e+00	3.969850e-01	3.455761e+14	1.529889e+15	6.365081e+14	1.620283e+04	8.499067e+03	2.464613e+03	0	1.052559e-03
7.600000e+08	1.950768e+13	0.000000e+00	3.969850e-01	3.429634e+14	1.517418e+15	6.334948e+14	1.618524e+04	8.491149e+03	2.462317e+03	0	1.048525e-03
7.700000e+08	1.928484e+13	0.000000e+00	3.969850e-01	3.403866e+14	1.505163e+15	6.305025e+14	1.616779e+04	8.483328e+03	2.460049e+03	0	1.044517e-03
7.800000e+08	1.906514e+13	0.000000e+00	3.969850e-01	3.378452e+14	1.493117e+15	6.275310e+14	1.615046e+04	8.475604e+03	2.457809e+03	0	1.040536e-03
7.900000e+08	1.884850e+13	0.000000e+00	3.969850e-01	3.353384e+14	1.481276e+15	6.245801e+14	1.613327e+04	8.467974e+03	2.455596e+03	0	1.036579e-03
8.000000e+08	1.863487e+13	0.000000e+00	3.969850e-01	3.328655e+14	1.469633e+15	6.216497e+14	1.611620e+04	8.460435e+03	2.453410e+03	0	1.032648e-03
8.100000e+08	1.842419e+13	0.000000e+00	3.969850e-01	3.304258e+14	1.458184e+15	6.187396e+14	1.609926e+04	8.452986e+03	2.451250e+03	0	1.028742e-03
8.200000e+08	1.821639e+13	0.000000e+00	3.969850e-01	3.280186e+14	1.446923e+15	6.158496e+14	1.608244e+04	8.445625e+03	2.449115e+03	0	1.024860e-03
8.300000e+08	1.801142e+13	0.000000e+00	3.969850e-01	3.256434e+14	1.435846e+15	6.129796e+14	1.606574e+04	8.438350e+03	2.447006e+03	0	1.021001e-03
8.400000e+08	1.780923e+13	0.000000e+00	3.969850e-01	3.232995e+14	1.424947e+15	6.101294e+14	1.604916e+04	8.431159e+03	2.444920e+03	0	1.017166e-03
8.500000e+08	1.760975e+13	0.000000e+00	3.969850e-01	3.209862e+14	1.414223e+15	6.072989e+14	1.603271e+04	8.424050e+03	2.442859e+03	0	1.013354e-03
8.600000e+08	1.741294e+13	0.000000e+00	3.969850e-01	3.187030e+14	1.403668e+15	6.044879e+14	1.601637e+04	8.417021e+03	2.440821e+03	0	1.009565e-03
8.700000e+08	1.721875e+13	0.000000e+00	3.969850e-01	3.164494e+14	1.393278e+15	6.016963e+14	1.600015e+04	8.410070e+03	2.438805e+03	0	1.005798e-03
8.800000e+08	1.702711e+13	0.000000e+00	3.969850e-01	3.142247e+14	1.383050e+15	5.989238e+14	1.598404e+04	8.403197e+03	2.436812e+03	0	1.002053e-03
8.900000e+08	1.683799e+13	0.000000e+00	3.969850e-01	3.120284e+14	1.372979e+15	5.961704e+14	1.596804e+04	8.396399e+03	2.434840e+03	0	9.983292e-04
9.000000e+08	1.665134e+13	0.000000e+00	3.969850e-01	3.098600e+14	1.363062e+15	5.934359e+14	1.595216e+04	8.389674e+03	2.432890e+03	0	9.946266e-04
9.100000e+08	1.646711e+13	0.000000e+00	3.969850e-01	3.077189e+14	1.353295e+15	5.907202e+14	1.593638e+04	8.383022e+03	2.430961e+03	0	9.909448e-04
9.200000e+08	1.628525e+13	0.000000e+00	3.969850e-01	3.056047e+14	1.343673e+15	5.880230e+14	1.592072e+04	8.376441e+03	2.429053e+03	0	9.872834e-04
9.300000e+08	1.610573e+13	0.000000e+00	3.969850e-01	3.035168e+14	1.334195e+15	5.853443e+14	1.590516e+04	8.369928e+03	2.427164e+03	0	9.836420e-04
9.400000e+08	1.592849e+13	0.000000e+00	3.969850e-01	3.014548e+14	1.324856e+15	5.826839e+14	1.588971e+04	8.363484e+03	2.425296e+03	0	9.800205e-04
9.500000e+08	1.575349e+13	0.000000e+00	3.969850e-01	2.994181e+14	1.315653e+15	5.800417e+14	1.587436e+04	8.357106e+03	2.423446e+03	0	9.764183e-04
9.600000e+08	1.558070e+13	0.000000e+00	3.969850e-01	2.974064e+14	1.306582e+15	5.774175e+14	1.585912e+04	8.350793e+03	2.421615e+03	0	9.728353e-04
9.700000e+08	1.541007e+13	0.000000e+00	3.969850e-01	2.954192e+14	1.297642e+15	5.748111e+14	1.584397e+04	8.344544e+03	2.419803e+03	0	9.692710e-04
9.800000e+08	1.524157e+13	0.000000e+00	3.969850e-01	2.934560e+14	1.288829e+15	5.722225e+14	1.582893e+04	8.338358e+03	2.418009e+03	0	9.657251e-04
9.900000e+08	1.507515e+13	0.000000e+00	3.969850e-01	2.915164e+14	1.280139e+15	5.696515e+14	1.581399e+04	8.332233e+03	2.416233e+03	0	9.621974e-04
1.000000e+09	1.491078e+13	0.000000e+00	3.969850e-01	2.896000e+14	1.271571e+15	5.670980e+14	1.579915e+04	8.326168e+03	2.414474e+03	0	9.586876e-04
1.010000e+09	1.474843e+13	0.000000e+00	3.969850e-01	2.877064e+14	1.263122e+15	5.645617e+14	1.578440e+04	8.320162e+03	2.412733e+03	0	9.551954e-04
1.020000e+09	1.458805e+13	0.000000e+00	3.969850e-01	2.858352e+14	1.254788e+15	5.620426e+14	1.576976e+04	8.314214e+03	2.411008e+03	0	9.517203e-04
1.030000e+09	1.442961e+13	0.000000e+00	3.969850e-01	2.839860e+14	1.246568e+15	5.595406e+14	1.575520e+04	8.308323e+03	2.409300e+03	0	9.482623e-04
1.040000e+09	1.427308e+13	0.000000e+00	3.969850e-01	2.821584e+14	1.238458e+15	5.570555e+14	1.574074e+04	8.302488e+03	2.407608e+03	0	9.448210e-04
1.050000e+09	1.411842e+13	0.000000e+00	3.969850e-01	2.803520e+14	1.230458e+15	5.545872e+14	1.572637e+04	8.296708e+03	2.405931e+03	0	9.413961e-04
1.060000e+09	1.396561e+13	0.000000e+00	3.969850e-01	2.785665e+14	1.222563e+15	5.521355e+14	1.571210e+04	8.290981e+03	2.404271e+03	0	9.379873e-04
1.070000e+09	1.381461e+13	0.000000e+00	3.969850e-01	2.768016e+14	1.214773e+15	5.497003e+14	1.569792e+04	8.285307e+03	2.402625e+03	0	9.345944e-04
1.080000e+09	1.366539e+13	0.000000e+00	3.969850e-01	2.750568e+14	1.207084e+15	5.472816e+14	1.568382e+04	8.279684e+03	2.400995e+03	0	9.312172e-04
1.090000e+09	1.351792e+13	0.000000e+00	3.969850e-01	2.733319e+14	1.199495e+15	5.448791e+14	1.566981e+04	8.274112e+03	2.399379e+03	0	9.278553e-04
1.100000e+09	1.337217e+13	0.000000e+00	3.969850e-01	2.716265e+14	1.192003e+15	5.424927e+14	1.565590e+04	8.268591e+03	2.397778e+03	0	9.245084e-04
1.110000e+09	1.322810e+13	0.000000e+00	3.969850e-01	2.699403e+14	1.184607e+15	5.401223e+14	1.564206e+04	8.263118e+03	2.396191e+03	0	9.211765e-04
1.120000e+09	1.308571e+13	0.000000e+00	3.969850e-01	2.682730e+14	1.177305e+15	5.377678e+14	1.562832e+04	8.257694e+03	2.394618e+03	0	9.178591e-04
1.130000e+09	1.294494e+13	0.000000e+00	3.969850e-01	2.666242e+14	1.170095e+15	5.354291e+14	1.561466e+04	8.252316e+03	2.393058e+03	0	9.145561e-04
1.140000e+09	1.280579e+13	0.000000e+00	3.969850e-01	2.649937e+14	1.162974e+15	5.331059e+14	1.560108e+04	8.246985e+03	2.391513e+03	0	9.112673e-04
1.150000e+09	1.266822e+13	0.000000e+00	3.969850e-01	2.633811e+14	1.155942e+15	5.307983e+14	1.558758e+04	8.241700e+03	2.389980e+03	0	9.079923e-04
1.160000e+09	1.253220e+13	0.000000e+00	3.969850e-01	2.617863e+14	1.148996e+15	5.285061e+14	1.557417e+04	8.236460e+03	2.388460e+03	0	9.047309e-04
1.170000e+09	1.239772e+13	0.000000e+00	3.969850e-01	2.602088e+14	1.142134e+15	5.262292e+14	1.556084e+04	8.231264e+03	2.386954e+03	0	9.014830e-04
1.180000e+09	1.226474e+13	0.000000e+00	3.969850e-01	2.586484e+14	1.135356e+15	5.239674e+14	1.554759e+04	8.226111e+03	2.385459e+03	0	8.982483e-04
1.190000e+09	1.213324e+13	0.000000e+00	3.969850e-01	2.571048e+14	1.128659e+15	5.217207e+14	1.553441e+04	8.221001e+03	2.383977e+03	0	8.950265e-04
1.200000e+09	1.200320e+13	0.000000e+00	3.969850e-01	2.555779e+14	1.122042e+15	5.194888e+14	1.552132e+04	8.215933e+03	2.382508e+03	0	8.918175e-04
1.210000e+09	1.187460e+13	0.000000e+00	3.969850e-01	2.540672e+14	1.115504e+15	5.172718e+14	1.550830e+04	8.210906e+03	2.381050e+03	0	8.886210e-04
1.220000e+09	1.174740e+13	0.000000e+00	3.969850e-01	2.525726e+14	1.109042e+15	5.150695e+14	1.549536e+04	8.205919e+03	2.379604e+03	0	8.854368e-04
1.230000e+09	1.162160e+13	0.000000e+00	3.969850e-01	2.510938e+14	1.102656e+15	5.128817e+14	1.548250e+04	8.200973e+03	2.378170e+03	0	8.822648e-04
1.240000e+09	1.149716e+13	0.000000e+00	3.969850e-01	2.496306e+14	1.096344e+15	5.107084e+14	1.546971e+04	8.196065e+03	2.376746e+03	0	8.791046e-04
1.250000e+09	1.137408e+13	0.000000e+00	3.969850e-01	2.481827e+14	1.090104e+15	5.085494e+14	1.545700e+04	8.191196e+03	2.375335e+03	0	8.759561e-04
1.260000e+09	1.125231e+13	0.000000e+00	3.969850e-01	2.467499e+14	1.083936e+15	5.064047e+14	1.544436e+04	8.186366e+03	2.373934e+03	0	8.728191e-04
1.270000e+09	1.113186e+13	0.000000e+00	3.969850e-01	2.453319e+14	1.077838e+15	5.042741e+14	1.543179e+04	8.181572e+03	2.372544e+03	0	8.696934e-04
1.280000e+09	1.101269e+13	0.000000e+00	3.969850e-01	2.439286e+14	1.071809e+15	5.021575e+14	1.541930e+04	8.176816e+03	2.371164e+03	0	8.665788e-04
1.290000e+09	1.089478e+13	0.000000e+00	3.969850e-01	2.425397e+14	1.065847e+15	5.000548e+14	1.540687e+04	8.172095e+03	2.369796e+03	0	8.634750e-04
1.300000e+09	1.077812e+13	0.000000e+00	3.969850e-01	2.411650e+14	1.059951e+15	4.979659e+14	1.539452e+04	8.167410e+03	2.368437e+03	0	8.603820e-04
1.310000e+09	1.066269e+13	0.000000e+00	3.969850e-01	2.398042e+14	1.054121e+15	4.958907e+14	1.538223e+04	8.162761e+03	2.367089e+03	0	8.572994e-04
1.320000e+09	1.054846e+13	0.000000e+00	3.969850e-01	2.384573e+14	1.048355e+15	4.938291e+14	1.537002e+04	8.158146e+03	2.365750e+03	0	8.542272e-04
1.330000e+09	1.043543e+13	0.000000e+00	3.969850e-01	2.371239e+14	1.042651e+15	4.917810e+14	1.535787e+04	8.153565e+03	2.364422e+03	0	8.511651e-04
1.340000e+09	1.032357e+13	0.000000e+00	3.969850e-01	2.358039e+14	1.037010e+15	4.897463e+14	1.534580e+04	8.149017e+03	2.363103e+03	0	8.481129e-04
1.350000e+09	1.021287e+13	0.000000e+00	3.969850e-01	2.344970e+14	1.031429e+15	4.877249e+14	1.533378e+04	8.144502e+03	2.361794e+03	0	8.450705e-04
1.360000e+09	1.010331e+13	0.000000e+00	3.969850e-01	2.332032e+14	1.025908e+15	4.857166e+14	1.532184e+04	8.140020e+03	2.360494e+03	0	8.420376e-04
