#t		Qconv[W]	Ri[Rp]		R*[Rp]		Qc[W]		Qm[W]		Qr[W]		Tcmb[K]		Tl[K]		Tup[K]		RiFlag		Bs[T]
0.000000e+00	7.285421e+13	0.000000e+00	3.969849e-01	9.415489e+14	4.353590e+15	1.060880e+15	2.004898e+04	1.077870e+04	2.911933e+03	0	1.621742e-03
1.000000e+07	7.162613e+13	0.000000e+00	3.969849e-01	9.288385e+14	4.265072e+15	1.055002e+15	2.000824e+04	1.074819e+04	2.903691e+03	0	1.612578e-03
2.000000e+07	7.042887e+13	0.000000e+00	3.969849e-01	9.164419e+14	4.180268e+15	1.049168e+15	1.996804e+04	1.071858e+04	2.895692e+03	0	1.603543e-03
3.000000e+07	6.926131e+13	0.000000e+00	3.969849e-01	9.043480e+14	4.098952e+15	1.043378e+15	1.992837e+04	1.068983e+04	2.887924e+03	0	1.594632e-03
4.000000e+07	6.812241e+13	0.000000e+00	3.969849e-01	8.925461e+14	4.020916e+15	1.037630e+15	1.988923e+04	1.066189e+04	2.880377e+03	0	1.585843e-03
5.000000e+07	6.701116e+13	0.000000e+00	3.969849e-01	8.810260e+14	3.945967e+15	1.031926e+15	1.985059e+04	1.063474e+04	2.873040e+03	0	1.577173e-03
6.000000e+07	6.592659e+13	0.000000e+00	3.969849e-01	8.697780e+14	3.873926e+15	1.026264e+15	1.981245e+04	1.060832e+04	2.865904e+03	0	1.568618e-03
7.000000e+07	6.486779e+13	0.000000e+00	3.969849e-01	8.587928e+14	3.804628e+15	1.020644e+15	1.977480e+04	1.058262e+04	2.858961e+03	0	1.560175e-03
8.000000e+07	6.383388e+13	0.000000e+00	3.969849e-01	8.480613e+14	3.737920e+15	1.015066e+15	1.973761e+04	1.055760e+04	2.852200e+03	0	1.551841e-03
9.000000e+07	6.282402e+13	0.000000e+00	3.969849e-01	8.375752e+14	3.673660e+15	1.009530e+15	1.970090e+04	1.053322e+04	2.845616e+03	0	1.543614e-03
1.000000e+08	6.183740e+13	0.000000e+00	3.969849e-01	8.273263e+14	3.611716e+15	1.004035e+15	1.966463e+04	1.050947e+04	2.839199e+03	0	1.535491e-03
1.100000e+08	6.087325e+13	0.000000e+00	3.969849e-01	8.173067e+14	3.551964e+15	9.985801e+14	1.962881e+04	1.048632e+04	2.832944e+03	0	1.527469e-03
1.200000e+08	5.993083e+13	0.000000e+00	3.969849e-01	8.075090e+14	3.494291e+15	9.931660e+14	1.959341e+04	1.046373e+04	2.826842e+03	0	1.519545e-03
1.300000e+08	5.900944e+13	0.000000e+00	3.969849e-01	7.979260e+14	3.438588e+15	9.877920e+14	1.955844e+04	1.044170e+04	2.820889e+03	0	1.511718e-03
1.400000e+08	5.810841e+13	0.000000e+00	3.969849e-01	7.885508e+14	3.384757e+15	9.824577e+14	1.952389e+04	1.042019e+04	2.815079e+03	0	1.503984e-03
1.500000e+08	5.722708e+13	0.000000e+00	3.969849e-01	7.793770e+14	3.332704e+15	9.771629e+14	1.948974e+04	1.039918e+04	2.809404e+03	0	1.496342e-03
1.600000e+08	5.636482e+13	0.000000e+00	3.969849e-01	7.703980e+14	3.282342e+15	9.719071e+14	1.945598e+04	1.037867e+04	2.803861e+03	0	1.488788e-03
1.700000e+08	5.552106e+13	0.000000e+00	3.969849e-01	7.616080e+14	3.233589e+15	9.666902e+14	1.942261e+04	1.035861e+04	2.798444e+03	0	1.481322e-03
1.800000e+08	5.469520e+13	0.000000e+00	3.969849e-01	7.530011e+14	3.186369e+15	9.615117e+14	1.938962e+04	1.033901e+04	2.793148e+03	0	1.473941e-03
1.900000e+08	5.388671e+13	0.000000e+00	3.969849e-01	7.445717e+14	3.140608e+15	9.563714e+14	1.935701e+04	1.031984e+04	2.787970e+03	0	1.466642e-03
2.000000e+08	5.309505e+13	0.000000e+00	3.969849e-01	7.363145e+14	3.096241e+15	9.512689e+14	1.932475e+04	1.030109e+04	2.782903e+03	0	1.459424e-03
2.100000e+08	5.231972e+13	0.000000e+00	3.969849e-01	7.282243e+14	3.053203e+15	9.462039e+14	1.929285e+04	1.028274e+04	2.777945e+03	0	1.452286e-03
2.200000e+08	5.156023e+13	0.000000e+00	3.969849e-01	7.202961e+14	3.011434e+15	9.411761e+14	1.926131e+04	1.026477e+04	2.773091e+03	0	1.445224e-03
2.300000e+08	5.081611e+13	0.000000e+00	3.969849e-01	7.125253e+14	2.970879e+15	9.361852e+14	1.923010e+04	1.024718e+04	2.768339e+03	0	1.438238e-03
2.400000e+08	5.008692e+13	0.000000e+00	3.969849e-01	7.049073e+14	2.931484e+15	9.312309e+14	1.919923e+04	1.022994e+04	2.763683e+03	0	1.431325e-03
2.500000e+08	4.937222e+13	0.000000e+00	3.969849e-01	6.974376e+14	2.893199e+15	9.263129e+14	1.916869e+04	1.021306e+04	2.759121e+03	0	1.424485e-03
2.600000e+08	4.867159e+13	0.000000e+00	3.969849e-01	6.901121e+14	2.855977e+15	9.214308e+14	1.913847e+04	1.019651e+04	2.754650e+03	0	1.417715e-03
2.700000e+08	4.798464e+13	0.000000e+00	3.969849e-01	6.829266e+14	2.819773e+15	9.165845e+14	1.910856e+04	1.018028e+04	2.750266e+03	0	1.411013e-03
2.800000e+08	4.731097e+13	0.000000e+00	3.969849e-01	6.758772e+14	2.784545e+15	9.117736e+14	1.907897e+04	1.016437e+04	2.745967e+03	0	1.404379e-03
2.900000e+08	4.665022e+13	0.000000e+00	3.969849e-01	6.689602e+14	2.750254e+15	9.069977e+14	1.904968e+04	1.014876e+04	2.741750e+03	0	1.397810e-03
3.000000e+08	4.600202e+13	0.000000e+00	3.969849e-01	6.621719e+14	2.716861e+15	9.022567e+14	1.902069e+04	1.013344e+04	2.737611e+03	0	1.391306e-03
3.100000e+08	4.536604e+13	0.000000e+00	3.969849e-01	6.555088e+14	2.684330e+15	8.975503e+14	1.899200e+04	1.011840e+04	2.733550e+03	0	1.384864e-03
3.200000e+08	4.474194e+13	0.000000e+00	3.969849e-01	6.489675e+14	2.652628e+15	8.928780e+14	1.896359e+04	1.010364e+04	2.729562e+03	0	1.378484e-03
3.300000e+08	4.412940e+13	0.000000e+00	3.969849e-01	6.425448e+14	2.621723e+15	8.882398e+14	1.893546e+04	1.008915e+04	2.725646e+03	0	1.372165e-03
3.400000e+08	4.352810e+13	0.000000e+00	3.969849e-01	6.362375e+14	2.591583e+15	8.836352e+14	1.890761e+04	1.007491e+04	2.721800e+03	0	1.365904e-03
3.500000e+08	4.293776e+13	0.000000e+00	3.969849e-01	6.300426e+14	2.562181e+15	8.790640e+14	1.888004e+04	1.006092e+04	2.718021e+03	0	1.359701e-03
3.600000e+08	4.235808e+13	0.000000e+00	3.969849e-01	6.239571e+14	2.533487e+15	8.745260e+14	1.885273e+04	1.004718e+04	2.714307e+03	0	1.353554e-03
3.700000e+08	4.178879e+13	0.000000e+00	3.969849e-01	6.179782e+14	2.505477e+15	8.700209e+14	1.882568e+04	1.003366e+04	2.710657e+03	0	1.347463e-03
3.800000e+08	4.122961e+13	0.000000e+00	3.969849e-01	6.121032e+14	2.478125e+15	8.655483e+14	1.879890e+04	1.002038e+04	2.707068e+03	0	1.341426e-03
3.900000e+08	4.068028e+13	0.000000e+00	3.969849e-01	6.063295e+14	2.451408e+15	8.611081e+14	1.877236e+04	1.000732e+04	2.703538e+03	0	1.335442e-03
4.000000e+08	4.014057e+13	0.000000e+00	3.969849e-01	6.006544e+14	2.425301e+15	8.566999e+14	1.874608e+04	9.994466e+03	2.700067e+03	0	1.329509e-03
4.100000e+08	3.961021e+13	0.000000e+00	3.969849e-01	5.950755e+14	2.399786e+15	8.523235e+14	1.872004e+04	9.981824e+03	2.696652e+03	0	1.323628e-03
4.200000e+08	3.908898e+13	0.000000e+00	3.969849e-01	5.895904e+14	2.374839e+15	8.479787e+14	1.869424e+04	9.969384e+03	2.693291e+03	0	1.317797e-03
4.300000e+08	3.857666e+13	0.000000e+00	3.969849e-01	5.841968e+14	2.350443e+15	8.436652e+14	1.866868e+04	9.957140e+03	2.689983e+03	0	1.312014e-03
4.400000e+08	3.807301e+13	0.000000e+00	3.969849e-01	5.788925e+14	2.326578e+15	8.393827e+14	1.864335e+04	9.945088e+03	2.686727e+03	0	1.306279e-03
4.500000e+08	3.757783e+13	0.000000e+00	3.969849e-01	5.736754e+14	2.303226e+15	8.351309e+14	1.861826e+04	9.933220e+03	2.683521e+03	0	1.300591e-03
4.600000e+08	3.709092e+13	0.000000e+00	3.969849e-01	5.685432e+14	2.280370e+15	8.309097e+14	1.859338e+04	9.921533e+03	2.680364e+03	0	1.294949e-03
4.700000e+08	3.661208e+13	0.000000e+00	3.969849e-01	5.634940e+14	2.257994e+15	8.267188e+14	1.856873e+04	9.910021e+03	2.677254e+03	0	1.289353e-03
4.800000e+08	3.614110e+13	0.000000e+00	3.969849e-01	5.585258e+14	2.236083e+15	8.225579e+14	1.854430e+04	9.898680e+03	2.674190e+03	0	1.283800e-03
4.900000e+08	3.567781e+13	0.000000e+00	3.969849e-01	5.536368e+14	2.214620e+15	8.184268e+14	1.852008e+04	9.887505e+03	2.671171e+03	0	1.278291e-03
5.000000e+08	3.522203e+13	0.000000e+00	3.969849e-01	5.488250e+14	2.193593e+15	8.143252e+14	1.849608e+04	9.876492e+03	2.668196e+03	0	1.272824e-03
5.100000e+08	3.477358e+13	0.000000e+00	3.969849e-01	5.440887e+14	2.172987e+15	8.102529e+14	1.847228e+04	9.865636e+03	2.665263e+03	0	1.267399e-03
5.200000e+08	3.433228e+13	0.000000e+00	3.969849e-01	5.394262e+14	2.152789e+15	8.062097e+14	1.844868e+04	9.854934e+03	2.662372e+03	0	1.262015e-03
5.300000e+08	3.389799e+13	0.000000e+00	3.969849e-01	5.348357e+14	2.132986e+15	8.021954e+14	1.842529e+04	9.844381e+03	2.659521e+03	0	1.256671e-03
5.400000e+08	3.347052e+13	0.000000e+00	3.969849e-01	5.303157e+14	2.113566e+15	7.982096e+14	1.840210e+04	9.833973e+03	2.656709e+03	0	1.251366e-03
5.500000e+08	3.304974e+13	0.000000e+00	3.969849e-01	5.258646e+14	2.094519e+15	7.942522e+14	1.837910e+04	9.823708e+03	2.653936e+03	0	1.246100e-03
5.600000e+08	3.263549e+13	0.000000e+00	3.969849e-01	5.214808e+14	2.075832e+15	7.903229e+14	1.835629e+04	9.813580e+03	2.651200e+03	0	1.240872e-03
5.700000e+08	3.222762e+13	0.000000e+00	3.969849e-01	5.171628e+14	2.057495e+15	7.864215e+14	1.833368e+04	9.803588e+03	2.648500e+03	0	1.235681e-03
5.800000e+08	3.182600e+13	0.000000e+00	3.969849e-01	5.129092e+14	2.039498e+15	7.825478e+14	1.831125e+04	9.793727e+03	2.645836e+03	0	1.230526e-03
5.900000e+08	3.143048e+13	0.000000e+00	3.969849e-01	5.087186e+14	2.021830e+15	7.787015e+14	1.828900e+04	9.783994e+03	2.643207e+03	0	1.225408e-03
6.000000e+08	3.104093e+13	0.000000e+00	3.969849e-01	5.045897e+14	2.004483e+15	7.748825e+14	1.826694e+04	9.774387e+03	2.640612e+03	0	1.220324e-03
6.100000e+08	3.065723e+13	0.000000e+00	3.969849e-01	5.005210e+14	1.987447e+15	7.710905e+14	1.824505e+04	9.764902e+03	2.638049e+03	0	1.215275e-03
6.200000e+08	3.027924e+13	0.000000e+00	3.969849e-01	4.965114e+14	1.970714e+15	7.673253e+14	1.822334e+04	9.755537e+03	2.635519e+03	0	1.210260e-03
6.300000e+08	2.990684e+13	0.000000e+00	3.969849e-01	4.925595e+14	1.954274e+15	7.635867e+14	1.820181e+04	9.746288e+03	2.633020e+03	0	1.205278e-03
6.400000e+08	2.953992e+13	0.000000e+00	3.969849e-01	4.886642e+14	1.938121e+15	7.598744e+14	1.818044e+04	9.737153e+03	2.630552e+03	0	1.200328e-03
6.500000e+08	2.917837e+13	0.000000e+00	3.969849e-01	4.848243e+14	1.922245e+15	7.561883e+14	1.815925e+04	9.728129e+03	2.628115e+03	0	1.195411e-03
6.600000e+08	2.882205e+13	0.000000e+00	3.969849e-01	4.810386e+14	1.906640e+15	7.525281e+14	1.813822e+04	9.719214e+03	2.625706e+03	0	1.190525e-03
6.700000e+08	2.847088e+13	0.000000e+00	3.969849e-01	4.773060e+14	1.891299e+15	7.488937e+14	1.811735e+04	9.710405e+03	2.623326e+03	0	1.185670e-03
6.800000e+08	2.812473e+13	0.000000e+00	3.969849e-01	4.736254e+14	1.876213e+15	7.452848e+14	1.809664e+04	9.701699e+03	2.620974e+03	0	1.180846e-03
6.900000e+08	2.778352e+13	0.000000e+00	3.969849e-01	4.699957e+14	1.861377e+15	7.417012e+14	1.807610e+04	9.693096e+03	2.618650e+03	0	1.176051e-03
7.000000e+08	2.744713e+13	0.000000e+00	3.969849e-01	4.664160e+14	1.846784e+15	7.381427e+14	1.805571e+04	9.684591e+03	2.616353e+03	0	1.171285e-03
7.100000e+08	2.711547e+13	0.000000e+00	3.969849e-01	4.628853e+14	1.832428e+15	7.346091e+14	1.803548e+04	9.676184e+03	2.614081e+03	0	1.166548e-03
7.200000e+08	2.678845e+13	0.000000e+00	3.969849e-01	4.594024e+14	1.818303e+15	7.311003e+14	1.801539e+04	9.667871e+03	2.611836e+03	0	1.161839e-03
7.300000e+08	2.646596e+13	0.000000e+00	3.969849e-01	4.559666e+14	1.804402e+15	7.276160e+14	1.799546e+04	9.659652e+03	2.609615e+03	0	1.157159e-03
7.400000e+08	2.614793e+13	0.000000e+00	3.969849e-01	4.525768e+14	1.790721e+15	7.241560e+14	1.797568e+04	9.651523e+03	2.607419e+03	0	1.152505e-03
7.500000e+08	2.583426e+13	0.000000e+00	3.969849e-01	4.492323e+14	1.777253e+15	7.207201e+14	1.795605e+04	9.643484e+03	2.605247e+03	0	1.147878e-03
7.600000e+08	2.552487e+13	0.000000e+00	3.969849e-01	4.459320e+14	1.763993e+15	7.173081e+14	1.793656e+04	9.635531e+03	2.603099e+03	0	1.143277e-03
7.700000e+08	2.521967e+13	0.000000e+00	3.969849e-01	4.426752e+14	1.750937e+15	7.139199e+14	1.791721e+04	9.627664e+03	2.600973e+03	0	1.138702e-03
7.800000e+08	2.491859e+13	0.000000e+00	3.969849e-01	4.394609e+14	1.738080e+15	7.105552e+14	1.789800e+04	9.619880e+03	2.598870e+03	0	1.134152e-03
7.900000e+08	2.462153e+13	0.000000e+00	3.969849e-01	4.362885e+14	1.725415e+15	7.072139e+14	1.787893e+04	9.612178e+03	2.596790e+03	0	1.129628e-03
8.000000e+08	2.432844e+13	0.000000e+00	3.969849e-01	4.331571e+14	1.712940e+15	7.038958e+14	1.786000e+04	9.604556e+03	2.594731e+03	0	1.125127e-03
8.100000e+08	2.403922e+13	0.000000e+00	3.969849e-01	4.300659e+14	1.700650e+15	7.006007e+14	1.784121e+04	9.597013e+03	2.592693e+03	0	1.120651e-03
8.200000e+08	2.375381e+13	0.000000e+00	3.969849e-01	4.270142e+14	1.688539e+15	6.973283e+14	1.782255e+04	9.589547e+03	2.590676e+03	0	1.116198e-03
8.300000e+08	2.347213e+13	0.000000e+00	3.969849e-01	4.240013e+14	1.676605e+15	6.940786e+14	1.780402e+04	9.582156e+03	2.588679e+03	0	1.111769e-03
8.400000e+08	2.319412e+13	0.000000e+00	3.969849e-01	4.210263e+14	1.664842e+15	6.908514e+14	1.778562e+04	9.574839e+03	2.586702e+03	0	1.107362e-03
8.500000e+08	2.291971e+13	0.000000e+00	3.969849e-01	4.180887e+14	1.653248e+15	6.876464e+14	1.776735e+04	9.567595e+03	2.584745e+03	0	1.102978e-03
8.600000e+08	2.264883e+13	0.000000e+00	3.969849e-01	4.151878e+14	1.641817e+15	6.844635e+14	1.774921e+04	9.560421e+03	2.582807e+03	0	1.098615e-03
8.700000e+08	2.238142e+13	0.000000e+00	3.969849e-01	4.123228e+14	1.630548e+15	6.813025e+14	1.773119e+04	9.553318e+03	2.580888e+03	0	1.094274e-03
8.800000e+08	2.211740e+13	0.000000e+00	3.969849e-01	4.094932e+14	1.619435e+15	6.781633e+14	1.771330e+04	9.546282e+03	2.578988e+03	0	1.089954e-03
8.900000e+08	2.185673e+13	0.000000e+00	3.969849e-01	4.066983e+14	1.608476e+15	6.750456e+14	1.769553e+04	9.539314e+03	2.577105e+03	0	1.085655e-03
9.000000e+08	2.159934e+13	0.000000e+00	3.969849e-01	4.039375e+14	1.597666e+15	6.719493e+14	1.767788e+04	9.532411e+03	2.575240e+03	0	1.081377e-03
9.100000e+08	2.134517e+13	0.000000e+00	3.969849e-01	4.012101e+14	1.587004e+15	6.688743e+14	1.766035e+04	9.525574e+03	2.573393e+03	0	1.077119e-03
9.200000e+08	2.109417e+13	0.000000e+00	3.969849e-01	3.985156e+14	1.576486e+15	6.658203e+14	1.764294e+04	9.518799e+03	2.571563e+03	0	1.072880e-03
9.300000e+08	2.084627e+13	0.000000e+00	3.969849e-01	3.958535e+14	1.566108e+15	6.627872e+14	1.762564e+04	9.512087e+03	2.569749e+03	0	1.068660e-03
9.400000e+08	2.060142e+13	0.000000e+00	3.969849e-01	3.932230e+14	1.555867e+15	6.597748e+14	1.760846e+04	9.505436e+03	2.567953e+03	0	1.064460e-03
9.500000e+08	2.035958e+13	0.000000e+00	3.969849e-01	3.906238e+14	1.545762e+15	6.567830e+14	1.759140e+04	9.498844e+03	2.566172e+03	0	1.060278e-03
9.600000e+08	2.012068e+13	0.000000e+00	3.969849e-01	3.880553e+14	1.535788e+15	6.538116e+14	1.757445e+04	9.492312e+03	2.564407e+03	0	1.056115e-03
9.700000e+08	1.988468e+13	0.000000e+00	3.969849e-01	3.855168e+14	1.525944e+15	6.508604e+14	1.755760e+04	9.485838e+03	2.562658e+03	0	1.051969e-03
9.800000e+08	1.965153e+13	0.000000e+00	3.969849e-01	3.830080e+14	1.516226e+15	6.479293e+14	1.754087e+04	9.479420e+03	2.560924e+03	0	1.047842e-03
9.900000e+08	1.942117e+13	0.000000e+00	3.969849e-01	3.805283e+14	1.506632e+15	6.450181e+14	1.752425e+04	9.473058e+03	2.559206e+03	0	1.043731e-03
1.000000e+09	1.919356e+13	0.000000e+00	3.969849e-01	3.780773e+14	1.497160e+15	6.421267e+14	1.750773e+04	9.466751e+03	2.557502e+03	0	1.039638e-03
1.010000e+09	1.896865e+13	0.000000e+00	3.969849e-01	3.756544e+14	1.487806e+15	6.392549e+14	1.749132e+04	9.460498e+03	2.555812e+03	0	1.035561e-03
1.020000e+09	1.874640e+13	0.000000e+00	3.969849e-01	3.732592e+14	1.478570e+15	6.364026e+14	1.747502e+04	9.454298e+03	2.554137e+03	0	1.031501e-03
1.030000e+09	1.852677e+13	0.000000e+00	3.969849e-01	3.708911e+14	1.469447e+15	6.335695e+14	1.745882e+04	9.448149e+03	2.552476e+03	0	1.027457e-03
1.040000e+09	1.830970e+13	0.000000e+00	3.969849e-01	3.685499e+14	1.460437e+15	6.307556e+14	1.744272e+04	9.442052e+03	2.550829e+03	0	1.023428e-03
1.050000e+09	1.809516e+13	0.000000e+00	3.969849e-01	3.662350e+14	1.451537e+15	6.279608e+14	1.742672e+04	9.436006e+03	2.549196e+03	0	1.019415e-03
1.060000e+09	1.788310e+13	0.000000e+00	3.969849e-01	3.639460e+14	1.442744e+15	6.251847e+14	1.741082e+04	9.430009e+03	2.547575e+03	0	1.015417e-03
1.070000e+09	1.767349e+13	0.000000e+00	3.969849e-01	3.616825e+14	1.434058e+15	6.224274e+14	1.739502e+04	9.424060e+03	2.545968e+03	0	1.011434e-03
1.080000e+09	1.746628e+13	0.000000e+00	3.969849e-01	3.594440e+14	1.425475e+15	6.196886e+14	1.737932e+04	9.418160e+03	2.544374e+03	0	1.007466e-03
1.090000e+09	1.726143e+13	0.000000e+00	3.969849e-01	3.572302e+14	1.416993e+15	6.169682e+14	1.736372e+04	9.412306e+03	2.542793e+03	0	1.003512e-03
1.100000e+09	1.705891e+13	0.000000e+00	3.969849e-01	3.550407e+14	1.408612e+15	6.142661e+14	1.734821e+04	9.406499e+03	2.541224e+03	0	9.995719e-04
1.110000e+09	1.685868e+13	0.000000e+00	3.969849e-01	3.528751e+14	1.400329e+15	6.115821e+14	1.733280e+04	9.400737e+03	2.539668e+03	0	9.956456e-04
1.120000e+09	1.666070e+13	0.000000e+00	3.969849e-01	3.507330e+14	1.392142e+15	6.089161e+14	1.731748e+04	9.395020e+03	2.538123e+03	0	9.917328e-04
1.130000e+09	1.646493e+13	0.000000e+00	3.969849e-01	3.486140e+14	1.384049e+15	6.062679e+14	1.730226e+04	9.389347e+03	2.536591e+03	0	9.878332e-04
1.140000e+09	1.627135e+13	0.000000e+00	3.969849e-01	3.465178e+14	1.376049e+15	6.036375e+14	1.728712e+04	9.383718e+03	2.535070e+03	0	9.839465e-04
1.150000e+09	1.607992e+13	0.000000e+00	3.969849e-01	3.444441e+14	1.368140e+15	6.010246e+14	1.727208e+04	9.378131e+03	2.533561e+03	0	9.800725e-04
1.160000e+09	1.589059e+13	0.000000e+00	3.969849e-01	3.423924e+14	1.360320e+15	5.984291e+14	1.725713e+04	9.372587e+03	2.532063e+03	0	9.762108e-04
1.170000e+09	1.570335e+13	0.000000e+00	3.969849e-01	3.403624e+14	1.352589e+15	5.958509e+14	1.724226e+04	9.367084e+03	2.530576e+03	0	9.723613e-04
1.180000e+09	1.551815e+13	0.000000e+00	3.969849e-01	3.383538e+14	1.344943e+15	5.932899e+14	1.722749e+04	9.361622e+03	2.529100e+03	0	9.685237e-04
1.190000e+09	1.533497e+13	0.000000e+00	3.969849e-01	3.363663e+14	1.337382e+15	5.907459e+14	1.721280e+04	9.356199e+03	2.527635e+03	0	9.646977e-04
1.200000e+09	1.515377e+13	0.000000e+00	3.969849e-01	3.343996e+14	1.329905e+15	5.882188e+14	1.719820e+04	9.350817e+03	2.526181e+03	0	9.608830e-04
1.210000e+09	1.497453e+13	0.000000e+00	3.969849e-01	3.324533e+14	1.322509e+15	5.857084e+14	1.718368e+04	9.345473e+03	2.524738e+03	0	9.570795e-04
1.220000e+09	1.479721e+13	0.000000e+00	3.969849e-01	3.305272e+14	1.315194e+15	5.832147e+14	1.716924e+04	9.340168e+03	2.523305e+03	0	9.532867e-04
1.230000e+09	1.462179e+13	0.000000e+00	3.969849e-01	3.286208e+14	1.307957e+15	5.807375e+14	1.715489e+04	9.334901e+03	2.521882e+03	0	9.495046e-04
1.240000e+09	1.444823e+13	0.000000e+00	3.969849e-01	3.267341e+14	1.300799e+15	5.782766e+14	1.714063e+04	9.329671e+03	2.520469e+03	0	9.457329e-04
1.250000e+09	1.427651e+13	0.000000e+00	3.969849e-01	3.248665e+14	1.293717e+15	5.758320e+14	1.712644e+04	9.324478e+03	2.519066e+03	0	9.419712e-04
1.260000e+09	1.410660e+13	0.000000e+00	3.969849e-01	3.230179e+14	1.286709e+15	5.734035e+14	1.711234e+04	9.319320e+03	2.517672e+03	0	9.382194e-04
1.270000e+09	1.393848e+13	0.000000e+00	3.969849e-01	3.211880e+14	1.279776e+15	5.709910e+14	1.709831e+04	9.314199e+03	2.516289e+03	0	9.344772e-04
1.280000e+09	1.377211e+13	0.000000e+00	3.969849e-01	3.193765e+14	1.272916e+15	5.685944e+14	1.708437e+04	9.309113e+03	2.514915e+03	0	9.307444e-04
1.290000e+09	1.360747e+13	0.000000e+00	3.969849e-01	3.175832e+14	1.266126e+15	5.662136e+14	1.707050e+04	9.304061e+03	2.513550e+03	0	9.270207e-04
1.300000e+09	1.344454e+13	0.000000e+00	3.969849e-01	3.158077e+14	1.259407e+15	5.638483e+14	1.705671e+04	9.299044e+03	2.512194e+03	0	9.233059e-04
1.310000e+09	1.328329e+13	0.000000e+00	3.969849e-01	3.140499e+14	1.252757e+15	5.614986e+14	1.704300e+04	9.294060e+03	2.510848e+03	0	9.195998e-04
1.320000e+09	1.312370e+13	0.000000e+00	3.969849e-01	3.123094e+14	1.246176e+15	5.591642e+14	1.702936e+04	9.289109e+03	2.509511e+03	0	9.159021e-04
1.330000e+09	1.296574e+13	0.000000e+00	3.969849e-01	3.105861e+14	1.239661e+15	5.568451e+14	1.701580e+04	9.284192e+03	2.508182e+03	0	9.122126e-04
1.340000e+09	1.280939e+13	0.000000e+00	3.969849e-01	3.088796e+14	1.233212e+15	5.545412e+14	1.700231e+04	9.279306e+03	2.506862e+03	0	9.085310e-04
1.350000e+09	1.265462e+13	0.000000e+00	3.969849e-01	3.071898e+14	1.226827e+15	5.522523e+14	1.698890e+04	9.274453e+03	2.505551e+03	0	9.048572e-04
1.360000e+09	1.250142e+13	0.000000e+00	3.969849e-01	3.055164e+14	1.220507e+15	5.499783e+14	1.697556e+04	9.269630e+03	2.504248e+03	0	9.011908e-04
