#t		Qconv[W]	Ri[Rp]		R*[Rp]		Qc[W]		Qm[W]		Qr[W]		Tcmb[K]		Tl[K]		Tup[K]		RiFlag		Bs[T]
0.000000e+00	7.703472e+13	0.000000e+00	3.969849e-01	9.894056e+14	4.293891e+15	1.091629e+15	2.053910e+04	1.102705e+04	2.928241e+03	0	1.651235e-03
1.000000e+07	7.575822e+13	0.000000e+00	3.969849e-01	9.764113e+14	4.213618e+15	1.085581e+15	2.049795e+04	1.099896e+04	2.920781e+03	0	1.642064e-03
2.000000e+07	7.451272e+13	0.000000e+00	3.969849e-01	9.637274e+14	4.136467e+15	1.079577e+15	2.045732e+04	1.097163e+04	2.913524e+03	0	1.633015e-03
3.000000e+07	7.329714e+13	0.000000e+00	3.969849e-01	9.513431e+14	4.062260e+15	1.073619e+15	2.041723e+04	1.094504e+04	2.906464e+03	0	1.624086e-03
4.000000e+07	7.211047e+13	0.000000e+00	3.969849e-01	9.392482e+14	3.990831e+15	1.067705e+15	2.037765e+04	1.091916e+04	2.899590e+03	0	1.615274e-03
5.000000e+07	7.095170e+13	0.000000e+00	3.969849e-01	9.274329e+14	3.922028e+15	1.061836e+15	2.033857e+04	1.089395e+04	2.892896e+03	0	1.606575e-03
6.000000e+07	6.981991e+13	0.000000e+00	3.969849e-01	9.158878e+14	3.855709e+15	1.056010e+15	2.029998e+04	1.086938e+04	2.886372e+03	0	1.597987e-03
7.000000e+07	6.871419e+13	0.000000e+00	3.969849e-01	9.046040e+14	3.791741e+15	1.050227e+15	2.026186e+04	1.084543e+04	2.880012e+03	0	1.589506e-03
8.000000e+07	6.763368e+13	0.000000e+00	3.969849e-01	8.935729e+14	3.730002e+15	1.044487e+15	2.022422e+04	1.082207e+04	2.873810e+03	0	1.581131e-03
9.000000e+07	6.657755e+13	0.000000e+00	3.969849e-01	8.827863e+14	3.670375e+15	1.038790e+15	2.018703e+04	1.079928e+04	2.867758e+03	0	1.572857e-03
1.000000e+08	6.554501e+13	0.000000e+00	3.969849e-01	8.722363e+14	3.612755e+15	1.033136e+15	2.015029e+04	1.077704e+04	2.861851e+03	0	1.564684e-03
1.100000e+08	6.453531e+13	0.000000e+00	3.969849e-01	8.619153e+14	3.557040e+15	1.027523e+15	2.011398e+04	1.075532e+04	2.856082e+03	0	1.556608e-03
1.200000e+08	6.354772e+13	0.000000e+00	3.969849e-01	8.518162e+14	3.503136e+15	1.021952e+15	2.007811e+04	1.073410e+04	2.850447e+03	0	1.548627e-03
1.300000e+08	6.258154e+13	0.000000e+00	3.969849e-01	8.419319e+14	3.450957e+15	1.016422e+15	2.004265e+04	1.071336e+04	2.844940e+03	0	1.540738e-03
1.400000e+08	6.163610e+13	0.000000e+00	3.969849e-01	8.322559e+14	3.400420e+15	1.010933e+15	2.000760e+04	1.069309e+04	2.839557e+03	0	1.532940e-03
1.500000e+08	6.071076e+13	0.000000e+00	3.969849e-01	8.227816e+14	3.351447e+15	1.005485e+15	1.997296e+04	1.067326e+04	2.834292e+03	0	1.525230e-03
1.600000e+08	5.980492e+13	0.000000e+00	3.969849e-01	8.135031e+14	3.303966e+15	1.000077e+15	1.993871e+04	1.065387e+04	2.829142e+03	0	1.517606e-03
1.700000e+08	5.891796e+13	0.000000e+00	3.969849e-01	8.044144e+14	3.257908e+15	9.947090e+14	1.990484e+04	1.063489e+04	2.824102e+03	0	1.510066e-03
1.800000e+08	5.804934e+13	0.000000e+00	3.969849e-01	7.955098e+14	3.213210e+15	9.893804e+14	1.987135e+04	1.061631e+04	2.819168e+03	0	1.502609e-03
1.900000e+08	5.719850e+13	0.000000e+00	3.969849e-01	7.867839e+14	3.169812e+15	9.840911e+14	1.983822e+04	1.059811e+04	2.814336e+03	0	1.495231e-03
2.000000e+08	5.636492e+13	0.000000e+00	3.969849e-01	7.782315e+14	3.127655e+15	9.788407e+14	1.980546e+04	1.058029e+04	2.809603e+03	0	1.487932e-03
2.100000e+08	5.554809e+13	0.000000e+00	3.969849e-01	7.698475e+14	3.086687e+15	9.736289e+14	1.977306e+04	1.056282e+04	2.804965e+03	0	1.480709e-03
2.200000e+08	5.474753e+13	0.000000e+00	3.969849e-01	7.616272e+14	3.046857e+15	9.684554e+14	1.974100e+04	1.054570e+04	2.800419e+03	0	1.473561e-03
2.300000e+08	5.396277e+13	0.000000e+00	3.969849e-01	7.535657e+14	3.008118e+15	9.633198e+14	1.970929e+04	1.052892e+04	2.795962e+03	0	1.466487e-03
2.400000e+08	5.319336e+13	0.000000e+00	3.969849e-01	7.456587e+14	2.970423e+15	9.582219e+14	1.967790e+04	1.051246e+04	2.791591e+03	0	1.459484e-03
2.500000e+08	5.243887e+13	0.000000e+00	3.969849e-01	7.379019e+14	2.933730e+15	9.531613e+14	1.964685e+04	1.049631e+04	2.787303e+03	0	1.452550e-03
2.600000e+08	5.169889e+13	0.000000e+00	3.969849e-01	7.302910e+14	2.897998e+15	9.481378e+14	1.961612e+04	1.048047e+04	2.783095e+03	0	1.445685e-03
2.700000e+08	5.097301e+13	0.000000e+00	3.969849e-01	7.228221e+14	2.863190e+15	9.431510e+14	1.958570e+04	1.046491e+04	2.778965e+03	0	1.438887e-03
2.800000e+08	5.026084e+13	0.000000e+00	3.969849e-01	7.154913e+14	2.829269e+15	9.382006e+14	1.955560e+04	1.044964e+04	2.774910e+03	0	1.432155e-03
2.900000e+08	4.956201e+13	0.000000e+00	3.969849e-01	7.082949e+14	2.796200e+15	9.332864e+14	1.952580e+04	1.043465e+04	2.770928e+03	0	1.425486e-03
3.000000e+08	4.887616e+13	0.000000e+00	3.969849e-01	7.012293e+14	2.763950e+15	9.284080e+14	1.949629e+04	1.041992e+04	2.767017e+03	0	1.418880e-03
3.100000e+08	4.820294e+13	0.000000e+00	3.969849e-01	6.942909e+14	2.732489e+15	9.235651e+14	1.946709e+04	1.040545e+04	2.763174e+03	0	1.412336e-03
3.200000e+08	4.754203e+13	0.000000e+00	3.969849e-01	6.874765e+14	2.701787e+15	9.187574e+14	1.943816e+04	1.039122e+04	2.759397e+03	0	1.405851e-03
3.300000e+08	4.689309e+13	0.000000e+00	3.969849e-01	6.807829e+14	2.671816e+15	9.139847e+14	1.940953e+04	1.037724e+04	2.755684e+03	0	1.399425e-03
3.400000e+08	4.625581e+13	0.000000e+00	3.969849e-01	6.742068e+14	2.642549e+15	9.092467e+14	1.938116e+04	1.036350e+04	2.752034e+03	0	1.393057e-03
3.500000e+08	4.562989e+13	0.000000e+00	3.969849e-01	6.677453e+14	2.613961e+15	9.045431e+14	1.935308e+04	1.034998e+04	2.748444e+03	0	1.386745e-03
3.600000e+08	4.501504e+13	0.000000e+00	3.969849e-01	6.613955e+14	2.586027e+15	8.998735e+14	1.932526e+04	1.033668e+04	2.744913e+03	0	1.380488e-03
3.700000e+08	4.441098e+13	0.000000e+00	3.969849e-01	6.551546e+14	2.558725e+15	8.952378e+14	1.929770e+04	1.032360e+04	2.741439e+03	0	1.374285e-03
3.800000e+08	4.381743e+13	0.000000e+00	3.969849e-01	6.490198e+14	2.532032e+15	8.906356e+14	1.927041e+04	1.031072e+04	2.738020e+03	0	1.368135e-03
3.900000e+08	4.323413e+13	0.000000e+00	3.969849e-01	6.429885e+14	2.505927e+15	8.860666e+14	1.924337e+04	1.029805e+04	2.734655e+03	0	1.362037e-03
4.000000e+08	4.266084e+13	0.000000e+00	3.969849e-01	6.370581e+14	2.480391e+15	8.815307e+14	1.921657e+04	1.028558e+04	2.731342e+03	0	1.355990e-03
4.100000e+08	4.209729e+13	0.000000e+00	3.969849e-01	6.312263e+14	2.455404e+15	8.770275e+14	1.919003e+04	1.027329e+04	2.728080e+03	0	1.349993e-03
4.200000e+08	4.154325e+13	0.000000e+00	3.969849e-01	6.254905e+14	2.430947e+15	8.725567e+14	1.916373e+04	1.026119e+04	2.724867e+03	0	1.344044e-03
4.300000e+08	4.099850e+13	0.000000e+00	3.969849e-01	6.198485e+14	2.407004e+15	8.681182e+14	1.913766e+04	1.024928e+04	2.721703e+03	0	1.338144e-03
4.400000e+08	4.046281e+13	0.000000e+00	3.969849e-01	6.142981e+14	2.383558e+15	8.637115e+14	1.911183e+04	1.023754e+04	2.718585e+03	0	1.332290e-03
4.500000e+08	3.993595e+13	0.000000e+00	3.969849e-01	6.088370e+14	2.360592e+15	8.593366e+14	1.908624e+04	1.022597e+04	2.715513e+03	0	1.326482e-03
4.600000e+08	3.941773e+13	0.000000e+00	3.969849e-01	6.034633e+14	2.338091e+15	8.549930e+14	1.906086e+04	1.021456e+04	2.712485e+03	0	1.320720e-03
4.700000e+08	3.890794e+13	0.000000e+00	3.969849e-01	5.981748e+14	2.316041e+15	8.506806e+14	1.903571e+04	1.020332e+04	2.709500e+03	0	1.315001e-03
4.800000e+08	3.840638e+13	0.000000e+00	3.969849e-01	5.929695e+14	2.294427e+15	8.463991e+14	1.901078e+04	1.019224e+04	2.706557e+03	0	1.309326e-03
4.900000e+08	3.791286e+13	0.000000e+00	3.969849e-01	5.878457e+14	2.273237e+15	8.421483e+14	1.898607e+04	1.018131e+04	2.703655e+03	0	1.303694e-03
5.000000e+08	3.742720e+13	0.000000e+00	3.969849e-01	5.828013e+14	2.252456e+15	8.379278e+14	1.896157e+04	1.017053e+04	2.700793e+03	0	1.298103e-03
5.100000e+08	3.694921e+13	0.000000e+00	3.969849e-01	5.778347e+14	2.232073e+15	8.337375e+14	1.893728e+04	1.015990e+04	2.697969e+03	0	1.292553e-03
5.200000e+08	3.647873e+13	0.000000e+00	3.969849e-01	5.729440e+14	2.212076e+15	8.295771e+14	1.891320e+04	1.014941e+04	2.695184e+03	0	1.287044e-03
5.300000e+08	3.601558e+13	0.000000e+00	3.969849e-01	5.681277e+14	2.192454e+15	8.254464e+14	1.888932e+04	1.013906e+04	2.692436e+03	0	1.281574e-03
5.400000e+08	3.555960e+13	0.000000e+00	3.969849e-01	5.633839e+14	2.173195e+15	8.213451e+14	1.886564e+04	1.012885e+04	2.689723e+03	0	1.276142e-03
5.500000e+08	3.511063e+13	0.000000e+00	3.969849e-01	5.587112e+14	2.154288e+15	8.172730e+14	1.884215e+04	1.011877e+04	2.687046e+03	0	1.270749e-03
5.600000e+08	3.466851e+13	0.000000e+00	3.969849e-01	5.541080e+14	2.135724e+15	8.132298e+14	1.881886e+04	1.010881e+04	2.684403e+03	0	1.265392e-03
5.700000e+08	3.423311e+13	0.000000e+00	3.969849e-01	5.495727e+14	2.117494e+15	8.092153e+14	1.879577e+04	1.009899e+04	2.681794e+03	0	1.260072e-03
5.800000e+08	3.380426e+13	0.000000e+00	3.969849e-01	5.451040e+14	2.099586e+15	8.052293e+14	1.877286e+04	1.008928e+04	2.679217e+03	0	1.254789e-03
5.900000e+08	3.338183e+13	0.000000e+00	3.969849e-01	5.407004e+14	2.081994e+15	8.012716e+14	1.875013e+04	1.007970e+04	2.676672e+03	0	1.249540e-03
6.000000e+08	3.296568e+13	0.000000e+00	3.969849e-01	5.363604e+14	2.064707e+15	7.973419e+14	1.872759e+04	1.007024e+04	2.674158e+03	0	1.244326e-03
6.100000e+08	3.255568e+13	0.000000e+00	3.969849e-01	5.320829e+14	2.047718e+15	7.934400e+14	1.870523e+04	1.006089e+04	2.671675e+03	0	1.239146e-03
6.200000e+08	3.215170e+13	0.000000e+00	3.969849e-01	5.278665e+14	2.031018e+15	7.895657e+14	1.868305e+04	1.005165e+04	2.669222e+03	0	1.233999e-03
6.300000e+08	3.175361e+13	0.000000e+00	3.969849e-01	5.237098e+14	2.014600e+15	7.857187e+14	1.866104e+04	1.004252e+04	2.666797e+03	0	1.228885e-03
6.400000e+08	3.136128e+13	0.000000e+00	3.969849e-01	5.196117e+14	1.998456e+15	7.818988e+14	1.863921e+04	1.003349e+04	2.664402e+03	0	1.223803e-03
6.500000e+08	3.097461e+13	0.000000e+00	3.969849e-01	5.155710e+14	1.982578e+15	7.781059e+14	1.861755e+04	1.002458e+04	2.662033e+03	0	1.218752e-03
6.600000e+08	3.059347e+13	0.000000e+00	3.969849e-01	5.115865e+14	1.966961e+15	7.743396e+14	1.859605e+04	1.001576e+04	2.659693e+03	0	1.213732e-03
6.700000e+08	3.021774e+13	0.000000e+00	3.969849e-01	5.076570e+14	1.951598e+15	7.705998e+14	1.857472e+04	1.000705e+04	2.657378e+03	0	1.208743e-03
6.800000e+08	2.984733e+13	0.000000e+00	3.969849e-01	5.037815e+14	1.936481e+15	7.668863e+14	1.855356e+04	9.998429e+03	2.655090e+03	0	1.203784e-03
6.900000e+08	2.948212e+13	0.000000e+00	3.969849e-01	4.999589e+14	1.921604e+15	7.631988e+14	1.853255e+04	9.989907e+03	2.652827e+03	0	1.198854e-03
7.000000e+08	2.912200e+13	0.000000e+00	3.969849e-01	4.961881e+14	1.906962e+15	7.595372e+14	1.851170e+04	9.981480e+03	2.650589e+03	0	1.193953e-03
7.100000e+08	2.876688e+13	0.000000e+00	3.969849e-01	4.924681e+14	1.892549e+15	7.559012e+14	1.849101e+04	9.973144e+03	2.648376e+03	0	1.189080e-03
7.200000e+08	2.841666e+13	0.000000e+00	3.969849e-01	4.887979e+14	1.878358e+15	7.522907e+14	1.847048e+04	9.964898e+03	2.646186e+03	0	1.184235e-03
7.300000e+08	2.807124e+13	0.000000e+00	3.969849e-01	4.851766e+14	1.864386e+15	7.487054e+14	1.845010e+04	9.956740e+03	2.644019e+03	0	1.179417e-03
7.400000e+08	2.773053e+13	0.000000e+00	3.969849e-01	4.816031e+14	1.850625e+15	7.451451e+14	1.842987e+04	9.948668e+03	2.641876e+03	0	1.174626e-03
7.500000e+08	2.739443e+13	0.000000e+00	3.969849e-01	4.780767e+14	1.837072e+15	7.416096e+14	1.840978e+04	9.940681e+03	2.639755e+03	0	1.169861e-03
7.600000e+08	2.706285e+13	0.000000e+00	3.969849e-01	4.745963e+14	1.823721e+15	7.380987e+14	1.838985e+04	9.932776e+03	2.637656e+03	0	1.165122e-03
7.700000e+08	2.673572e+13	0.000000e+00	3.969849e-01	4.711611e+14	1.810567e+15	7.346123e+14	1.837006e+04	9.924952e+03	2.635578e+03	0	1.160408e-03
7.800000e+08	2.641294e+13	0.000000e+00	3.969849e-01	4.677703e+14	1.797606e+15	7.311501e+14	1.835041e+04	9.917208e+03	2.633522e+03	0	1.155719e-03
7.900000e+08	2.609443e+13	0.000000e+00	3.969849e-01	4.644230e+14	1.784833e+15	7.277120e+14	1.833090e+04	9.909542e+03	2.631486e+03	0	1.151055e-03
8.000000e+08	2.578011e+13	0.000000e+00	3.969849e-01	4.611185e+14	1.772245e+15	7.242977e+14	1.831153e+04	9.901951e+03	2.629470e+03	0	1.146415e-03
8.100000e+08	2.546991e+13	0.000000e+00	3.969849e-01	4.578558e+14	1.759836e+15	7.209070e+14	1.829230e+04	9.894436e+03	2.627475e+03	0	1.141798e-03
8.200000e+08	2.516374e+13	0.000000e+00	3.969849e-01	4.546343e+14	1.747604e+15	7.175399e+14	1.827321e+04	9.886994e+03	2.625498e+03	0	1.137204e-03
8.300000e+08	2.486153e+13	0.000000e+00	3.969849e-01	4.514532e+14	1.735542e+15	7.141960e+14	1.825424e+04	9.879624e+03	2.623541e+03	0	1.132633e-03
8.400000e+08	2.456322e+13	0.000000e+00	3.969849e-01	4.483117e+14	1.723649e+15	7.108752e+14	1.823542e+04	9.872324e+03	2.621603e+03	0	1.128085e-03
8.500000e+08	2.426871e+13	0.000000e+00	3.969849e-01	4.452092e+14	1.711921e+15	7.075773e+14	1.821672e+04	9.865093e+03	2.619683e+03	0	1.123558e-03
8.600000e+08	2.397796e+13	0.000000e+00	3.969849e-01	4.421450e+14	1.700352e+15	7.043022e+14	1.819815e+04	9.857931e+03	2.617781e+03	0	1.119053e-03
8.700000e+08	2.369089e+13	0.000000e+00	3.969849e-01	4.391183e+14	1.688942e+15	7.010496e+14	1.817971e+04	9.850835e+03	2.615896e+03	0	1.114570e-03
8.800000e+08	2.340742e+13	0.000000e+00	3.969849e-01	4.361284e+14	1.677685e+15	6.978193e+14	1.816139e+04	9.843805e+03	2.614029e+03	0	1.110106e-03
8.900000e+08	2.312751e+13	0.000000e+00	3.969849e-01	4.331749e+14	1.666578e+15	6.946113e+14	1.814320e+04	9.836838e+03	2.612179e+03	0	1.105664e-03
9.000000e+08	2.285109e+13	0.000000e+00	3.969849e-01	4.302569e+14	1.655619e+15	6.914253e+14	1.812513e+04	9.829935e+03	2.610346e+03	0	1.101241e-03
9.100000e+08	2.257808e+13	0.000000e+00	3.969849e-01	4.273739e+14	1.644804e+15	6.882611e+14	1.810719e+04	9.823094e+03	2.608530e+03	0	1.096838e-03
9.200000e+08	2.230845e+13	0.000000e+00	3.969849e-01	4.245253e+14	1.634130e+15	6.851186e+14	1.808936e+04	9.816314e+03	2.606729e+03	0	1.092454e-03
9.300000e+08	2.204211e+13	0.000000e+00	3.969849e-01	4.217104e+14	1.623595e+15	6.819976e+14	1.807165e+04	9.809593e+03	2.604944e+03	0	1.088089e-03
9.400000e+08	2.177903e+13	0.000000e+00	3.969849e-01	4.189288e+14	1.613195e+15	6.788979e+14	1.805406e+04	9.802931e+03	2.603175e+03	0	1.083743e-03
9.500000e+08	2.151913e+13	0.000000e+00	3.969849e-01	4.161798e+14	1.602928e+15	6.758193e+14	1.803659e+04	9.796326e+03	2.601421e+03	0	1.079415e-03
9.600000e+08	2.126237e+13	0.000000e+00	3.969849e-01	4.134629e+14	1.592791e+15	6.727618e+14	1.801923e+04	9.789778e+03	2.599683e+03	0	1.075104e-03
9.700000e+08	2.100870e+13	0.000000e+00	3.969849e-01	4.107775e+14	1.582781e+15	6.697251e+14	1.800198e+04	9.783286e+03	2.597959e+03	0	1.070812e-03
9.800000e+08	2.075805e+13	0.000000e+00	3.969849e-01	4.081231e+14	1.572896e+15	6.667090e+14	1.798484e+04	9.776849e+03	2.596249e+03	0	1.066536e-03
9.900000e+08	2.051038e+13	0.000000e+00	3.969849e-01	4.054992e+14	1.563134e+15	6.637135e+14	1.796782e+04	9.770465e+03	2.594554e+03	0	1.062278e-03
1.000000e+09	2.026564e+13	0.000000e+00	3.969849e-01	4.029052e+14	1.553492e+15	6.607383e+14	1.795090e+04	9.764134e+03	2.592873e+03	0	1.058035e-03
1.010000e+09	2.002378e+13	0.000000e+00	3.969849e-01	4.003408e+14	1.543967e+15	6.577832e+14	1.793409e+04	9.757855e+03	2.591205e+03	0	1.053810e-03
1.020000e+09	1.978476e+13	0.000000e+00	3.969849e-01	3.978053e+14	1.534558e+15	6.548482e+14	1.791739e+04	9.751627e+03	2.589552e+03	0	1.049600e-03
1.030000e+09	1.954851e+13	0.000000e+00	3.969849e-01	3.952984e+14	1.525262e+15	6.519331e+14	1.790079e+04	9.745450e+03	2.587911e+03	0	1.045405e-03
1.040000e+09	1.931501e+13	0.000000e+00	3.969849e-01	3.928196e+14	1.516077e+15	6.490376e+14	1.788430e+04	9.739321e+03	2.586284e+03	0	1.041226e-03
1.050000e+09	1.908420e+13	0.000000e+00	3.969849e-01	3.903683e+14	1.507001e+15	6.461617e+14	1.786791e+04	9.733242e+03	2.584669e+03	0	1.037062e-03
1.060000e+09	1.885603e+13	0.000000e+00	3.969849e-01	3.879442e+14	1.498033e+15	6.433052e+14	1.785163e+04	9.727210e+03	2.583068e+03	0	1.032913e-03
1.070000e+09	1.863048e+13	0.000000e+00	3.969849e-01	3.855468e+14	1.489169e+15	6.404680e+14	1.783544e+04	9.721225e+03	2.581478e+03	0	1.028777e-03
1.080000e+09	1.840749e+13	0.000000e+00	3.969849e-01	3.831758e+14	1.480408e+15	6.376498e+14	1.781936e+04	9.715287e+03	2.579901e+03	0	1.024656e-03
1.090000e+09	1.818702e+13	0.000000e+00	3.969849e-01	3.808306e+14	1.471748e+15	6.348506e+14	1.780337e+04	9.709394e+03	2.578337e+03	0	1.020549e-03
1.100000e+09	1.796904e+13	0.000000e+00	3.969849e-01	3.785109e+14	1.463187e+15	6.320701e+14	1.778748e+04	9.703547e+03	2.576784e+03	0	1.016455e-03
1.110000e+09	1.775349e+13	0.000000e+00	3.969849e-01	3.762162e+14	1.454724e+15	6.293083e+14	1.777169e+04	9.697743e+03	2.575243e+03	0	1.012375e-03
1.120000e+09	1.754036e+13	0.000000e+00	3.969849e-01	3.739463e+14	1.446357e+15	6.265651e+14	1.775599e+04	9.691983e+03	2.573713e+03	0	1.008307e-03
1.130000e+09	1.732959e+13	0.000000e+00	3.969849e-01	3.717006e+14	1.438084e+15	6.238401e+14	1.774039e+04	9.686265e+03	2.572195e+03	0	1.004252e-03
1.140000e+09	1.712115e+13	0.000000e+00	3.969849e-01	3.694789e+14	1.429903e+15	6.211334e+14	1.772488e+04	9.680590e+03	2.570688e+03	0	1.000210e-03
1.150000e+09	1.691500e+13	0.000000e+00	3.969849e-01	3.672807e+14	1.421813e+15	6.184448e+14	1.770946e+04	9.674957e+03	2.569192e+03	0	9.961790e-04
1.160000e+09	1.671111e+13	0.000000e+00	3.969849e-01	3.651057e+14	1.413812e+15	6.157741e+14	1.769414e+04	9.669364e+03	2.567706e+03	0	9.921602e-04
1.170000e+09	1.650944e+13	0.000000e+00	3.969849e-01	3.629535e+14	1.405899e+15	6.131212e+14	1.767890e+04	9.663811e+03	2.566232e+03	0	9.881530e-04
1.180000e+09	1.630996e+13	0.000000e+00	3.969849e-01	3.608239e+14	1.398072e+15	6.104859e+14	1.766376e+04	9.658299e+03	2.564768e+03	0	9.841570e-04
1.190000e+09	1.611263e+13	0.000000e+00	3.969849e-01	3.587164e+14	1.390329e+15	6.078682e+14	1.764870e+04	9.652825e+03	2.563315e+03	0	9.801719e-04
1.200000e+09	1.591743e+13	0.000000e+00	3.969849e-01	3.566307e+14	1.382670e+15	6.052679e+14	1.763373e+04	9.647390e+03	2.561871e+03	0	9.761976e-04
1.210000e+09	1.572432e+13	0.000000e+00	3.969849e-01	3.545665e+14	1.375092e+15	6.026847e+14	1.761885e+04	9.641993e+03	2.560438e+03	0	9.722337e-04
1.220000e+09	1.553326e+13	0.000000e+00	3.969849e-01	3.525235e+14	1.367595e+15	6.001187e+14	1.760406e+04	9.636633e+03	2.559015e+03	0	9.682801e-04
1.230000e+09	1.534424e+13	0.000000e+00	3.969849e-01	3.505013e+14	1.360177e+15	5.975697e+14	1.758935e+04	9.631310e+03	2.557601e+03	0	9.643363e-04
1.240000e+09	1.515721e+13	0.000000e+00	3.969849e-01	3.484997e+14	1.352837e+15	5.950375e+14	1.757472e+04	9.626023e+03	2.556197e+03	0	9.604022e-04
1.250000e+09	1.497214e+13	0.000000e+00	3.969849e-01	3.465184e+14	1.345574e+15	5.925221e+14	1.756018e+04	9.620773e+03	2.554803e+03	0	9.564775e-04
1.260000e+09	1.478902e+13	0.000000e+00	3.969849e-01	3.445570e+14	1.338385e+15	5.900232e+14	1.754572e+04	9.615557e+03	2.553418e+03	0	9.525619e-04
1.270000e+09	1.460780e+13	0.000000e+00	3.969849e-01	3.426152e+14	1.331271e+15	5.875408e+14	1.753134e+04	9.610377e+03	2.552042e+03	0	9.486552e-04
1.280000e+09	1.442847e+13	0.000000e+00	3.969849e-01	3.406929e+14	1.324230e+15	5.850747e+14	1.751704e+04	9.605231e+03	2.550676e+03	0	9.447571e-04
1.290000e+09	1.425099e+13	0.000000e+00	3.969849e-01	3.387897e+14	1.317260e+15	5.826248e+14	1.750282e+04	9.600119e+03	2.549318e+03	0	9.408674e-04
1.300000e+09	1.407534e+13	0.000000e+00	3.969849e-01	3.369053e+14	1.310361e+15	5.801910e+14	1.748868e+04	9.595040e+03	2.547970e+03	0	9.369858e-04
1.310000e+09	1.390148e+13	0.000000e+00	3.969849e-01	3.350394e+14	1.303531e+15	5.777732e+14	1.747462e+04	9.589994e+03	2.546630e+03	0	9.331120e-04
1.320000e+09	1.372940e+13	0.000000e+00	3.969849e-01	3.331919e+14	1.296770e+15	5.753712e+14	1.746064e+04	9.584981e+03	2.545299e+03	0	9.292459e-04
1.330000e+09	1.355908e+13	0.000000e+00	3.969849e-01	3.313623e+14	1.290075e+15	5.729849e+14	1.744674e+04	9.580000e+03	2.543976e+03	0	9.253871e-04
1.340000e+09	1.339047e+13	0.000000e+00	3.969849e-01	3.295506e+14	1.283448e+15	5.706142e+14	1.743291e+04	9.575050e+03	2.542661e+03	0	9.215354e-04
1.350000e+09	1.322357e+13	0.000000e+00	3.969849e-01	3.277564e+14	1.276885e+15	5.682589e+14	1.741915e+04	9.570132e+03	2.541355e+03	0	9.176906e-04
1.360000e+09	1.305834e+13	0.000000e+00	3.969849e-01	3.259795e+14	1.270387e+15	5.659191e+14	1.740547e+04	9.565245e+03	2.540058e+03	0	9.138523e-04
