#t		Qconv[W]	Ri[Rp]		R*[Rp]		Qc[W]		Qm[W]		Qr[W]		Tcmb[K]		Tl[K]		Tup[K]		RiFlag		Bs[T]
0.000000e+00	8.502015e+13	0.000000e+00	3.919597e-01	1.097796e+15	4.129274e+15	1.157682e+15	2.177729e+04	1.164422e+04	2.964984e+03	0	1.720494e-03
1.000000e+07	8.363305e+13	0.000000e+00	3.919597e-01	1.083788e+15	4.066112e+15	1.151267e+15	2.173346e+04	1.162137e+04	2.959165e+03	0	1.711086e-03
2.000000e+07	8.227809e+13	0.000000e+00	3.919597e-01	1.070099e+15	4.004975e+15	1.144901e+15	2.169019e+04	1.159904e+04	2.953478e+03	0	1.701795e-03
3.000000e+07	8.095422e+13	0.000000e+00	3.919597e-01	1.056718e+15	3.945765e+15	1.138582e+15	2.164746e+04	1.157720e+04	2.947918e+03	0	1.692618e-03
4.000000e+07	7.966041e+13	0.000000e+00	3.919597e-01	1.043636e+15	3.888391e+15	1.132310e+15	2.160526e+04	1.155584e+04	2.942480e+03	0	1.683553e-03
5.000000e+07	7.839569e+13	0.000000e+00	3.919597e-01	1.030842e+15	3.832766e+15	1.126085e+15	2.156359e+04	1.153494e+04	2.937159e+03	0	1.674596e-03
6.000000e+07	7.715914e+13	0.000000e+00	3.919597e-01	1.018328e+15	3.778812e+15	1.119907e+15	2.152242e+04	1.151449e+04	2.931950e+03	0	1.665744e-03
7.000000e+07	7.594985e+13	0.000000e+00	3.919597e-01	1.006085e+15	3.726452e+15	1.113774e+15	2.148175e+04	1.149446e+04	2.926851e+03	0	1.656996e-03
8.000000e+07	7.476697e+13	0.000000e+00	3.919597e-01	9.941041e+14	3.675615e+15	1.107687e+15	2.144157e+04	1.147485e+04	2.921856e+03	0	1.648349e-03
9.000000e+07	7.360968e+13	0.000000e+00	3.919597e-01	9.823775e+14	3.626234e+15	1.101646e+15	2.140186e+04	1.145563e+04	2.916963e+03	0	1.639800e-03
1.000000e+08	7.247720e+13	0.000000e+00	3.919597e-01	9.708974e+14	3.578246e+15	1.095649e+15	2.136262e+04	1.143680e+04	2.912167e+03	0	1.631347e-03
1.100000e+08	7.136875e+13	0.000000e+00	3.919597e-01	9.596563e+14	3.531591e+15	1.089697e+15	2.132384e+04	1.141833e+04	2.907465e+03	0	1.622988e-03
1.200000e+08	7.028362e+13	0.000000e+00	3.919597e-01	9.486470e+14	3.486214e+15	1.083789e+15	2.128550e+04	1.140022e+04	2.902854e+03	0	1.614720e-03
1.300000e+08	6.922110e+13	0.000000e+00	3.919597e-01	9.378626e+14	3.442060e+15	1.077924e+15	2.124761e+04	1.138246e+04	2.898332e+03	0	1.606542e-03
1.400000e+08	6.818053e+13	0.000000e+00	3.919597e-01	9.272966e+14	3.399080e+15	1.072103e+15	2.121014e+04	1.136503e+04	2.893894e+03	0	1.598451e-03
1.500000e+08	6.716126e+13	0.000000e+00	3.919597e-01	9.169425e+14	3.357227e+15	1.066325e+15	2.117309e+04	1.134793e+04	2.889538e+03	0	1.590446e-03
1.600000e+08	6.616267e+13	0.000000e+00	3.919597e-01	9.067942e+14	3.316455e+15	1.060590e+15	2.113645e+04	1.133113e+04	2.885262e+03	0	1.582524e-03
1.700000e+08	6.518415e+13	0.000000e+00	3.919597e-01	8.968458e+14	3.276721e+15	1.054897e+15	2.110022e+04	1.131464e+04	2.881063e+03	0	1.574683e-03
1.800000e+08	6.422514e+13	0.000000e+00	3.919597e-01	8.870916e+14	3.237985e+15	1.049246e+15	2.106439e+04	1.129844e+04	2.876938e+03	0	1.566923e-03
1.900000e+08	6.328508e+13	0.000000e+00	3.919597e-01	8.775261e+14	3.200209e+15	1.043637e+15	2.102894e+04	1.128253e+04	2.872886e+03	0	1.559240e-03
2.000000e+08	6.236344e+13	0.000000e+00	3.919597e-01	8.681441e+14	3.163355e+15	1.038068e+15	2.099387e+04	1.126689e+04	2.868903e+03	0	1.551634e-03
2.100000e+08	6.145971e+13	0.000000e+00	3.919597e-01	8.589405e+14	3.127391e+15	1.032541e+15	2.095918e+04	1.125151e+04	2.864988e+03	0	1.544102e-03
2.200000e+08	6.057338e+13	0.000000e+00	3.919597e-01	8.499105e+14	3.092282e+15	1.027055e+15	2.092485e+04	1.123640e+04	2.861139e+03	0	1.536644e-03
2.300000e+08	5.970398e+13	0.000000e+00	3.919597e-01	8.410492e+14	3.057997e+15	1.021608e+15	2.089089e+04	1.122153e+04	2.857353e+03	0	1.529256e-03
2.400000e+08	5.885105e+13	0.000000e+00	3.919597e-01	8.323521e+14	3.024507e+15	1.016202e+15	2.085727e+04	1.120691e+04	2.853630e+03	0	1.521939e-03
2.500000e+08	5.801415e+13	0.000000e+00	3.919597e-01	8.238149e+14	2.991783e+15	1.010835e+15	2.082400e+04	1.119252e+04	2.849966e+03	0	1.514690e-03
2.600000e+08	5.719284e+13	0.000000e+00	3.919597e-01	8.154332e+14	2.959798e+15	1.005508e+15	2.079108e+04	1.117836e+04	2.846361e+03	0	1.507509e-03
2.700000e+08	5.638672e+13	0.000000e+00	3.919597e-01	8.072031e+14	2.928526e+15	1.000219e+15	2.075848e+04	1.116442e+04	2.842812e+03	0	1.500392e-03
2.800000e+08	5.559538e+13	0.000000e+00	3.919597e-01	7.991205e+14	2.897942e+15	9.949694e+14	2.072622e+04	1.115070e+04	2.839318e+03	0	1.493340e-03
2.900000e+08	5.481844e+13	0.000000e+00	3.919597e-01	7.911817e+14	2.868024e+15	9.897578e+14	2.069427e+04	1.113719e+04	2.835877e+03	0	1.486351e-03
3.000000e+08	5.405553e+13	0.000000e+00	3.919597e-01	7.833829e+14	2.838749e+15	9.845842e+14	2.066265e+04	1.112388e+04	2.832489e+03	0	1.479424e-03
3.100000e+08	5.330628e+13	0.000000e+00	3.919597e-01	7.757206e+14	2.810095e+15	9.794483e+14	2.063133e+04	1.111077e+04	2.829151e+03	0	1.472557e-03
3.200000e+08	5.257035e+13	0.000000e+00	3.919597e-01	7.681914e+14	2.782042e+15	9.743497e+14	2.060032e+04	1.109786e+04	2.825862e+03	0	1.465749e-03
3.300000e+08	5.184740e+13	0.000000e+00	3.919597e-01	7.607919e+14	2.754571e+15	9.692882e+14	2.056961e+04	1.108513e+04	2.822621e+03	0	1.458999e-03
3.400000e+08	5.113710e+13	0.000000e+00	3.919597e-01	7.535188e+14	2.727661e+15	9.642635e+14	2.053919e+04	1.107258e+04	2.819426e+03	0	1.452305e-03
3.500000e+08	5.043915e+13	0.000000e+00	3.919597e-01	7.463691e+14	2.701297e+15	9.592753e+14	2.050906e+04	1.106021e+04	2.816277e+03	0	1.445668e-03
3.600000e+08	4.975323e+13	0.000000e+00	3.919597e-01	7.393398e+14	2.675460e+15	9.543232e+14	2.047922e+04	1.104802e+04	2.813172e+03	0	1.439085e-03
3.700000e+08	4.907905e+13	0.000000e+00	3.919597e-01	7.324279e+14	2.650134e+15	9.494069e+14	2.044966e+04	1.103599e+04	2.810110e+03	0	1.432555e-03
3.800000e+08	4.841632e+13	0.000000e+00	3.919597e-01	7.256306e+14	2.625303e+15	9.445263e+14	2.042037e+04	1.102413e+04	2.807089e+03	0	1.426078e-03
3.900000e+08	4.776478e+13	0.000000e+00	3.919597e-01	7.189451e+14	2.600953e+15	9.396809e+14	2.039136e+04	1.101243e+04	2.804110e+03	0	1.419652e-03
4.000000e+08	4.712414e+13	0.000000e+00	3.919597e-01	7.123688e+14	2.577068e+15	9.348705e+14	2.036261e+04	1.100088e+04	2.801170e+03	0	1.413276e-03
4.100000e+08	4.649416e+13	0.000000e+00	3.919597e-01	7.058992e+14	2.553635e+15	9.300948e+14	2.033412e+04	1.098949e+04	2.798269e+03	0	1.406950e-03
4.200000e+08	4.587457e+13	0.000000e+00	3.919597e-01	6.995337e+14	2.530640e+15	9.253535e+14	2.030589e+04	1.097824e+04	2.795405e+03	0	1.400672e-03
4.300000e+08	4.526514e+13	0.000000e+00	3.919597e-01	6.932700e+14	2.508071e+15	9.206464e+14	2.027792e+04	1.096714e+04	2.792579e+03	0	1.394442e-03
4.400000e+08	4.466563e+13	0.000000e+00	3.919597e-01	6.871056e+14	2.485916e+15	9.159731e+14	2.025019e+04	1.095619e+04	2.789788e+03	0	1.388259e-03
4.500000e+08	4.407581e+13	0.000000e+00	3.919597e-01	6.810383e+14	2.464161e+15	9.113334e+14	2.022271e+04	1.094536e+04	2.787033e+03	0	1.382121e-03
4.600000e+08	4.349546e+13	0.000000e+00	3.919597e-01	6.750659e+14	2.442797e+15	9.067271e+14	2.019548e+04	1.093468e+04	2.784312e+03	0	1.376028e-03
4.700000e+08	4.292436e+13	0.000000e+00	3.919597e-01	6.691863e+14	2.421811e+15	9.021537e+14	2.016848e+04	1.092412e+04	2.781624e+03	0	1.369979e-03
4.800000e+08	4.236230e+13	0.000000e+00	3.919597e-01	6.633974e+14	2.401194e+15	8.976131e+14	2.014171e+04	1.091370e+04	2.778970e+03	0	1.363973e-03
4.900000e+08	4.180909e+13	0.000000e+00	3.919597e-01	6.576971e+14	2.380936e+15	8.931051e+14	2.011518e+04	1.090340e+04	2.776347e+03	0	1.358009e-03
5.000000e+08	4.126451e+13	0.000000e+00	3.919597e-01	6.520835e+14	2.361026e+15	8.886293e+14	2.008887e+04	1.089322e+04	2.773755e+03	0	1.352088e-03
5.100000e+08	4.072839e+13	0.000000e+00	3.919597e-01	6.465548e+14	2.341455e+15	8.841854e+14	2.006279e+04	1.088316e+04	2.771193e+03	0	1.346206e-03
5.200000e+08	4.020054e+13	0.000000e+00	3.919597e-01	6.411090e+14	2.322214e+15	8.797733e+14	2.003692e+04	1.087322e+04	2.768662e+03	0	1.340365e-03
5.300000e+08	3.968077e+13	0.000000e+00	3.919597e-01	6.357444e+14	2.303294e+15	8.753926e+14	2.001128e+04	1.086339e+04	2.766160e+03	0	1.334564e-03
5.400000e+08	3.916890e+13	0.000000e+00	3.919597e-01	6.304592e+14	2.284688e+15	8.710431e+14	1.998585e+04	1.085367e+04	2.763686e+03	0	1.328800e-03
5.500000e+08	3.866478e+13	0.000000e+00	3.919597e-01	6.252517e+14	2.266386e+15	8.667246e+14	1.996063e+04	1.084407e+04	2.761240e+03	0	1.323075e-03
5.600000e+08	3.816823e+13	0.000000e+00	3.919597e-01	6.201203e+14	2.248381e+15	8.624368e+14	1.993561e+04	1.083457e+04	2.758821e+03	0	1.317387e-03
5.700000e+08	3.767910e+13	0.000000e+00	3.919597e-01	6.150634e+14	2.230665e+15	8.581794e+14	1.991081e+04	1.082517e+04	2.756429e+03	0	1.311735e-03
5.800000e+08	3.719721e+13	0.000000e+00	3.919597e-01	6.100795e+14	2.213231e+15	8.539523e+14	1.988620e+04	1.081588e+04	2.754063e+03	0	1.306119e-03
5.900000e+08	3.672244e+13	0.000000e+00	3.919597e-01	6.051669e+14	2.196073e+15	8.497551e+14	1.986179e+04	1.080669e+04	2.751722e+03	0	1.300538e-03
6.000000e+08	3.625461e+13	0.000000e+00	3.919597e-01	6.003243e+14	2.179182e+15	8.455876e+14	1.983758e+04	1.079760e+04	2.749407e+03	0	1.294992e-03
6.100000e+08	3.579360e+13	0.000000e+00	3.919597e-01	5.955502e+14	2.162553e+15	8.414496e+14	1.981356e+04	1.078860e+04	2.747116e+03	0	1.289479e-03
6.200000e+08	3.533926e+13	0.000000e+00	3.919597e-01	5.908432e+14	2.146179e+15	8.373408e+14	1.978974e+04	1.077970e+04	2.744849e+03	0	1.284000e-03
6.300000e+08	3.489145e+13	0.000000e+00	3.919597e-01	5.862020e+14	2.130054e+15	8.332610e+14	1.976610e+04	1.077089e+04	2.742606e+03	0	1.278553e-03
6.400000e+08	3.445004e+13	0.000000e+00	3.919597e-01	5.816251e+14	2.114171e+15	8.292100e+14	1.974264e+04	1.076217e+04	2.740385e+03	0	1.273139e-03
6.500000e+08	3.401491e+13	0.000000e+00	3.919597e-01	5.771115e+14	2.098527e+15	8.251876e+14	1.971937e+04	1.075353e+04	2.738187e+03	0	1.267756e-03
6.600000e+08	3.358592e+13	0.000000e+00	3.919597e-01	5.726597e+14	2.083113e+15	8.211934e+14	1.969628e+04	1.074499e+04	2.736011e+03	0	1.262404e-03
6.700000e+08	3.316295e+13	0.000000e+00	3.919597e-01	5.682686e+14	2.067926e+15	8.172274e+14	1.967336e+04	1.073653e+04	2.733857e+03	0	1.257082e-03
6.800000e+08	3.274589e+13	0.000000e+00	3.919597e-01	5.639369e+14	2.052960e+15	8.132892e+14	1.965062e+04	1.072815e+04	2.731724e+03	0	1.251790e-03
6.900000e+08	3.233461e+13	0.000000e+00	3.919597e-01	5.596636e+14	2.038210e+15	8.093786e+14	1.962806e+04	1.071986e+04	2.729612e+03	0	1.246527e-03
7.000000e+08	3.192901e+13	0.000000e+00	3.919597e-01	5.554475e+14	2.023671e+15	8.054954e+14	1.960566e+04	1.071164e+04	2.727520e+03	0	1.241293e-03
7.100000e+08	3.152897e+13	0.000000e+00	3.919597e-01	5.512874e+14	2.009339e+15	8.016394e+14	1.958343e+04	1.070351e+04	2.725449e+03	0	1.236087e-03
7.200000e+08	3.113439e+13	0.000000e+00	3.919597e-01	5.471824e+14	1.995208e+15	7.978104e+14	1.956137e+04	1.069545e+04	2.723397e+03	0	1.230909e-03
7.300000e+08	3.074515e+13	0.000000e+00	3.919597e-01	5.431313e+14	1.981274e+15	7.940081e+14	1.953947e+04	1.068747e+04	2.721364e+03	0	1.225758e-03
7.400000e+08	3.036117e+13	0.000000e+00	3.919597e-01	5.391332e+14	1.967533e+15	7.902324e+14	1.951774e+04	1.067956e+04	2.719350e+03	0	1.220634e-03
7.500000e+08	2.998233e+13	0.000000e+00	3.919597e-01	5.351870e+14	1.953980e+15	7.864830e+14	1.949616e+04	1.067172e+04	2.717355e+03	0	1.215536e-03
7.600000e+08	2.960854e+13	0.000000e+00	3.919597e-01	5.312918e+14	1.940612e+15	7.827597e+14	1.947474e+04	1.066396e+04	2.715378e+03	0	1.210463e-03
7.700000e+08	2.923971e+13	0.000000e+00	3.919597e-01	5.274467e+14	1.927425e+15	7.790623e+14	1.945348e+04	1.065626e+04	2.713419e+03	0	1.205416e-03
7.800000e+08	2.887574e+13	0.000000e+00	3.919597e-01	5.236506e+14	1.914415e+15	7.753907e+14	1.943237e+04	1.064864e+04	2.711477e+03	0	1.200393e-03
7.900000e+08	2.851655e+13	0.000000e+00	3.919597e-01	5.199028e+14	1.901577e+15	7.717445e+14	1.941141e+04	1.064108e+04	2.709553e+03	0	1.195395e-03
8.000000e+08	2.816204e+13	0.000000e+00	3.919597e-01	5.162023e+14	1.888909e+15	7.681236e+14	1.939060e+04	1.063359e+04	2.707645e+03	0	1.190421e-03
8.100000e+08	2.781212e+13	0.000000e+00	3.919597e-01	5.125482e+14	1.876407e+15	7.645278e+14	1.936994e+04	1.062616e+04	2.705754e+03	0	1.185470e-03
8.200000e+08	2.746672e+13	0.000000e+00	3.919597e-01	5.089398e+14	1.864068e+15	7.609569e+14	1.934943e+04	1.061880e+04	2.703880e+03	0	1.180542e-03
8.300000e+08	2.712576e+13	0.000000e+00	3.919597e-01	5.053762e+14	1.851887e+15	7.574107e+14	1.932906e+04	1.061150e+04	2.702021e+03	0	1.175637e-03
8.400000e+08	2.678914e+13	0.000000e+00	3.919597e-01	5.018566e+14	1.839863e+15	7.538889e+14	1.930883e+04	1.060427e+04	2.700179e+03	0	1.170754e-03
8.500000e+08	2.645680e+13	0.000000e+00	3.919597e-01	4.983802e+14	1.827991e+15	7.503915e+14	1.928874e+04	1.059709e+04	2.698352e+03	0	1.165892e-03
8.600000e+08	2.612866e+13	0.000000e+00	3.919597e-01	4.949463e+14	1.816269e+15	7.469182e+14	1.926879e+04	1.058998e+04	2.696540e+03	0	1.161052e-03
8.700000e+08	2.580464e+13	0.000000e+00	3.919597e-01	4.915541e+14	1.804694e+15	7.434688e+14	1.924898e+04	1.058292e+04	2.694743e+03	0	1.156232e-03
8.800000e+08	2.548466e+13	0.000000e+00	3.919597e-01	4.882029e+14	1.793262e+15	7.400431e+14	1.922930e+04	1.057592e+04	2.692961e+03	0	1.151434e-03
8.900000e+08	2.516867e+13	0.000000e+00	3.919597e-01	4.848920e+14	1.781972e+15	7.366409e+14	1.920976e+04	1.056898e+04	2.691193e+03	0	1.146655e-03
9.000000e+08	2.485659e+13	0.000000e+00	3.919597e-01	4.816207e+14	1.770820e+15	7.332621e+14	1.919035e+04	1.056209e+04	2.689440e+03	0	1.141896e-03
9.100000e+08	2.454835e+13	0.000000e+00	3.919597e-01	4.783883e+14	1.759804e+15	7.299065e+14	1.917107e+04	1.055526e+04	2.687700e+03	0	1.137156e-03
9.200000e+08	2.424388e+13	0.000000e+00	3.919597e-01	4.751941e+14	1.748920e+15	7.265738e+14	1.915192e+04	1.054848e+04	2.685975e+03	0	1.132435e-03
9.300000e+08	2.394312e+13	0.000000e+00	3.919597e-01	4.720375e+14	1.738168e+15	7.232640e+14	1.913290e+04	1.054176e+04	2.684263e+03	0	1.127733e-03
9.400000e+08	2.364601e+13	0.000000e+00	3.919597e-01	4.689179e+14	1.727543e+15	7.199767e+14	1.911400e+04	1.053509e+04	2.682564e+03	0	1.123048e-03
9.500000e+08	2.335248e+13	0.000000e+00	3.919597e-01	4.658346e+14	1.717045e+15	7.167119e+14	1.909523e+04	1.052847e+04	2.680879e+03	0	1.118382e-03
9.600000e+08	2.306247e+13	0.000000e+00	3.919597e-01	4.627870e+14	1.706669e+15	7.134694e+14	1.907658e+04	1.052190e+04	2.679206e+03	0	1.113733e-03
9.700000e+08	2.277593e+13	0.000000e+00	3.919597e-01	4.597745e+14	1.696415e+15	7.102489e+14	1.905805e+04	1.051538e+04	2.677546e+03	0	1.109101e-03
9.800000e+08	2.249279e+13	0.000000e+00	3.919597e-01	4.567966e+14	1.686280e+15	7.070504e+14	1.903964e+04	1.050891e+04	2.675899e+03	0	1.104486e-03
9.900000e+08	2.221300e+13	0.000000e+00	3.919597e-01	4.538527e+14	1.676261e+15	7.038736e+14	1.902136e+04	1.050249e+04	2.674264e+03	0	1.099888e-03
1.000000e+09	2.193650e+13	0.000000e+00	3.919597e-01	4.509422e+14	1.666357e+15	7.007183e+14	1.900318e+04	1.049612e+04	2.672641e+03	0	1.095305e-03
1.010000e+09	2.166325e+13	0.000000e+00	3.919597e-01	4.480646e+14	1.656566e+15	6.975845e+14	1.898513e+04	1.048979e+04	2.671030e+03	0	1.090738e-03
1.020000e+09	2.139318e+13	0.000000e+00	3.919597e-01	4.452194e+14	1.646885e+15	6.944719e+14	1.896719e+04	1.048351e+04	2.669431e+03	0	1.086186e-03
1.030000e+09	2.112624e+13	0.000000e+00	3.919597e-01	4.424059e+14	1.637313e+15	6.913803e+14	1.894936e+04	1.047728e+04	2.667843e+03	0	1.081650e-03
1.040000e+09	2.086238e+13	0.000000e+00	3.919597e-01	4.396238e+14	1.627847e+15	6.883097e+14	1.893165e+04	1.047109e+04	2.666267e+03	0	1.077128e-03
1.050000e+09	2.060155e+13	0.000000e+00	3.919597e-01	4.368725e+14	1.618487e+15	6.852598e+14	1.891405e+04	1.046494e+04	2.664702e+03	0	1.072620e-03
1.060000e+09	2.034371e+13	0.000000e+00	3.919597e-01	4.341515e+14	1.609230e+15	6.822304e+14	1.889656e+04	1.045884e+04	2.663148e+03	0	1.068126e-03
1.070000e+09	2.008881e+13	0.000000e+00	3.919597e-01	4.314604e+14	1.600074e+15	6.792215e+14	1.887917e+04	1.045278e+04	2.661605e+03	0	1.063646e-03
1.080000e+09	1.983679e+13	0.000000e+00	3.919597e-01	4.287986e+14	1.591017e+15	6.762328e+14	1.886190e+04	1.044676e+04	2.660073e+03	0	1.059180e-03
1.090000e+09	1.958762e+13	0.000000e+00	3.919597e-01	4.261658e+14	1.582058e+15	6.732642e+14	1.884473e+04	1.044079e+04	2.658552e+03	0	1.054726e-03
1.100000e+09	1.934124e+13	0.000000e+00	3.919597e-01	4.235614e+14	1.573196e+15	6.703155e+14	1.882766e+04	1.043485e+04	2.657041e+03	0	1.050285e-03
1.110000e+09	1.909762e+13	0.000000e+00	3.919597e-01	4.209850e+14	1.564428e+15	6.673866e+14	1.881070e+04	1.042896e+04	2.655540e+03	0	1.045857e-03
1.120000e+09	1.885670e+13	0.000000e+00	3.919597e-01	4.184363e+14	1.555754e+15	6.644774e+14	1.879384e+04	1.042311e+04	2.654050e+03	0	1.041441e-03
1.130000e+09	1.861846e+13	0.000000e+00	3.919597e-01	4.159147e+14	1.547171e+15	6.615876e+14	1.877709e+04	1.041729e+04	2.652569e+03	0	1.037036e-03
1.140000e+09	1.838284e+13	0.000000e+00	3.919597e-01	4.134198e+14	1.538678e+15	6.587171e+14	1.876043e+04	1.041152e+04	2.651099e+03	0	1.032643e-03
1.150000e+09	1.814981e+13	0.000000e+00	3.919597e-01	4.109513e+14	1.530273e+15	6.558658e+14	1.874388e+04	1.040578e+04	2.649638e+03	0	1.028261e-03
1.160000e+09	1.791933e+13	0.000000e+00	3.919597e-01	4.085087e+14	1.521956e+15	6.530335e+14	1.872742e+04	1.040008e+04	2.648186e+03	0	1.023890e-03
1.170000e+09	1.769135e+13	0.000000e+00	3.919597e-01	4.060917e+14	1.513724e+15	6.502200e+14	1.871106e+04	1.039442e+04	2.646745e+03	0	1.019529e-03
1.180000e+09	1.746584e+13	0.000000e+00	3.919597e-01	4.036999e+14	1.505577e+15	6.474253e+14	1.869480e+04	1.038879e+04	2.645312e+03	0	1.015179e-03
1.190000e+09	1.724277e+13	0.000000e+00	3.919597e-01	4.013329e+14	1.497513e+15	6.446492e+14	1.867863e+04	1.038320e+04	2.643889e+03	0	1.010838e-03
1.200000e+09	1.702209e+13	0.000000e+00	3.919597e-01	3.989902e+14	1.489531e+15	6.418915e+14	1.866256e+04	1.037765e+04	2.642475e+03	0	1.006507e-03
1.210000e+09	1.680377e+13	0.000000e+00	3.919597e-01	3.966717e+14	1.481629e+15	6.391521e+14	1.864658e+04	1.037213e+04	2.641070e+03	0	1.002186e-03
1.220000e+09	1.658777e+13	0.000000e+00	3.919597e-01	3.943769e+14	1.473806e+15	6.364308e+14	1.863070e+04	1.036665e+04	2.639674e+03	0	9.978729e-04
1.230000e+09	1.637406e+13	0.000000e+00	3.919597e-01	3.921054e+14	1.466061e+15	6.337275e+14	1.861490e+04	1.036120e+04	2.638286e+03	0	9.935691e-04
1.240000e+09	1.616261e+13	0.000000e+00	3.919597e-01	3.898569e+14	1.458393e+15	6.310421e+14	1.859920e+04	1.035578e+04	2.636908e+03	0	9.892736e-04
1.250000e+09	1.595338e+13	0.000000e+00	3.919597e-01	3.876312e+14	1.450801e+15	6.283745e+14	1.858359e+04	1.035040e+04	2.635537e+03	0	9.849863e-04
1.260000e+09	1.574634e+13	0.000000e+00	3.919597e-01	3.854278e+14	1.443283e+15	6.257244e+14	1.856806e+04	1.034505e+04	2.634175e+03	0	9.807067e-04
1.270000e+09	1.554146e+13	0.000000e+00	3.919597e-01	3.832464e+14	1.435838e+15	6.230918e+14	1.855263e+04	1.033974e+04	2.632822e+03	0	9.764347e-04
1.280000e+09	1.533871e+13	0.000000e+00	3.919597e-01	3.810868e+14	1.428466e+15	6.204765e+14	1.853728e+04	1.033446e+04	2.631477e+03	0	9.721698e-04
1.290000e+09	1.513805e+13	0.000000e+00	3.919597e-01	3.789485e+14	1.421164e+15	6.178784e+14	1.852201e+04	1.032920e+04	2.630139e+03	0	9.679119e-04
1.300000e+09	1.493945e+13	0.000000e+00	3.919597e-01	3.768314e+14	1.413933e+15	6.152973e+14	1.850684e+04	1.032398e+04	2.628810e+03	0	9.636606e-04
1.310000e+09	1.474289e+13	0.000000e+00	3.919597e-01	3.747351e+14	1.406771e+15	6.127332e+14	1.849174e+04	1.031879e+04	2.627489e+03	0	9.594156e-04
1.320000e+09	1.454834e+13	0.000000e+00	3.919597e-01	3.726593e+14	1.399677e+15	6.101858e+14	1.847673e+04	1.031364e+04	2.626175e+03	0	9.551766e-04
1.330000e+09	1.435576e+13	0.000000e+00	3.919597e-01	3.706037e+14	1.392650e+15	6.076551e+14	1.846181e+04	1.030851e+04	2.624869e+03	0	9.509433e-04
1.340000e+09	1.416514e+13	0.000000e+00	3.919597e-01	3.685681e+14	1.385689e+15	6.051410e+14	1.844696e+04	1.030341e+04	2.623571e+03	0	9.467155e-04
1.350000e+09	1.397643e+13	0.000000e+00	3.919597e-01	3.665522e+14	1.378794e+15	6.026432e+14	1.843220e+04	1.029834e+04	2.622280e+03	0	9.424927e-04
1.360000e+09	1.378962e+13	0.000000e+00	3.919597e-01	3.645556e+14	1.371962e+15	6.001618e+14	1.841752e+04	1.029330e+04	2.620997e+03	0	9.382747e-04
