#t		Qconv[W]	Ri[Rp]		R*[Rp]		Qc[W]		Qm[W]		Qr[W]		Tcmb[K]		Tl[K]		Tup[K]		RiFlag		Bs[T]
0.000000e+00	9.693043e+13	0.000000e+00	3.919598e-01	1.240446e+15	3.946834e+15	1.251092e+15	2.315621e+04	1.234858e+04	3.007442e+03	0	1.793165e-03
1.000000e+07	9.541574e+13	0.000000e+00	3.919598e-01	1.225803e+15	3.901319e+15	1.244160e+15	2.311170e+04	1.233189e+04	3.003378e+03	0	1.783776e-03
2.000000e+07	9.393294e+13	0.000000e+00	3.919598e-01	1.211462e+15	3.856883e+15	1.237280e+15	2.306772e+04	1.231548e+04	2.999380e+03	0	1.774487e-03
3.000000e+07	9.248109e+13	0.000000e+00	3.919598e-01	1.197414e+15	3.813487e+15	1.230452e+15	2.302425e+04	1.229933e+04	2.995447e+03	0	1.765298e-03
4.000000e+07	9.105928e+13	0.000000e+00	3.919598e-01	1.183650e+15	3.771092e+15	1.223674e+15	2.298128e+04	1.228344e+04	2.991577e+03	0	1.756204e-03
5.000000e+07	8.966664e+13	0.000000e+00	3.919598e-01	1.170164e+15	3.729663e+15	1.216947e+15	2.293880e+04	1.226779e+04	2.987767e+03	0	1.747205e-03
6.000000e+07	8.830231e+13	0.000000e+00	3.919598e-01	1.156945e+15	3.689165e+15	1.210270e+15	2.289681e+04	1.225239e+04	2.984016e+03	0	1.738298e-03
7.000000e+07	8.696550e+13	0.000000e+00	3.919598e-01	1.143988e+15	3.649567e+15	1.203642e+15	2.285529e+04	1.223722e+04	2.980322e+03	0	1.729482e-03
8.000000e+07	8.565542e+13	0.000000e+00	3.919598e-01	1.131284e+15	3.610838e+15	1.197064e+15	2.281423e+04	1.222228e+04	2.976683e+03	0	1.720753e-03
9.000000e+07	8.437132e+13	0.000000e+00	3.919598e-01	1.118827e+15	3.572947e+15	1.190535e+15	2.277363e+04	1.220757e+04	2.973099e+03	0	1.712111e-03
1.000000e+08	8.311247e+13	0.000000e+00	3.919598e-01	1.106610e+15	3.535867e+15	1.184055e+15	2.273347e+04	1.219306e+04	2.969567e+03	0	1.703553e-03
1.100000e+08	8.187817e+13	0.000000e+00	3.919598e-01	1.094626e+15	3.499571e+15	1.177622e+15	2.269375e+04	1.217877e+04	2.966086e+03	0	1.695078e-03
1.200000e+08	8.066776e+13	0.000000e+00	3.919598e-01	1.082868e+15	3.464032e+15	1.171237e+15	2.265445e+04	1.216468e+04	2.962655e+03	0	1.686684e-03
1.300000e+08	7.948058e+13	0.000000e+00	3.919598e-01	1.071331e+15	3.429227e+15	1.164900e+15	2.261558e+04	1.215079e+04	2.959272e+03	0	1.678368e-03
1.400000e+08	7.831600e+13	0.000000e+00	3.919598e-01	1.060009e+15	3.395132e+15	1.158609e+15	2.257712e+04	1.213709e+04	2.955936e+03	0	1.670131e-03
1.500000e+08	7.717342e+13	0.000000e+00	3.919598e-01	1.048896e+15	3.361724e+15	1.152365e+15	2.253906e+04	1.212358e+04	2.952646e+03	0	1.661969e-03
1.600000e+08	7.605225e+13	0.000000e+00	3.919598e-01	1.037987e+15	3.328982e+15	1.146167e+15	2.250141e+04	1.211026e+04	2.949400e+03	0	1.653881e-03
1.700000e+08	7.495193e+13	0.000000e+00	3.919598e-01	1.027276e+15	3.296884e+15	1.140014e+15	2.246414e+04	1.209711e+04	2.946198e+03	0	1.645866e-03
1.800000e+08	7.387192e+13	0.000000e+00	3.919598e-01	1.016758e+15	3.265412e+15	1.133907e+15	2.242725e+04	1.208414e+04	2.943038e+03	0	1.637923e-03
1.900000e+08	7.281169e+13	0.000000e+00	3.919598e-01	1.006428e+15	3.234546e+15	1.127845e+15	2.239075e+04	1.207133e+04	2.939919e+03	0	1.630049e-03
2.000000e+08	7.177072e+13	0.000000e+00	3.919598e-01	9.962813e+14	3.204268e+15	1.121828e+15	2.235461e+04	1.205869e+04	2.936841e+03	0	1.622244e-03
2.100000e+08	7.074854e+13	0.000000e+00	3.919598e-01	9.863135e+14	3.174561e+15	1.115855e+15	2.231883e+04	1.204621e+04	2.933802e+03	0	1.614505e-03
2.200000e+08	6.974465e+13	0.000000e+00	3.919598e-01	9.765199e+14	3.145407e+15	1.109926e+15	2.228342e+04	1.203389e+04	2.930801e+03	0	1.606832e-03
2.300000e+08	6.875860e+13	0.000000e+00	3.919598e-01	9.668961e+14	3.116790e+15	1.104040e+15	2.224835e+04	1.202172e+04	2.927837e+03	0	1.599224e-03
2.400000e+08	6.778995e+13	0.000000e+00	3.919598e-01	9.574380e+14	3.088696e+15	1.098197e+15	2.221362e+04	1.200970e+04	2.924910e+03	0	1.591679e-03
2.500000e+08	6.683826e+13	0.000000e+00	3.919598e-01	9.481416e+14	3.061109e+15	1.092397e+15	2.217924e+04	1.199783e+04	2.922019e+03	0	1.584195e-03
2.600000e+08	6.590312e+13	0.000000e+00	3.919598e-01	9.390028e+14	3.034015e+15	1.086640e+15	2.214519e+04	1.198610e+04	2.919162e+03	0	1.576772e-03
2.700000e+08	6.498412e+13	0.000000e+00	3.919598e-01	9.300179e+14	3.007400e+15	1.080925e+15	2.211146e+04	1.197451e+04	2.916339e+03	0	1.569409e-03
2.800000e+08	6.408088e+13	0.000000e+00	3.919598e-01	9.211831e+14	2.981250e+15	1.075251e+15	2.207806e+04	1.196306e+04	2.913550e+03	0	1.562103e-03
2.900000e+08	6.319300e+13	0.000000e+00	3.919598e-01	9.124950e+14	2.955554e+15	1.069619e+15	2.204497e+04	1.195173e+04	2.910792e+03	0	1.554855e-03
3.000000e+08	6.232013e+13	0.000000e+00	3.919598e-01	9.039499e+14	2.930298e+15	1.064028e+15	2.201220e+04	1.194054e+04	2.908067e+03	0	1.547663e-03
3.100000e+08	6.146191e+13	0.000000e+00	3.919598e-01	8.955447e+14	2.905472e+15	1.058478e+15	2.197972e+04	1.192948e+04	2.905372e+03	0	1.540526e-03
3.200000e+08	6.061799e+13	0.000000e+00	3.919598e-01	8.872759e+14	2.881063e+15	1.052968e+15	2.194756e+04	1.191854e+04	2.902707e+03	0	1.533442e-03
3.300000e+08	5.978805e+13	0.000000e+00	3.919598e-01	8.791405e+14	2.857060e+15	1.047498e+15	2.191568e+04	1.190772e+04	2.900072e+03	0	1.526412e-03
3.400000e+08	5.897174e+13	0.000000e+00	3.919598e-01	8.711353e+14	2.833453e+15	1.042068e+15	2.188410e+04	1.189702e+04	2.897466e+03	0	1.519433e-03
3.500000e+08	5.816877e+13	0.000000e+00	3.919598e-01	8.632574e+14	2.810232e+15	1.036677e+15	2.185281e+04	1.188643e+04	2.894889e+03	0	1.512505e-03
3.600000e+08	5.737882e+13	0.000000e+00	3.919598e-01	8.555040e+14	2.787387e+15	1.031325e+15	2.182179e+04	1.187596e+04	2.892339e+03	0	1.505627e-03
3.700000e+08	5.660160e+13	0.000000e+00	3.919598e-01	8.478722e+14	2.764908e+15	1.026013e+15	2.179106e+04	1.186561e+04	2.889816e+03	0	1.498798e-03
3.800000e+08	5.583682e+13	0.000000e+00	3.919598e-01	8.403592e+14	2.742786e+15	1.020738e+15	2.176060e+04	1.185536e+04	2.887320e+03	0	1.492017e-03
3.900000e+08	5.508421e+13	0.000000e+00	3.919598e-01	8.329626e+14	2.721012e+15	1.015502e+15	2.173040e+04	1.184521e+04	2.884850e+03	0	1.485283e-03
4.000000e+08	5.434348e+13	0.000000e+00	3.919598e-01	8.256796e+14	2.699578e+15	1.010303e+15	2.170047e+04	1.183518e+04	2.882405e+03	0	1.478596e-03
4.100000e+08	5.361438e+13	0.000000e+00	3.919598e-01	8.185078e+14	2.678475e+15	1.005142e+15	2.167081e+04	1.182524e+04	2.879985e+03	0	1.471953e-03
4.200000e+08	5.289665e+13	0.000000e+00	3.919598e-01	8.114448e+14	2.657696e+15	1.000018e+15	2.164140e+04	1.181540e+04	2.877589e+03	0	1.465356e-03
4.300000e+08	5.219005e+13	0.000000e+00	3.919598e-01	8.044882e+14	2.637232e+15	9.949314e+14	2.161224e+04	1.180567e+04	2.875218e+03	0	1.458801e-03
4.400000e+08	5.149432e+13	0.000000e+00	3.919598e-01	7.976358e+14	2.617076e+15	9.898810e+14	2.158333e+04	1.179602e+04	2.872870e+03	0	1.452290e-03
4.500000e+08	5.080924e+13	0.000000e+00	3.919598e-01	7.908852e+14	2.597221e+15	9.848670e+14	2.155467e+04	1.178648e+04	2.870545e+03	0	1.445821e-03
4.600000e+08	5.013458e+13	0.000000e+00	3.919598e-01	7.842345e+14	2.577659e+15	9.798889e+14	2.152625e+04	1.177702e+04	2.868242e+03	0	1.439393e-03
4.700000e+08	4.947012e+13	0.000000e+00	3.919598e-01	7.776814e+14	2.558384e+15	9.749466e+14	2.149807e+04	1.176766e+04	2.865962e+03	0	1.433006e-03
4.800000e+08	4.881563e+13	0.000000e+00	3.919598e-01	7.712239e+14	2.539390e+15	9.700396e+14	2.147012e+04	1.175839e+04	2.863703e+03	0	1.426658e-03
4.900000e+08	4.817092e+13	0.000000e+00	3.919598e-01	7.648600e+14	2.520670e+15	9.651678e+14	2.144240e+04	1.174920e+04	2.861466e+03	0	1.420350e-03
5.000000e+08	4.753577e+13	0.000000e+00	3.919598e-01	7.585878e+14	2.502217e+15	9.603308e+14	2.141492e+04	1.174010e+04	2.859249e+03	0	1.414079e-03
5.100000e+08	4.690999e+13	0.000000e+00	3.919598e-01	7.524054e+14	2.484026e+15	9.555284e+14	2.138765e+04	1.173108e+04	2.857053e+03	0	1.407847e-03
5.200000e+08	4.629339e+13	0.000000e+00	3.919598e-01	7.463110e+14	2.466091e+15	9.507603e+14	2.136061e+04	1.172215e+04	2.854877e+03	0	1.401651e-03
5.300000e+08	4.568577e+13	0.000000e+00	3.919598e-01	7.403028e+14	2.448407e+15	9.460262e+14	2.133379e+04	1.171329e+04	2.852721e+03	0	1.395492e-03
5.400000e+08	4.508695e+13	0.000000e+00	3.919598e-01	7.343791e+14	2.430967e+15	9.413257e+14	2.130718e+04	1.170452e+04	2.850584e+03	0	1.389368e-03
5.500000e+08	4.449676e+13	0.000000e+00	3.919598e-01	7.285381e+14	2.413767e+15	9.366588e+14	2.128079e+04	1.169582e+04	2.848466e+03	0	1.383279e-03
5.600000e+08	4.391501e+13	0.000000e+00	3.919598e-01	7.227782e+14	2.396801e+15	9.320250e+14	2.125460e+04	1.168720e+04	2.846366e+03	0	1.377224e-03
5.700000e+08	4.334155e+13	0.000000e+00	3.919598e-01	7.170978e+14	2.380065e+15	9.274241e+14	2.122862e+04	1.167866e+04	2.844285e+03	0	1.371203e-03
5.800000e+08	4.277620e+13	0.000000e+00	3.919598e-01	7.114953e+14	2.363553e+15	9.228558e+14	2.120284e+04	1.167019e+04	2.842222e+03	0	1.365215e-03
5.900000e+08	4.221881e+13	0.000000e+00	3.919598e-01	7.059693e+14	2.347261e+15	9.183200e+14	2.117727e+04	1.166179e+04	2.840177e+03	0	1.359259e-03
6.000000e+08	4.166922e+13	0.000000e+00	3.919598e-01	7.005182e+14	2.331185e+15	9.138162e+14	2.115189e+04	1.165346e+04	2.838149e+03	0	1.353335e-03
6.100000e+08	4.112727e+13	0.000000e+00	3.919598e-01	6.951406e+14	2.315319e+15	9.093443e+14	2.112671e+04	1.164520e+04	2.836138e+03	0	1.347443e-03
6.200000e+08	4.059283e+13	0.000000e+00	3.919598e-01	6.898351e+14	2.299660e+15	9.049040e+14	2.110172e+04	1.163702e+04	2.834144e+03	0	1.341580e-03
6.300000e+08	4.006573e+13	0.000000e+00	3.919598e-01	6.846003e+14	2.284203e+15	9.004951e+14	2.107692e+04	1.162890e+04	2.832167e+03	0	1.335748e-03
6.400000e+08	3.954585e+13	0.000000e+00	3.919598e-01	6.794348e+14	2.268944e+15	8.961172e+14	2.105231e+04	1.162084e+04	2.830205e+03	0	1.329946e-03
6.500000e+08	3.903304e+13	0.000000e+00	3.919598e-01	6.743374e+14	2.253880e+15	8.917702e+14	2.102788e+04	1.161286e+04	2.828260e+03	0	1.324172e-03
6.600000e+08	3.852717e+13	0.000000e+00	3.919598e-01	6.693067e+14	2.239006e+15	8.874538e+14	2.100364e+04	1.160493e+04	2.826330e+03	0	1.318427e-03
6.700000e+08	3.802810e+13	0.000000e+00	3.919598e-01	6.643416e+14	2.224319e+15	8.831677e+14	2.097958e+04	1.159707e+04	2.824416e+03	0	1.312709e-03
6.800000e+08	3.753572e+13	0.000000e+00	3.919598e-01	6.594408e+14	2.209815e+15	8.789117e+14	2.095569e+04	1.158928e+04	2.822517e+03	0	1.307019e-03
6.900000e+08	3.704989e+13	0.000000e+00	3.919598e-01	6.546030e+14	2.195491e+15	8.746856e+14	2.093199e+04	1.158154e+04	2.820633e+03	0	1.301355e-03
7.000000e+08	3.657050e+13	0.000000e+00	3.919598e-01	6.498273e+14	2.181343e+15	8.704891e+14	2.090845e+04	1.157386e+04	2.818763e+03	0	1.295718e-03
7.100000e+08	3.609742e+13	0.000000e+00	3.919598e-01	6.451124e+14	2.167367e+15	8.663220e+14	2.088509e+04	1.156625e+04	2.816908e+03	0	1.290107e-03
7.200000e+08	3.563053e+13	0.000000e+00	3.919598e-01	6.404572e+14	2.153561e+15	8.621840e+14	2.086189e+04	1.155869e+04	2.815067e+03	0	1.284521e-03
7.300000e+08	3.516973e+13	0.000000e+00	3.919598e-01	6.358606e+14	2.139921e+15	8.580749e+14	2.083886e+04	1.155119e+04	2.813241e+03	0	1.278959e-03
7.400000e+08	3.471491e+13	0.000000e+00	3.919598e-01	6.313217e+14	2.126444e+15	8.539946e+14	2.081600e+04	1.154374e+04	2.811427e+03	0	1.273422e-03
7.500000e+08	3.426595e+13	0.000000e+00	3.919598e-01	6.268393e+14	2.113127e+15	8.499426e+14	2.079330e+04	1.153635e+04	2.809628e+03	0	1.267908e-03
7.600000e+08	3.382275e+13	0.000000e+00	3.919598e-01	6.224125e+14	2.099967e+15	8.459189e+14	2.077076e+04	1.152902e+04	2.807842e+03	0	1.262418e-03
7.700000e+08	3.338521e+13	0.000000e+00	3.919598e-01	6.180402e+14	2.086962e+15	8.419232e+14	2.074838e+04	1.152174e+04	2.806069e+03	0	1.256951e-03
7.800000e+08	3.295323e+13	0.000000e+00	3.919598e-01	6.137216e+14	2.074108e+15	8.379553e+14	2.072616e+04	1.151451e+04	2.804309e+03	0	1.251506e-03
7.900000e+08	3.252671e+13	0.000000e+00	3.919598e-01	6.094557e+14	2.061403e+15	8.340149e+14	2.070409e+04	1.150734e+04	2.802562e+03	0	1.246083e-03
8.000000e+08	3.210554e+13	0.000000e+00	3.919598e-01	6.052415e+14	2.048844e+15	8.301018e+14	2.068217e+04	1.150022e+04	2.800827e+03	0	1.240681e-03
8.100000e+08	3.168965e+13	0.000000e+00	3.919598e-01	6.010782e+14	2.036429e+15	8.262159e+14	2.066041e+04	1.149314e+04	2.799104e+03	0	1.235301e-03
8.200000e+08	3.127893e+13	0.000000e+00	3.919598e-01	5.969650e+14	2.024154e+15	8.223569e+14	2.063879e+04	1.148612e+04	2.797394e+03	0	1.229941e-03
8.300000e+08	3.087330e+13	0.000000e+00	3.919598e-01	5.929008e+14	2.012018e+15	8.185245e+14	2.061732e+04	1.147915e+04	2.795696e+03	0	1.224601e-03
8.400000e+08	3.047266e+13	0.000000e+00	3.919598e-01	5.888850e+14	2.000018e+15	8.147186e+14	2.059600e+04	1.147223e+04	2.794010e+03	0	1.219281e-03
8.500000e+08	3.007694e+13	0.000000e+00	3.919598e-01	5.849167e+14	1.988152e+15	8.109390e+14	2.057482e+04	1.146535e+04	2.792335e+03	0	1.213980e-03
8.600000e+08	2.968605e+13	0.000000e+00	3.919598e-01	5.809950e+14	1.976418e+15	8.071854e+14	2.055379e+04	1.145852e+04	2.790672e+03	0	1.208698e-03
8.700000e+08	2.929990e+13	0.000000e+00	3.919598e-01	5.771193e+14	1.964812e+15	8.034577e+14	2.053289e+04	1.145174e+04	2.789021e+03	0	1.203434e-03
8.800000e+08	2.891843e+13	0.000000e+00	3.919598e-01	5.732887e+14	1.953334e+15	7.997556e+14	2.051214e+04	1.144500e+04	2.787380e+03	0	1.198189e-03
8.900000e+08	2.854153e+13	0.000000e+00	3.919598e-01	5.695025e+14	1.941980e+15	7.960789e+14	2.049152e+04	1.143831e+04	2.785750e+03	0	1.192960e-03
9.000000e+08	2.816916e+13	0.000000e+00	3.919598e-01	5.657600e+14	1.930749e+15	7.924275e+14	2.047103e+04	1.143167e+04	2.784132e+03	0	1.187750e-03
9.100000e+08	2.780121e+13	0.000000e+00	3.919598e-01	5.620604e+14	1.919639e+15	7.888011e+14	2.045069e+04	1.142506e+04	2.782524e+03	0	1.182555e-03
9.200000e+08	2.743763e+13	0.000000e+00	3.919598e-01	5.584030e+14	1.908648e+15	7.851995e+14	2.043047e+04	1.141850e+04	2.780926e+03	0	1.177378e-03
9.300000e+08	2.707834e+13	0.000000e+00	3.919598e-01	5.547872e+14	1.897773e+15	7.816226e+14	2.041039e+04	1.141199e+04	2.779340e+03	0	1.172216e-03
9.400000e+08	2.672327e+13	0.000000e+00	3.919598e-01	5.512123e+14	1.887013e+15	7.780701e+14	2.039043e+04	1.140551e+04	2.777763e+03	0	1.167070e-03
9.500000e+08	2.637235e+13	0.000000e+00	3.919598e-01	5.476776e+14	1.876367e+15	7.745419e+14	2.037061e+04	1.139908e+04	2.776196e+03	0	1.161939e-03
9.600000e+08	2.602551e+13	0.000000e+00	3.919598e-01	5.441825e+14	1.865831e+15	7.710377e+14	2.035091e+04	1.139269e+04	2.774640e+03	0	1.156822e-03
9.700000e+08	2.568269e+13	0.000000e+00	3.919598e-01	5.407264e+14	1.855405e+15	7.675574e+14	2.033133e+04	1.138634e+04	2.773093e+03	0	1.151721e-03
9.800000e+08	2.534383e+13	0.000000e+00	3.919598e-01	5.373085e+14	1.845087e+15	7.641007e+14	2.031188e+04	1.138003e+04	2.771557e+03	0	1.146633e-03
9.900000e+08	2.500885e+13	0.000000e+00	3.919598e-01	5.339284e+14	1.834875e+15	7.606676e+14	2.029256e+04	1.137376e+04	2.770029e+03	0	1.141559e-03
1.000000e+09	2.467770e+13	0.000000e+00	3.919598e-01	5.305855e+14	1.824767e+15	7.572578e+14	2.027335e+04	1.136753e+04	2.768512e+03	0	1.136498e-03
1.010000e+09	2.435032e+13	0.000000e+00	3.919598e-01	5.272791e+14	1.814762e+15	7.538711e+14	2.025426e+04	1.136134e+04	2.767003e+03	0	1.131450e-03
1.020000e+09	2.402664e+13	0.000000e+00	3.919598e-01	5.240086e+14	1.804858e+15	7.505073e+14	2.023530e+04	1.135518e+04	2.765504e+03	0	1.126414e-03
1.030000e+09	2.370662e+13	0.000000e+00	3.919598e-01	5.207736e+14	1.795053e+15	7.471663e+14	2.021645e+04	1.134906e+04	2.764014e+03	0	1.121390e-03
1.040000e+09	2.339018e+13	0.000000e+00	3.919598e-01	5.175735e+14	1.785347e+15	7.438479e+14	2.019771e+04	1.134298e+04	2.762534e+03	0	1.116379e-03
1.050000e+09	2.307728e+13	0.000000e+00	3.919598e-01	5.144077e+14	1.775737e+15	7.405519e+14	2.017909e+04	1.133694e+04	2.761062e+03	0	1.111378e-03
1.060000e+09	2.276786e+13	0.000000e+00	3.919598e-01	5.112757e+14	1.766222e+15	7.372781e+14	2.016059e+04	1.133093e+04	2.759598e+03	0	1.106389e-03
1.070000e+09	2.246187e+13	0.000000e+00	3.919598e-01	5.081771e+14	1.756801e+15	7.340264e+14	2.014220e+04	1.132496e+04	2.758144e+03	0	1.101410e-03
1.080000e+09	2.215925e+13	0.000000e+00	3.919598e-01	5.051112e+14	1.747472e+15	7.307966e+14	2.012391e+04	1.131902e+04	2.756698e+03	0	1.096441e-03
1.090000e+09	2.185995e+13	0.000000e+00	3.919598e-01	5.020777e+14	1.738234e+15	7.275884e+14	2.010574e+04	1.131312e+04	2.755261e+03	0	1.091482e-03
1.100000e+09	2.156393e+13	0.000000e+00	3.919598e-01	4.990759e+14	1.729086e+15	7.244018e+14	2.008768e+04	1.130725e+04	2.753832e+03	0	1.086533e-03
1.110000e+09	2.127113e+13	0.000000e+00	3.919598e-01	4.961056e+14	1.720025e+15	7.212366e+14	2.006973e+04	1.130142e+04	2.752411e+03	0	1.081593e-03
1.120000e+09	2.098150e+13	0.000000e+00	3.919598e-01	4.931660e+14	1.711052e+15	7.180926e+14	2.005188e+04	1.129562e+04	2.750998e+03	0	1.076661e-03
1.130000e+09	2.069499e+13	0.000000e+00	3.919598e-01	4.902570e+14	1.702165e+15	7.149696e+14	2.003413e+04	1.128985e+04	2.749594e+03	0	1.071738e-03
1.140000e+09	2.041157e+13	0.000000e+00	3.919598e-01	4.873779e+14	1.693361e+15	7.118675e+14	2.001650e+04	1.128412e+04	2.748198e+03	0	1.066823e-03
1.150000e+09	2.013118e+13	0.000000e+00	3.919598e-01	4.845283e+14	1.684642e+15	7.087862e+14	1.999896e+04	1.127842e+04	2.746809e+03	0	1.061916e-03
1.160000e+09	1.985377e+13	0.000000e+00	3.919598e-01	4.817078e+14	1.676004e+15	7.057253e+14	1.998153e+04	1.127275e+04	2.745428e+03	0	1.057015e-03
1.170000e+09	1.957931e+13	0.000000e+00	3.919598e-01	4.789160e+14	1.667447e+15	7.026849e+14	1.996420e+04	1.126711e+04	2.744055e+03	0	1.052122e-03
1.180000e+09	1.930776e+13	0.000000e+00	3.919598e-01	4.761525e+14	1.658970e+15	6.996647e+14	1.994697e+04	1.126150e+04	2.742690e+03	0	1.047235e-03
1.190000e+09	1.903906e+13	0.000000e+00	3.919598e-01	4.734168e+14	1.650571e+15	6.966645e+14	1.992984e+04	1.125593e+04	2.741332e+03	0	1.042354e-03
1.200000e+09	1.877317e+13	0.000000e+00	3.919598e-01	4.707086e+14	1.642250e+15	6.936843e+14	1.991280e+04	1.125038e+04	2.739981e+03	0	1.037479e-03
1.210000e+09	1.851006e+13	0.000000e+00	3.919598e-01	4.680275e+14	1.634005e+15	6.907239e+14	1.989587e+04	1.124487e+04	2.738638e+03	0	1.032610e-03
1.220000e+09	1.824969e+13	0.000000e+00	3.919598e-01	4.653730e+14	1.625836e+15	6.877830e+14	1.987903e+04	1.123938e+04	2.737303e+03	0	1.027745e-03
1.230000e+09	1.799201e+13	0.000000e+00	3.919598e-01	4.627449e+14	1.617741e+15	6.848617e+14	1.986228e+04	1.123393e+04	2.735974e+03	0	1.022885e-03
1.240000e+09	1.773699e+13	0.000000e+00	3.919598e-01	4.601426e+14	1.609720e+15	6.819596e+14	1.984563e+04	1.122850e+04	2.734653e+03	0	1.018029e-03
1.250000e+09	1.748459e+13	0.000000e+00	3.919598e-01	4.575660e+14	1.601771e+15	6.790767e+14	1.982907e+04	1.122311e+04	2.733338e+03	0	1.013177e-03
1.260000e+09	1.723477e+13	0.000000e+00	3.919598e-01	4.550145e+14	1.593893e+15	6.762128e+14	1.981261e+04	1.121774e+04	2.732031e+03	0	1.008329e-03
1.270000e+09	1.698749e+13	0.000000e+00	3.919598e-01	4.524879e+14	1.586085e+15	6.733677e+14	1.979624e+04	1.121240e+04	2.730730e+03	0	1.003483e-03
1.280000e+09	1.674273e+13	0.000000e+00	3.919598e-01	4.499859e+14	1.578347e+15	6.705414e+14	1.977995e+04	1.120709e+04	2.729437e+03	0	9.986402e-04
1.290000e+09	1.650044e+13	0.000000e+00	3.919598e-01	4.475080e+14	1.570678e+15	6.677336e+14	1.976376e+04	1.120180e+04	2.728150e+03	0	9.937995e-04
1.300000e+09	1.626059e+13	0.000000e+00	3.919598e-01	4.450539e+14	1.563076e+15	6.649443e+14	1.974766e+04	1.119655e+04	2.726869e+03	0	9.889607e-04
1.310000e+09	1.602314e+13	0.000000e+00	3.919598e-01	4.426234e+14	1.555541e+15	6.621733e+14	1.973164e+04	1.119132e+04	2.725596e+03	0	9.841233e-04
1.320000e+09	1.578807e+13	0.000000e+00	3.919598e-01	4.402160e+14	1.548072e+15	6.594204e+14	1.971572e+04	1.118611e+04	2.724329e+03	0	9.792870e-04
1.330000e+09	1.555534e+13	0.000000e+00	3.919598e-01	4.378316e+14	1.540668e+15	6.566855e+14	1.969988e+04	1.118094e+04	2.723068e+03	0	9.744512e-04
1.340000e+09	1.532491e+13	0.000000e+00	3.919598e-01	4.354697e+14	1.533328e+15	6.539685e+14	1.968412e+04	1.117579e+04	2.721814e+03	0	9.696156e-04
1.350000e+09	1.509676e+13	0.000000e+00	3.919598e-01	4.331301e+14	1.526051e+15	6.512692e+14	1.966845e+04	1.117066e+04	2.720566e+03	0	9.647798e-04
1.360000e+09	1.487085e+13	0.000000e+00	3.919598e-01	4.308124e+14	1.518837e+15	6.485875e+14	1.965286e+04	1.116556e+04	2.719324e+03	0	9.599433e-04
