#t		Qconv[W]	Ri[Rp]		R*[Rp]		Qc[W]		Qm[W]		Qr[W]		Tcmb[K]		Tl[K]		Tup[K]		RiFlag		Bs[T]
0.000000e+00	1.244659e+14	0.000000e+00	3.919597e-01	1.632242e+15	3.364771e+15	1.483371e+15	2.688347e+04	1.425392e+04	3.109214e+03	0	1.944408e-03
1.000000e+07	1.226765e+14	0.000000e+00	3.919597e-01	1.616360e+15	3.352035e+15	1.475152e+15	2.683763e+04	1.425139e+04	3.108663e+03	0	1.935045e-03
2.000000e+07	1.209164e+14	0.000000e+00	3.919597e-01	1.600731e+15	3.339212e+15	1.466995e+15	2.679223e+04	1.424874e+04	3.108086e+03	0	1.925746e-03
3.000000e+07	1.191849e+14	0.000000e+00	3.919597e-01	1.585350e+15	3.326308e+15	1.458898e+15	2.674727e+04	1.424599e+04	3.107485e+03	0	1.916510e-03
4.000000e+07	1.174814e+14	0.000000e+00	3.919597e-01	1.570210e+15	3.313330e+15	1.450862e+15	2.670274e+04	1.424313e+04	3.106861e+03	0	1.907335e-03
5.000000e+07	1.158052e+14	0.000000e+00	3.919597e-01	1.555307e+15	3.300284e+15	1.442886e+15	2.665864e+04	1.424017e+04	3.106215e+03	0	1.898221e-03
6.000000e+07	1.141559e+14	0.000000e+00	3.919597e-01	1.540636e+15	3.287176e+15	1.434969e+15	2.661495e+04	1.423710e+04	3.105548e+03	0	1.889166e-03
7.000000e+07	1.125328e+14	0.000000e+00	3.919597e-01	1.526192e+15	3.274013e+15	1.427112e+15	2.657167e+04	1.423395e+04	3.104859e+03	0	1.880170e-03
8.000000e+07	1.109354e+14	0.000000e+00	3.919597e-01	1.511971e+15	3.260800e+15	1.419312e+15	2.652880e+04	1.423070e+04	3.104151e+03	0	1.871231e-03
9.000000e+07	1.093632e+14	0.000000e+00	3.919597e-01	1.497967e+15	3.247543e+15	1.411571e+15	2.648633e+04	1.422737e+04	3.103423e+03	0	1.862349e-03
1.000000e+08	1.078155e+14	0.000000e+00	3.919597e-01	1.484177e+15	3.234246e+15	1.403887e+15	2.644425e+04	1.422394e+04	3.102677e+03	0	1.853522e-03
1.100000e+08	1.062921e+14	0.000000e+00	3.919597e-01	1.470595e+15	3.220916e+15	1.396260e+15	2.640255e+04	1.422044e+04	3.101913e+03	0	1.844750e-03
1.200000e+08	1.047922e+14	0.000000e+00	3.919597e-01	1.457219e+15	3.207557e+15	1.388690e+15	2.636123e+04	1.421686e+04	3.101131e+03	0	1.836032e-03
1.300000e+08	1.033155e+14	0.000000e+00	3.919597e-01	1.444042e+15	3.194173e+15	1.381176e+15	2.632029e+04	1.421320e+04	3.100333e+03	0	1.827367e-03
1.400000e+08	1.018614e+14	0.000000e+00	3.919597e-01	1.431063e+15	3.180770e+15	1.373717e+15	2.627972e+04	1.420947e+04	3.099519e+03	0	1.818754e-03
1.500000e+08	1.004296e+14	0.000000e+00	3.919597e-01	1.418276e+15	3.167351e+15	1.366314e+15	2.623951e+04	1.420567e+04	3.098690e+03	0	1.810192e-03
1.600000e+08	9.901952e+13	0.000000e+00	3.919597e-01	1.405677e+15	3.153920e+15	1.358965e+15	2.619966e+04	1.420180e+04	3.097846e+03	0	1.801680e-03
1.700000e+08	9.763077e+13	0.000000e+00	3.919597e-01	1.393264e+15	3.140481e+15	1.351670e+15	2.616017e+04	1.419786e+04	3.096987e+03	0	1.793217e-03
1.800000e+08	9.626291e+13	0.000000e+00	3.919597e-01	1.381032e+15	3.127039e+15	1.344430e+15	2.612102e+04	1.419386e+04	3.096115e+03	0	1.784803e-03
1.900000e+08	9.491554e+13	0.000000e+00	3.919597e-01	1.368978e+15	3.113596e+15	1.337242e+15	2.608221e+04	1.418980e+04	3.095229e+03	0	1.776437e-03
2.000000e+08	9.358824e+13	0.000000e+00	3.919597e-01	1.357097e+15	3.100156e+15	1.330108e+15	2.604374e+04	1.418568e+04	3.094331e+03	0	1.768117e-03
2.100000e+08	9.228062e+13	0.000000e+00	3.919597e-01	1.345388e+15	3.086723e+15	1.323025e+15	2.600560e+04	1.418151e+04	3.093421e+03	0	1.759844e-03
2.200000e+08	9.099228e+13	0.000000e+00	3.919597e-01	1.333846e+15	3.073299e+15	1.315995e+15	2.596780e+04	1.417728e+04	3.092499e+03	0	1.751616e-03
2.300000e+08	8.972286e+13	0.000000e+00	3.919597e-01	1.322469e+15	3.059888e+15	1.309017e+15	2.593031e+04	1.417301e+04	3.091565e+03	0	1.743432e-03
2.400000e+08	8.847198e+13	0.000000e+00	3.919597e-01	1.311252e+15	3.046492e+15	1.302090e+15	2.589315e+04	1.416868e+04	3.090621e+03	0	1.735292e-03
2.500000e+08	8.723928e+13	0.000000e+00	3.919597e-01	1.300194e+15	3.033114e+15	1.295213e+15	2.585629e+04	1.416430e+04	3.089667e+03	0	1.727195e-03
2.600000e+08	8.602441e+13	0.000000e+00	3.919597e-01	1.289290e+15	3.019756e+15	1.288387e+15	2.581975e+04	1.415988e+04	3.088702e+03	0	1.719140e-03
2.700000e+08	8.482703e+13	0.000000e+00	3.919597e-01	1.278539e+15	3.006422e+15	1.281610e+15	2.578351e+04	1.415541e+04	3.087728e+03	0	1.711126e-03
2.800000e+08	8.364681e+13	0.000000e+00	3.919597e-01	1.267937e+15	2.993114e+15	1.274883e+15	2.574758e+04	1.415091e+04	3.086745e+03	0	1.703153e-03
2.900000e+08	8.248340e+13	0.000000e+00	3.919597e-01	1.257481e+15	2.979833e+15	1.268206e+15	2.571194e+04	1.414636e+04	3.085753e+03	0	1.695220e-03
3.000000e+08	8.133651e+13	0.000000e+00	3.919597e-01	1.247169e+15	2.966582e+15	1.261577e+15	2.567660e+04	1.414177e+04	3.084752e+03	0	1.687327e-03
3.100000e+08	8.020580e+13	0.000000e+00	3.919597e-01	1.236997e+15	2.953363e+15	1.254996e+15	2.564154e+04	1.413715e+04	3.083743e+03	0	1.679471e-03
3.200000e+08	7.909099e+13	0.000000e+00	3.919597e-01	1.226964e+15	2.940178e+15	1.248463e+15	2.560677e+04	1.413249e+04	3.082727e+03	0	1.671654e-03
3.300000e+08	7.799177e+13	0.000000e+00	3.919597e-01	1.217067e+15	2.927029e+15	1.241977e+15	2.557228e+04	1.412779e+04	3.081703e+03	0	1.663873e-03
3.400000e+08	7.690785e+13	0.000000e+00	3.919597e-01	1.207303e+15	2.913918e+15	1.235539e+15	2.553807e+04	1.412307e+04	3.080672e+03	0	1.656129e-03
3.500000e+08	7.583894e+13	0.000000e+00	3.919597e-01	1.197670e+15	2.900845e+15	1.229147e+15	2.550413e+04	1.411831e+04	3.079635e+03	0	1.648421e-03
3.600000e+08	7.478477e+13	0.000000e+00	3.919597e-01	1.188165e+15	2.887814e+15	1.222802e+15	2.547046e+04	1.411352e+04	3.078591e+03	0	1.640747e-03
3.700000e+08	7.374507e+13	0.000000e+00	3.919597e-01	1.178786e+15	2.874824e+15	1.216503e+15	2.543706e+04	1.410871e+04	3.077540e+03	0	1.633108e-03
3.800000e+08	7.271957e+13	0.000000e+00	3.919597e-01	1.169531e+15	2.861879e+15	1.210249e+15	2.540392e+04	1.410387e+04	3.076484e+03	0	1.625503e-03
3.900000e+08	7.170801e+13	0.000000e+00	3.919597e-01	1.160398e+15	2.848978e+15	1.204041e+15	2.537104e+04	1.409900e+04	3.075422e+03	0	1.617931e-03
4.000000e+08	7.071014e+13	0.000000e+00	3.919597e-01	1.151384e+15	2.836124e+15	1.197877e+15	2.533842e+04	1.409411e+04	3.074355e+03	0	1.610391e-03
4.100000e+08	6.972572e+13	0.000000e+00	3.919597e-01	1.142487e+15	2.823318e+15	1.191758e+15	2.530605e+04	1.408919e+04	3.073283e+03	0	1.602882e-03
4.200000e+08	6.875449e+13	0.000000e+00	3.919597e-01	1.133706e+15	2.810560e+15	1.185683e+15	2.527392e+04	1.408425e+04	3.072206e+03	0	1.595405e-03
4.300000e+08	6.779622e+13	0.000000e+00	3.919597e-01	1.125037e+15	2.797852e+15	1.179651e+15	2.524205e+04	1.407929e+04	3.071124e+03	0	1.587958e-03
4.400000e+08	6.685069e+13	0.000000e+00	3.919597e-01	1.116480e+15	2.785194e+15	1.173663e+15	2.521042e+04	1.407432e+04	3.070038e+03	0	1.580542e-03
4.500000e+08	6.591766e+13	0.000000e+00	3.919597e-01	1.108032e+15	2.772589e+15	1.167718e+15	2.517903e+04	1.406932e+04	3.068948e+03	0	1.573154e-03
4.600000e+08	6.499691e+13	0.000000e+00	3.919597e-01	1.099691e+15	2.760036e+15	1.161816e+15	2.514787e+04	1.406430e+04	3.067854e+03	0	1.565795e-03
4.700000e+08	6.408823e+13	0.000000e+00	3.919597e-01	1.091456e+15	2.747537e+15	1.155956e+15	2.511695e+04	1.405927e+04	3.066756e+03	0	1.558464e-03
4.800000e+08	6.319140e+13	0.000000e+00	3.919597e-01	1.083324e+15	2.735092e+15	1.150138e+15	2.508626e+04	1.405422e+04	3.065655e+03	0	1.551160e-03
4.900000e+08	6.230622e+13	0.000000e+00	3.919597e-01	1.075294e+15	2.722701e+15	1.144362e+15	2.505580e+04	1.404916e+04	3.064550e+03	0	1.543883e-03
5.000000e+08	6.143248e+13	0.000000e+00	3.919597e-01	1.067365e+15	2.710367e+15	1.138627e+15	2.502556e+04	1.404408e+04	3.063443e+03	0	1.536632e-03
5.100000e+08	6.056999e+13	0.000000e+00	3.919597e-01	1.059533e+15	2.698089e+15	1.132933e+15	2.499554e+04	1.403899e+04	3.062332e+03	0	1.529407e-03
5.200000e+08	5.971855e+13	0.000000e+00	3.919597e-01	1.051798e+15	2.685868e+15	1.127279e+15	2.496575e+04	1.403388e+04	3.061219e+03	0	1.522207e-03
5.300000e+08	5.887797e+13	0.000000e+00	3.919597e-01	1.044158e+15	2.673705e+15	1.121666e+15	2.493617e+04	1.402877e+04	3.060103e+03	0	1.515031e-03
5.400000e+08	5.804807e+13	0.000000e+00	3.919597e-01	1.036612e+15	2.661599e+15	1.116093e+15	2.490681e+04	1.402364e+04	3.058984e+03	0	1.507879e-03
5.500000e+08	5.722867e+13	0.000000e+00	3.919597e-01	1.029158e+15	2.649552e+15	1.110560e+15	2.487766e+04	1.401850e+04	3.057864e+03	0	1.500751e-03
5.600000e+08	5.641957e+13	0.000000e+00	3.919597e-01	1.021793e+15	2.637564e+15	1.105066e+15	2.484871e+04	1.401336e+04	3.056741e+03	0	1.493644e-03
5.700000e+08	5.562062e+13	0.000000e+00	3.919597e-01	1.014518e+15	2.625636e+15	1.099610e+15	2.481998e+04	1.400820e+04	3.055617e+03	0	1.486560e-03
5.800000e+08	5.483164e+13	0.000000e+00	3.919597e-01	1.007330e+15	2.613767e+15	1.094194e+15	2.479144e+04	1.400304e+04	3.054490e+03	0	1.479498e-03
5.900000e+08	5.405247e+13	0.000000e+00	3.919597e-01	1.000228e+15	2.601958e+15	1.088816e+15	2.476311e+04	1.399787e+04	3.053362e+03	0	1.472457e-03
6.000000e+08	5.328293e+13	0.000000e+00	3.919597e-01	9.932105e+14	2.590210e+15	1.083476e+15	2.473498e+04	1.399269e+04	3.052233e+03	0	1.465435e-03
6.100000e+08	5.252287e+13	0.000000e+00	3.919597e-01	9.862761e+14	2.578522e+15	1.078174e+15	2.470705e+04	1.398751e+04	3.051102e+03	0	1.458434e-03
6.200000e+08	5.177214e+13	0.000000e+00	3.919597e-01	9.794234e+14	2.566895e+15	1.072909e+15	2.467931e+04	1.398232e+04	3.049970e+03	0	1.451452e-03
6.300000e+08	5.103057e+13	0.000000e+00	3.919597e-01	9.726511e+14	2.555329e+15	1.067682e+15	2.465176e+04	1.397712e+04	3.048837e+03	0	1.444489e-03
6.400000e+08	5.029803e+13	0.000000e+00	3.919597e-01	9.659580e+14	2.543825e+15	1.062491e+15	2.462440e+04	1.397192e+04	3.047704e+03	0	1.437543e-03
6.500000e+08	4.957435e+13	0.000000e+00	3.919597e-01	9.593427e+14	2.532382e+15	1.057337e+15	2.459723e+04	1.396672e+04	3.046569e+03	0	1.430616e-03
6.600000e+08	4.885940e+13	0.000000e+00	3.919597e-01	9.528041e+14	2.521000e+15	1.052219e+15	2.457025e+04	1.396152e+04	3.045433e+03	0	1.423705e-03
6.700000e+08	4.815304e+13	0.000000e+00	3.919597e-01	9.463408e+14	2.509680e+15	1.047137e+15	2.454345e+04	1.395631e+04	3.044297e+03	0	1.416811e-03
6.800000e+08	4.745512e+13	0.000000e+00	3.919597e-01	9.399517e+14	2.498422e+15	1.042091e+15	2.451683e+04	1.395110e+04	3.043161e+03	0	1.409933e-03
6.900000e+08	4.676551e+13	0.000000e+00	3.919597e-01	9.336356e+14	2.487226e+15	1.037080e+15	2.449039e+04	1.394589e+04	3.042024e+03	0	1.403070e-03
7.000000e+08	4.608408e+13	0.000000e+00	3.919597e-01	9.273914e+14	2.476092e+15	1.032105e+15	2.446412e+04	1.394067e+04	3.040886e+03	0	1.396221e-03
7.100000e+08	4.541070e+13	0.000000e+00	3.919597e-01	9.212179e+14	2.465020e+15	1.027164e+15	2.443804e+04	1.393546e+04	3.039749e+03	0	1.389387e-03
7.200000e+08	4.474523e+13	0.000000e+00	3.919597e-01	9.151141e+14	2.454010e+15	1.022258e+15	2.441212e+04	1.393024e+04	3.038611e+03	0	1.382567e-03
7.300000e+08	4.408756e+13	0.000000e+00	3.919597e-01	9.090787e+14	2.443061e+15	1.017386e+15	2.438638e+04	1.392503e+04	3.037474e+03	0	1.375760e-03
7.400000e+08	4.343756e+13	0.000000e+00	3.919597e-01	9.031109e+14	2.432175e+15	1.012548e+15	2.436081e+04	1.391981e+04	3.036336e+03	0	1.368965e-03
7.500000e+08	4.279510e+13	0.000000e+00	3.919597e-01	8.972095e+14	2.421350e+15	1.007744e+15	2.433540e+04	1.391460e+04	3.035199e+03	0	1.362183e-03
7.600000e+08	4.216008e+13	0.000000e+00	3.919597e-01	8.913735e+14	2.410587e+15	1.002973e+15	2.431016e+04	1.390939e+04	3.034062e+03	0	1.355411e-03
7.700000e+08	4.153238e+13	0.000000e+00	3.919597e-01	8.856019e+14	2.399886e+15	9.982354e+14	2.428508e+04	1.390417e+04	3.032925e+03	0	1.348651e-03
7.800000e+08	4.091188e+13	0.000000e+00	3.919597e-01	8.798937e+14	2.389247e+15	9.935307e+14	2.426017e+04	1.389897e+04	3.031789e+03	0	1.341901e-03
7.900000e+08	4.029847e+13	0.000000e+00	3.919597e-01	8.742480e+14	2.378669e+15	9.888588e+14	2.423541e+04	1.389376e+04	3.030653e+03	0	1.335161e-03
8.000000e+08	3.969204e+13	0.000000e+00	3.919597e-01	8.686638e+14	2.368153e+15	9.842192e+14	2.421082e+04	1.388855e+04	3.029518e+03	0	1.328429e-03
8.100000e+08	3.909249e+13	0.000000e+00	3.919597e-01	8.631402e+14	2.357697e+15	9.796118e+14	2.418638e+04	1.388335e+04	3.028384e+03	0	1.321707e-03
8.200000e+08	3.849970e+13	0.000000e+00	3.919597e-01	8.576763e+14	2.347304e+15	9.750363e+14	2.416209e+04	1.387816e+04	3.027250e+03	0	1.314992e-03
8.300000e+08	3.791359e+13	0.000000e+00	3.919597e-01	8.522712e+14	2.336971e+15	9.704924e+14	2.413796e+04	1.387296e+04	3.026117e+03	0	1.308285e-03
8.400000e+08	3.733404e+13	0.000000e+00	3.919597e-01	8.469240e+14	2.326699e+15	9.659799e+14	2.411398e+04	1.386777e+04	3.024984e+03	0	1.301584e-03
8.500000e+08	3.676095e+13	0.000000e+00	3.919597e-01	8.416338e+14	2.316487e+15	9.614986e+14	2.409015e+04	1.386258e+04	3.023853e+03	0	1.294890e-03
8.600000e+08	3.619424e+13	0.000000e+00	3.919597e-01	8.363998e+14	2.306336e+15	9.570481e+14	2.406647e+04	1.385740e+04	3.022723e+03	0	1.288201e-03
8.700000e+08	3.563380e+13	0.000000e+00	3.919597e-01	8.312212e+14	2.296246e+15	9.526283e+14	2.404294e+04	1.385222e+04	3.021593e+03	0	1.281518e-03
8.800000e+08	3.507954e+13	0.000000e+00	3.919597e-01	8.260972e+14	2.286215e+15	9.482388e+14	2.401955e+04	1.384705e+04	3.020465e+03	0	1.274839e-03
8.900000e+08	3.453136e+13	0.000000e+00	3.919597e-01	8.210270e+14	2.276245e+15	9.438796e+14	2.399631e+04	1.384188e+04	3.019338e+03	0	1.268163e-03
9.000000e+08	3.398919e+13	0.000000e+00	3.919597e-01	8.160097e+14	2.266334e+15	9.395502e+14	2.397321e+04	1.383672e+04	3.018212e+03	0	1.261491e-03
9.100000e+08	3.345292e+13	0.000000e+00	3.919597e-01	8.110447e+14	2.256483e+15	9.352505e+14	2.395024e+04	1.383157e+04	3.017087e+03	0	1.254822e-03
9.200000e+08	3.292248e+13	0.000000e+00	3.919597e-01	8.061311e+14	2.246691e+15	9.309803e+14	2.392742e+04	1.382642e+04	3.015964e+03	0	1.248154e-03
9.300000e+08	3.239778e+13	0.000000e+00	3.919597e-01	8.012682e+14	2.236958e+15	9.267393e+14	2.390474e+04	1.382127e+04	3.014842e+03	0	1.241488e-03
9.400000e+08	3.187873e+13	0.000000e+00	3.919597e-01	7.964553e+14	2.227284e+15	9.225272e+14	2.388219e+04	1.381613e+04	3.013721e+03	0	1.234822e-03
9.500000e+08	3.136525e+13	0.000000e+00	3.919597e-01	7.916918e+14	2.217668e+15	9.183439e+14	2.385978e+04	1.381100e+04	3.012602e+03	0	1.228156e-03
9.600000e+08	3.085726e+13	0.000000e+00	3.919597e-01	7.869768e+14	2.208110e+15	9.141892e+14	2.383750e+04	1.380588e+04	3.011484e+03	0	1.221490e-03
9.700000e+08	3.035469e+13	0.000000e+00	3.919597e-01	7.823096e+14	2.198611e+15	9.100627e+14	2.381536e+04	1.380076e+04	3.010367e+03	0	1.214822e-03
9.800000e+08	2.985744e+13	0.000000e+00	3.919597e-01	7.776898e+14	2.189169e+15	9.059643e+14	2.379334e+04	1.379565e+04	3.009253e+03	0	1.208152e-03
9.900000e+08	2.936546e+13	0.000000e+00	3.919597e-01	7.731164e+14	2.179785e+15	9.018938e+14	2.377146e+04	1.379055e+04	3.008139e+03	0	1.201479e-03
1.000000e+09	2.887866e+13	0.000000e+00	3.919597e-01	7.685890e+14	2.170458e+15	8.978509e+14	2.374970e+04	1.378545e+04	3.007028e+03	0	1.194803e-03
1.010000e+09	2.839696e+13	0.000000e+00	3.919597e-01	7.641068e+14	2.161188e+15	8.938354e+14	2.372807e+04	1.378036e+04	3.005918e+03	0	1.188123e-03
1.020000e+09	2.792031e+13	0.000000e+00	3.919597e-01	7.596693e+14	2.151975e+15	8.898471e+14	2.370657e+04	1.377528e+04	3.004810e+03	0	1.181437e-03
1.030000e+09	2.744862e+13	0.000000e+00	3.919597e-01	7.552758e+14	2.142818e+15	8.858858e+14	2.368519e+04	1.377021e+04	3.003703e+03	0	1.174746e-03
1.040000e+09	2.698182e+13	0.000000e+00	3.919597e-01	7.509256e+14	2.133717e+15	8.819513e+14	2.366393e+04	1.376514e+04	3.002599e+03	0	1.168049e-03
1.050000e+09	2.651985e+13	0.000000e+00	3.919597e-01	7.466183e+14	2.124671e+15	8.780434e+14	2.364280e+04	1.376009e+04	3.001496e+03	0	1.161344e-03
1.060000e+09	2.606264e+13	0.000000e+00	3.919597e-01	7.423532e+14	2.115682e+15	8.741618e+14	2.362179e+04	1.375504e+04	3.000394e+03	0	1.154632e-03
1.070000e+09	2.561013e+13	0.000000e+00	3.919597e-01	7.381298e+14	2.106747e+15	8.703063e+14	2.360089e+04	1.375000e+04	2.999295e+03	0	1.147910e-03
1.080000e+09	2.516224e+13	0.000000e+00	3.919597e-01	7.339475e+14	2.097868e+15	8.664768e+14	2.358012e+04	1.374497e+04	2.998198e+03	0	1.141179e-03
1.090000e+09	2.471892e+13	0.000000e+00	3.919597e-01	7.298056e+14	2.089043e+15	8.626731e+14	2.355946e+04	1.373995e+04	2.997102e+03	0	1.134437e-03
1.100000e+09	2.428010e+13	0.000000e+00	3.919597e-01	7.257038e+14	2.080272e+15	8.588949e+14	2.353892e+04	1.373493e+04	2.996009e+03	0	1.127684e-03
1.110000e+09	2.384572e+13	0.000000e+00	3.919597e-01	7.216414e+14	2.071555e+15	8.551420e+14	2.351850e+04	1.372993e+04	2.994917e+03	0	1.120919e-03
1.120000e+09	2.341571e+13	0.000000e+00	3.919597e-01	7.176179e+14	2.062892e+15	8.514143e+14	2.349819e+04	1.372493e+04	2.993827e+03	0	1.114140e-03
1.130000e+09	2.299003e+13	0.000000e+00	3.919597e-01	7.136328e+14	2.054282e+15	8.477115e+14	2.347799e+04	1.371995e+04	2.992740e+03	0	1.107347e-03
1.140000e+09	2.256861e+13	0.000000e+00	3.919597e-01	7.096856e+14	2.045726e+15	8.440335e+14	2.345790e+04	1.371497e+04	2.991654e+03	0	1.100539e-03
1.150000e+09	2.215140e+13	0.000000e+00	3.919597e-01	7.057757e+14	2.037222e+15	8.403800e+14	2.343793e+04	1.371000e+04	2.990571e+03	0	1.093715e-03
1.160000e+09	2.173833e+13	0.000000e+00	3.919597e-01	7.019028e+14	2.028770e+15	8.367509e+14	2.341806e+04	1.370505e+04	2.989489e+03	0	1.086874e-03
1.170000e+09	2.132935e+13	0.000000e+00	3.919597e-01	6.980662e+14	2.020371e+15	8.331459e+14	2.339831e+04	1.370010e+04	2.988410e+03	0	1.080015e-03
1.180000e+09	2.092441e+13	0.000000e+00	3.919597e-01	6.942656e+14	2.012024e+15	8.295650e+14	2.337866e+04	1.369516e+04	2.987332e+03	0	1.073137e-03
1.190000e+09	2.052345e+13	0.000000e+00	3.919597e-01	6.905004e+14	2.003728e+15	8.260079e+14	2.335912e+04	1.369023e+04	2.986257e+03	0	1.066238e-03
1.200000e+09	2.012642e+13	0.000000e+00	3.919597e-01	6.867703e+14	1.995483e+15	8.224743e+14	2.333968e+04	1.368531e+04	2.985184e+03	0	1.059318e-03
1.210000e+09	1.973327e+13	0.000000e+00	3.919597e-01	6.830747e+14	1.987289e+15	8.189642e+14	2.332035e+04	1.368040e+04	2.984113e+03	0	1.052375e-03
1.220000e+09	1.934395e+13	0.000000e+00	3.919597e-01	6.794131e+14	1.979146e+15	8.154774e+14	2.330112e+04	1.367550e+04	2.983044e+03	0	1.045408e-03
1.230000e+09	1.895840e+13	0.000000e+00	3.919597e-01	6.757853e+14	1.971052e+15	8.120136e+14	2.328200e+04	1.367061e+04	2.981978e+03	0	1.038416e-03
1.240000e+09	1.857658e+13	0.000000e+00	3.919597e-01	6.721906e+14	1.963009e+15	8.085728e+14	2.326297e+04	1.366573e+04	2.980914e+03	0	1.031397e-03
1.250000e+09	1.819844e+13	0.000000e+00	3.919597e-01	6.686288e+14	1.955016e+15	8.051546e+14	2.324405e+04	1.366086e+04	2.979851e+03	0	1.024351e-03
1.260000e+09	1.782393e+13	0.000000e+00	3.919597e-01	6.650993e+14	1.947071e+15	8.017590e+14	2.322523e+04	1.365600e+04	2.978791e+03	0	1.017275e-03
1.270000e+09	1.745300e+13	0.000000e+00	3.919597e-01	6.616018e+14	1.939176e+15	7.983857e+14	2.320651e+04	1.365115e+04	2.977734e+03	0	1.010169e-03
1.280000e+09	1.708561e+13	0.000000e+00	3.919597e-01	6.581359e+14	1.931329e+15	7.950347e+14	2.318788e+04	1.364632e+04	2.976678e+03	0	1.003031e-03
1.290000e+09	1.672172e+13	0.000000e+00	3.919597e-01	6.547011e+14	1.923531e+15	7.917056e+14	2.316936e+04	1.364149e+04	2.975625e+03	0	9.958584e-04
1.300000e+09	1.636127e+13	0.000000e+00	3.919597e-01	6.512971e+14	1.915780e+15	7.883984e+14	2.315093e+04	1.363667e+04	2.974574e+03	0	9.886509e-04
1.310000e+09	1.600422e+13	0.000000e+00	3.919597e-01	6.479235e+14	1.908078e+15	7.851129e+14	2.313259e+04	1.363186e+04	2.973526e+03	0	9.814062e-04
1.320000e+09	1.565053e+13	0.000000e+00	3.919597e-01	6.445800e+14	1.900423e+15	7.818489e+14	2.311435e+04	1.362707e+04	2.972479e+03	0	9.741227e-04
1.330000e+09	1.530016e+13	0.000000e+00	3.919597e-01	6.412660e+14	1.892814e+15	7.786063e+14	2.309621e+04	1.362228e+04	2.971435e+03	0	9.667985e-04
1.340000e+09	1.495306e+13	0.000000e+00	3.919597e-01	6.379814e+14	1.885253e+15	7.753848e+14	2.307815e+04	1.361750e+04	2.970394e+03	0	9.594317e-04
1.350000e+09	1.460920e+13	0.000000e+00	3.919597e-01	6.347256e+14	1.877738e+15	7.721844e+14	2.306019e+04	1.361274e+04	2.969354e+03	0	9.520202e-04
1.360000e+09	1.426853e+13	0.000000e+00	3.919597e-01	6.314984e+14	1.870269e+15	7.690048e+14	2.304233e+04	1.360798e+04	2.968317e+03	0	9.445619e-04
