#t		Qconv[W]	Ri[Rp]		R*[Rp]		Qc[W]		Qm[W]		Qr[W]		Tcmb[K]		Tl[K]		Tup[K]		RiFlag		Bs[T]
0.000000e+00	6.023339e+13	0.000000e+00	7.882353e-01	9.495346e+14	1.437006e+15	5.315606e+13	8.509362e+03	3.961610e+03	2.051197e+03	0	1.115299e-03
1.000000e+07	5.818634e+13	0.000000e+00	7.882353e-01	9.178547e+14	1.295507e+15	5.286154e+13	8.432323e+03	3.889812e+03	2.014022e+03	0	1.102518e-03
2.000000e+07	5.620405e+13	0.000000e+00	7.882353e-01	8.871771e+14	1.192179e+15	5.256922e+13	8.357824e+03	3.835550e+03	1.985927e+03	0	1.089853e-03
3.000000e+07	5.430418e+13	0.000000e+00	7.882353e-01	8.577734e+14	1.113013e+15	5.227908e+13	8.285786e+03	3.793026e+03	1.963909e+03	0	1.077432e-03
4.000000e+07	5.249182e+13	0.000000e+00	7.882353e-01	8.297213e+14	1.049882e+15	5.199111e+13	8.216111e+03	3.758606e+03	1.946088e+03	0	1.065310e-03
5.000000e+07	5.076647e+13	0.000000e+00	7.882353e-01	8.030129e+14	9.978184e+14	5.170529e+13	8.148691e+03	3.729925e+03	1.931238e+03	0	1.053508e-03
6.000000e+07	4.912515e+13	0.000000e+00	7.882353e-01	7.776022e+14	9.536594e+14	5.142160e+13	8.083418e+03	3.705401e+03	1.918540e+03	0	1.042030e-03
7.000000e+07	4.756384e+13	0.000000e+00	7.882353e-01	7.534271e+14	9.153212e+14	5.114002e+13	8.020191e+03	3.683951e+03	1.907434e+03	0	1.030871e-03
8.000000e+07	4.607816e+13	0.000000e+00	7.882353e-01	7.304199e+14	8.813911e+14	5.086053e+13	7.958910e+03	3.664817e+03	1.897527e+03	0	1.020024e-03
9.000000e+07	4.466370e+13	0.000000e+00	7.882353e-01	7.085125e+14	8.508878e+14	5.058312e+13	7.899483e+03	3.647461e+03	1.888541e+03	0	1.009479e-03
1.000000e+08	4.331619e+13	0.000000e+00	7.882353e-01	6.876391e+14	8.231138e+14	5.030778e+13	7.841822e+03	3.631498e+03	1.880275e+03	0	9.992226e-04
1.100000e+08	4.203156e+13	0.000000e+00	7.882353e-01	6.677371e+14	7.975633e+14	5.003447e+13	7.785844e+03	3.616642e+03	1.872583e+03	0	9.892454e-04
1.200000e+08	4.080601e+13	0.000000e+00	7.882353e-01	6.487476e+14	7.738622e+14	4.976319e+13	7.731471e+03	3.602686e+03	1.865357e+03	0	9.795356e-04
1.300000e+08	3.963597e+13	0.000000e+00	7.882353e-01	6.306156e+14	7.517286e+14	4.949393e+13	7.678631e+03	3.589472e+03	1.858516e+03	0	9.700825e-04
1.400000e+08	3.851811e+13	0.000000e+00	7.882353e-01	6.132897e+14	7.309461e+14	4.922665e+13	7.627255e+03	3.576883e+03	1.851997e+03	0	9.608756e-04
1.500000e+08	3.744934e+13	0.000000e+00	7.882353e-01	5.967224e+14	7.113457e+14	4.896135e+13	7.577278e+03	3.564825e+03	1.845754e+03	0	9.519049e-04
1.600000e+08	3.642678e+13	0.000000e+00	7.882353e-01	5.808691e+14	6.927929e+14	4.869801e+13	7.528641e+03	3.553230e+03	1.839751e+03	0	9.431609e-04
1.700000e+08	3.544777e+13	0.000000e+00	7.882353e-01	5.656888e+14	6.751792e+14	4.843661e+13	7.481284e+03	3.542042e+03	1.833958e+03	0	9.346345e-04
1.800000e+08	3.450982e+13	0.000000e+00	7.882353e-01	5.511430e+14	6.584151e+14	4.817714e+13	7.435155e+03	3.531215e+03	1.828352e+03	0	9.263172e-04
1.900000e+08	3.361062e+13	0.000000e+00	7.882353e-01	5.371961e+14	6.424261e+14	4.791958e+13	7.390203e+03	3.520716e+03	1.822916e+03	0	9.182009e-04
2.000000e+08	3.274802e+13	0.000000e+00	7.882353e-01	5.238150e+14	6.271491e+14	4.766391e+13	7.346379e+03	3.510515e+03	1.817634e+03	0	9.102776e-04
2.100000e+08	3.192002e+13	0.000000e+00	7.882353e-01	5.109686e+14	6.125299e+14	4.741013e+13	7.303639e+03	3.500588e+03	1.812494e+03	0	9.025402e-04
2.200000e+08	3.112474e+13	0.000000e+00	7.882353e-01	4.986282e+14	5.985213e+14	4.715821e+13	7.261938e+03	3.490915e+03	1.807486e+03	0	8.949816e-04
2.300000e+08	3.036045e+13	0.000000e+00	7.882353e-01	4.867668e+14	5.850822e+14	4.690814e+13	7.221237e+03	3.481480e+03	1.802600e+03	0	8.875951e-04
2.400000e+08	2.962551e+13	0.000000e+00	7.882353e-01	4.753593e+14	5.721757e+14	4.665990e+13	7.181497e+03	3.472267e+03	1.797830e+03	0	8.803745e-04
2.500000e+08	2.891841e+13	0.000000e+00	7.882353e-01	4.643823e+14	5.597690e+14	4.641348e+13	7.142681e+03	3.463264e+03	1.793169e+03	0	8.733137e-04
2.600000e+08	2.823771e+13	0.000000e+00	7.882353e-01	4.538137e+14	5.478327e+14	4.616886e+13	7.104755e+03	3.454460e+03	1.788611e+03	0	8.664071e-04
2.700000e+08	2.758210e+13	0.000000e+00	7.882353e-01	4.436330e+14	5.363399e+14	4.592603e+13	7.067686e+03	3.445846e+03	1.784150e+03	0	8.596492e-04
2.800000e+08	2.695031e+13	0.000000e+00	7.882353e-01	4.338208e+14	5.252660e+14	4.568498e+13	7.031443e+03	3.437412e+03	1.779784e+03	0	8.530349e-04
2.900000e+08	2.634119e+13	0.000000e+00	7.882353e-01	4.243592e+14	5.145886e+14	4.544568e+13	6.995996e+03	3.429151e+03	1.775506e+03	0	8.465591e-04
3.000000e+08	2.575362e+13	0.000000e+00	7.882353e-01	4.152311e+14	5.042870e+14	4.520813e+13	6.961316e+03	3.421055e+03	1.771314e+03	0	8.402173e-04
3.100000e+08	2.518658e+13	0.000000e+00	7.882353e-01	4.064205e+14	4.943421e+14	4.497231e+13	6.927378e+03	3.413118e+03	1.767205e+03	0	8.340048e-04
3.200000e+08	2.463909e+13	0.000000e+00	7.882353e-01	3.979125e+14	4.847362e+14	4.473820e+13	6.894154e+03	3.405334e+03	1.763175e+03	0	8.279175e-04
3.300000e+08	2.411024e+13	0.000000e+00	7.882353e-01	3.896930e+14	4.754526e+14	4.450580e+13	6.861622e+03	3.397698e+03	1.759221e+03	0	8.219512e-04
3.400000e+08	2.359918e+13	0.000000e+00	7.882353e-01	3.817486e+14	4.664760e+14	4.427509e+13	6.829757e+03	3.390203e+03	1.755340e+03	0	8.161020e-04
3.500000e+08	2.310508e+13	0.000000e+00	7.882353e-01	3.740669e+14	4.577921e+14	4.404605e+13	6.798537e+03	3.382846e+03	1.751531e+03	0	8.103662e-04
3.600000e+08	2.262719e+13	0.000000e+00	7.882353e-01	3.666360e+14	4.493872e+14	4.381867e+13	6.767942e+03	3.375621e+03	1.747790e+03	0	8.047402e-04
3.700000e+08	2.216478e+13	0.000000e+00	7.882353e-01	3.594447e+14	4.412488e+14	4.359293e+13	6.737950e+03	3.368524e+03	1.744116e+03	0	7.992206e-04
3.800000e+08	2.171718e+13	0.000000e+00	7.882353e-01	3.524827e+14	4.333650e+14	4.336883e+13	6.708544e+03	3.361551e+03	1.740505e+03	0	7.938040e-04
3.900000e+08	2.128373e+13	0.000000e+00	7.882353e-01	3.457399e+14	4.257245e+14	4.314635e+13	6.679703e+03	3.354699e+03	1.736958e+03	0	7.884874e-04
4.000000e+08	2.086384e+13	0.000000e+00	7.882353e-01	3.392069e+14	4.183169e+14	4.292548e+13	6.651410e+03	3.347963e+03	1.733470e+03	0	7.832677e-04
4.100000e+08	2.045692e+13	0.000000e+00	7.882353e-01	3.328748e+14	4.111321e+14	4.270620e+13	6.623649e+03	3.341341e+03	1.730041e+03	0	7.781421e-04
4.200000e+08	2.006243e+13	0.000000e+00	7.882353e-01	3.267352e+14	4.041607e+14	4.248850e+13	6.596403e+03	3.334828e+03	1.726669e+03	0	7.731077e-04
4.300000e+08	1.967985e+13	0.000000e+00	7.882353e-01	3.207801e+14	3.973940e+14	4.227236e+13	6.569656e+03	3.328421e+03	1.723352e+03	0	7.681619e-04
4.400000e+08	1.930870e+13	0.000000e+00	7.882353e-01	3.150020e+14	3.908235e+14	4.205779e+13	6.543395e+03	3.322118e+03	1.720088e+03	0	7.633022e-04
4.500000e+08	1.894851e+13	0.000000e+00	7.882353e-01	3.093937e+14	3.844411e+14	4.184475e+13	6.517603e+03	3.315916e+03	1.716877e+03	0	7.585261e-04
4.600000e+08	1.859884e+13	0.000000e+00	7.882353e-01	3.039483e+14	3.782395e+14	4.163324e+13	6.492268e+03	3.309811e+03	1.713716e+03	0	7.538312e-04
4.700000e+08	1.825927e+13	0.000000e+00	7.882353e-01	2.986594e+14	3.722113e+14	4.142326e+13	6.467376e+03	3.303801e+03	1.710604e+03	0	7.492152e-04
4.800000e+08	1.792940e+13	0.000000e+00	7.882353e-01	2.935209e+14	3.663499e+14	4.121477e+13	6.442915e+03	3.297884e+03	1.707541e+03	0	7.446761e-04
4.900000e+08	1.760886e+13	0.000000e+00	7.882353e-01	2.885269e+14	3.606488e+14	4.100778e+13	6.418873e+03	3.292057e+03	1.704523e+03	0	7.402116e-04
5.000000e+08	1.729728e+13	0.000000e+00	7.882353e-01	2.836718e+14	3.551018e+14	4.080227e+13	6.395237e+03	3.286318e+03	1.701552e+03	0	7.358198e-04
5.100000e+08	1.699433e+13	0.000000e+00	7.882353e-01	2.789505e+14	3.497031e+14	4.059822e+13	6.371997e+03	3.280664e+03	1.698624e+03	0	7.314987e-04
5.200000e+08	1.669968e+13	0.000000e+00	7.882353e-01	2.743577e+14	3.444471e+14	4.039564e+13	6.349142e+03	3.275093e+03	1.695740e+03	0	7.272464e-04
5.300000e+08	1.641302e+13	0.000000e+00	7.882353e-01	2.698888e+14	3.393286e+14	4.019449e+13	6.326661e+03	3.269603e+03	1.692898e+03	0	7.230611e-04
5.400000e+08	1.613405e+13	0.000000e+00	7.882353e-01	2.655392e+14	3.343426e+14	3.999478e+13	6.304544e+03	3.264193e+03	1.690096e+03	0	7.189411e-04
5.500000e+08	1.586249e+13	0.000000e+00	7.882353e-01	2.613045e+14	3.294841e+14	3.979649e+13	6.282781e+03	3.258859e+03	1.687335e+03	0	7.148846e-04
5.600000e+08	1.559808e+13	0.000000e+00	7.882353e-01	2.571805e+14	3.247487e+14	3.959961e+13	6.261364e+03	3.253601e+03	1.684612e+03	0	7.108902e-04
5.700000e+08	1.534055e+13	0.000000e+00	7.882353e-01	2.531633e+14	3.201320e+14	3.940413e+13	6.240284e+03	3.248415e+03	1.681927e+03	0	7.069561e-04
5.800000e+08	1.508966e+13	0.000000e+00	7.882353e-01	2.492491e+14	3.156298e+14	3.921004e+13	6.219531e+03	3.243302e+03	1.679280e+03	0	7.030810e-04
5.900000e+08	1.484518e+13	0.000000e+00	7.882353e-01	2.454343e+14	3.112381e+14	3.901732e+13	6.199097e+03	3.238258e+03	1.676668e+03	0	6.992632e-04
6.000000e+08	1.460689e+13	0.000000e+00	7.882353e-01	2.417155e+14	3.069531e+14	3.882597e+13	6.178974e+03	3.233282e+03	1.674092e+03	0	6.955015e-04
6.100000e+08	1.437456e+13	0.000000e+00	7.882353e-01	2.380892e+14	3.027712e+14	3.863597e+13	6.159155e+03	3.228373e+03	1.671550e+03	0	6.917944e-04
6.200000e+08	1.414800e+13	0.000000e+00	7.882353e-01	2.345524e+14	2.986889e+14	3.844731e+13	6.139631e+03	3.223530e+03	1.669042e+03	0	6.881406e-04
6.300000e+08	1.392701e+13	0.000000e+00	7.882353e-01	2.311020e+14	2.947028e+14	3.825998e+13	6.120396e+03	3.218749e+03	1.666567e+03	0	6.845389e-04
6.400000e+08	1.371140e+13	0.000000e+00	7.882353e-01	2.277351e+14	2.908097e+14	3.807398e+13	6.101443e+03	3.214031e+03	1.664124e+03	0	6.809880e-04
6.500000e+08	1.350100e+13	0.000000e+00	7.882353e-01	2.244490e+14	2.870067e+14	3.788928e+13	6.082765e+03	3.209373e+03	1.661712e+03	0	6.774868e-04
6.600000e+08	1.329563e+13	0.000000e+00	7.882353e-01	2.212409e+14	2.832908e+14	3.770589e+13	6.064354e+03	3.204775e+03	1.659331e+03	0	6.740340e-04
6.700000e+08	1.309512e+13	0.000000e+00	7.882353e-01	2.181084e+14	2.796591e+14	3.752378e+13	6.046206e+03	3.200234e+03	1.656981e+03	0	6.706285e-04
6.800000e+08	1.289933e+13	0.000000e+00	7.882353e-01	2.150490e+14	2.761090e+14	3.734295e+13	6.028314e+03	3.195751e+03	1.654659e+03	0	6.672693e-04
6.900000e+08	1.270809e+13	0.000000e+00	7.882353e-01	2.120604e+14	2.726378e+14	3.716340e+13	6.010671e+03	3.191323e+03	1.652366e+03	0	6.639554e-04
7.000000e+08	1.252126e+13	0.000000e+00	7.882353e-01	2.091402e+14	2.692432e+14	3.698510e+13	5.993272e+03	3.186949e+03	1.650102e+03	0	6.606856e-04
7.100000e+08	1.233871e+13	0.000000e+00	7.882353e-01	2.062864e+14	2.659228e+14	3.680804e+13	5.976112e+03	3.182628e+03	1.647865e+03	0	6.574591e-04
7.200000e+08	1.216029e+13	0.000000e+00	7.882353e-01	2.034968e+14	2.626741e+14	3.663223e+13	5.959185e+03	3.178360e+03	1.645654e+03	0	6.542748e-04
7.300000e+08	1.198589e+13	0.000000e+00	7.882353e-01	2.007696e+14	2.594952e+14	3.645765e+13	5.942486e+03	3.174142e+03	1.643471e+03	0	6.511318e-04
7.400000e+08	1.181537e+13	0.000000e+00	7.882353e-01	1.981027e+14	2.563838e+14	3.628428e+13	5.926009e+03	3.169974e+03	1.641313e+03	0	6.480293e-04
7.500000e+08	1.164862e+13	0.000000e+00	7.882353e-01	1.954943e+14	2.533379e+14	3.611212e+13	5.909751e+03	3.165855e+03	1.639180e+03	0	6.449663e-04
7.600000e+08	1.148553e+13	0.000000e+00	7.882353e-01	1.929427e+14	2.503556e+14	3.594116e+13	5.893706e+03	3.161784e+03	1.637072e+03	0	6.419421e-04
7.700000e+08	1.132598e+13	0.000000e+00	7.882353e-01	1.904462e+14	2.474349e+14	3.577140e+13	5.877869e+03	3.157759e+03	1.634988e+03	0	6.389557e-04
7.800000e+08	1.116987e+13	0.000000e+00	7.882353e-01	1.880031e+14	2.445742e+14	3.560281e+13	5.862236e+03	3.153781e+03	1.632928e+03	0	6.360064e-04
7.900000e+08	1.101709e+13	0.000000e+00	7.882353e-01	1.856118e+14	2.417716e+14	3.543539e+13	5.846803e+03	3.149847e+03	1.630892e+03	0	6.330935e-04
8.000000e+08	1.086756e+13	0.000000e+00	7.882353e-01	1.832709e+14	2.390256e+14	3.526913e+13	5.831566e+03	3.145958e+03	1.628878e+03	0	6.302161e-04
8.100000e+08	1.072117e+13	0.000000e+00	7.882353e-01	1.809788e+14	2.363343e+14	3.510403e+13	5.816519e+03	3.142111e+03	1.626886e+03	0	6.273735e-04
8.200000e+08	1.057783e+13	0.000000e+00	7.882353e-01	1.787342e+14	2.336964e+14	3.494007e+13	5.801661e+03	3.138308e+03	1.624917e+03	0	6.245651e-04
8.300000e+08	1.043746e+13	0.000000e+00	7.882353e-01	1.765357e+14	2.311103e+14	3.477724e+13	5.786985e+03	3.134545e+03	1.622969e+03	0	6.217901e-04
8.400000e+08	1.029997e+13	0.000000e+00	7.882353e-01	1.743821e+14	2.285746e+14	3.461553e+13	5.772490e+03	3.130824e+03	1.621042e+03	0	6.190478e-04
8.500000e+08	1.016529e+13	0.000000e+00	7.882353e-01	1.722719e+14	2.260879e+14	3.445495e+13	5.758170e+03	3.127142e+03	1.619136e+03	0	6.163377e-04
8.600000e+08	1.003333e+13	0.000000e+00	7.882353e-01	1.702041e+14	2.236489e+14	3.429547e+13	5.744024e+03	3.123500e+03	1.617250e+03	0	6.136590e-04
8.700000e+08	9.904010e+12	0.000000e+00	7.882353e-01	1.681775e+14	2.212562e+14	3.413708e+13	5.730046e+03	3.119896e+03	1.615384e+03	0	6.110112e-04
8.800000e+08	9.777269e+12	0.000000e+00	7.882353e-01	1.661909e+14	2.189085e+14	3.397979e+13	5.716234e+03	3.116330e+03	1.613537e+03	0	6.083937e-04
8.900000e+08	9.653031e+12	0.000000e+00	7.882353e-01	1.642433e+14	2.166048e+14	3.382358e+13	5.702585e+03	3.112800e+03	1.611710e+03	0	6.058058e-04
9.000000e+08	9.531230e+12	0.000000e+00	7.882353e-01	1.623335e+14	2.143438e+14	3.366843e+13	5.689094e+03	3.109308e+03	1.609902e+03	0	6.032470e-04
9.100000e+08	9.411799e+12	0.000000e+00	7.882353e-01	1.604606e+14	2.121245e+14	3.351436e+13	5.675761e+03	3.105851e+03	1.608112e+03	0	6.007167e-04
9.200000e+08	9.294675e+12	0.000000e+00	7.882353e-01	1.586236e+14	2.099456e+14	3.336133e+13	5.662580e+03	3.102429e+03	1.606340e+03	0	5.982145e-04
9.300000e+08	9.179797e+12	0.000000e+00	7.882353e-01	1.568215e+14	2.078062e+14	3.320936e+13	5.649550e+03	3.099041e+03	1.604586e+03	0	5.957397e-04
9.400000e+08	9.067105e+12	0.000000e+00	7.882353e-01	1.550535e+14	2.057053e+14	3.305842e+13	5.636667e+03	3.095687e+03	1.602849e+03	0	5.932919e-04
9.500000e+08	8.956543e+12	0.000000e+00	7.882353e-01	1.533186e+14	2.036418e+14	3.290852e+13	5.623929e+03	3.092367e+03	1.601130e+03	0	5.908705e-04
9.600000e+08	8.848054e+12	0.000000e+00	7.882353e-01	1.516159e+14	2.016148e+14	3.275963e+13	5.611333e+03	3.089079e+03	1.599428e+03	0	5.884751e-04
9.700000e+08	8.741586e+12	0.000000e+00	7.882353e-01	1.499447e+14	1.996235e+14	3.261176e+13	5.598876e+03	3.085823e+03	1.597742e+03	0	5.861052e-04
9.800000e+08	8.637087e+12	0.000000e+00	7.882353e-01	1.483042e+14	1.976668e+14	3.246490e+13	5.586556e+03	3.082599e+03	1.596073e+03	0	5.837604e-04
9.900000e+08	8.534507e+12	0.000000e+00	7.882353e-01	1.466935e+14	1.957440e+14	3.231903e+13	5.574371e+03	3.079406e+03	1.594419e+03	0	5.814401e-04
1.000000e+09	8.433797e+12	0.000000e+00	7.882353e-01	1.451119e+14	1.938542e+14	3.217416e+13	5.562317e+03	3.076243e+03	1.592782e+03	0	5.791440e-04
1.010000e+09	8.334910e+12	0.000000e+00	7.882353e-01	1.435587e+14	1.919966e+14	3.203026e+13	5.550393e+03	3.073110e+03	1.591159e+03	0	5.768716e-04
1.020000e+09	8.237801e+12	0.000000e+00	7.882353e-01	1.420332e+14	1.901705e+14	3.188734e+13	5.538595e+03	3.070006e+03	1.589552e+03	0	5.746225e-04
1.030000e+09	8.142426e+12	0.000000e+00	7.882353e-01	1.405347e+14	1.883750e+14	3.174539e+13	5.526923e+03	3.066932e+03	1.587961e+03	0	5.723962e-04
1.040000e+09	8.048742e+12	0.000000e+00	7.882353e-01	1.390625e+14	1.866095e+14	3.160440e+13	5.515374e+03	3.063885e+03	1.586383e+03	0	5.701925e-04
1.050000e+09	7.956709e+12	0.000000e+00	7.882353e-01	1.376161e+14	1.848732e+14	3.146436e+13	5.503945e+03	3.060867e+03	1.584821e+03	0	5.680109e-04
1.060000e+09	7.866285e+12	0.000000e+00	7.882353e-01	1.361947e+14	1.831654e+14	3.132527e+13	5.492634e+03	3.057877e+03	1.583272e+03	0	5.658510e-04
1.070000e+09	7.777433e+12	0.000000e+00	7.882353e-01	1.347978e+14	1.814855e+14	3.118711e+13	5.481440e+03	3.054913e+03	1.581738e+03	0	5.637124e-04
1.080000e+09	7.690114e+12	0.000000e+00	7.882353e-01	1.334248e+14	1.798328e+14	3.104988e+13	5.470361e+03	3.051976e+03	1.580217e+03	0	5.615948e-04
1.090000e+09	7.604293e+12	0.000000e+00	7.882353e-01	1.320751e+14	1.782066e+14	3.091357e+13	5.459394e+03	3.049065e+03	1.578710e+03	0	5.594979e-04
1.100000e+09	7.519933e+12	0.000000e+00	7.882353e-01	1.307482e+14	1.766065e+14	3.077818e+13	5.448537e+03	3.046180e+03	1.577216e+03	0	5.574212e-04
1.110000e+09	7.437001e+12	0.000000e+00	7.882353e-01	1.294435e+14	1.750318e+14	3.064370e+13	5.437789e+03	3.043321e+03	1.575735e+03	0	5.553645e-04
1.120000e+09	7.355464e+12	0.000000e+00	7.882353e-01	1.281605e+14	1.734818e+14	3.051012e+13	5.427148e+03	3.040486e+03	1.574268e+03	0	5.533274e-04
1.130000e+09	7.275288e+12	0.000000e+00	7.882353e-01	1.268988e+14	1.719562e+14	3.037743e+13	5.416612e+03	3.037676e+03	1.572813e+03	0	5.513096e-04
1.140000e+09	7.196443e+12	0.000000e+00	7.882353e-01	1.256579e+14	1.704542e+14	3.024563e+13	5.406180e+03	3.034890e+03	1.571370e+03	0	5.493108e-04
1.150000e+09	7.118899e+12	0.000000e+00	7.882353e-01	1.244372e+14	1.689754e+14	3.011471e+13	5.395849e+03	3.032128e+03	1.569940e+03	0	5.473307e-04
1.160000e+09	7.042625e+12	0.000000e+00	7.882353e-01	1.232363e+14	1.675193e+14	2.998466e+13	5.385618e+03	3.029389e+03	1.568522e+03	0	5.453689e-04
1.170000e+09	6.967593e+12	0.000000e+00	7.882353e-01	1.220548e+14	1.660854e+14	2.985548e+13	5.375486e+03	3.026674e+03	1.567116e+03	0	5.434252e-04
1.180000e+09	6.893775e+12	0.000000e+00	7.882353e-01	1.208922e+14	1.646732e+14	2.972716e+13	5.365450e+03	3.023981e+03	1.565722e+03	0	5.414993e-04
1.190000e+09	6.821144e+12	0.000000e+00	7.882353e-01	1.197481e+14	1.632822e+14	2.959969e+13	5.355510e+03	3.021311e+03	1.564340e+03	0	5.395908e-04
1.200000e+09	6.749674e+12	0.000000e+00	7.882353e-01	1.186221e+14	1.619120e+14	2.947306e+13	5.345664e+03	3.018663e+03	1.562968e+03	0	5.376997e-04
1.210000e+09	6.679339e+12	0.000000e+00	7.882353e-01	1.175138e+14	1.605621e+14	2.934728e+13	5.335909e+03	3.016036e+03	1.561609e+03	0	5.358254e-04
1.220000e+09	6.610115e+12	0.000000e+00	7.882353e-01	1.164229e+14	1.592321e+14	2.922233e+13	5.326246e+03	3.013431e+03	1.560260e+03	0	5.339679e-04
1.230000e+09	6.541976e+12	0.000000e+00	7.882353e-01	1.153489e+14	1.579215e+14	2.909821e+13	5.316672e+03	3.010847e+03	1.558922e+03	0	5.321268e-04
1.240000e+09	6.474901e+12	0.000000e+00	7.882353e-01	1.142915e+14	1.566301e+14	2.897491e+13	5.307186e+03	3.008284e+03	1.557595e+03	0	5.303019e-04
1.250000e+09	6.408865e+12	0.000000e+00	7.882353e-01	1.132503e+14	1.553573e+14	2.885242e+13	5.297787e+03	3.005742e+03	1.556278e+03	0	5.284930e-04
1.260000e+09	6.343847e+12	0.000000e+00	7.882353e-01	1.122249e+14	1.541028e+14	2.873074e+13	5.288473e+03	3.003219e+03	1.554972e+03	0	5.266997e-04
1.270000e+09	6.279824e+12	0.000000e+00	7.882353e-01	1.112152e+14	1.528663e+14	2.860986e+13	5.279244e+03	3.000717e+03	1.553677e+03	0	5.249219e-04
1.280000e+09	6.216777e+12	0.000000e+00	7.882353e-01	1.102206e+14	1.516472e+14	2.848977e+13	5.270097e+03	2.998234e+03	1.552391e+03	0	5.231593e-04
1.290000e+09	6.154684e+12	0.000000e+00	7.882353e-01	1.092409e+14	1.504454e+14	2.837048e+13	5.261031e+03	2.995770e+03	1.551116e+03	0	5.214117e-04
1.300000e+09	6.093525e+12	0.000000e+00	7.882353e-01	1.082759e+14	1.492604e+14	2.825197e+13	5.252046e+03	2.993326e+03	1.549850e+03	0	5.196789e-04
1.310000e+09	6.033282e+12	0.000000e+00	7.882353e-01	1.073251e+14	1.480919e+14	2.813423e+13	5.243140e+03	2.990901e+03	1.548594e+03	0	5.179606e-04
1.320000e+09	5.973935e+12	0.000000e+00	7.882353e-01	1.063883e+14	1.469396e+14	2.801727e+13	5.234312e+03	2.988494e+03	1.547348e+03	0	5.162567e-04
1.330000e+09	5.915466e+12	0.000000e+00	7.882353e-01	1.054652e+14	1.458032e+14	2.790107e+13	5.225561e+03	2.986105e+03	1.546111e+03	0	5.145669e-04
1.340000e+09	5.857856e+12	0.000000e+00	7.882353e-01	1.045555e+14	1.446823e+14	2.778563e+13	5.216886e+03	2.983734e+03	1.544884e+03	0	5.128910e-04
1.350000e+09	5.801089e+12	0.000000e+00	7.882353e-01	1.036590e+14	1.435766e+14	2.767094e+13	5.208285e+03	2.981381e+03	1.543665e+03	0	5.112289e-04
1.360000e+09	5.745148e+12	0.000000e+00	7.882353e-01	1.027754e+14	1.424859e+14	2.755700e+13	5.199757e+03	2.979046e+03	1.542456e+03	0	5.095802e-04
