#t		Qconv[W]	Ri[Rp]		R*[Rp]		Qc[W]		Qm[W]		Qr[W]		Tcmb[K]		Tl[K]		Tup[K]		RiFlag		Bs[T]
0.000000e+00	1.847046e+14	0.000000e+00	7.764706e-01	2.119493e+15	2.163954e+15	1.078769e+14	1.113766e+04	4.813688e+03	2.247215e+03	0	1.578690e-03
1.000000e+07	1.796314e+14	0.000000e+00	7.764706e-01	2.063997e+15	2.158995e+15	1.072792e+14	1.106274e+04	4.819358e+03	2.249862e+03	0	1.564102e-03
2.000000e+07	1.747673e+14	0.000000e+00	7.764706e-01	2.010774e+15	2.143547e+15	1.066859e+14	1.098977e+04	4.820441e+03	2.250368e+03	0	1.549855e-03
3.000000e+07	1.701025e+14	0.000000e+00	7.764706e-01	1.959719e+15	2.120491e+15	1.060971e+14	1.091867e+04	4.818079e+03	2.249265e+03	0	1.535941e-03
4.000000e+07	1.656267e+14	0.000000e+00	7.764706e-01	1.910720e+15	2.092047e+15	1.055127e+14	1.084936e+04	4.813144e+03	2.246961e+03	0	1.522349e-03
5.000000e+07	1.613300e+14	0.000000e+00	7.764706e-01	1.863669e+15	2.059900e+15	1.049326e+14	1.078177e+04	4.806297e+03	2.243765e+03	0	1.509070e-03
6.000000e+07	1.572029e+14	0.000000e+00	7.764706e-01	1.818463e+15	2.025319e+15	1.043569e+14	1.071583e+04	4.798045e+03	2.239912e+03	0	1.496090e-03
7.000000e+07	1.532364e+14	0.000000e+00	7.764706e-01	1.775005e+15	1.989246e+15	1.037854e+14	1.065148e+04	4.788768e+03	2.235581e+03	0	1.483400e-03
8.000000e+07	1.494220e+14	0.000000e+00	7.764706e-01	1.733202e+15	1.952382e+15	1.032182e+14	1.058865e+04	4.778757e+03	2.230908e+03	0	1.470988e-03
9.000000e+07	1.457518e+14	0.000000e+00	7.764706e-01	1.692969e+15	1.915237e+15	1.026553e+14	1.052730e+04	4.768231e+03	2.225994e+03	0	1.458844e-03
1.000000e+08	1.422185e+14	0.000000e+00	7.764706e-01	1.654226e+15	1.878186e+15	1.020965e+14	1.046736e+04	4.757357e+03	2.220918e+03	0	1.446959e-03
1.100000e+08	1.388152e+14	0.000000e+00	7.764706e-01	1.616898e+15	1.841496e+15	1.015418e+14	1.040878e+04	4.746262e+03	2.215738e+03	0	1.435324e-03
1.200000e+08	1.355353e+14	0.000000e+00	7.764706e-01	1.580915e+15	1.805358e+15	1.009913e+14	1.035151e+04	4.735041e+03	2.210499e+03	0	1.423929e-03
1.300000e+08	1.323728e+14	0.000000e+00	7.764706e-01	1.546211e+15	1.769904e+15	1.004448e+14	1.029551e+04	4.723767e+03	2.205236e+03	0	1.412767e-03
1.400000e+08	1.293222e+14	0.000000e+00	7.764706e-01	1.512725e+15	1.735224e+15	9.990239e+13	1.024073e+04	4.712494e+03	2.199974e+03	0	1.401829e-03
1.500000e+08	1.263779e+14	0.000000e+00	7.764706e-01	1.480398e+15	1.701375e+15	9.936397e+13	1.018713e+04	4.701264e+03	2.194731e+03	0	1.391109e-03
1.600000e+08	1.235351e+14	0.000000e+00	7.764706e-01	1.449177e+15	1.668390e+15	9.882954e+13	1.013466e+04	4.690108e+03	2.189523e+03	0	1.380599e-03
1.700000e+08	1.207890e+14	0.000000e+00	7.764706e-01	1.419009e+15	1.636285e+15	9.829905e+13	1.008330e+04	4.679049e+03	2.184360e+03	0	1.370293e-03
1.800000e+08	1.181351e+14	0.000000e+00	7.764706e-01	1.389848e+15	1.605064e+15	9.777247e+13	1.003300e+04	4.668104e+03	2.179251e+03	0	1.360183e-03
1.900000e+08	1.155694e+14	0.000000e+00	7.764706e-01	1.361647e+15	1.574720e+15	9.724977e+13	9.983723e+03	4.657286e+03	2.174200e+03	0	1.350264e-03
2.000000e+08	1.130879e+14	0.000000e+00	7.764706e-01	1.334364e+15	1.545242e+15	9.673091e+13	9.935442e+03	4.646602e+03	2.169213e+03	0	1.340529e-03
2.100000e+08	1.106868e+14	0.000000e+00	7.764706e-01	1.307959e+15	1.516612e+15	9.621587e+13	9.888122e+03	4.636059e+03	2.164291e+03	0	1.330974e-03
2.200000e+08	1.083626e+14	0.000000e+00	7.764706e-01	1.282392e+15	1.488809e+15	9.570461e+13	9.841732e+03	4.625661e+03	2.159437e+03	0	1.321592e-03
2.300000e+08	1.061121e+14	0.000000e+00	7.764706e-01	1.257629e+15	1.461811e+15	9.519711e+13	9.796244e+03	4.615410e+03	2.154651e+03	0	1.312379e-03
2.400000e+08	1.039320e+14	0.000000e+00	7.764706e-01	1.233635e+15	1.435593e+15	9.469332e+13	9.751629e+03	4.605306e+03	2.149934e+03	0	1.303329e-03
2.500000e+08	1.018194e+14	0.000000e+00	7.764706e-01	1.210377e+15	1.410132e+15	9.419323e+13	9.707860e+03	4.595350e+03	2.145286e+03	0	1.294438e-03
2.600000e+08	9.977152e+13	0.000000e+00	7.764706e-01	1.187825e+15	1.385401e+15	9.369680e+13	9.664911e+03	4.585541e+03	2.140707e+03	0	1.285700e-03
2.700000e+08	9.778562e+13	0.000000e+00	7.764706e-01	1.165950e+15	1.361378e+15	9.320399e+13	9.622758e+03	4.575877e+03	2.136196e+03	0	1.277113e-03
2.800000e+08	9.585921e+13	0.000000e+00	7.764706e-01	1.144725e+15	1.338035e+15	9.271479e+13	9.581377e+03	4.566356e+03	2.131751e+03	0	1.268670e-03
2.900000e+08	9.398986e+13	0.000000e+00	7.764706e-01	1.124122e+15	1.315351e+15	9.222915e+13	9.540744e+03	4.556978e+03	2.127373e+03	0	1.260370e-03
3.000000e+08	9.217530e+13	0.000000e+00	7.764706e-01	1.104118e+15	1.293301e+15	9.174706e+13	9.500839e+03	4.547738e+03	2.123059e+03	0	1.252206e-03
3.100000e+08	9.041337e+13	0.000000e+00	7.764706e-01	1.084689e+15	1.271863e+15	9.126847e+13	9.461640e+03	4.538634e+03	2.118809e+03	0	1.244176e-03
3.200000e+08	8.870200e+13	0.000000e+00	7.764706e-01	1.065812e+15	1.251014e+15	9.079337e+13	9.423127e+03	4.529665e+03	2.114622e+03	0	1.236276e-03
3.300000e+08	8.703923e+13	0.000000e+00	7.764706e-01	1.047466e+15	1.230734e+15	9.032172e+13	9.385280e+03	4.520827e+03	2.110496e+03	0	1.228502e-03
3.400000e+08	8.542319e+13	0.000000e+00	7.764706e-01	1.029631e+15	1.211002e+15	8.985350e+13	9.348081e+03	4.512118e+03	2.106430e+03	0	1.220851e-03
3.500000e+08	8.385211e+13	0.000000e+00	7.764706e-01	1.012288e+15	1.191798e+15	8.938868e+13	9.311512e+03	4.503534e+03	2.102423e+03	0	1.213321e-03
3.600000e+08	8.232431e+13	0.000000e+00	7.764706e-01	9.954173e+14	1.173103e+15	8.892722e+13	9.275556e+03	4.495074e+03	2.098474e+03	0	1.205906e-03
3.700000e+08	8.083816e+13	0.000000e+00	7.764706e-01	9.790022e+14	1.154899e+15	8.846911e+13	9.240196e+03	4.486734e+03	2.094580e+03	0	1.198606e-03
3.800000e+08	7.939213e+13	0.000000e+00	7.764706e-01	9.630259e+14	1.137170e+15	8.801431e+13	9.205416e+03	4.478512e+03	2.090742e+03	0	1.191416e-03
3.900000e+08	7.798476e+13	0.000000e+00	7.764706e-01	9.474723e+14	1.119897e+15	8.756280e+13	9.171201e+03	4.470405e+03	2.086957e+03	0	1.184334e-03
4.000000e+08	7.661465e+13	0.000000e+00	7.764706e-01	9.323264e+14	1.103065e+15	8.711455e+13	9.137535e+03	4.462411e+03	2.083225e+03	0	1.177357e-03
4.100000e+08	7.528045e+13	0.000000e+00	7.764706e-01	9.175734e+14	1.086659e+15	8.666954e+13	9.104405e+03	4.454527e+03	2.079545e+03	0	1.170483e-03
4.200000e+08	7.398091e+13	0.000000e+00	7.764706e-01	9.031996e+14	1.070664e+15	8.622773e+13	9.071797e+03	4.446750e+03	2.075914e+03	0	1.163708e-03
4.300000e+08	7.271479e+13	0.000000e+00	7.764706e-01	8.891916e+14	1.055067e+15	8.578910e+13	9.039696e+03	4.439079e+03	2.072333e+03	0	1.157031e-03
4.400000e+08	7.148094e+13	0.000000e+00	7.764706e-01	8.755368e+14	1.039852e+15	8.535363e+13	9.008091e+03	4.431510e+03	2.068800e+03	0	1.150450e-03
4.500000e+08	7.027824e+13	0.000000e+00	7.764706e-01	8.622230e+14	1.025008e+15	8.492129e+13	8.976969e+03	4.424042e+03	2.065313e+03	0	1.143961e-03
4.600000e+08	6.910562e+13	0.000000e+00	7.764706e-01	8.492386e+14	1.010522e+15	8.449205e+13	8.946318e+03	4.416673e+03	2.061873e+03	0	1.137563e-03
4.700000e+08	6.796207e+13	0.000000e+00	7.764706e-01	8.365725e+14	9.963826e+14	8.406589e+13	8.916127e+03	4.409399e+03	2.058477e+03	0	1.131253e-03
4.800000e+08	6.684660e+13	0.000000e+00	7.764706e-01	8.242140e+14	9.825777e+14	8.364278e+13	8.886383e+03	4.402220e+03	2.055126e+03	0	1.125030e-03
4.900000e+08	6.575829e+13	0.000000e+00	7.764706e-01	8.121530e+14	9.690968e+14	8.322271e+13	8.857077e+03	4.395133e+03	2.051817e+03	0	1.118891e-03
5.000000e+08	6.469623e+13	0.000000e+00	7.764706e-01	8.003797e+14	9.559291e+14	8.280563e+13	8.828197e+03	4.388136e+03	2.048551e+03	0	1.112834e-03
5.100000e+08	6.365956e+13	0.000000e+00	7.764706e-01	7.888847e+14	9.430648e+14	8.239154e+13	8.799735e+03	4.381227e+03	2.045326e+03	0	1.106859e-03
5.200000e+08	6.264747e+13	0.000000e+00	7.764706e-01	7.776590e+14	9.304941e+14	8.198040e+13	8.771679e+03	4.374404e+03	2.042140e+03	0	1.100961e-03
5.300000e+08	6.165916e+13	0.000000e+00	7.764706e-01	7.666939e+14	9.182077e+14	8.157219e+13	8.744021e+03	4.367666e+03	2.038995e+03	0	1.095141e-03
5.400000e+08	6.069388e+13	0.000000e+00	7.764706e-01	7.559813e+14	9.061968e+14	8.116689e+13	8.716750e+03	4.361011e+03	2.035888e+03	0	1.089396e-03
5.500000e+08	5.975089e+13	0.000000e+00	7.764706e-01	7.455132e+14	8.944527e+14	8.076448e+13	8.689859e+03	4.354436e+03	2.032818e+03	0	1.083725e-03
5.600000e+08	5.882949e+13	0.000000e+00	7.764706e-01	7.352820e+14	8.829673e+14	8.036493e+13	8.663339e+03	4.347940e+03	2.029786e+03	0	1.078125e-03
5.700000e+08	5.792902e+13	0.000000e+00	7.764706e-01	7.252802e+14	8.717327e+14	7.996821e+13	8.637181e+03	4.341522e+03	2.026790e+03	0	1.072596e-03
5.800000e+08	5.704883e+13	0.000000e+00	7.764706e-01	7.155009e+14	8.607411e+14	7.957431e+13	8.611378e+03	4.335181e+03	2.023829e+03	0	1.067136e-03
5.900000e+08	5.618829e+13	0.000000e+00	7.764706e-01	7.059374e+14	8.499854e+14	7.918320e+13	8.585921e+03	4.328913e+03	2.020903e+03	0	1.061743e-03
6.000000e+08	5.534682e+13	0.000000e+00	7.764706e-01	6.965830e+14	8.394585e+14	7.879486e+13	8.560802e+03	4.322719e+03	2.018012e+03	0	1.056416e-03
6.100000e+08	5.452383e+13	0.000000e+00	7.764706e-01	6.874315e+14	8.291536e+14	7.840926e+13	8.536015e+03	4.316596e+03	2.015153e+03	0	1.051154e-03
6.200000e+08	5.371878e+13	0.000000e+00	7.764706e-01	6.784770e+14	8.190641e+14	7.802639e+13	8.511553e+03	4.310543e+03	2.012328e+03	0	1.045955e-03
6.300000e+08	5.293114e+13	0.000000e+00	7.764706e-01	6.697135e+14	8.091839e+14	7.764622e+13	8.487407e+03	4.304559e+03	2.009534e+03	0	1.040818e-03
6.400000e+08	5.216038e+13	0.000000e+00	7.764706e-01	6.611355e+14	7.995069e+14	7.726874e+13	8.463572e+03	4.298642e+03	2.006772e+03	0	1.035741e-03
6.500000e+08	5.140603e+13	0.000000e+00	7.764706e-01	6.527377e+14	7.900272e+14	7.689391e+13	8.440041e+03	4.292791e+03	2.004040e+03	0	1.030724e-03
6.600000e+08	5.066760e+13	0.000000e+00	7.764706e-01	6.445148e+14	7.807393e+14	7.652172e+13	8.416808e+03	4.287005e+03	2.001339e+03	0	1.025765e-03
6.700000e+08	4.994464e+13	0.000000e+00	7.764706e-01	6.364619e+14	7.716377e+14	7.615215e+13	8.393867e+03	4.281283e+03	1.998668e+03	0	1.020862e-03
6.800000e+08	4.923671e+13	0.000000e+00	7.764706e-01	6.285741e+14	7.627173e+14	7.578517e+13	8.371210e+03	4.275623e+03	1.996025e+03	0	1.016016e-03
6.900000e+08	4.854338e+13	0.000000e+00	7.764706e-01	6.208468e+14	7.539729e+14	7.542077e+13	8.348834e+03	4.270024e+03	1.993412e+03	0	1.011224e-03
7.000000e+08	4.786424e+13	0.000000e+00	7.764706e-01	6.132755e+14	7.453997e+14	7.505892e+13	8.326731e+03	4.264485e+03	1.990826e+03	0	1.006486e-03
7.100000e+08	4.719890e+13	0.000000e+00	7.764706e-01	6.058559e+14	7.369931e+14	7.469961e+13	8.304897e+03	4.259005e+03	1.988267e+03	0	1.001801e-03
7.200000e+08	4.654697e+13	0.000000e+00	7.764706e-01	5.985838e+14	7.287486e+14	7.434281e+13	8.283326e+03	4.253582e+03	1.985736e+03	0	9.971673e-04
7.300000e+08	4.590809e+13	0.000000e+00	7.764706e-01	5.914552e+14	7.206617e+14	7.398850e+13	8.262013e+03	4.248217e+03	1.983231e+03	0	9.925841e-04
7.400000e+08	4.528190e+13	0.000000e+00	7.764706e-01	5.844662e+14	7.127282e+14	7.363666e+13	8.240953e+03	4.242907e+03	1.980752e+03	0	9.880504e-04
7.500000e+08	4.466806e+13	0.000000e+00	7.764706e-01	5.776130e+14	7.049442e+14	7.328728e+13	8.220140e+03	4.237652e+03	1.978299e+03	0	9.835654e-04
7.600000e+08	4.406624e+13	0.000000e+00	7.764706e-01	5.708921e+14	6.973055e+14	7.294033e+13	8.199571e+03	4.232450e+03	1.975871e+03	0	9.791282e-04
7.700000e+08	4.347611e+13	0.000000e+00	7.764706e-01	5.642999e+14	6.898085e+14	7.259580e+13	8.179240e+03	4.227302e+03	1.973467e+03	0	9.747377e-04
7.800000e+08	4.289737e+13	0.000000e+00	7.764706e-01	5.578330e+14	6.824495e+14	7.225366e+13	8.159143e+03	4.222205e+03	1.971088e+03	0	9.703933e-04
7.900000e+08	4.232972e+13	0.000000e+00	7.764706e-01	5.514882e+14	6.752249e+14	7.191389e+13	8.139276e+03	4.217159e+03	1.968732e+03	0	9.660939e-04
8.000000e+08	4.177286e+13	0.000000e+00	7.764706e-01	5.452623e+14	6.681313e+14	7.157649e+13	8.119634e+03	4.212163e+03	1.966400e+03	0	9.618388e-04
8.100000e+08	4.122652e+13	0.000000e+00	7.764706e-01	5.391522e+14	6.611653e+14	7.124142e+13	8.100212e+03	4.207216e+03	1.964091e+03	0	9.576271e-04
8.200000e+08	4.069043e+13	0.000000e+00	7.764706e-01	5.331549e+14	6.543238e+14	7.090867e+13	8.081007e+03	4.202318e+03	1.961804e+03	0	9.534582e-04
8.300000e+08	4.016432e+13	0.000000e+00	7.764706e-01	5.272677e+14	6.476035e+14	7.057822e+13	8.062016e+03	4.197467e+03	1.959539e+03	0	9.493311e-04
8.400000e+08	3.964795e+13	0.000000e+00	7.764706e-01	5.214877e+14	6.410016e+14	7.025005e+13	8.043233e+03	4.192663e+03	1.957296e+03	0	9.452452e-04
8.500000e+08	3.914106e+13	0.000000e+00	7.764706e-01	5.158122e+14	6.345150e+14	6.992415e+13	8.024655e+03	4.187904e+03	1.955075e+03	0	9.411996e-04
8.600000e+08	3.864342e+13	0.000000e+00	7.764706e-01	5.102386e+14	6.281410e+14	6.960049e+13	8.006279e+03	4.183191e+03	1.952875e+03	0	9.371938e-04
8.700000e+08	3.815480e+13	0.000000e+00	7.764706e-01	5.047645e+14	6.218768e+14	6.927906e+13	7.988101e+03	4.178522e+03	1.950695e+03	0	9.332270e-04
8.800000e+08	3.767497e+13	0.000000e+00	7.764706e-01	4.993874e+14	6.157198e+14	6.895984e+13	7.970117e+03	4.173897e+03	1.948536e+03	0	9.292984e-04
8.900000e+08	3.720373e+13	0.000000e+00	7.764706e-01	4.941048e+14	6.096673e+14	6.864282e+13	7.952324e+03	4.169315e+03	1.946397e+03	0	9.254075e-04
9.000000e+08	3.674085e+13	0.000000e+00	7.764706e-01	4.889146e+14	6.037169e+14	6.832797e+13	7.934718e+03	4.164775e+03	1.944277e+03	0	9.215537e-04
9.100000e+08	3.628614e+13	0.000000e+00	7.764706e-01	4.838145e+14	5.978662e+14	6.801528e+13	7.917297e+03	4.160277e+03	1.942177e+03	0	9.177361e-04
9.200000e+08	3.583941e+13	0.000000e+00	7.764706e-01	4.788023e+14	5.921129e+14	6.770473e+13	7.900057e+03	4.155819e+03	1.940096e+03	0	9.139543e-04
9.300000e+08	3.540045e+13	0.000000e+00	7.764706e-01	4.738760e+14	5.864546e+14	6.739631e+13	7.882995e+03	4.151402e+03	1.938034e+03	0	9.102077e-04
9.400000e+08	3.496909e+13	0.000000e+00	7.764706e-01	4.690335e+14	5.808891e+14	6.708999e+13	7.866107e+03	4.147024e+03	1.935991e+03	0	9.064955e-04
9.500000e+08	3.454515e+13	0.000000e+00	7.764706e-01	4.642728e+14	5.754144e+14	6.678576e+13	7.849392e+03	4.142686e+03	1.933965e+03	0	9.028174e-04
9.600000e+08	3.412844e+13	0.000000e+00	7.764706e-01	4.595921e+14	5.700282e+14	6.648361e+13	7.832846e+03	4.138385e+03	1.931958e+03	0	8.991726e-04
9.700000e+08	3.371881e+13	0.000000e+00	7.764706e-01	4.549896e+14	5.647287e+14	6.618352e+13	7.816466e+03	4.134123e+03	1.929968e+03	0	8.955606e-04
9.800000e+08	3.331610e+13	0.000000e+00	7.764706e-01	4.504633e+14	5.595139e+14	6.588547e+13	7.800250e+03	4.129897e+03	1.927995e+03	0	8.919810e-04
9.900000e+08	3.292013e+13	0.000000e+00	7.764706e-01	4.460116e+14	5.543818e+14	6.558944e+13	7.784194e+03	4.125709e+03	1.926040e+03	0	8.884331e-04
1.000000e+09	3.253075e+13	0.000000e+00	7.764706e-01	4.416327e+14	5.493306e+14	6.529542e+13	7.768297e+03	4.121556e+03	1.924101e+03	0	8.849164e-04
1.010000e+09	3.214783e+13	0.000000e+00	7.764706e-01	4.373251e+14	5.443585e+14	6.500340e+13	7.752555e+03	4.117439e+03	1.922179e+03	0	8.814305e-04
1.020000e+09	3.177120e+13	0.000000e+00	7.764706e-01	4.330871e+14	5.394638e+14	6.471336e+13	7.736966e+03	4.113356e+03	1.920273e+03	0	8.779749e-04
1.030000e+09	3.140073e+13	0.000000e+00	7.764706e-01	4.289172e+14	5.346448e+14	6.442528e+13	7.721528e+03	4.109309e+03	1.918384e+03	0	8.745490e-04
1.040000e+09	3.103628e+13	0.000000e+00	7.764706e-01	4.248138e+14	5.298998e+14	6.413914e+13	7.706238e+03	4.105295e+03	1.916510e+03	0	8.711524e-04
1.050000e+09	3.067772e+13	0.000000e+00	7.764706e-01	4.207756e+14	5.252272e+14	6.385494e+13	7.691094e+03	4.101314e+03	1.914652e+03	0	8.677846e-04
1.060000e+09	3.032492e+13	0.000000e+00	7.764706e-01	4.168010e+14	5.206255e+14	6.357265e+13	7.676093e+03	4.097367e+03	1.912809e+03	0	8.644452e-04
1.070000e+09	2.997775e+13	0.000000e+00	7.764706e-01	4.128887e+14	5.160932e+14	6.329227e+13	7.661233e+03	4.093452e+03	1.910981e+03	0	8.611337e-04
1.080000e+09	2.963609e+13	0.000000e+00	7.764706e-01	4.090373e+14	5.116288e+14	6.301377e+13	7.646513e+03	4.089569e+03	1.909168e+03	0	8.578497e-04
1.090000e+09	2.929982e+13	0.000000e+00	7.764706e-01	4.052456e+14	5.072308e+14	6.273715e+13	7.631929e+03	4.085718e+03	1.907370e+03	0	8.545927e-04
1.100000e+09	2.896882e+13	0.000000e+00	7.764706e-01	4.015122e+14	5.028978e+14	6.246238e+13	7.617481e+03	4.081897e+03	1.905587e+03	0	8.513624e-04
1.110000e+09	2.864298e+13	0.000000e+00	7.764706e-01	3.978360e+14	4.986286e+14	6.218946e+13	7.603165e+03	4.078108e+03	1.903818e+03	0	8.481584e-04
1.120000e+09	2.832219e+13	0.000000e+00	7.764706e-01	3.942156e+14	4.944218e+14	6.191836e+13	7.588979e+03	4.074348e+03	1.902063e+03	0	8.449801e-04
1.130000e+09	2.800634e+13	0.000000e+00	7.764706e-01	3.906500e+14	4.902760e+14	6.164908e+13	7.574922e+03	4.070618e+03	1.900321e+03	0	8.418273e-04
1.140000e+09	2.769534e+13	0.000000e+00	7.764706e-01	3.871380e+14	4.861902e+14	6.138160e+13	7.560992e+03	4.066918e+03	1.898594e+03	0	8.386996e-04
1.150000e+09	2.738907e+13	0.000000e+00	7.764706e-01	3.836784e+14	4.821629e+14	6.111590e+13	7.547187e+03	4.063246e+03	1.896880e+03	0	8.355966e-04
1.160000e+09	2.708744e+13	0.000000e+00	7.764706e-01	3.802702e+14	4.781931e+14	6.085198e+13	7.533505e+03	4.059604e+03	1.895179e+03	0	8.325178e-04
1.170000e+09	2.679036e+13	0.000000e+00	7.764706e-01	3.769124e+14	4.742796e+14	6.058981e+13	7.519944e+03	4.055989e+03	1.893492e+03	0	8.294631e-04
1.180000e+09	2.649772e+13	0.000000e+00	7.764706e-01	3.736039e+14	4.704213e+14	6.032939e+13	7.506503e+03	4.052402e+03	1.891817e+03	0	8.264319e-04
1.190000e+09	2.620944e+13	0.000000e+00	7.764706e-01	3.703437e+14	4.666170e+14	6.007070e+13	7.493179e+03	4.048842e+03	1.890156e+03	0	8.234239e-04
1.200000e+09	2.592544e+13	0.000000e+00	7.764706e-01	3.671308e+14	4.628658e+14	5.981373e+13	7.479971e+03	4.045310e+03	1.888506e+03	0	8.204389e-04
1.210000e+09	2.564561e+13	0.000000e+00	7.764706e-01	3.639643e+14	4.591665e+14	5.955846e+13	7.466877e+03	4.041804e+03	1.886870e+03	0	8.174765e-04
1.220000e+09	2.536989e+13	0.000000e+00	7.764706e-01	3.608433e+14	4.555181e+14	5.930488e+13	7.453896e+03	4.038324e+03	1.885245e+03	0	8.145363e-04
1.230000e+09	2.509818e+13	0.000000e+00	7.764706e-01	3.577668e+14	4.519197e+14	5.905298e+13	7.441026e+03	4.034871e+03	1.883633e+03	0	8.116180e-04
1.240000e+09	2.483042e+13	0.000000e+00	7.764706e-01	3.547339e+14	4.483703e+14	5.880275e+13	7.428265e+03	4.031443e+03	1.882033e+03	0	8.087213e-04
1.250000e+09	2.456651e+13	0.000000e+00	7.764706e-01	3.517439e+14	4.448690e+14	5.855417e+13	7.415613e+03	4.028040e+03	1.880444e+03	0	8.058459e-04
1.260000e+09	2.430638e+13	0.000000e+00	7.764706e-01	3.487959e+14	4.414148e+14	5.830722e+13	7.403066e+03	4.024662e+03	1.878867e+03	0	8.029915e-04
1.270000e+09	2.404996e+13	0.000000e+00	7.764706e-01	3.458891e+14	4.380068e+14	5.806191e+13	7.390625e+03	4.021309e+03	1.877302e+03	0	8.001579e-04
1.280000e+09	2.379718e+13	0.000000e+00	7.764706e-01	3.430226e+14	4.346442e+14	5.781820e+13	7.378286e+03	4.017980e+03	1.875748e+03	0	7.973446e-04
1.290000e+09	2.354797e+13	0.000000e+00	7.764706e-01	3.401957e+14	4.313261e+14	5.757610e+13	7.366050e+03	4.014675e+03	1.874205e+03	0	7.945514e-04
1.300000e+09	2.330225e+13	0.000000e+00	7.764706e-01	3.374076e+14	4.280517e+14	5.733559e+13	7.353914e+03	4.011394e+03	1.872673e+03	0	7.917781e-04
1.310000e+09	2.305996e+13	0.000000e+00	7.764706e-01	3.346577e+14	4.248202e+14	5.709665e+13	7.341878e+03	4.008136e+03	1.871152e+03	0	7.890244e-04
1.320000e+09	2.282104e+13	0.000000e+00	7.764706e-01	3.319451e+14	4.216307e+14	5.685928e+13	7.329939e+03	4.004902e+03	1.869642e+03	0	7.862899e-04
1.330000e+09	2.258542e+13	0.000000e+00	7.764706e-01	3.292692e+14	4.184826e+14	5.662346e+13	7.318097e+03	4.001690e+03	1.868143e+03	0	7.835745e-04
1.340000e+09	2.235304e+13	0.000000e+00	7.764706e-01	3.266292e+14	4.153749e+14	5.638919e+13	7.306350e+03	3.998500e+03	1.866654e+03	0	7.808778e-04
1.350000e+09	2.212383e+13	0.000000e+00	7.764706e-01	3.240246e+14	4.123072e+14	5.615644e+13	7.294697e+03	3.995333e+03	1.865175e+03	0	7.781996e-04
1.360000e+09	2.189775e+13	0.000000e+00	7.764706e-01	3.214547e+14	4.092785e+14	5.592521e+13	7.283137e+03	3.992188e+03	1.863707e+03	0	7.755397e-04
