#t		Qconv[W]	Ri[Rp]		R*[Rp]		Qc[W]		Qm[W]		Qr[W]		Tcmb[K]		Tl[K]		Tup[K]		RiFlag		Bs[T]
0.000000e+00	2.087989e+14	0.000000e+00	7.764703e-01	2.293533e+15	2.325821e+15	1.229320e+14	1.162406e+04	4.979785e+03	2.295001e+03	0	1.635329e-03
1.000000e+07	2.037528e+14	0.000000e+00	7.764703e-01	2.241527e+15	2.326705e+15	1.222509e+14	1.155682e+04	4.986996e+03	2.298324e+03	0	1.622048e-03
2.000000e+07	1.988805e+14	0.000000e+00	7.764703e-01	2.191298e+15	2.317156e+15	1.215749e+14	1.149109e+04	4.989935e+03	2.299678e+03	0	1.609014e-03
3.000000e+07	1.941770e+14	0.000000e+00	7.764703e-01	2.142798e+15	2.299731e+15	1.209039e+14	1.142683e+04	4.989574e+03	2.299512e+03	0	1.596229e-03
4.000000e+07	1.896366e+14	0.000000e+00	7.764703e-01	2.095965e+15	2.276464e+15	1.202379e+14	1.136398e+04	4.986677e+03	2.298177e+03	0	1.583689e-03
5.000000e+07	1.852527e+14	0.000000e+00	7.764703e-01	2.050735e+15	2.248953e+15	1.195769e+14	1.130250e+04	4.981839e+03	2.295947e+03	0	1.571390e-03
6.000000e+07	1.810191e+14	0.000000e+00	7.764703e-01	2.007041e+15	2.218435e+15	1.189208e+14	1.124233e+04	4.975524e+03	2.293037e+03	0	1.559327e-03
7.000000e+07	1.769291e+14	0.000000e+00	7.764703e-01	1.964819e+15	2.185864e+15	1.182696e+14	1.118344e+04	4.968093e+03	2.289612e+03	0	1.547494e-03
8.000000e+07	1.729767e+14	0.000000e+00	7.764703e-01	1.924005e+15	2.151970e+15	1.176232e+14	1.112578e+04	4.959825e+03	2.285802e+03	0	1.535884e-03
9.000000e+07	1.691559e+14	0.000000e+00	7.764703e-01	1.884537e+15	2.117308e+15	1.169817e+14	1.106931e+04	4.950939e+03	2.281707e+03	0	1.524491e-03
1.000000e+08	1.654608e+14	0.000000e+00	7.764703e-01	1.846357e+15	2.082295e+15	1.163449e+14	1.101398e+04	4.941604e+03	2.277404e+03	0	1.513309e-03
1.100000e+08	1.618861e+14	0.000000e+00	7.764703e-01	1.809409e+15	2.047247e+15	1.157129e+14	1.095978e+04	4.931950e+03	2.272955e+03	0	1.502331e-03
1.200000e+08	1.584265e+14	0.000000e+00	7.764703e-01	1.773642e+15	2.012398e+15	1.150855e+14	1.090665e+04	4.922079e+03	2.268406e+03	0	1.491552e-03
1.300000e+08	1.550772e+14	0.000000e+00	7.764703e-01	1.739003e+15	1.977921e+15	1.144628e+14	1.085456e+04	4.912071e+03	2.263794e+03	0	1.480966e-03
1.400000e+08	1.518334e+14	0.000000e+00	7.764703e-01	1.705446e+15	1.943942e+15	1.138446e+14	1.080349e+04	4.901987e+03	2.259146e+03	0	1.470567e-03
1.500000e+08	1.486907e+14	0.000000e+00	7.764703e-01	1.672925e+15	1.910551e+15	1.132311e+14	1.075340e+04	4.891874e+03	2.254486e+03	0	1.460350e-03
1.600000e+08	1.456449e+14	0.000000e+00	7.764703e-01	1.641397e+15	1.877811e+15	1.126221e+14	1.070425e+04	4.881770e+03	2.249829e+03	0	1.450310e-03
1.700000e+08	1.426920e+14	0.000000e+00	7.764703e-01	1.610822e+15	1.845762e+15	1.120175e+14	1.065603e+04	4.871703e+03	2.245190e+03	0	1.440442e-03
1.800000e+08	1.398283e+14	0.000000e+00	7.764703e-01	1.581161e+15	1.814431e+15	1.114175e+14	1.060870e+04	4.861694e+03	2.240577e+03	0	1.430740e-03
1.900000e+08	1.370500e+14	0.000000e+00	7.764703e-01	1.552376e+15	1.783831e+15	1.108218e+14	1.056223e+04	4.851761e+03	2.235999e+03	0	1.421201e-03
2.000000e+08	1.343538e+14	0.000000e+00	7.764703e-01	1.524433e+15	1.753967e+15	1.102305e+14	1.051661e+04	4.841916e+03	2.231462e+03	0	1.411820e-03
2.100000e+08	1.317365e+14	0.000000e+00	7.764703e-01	1.497299e+15	1.724837e+15	1.096436e+14	1.047180e+04	4.832169e+03	2.226970e+03	0	1.402591e-03
2.200000e+08	1.291948e+14	0.000000e+00	7.764703e-01	1.470941e+15	1.696432e+15	1.090610e+14	1.042779e+04	4.822526e+03	2.222526e+03	0	1.393513e-03
2.300000e+08	1.267260e+14	0.000000e+00	7.764703e-01	1.445331e+15	1.668743e+15	1.084827e+14	1.038455e+04	4.812992e+03	2.218132e+03	0	1.384579e-03
2.400000e+08	1.243271e+14	0.000000e+00	7.764703e-01	1.420439e+15	1.641755e+15	1.079086e+14	1.034205e+04	4.803572e+03	2.213790e+03	0	1.375787e-03
2.500000e+08	1.219955e+14	0.000000e+00	7.764703e-01	1.396238e+15	1.615453e+15	1.073387e+14	1.030029e+04	4.794266e+03	2.209502e+03	0	1.367132e-03
2.600000e+08	1.197287e+14	0.000000e+00	7.764703e-01	1.372702e+15	1.589820e+15	1.067730e+14	1.025923e+04	4.785077e+03	2.205267e+03	0	1.358611e-03
2.700000e+08	1.175242e+14	0.000000e+00	7.764703e-01	1.349806e+15	1.564838e+15	1.062114e+14	1.021886e+04	4.776004e+03	2.201086e+03	0	1.350221e-03
2.800000e+08	1.153798e+14	0.000000e+00	7.764703e-01	1.327526e+15	1.540489e+15	1.056539e+14	1.017916e+04	4.767048e+03	2.196958e+03	0	1.341958e-03
2.900000e+08	1.132932e+14	0.000000e+00	7.764703e-01	1.305841e+15	1.516755e+15	1.051005e+14	1.014011e+04	4.758208e+03	2.192884e+03	0	1.333820e-03
3.000000e+08	1.112623e+14	0.000000e+00	7.764703e-01	1.284728e+15	1.493617e+15	1.045512e+14	1.010170e+04	4.749483e+03	2.188863e+03	0	1.325801e-03
3.100000e+08	1.092851e+14	0.000000e+00	7.764703e-01	1.264168e+15	1.471057e+15	1.040058e+14	1.006390e+04	4.740872e+03	2.184894e+03	0	1.317901e-03
3.200000e+08	1.073597e+14	0.000000e+00	7.764703e-01	1.244140e+15	1.449057e+15	1.034644e+14	1.002671e+04	4.732373e+03	2.180978e+03	0	1.310116e-03
3.300000e+08	1.054843e+14	0.000000e+00	7.764703e-01	1.224625e+15	1.427600e+15	1.029269e+14	9.990101e+03	4.723985e+03	2.177112e+03	0	1.302442e-03
3.400000e+08	1.036571e+14	0.000000e+00	7.764703e-01	1.205606e+15	1.406668e+15	1.023933e+14	9.954065e+03	4.715706e+03	2.173296e+03	0	1.294878e-03
3.500000e+08	1.018765e+14	0.000000e+00	7.764703e-01	1.187066e+15	1.386245e+15	1.018636e+14	9.918585e+03	4.707535e+03	2.169530e+03	0	1.287421e-03
3.600000e+08	1.001408e+14	0.000000e+00	7.764703e-01	1.168988e+15	1.366315e+15	1.013378e+14	9.883649e+03	4.699468e+03	2.165813e+03	0	1.280067e-03
3.700000e+08	9.844847e+13	0.000000e+00	7.764703e-01	1.151357e+15	1.346862e+15	1.008157e+14	9.849242e+03	4.691505e+03	2.162143e+03	0	1.272816e-03
3.800000e+08	9.679810e+13	0.000000e+00	7.764703e-01	1.134158e+15	1.327871e+15	1.002975e+14	9.815351e+03	4.683644e+03	2.158520e+03	0	1.265663e-03
3.900000e+08	9.518827e+13	0.000000e+00	7.764703e-01	1.117375e+15	1.309327e+15	9.978295e+13	9.781965e+03	4.675882e+03	2.154943e+03	0	1.258607e-03
4.000000e+08	9.361763e+13	0.000000e+00	7.764703e-01	1.100996e+15	1.291216e+15	9.927215e+13	9.749070e+03	4.668219e+03	2.151411e+03	0	1.251647e-03
4.100000e+08	9.208489e+13	0.000000e+00	7.764703e-01	1.085007e+15	1.273524e+15	9.876502e+13	9.716655e+03	4.660651e+03	2.147923e+03	0	1.244778e-03
4.200000e+08	9.058880e+13	0.000000e+00	7.764703e-01	1.069396e+15	1.256239e+15	9.826156e+13	9.684709e+03	4.653177e+03	2.144479e+03	0	1.238000e-03
4.300000e+08	8.912819e+13	0.000000e+00	7.764703e-01	1.054150e+15	1.239348e+15	9.776172e+13	9.653220e+03	4.645795e+03	2.141077e+03	0	1.231310e-03
4.400000e+08	8.770191e+13	0.000000e+00	7.764703e-01	1.039257e+15	1.222838e+15	9.726547e+13	9.622178e+03	4.638503e+03	2.137716e+03	0	1.224707e-03
4.500000e+08	8.630888e+13	0.000000e+00	7.764703e-01	1.024707e+15	1.206698e+15	9.677279e+13	9.591572e+03	4.631300e+03	2.134397e+03	0	1.218188e-03
4.600000e+08	8.494804e+13	0.000000e+00	7.764703e-01	1.010489e+15	1.190916e+15	9.628365e+13	9.561393e+03	4.624184e+03	2.131117e+03	0	1.211752e-03
4.700000e+08	8.361838e+13	0.000000e+00	7.764703e-01	9.965927e+14	1.175481e+15	9.579801e+13	9.531631e+03	4.617153e+03	2.127877e+03	0	1.205396e-03
4.800000e+08	8.231894e+13	0.000000e+00	7.764703e-01	9.830075e+14	1.160384e+15	9.531586e+13	9.502277e+03	4.610205e+03	2.124675e+03	0	1.199119e-03
4.900000e+08	8.104879e+13	0.000000e+00	7.764703e-01	9.697243e+14	1.145613e+15	9.483716e+13	9.473321e+03	4.603339e+03	2.121511e+03	0	1.192920e-03
5.000000e+08	7.980703e+13	0.000000e+00	7.764703e-01	9.567339e+14	1.131160e+15	9.436188e+13	9.444754e+03	4.596553e+03	2.118383e+03	0	1.186796e-03
5.100000e+08	7.859280e+13	0.000000e+00	7.764703e-01	9.440274e+14	1.117014e+15	9.388999e+13	9.416569e+03	4.589846e+03	2.115292e+03	0	1.180747e-03
5.200000e+08	7.740528e+13	0.000000e+00	7.764703e-01	9.315965e+14	1.103167e+15	9.342148e+13	9.388756e+03	4.583215e+03	2.112236e+03	0	1.174770e-03
5.300000e+08	7.624366e+13	0.000000e+00	7.764703e-01	9.194329e+14	1.089609e+15	9.295630e+13	9.361308e+03	4.576661e+03	2.109215e+03	0	1.168863e-03
5.400000e+08	7.510719e+13	0.000000e+00	7.764703e-01	9.075288e+14	1.076334e+15	9.249444e+13	9.334217e+03	4.570180e+03	2.106229e+03	0	1.163027e-03
5.500000e+08	7.399512e+13	0.000000e+00	7.764703e-01	8.958765e+14	1.063332e+15	9.203586e+13	9.307475e+03	4.563772e+03	2.103275e+03	0	1.157258e-03
5.600000e+08	7.290674e+13	0.000000e+00	7.764703e-01	8.844689e+14	1.050595e+15	9.158055e+13	9.281075e+03	4.557435e+03	2.100355e+03	0	1.151556e-03
5.700000e+08	7.184137e+13	0.000000e+00	7.764703e-01	8.732988e+14	1.038117e+15	9.112847e+13	9.255010e+03	4.551168e+03	2.097467e+03	0	1.145919e-03
5.800000e+08	7.079835e+13	0.000000e+00	7.764703e-01	8.623596e+14	1.025889e+15	9.067959e+13	9.229273e+03	4.544970e+03	2.094610e+03	0	1.140347e-03
5.900000e+08	6.977704e+13	0.000000e+00	7.764703e-01	8.516446e+14	1.013906e+15	9.023390e+13	9.203856e+03	4.538838e+03	2.091785e+03	0	1.134837e-03
6.000000e+08	6.877682e+13	0.000000e+00	7.764703e-01	8.411476e+14	1.002159e+15	8.979136e+13	9.178755e+03	4.532773e+03	2.088989e+03	0	1.129388e-03
6.100000e+08	6.779712e+13	0.000000e+00	7.764703e-01	8.308625e+14	9.906435e+14	8.935195e+13	9.153961e+03	4.526773e+03	2.086224e+03	0	1.124000e-03
6.200000e+08	6.683735e+13	0.000000e+00	7.764703e-01	8.207835e+14	9.793520e+14	8.891565e+13	9.129470e+03	4.520837e+03	2.083488e+03	0	1.118671e-03
6.300000e+08	6.589697e+13	0.000000e+00	7.764703e-01	8.109048e+14	9.682788e+14	8.848243e+13	9.105274e+03	4.514963e+03	2.080781e+03	0	1.113399e-03
6.400000e+08	6.497544e+13	0.000000e+00	7.764703e-01	8.012211e+14	9.574179e+14	8.805226e+13	9.081368e+03	4.509150e+03	2.078102e+03	0	1.108185e-03
6.500000e+08	6.407225e+13	0.000000e+00	7.764703e-01	7.917270e+14	9.467638e+14	8.762512e+13	9.057747e+03	4.503398e+03	2.075451e+03	0	1.103026e-03
6.600000e+08	6.318690e+13	0.000000e+00	7.764703e-01	7.824175e+14	9.363108e+14	8.720099e+13	9.034405e+03	4.497704e+03	2.072827e+03	0	1.097922e-03
6.700000e+08	6.231892e+13	0.000000e+00	7.764703e-01	7.732876e+14	9.260538e+14	8.677984e+13	9.011336e+03	4.492069e+03	2.070230e+03	0	1.092872e-03
6.800000e+08	6.146784e+13	0.000000e+00	7.764703e-01	7.643327e+14	9.159876e+14	8.636165e+13	8.988535e+03	4.486491e+03	2.067659e+03	0	1.087874e-03
6.900000e+08	6.063322e+13	0.000000e+00	7.764703e-01	7.555480e+14	9.061073e+14	8.594640e+13	8.965997e+03	4.480969e+03	2.065115e+03	0	1.082927e-03
7.000000e+08	5.981462e+13	0.000000e+00	7.764703e-01	7.469292e+14	8.964080e+14	8.553405e+13	8.943718e+03	4.475502e+03	2.062595e+03	0	1.078032e-03
7.100000e+08	5.901162e+13	0.000000e+00	7.764703e-01	7.384719e+14	8.868852e+14	8.512459e+13	8.921691e+03	4.470089e+03	2.060100e+03	0	1.073186e-03
7.200000e+08	5.822382e+13	0.000000e+00	7.764703e-01	7.301720e+14	8.775344e+14	8.471799e+13	8.899913e+03	4.464729e+03	2.057630e+03	0	1.068389e-03
7.300000e+08	5.745084e+13	0.000000e+00	7.764703e-01	7.220255e+14	8.683512e+14	8.431424e+13	8.878379e+03	4.459422e+03	2.055184e+03	0	1.063640e-03
7.400000e+08	5.669228e+13	0.000000e+00	7.764703e-01	7.140285e+14	8.593315e+14	8.391330e+13	8.857085e+03	4.454166e+03	2.052762e+03	0	1.058938e-03
7.500000e+08	5.594779e+13	0.000000e+00	7.764703e-01	7.061772e+14	8.504711e+14	8.351516e+13	8.836025e+03	4.448960e+03	2.050363e+03	0	1.054282e-03
7.600000e+08	5.521701e+13	0.000000e+00	7.764703e-01	6.984680e+14	8.417662e+14	8.311979e+13	8.815196e+03	4.443805e+03	2.047987e+03	0	1.049672e-03
7.700000e+08	5.449960e+13	0.000000e+00	7.764703e-01	6.908973e+14	8.332129e+14	8.272717e+13	8.794593e+03	4.438698e+03	2.045633e+03	0	1.045106e-03
7.800000e+08	5.379522e+13	0.000000e+00	7.764703e-01	6.834617e+14	8.248075e+14	8.233728e+13	8.774214e+03	4.433639e+03	2.043302e+03	0	1.040584e-03
7.900000e+08	5.310355e+13	0.000000e+00	7.764703e-01	6.761579e+14	8.165466e+14	8.195010e+13	8.754052e+03	4.428628e+03	2.040992e+03	0	1.036105e-03
8.000000e+08	5.242429e+13	0.000000e+00	7.764703e-01	6.689827e+14	8.084265e+14	8.156561e+13	8.734106e+03	4.423663e+03	2.038704e+03	0	1.031668e-03
8.100000e+08	5.175712e+13	0.000000e+00	7.764703e-01	6.619330e+14	8.004439e+14	8.118377e+13	8.714370e+03	4.418743e+03	2.036437e+03	0	1.027273e-03
8.200000e+08	5.110175e+13	0.000000e+00	7.764703e-01	6.550057e+14	7.925957e+14	8.080459e+13	8.694842e+03	4.413869e+03	2.034191e+03	0	1.022919e-03
8.300000e+08	5.045790e+13	0.000000e+00	7.764703e-01	6.481980e+14	7.848785e+14	8.042802e+13	8.675517e+03	4.409039e+03	2.031965e+03	0	1.018604e-03
8.400000e+08	4.982530e+13	0.000000e+00	7.764703e-01	6.415070e+14	7.772894e+14	8.005405e+13	8.656392e+03	4.404253e+03	2.029759e+03	0	1.014330e-03
8.500000e+08	4.920368e+13	0.000000e+00	7.764703e-01	6.349299e+14	7.698254e+14	7.968267e+13	8.637464e+03	4.399509e+03	2.027573e+03	0	1.010094e-03
8.600000e+08	4.859277e+13	0.000000e+00	7.764703e-01	6.284641e+14	7.624836e+14	7.931384e+13	8.618730e+03	4.394808e+03	2.025406e+03	0	1.005896e-03
8.700000e+08	4.799233e+13	0.000000e+00	7.764703e-01	6.221069e+14	7.552611e+14	7.894755e+13	8.600186e+03	4.390148e+03	2.023259e+03	0	1.001736e-03
8.800000e+08	4.740212e+13	0.000000e+00	7.764703e-01	6.158560e+14	7.481554e+14	7.858379e+13	8.581828e+03	4.385530e+03	2.021130e+03	0	9.976122e-04
8.900000e+08	4.682189e+13	0.000000e+00	7.764703e-01	6.097087e+14	7.411637e+14	7.822252e+13	8.563655e+03	4.380951e+03	2.019020e+03	0	9.935250e-04
9.000000e+08	4.625141e+13	0.000000e+00	7.764703e-01	6.036629e+14	7.342834e+14	7.786373e+13	8.545662e+03	4.376413e+03	2.016928e+03	0	9.894735e-04
9.100000e+08	4.569047e+13	0.000000e+00	7.764703e-01	5.977160e+14	7.275121e+14	7.750740e+13	8.527847e+03	4.371913e+03	2.014855e+03	0	9.854571e-04
9.200000e+08	4.513884e+13	0.000000e+00	7.764703e-01	5.918660e+14	7.208474e+14	7.715351e+13	8.510208e+03	4.367452e+03	2.012799e+03	0	9.814751e-04
9.300000e+08	4.459632e+13	0.000000e+00	7.764703e-01	5.861107e+14	7.142868e+14	7.680204e+13	8.492740e+03	4.363028e+03	2.010760e+03	0	9.775272e-04
9.400000e+08	4.406270e+13	0.000000e+00	7.764703e-01	5.804479e+14	7.078282e+14	7.645298e+13	8.475441e+03	4.358642e+03	2.008739e+03	0	9.736126e-04
9.500000e+08	4.353778e+13	0.000000e+00	7.764703e-01	5.748756e+14	7.014693e+14	7.610630e+13	8.458309e+03	4.354293e+03	2.006734e+03	0	9.697309e-04
9.600000e+08	4.302136e+13	0.000000e+00	7.764703e-01	5.693917e+14	6.952080e+14	7.576198e+13	8.441341e+03	4.349980e+03	2.004747e+03	0	9.658816e-04
9.700000e+08	4.251327e+13	0.000000e+00	7.764703e-01	5.639945e+14	6.890421e+14	7.542000e+13	8.424535e+03	4.345703e+03	2.002775e+03	0	9.620641e-04
9.800000e+08	4.201331e+13	0.000000e+00	7.764703e-01	5.586819e+14	6.829696e+14	7.508035e+13	8.407887e+03	4.341461e+03	2.000820e+03	0	9.582779e-04
9.900000e+08	4.152132e+13	0.000000e+00	7.764703e-01	5.534521e+14	6.769885e+14	7.474302e+13	8.391396e+03	4.337254e+03	1.998881e+03	0	9.545226e-04
1.000000e+09	4.103711e+13	0.000000e+00	7.764703e-01	5.483035e+14	6.710969e+14	7.440797e+13	8.375058e+03	4.333080e+03	1.996958e+03	0	9.507976e-04
1.010000e+09	4.056052e+13	0.000000e+00	7.764703e-01	5.432341e+14	6.652929e+14	7.407519e+13	8.358872e+03	4.328941e+03	1.995050e+03	0	9.471026e-04
1.020000e+09	4.009139e+13	0.000000e+00	7.764703e-01	5.382424e+14	6.595747e+14	7.374467e+13	8.342835e+03	4.324835e+03	1.993158e+03	0	9.434369e-04
1.030000e+09	3.962956e+13	0.000000e+00	7.764703e-01	5.333267e+14	6.539405e+14	7.341638e+13	8.326945e+03	4.320761e+03	1.991281e+03	0	9.398003e-04
1.040000e+09	3.917486e+13	0.000000e+00	7.764703e-01	5.284854e+14	6.483885e+14	7.309032e+13	8.311200e+03	4.316720e+03	1.989418e+03	0	9.361922e-04
1.050000e+09	3.872716e+13	0.000000e+00	7.764703e-01	5.237169e+14	6.429171e+14	7.276645e+13	8.295597e+03	4.312710e+03	1.987570e+03	0	9.326121e-04
1.060000e+09	3.828631e+13	0.000000e+00	7.764703e-01	5.190198e+14	6.375247e+14	7.244477e+13	8.280135e+03	4.308732e+03	1.985737e+03	0	9.290598e-04
1.070000e+09	3.785216e+13	0.000000e+00	7.764703e-01	5.143926e+14	6.322096e+14	7.212526e+13	8.264811e+03	4.304785e+03	1.983918e+03	0	9.255347e-04
1.080000e+09	3.742457e+13	0.000000e+00	7.764703e-01	5.098338e+14	6.269703e+14	7.180789e+13	8.249623e+03	4.300869e+03	1.982113e+03	0	9.220365e-04
1.090000e+09	3.700341e+13	0.000000e+00	7.764703e-01	5.053420e+14	6.218053e+14	7.149266e+13	8.234569e+03	4.296983e+03	1.980322e+03	0	9.185647e-04
1.100000e+09	3.658855e+13	0.000000e+00	7.764703e-01	5.009159e+14	6.167130e+14	7.117955e+13	8.219648e+03	4.293126e+03	1.978545e+03	0	9.151190e-04
1.110000e+09	3.617986e+13	0.000000e+00	7.764703e-01	4.965542e+14	6.116921e+14	7.086854e+13	8.204857e+03	4.289299e+03	1.976781e+03	0	9.116990e-04
1.120000e+09	3.577721e+13	0.000000e+00	7.764703e-01	4.922555e+14	6.067411e+14	7.055961e+13	8.190194e+03	4.285500e+03	1.975030e+03	0	9.083042e-04
1.130000e+09	3.538048e+13	0.000000e+00	7.764703e-01	4.880186e+14	6.018587e+14	7.025274e+13	8.175658e+03	4.281730e+03	1.973293e+03	0	9.049344e-04
1.140000e+09	3.498956e+13	0.000000e+00	7.764703e-01	4.838422e+14	5.970435e+14	6.994793e+13	8.161246e+03	4.277988e+03	1.971568e+03	0	9.015891e-04
1.150000e+09	3.460432e+13	0.000000e+00	7.764703e-01	4.797253e+14	5.922942e+14	6.964516e+13	8.146958e+03	4.274274e+03	1.969857e+03	0	8.982681e-04
1.160000e+09	3.422466e+13	0.000000e+00	7.764703e-01	4.756665e+14	5.876097e+14	6.934440e+13	8.132791e+03	4.270588e+03	1.968158e+03	0	8.949709e-04
1.170000e+09	3.385047e+13	0.000000e+00	7.764703e-01	4.716648e+14	5.829885e+14	6.904565e+13	8.118743e+03	4.266928e+03	1.966471e+03	0	8.916972e-04
1.180000e+09	3.348163e+13	0.000000e+00	7.764703e-01	4.677191e+14	5.784296e+14	6.874888e+13	8.104813e+03	4.263296e+03	1.964797e+03	0	8.884466e-04
1.190000e+09	3.311804e+13	0.000000e+00	7.764703e-01	4.638283e+14	5.739317e+14	6.845409e+13	8.091000e+03	4.259689e+03	1.963135e+03	0	8.852190e-04
1.200000e+09	3.275961e+13	0.000000e+00	7.764703e-01	4.599912e+14	5.694936e+14	6.816125e+13	8.077301e+03	4.256109e+03	1.961485e+03	0	8.820138e-04
1.210000e+09	3.240622e+13	0.000000e+00	7.764703e-01	4.562070e+14	5.651144e+14	6.787036e+13	8.063715e+03	4.252554e+03	1.959847e+03	0	8.788309e-04
1.220000e+09	3.205779e+13	0.000000e+00	7.764703e-01	4.524746e+14	5.607928e+14	6.758140e+13	8.050240e+03	4.249025e+03	1.958220e+03	0	8.756698e-04
1.230000e+09	3.171422e+13	0.000000e+00	7.764703e-01	4.487930e+14	5.565279e+14	6.729434e+13	8.036876e+03	4.245520e+03	1.956605e+03	0	8.725303e-04
1.240000e+09	3.137542e+13	0.000000e+00	7.764703e-01	4.451612e+14	5.523185e+14	6.700918e+13	8.023619e+03	4.242041e+03	1.955001e+03	0	8.694121e-04
1.250000e+09	3.104130e+13	0.000000e+00	7.764703e-01	4.415783e+14	5.481636e+14	6.672591e+13	8.010470e+03	4.238586e+03	1.953409e+03	0	8.663149e-04
1.260000e+09	3.071176e+13	0.000000e+00	7.764703e-01	4.380435e+14	5.440623e+14	6.644450e+13	7.997427e+03	4.235155e+03	1.951828e+03	0	8.632384e-04
1.270000e+09	3.038673e+13	0.000000e+00	7.764703e-01	4.345557e+14	5.400136e+14	6.616495e+13	7.984487e+03	4.231748e+03	1.950258e+03	0	8.601823e-04
1.280000e+09	3.006612e+13	0.000000e+00	7.764703e-01	4.311143e+14	5.360165e+14	6.588724e+13	7.971651e+03	4.228364e+03	1.948698e+03	0	8.571463e-04
1.290000e+09	2.974984e+13	0.000000e+00	7.764703e-01	4.277182e+14	5.320702e+14	6.561135e+13	7.958915e+03	4.225004e+03	1.947150e+03	0	8.541301e-04
1.300000e+09	2.943782e+13	0.000000e+00	7.764703e-01	4.243667e+14	5.281736e+14	6.533727e+13	7.946280e+03	4.221666e+03	1.945611e+03	0	8.511336e-04
1.310000e+09	2.912998e+13	0.000000e+00	7.764703e-01	4.210589e+14	5.243259e+14	6.506499e+13	7.933743e+03	4.218351e+03	1.944084e+03	0	8.481563e-04
1.320000e+09	2.882624e+13	0.000000e+00	7.764703e-01	4.177941e+14	5.205263e+14	6.479449e+13	7.921304e+03	4.215059e+03	1.942566e+03	0	8.451981e-04
1.330000e+09	2.852653e+13	0.000000e+00	7.764703e-01	4.145715e+14	5.167739e+14	6.452576e+13	7.908962e+03	4.211789e+03	1.941059e+03	0	8.422587e-04
1.340000e+09	2.823078e+13	0.000000e+00	7.764703e-01	4.113904e+14	5.130679e+14	6.425879e+13	7.896714e+03	4.208540e+03	1.939562e+03	0	8.393378e-04
1.350000e+09	2.793891e+13	0.000000e+00	7.764703e-01	4.082500e+14	5.094074e+14	6.399356e+13	7.884559e+03	4.205314e+03	1.938075e+03	0	8.364352e-04
1.360000e+09	2.765086e+13	0.000000e+00	7.764703e-01	4.051495e+14	5.057918e+14	6.373005e+13	7.872498e+03	4.202108e+03	1.936598e+03	0	8.335507e-04
