#t		Qconv[W]	Ri[Rp]		R*[Rp]		Qc[W]		Qm[W]		Qr[W]		Tcmb[K]		Tl[K]		Tup[K]		RiFlag		Bs[T]
0.000000e+00	2.630750e+14	0.000000e+00	7.764706e-01	2.761340e+15	2.601218e+15	1.478584e+14	1.262775e+04	5.296419e+03	2.365357e+03	0	1.753281e-03
1.000000e+07	2.576443e+14	0.000000e+00	7.764706e-01	2.709328e+15	2.641271e+15	1.470392e+14	1.256644e+04	5.317286e+03	2.374677e+03	0	1.741133e-03
2.000000e+07	2.523426e+14	0.000000e+00	7.764706e-01	2.658543e+15	2.664496e+15	1.462261e+14	1.250628e+04	5.331846e+03	2.381179e+03	0	1.729107e-03
3.000000e+07	2.471762e+14	0.000000e+00	7.764706e-01	2.609044e+15	2.674077e+15	1.454190e+14	1.244723e+04	5.341332e+03	2.385415e+03	0	1.717225e-03
4.000000e+07	2.421474e+14	0.000000e+00	7.764706e-01	2.560852e+15	2.672766e+15	1.446180e+14	1.238928e+04	5.346760e+03	2.387840e+03	0	1.705500e-03
5.000000e+07	2.372562e+14	0.000000e+00	7.764706e-01	2.513965e+15	2.662879e+15	1.438230e+14	1.233240e+04	5.348959e+03	2.388822e+03	0	1.693938e-03
6.000000e+07	2.325007e+14	0.000000e+00	7.764706e-01	2.468365e+15	2.646323e+15	1.430338e+14	1.227655e+04	5.348595e+03	2.388659e+03	0	1.682544e-03
7.000000e+07	2.278781e+14	0.000000e+00	7.764706e-01	2.424026e+15	2.624650e+15	1.422506e+14	1.222170e+04	5.346207e+03	2.387592e+03	0	1.671318e-03
8.000000e+07	2.233850e+14	0.000000e+00	7.764706e-01	2.380915e+15	2.599109e+15	1.414732e+14	1.216784e+04	5.342224e+03	2.385814e+03	0	1.660261e-03
9.000000e+07	2.190176e+14	0.000000e+00	7.764706e-01	2.338996e+15	2.570696e+15	1.407016e+14	1.211493e+04	5.336991e+03	2.383477e+03	0	1.649370e-03
1.000000e+08	2.147721e+14	0.000000e+00	7.764706e-01	2.298233e+15	2.540201e+15	1.399357e+14	1.206295e+04	5.330783e+03	2.380704e+03	0	1.638643e-03
1.100000e+08	2.106444e+14	0.000000e+00	7.764706e-01	2.258588e+15	2.508248e+15	1.391754e+14	1.201186e+04	5.323817e+03	2.377594e+03	0	1.628077e-03
1.200000e+08	2.066305e+14	0.000000e+00	7.764706e-01	2.220024e+15	2.475326e+15	1.384209e+14	1.196166e+04	5.316269e+03	2.374223e+03	0	1.617670e-03
1.300000e+08	2.027267e+14	0.000000e+00	7.764706e-01	2.182503e+15	2.441818e+15	1.376719e+14	1.191230e+04	5.308277e+03	2.370653e+03	0	1.607417e-03
1.400000e+08	1.989291e+14	0.000000e+00	7.764706e-01	2.145990e+15	2.408022e+15	1.369284e+14	1.186378e+04	5.299952e+03	2.366936e+03	0	1.597317e-03
1.500000e+08	1.952340e+14	0.000000e+00	7.764706e-01	2.110450e+15	2.374169e+15	1.361904e+14	1.181606e+04	5.291383e+03	2.363108e+03	0	1.587365e-03
1.600000e+08	1.916378e+14	0.000000e+00	7.764706e-01	2.075850e+15	2.340437e+15	1.354579e+14	1.176913e+04	5.282639e+03	2.359203e+03	0	1.577558e-03
1.700000e+08	1.881371e+14	0.000000e+00	7.764706e-01	2.042156e+15	2.306963e+15	1.347308e+14	1.172297e+04	5.273777e+03	2.355246e+03	0	1.567893e-03
1.800000e+08	1.847286e+14	0.000000e+00	7.764706e-01	2.009337e+15	2.273850e+15	1.340091e+14	1.167755e+04	5.264841e+03	2.351255e+03	0	1.558367e-03
1.900000e+08	1.814091e+14	0.000000e+00	7.764706e-01	1.977364e+15	2.241176e+15	1.332927e+14	1.163286e+04	5.255868e+03	2.347248e+03	0	1.548976e-03
2.000000e+08	1.781755e+14	0.000000e+00	7.764706e-01	1.946207e+15	2.208997e+15	1.325815e+14	1.158887e+04	5.246885e+03	2.343236e+03	0	1.539717e-03
2.100000e+08	1.750248e+14	0.000000e+00	7.764706e-01	1.915839e+15	2.177355e+15	1.318756e+14	1.154558e+04	5.237914e+03	2.339230e+03	0	1.530588e-03
2.200000e+08	1.719544e+14	0.000000e+00	7.764706e-01	1.886232e+15	2.146278e+15	1.311748e+14	1.150295e+04	5.228975e+03	2.335237e+03	0	1.521584e-03
2.300000e+08	1.689613e+14	0.000000e+00	7.764706e-01	1.857362e+15	2.115786e+15	1.304792e+14	1.146099e+04	5.220080e+03	2.331265e+03	0	1.512704e-03
2.400000e+08	1.660431e+14	0.000000e+00	7.764706e-01	1.829203e+15	2.085888e+15	1.297888e+14	1.141966e+04	5.211242e+03	2.327318e+03	0	1.503945e-03
2.500000e+08	1.631972e+14	0.000000e+00	7.764706e-01	1.801732e+15	2.056590e+15	1.291033e+14	1.137895e+04	5.202468e+03	2.323399e+03	0	1.495303e-03
2.600000e+08	1.604213e+14	0.000000e+00	7.764706e-01	1.774926e+15	2.027892e+15	1.284229e+14	1.133886e+04	5.193765e+03	2.319513e+03	0	1.486776e-03
2.700000e+08	1.577130e+14	0.000000e+00	7.764706e-01	1.748764e+15	1.999791e+15	1.277474e+14	1.129936e+04	5.185139e+03	2.315660e+03	0	1.478362e-03
2.800000e+08	1.550701e+14	0.000000e+00	7.764706e-01	1.723225e+15	1.972281e+15	1.270769e+14	1.126043e+04	5.176593e+03	2.311844e+03	0	1.470058e-03
2.900000e+08	1.524906e+14	0.000000e+00	7.764706e-01	1.698288e+15	1.945354e+15	1.264113e+14	1.122208e+04	5.168130e+03	2.308064e+03	0	1.461861e-03
3.000000e+08	1.499723e+14	0.000000e+00	7.764706e-01	1.673935e+15	1.919001e+15	1.257505e+14	1.118427e+04	5.159752e+03	2.304323e+03	0	1.453769e-03
3.100000e+08	1.475133e+14	0.000000e+00	7.764706e-01	1.650146e+15	1.893209e+15	1.250946e+14	1.114701e+04	5.151460e+03	2.300620e+03	0	1.445779e-03
3.200000e+08	1.451118e+14	0.000000e+00	7.764706e-01	1.626905e+15	1.867969e+15	1.244434e+14	1.111027e+04	5.143255e+03	2.296955e+03	0	1.437891e-03
3.300000e+08	1.427659e+14	0.000000e+00	7.764706e-01	1.604193e+15	1.843267e+15	1.237969e+14	1.107405e+04	5.135138e+03	2.293330e+03	0	1.430100e-03
3.400000e+08	1.404739e+14	0.000000e+00	7.764706e-01	1.581995e+15	1.819091e+15	1.231552e+14	1.103833e+04	5.127108e+03	2.289744e+03	0	1.422406e-03
3.500000e+08	1.382341e+14	0.000000e+00	7.764706e-01	1.560295e+15	1.795429e+15	1.225181e+14	1.100310e+04	5.119166e+03	2.286197e+03	0	1.414806e-03
3.600000e+08	1.360450e+14	0.000000e+00	7.764706e-01	1.539078e+15	1.772268e+15	1.218856e+14	1.096835e+04	5.111309e+03	2.282688e+03	0	1.407297e-03
3.700000e+08	1.339050e+14	0.000000e+00	7.764706e-01	1.518329e+15	1.749594e+15	1.212577e+14	1.093408e+04	5.103539e+03	2.279218e+03	0	1.399879e-03
3.800000e+08	1.318125e+14	0.000000e+00	7.764706e-01	1.498033e+15	1.727396e+15	1.206344e+14	1.090026e+04	5.095854e+03	2.275786e+03	0	1.392549e-03
3.900000e+08	1.297663e+14	0.000000e+00	7.764706e-01	1.478178e+15	1.705660e+15	1.200155e+14	1.086690e+04	5.088252e+03	2.272391e+03	0	1.385306e-03
4.000000e+08	1.277648e+14	0.000000e+00	7.764706e-01	1.458751e+15	1.684375e+15	1.194011e+14	1.083397e+04	5.080734e+03	2.269034e+03	0	1.378147e-03
4.100000e+08	1.258068e+14	0.000000e+00	7.764706e-01	1.439739e+15	1.663529e+15	1.187912e+14	1.080148e+04	5.073298e+03	2.265713e+03	0	1.371070e-03
4.200000e+08	1.238910e+14	0.000000e+00	7.764706e-01	1.421129e+15	1.643110e+15	1.181856e+14	1.076941e+04	5.065942e+03	2.262428e+03	0	1.364075e-03
4.300000e+08	1.220162e+14	0.000000e+00	7.764706e-01	1.402910e+15	1.623106e+15	1.175844e+14	1.073775e+04	5.058666e+03	2.259178e+03	0	1.357159e-03
4.400000e+08	1.201812e+14	0.000000e+00	7.764706e-01	1.385072e+15	1.603506e+15	1.169876e+14	1.070649e+04	5.051469e+03	2.255964e+03	0	1.350322e-03
4.500000e+08	1.183849e+14	0.000000e+00	7.764706e-01	1.367603e+15	1.584300e+15	1.163950e+14	1.067563e+04	5.044348e+03	2.252784e+03	0	1.343560e-03
4.600000e+08	1.166261e+14	0.000000e+00	7.764706e-01	1.350492e+15	1.565477e+15	1.158067e+14	1.064516e+04	5.037304e+03	2.249638e+03	0	1.336873e-03
4.700000e+08	1.149038e+14	0.000000e+00	7.764706e-01	1.333730e+15	1.547026e+15	1.152226e+14	1.061507e+04	5.030334e+03	2.246525e+03	0	1.330260e-03
4.800000e+08	1.132169e+14	0.000000e+00	7.764706e-01	1.317307e+15	1.528938e+15	1.146426e+14	1.058535e+04	5.023437e+03	2.243445e+03	0	1.323718e-03
4.900000e+08	1.115646e+14	0.000000e+00	7.764706e-01	1.301214e+15	1.511203e+15	1.140669e+14	1.055599e+04	5.016613e+03	2.240398e+03	0	1.317247e-03
5.000000e+08	1.099457e+14	0.000000e+00	7.764706e-01	1.285441e+15	1.493812e+15	1.134952e+14	1.052700e+04	5.009860e+03	2.237382e+03	0	1.310844e-03
5.100000e+08	1.083595e+14	0.000000e+00	7.764706e-01	1.269981e+15	1.476755e+15	1.129277e+14	1.049835e+04	5.003177e+03	2.234397e+03	0	1.304510e-03
5.200000e+08	1.068050e+14	0.000000e+00	7.764706e-01	1.254823e+15	1.460024e+15	1.123641e+14	1.047004e+04	4.996563e+03	2.231443e+03	0	1.298242e-03
5.300000e+08	1.052814e+14	0.000000e+00	7.764706e-01	1.239961e+15	1.443611e+15	1.118046e+14	1.044207e+04	4.990016e+03	2.228519e+03	0	1.292039e-03
5.400000e+08	1.037878e+14	0.000000e+00	7.764706e-01	1.225387e+15	1.427506e+15	1.112491e+14	1.041444e+04	4.983536e+03	2.225625e+03	0	1.285900e-03
5.500000e+08	1.023234e+14	0.000000e+00	7.764706e-01	1.211092e+15	1.411703e+15	1.106976e+14	1.038712e+04	4.977121e+03	2.222760e+03	0	1.279823e-03
5.600000e+08	1.008875e+14	0.000000e+00	7.764706e-01	1.197069e+15	1.396193e+15	1.101499e+14	1.036012e+04	4.970770e+03	2.219924e+03	0	1.273808e-03
5.700000e+08	9.947931e+13	0.000000e+00	7.764706e-01	1.183313e+15	1.380968e+15	1.096062e+14	1.033344e+04	4.964482e+03	2.217116e+03	0	1.267854e-03
5.800000e+08	9.809810e+13	0.000000e+00	7.764706e-01	1.169814e+15	1.366023e+15	1.090663e+14	1.030706e+04	4.958256e+03	2.214336e+03	0	1.261959e-03
5.900000e+08	9.674319e+13	0.000000e+00	7.764706e-01	1.156568e+15	1.351349e+15	1.085302e+14	1.028098e+04	4.952092e+03	2.211583e+03	0	1.256122e-03
6.000000e+08	9.541388e+13	0.000000e+00	7.764706e-01	1.143566e+15	1.336939e+15	1.079980e+14	1.025519e+04	4.945987e+03	2.208856e+03	0	1.250342e-03
6.100000e+08	9.410953e+13	0.000000e+00	7.764706e-01	1.130804e+15	1.322788e+15	1.074695e+14	1.022969e+04	4.939942e+03	2.206156e+03	0	1.244618e-03
6.200000e+08	9.282951e+13	0.000000e+00	7.764706e-01	1.118276e+15	1.308889e+15	1.069447e+14	1.020448e+04	4.933954e+03	2.203482e+03	0	1.238950e-03
6.300000e+08	9.157319e+13	0.000000e+00	7.764706e-01	1.105974e+15	1.295235e+15	1.064236e+14	1.017954e+04	4.928024e+03	2.200834e+03	0	1.233335e-03
6.400000e+08	9.033998e+13	0.000000e+00	7.764706e-01	1.093894e+15	1.281821e+15	1.059062e+14	1.015488e+04	4.922150e+03	2.198211e+03	0	1.227774e-03
6.500000e+08	8.912931e+13	0.000000e+00	7.764706e-01	1.082031e+15	1.268640e+15	1.053925e+14	1.013049e+04	4.916331e+03	2.195612e+03	0	1.222264e-03
6.600000e+08	8.794062e+13	0.000000e+00	7.764706e-01	1.070378e+15	1.255688e+15	1.048824e+14	1.010636e+04	4.910566e+03	2.193037e+03	0	1.216806e-03
6.700000e+08	8.677338e+13	0.000000e+00	7.764706e-01	1.058931e+15	1.242958e+15	1.043758e+14	1.008249e+04	4.904855e+03	2.190487e+03	0	1.211399e-03
6.800000e+08	8.562704e+13	0.000000e+00	7.764706e-01	1.047685e+15	1.230445e+15	1.038728e+14	1.005887e+04	4.899197e+03	2.187960e+03	0	1.206041e-03
6.900000e+08	8.450112e+13	0.000000e+00	7.764706e-01	1.036635e+15	1.218145e+15	1.033734e+14	1.003550e+04	4.893590e+03	2.185456e+03	0	1.200731e-03
7.000000e+08	8.339511e+13	0.000000e+00	7.764706e-01	1.025776e+15	1.206051e+15	1.028774e+14	1.001238e+04	4.888035e+03	2.182975e+03	0	1.195470e-03
7.100000e+08	8.230854e+13	0.000000e+00	7.764706e-01	1.015104e+15	1.194160e+15	1.023849e+14	9.989502e+03	4.882529e+03	2.180516e+03	0	1.190255e-03
7.200000e+08	8.124094e+13	0.000000e+00	7.764706e-01	1.004614e+15	1.182467e+15	1.018959e+14	9.966860e+03	4.877073e+03	2.178080e+03	0	1.185086e-03
7.300000e+08	8.019187e+13	0.000000e+00	7.764706e-01	9.943017e+14	1.170966e+15	1.014103e+14	9.944451e+03	4.871666e+03	2.175665e+03	0	1.179963e-03
7.400000e+08	7.916090e+13	0.000000e+00	7.764706e-01	9.841637e+14	1.159654e+15	1.009280e+14	9.922270e+03	4.866307e+03	2.173271e+03	0	1.174885e-03
7.500000e+08	7.814759e+13	0.000000e+00	7.764706e-01	9.741956e+14	1.148527e+15	1.004492e+14	9.900316e+03	4.860994e+03	2.170899e+03	0	1.169850e-03
7.600000e+08	7.715154e+13	0.000000e+00	7.764706e-01	9.643935e+14	1.137579e+15	9.997362e+13	9.878583e+03	4.855729e+03	2.168547e+03	0	1.164859e-03
7.700000e+08	7.617235e+13	0.000000e+00	7.764706e-01	9.547535e+14	1.126808e+15	9.950140e+13	9.857068e+03	4.850508e+03	2.166216e+03	0	1.159910e-03
7.800000e+08	7.520963e+13	0.000000e+00	7.764706e-01	9.452720e+14	1.116209e+15	9.903245e+13	9.835767e+03	4.845333e+03	2.163905e+03	0	1.155002e-03
7.900000e+08	7.426301e+13	0.000000e+00	7.764706e-01	9.359454e+14	1.105778e+15	9.856676e+13	9.814677e+03	4.840203e+03	2.161613e+03	0	1.150136e-03
8.000000e+08	7.333213e+13	0.000000e+00	7.764706e-01	9.267702e+14	1.095511e+15	9.810430e+13	9.793795e+03	4.835115e+03	2.159341e+03	0	1.145310e-03
8.100000e+08	7.241662e+13	0.000000e+00	7.764706e-01	9.177431e+14	1.085406e+15	9.764505e+13	9.773116e+03	4.830071e+03	2.157089e+03	0	1.140524e-03
8.200000e+08	7.151614e+13	0.000000e+00	7.764706e-01	9.088607e+14	1.075457e+15	9.718898e+13	9.752639e+03	4.825070e+03	2.154855e+03	0	1.135777e-03
8.300000e+08	7.063036e+13	0.000000e+00	7.764706e-01	9.001199e+14	1.065663e+15	9.673605e+13	9.732358e+03	4.820110e+03	2.152640e+03	0	1.131068e-03
8.400000e+08	6.975896e+13	0.000000e+00	7.764706e-01	8.915175e+14	1.056020e+15	9.628626e+13	9.712273e+03	4.815191e+03	2.150443e+03	0	1.126397e-03
8.500000e+08	6.890161e+13	0.000000e+00	7.764706e-01	8.830506e+14	1.046524e+15	9.583957e+13	9.692379e+03	4.810313e+03	2.148265e+03	0	1.121764e-03
8.600000e+08	6.805802e+13	0.000000e+00	7.764706e-01	8.747163e+14	1.037172e+15	9.539596e+13	9.672673e+03	4.805475e+03	2.146104e+03	0	1.117167e-03
8.700000e+08	6.722787e+13	0.000000e+00	7.764706e-01	8.665116e+14	1.027962e+15	9.495540e+13	9.653152e+03	4.800677e+03	2.143961e+03	0	1.112606e-03
8.800000e+08	6.641089e+13	0.000000e+00	7.764706e-01	8.584338e+14	1.018889e+15	9.451788e+13	9.633814e+03	4.795917e+03	2.141835e+03	0	1.108081e-03
8.900000e+08	6.560678e+13	0.000000e+00	7.764706e-01	8.504801e+14	1.009952e+15	9.408336e+13	9.614656e+03	4.791195e+03	2.139727e+03	0	1.103590e-03
9.000000e+08	6.481528e+13	0.000000e+00	7.764706e-01	8.426481e+14	1.001148e+15	9.365182e+13	9.595675e+03	4.786512e+03	2.137635e+03	0	1.099134e-03
9.100000e+08	6.403610e+13	0.000000e+00	7.764706e-01	8.349350e+14	9.924736e+14	9.322324e+13	9.576868e+03	4.781865e+03	2.135560e+03	0	1.094712e-03
9.200000e+08	6.326901e+13	0.000000e+00	7.764706e-01	8.273385e+14	9.839262e+14	9.279759e+13	9.558232e+03	4.777256e+03	2.133501e+03	0	1.090323e-03
9.300000e+08	6.251373e+13	0.000000e+00	7.764706e-01	8.198560e+14	9.755034e+14	9.237486e+13	9.539766e+03	4.772682e+03	2.131459e+03	0	1.085967e-03
9.400000e+08	6.177002e+13	0.000000e+00	7.764706e-01	8.124853e+14	9.672025e+14	9.195501e+13	9.521466e+03	4.768144e+03	2.129432e+03	0	1.081644e-03
9.500000e+08	6.103765e+13	0.000000e+00	7.764706e-01	8.052240e+14	9.590211e+14	9.153803e+13	9.503330e+03	4.763642e+03	2.127422e+03	0	1.077352e-03
9.600000e+08	6.031637e+13	0.000000e+00	7.764706e-01	7.980700e+14	9.509569e+14	9.112390e+13	9.485356e+03	4.759174e+03	2.125426e+03	0	1.073091e-03
9.700000e+08	5.960597e+13	0.000000e+00	7.764706e-01	7.910209e+14	9.430074e+14	9.071258e+13	9.467541e+03	4.754740e+03	2.123446e+03	0	1.068862e-03
9.800000e+08	5.890621e+13	0.000000e+00	7.764706e-01	7.840747e+14	9.351705e+14	9.030407e+13	9.449883e+03	4.750341e+03	2.121481e+03	0	1.064663e-03
9.900000e+08	5.821688e+13	0.000000e+00	7.764706e-01	7.772294e+14	9.274438e+14	8.989833e+13	9.432380e+03	4.745974e+03	2.119531e+03	0	1.060493e-03
1.000000e+09	5.753777e+13	0.000000e+00	7.764706e-01	7.704829e+14	9.198252e+14	8.949534e+13	9.415029e+03	4.741641e+03	2.117596e+03	0	1.056354e-03
1.010000e+09	5.686868e+13	0.000000e+00	7.764706e-01	7.638332e+14	9.123125e+14	8.909509e+13	9.397828e+03	4.737340e+03	2.115675e+03	0	1.052243e-03
1.020000e+09	5.620940e+13	0.000000e+00	7.764706e-01	7.572784e+14	9.049038e+14	8.869755e+13	9.380775e+03	4.733071e+03	2.113769e+03	0	1.048161e-03
1.030000e+09	5.555974e+13	0.000000e+00	7.764706e-01	7.508167e+14	8.975971e+14	8.830270e+13	9.363868e+03	4.728834e+03	2.111877e+03	0	1.044107e-03
1.040000e+09	5.491951e+13	0.000000e+00	7.764706e-01	7.444463e+14	8.903902e+14	8.791052e+13	9.347105e+03	4.724628e+03	2.109998e+03	0	1.040081e-03
1.050000e+09	5.428852e+13	0.000000e+00	7.764706e-01	7.381653e+14	8.832815e+14	8.752098e+13	9.330484e+03	4.720453e+03	2.108134e+03	0	1.036082e-03
1.060000e+09	5.366659e+13	0.000000e+00	7.764706e-01	7.319720e+14	8.762689e+14	8.713408e+13	9.314003e+03	4.716308e+03	2.106283e+03	0	1.032111e-03
1.070000e+09	5.305355e+13	0.000000e+00	7.764706e-01	7.258647e+14	8.693506e+14	8.674978e+13	9.297659e+03	4.712193e+03	2.104445e+03	0	1.028166e-03
1.080000e+09	5.244922e+13	0.000000e+00	7.764706e-01	7.198419e+14	8.625249e+14	8.636806e+13	9.281452e+03	4.708108e+03	2.102621e+03	0	1.024247e-03
1.090000e+09	5.185344e+13	0.000000e+00	7.764706e-01	7.139018e+14	8.557901e+14	8.598892e+13	9.265378e+03	4.704053e+03	2.100809e+03	0	1.020354e-03
1.100000e+09	5.126603e+13	0.000000e+00	7.764706e-01	7.080430e+14	8.491444e+14	8.561231e+13	9.249437e+03	4.700026e+03	2.099011e+03	0	1.016486e-03
1.110000e+09	5.068685e+13	0.000000e+00	7.764706e-01	7.022638e+14	8.425863e+14	8.523824e+13	9.233627e+03	4.696027e+03	2.097225e+03	0	1.012644e-03
1.120000e+09	5.011574e+13	0.000000e+00	7.764706e-01	6.965628e+14	8.361140e+14	8.486667e+13	9.217945e+03	4.692057e+03	2.095452e+03	0	1.008826e-03
1.130000e+09	4.955253e+13	0.000000e+00	7.764706e-01	6.909385e+14	8.297261e+14	8.449758e+13	9.202390e+03	4.688115e+03	2.093692e+03	0	1.005033e-03
1.140000e+09	4.899709e+13	0.000000e+00	7.764706e-01	6.853896e+14	8.234209e+14	8.413097e+13	9.186960e+03	4.684200e+03	2.091943e+03	0	1.001264e-03
1.150000e+09	4.844927e+13	0.000000e+00	7.764706e-01	6.799145e+14	8.171970e+14	8.376680e+13	9.171654e+03	4.680313e+03	2.090207e+03	0	9.975180e-04
1.160000e+09	4.790892e+13	0.000000e+00	7.764706e-01	6.745120e+14	8.110529e+14	8.340506e+13	9.156470e+03	4.676452e+03	2.088483e+03	0	9.937957e-04
1.170000e+09	4.737592e+13	0.000000e+00	7.764706e-01	6.691807e+14	8.049872e+14	8.304573e+13	9.141406e+03	4.672618e+03	2.086771e+03	0	9.900965e-04
1.180000e+09	4.685011e+13	0.000000e+00	7.764706e-01	6.639193e+14	7.989985e+14	8.268879e+13	9.126461e+03	4.668810e+03	2.085070e+03	0	9.864200e-04
1.190000e+09	4.633138e+13	0.000000e+00	7.764706e-01	6.587266e+14	7.930854e+14	8.233422e+13	9.111633e+03	4.665027e+03	2.083381e+03	0	9.827659e-04
1.200000e+09	4.581959e+13	0.000000e+00	7.764706e-01	6.536013e+14	7.872465e+14	8.198201e+13	9.096921e+03	4.661271e+03	2.081703e+03	0	9.791338e-04
1.210000e+09	4.531461e+13	0.000000e+00	7.764706e-01	6.485422e+14	7.814806e+14	8.163214e+13	9.082323e+03	4.657539e+03	2.080037e+03	0	9.755235e-04
1.220000e+09	4.481633e+13	0.000000e+00	7.764706e-01	6.435481e+14	7.757865e+14	8.128458e+13	9.067838e+03	4.653833e+03	2.078381e+03	0	9.719347e-04
1.230000e+09	4.432462e+13	0.000000e+00	7.764706e-01	6.386180e+14	7.701627e+14	8.093932e+13	9.053464e+03	4.650151e+03	2.076737e+03	0	9.683670e-04
1.240000e+09	4.383936e+13	0.000000e+00	7.764706e-01	6.337505e+14	7.646082e+14	8.059634e+13	9.039199e+03	4.646494e+03	2.075104e+03	0	9.648202e-04
1.250000e+09	4.336044e+13	0.000000e+00	7.764706e-01	6.289447e+14	7.591217e+14	8.025563e+13	9.025044e+03	4.642860e+03	2.073481e+03	0	9.612940e-04
1.260000e+09	4.288776e+13	0.000000e+00	7.764706e-01	6.241995e+14	7.537021e+14	7.991716e+13	9.010995e+03	4.639251e+03	2.071869e+03	0	9.577881e-04
1.270000e+09	4.242118e+13	0.000000e+00	7.764706e-01	6.195137e+14	7.483482e+14	7.958093e+13	8.997052e+03	4.635665e+03	2.070268e+03	0	9.543022e-04
1.280000e+09	4.196062e+13	0.000000e+00	7.764706e-01	6.148865e+14	7.430589e+14	7.924690e+13	8.983214e+03	4.632102e+03	2.068677e+03	0	9.508360e-04
1.290000e+09	4.150596e+13	0.000000e+00	7.764706e-01	6.103167e+14	7.378332e+14	7.891507e+13	8.969478e+03	4.628563e+03	2.067096e+03	0	9.473894e-04
1.300000e+09	4.105711e+13	0.000000e+00	7.764706e-01	6.058034e+14	7.326698e+14	7.858542e+13	8.955844e+03	4.625046e+03	2.065525e+03	0	9.439619e-04
1.310000e+09	4.061396e+13	0.000000e+00	7.764706e-01	6.013456e+14	7.275679e+14	7.825793e+13	8.942311e+03	4.621551e+03	2.063965e+03	0	9.405533e-04
1.320000e+09	4.017641e+13	0.000000e+00	7.764706e-01	5.969424e+14	7.225264e+14	7.793258e+13	8.928878e+03	4.618079e+03	2.062414e+03	0	9.371635e-04
1.330000e+09	3.974437e+13	0.000000e+00	7.764706e-01	5.925928e+14	7.175442e+14	7.760936e+13	8.915542e+03	4.614629e+03	2.060873e+03	0	9.337921e-04
1.340000e+09	3.931774e+13	0.000000e+00	7.764706e-01	5.882959e+14	7.126204e+14	7.728826e+13	8.902304e+03	4.611200e+03	2.059342e+03	0	9.304388e-04
1.350000e+09	3.889643e+13	0.000000e+00	7.764706e-01	5.840509e+14	7.077541e+14	7.696925e+13	8.889161e+03	4.607793e+03	2.057820e+03	0	9.271035e-04
1.360000e+09	3.848035e+13	0.000000e+00	7.764706e-01	5.798569e+14	7.029442e+14	7.665232e+13	8.876112e+03	4.604407e+03	2.056308e+03	0	9.237859e-04
