#t		Qconv[W]	Ri[Rp]		R*[Rp]		Qc[W]		Qm[W]		Qr[W]		Tcmb[K]		Tl[K]		Tup[K]		RiFlag		Bs[T]
0.000000e+00	4.302636e+14	0.000000e+00	7.647058e-01	4.443190e+15	3.212368e+15	2.191217e+14	1.553367e+04	6.157900e+03	2.519845e+03	0	2.059741e-03
1.000000e+07	4.235489e+14	0.000000e+00	7.647058e-01	4.384200e+15	3.410719e+15	2.179076e+14	1.547427e+04	6.228059e+03	2.548555e+03	0	2.048970e-03
2.000000e+07	4.167320e+14	0.000000e+00	7.647058e-01	4.324408e+15	3.575527e+15	2.167026e+14	1.541566e+04	6.285544e+03	2.572078e+03	0	2.037918e-03
3.000000e+07	4.098817e+14	0.000000e+00	7.647058e-01	4.264384e+15	3.708770e+15	2.155066e+14	1.535785e+04	6.332026e+03	2.591099e+03	0	2.026690e-03
4.000000e+07	4.030490e+14	0.000000e+00	7.647058e-01	4.204551e+15	3.813316e+15	2.143195e+14	1.530084e+04	6.369080e+03	2.606262e+03	0	2.015365e-03
5.000000e+07	3.962706e+14	0.000000e+00	7.647058e-01	4.145214e+15	3.892460e+15	2.131413e+14	1.524462e+04	6.398137e+03	2.618152e+03	0	2.004003e-03
6.000000e+07	3.895725e+14	0.000000e+00	7.647058e-01	4.086585e+15	3.949589e+15	2.119718e+14	1.518919e+04	6.420468e+03	2.627290e+03	0	1.992648e-03
7.000000e+07	3.829723e+14	0.000000e+00	7.647058e-01	4.028813e+15	3.987956e+15	2.108111e+14	1.513455e+04	6.437179e+03	2.634128e+03	0	1.981330e-03
8.000000e+07	3.764821e+14	0.000000e+00	7.647058e-01	3.971995e+15	4.010554e+15	2.096590e+14	1.508067e+04	6.449222e+03	2.639056e+03	0	1.970074e-03
9.000000e+07	3.701094e+14	0.000000e+00	7.647058e-01	3.916193e+15	4.020050e+15	2.085154e+14	1.502755e+04	6.457403e+03	2.642404e+03	0	1.958895e-03
1.000000e+08	3.638587e+14	0.000000e+00	7.647058e-01	3.861445e+15	4.018769e+15	2.073804e+14	1.497517e+04	6.462400e+03	2.644448e+03	0	1.947804e-03
1.100000e+08	3.577323e+14	0.000000e+00	7.647058e-01	3.807767e+15	4.008703e+15	2.062538e+14	1.492353e+04	6.464780e+03	2.645423e+03	0	1.936810e-03
1.200000e+08	3.517308e+14	0.000000e+00	7.647058e-01	3.755165e+15	3.991537e+15	2.051355e+14	1.487259e+04	6.465017e+03	2.645519e+03	0	1.925918e-03
1.300000e+08	3.458540e+14	0.000000e+00	7.647058e-01	3.703634e+15	3.968683e+15	2.040255e+14	1.482236e+04	6.463500e+03	2.644899e+03	0	1.915132e-03
1.400000e+08	3.401005e+14	0.000000e+00	7.647058e-01	3.653165e+15	3.941313e+15	2.029237e+14	1.477281e+04	6.460554e+03	2.643693e+03	0	1.904453e-03
1.500000e+08	3.344687e+14	0.000000e+00	7.647058e-01	3.603742e+15	3.910397e+15	2.018301e+14	1.472394e+04	6.456443e+03	2.642011e+03	0	1.893882e-03
1.600000e+08	3.289564e+14	0.000000e+00	7.647058e-01	3.555346e+15	3.876731e+15	2.007445e+14	1.467573e+04	6.451389e+03	2.639943e+03	0	1.883420e-03
1.700000e+08	3.235613e+14	0.000000e+00	7.647058e-01	3.507958e+15	3.840968e+15	1.996670e+14	1.462815e+04	6.445572e+03	2.637562e+03	0	1.873067e-03
1.800000e+08	3.182809e+14	0.000000e+00	7.647058e-01	3.461556e+15	3.803640e+15	1.985974e+14	1.458122e+04	6.439140e+03	2.634930e+03	0	1.862821e-03
1.900000e+08	3.131125e+14	0.000000e+00	7.647058e-01	3.416116e+15	3.765181e+15	1.975357e+14	1.453490e+04	6.432215e+03	2.632097e+03	0	1.852683e-03
2.000000e+08	3.080534e+14	0.000000e+00	7.647058e-01	3.371617e+15	3.725942e+15	1.964818e+14	1.448918e+04	6.424899e+03	2.629103e+03	0	1.842651e-03
2.100000e+08	3.031010e+14	0.000000e+00	7.647058e-01	3.328035e+15	3.686210e+15	1.954356e+14	1.444406e+04	6.417273e+03	2.625982e+03	0	1.832723e-03
2.200000e+08	2.982527e+14	0.000000e+00	7.647058e-01	3.285348e+15	3.646212e+15	1.943971e+14	1.439952e+04	6.409407e+03	2.622763e+03	0	1.822899e-03
2.300000e+08	2.935056e+14	0.000000e+00	7.647058e-01	3.243532e+15	3.606136e+15	1.933663e+14	1.435554e+04	6.401354e+03	2.619468e+03	0	1.813176e-03
2.400000e+08	2.888573e+14	0.000000e+00	7.647058e-01	3.202565e+15	3.566129e+15	1.923430e+14	1.431213e+04	6.393163e+03	2.616116e+03	0	1.803553e-03
2.500000e+08	2.843050e+14	0.000000e+00	7.647058e-01	3.162426e+15	3.526310e+15	1.913272e+14	1.426926e+04	6.384870e+03	2.612723e+03	0	1.794028e-03
2.600000e+08	2.798464e+14	0.000000e+00	7.647058e-01	3.123093e+15	3.486772e+15	1.903188e+14	1.422693e+04	6.376507e+03	2.609301e+03	0	1.784600e-03
2.700000e+08	2.754790e+14	0.000000e+00	7.647058e-01	3.084544e+15	3.447592e+15	1.893178e+14	1.418512e+04	6.368100e+03	2.605860e+03	0	1.775268e-03
2.800000e+08	2.712003e+14	0.000000e+00	7.647058e-01	3.046760e+15	3.408825e+15	1.883241e+14	1.414383e+04	6.359669e+03	2.602410e+03	0	1.766029e-03
2.900000e+08	2.670080e+14	0.000000e+00	7.647058e-01	3.009720e+15	3.370518e+15	1.873377e+14	1.410303e+04	6.351232e+03	2.598958e+03	0	1.756882e-03
3.000000e+08	2.628998e+14	0.000000e+00	7.647058e-01	2.973406e+15	3.332705e+15	1.863585e+14	1.406274e+04	6.342803e+03	2.595509e+03	0	1.747825e-03
3.100000e+08	2.588736e+14	0.000000e+00	7.647058e-01	2.937797e+15	3.295410e+15	1.853864e+14	1.402292e+04	6.334394e+03	2.592068e+03	0	1.738856e-03
3.200000e+08	2.549272e+14	0.000000e+00	7.647058e-01	2.902877e+15	3.258653e+15	1.844213e+14	1.398359e+04	6.326014e+03	2.588639e+03	0	1.729975e-03
3.300000e+08	2.510585e+14	0.000000e+00	7.647058e-01	2.868626e+15	3.222445e+15	1.834633e+14	1.394472e+04	6.317672e+03	2.585225e+03	0	1.721179e-03
3.400000e+08	2.472654e+14	0.000000e+00	7.647058e-01	2.835029e+15	3.186796e+15	1.825122e+14	1.390630e+04	6.309373e+03	2.581829e+03	0	1.712467e-03
3.500000e+08	2.435461e+14	0.000000e+00	7.647058e-01	2.802067e+15	3.151708e+15	1.815681e+14	1.386833e+04	6.301122e+03	2.578453e+03	0	1.703837e-03
3.600000e+08	2.398987e+14	0.000000e+00	7.647058e-01	2.769726e+15	3.117182e+15	1.806308e+14	1.383081e+04	6.292924e+03	2.575098e+03	0	1.695289e-03
3.700000e+08	2.363212e+14	0.000000e+00	7.647058e-01	2.737989e+15	3.083218e+15	1.797002e+14	1.379371e+04	6.284782e+03	2.571766e+03	0	1.686820e-03
3.800000e+08	2.328119e+14	0.000000e+00	7.647058e-01	2.706841e+15	3.049812e+15	1.787764e+14	1.375704e+04	6.276698e+03	2.568458e+03	0	1.678428e-03
3.900000e+08	2.293691e+14	0.000000e+00	7.647058e-01	2.676268e+15	3.016959e+15	1.778593e+14	1.372079e+04	6.268675e+03	2.565175e+03	0	1.670114e-03
4.000000e+08	2.259911e+14	0.000000e+00	7.647058e-01	2.646254e+15	2.984653e+15	1.769488e+14	1.368494e+04	6.260713e+03	2.561917e+03	0	1.661874e-03
4.100000e+08	2.226763e+14	0.000000e+00	7.647058e-01	2.616786e+15	2.952887e+15	1.760449e+14	1.364949e+04	6.252815e+03	2.558685e+03	0	1.653709e-03
4.200000e+08	2.194231e+14	0.000000e+00	7.647058e-01	2.587851e+15	2.921652e+15	1.751475e+14	1.361444e+04	6.244980e+03	2.555479e+03	0	1.645616e-03
4.300000e+08	2.162299e+14	0.000000e+00	7.647058e-01	2.559435e+15	2.890941e+15	1.742565e+14	1.357977e+04	6.237210e+03	2.552299e+03	0	1.637594e-03
4.400000e+08	2.130953e+14	0.000000e+00	7.647058e-01	2.531526e+15	2.860744e+15	1.733720e+14	1.354548e+04	6.229504e+03	2.549146e+03	0	1.629643e-03
4.500000e+08	2.100179e+14	0.000000e+00	7.647058e-01	2.504112e+15	2.831052e+15	1.724938e+14	1.351156e+04	6.221863e+03	2.546019e+03	0	1.621760e-03
4.600000e+08	2.069962e+14	0.000000e+00	7.647058e-01	2.477180e+15	2.801856e+15	1.716219e+14	1.347802e+04	6.214286e+03	2.542919e+03	0	1.613944e-03
4.700000e+08	2.040289e+14	0.000000e+00	7.647058e-01	2.450719e+15	2.773147e+15	1.707563e+14	1.344483e+04	6.206774e+03	2.539845e+03	0	1.606195e-03
4.800000e+08	2.011147e+14	0.000000e+00	7.647058e-01	2.424718e+15	2.744915e+15	1.698969e+14	1.341199e+04	6.199325e+03	2.536797e+03	0	1.598511e-03
4.900000e+08	1.982523e+14	0.000000e+00	7.647058e-01	2.399166e+15	2.717150e+15	1.690436e+14	1.337950e+04	6.191940e+03	2.533775e+03	0	1.590891e-03
5.000000e+08	1.954405e+14	0.000000e+00	7.647058e-01	2.374052e+15	2.689842e+15	1.681965e+14	1.334735e+04	6.184618e+03	2.530779e+03	0	1.583334e-03
5.100000e+08	1.926781e+14	0.000000e+00	7.647058e-01	2.349366e+15	2.662984e+15	1.673554e+14	1.331554e+04	6.177359e+03	2.527808e+03	0	1.575839e-03
5.200000e+08	1.899639e+14	0.000000e+00	7.647058e-01	2.325099e+15	2.636564e+15	1.665202e+14	1.328405e+04	6.170162e+03	2.524863e+03	0	1.568404e-03
5.300000e+08	1.872967e+14	0.000000e+00	7.647058e-01	2.301240e+15	2.610574e+15	1.656911e+14	1.325290e+04	6.163026e+03	2.521943e+03	0	1.561030e-03
5.400000e+08	1.846756e+14	0.000000e+00	7.647058e-01	2.277780e+15	2.585005e+15	1.648678e+14	1.322205e+04	6.155951e+03	2.519048e+03	0	1.553713e-03
5.500000e+08	1.820994e+14	0.000000e+00	7.647058e-01	2.254710e+15	2.559849e+15	1.640504e+14	1.319153e+04	6.148935e+03	2.516177e+03	0	1.546455e-03
5.600000e+08	1.795671e+14	0.000000e+00	7.647058e-01	2.232021e+15	2.535095e+15	1.632389e+14	1.316131e+04	6.141979e+03	2.513331e+03	0	1.539253e-03
5.700000e+08	1.770777e+14	0.000000e+00	7.647058e-01	2.209704e+15	2.510737e+15	1.624330e+14	1.313139e+04	6.135082e+03	2.510508e+03	0	1.532107e-03
5.800000e+08	1.746302e+14	0.000000e+00	7.647058e-01	2.187752e+15	2.486764e+15	1.616329e+14	1.310178e+04	6.128242e+03	2.507709e+03	0	1.525015e-03
5.900000e+08	1.722237e+14	0.000000e+00	7.647058e-01	2.166156e+15	2.463170e+15	1.608385e+14	1.307245e+04	6.121460e+03	2.504934e+03	0	1.517978e-03
6.000000e+08	1.698572e+14	0.000000e+00	7.647058e-01	2.144908e+15	2.439947e+15	1.600497e+14	1.304342e+04	6.114734e+03	2.502182e+03	0	1.510993e-03
6.100000e+08	1.675299e+14	0.000000e+00	7.647058e-01	2.124000e+15	2.417085e+15	1.592665e+14	1.301466e+04	6.108063e+03	2.499452e+03	0	1.504060e-03
6.200000e+08	1.652409e+14	0.000000e+00	7.647058e-01	2.103425e+15	2.394579e+15	1.584888e+14	1.298619e+04	6.101448e+03	2.496745e+03	0	1.497178e-03
6.300000e+08	1.629893e+14	0.000000e+00	7.647058e-01	2.083176e+15	2.372420e+15	1.577166e+14	1.295799e+04	6.094887e+03	2.494060e+03	0	1.490347e-03
6.400000e+08	1.607743e+14	0.000000e+00	7.647058e-01	2.063246e+15	2.350600e+15	1.569498e+14	1.293007e+04	6.088380e+03	2.491397e+03	0	1.483565e-03
6.500000e+08	1.585951e+14	0.000000e+00	7.647058e-01	2.043627e+15	2.329114e+15	1.561885e+14	1.290241e+04	6.081925e+03	2.488756e+03	0	1.476832e-03
6.600000e+08	1.564510e+14	0.000000e+00	7.647058e-01	2.024314e+15	2.307954e+15	1.554325e+14	1.287501e+04	6.075522e+03	2.486136e+03	0	1.470146e-03
6.700000e+08	1.543412e+14	0.000000e+00	7.647058e-01	2.005299e+15	2.287113e+15	1.546818e+14	1.284787e+04	6.069171e+03	2.483537e+03	0	1.463508e-03
6.800000e+08	1.522649e+14	0.000000e+00	7.647058e-01	1.986577e+15	2.266584e+15	1.539364e+14	1.282098e+04	6.062871e+03	2.480959e+03	0	1.456915e-03
6.900000e+08	1.502214e+14	0.000000e+00	7.647058e-01	1.968140e+15	2.246362e+15	1.531962e+14	1.279435e+04	6.056621e+03	2.478401e+03	0	1.450368e-03
7.000000e+08	1.482101e+14	0.000000e+00	7.647058e-01	1.949984e+15	2.226440e+15	1.524612e+14	1.276796e+04	6.050420e+03	2.475864e+03	0	1.443866e-03
7.100000e+08	1.462302e+14	0.000000e+00	7.647058e-01	1.932103e+15	2.206812e+15	1.517313e+14	1.274181e+04	6.044268e+03	2.473347e+03	0	1.437408e-03
7.200000e+08	1.442811e+14	0.000000e+00	7.647058e-01	1.914489e+15	2.187471e+15	1.510066e+14	1.271590e+04	6.038164e+03	2.470849e+03	0	1.430993e-03
7.300000e+08	1.423622e+14	0.000000e+00	7.647058e-01	1.897139e+15	2.168413e+15	1.502869e+14	1.269023e+04	6.032107e+03	2.468371e+03	0	1.424621e-03
7.400000e+08	1.404728e+14	0.000000e+00	7.647058e-01	1.880047e+15	2.149631e+15	1.495723e+14	1.266479e+04	6.026098e+03	2.465911e+03	0	1.418290e-03
7.500000e+08	1.386123e+14	0.000000e+00	7.647058e-01	1.863207e+15	2.131120e+15	1.488626e+14	1.263958e+04	6.020135e+03	2.463471e+03	0	1.412001e-03
7.600000e+08	1.367801e+14	0.000000e+00	7.647058e-01	1.846614e+15	2.112874e+15	1.481579e+14	1.261459e+04	6.014217e+03	2.461050e+03	0	1.405752e-03
7.700000e+08	1.349756e+14	0.000000e+00	7.647058e-01	1.830264e+15	2.094889e+15	1.474580e+14	1.258983e+04	6.008344e+03	2.458647e+03	0	1.399543e-03
7.800000e+08	1.331984e+14	0.000000e+00	7.647058e-01	1.814151e+15	2.077159e+15	1.467631e+14	1.256528e+04	6.002516e+03	2.456262e+03	0	1.393373e-03
7.900000e+08	1.314477e+14	0.000000e+00	7.647058e-01	1.798272e+15	2.059678e+15	1.460729e+14	1.254095e+04	5.996732e+03	2.453895e+03	0	1.387242e-03
8.000000e+08	1.297232e+14	0.000000e+00	7.647058e-01	1.782620e+15	2.042443e+15	1.453876e+14	1.251684e+04	5.990991e+03	2.451545e+03	0	1.381148e-03
8.100000e+08	1.280242e+14	0.000000e+00	7.647058e-01	1.767192e+15	2.025449e+15	1.447070e+14	1.249293e+04	5.985293e+03	2.449214e+03	0	1.375092e-03
8.200000e+08	1.263503e+14	0.000000e+00	7.647058e-01	1.751983e+15	2.008690e+15	1.440311e+14	1.246922e+04	5.979637e+03	2.446899e+03	0	1.369073e-03
8.300000e+08	1.247009e+14	0.000000e+00	7.647058e-01	1.736989e+15	1.992163e+15	1.433599e+14	1.244573e+04	5.974022e+03	2.444602e+03	0	1.363089e-03
8.400000e+08	1.230756e+14	0.000000e+00	7.647058e-01	1.722206e+15	1.975863e+15	1.426933e+14	1.242243e+04	5.968449e+03	2.442321e+03	0	1.357141e-03
8.500000e+08	1.214739e+14	0.000000e+00	7.647058e-01	1.707630e+15	1.959785e+15	1.420313e+14	1.239933e+04	5.962917e+03	2.440057e+03	0	1.351228e-03
8.600000e+08	1.198954e+14	0.000000e+00	7.647058e-01	1.693256e+15	1.943925e+15	1.413739e+14	1.237642e+04	5.957424e+03	2.437810e+03	0	1.345350e-03
8.700000e+08	1.183395e+14	0.000000e+00	7.647058e-01	1.679082e+15	1.928280e+15	1.407210e+14	1.235371e+04	5.951971e+03	2.435578e+03	0	1.339505e-03
8.800000e+08	1.168059e+14	0.000000e+00	7.647058e-01	1.665102e+15	1.912845e+15	1.400726e+14	1.233118e+04	5.946558e+03	2.433363e+03	0	1.333694e-03
8.900000e+08	1.152942e+14	0.000000e+00	7.647058e-01	1.651314e+15	1.897616e+15	1.394287e+14	1.230885e+04	5.941182e+03	2.431163e+03	0	1.327915e-03
9.000000e+08	1.138038e+14	0.000000e+00	7.647058e-01	1.637714e+15	1.882590e+15	1.387891e+14	1.228670e+04	5.935845e+03	2.428980e+03	0	1.322168e-03
9.100000e+08	1.123345e+14	0.000000e+00	7.647058e-01	1.624298e+15	1.867763e+15	1.381540e+14	1.226473e+04	5.930546e+03	2.426811e+03	0	1.316453e-03
9.200000e+08	1.108857e+14	0.000000e+00	7.647058e-01	1.611063e+15	1.853131e+15	1.375232e+14	1.224293e+04	5.925284e+03	2.424658e+03	0	1.310769e-03
9.300000e+08	1.094572e+14	0.000000e+00	7.647058e-01	1.598005e+15	1.838690e+15	1.368967e+14	1.222132e+04	5.920059e+03	2.422520e+03	0	1.305116e-03
9.400000e+08	1.080485e+14	0.000000e+00	7.647058e-01	1.585122e+15	1.824437e+15	1.362745e+14	1.219988e+04	5.914870e+03	2.420396e+03	0	1.299493e-03
9.500000e+08	1.066593e+14	0.000000e+00	7.647058e-01	1.572410e+15	1.810369e+15	1.356566e+14	1.217862e+04	5.909716e+03	2.418287e+03	0	1.293900e-03
9.600000e+08	1.052892e+14	0.000000e+00	7.647058e-01	1.559865e+15	1.796482e+15	1.350428e+14	1.215752e+04	5.904599e+03	2.416193e+03	0	1.288336e-03
9.700000e+08	1.039379e+14	0.000000e+00	7.647058e-01	1.547486e+15	1.782774e+15	1.344333e+14	1.213659e+04	5.899516e+03	2.414113e+03	0	1.282800e-03
9.800000e+08	1.026049e+14	0.000000e+00	7.647058e-01	1.535269e+15	1.769240e+15	1.338279e+14	1.211583e+04	5.894468e+03	2.412048e+03	0	1.277293e-03
9.900000e+08	1.012901e+14	0.000000e+00	7.647058e-01	1.523210e+15	1.755878e+15	1.332266e+14	1.209523e+04	5.889454e+03	2.409996e+03	0	1.271813e-03
1.000000e+09	9.999293e+13	0.000000e+00	7.647058e-01	1.511308e+15	1.742685e+15	1.326294e+14	1.207479e+04	5.884474e+03	2.407958e+03	0	1.266361e-03
1.010000e+09	9.871323e+13	0.000000e+00	7.647058e-01	1.499558e+15	1.729658e+15	1.320362e+14	1.205451e+04	5.879527e+03	2.405934e+03	0	1.260935e-03
1.020000e+09	9.745064e+13	0.000000e+00	7.647058e-01	1.487960e+15	1.716794e+15	1.314471e+14	1.203439e+04	5.874614e+03	2.403923e+03	0	1.255536e-03
1.030000e+09	9.620484e+13	0.000000e+00	7.647058e-01	1.476510e+15	1.704090e+15	1.308619e+14	1.201442e+04	5.869732e+03	2.401926e+03	0	1.250163e-03
1.040000e+09	9.497555e+13	0.000000e+00	7.647058e-01	1.465204e+15	1.691543e+15	1.302807e+14	1.199461e+04	5.864884e+03	2.399942e+03	0	1.244816e-03
1.050000e+09	9.376247e+13	0.000000e+00	7.647058e-01	1.454042e+15	1.679151e+15	1.297034e+14	1.197495e+04	5.860067e+03	2.397970e+03	0	1.239493e-03
1.060000e+09	9.256530e+13	0.000000e+00	7.647058e-01	1.443020e+15	1.666911e+15	1.291301e+14	1.195544e+04	5.855281e+03	2.396012e+03	0	1.234195e-03
1.070000e+09	9.138377e+13	0.000000e+00	7.647058e-01	1.432136e+15	1.654820e+15	1.285605e+14	1.193607e+04	5.850527e+03	2.394067e+03	0	1.228921e-03
1.080000e+09	9.021761e+13	0.000000e+00	7.647058e-01	1.421388e+15	1.642876e+15	1.279948e+14	1.191685e+04	5.845803e+03	2.392134e+03	0	1.223672e-03
1.090000e+09	8.906655e+13	0.000000e+00	7.647058e-01	1.410772e+15	1.631077e+15	1.274330e+14	1.189778e+04	5.841110e+03	2.390213e+03	0	1.218445e-03
1.100000e+09	8.793032e+13	0.000000e+00	7.647058e-01	1.400288e+15	1.619419e+15	1.268748e+14	1.187885e+04	5.836447e+03	2.388305e+03	0	1.213242e-03
1.110000e+09	8.680867e+13	0.000000e+00	7.647058e-01	1.389933e+15	1.607901e+15	1.263205e+14	1.186005e+04	5.831814e+03	2.386409e+03	0	1.208061e-03
1.120000e+09	8.570134e+13	0.000000e+00	7.647058e-01	1.379704e+15	1.596521e+15	1.257698e+14	1.184140e+04	5.827210e+03	2.384525e+03	0	1.202902e-03
1.130000e+09	8.460810e+13	0.000000e+00	7.647058e-01	1.369599e+15	1.585275e+15	1.252228e+14	1.182288e+04	5.822635e+03	2.382653e+03	0	1.197765e-03
1.140000e+09	8.352870e+13	0.000000e+00	7.647058e-01	1.359617e+15	1.574162e+15	1.246795e+14	1.180450e+04	5.818089e+03	2.380793e+03	0	1.192650e-03
1.150000e+09	8.246290e+13	0.000000e+00	7.647058e-01	1.349754e+15	1.563180e+15	1.241398e+14	1.178625e+04	5.813572e+03	2.378945e+03	0	1.187556e-03
1.160000e+09	8.141048e+13	0.000000e+00	7.647058e-01	1.340011e+15	1.552326e+15	1.236038e+14	1.176814e+04	5.809083e+03	2.377108e+03	0	1.182482e-03
1.170000e+09	8.037121e+13	0.000000e+00	7.647058e-01	1.330383e+15	1.541598e+15	1.230712e+14	1.175015e+04	5.804621e+03	2.375282e+03	0	1.177429e-03
1.180000e+09	7.934486e+13	0.000000e+00	7.647058e-01	1.320870e+15	1.530995e+15	1.225423e+14	1.173229e+04	5.800187e+03	2.373468e+03	0	1.172395e-03
1.190000e+09	7.833124e+13	0.000000e+00	7.647058e-01	1.311470e+15	1.520514e+15	1.220168e+14	1.171456e+04	5.795781e+03	2.371664e+03	0	1.167381e-03
1.200000e+09	7.733011e+13	0.000000e+00	7.647058e-01	1.302180e+15	1.510153e+15	1.214948e+14	1.169696e+04	5.791401e+03	2.369872e+03	0	1.162387e-03
1.210000e+09	7.634128e+13	0.000000e+00	7.647058e-01	1.292999e+15	1.499911e+15	1.209763e+14	1.167948e+04	5.787048e+03	2.368091e+03	0	1.157411e-03
1.220000e+09	7.536454e+13	0.000000e+00	7.647058e-01	1.283925e+15	1.489785e+15	1.204613e+14	1.166213e+04	5.782721e+03	2.366320e+03	0	1.152454e-03
1.230000e+09	7.439970e+13	0.000000e+00	7.647058e-01	1.274957e+15	1.479775e+15	1.199496e+14	1.164489e+04	5.778421e+03	2.364561e+03	0	1.147514e-03
1.240000e+09	7.344656e+13	0.000000e+00	7.647058e-01	1.266092e+15	1.469876e+15	1.194413e+14	1.162778e+04	5.774146e+03	2.362811e+03	0	1.142593e-03
1.250000e+09	7.250492e+13	0.000000e+00	7.647058e-01	1.257330e+15	1.460090e+15	1.189364e+14	1.161078e+04	5.769897e+03	2.361073e+03	0	1.137689e-03
1.260000e+09	7.157461e+13	0.000000e+00	7.647058e-01	1.248668e+15	1.450412e+15	1.184348e+14	1.159390e+04	5.765673e+03	2.359344e+03	0	1.132802e-03
1.270000e+09	7.065544e+13	0.000000e+00	7.647058e-01	1.240105e+15	1.440842e+15	1.179365e+14	1.157714e+04	5.761474e+03	2.357626e+03	0	1.127932e-03
1.280000e+09	6.974723e+13	0.000000e+00	7.647058e-01	1.231639e+15	1.431378e+15	1.174415e+14	1.156049e+04	5.757300e+03	2.355918e+03	0	1.123078e-03
1.290000e+09	6.884981e+13	0.000000e+00	7.647058e-01	1.223268e+15	1.422019e+15	1.169497e+14	1.154396e+04	5.753151e+03	2.354220e+03	0	1.118241e-03
1.300000e+09	6.796301e+13	0.000000e+00	7.647058e-01	1.214993e+15	1.412762e+15	1.164612e+14	1.152754e+04	5.749026e+03	2.352532e+03	0	1.113419e-03
1.310000e+09	6.708664e+13	0.000000e+00	7.647058e-01	1.206810e+15	1.403607e+15	1.159759e+14	1.151123e+04	5.744924e+03	2.350854e+03	0	1.108612e-03
1.320000e+09	6.622056e+13	0.000000e+00	7.647058e-01	1.198718e+15	1.394551e+15	1.154937e+14	1.149502e+04	5.740847e+03	2.349185e+03	0	1.103821e-03
1.330000e+09	6.536460e+13	0.000000e+00	7.647058e-01	1.190716e+15	1.385593e+15	1.150147e+14	1.147893e+04	5.736793e+03	2.347526e+03	0	1.099045e-03
1.340000e+09	6.451860e+13	0.000000e+00	7.647058e-01	1.182803e+15	1.376732e+15	1.145388e+14	1.146295e+04	5.732762e+03	2.345877e+03	0	1.094282e-03
1.350000e+09	6.368241e+13	0.000000e+00	7.647058e-01	1.174977e+15	1.367966e+15	1.140661e+14	1.144707e+04	5.728755e+03	2.344237e+03	0	1.089534e-03
1.360000e+09	6.285587e+13	0.000000e+00	7.647058e-01	1.167237e+15	1.359294e+15	1.135964e+14	1.143129e+04	5.724770e+03	2.342606e+03	0	1.084800e-03
