#t		Qconv[W]	Ri[Rp]		R*[Rp]		Qc[W]		Qm[W]		Qr[W]		Tcmb[K]		Tl[K]		Tup[K]		RiFlag		Bs[T]
0.000000e+00	4.315107e+14	0.000000e+00	7.647061e-01	4.494692e+15	3.223181e+15	2.242592e+14	1.568393e+04	6.205065e+03	2.531051e+03	0	2.060448e-03
1.000000e+07	4.250244e+14	0.000000e+00	7.647061e-01	4.437825e+15	3.424398e+15	2.230166e+14	1.562620e+04	6.275988e+03	2.559981e+03	0	2.050072e-03
2.000000e+07	4.184154e+14	0.000000e+00	7.647061e-01	4.379992e+15	3.592947e+15	2.217833e+14	1.556920e+04	6.334448e+03	2.583827e+03	0	2.039390e-03
3.000000e+07	4.117533e+14	0.000000e+00	7.647061e-01	4.321766e+15	3.730521e+15	2.205593e+14	1.551293e+04	6.382037e+03	2.603238e+03	0	2.028508e-03
4.000000e+07	4.050904e+14	0.000000e+00	7.647061e-01	4.263577e+15	3.839727e+15	2.193444e+14	1.545741e+04	6.420261e+03	2.618830e+03	0	2.017507e-03
5.000000e+07	3.984648e+14	0.000000e+00	7.647061e-01	4.205741e+15	3.923641e+15	2.181385e+14	1.540264e+04	6.450502e+03	2.631165e+03	0	2.006447e-03
6.000000e+07	3.919041e+14	0.000000e+00	7.647061e-01	4.148484e+15	3.985477e+15	2.169417e+14	1.534861e+04	6.473995e+03	2.640748e+03	0	1.995374e-03
7.000000e+07	3.854278e+14	0.000000e+00	7.647061e-01	4.091965e+15	4.028369e+15	2.157537e+14	1.529531e+04	6.491823e+03	2.648020e+03	0	1.984322e-03
8.000000e+07	3.790491e+14	0.000000e+00	7.647061e-01	4.036293e+15	4.055227e+15	2.145746e+14	1.524273e+04	6.504920e+03	2.653363e+03	0	1.973314e-03
9.000000e+07	3.727769e+14	0.000000e+00	7.647061e-01	3.981541e+15	4.068673e+15	2.134043e+14	1.519086e+04	6.514085e+03	2.657101e+03	0	1.962369e-03
1.000000e+08	3.666167e+14	0.000000e+00	7.647061e-01	3.927754e+15	4.071010e+15	2.122426e+14	1.513970e+04	6.519995e+03	2.659511e+03	0	1.951500e-03
1.100000e+08	3.605720e+14	0.000000e+00	7.647061e-01	3.874957e+15	4.064227e+15	2.110896e+14	1.508922e+04	6.523215e+03	2.660825e+03	0	1.940715e-03
1.200000e+08	3.546441e+14	0.000000e+00	7.647061e-01	3.823164e+15	4.050018e+15	2.099451e+14	1.503942e+04	6.524221e+03	2.661235e+03	0	1.930021e-03
1.300000e+08	3.488334e+14	0.000000e+00	7.647061e-01	3.772375e+15	4.029812e+15	2.088091e+14	1.499028e+04	6.523408e+03	2.660904e+03	0	1.919422e-03
1.400000e+08	3.431394e+14	0.000000e+00	7.647061e-01	3.722586e+15	4.004805e+15	2.076814e+14	1.494180e+04	6.521105e+03	2.659964e+03	0	1.908921e-03
1.500000e+08	3.375609e+14	0.000000e+00	7.647061e-01	3.673786e+15	3.975988e+15	2.065622e+14	1.489395e+04	6.517582e+03	2.658527e+03	0	1.898520e-03
1.600000e+08	3.320962e+14	0.000000e+00	7.647061e-01	3.625961e+15	3.944182e+15	2.054512e+14	1.484672e+04	6.513064e+03	2.656685e+03	0	1.888219e-03
1.700000e+08	3.267435e+14	0.000000e+00	7.647061e-01	3.579094e+15	3.910065e+15	2.043484e+14	1.480011e+04	6.507738e+03	2.654512e+03	0	1.878019e-03
1.800000e+08	3.215005e+14	0.000000e+00	7.647061e-01	3.533167e+15	3.874191e+15	2.032537e+14	1.475409e+04	6.501756e+03	2.652072e+03	0	1.867920e-03
1.900000e+08	3.163651e+14	0.000000e+00	7.647061e-01	3.488160e+15	3.837015e+15	2.021671e+14	1.470867e+04	6.495245e+03	2.649416e+03	0	1.857921e-03
2.000000e+08	3.113348e+14	0.000000e+00	7.647061e-01	3.444053e+15	3.798906e+15	2.010884e+14	1.466382e+04	6.488309e+03	2.646587e+03	0	1.848021e-03
2.100000e+08	3.064073e+14	0.000000e+00	7.647061e-01	3.400827e+15	3.760167e+15	2.000178e+14	1.461954e+04	6.481036e+03	2.643620e+03	0	1.838220e-03
2.200000e+08	3.015800e+14	0.000000e+00	7.647061e-01	3.358459e+15	3.721043e+15	1.989549e+14	1.457581e+04	6.473495e+03	2.640544e+03	0	1.828515e-03
2.300000e+08	2.968506e+14	0.000000e+00	7.647061e-01	3.316930e+15	3.681732e+15	1.978999e+14	1.453262e+04	6.465745e+03	2.637383e+03	0	1.818907e-03
2.400000e+08	2.922167e+14	0.000000e+00	7.647061e-01	3.276218e+15	3.642395e+15	1.968526e+14	1.448996e+04	6.457836e+03	2.634157e+03	0	1.809393e-03
2.500000e+08	2.876759e+14	0.000000e+00	7.647061e-01	3.236304e+15	3.603161e+15	1.958130e+14	1.444783e+04	6.449808e+03	2.630882e+03	0	1.799971e-03
2.600000e+08	2.832259e+14	0.000000e+00	7.647061e-01	3.197169e+15	3.564134e+15	1.947810e+14	1.440621e+04	6.441692e+03	2.627572e+03	0	1.790642e-03
2.700000e+08	2.788643e+14	0.000000e+00	7.647061e-01	3.158791e+15	3.525395e+15	1.937565e+14	1.436508e+04	6.433518e+03	2.624238e+03	0	1.781403e-03
2.800000e+08	2.745890e+14	0.000000e+00	7.647061e-01	3.121153e+15	3.487011e+15	1.927395e+14	1.432445e+04	6.425307e+03	2.620888e+03	0	1.772252e-03
2.900000e+08	2.703977e+14	0.000000e+00	7.647061e-01	3.084236e+15	3.449031e+15	1.917300e+14	1.428431e+04	6.417077e+03	2.617531e+03	0	1.763189e-03
3.000000e+08	2.662883e+14	0.000000e+00	7.647061e-01	3.048022e+15	3.411495e+15	1.907278e+14	1.424463e+04	6.408846e+03	2.614174e+03	0	1.754211e-03
3.100000e+08	2.622587e+14	0.000000e+00	7.647061e-01	3.012493e+15	3.374435e+15	1.897329e+14	1.420542e+04	6.400624e+03	2.610820e+03	0	1.745317e-03
3.200000e+08	2.583069e+14	0.000000e+00	7.647061e-01	2.977632e+15	3.337872e+15	1.887452e+14	1.416667e+04	6.392423e+03	2.607475e+03	0	1.736507e-03
3.300000e+08	2.544310e+14	0.000000e+00	7.647061e-01	2.943421e+15	3.301822e+15	1.877647e+14	1.412836e+04	6.384251e+03	2.604141e+03	0	1.727777e-03
3.400000e+08	2.506290e+14	0.000000e+00	7.647061e-01	2.909846e+15	3.266297e+15	1.867914e+14	1.409049e+04	6.376114e+03	2.600823e+03	0	1.719128e-03
3.500000e+08	2.468991e+14	0.000000e+00	7.647061e-01	2.876890e+15	3.231304e+15	1.858251e+14	1.405305e+04	6.368020e+03	2.597521e+03	0	1.710557e-03
3.600000e+08	2.432394e+14	0.000000e+00	7.647061e-01	2.844538e+15	3.196846e+15	1.848658e+14	1.401604e+04	6.359972e+03	2.594238e+03	0	1.702063e-03
3.700000e+08	2.396482e+14	0.000000e+00	7.647061e-01	2.812774e+15	3.162925e+15	1.839135e+14	1.397944e+04	6.351973e+03	2.590975e+03	0	1.693646e-03
3.800000e+08	2.361239e+14	0.000000e+00	7.647061e-01	2.781586e+15	3.129538e+15	1.829680e+14	1.394324e+04	6.344028e+03	2.587735e+03	0	1.685302e-03
3.900000e+08	2.326647e+14	0.000000e+00	7.647061e-01	2.750957e+15	3.096682e+15	1.820294e+14	1.390745e+04	6.336138e+03	2.584516e+03	0	1.677032e-03
4.000000e+08	2.292691e+14	0.000000e+00	7.647061e-01	2.720876e+15	3.064354e+15	1.810975e+14	1.387205e+04	6.328306e+03	2.581321e+03	0	1.668833e-03
4.100000e+08	2.259354e+14	0.000000e+00	7.647061e-01	2.691328e+15	3.032548e+15	1.801724e+14	1.383703e+04	6.320532e+03	2.578150e+03	0	1.660705e-03
4.200000e+08	2.226623e+14	0.000000e+00	7.647061e-01	2.662301e+15	3.001256e+15	1.792540e+14	1.380239e+04	6.312817e+03	2.575004e+03	0	1.652647e-03
4.300000e+08	2.194482e+14	0.000000e+00	7.647061e-01	2.633782e+15	2.970472e+15	1.783421e+14	1.376813e+04	6.305163e+03	2.571881e+03	0	1.644656e-03
4.400000e+08	2.162917e+14	0.000000e+00	7.647061e-01	2.605760e+15	2.940188e+15	1.774369e+14	1.373423e+04	6.297569e+03	2.568784e+03	0	1.636733e-03
4.500000e+08	2.131915e+14	0.000000e+00	7.647061e-01	2.578222e+15	2.910396e+15	1.765381e+14	1.370069e+04	6.290037e+03	2.565712e+03	0	1.628875e-03
4.600000e+08	2.101461e+14	0.000000e+00	7.647061e-01	2.551157e+15	2.881087e+15	1.756458e+14	1.366750e+04	6.282566e+03	2.562664e+03	0	1.621082e-03
4.700000e+08	2.071544e+14	0.000000e+00	7.647061e-01	2.524554e+15	2.852253e+15	1.747598e+14	1.363467e+04	6.275156e+03	2.559642e+03	0	1.613352e-03
4.800000e+08	2.042150e+14	0.000000e+00	7.647061e-01	2.498403e+15	2.823884e+15	1.738803e+14	1.360217e+04	6.267807e+03	2.556644e+03	0	1.605685e-03
4.900000e+08	2.013266e+14	0.000000e+00	7.647061e-01	2.472693e+15	2.795973e+15	1.730070e+14	1.357001e+04	6.260518e+03	2.553671e+03	0	1.598079e-03
5.000000e+08	1.984882e+14	0.000000e+00	7.647061e-01	2.447413e+15	2.768510e+15	1.721400e+14	1.353817e+04	6.253290e+03	2.550722e+03	0	1.590533e-03
5.100000e+08	1.956986e+14	0.000000e+00	7.647061e-01	2.422554e+15	2.741486e+15	1.712791e+14	1.350667e+04	6.246121e+03	2.547798e+03	0	1.583046e-03
5.200000e+08	1.929566e+14	0.000000e+00	7.647061e-01	2.398107e+15	2.714893e+15	1.704244e+14	1.347548e+04	6.239012e+03	2.544898e+03	0	1.575618e-03
5.300000e+08	1.902612e+14	0.000000e+00	7.647061e-01	2.374062e+15	2.688722e+15	1.695758e+14	1.344460e+04	6.231961e+03	2.542022e+03	0	1.568247e-03
5.400000e+08	1.876112e+14	0.000000e+00	7.647061e-01	2.350409e+15	2.662965e+15	1.687333e+14	1.341404e+04	6.224969e+03	2.539170e+03	0	1.560932e-03
5.500000e+08	1.850057e+14	0.000000e+00	7.647061e-01	2.327141e+15	2.637613e+15	1.678967e+14	1.338377e+04	6.218035e+03	2.536342e+03	0	1.553672e-03
5.600000e+08	1.824437e+14	0.000000e+00	7.647061e-01	2.304249e+15	2.612657e+15	1.670661e+14	1.335381e+04	6.211157e+03	2.533536e+03	0	1.546467e-03
5.700000e+08	1.799241e+14	0.000000e+00	7.647061e-01	2.281724e+15	2.588091e+15	1.662414e+14	1.332414e+04	6.204336e+03	2.530754e+03	0	1.539315e-03
5.800000e+08	1.774461e+14	0.000000e+00	7.647061e-01	2.259559e+15	2.563904e+15	1.654225e+14	1.329476e+04	6.197571e+03	2.527994e+03	0	1.532216e-03
5.900000e+08	1.750088e+14	0.000000e+00	7.647061e-01	2.237745e+15	2.540091e+15	1.646095e+14	1.326566e+04	6.190860e+03	2.525257e+03	0	1.525168e-03
6.000000e+08	1.726112e+14	0.000000e+00	7.647061e-01	2.216275e+15	2.516643e+15	1.638022e+14	1.323684e+04	6.184204e+03	2.522542e+03	0	1.518171e-03
6.100000e+08	1.702524e+14	0.000000e+00	7.647061e-01	2.195142e+15	2.493553e+15	1.630006e+14	1.320830e+04	6.177602e+03	2.519849e+03	0	1.511224e-03
6.200000e+08	1.679316e+14	0.000000e+00	7.647061e-01	2.174338e+15	2.470813e+15	1.622047e+14	1.318003e+04	6.171053e+03	2.517178e+03	0	1.504326e-03
6.300000e+08	1.656481e+14	0.000000e+00	7.647061e-01	2.153856e+15	2.448417e+15	1.614144e+14	1.315203e+04	6.164557e+03	2.514528e+03	0	1.497476e-03
6.400000e+08	1.634009e+14	0.000000e+00	7.647061e-01	2.133690e+15	2.426356e+15	1.606296e+14	1.312429e+04	6.158112e+03	2.511899e+03	0	1.490674e-03
6.500000e+08	1.611894e+14	0.000000e+00	7.647061e-01	2.113833e+15	2.404625e+15	1.598504e+14	1.309681e+04	6.151718e+03	2.509291e+03	0	1.483918e-03
6.600000e+08	1.590127e+14	0.000000e+00	7.647061e-01	2.094277e+15	2.383217e+15	1.590767e+14	1.306959e+04	6.145375e+03	2.506704e+03	0	1.477208e-03
6.700000e+08	1.568702e+14	0.000000e+00	7.647061e-01	2.075018e+15	2.362124e+15	1.583084e+14	1.304261e+04	6.139081e+03	2.504137e+03	0	1.470544e-03
6.800000e+08	1.547610e+14	0.000000e+00	7.647061e-01	2.056049e+15	2.341342e+15	1.575455e+14	1.301588e+04	6.132837e+03	2.501589e+03	0	1.463923e-03
6.900000e+08	1.526846e+14	0.000000e+00	7.647061e-01	2.037363e+15	2.320863e+15	1.567880e+14	1.298940e+04	6.126641e+03	2.499062e+03	0	1.457347e-03
7.000000e+08	1.506402e+14	0.000000e+00	7.647061e-01	2.018956e+15	2.300681e+15	1.560358e+14	1.296316e+04	6.120493e+03	2.496554e+03	0	1.450813e-03
7.100000e+08	1.486271e+14	0.000000e+00	7.647061e-01	2.000821e+15	2.280791e+15	1.552888e+14	1.293715e+04	6.114393e+03	2.494066e+03	0	1.444321e-03
7.200000e+08	1.466448e+14	0.000000e+00	7.647061e-01	1.982953e+15	2.261187e+15	1.545471e+14	1.291137e+04	6.108339e+03	2.491597e+03	0	1.437871e-03
7.300000e+08	1.446926e+14	0.000000e+00	7.647061e-01	1.965346e+15	2.241863e+15	1.538105e+14	1.288583e+04	6.102331e+03	2.489146e+03	0	1.431462e-03
7.400000e+08	1.427698e+14	0.000000e+00	7.647061e-01	1.947996e+15	2.222813e+15	1.530791e+14	1.286051e+04	6.096368e+03	2.486714e+03	0	1.425093e-03
7.500000e+08	1.408759e+14	0.000000e+00	7.647061e-01	1.930897e+15	2.204033e+15	1.523528e+14	1.283542e+04	6.090451e+03	2.484300e+03	0	1.418764e-03
7.600000e+08	1.390103e+14	0.000000e+00	7.647061e-01	1.914044e+15	2.185517e+15	1.516316e+14	1.281054e+04	6.084578e+03	2.481905e+03	0	1.412473e-03
7.700000e+08	1.371725e+14	0.000000e+00	7.647061e-01	1.897432e+15	2.167259e+15	1.509153e+14	1.278588e+04	6.078748e+03	2.479527e+03	0	1.406220e-03
7.800000e+08	1.353618e+14	0.000000e+00	7.647061e-01	1.881057e+15	2.149256e+15	1.502041e+14	1.276143e+04	6.072962e+03	2.477167e+03	0	1.400006e-03
7.900000e+08	1.335777e+14	0.000000e+00	7.647061e-01	1.864913e+15	2.131501e+15	1.494977e+14	1.273720e+04	6.067219e+03	2.474824e+03	0	1.393828e-03
8.000000e+08	1.318198e+14	0.000000e+00	7.647061e-01	1.848998e+15	2.113991e+15	1.487963e+14	1.271317e+04	6.061517e+03	2.472498e+03	0	1.387686e-03
8.100000e+08	1.300874e+14	0.000000e+00	7.647061e-01	1.833305e+15	2.096720e+15	1.480998e+14	1.268935e+04	6.055858e+03	2.470190e+03	0	1.381581e-03
8.200000e+08	1.283802e+14	0.000000e+00	7.647061e-01	1.817830e+15	2.079685e+15	1.474080e+14	1.266572e+04	6.050239e+03	2.467898e+03	0	1.375510e-03
8.300000e+08	1.266976e+14	0.000000e+00	7.647061e-01	1.802571e+15	2.062880e+15	1.467211e+14	1.264230e+04	6.044661e+03	2.465622e+03	0	1.369474e-03
8.400000e+08	1.250390e+14	0.000000e+00	7.647061e-01	1.787522e+15	2.046301e+15	1.460389e+14	1.261907e+04	6.039123e+03	2.463363e+03	0	1.363472e-03
8.500000e+08	1.234042e+14	0.000000e+00	7.647061e-01	1.772679e+15	2.029945e+15	1.453614e+14	1.259604e+04	6.033624e+03	2.461121e+03	0	1.357504e-03
8.600000e+08	1.217926e+14	0.000000e+00	7.647061e-01	1.758039e+15	2.013806e+15	1.446885e+14	1.257320e+04	6.028165e+03	2.458894e+03	0	1.351568e-03
8.700000e+08	1.202037e+14	0.000000e+00	7.647061e-01	1.743597e+15	1.997882e+15	1.440203e+14	1.255054e+04	6.022744e+03	2.456683e+03	0	1.345665e-03
8.800000e+08	1.186372e+14	0.000000e+00	7.647061e-01	1.729351e+15	1.982167e+15	1.433567e+14	1.252807e+04	6.017361e+03	2.454487e+03	0	1.339794e-03
8.900000e+08	1.170926e+14	0.000000e+00	7.647061e-01	1.715296e+15	1.966659e+15	1.426977e+14	1.250579e+04	6.012016e+03	2.452307e+03	0	1.333954e-03
9.000000e+08	1.155695e+14	0.000000e+00	7.647061e-01	1.701429e+15	1.951353e+15	1.420432e+14	1.248368e+04	6.006708e+03	2.450142e+03	0	1.328145e-03
9.100000e+08	1.140675e+14	0.000000e+00	7.647061e-01	1.687747e+15	1.936246e+15	1.413931e+14	1.246175e+04	6.001437e+03	2.447991e+03	0	1.322366e-03
9.200000e+08	1.125863e+14	0.000000e+00	7.647061e-01	1.674245e+15	1.921335e+15	1.407476e+14	1.244000e+04	5.996202e+03	2.445856e+03	0	1.316617e-03
9.300000e+08	1.111253e+14	0.000000e+00	7.647061e-01	1.660922e+15	1.906614e+15	1.401064e+14	1.241842e+04	5.991003e+03	2.443735e+03	0	1.310898e-03
9.400000e+08	1.096844e+14	0.000000e+00	7.647061e-01	1.647773e+15	1.892083e+15	1.394696e+14	1.239702e+04	5.985840e+03	2.441629e+03	0	1.305207e-03
9.500000e+08	1.082630e+14	0.000000e+00	7.647061e-01	1.634795e+15	1.877736e+15	1.388372e+14	1.237578e+04	5.980711e+03	2.439537e+03	0	1.299544e-03
9.600000e+08	1.068608e+14	0.000000e+00	7.647061e-01	1.621986e+15	1.863571e+15	1.382090e+14	1.235471e+04	5.975617e+03	2.437460e+03	0	1.293909e-03
9.700000e+08	1.054775e+14	0.000000e+00	7.647061e-01	1.609342e+15	1.849584e+15	1.375852e+14	1.233380e+04	5.970558e+03	2.435396e+03	0	1.288302e-03
9.800000e+08	1.041128e+14	0.000000e+00	7.647061e-01	1.596861e+15	1.835773e+15	1.369656e+14	1.231306e+04	5.965532e+03	2.433346e+03	0	1.282722e-03
9.900000e+08	1.027662e+14	0.000000e+00	7.647061e-01	1.584539e+15	1.822134e+15	1.363502e+14	1.229248e+04	5.960539e+03	2.431309e+03	0	1.277168e-03
1.000000e+09	1.014376e+14	0.000000e+00	7.647061e-01	1.572373e+15	1.808664e+15	1.357390e+14	1.227205e+04	5.955580e+03	2.429286e+03	0	1.271640e-03
1.010000e+09	1.001265e+14	0.000000e+00	7.647061e-01	1.560362e+15	1.795361e+15	1.351319e+14	1.225178e+04	5.950653e+03	2.427277e+03	0	1.266137e-03
1.020000e+09	9.883267e+13	0.000000e+00	7.647061e-01	1.548502e+15	1.782221e+15	1.345290e+14	1.223167e+04	5.945759e+03	2.425280e+03	0	1.260660e-03
1.030000e+09	9.755578e+13	0.000000e+00	7.647061e-01	1.536791e+15	1.769242e+15	1.339301e+14	1.221171e+04	5.940896e+03	2.423297e+03	0	1.255207e-03
1.040000e+09	9.629554e+13	0.000000e+00	7.647061e-01	1.525226e+15	1.756421e+15	1.333353e+14	1.219190e+04	5.936065e+03	2.421326e+03	0	1.249779e-03
1.050000e+09	9.505167e+13	0.000000e+00	7.647061e-01	1.513804e+15	1.743756e+15	1.327444e+14	1.217224e+04	5.931265e+03	2.419368e+03	0	1.244374e-03
1.060000e+09	9.382386e+13	0.000000e+00	7.647061e-01	1.502524e+15	1.731243e+15	1.321576e+14	1.215272e+04	5.926496e+03	2.417423e+03	0	1.238993e-03
1.070000e+09	9.261185e+13	0.000000e+00	7.647061e-01	1.491382e+15	1.718880e+15	1.315747e+14	1.213335e+04	5.921758e+03	2.415490e+03	0	1.233635e-03
1.080000e+09	9.141536e+13	0.000000e+00	7.647061e-01	1.480377e+15	1.706666e+15	1.309958e+14	1.211412e+04	5.917049e+03	2.413570e+03	0	1.228299e-03
1.090000e+09	9.023413e+13	0.000000e+00	7.647061e-01	1.469506e+15	1.694596e+15	1.304207e+14	1.209504e+04	5.912371e+03	2.411661e+03	0	1.222986e-03
1.100000e+09	8.906790e+13	0.000000e+00	7.647061e-01	1.458767e+15	1.682669e+15	1.298495e+14	1.207609e+04	5.907722e+03	2.409765e+03	0	1.217694e-03
1.110000e+09	8.791640e+13	0.000000e+00	7.647061e-01	1.448157e+15	1.670883e+15	1.292822e+14	1.205729e+04	5.903102e+03	2.407880e+03	0	1.212424e-03
1.120000e+09	8.677939e+13	0.000000e+00	7.647061e-01	1.437675e+15	1.659235e+15	1.287186e+14	1.203861e+04	5.898511e+03	2.406008e+03	0	1.207174e-03
1.130000e+09	8.565663e+13	0.000000e+00	7.647061e-01	1.427318e+15	1.647723e+15	1.281588e+14	1.202008e+04	5.893948e+03	2.404147e+03	0	1.201945e-03
1.140000e+09	8.454787e+13	0.000000e+00	7.647061e-01	1.417084e+15	1.636344e+15	1.276027e+14	1.200168e+04	5.889414e+03	2.402297e+03	0	1.196737e-03
1.150000e+09	8.345289e+13	0.000000e+00	7.647061e-01	1.406972e+15	1.625097e+15	1.270504e+14	1.198340e+04	5.884907e+03	2.400459e+03	0	1.191548e-03
1.160000e+09	8.237145e+13	0.000000e+00	7.647061e-01	1.396979e+15	1.613980e+15	1.265018e+14	1.196526e+04	5.880429e+03	2.398632e+03	0	1.186379e-03
1.170000e+09	8.130333e+13	0.000000e+00	7.647061e-01	1.387104e+15	1.602990e+15	1.259568e+14	1.194725e+04	5.875977e+03	2.396816e+03	0	1.181228e-03
1.180000e+09	8.024830e+13	0.000000e+00	7.647061e-01	1.377344e+15	1.592125e+15	1.254154e+14	1.192937e+04	5.871553e+03	2.395011e+03	0	1.176097e-03
1.190000e+09	7.920616e+13	0.000000e+00	7.647061e-01	1.367697e+15	1.581384e+15	1.248776e+14	1.191161e+04	5.867155e+03	2.393218e+03	0	1.170983e-03
1.200000e+09	7.817669e+13	0.000000e+00	7.647061e-01	1.358163e+15	1.570764e+15	1.243434e+14	1.189397e+04	5.862784e+03	2.391435e+03	0	1.165888e-03
1.210000e+09	7.715968e+13	0.000000e+00	7.647061e-01	1.348738e+15	1.560264e+15	1.238127e+14	1.187646e+04	5.858439e+03	2.389662e+03	0	1.160810e-03
1.220000e+09	7.615494e+13	0.000000e+00	7.647061e-01	1.339421e+15	1.549881e+15	1.232856e+14	1.185907e+04	5.854120e+03	2.387900e+03	0	1.155750e-03
1.230000e+09	7.516226e+13	0.000000e+00	7.647061e-01	1.330212e+15	1.539614e+15	1.227619e+14	1.184179e+04	5.849826e+03	2.386149e+03	0	1.150706e-03
1.240000e+09	7.418146e+13	0.000000e+00	7.647061e-01	1.321106e+15	1.529461e+15	1.222417e+14	1.182464e+04	5.845558e+03	2.384408e+03	0	1.145679e-03
1.250000e+09	7.321233e+13	0.000000e+00	7.647061e-01	1.312105e+15	1.519420e+15	1.217250e+14	1.180760e+04	5.841315e+03	2.382677e+03	0	1.140668e-03
1.260000e+09	7.225470e+13	0.000000e+00	7.647061e-01	1.303204e+15	1.509490e+15	1.212116e+14	1.179068e+04	5.837097e+03	2.380957e+03	0	1.135673e-03
1.270000e+09	7.130838e+13	0.000000e+00	7.647061e-01	1.294404e+15	1.499669e+15	1.207016e+14	1.177388e+04	5.832903e+03	2.379246e+03	0	1.130693e-03
1.280000e+09	7.037319e+13	0.000000e+00	7.647061e-01	1.285702e+15	1.489955e+15	1.201950e+14	1.175718e+04	5.828734e+03	2.377546e+03	0	1.125728e-03
1.290000e+09	6.944896e+13	0.000000e+00	7.647061e-01	1.277097e+15	1.480346e+15	1.196917e+14	1.174060e+04	5.824589e+03	2.375855e+03	0	1.120778e-03
1.300000e+09	6.853551e+13	0.000000e+00	7.647061e-01	1.268588e+15	1.470842e+15	1.191917e+14	1.172413e+04	5.820468e+03	2.374174e+03	0	1.115843e-03
1.310000e+09	6.763269e+13	0.000000e+00	7.647061e-01	1.260172e+15	1.461440e+15	1.186950e+14	1.170777e+04	5.816370e+03	2.372502e+03	0	1.110921e-03
1.320000e+09	6.674031e+13	0.000000e+00	7.647061e-01	1.251849e+15	1.452138e+15	1.182016e+14	1.169152e+04	5.812296e+03	2.370840e+03	0	1.106014e-03
1.330000e+09	6.585822e+13	0.000000e+00	7.647061e-01	1.243618e+15	1.442936e+15	1.177113e+14	1.167537e+04	5.808245e+03	2.369188e+03	0	1.101119e-03
1.340000e+09	6.498626e+13	0.000000e+00	7.647061e-01	1.235476e+15	1.433832e+15	1.172243e+14	1.165934e+04	5.804216e+03	2.367545e+03	0	1.096238e-03
1.350000e+09	6.412428e+13	0.000000e+00	7.647061e-01	1.227422e+15	1.424824e+15	1.167405e+14	1.164340e+04	5.800211e+03	2.365911e+03	0	1.091370e-03
1.360000e+09	6.327212e+13	0.000000e+00	7.647061e-01	1.219455e+15	1.415912e+15	1.162598e+14	1.162757e+04	5.796228e+03	2.364286e+03	0	1.086514e-03
