#t		Qconv[W]	Ri[Rp]		R*[Rp]		Qc[W]		Qm[W]		Qr[W]		Tcmb[K]		Tl[K]		Tup[K]		RiFlag		Bs[T]
0.000000e+00	4.277232e+14	0.000000e+00	7.647063e-01	4.678975e+15	3.246936e+15	2.447409e+14	1.626731e+04	6.387760e+03	2.574339e+03	0	2.049897e-03
1.000000e+07	4.221889e+14	0.000000e+00	7.647063e-01	4.630467e+15	3.457395e+15	2.433849e+14	1.621579e+04	6.461404e+03	2.604018e+03	0	2.041017e-03
2.000000e+07	4.164607e+14	0.000000e+00	7.647063e-01	4.580435e+15	3.638815e+15	2.420390e+14	1.616481e+04	6.523444e+03	2.629021e+03	0	2.031744e-03
3.000000e+07	4.106085e+14	0.000000e+00	7.647063e-01	4.529446e+15	3.791893e+15	2.407031e+14	1.611438e+04	6.575168e+03	2.649866e+03	0	2.022182e-03
4.000000e+07	4.046875e+14	0.000000e+00	7.647063e-01	4.477945e+15	3.918270e+15	2.393773e+14	1.606450e+04	6.617835e+03	2.667061e+03	0	2.012415e-03
5.000000e+07	3.987407e+14	0.000000e+00	7.647063e-01	4.426278e+15	4.020176e+15	2.380613e+14	1.601519e+04	6.652632e+03	2.681085e+03	0	2.002509e-03
6.000000e+07	3.928006e+14	0.000000e+00	7.647063e-01	4.374709e+15	4.100139e+15	2.367551e+14	1.596645e+04	6.680648e+03	2.692376e+03	0	1.992516e-03
7.000000e+07	3.868919e+14	0.000000e+00	7.647063e-01	4.323436e+15	4.160768e+15	2.354587e+14	1.591827e+04	6.702865e+03	2.701329e+03	0	1.982474e-03
8.000000e+07	3.810330e+14	0.000000e+00	7.647063e-01	4.272605e+15	4.204608e+15	2.341719e+14	1.587066e+04	6.720149e+03	2.708295e+03	0	1.972416e-03
9.000000e+07	3.752371e+14	0.000000e+00	7.647063e-01	4.222326e+15	4.234038e+15	2.328946e+14	1.582360e+04	6.733257e+03	2.713578e+03	0	1.962364e-03
1.000000e+08	3.695141e+14	0.000000e+00	7.647063e-01	4.172676e+15	4.251224e+15	2.316269e+14	1.577710e+04	6.742845e+03	2.717442e+03	0	1.952337e-03
1.100000e+08	3.638709e+14	0.000000e+00	7.647063e-01	4.123710e+15	4.258095e+15	2.303685e+14	1.573114e+04	6.749475e+03	2.720114e+03	0	1.942347e-03
1.200000e+08	3.583120e+14	0.000000e+00	7.647063e-01	4.075465e+15	4.256343e+15	2.291195e+14	1.568572e+04	6.753626e+03	2.721786e+03	0	1.932405e-03
1.300000e+08	3.528408e+14	0.000000e+00	7.647063e-01	4.027966e+15	4.247431e+15	2.278797e+14	1.564082e+04	6.755703e+03	2.722624e+03	0	1.922519e-03
1.400000e+08	3.474591e+14	0.000000e+00	7.647063e-01	3.981228e+15	4.232615e+15	2.266492e+14	1.559645e+04	6.756050e+03	2.722764e+03	0	1.912694e-03
1.500000e+08	3.421678e+14	0.000000e+00	7.647063e-01	3.935258e+15	4.212962e+15	2.254277e+14	1.555260e+04	6.754957e+03	2.722323e+03	0	1.902936e-03
1.600000e+08	3.369673e+14	0.000000e+00	7.647063e-01	3.890057e+15	4.189375e+15	2.242152e+14	1.550924e+04	6.752666e+03	2.721400e+03	0	1.893246e-03
1.700000e+08	3.318572e+14	0.000000e+00	7.647063e-01	3.845624e+15	4.162612e+15	2.230116e+14	1.546638e+04	6.749381e+03	2.720076e+03	0	1.883627e-03
1.800000e+08	3.268370e+14	0.000000e+00	7.647063e-01	3.801952e+15	4.133310e+15	2.218170e+14	1.542401e+04	6.745273e+03	2.718420e+03	0	1.874080e-03
1.900000e+08	3.219058e+14	0.000000e+00	7.647063e-01	3.759032e+15	4.102000e+15	2.206311e+14	1.538212e+04	6.740486e+03	2.716491e+03	0	1.864607e-03
2.000000e+08	3.170622e+14	0.000000e+00	7.647063e-01	3.716856e+15	4.069125e+15	2.194540e+14	1.534071e+04	6.735140e+03	2.714337e+03	0	1.855208e-03
2.100000e+08	3.123052e+14	0.000000e+00	7.647063e-01	3.675412e+15	4.035052e+15	2.182855e+14	1.529975e+04	6.729334e+03	2.711997e+03	0	1.845883e-03
2.200000e+08	3.076331e+14	0.000000e+00	7.647063e-01	3.634687e+15	4.000087e+15	2.171256e+14	1.525925e+04	6.723153e+03	2.709506e+03	0	1.836632e-03
2.300000e+08	3.030446e+14	0.000000e+00	7.647063e-01	3.594669e+15	3.964482e+15	2.159743e+14	1.521919e+04	6.716667e+03	2.706892e+03	0	1.827454e-03
2.400000e+08	2.985379e+14	0.000000e+00	7.647063e-01	3.555345e+15	3.928445e+15	2.148313e+14	1.517958e+04	6.709935e+03	2.704179e+03	0	1.818350e-03
2.500000e+08	2.941116e+14	0.000000e+00	7.647063e-01	3.516701e+15	3.892148e+15	2.136968e+14	1.514040e+04	6.703005e+03	2.701386e+03	0	1.809319e-03
2.600000e+08	2.897640e+14	0.000000e+00	7.647063e-01	3.478724e+15	3.855733e+15	2.125705e+14	1.510164e+04	6.695920e+03	2.698530e+03	0	1.800359e-03
2.700000e+08	2.854935e+14	0.000000e+00	7.647063e-01	3.441399e+15	3.819315e+15	2.114525e+14	1.506330e+04	6.688713e+03	2.695626e+03	0	1.791471e-03
2.800000e+08	2.812984e+14	0.000000e+00	7.647063e-01	3.404713e+15	3.782990e+15	2.103426e+14	1.502537e+04	6.681414e+03	2.692685e+03	0	1.782653e-03
2.900000e+08	2.771771e+14	0.000000e+00	7.647063e-01	3.368653e+15	3.746834e+15	2.092408e+14	1.498784e+04	6.674047e+03	2.689715e+03	0	1.773904e-03
3.000000e+08	2.731281e+14	0.000000e+00	7.647063e-01	3.333206e+15	3.710910e+15	2.081471e+14	1.495071e+04	6.666632e+03	2.686727e+03	0	1.765224e-03
3.100000e+08	2.691497e+14	0.000000e+00	7.647063e-01	3.298357e+15	3.675270e+15	2.070613e+14	1.491397e+04	6.659186e+03	2.683726e+03	0	1.756611e-03
3.200000e+08	2.652404e+14	0.000000e+00	7.647063e-01	3.264094e+15	3.639953e+15	2.059835e+14	1.487761e+04	6.651723e+03	2.680719e+03	0	1.748065e-03
3.300000e+08	2.613987e+14	0.000000e+00	7.647063e-01	3.230404e+15	3.604991e+15	2.049134e+14	1.484163e+04	6.644255e+03	2.677709e+03	0	1.739585e-03
3.400000e+08	2.576231e+14	0.000000e+00	7.647063e-01	3.197275e+15	3.570410e+15	2.038512e+14	1.480601e+04	6.636792e+03	2.674701e+03	0	1.731168e-03
3.500000e+08	2.539122e+14	0.000000e+00	7.647063e-01	3.164695e+15	3.536230e+15	2.027966e+14	1.477077e+04	6.629343e+03	2.671699e+03	0	1.722816e-03
3.600000e+08	2.502644e+14	0.000000e+00	7.647063e-01	3.132651e+15	3.502464e+15	2.017497e+14	1.473587e+04	6.621914e+03	2.668705e+03	0	1.714526e-03
3.700000e+08	2.466784e+14	0.000000e+00	7.647063e-01	3.101132e+15	3.469124e+15	2.007104e+14	1.470134e+04	6.614510e+03	2.665721e+03	0	1.706297e-03
3.800000e+08	2.431529e+14	0.000000e+00	7.647063e-01	3.070127e+15	3.436217e+15	1.996786e+14	1.466714e+04	6.607138e+03	2.662750e+03	0	1.698130e-03
3.900000e+08	2.396864e+14	0.000000e+00	7.647063e-01	3.039623e+15	3.403748e+15	1.986543e+14	1.463329e+04	6.599800e+03	2.659793e+03	0	1.690021e-03
4.000000e+08	2.362778e+14	0.000000e+00	7.647063e-01	3.009611e+15	3.371720e+15	1.976373e+14	1.459978e+04	6.592500e+03	2.656851e+03	0	1.681972e-03
4.100000e+08	2.329257e+14	0.000000e+00	7.647063e-01	2.980080e+15	3.340132e+15	1.966277e+14	1.456659e+04	6.585240e+03	2.653925e+03	0	1.673980e-03
4.200000e+08	2.296290e+14	0.000000e+00	7.647063e-01	2.951019e+15	3.308985e+15	1.956254e+14	1.453373e+04	6.578024e+03	2.651017e+03	0	1.666044e-03
4.300000e+08	2.263863e+14	0.000000e+00	7.647063e-01	2.922418e+15	3.278276e+15	1.946303e+14	1.450119e+04	6.570851e+03	2.648126e+03	0	1.658165e-03
4.400000e+08	2.231965e+14	0.000000e+00	7.647063e-01	2.894268e+15	3.248003e+15	1.936423e+14	1.446896e+04	6.563725e+03	2.645254e+03	0	1.650340e-03
4.500000e+08	2.200586e+14	0.000000e+00	7.647063e-01	2.866558e+15	3.218161e+15	1.926614e+14	1.443704e+04	6.556645e+03	2.642401e+03	0	1.642570e-03
4.600000e+08	2.169713e+14	0.000000e+00	7.647063e-01	2.839280e+15	3.188745e+15	1.916876e+14	1.440543e+04	6.549613e+03	2.639567e+03	0	1.634852e-03
4.700000e+08	2.139336e+14	0.000000e+00	7.647063e-01	2.812424e+15	3.159751e+15	1.907208e+14	1.437412e+04	6.542629e+03	2.636753e+03	0	1.627187e-03
4.800000e+08	2.109444e+14	0.000000e+00	7.647063e-01	2.785982e+15	3.131174e+15	1.897609e+14	1.434310e+04	6.535694e+03	2.633958e+03	0	1.619572e-03
4.900000e+08	2.080027e+14	0.000000e+00	7.647063e-01	2.759945e+15	3.103007e+15	1.888079e+14	1.431237e+04	6.528808e+03	2.631183e+03	0	1.612009e-03
5.000000e+08	2.051075e+14	0.000000e+00	7.647063e-01	2.734304e+15	3.075244e+15	1.878616e+14	1.428193e+04	6.521971e+03	2.628427e+03	0	1.604494e-03
5.100000e+08	2.022578e+14	0.000000e+00	7.647063e-01	2.709051e+15	3.047879e+15	1.869222e+14	1.425177e+04	6.515184e+03	2.625692e+03	0	1.597029e-03
5.200000e+08	1.994526e+14	0.000000e+00	7.647063e-01	2.684179e+15	3.020907e+15	1.859894e+14	1.422189e+04	6.508445e+03	2.622976e+03	0	1.589611e-03
5.300000e+08	1.966911e+14	0.000000e+00	7.647063e-01	2.659678e+15	2.994319e+15	1.850633e+14	1.419228e+04	6.501755e+03	2.620280e+03	0	1.582241e-03
5.400000e+08	1.939723e+14	0.000000e+00	7.647063e-01	2.635543e+15	2.968111e+15	1.841438e+14	1.416294e+04	6.495114e+03	2.617603e+03	0	1.574917e-03
5.500000e+08	1.912954e+14	0.000000e+00	7.647063e-01	2.611765e+15	2.942275e+15	1.832309e+14	1.413387e+04	6.488522e+03	2.614947e+03	0	1.567638e-03
5.600000e+08	1.886595e+14	0.000000e+00	7.647063e-01	2.588337e+15	2.916805e+15	1.823244e+14	1.410506e+04	6.481977e+03	2.612309e+03	0	1.560405e-03
5.700000e+08	1.860637e+14	0.000000e+00	7.647063e-01	2.565252e+15	2.891695e+15	1.814244e+14	1.407650e+04	6.475481e+03	2.609691e+03	0	1.553215e-03
5.800000e+08	1.835072e+14	0.000000e+00	7.647063e-01	2.542504e+15	2.866938e+15	1.805307e+14	1.404820e+04	6.469032e+03	2.607092e+03	0	1.546068e-03
5.900000e+08	1.809892e+14	0.000000e+00	7.647063e-01	2.520085e+15	2.842527e+15	1.796434e+14	1.402016e+04	6.462630e+03	2.604512e+03	0	1.538965e-03
6.000000e+08	1.785091e+14	0.000000e+00	7.647063e-01	2.497989e+15	2.818457e+15	1.787624e+14	1.399235e+04	6.456274e+03	2.601951e+03	0	1.531903e-03
6.100000e+08	1.760659e+14	0.000000e+00	7.647063e-01	2.476210e+15	2.794722e+15	1.778876e+14	1.396479e+04	6.449965e+03	2.599408e+03	0	1.524882e-03
6.200000e+08	1.736590e+14	0.000000e+00	7.647063e-01	2.454741e+15	2.771315e+15	1.770190e+14	1.393747e+04	6.443702e+03	2.596884e+03	0	1.517901e-03
6.300000e+08	1.712876e+14	0.000000e+00	7.647063e-01	2.433576e+15	2.748231e+15	1.761565e+14	1.391039e+04	6.437483e+03	2.594378e+03	0	1.510960e-03
6.400000e+08	1.689511e+14	0.000000e+00	7.647063e-01	2.412711e+15	2.725463e+15	1.753001e+14	1.388354e+04	6.431310e+03	2.591890e+03	0	1.504058e-03
6.500000e+08	1.666487e+14	0.000000e+00	7.647063e-01	2.392137e+15	2.703005e+15	1.744497e+14	1.385692e+04	6.425181e+03	2.589420e+03	0	1.497195e-03
6.600000e+08	1.643799e+14	0.000000e+00	7.647063e-01	2.371851e+15	2.680853e+15	1.736053e+14	1.383052e+04	6.419096e+03	2.586967e+03	0	1.490369e-03
6.700000e+08	1.621439e+14	0.000000e+00	7.647063e-01	2.351847e+15	2.659001e+15	1.727668e+14	1.380435e+04	6.413054e+03	2.584532e+03	0	1.483581e-03
6.800000e+08	1.599400e+14	0.000000e+00	7.647063e-01	2.332119e+15	2.637442e+15	1.719343e+14	1.377840e+04	6.407055e+03	2.582115e+03	0	1.476829e-03
6.900000e+08	1.577678e+14	0.000000e+00	7.647063e-01	2.312662e+15	2.616172e+15	1.711076e+14	1.375266e+04	6.401099e+03	2.579714e+03	0	1.470112e-03
7.000000e+08	1.556266e+14	0.000000e+00	7.647063e-01	2.293470e+15	2.595186e+15	1.702866e+14	1.372714e+04	6.395185e+03	2.577331e+03	0	1.463431e-03
7.100000e+08	1.535157e+14	0.000000e+00	7.647063e-01	2.274540e+15	2.574478e+15	1.694715e+14	1.370183e+04	6.389312e+03	2.574964e+03	0	1.456784e-03
7.200000e+08	1.514347e+14	0.000000e+00	7.647063e-01	2.255866e+15	2.554043e+15	1.686620e+14	1.367673e+04	6.383480e+03	2.572614e+03	0	1.450172e-03
7.300000e+08	1.493829e+14	0.000000e+00	7.647063e-01	2.237443e+15	2.533877e+15	1.678582e+14	1.365184e+04	6.377688e+03	2.570280e+03	0	1.443593e-03
7.400000e+08	1.473598e+14	0.000000e+00	7.647063e-01	2.219267e+15	2.513975e+15	1.670599e+14	1.362714e+04	6.371937e+03	2.567962e+03	0	1.437046e-03
7.500000e+08	1.453649e+14	0.000000e+00	7.647063e-01	2.201333e+15	2.494331e+15	1.662673e+14	1.360265e+04	6.366226e+03	2.565660e+03	0	1.430532e-03
7.600000e+08	1.433976e+14	0.000000e+00	7.647063e-01	2.183637e+15	2.474942e+15	1.654802e+14	1.357836e+04	6.360553e+03	2.563374e+03	0	1.424049e-03
7.700000e+08	1.414574e+14	0.000000e+00	7.647063e-01	2.166174e+15	2.455802e+15	1.646985e+14	1.355426e+04	6.354920e+03	2.561103e+03	0	1.417597e-03
7.800000e+08	1.395439e+14	0.000000e+00	7.647063e-01	2.148940e+15	2.436908e+15	1.639223e+14	1.353035e+04	6.349324e+03	2.558848e+03	0	1.411176e-03
7.900000e+08	1.376565e+14	0.000000e+00	7.647063e-01	2.131931e+15	2.418255e+15	1.631515e+14	1.350663e+04	6.343767e+03	2.556609e+03	0	1.404785e-03
8.000000e+08	1.357947e+14	0.000000e+00	7.647063e-01	2.115144e+15	2.399839e+15	1.623860e+14	1.348310e+04	6.338247e+03	2.554384e+03	0	1.398423e-03
8.100000e+08	1.339582e+14	0.000000e+00	7.647063e-01	2.098573e+15	2.381655e+15	1.616258e+14	1.345975e+04	6.332763e+03	2.552174e+03	0	1.392091e-03
8.200000e+08	1.321464e+14	0.000000e+00	7.647063e-01	2.082216e+15	2.363700e+15	1.608709e+14	1.343659e+04	6.327317e+03	2.549979e+03	0	1.385786e-03
8.300000e+08	1.303589e+14	0.000000e+00	7.647063e-01	2.066068e+15	2.345970e+15	1.601212e+14	1.341360e+04	6.321907e+03	2.547799e+03	0	1.379509e-03
8.400000e+08	1.285953e+14	0.000000e+00	7.647063e-01	2.050126e+15	2.328461e+15	1.593767e+14	1.339080e+04	6.316532e+03	2.545633e+03	0	1.373260e-03
8.500000e+08	1.268551e+14	0.000000e+00	7.647063e-01	2.034386e+15	2.311168e+15	1.586373e+14	1.336817e+04	6.311193e+03	2.543481e+03	0	1.367037e-03
8.600000e+08	1.251379e+14	0.000000e+00	7.647063e-01	2.018845e+15	2.294089e+15	1.579031e+14	1.334571e+04	6.305888e+03	2.541343e+03	0	1.360841e-03
8.700000e+08	1.234433e+14	0.000000e+00	7.647063e-01	2.003499e+15	2.277220e+15	1.571738e+14	1.332343e+04	6.300619e+03	2.539220e+03	0	1.354670e-03
8.800000e+08	1.217709e+14	0.000000e+00	7.647063e-01	1.988345e+15	2.260556e+15	1.564496e+14	1.330131e+04	6.295383e+03	2.537110e+03	0	1.348525e-03
8.900000e+08	1.201204e+14	0.000000e+00	7.647063e-01	1.973379e+15	2.244096e+15	1.557304e+14	1.327936e+04	6.290181e+03	2.535013e+03	0	1.342404e-03
9.000000e+08	1.184913e+14	0.000000e+00	7.647063e-01	1.958599e+15	2.227834e+15	1.550161e+14	1.325757e+04	6.285013e+03	2.532930e+03	0	1.336308e-03
9.100000e+08	1.168833e+14	0.000000e+00	7.647063e-01	1.944001e+15	2.211769e+15	1.543067e+14	1.323595e+04	6.279877e+03	2.530861e+03	0	1.330235e-03
9.200000e+08	1.152959e+14	0.000000e+00	7.647063e-01	1.929581e+15	2.195896e+15	1.536021e+14	1.321449e+04	6.274775e+03	2.528804e+03	0	1.324186e-03
9.300000e+08	1.137290e+14	0.000000e+00	7.647063e-01	1.915338e+15	2.180212e+15	1.529024e+14	1.319319e+04	6.269705e+03	2.526761e+03	0	1.318160e-03
9.400000e+08	1.121820e+14	0.000000e+00	7.647063e-01	1.901268e+15	2.164715e+15	1.522075e+14	1.317204e+04	6.264666e+03	2.524730e+03	0	1.312156e-03
9.500000e+08	1.106547e+14	0.000000e+00	7.647063e-01	1.887369e+15	2.149402e+15	1.515173e+14	1.315105e+04	6.259659e+03	2.522713e+03	0	1.306174e-03
9.600000e+08	1.091467e+14	0.000000e+00	7.647063e-01	1.873636e+15	2.134268e+15	1.508318e+14	1.313021e+04	6.254684e+03	2.520707e+03	0	1.300213e-03
9.700000e+08	1.076577e+14	0.000000e+00	7.647063e-01	1.860068e+15	2.119312e+15	1.501509e+14	1.310952e+04	6.249739e+03	2.518715e+03	0	1.294274e-03
9.800000e+08	1.061874e+14	0.000000e+00	7.647063e-01	1.846662e+15	2.104530e+15	1.494748e+14	1.308899e+04	6.244826e+03	2.516734e+03	0	1.288354e-03
9.900000e+08	1.047355e+14	0.000000e+00	7.647063e-01	1.833416e+15	2.089920e+15	1.488032e+14	1.306860e+04	6.239942e+03	2.514766e+03	0	1.282455e-03
1.000000e+09	1.033016e+14	0.000000e+00	7.647063e-01	1.820326e+15	2.075478e+15	1.481361e+14	1.304835e+04	6.235088e+03	2.512810e+03	0	1.276576e-03
1.010000e+09	1.018855e+14	0.000000e+00	7.647063e-01	1.807390e+15	2.061203e+15	1.474736e+14	1.302825e+04	6.230264e+03	2.510866e+03	0	1.270716e-03
1.020000e+09	1.004868e+14	0.000000e+00	7.647063e-01	1.794605e+15	2.047091e+15	1.468156e+14	1.300830e+04	6.225469e+03	2.508934e+03	0	1.264874e-03
1.030000e+09	9.910533e+13	0.000000e+00	7.647063e-01	1.781970e+15	2.033141e+15	1.461620e+14	1.298848e+04	6.220704e+03	2.507013e+03	0	1.259051e-03
1.040000e+09	9.774075e+13	0.000000e+00	7.647063e-01	1.769481e+15	2.019348e+15	1.455129e+14	1.296880e+04	6.215967e+03	2.505104e+03	0	1.253246e-03
1.050000e+09	9.639280e+13	0.000000e+00	7.647063e-01	1.757137e+15	2.005712e+15	1.448681e+14	1.294926e+04	6.211258e+03	2.503206e+03	0	1.247458e-03
1.060000e+09	9.506120e+13	0.000000e+00	7.647063e-01	1.744935e+15	1.992229e+15	1.442277e+14	1.292986e+04	6.206577e+03	2.501320e+03	0	1.241687e-03
1.070000e+09	9.374568e+13	0.000000e+00	7.647063e-01	1.732873e+15	1.978897e+15	1.435916e+14	1.291059e+04	6.201925e+03	2.499445e+03	0	1.235933e-03
1.080000e+09	9.244599e+13	0.000000e+00	7.647063e-01	1.720948e+15	1.965713e+15	1.429597e+14	1.289146e+04	6.197300e+03	2.497581e+03	0	1.230194e-03
1.090000e+09	9.116187e+13	0.000000e+00	7.647063e-01	1.709159e+15	1.952677e+15	1.423322e+14	1.287245e+04	6.192702e+03	2.495728e+03	0	1.224472e-03
1.100000e+09	8.989308e+13	0.000000e+00	7.647063e-01	1.697504e+15	1.939784e+15	1.417088e+14	1.285358e+04	6.188131e+03	2.493886e+03	0	1.218764e-03
1.110000e+09	8.863937e+13	0.000000e+00	7.647063e-01	1.685979e+15	1.927033e+15	1.410896e+14	1.283483e+04	6.183587e+03	2.492054e+03	0	1.213072e-03
1.120000e+09	8.740050e+13	0.000000e+00	7.647063e-01	1.674584e+15	1.914422e+15	1.404746e+14	1.281621e+04	6.179069e+03	2.490234e+03	0	1.207394e-03
1.130000e+09	8.617623e+13	0.000000e+00	7.647063e-01	1.663316e+15	1.901949e+15	1.398636e+14	1.279772e+04	6.174577e+03	2.488423e+03	0	1.201730e-03
1.140000e+09	8.496634e+13	0.000000e+00	7.647063e-01	1.652173e+15	1.889611e+15	1.392568e+14	1.277935e+04	6.170111e+03	2.486624e+03	0	1.196079e-03
1.150000e+09	8.377060e+13	0.000000e+00	7.647063e-01	1.641154e+15	1.877407e+15	1.386540e+14	1.276110e+04	6.165671e+03	2.484834e+03	0	1.190442e-03
1.160000e+09	8.258879e+13	0.000000e+00	7.647063e-01	1.630256e+15	1.865334e+15	1.380553e+14	1.274298e+04	6.161256e+03	2.483055e+03	0	1.184817e-03
1.170000e+09	8.142069e+13	0.000000e+00	7.647063e-01	1.619477e+15	1.853391e+15	1.374605e+14	1.272497e+04	6.156867e+03	2.481286e+03	0	1.179205e-03
1.180000e+09	8.026610e+13	0.000000e+00	7.647063e-01	1.608817e+15	1.841575e+15	1.368697e+14	1.270708e+04	6.152502e+03	2.479527e+03	0	1.173604e-03
1.190000e+09	7.912480e+13	0.000000e+00	7.647063e-01	1.598272e+15	1.829885e+15	1.362828e+14	1.268931e+04	6.148162e+03	2.477778e+03	0	1.168015e-03
1.200000e+09	7.799659e+13	0.000000e+00	7.647063e-01	1.587842e+15	1.818319e+15	1.356998e+14	1.267166e+04	6.143846e+03	2.476038e+03	0	1.162437e-03
1.210000e+09	7.688126e+13	0.000000e+00	7.647063e-01	1.577525e+15	1.806875e+15	1.351206e+14	1.265412e+04	6.139554e+03	2.474309e+03	0	1.156870e-03
1.220000e+09	7.577863e+13	0.000000e+00	7.647063e-01	1.567318e+15	1.795552e+15	1.345454e+14	1.263670e+04	6.135287e+03	2.472589e+03	0	1.151313e-03
1.230000e+09	7.468850e+13	0.000000e+00	7.647063e-01	1.557221e+15	1.784346e+15	1.339739e+14	1.261939e+04	6.131043e+03	2.470879e+03	0	1.145765e-03
1.240000e+09	7.361069e+13	0.000000e+00	7.647063e-01	1.547231e+15	1.773258e+15	1.334062e+14	1.260219e+04	6.126822e+03	2.469178e+03	0	1.140227e-03
1.250000e+09	7.254499e+13	0.000000e+00	7.647063e-01	1.537348e+15	1.762285e+15	1.328422e+14	1.258510e+04	6.122625e+03	2.467486e+03	0	1.134698e-03
1.260000e+09	7.149125e+13	0.000000e+00	7.647063e-01	1.527568e+15	1.751425e+15	1.322820e+14	1.256812e+04	6.118450e+03	2.465804e+03	0	1.129177e-03
1.270000e+09	7.044926e+13	0.000000e+00	7.647063e-01	1.517892e+15	1.740677e+15	1.317254e+14	1.255124e+04	6.114299e+03	2.464131e+03	0	1.123664e-03
1.280000e+09	6.941887e+13	0.000000e+00	7.647063e-01	1.508318e+15	1.730039e+15	1.311725e+14	1.253448e+04	6.110170e+03	2.462467e+03	0	1.118159e-03
1.290000e+09	6.839990e+13	0.000000e+00	7.647063e-01	1.498843e+15	1.719510e+15	1.306233e+14	1.251782e+04	6.106063e+03	2.460812e+03	0	1.112661e-03
1.300000e+09	6.739217e+13	0.000000e+00	7.647063e-01	1.489467e+15	1.709088e+15	1.300776e+14	1.250126e+04	6.101979e+03	2.459165e+03	0	1.107170e-03
1.310000e+09	6.639553e+13	0.000000e+00	7.647063e-01	1.480188e+15	1.698772e+15	1.295355e+14	1.248481e+04	6.097916e+03	2.457528e+03	0	1.101685e-03
1.320000e+09	6.540982e+13	0.000000e+00	7.647063e-01	1.471005e+15	1.688560e+15	1.289970e+14	1.246845e+04	6.093875e+03	2.455900e+03	0	1.096206e-03
1.330000e+09	6.443486e+13	0.000000e+00	7.647063e-01	1.461917e+15	1.678450e+15	1.284620e+14	1.245220e+04	6.089856e+03	2.454280e+03	0	1.090732e-03
1.340000e+09	6.347051e+13	0.000000e+00	7.647063e-01	1.452921e+15	1.668442e+15	1.279305e+14	1.243605e+04	6.085858e+03	2.452669e+03	0	1.085263e-03
1.350000e+09	6.251662e+13	0.000000e+00	7.647063e-01	1.444017e+15	1.658533e+15	1.274025e+14	1.242000e+04	6.081881e+03	2.451066e+03	0	1.079799e-03
1.360000e+09	6.157302e+13	0.000000e+00	7.647063e-01	1.435204e+15	1.648723e+15	1.268779e+14	1.240405e+04	6.077925e+03	2.449472e+03	0	1.074339e-03
