#t		Qconv[W]	Ri[Rp]		R*[Rp]		Qc[W]		Qm[W]		Qr[W]		Tcmb[K]		Tl[K]		Tup[K]		RiFlag		Bs[T]
0.000000e+00	4.453969e+14	0.000000e+00	7.738095e-01	5.079623e+15	3.228114e+15	2.475284e+14	1.686901e+04	6.417892e+03	2.600611e+03	0	2.062759e-03
1.000000e+07	4.405823e+14	0.000000e+00	7.738095e-01	5.036788e+15	3.494452e+15	2.461569e+14	1.682016e+04	6.508806e+03	2.637451e+03	0	2.055299e-03
2.000000e+07	4.354180e+14	0.000000e+00	7.738095e-01	4.991201e+15	3.729217e+15	2.447957e+14	1.677173e+04	6.586001e+03	2.668731e+03	0	2.047237e-03
3.000000e+07	4.300022e+14	0.000000e+00	7.738095e-01	4.943647e+15	3.931577e+15	2.434446e+14	1.672373e+04	6.650843e+03	2.695006e+03	0	2.038714e-03
4.000000e+07	4.244146e+14	0.000000e+00	7.738095e-01	4.894762e+15	4.102289e+15	2.421037e+14	1.667619e+04	6.704738e+03	2.716845e+03	0	2.029845e-03
5.000000e+07	4.187181e+14	0.000000e+00	7.738095e-01	4.845051e+15	4.243225e+15	2.407727e+14	1.662912e+04	6.749059e+03	2.734804e+03	0	2.020723e-03
6.000000e+07	4.129618e+14	0.000000e+00	7.738095e-01	4.794906e+15	4.356938e+15	2.394516e+14	1.658253e+04	6.785095e+03	2.749407e+03	0	2.011420e-03
7.000000e+07	4.071831e+14	0.000000e+00	7.738095e-01	4.744626e+15	4.446323e+15	2.381404e+14	1.653641e+04	6.814028e+03	2.761131e+03	0	2.001994e-03
8.000000e+07	4.014108e+14	0.000000e+00	7.738095e-01	4.694440e+15	4.514355e+15	2.368390e+14	1.649078e+04	6.836915e+03	2.770405e+03	0	1.992488e-03
9.000000e+07	3.956661e+14	0.000000e+00	7.738095e-01	4.644519e+15	4.563920e+15	2.355472e+14	1.644563e+04	6.854687e+03	2.777606e+03	0	1.982938e-03
1.000000e+08	3.899652e+14	0.000000e+00	7.738095e-01	4.594989e+15	4.597704e+15	2.342650e+14	1.640096e+04	6.868153e+03	2.783063e+03	0	1.973368e-03
1.100000e+08	3.843197e+14	0.000000e+00	7.738095e-01	4.545945e+15	4.618139e+15	2.329923e+14	1.635676e+04	6.878008e+03	2.787056e+03	0	1.963799e-03
1.200000e+08	3.787383e+14	0.000000e+00	7.738095e-01	4.497455e+15	4.627376e+15	2.317291e+14	1.631304e+04	6.884845e+03	2.789827e+03	0	1.954246e-03
1.300000e+08	3.732272e+14	0.000000e+00	7.738095e-01	4.449568e+15	4.627290e+15	2.304752e+14	1.626977e+04	6.889168e+03	2.791578e+03	0	1.944721e-03
1.400000e+08	3.677908e+14	0.000000e+00	7.738095e-01	4.402319e+15	4.619496e+15	2.292306e+14	1.622697e+04	6.891400e+03	2.792482e+03	0	1.935232e-03
1.500000e+08	3.624319e+14	0.000000e+00	7.738095e-01	4.355729e+15	4.605369e+15	2.279952e+14	1.618462e+04	6.891896e+03	2.792683e+03	0	1.925787e-03
1.600000e+08	3.571526e+14	0.000000e+00	7.738095e-01	4.309814e+15	4.586070e+15	2.267689e+14	1.614272e+04	6.890954e+03	2.792302e+03	0	1.916391e-03
1.700000e+08	3.519539e+14	0.000000e+00	7.738095e-01	4.264583e+15	4.562578e+15	2.255516e+14	1.610125e+04	6.888824e+03	2.791439e+03	0	1.907047e-03
1.800000e+08	3.468362e+14	0.000000e+00	7.738095e-01	4.220037e+15	4.535709e+15	2.243434e+14	1.606022e+04	6.885713e+03	2.790178e+03	0	1.897758e-03
1.900000e+08	3.417997e+14	0.000000e+00	7.738095e-01	4.176177e+15	4.506146e+15	2.231440e+14	1.601962e+04	6.881794e+03	2.788590e+03	0	1.888528e-03
2.000000e+08	3.368438e+14	0.000000e+00	7.738095e-01	4.132999e+15	4.474453e+15	2.219535e+14	1.597944e+04	6.877212e+03	2.786733e+03	0	1.879356e-03
2.100000e+08	3.319681e+14	0.000000e+00	7.738095e-01	4.090498e+15	4.441101e+15	2.207717e+14	1.593967e+04	6.872085e+03	2.784656e+03	0	1.870244e-03
2.200000e+08	3.271716e+14	0.000000e+00	7.738095e-01	4.048665e+15	4.406477e+15	2.195986e+14	1.590031e+04	6.866514e+03	2.782398e+03	0	1.861192e-03
2.300000e+08	3.224534e+14	0.000000e+00	7.738095e-01	4.007494e+15	4.370902e+15	2.184341e+14	1.586135e+04	6.860581e+03	2.779995e+03	0	1.852202e-03
2.400000e+08	3.178123e+14	0.000000e+00	7.738095e-01	3.966974e+15	4.334638e+15	2.172781e+14	1.582279e+04	6.854357e+03	2.777472e+03	0	1.843273e-03
2.500000e+08	3.132471e+14	0.000000e+00	7.738095e-01	3.927095e+15	4.297902e+15	2.161307e+14	1.578462e+04	6.847896e+03	2.774854e+03	0	1.834405e-03
2.600000e+08	3.087567e+14	0.000000e+00	7.738095e-01	3.887847e+15	4.260873e+15	2.149916e+14	1.574682e+04	6.841249e+03	2.772161e+03	0	1.825597e-03
2.700000e+08	3.043397e+14	0.000000e+00	7.738095e-01	3.849218e+15	4.223697e+15	2.138608e+14	1.570941e+04	6.834454e+03	2.769408e+03	0	1.816849e-03
2.800000e+08	2.999947e+14	0.000000e+00	7.738095e-01	3.811198e+15	4.186493e+15	2.127383e+14	1.567236e+04	6.827545e+03	2.766608e+03	0	1.808162e-03
2.900000e+08	2.957204e+14	0.000000e+00	7.738095e-01	3.773776e+15	4.149357e+15	2.116240e+14	1.563568e+04	6.820549e+03	2.763773e+03	0	1.799533e-03
3.000000e+08	2.915156e+14	0.000000e+00	7.738095e-01	3.736939e+15	4.112370e+15	2.105178e+14	1.559936e+04	6.813489e+03	2.760912e+03	0	1.790963e-03
3.100000e+08	2.873788e+14	0.000000e+00	7.738095e-01	3.700677e+15	4.075594e+15	2.094197e+14	1.556339e+04	6.806385e+03	2.758033e+03	0	1.782451e-03
3.200000e+08	2.833086e+14	0.000000e+00	7.738095e-01	3.664979e+15	4.039082e+15	2.083295e+14	1.552777e+04	6.799252e+03	2.755143e+03	0	1.773996e-03
3.300000e+08	2.793039e+14	0.000000e+00	7.738095e-01	3.629834e+15	4.002874e+15	2.072473e+14	1.549250e+04	6.792103e+03	2.752246e+03	0	1.765598e-03
3.400000e+08	2.753632e+14	0.000000e+00	7.738095e-01	3.595230e+15	3.967003e+15	2.061729e+14	1.545755e+04	6.784949e+03	2.749347e+03	0	1.757255e-03
3.500000e+08	2.714853e+14	0.000000e+00	7.738095e-01	3.561157e+15	3.931496e+15	2.051064e+14	1.542295e+04	6.777801e+03	2.746451e+03	0	1.748967e-03
3.600000e+08	2.676689e+14	0.000000e+00	7.738095e-01	3.527605e+15	3.896371e+15	2.040476e+14	1.538867e+04	6.770664e+03	2.743559e+03	0	1.740733e-03
3.700000e+08	2.639127e+14	0.000000e+00	7.738095e-01	3.494563e+15	3.861644e+15	2.029964e+14	1.535471e+04	6.763547e+03	2.740675e+03	0	1.732552e-03
3.800000e+08	2.602156e+14	0.000000e+00	7.738095e-01	3.462020e+15	3.827326e+15	2.019528e+14	1.532106e+04	6.756453e+03	2.737800e+03	0	1.724423e-03
3.900000e+08	2.565764e+14	0.000000e+00	7.738095e-01	3.429967e+15	3.793425e+15	2.009168e+14	1.528774e+04	6.749387e+03	2.734937e+03	0	1.716347e-03
4.000000e+08	2.529938e+14	0.000000e+00	7.738095e-01	3.398394e+15	3.759946e+15	1.998883e+14	1.525471e+04	6.742353e+03	2.732087e+03	0	1.708321e-03
4.100000e+08	2.494667e+14	0.000000e+00	7.738095e-01	3.367292e+15	3.726892e+15	1.988672e+14	1.522199e+04	6.735353e+03	2.729250e+03	0	1.700345e-03
4.200000e+08	2.459940e+14	0.000000e+00	7.738095e-01	3.336650e+15	3.694264e+15	1.978534e+14	1.518957e+04	6.728390e+03	2.726429e+03	0	1.692418e-03
4.300000e+08	2.425746e+14	0.000000e+00	7.738095e-01	3.306460e+15	3.662061e+15	1.968470e+14	1.515745e+04	6.721467e+03	2.723623e+03	0	1.684540e-03
4.400000e+08	2.392075e+14	0.000000e+00	7.738095e-01	3.276714e+15	3.630282e+15	1.958478e+14	1.512561e+04	6.714583e+03	2.720834e+03	0	1.676709e-03
4.500000e+08	2.358915e+14	0.000000e+00	7.738095e-01	3.247401e+15	3.598925e+15	1.948558e+14	1.509406e+04	6.707741e+03	2.718062e+03	0	1.668925e-03
4.600000e+08	2.326256e+14	0.000000e+00	7.738095e-01	3.218514e+15	3.567986e+15	1.938709e+14	1.506279e+04	6.700942e+03	2.715307e+03	0	1.661187e-03
4.700000e+08	2.294089e+14	0.000000e+00	7.738095e-01	3.190045e+15	3.537462e+15	1.928930e+14	1.503180e+04	6.694186e+03	2.712569e+03	0	1.653495e-03
4.800000e+08	2.262404e+14	0.000000e+00	7.738095e-01	3.161984e+15	3.507346e+15	1.919222e+14	1.500108e+04	6.687473e+03	2.709849e+03	0	1.645847e-03
4.900000e+08	2.231191e+14	0.000000e+00	7.738095e-01	3.134325e+15	3.477636e+15	1.909583e+14	1.497063e+04	6.680805e+03	2.707147e+03	0	1.638243e-03
5.000000e+08	2.200441e+14	0.000000e+00	7.738095e-01	3.107058e+15	3.448324e+15	1.900013e+14	1.494045e+04	6.674181e+03	2.704463e+03	0	1.630682e-03
5.100000e+08	2.170145e+14	0.000000e+00	7.738095e-01	3.080178e+15	3.419407e+15	1.890511e+14	1.491053e+04	6.667602e+03	2.701797e+03	0	1.623164e-03
5.200000e+08	2.140293e+14	0.000000e+00	7.738095e-01	3.053676e+15	3.390878e+15	1.881078e+14	1.488087e+04	6.661066e+03	2.699149e+03	0	1.615687e-03
5.300000e+08	2.110878e+14	0.000000e+00	7.738095e-01	3.027545e+15	3.362731e+15	1.871711e+14	1.485146e+04	6.654576e+03	2.696518e+03	0	1.608251e-03
5.400000e+08	2.081890e+14	0.000000e+00	7.738095e-01	3.001778e+15	3.334961e+15	1.862411e+14	1.482230e+04	6.648129e+03	2.693906e+03	0	1.600855e-03
5.500000e+08	2.053322e+14	0.000000e+00	7.738095e-01	2.976368e+15	3.307561e+15	1.853178e+14	1.479339e+04	6.641727e+03	2.691312e+03	0	1.593499e-03
5.600000e+08	2.025165e+14	0.000000e+00	7.738095e-01	2.951309e+15	3.280526e+15	1.844010e+14	1.476472e+04	6.635368e+03	2.688735e+03	0	1.586182e-03
5.700000e+08	1.997412e+14	0.000000e+00	7.738095e-01	2.926593e+15	3.253850e+15	1.834907e+14	1.473630e+04	6.629053e+03	2.686176e+03	0	1.578903e-03
5.800000e+08	1.970055e+14	0.000000e+00	7.738095e-01	2.902215e+15	3.227527e+15	1.825869e+14	1.470811e+04	6.622781e+03	2.683635e+03	0	1.571661e-03
5.900000e+08	1.943086e+14	0.000000e+00	7.738095e-01	2.878168e+15	3.201550e+15	1.816894e+14	1.468016e+04	6.616552e+03	2.681111e+03	0	1.564456e-03
6.000000e+08	1.916498e+14	0.000000e+00	7.738095e-01	2.854445e+15	3.175914e+15	1.807984e+14	1.465243e+04	6.610366e+03	2.678604e+03	0	1.557288e-03
6.100000e+08	1.890284e+14	0.000000e+00	7.738095e-01	2.831042e+15	3.150614e+15	1.799136e+14	1.462494e+04	6.604222e+03	2.676114e+03	0	1.550155e-03
6.200000e+08	1.864437e+14	0.000000e+00	7.738095e-01	2.807951e+15	3.125643e+15	1.790351e+14	1.459767e+04	6.598119e+03	2.673642e+03	0	1.543057e-03
6.300000e+08	1.838950e+14	0.000000e+00	7.738095e-01	2.785168e+15	3.100997e+15	1.781628e+14	1.457062e+04	6.592059e+03	2.671186e+03	0	1.535994e-03
6.400000e+08	1.813816e+14	0.000000e+00	7.738095e-01	2.762687e+15	3.076668e+15	1.772966e+14	1.454379e+04	6.586039e+03	2.668746e+03	0	1.528964e-03
6.500000e+08	1.789029e+14	0.000000e+00	7.738095e-01	2.740502e+15	3.052653e+15	1.764366e+14	1.451718e+04	6.580060e+03	2.666324e+03	0	1.521967e-03
6.600000e+08	1.764583e+14	0.000000e+00	7.738095e-01	2.718608e+15	3.028945e+15	1.755826e+14	1.449078e+04	6.574121e+03	2.663917e+03	0	1.515003e-03
6.700000e+08	1.740471e+14	0.000000e+00	7.738095e-01	2.696999e+15	3.005540e+15	1.747346e+14	1.446459e+04	6.568222e+03	2.661527e+03	0	1.508071e-03
6.800000e+08	1.716687e+14	0.000000e+00	7.738095e-01	2.675671e+15	2.982431e+15	1.738925e+14	1.443860e+04	6.562362e+03	2.659152e+03	0	1.501170e-03
6.900000e+08	1.693225e+14	0.000000e+00	7.738095e-01	2.654619e+15	2.959615e+15	1.730564e+14	1.441283e+04	6.556541e+03	2.656794e+03	0	1.494299e-03
7.000000e+08	1.670079e+14	0.000000e+00	7.738095e-01	2.633838e+15	2.937086e+15	1.722261e+14	1.438725e+04	6.550759e+03	2.654451e+03	0	1.487459e-03
7.100000e+08	1.647244e+14	0.000000e+00	7.738095e-01	2.613322e+15	2.914839e+15	1.714017e+14	1.436188e+04	6.545016e+03	2.652123e+03	0	1.480649e-03
7.200000e+08	1.624715e+14	0.000000e+00	7.738095e-01	2.593068e+15	2.892869e+15	1.705830e+14	1.433670e+04	6.539309e+03	2.649811e+03	0	1.473868e-03
7.300000e+08	1.602485e+14	0.000000e+00	7.738095e-01	2.573071e+15	2.871172e+15	1.697700e+14	1.431172e+04	6.533641e+03	2.647514e+03	0	1.467115e-03
7.400000e+08	1.580549e+14	0.000000e+00	7.738095e-01	2.553326e+15	2.849744e+15	1.689627e+14	1.428692e+04	6.528009e+03	2.645232e+03	0	1.460390e-03
7.500000e+08	1.558903e+14	0.000000e+00	7.738095e-01	2.533829e+15	2.828578e+15	1.681610e+14	1.426232e+04	6.522414e+03	2.642965e+03	0	1.453692e-03
7.600000e+08	1.537541e+14	0.000000e+00	7.738095e-01	2.514575e+15	2.807672e+15	1.673649e+14	1.423791e+04	6.516855e+03	2.640712e+03	0	1.447021e-03
7.700000e+08	1.516458e+14	0.000000e+00	7.738095e-01	2.495562e+15	2.787021e+15	1.665744e+14	1.421368e+04	6.511332e+03	2.638474e+03	0	1.440377e-03
7.800000e+08	1.495649e+14	0.000000e+00	7.738095e-01	2.476783e+15	2.766620e+15	1.657893e+14	1.418963e+04	6.505844e+03	2.636250e+03	0	1.433759e-03
7.900000e+08	1.475110e+14	0.000000e+00	7.738095e-01	2.458236e+15	2.746466e+15	1.650097e+14	1.416577e+04	6.500391e+03	2.634041e+03	0	1.427165e-03
8.000000e+08	1.454836e+14	0.000000e+00	7.738095e-01	2.439916e+15	2.726554e+15	1.642355e+14	1.414208e+04	6.494973e+03	2.631845e+03	0	1.420597e-03
8.100000e+08	1.434822e+14	0.000000e+00	7.738095e-01	2.421820e+15	2.706880e+15	1.634667e+14	1.411857e+04	6.489589e+03	2.629664e+03	0	1.414052e-03
8.200000e+08	1.415064e+14	0.000000e+00	7.738095e-01	2.403945e+15	2.687441e+15	1.627032e+14	1.409523e+04	6.484240e+03	2.627496e+03	0	1.407532e-03
8.300000e+08	1.395558e+14	0.000000e+00	7.738095e-01	2.386285e+15	2.668232e+15	1.619449e+14	1.407207e+04	6.478923e+03	2.625342e+03	0	1.401034e-03
8.400000e+08	1.376299e+14	0.000000e+00	7.738095e-01	2.368838e+15	2.649250e+15	1.611919e+14	1.404907e+04	6.473640e+03	2.623201e+03	0	1.394559e-03
8.500000e+08	1.357283e+14	0.000000e+00	7.738095e-01	2.351600e+15	2.630491e+15	1.604441e+14	1.402624e+04	6.468390e+03	2.621073e+03	0	1.388107e-03
8.600000e+08	1.338506e+14	0.000000e+00	7.738095e-01	2.334568e+15	2.611952e+15	1.597015e+14	1.400358e+04	6.463172e+03	2.618959e+03	0	1.381676e-03
8.700000e+08	1.319964e+14	0.000000e+00	7.738095e-01	2.317738e+15	2.593628e+15	1.589640e+14	1.398108e+04	6.457986e+03	2.616858e+03	0	1.375266e-03
8.800000e+08	1.301654e+14	0.000000e+00	7.738095e-01	2.301107e+15	2.575517e+15	1.582315e+14	1.395874e+04	6.452832e+03	2.614769e+03	0	1.368877e-03
8.900000e+08	1.283570e+14	0.000000e+00	7.738095e-01	2.284672e+15	2.557615e+15	1.575041e+14	1.393657e+04	6.447710e+03	2.612694e+03	0	1.362509e-03
9.000000e+08	1.265710e+14	0.000000e+00	7.738095e-01	2.268430e+15	2.539919e+15	1.567816e+14	1.391455e+04	6.442619e+03	2.610631e+03	0	1.356160e-03
9.100000e+08	1.248070e+14	0.000000e+00	7.738095e-01	2.252378e+15	2.522426e+15	1.560642e+14	1.389269e+04	6.437558e+03	2.608580e+03	0	1.349830e-03
9.200000e+08	1.230647e+14	0.000000e+00	7.738095e-01	2.236511e+15	2.505131e+15	1.553516e+14	1.387098e+04	6.432528e+03	2.606542e+03	0	1.343519e-03
9.300000e+08	1.213436e+14	0.000000e+00	7.738095e-01	2.220829e+15	2.488033e+15	1.546439e+14	1.384942e+04	6.427528e+03	2.604516e+03	0	1.337227e-03
9.400000e+08	1.196434e+14	0.000000e+00	7.738095e-01	2.205327e+15	2.471128e+15	1.539410e+14	1.382802e+04	6.422558e+03	2.602502e+03	0	1.330952e-03
9.500000e+08	1.179638e+14	0.000000e+00	7.738095e-01	2.190002e+15	2.454413e+15	1.532430e+14	1.380676e+04	6.417618e+03	2.600500e+03	0	1.324694e-03
9.600000e+08	1.163045e+14	0.000000e+00	7.738095e-01	2.174853e+15	2.437885e+15	1.525497e+14	1.378565e+04	6.412707e+03	2.598510e+03	0	1.318454e-03
9.700000e+08	1.146651e+14	0.000000e+00	7.738095e-01	2.159876e+15	2.421542e+15	1.518611e+14	1.376469e+04	6.407825e+03	2.596532e+03	0	1.312230e-03
9.800000e+08	1.130453e+14	0.000000e+00	7.738095e-01	2.145069e+15	2.405380e+15	1.511772e+14	1.374387e+04	6.402971e+03	2.594565e+03	0	1.306021e-03
9.900000e+08	1.114448e+14	0.000000e+00	7.738095e-01	2.130428e+15	2.389397e+15	1.504980e+14	1.372320e+04	6.398146e+03	2.592610e+03	0	1.299828e-03
1.000000e+09	1.098633e+14	0.000000e+00	7.738095e-01	2.115952e+15	2.373589e+15	1.498233e+14	1.370266e+04	6.393349e+03	2.590666e+03	0	1.293651e-03
1.010000e+09	1.083005e+14	0.000000e+00	7.738095e-01	2.101637e+15	2.357955e+15	1.491533e+14	1.368226e+04	6.388580e+03	2.588733e+03	0	1.287487e-03
1.020000e+09	1.067561e+14	0.000000e+00	7.738095e-01	2.087482e+15	2.342491e+15	1.484877e+14	1.366201e+04	6.383838e+03	2.586812e+03	0	1.281338e-03
1.030000e+09	1.052299e+14	0.000000e+00	7.738095e-01	2.073483e+15	2.327196e+15	1.478267e+14	1.364188e+04	6.379124e+03	2.584902e+03	0	1.275202e-03
1.040000e+09	1.037214e+14	0.000000e+00	7.738095e-01	2.059639e+15	2.312065e+15	1.471702e+14	1.362189e+04	6.374436e+03	2.583002e+03	0	1.269080e-03
1.050000e+09	1.022305e+14	0.000000e+00	7.738095e-01	2.045948e+15	2.297098e+15	1.465181e+14	1.360204e+04	6.369775e+03	2.581114e+03	0	1.262970e-03
1.060000e+09	1.007569e+14	0.000000e+00	7.738095e-01	2.032406e+15	2.282292e+15	1.458703e+14	1.358232e+04	6.365141e+03	2.579236e+03	0	1.256872e-03
1.070000e+09	9.930034e+13	0.000000e+00	7.738095e-01	2.019011e+15	2.267644e+15	1.452270e+14	1.356272e+04	6.360533e+03	2.577368e+03	0	1.250786e-03
1.080000e+09	9.786051e+13	0.000000e+00	7.738095e-01	2.005762e+15	2.253152e+15	1.445880e+14	1.354326e+04	6.355950e+03	2.575512e+03	0	1.244711e-03
1.090000e+09	9.643718e+13	0.000000e+00	7.738095e-01	1.992656e+15	2.238813e+15	1.439532e+14	1.352392e+04	6.351394e+03	2.573665e+03	0	1.238647e-03
1.100000e+09	9.503010e+13	0.000000e+00	7.738095e-01	1.979691e+15	2.224626e+15	1.433228e+14	1.350471e+04	6.346863e+03	2.571829e+03	0	1.232593e-03
1.110000e+09	9.363901e+13	0.000000e+00	7.738095e-01	1.966865e+15	2.210588e+15	1.426965e+14	1.348563e+04	6.342357e+03	2.570003e+03	0	1.226549e-03
1.120000e+09	9.226369e+13	0.000000e+00	7.738095e-01	1.954176e+15	2.196696e+15	1.420745e+14	1.346667e+04	6.337876e+03	2.568188e+03	0	1.220515e-03
1.130000e+09	9.090389e+13	0.000000e+00	7.738095e-01	1.941622e+15	2.182950e+15	1.414566e+14	1.344783e+04	6.333419e+03	2.566382e+03	0	1.214489e-03
1.140000e+09	8.955938e+13	0.000000e+00	7.738095e-01	1.929201e+15	2.169346e+15	1.408429e+14	1.342911e+04	6.328988e+03	2.564586e+03	0	1.208472e-03
1.150000e+09	8.822994e+13	0.000000e+00	7.738095e-01	1.916911e+15	2.155884e+15	1.402332e+14	1.341051e+04	6.324580e+03	2.562800e+03	0	1.202462e-03
1.160000e+09	8.691533e+13	0.000000e+00	7.738095e-01	1.904750e+15	2.142560e+15	1.396276e+14	1.339203e+04	6.320196e+03	2.561024e+03	0	1.196460e-03
1.170000e+09	8.561534e+13	0.000000e+00	7.738095e-01	1.892716e+15	2.129372e+15	1.390261e+14	1.337366e+04	6.315836e+03	2.559257e+03	0	1.190465e-03
1.180000e+09	8.432975e+13	0.000000e+00	7.738095e-01	1.880807e+15	2.116319e+15	1.384285e+14	1.335541e+04	6.311500e+03	2.557500e+03	0	1.184476e-03
1.190000e+09	8.305835e+13	0.000000e+00	7.738095e-01	1.869023e+15	2.103400e+15	1.378350e+14	1.333728e+04	6.307187e+03	2.555752e+03	0	1.178494e-03
1.200000e+09	8.180093e+13	0.000000e+00	7.738095e-01	1.857359e+15	2.090611e+15	1.372453e+14	1.331926e+04	6.302897e+03	2.554014e+03	0	1.172516e-03
1.210000e+09	8.055730e+13	0.000000e+00	7.738095e-01	1.845817e+15	2.077951e+15	1.366596e+14	1.330135e+04	6.298630e+03	2.552285e+03	0	1.166544e-03
1.220000e+09	7.932723e+13	0.000000e+00	7.738095e-01	1.834392e+15	2.065419e+15	1.360778e+14	1.328355e+04	6.294386e+03	2.550565e+03	0	1.160576e-03
1.230000e+09	7.811056e+13	0.000000e+00	7.738095e-01	1.823084e+15	2.053013e+15	1.354998e+14	1.326586e+04	6.290164e+03	2.548854e+03	0	1.154612e-03
1.240000e+09	7.690706e+13	0.000000e+00	7.738095e-01	1.811891e+15	2.040730e+15	1.349256e+14	1.324829e+04	6.285965e+03	2.547153e+03	0	1.148651e-03
1.250000e+09	7.571657e+13	0.000000e+00	7.738095e-01	1.800812e+15	2.028569e+15	1.343552e+14	1.323081e+04	6.281787e+03	2.545460e+03	0	1.142693e-03
1.260000e+09	7.453889e+13	0.000000e+00	7.738095e-01	1.789844e+15	2.016529e+15	1.337886e+14	1.321345e+04	6.277632e+03	2.543776e+03	0	1.136738e-03
1.270000e+09	7.337384e+13	0.000000e+00	7.738095e-01	1.778987e+15	2.004608e+15	1.332257e+14	1.319619e+04	6.273498e+03	2.542101e+03	0	1.130784e-03
1.280000e+09	7.222124e+13	0.000000e+00	7.738095e-01	1.768239e+15	1.992804e+15	1.326665e+14	1.317904e+04	6.269386e+03	2.540434e+03	0	1.124832e-03
1.290000e+09	7.108091e+13	0.000000e+00	7.738095e-01	1.757598e+15	1.981115e+15	1.321110e+14	1.316199e+04	6.265294e+03	2.538777e+03	0	1.118881e-03
1.300000e+09	6.995268e+13	0.000000e+00	7.738095e-01	1.747063e+15	1.969541e+15	1.315591e+14	1.314504e+04	6.261224e+03	2.537127e+03	0	1.112929e-03
1.310000e+09	6.883638e+13	0.000000e+00	7.738095e-01	1.736632e+15	1.958079e+15	1.310109e+14	1.312819e+04	6.257175e+03	2.535487e+03	0	1.106977e-03
1.320000e+09	6.773184e+13	0.000000e+00	7.738095e-01	1.726304e+15	1.946728e+15	1.304662e+14	1.311144e+04	6.253147e+03	2.533854e+03	0	1.101025e-03
1.330000e+09	6.663890e+13	0.000000e+00	7.738095e-01	1.716077e+15	1.935486e+15	1.299251e+14	1.309480e+04	6.249139e+03	2.532230e+03	0	1.095070e-03
1.340000e+09	6.555739e+13	0.000000e+00	7.738095e-01	1.705951e+15	1.924353e+15	1.293876e+14	1.307825e+04	6.245151e+03	2.530614e+03	0	1.089114e-03
1.350000e+09	6.448717e+13	0.000000e+00	7.738095e-01	1.695923e+15	1.913326e+15	1.288535e+14	1.306180e+04	6.241184e+03	2.529007e+03	0	1.083155e-03
1.360000e+09	6.342806e+13	0.000000e+00	7.738095e-01	1.685993e+15	1.902404e+15	1.283229e+14	1.304544e+04	6.237236e+03	2.527407e+03	0	1.077192e-03
