#t		Qconv[W]	Ri[Rp]		R*[Rp]		Qc[W]		Qm[W]		Qr[W]		Tcmb[K]		Tl[K]		Tup[K]		RiFlag		Bs[T]
0.000000e+00	3.802820e+14	0.000000e+00	7.619052e-01	6.485105e+15	3.245323e+15	3.392733e+14	1.975194e+04	7.223229e+03	2.751397e+03	0	1.964046e-03
1.000000e+07	3.785093e+14	0.000000e+00	7.619052e-01	6.464252e+15	3.582073e+15	3.373934e+14	1.971233e+04	7.341402e+03	2.796411e+03	0	1.960990e-03
2.000000e+07	3.760935e+14	0.000000e+00	7.619052e-01	6.438426e+15	3.902247e+15	3.355277e+14	1.967284e+04	7.447359e+03	2.836771e+03	0	1.956809e-03
3.000000e+07	3.731339e+14	0.000000e+00	7.619052e-01	6.408403e+15	4.201266e+15	3.336758e+14	1.963352e+04	7.541585e+03	2.872662e+03	0	1.951662e-03
4.000000e+07	3.697222e+14	0.000000e+00	7.619052e-01	6.374900e+15	4.475928e+15	3.318378e+14	1.959437e+04	7.624729e+03	2.904333e+03	0	1.945696e-03
5.000000e+07	3.659407e+14	0.000000e+00	7.619052e-01	6.338561e+15	4.724340e+15	3.300136e+14	1.955543e+04	7.697553e+03	2.932072e+03	0	1.939040e-03
6.000000e+07	3.618613e+14	0.000000e+00	7.619052e-01	6.299948e+15	4.945758e+15	3.282029e+14	1.951671e+04	7.760888e+03	2.956197e+03	0	1.931807e-03
7.000000e+07	3.575462e+14	0.000000e+00	7.619052e-01	6.259545e+15	5.140382e+15	3.264057e+14	1.947823e+04	7.815592e+03	2.977034e+03	0	1.924098e-03
8.000000e+07	3.530479e+14	0.000000e+00	7.619052e-01	6.217763e+15	5.309138e+15	3.246218e+14	1.943999e+04	7.862521e+03	2.994910e+03	0	1.915995e-03
9.000000e+07	3.484103e+14	0.000000e+00	7.619052e-01	6.174945e+15	5.453470e+15	3.228513e+14	1.940201e+04	7.902502e+03	3.010139e+03	0	1.907568e-03
1.000000e+08	3.436701e+14	0.000000e+00	7.619052e-01	6.131375e+15	5.575152e+15	3.210938e+14	1.936428e+04	7.936319e+03	3.023020e+03	0	1.898878e-03
1.100000e+08	3.388572e+14	0.000000e+00	7.619052e-01	6.087289e+15	5.676146e+15	3.193494e+14	1.932683e+04	7.964699e+03	3.033831e+03	0	1.889972e-03
1.200000e+08	3.339962e+14	0.000000e+00	7.619052e-01	6.042877e+15	5.758474e+15	3.176180e+14	1.928964e+04	7.988310e+03	3.042824e+03	0	1.880891e-03
1.300000e+08	3.291072e+14	0.000000e+00	7.619052e-01	5.998296e+15	5.824138e+15	3.158993e+14	1.925272e+04	8.007754e+03	3.050231e+03	0	1.871668e-03
1.400000e+08	3.242065e+14	0.000000e+00	7.619052e-01	5.953672e+15	5.875052e+15	3.141934e+14	1.921608e+04	8.023572e+03	3.056256e+03	0	1.862331e-03
1.500000e+08	3.193071e+14	0.000000e+00	7.619052e-01	5.909108e+15	5.913012e+15	3.125001e+14	1.917970e+04	8.036244e+03	3.061083e+03	0	1.852903e-03
1.600000e+08	3.144198e+14	0.000000e+00	7.619052e-01	5.864685e+15	5.939666e+15	3.108193e+14	1.914360e+04	8.046192e+03	3.064872e+03	0	1.843401e-03
1.700000e+08	3.095532e+14	0.000000e+00	7.619052e-01	5.820472e+15	5.956509e+15	3.091509e+14	1.910777e+04	8.053790e+03	3.067766e+03	0	1.833840e-03
1.800000e+08	3.047141e+14	0.000000e+00	7.619052e-01	5.776521e+15	5.964880e+15	3.074948e+14	1.907221e+04	8.059362e+03	3.069889e+03	0	1.824234e-03
1.900000e+08	2.999080e+14	0.000000e+00	7.619052e-01	5.732874e+15	5.965966e+15	3.058509e+14	1.903692e+04	8.063191e+03	3.071347e+03	0	1.814593e-03
2.000000e+08	2.951394e+14	0.000000e+00	7.619052e-01	5.689566e+15	5.960817e+15	3.042191e+14	1.900189e+04	8.065523e+03	3.072235e+03	0	1.804924e-03
2.100000e+08	2.904117e+14	0.000000e+00	7.619052e-01	5.646622e+15	5.950350e+15	3.025993e+14	1.896713e+04	8.066570e+03	3.072634e+03	0	1.795234e-03
2.200000e+08	2.857276e+14	0.000000e+00	7.619052e-01	5.604065e+15	5.935364e+15	3.009914e+14	1.893262e+04	8.066516e+03	3.072614e+03	0	1.785530e-03
2.300000e+08	2.810893e+14	0.000000e+00	7.619052e-01	5.561910e+15	5.916556e+15	2.993953e+14	1.889838e+04	8.065519e+03	3.072234e+03	0	1.775816e-03
2.400000e+08	2.764984e+14	0.000000e+00	7.619052e-01	5.520168e+15	5.894524e+15	2.978109e+14	1.886440e+04	8.063716e+03	3.071547e+03	0	1.766095e-03
2.500000e+08	2.719561e+14	0.000000e+00	7.619052e-01	5.478850e+15	5.869788e+15	2.962381e+14	1.883067e+04	8.061224e+03	3.070598e+03	0	1.756370e-03
2.600000e+08	2.674633e+14	0.000000e+00	7.619052e-01	5.437962e+15	5.842794e+15	2.946768e+14	1.879719e+04	8.058145e+03	3.069425e+03	0	1.746644e-03
2.700000e+08	2.630205e+14	0.000000e+00	7.619052e-01	5.397506e+15	5.813926e+15	2.931270e+14	1.876396e+04	8.054565e+03	3.068062e+03	0	1.736919e-03
2.800000e+08	2.586282e+14	0.000000e+00	7.619052e-01	5.357487e+15	5.783512e+15	2.915884e+14	1.873097e+04	8.050560e+03	3.066536e+03	0	1.727196e-03
2.900000e+08	2.542864e+14	0.000000e+00	7.619052e-01	5.317904e+15	5.751834e+15	2.900611e+14	1.869823e+04	8.046192e+03	3.064872e+03	0	1.717477e-03
3.000000e+08	2.499953e+14	0.000000e+00	7.619052e-01	5.278758e+15	5.719133e+15	2.885449e+14	1.866574e+04	8.041518e+03	3.063092e+03	0	1.707761e-03
3.100000e+08	2.457547e+14	0.000000e+00	7.619052e-01	5.240046e+15	5.685615e+15	2.870397e+14	1.863348e+04	8.036585e+03	3.061213e+03	0	1.698050e-03
3.200000e+08	2.415643e+14	0.000000e+00	7.619052e-01	5.201768e+15	5.651456e+15	2.855455e+14	1.860145e+04	8.031434e+03	3.059250e+03	0	1.688343e-03
3.300000e+08	2.374240e+14	0.000000e+00	7.619052e-01	5.163919e+15	5.616806e+15	2.840622e+14	1.856966e+04	8.026099e+03	3.057218e+03	0	1.678642e-03
3.400000e+08	2.333332e+14	0.000000e+00	7.619052e-01	5.126497e+15	5.581792e+15	2.825897e+14	1.853811e+04	8.020610e+03	3.055128e+03	0	1.668945e-03
3.500000e+08	2.292916e+14	0.000000e+00	7.619052e-01	5.089498e+15	5.546524e+15	2.811278e+14	1.850678e+04	8.014994e+03	3.052989e+03	0	1.659253e-03
3.600000e+08	2.252987e+14	0.000000e+00	7.619052e-01	5.052917e+15	5.511094e+15	2.796765e+14	1.847567e+04	8.009273e+03	3.050809e+03	0	1.649565e-03
3.700000e+08	2.213540e+14	0.000000e+00	7.619052e-01	5.016751e+15	5.475580e+15	2.782357e+14	1.844479e+04	8.003465e+03	3.048597e+03	0	1.639881e-03
3.800000e+08	2.174569e+14	0.000000e+00	7.619052e-01	4.980994e+15	5.440048e+15	2.768054e+14	1.841413e+04	7.997588e+03	3.046358e+03	0	1.630200e-03
3.900000e+08	2.136069e+14	0.000000e+00	7.619052e-01	4.945642e+15	5.404557e+15	2.753854e+14	1.838368e+04	7.991655e+03	3.044098e+03	0	1.620522e-03
4.000000e+08	2.098034e+14	0.000000e+00	7.619052e-01	4.910689e+15	5.369152e+15	2.739756e+14	1.835345e+04	7.985679e+03	3.041822e+03	0	1.610846e-03
4.100000e+08	2.060457e+14	0.000000e+00	7.619052e-01	4.876131e+15	5.333875e+15	2.725761e+14	1.832344e+04	7.979669e+03	3.039533e+03	0	1.601171e-03
4.200000e+08	2.023334e+14	0.000000e+00	7.619052e-01	4.841962e+15	5.298759e+15	2.711866e+14	1.829364e+04	7.973636e+03	3.037235e+03	0	1.591496e-03
4.300000e+08	1.986657e+14	0.000000e+00	7.619052e-01	4.808178e+15	5.263833e+15	2.698071e+14	1.826404e+04	7.967586e+03	3.034930e+03	0	1.581821e-03
4.400000e+08	1.950420e+14	0.000000e+00	7.619052e-01	4.774773e+15	5.229119e+15	2.684375e+14	1.823465e+04	7.961527e+03	3.032622e+03	0	1.572145e-03
4.500000e+08	1.914618e+14	0.000000e+00	7.619052e-01	4.741741e+15	5.194639e+15	2.670778e+14	1.820546e+04	7.955464e+03	3.030313e+03	0	1.562466e-03
4.600000e+08	1.879244e+14	0.000000e+00	7.619052e-01	4.709078e+15	5.160407e+15	2.657279e+14	1.817648e+04	7.949402e+03	3.028004e+03	0	1.552783e-03
4.700000e+08	1.844292e+14	0.000000e+00	7.619052e-01	4.676779e+15	5.126438e+15	2.643876e+14	1.814770e+04	7.943345e+03	3.025696e+03	0	1.543096e-03
4.800000e+08	1.809755e+14	0.000000e+00	7.619052e-01	4.644838e+15	5.092742e+15	2.630569e+14	1.811911e+04	7.937297e+03	3.023393e+03	0	1.533403e-03
4.900000e+08	1.775629e+14	0.000000e+00	7.619052e-01	4.613250e+15	5.059328e+15	2.617358e+14	1.809071e+04	7.931260e+03	3.021094e+03	0	1.523704e-03
5.000000e+08	1.741907e+14	0.000000e+00	7.619052e-01	4.582011e+15	5.026202e+15	2.604241e+14	1.806251e+04	7.925239e+03	3.018800e+03	0	1.513996e-03
5.100000e+08	1.708582e+14	0.000000e+00	7.619052e-01	4.551114e+15	4.993370e+15	2.591217e+14	1.803450e+04	7.919235e+03	3.016513e+03	0	1.504279e-03
5.200000e+08	1.675649e+14	0.000000e+00	7.619052e-01	4.520556e+15	4.960836e+15	2.578287e+14	1.800668e+04	7.913249e+03	3.014233e+03	0	1.494551e-03
5.300000e+08	1.643103e+14	0.000000e+00	7.619052e-01	4.490331e+15	4.928602e+15	2.565449e+14	1.797905e+04	7.907284e+03	3.011961e+03	0	1.484812e-03
5.400000e+08	1.610937e+14	0.000000e+00	7.619052e-01	4.460435e+15	4.896671e+15	2.552702e+14	1.795160e+04	7.901341e+03	3.009697e+03	0	1.475059e-03
5.500000e+08	1.579146e+14	0.000000e+00	7.619052e-01	4.430862e+15	4.865043e+15	2.540046e+14	1.792433e+04	7.895420e+03	3.007442e+03	0	1.465291e-03
5.600000e+08	1.547724e+14	0.000000e+00	7.619052e-01	4.401609e+15	4.833719e+15	2.527480e+14	1.789724e+04	7.889524e+03	3.005196e+03	0	1.455507e-03
5.700000e+08	1.516667e+14	0.000000e+00	7.619052e-01	4.372670e+15	4.802698e+15	2.515004e+14	1.787033e+04	7.883653e+03	3.002959e+03	0	1.445705e-03
5.800000e+08	1.485967e+14	0.000000e+00	7.619052e-01	4.344042e+15	4.771979e+15	2.502615e+14	1.784360e+04	7.877808e+03	3.000733e+03	0	1.435884e-03
5.900000e+08	1.455621e+14	0.000000e+00	7.619052e-01	4.315718e+15	4.741561e+15	2.490315e+14	1.781704e+04	7.871988e+03	2.998516e+03	0	1.426043e-03
6.000000e+08	1.425622e+14	0.000000e+00	7.619052e-01	4.287696e+15	4.711443e+15	2.478102e+14	1.779065e+04	7.866196e+03	2.996310e+03	0	1.416178e-03
6.100000e+08	1.395966e+14	0.000000e+00	7.619052e-01	4.259971e+15	4.681622e+15	2.465975e+14	1.776444e+04	7.860430e+03	2.994113e+03	0	1.406290e-03
6.200000e+08	1.366648e+14	0.000000e+00	7.619052e-01	4.232538e+15	4.652096e+15	2.453933e+14	1.773839e+04	7.854691e+03	2.991928e+03	0	1.396375e-03
6.300000e+08	1.337663e+14	0.000000e+00	7.619052e-01	4.205394e+15	4.622863e+15	2.441977e+14	1.771251e+04	7.848980e+03	2.989752e+03	0	1.386432e-03
6.400000e+08	1.309005e+14	0.000000e+00	7.619052e-01	4.178534e+15	4.593920e+15	2.430105e+14	1.768680e+04	7.843297e+03	2.987587e+03	0	1.376460e-03
6.500000e+08	1.280671e+14	0.000000e+00	7.619052e-01	4.151954e+15	4.565265e+15	2.418317e+14	1.766125e+04	7.837642e+03	2.985433e+03	0	1.366456e-03
6.600000e+08	1.252654e+14	0.000000e+00	7.619052e-01	4.125651e+15	4.536894e+15	2.406611e+14	1.763587e+04	7.832014e+03	2.983290e+03	0	1.356418e-03
6.700000e+08	1.224952e+14	0.000000e+00	7.619052e-01	4.099620e+15	4.508805e+15	2.394988e+14	1.761064e+04	7.826415e+03	2.981157e+03	0	1.346344e-03
6.800000e+08	1.197558e+14	0.000000e+00	7.619052e-01	4.073857e+15	4.480995e+15	2.383447e+14	1.758557e+04	7.820843e+03	2.979034e+03	0	1.336232e-03
6.900000e+08	1.170469e+14	0.000000e+00	7.619052e-01	4.048359e+15	4.453460e+15	2.371987e+14	1.756066e+04	7.815299e+03	2.976923e+03	0	1.326080e-03
7.000000e+08	1.143680e+14	0.000000e+00	7.619052e-01	4.023122e+15	4.426197e+15	2.360606e+14	1.753591e+04	7.809783e+03	2.974822e+03	0	1.315885e-03
7.100000e+08	1.117187e+14	0.000000e+00	7.619052e-01	3.998143e+15	4.399204e+15	2.349306e+14	1.751131e+04	7.804295e+03	2.972731e+03	0	1.305645e-03
7.200000e+08	1.090986e+14	0.000000e+00	7.619052e-01	3.973417e+15	4.372476e+15	2.338085e+14	1.748686e+04	7.798834e+03	2.970651e+03	0	1.295357e-03
7.300000e+08	1.065072e+14	0.000000e+00	7.619052e-01	3.948942e+15	4.346012e+15	2.326941e+14	1.746257e+04	7.793400e+03	2.968581e+03	0	1.285019e-03
7.400000e+08	1.039442e+14	0.000000e+00	7.619052e-01	3.924713e+15	4.319807e+15	2.315876e+14	1.743842e+04	7.787995e+03	2.966522e+03	0	1.274627e-03
7.500000e+08	1.014091e+14	0.000000e+00	7.619052e-01	3.900728e+15	4.293859e+15	2.304888e+14	1.741442e+04	7.782616e+03	2.964473e+03	0	1.264179e-03
7.600000e+08	9.890147e+13	0.000000e+00	7.619052e-01	3.876983e+15	4.268164e+15	2.293977e+14	1.739056e+04	7.777264e+03	2.962435e+03	0	1.253672e-03
7.700000e+08	9.642102e+13	0.000000e+00	7.619052e-01	3.853475e+15	4.242719e+15	2.283141e+14	1.736686e+04	7.771940e+03	2.960407e+03	0	1.243103e-03
7.800000e+08	9.396734e+13	0.000000e+00	7.619052e-01	3.830200e+15	4.217521e+15	2.272381e+14	1.734329e+04	7.766642e+03	2.958389e+03	0	1.232467e-03
7.900000e+08	9.154004e+13	0.000000e+00	7.619052e-01	3.807156e+15	4.192568e+15	2.261695e+14	1.731987e+04	7.761370e+03	2.956381e+03	0	1.221763e-03
8.000000e+08	8.913875e+13	0.000000e+00	7.619052e-01	3.784339e+15	4.167855e+15	2.251084e+14	1.729659e+04	7.756125e+03	2.954383e+03	0	1.210985e-03
8.100000e+08	8.676312e+13	0.000000e+00	7.619052e-01	3.761746e+15	4.143380e+15	2.240546e+14	1.727344e+04	7.750906e+03	2.952395e+03	0	1.200130e-03
8.200000e+08	8.441277e+13	0.000000e+00	7.619052e-01	3.739374e+15	4.119140e+15	2.230081e+14	1.725044e+04	7.745714e+03	2.950417e+03	0	1.189193e-03
8.300000e+08	8.208737e+13	0.000000e+00	7.619052e-01	3.717220e+15	4.095131e+15	2.219688e+14	1.722757e+04	7.740547e+03	2.948449e+03	0	1.178172e-03
8.400000e+08	7.978657e+13	0.000000e+00	7.619052e-01	3.695282e+15	4.071352e+15	2.209367e+14	1.720484e+04	7.735406e+03	2.946491e+03	0	1.167060e-03
8.500000e+08	7.751003e+13	0.000000e+00	7.619052e-01	3.673556e+15	4.047799e+15	2.199117e+14	1.718224e+04	7.730290e+03	2.944542e+03	0	1.155852e-03
8.600000e+08	7.525741e+13	0.000000e+00	7.619052e-01	3.652040e+15	4.024468e+15	2.188938e+14	1.715977e+04	7.725199e+03	2.942603e+03	0	1.144545e-03
8.700000e+08	7.302839e+13	0.000000e+00	7.619052e-01	3.630730e+15	4.001358e+15	2.178829e+14	1.713744e+04	7.720134e+03	2.940673e+03	0	1.133132e-03
8.800000e+08	7.082265e+13	0.000000e+00	7.619052e-01	3.609625e+15	3.978466e+15	2.168790e+14	1.711523e+04	7.715094e+03	2.938753e+03	0	1.121606e-03
8.900000e+08	6.863986e+13	0.000000e+00	7.619052e-01	3.588721e+15	3.955788e+15	2.158820e+14	1.709315e+04	7.710078e+03	2.936843e+03	0	1.109963e-03
9.000000e+08	6.647972e+13	0.000000e+00	7.619052e-01	3.568015e+15	3.933322e+15	2.148918e+14	1.707121e+04	7.705086e+03	2.934942e+03	0	1.098195e-03
9.100000e+08	6.434192e+13	0.000000e+00	7.619052e-01	3.547506e+15	3.911066e+15	2.139083e+14	1.704938e+04	7.700119e+03	2.933050e+03	0	1.086295e-03
9.200000e+08	6.222616e+13	0.000000e+00	7.619052e-01	3.527191e+15	3.889016e+15	2.129317e+14	1.702769e+04	7.695177e+03	2.931167e+03	0	1.074255e-03
9.300000e+08	6.013215e+13	0.000000e+00	7.619052e-01	3.507066e+15	3.867171e+15	2.119617e+14	1.700611e+04	7.690258e+03	2.929293e+03	0	1.062067e-03
9.400000e+08	5.805959e+13	0.000000e+00	7.619052e-01	3.487130e+15	3.845527e+15	2.109983e+14	1.698466e+04	7.685362e+03	2.927429e+03	0	1.049722e-03
9.500000e+08	5.600820e+13	0.000000e+00	7.619052e-01	3.467381e+15	3.824082e+15	2.100415e+14	1.696333e+04	7.680491e+03	2.925573e+03	0	1.037211e-03
9.600000e+08	5.397769e+13	0.000000e+00	7.619052e-01	3.447815e+15	3.802833e+15	2.090912e+14	1.694213e+04	7.675643e+03	2.923726e+03	0	1.024522e-03
9.700000e+08	5.196779e+13	0.000000e+00	7.619052e-01	3.428431e+15	3.781779e+15	2.081474e+14	1.692104e+04	7.670817e+03	2.921888e+03	0	1.011644e-03
9.800000e+08	4.997822e+13	0.000000e+00	7.619052e-01	3.409225e+15	3.760916e+15	2.072101e+14	1.690007e+04	7.666015e+03	2.920059e+03	0	9.985659e-04
9.900000e+08	4.800873e+13	0.000000e+00	7.619052e-01	3.390197e+15	3.740242e+15	2.062791e+14	1.687921e+04	7.661236e+03	2.918239e+03	0	9.852728e-04
1.000000e+09	4.605904e+13	0.000000e+00	7.619052e-01	3.371343e+15	3.719756e+15	2.053544e+14	1.685848e+04	7.656479e+03	2.916427e+03	0	9.717504e-04
1.010000e+09	4.412890e+13	0.000000e+00	7.619052e-01	3.352662e+15	3.699454e+15	2.044360e+14	1.683786e+04	7.651745e+03	2.914623e+03	0	9.579823e-04
1.020000e+09	4.221805e+13	0.000000e+00	7.619052e-01	3.334151e+15	3.679334e+15	2.035238e+14	1.681735e+04	7.647033e+03	2.912829e+03	0	9.439503e-04
1.030000e+09	4.032624e+13	0.000000e+00	7.619052e-01	3.315808e+15	3.659394e+15	2.026178e+14	1.679695e+04	7.642344e+03	2.911042e+03	0	9.296347e-04
1.040000e+09	3.845322e+13	0.000000e+00	7.619052e-01	3.297631e+15	3.639632e+15	2.017179e+14	1.677667e+04	7.637676e+03	2.909264e+03	0	9.150131e-04
1.050000e+09	3.659875e+13	0.000000e+00	7.619052e-01	3.279618e+15	3.620046e+15	2.008241e+14	1.675650e+04	7.633029e+03	2.907494e+03	0	9.000608e-04
1.060000e+09	3.476260e+13	0.000000e+00	7.619052e-01	3.261767e+15	3.600634e+15	1.999363e+14	1.673644e+04	7.628405e+03	2.905733e+03	0	8.847499e-04
1.070000e+09	3.294452e+13	0.000000e+00	7.619052e-01	3.244076e+15	3.581393e+15	1.990545e+14	1.671649e+04	7.623802e+03	2.903980e+03	0	8.690488e-04
1.080000e+09	3.114429e+13	0.000000e+00	7.619052e-01	3.226543e+15	3.562321e+15	1.981786e+14	1.669664e+04	7.619220e+03	2.902234e+03	0	8.529219e-04
1.090000e+09	2.936168e+13	0.000000e+00	7.619052e-01	3.209166e+15	3.543417e+15	1.973086e+14	1.667690e+04	7.614659e+03	2.900497e+03	0	8.363282e-04
1.100000e+09	2.759646e+13	0.000000e+00	7.619052e-01	3.191943e+15	3.524678e+15	1.964445e+14	1.665727e+04	7.610119e+03	2.898768e+03	0	8.192207e-04
1.110000e+09	2.584842e+13	0.000000e+00	7.619052e-01	3.174872e+15	3.506102e+15	1.955861e+14	1.663775e+04	7.605600e+03	2.897046e+03	0	8.015447e-04
1.120000e+09	2.411733e+13	0.000000e+00	7.619052e-01	3.157952e+15	3.487688e+15	1.947335e+14	1.661832e+04	7.601101e+03	2.895333e+03	0	7.832364e-04
1.130000e+09	2.240299e+13	0.000000e+00	7.619052e-01	3.141180e+15	3.469433e+15	1.938866e+14	1.659901e+04	7.596623e+03	2.893627e+03	0	7.642200e-04
1.140000e+09	2.070518e+13	0.000000e+00	7.619052e-01	3.124555e+15	3.451336e+15	1.930454e+14	1.657979e+04	7.592165e+03	2.891929e+03	0	7.444052e-04
1.150000e+09	1.902369e+13	0.000000e+00	7.619052e-01	3.108075e+15	3.433394e+15	1.922098e+14	1.656067e+04	7.587728e+03	2.890238e+03	0	7.236825e-04
1.160000e+09	1.735833e+13	0.000000e+00	7.619052e-01	3.091738e+15	3.415606e+15	1.913797e+14	1.654166e+04	7.583310e+03	2.888556e+03	0	7.019170e-04
1.170000e+09	1.570889e+13	0.000000e+00	7.619052e-01	3.075543e+15	3.397971e+15	1.905552e+14	1.652275e+04	7.578912e+03	2.886880e+03	0	6.789404e-04
1.180000e+09	1.407518e+13	0.000000e+00	7.619052e-01	3.059487e+15	3.380485e+15	1.897362e+14	1.650393e+04	7.574533e+03	2.885213e+03	0	6.545373e-04
1.190000e+09	1.245700e+13	0.000000e+00	7.619052e-01	3.043570e+15	3.363148e+15	1.889226e+14	1.648521e+04	7.570174e+03	2.883552e+03	0	6.284261e-04
1.200000e+09	1.085415e+13	0.000000e+00	7.619052e-01	3.027789e+15	3.345958e+15	1.881144e+14	1.646659e+04	7.565835e+03	2.881899e+03	0	6.002264e-04
1.210000e+09	9.266458e+12	0.000000e+00	7.619052e-01	3.012144e+15	3.328913e+15	1.873116e+14	1.644807e+04	7.561515e+03	2.880254e+03	0	5.694047e-04
1.220000e+09	7.693728e+12	0.000000e+00	7.619052e-01	2.996631e+15	3.312011e+15	1.865141e+14	1.642964e+04	7.557213e+03	2.878615e+03	0	5.351745e-04
1.230000e+09	6.135781e+12	0.000000e+00	7.619052e-01	2.981250e+15	3.295251e+15	1.857219e+14	1.641131e+04	7.552931e+03	2.876984e+03	0	4.962948e-04
1.240000e+09	4.592436e+12	0.000000e+00	7.619052e-01	2.966000e+15	3.278631e+15	1.849349e+14	1.639307e+04	7.548667e+03	2.875360e+03	0	4.506065e-04
1.250000e+09	3.063516e+12	0.000000e+00	7.619052e-01	2.950878e+15	3.262149e+15	1.841531e+14	1.637492e+04	7.544422e+03	2.873743e+03	0	3.937221e-04
1.260000e+09	1.548846e+12	0.000000e+00	7.619052e-01	2.935884e+15	3.245805e+15	1.833765e+14	1.635687e+04	7.540196e+03	2.872133e+03	0	3.136552e-04
1.270000e+09	4.825435e+10	0.000000e+00	7.619052e-01	2.921015e+15	3.229595e+15	1.826049e+14	1.633891e+04	7.535988e+03	2.870530e+03	0	9.869502e-05
1.280000e+09	-1.438428e+12	0.000000e+00	7.619052e-01	2.906271e+15	3.213520e+15	1.818385e+14	1.632104e+04	7.531798e+03	2.868934e+03	0	nan
