#t		Qconv[W]	Ri[Rp]		R*[Rp]		Qc[W]		Qm[W]		Qr[W]		Tcmb[K]		Tl[K]		Tup[K]		RiFlag		Bs[T]
0.000000e+00	3.671612e+14	0.000000e+00	7.619048e-01	6.792920e+15	3.240574e+15	3.494286e+14	2.019100e+04	7.338470e+03	2.767928e+03	0	1.940400e-03
1.000000e+07	3.658549e+14	0.000000e+00	7.619048e-01	6.775159e+15	3.596685e+15	3.474925e+14	2.015202e+04	7.464222e+03	2.815359e+03	0	1.938096e-03
2.000000e+07	3.638393e+14	0.000000e+00	7.619048e-01	6.751901e+15	3.938261e+15	3.455709e+14	2.011314e+04	7.577480e+03	2.858078e+03	0	1.934530e-03
3.000000e+07	3.612186e+14	0.000000e+00	7.619048e-01	6.723963e+15	4.259979e+15	3.436637e+14	2.007439e+04	7.678644e+03	2.896235e+03	0	1.929874e-03
4.000000e+07	3.580904e+14	0.000000e+00	7.619048e-01	6.692108e+15	4.557918e+15	3.417707e+14	2.003581e+04	7.768299e+03	2.930051e+03	0	1.924287e-03
5.000000e+07	3.545430e+14	0.000000e+00	7.619048e-01	6.657029e+15	4.829532e+15	3.398918e+14	1.999740e+04	7.847163e+03	2.959797e+03	0	1.917911e-03
6.000000e+07	3.506547e+14	0.000000e+00	7.619048e-01	6.619339e+15	5.073534e+15	3.380269e+14	1.995920e+04	7.916046e+03	2.985778e+03	0	1.910874e-03
7.000000e+07	3.464937e+14	0.000000e+00	7.619048e-01	6.579568e+15	5.289699e+15	3.361759e+14	1.992121e+04	7.975799e+03	3.008316e+03	0	1.903286e-03
8.000000e+07	3.421178e+14	0.000000e+00	7.619048e-01	6.538172e+15	5.478648e+15	3.343387e+14	1.988345e+04	8.027288e+03	3.027737e+03	0	1.895240e-03
9.000000e+07	3.375759e+14	0.000000e+00	7.619048e-01	6.495530e+15	5.641627e+15	3.325151e+14	1.984593e+04	8.071360e+03	3.044360e+03	0	1.886815e-03
1.000000e+08	3.329087e+14	0.000000e+00	7.619048e-01	6.451961e+15	5.780312e+15	3.307050e+14	1.980865e+04	8.108825e+03	3.058491e+03	0	1.878079e-03
1.100000e+08	3.281498e+14	0.000000e+00	7.619048e-01	6.407728e+15	5.896634e+15	3.289084e+14	1.977162e+04	8.140445e+03	3.070417e+03	0	1.869088e-03
1.200000e+08	3.233269e+14	0.000000e+00	7.619048e-01	6.363046e+15	5.992647e+15	3.271252e+14	1.973485e+04	8.166918e+03	3.080403e+03	0	1.859885e-03
1.300000e+08	3.184625e+14	0.000000e+00	7.619048e-01	6.318091e+15	6.070423e+15	3.253551e+14	1.969833e+04	8.188884e+03	3.088688e+03	0	1.850511e-03
1.400000e+08	3.135749e+14	0.000000e+00	7.619048e-01	6.273007e+15	6.131975e+15	3.235981e+14	1.966207e+04	8.206917e+03	3.095490e+03	0	1.840995e-03
1.500000e+08	3.086792e+14	0.000000e+00	7.619048e-01	6.227909e+15	6.179211e+15	3.218541e+14	1.962606e+04	8.221530e+03	3.101001e+03	0	1.831364e-03
1.600000e+08	3.037873e+14	0.000000e+00	7.619048e-01	6.182892e+15	6.213900e+15	3.201230e+14	1.959032e+04	8.233178e+03	3.105395e+03	0	1.821638e-03
1.700000e+08	2.989090e+14	0.000000e+00	7.619048e-01	6.138031e+15	6.237659e+15	3.184047e+14	1.955483e+04	8.242260e+03	3.108820e+03	0	1.811835e-03
1.800000e+08	2.940523e+14	0.000000e+00	7.619048e-01	6.093388e+15	6.251944e+15	3.166990e+14	1.951960e+04	8.249127e+03	3.111410e+03	0	1.801968e-03
1.900000e+08	2.892234e+14	0.000000e+00	7.619048e-01	6.049011e+15	6.258055e+15	3.150059e+14	1.948462e+04	8.254086e+03	3.113281e+03	0	1.792050e-03
2.000000e+08	2.844274e+14	0.000000e+00	7.619048e-01	6.004939e+15	6.257145e+15	3.133252e+14	1.944990e+04	8.257403e+03	3.114532e+03	0	1.782089e-03
2.100000e+08	2.796684e+14	0.000000e+00	7.619048e-01	5.961204e+15	6.250226e+15	3.116570e+14	1.941543e+04	8.259309e+03	3.115251e+03	0	1.772094e-03
2.200000e+08	2.749496e+14	0.000000e+00	7.619048e-01	5.917830e+15	6.238184e+15	3.100009e+14	1.938122e+04	8.260004e+03	3.115513e+03	0	1.762070e-03
2.300000e+08	2.702734e+14	0.000000e+00	7.619048e-01	5.874837e+15	6.221789e+15	3.083570e+14	1.934725e+04	8.259660e+03	3.115383e+03	0	1.752024e-03
2.400000e+08	2.656419e+14	0.000000e+00	7.619048e-01	5.832239e+15	6.201711e+15	3.067252e+14	1.931352e+04	8.258427e+03	3.114918e+03	0	1.741958e-03
2.500000e+08	2.610566e+14	0.000000e+00	7.619048e-01	5.790048e+15	6.178528e+15	3.051053e+14	1.928004e+04	8.256433e+03	3.114166e+03	0	1.731877e-03
2.600000e+08	2.565185e+14	0.000000e+00	7.619048e-01	5.748272e+15	6.152740e+15	3.034973e+14	1.924680e+04	8.253789e+03	3.113169e+03	0	1.721783e-03
2.700000e+08	2.520286e+14	0.000000e+00	7.619048e-01	5.706916e+15	6.124775e+15	3.019010e+14	1.921381e+04	8.250590e+03	3.111962e+03	0	1.711678e-03
2.800000e+08	2.475873e+14	0.000000e+00	7.619048e-01	5.665985e+15	6.095005e+15	3.003164e+14	1.918104e+04	8.246918e+03	3.110577e+03	0	1.701564e-03
2.900000e+08	2.431949e+14	0.000000e+00	7.619048e-01	5.625480e+15	6.063744e+15	2.987434e+14	1.914852e+04	8.242843e+03	3.109040e+03	0	1.691442e-03
3.000000e+08	2.388517e+14	0.000000e+00	7.619048e-01	5.585403e+15	6.031265e+15	2.971818e+14	1.911622e+04	8.238426e+03	3.107374e+03	0	1.681312e-03
3.100000e+08	2.345576e+14	0.000000e+00	7.619048e-01	5.545753e+15	5.997800e+15	2.956316e+14	1.908415e+04	8.233718e+03	3.105598e+03	0	1.671176e-03
3.200000e+08	2.303126e+14	0.000000e+00	7.619048e-01	5.506528e+15	5.963547e+15	2.940927e+14	1.905232e+04	8.228765e+03	3.103730e+03	0	1.661033e-03
3.300000e+08	2.261164e+14	0.000000e+00	7.619048e-01	5.467728e+15	5.928678e+15	2.925650e+14	1.902070e+04	8.223605e+03	3.101784e+03	0	1.650883e-03
3.400000e+08	2.219688e+14	0.000000e+00	7.619048e-01	5.429348e+15	5.893335e+15	2.910483e+14	1.898931e+04	8.218272e+03	3.099772e+03	0	1.640727e-03
3.500000e+08	2.178694e+14	0.000000e+00	7.619048e-01	5.391386e+15	5.857644e+15	2.895427e+14	1.895814e+04	8.212792e+03	3.097706e+03	0	1.630563e-03
3.600000e+08	2.138178e+14	0.000000e+00	7.619048e-01	5.353838e+15	5.821709e+15	2.880480e+14	1.892718e+04	8.207192e+03	3.095593e+03	0	1.620392e-03
3.700000e+08	2.098136e+14	0.000000e+00	7.619048e-01	5.316701e+15	5.785620e+15	2.865641e+14	1.889644e+04	8.201492e+03	3.093443e+03	0	1.610213e-03
3.800000e+08	2.058562e+14	0.000000e+00	7.619048e-01	5.279970e+15	5.749453e+15	2.850909e+14	1.886592e+04	8.195710e+03	3.091262e+03	0	1.600026e-03
3.900000e+08	2.019453e+14	0.000000e+00	7.619048e-01	5.243640e+15	5.713273e+15	2.836284e+14	1.883560e+04	8.189862e+03	3.089057e+03	0	1.589828e-03
4.000000e+08	1.980801e+14	0.000000e+00	7.619048e-01	5.207708e+15	5.677134e+15	2.821765e+14	1.880549e+04	8.183961e+03	3.086831e+03	0	1.579620e-03
4.100000e+08	1.942603e+14	0.000000e+00	7.619048e-01	5.172168e+15	5.641084e+15	2.807350e+14	1.877559e+04	8.178019e+03	3.084590e+03	0	1.569400e-03
4.200000e+08	1.904851e+14	0.000000e+00	7.619048e-01	5.137015e+15	5.605160e+15	2.793039e+14	1.874589e+04	8.172046e+03	3.082337e+03	0	1.559167e-03
4.300000e+08	1.867542e+14	0.000000e+00	7.619048e-01	5.102246e+15	5.569397e+15	2.778832e+14	1.871640e+04	8.166049e+03	3.080075e+03	0	1.548920e-03
4.400000e+08	1.830667e+14	0.000000e+00	7.619048e-01	5.067853e+15	5.533821e+15	2.764726e+14	1.868710e+04	8.160038e+03	3.077808e+03	0	1.538658e-03
4.500000e+08	1.794223e+14	0.000000e+00	7.619048e-01	5.033834e+15	5.498457e+15	2.750722e+14	1.865800e+04	8.154017e+03	3.075537e+03	0	1.528379e-03
4.600000e+08	1.758203e+14	0.000000e+00	7.619048e-01	5.000183e+15	5.463322e+15	2.736818e+14	1.862909e+04	8.147993e+03	3.073264e+03	0	1.518082e-03
4.700000e+08	1.722602e+14	0.000000e+00	7.619048e-01	4.966894e+15	5.428434e+15	2.723014e+14	1.860038e+04	8.141970e+03	3.070993e+03	0	1.507766e-03
4.800000e+08	1.687412e+14	0.000000e+00	7.619048e-01	4.933964e+15	5.393806e+15	2.709309e+14	1.857186e+04	8.135952e+03	3.068723e+03	0	1.497428e-03
4.900000e+08	1.652630e+14	0.000000e+00	7.619048e-01	4.901387e+15	5.359447e+15	2.695702e+14	1.854352e+04	8.129943e+03	3.066456e+03	0	1.487068e-03
5.000000e+08	1.618248e+14	0.000000e+00	7.619048e-01	4.869157e+15	5.325366e+15	2.682193e+14	1.851537e+04	8.123945e+03	3.064194e+03	0	1.476683e-03
5.100000e+08	1.584262e+14	0.000000e+00	7.619048e-01	4.837272e+15	5.291571e+15	2.668780e+14	1.848741e+04	8.117962e+03	3.061937e+03	0	1.466272e-03
5.200000e+08	1.550666e+14	0.000000e+00	7.619048e-01	4.805725e+15	5.258066e+15	2.655462e+14	1.845963e+04	8.111995e+03	3.059687e+03	0	1.455833e-03
5.300000e+08	1.517453e+14	0.000000e+00	7.619048e-01	4.774512e+15	5.224856e+15	2.642240e+14	1.843203e+04	8.106046e+03	3.057443e+03	0	1.445364e-03
5.400000e+08	1.484619e+14	0.000000e+00	7.619048e-01	4.743629e+15	5.191943e+15	2.629112e+14	1.840461e+04	8.100116e+03	3.055206e+03	0	1.434864e-03
5.500000e+08	1.452159e+14	0.000000e+00	7.619048e-01	4.713070e+15	5.159329e+15	2.616077e+14	1.837737e+04	8.094208e+03	3.052978e+03	0	1.424329e-03
5.600000e+08	1.420066e+14	0.000000e+00	7.619048e-01	4.682831e+15	5.127015e+15	2.603135e+14	1.835030e+04	8.088322e+03	3.050758e+03	0	1.413758e-03
5.700000e+08	1.388336e+14	0.000000e+00	7.619048e-01	4.652908e+15	5.095002e+15	2.590285e+14	1.832341e+04	8.082460e+03	3.048547e+03	0	1.403149e-03
5.800000e+08	1.356963e+14	0.000000e+00	7.619048e-01	4.623297e+15	5.063289e+15	2.577526e+14	1.829669e+04	8.076621e+03	3.046344e+03	0	1.392499e-03
5.900000e+08	1.325942e+14	0.000000e+00	7.619048e-01	4.593992e+15	5.031875e+15	2.564857e+14	1.827013e+04	8.070807e+03	3.044151e+03	0	1.381806e-03
6.000000e+08	1.295268e+14	0.000000e+00	7.619048e-01	4.564990e+15	5.000760e+15	2.552278e+14	1.824375e+04	8.065018e+03	3.041968e+03	0	1.371067e-03
6.100000e+08	1.264936e+14	0.000000e+00	7.619048e-01	4.536287e+15	4.969942e+15	2.539788e+14	1.821753e+04	8.059255e+03	3.039794e+03	0	1.360280e-03
6.200000e+08	1.234942e+14	0.000000e+00	7.619048e-01	4.507878e+15	4.939419e+15	2.527386e+14	1.819148e+04	8.053518e+03	3.037630e+03	0	1.349443e-03
6.300000e+08	1.205280e+14	0.000000e+00	7.619048e-01	4.479759e+15	4.909189e+15	2.515072e+14	1.816558e+04	8.047807e+03	3.035476e+03	0	1.338551e-03
6.400000e+08	1.175945e+14	0.000000e+00	7.619048e-01	4.451927e+15	4.879250e+15	2.502845e+14	1.813985e+04	8.042123e+03	3.033332e+03	0	1.327602e-03
6.500000e+08	1.146934e+14	0.000000e+00	7.619048e-01	4.424377e+15	4.849598e+15	2.490704e+14	1.811428e+04	8.036465e+03	3.031198e+03	0	1.316593e-03
6.600000e+08	1.118241e+14	0.000000e+00	7.619048e-01	4.397105e+15	4.820233e+15	2.478648e+14	1.808887e+04	8.030835e+03	3.029075e+03	0	1.305521e-03
6.700000e+08	1.089861e+14	0.000000e+00	7.619048e-01	4.370108e+15	4.791150e+15	2.466677e+14	1.806361e+04	8.025231e+03	3.026961e+03	0	1.294383e-03
6.800000e+08	1.061792e+14	0.000000e+00	7.619048e-01	4.343381e+15	4.762347e+15	2.454790e+14	1.803851e+04	8.019654e+03	3.024857e+03	0	1.283173e-03
6.900000e+08	1.034027e+14	0.000000e+00	7.619048e-01	4.316922e+15	4.733822e+15	2.442987e+14	1.801356e+04	8.014104e+03	3.022764e+03	0	1.271890e-03
7.000000e+08	1.006563e+14	0.000000e+00	7.619048e-01	4.290727e+15	4.705570e+15	2.431266e+14	1.798877e+04	8.008581e+03	3.020681e+03	0	1.260528e-03
7.100000e+08	9.793955e+13	0.000000e+00	7.619048e-01	4.264791e+15	4.677590e+15	2.419627e+14	1.796412e+04	8.003085e+03	3.018608e+03	0	1.249084e-03
7.200000e+08	9.525205e+13	0.000000e+00	7.619048e-01	4.239112e+15	4.649878e+15	2.408070e+14	1.793962e+04	7.997615e+03	3.016545e+03	0	1.237553e-03
7.300000e+08	9.259337e+13	0.000000e+00	7.619048e-01	4.213685e+15	4.622431e+15	2.396593e+14	1.791527e+04	7.992172e+03	3.014492e+03	0	1.225930e-03
7.400000e+08	8.996313e+13	0.000000e+00	7.619048e-01	4.188508e+15	4.595246e+15	2.385197e+14	1.789107e+04	7.986756e+03	3.012449e+03	0	1.214210e-03
7.500000e+08	8.736092e+13	0.000000e+00	7.619048e-01	4.163578e+15	4.568320e+15	2.373880e+14	1.786700e+04	7.981367e+03	3.010416e+03	0	1.202388e-03
7.600000e+08	8.478636e+13	0.000000e+00	7.619048e-01	4.138890e+15	4.541650e+15	2.362642e+14	1.784309e+04	7.976003e+03	3.008393e+03	0	1.190458e-03
7.700000e+08	8.223906e+13	0.000000e+00	7.619048e-01	4.114442e+15	4.515233e+15	2.351482e+14	1.781931e+04	7.970666e+03	3.006380e+03	0	1.178415e-03
7.800000e+08	7.971865e+13	0.000000e+00	7.619048e-01	4.090230e+15	4.489065e+15	2.340399e+14	1.779567e+04	7.965355e+03	3.004377e+03	0	1.166252e-03
7.900000e+08	7.722477e+13	0.000000e+00	7.619048e-01	4.066252e+15	4.463145e+15	2.329394e+14	1.777218e+04	7.960070e+03	3.002383e+03	0	1.153961e-03
8.000000e+08	7.475704e+13	0.000000e+00	7.619048e-01	4.042504e+15	4.437468e+15	2.318465e+14	1.774882e+04	7.954810e+03	3.000400e+03	0	1.141536e-03
8.100000e+08	7.231512e+13	0.000000e+00	7.619048e-01	4.018983e+15	4.412032e+15	2.307611e+14	1.772559e+04	7.949576e+03	2.998426e+03	0	1.128969e-03
8.200000e+08	6.989865e+13	0.000000e+00	7.619048e-01	3.995686e+15	4.386833e+15	2.296833e+14	1.770251e+04	7.944368e+03	2.996461e+03	0	1.116251e-03
8.300000e+08	6.750729e+13	0.000000e+00	7.619048e-01	3.972611e+15	4.361870e+15	2.286129e+14	1.767955e+04	7.939184e+03	2.994506e+03	0	1.103373e-03
8.400000e+08	6.514069e+13	0.000000e+00	7.619048e-01	3.949754e+15	4.337138e+15	2.275499e+14	1.765673e+04	7.934026e+03	2.992560e+03	0	1.090326e-03
8.500000e+08	6.279854e+13	0.000000e+00	7.619048e-01	3.927113e+15	4.312636e+15	2.264943e+14	1.763404e+04	7.928893e+03	2.990624e+03	0	1.077099e-03
8.600000e+08	6.048049e+13	0.000000e+00	7.619048e-01	3.904685e+15	4.288360e+15	2.254459e+14	1.761147e+04	7.923784e+03	2.988697e+03	0	1.063679e-03
8.700000e+08	5.818622e+13	0.000000e+00	7.619048e-01	3.882467e+15	4.264308e+15	2.244048e+14	1.758904e+04	7.918700e+03	2.986780e+03	0	1.050056e-03
8.800000e+08	5.591543e+13	0.000000e+00	7.619048e-01	3.860456e+15	4.240476e+15	2.233708e+14	1.756674e+04	7.913640e+03	2.984871e+03	0	1.036214e-03
8.900000e+08	5.366779e+13	0.000000e+00	7.619048e-01	3.838650e+15	4.216863e+15	2.223439e+14	1.754456e+04	7.908604e+03	2.982972e+03	0	1.022139e-03
9.000000e+08	5.144300e+13	0.000000e+00	7.619048e-01	3.817046e+15	4.193465e+15	2.213241e+14	1.752250e+04	7.903592e+03	2.981081e+03	0	1.007815e-03
9.100000e+08	4.924076e+13	0.000000e+00	7.619048e-01	3.795641e+15	4.170279e+15	2.203112e+14	1.750057e+04	7.898604e+03	2.979200e+03	0	9.932239e-04
9.200000e+08	4.706078e+13	0.000000e+00	7.619048e-01	3.774434e+15	4.147304e+15	2.193053e+14	1.747876e+04	7.893640e+03	2.977328e+03	0	9.783448e-04
9.300000e+08	4.490275e+13	0.000000e+00	7.619048e-01	3.753421e+15	4.124537e+15	2.183063e+14	1.745708e+04	7.888699e+03	2.975464e+03	0	9.631559e-04
9.400000e+08	4.276640e+13	0.000000e+00	7.619048e-01	3.732600e+15	4.101974e+15	2.173141e+14	1.743551e+04	7.883782e+03	2.973609e+03	0	9.476322e-04
9.500000e+08	4.065144e+13	0.000000e+00	7.619048e-01	3.711968e+15	4.079614e+15	2.163286e+14	1.741406e+04	7.878887e+03	2.971763e+03	0	9.317461e-04
9.600000e+08	3.855759e+13	0.000000e+00	7.619048e-01	3.691524e+15	4.057454e+15	2.153499e+14	1.739274e+04	7.874015e+03	2.969925e+03	0	9.154660e-04
9.700000e+08	3.648458e+13	0.000000e+00	7.619048e-01	3.671265e+15	4.035491e+15	2.143779e+14	1.737153e+04	7.869166e+03	2.968096e+03	0	8.987565e-04
9.800000e+08	3.443215e+13	0.000000e+00	7.619048e-01	3.651189e+15	4.013724e+15	2.134124e+14	1.735043e+04	7.864340e+03	2.966276e+03	0	8.815771e-04
9.900000e+08	3.240002e+13	0.000000e+00	7.619048e-01	3.631293e+15	3.992149e+15	2.124536e+14	1.732945e+04	7.859536e+03	2.964464e+03	0	8.638812e-04
1.000000e+09	3.038793e+13	0.000000e+00	7.619048e-01	3.611575e+15	3.970765e+15	2.115012e+14	1.730859e+04	7.854754e+03	2.962660e+03	0	8.456149e-04
1.010000e+09	2.839564e+13	0.000000e+00	7.619048e-01	3.592033e+15	3.949570e+15	2.105553e+14	1.728784e+04	7.849994e+03	2.960865e+03	0	8.267156e-04
1.020000e+09	2.642288e+13	0.000000e+00	7.619048e-01	3.572665e+15	3.928560e+15	2.096158e+14	1.726719e+04	7.845256e+03	2.959078e+03	0	8.071092e-04
1.030000e+09	2.446941e+13	0.000000e+00	7.619048e-01	3.553469e+15	3.907734e+15	2.086827e+14	1.724667e+04	7.840540e+03	2.957299e+03	0	7.867077e-04
1.040000e+09	2.253498e+13	0.000000e+00	7.619048e-01	3.534442e+15	3.887089e+15	2.077558e+14	1.722625e+04	7.835845e+03	2.955528e+03	0	7.654051e-04
1.050000e+09	2.061936e+13	0.000000e+00	7.619048e-01	3.515583e+15	3.866624e+15	2.068353e+14	1.720594e+04	7.831172e+03	2.953766e+03	0	7.430716e-04
1.060000e+09	1.872231e+13	0.000000e+00	7.619048e-01	3.496889e+15	3.846336e+15	2.059209e+14	1.718574e+04	7.826519e+03	2.952011e+03	0	7.195463e-04
1.070000e+09	1.684359e+13	0.000000e+00	7.619048e-01	3.478359e+15	3.826223e+15	2.050127e+14	1.716564e+04	7.821888e+03	2.950264e+03	0	6.946251e-04
1.080000e+09	1.498298e+13	0.000000e+00	7.619048e-01	3.459990e+15	3.806283e+15	2.041106e+14	1.714565e+04	7.817278e+03	2.948525e+03	0	6.680438e-04
1.090000e+09	1.314024e+13	0.000000e+00	7.619048e-01	3.441781e+15	3.786514e+15	2.032146e+14	1.712577e+04	7.812688e+03	2.946794e+03	0	6.394501e-04
1.100000e+09	1.131516e+13	0.000000e+00	7.619048e-01	3.423730e+15	3.766914e+15	2.023246e+14	1.710599e+04	7.808119e+03	2.945071e+03	0	6.083579e-04
1.110000e+09	9.507522e+12	0.000000e+00	7.619048e-01	3.405834e+15	3.747482e+15	2.014405e+14	1.708632e+04	7.803571e+03	2.943355e+03	0	5.740654e-04
1.120000e+09	7.717104e+12	0.000000e+00	7.619048e-01	3.388092e+15	3.728214e+15	2.005624e+14	1.706675e+04	7.799042e+03	2.941647e+03	0	5.354970e-04
1.130000e+09	5.943696e+12	0.000000e+00	7.619048e-01	3.370503e+15	3.709109e+15	1.996902e+14	1.704728e+04	7.794534e+03	2.939947e+03	0	4.908602e-04
1.140000e+09	4.187089e+12	0.000000e+00	7.619048e-01	3.353064e+15	3.690166e+15	1.988238e+14	1.702791e+04	7.790046e+03	2.938254e+03	0	4.367601e-04
1.150000e+09	2.447078e+12	0.000000e+00	7.619048e-01	3.335773e+15	3.671382e+15	1.979631e+14	1.700864e+04	7.785577e+03	2.936568e+03	0	3.651642e-04
1.160000e+09	7.234598e+11	0.000000e+00	7.619048e-01	3.318629e+15	3.652756e+15	1.971083e+14	1.698947e+04	7.781128e+03	2.934890e+03	0	2.432636e-04
1.170000e+09	-9.839653e+11	0.000000e+00	7.619048e-01	3.301631e+15	3.634285e+15	1.962591e+14	1.697040e+04	7.776698e+03	2.933219e+03	0	nan
