#t		Qconv[W]	Ri[Rp]		R*[Rp]		Qc[W]		Qm[W]		Qr[W]		Tcmb[K]		Tl[K]		Tup[K]		RiFlag		Bs[T]
0.000000e+00	2.964461e+14	0.000000e+00	7.619047e-01	6.868750e+15	3.176020e+15	3.646443e+14	2.058296e+04	7.451228e+03	2.792584e+03	0	1.805927e-03
1.000000e+07	2.959666e+14	0.000000e+00	7.619047e-01	6.857047e+15	3.524777e+15	3.626239e+14	2.054699e+04	7.577191e+03	2.839793e+03	0	1.804952e-03
2.000000e+07	2.947845e+14	0.000000e+00	7.619047e-01	6.839876e+15	3.862332e+15	3.606186e+14	2.051108e+04	7.691536e+03	2.882647e+03	0	1.802546e-03
3.000000e+07	2.929918e+14	0.000000e+00	7.619047e-01	6.817961e+15	4.183515e+15	3.586283e+14	2.047525e+04	7.794538e+03	2.921250e+03	0	1.798885e-03
4.000000e+07	2.906765e+14	0.000000e+00	7.619047e-01	6.791994e+15	4.484303e+15	3.566529e+14	2.043955e+04	7.886642e+03	2.955769e+03	0	1.794134e-03
5.000000e+07	2.879200e+14	0.000000e+00	7.619047e-01	6.762615e+15	4.761856e+15	3.546922e+14	2.040397e+04	7.968430e+03	2.986422e+03	0	1.788445e-03
6.000000e+07	2.847959e+14	0.000000e+00	7.619047e-01	6.730404e+15	5.014455e+15	3.527461e+14	2.036856e+04	8.040576e+03	3.013461e+03	0	1.781953e-03
7.000000e+07	2.813696e+14	0.000000e+00	7.619047e-01	6.695871e+15	5.241373e+15	3.508145e+14	2.033331e+04	8.103815e+03	3.037162e+03	0	1.774778e-03
8.000000e+07	2.776979e+14	0.000000e+00	7.619047e-01	6.659464e+15	5.442711e+15	3.488972e+14	2.029824e+04	8.158908e+03	3.057810e+03	0	1.767024e-03
9.000000e+07	2.738296e+14	0.000000e+00	7.619047e-01	6.621565e+15	5.619215e+15	3.469942e+14	2.026336e+04	8.206616e+03	3.075690e+03	0	1.758781e-03
1.000000e+08	2.698061e+14	0.000000e+00	7.619047e-01	6.582500e+15	5.772110e+15	3.451054e+14	2.022868e+04	8.247678e+03	3.091079e+03	0	1.750124e-03
1.100000e+08	2.656623e+14	0.000000e+00	7.619047e-01	6.542541e+15	5.902939e+15	3.432306e+14	2.019420e+04	8.282802e+03	3.104243e+03	0	1.741118e-03
1.200000e+08	2.614273e+14	0.000000e+00	7.619047e-01	6.501916e+15	6.013437e+15	3.413696e+14	2.015993e+04	8.312648e+03	3.115429e+03	0	1.731816e-03
1.300000e+08	2.571253e+14	0.000000e+00	7.619047e-01	6.460817e+15	6.105423e+15	3.395225e+14	2.012588e+04	8.337828e+03	3.124865e+03	0	1.722264e-03
1.400000e+08	2.527765e+14	0.000000e+00	7.619047e-01	6.419399e+15	6.180722e+15	3.376890e+14	2.009204e+04	8.358898e+03	3.132762e+03	0	1.712499e-03
1.500000e+08	2.483973e+14	0.000000e+00	7.619047e-01	6.377792e+15	6.241107e+15	3.358691e+14	2.005841e+04	8.376362e+03	3.139307e+03	0	1.702552e-03
1.600000e+08	2.440014e+14	0.000000e+00	7.619047e-01	6.336104e+15	6.288260e+15	3.340626e+14	2.002501e+04	8.390672e+03	3.144671e+03	0	1.692449e-03
1.700000e+08	2.396001e+14	0.000000e+00	7.619047e-01	6.294421e+15	6.323746e+15	3.322694e+14	1.999182e+04	8.402231e+03	3.149003e+03	0	1.682211e-03
1.800000e+08	2.352024e+14	0.000000e+00	7.619047e-01	6.252815e+15	6.348999e+15	3.304895e+14	1.995885e+04	8.411394e+03	3.152437e+03	0	1.671856e-03
1.900000e+08	2.308161e+14	0.000000e+00	7.619047e-01	6.211345e+15	6.365323e+15	3.287226e+14	1.992609e+04	8.418477e+03	3.155091e+03	0	1.661398e-03
2.000000e+08	2.264472e+14	0.000000e+00	7.619047e-01	6.170060e+15	6.373884e+15	3.269688e+14	1.989356e+04	8.423754e+03	3.157069e+03	0	1.650848e-03
2.100000e+08	2.221008e+14	0.000000e+00	7.619047e-01	6.128997e+15	6.375726e+15	3.252279e+14	1.986124e+04	8.427468e+03	3.158461e+03	0	1.640218e-03
2.200000e+08	2.177809e+14	0.000000e+00	7.619047e-01	6.088190e+15	6.371770e+15	3.234997e+14	1.982913e+04	8.429829e+03	3.159346e+03	0	1.629514e-03
2.300000e+08	2.134910e+14	0.000000e+00	7.619047e-01	6.047663e+15	6.362829e+15	3.217843e+14	1.979724e+04	8.431021e+03	3.159793e+03	0	1.618744e-03
2.400000e+08	2.092337e+14	0.000000e+00	7.619047e-01	6.007438e+15	6.349615e+15	3.200814e+14	1.976556e+04	8.431204e+03	3.159861e+03	0	1.607911e-03
2.500000e+08	2.050112e+14	0.000000e+00	7.619047e-01	5.967530e+15	6.332752e+15	3.183910e+14	1.973409e+04	8.430517e+03	3.159604e+03	0	1.597022e-03
2.600000e+08	2.008252e+14	0.000000e+00	7.619047e-01	5.927953e+15	6.312781e+15	3.167129e+14	1.970282e+04	8.429079e+03	3.159065e+03	0	1.586077e-03
2.700000e+08	1.966770e+14	0.000000e+00	7.619047e-01	5.888717e+15	6.290174e+15	3.150471e+14	1.967177e+04	8.426996e+03	3.158284e+03	0	1.575080e-03
2.800000e+08	1.925677e+14	0.000000e+00	7.619047e-01	5.849830e+15	6.265339e+15	3.133935e+14	1.964092e+04	8.424358e+03	3.157295e+03	0	1.564033e-03
2.900000e+08	1.884980e+14	0.000000e+00	7.619047e-01	5.811297e+15	6.238632e+15	3.117520e+14	1.961027e+04	8.421243e+03	3.156128e+03	0	1.552937e-03
3.000000e+08	1.844686e+14	0.000000e+00	7.619047e-01	5.773123e+15	6.210357e+15	3.101224e+14	1.957983e+04	8.417718e+03	3.154807e+03	0	1.541792e-03
3.100000e+08	1.804798e+14	0.000000e+00	7.619047e-01	5.735310e+15	6.180779e+15	3.085047e+14	1.954958e+04	8.413843e+03	3.153354e+03	0	1.530598e-03
3.200000e+08	1.765319e+14	0.000000e+00	7.619047e-01	5.697859e+15	6.150126e+15	3.068988e+14	1.951953e+04	8.409667e+03	3.151790e+03	0	1.519355e-03
3.300000e+08	1.726249e+14	0.000000e+00	7.619047e-01	5.660772e+15	6.118594e+15	3.053045e+14	1.948968e+04	8.405235e+03	3.150129e+03	0	1.508063e-03
3.400000e+08	1.687590e+14	0.000000e+00	7.619047e-01	5.624047e+15	6.086352e+15	3.037219e+14	1.946002e+04	8.400585e+03	3.148386e+03	0	1.496720e-03
3.500000e+08	1.649339e+14	0.000000e+00	7.619047e-01	5.587684e+15	6.053545e+15	3.021507e+14	1.943056e+04	8.395750e+03	3.146574e+03	0	1.485325e-03
3.600000e+08	1.611497e+14	0.000000e+00	7.619047e-01	5.551681e+15	6.020298e+15	3.005909e+14	1.940128e+04	8.390757e+03	3.144702e+03	0	1.473877e-03
3.700000e+08	1.574060e+14	0.000000e+00	7.619047e-01	5.516036e+15	5.986719e+15	2.990424e+14	1.937219e+04	8.385632e+03	3.142782e+03	0	1.462374e-03
3.800000e+08	1.537026e+14	0.000000e+00	7.619047e-01	5.480747e+15	5.952899e+15	2.975051e+14	1.934329e+04	8.380395e+03	3.140819e+03	0	1.450815e-03
3.900000e+08	1.500392e+14	0.000000e+00	7.619047e-01	5.445811e+15	5.918918e+15	2.959789e+14	1.931457e+04	8.375066e+03	3.138822e+03	0	1.439195e-03
4.000000e+08	1.464155e+14	0.000000e+00	7.619047e-01	5.411225e+15	5.884842e+15	2.944637e+14	1.928604e+04	8.369659e+03	3.136795e+03	0	1.427515e-03
4.100000e+08	1.428311e+14	0.000000e+00	7.619047e-01	5.376986e+15	5.850731e+15	2.929595e+14	1.925769e+04	8.364190e+03	3.134746e+03	0	1.415769e-03
4.200000e+08	1.392856e+14	0.000000e+00	7.619047e-01	5.343089e+15	5.816633e+15	2.914661e+14	1.922951e+04	8.358669e+03	3.132677e+03	0	1.403956e-03
4.300000e+08	1.357787e+14	0.000000e+00	7.619047e-01	5.309533e+15	5.782591e+15	2.899834e+14	1.920152e+04	8.353108e+03	3.130592e+03	0	1.392073e-03
4.400000e+08	1.323098e+14	0.000000e+00	7.619047e-01	5.276313e+15	5.748639e+15	2.885114e+14	1.917369e+04	8.347514e+03	3.128496e+03	0	1.380116e-03
4.500000e+08	1.288787e+14	0.000000e+00	7.619047e-01	5.243425e+15	5.714810e+15	2.870500e+14	1.914605e+04	8.341897e+03	3.126391e+03	0	1.368081e-03
4.600000e+08	1.254848e+14	0.000000e+00	7.619047e-01	5.210866e+15	5.681129e+15	2.855991e+14	1.911857e+04	8.336262e+03	3.124279e+03	0	1.355965e-03
4.700000e+08	1.221277e+14	0.000000e+00	7.619047e-01	5.178632e+15	5.647618e+15	2.841586e+14	1.909126e+04	8.330616e+03	3.122163e+03	0	1.343764e-03
4.800000e+08	1.188069e+14	0.000000e+00	7.619047e-01	5.146719e+15	5.614295e+15	2.827284e+14	1.906413e+04	8.324963e+03	3.120044e+03	0	1.331472e-03
4.900000e+08	1.155221e+14	0.000000e+00	7.619047e-01	5.115123e+15	5.581175e+15	2.813085e+14	1.903716e+04	8.319308e+03	3.117925e+03	0	1.319086e-03
5.000000e+08	1.122727e+14	0.000000e+00	7.619047e-01	5.083840e+15	5.548272e+15	2.798987e+14	1.901035e+04	8.313655e+03	3.115806e+03	0	1.306601e-03
5.100000e+08	1.090584e+14	0.000000e+00	7.619047e-01	5.052866e+15	5.515597e+15	2.784990e+14	1.898371e+04	8.308006e+03	3.113689e+03	0	1.294011e-03
5.200000e+08	1.058786e+14	0.000000e+00	7.619047e-01	5.022198e+15	5.483157e+15	2.771093e+14	1.895723e+04	8.302366e+03	3.111575e+03	0	1.281310e-03
5.300000e+08	1.027329e+14	0.000000e+00	7.619047e-01	4.991831e+15	5.450961e+15	2.757295e+14	1.893091e+04	8.296735e+03	3.109465e+03	0	1.268493e-03
5.400000e+08	9.962085e+13	0.000000e+00	7.619047e-01	4.961763e+15	5.419014e+15	2.743595e+14	1.890475e+04	8.291117e+03	3.107359e+03	0	1.255553e-03
5.500000e+08	9.654206e+13	0.000000e+00	7.619047e-01	4.931988e+15	5.387320e+15	2.729992e+14	1.887875e+04	8.285513e+03	3.105259e+03	0	1.242483e-03
5.600000e+08	9.349606e+13	0.000000e+00	7.619047e-01	4.902504e+15	5.355883e+15	2.716487e+14	1.885290e+04	8.279924e+03	3.103164e+03	0	1.229276e-03
5.700000e+08	9.048243e+13	0.000000e+00	7.619047e-01	4.873306e+15	5.324705e+15	2.703077e+14	1.882721e+04	8.274353e+03	3.101076e+03	0	1.215924e-03
5.800000e+08	8.750072e+13	0.000000e+00	7.619047e-01	4.844391e+15	5.293789e+15	2.689762e+14	1.880167e+04	8.268800e+03	3.098995e+03	0	1.202418e-03
5.900000e+08	8.455053e+13	0.000000e+00	7.619047e-01	4.815756e+15	5.263134e+15	2.676542e+14	1.877628e+04	8.263266e+03	3.096921e+03	0	1.188749e-03
6.000000e+08	8.163142e+13	0.000000e+00	7.619047e-01	4.787396e+15	5.232743e+15	2.663415e+14	1.875104e+04	8.257751e+03	3.094854e+03	0	1.174908e-03
6.100000e+08	7.874300e+13	0.000000e+00	7.619047e-01	4.759308e+15	5.202615e+15	2.650382e+14	1.872595e+04	8.252258e+03	3.092795e+03	0	1.160884e-03
6.200000e+08	7.588485e+13	0.000000e+00	7.619047e-01	4.731489e+15	5.172749e+15	2.637440e+14	1.870101e+04	8.246786e+03	3.090745e+03	0	1.146665e-03
6.300000e+08	7.305656e+13	0.000000e+00	7.619047e-01	4.703935e+15	5.143144e+15	2.624589e+14	1.867621e+04	8.241335e+03	3.088702e+03	0	1.132239e-03
6.400000e+08	7.025775e+13	0.000000e+00	7.619047e-01	4.676644e+15	5.113801e+15	2.611830e+14	1.865156e+04	8.235907e+03	3.086667e+03	0	1.117591e-03
6.500000e+08	6.748803e+13	0.000000e+00	7.619047e-01	4.649610e+15	5.084716e+15	2.599160e+14	1.862704e+04	8.230501e+03	3.084641e+03	0	1.102708e-03
6.600000e+08	6.474700e+13	0.000000e+00	7.619047e-01	4.622832e+15	5.055890e+15	2.586579e+14	1.860267e+04	8.225117e+03	3.082624e+03	0	1.087572e-03
6.700000e+08	6.203429e+13	0.000000e+00	7.619047e-01	4.596306e+15	5.027319e+15	2.574087e+14	1.857844e+04	8.219757e+03	3.080615e+03	0	1.072166e-03
6.800000e+08	5.934952e+13	0.000000e+00	7.619047e-01	4.570028e+15	4.999003e+15	2.561682e+14	1.855435e+04	8.214420e+03	3.078615e+03	0	1.056470e-03
6.900000e+08	5.669232e+13	0.000000e+00	7.619047e-01	4.543996e+15	4.970939e+15	2.549365e+14	1.853040e+04	8.209106e+03	3.076623e+03	0	1.040462e-03
7.000000e+08	5.406234e+13	0.000000e+00	7.619047e-01	4.518207e+15	4.943125e+15	2.537134e+14	1.850658e+04	8.203816e+03	3.074640e+03	0	1.024118e-03
7.100000e+08	5.145921e+13	0.000000e+00	7.619047e-01	4.492657e+15	4.915558e+15	2.524988e+14	1.848290e+04	8.198549e+03	3.072666e+03	0	1.007409e-03
7.200000e+08	4.888259e+13	0.000000e+00	7.619047e-01	4.467343e+15	4.888238e+15	2.512928e+14	1.845935e+04	8.193305e+03	3.070701e+03	0	9.903065e-04
7.300000e+08	4.633212e+13	0.000000e+00	7.619047e-01	4.442262e+15	4.861160e+15	2.500951e+14	1.843594e+04	8.188085e+03	3.068745e+03	0	9.727747e-04
7.400000e+08	4.380747e+13	0.000000e+00	7.619047e-01	4.417412e+15	4.834323e+15	2.489059e+14	1.841265e+04	8.182888e+03	3.066797e+03	0	9.547747e-04
7.500000e+08	4.130829e+13	0.000000e+00	7.619047e-01	4.392790e+15	4.807725e+15	2.477249e+14	1.838950e+04	8.177714e+03	3.064858e+03	0	9.362618e-04
7.600000e+08	3.883426e+13	0.000000e+00	7.619047e-01	4.368392e+15	4.781362e+15	2.465521e+14	1.836647e+04	8.172564e+03	3.062928e+03	0	9.171842e-04
7.700000e+08	3.638505e+13	0.000000e+00	7.619047e-01	4.344216e+15	4.755233e+15	2.453875e+14	1.834357e+04	8.167437e+03	3.061006e+03	0	8.974823e-04
7.800000e+08	3.396035e+13	0.000000e+00	7.619047e-01	4.320259e+15	4.729334e+15	2.442310e+14	1.832080e+04	8.162333e+03	3.059093e+03	0	8.770862e-04
7.900000e+08	3.155983e+13	0.000000e+00	7.619047e-01	4.296519e+15	4.703664e+15	2.430826e+14	1.829815e+04	8.157252e+03	3.057189e+03	0	8.559133e-04
8.000000e+08	2.918318e+13	0.000000e+00	7.619047e-01	4.272993e+15	4.678220e+15	2.419421e+14	1.827563e+04	8.152194e+03	3.055294e+03	0	8.338650e-04
8.100000e+08	2.683011e+13	0.000000e+00	7.619047e-01	4.249677e+15	4.653000e+15	2.408095e+14	1.825323e+04	8.147159e+03	3.053406e+03	0	8.108223e-04
8.200000e+08	2.450030e+13	0.000000e+00	7.619047e-01	4.226570e+15	4.628000e+15	2.396847e+14	1.823095e+04	8.142147e+03	3.051528e+03	0	7.866387e-04
8.300000e+08	2.219346e+13	0.000000e+00	7.619047e-01	4.203669e+15	4.603218e+15	2.385677e+14	1.820880e+04	8.137157e+03	3.049658e+03	0	7.611318e-04
8.400000e+08	1.990930e+13	0.000000e+00	7.619047e-01	4.180972e+15	4.578653e+15	2.374585e+14	1.818676e+04	8.132190e+03	3.047796e+03	0	7.340690e-04
8.500000e+08	1.764753e+13	0.000000e+00	7.619047e-01	4.158475e+15	4.554302e+15	2.363569e+14	1.816484e+04	8.127245e+03	3.045943e+03	0	7.051468e-04
8.600000e+08	1.540788e+13	0.000000e+00	7.619047e-01	4.136177e+15	4.530161e+15	2.352628e+14	1.814304e+04	8.122323e+03	3.044098e+03	0	6.739575e-04
8.700000e+08	1.319005e+13	0.000000e+00	7.619047e-01	4.114076e+15	4.506229e+15	2.341763e+14	1.812136e+04	8.117422e+03	3.042261e+03	0	6.399318e-04
8.800000e+08	1.099378e+13	0.000000e+00	7.619047e-01	4.092168e+15	4.482504e+15	2.330973e+14	1.809979e+04	8.112543e+03	3.040433e+03	0	6.022367e-04
8.900000e+08	8.818795e+12	0.000000e+00	7.619047e-01	4.070451e+15	4.458982e+15	2.320257e+14	1.807834e+04	8.107686e+03	3.038613e+03	0	5.595703e-04
9.000000e+08	6.664832e+12	0.000000e+00	7.619047e-01	4.048924e+15	4.435663e+15	2.309615e+14	1.805700e+04	8.102851e+03	3.036801e+03	0	5.097000e-04
9.100000e+08	4.531627e+12	0.000000e+00	7.619047e-01	4.027583e+15	4.412542e+15	2.299045e+14	1.803577e+04	8.098037e+03	3.034996e+03	0	4.481977e-04
9.200000e+08	2.418923e+12	0.000000e+00	7.619047e-01	4.006427e+15	4.389619e+15	2.288548e+14	1.801466e+04	8.093245e+03	3.033200e+03	0	3.635735e-04
9.300000e+08	3.264665e+11	0.000000e+00	7.619047e-01	3.985454e+15	4.366891e+15	2.278123e+14	1.799365e+04	8.088474e+03	3.031412e+03	0	1.864938e-04
9.400000e+08	-1.745993e+12	0.000000e+00	7.619047e-01	3.964661e+15	4.344355e+15	2.267769e+14	1.797276e+04	8.083724e+03	3.029632e+03	0	nan
