#t		Qconv[W]	Ri[Rp]		R*[Rp]		Qc[W]		Qm[W]		Qr[W]		Tcmb[K]		Tl[K]		Tup[K]		RiFlag		Bs[T]
0.000000e+00	3.792806e+14	0.000000e+00	7.619043e-01	8.242646e+15	3.373887e+15	3.753674e+14	2.159130e+04	7.681597e+03	2.798971e+03	0	1.958610e-03
1.000000e+07	3.791224e+14	0.000000e+00	7.619043e-01	8.231622e+15	3.835098e+15	3.732876e+14	2.155116e+04	7.841286e+03	2.857158e+03	0	1.958338e-03
2.000000e+07	3.779093e+14	0.000000e+00	7.619043e-01	8.212317e+15	4.287490e+15	3.712233e+14	2.151108e+04	7.985952e+03	2.909870e+03	0	1.956247e-03
3.000000e+07	3.757895e+14	0.000000e+00	7.619043e-01	8.185907e+15	4.721752e+15	3.691745e+14	2.147108e+04	8.115765e+03	2.957171e+03	0	1.952583e-03
4.000000e+07	3.729058e+14	0.000000e+00	7.619043e-01	8.153522e+15	5.130384e+15	3.671410e+14	2.143122e+04	8.231201e+03	2.999233e+03	0	1.947575e-03
5.000000e+07	3.693902e+14	0.000000e+00	7.619043e-01	8.116208e+15	5.507897e+15	3.651226e+14	2.139151e+04	8.332980e+03	3.036318e+03	0	1.941435e-03
6.000000e+07	3.653611e+14	0.000000e+00	7.619043e-01	8.074901e+15	5.850800e+15	3.631193e+14	2.135198e+04	8.422000e+03	3.068754e+03	0	1.934351e-03
7.000000e+07	3.609218e+14	0.000000e+00	7.619043e-01	8.030418e+15	6.157399e+15	3.611309e+14	2.131266e+04	8.499268e+03	3.096909e+03	0	1.926485e-03
8.000000e+07	3.561602e+14	0.000000e+00	7.619043e-01	7.983454e+15	6.427512e+15	3.591573e+14	2.127355e+04	8.565851e+03	3.121170e+03	0	1.917975e-03
9.000000e+07	3.511500e+14	0.000000e+00	7.619043e-01	7.934590e+15	6.662132e+15	3.571983e+14	2.123467e+04	8.622822e+03	3.141929e+03	0	1.908939e-03
1.000000e+08	3.459520e+14	0.000000e+00	7.619043e-01	7.884308e+15	6.863102e+15	3.552539e+14	2.119602e+04	8.671225e+03	3.159566e+03	0	1.899473e-03
1.100000e+08	3.406158e+14	0.000000e+00	7.619043e-01	7.832999e+15	7.032821e+15	3.533240e+14	2.115763e+04	8.712053e+03	3.174442e+03	0	1.889656e-03
1.200000e+08	3.351815e+14	0.000000e+00	7.619043e-01	7.780980e+15	7.174004e+15	3.514083e+14	2.111948e+04	8.746230e+03	3.186896e+03	0	1.879553e-03
1.300000e+08	3.296815e+14	0.000000e+00	7.619043e-01	7.728506e+15	7.289487e+15	3.495068e+14	2.108158e+04	8.774599e+03	3.197232e+03	0	1.869215e-03
1.400000e+08	3.241415e+14	0.000000e+00	7.619043e-01	7.675780e+15	7.382091e+15	3.476194e+14	2.104394e+04	8.797921e+03	3.205730e+03	0	1.858686e-03
1.500000e+08	3.185822e+14	0.000000e+00	7.619043e-01	7.622964e+15	7.454521e+15	3.457460e+14	2.100655e+04	8.816876e+03	3.212637e+03	0	1.847999e-03
1.600000e+08	3.130200e+14	0.000000e+00	7.619043e-01	7.570188e+15	7.509305e+15	3.438864e+14	2.096942e+04	8.832064e+03	3.218171e+03	0	1.837181e-03
1.700000e+08	3.074678e+14	0.000000e+00	7.619043e-01	7.517553e+15	7.548763e+15	3.420405e+14	2.093255e+04	8.844013e+03	3.222525e+03	0	1.826254e-03
1.800000e+08	3.019360e+14	0.000000e+00	7.619043e-01	7.465140e+15	7.574985e+15	3.402082e+14	2.089593e+04	8.853183e+03	3.225866e+03	0	1.815235e-03
1.900000e+08	2.964326e+14	0.000000e+00	7.619043e-01	7.413014e+15	7.589836e+15	3.383894e+14	2.085957e+04	8.859974e+03	3.228341e+03	0	1.804138e-03
2.000000e+08	2.909642e+14	0.000000e+00	7.619043e-01	7.361224e+15	7.594963e+15	3.365840e+14	2.082346e+04	8.864731e+03	3.230074e+03	0	1.792976e-03
2.100000e+08	2.855358e+14	0.000000e+00	7.619043e-01	7.309810e+15	7.591808e+15	3.347919e+14	2.078761e+04	8.867753e+03	3.231175e+03	0	1.781755e-03
2.200000e+08	2.801513e+14	0.000000e+00	7.619043e-01	7.258802e+15	7.581626e+15	3.330129e+14	2.075200e+04	8.869296e+03	3.231737e+03	0	1.770484e-03
2.300000e+08	2.748139e+14	0.000000e+00	7.619043e-01	7.208224e+15	7.565506e+15	3.312470e+14	2.071664e+04	8.869579e+03	3.231841e+03	0	1.759168e-03
2.400000e+08	2.695258e+14	0.000000e+00	7.619043e-01	7.158094e+15	7.544384e+15	3.294940e+14	2.068153e+04	8.868792e+03	3.231554e+03	0	1.747812e-03
2.500000e+08	2.642889e+14	0.000000e+00	7.619043e-01	7.108426e+15	7.519067e+15	3.277539e+14	2.064666e+04	8.867094e+03	3.230935e+03	0	1.736417e-03
2.600000e+08	2.591044e+14	0.000000e+00	7.619043e-01	7.059229e+15	7.490245e+15	3.260265e+14	2.061203e+04	8.864624e+03	3.230035e+03	0	1.724988e-03
2.700000e+08	2.539734e+14	0.000000e+00	7.619043e-01	7.010510e+15	7.458508e+15	3.243118e+14	2.057764e+04	8.861500e+03	3.228897e+03	0	1.713526e-03
2.800000e+08	2.488964e+14	0.000000e+00	7.619043e-01	6.962274e+15	7.424361e+15	3.226095e+14	2.054349e+04	8.857822e+03	3.227557e+03	0	1.702031e-03
2.900000e+08	2.438739e+14	0.000000e+00	7.619043e-01	6.914523e+15	7.388233e+15	3.209197e+14	2.050957e+04	8.853675e+03	3.226046e+03	0	1.690504e-03
3.000000e+08	2.389060e+14	0.000000e+00	7.619043e-01	6.867259e+15	7.350489e+15	3.192422e+14	2.047589e+04	8.849133e+03	3.224391e+03	0	1.678947e-03
3.100000e+08	2.339928e+14	0.000000e+00	7.619043e-01	6.820480e+15	7.311439e+15	3.175769e+14	2.044243e+04	8.844258e+03	3.222614e+03	0	1.667357e-03
3.200000e+08	2.291341e+14	0.000000e+00	7.619043e-01	6.774185e+15	7.271348e+15	3.159238e+14	2.040920e+04	8.839103e+03	3.220736e+03	0	1.655736e-03
3.300000e+08	2.243297e+14	0.000000e+00	7.619043e-01	6.728372e+15	7.230439e+15	3.142826e+14	2.037620e+04	8.833714e+03	3.218772e+03	0	1.644082e-03
3.400000e+08	2.195793e+14	0.000000e+00	7.619043e-01	6.683038e+15	7.188902e+15	3.126534e+14	2.034342e+04	8.828129e+03	3.216737e+03	0	1.632394e-03
3.500000e+08	2.148825e+14	0.000000e+00	7.619043e-01	6.638179e+15	7.146897e+15	3.110360e+14	2.031086e+04	8.822381e+03	3.214643e+03	0	1.620671e-03
3.600000e+08	2.102389e+14	0.000000e+00	7.619043e-01	6.593791e+15	7.104560e+15	3.094304e+14	2.027852e+04	8.816499e+03	3.212500e+03	0	1.608912e-03
3.700000e+08	2.056479e+14	0.000000e+00	7.619043e-01	6.549870e+15	7.062005e+15	3.078363e+14	2.024639e+04	8.810506e+03	3.210316e+03	0	1.597114e-03
3.800000e+08	2.011091e+14	0.000000e+00	7.619043e-01	6.506411e+15	7.019331e+15	3.062538e+14	2.021448e+04	8.804424e+03	3.208100e+03	0	1.585277e-03
3.900000e+08	1.966219e+14	0.000000e+00	7.619043e-01	6.463408e+15	6.976618e+15	3.046827e+14	2.018278e+04	8.798269e+03	3.205857e+03	0	1.573398e-03
4.000000e+08	1.921857e+14	0.000000e+00	7.619043e-01	6.420858e+15	6.933936e+15	3.031230e+14	2.015129e+04	8.792057e+03	3.203594e+03	0	1.561474e-03
4.100000e+08	1.877998e+14	0.000000e+00	7.619043e-01	6.378754e+15	6.891343e+15	3.015745e+14	2.012000e+04	8.785801e+03	3.201314e+03	0	1.549505e-03
4.200000e+08	1.834638e+14	0.000000e+00	7.619043e-01	6.337091e+15	6.848886e+15	3.000372e+14	2.008892e+04	8.779512e+03	3.199022e+03	0	1.537486e-03
4.300000e+08	1.791768e+14	0.000000e+00	7.619043e-01	6.295865e+15	6.806608e+15	2.985110e+14	2.005804e+04	8.773198e+03	3.196722e+03	0	1.525417e-03
4.400000e+08	1.749385e+14	0.000000e+00	7.619043e-01	6.255068e+15	6.764541e+15	2.969957e+14	2.002737e+04	8.766868e+03	3.194416e+03	0	1.513293e-03
4.500000e+08	1.707480e+14	0.000000e+00	7.619043e-01	6.214697e+15	6.722714e+15	2.954913e+14	1.999689e+04	8.760529e+03	3.192106e+03	0	1.501112e-03
4.600000e+08	1.666048e+14	0.000000e+00	7.619043e-01	6.174745e+15	6.681150e+15	2.939978e+14	1.996661e+04	8.754187e+03	3.189795e+03	0	1.488871e-03
4.700000e+08	1.625082e+14	0.000000e+00	7.619043e-01	6.135206e+15	6.639869e+15	2.925149e+14	1.993652e+04	8.747846e+03	3.187484e+03	0	1.476566e-03
4.800000e+08	1.584576e+14	0.000000e+00	7.619043e-01	6.096077e+15	6.598886e+15	2.910427e+14	1.990662e+04	8.741511e+03	3.185176e+03	0	1.464195e-03
4.900000e+08	1.544523e+14	0.000000e+00	7.619043e-01	6.057350e+15	6.558214e+15	2.895810e+14	1.987691e+04	8.735185e+03	3.182871e+03	0	1.451753e-03
5.000000e+08	1.504919e+14	0.000000e+00	7.619043e-01	6.019021e+15	6.517863e+15	2.881297e+14	1.984740e+04	8.728872e+03	3.180571e+03	0	1.439237e-03
5.100000e+08	1.465756e+14	0.000000e+00	7.619043e-01	5.981085e+15	6.477841e+15	2.866888e+14	1.981807e+04	8.722574e+03	3.178276e+03	0	1.426642e-03
5.200000e+08	1.427027e+14	0.000000e+00	7.619043e-01	5.943535e+15	6.438154e+15	2.852583e+14	1.978892e+04	8.716293e+03	3.175987e+03	0	1.413965e-03
5.300000e+08	1.388729e+14	0.000000e+00	7.619043e-01	5.906368e+15	6.398806e+15	2.838379e+14	1.975996e+04	8.710032e+03	3.173706e+03	0	1.401201e-03
5.400000e+08	1.350853e+14	0.000000e+00	7.619043e-01	5.869577e+15	6.359802e+15	2.824276e+14	1.973117e+04	8.703791e+03	3.171432e+03	0	1.388344e-03
5.500000e+08	1.313395e+14	0.000000e+00	7.619043e-01	5.833159e+15	6.321142e+15	2.810273e+14	1.970257e+04	8.697573e+03	3.169166e+03	0	1.375391e-03
5.600000e+08	1.276348e+14	0.000000e+00	7.619043e-01	5.797107e+15	6.282829e+15	2.796371e+14	1.967414e+04	8.691378e+03	3.166909e+03	0	1.362336e-03
5.700000e+08	1.239708e+14	0.000000e+00	7.619043e-01	5.761416e+15	6.244862e+15	2.782566e+14	1.964589e+04	8.685207e+03	3.164660e+03	0	1.349173e-03
5.800000e+08	1.203467e+14	0.000000e+00	7.619043e-01	5.726083e+15	6.207242e+15	2.768860e+14	1.961781e+04	8.679061e+03	3.162421e+03	0	1.335896e-03
5.900000e+08	1.167621e+14	0.000000e+00	7.619043e-01	5.691102e+15	6.169966e+15	2.755251e+14	1.958990e+04	8.672941e+03	3.160191e+03	0	1.322498e-03
6.000000e+08	1.132164e+14	0.000000e+00	7.619043e-01	5.656468e+15	6.133035e+15	2.741739e+14	1.956217e+04	8.666847e+03	3.157970e+03	0	1.308974e-03
6.100000e+08	1.097091e+14	0.000000e+00	7.619043e-01	5.622177e+15	6.096446e+15	2.728321e+14	1.953460e+04	8.660780e+03	3.155760e+03	0	1.295315e-03
6.200000e+08	1.062397e+14	0.000000e+00	7.619043e-01	5.588224e+15	6.060197e+15	2.714999e+14	1.950720e+04	8.654739e+03	3.153559e+03	0	1.281514e-03
6.300000e+08	1.028075e+14	0.000000e+00	7.619043e-01	5.554605e+15	6.024285e+15	2.701771e+14	1.947996e+04	8.648726e+03	3.151368e+03	0	1.267563e-03
6.400000e+08	9.941219e+13	0.000000e+00	7.619043e-01	5.521315e+15	5.988709e+15	2.688636e+14	1.945289e+04	8.642740e+03	3.149187e+03	0	1.253452e-03
6.500000e+08	9.605315e+13	0.000000e+00	7.619043e-01	5.488349e+15	5.953464e+15	2.675594e+14	1.942598e+04	8.636782e+03	3.147015e+03	0	1.239172e-03
6.600000e+08	9.272991e+13	0.000000e+00	7.619043e-01	5.455705e+15	5.918549e+15	2.662643e+14	1.939923e+04	8.630851e+03	3.144854e+03	0	1.224713e-03
6.700000e+08	8.944199e+13	0.000000e+00	7.619043e-01	5.423376e+15	5.883959e+15	2.649783e+14	1.937264e+04	8.624948e+03	3.142704e+03	0	1.210064e-03
6.800000e+08	8.618888e+13	0.000000e+00	7.619043e-01	5.391360e+15	5.849693e+15	2.637014e+14	1.934621e+04	8.619073e+03	3.140563e+03	0	1.195212e-03
6.900000e+08	8.297013e+13	0.000000e+00	7.619043e-01	5.359652e+15	5.815745e+15	2.624334e+14	1.931993e+04	8.613225e+03	3.138432e+03	0	1.180144e-03
7.000000e+08	7.978527e+13	0.000000e+00	7.619043e-01	5.328248e+15	5.782114e+15	2.611743e+14	1.929380e+04	8.607405e+03	3.136311e+03	0	1.164847e-03
7.100000e+08	7.663383e+13	0.000000e+00	7.619043e-01	5.297143e+15	5.748796e+15	2.599241e+14	1.926783e+04	8.601612e+03	3.134201e+03	0	1.149303e-03
7.200000e+08	7.351536e+13	0.000000e+00	7.619043e-01	5.266335e+15	5.715786e+15	2.586826e+14	1.924201e+04	8.595847e+03	3.132100e+03	0	1.133497e-03
7.300000e+08	7.042942e+13	0.000000e+00	7.619043e-01	5.235819e+15	5.683083e+15	2.574497e+14	1.921634e+04	8.590109e+03	3.130009e+03	0	1.117410e-03
7.400000e+08	6.737556e+13	0.000000e+00	7.619043e-01	5.205592e+15	5.650681e+15	2.562255e+14	1.919082e+04	8.584399e+03	3.127928e+03	0	1.101020e-03
7.500000e+08	6.435337e+13	0.000000e+00	7.619043e-01	5.175649e+15	5.618579e+15	2.550098e+14	1.916545e+04	8.578715e+03	3.125858e+03	0	1.084305e-03
7.600000e+08	6.136242e+13	0.000000e+00	7.619043e-01	5.145987e+15	5.586772e+15	2.538025e+14	1.914022e+04	8.573059e+03	3.123797e+03	0	1.067240e-03
7.700000e+08	5.840228e+13	0.000000e+00	7.619043e-01	5.116603e+15	5.555257e+15	2.526037e+14	1.911514e+04	8.567429e+03	3.121745e+03	0	1.049795e-03
7.800000e+08	5.547256e+13	0.000000e+00	7.619043e-01	5.087493e+15	5.524030e+15	2.514132e+14	1.909019e+04	8.561826e+03	3.119704e+03	0	1.031939e-03
7.900000e+08	5.257284e+13	0.000000e+00	7.619043e-01	5.058653e+15	5.493088e+15	2.502309e+14	1.906539e+04	8.556250e+03	3.117672e+03	0	1.013635e-03
8.000000e+08	4.970273e+13	0.000000e+00	7.619043e-01	5.030080e+15	5.462428e+15	2.490569e+14	1.904074e+04	8.550699e+03	3.115649e+03	0	9.948431e-04
8.100000e+08	4.686185e+13	0.000000e+00	7.619043e-01	5.001771e+15	5.432046e+15	2.478910e+14	1.901621e+04	8.545175e+03	3.113636e+03	0	9.755158e-04
8.200000e+08	4.404980e+13	0.000000e+00	7.619043e-01	4.973722e+15	5.401940e+15	2.467331e+14	1.899183e+04	8.539677e+03	3.111633e+03	0	9.555993e-04
8.300000e+08	4.126621e+13	0.000000e+00	7.619043e-01	4.945930e+15	5.372105e+15	2.455833e+14	1.896759e+04	8.534205e+03	3.109639e+03	0	9.350311e-04
8.400000e+08	3.851071e+13	0.000000e+00	7.619043e-01	4.918392e+15	5.342538e+15	2.444414e+14	1.894348e+04	8.528758e+03	3.107655e+03	0	9.137380e-04
8.500000e+08	3.578294e+13	0.000000e+00	7.619043e-01	4.891104e+15	5.313237e+15	2.433074e+14	1.891950e+04	8.523337e+03	3.105679e+03	0	8.916338e-04
8.600000e+08	3.308252e+13	0.000000e+00	7.619043e-01	4.864064e+15	5.284197e+15	2.421812e+14	1.889565e+04	8.517941e+03	3.103713e+03	0	8.686151e-04
8.700000e+08	3.040912e+13	0.000000e+00	7.619043e-01	4.837269e+15	5.255417e+15	2.410628e+14	1.887194e+04	8.512570e+03	3.101756e+03	0	8.445573e-04
8.800000e+08	2.776238e+13	0.000000e+00	7.619043e-01	4.810714e+15	5.226892e+15	2.399520e+14	1.884836e+04	8.507224e+03	3.099808e+03	0	8.193071e-04
8.900000e+08	2.514196e+13	0.000000e+00	7.619043e-01	4.784399e+15	5.198621e+15	2.388489e+14	1.882491e+04	8.501903e+03	3.097869e+03	0	7.926733e-04
9.000000e+08	2.254751e+13	0.000000e+00	7.619043e-01	4.758318e+15	5.170599e+15	2.377534e+14	1.880158e+04	8.496606e+03	3.095939e+03	0	7.644118e-04
9.100000e+08	1.997872e+13	0.000000e+00	7.619043e-01	4.732470e+15	5.142823e+15	2.366653e+14	1.877838e+04	8.491334e+03	3.094018e+03	0	7.342046e-04
9.200000e+08	1.743525e+13	0.000000e+00	7.619043e-01	4.706852e+15	5.115292e+15	2.355848e+14	1.875531e+04	8.486085e+03	3.092106e+03	0	7.016232e-04
9.300000e+08	1.491679e+13	0.000000e+00	7.619043e-01	4.681461e+15	5.088001e+15	2.345116e+14	1.873237e+04	8.480861e+03	3.090202e+03	0	6.660696e-04
9.400000e+08	1.242300e+13	0.000000e+00	7.619043e-01	4.656294e+15	5.060949e+15	2.334457e+14	1.870954e+04	8.475661e+03	3.088307e+03	0	6.266669e-04
9.500000e+08	9.953596e+12	0.000000e+00	7.619043e-01	4.631349e+15	5.034132e+15	2.323871e+14	1.868684e+04	8.470484e+03	3.086421e+03	0	5.820423e-04
9.600000e+08	7.508254e+12	0.000000e+00	7.619043e-01	4.606622e+15	5.007547e+15	2.313358e+14	1.866426e+04	8.465331e+03	3.084543e+03	0	5.298352e-04
9.700000e+08	5.086678e+12	0.000000e+00	7.619043e-01	4.582111e+15	4.981192e+15	2.302916e+14	1.864180e+04	8.460200e+03	3.082674e+03	0	4.653424e-04
9.800000e+08	2.688570e+12	0.000000e+00	7.619043e-01	4.557814e+15	4.955064e+15	2.292545e+14	1.861946e+04	8.455093e+03	3.080813e+03	0	3.762429e-04
9.900000e+08	3.136380e+11	0.000000e+00	7.619043e-01	4.533728e+15	4.929160e+15	2.282244e+14	1.859724e+04	8.450009e+03	3.078961e+03	0	1.838389e-04
1.000000e+09	-2.038407e+12	0.000000e+00	7.619043e-01	4.509851e+15	4.903478e+15	2.272014e+14	1.857513e+04	8.444948e+03	3.077116e+03	0	nan
