#t		Qconv[W]	Ri[Rp]		R*[Rp]		Qc[W]		Qm[W]		Qr[W]		Tcmb[K]		Tl[K]		Tup[K]		RiFlag		Bs[T]
0.000000e+00	5.236318e+12	0.000000e+00	4.088050e-01	2.219040e+14	1.551535e+15	1.270714e+14	7.172096e+03	3.476345e+03	2.195387e+03	0	7.379935e-04
1.000000e+07	4.764211e+12	0.000000e+00	4.088050e-01	2.021178e+14	1.335854e+15	1.263673e+14	7.054251e+03	3.391275e+03	2.141663e+03	0	7.151122e-04
2.000000e+07	4.360235e+12	0.000000e+00	4.088050e-01	1.851842e+14	1.170024e+15	1.256685e+14	6.946627e+03	3.319435e+03	2.096295e+03	0	6.943000e-04
3.000000e+07	4.011577e+12	0.000000e+00	4.088050e-01	1.705669e+14	1.039194e+15	1.249749e+14	6.847788e+03	3.257759e+03	2.057345e+03	0	6.752774e-04
4.000000e+07	3.708240e+12	0.000000e+00	4.088050e-01	1.578475e+14	9.337441e+14	1.242865e+14	6.756562e+03	3.204082e+03	2.023447e+03	0	6.578090e-04
5.000000e+07	3.442378e+12	0.000000e+00	4.088050e-01	1.466975e+14	8.472060e+14	1.236033e+14	6.671982e+03	3.156830e+03	1.993606e+03	0	6.416971e-04
6.000000e+07	3.207785e+12	0.000000e+00	4.088050e-01	1.368572e+14	7.750882e+14	1.229251e+14	6.593247e+03	3.114830e+03	1.967082e+03	0	6.267758e-04
7.000000e+07	2.999505e+12	0.000000e+00	4.088050e-01	1.281191e+14	7.141863e+14	1.222520e+14	6.519684e+03	3.077185e+03	1.943308e+03	0	6.129057e-04
8.000000e+07	2.813544e+12	0.000000e+00	4.088050e-01	1.203161e+14	6.621597e+14	1.215838e+14	6.450725e+03	3.043200e+03	1.921846e+03	0	5.999685e-04
9.000000e+07	2.646657e+12	0.000000e+00	4.088050e-01	1.133121e+14	6.172628e+14	1.209207e+14	6.385885e+03	3.012326e+03	1.902348e+03	0	5.878634e-04
1.000000e+08	2.496179e+12	0.000000e+00	4.088050e-01	1.069957e+14	5.781702e+14	1.202625e+14	6.324752e+03	2.984120e+03	1.884536e+03	0	5.765041e-04
1.100000e+08	2.359907e+12	0.000000e+00	4.088050e-01	1.012746e+14	5.438591e+14	1.196091e+14	6.266966e+03	2.958225e+03	1.868183e+03	0	5.658164e-04
1.200000e+08	2.236008e+12	0.000000e+00	4.088050e-01	9.607195e+13	5.135288e+14	1.189606e+14	6.212218e+03	2.934347e+03	1.853103e+03	0	5.557357e-04
1.300000e+08	2.122940e+12	0.000000e+00	4.088050e-01	9.132334e+13	4.865445e+14	1.183169e+14	6.160237e+03	2.912241e+03	1.839143e+03	0	5.462060e-04
1.400000e+08	2.019404e+12	0.000000e+00	4.088050e-01	8.697426e+13	4.623967e+14	1.176780e+14	6.110785e+03	2.891702e+03	1.826172e+03	0	5.371781e-04
1.500000e+08	1.924295e+12	0.000000e+00	4.088050e-01	8.297842e+13	4.406726e+14	1.170438e+14	6.063653e+03	2.872558e+03	1.814082e+03	0	5.286088e-04
1.600000e+08	1.836667e+12	0.000000e+00	4.088050e-01	7.929626e+13	4.210340e+14	1.164142e+14	6.018654e+03	2.854659e+03	1.802778e+03	0	5.204600e-04
1.700000e+08	1.755709e+12	0.000000e+00	4.088050e-01	7.589376e+13	4.032019e+14	1.157894e+14	5.975623e+03	2.837880e+03	1.792182e+03	0	5.126977e-04
1.800000e+08	1.680720e+12	0.000000e+00	4.088050e-01	7.274154e+13	3.869437e+14	1.151691e+14	5.934413e+03	2.822112e+03	1.782224e+03	0	5.052918e-04
1.900000e+08	1.611090e+12	0.000000e+00	4.088050e-01	6.981410e+13	3.720647e+14	1.145534e+14	5.894892e+03	2.807259e+03	1.772845e+03	0	4.982154e-04
2.000000e+08	1.546290e+12	0.000000e+00	4.088050e-01	6.708923e+13	3.584002e+14	1.139422e+14	5.856941e+03	2.793239e+03	1.763990e+03	0	4.914442e-04
2.100000e+08	1.485856e+12	0.000000e+00	4.088050e-01	6.454747e+13	3.458103e+14	1.133355e+14	5.820452e+03	2.779978e+03	1.755616e+03	0	4.849565e-04
2.200000e+08	1.429379e+12	0.000000e+00	4.088050e-01	6.217172e+13	3.341755e+14	1.127333e+14	5.785329e+03	2.767413e+03	1.747681e+03	0	4.787325e-04
2.300000e+08	1.376499e+12	0.000000e+00	4.088050e-01	5.994690e+13	3.233929e+14	1.121355e+14	5.751483e+03	2.755486e+03	1.740148e+03	0	4.727547e-04
2.400000e+08	1.326898e+12	0.000000e+00	4.088050e-01	5.785965e+13	3.133738e+14	1.115421e+14	5.718834e+03	2.744146e+03	1.732987e+03	0	4.670066e-04
2.500000e+08	1.280294e+12	0.000000e+00	4.088050e-01	5.589813e+13	3.040410e+14	1.109530e+14	5.687309e+03	2.733349e+03	1.726169e+03	0	4.614738e-04
2.600000e+08	1.236433e+12	0.000000e+00	4.088050e-01	5.405177e+13	2.953274e+14	1.103682e+14	5.656841e+03	2.723054e+03	1.719667e+03	0	4.561427e-04
2.700000e+08	1.195091e+12	0.000000e+00	4.088050e-01	5.231113e+13	2.871739e+14	1.097877e+14	5.627368e+03	2.713224e+03	1.713459e+03	0	4.510010e-04
2.800000e+08	1.156067e+12	0.000000e+00	4.088050e-01	5.066776e+13	2.795290e+14	1.092115e+14	5.598834e+03	2.703826e+03	1.707524e+03	0	4.460376e-04
2.900000e+08	1.119178e+12	0.000000e+00	4.088050e-01	4.911405e+13	2.723467e+14	1.086395e+14	5.571188e+03	2.694831e+03	1.701844e+03	0	4.412421e-04
3.000000e+08	1.084262e+12	0.000000e+00	4.088050e-01	4.764315e+13	2.655868e+14	1.080716e+14	5.544380e+03	2.686211e+03	1.696400e+03	0	4.366049e-04
3.100000e+08	1.051171e+12	0.000000e+00	4.088050e-01	4.624889e+13	2.592131e+14	1.075078e+14	5.518368e+03	2.677942e+03	1.691178e+03	0	4.321173e-04
3.200000e+08	1.019772e+12	0.000000e+00	4.088050e-01	4.492568e+13	2.531937e+14	1.069482e+14	5.493109e+03	2.670002e+03	1.686164e+03	0	4.277712e-04
3.300000e+08	9.899437e+11	0.000000e+00	4.088050e-01	4.366842e+13	2.474998e+14	1.063926e+14	5.468566e+03	2.662369e+03	1.681343e+03	0	4.235591e-04
3.400000e+08	9.615760e+11	0.000000e+00	4.088050e-01	4.247252e+13	2.421058e+14	1.058411e+14	5.444704e+03	2.655026e+03	1.676706e+03	0	4.194740e-04
3.500000e+08	9.345687e+11	0.000000e+00	4.088050e-01	4.133376e+13	2.369885e+14	1.052936e+14	5.421489e+03	2.647954e+03	1.672240e+03	0	4.155095e-04
3.600000e+08	9.088303e+11	0.000000e+00	4.088050e-01	4.024830e+13	2.321271e+14	1.047500e+14	5.398891e+03	2.641138e+03	1.667935e+03	0	4.116595e-04
3.700000e+08	8.842773e+11	0.000000e+00	4.088050e-01	3.921265e+13	2.275028e+14	1.042104e+14	5.376881e+03	2.634563e+03	1.663783e+03	0	4.079184e-04
3.800000e+08	8.608330e+11	0.000000e+00	4.088050e-01	3.822358e+13	2.230984e+14	1.036747e+14	5.355433e+03	2.628215e+03	1.659774e+03	0	4.042811e-04
3.900000e+08	8.384270e+11	0.000000e+00	4.088050e-01	3.727814e+13	2.188986e+14	1.031428e+14	5.334521e+03	2.622083e+03	1.655902e+03	0	4.007427e-04
4.000000e+08	8.169948e+11	0.000000e+00	4.088050e-01	3.637363e+13	2.148892e+14	1.026148e+14	5.314122e+03	2.616154e+03	1.652158e+03	0	3.972985e-04
4.100000e+08	7.964768e+11	0.000000e+00	4.088050e-01	3.550754e+13	2.110574e+14	1.020906e+14	5.294214e+03	2.610418e+03	1.648535e+03	0	3.939444e-04
4.200000e+08	7.768183e+11	0.000000e+00	4.088050e-01	3.467758e+13	2.073914e+14	1.015702e+14	5.274776e+03	2.604865e+03	1.645028e+03	0	3.906762e-04
4.300000e+08	7.579685e+11	0.000000e+00	4.088050e-01	3.388162e+13	2.038804e+14	1.010535e+14	5.255789e+03	2.599485e+03	1.641630e+03	0	3.874904e-04
4.400000e+08	7.398805e+11	0.000000e+00	4.088050e-01	3.311769e+13	2.005148e+14	1.005406e+14	5.237234e+03	2.594269e+03	1.638336e+03	0	3.843832e-04
4.500000e+08	7.225111e+11	0.000000e+00	4.088050e-01	3.238397e+13	1.972853e+14	1.000313e+14	5.219095e+03	2.589210e+03	1.635142e+03	0	3.813514e-04
4.600000e+08	7.058200e+11	0.000000e+00	4.088050e-01	3.167877e+13	1.941838e+14	9.952569e+13	5.201354e+03	2.584299e+03	1.632041e+03	0	3.783919e-04
4.700000e+08	6.897699e+11	0.000000e+00	4.088050e-01	3.100053e+13	1.912024e+14	9.902371e+13	5.183997e+03	2.579531e+03	1.629029e+03	0	3.755017e-04
4.800000e+08	6.743259e+11	0.000000e+00	4.088050e-01	3.034779e+13	1.883342e+14	9.852532e+13	5.167009e+03	2.574897e+03	1.626103e+03	0	3.726780e-04
4.900000e+08	6.594560e+11	0.000000e+00	4.088050e-01	2.971919e+13	1.855726e+14	9.803049e+13	5.150376e+03	2.570392e+03	1.623258e+03	0	3.699183e-04
5.000000e+08	6.451298e+11	0.000000e+00	4.088050e-01	2.911347e+13	1.829116e+14	9.753921e+13	5.134085e+03	2.566011e+03	1.620491e+03	0	3.672199e-04
5.100000e+08	6.313194e+11	0.000000e+00	4.088050e-01	2.852945e+13	1.803455e+14	9.705144e+13	5.118123e+03	2.561746e+03	1.617798e+03	0	3.645806e-04
5.200000e+08	6.179985e+11	0.000000e+00	4.088050e-01	2.796602e+13	1.778691e+14	9.656715e+13	5.102480e+03	2.557594e+03	1.615175e+03	0	3.619981e-04
5.300000e+08	6.051426e+11	0.000000e+00	4.088050e-01	2.742216e+13	1.754777e+14	9.608631e+13	5.087144e+03	2.553549e+03	1.612621e+03	0	3.594704e-04
5.400000e+08	5.927287e+11	0.000000e+00	4.088050e-01	2.689691e+13	1.731667e+14	9.560889e+13	5.072103e+03	2.549607e+03	1.610131e+03	0	3.569953e-04
5.500000e+08	5.807354e+11	0.000000e+00	4.088050e-01	2.638936e+13	1.709319e+14	9.513488e+13	5.057350e+03	2.545763e+03	1.607704e+03	0	3.545711e-04
5.600000e+08	5.691425e+11	0.000000e+00	4.088050e-01	2.589866e+13	1.687694e+14	9.466423e+13	5.042872e+03	2.542013e+03	1.605336e+03	0	3.521958e-04
5.700000e+08	5.579311e+11	0.000000e+00	4.088050e-01	2.542403e+13	1.666755e+14	9.419693e+13	5.028662e+03	2.538354e+03	1.603025e+03	0	3.498679e-04
5.800000e+08	5.470834e+11	0.000000e+00	4.088050e-01	2.496470e+13	1.646470e+14	9.373294e+13	5.014711e+03	2.534781e+03	1.600769e+03	0	3.475855e-04
5.900000e+08	5.365828e+11	0.000000e+00	4.088050e-01	2.451999e+13	1.626805e+14	9.327224e+13	5.001011e+03	2.531292e+03	1.598565e+03	0	3.453473e-04
6.000000e+08	5.264134e+11	0.000000e+00	4.088050e-01	2.408923e+13	1.607730e+14	9.281480e+13	4.987553e+03	2.527882e+03	1.596412e+03	0	3.431517e-04
6.100000e+08	5.165605e+11	0.000000e+00	4.088050e-01	2.367180e+13	1.589219e+14	9.236060e+13	4.974330e+03	2.524549e+03	1.594307e+03	0	3.409973e-04
6.200000e+08	5.070102e+11	0.000000e+00	4.088050e-01	2.326711e+13	1.571243e+14	9.190960e+13	4.961334e+03	2.521290e+03	1.592249e+03	0	3.388827e-04
6.300000e+08	4.977492e+11	0.000000e+00	4.088050e-01	2.287462e+13	1.553780e+14	9.146179e+13	4.948560e+03	2.518102e+03	1.590235e+03	0	3.368067e-04
6.400000e+08	4.887651e+11	0.000000e+00	4.088050e-01	2.249378e+13	1.536805e+14	9.101714e+13	4.936000e+03	2.514982e+03	1.588265e+03	0	3.347680e-04
6.500000e+08	4.800463e+11	0.000000e+00	4.088050e-01	2.212413e+13	1.520297e+14	9.057562e+13	4.923648e+03	2.511927e+03	1.586336e+03	0	3.327654e-04
6.600000e+08	4.715815e+11	0.000000e+00	4.088050e-01	2.176518e+13	1.504235e+14	9.013721e+13	4.911497e+03	2.508936e+03	1.584447e+03	0	3.307979e-04
6.700000e+08	4.633603e+11	0.000000e+00	4.088050e-01	2.141649e+13	1.488600e+14	8.970188e+13	4.899543e+03	2.506006e+03	1.582597e+03	0	3.288644e-04
6.800000e+08	4.553728e+11	0.000000e+00	4.088050e-01	2.107765e+13	1.473374e+14	8.926961e+13	4.887779e+03	2.503135e+03	1.580784e+03	0	3.269637e-04
6.900000e+08	4.476094e+11	0.000000e+00	4.088050e-01	2.074826e+13	1.458538e+14	8.884037e+13	4.876200e+03	2.500321e+03	1.579006e+03	0	3.250950e-04
7.000000e+08	4.400614e+11	0.000000e+00	4.088050e-01	2.042795e+13	1.444078e+14	8.841413e+13	4.864801e+03	2.497561e+03	1.577263e+03	0	3.232573e-04
7.100000e+08	4.327202e+11	0.000000e+00	4.088050e-01	2.011636e+13	1.429978e+14	8.799089e+13	4.853578e+03	2.494854e+03	1.575554e+03	0	3.214496e-04
7.200000e+08	4.255777e+11	0.000000e+00	4.088050e-01	1.981314e+13	1.416222e+14	8.757060e+13	4.842524e+03	2.492197e+03	1.573876e+03	0	3.196712e-04
7.300000e+08	4.186263e+11	0.000000e+00	4.088050e-01	1.951799e+13	1.402798e+14	8.715325e+13	4.831636e+03	2.489591e+03	1.572230e+03	0	3.179211e-04
7.400000e+08	4.118588e+11	0.000000e+00	4.088050e-01	1.923059e+13	1.389691e+14	8.673881e+13	4.820910e+03	2.487031e+03	1.570614e+03	0	3.161986e-04
7.500000e+08	4.052682e+11	0.000000e+00	4.088050e-01	1.895065e+13	1.376891e+14	8.632726e+13	4.810341e+03	2.484518e+03	1.569026e+03	0	3.145029e-04
7.600000e+08	3.988480e+11	0.000000e+00	4.088050e-01	1.867790e+13	1.364384e+14	8.591858e+13	4.799924e+03	2.482049e+03	1.567467e+03	0	3.128333e-04
7.700000e+08	3.925919e+11	0.000000e+00	4.088050e-01	1.841207e+13	1.352161e+14	8.551274e+13	4.789657e+03	2.479623e+03	1.565935e+03	0	3.111890e-04
7.800000e+08	3.864939e+11	0.000000e+00	4.088050e-01	1.815291e+13	1.340209e+14	8.510973e+13	4.779536e+03	2.477238e+03	1.564429e+03	0	3.095694e-04
7.900000e+08	3.805484e+11	0.000000e+00	4.088050e-01	1.790019e+13	1.328520e+14	8.470951e+13	4.769556e+03	2.474894e+03	1.562949e+03	0	3.079738e-04
8.000000e+08	3.747500e+11	0.000000e+00	4.088050e-01	1.765367e+13	1.317083e+14	8.431207e+13	4.759714e+03	2.472589e+03	1.561493e+03	0	3.064016e-04
8.100000e+08	3.690934e+11	0.000000e+00	4.088050e-01	1.741314e+13	1.305890e+14	8.391738e+13	4.750007e+03	2.470322e+03	1.560061e+03	0	3.048522e-04
8.200000e+08	3.635738e+11	0.000000e+00	4.088050e-01	1.717838e+13	1.294932e+14	8.352542e+13	4.740432e+03	2.468091e+03	1.558652e+03	0	3.033249e-04
8.300000e+08	3.581863e+11	0.000000e+00	4.088050e-01	1.694921e+13	1.284200e+14	8.313617e+13	4.730986e+03	2.465896e+03	1.557266e+03	0	3.018192e-04
8.400000e+08	3.529266e+11	0.000000e+00	4.088050e-01	1.672543e+13	1.273687e+14	8.274962e+13	4.721665e+03	2.463735e+03	1.555901e+03	0	3.003346e-04
8.500000e+08	3.477903e+11	0.000000e+00	4.088050e-01	1.650687e+13	1.263385e+14	8.236573e+13	4.712466e+03	2.461607e+03	1.554558e+03	0	2.988705e-04
8.600000e+08	3.427733e+11	0.000000e+00	4.088050e-01	1.629333e+13	1.253287e+14	8.198448e+13	4.703387e+03	2.459512e+03	1.553235e+03	0	2.974264e-04
8.700000e+08	3.378717e+11	0.000000e+00	4.088050e-01	1.608467e+13	1.243386e+14	8.160586e+13	4.694425e+03	2.457448e+03	1.551931e+03	0	2.960019e-04
8.800000e+08	3.330816e+11	0.000000e+00	4.088050e-01	1.588073e+13	1.233676e+14	8.122984e+13	4.685577e+03	2.455415e+03	1.550647e+03	0	2.945964e-04
8.900000e+08	3.283994e+11	0.000000e+00	4.088050e-01	1.568134e+13	1.224150e+14	8.085641e+13	4.676841e+03	2.453411e+03	1.549382e+03	0	2.932095e-04
9.000000e+08	3.238218e+11	0.000000e+00	4.088050e-01	1.548636e+13	1.214803e+14	8.048554e+13	4.668214e+03	2.451436e+03	1.548135e+03	0	2.918407e-04
9.100000e+08	3.193454e+11	0.000000e+00	4.088050e-01	1.529566e+13	1.205628e+14	8.011722e+13	4.659694e+03	2.449489e+03	1.546905e+03	0	2.904897e-04
9.200000e+08	3.149669e+11	0.000000e+00	4.088050e-01	1.510910e+13	1.196621e+14	7.975141e+13	4.651278e+03	2.447569e+03	1.545693e+03	0	2.891560e-04
9.300000e+08	3.106834e+11	0.000000e+00	4.088050e-01	1.492656e+13	1.187776e+14	7.938811e+13	4.642964e+03	2.445676e+03	1.544497e+03	0	2.878391e-04
9.400000e+08	3.064919e+11	0.000000e+00	4.088050e-01	1.474790e+13	1.179087e+14	7.902729e+13	4.634751e+03	2.443808e+03	1.543317e+03	0	2.865388e-04
9.500000e+08	3.023896e+11	0.000000e+00	4.088050e-01	1.457301e+13	1.170551e+14	7.866893e+13	4.626635e+03	2.441965e+03	1.542153e+03	0	2.852547e-04
9.600000e+08	2.983737e+11	0.000000e+00	4.088050e-01	1.440177e+13	1.162163e+14	7.831302e+13	4.618616e+03	2.440146e+03	1.541005e+03	0	2.839863e-04
9.700000e+08	2.944418e+11	0.000000e+00	4.088050e-01	1.423409e+13	1.153918e+14	7.795953e+13	4.610690e+03	2.438351e+03	1.539871e+03	0	2.827333e-04
9.800000e+08	2.905913e+11	0.000000e+00	4.088050e-01	1.406984e+13	1.145812e+14	7.760845e+13	4.602856e+03	2.436579e+03	1.538752e+03	0	2.814955e-04
9.900000e+08	2.868198e+11	0.000000e+00	4.088050e-01	1.390894e+13	1.137841e+14	7.725975e+13	4.595112e+03	2.434830e+03	1.537647e+03	0	2.802723e-04
1.000000e+09	2.831250e+11	0.000000e+00	4.088050e-01	1.375128e+13	1.130000e+14	7.691342e+13	4.587456e+03	2.433102e+03	1.536556e+03	0	2.790636e-04
1.010000e+09	2.795047e+11	0.000000e+00	4.088050e-01	1.359677e+13	1.122288e+14	7.656944e+13	4.579887e+03	2.431395e+03	1.535478e+03	0	2.778691e-04
1.020000e+09	2.759567e+11	0.000000e+00	4.088050e-01	1.344531e+13	1.114699e+14	7.622778e+13	4.572402e+03	2.429709e+03	1.534413e+03	0	2.766883e-04
1.030000e+09	2.724789e+11	0.000000e+00	4.088050e-01	1.329683e+13	1.107230e+14	7.588844e+13	4.565001e+03	2.428043e+03	1.533361e+03	0	2.755211e-04
1.040000e+09	2.690695e+11	0.000000e+00	4.088050e-01	1.315124e+13	1.099878e+14	7.555140e+13	4.557680e+03	2.426397e+03	1.532322e+03	0	2.743671e-04
1.050000e+09	2.657265e+11	0.000000e+00	4.088050e-01	1.300846e+13	1.092640e+14	7.521663e+13	4.550440e+03	2.424770e+03	1.531294e+03	0	2.732261e-04
1.060000e+09	2.624480e+11	0.000000e+00	4.088050e-01	1.286841e+13	1.085512e+14	7.488412e+13	4.543278e+03	2.423161e+03	1.530278e+03	0	2.720978e-04
1.070000e+09	2.592323e+11	0.000000e+00	4.088050e-01	1.273102e+13	1.078493e+14	7.455384e+13	4.536193e+03	2.421571e+03	1.529274e+03	0	2.709819e-04
1.080000e+09	2.560777e+11	0.000000e+00	4.088050e-01	1.259621e+13	1.071578e+14	7.422579e+13	4.529183e+03	2.419999e+03	1.528281e+03	0	2.698782e-04
1.090000e+09	2.529824e+11	0.000000e+00	4.088050e-01	1.246391e+13	1.064765e+14	7.389995e+13	4.522247e+03	2.418444e+03	1.527299e+03	0	2.687864e-04
1.100000e+09	2.499450e+11	0.000000e+00	4.088050e-01	1.233407e+13	1.058052e+14	7.357629e+13	4.515384e+03	2.416906e+03	1.526328e+03	0	2.677064e-04
1.110000e+09	2.469639e+11	0.000000e+00	4.088050e-01	1.220660e+13	1.051436e+14	7.325481e+13	4.508592e+03	2.415384e+03	1.525367e+03	0	2.666378e-04
1.120000e+09	2.440376e+11	0.000000e+00	4.088050e-01	1.208146e+13	1.044914e+14	7.293547e+13	4.501870e+03	2.413879e+03	1.524416e+03	0	2.655804e-04
1.130000e+09	2.411646e+11	0.000000e+00	4.088050e-01	1.195857e+13	1.038484e+14	7.261828e+13	4.495216e+03	2.412389e+03	1.523475e+03	0	2.645341e-04
1.140000e+09	2.383436e+11	0.000000e+00	4.088050e-01	1.183789e+13	1.032145e+14	7.230320e+13	4.488630e+03	2.410915e+03	1.522544e+03	0	2.634986e-04
1.150000e+09	2.355733e+11	0.000000e+00	4.088050e-01	1.171935e+13	1.025892e+14	7.199023e+13	4.482111e+03	2.409455e+03	1.521623e+03	0	2.624737e-04
1.160000e+09	2.328523e+11	0.000000e+00	4.088050e-01	1.160290e+13	1.019726e+14	7.167935e+13	4.475656e+03	2.408011e+03	1.520711e+03	0	2.614592e-04
1.170000e+09	2.301793e+11	0.000000e+00	4.088050e-01	1.148849e+13	1.013643e+14	7.137054e+13	4.469265e+03	2.406581e+03	1.519807e+03	0	2.604550e-04
1.180000e+09	2.275533e+11	0.000000e+00	4.088050e-01	1.137606e+13	1.007641e+14	7.106378e+13	4.462937e+03	2.405165e+03	1.518913e+03	0	2.594607e-04
1.190000e+09	2.249730e+11	0.000000e+00	4.088050e-01	1.126557e+13	1.001719e+14	7.075906e+13	4.456671e+03	2.403762e+03	1.518027e+03	0	2.584763e-04
1.200000e+09	2.224373e+11	0.000000e+00	4.088050e-01	1.115697e+13	9.958739e+13	7.045637e+13	4.450465e+03	2.402373e+03	1.517150e+03	0	2.575015e-04
1.210000e+09	2.199450e+11	0.000000e+00	4.088050e-01	1.105022e+13	9.901052e+13	7.015568e+13	4.444319e+03	2.400998e+03	1.516282e+03	0	2.565361e-04
1.220000e+09	2.174952e+11	0.000000e+00	4.088050e-01	1.094526e+13	9.844107e+13	6.985698e+13	4.438232e+03	2.399635e+03	1.515421e+03	0	2.555801e-04
1.230000e+09	2.150868e+11	0.000000e+00	4.088050e-01	1.084205e+13	9.787886e+13	6.956026e+13	4.432202e+03	2.398284e+03	1.514568e+03	0	2.546332e-04
1.240000e+09	2.127187e+11	0.000000e+00	4.088050e-01	1.074056e+13	9.732374e+13	6.926550e+13	4.426229e+03	2.396947e+03	1.513723e+03	0	2.536953e-04
1.250000e+09	2.103901e+11	0.000000e+00	4.088050e-01	1.064074e+13	9.677554e+13	6.897269e+13	4.420311e+03	2.395621e+03	1.512886e+03	0	2.527662e-04
1.260000e+09	2.081000e+11	0.000000e+00	4.088050e-01	1.054256e+13	9.623412e+13	6.868181e+13	4.414449e+03	2.394307e+03	1.512056e+03	0	2.518457e-04
1.270000e+09	2.058476e+11	0.000000e+00	4.088050e-01	1.044596e+13	9.569933e+13	6.839284e+13	4.408640e+03	2.393004e+03	1.511233e+03	0	2.509338e-04
1.280000e+09	2.036318e+11	0.000000e+00	4.088050e-01	1.035093e+13	9.517102e+13	6.810578e+13	4.402884e+03	2.391713e+03	1.510418e+03	0	2.500301e-04
1.290000e+09	2.014519e+11	0.000000e+00	4.088050e-01	1.025741e+13	9.464906e+13	6.782060e+13	4.397181e+03	2.390433e+03	1.509610e+03	0	2.491347e-04
1.300000e+09	1.993070e+11	0.000000e+00	4.088050e-01	1.016539e+13	9.413331e+13	6.753729e+13	4.391529e+03	2.389164e+03	1.508808e+03	0	2.482474e-04
1.310000e+09	1.971964e+11	0.000000e+00	4.088050e-01	1.007481e+13	9.362364e+13	6.725584e+13	4.385927e+03	2.387905e+03	1.508014e+03	0	2.473680e-04
1.320000e+09	1.951192e+11	0.000000e+00	4.088050e-01	9.985656e+12	9.311993e+13	6.697624e+13	4.380375e+03	2.386658e+03	1.507225e+03	0	2.464964e-04
1.330000e+09	1.930748e+11	0.000000e+00	4.088050e-01	9.897888e+12	9.262206e+13	6.669846e+13	4.374873e+03	2.385420e+03	1.506444e+03	0	2.456324e-04
1.340000e+09	1.910623e+11	0.000000e+00	4.088050e-01	9.811478e+12	9.212990e+13	6.642250e+13	4.369418e+03	2.384192e+03	1.505669e+03	0	2.447760e-04
1.350000e+09	1.890811e+11	0.000000e+00	4.088050e-01	9.726394e+12	9.164334e+13	6.614833e+13	4.364011e+03	2.382974e+03	1.504899e+03	0	2.439270e-04
1.360000e+09	1.871304e+11	0.000000e+00	4.088050e-01	9.642608e+12	9.116227e+13	6.587596e+13	4.358651e+03	2.381766e+03	1.504137e+03	0	2.430853e-04
