#t		Qconv[W]	Ri[Rp]		R*[Rp]		Qc[W]		Qm[W]		Qr[W]		Tcmb[K]		Tl[K]		Tup[K]		RiFlag		Bs[T]
0.000000e+00	1.330401e+13	0.000000e+00	4.088049e-01	4.247691e+14	2.076870e+15	1.897823e+14	8.981080e+03	3.990293e+03	2.323733e+03	0	9.819228e-04
1.000000e+07	1.215700e+13	0.000000e+00	4.088049e-01	3.887541e+14	1.841662e+15	1.887308e+14	8.836615e+03	3.917343e+03	2.281251e+03	0	9.528518e-04
2.000000e+07	1.116875e+13	0.000000e+00	4.088049e-01	3.577158e+14	1.652502e+15	1.876871e+14	8.704085e+03	3.853914e+03	2.244314e+03	0	9.262992e-04
3.000000e+07	1.030994e+13	0.000000e+00	4.088049e-01	3.307366e+14	1.497509e+15	1.866512e+14	8.581880e+03	3.798098e+03	2.211809e+03	0	9.019212e-04
4.000000e+07	9.557888e+12	0.000000e+00	4.088049e-01	3.071049e+14	1.368485e+15	1.856231e+14	8.468680e+03	3.748479e+03	2.182914e+03	0	8.794351e-04
5.000000e+07	8.894737e+12	0.000000e+00	4.088049e-01	2.862615e+14	1.259611e+15	1.846026e+14	8.363392e+03	3.703985e+03	2.157003e+03	0	8.586065e-04
6.000000e+07	8.306314e+12	0.000000e+00	4.088049e-01	2.677622e+14	1.166652e+15	1.835898e+14	8.265101e+03	3.663787e+03	2.133594e+03	0	8.392395e-04
7.000000e+07	7.781228e+12	0.000000e+00	4.088049e-01	2.512500e+14	1.086457e+15	1.825844e+14	8.173034e+03	3.627232e+03	2.112306e+03	0	8.211690e-04
8.000000e+07	7.310236e+12	0.000000e+00	4.088049e-01	2.364350e+14	1.016643e+15	1.815866e+14	8.086536e+03	3.593800e+03	2.092837e+03	0	8.042547e-04
9.000000e+07	6.885763e+12	0.000000e+00	4.088049e-01	2.230799e+14	9.553726e+14	1.805962e+14	8.005045e+03	3.563067e+03	2.074940e+03	0	7.883768e-04
1.000000e+08	6.501554e+12	0.000000e+00	4.088049e-01	2.109886e+14	9.012104e+14	1.796131e+14	7.928075e+03	3.534688e+03	2.058414e+03	0	7.734322e-04
1.100000e+08	6.152399e+12	0.000000e+00	4.088049e-01	1.999976e+14	8.530199e+14	1.786373e+14	7.855206e+03	3.508377e+03	2.043091e+03	0	7.593313e-04
1.200000e+08	5.833928e+12	0.000000e+00	4.088049e-01	1.899699e+14	8.098899e+14	1.776688e+14	7.786070e+03	3.483893e+03	2.028833e+03	0	7.459966e-04
1.300000e+08	5.542451e+12	0.000000e+00	4.088049e-01	1.807898e+14	7.710827e+14	1.767074e+14	7.720346e+03	3.461034e+03	2.015521e+03	0	7.333598e-04
1.400000e+08	5.274834e+12	0.000000e+00	4.088049e-01	1.723590e+14	7.359948e+14	1.757532e+14	7.657749e+03	3.439628e+03	2.003055e+03	0	7.213612e-04
1.500000e+08	5.028395e+12	0.000000e+00	4.088049e-01	1.645934e+14	7.041278e+14	1.748060e+14	7.598028e+03	3.419527e+03	1.991350e+03	0	7.099476e-04
1.600000e+08	4.800834e+12	0.000000e+00	4.088049e-01	1.574208e+14	6.750675e+14	1.738658e+14	7.540959e+03	3.400605e+03	1.980331e+03	0	6.990722e-04
1.700000e+08	4.590160e+12	0.000000e+00	4.088049e-01	1.507788e+14	6.484662e+14	1.729325e+14	7.486342e+03	3.382751e+03	1.969933e+03	0	6.886932e-04
1.800000e+08	4.394650e+12	0.000000e+00	4.088049e-01	1.446132e+14	6.240306e+14	1.720061e+14	7.433998e+03	3.365868e+03	1.960102e+03	0	6.787730e-04
1.900000e+08	4.212797e+12	0.000000e+00	4.088049e-01	1.388769e+14	6.015116e+14	1.710866e+14	7.383766e+03	3.349872e+03	1.950787e+03	0	6.692782e-04
2.000000e+08	4.043287e+12	0.000000e+00	4.088049e-01	1.335285e+14	5.806960e+14	1.701738e+14	7.335501e+03	3.334689e+03	1.941945e+03	0	6.601785e-04
2.100000e+08	3.884963e+12	0.000000e+00	4.088049e-01	1.285318e+14	5.614008e+14	1.692677e+14	7.289072e+03	3.320252e+03	1.933537e+03	0	6.514465e-04
2.200000e+08	3.736804e+12	0.000000e+00	4.088049e-01	1.238546e+14	5.434678e+14	1.683682e+14	7.244359e+03	3.306502e+03	1.925530e+03	0	6.430577e-04
2.300000e+08	3.597907e+12	0.000000e+00	4.088049e-01	1.194687e+14	5.267597e+14	1.674754e+14	7.201254e+03	3.293388e+03	1.917893e+03	0	6.349894e-04
2.400000e+08	3.467472e+12	0.000000e+00	4.088049e-01	1.153489e+14	5.111567e+14	1.665891e+14	7.159658e+03	3.280861e+03	1.910599e+03	0	6.272213e-04
2.500000e+08	3.344783e+12	0.000000e+00	4.088049e-01	1.114728e+14	4.965539e+14	1.657093e+14	7.119480e+03	3.268881e+03	1.903622e+03	0	6.197347e-04
2.600000e+08	3.229203e+12	0.000000e+00	4.088049e-01	1.078203e+14	4.828592e+14	1.648360e+14	7.080637e+03	3.257408e+03	1.896941e+03	0	6.125125e-04
2.700000e+08	3.120161e+12	0.000000e+00	4.088049e-01	1.043735e+14	4.699911e+14	1.639690e+14	7.043053e+03	3.246409e+03	1.890535e+03	0	6.055391e-04
2.800000e+08	3.017143e+12	0.000000e+00	4.088049e-01	1.011163e+14	4.578776e+14	1.631084e+14	7.006658e+03	3.235851e+03	1.884387e+03	0	5.988000e-04
2.900000e+08	2.919687e+12	0.000000e+00	4.088049e-01	9.803406e+13	4.464545e+14	1.622540e+14	6.971388e+03	3.225707e+03	1.878479e+03	0	5.922821e-04
3.000000e+08	2.827375e+12	0.000000e+00	4.088049e-01	9.511380e+13	4.356649e+14	1.614059e+14	6.937181e+03	3.215950e+03	1.872797e+03	0	5.859731e-04
3.100000e+08	2.739830e+12	0.000000e+00	4.088049e-01	9.234360e+13	4.254575e+14	1.605640e+14	6.903983e+03	3.206556e+03	1.867327e+03	0	5.798616e-04
3.200000e+08	2.656709e+12	0.000000e+00	4.088049e-01	8.971270e+13	4.157865e+14	1.597281e+14	6.871743e+03	3.197504e+03	1.862056e+03	0	5.739373e-04
3.300000e+08	2.577700e+12	0.000000e+00	4.088049e-01	8.721131e+13	4.066108e+14	1.588984e+14	6.840413e+03	3.188774e+03	1.856972e+03	0	5.681905e-04
3.400000e+08	2.502520e+12	0.000000e+00	4.088049e-01	8.483051e+13	3.978933e+14	1.580747e+14	6.809948e+03	3.180347e+03	1.852064e+03	0	5.626121e-04
3.500000e+08	2.430911e+12	0.000000e+00	4.088049e-01	8.256219e+13	3.896003e+14	1.572569e+14	6.780308e+03	3.172206e+03	1.847323e+03	0	5.571937e-04
3.600000e+08	2.362636e+12	0.000000e+00	4.088049e-01	8.039889e+13	3.817014e+14	1.564451e+14	6.751453e+03	3.164335e+03	1.842740e+03	0	5.519276e-04
3.700000e+08	2.297478e+12	0.000000e+00	4.088049e-01	7.833382e+13	3.741690e+14	1.556392e+14	6.723347e+03	3.156721e+03	1.838306e+03	0	5.468064e-04
3.800000e+08	2.235238e+12	0.000000e+00	4.088049e-01	7.636072e+13	3.669780e+14	1.548391e+14	6.695957e+03	3.149348e+03	1.834012e+03	0	5.418234e-04
3.900000e+08	2.175734e+12	0.000000e+00	4.088049e-01	7.447385e+13	3.601054e+14	1.540448e+14	6.669251e+03	3.142206e+03	1.829853e+03	0	5.369722e-04
4.000000e+08	2.118798e+12	0.000000e+00	4.088049e-01	7.266792e+13	3.535304e+14	1.532562e+14	6.643200e+03	3.135282e+03	1.825821e+03	0	5.322468e-04
4.100000e+08	2.064275e+12	0.000000e+00	4.088049e-01	7.093807e+13	3.472337e+14	1.524733e+14	6.617775e+03	3.128565e+03	1.821909e+03	0	5.276416e-04
4.200000e+08	2.012021e+12	0.000000e+00	4.088049e-01	6.927979e+13	3.411977e+14	1.516960e+14	6.592951e+03	3.122045e+03	1.818112e+03	0	5.231514e-04
4.300000e+08	1.961906e+12	0.000000e+00	4.088049e-01	6.768892e+13	3.354064e+14	1.509244e+14	6.568702e+03	3.115712e+03	1.814425e+03	0	5.187712e-04
4.400000e+08	1.913805e+12	0.000000e+00	4.088049e-01	6.616161e+13	3.298449e+14	1.501583e+14	6.545006e+03	3.109559e+03	1.810841e+03	0	5.144964e-04
4.500000e+08	1.867606e+12	0.000000e+00	4.088049e-01	6.469429e+13	3.244994e+14	1.493977e+14	6.521840e+03	3.103576e+03	1.807357e+03	0	5.103227e-04
4.600000e+08	1.823203e+12	0.000000e+00	4.088049e-01	6.328365e+13	3.193574e+14	1.486426e+14	6.499184e+03	3.097756e+03	1.803967e+03	0	5.062459e-04
4.700000e+08	1.780498e+12	0.000000e+00	4.088049e-01	6.192660e+13	3.144071e+14	1.478928e+14	6.477019e+03	3.092091e+03	1.800668e+03	0	5.022620e-04
4.800000e+08	1.739401e+12	0.000000e+00	4.088049e-01	6.062027e+13	3.096378e+14	1.471485e+14	6.455326e+03	3.086574e+03	1.797456e+03	0	4.983675e-04
4.900000e+08	1.699826e+12	0.000000e+00	4.088049e-01	5.936200e+13	3.050394e+14	1.464095e+14	6.434087e+03	3.081200e+03	1.794326e+03	0	4.945589e-04
5.000000e+08	1.661694e+12	0.000000e+00	4.088049e-01	5.814930e+13	3.006026e+14	1.456757e+14	6.413285e+03	3.075961e+03	1.791275e+03	0	4.908328e-04
5.100000e+08	1.624932e+12	0.000000e+00	4.088049e-01	5.697983e+13	2.963187e+14	1.449472e+14	6.392906e+03	3.070853e+03	1.788301e+03	0	4.871861e-04
5.200000e+08	1.589470e+12	0.000000e+00	4.088049e-01	5.585143e+13	2.921798e+14	1.442239e+14	6.372934e+03	3.065869e+03	1.785398e+03	0	4.836160e-04
5.300000e+08	1.555244e+12	0.000000e+00	4.088049e-01	5.476205e+13	2.881782e+14	1.435058e+14	6.353354e+03	3.061005e+03	1.782566e+03	0	4.801195e-04
5.400000e+08	1.522193e+12	0.000000e+00	4.088049e-01	5.370980e+13	2.843071e+14	1.427928e+14	6.334154e+03	3.056256e+03	1.779800e+03	0	4.766941e-04
5.500000e+08	1.490261e+12	0.000000e+00	4.088049e-01	5.269289e+13	2.805598e+14	1.420848e+14	6.315321e+03	3.051617e+03	1.777099e+03	0	4.733372e-04
5.600000e+08	1.459394e+12	0.000000e+00	4.088049e-01	5.170963e+13	2.769303e+14	1.413819e+14	6.296842e+03	3.047084e+03	1.774459e+03	0	4.700463e-04
5.700000e+08	1.429542e+12	0.000000e+00	4.088049e-01	5.075847e+13	2.734128e+14	1.406840e+14	6.278705e+03	3.042652e+03	1.771878e+03	0	4.668193e-04
5.800000e+08	1.400658e+12	0.000000e+00	4.088049e-01	4.983791e+13	2.700020e+14	1.399910e+14	6.260900e+03	3.038319e+03	1.769355e+03	0	4.636539e-04
5.900000e+08	1.372699e+12	0.000000e+00	4.088049e-01	4.894656e+13	2.666929e+14	1.393030e+14	6.243416e+03	3.034080e+03	1.766886e+03	0	4.605480e-04
6.000000e+08	1.345622e+12	0.000000e+00	4.088049e-01	4.808311e+13	2.634807e+14	1.386198e+14	6.226242e+03	3.029931e+03	1.764470e+03	0	4.574997e-04
6.100000e+08	1.319388e+12	0.000000e+00	4.088049e-01	4.724633e+13	2.603611e+14	1.379414e+14	6.209370e+03	3.025870e+03	1.762105e+03	0	4.545071e-04
6.200000e+08	1.293961e+12	0.000000e+00	4.088049e-01	4.643505e+13	2.573298e+14	1.372679e+14	6.192790e+03	3.021892e+03	1.759789e+03	0	4.515684e-04
6.300000e+08	1.269305e+12	0.000000e+00	4.088049e-01	4.564817e+13	2.543829e+14	1.365990e+14	6.176492e+03	3.017996e+03	1.757520e+03	0	4.486818e-04
6.400000e+08	1.245387e+12	0.000000e+00	4.088049e-01	4.488465e+13	2.515168e+14	1.359350e+14	6.160469e+03	3.014178e+03	1.755297e+03	0	4.458457e-04
6.500000e+08	1.222177e+12	0.000000e+00	4.088049e-01	4.414351e+13	2.487280e+14	1.352755e+14	6.144713e+03	3.010436e+03	1.753117e+03	0	4.430586e-04
6.600000e+08	1.199644e+12	0.000000e+00	4.088049e-01	4.342381e+13	2.460131e+14	1.346208e+14	6.129215e+03	3.006767e+03	1.750980e+03	0	4.403189e-04
6.700000e+08	1.177761e+12	0.000000e+00	4.088049e-01	4.272469e+13	2.433691e+14	1.339706e+14	6.113969e+03	3.003167e+03	1.748884e+03	0	4.376252e-04
6.800000e+08	1.156502e+12	0.000000e+00	4.088049e-01	4.204529e+13	2.407930e+14	1.333250e+14	6.098967e+03	2.999636e+03	1.746828e+03	0	4.349760e-04
6.900000e+08	1.135841e+12	0.000000e+00	4.088049e-01	4.138485e+13	2.382821e+14	1.326839e+14	6.084202e+03	2.996171e+03	1.744810e+03	0	4.323702e-04
7.000000e+08	1.115755e+12	0.000000e+00	4.088049e-01	4.074260e+13	2.358338e+14	1.320473e+14	6.069667e+03	2.992769e+03	1.742829e+03	0	4.298063e-04
7.100000e+08	1.096221e+12	0.000000e+00	4.088049e-01	4.011783e+13	2.334455e+14	1.314152e+14	6.055357e+03	2.989428e+03	1.740883e+03	0	4.272832e-04
7.200000e+08	1.077217e+12	0.000000e+00	4.088049e-01	3.950987e+13	2.311149e+14	1.307875e+14	6.041266e+03	2.986147e+03	1.738973e+03	0	4.247998e-04
7.300000e+08	1.058724e+12	0.000000e+00	4.088049e-01	3.891807e+13	2.288398e+14	1.301642e+14	6.027386e+03	2.982923e+03	1.737095e+03	0	4.223548e-04
7.400000e+08	1.040722e+12	0.000000e+00	4.088049e-01	3.834184e+13	2.266181e+14	1.295452e+14	6.013714e+03	2.979756e+03	1.735251e+03	0	4.199472e-04
7.500000e+08	1.023192e+12	0.000000e+00	4.088049e-01	3.778057e+13	2.244477e+14	1.289306e+14	6.000243e+03	2.976642e+03	1.733437e+03	0	4.175760e-04
7.600000e+08	1.006117e+12	0.000000e+00	4.088049e-01	3.723373e+13	2.223267e+14	1.283202e+14	5.986968e+03	2.973580e+03	1.731654e+03	0	4.152402e-04
7.700000e+08	9.894810e+11	0.000000e+00	4.088049e-01	3.670079e+13	2.202533e+14	1.277141e+14	5.973884e+03	2.970569e+03	1.729901e+03	0	4.129388e-04
7.800000e+08	9.732672e+11	0.000000e+00	4.088049e-01	3.618123e+13	2.182259e+14	1.271122e+14	5.960987e+03	2.967608e+03	1.728176e+03	0	4.106708e-04
7.900000e+08	9.574607e+11	0.000000e+00	4.088049e-01	3.567459e+13	2.162426e+14	1.265144e+14	5.948271e+03	2.964694e+03	1.726479e+03	0	4.084355e-04
8.000000e+08	9.420470e+11	0.000000e+00	4.088049e-01	3.518041e+13	2.143020e+14	1.259209e+14	5.935733e+03	2.961826e+03	1.724809e+03	0	4.062319e-04
8.100000e+08	9.270123e+11	0.000000e+00	4.088049e-01	3.469825e+13	2.124026e+14	1.253314e+14	5.923367e+03	2.959003e+03	1.723165e+03	0	4.040592e-04
8.200000e+08	9.123436e+11	0.000000e+00	4.088049e-01	3.422770e+13	2.105430e+14	1.247460e+14	5.911170e+03	2.956223e+03	1.721547e+03	0	4.019166e-04
8.300000e+08	8.980281e+11	0.000000e+00	4.088049e-01	3.376836e+13	2.087217e+14	1.241647e+14	5.899138e+03	2.953486e+03	1.719953e+03	0	3.998034e-04
8.400000e+08	8.840540e+11	0.000000e+00	4.088049e-01	3.331985e+13	2.069376e+14	1.235873e+14	5.887266e+03	2.950790e+03	1.718383e+03	0	3.977188e-04
8.500000e+08	8.704095e+11	0.000000e+00	4.088049e-01	3.288180e+13	2.051893e+14	1.230140e+14	5.875552e+03	2.948134e+03	1.716836e+03	0	3.956620e-04
8.600000e+08	8.570839e+11	0.000000e+00	4.088049e-01	3.245387e+13	2.034756e+14	1.224446e+14	5.863990e+03	2.945517e+03	1.715312e+03	0	3.936325e-04
8.700000e+08	8.440664e+11	0.000000e+00	4.088049e-01	3.203572e+13	2.017955e+14	1.218791e+14	5.852579e+03	2.942938e+03	1.713810e+03	0	3.916295e-04
8.800000e+08	8.313471e+11	0.000000e+00	4.088049e-01	3.162704e+13	2.001479e+14	1.213175e+14	5.841314e+03	2.940395e+03	1.712329e+03	0	3.896524e-04
8.900000e+08	8.189163e+11	0.000000e+00	4.088049e-01	3.122752e+13	1.985317e+14	1.207598e+14	5.830191e+03	2.937888e+03	1.710869e+03	0	3.877005e-04
9.000000e+08	8.067648e+11	0.000000e+00	4.088049e-01	3.083687e+13	1.969459e+14	1.202059e+14	5.819209e+03	2.935415e+03	1.709429e+03	0	3.857733e-04
9.100000e+08	7.948836e+11	0.000000e+00	4.088049e-01	3.045481e+13	1.953897e+14	1.196558e+14	5.808364e+03	2.932977e+03	1.708009e+03	0	3.838701e-04
9.200000e+08	7.832642e+11	0.000000e+00	4.088049e-01	3.008107e+13	1.938619e+14	1.191095e+14	5.797652e+03	2.930571e+03	1.706608e+03	0	3.819905e-04
9.300000e+08	7.718986e+11	0.000000e+00	4.088049e-01	2.971539e+13	1.923619e+14	1.185669e+14	5.787071e+03	2.928198e+03	1.705226e+03	0	3.801339e-04
9.400000e+08	7.607788e+11	0.000000e+00	4.088049e-01	2.935752e+13	1.908888e+14	1.180280e+14	5.776619e+03	2.925855e+03	1.703862e+03	0	3.782997e-04
9.500000e+08	7.498973e+11	0.000000e+00	4.088049e-01	2.900723e+13	1.894418e+14	1.174928e+14	5.766291e+03	2.923543e+03	1.702515e+03	0	3.764874e-04
9.600000e+08	7.392469e+11	0.000000e+00	4.088049e-01	2.866428e+13	1.880200e+14	1.169612e+14	5.756087e+03	2.921261e+03	1.701186e+03	0	3.746965e-04
9.700000e+08	7.288207e+11	0.000000e+00	4.088049e-01	2.832846e+13	1.866228e+14	1.164333e+14	5.746002e+03	2.919007e+03	1.699874e+03	0	3.729266e-04
9.800000e+08	7.186120e+11	0.000000e+00	4.088049e-01	2.799955e+13	1.852494e+14	1.159089e+14	5.736035e+03	2.916782e+03	1.698578e+03	0	3.711772e-04
9.900000e+08	7.086143e+11	0.000000e+00	4.088049e-01	2.767736e+13	1.838993e+14	1.153882e+14	5.726184e+03	2.914584e+03	1.697298e+03	0	3.694478e-04
1.000000e+09	6.988215e+11	0.000000e+00	4.088049e-01	2.736169e+13	1.825716e+14	1.148709e+14	5.716445e+03	2.912412e+03	1.696033e+03	0	3.677381e-04
1.010000e+09	6.892276e+11	0.000000e+00	4.088049e-01	2.705234e+13	1.812658e+14	1.143572e+14	5.706817e+03	2.910267e+03	1.694784e+03	0	3.660475e-04
1.020000e+09	6.798270e+11	0.000000e+00	4.088049e-01	2.674914e+13	1.799814e+14	1.138469e+14	5.697298e+03	2.908148e+03	1.693550e+03	0	3.643756e-04
1.030000e+09	6.706141e+11	0.000000e+00	4.088049e-01	2.645192e+13	1.787176e+14	1.133401e+14	5.687884e+03	2.906053e+03	1.692330e+03	0	3.627221e-04
1.040000e+09	6.615836e+11	0.000000e+00	4.088049e-01	2.616050e+13	1.774739e+14	1.128367e+14	5.678575e+03	2.903982e+03	1.691124e+03	0	3.610866e-04
1.050000e+09	6.527304e+11	0.000000e+00	4.088049e-01	2.587472e+13	1.762499e+14	1.123367e+14	5.669368e+03	2.901936e+03	1.689932e+03	0	3.594687e-04
1.060000e+09	6.440495e+11	0.000000e+00	4.088049e-01	2.559444e+13	1.750449e+14	1.118401e+14	5.660261e+03	2.899912e+03	1.688754e+03	0	3.578680e-04
1.070000e+09	6.355363e+11	0.000000e+00	4.088049e-01	2.531949e+13	1.738585e+14	1.113469e+14	5.651253e+03	2.897911e+03	1.687589e+03	0	3.562842e-04
1.080000e+09	6.271861e+11	0.000000e+00	4.088049e-01	2.504973e+13	1.726902e+14	1.108569e+14	5.642341e+03	2.895932e+03	1.686436e+03	0	3.547170e-04
1.090000e+09	6.189946e+11	0.000000e+00	4.088049e-01	2.478503e+13	1.715395e+14	1.103703e+14	5.633523e+03	2.893975e+03	1.685296e+03	0	3.531659e-04
1.100000e+09	6.109574e+11	0.000000e+00	4.088049e-01	2.452524e+13	1.704060e+14	1.098869e+14	5.624799e+03	2.892038e+03	1.684169e+03	0	3.516307e-04
1.110000e+09	6.030704e+11	0.000000e+00	4.088049e-01	2.427024e+13	1.692893e+14	1.094067e+14	5.616165e+03	2.890123e+03	1.683053e+03	0	3.501111e-04
1.120000e+09	5.953297e+11	0.000000e+00	4.088049e-01	2.401990e+13	1.681888e+14	1.089298e+14	5.607621e+03	2.888227e+03	1.681949e+03	0	3.486067e-04
1.130000e+09	5.877314e+11	0.000000e+00	4.088049e-01	2.377410e+13	1.671043e+14	1.084561e+14	5.599165e+03	2.886351e+03	1.680857e+03	0	3.471172e-04
1.140000e+09	5.802718e+11	0.000000e+00	4.088049e-01	2.353272e+13	1.660353e+14	1.079855e+14	5.590795e+03	2.884495e+03	1.679776e+03	0	3.456424e-04
1.150000e+09	5.729474e+11	0.000000e+00	4.088049e-01	2.329565e+13	1.649815e+14	1.075181e+14	5.582509e+03	2.882657e+03	1.678706e+03	0	3.441819e-04
1.160000e+09	5.657546e+11	0.000000e+00	4.088049e-01	2.306277e+13	1.639425e+14	1.070538e+14	5.574307e+03	2.880838e+03	1.677646e+03	0	3.427356e-04
1.170000e+09	5.586901e+11	0.000000e+00	4.088049e-01	2.283399e+13	1.629179e+14	1.065926e+14	5.566186e+03	2.879037e+03	1.676597e+03	0	3.413030e-04
1.180000e+09	5.517508e+11	0.000000e+00	4.088049e-01	2.260920e+13	1.619074e+14	1.061344e+14	5.558146e+03	2.877254e+03	1.675559e+03	0	3.398841e-04
1.190000e+09	5.449333e+11	0.000000e+00	4.088049e-01	2.238830e+13	1.609106e+14	1.056793e+14	5.550185e+03	2.875487e+03	1.674530e+03	0	3.384784e-04
1.200000e+09	5.382348e+11	0.000000e+00	4.088049e-01	2.217119e+13	1.599274e+14	1.052272e+14	5.542301e+03	2.873738e+03	1.673512e+03	0	3.370858e-04
1.210000e+09	5.316522e+11	0.000000e+00	4.088049e-01	2.195779e+13	1.589572e+14	1.047782e+14	5.534493e+03	2.872006e+03	1.672503e+03	0	3.357060e-04
1.220000e+09	5.251828e+11	0.000000e+00	4.088049e-01	2.174799e+13	1.579999e+14	1.043321e+14	5.526761e+03	2.870290e+03	1.671503e+03	0	3.343387e-04
1.230000e+09	5.188237e+11	0.000000e+00	4.088049e-01	2.154172e+13	1.570552e+14	1.038889e+14	5.519101e+03	2.868589e+03	1.670513e+03	0	3.329838e-04
1.240000e+09	5.125724e+11	0.000000e+00	4.088049e-01	2.133889e+13	1.561227e+14	1.034487e+14	5.511515e+03	2.866905e+03	1.669532e+03	0	3.316410e-04
1.250000e+09	5.064262e+11	0.000000e+00	4.088049e-01	2.113941e+13	1.552023e+14	1.030114e+14	5.503999e+03	2.865235e+03	1.668560e+03	0	3.303101e-04
1.260000e+09	5.003826e+11	0.000000e+00	4.088049e-01	2.094321e+13	1.542936e+14	1.025769e+14	5.496554e+03	2.863581e+03	1.667597e+03	0	3.289909e-04
1.270000e+09	4.944393e+11	0.000000e+00	4.088049e-01	2.075021e+13	1.533963e+14	1.021454e+14	5.489177e+03	2.861941e+03	1.666642e+03	0	3.276832e-04
1.280000e+09	4.885937e+11	0.000000e+00	4.088049e-01	2.056034e+13	1.525103e+14	1.017166e+14	5.481868e+03	2.860316e+03	1.665695e+03	0	3.263867e-04
1.290000e+09	4.828438e+11	0.000000e+00	4.088049e-01	2.037352e+13	1.516353e+14	1.012907e+14	5.474626e+03	2.858705e+03	1.664757e+03	0	3.251013e-04
1.300000e+09	4.771873e+11	0.000000e+00	4.088049e-01	2.018968e+13	1.507711e+14	1.008676e+14	5.467449e+03	2.857108e+03	1.663827e+03	0	3.238268e-04
1.310000e+09	4.716219e+11	0.000000e+00	4.088049e-01	2.000876e+13	1.499175e+14	1.004472e+14	5.460337e+03	2.855524e+03	1.662905e+03	0	3.225630e-04
1.320000e+09	4.661457e+11	0.000000e+00	4.088049e-01	1.983069e+13	1.490741e+14	1.000296e+14	5.453289e+03	2.853954e+03	1.661991e+03	0	3.213096e-04
1.330000e+09	4.607566e+11	0.000000e+00	4.088049e-01	1.965541e+13	1.482409e+14	9.961477e+13	5.446303e+03	2.852397e+03	1.661084e+03	0	3.200666e-04
1.340000e+09	4.554527e+11	0.000000e+00	4.088049e-01	1.948285e+13	1.474176e+14	9.920262e+13	5.439378e+03	2.850853e+03	1.660185e+03	0	3.188337e-04
1.350000e+09	4.502320e+11	0.000000e+00	4.088049e-01	1.931294e+13	1.466039e+14	9.879316e+13	5.432515e+03	2.849321e+03	1.659293e+03	0	3.176108e-04
1.360000e+09	4.450928e+11	0.000000e+00	4.088049e-01	1.914565e+13	1.457999e+14	9.838636e+13	5.425710e+03	2.847802e+03	1.658408e+03	0	3.163977e-04
