#t		Qconv[W]	Ri[Rp]		R*[Rp]		Qc[W]		Qm[W]		Qr[W]		Tcmb[K]		Tl[K]		Tup[K]		RiFlag		Bs[T]
0.000000e+00	1.771545e+13	0.000000e+00	4.088051e-01	5.184445e+14	2.273565e+15	2.149163e+14	9.675214e+03	4.179950e+03	2.368228e+03	0	1.072506e-03
1.000000e+07	1.622027e+13	0.000000e+00	4.088051e-01	4.755169e+14	2.033834e+15	2.137255e+14	9.521834e+03	4.110968e+03	2.329145e+03	0	1.041442e-03
2.000000e+07	1.492730e+13	0.000000e+00	4.088051e-01	4.383841e+14	1.838327e+15	2.125436e+14	9.380836e+03	4.050437e+03	2.294850e+03	0	1.013000e-03
3.000000e+07	1.379997e+13	0.000000e+00	4.088051e-01	4.059993e+14	1.676214e+15	2.113706e+14	9.250589e+03	3.996748e+03	2.264432e+03	0	9.868287e-04
4.000000e+07	1.280982e+13	0.000000e+00	4.088051e-01	3.775471e+14	1.539868e+15	2.102063e+14	9.129747e+03	3.948693e+03	2.237205e+03	0	9.626388e-04
5.000000e+07	1.193437e+13	0.000000e+00	4.088051e-01	3.523839e+14	1.423779e+15	2.090507e+14	9.017191e+03	3.905340e+03	2.212643e+03	0	9.401899e-04
6.000000e+07	1.115570e+13	0.000000e+00	4.088051e-01	3.299958e+14	1.323874e+15	2.079037e+14	8.911982e+03	3.865961e+03	2.190332e+03	0	9.192802e-04
7.000000e+07	1.045931e+13	0.000000e+00	4.088051e-01	3.099681e+14	1.237084e+15	2.067652e+14	8.813327e+03	3.829980e+03	2.169946e+03	0	8.997395e-04
8.000000e+07	9.833435e+12	0.000000e+00	4.088051e-01	2.919628e+14	1.161055e+15	2.056352e+14	8.720546e+03	3.796927e+03	2.151220e+03	0	8.814225e-04
9.000000e+07	9.268360e+12	0.000000e+00	4.088051e-01	2.757022e+14	1.093956e+15	2.045136e+14	8.633056e+03	3.766424e+03	2.133938e+03	0	8.642048e-04
1.000000e+08	8.756049e+12	0.000000e+00	4.088051e-01	2.609556e+14	1.034341e+15	2.034004e+14	8.550354e+03	3.738154e+03	2.117921e+03	0	8.479790e-04
1.100000e+08	8.289784e+12	0.000000e+00	4.088051e-01	2.475306e+14	9.810556e+14	2.022953e+14	8.472001e+03	3.711857e+03	2.103022e+03	0	8.326518e-04
1.200000e+08	7.863914e+12	0.000000e+00	4.088051e-01	2.352652e+14	9.331666e+14	2.011985e+14	8.397614e+03	3.687310e+03	2.089114e+03	0	8.181419e-04
1.300000e+08	7.473655e+12	0.000000e+00	4.088051e-01	2.240221e+14	8.899127e+14	2.001099e+14	8.326854e+03	3.664327e+03	2.076093e+03	0	8.043777e-04
1.400000e+08	7.114928e+12	0.000000e+00	4.088051e-01	2.136845e+14	8.506671e+14	1.990292e+14	8.259425e+03	3.642747e+03	2.063866e+03	0	7.912964e-04
1.500000e+08	6.784242e+12	0.000000e+00	4.088051e-01	2.041522e+14	8.149092e+14	1.979566e+14	8.195061e+03	3.622432e+03	2.052357e+03	0	7.788422e-04
1.600000e+08	6.478588e+12	0.000000e+00	4.088051e-01	1.953389e+14	7.822033e+14	1.968919e+14	8.133527e+03	3.603264e+03	2.041496e+03	0	7.669655e-04
1.700000e+08	6.195363e+12	0.000000e+00	4.088051e-01	1.871699e+14	7.521823e+14	1.958350e+14	8.074613e+03	3.585137e+03	2.031226e+03	0	7.556220e-04
1.800000e+08	5.932303e+12	0.000000e+00	4.088051e-01	1.795804e+14	7.245347e+14	1.947859e+14	8.018130e+03	3.567960e+03	2.021494e+03	0	7.447722e-04
1.900000e+08	5.687431e+12	0.000000e+00	4.088051e-01	1.725136e+14	6.989947e+14	1.937446e+14	7.963907e+03	3.551653e+03	2.012255e+03	0	7.343804e-04
2.000000e+08	5.459015e+12	0.000000e+00	4.088051e-01	1.659197e+14	6.753341e+14	1.927109e+14	7.911791e+03	3.536146e+03	2.003469e+03	0	7.244145e-04
2.100000e+08	5.245529e+12	0.000000e+00	4.088051e-01	1.597550e+14	6.533560e+14	1.916848e+14	7.861642e+03	3.521374e+03	1.995100e+03	0	7.148454e-04
2.200000e+08	5.045626e+12	0.000000e+00	4.088051e-01	1.539809e+14	6.328895e+14	1.906663e+14	7.813333e+03	3.507281e+03	1.987115e+03	0	7.056468e-04
2.300000e+08	4.858113e+12	0.000000e+00	4.088051e-01	1.485631e+14	6.137860e+14	1.896552e+14	7.766751e+03	3.493818e+03	1.979487e+03	0	6.967948e-04
2.400000e+08	4.681927e+12	0.000000e+00	4.088051e-01	1.434710e+14	5.959154e+14	1.886515e+14	7.721788e+03	3.480937e+03	1.972190e+03	0	6.882674e-04
2.500000e+08	4.516122e+12	0.000000e+00	4.088051e-01	1.386776e+14	5.791632e+14	1.876552e+14	7.678349e+03	3.468600e+03	1.965200e+03	0	6.800449e-04
2.600000e+08	4.359850e+12	0.000000e+00	4.088051e-01	1.341585e+14	5.634286e+14	1.866662e+14	7.636346e+03	3.456769e+03	1.958497e+03	0	6.721088e-04
2.700000e+08	4.212354e+12	0.000000e+00	4.088051e-01	1.298918e+14	5.486225e+14	1.856844e+14	7.595697e+03	3.445409e+03	1.952061e+03	0	6.644423e-04
2.800000e+08	4.072948e+12	0.000000e+00	4.088051e-01	1.258580e+14	5.346655e+14	1.847098e+14	7.556327e+03	3.434491e+03	1.945875e+03	0	6.570302e-04
2.900000e+08	3.941018e+12	0.000000e+00	4.088051e-01	1.220395e+14	5.214871e+14	1.837423e+14	7.518167e+03	3.423988e+03	1.939924e+03	0	6.498580e-04
3.000000e+08	3.816007e+12	0.000000e+00	4.088051e-01	1.184201e+14	5.090241e+14	1.827819e+14	7.481153e+03	3.413872e+03	1.934193e+03	0	6.429128e-04
3.100000e+08	3.697411e+12	0.000000e+00	4.088051e-01	1.149854e+14	4.972199e+14	1.818284e+14	7.445226e+03	3.404122e+03	1.928669e+03	0	6.361823e-04
3.200000e+08	3.584772e+12	0.000000e+00	4.088051e-01	1.117223e+14	4.860238e+14	1.808819e+14	7.410332e+03	3.394715e+03	1.923339e+03	0	6.296553e-04
3.300000e+08	3.477675e+12	0.000000e+00	4.088051e-01	1.086188e+14	4.753900e+14	1.799423e+14	7.376418e+03	3.385633e+03	1.918193e+03	0	6.233214e-04
3.400000e+08	3.375740e+12	0.000000e+00	4.088051e-01	1.056640e+14	4.652770e+14	1.790095e+14	7.343437e+03	3.376856e+03	1.913221e+03	0	6.171708e-04
3.500000e+08	3.278620e+12	0.000000e+00	4.088051e-01	1.028479e+14	4.556473e+14	1.780834e+14	7.311346e+03	3.368369e+03	1.908412e+03	0	6.111944e-04
3.600000e+08	3.185999e+12	0.000000e+00	4.088051e-01	1.001615e+14	4.464671e+14	1.771641e+14	7.280103e+03	3.360155e+03	1.903758e+03	0	6.053839e-04
3.700000e+08	3.097586e+12	0.000000e+00	4.088051e-01	9.759643e+13	4.377052e+14	1.762514e+14	7.249668e+03	3.352200e+03	1.899251e+03	0	5.997315e-04
3.800000e+08	3.013116e+12	0.000000e+00	4.088051e-01	9.514496e+13	4.293336e+14	1.753454e+14	7.220006e+03	3.344491e+03	1.894884e+03	0	5.942296e-04
3.900000e+08	2.932342e+12	0.000000e+00	4.088051e-01	9.280008e+13	4.213265e+14	1.744458e+14	7.191083e+03	3.337015e+03	1.890648e+03	0	5.888715e-04
4.000000e+08	2.855039e+12	0.000000e+00	4.088051e-01	9.055530e+13	4.136603e+14	1.735528e+14	7.162867e+03	3.329761e+03	1.886538e+03	0	5.836507e-04
4.100000e+08	2.780998e+12	0.000000e+00	4.088051e-01	8.840461e+13	4.063135e+14	1.726663e+14	7.135328e+03	3.322718e+03	1.882548e+03	0	5.785611e-04
4.200000e+08	2.710028e+12	0.000000e+00	4.088051e-01	8.634250e+13	3.992661e+14	1.717861e+14	7.108437e+03	3.315876e+03	1.878671e+03	0	5.735971e-04
4.300000e+08	2.641951e+12	0.000000e+00	4.088051e-01	8.436384e+13	3.924999e+14	1.709122e+14	7.082169e+03	3.309226e+03	1.874903e+03	0	5.687533e-04
4.400000e+08	2.576601e+12	0.000000e+00	4.088051e-01	8.246389e+13	3.859983e+14	1.700447e+14	7.056499e+03	3.302757e+03	1.871239e+03	0	5.640246e-04
4.500000e+08	2.513826e+12	0.000000e+00	4.088051e-01	8.063826e+13	3.797455e+14	1.691833e+14	7.031402e+03	3.296464e+03	1.867673e+03	0	5.594064e-04
4.600000e+08	2.453484e+12	0.000000e+00	4.088051e-01	7.888285e+13	3.737273e+14	1.683282e+14	7.006856e+03	3.290336e+03	1.864201e+03	0	5.548941e-04
4.700000e+08	2.395443e+12	0.000000e+00	4.088051e-01	7.719388e+13	3.679304e+14	1.674792e+14	6.982841e+03	3.284368e+03	1.860820e+03	0	5.504835e-04
4.800000e+08	2.339580e+12	0.000000e+00	4.088051e-01	7.556780e+13	3.623426e+14	1.666362e+14	6.959336e+03	3.278552e+03	1.857524e+03	0	5.461706e-04
4.900000e+08	2.285781e+12	0.000000e+00	4.088051e-01	7.400133e+13	3.569523e+14	1.657993e+14	6.936323e+03	3.272881e+03	1.854312e+03	0	5.419517e-04
5.000000e+08	2.233939e+12	0.000000e+00	4.088051e-01	7.249138e+13	3.517491e+14	1.649684e+14	6.913784e+03	3.267350e+03	1.851178e+03	0	5.378231e-04
5.100000e+08	2.183954e+12	0.000000e+00	4.088051e-01	7.103509e+13	3.467230e+14	1.641435e+14	6.891702e+03	3.261954e+03	1.848120e+03	0	5.337815e-04
5.200000e+08	2.135734e+12	0.000000e+00	4.088051e-01	6.962976e+13	3.418649e+14	1.633244e+14	6.870060e+03	3.256685e+03	1.845136e+03	0	5.298237e-04
5.300000e+08	2.089189e+12	0.000000e+00	4.088051e-01	6.827289e+13	3.371661e+14	1.625111e+14	6.848843e+03	3.251540e+03	1.842220e+03	0	5.259466e-04
5.400000e+08	2.044240e+12	0.000000e+00	4.088051e-01	6.696212e+13	3.326187e+14	1.617037e+14	6.828037e+03	3.246513e+03	1.839372e+03	0	5.221472e-04
5.500000e+08	2.000809e+12	0.000000e+00	4.088051e-01	6.569524e+13	3.282152e+14	1.609020e+14	6.807628e+03	3.241600e+03	1.836589e+03	0	5.184229e-04
5.600000e+08	1.958824e+12	0.000000e+00	4.088051e-01	6.447017e+13	3.239486e+14	1.601060e+14	6.787602e+03	3.236796e+03	1.833867e+03	0	5.147711e-04
5.700000e+08	1.918218e+12	0.000000e+00	4.088051e-01	6.328498e+13	3.198123e+14	1.593156e+14	6.767948e+03	3.232097e+03	1.831205e+03	0	5.111892e-04
5.800000e+08	1.878926e+12	0.000000e+00	4.088051e-01	6.213782e+13	3.158002e+14	1.585309e+14	6.748652e+03	3.227500e+03	1.828600e+03	0	5.076748e-04
5.900000e+08	1.840890e+12	0.000000e+00	4.088051e-01	6.102698e+13	3.119066e+14	1.577517e+14	6.729705e+03	3.223000e+03	1.826051e+03	0	5.042257e-04
6.000000e+08	1.804053e+12	0.000000e+00	4.088051e-01	5.995082e+13	3.081259e+14	1.569780e+14	6.711093e+03	3.218594e+03	1.823554e+03	0	5.008398e-04
6.100000e+08	1.768362e+12	0.000000e+00	4.088051e-01	5.890782e+13	3.044531e+14	1.562098e+14	6.692808e+03	3.214279e+03	1.821109e+03	0	4.975149e-04
6.200000e+08	1.733767e+12	0.000000e+00	4.088051e-01	5.789654e+13	3.008835e+14	1.554471e+14	6.674840e+03	3.210050e+03	1.818714e+03	0	4.942491e-04
6.300000e+08	1.700220e+12	0.000000e+00	4.088051e-01	5.691561e+13	2.974124e+14	1.546897e+14	6.657178e+03	3.205907e+03	1.816366e+03	0	4.910406e-04
6.400000e+08	1.667676e+12	0.000000e+00	4.088051e-01	5.596373e+13	2.940356e+14	1.539376e+14	6.639813e+03	3.201844e+03	1.814064e+03	0	4.878874e-04
6.500000e+08	1.636095e+12	0.000000e+00	4.088051e-01	5.503971e+13	2.907492e+14	1.531909e+14	6.622737e+03	3.197860e+03	1.811807e+03	0	4.847880e-04
6.600000e+08	1.605435e+12	0.000000e+00	4.088051e-01	5.414237e+13	2.875493e+14	1.524494e+14	6.605942e+03	3.193952e+03	1.809593e+03	0	4.817406e-04
6.700000e+08	1.575658e+12	0.000000e+00	4.088051e-01	5.327063e+13	2.844323e+14	1.517131e+14	6.589419e+03	3.190117e+03	1.807420e+03	0	4.787436e-04
6.800000e+08	1.546729e+12	0.000000e+00	4.088051e-01	5.242346e+13	2.813949e+14	1.509820e+14	6.573160e+03	3.186353e+03	1.805288e+03	0	4.757957e-04
6.900000e+08	1.518615e+12	0.000000e+00	4.088051e-01	5.159987e+13	2.784338e+14	1.502560e+14	6.557159e+03	3.182658e+03	1.803194e+03	0	4.728952e-04
7.000000e+08	1.491282e+12	0.000000e+00	4.088051e-01	5.079893e+13	2.755460e+14	1.495352e+14	6.541407e+03	3.179028e+03	1.801138e+03	0	4.700408e-04
7.100000e+08	1.464700e+12	0.000000e+00	4.088051e-01	5.001977e+13	2.727286e+14	1.488193e+14	6.525899e+03	3.175463e+03	1.799118e+03	0	4.672312e-04
7.200000e+08	1.438839e+12	0.000000e+00	4.088051e-01	4.926154e+13	2.699789e+14	1.481085e+14	6.510627e+03	3.171961e+03	1.797133e+03	0	4.644652e-04
7.300000e+08	1.413674e+12	0.000000e+00	4.088051e-01	4.852344e+13	2.672943e+14	1.474026e+14	6.495586e+03	3.168518e+03	1.795183e+03	0	4.617413e-04
7.400000e+08	1.389176e+12	0.000000e+00	4.088051e-01	4.780472e+13	2.646724e+14	1.467017e+14	6.480769e+03	3.165134e+03	1.793266e+03	0	4.590586e-04
7.500000e+08	1.365322e+12	0.000000e+00	4.088051e-01	4.710465e+13	2.621107e+14	1.460056e+14	6.466170e+03	3.161806e+03	1.791380e+03	0	4.564158e-04
7.600000e+08	1.342087e+12	0.000000e+00	4.088051e-01	4.642255e+13	2.596072e+14	1.453144e+14	6.451784e+03	3.158533e+03	1.789526e+03	0	4.538119e-04
7.700000e+08	1.319448e+12	0.000000e+00	4.088051e-01	4.575776e+13	2.571596e+14	1.446280e+14	6.437605e+03	3.155314e+03	1.787702e+03	0	4.512457e-04
7.800000e+08	1.297384e+12	0.000000e+00	4.088051e-01	4.510966e+13	2.547660e+14	1.439464e+14	6.423629e+03	3.152146e+03	1.785907e+03	0	4.487164e-04
7.900000e+08	1.275875e+12	0.000000e+00	4.088051e-01	4.447766e+13	2.524244e+14	1.432695e+14	6.409849e+03	3.149028e+03	1.784140e+03	0	4.462228e-04
8.000000e+08	1.254901e+12	0.000000e+00	4.088051e-01	4.386118e+13	2.501331e+14	1.425973e+14	6.396261e+03	3.145958e+03	1.782401e+03	0	4.437641e-04
8.100000e+08	1.234443e+12	0.000000e+00	4.088051e-01	4.325969e+13	2.478902e+14	1.419298e+14	6.382861e+03	3.142936e+03	1.780689e+03	0	4.413394e-04
8.200000e+08	1.214483e+12	0.000000e+00	4.088051e-01	4.267266e+13	2.456941e+14	1.412669e+14	6.369644e+03	3.139960e+03	1.779003e+03	0	4.389478e-04
8.300000e+08	1.195004e+12	0.000000e+00	4.088051e-01	4.209961e+13	2.435433e+14	1.406085e+14	6.356605e+03	3.137028e+03	1.777341e+03	0	4.365884e-04
8.400000e+08	1.175990e+12	0.000000e+00	4.088051e-01	4.154006e+13	2.414362e+14	1.399547e+14	6.343740e+03	3.134139e+03	1.775705e+03	0	4.342604e-04
8.500000e+08	1.157425e+12	0.000000e+00	4.088051e-01	4.099355e+13	2.393714e+14	1.393055e+14	6.331046e+03	3.131293e+03	1.774092e+03	0	4.319630e-04
8.600000e+08	1.139294e+12	0.000000e+00	4.088051e-01	4.045966e+13	2.373475e+14	1.386607e+14	6.318518e+03	3.128487e+03	1.772503e+03	0	4.296956e-04
8.700000e+08	1.121582e+12	0.000000e+00	4.088051e-01	3.993797e+13	2.353631e+14	1.380203e+14	6.306152e+03	3.125722e+03	1.770936e+03	0	4.274573e-04
8.800000e+08	1.104277e+12	0.000000e+00	4.088051e-01	3.942808e+13	2.334170e+14	1.373843e+14	6.293945e+03	3.122995e+03	1.769391e+03	0	4.252474e-04
8.900000e+08	1.087364e+12	0.000000e+00	4.088051e-01	3.892962e+13	2.315081e+14	1.367528e+14	6.281894e+03	3.120306e+03	1.767867e+03	0	4.230653e-04
9.000000e+08	1.070832e+12	0.000000e+00	4.088051e-01	3.844222e+13	2.296351e+14	1.361255e+14	6.269994e+03	3.117653e+03	1.766365e+03	0	4.209103e-04
9.100000e+08	1.054668e+12	0.000000e+00	4.088051e-01	3.796553e+13	2.277969e+14	1.355025e+14	6.258242e+03	3.115037e+03	1.764882e+03	0	4.187817e-04
9.200000e+08	1.038861e+12	0.000000e+00	4.088051e-01	3.749922e+13	2.259924e+14	1.348839e+14	6.246635e+03	3.112455e+03	1.763419e+03	0	4.166789e-04
9.300000e+08	1.023400e+12	0.000000e+00	4.088051e-01	3.704296e+13	2.242208e+14	1.342694e+14	6.235171e+03	3.109907e+03	1.761976e+03	0	4.146014e-04
9.400000e+08	1.008273e+12	0.000000e+00	4.088051e-01	3.659644e+13	2.224809e+14	1.336592e+14	6.223845e+03	3.107392e+03	1.760551e+03	0	4.125486e-04
9.500000e+08	9.934709e+11	0.000000e+00	4.088051e-01	3.615938e+13	2.207718e+14	1.330531e+14	6.212655e+03	3.104909e+03	1.759144e+03	0	4.105198e-04
9.600000e+08	9.789837e+11	0.000000e+00	4.088051e-01	3.573148e+13	2.190926e+14	1.324511e+14	6.201598e+03	3.102458e+03	1.757755e+03	0	4.085145e-04
9.700000e+08	9.648018e+11	0.000000e+00	4.088051e-01	3.531247e+13	2.174425e+14	1.318532e+14	6.190672e+03	3.100038e+03	1.756384e+03	0	4.065323e-04
9.800000e+08	9.509162e+11	0.000000e+00	4.088051e-01	3.490208e+13	2.158206e+14	1.312595e+14	6.179873e+03	3.097647e+03	1.755029e+03	0	4.045726e-04
9.900000e+08	9.373181e+11	0.000000e+00	4.088051e-01	3.450008e+13	2.142261e+14	1.306697e+14	6.169199e+03	3.095285e+03	1.753691e+03	0	4.026348e-04
1.000000e+09	9.239991e+11	0.000000e+00	4.088051e-01	3.410620e+13	2.126583e+14	1.300840e+14	6.158648e+03	3.092952e+03	1.752370e+03	0	4.007186e-04
1.010000e+09	9.109512e+11	0.000000e+00	4.088051e-01	3.372022e+13	2.111164e+14	1.295022e+14	6.148216e+03	3.090647e+03	1.751064e+03	0	3.988235e-04
1.020000e+09	8.981665e+11	0.000000e+00	4.088051e-01	3.334191e+13	2.095998e+14	1.289243e+14	6.137902e+03	3.088369e+03	1.749773e+03	0	3.969489e-04
1.030000e+09	8.856375e+11	0.000000e+00	4.088051e-01	3.297106e+13	2.081076e+14	1.283504e+14	6.127704e+03	3.086117e+03	1.748497e+03	0	3.950945e-04
1.040000e+09	8.733571e+11	0.000000e+00	4.088051e-01	3.260745e+13	2.066393e+14	1.277804e+14	6.117618e+03	3.083891e+03	1.747236e+03	0	3.932599e-04
1.050000e+09	8.613182e+11	0.000000e+00	4.088051e-01	3.225088e+13	2.051942e+14	1.272142e+14	6.107643e+03	3.081690e+03	1.745989e+03	0	3.914445e-04
1.060000e+09	8.495142e+11	0.000000e+00	4.088051e-01	3.190116e+13	2.037717e+14	1.266518e+14	6.097777e+03	3.079514e+03	1.744756e+03	0	3.896481e-04
1.070000e+09	8.379385e+11	0.000000e+00	4.088051e-01	3.155810e+13	2.023713e+14	1.260932e+14	6.088018e+03	3.077362e+03	1.743537e+03	0	3.878702e-04
1.080000e+09	8.265850e+11	0.000000e+00	4.088051e-01	3.122152e+13	2.009923e+14	1.255384e+14	6.078363e+03	3.075234e+03	1.742331e+03	0	3.861104e-04
1.090000e+09	8.154475e+11	0.000000e+00	4.088051e-01	3.089125e+13	1.996342e+14	1.249873e+14	6.068810e+03	3.073129e+03	1.741138e+03	0	3.843684e-04
1.100000e+09	8.045204e+11	0.000000e+00	4.088051e-01	3.056711e+13	1.982964e+14	1.244399e+14	6.059359e+03	3.071046e+03	1.739958e+03	0	3.826438e-04
1.110000e+09	7.937980e+11	0.000000e+00	4.088051e-01	3.024895e+13	1.969786e+14	1.238961e+14	6.050006e+03	3.068985e+03	1.738791e+03	0	3.809363e-04
1.120000e+09	7.832748e+11	0.000000e+00	4.088051e-01	2.993660e+13	1.956801e+14	1.233560e+14	6.040750e+03	3.066946e+03	1.737635e+03	0	3.792455e-04
1.130000e+09	7.729457e+11	0.000000e+00	4.088051e-01	2.962992e+13	1.944005e+14	1.228196e+14	6.031589e+03	3.064928e+03	1.736492e+03	0	3.775711e-04
1.140000e+09	7.628056e+11	0.000000e+00	4.088051e-01	2.932876e+13	1.931393e+14	1.222867e+14	6.022522e+03	3.062931e+03	1.735360e+03	0	3.759127e-04
1.150000e+09	7.528496e+11	0.000000e+00	4.088051e-01	2.903297e+13	1.918961e+14	1.217574e+14	6.013547e+03	3.060953e+03	1.734240e+03	0	3.742701e-04
1.160000e+09	7.430730e+11	0.000000e+00	4.088051e-01	2.874243e+13	1.906704e+14	1.212316e+14	6.004661e+03	3.058996e+03	1.733131e+03	0	3.726429e-04
1.170000e+09	7.334712e+11	0.000000e+00	4.088051e-01	2.845699e+13	1.894619e+14	1.207093e+14	5.995865e+03	3.057058e+03	1.732033e+03	0	3.710309e-04
1.180000e+09	7.240398e+11	0.000000e+00	4.088051e-01	2.817654e+13	1.882701e+14	1.201904e+14	5.987155e+03	3.055139e+03	1.730946e+03	0	3.694337e-04
1.190000e+09	7.147745e+11	0.000000e+00	4.088051e-01	2.790093e+13	1.870947e+14	1.196751e+14	5.978531e+03	3.053238e+03	1.729869e+03	0	3.678511e-04
1.200000e+09	7.056712e+11	0.000000e+00	4.088051e-01	2.763007e+13	1.859353e+14	1.191631e+14	5.969992e+03	3.051356e+03	1.728802e+03	0	3.662828e-04
1.210000e+09	6.967260e+11	0.000000e+00	4.088051e-01	2.736382e+13	1.847914e+14	1.186546e+14	5.961534e+03	3.049491e+03	1.727746e+03	0	3.647285e-04
1.220000e+09	6.879348e+11	0.000000e+00	4.088051e-01	2.710208e+13	1.836628e+14	1.181494e+14	5.953158e+03	3.047644e+03	1.726699e+03	0	3.631880e-04
1.230000e+09	6.792941e+11	0.000000e+00	4.088051e-01	2.684473e+13	1.825491e+14	1.176475e+14	5.944862e+03	3.045814e+03	1.725663e+03	0	3.616610e-04
1.240000e+09	6.708000e+11	0.000000e+00	4.088051e-01	2.659168e+13	1.814500e+14	1.171490e+14	5.936644e+03	3.044001e+03	1.724635e+03	0	3.601472e-04
1.250000e+09	6.624493e+11	0.000000e+00	4.088051e-01	2.634282e+13	1.803652e+14	1.166538e+14	5.928504e+03	3.042204e+03	1.723617e+03	0	3.586465e-04
1.260000e+09	6.542383e+11	0.000000e+00	4.088051e-01	2.609806e+13	1.792943e+14	1.161618e+14	5.920439e+03	3.040423e+03	1.722608e+03	0	3.571585e-04
1.270000e+09	6.461638e+11	0.000000e+00	4.088051e-01	2.585728e+13	1.782370e+14	1.156731e+14	5.912450e+03	3.038658e+03	1.721608e+03	0	3.556831e-04
1.280000e+09	6.382227e+11	0.000000e+00	4.088051e-01	2.562041e+13	1.771932e+14	1.151876e+14	5.904533e+03	3.036909e+03	1.720617e+03	0	3.542200e-04
1.290000e+09	6.304117e+11	0.000000e+00	4.088051e-01	2.538735e+13	1.761623e+14	1.147052e+14	5.896689e+03	3.035175e+03	1.719635e+03	0	3.527690e-04
1.300000e+09	6.227280e+11	0.000000e+00	4.088051e-01	2.515802e+13	1.751443e+14	1.142261e+14	5.888916e+03	3.033456e+03	1.718661e+03	0	3.513299e-04
1.310000e+09	6.151684e+11	0.000000e+00	4.088051e-01	2.493232e+13	1.741388e+14	1.137501e+14	5.881213e+03	3.031751e+03	1.717695e+03	0	3.499025e-04
1.320000e+09	6.077304e+11	0.000000e+00	4.088051e-01	2.471018e+13	1.731456e+14	1.132772e+14	5.873579e+03	3.030061e+03	1.716737e+03	0	3.484865e-04
1.330000e+09	6.004110e+11	0.000000e+00	4.088051e-01	2.449152e+13	1.721644e+14	1.128074e+14	5.866013e+03	3.028385e+03	1.715788e+03	0	3.470818e-04
1.340000e+09	5.932075e+11	0.000000e+00	4.088051e-01	2.427625e+13	1.711949e+14	1.123406e+14	5.858513e+03	3.026723e+03	1.714846e+03	0	3.456882e-04
1.350000e+09	5.861175e+11	0.000000e+00	4.088051e-01	2.406431e+13	1.702371e+14	1.118769e+14	5.851079e+03	3.025074e+03	1.713912e+03	0	3.443055e-04
1.360000e+09	5.791384e+11	0.000000e+00	4.088051e-01	2.385562e+13	1.692905e+14	1.114163e+14	5.843710e+03	3.023439e+03	1.712986e+03	0	3.429334e-04
