#t		Qconv[W]	Ri[Rp]		R*[Rp]		Qc[W]		Qm[W]		Qr[W]		Tcmb[K]		Tl[K]		Tup[K]		RiFlag		Bs[T]
0.000000e+00	1.264802e+13	0.000000e+00	4.000001e-01	3.240906e+14	2.330507e+15	2.947778e+14	9.946217e+03	4.381024e+03	2.495024e+03	0	9.587046e-04
1.000000e+07	1.199495e+13	0.000000e+00	4.000001e-01	3.083550e+14	2.143884e+15	2.931445e+14	9.872641e+03	4.324026e+03	2.462564e+03	0	9.419115e-04
2.000000e+07	1.139908e+13	0.000000e+00	4.000001e-01	2.939910e+14	1.984167e+15	2.915235e+14	9.802588e+03	4.272518e+03	2.433230e+03	0	9.260487e-04
3.000000e+07	1.085334e+13	0.000000e+00	4.000001e-01	2.808293e+14	1.846153e+15	2.899145e+14	9.735755e+03	4.225691e+03	2.406561e+03	0	9.110279e-04
4.000000e+07	1.035176e+13	0.000000e+00	4.000001e-01	2.687272e+14	1.725868e+15	2.883176e+14	9.671876e+03	4.182894e+03	2.382188e+03	0	8.967718e-04
5.000000e+07	9.889283e+12	0.000000e+00	4.000001e-01	2.575634e+14	1.620228e+15	2.867325e+14	9.610714e+03	4.143593e+03	2.359806e+03	0	8.832131e-04
6.000000e+07	9.461580e+12	0.000000e+00	4.000001e-01	2.472343e+14	1.526808e+15	2.851593e+14	9.552063e+03	4.107350e+03	2.339165e+03	0	8.702923e-04
7.000000e+07	9.064936e+12	0.000000e+00	4.000001e-01	2.376509e+14	1.443677e+15	2.835978e+14	9.495736e+03	4.073797e+03	2.320057e+03	0	8.579569e-04
8.000000e+07	8.696144e+12	0.000000e+00	4.000001e-01	2.287363e+14	1.369282e+15	2.820479e+14	9.441567e+03	4.042627e+03	2.302305e+03	0	8.461606e-04
9.000000e+07	8.352419e+12	0.000000e+00	4.000001e-01	2.204238e+14	1.302359e+15	2.805096e+14	9.389408e+03	4.013576e+03	2.285761e+03	0	8.348619e-04
1.000000e+08	8.031337e+12	0.000000e+00	4.000001e-01	2.126554e+14	1.241873e+15	2.789826e+14	9.339124e+03	3.986423e+03	2.270296e+03	0	8.240240e-04
1.100000e+08	7.730771e+12	0.000000e+00	4.000001e-01	2.053801e+14	1.186965e+15	2.774670e+14	9.290593e+03	3.960974e+03	2.255803e+03	0	8.136136e-04
1.200000e+08	7.448855e+12	0.000000e+00	4.000001e-01	1.985531e+14	1.136921e+15	2.759626e+14	9.243705e+03	3.937063e+03	2.242186e+03	0	8.036009e-04
1.300000e+08	7.183937e+12	0.000000e+00	4.000001e-01	1.921348e+14	1.091141e+15	2.744694e+14	9.198361e+03	3.914546e+03	2.229362e+03	0	7.939590e-04
1.400000e+08	6.934558e+12	0.000000e+00	4.000001e-01	1.860902e+14	1.049115e+15	2.729872e+14	9.154467e+03	3.893297e+03	2.217261e+03	0	7.846636e-04
1.500000e+08	6.699417e+12	0.000000e+00	4.000001e-01	1.803882e+14	1.010413e+15	2.715160e+14	9.111942e+03	3.873204e+03	2.205818e+03	0	7.756925e-04
1.600000e+08	6.477354e+12	0.000000e+00	4.000001e-01	1.750008e+14	9.746651e+14	2.700556e+14	9.070707e+03	3.854169e+03	2.194977e+03	0	7.670255e-04
1.700000e+08	6.267333e+12	0.000000e+00	4.000001e-01	1.699033e+14	9.415531e+14	2.686060e+14	9.030692e+03	3.836105e+03	2.184690e+03	0	7.586442e-04
1.800000e+08	6.068421e+12	0.000000e+00	4.000001e-01	1.650732e+14	9.108024e+14	2.671671e+14	8.991833e+03	3.818935e+03	2.174911e+03	0	7.505319e-04
1.900000e+08	5.879780e+12	0.000000e+00	4.000001e-01	1.604905e+14	8.821743e+14	2.657388e+14	8.954068e+03	3.802589e+03	2.165602e+03	0	7.426729e-04
2.000000e+08	5.700653e+12	0.000000e+00	4.000001e-01	1.561369e+14	8.554605e+14	2.643210e+14	8.917343e+03	3.787006e+03	2.156727e+03	0	7.350532e-04
2.100000e+08	5.530355e+12	0.000000e+00	4.000001e-01	1.519961e+14	8.304788e+14	2.629137e+14	8.881606e+03	3.772129e+03	2.148255e+03	0	7.276596e-04
2.200000e+08	5.368265e+12	0.000000e+00	4.000001e-01	1.480531e+14	8.070686e+14	2.615166e+14	8.846809e+03	3.757909e+03	2.140156e+03	0	7.204799e-04
2.300000e+08	5.213819e+12	0.000000e+00	4.000001e-01	1.442943e+14	7.850886e+14	2.601298e+14	8.812907e+03	3.744300e+03	2.132406e+03	0	7.135032e-04
2.400000e+08	5.066502e+12	0.000000e+00	4.000001e-01	1.407074e+14	7.644132e+14	2.587532e+14	8.779859e+03	3.731260e+03	2.124979e+03	0	7.067188e-04
2.500000e+08	4.925844e+12	0.000000e+00	4.000001e-01	1.372811e+14	7.449310e+14	2.573867e+14	8.747626e+03	3.718752e+03	2.117856e+03	0	7.001173e-04
2.600000e+08	4.791416e+12	0.000000e+00	4.000001e-01	1.340050e+14	7.265428e+14	2.560302e+14	8.716171e+03	3.706742e+03	2.111016e+03	0	6.936896e-04
2.700000e+08	4.662822e+12	0.000000e+00	4.000001e-01	1.308698e+14	7.091596e+14	2.546836e+14	8.685462e+03	3.695198e+03	2.104442e+03	0	6.874274e-04
2.800000e+08	4.539703e+12	0.000000e+00	4.000001e-01	1.278667e+14	6.927019e+14	2.533468e+14	8.655466e+03	3.684092e+03	2.098117e+03	0	6.813230e-04
2.900000e+08	4.421725e+12	0.000000e+00	4.000001e-01	1.249877e+14	6.770980e+14	2.520198e+14	8.626153e+03	3.673397e+03	2.092026e+03	0	6.753690e-04
3.000000e+08	4.308581e+12	0.000000e+00	4.000001e-01	1.222254e+14	6.622835e+14	2.507024e+14	8.597496e+03	3.663090e+03	2.086156e+03	0	6.695587e-04
3.100000e+08	4.199989e+12	0.000000e+00	4.000001e-01	1.195730e+14	6.482001e+14	2.493947e+14	8.569467e+03	3.653147e+03	2.080494e+03	0	6.638857e-04
3.200000e+08	4.095687e+12	0.000000e+00	4.000001e-01	1.170243e+14	6.347949e+14	2.480965e+14	8.542042e+03	3.643549e+03	2.075027e+03	0	6.583439e-04
3.300000e+08	3.995433e+12	0.000000e+00	4.000001e-01	1.145735e+14	6.220200e+14	2.468077e+14	8.515198e+03	3.634276e+03	2.069746e+03	0	6.529278e-04
3.400000e+08	3.899002e+12	0.000000e+00	4.000001e-01	1.122150e+14	6.098318e+14	2.455282e+14	8.488912e+03	3.625311e+03	2.064640e+03	0	6.476322e-04
3.500000e+08	3.806187e+12	0.000000e+00	4.000001e-01	1.099439e+14	5.981907e+14	2.442581e+14	8.463164e+03	3.616636e+03	2.059700e+03	0	6.424519e-04
3.600000e+08	3.716794e+12	0.000000e+00	4.000001e-01	1.077556e+14	5.870602e+14	2.429971e+14	8.437934e+03	3.608238e+03	2.054917e+03	0	6.373824e-04
3.700000e+08	3.630642e+12	0.000000e+00	4.000001e-01	1.056457e+14	5.764073e+14	2.417453e+14	8.413202e+03	3.600102e+03	2.050284e+03	0	6.324192e-04
3.800000e+08	3.547563e+12	0.000000e+00	4.000001e-01	1.036102e+14	5.662015e+14	2.405026e+14	8.388952e+03	3.592214e+03	2.045792e+03	0	6.275581e-04
3.900000e+08	3.467402e+12	0.000000e+00	4.000001e-01	1.016452e+14	5.564148e+14	2.392688e+14	8.365166e+03	3.584563e+03	2.041434e+03	0	6.227952e-04
4.000000e+08	3.390011e+12	0.000000e+00	4.000001e-01	9.974731e+13	5.470216e+14	2.380439e+14	8.341828e+03	3.577136e+03	2.037205e+03	0	6.181268e-04
4.100000e+08	3.315254e+12	0.000000e+00	4.000001e-01	9.791318e+13	5.379982e+14	2.368279e+14	8.318923e+03	3.569924e+03	2.033097e+03	0	6.135493e-04
4.200000e+08	3.243002e+12	0.000000e+00	4.000001e-01	9.613975e+13	5.293228e+14	2.356207e+14	8.296437e+03	3.562915e+03	2.029106e+03	0	6.090594e-04
4.300000e+08	3.173136e+12	0.000000e+00	4.000001e-01	9.442410e+13	5.209752e+14	2.344221e+14	8.274356e+03	3.556101e+03	2.025225e+03	0	6.046538e-04
4.400000e+08	3.105544e+12	0.000000e+00	4.000001e-01	9.276353e+13	5.129367e+14	2.332322e+14	8.252667e+03	3.549473e+03	2.021451e+03	0	6.003296e-04
4.500000e+08	3.040118e+12	0.000000e+00	4.000001e-01	9.115549e+13	5.051900e+14	2.320508e+14	8.231357e+03	3.543023e+03	2.017777e+03	0	5.960839e-04
4.600000e+08	2.976761e+12	0.000000e+00	4.000001e-01	8.959758e+13	4.977191e+14	2.308778e+14	8.210414e+03	3.536742e+03	2.014200e+03	0	5.919139e-04
4.700000e+08	2.915379e+12	0.000000e+00	4.000001e-01	8.808756e+13	4.905091e+14	2.297133e+14	8.189827e+03	3.530623e+03	2.010715e+03	0	5.878171e-04
4.800000e+08	2.855883e+12	0.000000e+00	4.000001e-01	8.662330e+13	4.835461e+14	2.285572e+14	8.169585e+03	3.524659e+03	2.007319e+03	0	5.837910e-04
4.900000e+08	2.798191e+12	0.000000e+00	4.000001e-01	8.520280e+13	4.768172e+14	2.274093e+14	8.149678e+03	3.518844e+03	2.004007e+03	0	5.798331e-04
5.000000e+08	2.742225e+12	0.000000e+00	4.000001e-01	8.382418e+13	4.703103e+14	2.262696e+14	8.130095e+03	3.513172e+03	2.000776e+03	0	5.759414e-04
5.100000e+08	2.687911e+12	0.000000e+00	4.000001e-01	8.248565e+13	4.640143e+14	2.251381e+14	8.110828e+03	3.507636e+03	1.997624e+03	0	5.721135e-04
5.200000e+08	2.635179e+12	0.000000e+00	4.000001e-01	8.118554e+13	4.579186e+14	2.240147e+14	8.091866e+03	3.502231e+03	1.994546e+03	0	5.683475e-04
5.300000e+08	2.583963e+12	0.000000e+00	4.000001e-01	7.992225e+13	4.520134e+14	2.228992e+14	8.073202e+03	3.496952e+03	1.991539e+03	0	5.646414e-04
5.400000e+08	2.534202e+12	0.000000e+00	4.000001e-01	7.869428e+13	4.462895e+14	2.217917e+14	8.054827e+03	3.491794e+03	1.988602e+03	0	5.609933e-04
5.500000e+08	2.485835e+12	0.000000e+00	4.000001e-01	7.750021e+13	4.407383e+14	2.206921e+14	8.036733e+03	3.486752e+03	1.985730e+03	0	5.574014e-04
5.600000e+08	2.438808e+12	0.000000e+00	4.000001e-01	7.633868e+13	4.353517e+14	2.196003e+14	8.018911e+03	3.481822e+03	1.982923e+03	0	5.538640e-04
5.700000e+08	2.393067e+12	0.000000e+00	4.000001e-01	7.520841e+13	4.301221e+14	2.185163e+14	8.001356e+03	3.476999e+03	1.980176e+03	0	5.503794e-04
5.800000e+08	2.348562e+12	0.000000e+00	4.000001e-01	7.410819e+13	4.250424e+14	2.174399e+14	7.984059e+03	3.472280e+03	1.977488e+03	0	5.469462e-04
5.900000e+08	2.305245e+12	0.000000e+00	4.000001e-01	7.303687e+13	4.201058e+14	2.163712e+14	7.967014e+03	3.467660e+03	1.974858e+03	0	5.435626e-04
6.000000e+08	2.263071e+12	0.000000e+00	4.000001e-01	7.199335e+13	4.153061e+14	2.153100e+14	7.950215e+03	3.463137e+03	1.972281e+03	0	5.402274e-04
6.100000e+08	2.221996e+12	0.000000e+00	4.000001e-01	7.097659e+13	4.106373e+14	2.142564e+14	7.933654e+03	3.458706e+03	1.969758e+03	0	5.369391e-04
6.200000e+08	2.181981e+12	0.000000e+00	4.000001e-01	6.998560e+13	4.060937e+14	2.132102e+14	7.917326e+03	3.454364e+03	1.967285e+03	0	5.336963e-04
6.300000e+08	2.142985e+12	0.000000e+00	4.000001e-01	6.901944e+13	4.016701e+14	2.121714e+14	7.901224e+03	3.450108e+03	1.964862e+03	0	5.304978e-04
6.400000e+08	2.104972e+12	0.000000e+00	4.000001e-01	6.807720e+13	3.973614e+14	2.111399e+14	7.885345e+03	3.445936e+03	1.962485e+03	0	5.273424e-04
6.500000e+08	2.067906e+12	0.000000e+00	4.000001e-01	6.715803e+13	3.931629e+14	2.101156e+14	7.869680e+03	3.441844e+03	1.960155e+03	0	5.242287e-04
6.600000e+08	2.031753e+12	0.000000e+00	4.000001e-01	6.626112e+13	3.890702e+14	2.090986e+14	7.854227e+03	3.437829e+03	1.957868e+03	0	5.211558e-04
6.700000e+08	1.996482e+12	0.000000e+00	4.000001e-01	6.538569e+13	3.850790e+14	2.080887e+14	7.838979e+03	3.433889e+03	1.955624e+03	0	5.181224e-04
6.800000e+08	1.962062e+12	0.000000e+00	4.000001e-01	6.453099e+13	3.811852e+14	2.070860e+14	7.823931e+03	3.430021e+03	1.953422e+03	0	5.151276e-04
6.900000e+08	1.928463e+12	0.000000e+00	4.000001e-01	6.369632e+13	3.773852e+14	2.060902e+14	7.809079e+03	3.426224e+03	1.951259e+03	0	5.121703e-04
7.000000e+08	1.895658e+12	0.000000e+00	4.000001e-01	6.288099e+13	3.736751e+14	2.051015e+14	7.794419e+03	3.422494e+03	1.949135e+03	0	5.092494e-04
7.100000e+08	1.863619e+12	0.000000e+00	4.000001e-01	6.208436e+13	3.700518e+14	2.041196e+14	7.779945e+03	3.418830e+03	1.947048e+03	0	5.063641e-04
7.200000e+08	1.832321e+12	0.000000e+00	4.000001e-01	6.130582e+13	3.665118e+14	2.031446e+14	7.765654e+03	3.415229e+03	1.944997e+03	0	5.035135e-04
7.300000e+08	1.801739e+12	0.000000e+00	4.000001e-01	6.054476e+13	3.630521e+14	2.021765e+14	7.751541e+03	3.411690e+03	1.942982e+03	0	5.006965e-04
7.400000e+08	1.771851e+12	0.000000e+00	4.000001e-01	5.980062e+13	3.596697e+14	2.012151e+14	7.737603e+03	3.408210e+03	1.941000e+03	0	4.979125e-04
7.500000e+08	1.742634e+12	0.000000e+00	4.000001e-01	5.907285e+13	3.563619e+14	2.002604e+14	7.723836e+03	3.404788e+03	1.939051e+03	0	4.951604e-04
7.600000e+08	1.714065e+12	0.000000e+00	4.000001e-01	5.836094e+13	3.531259e+14	1.993123e+14	7.710235e+03	3.401422e+03	1.937134e+03	0	4.924397e-04
7.700000e+08	1.686126e+12	0.000000e+00	4.000001e-01	5.766439e+13	3.499593e+14	1.983709e+14	7.696798e+03	3.398110e+03	1.935248e+03	0	4.897494e-04
7.800000e+08	1.658795e+12	0.000000e+00	4.000001e-01	5.698271e+13	3.468596e+14	1.974360e+14	7.683520e+03	3.394851e+03	1.933392e+03	0	4.870888e-04
7.900000e+08	1.632054e+12	0.000000e+00	4.000001e-01	5.631545e+13	3.438246e+14	1.965075e+14	7.670398e+03	3.391643e+03	1.931565e+03	0	4.844572e-04
8.000000e+08	1.605884e+12	0.000000e+00	4.000001e-01	5.566217e+13	3.408519e+14	1.955856e+14	7.657430e+03	3.388485e+03	1.929766e+03	0	4.818538e-04
8.100000e+08	1.580269e+12	0.000000e+00	4.000001e-01	5.502244e+13	3.379396e+14	1.946700e+14	7.644611e+03	3.385374e+03	1.927995e+03	0	4.792781e-04
8.200000e+08	1.555192e+12	0.000000e+00	4.000001e-01	5.439586e+13	3.350855e+14	1.937607e+14	7.631940e+03	3.382311e+03	1.926250e+03	0	4.767294e-04
8.300000e+08	1.530636e+12	0.000000e+00	4.000001e-01	5.378203e+13	3.322879e+14	1.928578e+14	7.619412e+03	3.379293e+03	1.924532e+03	0	4.742069e-04
8.400000e+08	1.506586e+12	0.000000e+00	4.000001e-01	5.318059e+13	3.295448e+14	1.919610e+14	7.607024e+03	3.376319e+03	1.922838e+03	0	4.717101e-04
8.500000e+08	1.483027e+12	0.000000e+00	4.000001e-01	5.259117e+13	3.268544e+14	1.910705e+14	7.594775e+03	3.373388e+03	1.921169e+03	0	4.692384e-04
8.600000e+08	1.459945e+12	0.000000e+00	4.000001e-01	5.201342e+13	3.242153e+14	1.901861e+14	7.582661e+03	3.370498e+03	1.919523e+03	0	4.667913e-04
8.700000e+08	1.437326e+12	0.000000e+00	4.000001e-01	5.144701e+13	3.216256e+14	1.893078e+14	7.570680e+03	3.367650e+03	1.917901e+03	0	4.643680e-04
8.800000e+08	1.415156e+12	0.000000e+00	4.000001e-01	5.089161e+13	3.190839e+14	1.884355e+14	7.558828e+03	3.364840e+03	1.916301e+03	0	4.619682e-04
8.900000e+08	1.393424e+12	0.000000e+00	4.000001e-01	5.034693e+13	3.165887e+14	1.875692e+14	7.547105e+03	3.362070e+03	1.914723e+03	0	4.595912e-04
9.000000e+08	1.372117e+12	0.000000e+00	4.000001e-01	4.981265e+13	3.141386e+14	1.867089e+14	7.535506e+03	3.359336e+03	1.913166e+03	0	4.572365e-04
9.100000e+08	1.351222e+12	0.000000e+00	4.000001e-01	4.928850e+13	3.117322e+14	1.858544e+14	7.524029e+03	3.356639e+03	1.911630e+03	0	4.549037e-04
9.200000e+08	1.330729e+12	0.000000e+00	4.000001e-01	4.877419e+13	3.093683e+14	1.850058e+14	7.512673e+03	3.353978e+03	1.910114e+03	0	4.525922e-04
9.300000e+08	1.310626e+12	0.000000e+00	4.000001e-01	4.826945e+13	3.070456e+14	1.841631e+14	7.501435e+03	3.351351e+03	1.908618e+03	0	4.503016e-04
9.400000e+08	1.290903e+12	0.000000e+00	4.000001e-01	4.777404e+13	3.047628e+14	1.833260e+14	7.490313e+03	3.348757e+03	1.907141e+03	0	4.480314e-04
9.500000e+08	1.271550e+12	0.000000e+00	4.000001e-01	4.728770e+13	3.025189e+14	1.824947e+14	7.479305e+03	3.346197e+03	1.905683e+03	0	4.457812e-04
9.600000e+08	1.252557e+12	0.000000e+00	4.000001e-01	4.681019e+13	3.003127e+14	1.816691e+14	7.468409e+03	3.343668e+03	1.904243e+03	0	4.435505e-04
9.700000e+08	1.233914e+12	0.000000e+00	4.000001e-01	4.634127e+13	2.981432e+14	1.808491e+14	7.457622e+03	3.341171e+03	1.902821e+03	0	4.413389e-04
9.800000e+08	1.215612e+12	0.000000e+00	4.000001e-01	4.588073e+13	2.960093e+14	1.800346e+14	7.446942e+03	3.338704e+03	1.901416e+03	0	4.391460e-04
9.900000e+08	1.197642e+12	0.000000e+00	4.000001e-01	4.542835e+13	2.939101e+14	1.792257e+14	7.436369e+03	3.336266e+03	1.900028e+03	0	4.369713e-04
1.000000e+09	1.179996e+12	0.000000e+00	4.000001e-01	4.498392e+13	2.918447e+14	1.784223e+14	7.425899e+03	3.333858e+03	1.898656e+03	0	4.348146e-04
1.010000e+09	1.162665e+12	0.000000e+00	4.000001e-01	4.454724e+13	2.898120e+14	1.776244e+14	7.415532e+03	3.331478e+03	1.897300e+03	0	4.326753e-04
1.020000e+09	1.145642e+12	0.000000e+00	4.000001e-01	4.411811e+13	2.878112e+14	1.768318e+14	7.405265e+03	3.329125e+03	1.895961e+03	0	4.305532e-04
1.030000e+09	1.128918e+12	0.000000e+00	4.000001e-01	4.369635e+13	2.858416e+14	1.760446e+14	7.395096e+03	3.326799e+03	1.894636e+03	0	4.284479e-04
1.040000e+09	1.112486e+12	0.000000e+00	4.000001e-01	4.328177e+13	2.839022e+14	1.752627e+14	7.385024e+03	3.324500e+03	1.893326e+03	0	4.263589e-04
1.050000e+09	1.096338e+12	0.000000e+00	4.000001e-01	4.287419e+13	2.819923e+14	1.744861e+14	7.375048e+03	3.322226e+03	1.892032e+03	0	4.242861e-04
1.060000e+09	1.080469e+12	0.000000e+00	4.000001e-01	4.247345e+13	2.801111e+14	1.737148e+14	7.365165e+03	3.319977e+03	1.890751e+03	0	4.222289e-04
1.070000e+09	1.064870e+12	0.000000e+00	4.000001e-01	4.207937e+13	2.782579e+14	1.729486e+14	7.355374e+03	3.317753e+03	1.889484e+03	0	4.201872e-04
1.080000e+09	1.049536e+12	0.000000e+00	4.000001e-01	4.169180e+13	2.764321e+14	1.721876e+14	7.345674e+03	3.315553e+03	1.888231e+03	0	4.181605e-04
1.090000e+09	1.034460e+12	0.000000e+00	4.000001e-01	4.131059e+13	2.746328e+14	1.714317e+14	7.336063e+03	3.313376e+03	1.886991e+03	0	4.161486e-04
1.100000e+09	1.019635e+12	0.000000e+00	4.000001e-01	4.093557e+13	2.728595e+14	1.706809e+14	7.326539e+03	3.311222e+03	1.885765e+03	0	4.141511e-04
1.110000e+09	1.005057e+12	0.000000e+00	4.000001e-01	4.056662e+13	2.711115e+14	1.699351e+14	7.317102e+03	3.309090e+03	1.884551e+03	0	4.121679e-04
1.120000e+09	9.907184e+11	0.000000e+00	4.000001e-01	4.020357e+13	2.693882e+14	1.691944e+14	7.307749e+03	3.306981e+03	1.883349e+03	0	4.101984e-04
1.130000e+09	9.766144e+11	0.000000e+00	4.000001e-01	3.984631e+13	2.676891e+14	1.684585e+14	7.298480e+03	3.304893e+03	1.882160e+03	0	4.082426e-04
1.140000e+09	9.627393e+11	0.000000e+00	4.000001e-01	3.949469e+13	2.660135e+14	1.677276e+14	7.289293e+03	3.302825e+03	1.880983e+03	0	4.063000e-04
1.150000e+09	9.490880e+11	0.000000e+00	4.000001e-01	3.914859e+13	2.643608e+14	1.670016e+14	7.280187e+03	3.300779e+03	1.879817e+03	0	4.043704e-04
1.160000e+09	9.356553e+11	0.000000e+00	4.000001e-01	3.880788e+13	2.627307e+14	1.662804e+14	7.271160e+03	3.298752e+03	1.878663e+03	0	4.024536e-04
1.170000e+09	9.224362e+11	0.000000e+00	4.000001e-01	3.847244e+13	2.611225e+14	1.655640e+14	7.262212e+03	3.296745e+03	1.877520e+03	0	4.005493e-04
1.180000e+09	9.094259e+11	0.000000e+00	4.000001e-01	3.814215e+13	2.595357e+14	1.648524e+14	7.253341e+03	3.294757e+03	1.876388e+03	0	3.986573e-04
1.190000e+09	8.966197e+11	0.000000e+00	4.000001e-01	3.781690e+13	2.579699e+14	1.641456e+14	7.244546e+03	3.292788e+03	1.875266e+03	0	3.967772e-04
1.200000e+09	8.840130e+11	0.000000e+00	4.000001e-01	3.749658e+13	2.564246e+14	1.634434e+14	7.235825e+03	3.290838e+03	1.874156e+03	0	3.949088e-04
1.210000e+09	8.716015e+11	0.000000e+00	4.000001e-01	3.718108e+13	2.548993e+14	1.627458e+14	7.227178e+03	3.288905e+03	1.873055e+03	0	3.930519e-04
1.220000e+09	8.593809e+11	0.000000e+00	4.000001e-01	3.687029e+13	2.533935e+14	1.620529e+14	7.218604e+03	3.286991e+03	1.871965e+03	0	3.912063e-04
1.230000e+09	8.473470e+11	0.000000e+00	4.000001e-01	3.656412e+13	2.519070e+14	1.613646e+14	7.210101e+03	3.285093e+03	1.870884e+03	0	3.893717e-04
1.240000e+09	8.354958e+11	0.000000e+00	4.000001e-01	3.626246e+13	2.504392e+14	1.606808e+14	7.201669e+03	3.283213e+03	1.869813e+03	0	3.875478e-04
1.250000e+09	8.238233e+11	0.000000e+00	4.000001e-01	3.596522e+13	2.489897e+14	1.600016e+14	7.193306e+03	3.281349e+03	1.868752e+03	0	3.857346e-04
1.260000e+09	8.123257e+11	0.000000e+00	4.000001e-01	3.567230e+13	2.475582e+14	1.593268e+14	7.185011e+03	3.279502e+03	1.867700e+03	0	3.839317e-04
1.270000e+09	8.009993e+11	0.000000e+00	4.000001e-01	3.538362e+13	2.461443e+14	1.586564e+14	7.176784e+03	3.277671e+03	1.866657e+03	0	3.821389e-04
1.280000e+09	7.898405e+11	0.000000e+00	4.000001e-01	3.509908e+13	2.447476e+14	1.579905e+14	7.168623e+03	3.275856e+03	1.865623e+03	0	3.803561e-04
1.290000e+09	7.788457e+11	0.000000e+00	4.000001e-01	3.481860e+13	2.433678e+14	1.573290e+14	7.160527e+03	3.274056e+03	1.864598e+03	0	3.785830e-04
1.300000e+09	7.680117e+11	0.000000e+00	4.000001e-01	3.454210e+13	2.420045e+14	1.566718e+14	7.152496e+03	3.272271e+03	1.863582e+03	0	3.768193e-04
1.310000e+09	7.573349e+11	0.000000e+00	4.000001e-01	3.426949e+13	2.406573e+14	1.560189e+14	7.144529e+03	3.270501e+03	1.862574e+03	0	3.750650e-04
1.320000e+09	7.468122e+11	0.000000e+00	4.000001e-01	3.400070e+13	2.393261e+14	1.553702e+14	7.136624e+03	3.268746e+03	1.861574e+03	0	3.733198e-04
1.330000e+09	7.364405e+11	0.000000e+00	4.000001e-01	3.373565e+13	2.380103e+14	1.547258e+14	7.128781e+03	3.267005e+03	1.860583e+03	0	3.715835e-04
1.340000e+09	7.262166e+11	0.000000e+00	4.000001e-01	3.347426e+13	2.367098e+14	1.540857e+14	7.120999e+03	3.265278e+03	1.859599e+03	0	3.698560e-04
1.350000e+09	7.161377e+11	0.000000e+00	4.000001e-01	3.321646e+13	2.354242e+14	1.534497e+14	7.113278e+03	3.263565e+03	1.858624e+03	0	3.681370e-04
1.360000e+09	7.062007e+11	0.000000e+00	4.000001e-01	3.296218e+13	2.341533e+14	1.528178e+14	7.105615e+03	3.261865e+03	1.857656e+03	0	3.664263e-04
