#t		Qconv[W]	Ri[Rp]		R*[Rp]		Qc[W]		Qm[W]		Qr[W]		Tcmb[K]		Tl[K]		Tup[K]		RiFlag		Bs[T]
0.000000e+00	4.583103e+13	0.000000e+00	3.962266e-01	8.518459e+14	2.762359e+15	5.116806e+14	1.488336e+04	5.608884e+03	2.752335e+03	0	1.447014e-03
1.000000e+07	4.376014e+13	0.000000e+00	3.962266e-01	8.173771e+14	2.650087e+15	5.088455e+14	1.477781e+04	5.579627e+03	2.737978e+03	0	1.424883e-03
2.000000e+07	4.183289e+13	0.000000e+00	3.962266e-01	7.852772e+14	2.546845e+15	5.060316e+14	1.467647e+04	5.551910e+03	2.724377e+03	0	1.403650e-03
3.000000e+07	4.003555e+13	0.000000e+00	3.962266e-01	7.553205e+14	2.451603e+15	5.032388e+14	1.457907e+04	5.525598e+03	2.711465e+03	0	1.383252e-03
4.000000e+07	3.835605e+13	0.000000e+00	3.962266e-01	7.273085e+14	2.363482e+15	5.004668e+14	1.448534e+04	5.500574e+03	2.699186e+03	0	1.363633e-03
5.000000e+07	3.678374e+13	0.000000e+00	3.962266e-01	7.010663e+14	2.281723e+15	4.977154e+14	1.439504e+04	5.476733e+03	2.687487e+03	0	1.344739e-03
6.000000e+07	3.530917e+13	0.000000e+00	3.962266e-01	6.764384e+14	2.205671e+15	4.949846e+14	1.430797e+04	5.453981e+03	2.676322e+03	0	1.326525e-03
7.000000e+07	3.392396e+13	0.000000e+00	3.962266e-01	6.532870e+14	2.134757e+15	4.922741e+14	1.422391e+04	5.432237e+03	2.665652e+03	0	1.308946e-03
8.000000e+07	3.262063e+13	0.000000e+00	3.962266e-01	6.314890e+14	2.068482e+15	4.895838e+14	1.414271e+04	5.411425e+03	2.655439e+03	0	1.291964e-03
9.000000e+07	3.139249e+13	0.000000e+00	3.962266e-01	6.109344e+14	2.006412e+15	4.869135e+14	1.406418e+04	5.391479e+03	2.645652e+03	0	1.275542e-03
1.000000e+08	3.023355e+13	0.000000e+00	3.962266e-01	5.915245e+14	1.948163e+15	4.842630e+14	1.398819e+04	5.372340e+03	2.636260e+03	0	1.259648e-03
1.100000e+08	2.913842e+13	0.000000e+00	3.962266e-01	5.731705e+14	1.893396e+15	4.816322e+14	1.391458e+04	5.353951e+03	2.627237e+03	0	1.244251e-03
1.200000e+08	2.810223e+13	0.000000e+00	3.962266e-01	5.557923e+14	1.841809e+15	4.790208e+14	1.384323e+04	5.336265e+03	2.618558e+03	0	1.229324e-03
1.300000e+08	2.712061e+13	0.000000e+00	3.962266e-01	5.393177e+14	1.793137e+15	4.764289e+14	1.377403e+04	5.319236e+03	2.610202e+03	0	1.214841e-03
1.400000e+08	2.618956e+13	0.000000e+00	3.962266e-01	5.236812e+14	1.747140e+15	4.738561e+14	1.370686e+04	5.302824e+03	2.602148e+03	0	1.200777e-03
1.500000e+08	2.530549e+13	0.000000e+00	3.962266e-01	5.088232e+14	1.703605e+15	4.713023e+14	1.364161e+04	5.286990e+03	2.594378e+03	0	1.187110e-03
1.600000e+08	2.446512e+13	0.000000e+00	3.962266e-01	4.946896e+14	1.662341e+15	4.687673e+14	1.357820e+04	5.271701e+03	2.586876e+03	0	1.173821e-03
1.700000e+08	2.366544e+13	0.000000e+00	3.962266e-01	4.812312e+14	1.623174e+15	4.662511e+14	1.351654e+04	5.256926e+03	2.579625e+03	0	1.160890e-03
1.800000e+08	2.290373e+13	0.000000e+00	3.962266e-01	4.684028e+14	1.585949e+15	4.637534e+14	1.345654e+04	5.242634e+03	2.572612e+03	0	1.148299e-03
1.900000e+08	2.217749e+13	0.000000e+00	3.962266e-01	4.561632e+14	1.550526e+15	4.612742e+14	1.339812e+04	5.228800e+03	2.565824e+03	0	1.136031e-03
2.000000e+08	2.148444e+13	0.000000e+00	3.962266e-01	4.444746e+14	1.516776e+15	4.588131e+14	1.334122e+04	5.215399e+03	2.559248e+03	0	1.124072e-03
2.100000e+08	2.082246e+13	0.000000e+00	3.962266e-01	4.333023e+14	1.484584e+15	4.563702e+14	1.328577e+04	5.202408e+03	2.552873e+03	0	1.112406e-03
2.200000e+08	2.018963e+13	0.000000e+00	3.962266e-01	4.226144e+14	1.453844e+15	4.539452e+14	1.323169e+04	5.189806e+03	2.546689e+03	0	1.101021e-03
2.300000e+08	1.958416e+13	0.000000e+00	3.962266e-01	4.123814e+14	1.424460e+15	4.515380e+14	1.317894e+04	5.177572e+03	2.540686e+03	0	1.089903e-03
2.400000e+08	1.900441e+13	0.000000e+00	3.962266e-01	4.025763e+14	1.396343e+15	4.491485e+14	1.312746e+04	5.165690e+03	2.534855e+03	0	1.079040e-03
2.500000e+08	1.844888e+13	0.000000e+00	3.962266e-01	3.931740e+14	1.369413e+15	4.467764e+14	1.307719e+04	5.154141e+03	2.529188e+03	0	1.068422e-03
2.600000e+08	1.791614e+13	0.000000e+00	3.962266e-01	3.841512e+14	1.343595e+15	4.444218e+14	1.302808e+04	5.142911e+03	2.523677e+03	0	1.058037e-03
2.700000e+08	1.740491e+13	0.000000e+00	3.962266e-01	3.754866e+14	1.318822e+15	4.420843e+14	1.298010e+04	5.131983e+03	2.518314e+03	0	1.047877e-03
2.800000e+08	1.691398e+13	0.000000e+00	3.962266e-01	3.671600e+14	1.295031e+15	4.397639e+14	1.293319e+04	5.121344e+03	2.513094e+03	0	1.037930e-03
2.900000e+08	1.644223e+13	0.000000e+00	3.962266e-01	3.591531e+14	1.272164e+15	4.374604e+14	1.288731e+04	5.110981e+03	2.508009e+03	0	1.028189e-03
3.000000e+08	1.598862e+13	0.000000e+00	3.962266e-01	3.514485e+14	1.250167e+15	4.351738e+14	1.284242e+04	5.100882e+03	2.503053e+03	0	1.018646e-03
3.100000e+08	1.555217e+13	0.000000e+00	3.962266e-01	3.440303e+14	1.228991e+15	4.329038e+14	1.279849e+04	5.091036e+03	2.498221e+03	0	1.009291e-03
3.200000e+08	1.513199e+13	0.000000e+00	3.962266e-01	3.368835e+14	1.208591e+15	4.306503e+14	1.275548e+04	5.081431e+03	2.493508e+03	0	1.000119e-03
3.300000e+08	1.472724e+13	0.000000e+00	3.962266e-01	3.299941e+14	1.188923e+15	4.284131e+14	1.271336e+04	5.072057e+03	2.488908e+03	0	9.911208e-04
3.400000e+08	1.433712e+13	0.000000e+00	3.962266e-01	3.233492e+14	1.169949e+15	4.261923e+14	1.267209e+04	5.062905e+03	2.484417e+03	0	9.822909e-04
3.500000e+08	1.396090e+13	0.000000e+00	3.962266e-01	3.169364e+14	1.151631e+15	4.239875e+14	1.263165e+04	5.053966e+03	2.480031e+03	0	9.736226e-04
3.600000e+08	1.359790e+13	0.000000e+00	3.962266e-01	3.107444e+14	1.133936e+15	4.217988e+14	1.259201e+04	5.045231e+03	2.475744e+03	0	9.651098e-04
3.700000e+08	1.324746e+13	0.000000e+00	3.962266e-01	3.047625e+14	1.116832e+15	4.196259e+14	1.255313e+04	5.036692e+03	2.471554e+03	0	9.567468e-04
3.800000e+08	1.290898e+13	0.000000e+00	3.962266e-01	2.989806e+14	1.100289e+15	4.174687e+14	1.251500e+04	5.028342e+03	2.467457e+03	0	9.485280e-04
3.900000e+08	1.258190e+13	0.000000e+00	3.962266e-01	2.933894e+14	1.084279e+15	4.153271e+14	1.247759e+04	5.020173e+03	2.463448e+03	0	9.404483e-04
4.000000e+08	1.226568e+13	0.000000e+00	3.962266e-01	2.879800e+14	1.068776e+15	4.132009e+14	1.244087e+04	5.012179e+03	2.459525e+03	0	9.325026e-04
4.100000e+08	1.195982e+13	0.000000e+00	3.962266e-01	2.827440e+14	1.053756e+15	4.110901e+14	1.240483e+04	5.004352e+03	2.455685e+03	0	9.246861e-04
4.200000e+08	1.166384e+13	0.000000e+00	3.962266e-01	2.776736e+14	1.039196e+15	4.089946e+14	1.236944e+04	4.996688e+03	2.451924e+03	0	9.169944e-04
4.300000e+08	1.137731e+13	0.000000e+00	3.962266e-01	2.727614e+14	1.025075e+15	4.069141e+14	1.233467e+04	4.989179e+03	2.448239e+03	0	9.094231e-04
4.400000e+08	1.109980e+13	0.000000e+00	3.962266e-01	2.680005e+14	1.011372e+15	4.048485e+14	1.230052e+04	4.981821e+03	2.444629e+03	0	9.019681e-04
4.500000e+08	1.083092e+13	0.000000e+00	3.962266e-01	2.633842e+14	9.980686e+14	4.027979e+14	1.226697e+04	4.974609e+03	2.441089e+03	0	8.946254e-04
4.600000e+08	1.057029e+13	0.000000e+00	3.962266e-01	2.589065e+14	9.851473e+14	4.007619e+14	1.223398e+04	4.967536e+03	2.437619e+03	0	8.873911e-04
4.700000e+08	1.031756e+13	0.000000e+00	3.962266e-01	2.545613e+14	9.725911e+14	3.987405e+14	1.220156e+04	4.960598e+03	2.434214e+03	0	8.802618e-04
4.800000e+08	1.007240e+13	0.000000e+00	3.962266e-01	2.503433e+14	9.603842e+14	3.967337e+14	1.216967e+04	4.953792e+03	2.430874e+03	0	8.732338e-04
4.900000e+08	9.834497e+12	0.000000e+00	3.962266e-01	2.462470e+14	9.485118e+14	3.947412e+14	1.213831e+04	4.947112e+03	2.427596e+03	0	8.663038e-04
5.000000e+08	9.603546e+12	0.000000e+00	3.962266e-01	2.422676e+14	9.369597e+14	3.927629e+14	1.210746e+04	4.940554e+03	2.424378e+03	0	8.594686e-04
5.100000e+08	9.379265e+12	0.000000e+00	3.962266e-01	2.384004e+14	9.257147e+14	3.907988e+14	1.207711e+04	4.934114e+03	2.421218e+03	0	8.527252e-04
5.200000e+08	9.161388e+12	0.000000e+00	3.962266e-01	2.346408e+14	9.147643e+14	3.888487e+14	1.204724e+04	4.927789e+03	2.418114e+03	0	8.460706e-04
5.300000e+08	8.949659e+12	0.000000e+00	3.962266e-01	2.309847e+14	9.040965e+14	3.869125e+14	1.201784e+04	4.921574e+03	2.415065e+03	0	8.395019e-04
5.400000e+08	8.743837e+12	0.000000e+00	3.962266e-01	2.274280e+14	8.937001e+14	3.849901e+14	1.198889e+04	4.915467e+03	2.412068e+03	0	8.330163e-04
5.500000e+08	8.543693e+12	0.000000e+00	3.962266e-01	2.239668e+14	8.835645e+14	3.830813e+14	1.196039e+04	4.909464e+03	2.409123e+03	0	8.266114e-04
5.600000e+08	8.349008e+12	0.000000e+00	3.962266e-01	2.205977e+14	8.736794e+14	3.811862e+14	1.193231e+04	4.903562e+03	2.406226e+03	0	8.202844e-04
5.700000e+08	8.159575e+12	0.000000e+00	3.962266e-01	2.173170e+14	8.640354e+14	3.793045e+14	1.190466e+04	4.897758e+03	2.403378e+03	0	8.140330e-04
5.800000e+08	7.975197e+12	0.000000e+00	3.962266e-01	2.141215e+14	8.546233e+14	3.774361e+14	1.187742e+04	4.892049e+03	2.400576e+03	0	8.078548e-04
5.900000e+08	7.795686e+12	0.000000e+00	3.962266e-01	2.110081e+14	8.454345e+14	3.755810e+14	1.185057e+04	4.886432e+03	2.397820e+03	0	8.017475e-04
6.000000e+08	7.620863e+12	0.000000e+00	3.962266e-01	2.079738e+14	8.364607e+14	3.737390e+14	1.182412e+04	4.880904e+03	2.395107e+03	0	7.957089e-04
6.100000e+08	7.450558e+12	0.000000e+00	3.962266e-01	2.050158e+14	8.276941e+14	3.719101e+14	1.179804e+04	4.875463e+03	2.392437e+03	0	7.897369e-04
6.200000e+08	7.284607e+12	0.000000e+00	3.962266e-01	2.021313e+14	8.191273e+14	3.700940e+14	1.177233e+04	4.870106e+03	2.389809e+03	0	7.838294e-04
6.300000e+08	7.122857e+12	0.000000e+00	3.962266e-01	1.993177e+14	8.107530e+14	3.682908e+14	1.174698e+04	4.864831e+03	2.387220e+03	0	7.779844e-04
6.400000e+08	6.965159e+12	0.000000e+00	3.962266e-01	1.965726e+14	8.025647e+14	3.665004e+14	1.172199e+04	4.859636e+03	2.384671e+03	0	7.722001e-04
6.500000e+08	6.811372e+12	0.000000e+00	3.962266e-01	1.938936e+14	7.945558e+14	3.647225e+14	1.169733e+04	4.854518e+03	2.382160e+03	0	7.664745e-04
6.600000e+08	6.661360e+12	0.000000e+00	3.962266e-01	1.912784e+14	7.867202e+14	3.629571e+14	1.167301e+04	4.849475e+03	2.379685e+03	0	7.608058e-04
6.700000e+08	6.514996e+12	0.000000e+00	3.962266e-01	1.887250e+14	7.790520e+14	3.612042e+14	1.164902e+04	4.844506e+03	2.377247e+03	0	7.551923e-04
6.800000e+08	6.372154e+12	0.000000e+00	3.962266e-01	1.862312e+14	7.715456e+14	3.594635e+14	1.162535e+04	4.839608e+03	2.374843e+03	0	7.496322e-04
6.900000e+08	6.232718e+12	0.000000e+00	3.962266e-01	1.837950e+14	7.641957e+14	3.577351e+14	1.160198e+04	4.834780e+03	2.372474e+03	0	7.441240e-04
7.000000e+08	6.096573e+12	0.000000e+00	3.962266e-01	1.814146e+14	7.569971e+14	3.560188e+14	1.157892e+04	4.830019e+03	2.370138e+03	0	7.386660e-04
7.100000e+08	5.963613e+12	0.000000e+00	3.962266e-01	1.790882e+14	7.499449e+14	3.543145e+14	1.155616e+04	4.825324e+03	2.367834e+03	0	7.332566e-04
7.200000e+08	5.833733e+12	0.000000e+00	3.962266e-01	1.768139e+14	7.430344e+14	3.526221e+14	1.153369e+04	4.820693e+03	2.365561e+03	0	7.278943e-04
7.300000e+08	5.706834e+12	0.000000e+00	3.962266e-01	1.745903e+14	7.362611e+14	3.509416e+14	1.151150e+04	4.816124e+03	2.363320e+03	0	7.225777e-04
7.400000e+08	5.582821e+12	0.000000e+00	3.962266e-01	1.724156e+14	7.296208e+14	3.492727e+14	1.148959e+04	4.811617e+03	2.361108e+03	0	7.173053e-04
7.500000e+08	5.461602e+12	0.000000e+00	3.962266e-01	1.702883e+14	7.231094e+14	3.476155e+14	1.146796e+04	4.807169e+03	2.358925e+03	0	7.120757e-04
7.600000e+08	5.343090e+12	0.000000e+00	3.962266e-01	1.682070e+14	7.167228e+14	3.459699e+14	1.144659e+04	4.802778e+03	2.356771e+03	0	7.068876e-04
7.700000e+08	5.227201e+12	0.000000e+00	3.962266e-01	1.661702e+14	7.104573e+14	3.443357e+14	1.142547e+04	4.798444e+03	2.354644e+03	0	7.017395e-04
7.800000e+08	5.113854e+12	0.000000e+00	3.962266e-01	1.641766e+14	7.043093e+14	3.427129e+14	1.140462e+04	4.794166e+03	2.352544e+03	0	6.966302e-04
7.900000e+08	5.002971e+12	0.000000e+00	3.962266e-01	1.622249e+14	6.982752e+14	3.411013e+14	1.138401e+04	4.789941e+03	2.350471e+03	0	6.915583e-04
8.000000e+08	4.894478e+12	0.000000e+00	3.962266e-01	1.603139e+14	6.923517e+14	3.395009e+14	1.136365e+04	4.785768e+03	2.348424e+03	0	6.865228e-04
8.100000e+08	4.788303e+12	0.000000e+00	3.962266e-01	1.584423e+14	6.865357e+14	3.379116e+14	1.134352e+04	4.781647e+03	2.346401e+03	0	6.815222e-04
8.200000e+08	4.684377e+12	0.000000e+00	3.962266e-01	1.566090e+14	6.808240e+14	3.363333e+14	1.132363e+04	4.777576e+03	2.344404e+03	0	6.765555e-04
8.300000e+08	4.582635e+12	0.000000e+00	3.962266e-01	1.548128e+14	6.752136e+14	3.347659e+14	1.130397e+04	4.773554e+03	2.342430e+03	0	6.716215e-04
8.400000e+08	4.483011e+12	0.000000e+00	3.962266e-01	1.530528e+14	6.697017e+14	3.332094e+14	1.128453e+04	4.769579e+03	2.340479e+03	0	6.667189e-04
8.500000e+08	4.385445e+12	0.000000e+00	3.962266e-01	1.513278e+14	6.642855e+14	3.316635e+14	1.126532e+04	4.765651e+03	2.338552e+03	0	6.618467e-04
8.600000e+08	4.289878e+12	0.000000e+00	3.962266e-01	1.496369e+14	6.589624e+14	3.301284e+14	1.124632e+04	4.761769e+03	2.336647e+03	0	6.570037e-04
8.700000e+08	4.196253e+12	0.000000e+00	3.962266e-01	1.479791e+14	6.537299e+14	3.286038e+14	1.122753e+04	4.757932e+03	2.334764e+03	0	6.521889e-04
8.800000e+08	4.104514e+12	0.000000e+00	3.962266e-01	1.463535e+14	6.485854e+14	3.270897e+14	1.120894e+04	4.754138e+03	2.332902e+03	0	6.474011e-04
8.900000e+08	4.014610e+12	0.000000e+00	3.962266e-01	1.447593e+14	6.435267e+14	3.255860e+14	1.119056e+04	4.750386e+03	2.331061e+03	0	6.426393e-04
9.000000e+08	3.926489e+12	0.000000e+00	3.962266e-01	1.431954e+14	6.385514e+14	3.240926e+14	1.117239e+04	4.746677e+03	2.329241e+03	0	6.379025e-04
9.100000e+08	3.840101e+12	0.000000e+00	3.962266e-01	1.416612e+14	6.336574e+14	3.226094e+14	1.115440e+04	4.743008e+03	2.327441e+03	0	6.331895e-04
9.200000e+08	3.755400e+12	0.000000e+00	3.962266e-01	1.401558e+14	6.288425e+14	3.211364e+14	1.113661e+04	4.739379e+03	2.325660e+03	0	6.284994e-04
9.300000e+08	3.672340e+12	0.000000e+00	3.962266e-01	1.386785e+14	6.241047e+14	3.196735e+14	1.111901e+04	4.735789e+03	2.323898e+03	0	6.238312e-04
9.400000e+08	3.590876e+12	0.000000e+00	3.962266e-01	1.372285e+14	6.194420e+14	3.182206e+14	1.110159e+04	4.732237e+03	2.322155e+03	0	6.191839e-04
9.500000e+08	3.510966e+12	0.000000e+00	3.962266e-01	1.358050e+14	6.148525e+14	3.167776e+14	1.108435e+04	4.728723e+03	2.320431e+03	0	6.145564e-04
9.600000e+08	3.432569e+12	0.000000e+00	3.962266e-01	1.344075e+14	6.103344e+14	3.153444e+14	1.106729e+04	4.725246e+03	2.318724e+03	0	6.099477e-04
9.700000e+08	3.355645e+12	0.000000e+00	3.962266e-01	1.330352e+14	6.058858e+14	3.139210e+14	1.105041e+04	4.721804e+03	2.317036e+03	0	6.053569e-04
9.800000e+08	3.280156e+12	0.000000e+00	3.962266e-01	1.316874e+14	6.015052e+14	3.125073e+14	1.103370e+04	4.718398e+03	2.315364e+03	0	6.007830e-04
9.900000e+08	3.206064e+12	0.000000e+00	3.962266e-01	1.303636e+14	5.971908e+14	3.111032e+14	1.101715e+04	4.715026e+03	2.313709e+03	0	5.962250e-04
1.000000e+09	3.133333e+12	0.000000e+00	3.962266e-01	1.290632e+14	5.929410e+14	3.097086e+14	1.100078e+04	4.711688e+03	2.312071e+03	0	5.916820e-04
1.010000e+09	3.061929e+12	0.000000e+00	3.962266e-01	1.277855e+14	5.887543e+14	3.083235e+14	1.098456e+04	4.708383e+03	2.310450e+03	0	5.871529e-04
1.020000e+09	2.991818e+12	0.000000e+00	3.962266e-01	1.265300e+14	5.846291e+14	3.069478e+14	1.096851e+04	4.705110e+03	2.308844e+03	0	5.826368e-04
1.030000e+09	2.922968e+12	0.000000e+00	3.962266e-01	1.252961e+14	5.805641e+14	3.055814e+14	1.095261e+04	4.701869e+03	2.307253e+03	0	5.781327e-04
1.040000e+09	2.855347e+12	0.000000e+00	3.962266e-01	1.240834e+14	5.765578e+14	3.042242e+14	1.093687e+04	4.698660e+03	2.305679e+03	0	5.736396e-04
1.050000e+09	2.788925e+12	0.000000e+00	3.962266e-01	1.228912e+14	5.726089e+14	3.028761e+14	1.092127e+04	4.695481e+03	2.304119e+03	0	5.691566e-04
1.060000e+09	2.723672e+12	0.000000e+00	3.962266e-01	1.217192e+14	5.687159e+14	3.015372e+14	1.090583e+04	4.692332e+03	2.302573e+03	0	5.646826e-04
1.070000e+09	2.659559e+12	0.000000e+00	3.962266e-01	1.205667e+14	5.648778e+14	3.002073e+14	1.089054e+04	4.689212e+03	2.301043e+03	0	5.602167e-04
1.080000e+09	2.596560e+12	0.000000e+00	3.962266e-01	1.194334e+14	5.610932e+14	2.988863e+14	1.087539e+04	4.686122e+03	2.299526e+03	0	5.557579e-04
1.090000e+09	2.534647e+12	0.000000e+00	3.962266e-01	1.183188e+14	5.573609e+14	2.975743e+14	1.086038e+04	4.683059e+03	2.298023e+03	0	5.513051e-04
1.100000e+09	2.473794e+12	0.000000e+00	3.962266e-01	1.172225e+14	5.536798e+14	2.962710e+14	1.084551e+04	4.680025e+03	2.296534e+03	0	5.468573e-04
1.110000e+09	2.413976e+12	0.000000e+00	3.962266e-01	1.161440e+14	5.500488e+14	2.949764e+14	1.083078e+04	4.677018e+03	2.295059e+03	0	5.424135e-04
1.120000e+09	2.355169e+12	0.000000e+00	3.962266e-01	1.150829e+14	5.464667e+14	2.936906e+14	1.081618e+04	4.674038e+03	2.293596e+03	0	5.379726e-04
1.130000e+09	2.297349e+12	0.000000e+00	3.962266e-01	1.140388e+14	5.429325e+14	2.924133e+14	1.080172e+04	4.671084e+03	2.292147e+03	0	5.335336e-04
1.140000e+09	2.240493e+12	0.000000e+00	3.962266e-01	1.130113e+14	5.394452e+14	2.911446e+14	1.078738e+04	4.668156e+03	2.290710e+03	0	5.290954e-04
1.150000e+09	2.184578e+12	0.000000e+00	3.962266e-01	1.120001e+14	5.360037e+14	2.898844e+14	1.077318e+04	4.665253e+03	2.289285e+03	0	5.246569e-04
1.160000e+09	2.129584e+12	0.000000e+00	3.962266e-01	1.110048e+14	5.326072e+14	2.886325e+14	1.075910e+04	4.662375e+03	2.287873e+03	0	5.202169e-04
1.170000e+09	2.075489e+12	0.000000e+00	3.962266e-01	1.100250e+14	5.292546e+14	2.873890e+14	1.074515e+04	4.659522e+03	2.286473e+03	0	5.157743e-04
1.180000e+09	2.022273e+12	0.000000e+00	3.962266e-01	1.090604e+14	5.259451e+14	2.861538e+14	1.073132e+04	4.656693e+03	2.285085e+03	0	5.113278e-04
1.190000e+09	1.969916e+12	0.000000e+00	3.962266e-01	1.081106e+14	5.226778e+14	2.849268e+14	1.071761e+04	4.653887e+03	2.283708e+03	0	5.068764e-04
1.200000e+09	1.918399e+12	0.000000e+00	3.962266e-01	1.071753e+14	5.194518e+14	2.837079e+14	1.070402e+04	4.651105e+03	2.282343e+03	0	5.024187e-04
1.210000e+09	1.867703e+12	0.000000e+00	3.962266e-01	1.062543e+14	5.162662e+14	2.824971e+14	1.069054e+04	4.648346e+03	2.280989e+03	0	4.979535e-04
1.220000e+09	1.817810e+12	0.000000e+00	3.962266e-01	1.053471e+14	5.131203e+14	2.812944e+14	1.067719e+04	4.645609e+03	2.279646e+03	0	4.934794e-04
1.230000e+09	1.768703e+12	0.000000e+00	3.962266e-01	1.044535e+14	5.100133e+14	2.800996e+14	1.066394e+04	4.642894e+03	2.278314e+03	0	4.889950e-04
1.240000e+09	1.720364e+12	0.000000e+00	3.962266e-01	1.035733e+14	5.069444e+14	2.789126e+14	1.065081e+04	4.640201e+03	2.276992e+03	0	4.844990e-04
1.250000e+09	1.672776e+12	0.000000e+00	3.962266e-01	1.027061e+14	5.039128e+14	2.777336e+14	1.063779e+04	4.637529e+03	2.275681e+03	0	4.799899e-04
1.260000e+09	1.625925e+12	0.000000e+00	3.962266e-01	1.018516e+14	5.009179e+14	2.765623e+14	1.062488e+04	4.634879e+03	2.274381e+03	0	4.754662e-04
1.270000e+09	1.579793e+12	0.000000e+00	3.962266e-01	1.010096e+14	4.979588e+14	2.753987e+14	1.061207e+04	4.632249e+03	2.273090e+03	0	4.709262e-04
1.280000e+09	1.534366e+12	0.000000e+00	3.962266e-01	1.001798e+14	4.950350e+14	2.742428e+14	1.059937e+04	4.629639e+03	2.271809e+03	0	4.663684e-04
1.290000e+09	1.489628e+12	0.000000e+00	3.962266e-01	9.936197e+13	4.921458e+14	2.730944e+14	1.058678e+04	4.627050e+03	2.270539e+03	0	4.617910e-04
1.300000e+09	1.445566e+12	0.000000e+00	3.962266e-01	9.855588e+13	4.892905e+14	2.719536e+14	1.057428e+04	4.624480e+03	2.269278e+03	0	4.571922e-04
1.310000e+09	1.402165e+12	0.000000e+00	3.962266e-01	9.776127e+13	4.864684e+14	2.708203e+14	1.056189e+04	4.621929e+03	2.268026e+03	0	4.525701e-04
1.320000e+09	1.359411e+12	0.000000e+00	3.962266e-01	9.697791e+13	4.836790e+14	2.696944e+14	1.054960e+04	4.619398e+03	2.266784e+03	0	4.479227e-04
1.330000e+09	1.317292e+12	0.000000e+00	3.962266e-01	9.620557e+13	4.809216e+14	2.685759e+14	1.053740e+04	4.616885e+03	2.265551e+03	0	4.432480e-04
1.340000e+09	1.275793e+12	0.000000e+00	3.962266e-01	9.544403e+13	4.781958e+14	2.674647e+14	1.052530e+04	4.614391e+03	2.264327e+03	0	4.385437e-04
1.350000e+09	1.234903e+12	0.000000e+00	3.962266e-01	9.469308e+13	4.755007e+14	2.663607e+14	1.051330e+04	4.611915e+03	2.263112e+03	0	4.338076e-04
1.360000e+09	1.194609e+12	0.000000e+00	3.962266e-01	9.395250e+13	4.728361e+14	2.652639e+14	1.050139e+04	4.609457e+03	2.261906e+03	0	4.290371e-04
