#t		Qconv[W]	Ri[Rp]		R*[Rp]		Qc[W]		Qm[W]		Qr[W]		Tcmb[K]		Tl[K]		Tup[K]		RiFlag		Bs[T]
0.000000e+00	4.896415e+13	0.000000e+00	3.924052e-01	9.132494e+14	2.624101e+15	5.433450e+14	1.582975e+04	5.792888e+03	2.804859e+03	0	1.490480e-03
1.000000e+07	4.684482e+13	0.000000e+00	3.924052e-01	8.782928e+14	2.536003e+15	5.403345e+14	1.572205e+04	5.769617e+03	2.793591e+03	0	1.468658e-03
2.000000e+07	4.486348e+13	0.000000e+00	3.924052e-01	8.455889e+14	2.453799e+15	5.373465e+14	1.561843e+04	5.747327e+03	2.782798e+03	0	1.447653e-03
3.000000e+07	4.300783e+13	0.000000e+00	3.924052e-01	8.149378e+14	2.376929e+15	5.343808e+14	1.551861e+04	5.725949e+03	2.772447e+03	0	1.427412e-03
4.000000e+07	4.126694e+13	0.000000e+00	3.924052e-01	7.861617e+14	2.304895e+15	5.314372e+14	1.542237e+04	5.705421e+03	2.762508e+03	0	1.407886e-03
5.000000e+07	3.963109e+13	0.000000e+00	3.924052e-01	7.591025e+14	2.237263e+15	5.285156e+14	1.532949e+04	5.685685e+03	2.752952e+03	0	1.389032e-03
6.000000e+07	3.809159e+13	0.000000e+00	3.924052e-01	7.336187e+14	2.173646e+15	5.256158e+14	1.523977e+04	5.666690e+03	2.743755e+03	0	1.370808e-03
7.000000e+07	3.664064e+13	0.000000e+00	3.924052e-01	7.095835e+14	2.113702e+15	5.227376e+14	1.515303e+04	5.648389e+03	2.734893e+03	0	1.353177e-03
8.000000e+07	3.527125e+13	0.000000e+00	3.924052e-01	6.868830e+14	2.057125e+15	5.198808e+14	1.506910e+04	5.630739e+03	2.726348e+03	0	1.336104e-03
9.000000e+07	3.397713e+13	0.000000e+00	3.924052e-01	6.654148e+14	2.003643e+15	5.170452e+14	1.498783e+04	5.613701e+03	2.718098e+03	0	1.319560e-03
1.000000e+08	3.275259e+13	0.000000e+00	3.924052e-01	6.450860e+14	1.953010e+15	5.142307e+14	1.490907e+04	5.597240e+03	2.710128e+03	0	1.303513e-03
1.100000e+08	3.159248e+13	0.000000e+00	3.924052e-01	6.258131e+14	1.905007e+15	5.114371e+14	1.483270e+04	5.581322e+03	2.702420e+03	0	1.287937e-03
1.200000e+08	3.049214e+13	0.000000e+00	3.924052e-01	6.075198e+14	1.859435e+15	5.086642e+14	1.475858e+04	5.565917e+03	2.694961e+03	0	1.272808e-03
1.300000e+08	2.944734e+13	0.000000e+00	3.924052e-01	5.901372e+14	1.816117e+15	5.059118e+14	1.468661e+04	5.550997e+03	2.687737e+03	0	1.258101e-03
1.400000e+08	2.845421e+13	0.000000e+00	3.924052e-01	5.736022e+14	1.774890e+15	5.031797e+14	1.461668e+04	5.536536e+03	2.680735e+03	0	1.243795e-03
1.500000e+08	2.750923e+13	0.000000e+00	3.924052e-01	5.578575e+14	1.735606e+15	5.004679e+14	1.454869e+04	5.522510e+03	2.673944e+03	0	1.229871e-03
1.600000e+08	2.660919e+13	0.000000e+00	3.924052e-01	5.428506e+14	1.698132e+15	4.977761e+14	1.448255e+04	5.508898e+03	2.667353e+03	0	1.216309e-03
1.700000e+08	2.575114e+13	0.000000e+00	3.924052e-01	5.285334e+14	1.662347e+15	4.951042e+14	1.441817e+04	5.495677e+03	2.660952e+03	0	1.203092e-03
1.800000e+08	2.493239e+13	0.000000e+00	3.924052e-01	5.148617e+14	1.628138e+15	4.924520e+14	1.435548e+04	5.482831e+03	2.654732e+03	0	1.190204e-03
1.900000e+08	2.415044e+13	0.000000e+00	3.924052e-01	5.017951e+14	1.595404e+15	4.898193e+14	1.429440e+04	5.470339e+03	2.648684e+03	0	1.177629e-03
2.000000e+08	2.340302e+13	0.000000e+00	3.924052e-01	4.892963e+14	1.564052e+15	4.872059e+14	1.423485e+04	5.458186e+03	2.642799e+03	0	1.165353e-03
2.100000e+08	2.268802e+13	0.000000e+00	3.924052e-01	4.773308e+14	1.533996e+15	4.846118e+14	1.417677e+04	5.446356e+03	2.637071e+03	0	1.153362e-03
2.200000e+08	2.200350e+13	0.000000e+00	3.924052e-01	4.658670e+14	1.505156e+15	4.820368e+14	1.412010e+04	5.434835e+03	2.631493e+03	0	1.141644e-03
2.300000e+08	2.134767e+13	0.000000e+00	3.924052e-01	4.548755e+14	1.477460e+15	4.794806e+14	1.406478e+04	5.423608e+03	2.626057e+03	0	1.130187e-03
2.400000e+08	2.071887e+13	0.000000e+00	3.924052e-01	4.443291e+14	1.450841e+15	4.769432e+14	1.401076e+04	5.412663e+03	2.620757e+03	0	1.118980e-03
2.500000e+08	2.011555e+13	0.000000e+00	3.924052e-01	4.342028e+14	1.425238e+15	4.744244e+14	1.395798e+04	5.401988e+03	2.615588e+03	0	1.108011e-03
2.600000e+08	1.953629e+13	0.000000e+00	3.924052e-01	4.244730e+14	1.400592e+15	4.719240e+14	1.390639e+04	5.391571e+03	2.610545e+03	0	1.097272e-03
2.700000e+08	1.897977e+13	0.000000e+00	3.924052e-01	4.151182e+14	1.376850e+15	4.694419e+14	1.385595e+04	5.381401e+03	2.605621e+03	0	1.086752e-03
2.800000e+08	1.844475e+13	0.000000e+00	3.924052e-01	4.061181e+14	1.353964e+15	4.669779e+14	1.380662e+04	5.371469e+03	2.600812e+03	0	1.076443e-03
2.900000e+08	1.793007e+13	0.000000e+00	3.924052e-01	3.974538e+14	1.331887e+15	4.645319e+14	1.375834e+04	5.361765e+03	2.596113e+03	0	1.066336e-03
3.000000e+08	1.743468e+13	0.000000e+00	3.924052e-01	3.891080e+14	1.310576e+15	4.621037e+14	1.371109e+04	5.352281e+03	2.591521e+03	0	1.056424e-03
3.100000e+08	1.695757e+13	0.000000e+00	3.924052e-01	3.810641e+14	1.289993e+15	4.596932e+14	1.366482e+04	5.343006e+03	2.587030e+03	0	1.046698e-03
3.200000e+08	1.649781e+13	0.000000e+00	3.924052e-01	3.733069e+14	1.270099e+15	4.573002e+14	1.361951e+04	5.333934e+03	2.582638e+03	0	1.037152e-03
3.300000e+08	1.605453e+13	0.000000e+00	3.924052e-01	3.658221e+14	1.250860e+15	4.549247e+14	1.357511e+04	5.325057e+03	2.578339e+03	0	1.027778e-03
3.400000e+08	1.562690e+13	0.000000e+00	3.924052e-01	3.585963e+14	1.232244e+15	4.525664e+14	1.353159e+04	5.316367e+03	2.574132e+03	0	1.018571e-03
3.500000e+08	1.521417e+13	0.000000e+00	3.924052e-01	3.516169e+14	1.214220e+15	4.502252e+14	1.348893e+04	5.307858e+03	2.570012e+03	0	1.009523e-03
3.600000e+08	1.481561e+13	0.000000e+00	3.924052e-01	3.448721e+14	1.196761e+15	4.479010e+14	1.344709e+04	5.299523e+03	2.565976e+03	0	1.000630e-03
3.700000e+08	1.443055e+13	0.000000e+00	3.924052e-01	3.383509e+14	1.179839e+15	4.455936e+14	1.340605e+04	5.291356e+03	2.562022e+03	0	9.918845e-04
3.800000e+08	1.405836e+13	0.000000e+00	3.924052e-01	3.320428e+14	1.163429e+15	4.433029e+14	1.336578e+04	5.283351e+03	2.558146e+03	0	9.832826e-04
3.900000e+08	1.369844e+13	0.000000e+00	3.924052e-01	3.259382e+14	1.147509e+15	4.410288e+14	1.332626e+04	5.275503e+03	2.554346e+03	0	9.748187e-04
4.000000e+08	1.335023e+13	0.000000e+00	3.924052e-01	3.200277e+14	1.132056e+15	4.387711e+14	1.328746e+04	5.267805e+03	2.550619e+03	0	9.664879e-04
4.100000e+08	1.301321e+13	0.000000e+00	3.924052e-01	3.143027e+14	1.117049e+15	4.365297e+14	1.324936e+04	5.260253e+03	2.546962e+03	0	9.582856e-04
4.200000e+08	1.268687e+13	0.000000e+00	3.924052e-01	3.087550e+14	1.102469e+15	4.343044e+14	1.321193e+04	5.252843e+03	2.543374e+03	0	9.502072e-04
4.300000e+08	1.237075e+13	0.000000e+00	3.924052e-01	3.033769e+14	1.088297e+15	4.320952e+14	1.317516e+04	5.245569e+03	2.539852e+03	0	9.422485e-04
4.400000e+08	1.206440e+13	0.000000e+00	3.924052e-01	2.981611e+14	1.074516e+15	4.299018e+14	1.313903e+04	5.238427e+03	2.536394e+03	0	9.344055e-04
4.500000e+08	1.176740e+13	0.000000e+00	3.924052e-01	2.931008e+14	1.061109e+15	4.277242e+14	1.310352e+04	5.231413e+03	2.532998e+03	0	9.266741e-04
4.600000e+08	1.147937e+13	0.000000e+00	3.924052e-01	2.881893e+14	1.048062e+15	4.255623e+14	1.306861e+04	5.224523e+03	2.529662e+03	0	9.190507e-04
4.700000e+08	1.119992e+13	0.000000e+00	3.924052e-01	2.834206e+14	1.035358e+15	4.234158e+14	1.303427e+04	5.217752e+03	2.526384e+03	0	9.115316e-04
4.800000e+08	1.092869e+13	0.000000e+00	3.924052e-01	2.787888e+14	1.022986e+15	4.212848e+14	1.300051e+04	5.211098e+03	2.523162e+03	0	9.041134e-04
4.900000e+08	1.066536e+13	0.000000e+00	3.924052e-01	2.742883e+14	1.010930e+15	4.191690e+14	1.296729e+04	5.204556e+03	2.519994e+03	0	8.967926e-04
5.000000e+08	1.040961e+13	0.000000e+00	3.924052e-01	2.699140e+14	9.991794e+14	4.170683e+14	1.293460e+04	5.198124e+03	2.516880e+03	0	8.895662e-04
5.100000e+08	1.016113e+13	0.000000e+00	3.924052e-01	2.656608e+14	9.877216e+14	4.149826e+14	1.290244e+04	5.191797e+03	2.513816e+03	0	8.824310e-04
5.200000e+08	9.919632e+12	0.000000e+00	3.924052e-01	2.615240e+14	9.765456e+14	4.129118e+14	1.287077e+04	5.185574e+03	2.510803e+03	0	8.753841e-04
5.300000e+08	9.684850e+12	0.000000e+00	3.924052e-01	2.574991e+14	9.656406e+14	4.108558e+14	1.283960e+04	5.179450e+03	2.507838e+03	0	8.684226e-04
5.400000e+08	9.456523e+12	0.000000e+00	3.924052e-01	2.535819e+14	9.549967e+14	4.088144e+14	1.280891e+04	5.173423e+03	2.504920e+03	0	8.615437e-04
5.500000e+08	9.234404e+12	0.000000e+00	3.924052e-01	2.497683e+14	9.446040e+14	4.067876e+14	1.277868e+04	5.167491e+03	2.502047e+03	0	8.547447e-04
5.600000e+08	9.018261e+12	0.000000e+00	3.924052e-01	2.460543e+14	9.344536e+14	4.047752e+14	1.274890e+04	5.161649e+03	2.499219e+03	0	8.480232e-04
5.700000e+08	8.807869e+12	0.000000e+00	3.924052e-01	2.424365e+14	9.245366e+14	4.027770e+14	1.271956e+04	5.155897e+03	2.496434e+03	0	8.413766e-04
5.800000e+08	8.603016e+12	0.000000e+00	3.924052e-01	2.389112e+14	9.148448e+14	4.007930e+14	1.269065e+04	5.150232e+03	2.493691e+03	0	8.348025e-04
5.900000e+08	8.403501e+12	0.000000e+00	3.924052e-01	2.354750e+14	9.053702e+14	3.988231e+14	1.266216e+04	5.144650e+03	2.490988e+03	0	8.282985e-04
6.000000e+08	8.209131e+12	0.000000e+00	3.924052e-01	2.321249e+14	8.961053e+14	3.968672e+14	1.263408e+04	5.139150e+03	2.488325e+03	0	8.218625e-04
6.100000e+08	8.019720e+12	0.000000e+00	3.924052e-01	2.288578e+14	8.870429e+14	3.949250e+14	1.260639e+04	5.133730e+03	2.485701e+03	0	8.154923e-04
6.200000e+08	7.835095e+12	0.000000e+00	3.924052e-01	2.256707e+14	8.781761e+14	3.929966e+14	1.257910e+04	5.128388e+03	2.483114e+03	0	8.091857e-04
6.300000e+08	7.655087e+12	0.000000e+00	3.924052e-01	2.225609e+14	8.694984e+14	3.910818e+14	1.255218e+04	5.123121e+03	2.480564e+03	0	8.029408e-04
6.400000e+08	7.479536e+12	0.000000e+00	3.924052e-01	2.195258e+14	8.610034e+14	3.891805e+14	1.252563e+04	5.117928e+03	2.478049e+03	0	7.967554e-04
6.500000e+08	7.308289e+12	0.000000e+00	3.924052e-01	2.165627e+14	8.526852e+14	3.872926e+14	1.249944e+04	5.112806e+03	2.475570e+03	0	7.906277e-04
6.600000e+08	7.141200e+12	0.000000e+00	3.924052e-01	2.136694e+14	8.445381e+14	3.854180e+14	1.247360e+04	5.107754e+03	2.473124e+03	0	7.845558e-04
6.700000e+08	6.978128e+12	0.000000e+00	3.924052e-01	2.108435e+14	8.365566e+14	3.835566e+14	1.244811e+04	5.102770e+03	2.470710e+03	0	7.785379e-04
6.800000e+08	6.818940e+12	0.000000e+00	3.924052e-01	2.080826e+14	8.287353e+14	3.817083e+14	1.242295e+04	5.097853e+03	2.468329e+03	0	7.725722e-04
6.900000e+08	6.663508e+12	0.000000e+00	3.924052e-01	2.053849e+14	8.210693e+14	3.798729e+14	1.239812e+04	5.093000e+03	2.465980e+03	0	7.666570e-04
7.000000e+08	6.511708e+12	0.000000e+00	3.924052e-01	2.027481e+14	8.135538e+14	3.780503e+14	1.237361e+04	5.088211e+03	2.463661e+03	0	7.607906e-04
7.100000e+08	6.363423e+12	0.000000e+00	3.924052e-01	2.001703e+14	8.061840e+14	3.762406e+14	1.234941e+04	5.083483e+03	2.461372e+03	0	7.549712e-04
7.200000e+08	6.218541e+12	0.000000e+00	3.924052e-01	1.976498e+14	7.989557e+14	3.744435e+14	1.232553e+04	5.078815e+03	2.459111e+03	0	7.491975e-04
7.300000e+08	6.076952e+12	0.000000e+00	3.924052e-01	1.951846e+14	7.918645e+14	3.726589e+14	1.230193e+04	5.074206e+03	2.456880e+03	0	7.434676e-04
7.400000e+08	5.938553e+12	0.000000e+00	3.924052e-01	1.927730e+14	7.849064e+14	3.708868e+14	1.227864e+04	5.069654e+03	2.454676e+03	0	7.377802e-04
7.500000e+08	5.803244e+12	0.000000e+00	3.924052e-01	1.904135e+14	7.780773e+14	3.691271e+14	1.225563e+04	5.065158e+03	2.452499e+03	0	7.321337e-04
7.600000e+08	5.670930e+12	0.000000e+00	3.924052e-01	1.881044e+14	7.713737e+14	3.673796e+14	1.223290e+04	5.060716e+03	2.450348e+03	0	7.265267e-04
7.700000e+08	5.541519e+12	0.000000e+00	3.924052e-01	1.858441e+14	7.647918e+14	3.656443e+14	1.221044e+04	5.056329e+03	2.448224e+03	0	7.209577e-04
7.800000e+08	5.414923e+12	0.000000e+00	3.924052e-01	1.836313e+14	7.583281e+14	3.639210e+14	1.218825e+04	5.051993e+03	2.446125e+03	0	7.154252e-04
7.900000e+08	5.291056e+12	0.000000e+00	3.924052e-01	1.814645e+14	7.519794e+14	3.622097e+14	1.216633e+04	5.047708e+03	2.444050e+03	0	7.099279e-04
8.000000e+08	5.169838e+12	0.000000e+00	3.924052e-01	1.793423e+14	7.457423e+14	3.605103e+14	1.214466e+04	5.043473e+03	2.441999e+03	0	7.044645e-04
8.100000e+08	5.051189e+12	0.000000e+00	3.924052e-01	1.772635e+14	7.396139e+14	3.588226e+14	1.212325e+04	5.039287e+03	2.439973e+03	0	6.990335e-04
8.200000e+08	4.935034e+12	0.000000e+00	3.924052e-01	1.752267e+14	7.335911e+14	3.571467e+14	1.210208e+04	5.035149e+03	2.437969e+03	0	6.936337e-04
8.300000e+08	4.821300e+12	0.000000e+00	3.924052e-01	1.732309e+14	7.276710e+14	3.554823e+14	1.208116e+04	5.031057e+03	2.435988e+03	0	6.882637e-04
8.400000e+08	4.709919e+12	0.000000e+00	3.924052e-01	1.712748e+14	7.218509e+14	3.538294e+14	1.206047e+04	5.027011e+03	2.434028e+03	0	6.829223e-04
8.500000e+08	4.600821e+12	0.000000e+00	3.924052e-01	1.693573e+14	7.161280e+14	3.521879e+14	1.204002e+04	5.023009e+03	2.432091e+03	0	6.776081e-04
8.600000e+08	4.493943e+12	0.000000e+00	3.924052e-01	1.674773e+14	7.104999e+14	3.505578e+14	1.201979e+04	5.019052e+03	2.430175e+03	0	6.723199e-04
8.700000e+08	4.389222e+12	0.000000e+00	3.924052e-01	1.656337e+14	7.049641e+14	3.489388e+14	1.199979e+04	5.015137e+03	2.428279e+03	0	6.670565e-04
8.800000e+08	4.286597e+12	0.000000e+00	3.924052e-01	1.638257e+14	6.995181e+14	3.473310e+14	1.198000e+04	5.011263e+03	2.426404e+03	0	6.618166e-04
8.900000e+08	4.186010e+12	0.000000e+00	3.924052e-01	1.620521e+14	6.941597e+14	3.457342e+14	1.196043e+04	5.007431e+03	2.424548e+03	0	6.565990e-04
9.000000e+08	4.087406e+12	0.000000e+00	3.924052e-01	1.603122e+14	6.888866e+14	3.441484e+14	1.194108e+04	5.003639e+03	2.422712e+03	0	6.514025e-04
9.100000e+08	3.990730e+12	0.000000e+00	3.924052e-01	1.586048e+14	6.836966e+14	3.425735e+14	1.192193e+04	4.999887e+03	2.420895e+03	0	6.462257e-04
9.200000e+08	3.895930e+12	0.000000e+00	3.924052e-01	1.569293e+14	6.785878e+14	3.410094e+14	1.190298e+04	4.996173e+03	2.419097e+03	0	6.410676e-04
9.300000e+08	3.802955e+12	0.000000e+00	3.924052e-01	1.552848e+14	6.735580e+14	3.394559e+14	1.188423e+04	4.992496e+03	2.417317e+03	0	6.359269e-04
9.400000e+08	3.711758e+12	0.000000e+00	3.924052e-01	1.536704e+14	6.686053e+14	3.379131e+14	1.186568e+04	4.988857e+03	2.415555e+03	0	6.308024e-04
9.500000e+08	3.622290e+12	0.000000e+00	3.924052e-01	1.520853e+14	6.637279e+14	3.363808e+14	1.184732e+04	4.985254e+03	2.413810e+03	0	6.256929e-04
9.600000e+08	3.534507e+12	0.000000e+00	3.924052e-01	1.505289e+14	6.589240e+14	3.348589e+14	1.182915e+04	4.981687e+03	2.412083e+03	0	6.205971e-04
9.700000e+08	3.448365e+12	0.000000e+00	3.924052e-01	1.490003e+14	6.541917e+14	3.333475e+14	1.181117e+04	4.978154e+03	2.410373e+03	0	6.155139e-04
9.800000e+08	3.363820e+12	0.000000e+00	3.924052e-01	1.474988e+14	6.495294e+14	3.318463e+14	1.179336e+04	4.974656e+03	2.408679e+03	0	6.104420e-04
9.900000e+08	3.280833e+12	0.000000e+00	3.924052e-01	1.460239e+14	6.449355e+14	3.303553e+14	1.177574e+04	4.971191e+03	2.407001e+03	0	6.053802e-04
1.000000e+09	3.199364e+12	0.000000e+00	3.924052e-01	1.445747e+14	6.404083e+14	3.288744e+14	1.175829e+04	4.967759e+03	2.405340e+03	0	6.003272e-04
1.010000e+09	3.119374e+12	0.000000e+00	3.924052e-01	1.431508e+14	6.359464e+14	3.274035e+14	1.174101e+04	4.964360e+03	2.403694e+03	0	5.952818e-04
1.020000e+09	3.040825e+12	0.000000e+00	3.924052e-01	1.417513e+14	6.315481e+14	3.259427e+14	1.172390e+04	4.960992e+03	2.402063e+03	0	5.902427e-04
1.030000e+09	2.963683e+12	0.000000e+00	3.924052e-01	1.403759e+14	6.272122e+14	3.244917e+14	1.170696e+04	4.957655e+03	2.400447e+03	0	5.852086e-04
1.040000e+09	2.887912e+12	0.000000e+00	3.924052e-01	1.390237e+14	6.229371e+14	3.230505e+14	1.169019e+04	4.954349e+03	2.398846e+03	0	5.801782e-04
1.050000e+09	2.813478e+12	0.000000e+00	3.924052e-01	1.376944e+14	6.187215e+14	3.216191e+14	1.167357e+04	4.951073e+03	2.397260e+03	0	5.751503e-04
1.060000e+09	2.740350e+12	0.000000e+00	3.924052e-01	1.363874e+14	6.145642e+14	3.201973e+14	1.165711e+04	4.947826e+03	2.395688e+03	0	5.701233e-04
1.070000e+09	2.668494e+12	0.000000e+00	3.924052e-01	1.351020e+14	6.104637e+14	3.187851e+14	1.164081e+04	4.944609e+03	2.394130e+03	0	5.650960e-04
1.080000e+09	2.597882e+12	0.000000e+00	3.924052e-01	1.338379e+14	6.064189e+14	3.173824e+14	1.162467e+04	4.941419e+03	2.392586e+03	0	5.600669e-04
1.090000e+09	2.528482e+12	0.000000e+00	3.924052e-01	1.325945e+14	6.024287e+14	3.159891e+14	1.160867e+04	4.938258e+03	2.391055e+03	0	5.550347e-04
1.100000e+09	2.460267e+12	0.000000e+00	3.924052e-01	1.313713e+14	5.984917e+14	3.146052e+14	1.159282e+04	4.935124e+03	2.389538e+03	0	5.499977e-04
1.110000e+09	2.393208e+12	0.000000e+00	3.924052e-01	1.301678e+14	5.946069e+14	3.132305e+14	1.157711e+04	4.932016e+03	2.388033e+03	0	5.449545e-04
1.120000e+09	2.327278e+12	0.000000e+00	3.924052e-01	1.289837e+14	5.907732e+14	3.118651e+14	1.156155e+04	4.928936e+03	2.386541e+03	0	5.399036e-04
1.130000e+09	2.262451e+12	0.000000e+00	3.924052e-01	1.278184e+14	5.869895e+14	3.105088e+14	1.154613e+04	4.925881e+03	2.385062e+03	0	5.348433e-04
1.140000e+09	2.198702e+12	0.000000e+00	3.924052e-01	1.266716e+14	5.832548e+14	3.091616e+14	1.153085e+04	4.922852e+03	2.383596e+03	0	5.297719e-04
1.150000e+09	2.136005e+12	0.000000e+00	3.924052e-01	1.255428e+14	5.795680e+14	3.078233e+14	1.151571e+04	4.919848e+03	2.382141e+03	0	5.246877e-04
1.160000e+09	2.074337e+12	0.000000e+00	3.924052e-01	1.244317e+14	5.759283e+14	3.064940e+14	1.150070e+04	4.916868e+03	2.380699e+03	0	5.195890e-04
1.170000e+09	2.013675e+12	0.000000e+00	3.924052e-01	1.233377e+14	5.723346e+14	3.051736e+14	1.148582e+04	4.913913e+03	2.379268e+03	0	5.144738e-04
1.180000e+09	1.953995e+12	0.000000e+00	3.924052e-01	1.222606e+14	5.687860e+14	3.038619e+14	1.147108e+04	4.910982e+03	2.377849e+03	0	5.093402e-04
1.190000e+09	1.895277e+12	0.000000e+00	3.924052e-01	1.212000e+14	5.652816e+14	3.025589e+14	1.145646e+04	4.908075e+03	2.376441e+03	0	5.041863e-04
1.200000e+09	1.837498e+12	0.000000e+00	3.924052e-01	1.201555e+14	5.618206e+14	3.012647e+14	1.144197e+04	4.905190e+03	2.375044e+03	0	4.990098e-04
1.210000e+09	1.780638e+12	0.000000e+00	3.924052e-01	1.191268e+14	5.584021e+14	2.999789e+14	1.142760e+04	4.902328e+03	2.373658e+03	0	4.938086e-04
1.220000e+09	1.724677e+12	0.000000e+00	3.924052e-01	1.181135e+14	5.550252e+14	2.987017e+14	1.141336e+04	4.899489e+03	2.372284e+03	0	4.885804e-04
1.230000e+09	1.669595e+12	0.000000e+00	3.924052e-01	1.171153e+14	5.516892e+14	2.974330e+14	1.139923e+04	4.896671e+03	2.370919e+03	0	4.833226e-04
1.240000e+09	1.615372e+12	0.000000e+00	3.924052e-01	1.161319e+14	5.483933e+14	2.961726e+14	1.138523e+04	4.893876e+03	2.369566e+03	0	4.780328e-04
1.250000e+09	1.561992e+12	0.000000e+00	3.924052e-01	1.151629e+14	5.451367e+14	2.949206e+14	1.137134e+04	4.891101e+03	2.368222e+03	0	4.727081e-04
1.260000e+09	1.509435e+12	0.000000e+00	3.924052e-01	1.142081e+14	5.419186e+14	2.936768e+14	1.135757e+04	4.888348e+03	2.366889e+03	0	4.673457e-04
1.270000e+09	1.457684e+12	0.000000e+00	3.924052e-01	1.132672e+14	5.387384e+14	2.924412e+14	1.134391e+04	4.885615e+03	2.365566e+03	0	4.619425e-04
1.280000e+09	1.406722e+12	0.000000e+00	3.924052e-01	1.123399e+14	5.355953e+14	2.912138e+14	1.133037e+04	4.882902e+03	2.364253e+03	0	4.564953e-04
1.290000e+09	1.356533e+12	0.000000e+00	3.924052e-01	1.114259e+14	5.324887e+14	2.899944e+14	1.131693e+04	4.880210e+03	2.362949e+03	0	4.510004e-04
1.300000e+09	1.307100e+12	0.000000e+00	3.924052e-01	1.105250e+14	5.294179e+14	2.887830e+14	1.130361e+04	4.877537e+03	2.361655e+03	0	4.454543e-04
1.310000e+09	1.258408e+12	0.000000e+00	3.924052e-01	1.096368e+14	5.263822e+14	2.875795e+14	1.129039e+04	4.874884e+03	2.360370e+03	0	4.398528e-04
1.320000e+09	1.210442e+12	0.000000e+00	3.924052e-01	1.087611e+14	5.233810e+14	2.863840e+14	1.127727e+04	4.872250e+03	2.359095e+03	0	4.341916e-04
1.330000e+09	1.163185e+12	0.000000e+00	3.924052e-01	1.078976e+14	5.204137e+14	2.851962e+14	1.126427e+04	4.869635e+03	2.357829e+03	0	4.284661e-04
1.340000e+09	1.116625e+12	0.000000e+00	3.924052e-01	1.070462e+14	5.174796e+14	2.840162e+14	1.125136e+04	4.867038e+03	2.356571e+03	0	4.226712e-04
1.350000e+09	1.070747e+12	0.000000e+00	3.924052e-01	1.062066e+14	5.145783e+14	2.828439e+14	1.123856e+04	4.864460e+03	2.355323e+03	0	4.168013e-04
1.360000e+09	1.025537e+12	0.000000e+00	3.924052e-01	1.053785e+14	5.117090e+14	2.816793e+14	1.122585e+04	4.861899e+03	2.354083e+03	0	4.108506e-04
