#t		Qconv[W]	Ri[Rp]		R*[Rp]		Qc[W]		Qm[W]		Qr[W]		Tcmb[K]		Tl[K]		Tup[K]		RiFlag		Bs[T]
0.000000e+00	6.482391e+13	0.000000e+00	3.924050e-01	1.131835e+15	2.629603e+15	6.095200e+14	1.731666e+04	6.129907e+03	2.860270e+03	0	1.629949e-03
1.000000e+07	6.209038e+13	0.000000e+00	3.924050e-01	1.090321e+15	2.563029e+15	6.061428e+14	1.719977e+04	6.113802e+03	2.852755e+03	0	1.606708e-03
2.000000e+07	5.952501e+13	0.000000e+00	3.924050e-01	1.051332e+15	2.499650e+15	6.027909e+14	1.708711e+04	6.098082e+03	2.845420e+03	0	1.584268e-03
3.000000e+07	5.711380e+13	0.000000e+00	3.924050e-01	1.014657e+15	2.439257e+15	5.994640e+14	1.697842e+04	6.082736e+03	2.838259e+03	0	1.562581e-03
4.000000e+07	5.484419e+13	0.000000e+00	3.924050e-01	9.801087e+14	2.381657e+15	5.961620e+14	1.687349e+04	6.067752e+03	2.831268e+03	0	1.541603e-03
5.000000e+07	5.270489e+13	0.000000e+00	3.924050e-01	9.475193e+14	2.326674e+15	5.928845e+14	1.677209e+04	6.053120e+03	2.824440e+03	0	1.521292e-03
6.000000e+07	5.068576e+13	0.000000e+00	3.924050e-01	9.167364e+14	2.274145e+15	5.896316e+14	1.667402e+04	6.038829e+03	2.817772e+03	0	1.501611e-03
7.000000e+07	4.877762e+13	0.000000e+00	3.924050e-01	8.876230e+14	2.223916e+15	5.864028e+14	1.657911e+04	6.024869e+03	2.811258e+03	0	1.482526e-03
8.000000e+07	4.697218e+13	0.000000e+00	3.924050e-01	8.600550e+14	2.175849e+15	5.831980e+14	1.648718e+04	6.011227e+03	2.804892e+03	0	1.464005e-03
9.000000e+07	4.526191e+13	0.000000e+00	3.924050e-01	8.339199e+14	2.129814e+15	5.800171e+14	1.639807e+04	5.997895e+03	2.798672e+03	0	1.446016e-03
1.000000e+08	4.364000e+13	0.000000e+00	3.924050e-01	8.091153e+14	2.085690e+15	5.768598e+14	1.631164e+04	5.984862e+03	2.792590e+03	0	1.428534e-03
1.100000e+08	4.210022e+13	0.000000e+00	3.924050e-01	7.855484e+14	2.043366e+15	5.737260e+14	1.622776e+04	5.972119e+03	2.786644e+03	0	1.411531e-03
1.200000e+08	4.063691e+13	0.000000e+00	3.924050e-01	7.631341e+14	2.002739e+15	5.706153e+14	1.614630e+04	5.959655e+03	2.780829e+03	0	1.394984e-03
1.300000e+08	3.924489e+13	0.000000e+00	3.924050e-01	7.417949e+14	1.963713e+15	5.675277e+14	1.606714e+04	5.947463e+03	2.775140e+03	0	1.378870e-03
1.400000e+08	3.791942e+13	0.000000e+00	3.924050e-01	7.214598e+14	1.926197e+15	5.644629e+14	1.599017e+04	5.935532e+03	2.769573e+03	0	1.363168e-03
1.500000e+08	3.665617e+13	0.000000e+00	3.924050e-01	7.020637e+14	1.890110e+15	5.614208e+14	1.591529e+04	5.923856e+03	2.764124e+03	0	1.347859e-03
1.600000e+08	3.545113e+13	0.000000e+00	3.924050e-01	6.835467e+14	1.855373e+15	5.584012e+14	1.584241e+04	5.912424e+03	2.758790e+03	0	1.332925e-03
1.700000e+08	3.430065e+13	0.000000e+00	3.924050e-01	6.658540e+14	1.821915e+15	5.554039e+14	1.577144e+04	5.901230e+03	2.753567e+03	0	1.318347e-03
1.800000e+08	3.320135e+13	0.000000e+00	3.924050e-01	6.489349e+14	1.789668e+15	5.524286e+14	1.570228e+04	5.890266e+03	2.748451e+03	0	1.304110e-03
1.900000e+08	3.215013e+13	0.000000e+00	3.924050e-01	6.327426e+14	1.758569e+15	5.494753e+14	1.563487e+04	5.879524e+03	2.743438e+03	0	1.290198e-03
2.000000e+08	3.114409e+13	0.000000e+00	3.924050e-01	6.172340e+14	1.728560e+15	5.465437e+14	1.556912e+04	5.868997e+03	2.738527e+03	0	1.276598e-03
2.100000e+08	3.018059e+13	0.000000e+00	3.924050e-01	6.023691e+14	1.699585e+15	5.436336e+14	1.550497e+04	5.858679e+03	2.733712e+03	0	1.263295e-03
2.200000e+08	2.925717e+13	0.000000e+00	3.924050e-01	5.881109e+14	1.671593e+15	5.407449e+14	1.544236e+04	5.848563e+03	2.728992e+03	0	1.250277e-03
2.300000e+08	2.837154e+13	0.000000e+00	3.924050e-01	5.744253e+14	1.644535e+15	5.378775e+14	1.538121e+04	5.838642e+03	2.724363e+03	0	1.237532e-03
2.400000e+08	2.752158e+13	0.000000e+00	3.924050e-01	5.612802e+14	1.618367e+15	5.350310e+14	1.532148e+04	5.828911e+03	2.719822e+03	0	1.225049e-03
2.500000e+08	2.670533e+13	0.000000e+00	3.924050e-01	5.486462e+14	1.593045e+15	5.322054e+14	1.526310e+04	5.819364e+03	2.715367e+03	0	1.212816e-03
2.600000e+08	2.592095e+13	0.000000e+00	3.924050e-01	5.364956e+14	1.568531e+15	5.294005e+14	1.520603e+04	5.809995e+03	2.710996e+03	0	1.200824e-03
2.700000e+08	2.516674e+13	0.000000e+00	3.924050e-01	5.248028e+14	1.544786e+15	5.266160e+14	1.515021e+04	5.800799e+03	2.706705e+03	0	1.189062e-03
2.800000e+08	2.444110e+13	0.000000e+00	3.924050e-01	5.135438e+14	1.521775e+15	5.238520e+14	1.509560e+04	5.791770e+03	2.702492e+03	0	1.177522e-03
2.900000e+08	2.374256e+13	0.000000e+00	3.924050e-01	5.026963e+14	1.499464e+15	5.211081e+14	1.504215e+04	5.782904e+03	2.698355e+03	0	1.166196e-03
3.000000e+08	2.306971e+13	0.000000e+00	3.924050e-01	4.922394e+14	1.477824e+15	5.183842e+14	1.498983e+04	5.774196e+03	2.694292e+03	0	1.155074e-03
3.100000e+08	2.242128e+13	0.000000e+00	3.924050e-01	4.821535e+14	1.456823e+15	5.156801e+14	1.493858e+04	5.765641e+03	2.690300e+03	0	1.144148e-03
3.200000e+08	2.179603e+13	0.000000e+00	3.924050e-01	4.724202e+14	1.436434e+15	5.129957e+14	1.488838e+04	5.757234e+03	2.686377e+03	0	1.133413e-03
3.300000e+08	2.119284e+13	0.000000e+00	3.924050e-01	4.630226e+14	1.416632e+15	5.103308e+14	1.483918e+04	5.748972e+03	2.682522e+03	0	1.122859e-03
3.400000e+08	2.061063e+13	0.000000e+00	3.924050e-01	4.539444e+14	1.397390e+15	5.076853e+14	1.479096e+04	5.740850e+03	2.678732e+03	0	1.112481e-03
3.500000e+08	2.004840e+13	0.000000e+00	3.924050e-01	4.451705e+14	1.378685e+15	5.050590e+14	1.474367e+04	5.732864e+03	2.675006e+03	0	1.102272e-03
3.600000e+08	1.950522e+13	0.000000e+00	3.924050e-01	4.366866e+14	1.360496e+15	5.024517e+14	1.469729e+04	5.725011e+03	2.671342e+03	0	1.092226e-03
3.700000e+08	1.898018e+13	0.000000e+00	3.924050e-01	4.284795e+14	1.342801e+15	4.998633e+14	1.465179e+04	5.717287e+03	2.667737e+03	0	1.082337e-03
3.800000e+08	1.847247e+13	0.000000e+00	3.924050e-01	4.205366e+14	1.325580e+15	4.972936e+14	1.460714e+04	5.709687e+03	2.664191e+03	0	1.072599e-03
3.900000e+08	1.798129e+13	0.000000e+00	3.924050e-01	4.128459e+14	1.308814e+15	4.947425e+14	1.456332e+04	5.702210e+03	2.660702e+03	0	1.063006e-03
4.000000e+08	1.750590e+13	0.000000e+00	3.924050e-01	4.053963e+14	1.292486e+15	4.922098e+14	1.452029e+04	5.694851e+03	2.657268e+03	0	1.053555e-03
4.100000e+08	1.704561e+13	0.000000e+00	3.924050e-01	3.981773e+14	1.276578e+15	4.896954e+14	1.447803e+04	5.687607e+03	2.653888e+03	0	1.044239e-03
4.200000e+08	1.659976e+13	0.000000e+00	3.924050e-01	3.911788e+14	1.261074e+15	4.871992e+14	1.443652e+04	5.680475e+03	2.650561e+03	0	1.035054e-03
4.300000e+08	1.616772e+13	0.000000e+00	3.924050e-01	3.843914e+14	1.245958e+15	4.847209e+14	1.439573e+04	5.673452e+03	2.647284e+03	0	1.025995e-03
4.400000e+08	1.574890e+13	0.000000e+00	3.924050e-01	3.778064e+14	1.231217e+15	4.822604e+14	1.435565e+04	5.666536e+03	2.644057e+03	0	1.017058e-03
4.500000e+08	1.534276e+13	0.000000e+00	3.924050e-01	3.714151e+14	1.216836e+15	4.798176e+14	1.431625e+04	5.659723e+03	2.640878e+03	0	1.008239e-03
4.600000e+08	1.494876e+13	0.000000e+00	3.924050e-01	3.652097e+14	1.202802e+15	4.773923e+14	1.427751e+04	5.653011e+03	2.637746e+03	0	9.995333e-04
4.700000e+08	1.456639e+13	0.000000e+00	3.924050e-01	3.591826e+14	1.189102e+15	4.749845e+14	1.423942e+04	5.646398e+03	2.634660e+03	0	9.909375e-04
4.800000e+08	1.419520e+13	0.000000e+00	3.924050e-01	3.533266e+14	1.175725e+15	4.725938e+14	1.420195e+04	5.639880e+03	2.631618e+03	0	9.824477e-04
4.900000e+08	1.383473e+13	0.000000e+00	3.924050e-01	3.476349e+14	1.162659e+15	4.702203e+14	1.416509e+04	5.633455e+03	2.628621e+03	0	9.740603e-04
5.000000e+08	1.348455e+13	0.000000e+00	3.924050e-01	3.421010e+14	1.149893e+15	4.678638e+14	1.412882e+04	5.627121e+03	2.625665e+03	0	9.657716e-04
5.100000e+08	1.314426e+13	0.000000e+00	3.924050e-01	3.367189e+14	1.137416e+15	4.655241e+14	1.409312e+04	5.620877e+03	2.622751e+03	0	9.575784e-04
5.200000e+08	1.281348e+13	0.000000e+00	3.924050e-01	3.314827e+14	1.125219e+15	4.632011e+14	1.405798e+04	5.614718e+03	2.619878e+03	0	9.494773e-04
5.300000e+08	1.249183e+13	0.000000e+00	3.924050e-01	3.263868e+14	1.113292e+15	4.608947e+14	1.402339e+04	5.608644e+03	2.617044e+03	0	9.414653e-04
5.400000e+08	1.217898e+13	0.000000e+00	3.924050e-01	3.214259e+14	1.101626e+15	4.586047e+14	1.398932e+04	5.602653e+03	2.614248e+03	0	9.335392e-04
5.500000e+08	1.187459e+13	0.000000e+00	3.924050e-01	3.165952e+14	1.090212e+15	4.563310e+14	1.395577e+04	5.596742e+03	2.611490e+03	0	9.256961e-04
5.600000e+08	1.157834e+13	0.000000e+00	3.924050e-01	3.118897e+14	1.079043e+15	4.540735e+14	1.392273e+04	5.590909e+03	2.608768e+03	0	9.179331e-04
5.700000e+08	1.128994e+13	0.000000e+00	3.924050e-01	3.073049e+14	1.068109e+15	4.518320e+14	1.389017e+04	5.585154e+03	2.606083e+03	0	9.102475e-04
5.800000e+08	1.100910e+13	0.000000e+00	3.924050e-01	3.028364e+14	1.057404e+15	4.496064e+14	1.385808e+04	5.579472e+03	2.603432e+03	0	9.026365e-04
5.900000e+08	1.073555e+13	0.000000e+00	3.924050e-01	2.984802e+14	1.046921e+15	4.473965e+14	1.382646e+04	5.573865e+03	2.600815e+03	0	8.950975e-04
6.000000e+08	1.046902e+13	0.000000e+00	3.924050e-01	2.942322e+14	1.036651e+15	4.452023e+14	1.379530e+04	5.568328e+03	2.598232e+03	0	8.876279e-04
6.100000e+08	1.020927e+13	0.000000e+00	3.924050e-01	2.900887e+14	1.026590e+15	4.430237e+14	1.376457e+04	5.562861e+03	2.595681e+03	0	8.802253e-04
6.200000e+08	9.956065e+12	0.000000e+00	3.924050e-01	2.860460e+14	1.016729e+15	4.408604e+14	1.373428e+04	5.557463e+03	2.593162e+03	0	8.728873e-04
6.300000e+08	9.709172e+12	0.000000e+00	3.924050e-01	2.821008e+14	1.007063e+15	4.387124e+14	1.370440e+04	5.552131e+03	2.590674e+03	0	8.656114e-04
6.400000e+08	9.468375e+12	0.000000e+00	3.924050e-01	2.782497e+14	9.975864e+14	4.365796e+14	1.367494e+04	5.546864e+03	2.588217e+03	0	8.583955e-04
6.500000e+08	9.233469e+12	0.000000e+00	3.924050e-01	2.744895e+14	9.882931e+14	4.344617e+14	1.364587e+04	5.541661e+03	2.585789e+03	0	8.512371e-04
6.600000e+08	9.004254e+12	0.000000e+00	3.924050e-01	2.708173e+14	9.791777e+14	4.323588e+14	1.361720e+04	5.536521e+03	2.583390e+03	0	8.441342e-04
6.700000e+08	8.780541e+12	0.000000e+00	3.924050e-01	2.672301e+14	9.702350e+14	4.302707e+14	1.358891e+04	5.531441e+03	2.581020e+03	0	8.370846e-04
6.800000e+08	8.562147e+12	0.000000e+00	3.924050e-01	2.637251e+14	9.614600e+14	4.281972e+14	1.356099e+04	5.526421e+03	2.578678e+03	0	8.300861e-04
6.900000e+08	8.348900e+12	0.000000e+00	3.924050e-01	2.602998e+14	9.528478e+14	4.261383e+14	1.353344e+04	5.521460e+03	2.576363e+03	0	8.231368e-04
7.000000e+08	8.140631e+12	0.000000e+00	3.924050e-01	2.569515e+14	9.443938e+14	4.240938e+14	1.350624e+04	5.516555e+03	2.574074e+03	0	8.162345e-04
7.100000e+08	7.937181e+12	0.000000e+00	3.924050e-01	2.536779e+14	9.360935e+14	4.220636e+14	1.347939e+04	5.511707e+03	2.571812e+03	0	8.093773e-04
7.200000e+08	7.738396e+12	0.000000e+00	3.924050e-01	2.504766e+14	9.279426e+14	4.200476e+14	1.345288e+04	5.506913e+03	2.569575e+03	0	8.025632e-04
7.300000e+08	7.544129e+12	0.000000e+00	3.924050e-01	2.473452e+14	9.199369e+14	4.180457e+14	1.342671e+04	5.502173e+03	2.567363e+03	0	7.957903e-04
7.400000e+08	7.354239e+12	0.000000e+00	3.924050e-01	2.442818e+14	9.120725e+14	4.160578e+14	1.340086e+04	5.497485e+03	2.565176e+03	0	7.890566e-04
7.500000e+08	7.168590e+12	0.000000e+00	3.924050e-01	2.412841e+14	9.043454e+14	4.140838e+14	1.337532e+04	5.492848e+03	2.563012e+03	0	7.823603e-04
7.600000e+08	6.987051e+12	0.000000e+00	3.924050e-01	2.383503e+14	8.967520e+14	4.121234e+14	1.335011e+04	5.488262e+03	2.560872e+03	0	7.756996e-04
7.700000e+08	6.809497e+12	0.000000e+00	3.924050e-01	2.354783e+14	8.892888e+14	4.101768e+14	1.332519e+04	5.483726e+03	2.558756e+03	0	7.690725e-04
7.800000e+08	6.635809e+12	0.000000e+00	3.924050e-01	2.326664e+14	8.819521e+14	4.082436e+14	1.330058e+04	5.479237e+03	2.556661e+03	0	7.624772e-04
7.900000e+08	6.465869e+12	0.000000e+00	3.924050e-01	2.299127e+14	8.747388e+14	4.063239e+14	1.327625e+04	5.474797e+03	2.554589e+03	0	7.559120e-04
8.000000e+08	6.299567e+12	0.000000e+00	3.924050e-01	2.272157e+14	8.676455e+14	4.044175e+14	1.325222e+04	5.470402e+03	2.552539e+03	0	7.493749e-04
8.100000e+08	6.136796e+12	0.000000e+00	3.924050e-01	2.245736e+14	8.606693e+14	4.025243e+14	1.322847e+04	5.466053e+03	2.550509e+03	0	7.428643e-04
8.200000e+08	5.977452e+12	0.000000e+00	3.924050e-01	2.219848e+14	8.538071e+14	4.006442e+14	1.320499e+04	5.461749e+03	2.548501e+03	0	7.363783e-04
8.300000e+08	5.821436e+12	0.000000e+00	3.924050e-01	2.194478e+14	8.470560e+14	3.987771e+14	1.318178e+04	5.457488e+03	2.546513e+03	0	7.299150e-04
8.400000e+08	5.668653e+12	0.000000e+00	3.924050e-01	2.169613e+14	8.404132e+14	3.969230e+14	1.315883e+04	5.453271e+03	2.544545e+03	0	7.234728e-04
8.500000e+08	5.519010e+12	0.000000e+00	3.924050e-01	2.145237e+14	8.338760e+14	3.950816e+14	1.313614e+04	5.449095e+03	2.542597e+03	0	7.170498e-04
8.600000e+08	5.372419e+12	0.000000e+00	3.924050e-01	2.121336e+14	8.274418e+14	3.932528e+14	1.311371e+04	5.444961e+03	2.540668e+03	0	7.106442e-04
8.700000e+08	5.228794e+12	0.000000e+00	3.924050e-01	2.097899e+14	8.211081e+14	3.914367e+14	1.309153e+04	5.440868e+03	2.538758e+03	0	7.042542e-04
8.800000e+08	5.088052e+12	0.000000e+00	3.924050e-01	2.074912e+14	8.148724e+14	3.896331e+14	1.306959e+04	5.436814e+03	2.536866e+03	0	6.978779e-04
8.900000e+08	4.950115e+12	0.000000e+00	3.924050e-01	2.052362e+14	8.087325e+14	3.878419e+14	1.304789e+04	5.432799e+03	2.534993e+03	0	6.915135e-04
9.000000e+08	4.814904e+12	0.000000e+00	3.924050e-01	2.030239e+14	8.026859e+14	3.860629e+14	1.302642e+04	5.428823e+03	2.533137e+03	0	6.851592e-04
9.100000e+08	4.682346e+12	0.000000e+00	3.924050e-01	2.008531e+14	7.967305e+14	3.842962e+14	1.300519e+04	5.424884e+03	2.531299e+03	0	6.788129e-04
9.200000e+08	4.552370e+12	0.000000e+00	3.924050e-01	1.987226e+14	7.908641e+14	3.825415e+14	1.298418e+04	5.420982e+03	2.529479e+03	0	6.724729e-04
9.300000e+08	4.424906e+12	0.000000e+00	3.924050e-01	1.966315e+14	7.850847e+14	3.807989e+14	1.296339e+04	5.417116e+03	2.527675e+03	0	6.661371e-04
9.400000e+08	4.299887e+12	0.000000e+00	3.924050e-01	1.945786e+14	7.793903e+14	3.790682e+14	1.294282e+04	5.413287e+03	2.525888e+03	0	6.598035e-04
9.500000e+08	4.177250e+12	0.000000e+00	3.924050e-01	1.925630e+14	7.737788e+14	3.773492e+14	1.292247e+04	5.409492e+03	2.524117e+03	0	6.534701e-04
9.600000e+08	4.056931e+12	0.000000e+00	3.924050e-01	1.905838e+14	7.682485e+14	3.756420e+14	1.290232e+04	5.405731e+03	2.522363e+03	0	6.471349e-04
9.700000e+08	3.938871e+12	0.000000e+00	3.924050e-01	1.886400e+14	7.627975e+14	3.739465e+14	1.288239e+04	5.402004e+03	2.520624e+03	0	6.407956e-04
9.800000e+08	3.823011e+12	0.000000e+00	3.924050e-01	1.867307e+14	7.574240e+14	3.722624e+14	1.286265e+04	5.398311e+03	2.518900e+03	0	6.344501e-04
9.900000e+08	3.709295e+12	0.000000e+00	3.924050e-01	1.848550e+14	7.521263e+14	3.705898e+14	1.284311e+04	5.394650e+03	2.517192e+03	0	6.280960e-04
1.000000e+09	3.597669e+12	0.000000e+00	3.924050e-01	1.830122e+14	7.469027e+14	3.689286e+14	1.282377e+04	5.391021e+03	2.515499e+03	0	6.217312e-04
1.010000e+09	3.488079e+12	0.000000e+00	3.924050e-01	1.812014e+14	7.417516e+14	3.672786e+14	1.280463e+04	5.387424e+03	2.513820e+03	0	6.153531e-04
1.020000e+09	3.380475e+12	0.000000e+00	3.924050e-01	1.794217e+14	7.366715e+14	3.656398e+14	1.278567e+04	5.383857e+03	2.512156e+03	0	6.089592e-04
1.030000e+09	3.274808e+12	0.000000e+00	3.924050e-01	1.776725e+14	7.316608e+14	3.640121e+14	1.276689e+04	5.380321e+03	2.510506e+03	0	6.025469e-04
1.040000e+09	3.171029e+12	0.000000e+00	3.924050e-01	1.759530e+14	7.267180e+14	3.623954e+14	1.274830e+04	5.376815e+03	2.508870e+03	0	5.961135e-04
1.050000e+09	3.069092e+12	0.000000e+00	3.924050e-01	1.742626e+14	7.218418e+14	3.607897e+14	1.272989e+04	5.373339e+03	2.507248e+03	0	5.896562e-04
1.060000e+09	2.968953e+12	0.000000e+00	3.924050e-01	1.726004e+14	7.170306e+14	3.591947e+14	1.271165e+04	5.369891e+03	2.505640e+03	0	5.831720e-04
1.070000e+09	2.870567e+12	0.000000e+00	3.924050e-01	1.709658e+14	7.122832e+14	3.576105e+14	1.269359e+04	5.366472e+03	2.504044e+03	0	5.766578e-04
1.080000e+09	2.773893e+12	0.000000e+00	3.924050e-01	1.693583e+14	7.075982e+14	3.560369e+14	1.267569e+04	5.363081e+03	2.502462e+03	0	5.701102e-04
1.090000e+09	2.678890e+12	0.000000e+00	3.924050e-01	1.677771e+14	7.029744e+14	3.544740e+14	1.265797e+04	5.359718e+03	2.500893e+03	0	5.635259e-04
1.100000e+09	2.585518e+12	0.000000e+00	3.924050e-01	1.662216e+14	6.984104e+14	3.529215e+14	1.264041e+04	5.356382e+03	2.499336e+03	0	5.569012e-04
1.110000e+09	2.493739e+12	0.000000e+00	3.924050e-01	1.646912e+14	6.939052e+14	3.513794e+14	1.262301e+04	5.353072e+03	2.497792e+03	0	5.502321e-04
1.120000e+09	2.403516e+12	0.000000e+00	3.924050e-01	1.631855e+14	6.894574e+14	3.498477e+14	1.260577e+04	5.349789e+03	2.496260e+03	0	5.435147e-04
1.130000e+09	2.314812e+12	0.000000e+00	3.924050e-01	1.617037e+14	6.850660e+14	3.483262e+14	1.258869e+04	5.346532e+03	2.494740e+03	0	5.367444e-04
1.140000e+09	2.227593e+12	0.000000e+00	3.924050e-01	1.602454e+14	6.807299e+14	3.468149e+14	1.257177e+04	5.343300e+03	2.493232e+03	0	5.299166e-04
1.150000e+09	2.141824e+12	0.000000e+00	3.924050e-01	1.588101e+14	6.764479e+14	3.453137e+14	1.255499e+04	5.340093e+03	2.491735e+03	0	5.230263e-04
1.160000e+09	2.057472e+12	0.000000e+00	3.924050e-01	1.573972e+14	6.722191e+14	3.438225e+14	1.253837e+04	5.336911e+03	2.490250e+03	0	5.160680e-04
1.170000e+09	1.974505e+12	0.000000e+00	3.924050e-01	1.560062e+14	6.680423e+14	3.423412e+14	1.252189e+04	5.333753e+03	2.488777e+03	0	5.090358e-04
1.180000e+09	1.892893e+12	0.000000e+00	3.924050e-01	1.546366e+14	6.639166e+14	3.408698e+14	1.250556e+04	5.330619e+03	2.487315e+03	0	5.019236e-04
1.190000e+09	1.812604e+12	0.000000e+00	3.924050e-01	1.532881e+14	6.598410e+14	3.394082e+14	1.248937e+04	5.327509e+03	2.485863e+03	0	4.947243e-04
1.200000e+09	1.733610e+12	0.000000e+00	3.924050e-01	1.519600e+14	6.558146e+14	3.379562e+14	1.247332e+04	5.324422e+03	2.484423e+03	0	4.874306e-04
1.210000e+09	1.655882e+12	0.000000e+00	3.924050e-01	1.506521e+14	6.518364e+14	3.365139e+14	1.245742e+04	5.321357e+03	2.482993e+03	0	4.800341e-04
1.220000e+09	1.579392e+12	0.000000e+00	3.924050e-01	1.493638e+14	6.479056e+14	3.350812e+14	1.244164e+04	5.318316e+03	2.481574e+03	0	4.725258e-04
1.230000e+09	1.504113e+12	0.000000e+00	3.924050e-01	1.480947e+14	6.440212e+14	3.336579e+14	1.242600e+04	5.315296e+03	2.480165e+03	0	4.648959e-04
1.240000e+09	1.430019e+12	0.000000e+00	3.924050e-01	1.468444e+14	6.401824e+14	3.322441e+14	1.241050e+04	5.312299e+03	2.478766e+03	0	4.571333e-04
1.250000e+09	1.357084e+12	0.000000e+00	3.924050e-01	1.456126e+14	6.363884e+14	3.308395e+14	1.239512e+04	5.309323e+03	2.477378e+03	0	4.492256e-04
1.260000e+09	1.285284e+12	0.000000e+00	3.924050e-01	1.443988e+14	6.326384e+14	3.294443e+14	1.237988e+04	5.306368e+03	2.475999e+03	0	4.411591e-04
1.270000e+09	1.214594e+12	0.000000e+00	3.924050e-01	1.432027e+14	6.289315e+14	3.280582e+14	1.236476e+04	5.303434e+03	2.474630e+03	0	4.329183e-04
1.280000e+09	1.144991e+12	0.000000e+00	3.924050e-01	1.420239e+14	6.252670e+14	3.266812e+14	1.234976e+04	5.300521e+03	2.473271e+03	0	4.244856e-04
1.290000e+09	1.076452e+12	0.000000e+00	3.924050e-01	1.408620e+14	6.216441e+14	3.253133e+14	1.233489e+04	5.297629e+03	2.471921e+03	0	4.158409e-04
1.300000e+09	1.008956e+12	0.000000e+00	3.924050e-01	1.397167e+14	6.180621e+14	3.239544e+14	1.232014e+04	5.294756e+03	2.470581e+03	0	4.069612e-04
1.310000e+09	9.424792e+11	0.000000e+00	3.924050e-01	1.385877e+14	6.145203e+14	3.226044e+14	1.230551e+04	5.291903e+03	2.469249e+03	0	3.978196e-04
1.320000e+09	8.770020e+11	0.000000e+00	3.924050e-01	1.374747e+14	6.110180e+14	3.212632e+14	1.229099e+04	5.289070e+03	2.467927e+03	0	3.883850e-04
1.330000e+09	8.125034e+11	0.000000e+00	3.924050e-01	1.363772e+14	6.075546e+14	3.199308e+14	1.227660e+04	5.286256e+03	2.466614e+03	0	3.786204e-04
1.340000e+09	7.489635e+11	0.000000e+00	3.924050e-01	1.352951e+14	6.041292e+14	3.186071e+14	1.226232e+04	5.283461e+03	2.465310e+03	0	3.684816e-04
1.350000e+09	6.863630e+11	0.000000e+00	3.924050e-01	1.342279e+14	6.007413e+14	3.172920e+14	1.224815e+04	5.280685e+03	2.464015e+03	0	3.579153e-04
1.360000e+09	6.246827e+11	0.000000e+00	3.924050e-01	1.331755e+14	5.973903e+14	3.159855e+14	1.223409e+04	5.277927e+03	2.462728e+03	0	3.468556e-04
