#t		Qconv[W]	Ri[Rp]		R*[Rp]		Qc[W]		Qm[W]		Qr[W]		Tcmb[K]		Tl[K]		Tup[K]		RiFlag		Bs[T]
0.000000e+00	6.958484e+13	0.000000e+00	3.924051e-01	1.194555e+15	2.592164e+15	6.346820e+14	1.784366e+04	6.251345e+03	2.882956e+03	0	1.667009e-03
1.000000e+07	6.671646e+13	0.000000e+00	3.924051e-01	1.152148e+15	2.534752e+15	6.311654e+14	1.772606e+04	6.237971e+03	2.876788e+03	0	1.643782e-03
2.000000e+07	6.401831e+13	0.000000e+00	3.924051e-01	1.112227e+15	2.479626e+15	6.276751e+14	1.761259e+04	6.224793e+03	2.870711e+03	0	1.621317e-03
3.000000e+07	6.147675e+13	0.000000e+00	3.924051e-01	1.074592e+15	2.426672e+15	6.242108e+14	1.750300e+04	6.211814e+03	2.864725e+03	0	1.599571e-03
4.000000e+07	5.907950e+13	0.000000e+00	3.924051e-01	1.039066e+15	2.375785e+15	6.207725e+14	1.739708e+04	6.199039e+03	2.858833e+03	0	1.578503e-03
5.000000e+07	5.681547e+13	0.000000e+00	3.924051e-01	1.005488e+15	2.326862e+15	6.173598e+14	1.729462e+04	6.186467e+03	2.853036e+03	0	1.558076e-03
6.000000e+07	5.467466e+13	0.000000e+00	3.924051e-01	9.737115e+14	2.279806e+15	6.139725e+14	1.719544e+04	6.174101e+03	2.847333e+03	0	1.538255e-03
7.000000e+07	5.264796e+13	0.000000e+00	3.924051e-01	9.436048e+14	2.234525e+15	6.106105e+14	1.709936e+04	6.161939e+03	2.841724e+03	0	1.519009e-03
8.000000e+07	5.072715e+13	0.000000e+00	3.924051e-01	9.150480e+14	2.190931e+15	6.072734e+14	1.700621e+04	6.149980e+03	2.836209e+03	0	1.500306e-03
9.000000e+07	4.890471e+13	0.000000e+00	3.924051e-01	8.879318e+14	2.148942e+15	6.039612e+14	1.691586e+04	6.138223e+03	2.830787e+03	0	1.482120e-03
1.000000e+08	4.717381e+13	0.000000e+00	3.924051e-01	8.621567e+14	2.108478e+15	6.006735e+14	1.682816e+04	6.126665e+03	2.825456e+03	0	1.464424e-03
1.100000e+08	4.552820e+13	0.000000e+00	3.924051e-01	8.376318e+14	2.069465e+15	5.974103e+14	1.674298e+04	6.115304e+03	2.820217e+03	0	1.447194e-03
1.200000e+08	4.396218e+13	0.000000e+00	3.924051e-01	8.142740e+14	2.031834e+15	5.941712e+14	1.666020e+04	6.104137e+03	2.815067e+03	0	1.430407e-03
1.300000e+08	4.247051e+13	0.000000e+00	3.924051e-01	7.920070e+14	1.995517e+15	5.909562e+14	1.657970e+04	6.093160e+03	2.810005e+03	0	1.414042e-03
1.400000e+08	4.104839e+13	0.000000e+00	3.924051e-01	7.707608e+14	1.960452e+15	5.877649e+14	1.650139e+04	6.082372e+03	2.805030e+03	0	1.398079e-03
1.500000e+08	3.969140e+13	0.000000e+00	3.924051e-01	7.504711e+14	1.926580e+15	5.845972e+14	1.642516e+04	6.071767e+03	2.800139e+03	0	1.382500e-03
1.600000e+08	3.839550e+13	0.000000e+00	3.924051e-01	7.310786e+14	1.893845e+15	5.814529e+14	1.635091e+04	6.061344e+03	2.795332e+03	0	1.367288e-03
1.700000e+08	3.715692e+13	0.000000e+00	3.924051e-01	7.125288e+14	1.862193e+15	5.783318e+14	1.627857e+04	6.051097e+03	2.790606e+03	0	1.352424e-03
1.800000e+08	3.597221e+13	0.000000e+00	3.924051e-01	6.947711e+14	1.831576e+15	5.752338e+14	1.620805e+04	6.041023e+03	2.785961e+03	0	1.337895e-03
1.900000e+08	3.483819e+13	0.000000e+00	3.924051e-01	6.777590e+14	1.801945e+15	5.721585e+14	1.613927e+04	6.031119e+03	2.781393e+03	0	1.323686e-03
2.000000e+08	3.375189e+13	0.000000e+00	3.924051e-01	6.614493e+14	1.773256e+15	5.691059e+14	1.607216e+04	6.021380e+03	2.776902e+03	0	1.309782e-03
2.100000e+08	3.271057e+13	0.000000e+00	3.924051e-01	6.458019e+14	1.745467e+15	5.660757e+14	1.600665e+04	6.011804e+03	2.772486e+03	0	1.296171e-03
2.200000e+08	3.171169e+13	0.000000e+00	3.924051e-01	6.307797e+14	1.718538e+15	5.630678e+14	1.594268e+04	6.002387e+03	2.768143e+03	0	1.282841e-03
2.300000e+08	3.075289e+13	0.000000e+00	3.924051e-01	6.163482e+14	1.692432e+15	5.600819e+14	1.588019e+04	5.993124e+03	2.763871e+03	0	1.269780e-03
2.400000e+08	2.983197e+13	0.000000e+00	3.924051e-01	6.024753e+14	1.667112e+15	5.571180e+14	1.581912e+04	5.984013e+03	2.759669e+03	0	1.256976e-03
2.500000e+08	2.894689e+13	0.000000e+00	3.924051e-01	5.891311e+14	1.642545e+15	5.541757e+14	1.575940e+04	5.975050e+03	2.755536e+03	0	1.244420e-03
2.600000e+08	2.809575e+13	0.000000e+00	3.924051e-01	5.762876e+14	1.618699e+15	5.512550e+14	1.570101e+04	5.966230e+03	2.751468e+03	0	1.232102e-03
2.700000e+08	2.727675e+13	0.000000e+00	3.924051e-01	5.639189e+14	1.595544e+15	5.483556e+14	1.564387e+04	5.957552e+03	2.747466e+03	0	1.220012e-03
2.800000e+08	2.648825e+13	0.000000e+00	3.924051e-01	5.520006e+14	1.573050e+15	5.454774e+14	1.558795e+04	5.949012e+03	2.743528e+03	0	1.208141e-03
2.900000e+08	2.572868e+13	0.000000e+00	3.924051e-01	5.405100e+14	1.551191e+15	5.426202e+14	1.553321e+04	5.940606e+03	2.739651e+03	0	1.196481e-03
3.000000e+08	2.499661e+13	0.000000e+00	3.924051e-01	5.294258e+14	1.529940e+15	5.397839e+14	1.547960e+04	5.932331e+03	2.735835e+03	0	1.185023e-03
3.100000e+08	2.429065e+13	0.000000e+00	3.924051e-01	5.187281e+14	1.509274e+15	5.369682e+14	1.542708e+04	5.924184e+03	2.732078e+03	0	1.173761e-03
3.200000e+08	2.360955e+13	0.000000e+00	3.924051e-01	5.083982e+14	1.489168e+15	5.341730e+14	1.537561e+04	5.916162e+03	2.728378e+03	0	1.162686e-03
3.300000e+08	2.295210e+13	0.000000e+00	3.924051e-01	4.984184e+14	1.469602e+15	5.313981e+14	1.532516e+04	5.908262e+03	2.724735e+03	0	1.151792e-03
3.400000e+08	2.231717e+13	0.000000e+00	3.924051e-01	4.887724e+14	1.450552e+15	5.286434e+14	1.527570e+04	5.900481e+03	2.721147e+03	0	1.141071e-03
3.500000e+08	2.170371e+13	0.000000e+00	3.924051e-01	4.794445e+14	1.432001e+15	5.259086e+14	1.522718e+04	5.892817e+03	2.717612e+03	0	1.130519e-03
3.600000e+08	2.111073e+13	0.000000e+00	3.924051e-01	4.704202e+14	1.413928e+15	5.231937e+14	1.517959e+04	5.885266e+03	2.714130e+03	0	1.120128e-03
3.700000e+08	2.053728e+13	0.000000e+00	3.924051e-01	4.616858e+14	1.396316e+15	5.204985e+14	1.513288e+04	5.877826e+03	2.710699e+03	0	1.109892e-03
3.800000e+08	1.998250e+13	0.000000e+00	3.924051e-01	4.532282e+14	1.379147e+15	5.178227e+14	1.508704e+04	5.870494e+03	2.707317e+03	0	1.099807e-03
3.900000e+08	1.944553e+13	0.000000e+00	3.924051e-01	4.450353e+14	1.362404e+15	5.151663e+14	1.504203e+04	5.863268e+03	2.703985e+03	0	1.089866e-03
4.000000e+08	1.892561e+13	0.000000e+00	3.924051e-01	4.370956e+14	1.346073e+15	5.125291e+14	1.499783e+04	5.856145e+03	2.700700e+03	0	1.080065e-03
4.100000e+08	1.842198e+13	0.000000e+00	3.924051e-01	4.293980e+14	1.330139e+15	5.099109e+14	1.495442e+04	5.849123e+03	2.697462e+03	0	1.070398e-03
4.200000e+08	1.793395e+13	0.000000e+00	3.924051e-01	4.219324e+14	1.314586e+15	5.073115e+14	1.491176e+04	5.842200e+03	2.694269e+03	0	1.060861e-03
4.300000e+08	1.746085e+13	0.000000e+00	3.924051e-01	4.146890e+14	1.299402e+15	5.047309e+14	1.486984e+04	5.835372e+03	2.691120e+03	0	1.051449e-03
4.400000e+08	1.700206e+13	0.000000e+00	3.924051e-01	4.076585e+14	1.284574e+15	5.021689e+14	1.482864e+04	5.828639e+03	2.688015e+03	0	1.042158e-03
4.500000e+08	1.655699e+13	0.000000e+00	3.924051e-01	4.008322e+14	1.270089e+15	4.996252e+14	1.478813e+04	5.821998e+03	2.684952e+03	0	1.032984e-03
4.600000e+08	1.612506e+13	0.000000e+00	3.924051e-01	3.942018e+14	1.255935e+15	4.970999e+14	1.474830e+04	5.815446e+03	2.681931e+03	0	1.023922e-03
4.700000e+08	1.570576e+13	0.000000e+00	3.924051e-01	3.877596e+14	1.242101e+15	4.945926e+14	1.470912e+04	5.808982e+03	2.678950e+03	0	1.014969e-03
4.800000e+08	1.529856e+13	0.000000e+00	3.924051e-01	3.814979e+14	1.228576e+15	4.921033e+14	1.467058e+04	5.802604e+03	2.676008e+03	0	1.006120e-03
4.900000e+08	1.490300e+13	0.000000e+00	3.924051e-01	3.754098e+14	1.215351e+15	4.896318e+14	1.463265e+04	5.796309e+03	2.673105e+03	0	9.973732e-04
5.000000e+08	1.451862e+13	0.000000e+00	3.924051e-01	3.694885e+14	1.202414e+15	4.871780e+14	1.459533e+04	5.790097e+03	2.670240e+03	0	9.887235e-04
5.100000e+08	1.414498e+13	0.000000e+00	3.924051e-01	3.637276e+14	1.189757e+15	4.847417e+14	1.455860e+04	5.783965e+03	2.667412e+03	0	9.801680e-04
5.200000e+08	1.378167e+13	0.000000e+00	3.924051e-01	3.581211e+14	1.177371e+15	4.823228e+14	1.452243e+04	5.777911e+03	2.664620e+03	0	9.717033e-04
5.300000e+08	1.342829e+13	0.000000e+00	3.924051e-01	3.526632e+14	1.165246e+15	4.799212e+14	1.448682e+04	5.771933e+03	2.661864e+03	0	9.633262e-04
5.400000e+08	1.308449e+13	0.000000e+00	3.924051e-01	3.473482e+14	1.153375e+15	4.775367e+14	1.445174e+04	5.766031e+03	2.659142e+03	0	9.550336e-04
5.500000e+08	1.274989e+13	0.000000e+00	3.924051e-01	3.421711e+14	1.141749e+15	4.751691e+14	1.441720e+04	5.760202e+03	2.656454e+03	0	9.468225e-04
5.600000e+08	1.242416e+13	0.000000e+00	3.924051e-01	3.371268e+14	1.130361e+15	4.728184e+14	1.438316e+04	5.754445e+03	2.653799e+03	0	9.386899e-04
5.700000e+08	1.210698e+13	0.000000e+00	3.924051e-01	3.322105e+14	1.119204e+15	4.704843e+14	1.434963e+04	5.748758e+03	2.651176e+03	0	9.306330e-04
5.800000e+08	1.179805e+13	0.000000e+00	3.924051e-01	3.274177e+14	1.108270e+15	4.681668e+14	1.431658e+04	5.743140e+03	2.648585e+03	0	9.226489e-04
5.900000e+08	1.149705e+13	0.000000e+00	3.924051e-01	3.227440e+14	1.097553e+15	4.658658e+14	1.428401e+04	5.737589e+03	2.646025e+03	0	9.147350e-04
6.000000e+08	1.120373e+13	0.000000e+00	3.924051e-01	3.181852e+14	1.087046e+15	4.635810e+14	1.425190e+04	5.732104e+03	2.643495e+03	0	9.068886e-04
6.100000e+08	1.091780e+13	0.000000e+00	3.924051e-01	3.137375e+14	1.076743e+15	4.613124e+14	1.422024e+04	5.726683e+03	2.640995e+03	0	8.991071e-04
6.200000e+08	1.063901e+13	0.000000e+00	3.924051e-01	3.093969e+14	1.066638e+15	4.590599e+14	1.418902e+04	5.721325e+03	2.638525e+03	0	8.913880e-04
6.300000e+08	1.036711e+13	0.000000e+00	3.924051e-01	3.051600e+14	1.056725e+15	4.568232e+14	1.415823e+04	5.716030e+03	2.636082e+03	0	8.837289e-04
6.400000e+08	1.010188e+13	0.000000e+00	3.924051e-01	3.010231e+14	1.046999e+15	4.546023e+14	1.412786e+04	5.710795e+03	2.633668e+03	0	8.761273e-04
6.500000e+08	9.843091e+12	0.000000e+00	3.924051e-01	2.969831e+14	1.037454e+15	4.523970e+14	1.409790e+04	5.705619e+03	2.631281e+03	0	8.685809e-04
6.600000e+08	9.590522e+12	0.000000e+00	3.924051e-01	2.930367e+14	1.028085e+15	4.502073e+14	1.406834e+04	5.700501e+03	2.628921e+03	0	8.610873e-04
6.700000e+08	9.343970e+12	0.000000e+00	3.924051e-01	2.891808e+14	1.018887e+15	4.480330e+14	1.403917e+04	5.695441e+03	2.626587e+03	0	8.536442e-04
6.800000e+08	9.103239e+12	0.000000e+00	3.924051e-01	2.854125e+14	1.009856e+15	4.458739e+14	1.401038e+04	5.690436e+03	2.624279e+03	0	8.462495e-04
6.900000e+08	8.868140e+12	0.000000e+00	3.924051e-01	2.817291e+14	1.000986e+15	4.437300e+14	1.398197e+04	5.685486e+03	2.621996e+03	0	8.389008e-04
7.000000e+08	8.638492e+12	0.000000e+00	3.924051e-01	2.781279e+14	9.922736e+14	4.416011e+14	1.395392e+04	5.680589e+03	2.619738e+03	0	8.315961e-04
7.100000e+08	8.414122e+12	0.000000e+00	3.924051e-01	2.746063e+14	9.837144e+14	4.394871e+14	1.392623e+04	5.675745e+03	2.617504e+03	0	8.243330e-04
7.200000e+08	8.194863e+12	0.000000e+00	3.924051e-01	2.711617e+14	9.753042e+14	4.373879e+14	1.389889e+04	5.670953e+03	2.615294e+03	0	8.171096e-04
7.300000e+08	7.980555e+12	0.000000e+00	3.924051e-01	2.677919e+14	9.670390e+14	4.353033e+14	1.387189e+04	5.666211e+03	2.613107e+03	0	8.099238e-04
7.400000e+08	7.771045e+12	0.000000e+00	3.924051e-01	2.644945e+14	9.589149e+14	4.332334e+14	1.384522e+04	5.661518e+03	2.610943e+03	0	8.027733e-04
7.500000e+08	7.566185e+12	0.000000e+00	3.924051e-01	2.612674e+14	9.509283e+14	4.311778e+14	1.381888e+04	5.656875e+03	2.608802e+03	0	7.956562e-04
7.600000e+08	7.365834e+12	0.000000e+00	3.924051e-01	2.581084e+14	9.430756e+14	4.291366e+14	1.379286e+04	5.652279e+03	2.606682e+03	0	7.885703e-04
7.700000e+08	7.169855e+12	0.000000e+00	3.924051e-01	2.550156e+14	9.353534e+14	4.271095e+14	1.376716e+04	5.647730e+03	2.604584e+03	0	7.815136e-04
7.800000e+08	6.978117e+12	0.000000e+00	3.924051e-01	2.519869e+14	9.277583e+14	4.250966e+14	1.374176e+04	5.643226e+03	2.602507e+03	0	7.744841e-04
7.900000e+08	6.790495e+12	0.000000e+00	3.924051e-01	2.490206e+14	9.202870e+14	4.230976e+14	1.371666e+04	5.638768e+03	2.600451e+03	0	7.674797e-04
8.000000e+08	6.606867e+12	0.000000e+00	3.924051e-01	2.461147e+14	9.129366e+14	4.211125e+14	1.369185e+04	5.634354e+03	2.598416e+03	0	7.604984e-04
8.100000e+08	6.427117e+12	0.000000e+00	3.924051e-01	2.432676e+14	9.057040e+14	4.191412e+14	1.366734e+04	5.629984e+03	2.596400e+03	0	7.535380e-04
8.200000e+08	6.251131e+12	0.000000e+00	3.924051e-01	2.404776e+14	8.985863e+14	4.171835e+14	1.364310e+04	5.625656e+03	2.594404e+03	0	7.465965e-04
8.300000e+08	6.078803e+12	0.000000e+00	3.924051e-01	2.377430e+14	8.915806e+14	4.152393e+14	1.361915e+04	5.621370e+03	2.592428e+03	0	7.396719e-04
8.400000e+08	5.910027e+12	0.000000e+00	3.924051e-01	2.350624e+14	8.846843e+14	4.133086e+14	1.359546e+04	5.617125e+03	2.590470e+03	0	7.327620e-04
8.500000e+08	5.744703e+12	0.000000e+00	3.924051e-01	2.324341e+14	8.778947e+14	4.113912e+14	1.357204e+04	5.612920e+03	2.588531e+03	0	7.258646e-04
8.600000e+08	5.582734e+12	0.000000e+00	3.924051e-01	2.298568e+14	8.712093e+14	4.094870e+14	1.354888e+04	5.608755e+03	2.586610e+03	0	7.189777e-04
8.700000e+08	5.424028e+12	0.000000e+00	3.924051e-01	2.273292e+14	8.646256e+14	4.075959e+14	1.352598e+04	5.604629e+03	2.584707e+03	0	7.120990e-04
8.800000e+08	5.268493e+12	0.000000e+00	3.924051e-01	2.248497e+14	8.581413e+14	4.057178e+14	1.350333e+04	5.600541e+03	2.582822e+03	0	7.052264e-04
8.900000e+08	5.116043e+12	0.000000e+00	3.924051e-01	2.224172e+14	8.517539e+14	4.038526e+14	1.348092e+04	5.596491e+03	2.580954e+03	0	6.983575e-04
9.000000e+08	4.966594e+12	0.000000e+00	3.924051e-01	2.200303e+14	8.454613e+14	4.020002e+14	1.345876e+04	5.592478e+03	2.579103e+03	0	6.914901e-04
9.100000e+08	4.820065e+12	0.000000e+00	3.924051e-01	2.176879e+14	8.392613e+14	4.001606e+14	1.343683e+04	5.588501e+03	2.577269e+03	0	6.846218e-04
9.200000e+08	4.676377e+12	0.000000e+00	3.924051e-01	2.153888e+14	8.331517e+14	3.983335e+14	1.341513e+04	5.584559e+03	2.575452e+03	0	6.777501e-04
9.300000e+08	4.535456e+12	0.000000e+00	3.924051e-01	2.131319e+14	8.271307e+14	3.965189e+14	1.339367e+04	5.580653e+03	2.573650e+03	0	6.708727e-04
9.400000e+08	4.397228e+12	0.000000e+00	3.924051e-01	2.109160e+14	8.211960e+14	3.947167e+14	1.337242e+04	5.576781e+03	2.571865e+03	0	6.639868e-04
9.500000e+08	4.261623e+12	0.000000e+00	3.924051e-01	2.087402e+14	8.153460e+14	3.929268e+14	1.335140e+04	5.572943e+03	2.570095e+03	0	6.570899e-04
9.600000e+08	4.128572e+12	0.000000e+00	3.924051e-01	2.066033e+14	8.095786e+14	3.911491e+14	1.333059e+04	5.569139e+03	2.568340e+03	0	6.501792e-04
9.700000e+08	3.998010e+12	0.000000e+00	3.924051e-01	2.045045e+14	8.038920e+14	3.893836e+14	1.331000e+04	5.565367e+03	2.566601e+03	0	6.432519e-04
9.800000e+08	3.869872e+12	0.000000e+00	3.924051e-01	2.024427e+14	7.982846e+14	3.876300e+14	1.328961e+04	5.561627e+03	2.564876e+03	0	6.363050e-04
9.900000e+08	3.744098e+12	0.000000e+00	3.924051e-01	2.004171e+14	7.927546e+14	3.858884e+14	1.326943e+04	5.557919e+03	2.563166e+03	0	6.293354e-04
1.000000e+09	3.620627e+12	0.000000e+00	3.924051e-01	1.984267e+14	7.873004e+14	3.841586e+14	1.324945e+04	5.554242e+03	2.561470e+03	0	6.223400e-04
1.010000e+09	3.499402e+12	0.000000e+00	3.924051e-01	1.964706e+14	7.819203e+14	3.824405e+14	1.322967e+04	5.550596e+03	2.559789e+03	0	6.153153e-04
1.020000e+09	3.380366e+12	0.000000e+00	3.924051e-01	1.945481e+14	7.766128e+14	3.807341e+14	1.321008e+04	5.546980e+03	2.558121e+03	0	6.082578e-04
1.030000e+09	3.263466e+12	0.000000e+00	3.924051e-01	1.926583e+14	7.713764e+14	3.790392e+14	1.319069e+04	5.543394e+03	2.556468e+03	0	6.011638e-04
1.040000e+09	3.148649e+12	0.000000e+00	3.924051e-01	1.908005e+14	7.662096e+14	3.773557e+14	1.317148e+04	5.539837e+03	2.554827e+03	0	5.940293e-04
1.050000e+09	3.035864e+12	0.000000e+00	3.924051e-01	1.889738e+14	7.611109e+14	3.756836e+14	1.315245e+04	5.536309e+03	2.553200e+03	0	5.868501e-04
1.060000e+09	2.925063e+12	0.000000e+00	3.924051e-01	1.871775e+14	7.560790e+14	3.740228e+14	1.313361e+04	5.532809e+03	2.551586e+03	0	5.796220e-04
1.070000e+09	2.816196e+12	0.000000e+00	3.924051e-01	1.854109e+14	7.511125e+14	3.723732e+14	1.311495e+04	5.529337e+03	2.549985e+03	0	5.723400e-04
1.080000e+09	2.709219e+12	0.000000e+00	3.924051e-01	1.836734e+14	7.462102e+14	3.707347e+14	1.309646e+04	5.525893e+03	2.548396e+03	0	5.649992e-04
1.090000e+09	2.604087e+12	0.000000e+00	3.924051e-01	1.819642e+14	7.413706e+14	3.691072e+14	1.307814e+04	5.522475e+03	2.546820e+03	0	5.575942e-04
1.100000e+09	2.500755e+12	0.000000e+00	3.924051e-01	1.802827e+14	7.365927e+14	3.674907e+14	1.306000e+04	5.519084e+03	2.545256e+03	0	5.501192e-04
1.110000e+09	2.399181e+12	0.000000e+00	3.924051e-01	1.786282e+14	7.318751e+14	3.658850e+14	1.304202e+04	5.515720e+03	2.543705e+03	0	5.425679e-04
1.120000e+09	2.299326e+12	0.000000e+00	3.924051e-01	1.770002e+14	7.272166e+14	3.642900e+14	1.302420e+04	5.512381e+03	2.542165e+03	0	5.349337e-04
1.130000e+09	2.201148e+12	0.000000e+00	3.924051e-01	1.753980e+14	7.226162e+14	3.627057e+14	1.300655e+04	5.509067e+03	2.540637e+03	0	5.272091e-04
1.140000e+09	2.104610e+12	0.000000e+00	3.924051e-01	1.738210e+14	7.180727e+14	3.611320e+14	1.298906e+04	5.505779e+03	2.539120e+03	0	5.193861e-04
1.150000e+09	2.009674e+12	0.000000e+00	3.924051e-01	1.722688e+14	7.135850e+14	3.595688e+14	1.297172e+04	5.502515e+03	2.537615e+03	0	5.114561e-04
1.160000e+09	1.916304e+12	0.000000e+00	3.924051e-01	1.707407e+14	7.091521e+14	3.580160e+14	1.295454e+04	5.499275e+03	2.536121e+03	0	5.034093e-04
1.170000e+09	1.824464e+12	0.000000e+00	3.924051e-01	1.692362e+14	7.047729e+14	3.564736e+14	1.293751e+04	5.496060e+03	2.534638e+03	0	4.952353e-04
1.180000e+09	1.734121e+12	0.000000e+00	3.924051e-01	1.677548e+14	7.004465e+14	3.549415e+14	1.292063e+04	5.492868e+03	2.533166e+03	0	4.869222e-04
1.190000e+09	1.645240e+12	0.000000e+00	3.924051e-01	1.662960e+14	6.961717e+14	3.534195e+14	1.290389e+04	5.489699e+03	2.531705e+03	0	4.784570e-04
1.200000e+09	1.557790e+12	0.000000e+00	3.924051e-01	1.648593e+14	6.919478e+14	3.519076e+14	1.288730e+04	5.486554e+03	2.530254e+03	0	4.698250e-04
1.210000e+09	1.471740e+12	0.000000e+00	3.924051e-01	1.634443e+14	6.877736e+14	3.504058e+14	1.287086e+04	5.483431e+03	2.528814e+03	0	4.610097e-04
1.220000e+09	1.387057e+12	0.000000e+00	3.924051e-01	1.620504e+14	6.836485e+14	3.489139e+14	1.285455e+04	5.480330e+03	2.527384e+03	0	4.519925e-04
1.230000e+09	1.303714e+12	0.000000e+00	3.924051e-01	1.606772e+14	6.795713e+14	3.474319e+14	1.283839e+04	5.477251e+03	2.525964e+03	0	4.427520e-04
1.240000e+09	1.221681e+12	0.000000e+00	3.924051e-01	1.593243e+14	6.755414e+14	3.459596e+14	1.282236e+04	5.474194e+03	2.524554e+03	0	4.332638e-04
1.250000e+09	1.140930e+12	0.000000e+00	3.924051e-01	1.579913e+14	6.715577e+14	3.444971e+14	1.280646e+04	5.471158e+03	2.523154e+03	0	4.234993e-04
1.260000e+09	1.061433e+12	0.000000e+00	3.924051e-01	1.566777e+14	6.676197e+14	3.430443e+14	1.279070e+04	5.468143e+03	2.521764e+03	0	4.134256e-04
1.270000e+09	9.831647e+11	0.000000e+00	3.924051e-01	1.553832e+14	6.637263e+14	3.416010e+14	1.277507e+04	5.465149e+03	2.520383e+03	0	4.030032e-04
1.280000e+09	9.060984e+11	0.000000e+00	3.924051e-01	1.541073e+14	6.598768e+14	3.401672e+14	1.275957e+04	5.462175e+03	2.519012e+03	0	3.921855e-04
1.290000e+09	8.302092e+11	0.000000e+00	3.924051e-01	1.528497e+14	6.560705e+14	3.387428e+14	1.274419e+04	5.459222e+03	2.517650e+03	0	3.809158e-04
1.300000e+09	7.554726e+11	0.000000e+00	3.924051e-01	1.516100e+14	6.523066e+14	3.373278e+14	1.272894e+04	5.456289e+03	2.516297e+03	0	3.691243e-04
1.310000e+09	6.818647e+11	0.000000e+00	3.924051e-01	1.503878e+14	6.485844e+14	3.359220e+14	1.271381e+04	5.453375e+03	2.514953e+03	0	3.567241e-04
1.320000e+09	6.093623e+11	0.000000e+00	3.924051e-01	1.491829e+14	6.449032e+14	3.345255e+14	1.269881e+04	5.450481e+03	2.513618e+03	0	3.436041e-04
1.330000e+09	5.379428e+11	0.000000e+00	3.924051e-01	1.479947e+14	6.412623e+14	3.331380e+14	1.268392e+04	5.447606e+03	2.512292e+03	0	3.296187e-04
1.340000e+09	4.675842e+11	0.000000e+00	3.924051e-01	1.468231e+14	6.376610e+14	3.317597e+14	1.266915e+04	5.444749e+03	2.510975e+03	0	3.145717e-04
1.350000e+09	3.982650e+11	0.000000e+00	3.924051e-01	1.456677e+14	6.340986e+14	3.303903e+14	1.265450e+04	5.441912e+03	2.509666e+03	0	2.981882e-04
1.360000e+09	3.299644e+11	0.000000e+00	3.924051e-01	1.445281e+14	6.305745e+14	3.290299e+14	1.263997e+04	5.439093e+03	2.508366e+03	0	2.800628e-04
