#t		Qconv[W]	Ri[Rp]		R*[Rp]		Qc[W]		Qm[W]		Qr[W]		Tcmb[K]		Tl[K]		Tup[K]		RiFlag		Bs[T]
0.000000e+00	8.067751e+13	0.000000e+00	3.924051e-01	1.331012e+15	2.581109e+15	6.750098e+14	1.867047e+04	6.433934e+03	2.911774e+03	0	1.746701e-03
1.000000e+07	7.737683e+13	0.000000e+00	3.924051e-01	1.284612e+15	2.534466e+15	6.712697e+14	1.854748e+04	6.424360e+03	2.907441e+03	0	1.722548e-03
2.000000e+07	7.426729e+13	0.000000e+00	3.924051e-01	1.240863e+15	2.489061e+15	6.675577e+14	1.842872e+04	6.414725e+03	2.903081e+03	0	1.699157e-03
3.000000e+07	7.133403e+13	0.000000e+00	3.924051e-01	1.199559e+15	2.444885e+15	6.638733e+14	1.831396e+04	6.405053e+03	2.898704e+03	0	1.676486e-03
4.000000e+07	6.856360e+13	0.000000e+00	3.924051e-01	1.160516e+15	2.401924e+15	6.602165e+14	1.820298e+04	6.395365e+03	2.894319e+03	0	1.654496e-03
5.000000e+07	6.594383e+13	0.000000e+00	3.924051e-01	1.123565e+15	2.360158e+15	6.565869e+14	1.809557e+04	6.385678e+03	2.889935e+03	0	1.633149e-03
6.000000e+07	6.346368e+13	0.000000e+00	3.924051e-01	1.088554e+15	2.319564e+15	6.529844e+14	1.799155e+04	6.376008e+03	2.885559e+03	0	1.612412e-03
7.000000e+07	6.111312e+13	0.000000e+00	3.924051e-01	1.055344e+15	2.280115e+15	6.494088e+14	1.789073e+04	6.366368e+03	2.881196e+03	0	1.592255e-03
8.000000e+07	5.888302e+13	0.000000e+00	3.924051e-01	1.023810e+15	2.241786e+15	6.458597e+14	1.779295e+04	6.356770e+03	2.876853e+03	0	1.572646e-03
9.000000e+07	5.676505e+13	0.000000e+00	3.924051e-01	9.938353e+14	2.204544e+15	6.423370e+14	1.769807e+04	6.347224e+03	2.872532e+03	0	1.553560e-03
1.000000e+08	5.475158e+13	0.000000e+00	3.924051e-01	9.653156e+14	2.168361e+15	6.388405e+14	1.760594e+04	6.337738e+03	2.868239e+03	0	1.534970e-03
1.100000e+08	5.283566e+13	0.000000e+00	3.924051e-01	9.381543e+14	2.133204e+15	6.353699e+14	1.751642e+04	6.328318e+03	2.863976e+03	0	1.516853e-03
1.200000e+08	5.101088e+13	0.000000e+00	3.924051e-01	9.122630e+14	2.099043e+15	6.319250e+14	1.742940e+04	6.318972e+03	2.859746e+03	0	1.499185e-03
1.300000e+08	4.927138e+13	0.000000e+00	3.924051e-01	8.875606e+14	2.065847e+15	6.285057e+14	1.734476e+04	6.309704e+03	2.855552e+03	0	1.481947e-03
1.400000e+08	4.761177e+13	0.000000e+00	3.924051e-01	8.639722e+14	2.033584e+15	6.251116e+14	1.726239e+04	6.300519e+03	2.851395e+03	0	1.465118e-03
1.500000e+08	4.602707e+13	0.000000e+00	3.924051e-01	8.414292e+14	2.002223e+15	6.217426e+14	1.718219e+04	6.291420e+03	2.847277e+03	0	1.448679e-03
1.600000e+08	4.451271e+13	0.000000e+00	3.924051e-01	8.198680e+14	1.971735e+15	6.183986e+14	1.710406e+04	6.282409e+03	2.843199e+03	0	1.432614e-03
1.700000e+08	4.306444e+13	0.000000e+00	3.924051e-01	7.992301e+14	1.942091e+15	6.150792e+14	1.702792e+04	6.273490e+03	2.839163e+03	0	1.416905e-03
1.800000e+08	4.167837e+13	0.000000e+00	3.924051e-01	7.794610e+14	1.913261e+15	6.117842e+14	1.695367e+04	6.264664e+03	2.835169e+03	0	1.401537e-03
1.900000e+08	4.035085e+13	0.000000e+00	3.924051e-01	7.605107e+14	1.885217e+15	6.085136e+14	1.688125e+04	6.255933e+03	2.831217e+03	0	1.386496e-03
2.000000e+08	3.907854e+13	0.000000e+00	3.924051e-01	7.423326e+14	1.857933e+15	6.052670e+14	1.681057e+04	6.247297e+03	2.827309e+03	0	1.371768e-03
2.100000e+08	3.785831e+13	0.000000e+00	3.924051e-01	7.248833e+14	1.831381e+15	6.020443e+14	1.674157e+04	6.238758e+03	2.823444e+03	0	1.357338e-03
2.200000e+08	3.668728e+13	0.000000e+00	3.924051e-01	7.081226e+14	1.805538e+15	5.988452e+14	1.667418e+04	6.230315e+03	2.819623e+03	0	1.343197e-03
2.300000e+08	3.556273e+13	0.000000e+00	3.924051e-01	6.920132e+14	1.780377e+15	5.956696e+14	1.660833e+04	6.221969e+03	2.815846e+03	0	1.329330e-03
2.400000e+08	3.448217e+13	0.000000e+00	3.924051e-01	6.765202e+14	1.755876e+15	5.925173e+14	1.654398e+04	6.213719e+03	2.812113e+03	0	1.315727e-03
2.500000e+08	3.344325e+13	0.000000e+00	3.924051e-01	6.616110e+14	1.732010e+15	5.893881e+14	1.648105e+04	6.205566e+03	2.808423e+03	0	1.302379e-03
2.600000e+08	3.244380e+13	0.000000e+00	3.924051e-01	6.472554e+14	1.708759e+15	5.862818e+14	1.641949e+04	6.197510e+03	2.804777e+03	0	1.289273e-03
2.700000e+08	3.148176e+13	0.000000e+00	3.924051e-01	6.334250e+14	1.686101e+15	5.831982e+14	1.635926e+04	6.189548e+03	2.801174e+03	0	1.276402e-03
2.800000e+08	3.055523e+13	0.000000e+00	3.924051e-01	6.200932e+14	1.664015e+15	5.801372e+14	1.630031e+04	6.181682e+03	2.797613e+03	0	1.263755e-03
2.900000e+08	2.966244e+13	0.000000e+00	3.924051e-01	6.072352e+14	1.642483e+15	5.770985e+14	1.624260e+04	6.173909e+03	2.794096e+03	0	1.251325e-03
3.000000e+08	2.880169e+13	0.000000e+00	3.924051e-01	5.948278e+14	1.621483e+15	5.740819e+14	1.618607e+04	6.166230e+03	2.790621e+03	0	1.239102e-03
3.100000e+08	2.797144e+13	0.000000e+00	3.924051e-01	5.828490e+14	1.601000e+15	5.710873e+14	1.613068e+04	6.158643e+03	2.787187e+03	0	1.227079e-03
3.200000e+08	2.717019e+13	0.000000e+00	3.924051e-01	5.712785e+14	1.581014e+15	5.681145e+14	1.607641e+04	6.151147e+03	2.783794e+03	0	1.215249e-03
3.300000e+08	2.639659e+13	0.000000e+00	3.924051e-01	5.600970e+14	1.561510e+15	5.651633e+14	1.602320e+04	6.143741e+03	2.780443e+03	0	1.203604e-03
3.400000e+08	2.564931e+13	0.000000e+00	3.924051e-01	5.492863e+14	1.542471e+15	5.622335e+14	1.597103e+04	6.136424e+03	2.777131e+03	0	1.192137e-03
3.500000e+08	2.492715e+13	0.000000e+00	3.924051e-01	5.388294e+14	1.523882e+15	5.593250e+14	1.591986e+04	6.129195e+03	2.773860e+03	0	1.180842e-03
3.600000e+08	2.422894e+13	0.000000e+00	3.924051e-01	5.287103e+14	1.505727e+15	5.564376e+14	1.586966e+04	6.122052e+03	2.770627e+03	0	1.169713e-03
3.700000e+08	2.355361e+13	0.000000e+00	3.924051e-01	5.189138e+14	1.487992e+15	5.535710e+14	1.582039e+04	6.114995e+03	2.767433e+03	0	1.158742e-03
3.800000e+08	2.290013e+13	0.000000e+00	3.924051e-01	5.094256e+14	1.470664e+15	5.507253e+14	1.577203e+04	6.108021e+03	2.764277e+03	0	1.147926e-03
3.900000e+08	2.226754e+13	0.000000e+00	3.924051e-01	5.002324e+14	1.453729e+15	5.479001e+14	1.572455e+04	6.101131e+03	2.761159e+03	0	1.137257e-03
4.000000e+08	2.165493e+13	0.000000e+00	3.924051e-01	4.913213e+14	1.437175e+15	5.450953e+14	1.567792e+04	6.094322e+03	2.758078e+03	0	1.126730e-03
4.100000e+08	2.106143e+13	0.000000e+00	3.924051e-01	4.826803e+14	1.420990e+15	5.423107e+14	1.563212e+04	6.087593e+03	2.755032e+03	0	1.116341e-03
4.200000e+08	2.048622e+13	0.000000e+00	3.924051e-01	4.742981e+14	1.405160e+15	5.395462e+14	1.558711e+04	6.080944e+03	2.752023e+03	0	1.106085e-03
4.300000e+08	1.992855e+13	0.000000e+00	3.924051e-01	4.661638e+14	1.389677e+15	5.368016e+14	1.554289e+04	6.074372e+03	2.749049e+03	0	1.095956e-03
4.400000e+08	1.938768e+13	0.000000e+00	3.924051e-01	4.582674e+14	1.374527e+15	5.340768e+14	1.549942e+04	6.067877e+03	2.746109e+03	0	1.085950e-03
4.500000e+08	1.886292e+13	0.000000e+00	3.924051e-01	4.505990e+14	1.359702e+15	5.313715e+14	1.545668e+04	6.061457e+03	2.743204e+03	0	1.076062e-03
4.600000e+08	1.835361e+13	0.000000e+00	3.924051e-01	4.431496e+14	1.345191e+15	5.286857e+14	1.541465e+04	6.055111e+03	2.740332e+03	0	1.066289e-03
4.700000e+08	1.785913e+13	0.000000e+00	3.924051e-01	4.359104e+14	1.330984e+15	5.260191e+14	1.537331e+04	6.048837e+03	2.737493e+03	0	1.056626e-03
4.800000e+08	1.737889e+13	0.000000e+00	3.924051e-01	4.288732e+14	1.317072e+15	5.233716e+14	1.533264e+04	6.042635e+03	2.734686e+03	0	1.047069e-03
4.900000e+08	1.691234e+13	0.000000e+00	3.924051e-01	4.220300e+14	1.303446e+15	5.207431e+14	1.529263e+04	6.036504e+03	2.731911e+03	0	1.037613e-03
5.000000e+08	1.645893e+13	0.000000e+00	3.924051e-01	4.153736e+14	1.290098e+15	5.181334e+14	1.525325e+04	6.030441e+03	2.729167e+03	0	1.028257e-03
5.100000e+08	1.601816e+13	0.000000e+00	3.924051e-01	4.088967e+14	1.277019e+15	5.155423e+14	1.521449e+04	6.024447e+03	2.726455e+03	0	1.018995e-03
5.200000e+08	1.558955e+13	0.000000e+00	3.924051e-01	4.025925e+14	1.264202e+15	5.129697e+14	1.517633e+04	6.018519e+03	2.723772e+03	0	1.009824e-03
5.300000e+08	1.517264e+13	0.000000e+00	3.924051e-01	3.964548e+14	1.251638e+15	5.104155e+14	1.513876e+04	6.012657e+03	2.721119e+03	0	1.000740e-03
5.400000e+08	1.476700e+13	0.000000e+00	3.924051e-01	3.904772e+14	1.239321e+15	5.078794e+14	1.510175e+04	6.006859e+03	2.718495e+03	0	9.917415e-04
5.500000e+08	1.437220e+13	0.000000e+00	3.924051e-01	3.846541e+14	1.227242e+15	5.053614e+14	1.506530e+04	6.001125e+03	2.715900e+03	0	9.828234e-04
5.600000e+08	1.398786e+13	0.000000e+00	3.924051e-01	3.789798e+14	1.215396e+15	5.028613e+14	1.502939e+04	5.995453e+03	2.713333e+03	0	9.739832e-04
5.700000e+08	1.361359e+13	0.000000e+00	3.924051e-01	3.734490e+14	1.203776e+15	5.003790e+14	1.499401e+04	5.989842e+03	2.710794e+03	0	9.652176e-04
5.800000e+08	1.324903e+13	0.000000e+00	3.924051e-01	3.680566e+14	1.192375e+15	4.979143e+14	1.495914e+04	5.984291e+03	2.708282e+03	0	9.565237e-04
5.900000e+08	1.289383e+13	0.000000e+00	3.924051e-01	3.627979e+14	1.181188e+15	4.954670e+14	1.492477e+04	5.978800e+03	2.705796e+03	0	9.478983e-04
6.000000e+08	1.254768e+13	0.000000e+00	3.924051e-01	3.576680e+14	1.170207e+15	4.930371e+14	1.489090e+04	5.973366e+03	2.703337e+03	0	9.393387e-04
6.100000e+08	1.221025e+13	0.000000e+00	3.924051e-01	3.526628e+14	1.159429e+15	4.906243e+14	1.485749e+04	5.967989e+03	2.700904e+03	0	9.308419e-04
6.200000e+08	1.188124e+13	0.000000e+00	3.924051e-01	3.477778e+14	1.148846e+15	4.882286e+14	1.482456e+04	5.962669e+03	2.698496e+03	0	9.224051e-04
6.300000e+08	1.156037e+13	0.000000e+00	3.924051e-01	3.430091e+14	1.138454e+15	4.858498e+14	1.479207e+04	5.957403e+03	2.696113e+03	0	9.140255e-04
6.400000e+08	1.124736e+13	0.000000e+00	3.924051e-01	3.383528e+14	1.128248e+15	4.834878e+14	1.476003e+04	5.952192e+03	2.693754e+03	0	9.057005e-04
6.500000e+08	1.094195e+13	0.000000e+00	3.924051e-01	3.338052e+14	1.118222e+15	4.811424e+14	1.472843e+04	5.947034e+03	2.691420e+03	0	8.974272e-04
6.600000e+08	1.064388e+13	0.000000e+00	3.924051e-01	3.293627e+14	1.108372e+15	4.788136e+14	1.469724e+04	5.941928e+03	2.689109e+03	0	8.892032e-04
6.700000e+08	1.035291e+13	0.000000e+00	3.924051e-01	3.250219e+14	1.098694e+15	4.765011e+14	1.466647e+04	5.936873e+03	2.686822e+03	0	8.810256e-04
6.800000e+08	1.006882e+13	0.000000e+00	3.924051e-01	3.207796e+14	1.089183e+15	4.742048e+14	1.463611e+04	5.931869e+03	2.684557e+03	0	8.728920e-04
6.900000e+08	9.791370e+12	0.000000e+00	3.924051e-01	3.166326e+14	1.079833e+15	4.719247e+14	1.460613e+04	5.926915e+03	2.682315e+03	0	8.647998e-04
7.000000e+08	9.520363e+12	0.000000e+00	3.924051e-01	3.125779e+14	1.070643e+15	4.696605e+14	1.457655e+04	5.922010e+03	2.680095e+03	0	8.567463e-04
7.100000e+08	9.255588e+12	0.000000e+00	3.924051e-01	3.086127e+14	1.061606e+15	4.674122e+14	1.454734e+04	5.917152e+03	2.677897e+03	0	8.487291e-04
7.200000e+08	8.996850e+12	0.000000e+00	3.924051e-01	3.047341e+14	1.052720e+15	4.651796e+14	1.451850e+04	5.912342e+03	2.675719e+03	0	8.407455e-04
7.300000e+08	8.743960e+12	0.000000e+00	3.924051e-01	3.009396e+14	1.043981e+15	4.629626e+14	1.449002e+04	5.907577e+03	2.673563e+03	0	8.327931e-04
7.400000e+08	8.496738e+12	0.000000e+00	3.924051e-01	2.972265e+14	1.035385e+15	4.607611e+14	1.446189e+04	5.902859e+03	2.671428e+03	0	8.248693e-04
7.500000e+08	8.255010e+12	0.000000e+00	3.924051e-01	2.935924e+14	1.026928e+15	4.585749e+14	1.443411e+04	5.898185e+03	2.669313e+03	0	8.169716e-04
7.600000e+08	8.018610e+12	0.000000e+00	3.924051e-01	2.900350e+14	1.018607e+15	4.564040e+14	1.440667e+04	5.893556e+03	2.667218e+03	0	8.090973e-04
7.700000e+08	7.787376e+12	0.000000e+00	3.924051e-01	2.865519e+14	1.010419e+15	4.542482e+14	1.437956e+04	5.888969e+03	2.665142e+03	0	8.012440e-04
7.800000e+08	7.561155e+12	0.000000e+00	3.924051e-01	2.831410e+14	1.002360e+15	4.521073e+14	1.435277e+04	5.884426e+03	2.663086e+03	0	7.934090e-04
7.900000e+08	7.339797e+12	0.000000e+00	3.924051e-01	2.798002e+14	9.944278e+14	4.499813e+14	1.432630e+04	5.879924e+03	2.661048e+03	0	7.855896e-04
8.000000e+08	7.123160e+12	0.000000e+00	3.924051e-01	2.765275e+14	9.866190e+14	4.478701e+14	1.430014e+04	5.875463e+03	2.659030e+03	0	7.777833e-04
8.100000e+08	6.911107e+12	0.000000e+00	3.924051e-01	2.733209e+14	9.789308e+14	4.457735e+14	1.427429e+04	5.871043e+03	2.657029e+03	0	7.699874e-04
8.200000e+08	6.703504e+12	0.000000e+00	3.924051e-01	2.701785e+14	9.713603e+14	4.436914e+14	1.424873e+04	5.866663e+03	2.655047e+03	0	7.621990e-04
8.300000e+08	6.500224e+12	0.000000e+00	3.924051e-01	2.670986e+14	9.639048e+14	4.416237e+14	1.422347e+04	5.862323e+03	2.653083e+03	0	7.544153e-04
8.400000e+08	6.301145e+12	0.000000e+00	3.924051e-01	2.640793e+14	9.565615e+14	4.395703e+14	1.419849e+04	5.858020e+03	2.651136e+03	0	7.466336e-04
8.500000e+08	6.106147e+12	0.000000e+00	3.924051e-01	2.611190e+14	9.493280e+14	4.375310e+14	1.417380e+04	5.853756e+03	2.649206e+03	0	7.388509e-04
8.600000e+08	5.915116e+12	0.000000e+00	3.924051e-01	2.582161e+14	9.422018e+14	4.355058e+14	1.414938e+04	5.849529e+03	2.647293e+03	0	7.310642e-04
8.700000e+08	5.727942e+12	0.000000e+00	3.924051e-01	2.553691e+14	9.351804e+14	4.334946e+14	1.412523e+04	5.845339e+03	2.645397e+03	0	7.232703e-04
8.800000e+08	5.544519e+12	0.000000e+00	3.924051e-01	2.525763e+14	9.282615e+14	4.314972e+14	1.410135e+04	5.841186e+03	2.643517e+03	0	7.154660e-04
8.900000e+08	5.364744e+12	0.000000e+00	3.924051e-01	2.498363e+14	9.214428e+14	4.295135e+14	1.407772e+04	5.837067e+03	2.641653e+03	0	7.076482e-04
9.000000e+08	5.188518e+12	0.000000e+00	3.924051e-01	2.471478e+14	9.147221e+14	4.275434e+14	1.405436e+04	5.832984e+03	2.639805e+03	0	6.998133e-04
9.100000e+08	5.015745e+12	0.000000e+00	3.924051e-01	2.445094e+14	9.080973e+14	4.255868e+14	1.403124e+04	5.828936e+03	2.637973e+03	0	6.919577e-04
9.200000e+08	4.846333e+12	0.000000e+00	3.924051e-01	2.419198e+14	9.015663e+14	4.236437e+14	1.400837e+04	5.824921e+03	2.636156e+03	0	6.840778e-04
9.300000e+08	4.680192e+12	0.000000e+00	3.924051e-01	2.393776e+14	8.951270e+14	4.217138e+14	1.398574e+04	5.820940e+03	2.634354e+03	0	6.761696e-04
9.400000e+08	4.517237e+12	0.000000e+00	3.924051e-01	2.368817e+14	8.887775e+14	4.197971e+14	1.396334e+04	5.816992e+03	2.632568e+03	0	6.682291e-04
9.500000e+08	4.357384e+12	0.000000e+00	3.924051e-01	2.344309e+14	8.825158e+14	4.178935e+14	1.394118e+04	5.813076e+03	2.630795e+03	0	6.602519e-04
9.600000e+08	4.200552e+12	0.000000e+00	3.924051e-01	2.320240e+14	8.763402e+14	4.160028e+14	1.391925e+04	5.809192e+03	2.629038e+03	0	6.522336e-04
9.700000e+08	4.046664e+12	0.000000e+00	3.924051e-01	2.296599e+14	8.702488e+14	4.141251e+14	1.389754e+04	5.805340e+03	2.627294e+03	0	6.441694e-04
9.800000e+08	3.895644e+12	0.000000e+00	3.924051e-01	2.273376e+14	8.642399e+14	4.122601e+14	1.387606e+04	5.801519e+03	2.625565e+03	0	6.360542e-04
9.900000e+08	3.747419e+12	0.000000e+00	3.924051e-01	2.250560e+14	8.583118e+14	4.104078e+14	1.385479e+04	5.797728e+03	2.623849e+03	0	6.278827e-04
1.000000e+09	3.601919e+12	0.000000e+00	3.924051e-01	2.228141e+14	8.524627e+14	4.085681e+14	1.383373e+04	5.793967e+03	2.622147e+03	0	6.196490e-04
1.010000e+09	3.459076e+12	0.000000e+00	3.924051e-01	2.206109e+14	8.466911e+14	4.067408e+14	1.381288e+04	5.790236e+03	2.620459e+03	0	6.113470e-04
1.020000e+09	3.318822e+12	0.000000e+00	3.924051e-01	2.184455e+14	8.409955e+14	4.049260e+14	1.379223e+04	5.786534e+03	2.618784e+03	0	6.029700e-04
1.030000e+09	3.181095e+12	0.000000e+00	3.924051e-01	2.163169e+14	8.353742e+14	4.031234e+14	1.377179e+04	5.782861e+03	2.617121e+03	0	5.945111e-04
1.040000e+09	3.045832e+12	0.000000e+00	3.924051e-01	2.142244e+14	8.298259e+14	4.013330e+14	1.375155e+04	5.779216e+03	2.615472e+03	0	5.859624e-04
1.050000e+09	2.912974e+12	0.000000e+00	3.924051e-01	2.121669e+14	8.243490e+14	3.995547e+14	1.373150e+04	5.775600e+03	2.613835e+03	0	5.773156e-04
1.060000e+09	2.782461e+12	0.000000e+00	3.924051e-01	2.101438e+14	8.189422e+14	3.977883e+14	1.371165e+04	5.772010e+03	2.612210e+03	0	5.685615e-04
1.070000e+09	2.654238e+12	0.000000e+00	3.924051e-01	2.081541e+14	8.136041e+14	3.960339e+14	1.369198e+04	5.768448e+03	2.610598e+03	0	5.596902e-04
1.080000e+09	2.528249e+12	0.000000e+00	3.924051e-01	2.061972e+14	8.083333e+14	3.942913e+14	1.367250e+04	5.764913e+03	2.608998e+03	0	5.506906e-04
1.090000e+09	2.404442e+12	0.000000e+00	3.924051e-01	2.042722e+14	8.031286e+14	3.925604e+14	1.365320e+04	5.761403e+03	2.607410e+03	0	5.415508e-04
1.100000e+09	2.282766e+12	0.000000e+00	3.924051e-01	2.023784e+14	7.979887e+14	3.908411e+14	1.363408e+04	5.757920e+03	2.605834e+03	0	5.322572e-04
1.110000e+09	2.163170e+12	0.000000e+00	3.924051e-01	2.005150e+14	7.929123e+14	3.891334e+14	1.361514e+04	5.754463e+03	2.604269e+03	0	5.227948e-04
1.120000e+09	2.045605e+12	0.000000e+00	3.924051e-01	1.986815e+14	7.878983e+14	3.874371e+14	1.359637e+04	5.751031e+03	2.602716e+03	0	5.131469e-04
1.130000e+09	1.930026e+12	0.000000e+00	3.924051e-01	1.968771e+14	7.829455e+14	3.857521e+14	1.357777e+04	5.747623e+03	2.601174e+03	0	5.032944e-04
1.140000e+09	1.816386e+12	0.000000e+00	3.924051e-01	1.951012e+14	7.780527e+14	3.840784e+14	1.355934e+04	5.744240e+03	2.599643e+03	0	4.932160e-04
1.150000e+09	1.704642e+12	0.000000e+00	3.924051e-01	1.933531e+14	7.732188e+14	3.824159e+14	1.354107e+04	5.740882e+03	2.598123e+03	0	4.828869e-04
1.160000e+09	1.594749e+12	0.000000e+00	3.924051e-01	1.916323e+14	7.684428e+14	3.807645e+14	1.352297e+04	5.737547e+03	2.596614e+03	0	4.722789e-04
1.170000e+09	1.486667e+12	0.000000e+00	3.924051e-01	1.899380e+14	7.637236e+14	3.791240e+14	1.350503e+04	5.734236e+03	2.595115e+03	0	4.613590e-04
1.180000e+09	1.380355e+12	0.000000e+00	3.924051e-01	1.882698e+14	7.590601e+14	3.774945e+14	1.348725e+04	5.730948e+03	2.593627e+03	0	4.500885e-04
1.190000e+09	1.275773e+12	0.000000e+00	3.924051e-01	1.866271e+14	7.544514e+14	3.758758e+14	1.346963e+04	5.727683e+03	2.592150e+03	0	4.384218e-04
1.200000e+09	1.172883e+12	0.000000e+00	3.924051e-01	1.850093e+14	7.498964e+14	3.742679e+14	1.345215e+04	5.724441e+03	2.590682e+03	0	4.263039e-04
1.210000e+09	1.071648e+12	0.000000e+00	3.924051e-01	1.834158e+14	7.453943e+14	3.726706e+14	1.343483e+04	5.721221e+03	2.589225e+03	0	4.136679e-04
1.220000e+09	9.720320e+11	0.000000e+00	3.924051e-01	1.818463e+14	7.409440e+14	3.710839e+14	1.341766e+04	5.718023e+03	2.587778e+03	0	4.004312e-04
1.230000e+09	8.739996e+11	0.000000e+00	3.924051e-01	1.803001e+14	7.365447e+14	3.695078e+14	1.340063e+04	5.714847e+03	2.586340e+03	0	3.864899e-04
1.240000e+09	7.775167e+11	0.000000e+00	3.924051e-01	1.787768e+14	7.321954e+14	3.679420e+14	1.338375e+04	5.711692e+03	2.584912e+03	0	3.717101e-04
1.250000e+09	6.825499e+11	0.000000e+00	3.924051e-01	1.772758e+14	7.278953e+14	3.663865e+14	1.336701e+04	5.708558e+03	2.583494e+03	0	3.559147e-04
1.260000e+09	5.890670e+11	0.000000e+00	3.924051e-01	1.757968e+14	7.236436e+14	3.648414e+14	1.335041e+04	5.705445e+03	2.582086e+03	0	3.388618e-04
1.270000e+09	4.970364e+11	0.000000e+00	3.924051e-01	1.743393e+14	7.194394e+14	3.633064e+14	1.333395e+04	5.702353e+03	2.580686e+03	0	3.202067e-04
1.280000e+09	4.064277e+11	0.000000e+00	3.924051e-01	1.729028e+14	7.152819e+14	3.617815e+14	1.331762e+04	5.699281e+03	2.579296e+03	0	2.994301e-04
1.290000e+09	3.172109e+11	0.000000e+00	3.924051e-01	1.714869e+14	7.111704e+14	3.602666e+14	1.330143e+04	5.696230e+03	2.577915e+03	0	2.756875e-04
1.300000e+09	2.293570e+11	0.000000e+00	3.924051e-01	1.700912e+14	7.071039e+14	3.587616e+14	1.328537e+04	5.693198e+03	2.576543e+03	0	2.474410e-04
1.310000e+09	1.428379e+11	0.000000e+00	3.924051e-01	1.687152e+14	7.030819e+14	3.572666e+14	1.326944e+04	5.690186e+03	2.575180e+03	0	2.113078e-04
1.320000e+09	5.762608e+10	0.000000e+00	3.924051e-01	1.673587e+14	6.991035e+14	3.557813e+14	1.325364e+04	5.687193e+03	2.573825e+03	0	1.561376e-04
1.330000e+09	-2.630529e+10	0.000000e+00	3.924051e-01	1.660211e+14	6.951680e+14	3.543057e+14	1.323796e+04	5.684219e+03	2.572479e+03	0	nan
