#t		Qconv[W]	Ri[Rp]		R*[Rp]		Qc[W]		Qm[W]		Qr[W]		Tcmb[K]		Tl[K]		Tup[K]		RiFlag		Bs[T]
0.000000e+00	8.577272e+13	0.000000e+00	3.924051e-01	1.396888e+15	2.534995e+15	7.003230e+14	1.919588e+04	6.552098e+03	2.932790e+03	0	1.781030e-03
1.000000e+07	8.233557e+13	0.000000e+00	3.924051e-01	1.349705e+15	2.496284e+15	6.964427e+14	1.907239e+04	6.545026e+03	2.929625e+03	0	1.756915e-03
2.000000e+07	7.909079e+13	0.000000e+00	3.924051e-01	1.305124e+15	2.458195e+15	6.925914e+14	1.895301e+04	6.537754e+03	2.926370e+03	0	1.733525e-03
3.000000e+07	7.602392e+13	0.000000e+00	3.924051e-01	1.262952e+15	2.420767e+15	6.887689e+14	1.883754e+04	6.530313e+03	2.923039e+03	0	1.710822e-03
4.000000e+07	7.312189e+13	0.000000e+00	3.924051e-01	1.223012e+15	2.384030e+15	6.849750e+14	1.872575e+04	6.522732e+03	2.919646e+03	0	1.688770e-03
5.000000e+07	7.037279e+13	0.000000e+00	3.924051e-01	1.185145e+15	2.348005e+15	6.812093e+14	1.861746e+04	6.515037e+03	2.916201e+03	0	1.667336e-03
6.000000e+07	6.776580e+13	0.000000e+00	3.924051e-01	1.149203e+15	2.312707e+15	6.774717e+14	1.851249e+04	6.507249e+03	2.912716e+03	0	1.646487e-03
7.000000e+07	6.529103e+13	0.000000e+00	3.924051e-01	1.115055e+15	2.278143e+15	6.737619e+14	1.841067e+04	6.499389e+03	2.909197e+03	0	1.626195e-03
8.000000e+07	6.293945e+13	0.000000e+00	3.924051e-01	1.082579e+15	2.244317e+15	6.700798e+14	1.831184e+04	6.491474e+03	2.905655e+03	0	1.606432e-03
9.000000e+07	6.070282e+13	0.000000e+00	3.924051e-01	1.051663e+15	2.211230e+15	6.664250e+14	1.821587e+04	6.483520e+03	2.902094e+03	0	1.587174e-03
1.000000e+08	5.857356e+13	0.000000e+00	3.924051e-01	1.022205e+15	2.178877e+15	6.627973e+14	1.812260e+04	6.475540e+03	2.898522e+03	0	1.568395e-03
1.100000e+08	5.654472e+13	0.000000e+00	3.924051e-01	9.941124e+14	2.147253e+15	6.591966e+14	1.803193e+04	6.467546e+03	2.894944e+03	0	1.550073e-03
1.200000e+08	5.460992e+13	0.000000e+00	3.924051e-01	9.672979e+14	2.116349e+15	6.556225e+14	1.794372e+04	6.459550e+03	2.891365e+03	0	1.532188e-03
1.300000e+08	5.276327e+13	0.000000e+00	3.924051e-01	9.416825e+14	2.086154e+15	6.520750e+14	1.785787e+04	6.451561e+03	2.887789e+03	0	1.514719e-03
1.400000e+08	5.099935e+13	0.000000e+00	3.924051e-01	9.171930e+14	2.056658e+15	6.485536e+14	1.777427e+04	6.443587e+03	2.884220e+03	0	1.497648e-03
1.500000e+08	4.931314e+13	0.000000e+00	3.924051e-01	8.937617e+14	2.027847e+15	6.450583e+14	1.769283e+04	6.435635e+03	2.880660e+03	0	1.480957e-03
1.600000e+08	4.770004e+13	0.000000e+00	3.924051e-01	8.713261e+14	1.999707e+15	6.415888e+14	1.761344e+04	6.427712e+03	2.877114e+03	0	1.464629e-03
1.700000e+08	4.615574e+13	0.000000e+00	3.924051e-01	8.498283e+14	1.972225e+15	6.381450e+14	1.753604e+04	6.419824e+03	2.873583e+03	0	1.448650e-03
1.800000e+08	4.467628e+13	0.000000e+00	3.924051e-01	8.292146e+14	1.945384e+15	6.347265e+14	1.746053e+04	6.411975e+03	2.870070e+03	0	1.433003e-03
1.900000e+08	4.325797e+13	0.000000e+00	3.924051e-01	8.094352e+14	1.919171e+15	6.313332e+14	1.738683e+04	6.404171e+03	2.866577e+03	0	1.417676e-03
2.000000e+08	4.189739e+13	0.000000e+00	3.924051e-01	7.904438e+14	1.893570e+15	6.279648e+14	1.731488e+04	6.396415e+03	2.863105e+03	0	1.402654e-03
2.100000e+08	4.059136e+13	0.000000e+00	3.924051e-01	7.721973e+14	1.868565e+15	6.246212e+14	1.724460e+04	6.388709e+03	2.859656e+03	0	1.387925e-03
2.200000e+08	3.933692e+13	0.000000e+00	3.924051e-01	7.546556e+14	1.844140e+15	6.213022e+14	1.717593e+04	6.381058e+03	2.856231e+03	0	1.373478e-03
2.300000e+08	3.813129e+13	0.000000e+00	3.924051e-01	7.377813e+14	1.820281e+15	6.180076e+14	1.710881e+04	6.373463e+03	2.852832e+03	0	1.359300e-03
2.400000e+08	3.697192e+13	0.000000e+00	3.924051e-01	7.215395e+14	1.796973e+15	6.147371e+14	1.704318e+04	6.365927e+03	2.849458e+03	0	1.345382e-03
2.500000e+08	3.585638e+13	0.000000e+00	3.924051e-01	7.058976e+14	1.774199e+15	6.114905e+14	1.697898e+04	6.358452e+03	2.846112e+03	0	1.331712e-03
2.600000e+08	3.478244e+13	0.000000e+00	3.924051e-01	6.908251e+14	1.751945e+15	6.082677e+14	1.691617e+04	6.351038e+03	2.842794e+03	0	1.318281e-03
2.700000e+08	3.374797e+13	0.000000e+00	3.924051e-01	6.762934e+14	1.730198e+15	6.050685e+14	1.685468e+04	6.343687e+03	2.839503e+03	0	1.305081e-03
2.800000e+08	3.275103e+13	0.000000e+00	3.924051e-01	6.622759e+14	1.708941e+15	6.018926e+14	1.679448e+04	6.336400e+03	2.836242e+03	0	1.292101e-03
2.900000e+08	3.178975e+13	0.000000e+00	3.924051e-01	6.487473e+14	1.688163e+15	5.987400e+14	1.673552e+04	6.329178e+03	2.833009e+03	0	1.279334e-03
3.000000e+08	3.086240e+13	0.000000e+00	3.924051e-01	6.356843e+14	1.667848e+15	5.956103e+14	1.667775e+04	6.322021e+03	2.829806e+03	0	1.266771e-03
3.100000e+08	2.996736e+13	0.000000e+00	3.924051e-01	6.230647e+14	1.647984e+15	5.925033e+14	1.662114e+04	6.314930e+03	2.826632e+03	0	1.254405e-03
3.200000e+08	2.910310e+13	0.000000e+00	3.924051e-01	6.108676e+14	1.628557e+15	5.894191e+14	1.656564e+04	6.307906e+03	2.823487e+03	0	1.242228e-03
3.300000e+08	2.826817e+13	0.000000e+00	3.924051e-01	5.990737e+14	1.609555e+15	5.863572e+14	1.651123e+04	6.300948e+03	2.820373e+03	0	1.230233e-03
3.400000e+08	2.746122e+13	0.000000e+00	3.924051e-01	5.876644e+14	1.590966e+15	5.833175e+14	1.645786e+04	6.294056e+03	2.817288e+03	0	1.218414e-03
3.500000e+08	2.668098e+13	0.000000e+00	3.924051e-01	5.766224e+14	1.572779e+15	5.803000e+14	1.640549e+04	6.287230e+03	2.814233e+03	0	1.206763e-03
3.600000e+08	2.592625e+13	0.000000e+00	3.924051e-01	5.659313e+14	1.554980e+15	5.773043e+14	1.635411e+04	6.280471e+03	2.811207e+03	0	1.195276e-03
3.700000e+08	2.519589e+13	0.000000e+00	3.924051e-01	5.555758e+14	1.537560e+15	5.743303e+14	1.630367e+04	6.273778e+03	2.808211e+03	0	1.183945e-03
3.800000e+08	2.448883e+13	0.000000e+00	3.924051e-01	5.455412e+14	1.520506e+15	5.713778e+14	1.625415e+04	6.267150e+03	2.805245e+03	0	1.172764e-03
3.900000e+08	2.380405e+13	0.000000e+00	3.924051e-01	5.358137e+14	1.503810e+15	5.684466e+14	1.620552e+04	6.260587e+03	2.802307e+03	0	1.161730e-03
4.000000e+08	2.314061e+13	0.000000e+00	3.924051e-01	5.263804e+14	1.487460e+15	5.655366e+14	1.615775e+04	6.254090e+03	2.799399e+03	0	1.150835e-03
4.100000e+08	2.249759e+13	0.000000e+00	3.924051e-01	5.172288e+14	1.471447e+15	5.626477e+14	1.611081e+04	6.247656e+03	2.796519e+03	0	1.140075e-03
4.200000e+08	2.187414e+13	0.000000e+00	3.924051e-01	5.083474e+14	1.455761e+15	5.597795e+14	1.606469e+04	6.241287e+03	2.793668e+03	0	1.129445e-03
4.300000e+08	2.126945e+13	0.000000e+00	3.924051e-01	4.997250e+14	1.440393e+15	5.569320e+14	1.601935e+04	6.234980e+03	2.790845e+03	0	1.118940e-03
4.400000e+08	2.068275e+13	0.000000e+00	3.924051e-01	4.913512e+14	1.425334e+15	5.541049e+14	1.597478e+04	6.228737e+03	2.788050e+03	0	1.108556e-03
4.500000e+08	2.011331e+13	0.000000e+00	3.924051e-01	4.832160e+14	1.410574e+15	5.512982e+14	1.593095e+04	6.222555e+03	2.785283e+03	0	1.098287e-03
4.600000e+08	1.956044e+13	0.000000e+00	3.924051e-01	4.753100e+14	1.396107e+15	5.485117e+14	1.588784e+04	6.216435e+03	2.782544e+03	0	1.088131e-03
4.700000e+08	1.902348e+13	0.000000e+00	3.924051e-01	4.676241e+14	1.381924e+15	5.457451e+14	1.584544e+04	6.210376e+03	2.779832e+03	0	1.078081e-03
4.800000e+08	1.850181e+13	0.000000e+00	3.924051e-01	4.601500e+14	1.368016e+15	5.429983e+14	1.580371e+04	6.204376e+03	2.777146e+03	0	1.068135e-03
4.900000e+08	1.799483e+13	0.000000e+00	3.924051e-01	4.528793e+14	1.354376e+15	5.402713e+14	1.576265e+04	6.198436e+03	2.774488e+03	0	1.058289e-03
5.000000e+08	1.750199e+13	0.000000e+00	3.924051e-01	4.458045e+14	1.340998e+15	5.375637e+14	1.572223e+04	6.192555e+03	2.771855e+03	0	1.048537e-03
5.100000e+08	1.702273e+13	0.000000e+00	3.924051e-01	4.389183e+14	1.327873e+15	5.348754e+14	1.568245e+04	6.186732e+03	2.769248e+03	0	1.038878e-03
5.200000e+08	1.655656e+13	0.000000e+00	3.924051e-01	4.322135e+14	1.314995e+15	5.322064e+14	1.564327e+04	6.180965e+03	2.766667e+03	0	1.029307e-03
5.300000e+08	1.610299e+13	0.000000e+00	3.924051e-01	4.256836e+14	1.302357e+15	5.295563e+14	1.560469e+04	6.175256e+03	2.764112e+03	0	1.019820e-03
5.400000e+08	1.566154e+13	0.000000e+00	3.924051e-01	4.193221e+14	1.289954e+15	5.269252e+14	1.556669e+04	6.169602e+03	2.761581e+03	0	1.010415e-03
5.500000e+08	1.523179e+13	0.000000e+00	3.924051e-01	4.131231e+14	1.277777e+15	5.243128e+14	1.552925e+04	6.164003e+03	2.759075e+03	0	1.001087e-03
5.600000e+08	1.481330e+13	0.000000e+00	3.924051e-01	4.070808e+14	1.265823e+15	5.217189e+14	1.549236e+04	6.158458e+03	2.756593e+03	0	9.918333e-04
5.700000e+08	1.440567e+13	0.000000e+00	3.924051e-01	4.011896e+14	1.254084e+15	5.191435e+14	1.545601e+04	6.152967e+03	2.754135e+03	0	9.826510e-04
5.800000e+08	1.400852e+13	0.000000e+00	3.924051e-01	3.954442e+14	1.242555e+15	5.165863e+14	1.542019e+04	6.147529e+03	2.751701e+03	0	9.735366e-04
5.900000e+08	1.362149e+13	0.000000e+00	3.924051e-01	3.898396e+14	1.231231e+15	5.140473e+14	1.538487e+04	6.142142e+03	2.749290e+03	0	9.644869e-04
6.000000e+08	1.324422e+13	0.000000e+00	3.924051e-01	3.843711e+14	1.220106e+15	5.115262e+14	1.535005e+04	6.136807e+03	2.746902e+03	0	9.554990e-04
6.100000e+08	1.287637e+13	0.000000e+00	3.924051e-01	3.790339e+14	1.209176e+15	5.090230e+14	1.531572e+04	6.131523e+03	2.744536e+03	0	9.465697e-04
6.200000e+08	1.251762e+13	0.000000e+00	3.924051e-01	3.738237e+14	1.198435e+15	5.065374e+14	1.528187e+04	6.126288e+03	2.742193e+03	0	9.376961e-04
6.300000e+08	1.216767e+13	0.000000e+00	3.924051e-01	3.687363e+14	1.187878e+15	5.040695e+14	1.524847e+04	6.121103e+03	2.739872e+03	0	9.288751e-04
6.400000e+08	1.182623e+13	0.000000e+00	3.924051e-01	3.637675e+14	1.177501e+15	5.016189e+14	1.521553e+04	6.115966e+03	2.737573e+03	0	9.201039e-04
6.500000e+08	1.149300e+13	0.000000e+00	3.924051e-01	3.589137e+14	1.167300e+15	4.991855e+14	1.518303e+04	6.110877e+03	2.735295e+03	0	9.113796e-04
6.600000e+08	1.116773e+13	0.000000e+00	3.924051e-01	3.541709e+14	1.157269e+15	4.967693e+14	1.515096e+04	6.105835e+03	2.733038e+03	0	9.026993e-04
6.700000e+08	1.085015e+13	0.000000e+00	3.924051e-01	3.495357e+14	1.147405e+15	4.943701e+14	1.511932e+04	6.100840e+03	2.730802e+03	0	8.940600e-04
6.800000e+08	1.054001e+13	0.000000e+00	3.924051e-01	3.450047e+14	1.137704e+15	4.919877e+14	1.508808e+04	6.095890e+03	2.728587e+03	0	8.854589e-04
6.900000e+08	1.023707e+13	0.000000e+00	3.924051e-01	3.405746e+14	1.128162e+15	4.896221e+14	1.505725e+04	6.090986e+03	2.726391e+03	0	8.768933e-04
7.000000e+08	9.941117e+12	0.000000e+00	3.924051e-01	3.362422e+14	1.118775e+15	4.872730e+14	1.502682e+04	6.086125e+03	2.724216e+03	0	8.683601e-04
7.100000e+08	9.651920e+12	0.000000e+00	3.924051e-01	3.320045e+14	1.109539e+15	4.849404e+14	1.499676e+04	6.081309e+03	2.722060e+03	0	8.598566e-04
7.200000e+08	9.369271e+12	0.000000e+00	3.924051e-01	3.278586e+14	1.100450e+15	4.826241e+14	1.496709e+04	6.076535e+03	2.719923e+03	0	8.513799e-04
7.300000e+08	9.092967e+12	0.000000e+00	3.924051e-01	3.238018e+14	1.091506e+15	4.803240e+14	1.493779e+04	6.071804e+03	2.717806e+03	0	8.429271e-04
7.400000e+08	8.822815e+12	0.000000e+00	3.924051e-01	3.198313e+14	1.082702e+15	4.780399e+14	1.490884e+04	6.067115e+03	2.715707e+03	0	8.344952e-04
7.500000e+08	8.558628e+12	0.000000e+00	3.924051e-01	3.159446e+14	1.074036e+15	4.757717e+14	1.488025e+04	6.062468e+03	2.713627e+03	0	8.260814e-04
7.600000e+08	8.300225e+12	0.000000e+00	3.924051e-01	3.121392e+14	1.065503e+15	4.735194e+14	1.485201e+04	6.057860e+03	2.711564e+03	0	8.176826e-04
7.700000e+08	8.047435e+12	0.000000e+00	3.924051e-01	3.084127e+14	1.057102e+15	4.712827e+14	1.482410e+04	6.053293e+03	2.709520e+03	0	8.092958e-04
7.800000e+08	7.800092e+12	0.000000e+00	3.924051e-01	3.047628e+14	1.048829e+15	4.690616e+14	1.479653e+04	6.048766e+03	2.707493e+03	0	8.009180e-04
7.900000e+08	7.558035e+12	0.000000e+00	3.924051e-01	3.011873e+14	1.040682e+15	4.668559e+14	1.476928e+04	6.044277e+03	2.705484e+03	0	7.925459e-04
8.000000e+08	7.321110e+12	0.000000e+00	3.924051e-01	2.976841e+14	1.032656e+15	4.646655e+14	1.474235e+04	6.039827e+03	2.703492e+03	0	7.841764e-04
8.100000e+08	7.089169e+12	0.000000e+00	3.924051e-01	2.942511e+14	1.024751e+15	4.624902e+14	1.471573e+04	6.035414e+03	2.701517e+03	0	7.758062e-04
8.200000e+08	6.862069e+12	0.000000e+00	3.924051e-01	2.908864e+14	1.016962e+15	4.603301e+14	1.468941e+04	6.031038e+03	2.699559e+03	0	7.674319e-04
8.300000e+08	6.639672e+12	0.000000e+00	3.924051e-01	2.875880e+14	1.009287e+15	4.581848e+14	1.466340e+04	6.026700e+03	2.697616e+03	0	7.590500e-04
8.400000e+08	6.421847e+12	0.000000e+00	3.924051e-01	2.843541e+14	1.001725e+15	4.560544e+14	1.463768e+04	6.022397e+03	2.695691e+03	0	7.506568e-04
8.500000e+08	6.208463e+12	0.000000e+00	3.924051e-01	2.811830e+14	9.942717e+14	4.539387e+14	1.461225e+04	6.018130e+03	2.693781e+03	0	7.422488e-04
8.600000e+08	5.999400e+12	0.000000e+00	3.924051e-01	2.780729e+14	9.869256e+14	4.518376e+14	1.458710e+04	6.013898e+03	2.691886e+03	0	7.338220e-04
8.700000e+08	5.794536e+12	0.000000e+00	3.924051e-01	2.750222e+14	9.796842e+14	4.497509e+14	1.456223e+04	6.009701e+03	2.690008e+03	0	7.253724e-04
8.800000e+08	5.593757e+12	0.000000e+00	3.924051e-01	2.720292e+14	9.725453e+14	4.476786e+14	1.453763e+04	6.005538e+03	2.688144e+03	0	7.168958e-04
8.900000e+08	5.396953e+12	0.000000e+00	3.924051e-01	2.690925e+14	9.655067e+14	4.456205e+14	1.451329e+04	6.001408e+03	2.686296e+03	0	7.083877e-04
9.000000e+08	5.204016e+12	0.000000e+00	3.924051e-01	2.662106e+14	9.585662e+14	4.435765e+14	1.448922e+04	5.997312e+03	2.684462e+03	0	6.998436e-04
9.100000e+08	5.014842e+12	0.000000e+00	3.924051e-01	2.633819e+14	9.517219e+14	4.415466e+14	1.446541e+04	5.993248e+03	2.682643e+03	0	6.912586e-04
9.200000e+08	4.829333e+12	0.000000e+00	3.924051e-01	2.606053e+14	9.449718e+14	4.395305e+14	1.444184e+04	5.989216e+03	2.680839e+03	0	6.826276e-04
9.300000e+08	4.647390e+12	0.000000e+00	3.924051e-01	2.578792e+14	9.383138e+14	4.375283e+14	1.441853e+04	5.985217e+03	2.679048e+03	0	6.739451e-04
9.400000e+08	4.468921e+12	0.000000e+00	3.924051e-01	2.552023e+14	9.317460e+14	4.355397e+14	1.439546e+04	5.981248e+03	2.677272e+03	0	6.652053e-04
9.500000e+08	4.293835e+12	0.000000e+00	3.924051e-01	2.525736e+14	9.252667e+14	4.335647e+14	1.437262e+04	5.977310e+03	2.675509e+03	0	6.564021e-04
9.600000e+08	4.122046e+12	0.000000e+00	3.924051e-01	2.499916e+14	9.188741e+14	4.316032e+14	1.435002e+04	5.973403e+03	2.673760e+03	0	6.475288e-04
9.700000e+08	3.953469e+12	0.000000e+00	3.924051e-01	2.474554e+14	9.125663e+14	4.296550e+14	1.432766e+04	5.969526e+03	2.672025e+03	0	6.385784e-04
9.800000e+08	3.788021e+12	0.000000e+00	3.924051e-01	2.449636e+14	9.063417e+14	4.277201e+14	1.430551e+04	5.965678e+03	2.670303e+03	0	6.295433e-04
9.900000e+08	3.625625e+12	0.000000e+00	3.924051e-01	2.425152e+14	9.001987e+14	4.257983e+14	1.428359e+04	5.961860e+03	2.668593e+03	0	6.204152e-04
1.000000e+09	3.466203e+12	0.000000e+00	3.924051e-01	2.401092e+14	8.941355e+14	4.238896e+14	1.426189e+04	5.958070e+03	2.666897e+03	0	6.111852e-04
1.010000e+09	3.309682e+12	0.000000e+00	3.924051e-01	2.377446e+14	8.881507e+14	4.219938e+14	1.424040e+04	5.954309e+03	2.665214e+03	0	6.018435e-04
1.020000e+09	3.155989e+12	0.000000e+00	3.924051e-01	2.354202e+14	8.822428e+14	4.201109e+14	1.421912e+04	5.950576e+03	2.663542e+03	0	5.923794e-04
1.030000e+09	3.005055e+12	0.000000e+00	3.924051e-01	2.331352e+14	8.764101e+14	4.182407e+14	1.419806e+04	5.946870e+03	2.661884e+03	0	5.827813e-04
1.040000e+09	2.856814e+12	0.000000e+00	3.924051e-01	2.308886e+14	8.706513e+14	4.163832e+14	1.417719e+04	5.943191e+03	2.660237e+03	0	5.730363e-04
1.050000e+09	2.711199e+12	0.000000e+00	3.924051e-01	2.286795e+14	8.649650e+14	4.145382e+14	1.415652e+04	5.939540e+03	2.658603e+03	0	5.631299e-04
1.060000e+09	2.568147e+12	0.000000e+00	3.924051e-01	2.265070e+14	8.593498e+14	4.127056e+14	1.413606e+04	5.935915e+03	2.656980e+03	0	5.530462e-04
1.070000e+09	2.427598e+12	0.000000e+00	3.924051e-01	2.243703e+14	8.538043e+14	4.108854e+14	1.411578e+04	5.932316e+03	2.655369e+03	0	5.427673e-04
1.080000e+09	2.289491e+12	0.000000e+00	3.924051e-01	2.222685e+14	8.483272e+14	4.090774e+14	1.409570e+04	5.928743e+03	2.653770e+03	0	5.322730e-04
1.090000e+09	2.153769e+12	0.000000e+00	3.924051e-01	2.202008e+14	8.429173e+14	4.072816e+14	1.407580e+04	5.925195e+03	2.652182e+03	0	5.215402e-04
1.100000e+09	2.020376e+12	0.000000e+00	3.924051e-01	2.181665e+14	8.375733e+14	4.054979e+14	1.405609e+04	5.921673e+03	2.650605e+03	0	5.105429e-04
1.110000e+09	1.889258e+12	0.000000e+00	3.924051e-01	2.161648e+14	8.322940e+14	4.037261e+14	1.403656e+04	5.918175e+03	2.649039e+03	0	4.992506e-04
1.120000e+09	1.760362e+12	0.000000e+00	3.924051e-01	2.141949e+14	8.270782e+14	4.019662e+14	1.401721e+04	5.914701e+03	2.647485e+03	0	4.876282e-04
1.130000e+09	1.633637e+12	0.000000e+00	3.924051e-01	2.122561e+14	8.219248e+14	4.002180e+14	1.399803e+04	5.911252e+03	2.645941e+03	0	4.756345e-04
1.140000e+09	1.509034e+12	0.000000e+00	3.924051e-01	2.103478e+14	8.168325e+14	3.984816e+14	1.397903e+04	5.907827e+03	2.644408e+03	0	4.632205e-04
1.150000e+09	1.386504e+12	0.000000e+00	3.924051e-01	2.084693e+14	8.118004e+14	3.967567e+14	1.396020e+04	5.904425e+03	2.642885e+03	0	4.503275e-04
1.160000e+09	1.266000e+12	0.000000e+00	3.924051e-01	2.066199e+14	8.068273e+14	3.950433e+14	1.394153e+04	5.901047e+03	2.641373e+03	0	4.368839e-04
1.170000e+09	1.147478e+12	0.000000e+00	3.924051e-01	2.047989e+14	8.019123e+14	3.933414e+14	1.392303e+04	5.897691e+03	2.639871e+03	0	4.228012e-04
1.180000e+09	1.030892e+12	0.000000e+00	3.924051e-01	2.030058e+14	7.970542e+14	3.916508e+14	1.390469e+04	5.894358e+03	2.638379e+03	0	4.079678e-04
1.190000e+09	9.162005e+11	0.000000e+00	3.924051e-01	2.012400e+14	7.922520e+14	3.899714e+14	1.388652e+04	5.891047e+03	2.636897e+03	0	3.922398e-04
1.200000e+09	8.033611e+11	0.000000e+00	3.924051e-01	1.995008e+14	7.875049e+14	3.883031e+14	1.386850e+04	5.887759e+03	2.635425e+03	0	3.754266e-04
1.210000e+09	6.923335e+11	0.000000e+00	3.924051e-01	1.977877e+14	7.828118e+14	3.866460e+14	1.385063e+04	5.884492e+03	2.633963e+03	0	3.572673e-04
1.220000e+09	5.830783e+11	0.000000e+00	3.924051e-01	1.961002e+14	7.781718e+14	3.849998e+14	1.383292e+04	5.881247e+03	2.632510e+03	0	3.373886e-04
1.230000e+09	4.755571e+11	0.000000e+00	3.924051e-01	1.944376e+14	7.735841e+14	3.833645e+14	1.381536e+04	5.878023e+03	2.631067e+03	0	3.152262e-04
1.240000e+09	3.697326e+11	0.000000e+00	3.924051e-01	1.927996e+14	7.690476e+14	3.817400e+14	1.379795e+04	5.874820e+03	2.629633e+03	0	2.898572e-04
1.250000e+09	2.655687e+11	0.000000e+00	3.924051e-01	1.911855e+14	7.645616e+14	3.801262e+14	1.378068e+04	5.871637e+03	2.628209e+03	0	2.595855e-04
1.260000e+09	1.630301e+11	0.000000e+00	3.924051e-01	1.895949e+14	7.601252e+14	3.785231e+14	1.376356e+04	5.868475e+03	2.626793e+03	0	2.206196e-04
1.270000e+09	6.208241e+10	0.000000e+00	3.924051e-01	1.880273e+14	7.557376e+14	3.769305e+14	1.374658e+04	5.865334e+03	2.625387e+03	0	1.599107e-04
1.280000e+09	-3.730772e+10	0.000000e+00	3.924051e-01	1.864822e+14	7.513979e+14	3.753485e+14	1.372974e+04	5.862212e+03	2.623990e+03	0	nan
