#t		Qconv[W]	Ri[Rp]		R*[Rp]		Qc[W]		Qm[W]		Qr[W]		Tcmb[K]		Tl[K]		Tup[K]		RiFlag		Bs[T]
0.000000e+00	1.372324e+14	0.000000e+00	3.949046e-01	2.040838e+15	2.440855e+15	8.271014e+14	2.221508e+04	7.106102e+03	3.017797e+03	0	2.061590e-03
1.000000e+07	1.318768e+14	0.000000e+00	3.949046e-01	1.975605e+15	2.434902e+15	8.225186e+14	2.207158e+04	7.112044e+03	3.020320e+03	0	2.034415e-03
2.000000e+07	1.267999e+14	0.000000e+00	3.949046e-01	1.913707e+15	2.427338e+15	8.179702e+14	2.193261e+04	7.117095e+03	3.022465e+03	0	2.007966e-03
3.000000e+07	1.219823e+14	0.000000e+00	3.949046e-01	1.854916e+15	2.418329e+15	8.134557e+14	2.179795e+04	7.121324e+03	3.024261e+03	0	1.982207e-03
4.000000e+07	1.174064e+14	0.000000e+00	3.949046e-01	1.799022e+15	2.408028e+15	8.089749e+14	2.166738e+04	7.124795e+03	3.025735e+03	0	1.957105e-03
5.000000e+07	1.130562e+14	0.000000e+00	3.949046e-01	1.745833e+15	2.396573e+15	8.045275e+14	2.154070e+04	7.127567e+03	3.026912e+03	0	1.932628e-03
6.000000e+07	1.089169e+14	0.000000e+00	3.949046e-01	1.695173e+15	2.384094e+15	8.001133e+14	2.141773e+04	7.129694e+03	3.027816e+03	0	1.908748e-03
7.000000e+07	1.049748e+14	0.000000e+00	3.949046e-01	1.646882e+15	2.370707e+15	7.957320e+14	2.129829e+04	7.131227e+03	3.028467e+03	0	1.885436e-03
8.000000e+07	1.012175e+14	0.000000e+00	3.949046e-01	1.600809e+15	2.356520e+15	7.913832e+14	2.118221e+04	7.132211e+03	3.028885e+03	0	1.862667e-03
9.000000e+07	9.763335e+13	0.000000e+00	3.949046e-01	1.556818e+15	2.341630e+15	7.870668e+14	2.106935e+04	7.132690e+03	3.029088e+03	0	1.840417e-03
1.000000e+08	9.421186e+13	0.000000e+00	3.949046e-01	1.514782e+15	2.326128e+15	7.827825e+14	2.095957e+04	7.132701e+03	3.029093e+03	0	1.818662e-03
1.100000e+08	9.094314e+13	0.000000e+00	3.949046e-01	1.474584e+15	2.310094e+15	7.785299e+14	2.085271e+04	7.132282e+03	3.028915e+03	0	1.797381e-03
1.200000e+08	8.781812e+13	0.000000e+00	3.949046e-01	1.436115e+15	2.293603e+15	7.743088e+14	2.074867e+04	7.131466e+03	3.028568e+03	0	1.776553e-03
1.300000e+08	8.482839e+13	0.000000e+00	3.949046e-01	1.399276e+15	2.276721e+15	7.701190e+14	2.064731e+04	7.130283e+03	3.028066e+03	0	1.756159e-03
1.400000e+08	8.196613e+13	0.000000e+00	3.949046e-01	1.363972e+15	2.259511e+15	7.659602e+14	2.054854e+04	7.128763e+03	3.027420e+03	0	1.736181e-03
1.500000e+08	7.922411e+13	0.000000e+00	3.949046e-01	1.330118e+15	2.242027e+15	7.618322e+14	2.045223e+04	7.126932e+03	3.026643e+03	0	1.716601e-03
1.600000e+08	7.659558e+13	0.000000e+00	3.949046e-01	1.297633e+15	2.224320e+15	7.577346e+14	2.035829e+04	7.124815e+03	3.025743e+03	0	1.697402e-03
1.700000e+08	7.407428e+13	0.000000e+00	3.949046e-01	1.266442e+15	2.206436e+15	7.536673e+14	2.026662e+04	7.122433e+03	3.024732e+03	0	1.678569e-03
1.800000e+08	7.165438e+13	0.000000e+00	3.949046e-01	1.236476e+15	2.188416e+15	7.496300e+14	2.017714e+04	7.119808e+03	3.023617e+03	0	1.660088e-03
1.900000e+08	6.933042e+13	0.000000e+00	3.949046e-01	1.207669e+15	2.170297e+15	7.456224e+14	2.008976e+04	7.116959e+03	3.022407e+03	0	1.641943e-03
2.000000e+08	6.709733e+13	0.000000e+00	3.949046e-01	1.179960e+15	2.152112e+15	7.416443e+14	2.000440e+04	7.113905e+03	3.021110e+03	0	1.624122e-03
2.100000e+08	6.495037e+13	0.000000e+00	3.949046e-01	1.153294e+15	2.133892e+15	7.376954e+14	1.992098e+04	7.110661e+03	3.019733e+03	0	1.606611e-03
2.200000e+08	6.288509e+13	0.000000e+00	3.949046e-01	1.127616e+15	2.115664e+15	7.337756e+14	1.983943e+04	7.107244e+03	3.018282e+03	0	1.589398e-03
2.300000e+08	6.089734e+13	0.000000e+00	3.949046e-01	1.102876e+15	2.097453e+15	7.298845e+14	1.975968e+04	7.103668e+03	3.016763e+03	0	1.572472e-03
2.400000e+08	5.898323e+13	0.000000e+00	3.949046e-01	1.079029e+15	2.079281e+15	7.260219e+14	1.968167e+04	7.099945e+03	3.015182e+03	0	1.555821e-03
2.500000e+08	5.713911e+13	0.000000e+00	3.949046e-01	1.056031e+15	2.061166e+15	7.221877e+14	1.960533e+04	7.096089e+03	3.013544e+03	0	1.539435e-03
2.600000e+08	5.536155e+13	0.000000e+00	3.949046e-01	1.033839e+15	2.043127e+15	7.183814e+14	1.953061e+04	7.092110e+03	3.011855e+03	0	1.523303e-03
2.700000e+08	5.364734e+13	0.000000e+00	3.949046e-01	1.012417e+15	2.025180e+15	7.146031e+14	1.945744e+04	7.088020e+03	3.010117e+03	0	1.507415e-03
2.800000e+08	5.199346e+13	0.000000e+00	3.949046e-01	9.917275e+14	2.007337e+15	7.108523e+14	1.938578e+04	7.083828e+03	3.008337e+03	0	1.491763e-03
2.900000e+08	5.039707e+13	0.000000e+00	3.949046e-01	9.717362e+14	1.989612e+15	7.071289e+14	1.931558e+04	7.079543e+03	3.006517e+03	0	1.476336e-03
3.000000e+08	4.885548e+13	0.000000e+00	3.949046e-01	9.524113e+14	1.972016e+15	7.034326e+14	1.924678e+04	7.075173e+03	3.004662e+03	0	1.461127e-03
3.100000e+08	4.736618e+13	0.000000e+00	3.949046e-01	9.337224e+14	1.954558e+15	6.997633e+14	1.917933e+04	7.070728e+03	3.002774e+03	0	1.446127e-03
3.200000e+08	4.592679e+13	0.000000e+00	3.949046e-01	9.156410e+14	1.937245e+15	6.961206e+14	1.911320e+04	7.066214e+03	3.000857e+03	0	1.431327e-03
3.300000e+08	4.453506e+13	0.000000e+00	3.949046e-01	8.981401e+14	1.920087e+15	6.925045e+14	1.904835e+04	7.061637e+03	2.998913e+03	0	1.416721e-03
3.400000e+08	4.318889e+13	0.000000e+00	3.949046e-01	8.811942e+14	1.903088e+15	6.889146e+14	1.898472e+04	7.057005e+03	2.996946e+03	0	1.402300e-03
3.500000e+08	4.188627e+13	0.000000e+00	3.949046e-01	8.647793e+14	1.886255e+15	6.853507e+14	1.892229e+04	7.052323e+03	2.994958e+03	0	1.388057e-03
3.600000e+08	4.062530e+13	0.000000e+00	3.949046e-01	8.488726e+14	1.869591e+15	6.818127e+14	1.886101e+04	7.047596e+03	2.992950e+03	0	1.373986e-03
3.700000e+08	3.940422e+13	0.000000e+00	3.949046e-01	8.334526e+14	1.853101e+15	6.783003e+14	1.880086e+04	7.042830e+03	2.990926e+03	0	1.360080e-03
3.800000e+08	3.822131e+13	0.000000e+00	3.949046e-01	8.184989e+14	1.836789e+15	6.748134e+14	1.874179e+04	7.038029e+03	2.988888e+03	0	1.346332e-03
3.900000e+08	3.707498e+13	0.000000e+00	3.949046e-01	8.039923e+14	1.820656e+15	6.713516e+14	1.868377e+04	7.033199e+03	2.986836e+03	0	1.332735e-03
4.000000e+08	3.596371e+13	0.000000e+00	3.949046e-01	7.899143e+14	1.804704e+15	6.679148e+14	1.862677e+04	7.028342e+03	2.984774e+03	0	1.319284e-03
4.100000e+08	3.488606e+13	0.000000e+00	3.949046e-01	7.762476e+14	1.788936e+15	6.645029e+14	1.857077e+04	7.023463e+03	2.982702e+03	0	1.305973e-03
4.200000e+08	3.384066e+13	0.000000e+00	3.949046e-01	7.629757e+14	1.773353e+15	6.611155e+14	1.851572e+04	7.018565e+03	2.980622e+03	0	1.292795e-03
4.300000e+08	3.282622e+13	0.000000e+00	3.949046e-01	7.500831e+14	1.757954e+15	6.577525e+14	1.846162e+04	7.013652e+03	2.978535e+03	0	1.279746e-03
4.400000e+08	3.184151e+13	0.000000e+00	3.949046e-01	7.375547e+14	1.742741e+15	6.544137e+14	1.840842e+04	7.008727e+03	2.976444e+03	0	1.266819e-03
4.500000e+08	3.088535e+13	0.000000e+00	3.949046e-01	7.253765e+14	1.727714e+15	6.510989e+14	1.835611e+04	7.003792e+03	2.974348e+03	0	1.254010e-03
4.600000e+08	2.995663e+13	0.000000e+00	3.949046e-01	7.135350e+14	1.712872e+15	6.478079e+14	1.830465e+04	6.998850e+03	2.972249e+03	0	1.241313e-03
4.700000e+08	2.905429e+13	0.000000e+00	3.949046e-01	7.020174e+14	1.698215e+15	6.445405e+14	1.825403e+04	6.993903e+03	2.970148e+03	0	1.228722e-03
4.800000e+08	2.817733e+13	0.000000e+00	3.949046e-01	6.908115e+14	1.683742e+15	6.412965e+14	1.820422e+04	6.988955e+03	2.968047e+03	0	1.216233e-03
4.900000e+08	2.732478e+13	0.000000e+00	3.949046e-01	6.799057e+14	1.669453e+15	6.380757e+14	1.815521e+04	6.984007e+03	2.965946e+03	0	1.203841e-03
5.000000e+08	2.649574e+13	0.000000e+00	3.949046e-01	6.692890e+14	1.655345e+15	6.348780e+14	1.810696e+04	6.979060e+03	2.963845e+03	0	1.191541e-03
5.100000e+08	2.568932e+13	0.000000e+00	3.949046e-01	6.589507e+14	1.641419e+15	6.317031e+14	1.805946e+04	6.974118e+03	2.961746e+03	0	1.179327e-03
5.200000e+08	2.490471e+13	0.000000e+00	3.949046e-01	6.488809e+14	1.627671e+15	6.285508e+14	1.801269e+04	6.969181e+03	2.959649e+03	0	1.167197e-03
5.300000e+08	2.414110e+13	0.000000e+00	3.949046e-01	6.390700e+14	1.614102e+15	6.254211e+14	1.796663e+04	6.964251e+03	2.957556e+03	0	1.155143e-03
5.400000e+08	2.339774e+13	0.000000e+00	3.949046e-01	6.295086e+14	1.600709e+15	6.223136e+14	1.792127e+04	6.959329e+03	2.955466e+03	0	1.143163e-03
5.500000e+08	2.267391e+13	0.000000e+00	3.949046e-01	6.201881e+14	1.587491e+15	6.192283e+14	1.787658e+04	6.954418e+03	2.953380e+03	0	1.131251e-03
5.600000e+08	2.196892e+13	0.000000e+00	3.949046e-01	6.111002e+14	1.574445e+15	6.161648e+14	1.783255e+04	6.949517e+03	2.951299e+03	0	1.119403e-03
5.700000e+08	2.128210e+13	0.000000e+00	3.949046e-01	6.022367e+14	1.561569e+15	6.131232e+14	1.778916e+04	6.944629e+03	2.949223e+03	0	1.107614e-03
5.800000e+08	2.061283e+13	0.000000e+00	3.949046e-01	5.935901e+14	1.548863e+15	6.101031e+14	1.774639e+04	6.939754e+03	2.947153e+03	0	1.095879e-03
5.900000e+08	1.996051e+13	0.000000e+00	3.949046e-01	5.851529e+14	1.536323e+15	6.071044e+14	1.770424e+04	6.934894e+03	2.945089e+03	0	1.084195e-03
6.000000e+08	1.932455e+13	0.000000e+00	3.949046e-01	5.769183e+14	1.523948e+15	6.041270e+14	1.766269e+04	6.930049e+03	2.943031e+03	0	1.072556e-03
6.100000e+08	1.870440e+13	0.000000e+00	3.949046e-01	5.688794e+14	1.511735e+15	6.011706e+14	1.762171e+04	6.925220e+03	2.940980e+03	0	1.060958e-03
6.200000e+08	1.809954e+13	0.000000e+00	3.949046e-01	5.610299e+14	1.499683e+15	5.982351e+14	1.758130e+04	6.920407e+03	2.938936e+03	0	1.049396e-03
6.300000e+08	1.750946e+13	0.000000e+00	3.949046e-01	5.533635e+14	1.487789e+15	5.953203e+14	1.754145e+04	6.915613e+03	2.936900e+03	0	1.037865e-03
6.400000e+08	1.693366e+13	0.000000e+00	3.949046e-01	5.458743e+14	1.476051e+15	5.924261e+14	1.750214e+04	6.910836e+03	2.934872e+03	0	1.026362e-03
6.500000e+08	1.637169e+13	0.000000e+00	3.949046e-01	5.385568e+14	1.464467e+15	5.895523e+14	1.746336e+04	6.906078e+03	2.932851e+03	0	1.014880e-03
6.600000e+08	1.582310e+13	0.000000e+00	3.949046e-01	5.314053e+14	1.453034e+15	5.866987e+14	1.742510e+04	6.901340e+03	2.930839e+03	0	1.003415e-03
6.700000e+08	1.528747e+13	0.000000e+00	3.949046e-01	5.244148e+14	1.441751e+15	5.838651e+14	1.738734e+04	6.896621e+03	2.928835e+03	0	9.919627e-04
6.800000e+08	1.476436e+13	0.000000e+00	3.949046e-01	5.175801e+14	1.430616e+15	5.810515e+14	1.735008e+04	6.891923e+03	2.926840e+03	0	9.805169e-04
6.900000e+08	1.425341e+13	0.000000e+00	3.949046e-01	5.108964e+14	1.419625e+15	5.782576e+14	1.731330e+04	6.887245e+03	2.924853e+03	0	9.690728e-04
7.000000e+08	1.375421e+13	0.000000e+00	3.949046e-01	5.043592e+14	1.408777e+15	5.754833e+14	1.727700e+04	6.882589e+03	2.922876e+03	0	9.576248e-04
7.100000e+08	1.326642e+13	0.000000e+00	3.949046e-01	4.979640e+14	1.398070e+15	5.727284e+14	1.724115e+04	6.877953e+03	2.920907e+03	0	9.461675e-04
7.200000e+08	1.278967e+13	0.000000e+00	3.949046e-01	4.917065e+14	1.387502e+15	5.699927e+14	1.720576e+04	6.873340e+03	2.918948e+03	0	9.346950e-04
7.300000e+08	1.232363e+13	0.000000e+00	3.949046e-01	4.855825e+14	1.377070e+15	5.672762e+14	1.717081e+04	6.868748e+03	2.916998e+03	0	9.232014e-04
7.400000e+08	1.186799e+13	0.000000e+00	3.949046e-01	4.795882e+14	1.366772e+15	5.645787e+14	1.713630e+04	6.864179e+03	2.915057e+03	0	9.116802e-04
7.500000e+08	1.142242e+13	0.000000e+00	3.949046e-01	4.737197e+14	1.356607e+15	5.618999e+14	1.710220e+04	6.859632e+03	2.913126e+03	0	9.001250e-04
7.600000e+08	1.098662e+13	0.000000e+00	3.949046e-01	4.679733e+14	1.346571e+15	5.592398e+14	1.706853e+04	6.855107e+03	2.911205e+03	0	8.885289e-04
7.700000e+08	1.056032e+13	0.000000e+00	3.949046e-01	4.623455e+14	1.336664e+15	5.565983e+14	1.703526e+04	6.850605e+03	2.909293e+03	0	8.768847e-04
7.800000e+08	1.014322e+13	0.000000e+00	3.949046e-01	4.568329e+14	1.326883e+15	5.539751e+14	1.700239e+04	6.846126e+03	2.907391e+03	0	8.651846e-04
7.900000e+08	9.735065e+12	0.000000e+00	3.949046e-01	4.514322e+14	1.317226e+15	5.513701e+14	1.696991e+04	6.841670e+03	2.905499e+03	0	8.534206e-04
8.000000e+08	9.335594e+12	0.000000e+00	3.949046e-01	4.461403e+14	1.307690e+15	5.487831e+14	1.693781e+04	6.837237e+03	2.903616e+03	0	8.415840e-04
8.100000e+08	8.944559e+12	0.000000e+00	3.949046e-01	4.409541e+14	1.298275e+15	5.462141e+14	1.690609e+04	6.832827e+03	2.901743e+03	0	8.296657e-04
8.200000e+08	8.561719e+12	0.000000e+00	3.949046e-01	4.358707e+14	1.288978e+15	5.436629e+14	1.687473e+04	6.828441e+03	2.899880e+03	0	8.176558e-04
8.300000e+08	8.186845e+12	0.000000e+00	3.949046e-01	4.308872e+14	1.279798e+15	5.411293e+14	1.684374e+04	6.824077e+03	2.898027e+03	0	8.055435e-04
8.400000e+08	7.819712e+12	0.000000e+00	3.949046e-01	4.260009e+14	1.270731e+15	5.386132e+14	1.681309e+04	6.819737e+03	2.896184e+03	0	7.933176e-04
8.500000e+08	7.460105e+12	0.000000e+00	3.949046e-01	4.212092e+14	1.261777e+15	5.361145e+14	1.678280e+04	6.815420e+03	2.894351e+03	0	7.809655e-04
8.600000e+08	7.107819e+12	0.000000e+00	3.949046e-01	4.165094e+14	1.252934e+15	5.336330e+14	1.675284e+04	6.811126e+03	2.892527e+03	0	7.684736e-04
8.700000e+08	6.762650e+12	0.000000e+00	3.949046e-01	4.118992e+14	1.244200e+15	5.311686e+14	1.672322e+04	6.806856e+03	2.890714e+03	0	7.558271e-04
8.800000e+08	6.424408e+12	0.000000e+00	3.949046e-01	4.073762e+14	1.235573e+15	5.287211e+14	1.669392e+04	6.802608e+03	2.888910e+03	0	7.430098e-04
8.900000e+08	6.092904e+12	0.000000e+00	3.949046e-01	4.029380e+14	1.227051e+15	5.262904e+14	1.666494e+04	6.798384e+03	2.887116e+03	0	7.300035e-04
9.000000e+08	5.767958e+12	0.000000e+00	3.949046e-01	3.985825e+14	1.218633e+15	5.238765e+14	1.663628e+04	6.794183e+03	2.885332e+03	0	7.167882e-04
9.100000e+08	5.449396e+12	0.000000e+00	3.949046e-01	3.943075e+14	1.210317e+15	5.214790e+14	1.660792e+04	6.790005e+03	2.883558e+03	0	7.033416e-04
9.200000e+08	5.137049e+12	0.000000e+00	3.949046e-01	3.901109e+14	1.202101e+15	5.190980e+14	1.657987e+04	6.785850e+03	2.881793e+03	0	6.896384e-04
9.300000e+08	4.830754e+12	0.000000e+00	3.949046e-01	3.859907e+14	1.193984e+15	5.167333e+14	1.655212e+04	6.781718e+03	2.880038e+03	0	6.756501e-04
9.400000e+08	4.530354e+12	0.000000e+00	3.949046e-01	3.819450e+14	1.185965e+15	5.143848e+14	1.652466e+04	6.777609e+03	2.878293e+03	0	6.613442e-04
9.500000e+08	4.235696e+12	0.000000e+00	3.949046e-01	3.779719e+14	1.178040e+15	5.120522e+14	1.649748e+04	6.773522e+03	2.876558e+03	0	6.466835e-04
9.600000e+08	3.946633e+12	0.000000e+00	3.949046e-01	3.740695e+14	1.170210e+15	5.097356e+14	1.647059e+04	6.769458e+03	2.874832e+03	0	6.316247e-04
9.700000e+08	3.663022e+12	0.000000e+00	3.949046e-01	3.702362e+14	1.162472e+15	5.074348e+14	1.644397e+04	6.765417e+03	2.873115e+03	0	6.161172e-04
9.800000e+08	3.384725e+12	0.000000e+00	3.949046e-01	3.664701e+14	1.154826e+15	5.051496e+14	1.641763e+04	6.761398e+03	2.871409e+03	0	6.001014e-04
9.900000e+08	3.111609e+12	0.000000e+00	3.949046e-01	3.627698e+14	1.147268e+15	5.028799e+14	1.639155e+04	6.757401e+03	2.869712e+03	0	5.835058e-04
1.000000e+09	2.843543e+12	0.000000e+00	3.949046e-01	3.591334e+14	1.139799e+15	5.006257e+14	1.636573e+04	6.753427e+03	2.868024e+03	0	5.662438e-04
1.010000e+09	2.580403e+12	0.000000e+00	3.949046e-01	3.555596e+14	1.132417e+15	4.983867e+14	1.634018e+04	6.749475e+03	2.866345e+03	0	5.482088e-04
1.020000e+09	2.322066e+12	0.000000e+00	3.949046e-01	3.520468e+14	1.125120e+15	4.961629e+14	1.631487e+04	6.745544e+03	2.864676e+03	0	5.292673e-04
1.030000e+09	2.068416e+12	0.000000e+00	3.949046e-01	3.485935e+14	1.117907e+15	4.939542e+14	1.628982e+04	6.741636e+03	2.863016e+03	0	5.092482e-04
1.040000e+09	1.819338e+12	0.000000e+00	3.949046e-01	3.451983e+14	1.110777e+15	4.917604e+14	1.626501e+04	6.737749e+03	2.861366e+03	0	4.879268e-04
1.050000e+09	1.574722e+12	0.000000e+00	3.949046e-01	3.418599e+14	1.103728e+15	4.895814e+14	1.624044e+04	6.733884e+03	2.859724e+03	0	4.649984e-04
1.060000e+09	1.334460e+12	0.000000e+00	3.949046e-01	3.385770e+14	1.096759e+15	4.874170e+14	1.621611e+04	6.730041e+03	2.858092e+03	0	4.400331e-04
1.070000e+09	1.098449e+12	0.000000e+00	3.949046e-01	3.353481e+14	1.089868e+15	4.852673e+14	1.619201e+04	6.726218e+03	2.856469e+03	0	4.123919e-04
1.080000e+09	8.665876e+11	0.000000e+00	3.949046e-01	3.321722e+14	1.083056e+15	4.831321e+14	1.616814e+04	6.722417e+03	2.854855e+03	0	3.810550e-04
1.090000e+09	6.387780e+11	0.000000e+00	3.949046e-01	3.290480e+14	1.076319e+15	4.810112e+14	1.614449e+04	6.718637e+03	2.853249e+03	0	3.442179e-04
1.100000e+09	4.149255e+11	0.000000e+00	3.949046e-01	3.259742e+14	1.069658e+15	4.789045e+14	1.612107e+04	6.714878e+03	2.851653e+03	0	2.981079e-04
1.110000e+09	1.949378e+11	0.000000e+00	3.949046e-01	3.229498e+14	1.063071e+15	4.768120e+14	1.609786e+04	6.711140e+03	2.850065e+03	0	2.317478e-04
1.120000e+09	-2.127428e+10	0.000000e+00	3.949046e-01	3.199737e+14	1.056557e+15	4.747334e+14	1.607487e+04	6.707422e+03	2.848486e+03	0	nan
