#t		Qconv[W]	Ri[Rp]		R*[Rp]		Qc[W]		Qm[W]		Qr[W]		Tcmb[K]		Tl[K]		Tup[K]		RiFlag		Bs[T]
0.000000e+00	1.464511e+14	0.000000e+00	3.949046e-01	2.159484e+15	2.351620e+15	8.652170e+14	2.301489e+04	7.272396e+03	3.044490e+03	0	2.104821e-03
1.000000e+07	1.408782e+14	0.000000e+00	3.949046e-01	2.093421e+15	2.353453e+15	8.604230e+14	2.287127e+04	7.281424e+03	3.048269e+03	0	2.077777e-03
2.000000e+07	1.355823e+14	0.000000e+00	3.949046e-01	2.030581e+15	2.353469e+15	8.556650e+14	2.273199e+04	7.289475e+03	3.051639e+03	0	2.051408e-03
3.000000e+07	1.305452e+14	0.000000e+00	3.949046e-01	1.970753e+15	2.351819e+15	8.509424e+14	2.259685e+04	7.296617e+03	3.054629e+03	0	2.025682e-03
4.000000e+07	1.257500e+14	0.000000e+00	3.949046e-01	1.913742e+15	2.348645e+15	8.462552e+14	2.246564e+04	7.302914e+03	3.057266e+03	0	2.000570e-03
5.000000e+07	1.211814e+14	0.000000e+00	3.949046e-01	1.859371e+15	2.344076e+15	8.416029e+14	2.233819e+04	7.308425e+03	3.059572e+03	0	1.976043e-03
6.000000e+07	1.168251e+14	0.000000e+00	3.949046e-01	1.807475e+15	2.338237e+15	8.369852e+14	2.221433e+04	7.313203e+03	3.061573e+03	0	1.952074e-03
7.000000e+07	1.126680e+14	0.000000e+00	3.949046e-01	1.757903e+15	2.331241e+15	8.324020e+14	2.209388e+04	7.317301e+03	3.063288e+03	0	1.928640e-03
8.000000e+07	1.086980e+14	0.000000e+00	3.949046e-01	1.710515e+15	2.323195e+15	8.278528e+14	2.197671e+04	7.320764e+03	3.064738e+03	0	1.905716e-03
9.000000e+07	1.049040e+14	0.000000e+00	3.949046e-01	1.665181e+15	2.314197e+15	8.233375e+14	2.186266e+04	7.323638e+03	3.065941e+03	0	1.883281e-03
1.000000e+08	1.012756e+14	0.000000e+00	3.949046e-01	1.621783e+15	2.304340e+15	8.188557e+14	2.175161e+04	7.325963e+03	3.066914e+03	0	1.861312e-03
1.100000e+08	9.780309e+13	0.000000e+00	3.949046e-01	1.580208e+15	2.293707e+15	8.144071e+14	2.164342e+04	7.327776e+03	3.067674e+03	0	1.839791e-03
1.200000e+08	9.447771e+13	0.000000e+00	3.949046e-01	1.540354e+15	2.282379e+15	8.099916e+14	2.153798e+04	7.329114e+03	3.068234e+03	0	1.818699e-03
1.300000e+08	9.129112e+13	0.000000e+00	3.949046e-01	1.502124e+15	2.270427e+15	8.056087e+14	2.143518e+04	7.330008e+03	3.068608e+03	0	1.798017e-03
1.400000e+08	8.823562e+13	0.000000e+00	3.949046e-01	1.465430e+15	2.257918e+15	8.012583e+14	2.133491e+04	7.330491e+03	3.068810e+03	0	1.777730e-03
1.500000e+08	8.530406e+13	0.000000e+00	3.949046e-01	1.430188e+15	2.244915e+15	7.969400e+14	2.123706e+04	7.330589e+03	3.068851e+03	0	1.757820e-03
1.600000e+08	8.248973e+13	0.000000e+00	3.949046e-01	1.396320e+15	2.231474e+15	7.926536e+14	2.114155e+04	7.330330e+03	3.068743e+03	0	1.738272e-03
1.700000e+08	7.978641e+13	0.000000e+00	3.949046e-01	1.363755e+15	2.217648e+15	7.883988e+14	2.104828e+04	7.329739e+03	3.068495e+03	0	1.719072e-03
1.800000e+08	7.718827e+13	0.000000e+00	3.949046e-01	1.332424e+15	2.203485e+15	7.841754e+14	2.095716e+04	7.328839e+03	3.068118e+03	0	1.700206e-03
1.900000e+08	7.468987e+13	0.000000e+00	3.949046e-01	1.302265e+15	2.189030e+15	7.799832e+14	2.086812e+04	7.327650e+03	3.067621e+03	0	1.681660e-03
2.000000e+08	7.228610e+13	0.000000e+00	3.949046e-01	1.273218e+15	2.174323e+15	7.758217e+14	2.078108e+04	7.326194e+03	3.067011e+03	0	1.663423e-03
2.100000e+08	6.997221e+13	0.000000e+00	3.949046e-01	1.245228e+15	2.159403e+15	7.716909e+14	2.069597e+04	7.324489e+03	3.066297e+03	0	1.645481e-03
2.200000e+08	6.774370e+13	0.000000e+00	3.949046e-01	1.218243e+15	2.144302e+15	7.675904e+14	2.061271e+04	7.322552e+03	3.065487e+03	0	1.627824e-03
2.300000e+08	6.559639e+13	0.000000e+00	3.949046e-01	1.192213e+15	2.129054e+15	7.635200e+14	2.053125e+04	7.320400e+03	3.064586e+03	0	1.610439e-03
2.400000e+08	6.352634e+13	0.000000e+00	3.949046e-01	1.167093e+15	2.113686e+15	7.594794e+14	2.045151e+04	7.318047e+03	3.063601e+03	0	1.593317e-03
2.500000e+08	6.152983e+13	0.000000e+00	3.949046e-01	1.142840e+15	2.098225e+15	7.554685e+14	2.037344e+04	7.315509e+03	3.062538e+03	0	1.576448e-03
2.600000e+08	5.960339e+13	0.000000e+00	3.949046e-01	1.119414e+15	2.082695e+15	7.514869e+14	2.029698e+04	7.312799e+03	3.061404e+03	0	1.559821e-03
2.700000e+08	5.774374e+13	0.000000e+00	3.949046e-01	1.096775e+15	2.067118e+15	7.475344e+14	2.022207e+04	7.309928e+03	3.060202e+03	0	1.543427e-03
2.800000e+08	5.594778e+13	0.000000e+00	3.949046e-01	1.074889e+15	2.051515e+15	7.436107e+14	2.014867e+04	7.306909e+03	3.058938e+03	0	1.527257e-03
2.900000e+08	5.421262e+13	0.000000e+00	3.949046e-01	1.053721e+15	2.035903e+15	7.397158e+14	2.007672e+04	7.303752e+03	3.057616e+03	0	1.511302e-03
3.000000e+08	5.253549e+13	0.000000e+00	3.949046e-01	1.033238e+15	2.020299e+15	7.358492e+14	2.000618e+04	7.300467e+03	3.056241e+03	0	1.495554e-03
3.100000e+08	5.091382e+13	0.000000e+00	3.949046e-01	1.013412e+15	2.004719e+15	7.320107e+14	1.993700e+04	7.297065e+03	3.054817e+03	0	1.480004e-03
3.200000e+08	4.934516e+13	0.000000e+00	3.949046e-01	9.942129e+14	1.989175e+15	7.282002e+14	1.986914e+04	7.293554e+03	3.053347e+03	0	1.464646e-03
3.300000e+08	4.782718e+13	0.000000e+00	3.949046e-01	9.756141e+14	1.973681e+15	7.244174e+14	1.980256e+04	7.289941e+03	3.051835e+03	0	1.449470e-03
3.400000e+08	4.635771e+13	0.000000e+00	3.949046e-01	9.575900e+14	1.958248e+15	7.206621e+14	1.973721e+04	7.286236e+03	3.050283e+03	0	1.434471e-03
3.500000e+08	4.493467e+13	0.000000e+00	3.949046e-01	9.401163e+14	1.942886e+15	7.169340e+14	1.967306e+04	7.282445e+03	3.048696e+03	0	1.419640e-03
3.600000e+08	4.355610e+13	0.000000e+00	3.949046e-01	9.231702e+14	1.927603e+15	7.132329e+14	1.961008e+04	7.278575e+03	3.047076e+03	0	1.404971e-03
3.700000e+08	4.222015e+13	0.000000e+00	3.949046e-01	9.067300e+14	1.912409e+15	7.095587e+14	1.954823e+04	7.274633e+03	3.045426e+03	0	1.390457e-03
3.800000e+08	4.092505e+13	0.000000e+00	3.949046e-01	8.907749e+14	1.897310e+15	7.059110e+14	1.948746e+04	7.270623e+03	3.043747e+03	0	1.376092e-03
3.900000e+08	3.966913e+13	0.000000e+00	3.949046e-01	8.752855e+14	1.882313e+15	7.022897e+14	1.942777e+04	7.266553e+03	3.042044e+03	0	1.361869e-03
4.000000e+08	3.845082e+13	0.000000e+00	3.949046e-01	8.602432e+14	1.867425e+15	6.986946e+14	1.936910e+04	7.262428e+03	3.040316e+03	0	1.347782e-03
4.100000e+08	3.726860e+13	0.000000e+00	3.949046e-01	8.456304e+14	1.852649e+15	6.951254e+14	1.931143e+04	7.258251e+03	3.038568e+03	0	1.333825e-03
4.200000e+08	3.612104e+13	0.000000e+00	3.949046e-01	8.314302e+14	1.837991e+15	6.915819e+14	1.925474e+04	7.254029e+03	3.036800e+03	0	1.319991e-03
4.300000e+08	3.500678e+13	0.000000e+00	3.949046e-01	8.176267e+14	1.823455e+15	6.880639e+14	1.919900e+04	7.249764e+03	3.035015e+03	0	1.306277e-03
4.400000e+08	3.392454e+13	0.000000e+00	3.949046e-01	8.042048e+14	1.809045e+15	6.845713e+14	1.914417e+04	7.245462e+03	3.033214e+03	0	1.292674e-03
4.500000e+08	3.287307e+13	0.000000e+00	3.949046e-01	7.911500e+14	1.794763e+15	6.811037e+14	1.909024e+04	7.241126e+03	3.031399e+03	0	1.279178e-03
4.600000e+08	3.185121e+13	0.000000e+00	3.949046e-01	7.784486e+14	1.780611e+15	6.776610e+14	1.903718e+04	7.236759e+03	3.029570e+03	0	1.265784e-03
4.700000e+08	3.085785e+13	0.000000e+00	3.949046e-01	7.660873e+14	1.766593e+15	6.742430e+14	1.898497e+04	7.232365e+03	3.027731e+03	0	1.252486e-03
4.800000e+08	2.989191e+13	0.000000e+00	3.949046e-01	7.540538e+14	1.752710e+15	6.708496e+14	1.893358e+04	7.227947e+03	3.025882e+03	0	1.239279e-03
4.900000e+08	2.895239e+13	0.000000e+00	3.949046e-01	7.423361e+14	1.738964e+15	6.674804e+14	1.888300e+04	7.223508e+03	3.024023e+03	0	1.226156e-03
5.000000e+08	2.803831e+13	0.000000e+00	3.949046e-01	7.309229e+14	1.725355e+15	6.641353e+14	1.883319e+04	7.219051e+03	3.022157e+03	0	1.213114e-03
5.100000e+08	2.714876e+13	0.000000e+00	3.949046e-01	7.198032e+14	1.711885e+15	6.608141e+14	1.878415e+04	7.214578e+03	3.020285e+03	0	1.200147e-03
5.200000e+08	2.628285e+13	0.000000e+00	3.949046e-01	7.089666e+14	1.698555e+15	6.575166e+14	1.873585e+04	7.210091e+03	3.018407e+03	0	1.187249e-03
5.300000e+08	2.543975e+13	0.000000e+00	3.949046e-01	6.984034e+14	1.685364e+15	6.542426e+14	1.868827e+04	7.205594e+03	3.016524e+03	0	1.174416e-03
5.400000e+08	2.461864e+13	0.000000e+00	3.949046e-01	6.881040e+14	1.672314e+15	6.509919e+14	1.864140e+04	7.201088e+03	3.014637e+03	0	1.161642e-03
5.500000e+08	2.381875e+13	0.000000e+00	3.949046e-01	6.780593e+14	1.659404e+15	6.477644e+14	1.859522e+04	7.196574e+03	3.012748e+03	0	1.148922e-03
5.600000e+08	2.303936e+13	0.000000e+00	3.949046e-01	6.682606e+14	1.646634e+15	6.445598e+14	1.854970e+04	7.192056e+03	3.010856e+03	0	1.136252e-03
5.700000e+08	2.227976e+13	0.000000e+00	3.949046e-01	6.586997e+14	1.634004e+15	6.413780e+14	1.850485e+04	7.187534e+03	3.008963e+03	0	1.123625e-03
5.800000e+08	2.153928e+13	0.000000e+00	3.949046e-01	6.493687e+14	1.621513e+15	6.382187e+14	1.846063e+04	7.183011e+03	3.007069e+03	0	1.111036e-03
5.900000e+08	2.081726e+13	0.000000e+00	3.949046e-01	6.402598e+14	1.609162e+15	6.350818e+14	1.841703e+04	7.178487e+03	3.005176e+03	0	1.098480e-03
6.000000e+08	2.011310e+13	0.000000e+00	3.949046e-01	6.313659e+14	1.596948e+15	6.319672e+14	1.837404e+04	7.173964e+03	3.003282e+03	0	1.085952e-03
6.100000e+08	1.942620e+13	0.000000e+00	3.949046e-01	6.226798e+14	1.584873e+15	6.288746e+14	1.833165e+04	7.169444e+03	3.001390e+03	0	1.073446e-03
6.200000e+08	1.875600e+13	0.000000e+00	3.949046e-01	6.141950e+14	1.572934e+15	6.258038e+14	1.828983e+04	7.164928e+03	2.999500e+03	0	1.060957e-03
6.300000e+08	1.810195e+13	0.000000e+00	3.949046e-01	6.059049e+14	1.561130e+15	6.227547e+14	1.824858e+04	7.160417e+03	2.997611e+03	0	1.048478e-03
6.400000e+08	1.746353e+13	0.000000e+00	3.949046e-01	5.978035e+14	1.549462e+15	6.197271e+14	1.820789e+04	7.155912e+03	2.995725e+03	0	1.036005e-03
6.500000e+08	1.684023e+13	0.000000e+00	3.949046e-01	5.898847e+14	1.537927e+15	6.167208e+14	1.816774e+04	7.151414e+03	2.993842e+03	0	1.023530e-03
6.600000e+08	1.623159e+13	0.000000e+00	3.949046e-01	5.821429e+14	1.526524e+15	6.137357e+14	1.812812e+04	7.146924e+03	2.991962e+03	0	1.011047e-03
6.700000e+08	1.563713e+13	0.000000e+00	3.949046e-01	5.745727e+14	1.515253e+15	6.107716e+14	1.808901e+04	7.142443e+03	2.990086e+03	0	9.985505e-04
6.800000e+08	1.505641e+13	0.000000e+00	3.949046e-01	5.671687e+14	1.504112e+15	6.078283e+14	1.805042e+04	7.137971e+03	2.988214e+03	0	9.860332e-04
6.900000e+08	1.448901e+13	0.000000e+00	3.949046e-01	5.599259e+14	1.493100e+15	6.049056e+14	1.801231e+04	7.133511e+03	2.986347e+03	0	9.734882e-04
7.000000e+08	1.393453e+13	0.000000e+00	3.949046e-01	5.528395e+14	1.482215e+15	6.020035e+14	1.797469e+04	7.129061e+03	2.984484e+03	0	9.609079e-04
7.100000e+08	1.339255e+13	0.000000e+00	3.949046e-01	5.459047e+14	1.471457e+15	5.991216e+14	1.793755e+04	7.124623e+03	2.982627e+03	0	9.482849e-04
7.200000e+08	1.286271e+13	0.000000e+00	3.949046e-01	5.391172e+14	1.460823e+15	5.962599e+14	1.790087e+04	7.120198e+03	2.980774e+03	0	9.356108e-04
7.300000e+08	1.234465e+13	0.000000e+00	3.949046e-01	5.324725e+14	1.450313e+15	5.934182e+14	1.786464e+04	7.115787e+03	2.978927e+03	0	9.228772e-04
7.400000e+08	1.183800e+13	0.000000e+00	3.949046e-01	5.259665e+14	1.439924e+15	5.905964e+14	1.782886e+04	7.111388e+03	2.977086e+03	0	9.100750e-04
7.500000e+08	1.134244e+13	0.000000e+00	3.949046e-01	5.195952e+14	1.429656e+15	5.877942e+14	1.779351e+04	7.107004e+03	2.975251e+03	0	8.971944e-04
7.600000e+08	1.085764e+13	0.000000e+00	3.949046e-01	5.133547e+14	1.419507e+15	5.850115e+14	1.775859e+04	7.102635e+03	2.973421e+03	0	8.842251e-04
7.700000e+08	1.038328e+13	0.000000e+00	3.949046e-01	5.072413e+14	1.409476e+15	5.822482e+14	1.772409e+04	7.098281e+03	2.971598e+03	0	8.711560e-04
7.800000e+08	9.919071e+12	0.000000e+00	3.949046e-01	5.012514e+14	1.399561e+15	5.795041e+14	1.769000e+04	7.093942e+03	2.969782e+03	0	8.579752e-04
7.900000e+08	9.464713e+12	0.000000e+00	3.949046e-01	4.953816e+14	1.389760e+15	5.767790e+14	1.765630e+04	7.089619e+03	2.967972e+03	0	8.446696e-04
8.000000e+08	9.019928e+12	0.000000e+00	3.949046e-01	4.896285e+14	1.380073e+15	5.740729e+14	1.762300e+04	7.085312e+03	2.966169e+03	0	8.312253e-04
8.100000e+08	8.584447e+12	0.000000e+00	3.949046e-01	4.839888e+14	1.370497e+15	5.713855e+14	1.759009e+04	7.081021e+03	2.964373e+03	0	8.176269e-04
8.200000e+08	8.158009e+12	0.000000e+00	3.949046e-01	4.784595e+14	1.361032e+15	5.687167e+14	1.755755e+04	7.076748e+03	2.962584e+03	0	8.038576e-04
8.300000e+08	7.740362e+12	0.000000e+00	3.949046e-01	4.730376e+14	1.351676e+15	5.660664e+14	1.752539e+04	7.072491e+03	2.960802e+03	0	7.898988e-04
8.400000e+08	7.331263e+12	0.000000e+00	3.949046e-01	4.677202e+14	1.342427e+15	5.634343e+14	1.749358e+04	7.068251e+03	2.959027e+03	0	7.757301e-04
8.500000e+08	6.930478e+12	0.000000e+00	3.949046e-01	4.625044e+14	1.333285e+15	5.608204e+14	1.746213e+04	7.064029e+03	2.957260e+03	0	7.613285e-04
8.600000e+08	6.537781e+12	0.000000e+00	3.949046e-01	4.573877e+14	1.324246e+15	5.582246e+14	1.743104e+04	7.059825e+03	2.955499e+03	0	7.466685e-04
8.700000e+08	6.152953e+12	0.000000e+00	3.949046e-01	4.523673e+14	1.315311e+15	5.556466e+14	1.740028e+04	7.055638e+03	2.953747e+03	0	7.317211e-04
8.800000e+08	5.775783e+12	0.000000e+00	3.949046e-01	4.474407e+14	1.306478e+15	5.530863e+14	1.736986e+04	7.051469e+03	2.952002e+03	0	7.164535e-04
8.900000e+08	5.406067e+12	0.000000e+00	3.949046e-01	4.426055e+14	1.297745e+15	5.505437e+14	1.733977e+04	7.047319e+03	2.950264e+03	0	7.008281e-04
9.000000e+08	5.043609e+12	0.000000e+00	3.949046e-01	4.378594e+14	1.289111e+15	5.480184e+14	1.731001e+04	7.043186e+03	2.948534e+03	0	6.848017e-04
9.100000e+08	4.688216e+12	0.000000e+00	3.949046e-01	4.332000e+14	1.280574e+15	5.455105e+14	1.728056e+04	7.039072e+03	2.946812e+03	0	6.683238e-04
9.200000e+08	4.339706e+12	0.000000e+00	3.949046e-01	4.286251e+14	1.272134e+15	5.430198e+14	1.725142e+04	7.034976e+03	2.945097e+03	0	6.513351e-04
9.300000e+08	3.997899e+12	0.000000e+00	3.949046e-01	4.241327e+14	1.263789e+15	5.405461e+14	1.722260e+04	7.030899e+03	2.943390e+03	0	6.337651e-04
9.400000e+08	3.662623e+12	0.000000e+00	3.949046e-01	4.197206e+14	1.255537e+15	5.380893e+14	1.719407e+04	7.026840e+03	2.941691e+03	0	6.155289e-04
9.500000e+08	3.333712e+12	0.000000e+00	3.949046e-01	4.153869e+14	1.247377e+15	5.356493e+14	1.716584e+04	7.022800e+03	2.940000e+03	0	5.965228e-04
9.600000e+08	3.011003e+12	0.000000e+00	3.949046e-01	4.111296e+14	1.239308e+15	5.332259e+14	1.713789e+04	7.018779e+03	2.938316e+03	0	5.766179e-04
9.700000e+08	2.694340e+12	0.000000e+00	3.949046e-01	4.069467e+14	1.231329e+15	5.308191e+14	1.711024e+04	7.014776e+03	2.936640e+03	0	5.556507e-04
9.800000e+08	2.383572e+12	0.000000e+00	3.949046e-01	4.028366e+14	1.223438e+15	5.284286e+14	1.708286e+04	7.010792e+03	2.934973e+03	0	5.334092e-04
9.900000e+08	2.078553e+12	0.000000e+00	3.949046e-01	3.987975e+14	1.215634e+15	5.260543e+14	1.705576e+04	7.006826e+03	2.933312e+03	0	5.096101e-04
1.000000e+09	1.779139e+12	0.000000e+00	3.949046e-01	3.948275e+14	1.207917e+15	5.236962e+14	1.702893e+04	7.002880e+03	2.931660e+03	0	4.838614e-04
1.010000e+09	1.485193e+12	0.000000e+00	3.949046e-01	3.909252e+14	1.200283e+15	5.213540e+14	1.700237e+04	6.998952e+03	2.930016e+03	0	4.555947e-04
1.020000e+09	1.196582e+12	0.000000e+00	3.949046e-01	3.870888e+14	1.192734e+15	5.190278e+14	1.697607e+04	6.995043e+03	2.928379e+03	0	4.239343e-04
1.030000e+09	9.131769e+11	0.000000e+00	3.949046e-01	3.833168e+14	1.185266e+15	5.167172e+14	1.695002e+04	6.991152e+03	2.926751e+03	0	3.874087e-04
1.040000e+09	6.348515e+11	0.000000e+00	3.949046e-01	3.796077e+14	1.177880e+15	5.144223e+14	1.692423e+04	6.987280e+03	2.925130e+03	0	3.431956e-04
1.050000e+09	3.614846e+11	0.000000e+00	3.949046e-01	3.759601e+14	1.170573e+15	5.121429e+14	1.689869e+04	6.983427e+03	2.923516e+03	0	2.844555e-04
1.060000e+09	9.295818e+10	0.000000e+00	3.949046e-01	3.723725e+14	1.163345e+15	5.098789e+14	1.687339e+04	6.979592e+03	2.921911e+03	0	1.808896e-04
1.070000e+09	-1.708422e+11	0.000000e+00	3.949046e-01	3.688435e+14	1.156195e+15	5.076301e+14	1.684833e+04	6.975776e+03	2.920313e+03	0	nan
